34.215
-87.078
-215.576
-346.082
-468.618
-570.766
-641.944
-678.493
-683.51
-665.059
-632.349
-590.791
-541.894
-484.06
-415.671
-338.661
-257.859
-180.485
-113.33
-59.49
-19.071
10.475
32.779
49.846
62.409
70.357
73.133
71.293
66.16
59.272
52.224
45.879
40.713
37.04
34.924
34.394
35.264
37.076
39.381
41.817
43.955
45.433
45.927
45.13
43.047
39.918
36.016
31.634
27.094
22.695
18.778
15.706
13.631
12.526
12.296
12.786
13.837
15.298
16.973
18.625
20.087
21.279
22.172
22.789
23.152
23.273
23.178
22.919
22.547
22.108
21.64
21.169
20.725
20.349
20.088
19.989
20.099
20.451
21.063
21.952
23.126
24.59
26.343
28.38
30.686
33.249
36.059
39.105
42.376
45.859
49.534
53.383
57.385
61.521
65.772
70.117
74.535
79.006
83.507
88.017
92.515
96.98
101.386
105.709
109.924
114.007
117.934
121.68
125.224
128.541
131.611
134.415
136.934
139.151
141.049
142.616
143.837
144.702
145.202
145.328
145.075
144.438
143.415
142.005
140.21
138.033
135.478
132.551
129.263
125.621
121.638
117.326
112.701
107.777
102.572
97.105
91.394
85.461
79.326
73.012
66.54
59.935
53.219
46.416
39.55
32.643
25.719
18.802
11.915
5.078
-1.686
-8.356
-14.912
-21.334
-27.605
-33.706
-39.622
-45.338
-50.839
-56.114
-61.15
-65.938
-70.468
-74.735
-78.732
-82.454
-85.898
-89.063
-91.948
-94.553
-96.882
-98.936
-100.721
-102.242
-103.506
-104.519
-105.291
-105.829
-106.144
-106.247
-106.147
-105.856
-105.386
-104.748
-103.954
-103.016
-101.947
-100.757
-99.46
-98.066
-96.588
-95.036
-93.42
-91.753
-90.042
-88.299
-86.531
-84.748
-82.956
-81.165
-79.38
-77.607
-75.853
-74.121
-72.418
-70.747
-69.11
-67.511
-65.953
-64.437
-62.964
-61.536
-60.153
-58.815
-57.523
-56.277
-55.074
-53.916
-52.8
-51.726
-50.692
-49.697
-48.739
-47.816
-46.927
-46.07
-45.242
-44.443
-43.67
-42.922
-42.198
-41.494
-40.811
-40.146
-39.499
-38.868
-38.251
-37.649
-37.061
-36.485
-35.922
-35.37
-34.831
-34.303
-33.786
-33.282
-32.789
-32.309
-31.841
-31.387
-30.947
-30.522
-30.113
-29.721
-29.348
-28.995
-28.662
-28.352
-28.066
-27.805
-27.57
-27.362
-27.184
-27.035
-26.917
-26.831
-26.778
-26.758
-26.771
-26.817
-26.897
-27.01
-27.156
-27.335
-27.544
-27.783
-28.05
-28.345
-28.664
-29.006
-29.367
-29.745
-30.135
-30.535
-30.939
-31.343
-31.742
-32.13
-32.502
-32.852
-33.174
-33.463
-33.712
-33.916
-34.067
-34.159
-34.188
-34.145
-34.026
-33.825
-33.537
-33.156
-32.679
-32.101
-31.417
-30.625
-29.722
-28.704
-27.571
-26.32
-24.951
-23.464
-21.86
-20.142
-18.313
-16.377
-14.341
-12.21
-9.995
-7.702
-5.34
-2.921
-0.454
2.05
4.578
7.118
9.658
12.184
14.681
17.136
19.533
21.86
24.102
26.248
28.285
30.203
31.99
33.638
35.138
36.484
37.669
38.686
39.531
40.204
40.707
41.045
41.226
41.261
41.165
40.958
40.659
40.287
39.858
39.385
38.885
38.37
37.849
37.334
36.831
36.349
35.9
35.496
35.137
34.802
34.46
34.078
33.607
32.989
32.14
30.932
29.284
27.183
24.62
21.604
18.183
14.386
10.318
6.237
2.29
-1.468
-4.96
-8.187
-11.15
-13.728
-15.897
-17.838
-19.582
-21.121
-22.508
-23.629
-24.48
-25.25
-26.007
-26.731
-27.502
-28.275
-28.932
-29.081
-27.57
-23.111
-14.495
-1.539
14.159
31.131
48.543
67.413
91.866
125.834
171.649
229.16
293.346
356.703
410.684
445.6
454.002
431.28
376.438
294.407
193.15
81.418
-33.856
-151.039
-270.837
-393.157
-514.09
-623.539
-709.598
-763.364
-782.312
-771.557
-739.738
-694.45
-640.105
-577.682
-507.305
-431.228
-353.669
-280.033
-215.344
-161.763
-119.06
-85.582
-59.087
-38.278
-23.046
-13.592
-9.192
-8.509
-9.436
-9.638
-8.613
-6.438
-3.545
-0.82
2.134
5.626
9.856
15.089
20.394
25.214
28.916
30.682
31.341
31.438
31.635
33.11
35.163
37.141
38.645
38.91
38.677
38.803
39.69
41.808
44.876
48.502
52.585
56.961
61.557
66.275
70.872
75.175
79.129
82.749
86.109
89.259
92.206
94.938
97.471
99.846
102.106
104.289
106.417
108.505
110.581
112.691
114.89
117.222
119.702
122.31
125.018
127.813
130.71
133.745
136.94
140.298
143.817
147.496
151.344
155.371
159.57
163.92
168.394
172.973
177.65
182.428
187.31
192.284
197.328
202.406
207.491
212.558
217.583
222.535
227.382
232.092
236.643
241.02
245.207
249.183
252.926
256.412
259.618
262.526
265.12
267.385
269.308
270.876
272.077
272.903
273.35
273.41
273.077
272.344
271.208
269.666
267.719
265.369
262.621
259.479
255.952
252.051
247.788
243.177
238.231
232.966
227.401
221.553
215.443
209.092
202.52
195.751
188.808
181.714
174.494
167.173
159.774
152.323
144.844
137.362
129.901
122.485
115.137
107.88
100.736
93.727
86.872
80.192
73.704
67.425
61.371
55.556
49.993
44.692
39.664
34.916
30.455
26.285
22.411
18.833
15.552
12.568
9.879
7.479
5.366
3.532
1.97
0.672
-0.37
-1.169
-1.733
-2.075
-2.207
-2.142
-1.892
-1.472
-0.895
-0.175
0.674
1.638
2.703
3.855
5.081
6.368
7.703
9.074
10.47
11.879
13.29
14.694
16.082
17.444
18.773
20.061
21.301
22.487
23.614
24.677
25.672
26.594
27.442
28.212
28.902
29.511
30.038
30.483
30.845
31.125
31.324
31.442
31.482
31.445
31.334
31.151
30.898
30.578
30.194
29.75
29.248
28.692
28.085
27.43
26.732
25.994
25.22
24.413
23.578
22.718
21.836
20.937
20.024
19.101
18.172
17.24
16.309
15.382
14.464
13.557
12.665
11.79
10.935
10.104
9.297
8.519
7.77
7.053
6.37
5.721
5.108
4.532
3.993
3.493
3.032
2.609
2.225
1.878
1.569
1.295
1.057
0.853
0.681
0.54
0.428
0.343
0.283
0.246
0.229
0.23
0.246
0.276
0.317
0.367
0.424
0.486
0.552
0.621
0.691
0.762
0.833
0.904
0.974
1.045
1.115
1.186
1.26
1.337
1.419
1.508
1.607
1.716
1.84
1.981
2.14
2.322
2.529
2.764
3.031
3.333
3.673
4.053
4.478
4.948
5.466
6.034
6.652
7.32
8.039
8.806
9.62
10.477
11.375
12.309
13.275
14.267
15.28
16.31
17.349
18.392
19.431
20.458
21.466
22.446
23.389
24.286
25.129
25.91
26.621
27.256
27.81
28.278
28.656
28.939
29.119
29.19
29.154
29.013
28.771
28.437
28.017
27.53
26.996
26.437
25.87
25.309
24.76
24.232
23.737
23.292
22.919
22.631
22.433
22.326
22.305
22.365
22.493
22.648
22.771
22.806
22.703
22.434
21.979
21.299
20.352
19.082
17.427
15.354
12.831
9.818
6.301
2.296
-2.131
-6.797
-11.454
-15.875
-19.805
-22.987
-25.223
-26.333
-26.242
-25.091
-23.146
-20.697
-18.088
-15.736
-14.029
-13.301
-13.776
-15.105
-16.319
-16.342
-13.934
-8.409
-0.159
10.314
22.724
37.927
58.239
86.71
125.917
176.044
235.265
298.775
359.375
409.713
440.903
445.422
419.035
360.645
275.531
172.264
59.406
-56.321
-173.905
-294.71
-418.595
-541.346
-652.012
-737.362
-787.095
-797.515
-773.812
-726.337
-665.956
-600.937
-534.758
-468.132
-401.486
-335.331
-271.441
-211.835
-157.428
-109.321
-68.372
-35.074
-10.148
6.711
16.717
21.348
22.458
21.495
19.501
17.466
15.988
15.44
16.152
18.149
21.178
25.353
30.628
36.24
41.9
46.641
49.002
49.68
49.533
49.913
53.349
59.412
66.236
71.769
73.224
70.455
65.541
61.183
59.93
62.757
68.963
76.514
83.814
89.916
94.308
97.739
100.704
103.326
105.941
108.3
110.201
111.764
112.977
113.928
114.756
115.47
116.079
116.628
117.143
117.664
118.25
118.954
119.826
120.906
122.221
123.782
125.599
127.675
130.012
132.601
135.431
138.489
141.764
145.248
148.929
152.795
156.828
161.009
165.319
169.738
174.248
178.829
183.46
188.12
192.788
197.442
202.063
206.628
211.113
215.495
219.747
223.848
227.774
231.501
235.007
238.271
241.273
243.993
246.416
248.524
250.303
251.739
252.821
253.54
253.885
253.85
253.43
252.621
251.421
249.83
247.85
245.483
242.735
239.611
236.122
232.275
228.083
223.557
218.713
213.565
208.13
202.425
196.47
190.282
183.883
177.293
170.534
163.628
156.596
149.46
142.243
134.966
127.651
120.319
112.992
105.691
98.435
91.244
84.137
77.132
70.248
63.5
56.904
50.474
44.223
38.165
32.311
26.669
21.249
16.059
11.105
6.392
1.924
-2.296
-6.267
-9.988
-13.46
-16.684
-19.664
-22.403
-24.904
-27.174
-29.218
-31.043
-32.656
-34.063
-35.275
-36.298
-37.143
-37.817
-38.331
-38.695
-38.917
-39.008
-38.978
-38.836
-38.593
-38.259
-37.841
-37.351
-36.797
-36.188
-35.533
-34.841
-34.118
-33.374
-32.615
-31.849
-31.082
-30.32
-29.57
-28.837
-28.127
-27.445
-26.795
-26.182
-25.61
-25.084
-24.606
-24.179
-23.808
-23.494
-23.24
-23.048
-22.92
-22.857
-22.861
-22.931
-23.07
-23.276
-23.551
-23.894
-24.303
-24.779
-25.32
-25.924
-26.591
-27.318
-28.103
-28.943
-29.838
-30.782
-31.775
-32.811
-33.889
-35.005
-36.154
-37.334
-38.54
-39.767
-41.012
-42.271
-43.539
-44.812
-46.085
-47.354
-48.615
-49.864
-51.097
-52.31
-53.499
-54.662
-55.794
-56.894
-57.958
-58.984
-59.969
-60.913
-61.812
-62.667
-63.475
-64.236
-64.949
-65.614
-66.23
-66.799
-67.32
-67.795
-68.225
-68.61
-68.952
-69.254
-69.517
-69.743
-69.934
-70.094
-70.224
-70.327
-70.406
-70.462
-70.499
-70.518
-70.521
-70.51
-70.485
-70.449
-70.402
-70.343
-70.275
-70.196
-70.107
-70.008
-69.897
-69.775
-69.639
-69.489
-69.323
-69.138
-68.934
-68.707
-68.454
-68.174
-67.863
-67.518
-67.136
-66.715
-66.25
-65.738
-65.177
-64.564
-63.895
-63.168
-62.381
-61.534
-60.626
-59.656
-58.628
-57.543
-56.404
-55.214
-53.977
-52.698
-51.38
-50.03
-48.653
-47.255
-45.843
-44.425
-43.01
-41.606
-40.224
-38.872
-37.556
-36.287
-35.07
-33.914
-32.826
-31.81
-30.87
-30.009
-29.232
-28.545
-27.949
-27.44
-27.009
-26.651
-26.357
-26.118
-25.923
-25.75
-25.583
-25.408
-25.215
-25.001
-24.761
-24.493
-24.194
-23.855
-23.476
-23.069
-22.642
-22.201
-21.758
-21.316
-20.889
-20.538
-20.333
-20.36
-20.721
-21.477
-22.675
-24.386
-26.668
-29.497
-32.759
-36.228
-39.629
-42.786
-45.581
-47.863
-49.476
-50.335
-50.523
-50.311
-50.007
-49.783
-49.699
-49.851
-50.402
-51.513
-53.178
-55.207
-57.467
-59.966
-62.784
-65.958
-69.075
-71.206
-71.4
-68.726
-62.763
-54.015
-43.135
-30.532
-15.459
4.276
31.625
68.99
116.238
171.131
228.899
283.137
327.745
355.159
358.326
332.167
274.109
188.173
82.411
-34.165
-153.902
-275.186
-398.895
-524.244
-646.417
-754.085
-834.269
-878.205
-884.253
-858.33
-810.531
-749.834
-681.697
-609.369
-534.416
-459.376
-388.486
-324.477
-269.211
-222.843
-183.297
-149.749
-121.999
-100.061
-84.972
-76.554
-73.501
-74.374
-77.346
-80.966
-84.501
-87.497
-89.497
-90.166
-89.285
-86.739
-82.732
-77.704
-72.046
-66.048
-60.086
-54.474
-49.486
-45.426
-42.328
-39.991
-38.208
-36.757
-35.369
-33.817
-31.85
-29.154
-25.627
-21.335
-16.376
-10.927
-5.179
0.714
6.544
12.061
17.132
21.697
25.737
29.299
32.422
35.126
37.466
39.514
41.327
42.964
44.469
45.876
47.231
48.591
50.013
51.556
53.263
55.161
57.273
59.612
62.186
65.0
68.052
71.331
74.83
78.542
82.459
86.575
90.879
95.358
99.994
104.769
109.665
114.665
119.752
124.907
130.11
135.342
140.584
145.816
151.017
156.164
161.235
166.203
171.045
175.737
180.256
184.579
188.682
192.544
196.146
199.468
202.492
205.203
207.584
209.621
211.304
212.62
213.56
214.118
214.288
214.066
213.451
212.441
211.038
209.247
207.072
204.52
201.6
198.323
194.699
190.742
186.466
181.888
177.024
171.893
166.513
160.906
155.092
149.091
142.928
136.622
130.198
123.677
117.081
110.435
103.758
97.074
90.404
83.769
77.189
70.684
64.272
57.973
51.801
45.774
39.906
34.21
28.699
23.384
18.274
13.379
8.705
4.258
0.044
-3.935
-7.676
-11.179
-14.444
-17.473
-20.268
-22.833
-25.173
-27.293
-29.2
-30.901
-32.404
-33.717
-34.85
-35.811
-36.612
-37.262
-37.771
-38.15
-38.41
-38.561
-38.613
-38.577
-38.462
-38.277
-38.032
-37.737
-37.398
-37.025
-36.624
-36.204
-35.769
-35.327
-34.882
-34.44
-34.005
-33.58
-33.169
-32.775
-32.401
-32.047
-31.715
-31.407
-31.123
-30.863
-30.627
-30.415
-30.226
-30.06
-29.914
-29.789
-29.683
-29.594
-29.522
-29.466
-29.424
-29.394
-29.377
-29.371
-29.374
-29.387
-29.409
-29.438
-29.475
-29.519
-29.569
-29.626
-29.689
-29.757
-29.831
-29.911
-29.996
-30.087
-30.183
-30.286
-30.394
-30.509
-30.631
-30.759
-30.894
-31.035
-31.184
-31.339
-31.5
-31.667
-31.839
-32.017
-32.199
-32.384
-32.573
-32.763
-32.954
-33.144
-33.333
-33.519
-33.701
-33.879
-34.051
-34.216
-34.374
-34.525
-34.668
-34.804
-34.93
-35.048
-35.157
-35.256
-35.345
-35.424
-35.494
-35.554
-35.605
-35.649
-35.686
-35.717
-35.745
-35.769
-35.793
-35.816
-35.842
-35.871
-35.905
-35.946
-35.995
-36.056
-36.128
-36.213
-36.312
-36.426
-36.553
-36.695
-36.848
-37.01
-37.179
-37.354
-37.531
-37.71
-37.887
-38.062
-38.233
-38.399
-38.56
-38.71
-38.845
-38.959
-39.046
-39.099
-39.11
-39.07
-38.973
-38.811
-38.581
-38.28
-37.904
-37.446
-36.9
-36.256
-35.509
-34.659
-33.703
-32.644
-31.492
-30.257
-28.963
-27.633
-26.282
-24.92
-23.553
-22.176
-20.789
-19.388
-17.967
-16.531
-15.083
-13.621
-12.15
-10.668
-9.159
-7.605
-5.97
-4.212
-2.315
-0.267
1.936
4.268
6.712
9.236
11.797
14.373
16.948
19.496
22.004
24.447
26.784
28.971
30.953
32.66
34.053
35.095
35.758
36.046
35.959
35.509
34.734
33.641
32.232
30.537
28.56
26.319
23.868
21.22
18.376
15.355
12.111
8.608
4.886
0.949
-3.194
-7.431
-11.655
-15.699
-19.284
-22.226
-24.494
-26.044
-26.858
-27.054
-26.689
-25.848
-24.735
-23.427
-21.846
-19.971
-17.877
-15.567
-13.153
-10.923
-9.113
-7.991
-7.967
-8.917
-9.94
-10.16
-8.535
-4.628
0.741
7.08
14.726
25.575
43.09
70.647
110.239
161.026
220.08
282.483
341.737
391.35
423.377
430.521
408.144
354.516
273.936
174.37
64.309
-49.174
-164.092
-281.481
-401.682
-521.472
-631.868
-720.486
-776.665
-795.913
-780.876
-740.277
-684.501
-620.926
-553.872
-484.273
-411.842
-338.045
-265.492
-198.106
-139.521
-91.494
-54.179
-25.982
-5.204
9.274
18.19
21.714
20.665
16.484
10.771
5.186
0.669
-2.346
-3.633
-3.241
-1.291
1.951
5.962
10.193
14.292
17.972
21.056
23.407
24.88
25.548
25.604
25.576
25.947
26.652
27.787
28.925
29.579
30.609
32.446
35.762
41.466
48.385
55.537
62.158
67.074
70.818
74.003
76.753
79.517
82.088
84.176
85.893
87.269
88.384
89.36
90.206
90.927
91.586
92.247
92.965
93.804
94.811
96.014
97.444
99.122
101.052
103.237
105.676
108.356
111.273
114.419
117.789
121.375
125.169
129.158
133.326
137.659
142.139
146.752
151.482
156.312
161.226
166.205
171.232
176.29
181.357
186.411
191.429
196.386
201.258
206.019
210.645
215.112
219.393
223.467
227.311
230.903
234.221
237.247
239.96
242.344
244.381
246.056
247.355
248.267
248.78
248.886
248.577
247.848
246.696
245.119
243.117
240.692
237.848
234.592
230.931
226.875
222.435
217.625
212.459
206.954
201.127
194.999
188.589
181.92
175.014
167.894
160.585
153.112
145.499
137.772
129.958
122.082
114.169
106.247
98.34
90.474
82.673
74.962
67.364
59.902
52.595
45.466
38.532
31.811
25.32
19.074
13.085
7.366
1.927
-3.224
-8.08
-12.636
-16.888
-20.835
-24.476
-27.812
-30.846
-33.582
-36.026
-38.184
-40.064
-41.676
-43.028
-44.133
-45.001
-45.647
-46.082
-46.32
-46.377
-46.265
-46.001
-45.598
-45.072
-44.438
-43.709
-42.899
-42.024
-41.097
-40.129
-39.134
-38.123
-37.108
-36.098
-35.103
-34.132
-33.193
-32.293
-31.439
-30.635
-29.887
-29.199
-28.575
-28.016
-27.524
-27.102
-26.749
-26.466
-26.251
-26.104
-26.024
-26.008
-26.053
-26.158
-26.318
-26.53
-26.792
-27.098
-27.446
-27.831
-28.25
-28.698
-29.171
-29.665
-30.177
-30.703
-31.238
-31.78
-32.326
-32.871
-33.413
-33.949
-34.477
-34.993
-35.496
-35.983
-36.451
-36.9
-37.325
-37.726
-38.101
-38.449
-38.767
-39.054
-39.31
-39.533
-39.722
-39.876
-39.995
-40.077
-40.122
-40.13
-40.1
-40.033
-39.929
-39.787
-39.61
-39.398
-39.151
-38.87
-38.557
-38.212
-37.835
-37.429
-36.995
-36.533
-36.047
-35.538
-35.009
-34.463
-33.902
-33.33
-32.75
-32.165
-31.579
-30.996
-30.418
-29.851
-29.298
-28.763
-28.249
-27.762
-27.304
-26.879
-26.489
-26.136
-25.823
-25.55
-25.318
-25.128
-24.979
-24.872
-24.806
-24.782
-24.801
-24.862
-24.968
-25.116
-25.307
-25.539
-25.807
-26.107
-26.432
-26.776
-27.132
-27.494
-27.855
-28.208
-28.55
-28.877
-29.184
-29.465
-29.711
-29.913
-30.063
-30.158
-30.196
-30.182
-30.123
-30.033
-29.929
-29.827
-29.737
-29.667
-29.613
-29.568
-29.52
-29.457
-29.374
-29.276
-29.169
-29.053
-28.926
-28.781
-28.597
-28.347
-28.001
-27.52
-26.884
-26.083
-25.126
-24.039
-22.862
-21.64
-20.407
-19.176
-17.951
-16.737
-15.541
-14.379
-13.284
-12.292
-11.447
-10.808
-10.411
-10.278
-10.415
-10.799
-11.386
-12.129
-13.0
-13.988
-15.117
-16.416
-17.907
-19.614
-21.544
-23.69
-26.044
-28.593
-31.332
-34.276
-37.45
-40.884
-44.632
-48.758
-53.278
-58.161
-63.3
-68.492
-73.52
-78.182
-82.25
-85.477
-87.676
-88.695
-88.501
-87.272
-85.283
-82.789
-80.087
-77.554
-75.545
-74.381
-74.295
-74.932
-75.334
-74.453
-71.088
-64.577
-55.325
-43.916
-30.789
-15.31
4.476
31.42
68.219
115.501
172.202
234.294
294.648
344.896
374.847
375.523
342.398
276.442
185.126
79.305
-31.23
-141.286
-250.994
-362.77
-477.397
-590.273
-691.739
-770.477
-817.663
-830.992
-814.169
-775.026
-722.099
-661.023
-595.549
-527.585
-458.644
-391.746
-329.11
-272.379
-222.365
-178.211
-139.766
-107.301
-81.075
-61.727
-48.848
-41.3
-37.852
-37.048
-37.873
-39.651
-41.774
-43.928
-45.841
-47.212
-47.959
-48.007
-47.182
-45.589
-43.37
-40.442
-37.215
-34.147
-31.0
-27.97
-24.62
-19.758
-14.175
-8.837
-5.044
-5.345
-9.127
-13.797
-16.726
-14.157
-5.224
7.216
19.974
29.522
33.688
34.001
32.968
32.527
34.358
38.048
42.06
45.688
48.377
50.124
51.573
52.942
54.238
55.533
56.775
57.98
59.279
60.749
62.42
64.335
66.517
68.966
71.683
74.663
77.889
81.346
85.033
88.94
93.058
97.379
101.891
106.581
111.433
116.43
121.55
126.776
132.088
137.468
142.894
148.347
153.804
159.246
164.65
169.99
175.243
180.381
185.381
190.216
194.862
199.294
203.489
207.425
211.081
214.436
217.473
220.172
222.519
224.498
226.097
227.304
228.109
228.505
228.486
228.047
227.186
225.904
224.201
222.08
219.549
216.612
213.281
209.566
205.479
201.035
196.25
191.141
185.727
180.028
174.066
167.863
161.442
154.826
148.042
141.112
134.064
126.922
119.711
112.457
105.186
97.921
90.689
83.512
76.414
69.417
62.543
55.813
49.246
42.86
36.673
30.701
24.957
19.455
14.207
9.221
4.507
0.071
-4.082
-7.947
-11.524
-14.81
-17.808
-20.519
-22.948
-25.098
-26.978
-28.593
-29.954
-31.068
-31.947
-32.603
-33.046
-33.291
-33.349
-33.235
-32.963
-32.546
-32.0
-31.337
-30.573
-29.721
-28.795
-27.81
-26.776
-25.709
-24.618
-23.517
-22.415
-21.324
-20.253
-19.21
-18.204
-17.242
-16.331
-15.476
-14.684
-13.957
-13.3
-12.715
-12.204
-11.769
-11.409
-11.125
-10.915
-10.779
-10.715
-10.719
-10.788
-10.92
-11.11
-11.355
-11.65
-11.991
-12.372
-12.79
-13.238
-13.714
-14.211
-14.724
-15.25
-15.784
-16.321
-16.856
-17.387
-17.908
-18.416
-18.907
-19.378
-19.827
-20.251
-20.646
-21.013
-21.348
-21.651
-21.921
-22.158
-22.361
-22.531
-22.669
-22.775
-22.851
-22.899
-22.919
-22.915
-22.888
-22.842
-22.778
-22.698
-22.606
-22.504
-22.395
-22.281
-22.164
-22.047
-21.932
-21.821
-21.717
-21.621
-21.536
-21.461
-21.399
-21.35
-21.315
-21.294
-21.286
-21.29
-21.306
-21.332
-21.366
-21.406
-21.45
-21.495
-21.539
-21.577
-21.606
-21.624
-21.624
-21.604
-21.559
-21.485
-21.379
-21.236
-21.052
-20.824
-20.549
-20.222
-19.843
-19.406
-18.911
-18.355
-17.739
-17.06
-16.321
-15.52
-14.661
-13.746
-12.778
-11.764
-10.708
-9.617
-8.498
-7.359
-6.208
-5.052
-3.898
-2.751
-1.62
-0.51
0.571
1.615
2.615
3.563
4.451
5.273
6.024
6.705
7.319
7.868
8.354
8.775
9.126
9.404
9.609
9.738
9.793
9.776
9.697
9.576
9.438
9.304
9.186
9.081
8.986
8.908
8.856
8.852
8.918
9.058
9.285
9.629
10.08
10.602
11.13
11.523
11.651
11.474
10.946
10.042
8.83
7.362
5.736
4.166
2.77
1.518
0.363
-0.812
-2.19
-3.828
-5.805
-8.283
-11.231
-14.483
-17.848
-21.051
-23.884
-26.397
-28.644
-30.637
-32.618
-34.838
-37.48
-40.804
-44.507
-47.469
-48.532
-46.391
-40.342
-31.164
-19.625
-6.114
10.151
31.971
62.496
104.097
156.874
217.781
281.037
338.622
381.998
403.153
396.104
358.653
292.616
203.82
100.167
-11.393
-126.721
-244.828
-365.703
-486.734
-600.727
-697.231
-765.542
-799.395
-799.435
-771.178
-723.1
-662.924
-595.774
-525.664
-455.307
-387.341
-324.036
-266.251
-214.498
-168.545
-128.456
-95.084
-68.912
-50.299
-38.912
-33.514
-32.502
-34.041
-36.615
-39.134
-40.926
-41.918
-41.96
-40.463
-37.309
-32.16
-24.576
-15.791
-6.984
0.647
4.999
6.117
5.364
3.809
3.502
5.144
7.359
9.463
10.743
10.837
11.024
12.035
13.991
17.136
21.012
25.204
29.662
34.16
38.496
42.574
46.259
49.472
52.239
54.575
56.486
58.014
59.212
60.134
60.847
61.413
61.871
62.267
62.653
63.077
63.596
64.262
65.124
66.218
67.569
69.193
71.102
73.302
75.794
78.572
81.625
84.941
88.509
92.318
96.357
100.61
105.059
109.684
114.462
119.373
124.395
129.506
134.682
139.898
145.128
150.35
155.537
160.665
165.706
170.631
175.413
180.025
184.44
188.632
192.575
196.246
199.621
202.68
205.403
207.773
209.774
211.392
212.614
213.43
213.831
213.812
213.368
212.497
211.198
209.474
207.328
204.768
201.8
198.436
194.687
190.567
186.093
181.28
176.149
170.718
165.01
159.047
152.852
146.449
139.863
133.12
126.245
119.264
112.203
105.088
97.944
90.796
83.67
76.589
69.576
62.655
55.848
49.175
42.656
36.311
30.156
24.208
18.482
12.992
7.749
2.763
-1.955
-6.4
-10.564
-14.444
-18.037
-21.341
-24.357
-27.086
-29.531
-31.696
-33.586
-35.208
-36.57
-37.68
-38.547
-39.183
-39.597
-39.802
-39.81
-39.633
-39.287
-38.783
-38.135
-37.359
-36.468
-35.475
-34.396
-33.244
-32.033
-30.776
-29.485
-28.174
-26.853
-25.535
-24.229
-22.946
-21.696
-20.486
-19.324
-18.218
-17.174
-16.198
-15.294
-14.467
-13.72
-13.057
-12.478
-11.985
-11.579
-11.26
-11.027
-10.878
-10.812
-10.826
-10.916
-11.08
-11.313
-11.611
-11.969
-12.381
-12.842
-13.346
-13.887
-14.46
-15.058
-15.674
-16.305
-16.942
-17.581
-18.215
-18.84
-19.449
-20.038
-20.601
-21.134
-21.631
-22.089
-22.504
-22.872
-23.189
-23.454
-23.663
-23.815
-23.907
-23.939
-23.909
-23.817
-23.663
-23.447
-23.172
-22.838
-22.448
-22.005
-21.512
-20.971
-20.388
-19.766
-19.108
-18.419
-17.702
-16.963
-16.205
-15.434
-14.653
-13.869
-13.085
-12.308
-11.543
-10.793
-10.065
-9.362
-8.691
-8.054
-7.456
-6.903
-6.397
-5.942
-5.543
-5.202
-4.921
-4.702
-4.546
-4.452
-4.42
-4.448
-4.533
-4.672
-4.863
-5.102
-5.386
-5.712
-6.077
-6.478
-6.913
-7.379
-7.871
-8.384
-8.91
-9.442
-9.972
-10.493
-10.994
-11.466
-11.9
-12.291
-12.633
-12.92
-13.145
-13.298
-13.367
-13.344
-13.227
-13.016
-12.71
-12.316
-11.842
-11.308
-10.74
-10.161
-9.58
-9.003
-8.423
-7.839
-7.251
-6.657
-6.054
-5.439
-4.801
-4.136
-3.447
-2.724
-1.947
-1.079
-0.059
1.152
2.564
4.178
5.973
7.925
10.015
12.204
14.437
16.67
18.859
20.981
23.035
24.998
26.828
28.467
29.822
30.832
31.467
31.704
31.54
30.995
30.08
28.843
27.368
25.702
23.893
21.985
19.942
17.73
15.316
12.63
9.664
6.452
2.958
-0.867
-4.989
-9.327
-13.677
-17.729
-21.346
-24.496
-27.096
-29.039
-30.257
-30.763
-30.831
-30.938
-31.326
-32.043
-33.11
-34.551
-36.461
-38.93
-41.82
-44.775
-47.616
-50.384
-53.176
-56.017
-58.747
-60.664
-60.588
-57.528
-50.377
-38.87
-24.274
-7.485
11.001
32.07
59.222
95.543
142.532
199.451
261.582
322.195
373.803
408.213
418.368
399.281
349.022
270.352
169.99
56.301
-63.64
-186.603
-312.174
-439.697
-564.667
-676.787
-763.155
-813.265
-823.566
-799.266
-751.141
-690.445
-624.903
-557.718
-489.175
-419.618
-351.226
-286.786
-228.91
-178.809
-135.681
-98.966
-68.474
-44.244
-26.931
-16.227
-10.99
-9.841
-11.137
-13.655
-16.586
-19.5
-22.265
-24.637
-26.408
-27.481
-27.695
-27.123
-26.08
-24.584
-22.549
-20.143
-17.499
-14.79
-12.427
-10.309
-7.802
-4.974
-2.19
-0.006
0.277
-1.08
-2.369
-2.131
1.57
8.835
17.587
26.181
32.898
37.2
40.286
42.93
45.663
48.686
51.477
53.801
55.72
57.278
58.626
59.852
60.93
61.877
62.749
63.596
64.47
65.431
66.528
67.796
69.269
70.965
72.882
75.023
77.387
79.962
82.745
85.731
88.911
92.283
95.838
99.566
103.454
107.488
111.653
115.934
120.318
124.789
129.332
133.933
138.575
143.243
147.918
152.579
157.207
161.778
166.27
170.661
174.928
179.049
183.002
186.767
190.322
193.648
196.726
199.538
202.067
204.295
206.208
207.791
209.032
209.918
210.44
210.589
210.357
209.74
208.733
207.335
205.545
203.365
200.798
197.849
194.525
190.835
186.788
182.397
177.675
172.637
167.299
161.679
155.796
149.67
143.322
136.774
130.048
123.167
116.156
109.04
101.842
94.587
87.302
80.011
72.74
65.513
58.356
51.293
44.346
37.539
30.893
24.43
18.168
12.126
6.322
0.77
-4.515
-9.521
-14.238
-18.656
-22.767
-26.567
-30.052
-33.218
-36.067
-38.599
-40.817
-42.725
-44.33
-45.64
-46.664
-47.411
-47.894
-48.126
-48.122
-47.895
-47.462
-46.84
-46.046
-45.098
-44.015
-42.814
-41.514
-40.134
-38.693
-37.207
-35.695
-34.173
-32.658
-31.166
-29.712
-28.309
-26.97
-25.708
-24.533
-23.454
-22.482
-21.622
-20.881
-20.265
-19.777
-19.42
-19.194
-19.101
-19.139
-19.306
-19.599
-20.014
-20.545
-21.187
-21.933
-22.776
-23.707
-24.717
-25.798
-26.94
-28.133
-29.367
-30.632
-31.919
-33.217
-34.517
-35.81
-37.086
-38.336
-39.553
-40.729
-41.855
-42.927
-43.936
-44.879
-45.75
-46.545
-47.261
-47.896
-48.448
-48.916
-49.3
-49.6
-49.818
-49.956
-50.018
-50.005
-49.923
-49.777
-49.571
-49.312
-49.006
-48.66
-48.28
-47.873
-47.448
-47.012
-46.573
-46.137
-45.713
-45.309
-44.931
-44.588
-44.285
-44.03
-43.829
-43.689
-43.615
-43.612
-43.684
-43.837
-44.074
-44.397
-44.809
-45.312
-45.907
-46.595
-47.374
-48.245
-49.206
-50.254
-51.387
-52.6
-53.888
-55.248
-56.673
-58.155
-59.69
-61.267
-62.88
-64.52
-66.178
-67.845
-69.511
-71.167
-72.802
-74.407
-75.972
-77.486
-78.939
-80.322
-81.624
-82.836
-83.949
-84.953
-85.841
-86.603
-87.233
-87.723
-88.067
-88.26
-88.295
-88.169
-87.878
-87.42
-86.795
-86.002
-85.042
-83.918
-82.635
-81.199
-79.615
-77.892
-76.037
-74.061
-71.974
-69.786
-67.509
-65.152
-62.73
-60.256
-57.746
-55.215
-52.679
-50.153
-47.654
-45.196
-42.796
-40.468
-38.223
-36.071
-34.024
-32.093
-30.293
-28.638
-27.136
-25.787
-24.593
-23.552
-22.657
-21.902
-21.271
-20.74
-20.289
-19.906
-19.581
-19.311
-19.089
-18.898
-18.721
-18.538
-18.339
-18.136
-17.937
-17.747
-17.573
-17.423
-17.328
-17.351
-17.551
-17.967
-18.61
-19.486
-20.648
-22.198
-24.245
-26.85
-29.989
-33.598
-37.671
-42.208
-47.121
-52.197
-57.114
-61.556
-65.375
-68.549
-70.961
-72.442
-72.892
-72.361
-71.103
-69.465
-67.691
-65.874
-64.211
-63.054
-62.727
-63.42
-65.104
-67.255
-68.851
-68.812
-65.853
-59.148
-49.054
-36.332
-21.603
-4.358
17.562
47.44
87.899
139.055
198.931
262.2
321.261
368.364
394.23
391.407
356.289
288.984
195.774
85.937
-32.183
-152.817
-274.335
-396.818
-517.782
-630.304
-724.305
-789.362
-819.583
-816.164
-784.973
-734.649
-672.851
-603.766
-530.133
-453.779
-376.874
-303.163
-236.218
-178.571
-131.469
-94.121
-64.714
-41.878
-24.649
-12.9
-6.95
-6.065
-8.918
-13.884
-19.161
-23.902
-27.667
-30.156
-31.337
-30.798
-28.516
-24.402
-18.351
-11.456
-4.565
1.088
4.05
4.924
4.433
3.394
3.049
3.009
2.886
2.84
2.803
3.363
4.975
7.537
10.96
15.055
19.597
24.449
29.424
34.262
38.777
42.893
46.596
49.906
52.848
55.449
57.743
59.809
61.731
63.541
65.266
66.932
68.557
70.192
71.894
73.706
75.669
77.818
80.168
82.735
85.534
88.551
91.776
95.186
98.746
102.459
106.329
110.348
114.517
118.823
123.246
127.778
132.409
137.119
141.889
146.7
151.527
156.362
161.191
166.004
170.791
175.527
180.185
184.743
189.178
193.466
197.589
201.52
205.235
208.717
211.953
214.927
217.627
220.038
222.143
223.932
225.394
226.519
227.303
227.737
227.817
227.541
226.906
225.914
224.567
222.867
220.815
218.418
215.681
212.612
209.221
205.519
201.516
197.225
192.663
187.843
182.782
177.498
172.007
166.33
160.484
154.49
148.367
142.135
135.814
129.424
122.986
116.518
110.041
103.573
97.134
90.742
84.414
78.168
72.02
65.986
60.08
54.317
48.709
43.269
38.007
32.933
28.056
23.385
18.925
14.682
10.661
6.865
3.295
-0.048
-3.162
-6.051
-8.715
-11.158
-13.384
-15.398
-17.205
-18.811
-20.223
-21.448
-22.495
-23.371
-24.084
-24.645
-25.06
-25.341
-25.494
-25.531
-25.459
-25.289
-25.028
-24.685
-24.269
-23.789
-23.252
-22.667
-22.04
-21.38
-20.693
-19.985
-19.263
-18.533
-17.8
-17.069
-16.344
-15.631
-14.932
-14.251
-13.591
-12.955
-12.346
-11.766
-11.216
-10.699
-10.215
-9.767
-9.355
-8.98
-8.644
-8.346
-8.089
-7.872
-7.695
-7.56
-7.467
-7.415
-7.406
-7.438
-7.513
-7.628
-7.786
-7.984
-8.222
-8.499
-8.816
-9.17
-9.561
-9.988
-10.449
-10.944
-11.47
-12.027
-12.613
-13.226
-13.864
-14.525
-15.208
-15.909
-16.627
-17.359
-18.102
-18.855
-19.613
-20.375
-21.136
-21.895
-22.648
-23.392
-24.124
-24.841
-25.541
-26.22
-26.876
-27.506
-28.108
-28.68
-29.22
-29.726
-30.197
-30.631
-31.027
-31.384
-31.702
-31.98
-32.219
-32.418
-32.579
-32.701
-32.786
-32.836
-32.852
-32.836
-32.79
-32.717
-32.618
-32.498
-32.359
-32.203
-32.034
-31.855
-31.669
-31.478
-31.287
-31.098
-30.913
-30.735
-30.565
-30.406
-30.259
-30.125
-30.004
-29.897
-29.803
-29.722
-29.653
-29.596
-29.547
-29.505
-29.467
-29.429
-29.389
-29.342
-29.284
-29.209
-29.113
-28.99
-28.836
-28.645
-28.41
-28.126
-27.786
-27.386
-26.92
-26.382
-25.767
-25.071
-24.29
-23.422
-22.464
-21.415
-20.274
-19.043
-17.723
-16.317
-14.829
-13.263
-11.625
-9.921
-8.158
-6.345
-4.489
-2.598
-0.681
1.253
3.193
5.13
7.052
8.95
10.813
12.632
14.397
16.105
17.752
19.334
20.845
22.279
23.629
24.893
26.069
27.154
28.148
29.054
29.879
30.644
31.365
32.053
32.711
33.331
33.906
34.446
34.958
35.454
35.946
36.422
36.89
37.386
37.903
38.396
38.778
38.9
38.651
38.0
36.888
35.233
33.04
30.351
27.325
24.259
21.31
18.513
15.936
13.643
11.644
9.929
8.303
6.402
4.105
1.448
-1.549
-4.87
-8.574
-12.721
-17.182
-21.655
-26.049
-30.456
-34.941
-39.439
-43.662
-46.968
-48.356
-46.781
-40.967
-30.127
-14.811
3.854
24.553
47.114
73.669
107.418
151.38
206.464
269.929
335.823
395.43
438.699
456.565
442.431
394.336
316.411
216.753
105.103
-10.593
-127.633
-246.597
-368.282
-490.241
-604.081
-697.968
-760.988
-787.895
-781.164
-749.1
-702.221
-648.213
-590.058
-527.482
-459.002
-385.155
-310.096
-239.496
-178.292
-129.309
-91.552
-62.007
-38.371
-18.974
-3.773
6.258
11.459
12.885
11.849
10.146
8.62
7.08
5.605
4.516
4.676
7.67
14.39
23.645
32.518
37.653
36.354
29.103
19.591
11.845
9.174
12.284
18.527
24.541
28.0
27.985
25.601
23.239
22.297
23.448
26.842
31.366
36.296
41.339
45.991
50.31
54.362
57.98
61.172
63.93
66.206
68.066
69.592
70.843
71.895
72.819
73.659
74.456
75.253
76.097
77.035
78.125
79.42
80.954
82.751
84.826
87.184
89.829
92.759
95.965
99.431
103.142
107.088
111.256
115.637
120.215
124.973
129.891
134.948
140.124
145.402
150.761
156.18
161.639
167.115
172.588
178.038
183.442
188.775
194.013
199.13
204.102
208.905
213.513
217.904
222.055
225.944
229.55
232.856
235.843
238.494
240.795
242.73
244.289
245.46
246.234
246.603
246.561
246.104
245.229
243.937
242.228
240.105
237.574
234.64
231.313
227.602
223.52
219.08
214.296
209.186
203.767
198.058
192.079
185.852
179.399
172.742
165.905
158.912
151.787
144.554
137.239
129.865
122.457
115.04
107.637
100.272
92.969
85.749
78.635
71.647
64.806
58.131
51.639
45.348
39.272
33.426
27.823
22.473
17.386
12.571
8.034
3.78
-0.187
-3.865
-7.253
-10.352
-13.164
-15.693
-17.943
-19.92
-21.631
-23.084
-24.288
-25.253
-25.989
-26.507
-26.819
-26.938
-26.877
-26.648
-26.266
-25.744
-25.096
-24.335
-23.477
-22.533
-21.519
-20.446
-19.328
-18.178
-17.007
-15.826
-14.647
-13.48
-12.334
-11.219
-10.142
-9.112
-8.135
-7.218
-6.367
-5.586
-4.879
-4.252
-3.706
-3.245
-2.87
-2.584
-2.386
-2.279
-2.261
-2.333
-2.493
-2.741
-3.075
-3.492
-3.992
-4.57
-5.225
-5.953
-6.752
-7.617
-8.546
-9.535
-10.58
-11.677
-12.823
-14.014
-15.246
-16.515
-17.819
-19.152
-20.512
-21.894
-23.295
-24.712
-26.14
-27.576
-29.018
-30.46
-31.901
-33.336
-34.763
-36.178
-37.578
-38.961
-40.324
-41.663
-42.977
-44.262
-45.518
-46.741
-47.929
-49.081
-50.196
-51.271
-52.304
-53.295
-54.242
-55.144
-56.001
-56.81
-57.573
-58.288
-58.956
-59.576
-60.149
-60.676
-61.157
-61.592
-61.982
-62.328
-62.63
-62.889
-63.108
-63.286
-63.427
-63.531
-63.601
-63.639
-63.646
-63.626
-63.58
-63.509
-63.417
-63.305
-63.176
-63.031
-62.874
-62.706
-62.529
-62.345
-62.155
-61.96
-61.76
-61.555
-61.345
-61.127
-60.902
-60.666
-60.419
-60.16
-59.887
-59.599
-59.297
-58.979
-58.645
-58.293
-57.921
-57.526
-57.101
-56.643
-56.145
-55.602
-55.008
-54.359
-53.651
-52.881
-52.046
-51.145
-50.175
-49.129
-47.999
-46.781
-45.475
-44.084
-42.617
-41.086
-39.507
-37.901
-36.29
-34.69
-33.112
-31.56
-30.025
-28.503
-26.986
-25.475
-23.978
-22.504
-21.055
-19.632
-18.231
-16.837
-15.427
-13.97
-12.428
-10.775
-9.002
-7.122
-5.168
-3.18
-1.205
0.721
2.579
4.35
6.023
7.594
9.052
10.377
11.542
12.496
13.177
13.538
13.546
13.204
12.549
11.623
10.497
9.227
7.835
6.35
4.792
3.12
1.285
-0.771
-3.157
-5.913
-8.989
-12.363
-16.01
-19.842
-23.8
-27.776
-31.561
-35.045
-38.249
-41.209
-43.996
-46.719
-49.39
-52.071
-54.935
-58.011
-61.176
-64.247
-66.975
-69.15
-70.779
-71.896
-72.467
-72.694
-72.893
-73.347
-74.402
-75.887
-76.832
-76.158
-72.641
-65.657
-55.946
-44.292
-31.186
-15.741
5.209
35.315
77.574
132.421
196.615
263.933
325.813
373.198
397.553
392.326
354.806
286.581
193.828
85.253
-31.256
-150.956
-272.82
-397.074
-521.601
-639.398
-739.202
-809.536
-843.278
-840.562
-808.469
-757.244
-695.944
-630.299
-562.527
-493.085
-423.356
-355.998
-293.836
-239.425
-193.572
-155.21
-123.554
-97.943
-78.032
-64.365
-56.607
-53.538
-53.754
-55.538
-57.536
-59.249
-60.722
-61.874
-62.28
-60.813
-56.025
-47.178
-35.23
-23.255
-14.314
-10.733
-12.689
-16.731
-19.854
-19.896
-15.852
-10.337
-5.397
-1.862
-0.44
0.406
1.965
4.405
8.048
12.462
17.149
22.088
27.127
32.108
36.901
41.33
45.287
48.75
51.736
54.261
56.345
58.039
59.406
60.513
61.427
62.197
62.861
63.464
64.056
64.689
65.416
66.288
67.34
68.6
70.086
71.81
73.781
76.002
78.472
81.181
84.122
87.287
90.67
94.265
98.061
102.047
106.204
110.518
114.972
119.55
124.235
129.006
133.846
138.733
143.647
148.569
153.475
158.343
163.146
167.861
172.461
176.922
181.22
185.329
189.227
192.891
196.298
199.43
202.267
204.792
206.986
208.837
210.328
211.45
212.19
212.54
212.493
212.042
211.185
209.919
208.245
206.165
203.681
200.801
197.531
193.881
189.863
185.488
180.772
175.73
170.381
164.741
158.832
152.675
146.291
139.702
132.933
126.007
118.947
111.778
104.524
97.21
89.859
82.496
75.145
67.829
60.57
53.392
46.315
39.362
32.551
25.903
19.434
13.162
7.102
1.269
-4.325
-9.668
-14.75
-19.563
-24.1
-28.355
-32.324
-36.006
-39.398
-42.501
-45.317
-47.848
-50.099
-52.074
-53.779
-55.222
-56.41
-57.352
-58.057
-58.536
-58.798
-58.856
-58.72
-58.403
-57.916
-57.273
-56.487
-55.569
-54.533
-53.391
-52.157
-50.842
-49.459
-48.02
-46.535
-45.017
-43.476
-41.922
-40.364
-38.812
-37.274
-35.759
-34.273
-32.823
-31.417
-30.059
-28.756
-27.512
-26.331
-25.219
-24.177
-23.21
-22.32
-21.51
-20.78
-20.134
-19.57
-19.091
-18.696
-18.385
-18.158
-18.013
-17.949
-17.964
-18.057
-18.225
-18.465
-18.775
-19.151
-19.59
-20.089
-20.643
-21.249
-21.903
-22.6
-23.335
-24.105
-24.905
-25.729
-26.573
-27.432
-28.301
-29.175
-30.049
-30.918
-31.776
-32.62
-33.444
-34.245
-35.016
-35.755
-36.457
-37.119
-37.737
-38.309
-38.832
-39.303
-39.721
-40.084
-40.391
-40.643
-40.838
-40.978
-41.062
-41.093
-41.071
-41.0
-40.881
-40.717
-40.513
-40.271
-39.995
-39.69
-39.359
-39.008
-38.642
-38.265
-37.882
-37.5
-37.122
-36.755
-36.403
-36.072
-35.767
-35.493
-35.254
-35.055
-34.9
-34.794
-34.738
-34.738
-34.794
-34.91
-35.088
-35.327
-35.628
-35.992
-36.417
-36.902
-37.444
-38.041
-38.688
-39.383
-40.12
-40.895
-41.703
-42.537
-43.392
-44.26
-45.135
-46.01
-46.878
-47.729
-48.557
-49.353
-50.109
-50.818
-51.471
-52.06
-52.577
-53.014
-53.364
-53.62
-53.773
-53.818
-53.749
-53.562
-53.251
-52.813
-52.247
-51.551
-50.725
-49.771
-48.692
-47.491
-46.172
-44.74
-43.202
-41.563
-39.832
-38.013
-36.117
-34.153
-32.134
-30.071
-27.979
-25.869
-23.757
-21.654
-19.577
-17.537
-15.547
-13.614
-11.749
-9.965
-8.274
-6.693
-5.232
-3.893
-2.678
-1.585
-0.607
0.264
1.042
1.748
2.402
3.014
3.595
4.142
4.66
5.16
5.658
6.169
6.707
7.267
7.835
8.402
8.946
9.443
9.864
10.162
10.284
10.2
9.896
9.35
8.532
7.378
5.774
3.624
0.868
-2.527
-6.557
-11.15
-16.171
-21.406
-26.538
-31.23
-35.168
-38.103
-39.887
-40.513
-40.078
-38.757
-36.841
-34.667
-32.633
-31.157
-30.559
-31.011
-32.555
-35.134
-38.554
-42.494
-46.487
-49.535
-50.125
-46.895
-38.553
-24.771
-7.012
13.518
36.19
61.188
91.465
129.664
176.237
230.458
287.515
340.47
382.801
406.414
405.037
375.083
315.313
230.389
127.876
15.719
-99.385
-216.027
-334.716
-454.432
-570.767
-673.663
-751.651
-796.686
-806.681
-786.293
-744.291
-689.339
-627.397
-561.765
-493.249
-422.482
-351.495
-283.062
-221.04
-168.492
-126.437
-94.18
-69.764
-51.674
-39.371
-33.305
-33.143
-36.74
-41.512
-44.324
-43.761
-40.878
-36.795
-32.907
-29.671
-26.176
-21.644
-15.331
-7.63
0.261
6.818
9.74
9.154
7.068
5.705
8.806
16.657
25.87
33.648
36.375
33.623
29.156
25.67
25.507
29.253
34.695
40.441
45.786
50.357
54.703
58.997
63.016
66.678
69.883
72.618
74.981
77.031
78.795
80.33
81.705
82.979
84.184
85.351
86.503
87.669
88.897
90.229
91.705
93.364
95.236
97.339
99.69
102.296
105.16
108.28
111.651
115.258
119.089
123.135
127.383
131.824
136.443
141.222
146.143
151.186
156.331
161.558
166.846
172.172
177.515
182.853
188.162
193.422
198.609
203.7
208.67
213.494
218.148
222.608
226.852
230.855
234.596
238.054
241.209
244.043
246.54
248.683
250.459
251.854
252.859
253.463
253.658
253.439
252.802
251.744
250.264
248.364
246.047
243.319
240.186
236.656
232.74
228.45
223.8
218.803
213.477
207.838
201.907
195.702
189.245
182.558
175.663
168.585
161.347
153.973
146.489
138.918
131.285
123.616
115.935
108.266
100.633
93.06
85.569
78.183
70.922
63.807
56.857
50.09
43.522
37.17
31.046
25.165
19.537
14.172
9.079
4.265
-0.265
-4.507
-8.458
-12.117
-15.485
-18.562
-21.351
-23.857
-26.084
-28.04
-29.729
-31.162
-32.346
-33.291
-34.008
-34.508
-34.801
-34.9
-34.817
-34.564
-34.153
-33.599
-32.912
-32.107
-31.194
-30.187
-29.098
-27.938
-26.718
-25.45
-24.145
-22.812
-21.461
-20.1
-18.74
-17.387
-16.049
-14.733
-13.445
-12.192
-10.979
-9.81
-8.692
-7.626
-6.618
-5.67
-4.785
-3.966
-3.214
-2.532
-1.92
-1.379
-0.911
-0.516
-0.194
0.055
0.233
0.338
0.372
0.337
0.232
0.061
-0.176
-0.478
-0.842
-1.266
-1.749
-2.288
-2.881
-3.526
-4.22
-4.96
-5.745
-6.571
-7.435
-8.334
-9.266
-10.227
-11.214
-12.223
-13.252
-14.298
-15.356
-16.424
-17.499
-18.576
-19.654
-20.729
-21.799
-22.861
-23.913
-24.951
-25.975
-26.981
-27.969
-28.936
-29.881
-30.802
-31.698
-32.569
-33.413
-34.23
-35.019
-35.78
-36.513
-37.218
-37.895
-38.545
-39.166
-39.761
-40.329
-40.872
-41.391
-41.886
-42.36
-42.812
-43.246
-43.661
-44.061
-44.444
-44.813
-45.167
-45.508
-45.836
-46.151
-46.452
-46.74
-47.014
-47.273
-47.517
-47.744
-47.953
-48.142
-48.308
-48.45
-48.565
-48.65
-48.702
-48.719
-48.7
-48.641
-48.541
-48.396
-48.205
-47.965
-47.674
-47.326
-46.918
-46.444
-45.9
-45.284
-44.594
-43.826
-42.98
-42.053
-41.047
-39.966
-38.811
-37.581
-36.275
-34.891
-33.433
-31.914
-30.346
-28.734
-27.087
-25.415
-23.732
-22.058
-20.405
-18.773
-17.164
-15.573
-14.009
-12.492
-11.038
-9.662
-8.367
-7.144
-5.992
-4.928
-3.958
-3.08
-2.279
-1.524
-0.812
-0.167
0.394
0.861
1.245
1.573
1.859
2.103
2.296
2.423
2.486
2.506
2.493
2.432
2.292
2.025
1.615
1.084
0.447
-0.304
-1.202
-2.284
-3.579
-5.085
-6.781
-8.681
-10.828
-13.297
-16.189
-19.53
-23.268
-27.348
-31.732
-36.371
-41.201
-46.037
-50.567
-54.617
-58.158
-61.193
-63.762
-65.838
-67.329
-68.267
-68.786
-68.897
-68.525
-67.561
-65.93
-63.754
-61.258
-58.644
-56.14
-53.98
-52.372
-51.525
-51.118
-50.123
-47.405
-41.601
-32.051
-19.567
-5.012
10.758
27.9
49.013
77.395
116.233
167.06
227.3
290.607
347.336
386.136
397.483
375.763
321.057
239.627
140.615
33.213
-76.457
-187.625
-301.619
-418.656
-535.038
-641.24
-725.506
-778.828
-797.836
-785.77
-751.126
-702.784
-647.322
-589.458
-530.271
-469.58
-407.956
-345.242
-283.016
-224.115
-170.822
-125.606
-89.566
-62.217
-42.603
-29.41
-21.461
-17.761
-17.251
-18.896
-21.633
-24.595
-27.271
-29.186
-29.938
-29.328
-27.34
-23.84
-18.948
-13.295
-7.04
-1.357
2.127
4.077
5.006
6.523
11.861
19.959
28.253
34.317
33.791
27.152
18.934
12.764
13.393
22.325
35.662
49.572
60.328
65.274
66.074
65.52
65.478
67.702
71.881
76.372
80.45
83.594
85.737
87.531
89.225
90.805
92.331
93.746
95.051
96.368
97.781
99.333
101.068
103.018
105.186
107.575
110.186
113.006
116.025
119.236
122.63
126.194
129.922
133.806
137.835
141.995
146.271
150.642
155.094
159.609
164.173
168.766
173.371
177.97
182.545
187.08
191.556
195.951
200.246
204.42
208.45
212.319
216.004
219.487
222.748
225.77
228.534
231.027
233.232
235.137
236.727
237.993
238.923
239.51
239.744
239.62
239.133
238.279
237.057
235.465
233.506
231.181
228.495
225.453
222.063
218.334
214.275
209.897
205.214
200.239
194.987
189.474
183.718
177.736
171.548
165.173
158.631
151.943
145.128
138.21
131.207
124.142
117.036
109.91
102.784
95.679
88.616
81.613
74.691
67.868
61.16
54.586
48.16
41.898
35.813
29.917
24.222
18.738
13.473
8.435
3.63
-0.937
-5.264
-9.348
-13.188
-16.785
-20.141
-23.258
-26.142
-28.796
-31.227
-33.441
-35.447
-37.253
-38.868
-40.301
-41.563
-42.664
-43.615
-44.427
-45.112
-45.68
-46.143
-46.512
-46.798
-47.011
-47.162
-47.261
-47.316
-47.337
-47.332
-47.308
-47.273
-47.232
-47.192
-47.157
-47.131
-47.117
-47.118
-47.137
-47.174
-47.23
-47.305
-47.399
-47.51
-47.637
-47.778
-47.931
-48.093
-48.261
-48.431
-48.601
-48.766
-48.923
-49.068
-49.197
-49.307
-49.395
-49.457
-49.489
-49.489
-49.455
-49.384
-49.273
-49.123
-48.93
-48.694
-48.416
-48.094
-47.729
-47.322
-46.874
-46.387
-45.862
-45.301
-44.706
-44.081
-43.429
-42.752
-42.055
-41.34
-40.611
-39.873
-39.13
-38.385
-37.643
-36.908
-36.183
-35.474
-34.783
-34.114
-33.472
-32.859
-32.279
-31.734
-31.228
-30.764
-30.342
-29.966
-29.637
-29.356
-29.124
-28.943
-28.812
-28.732
-28.703
-28.725
-28.796
-28.915
-29.082
-29.294
-29.549
-29.846
-30.179
-30.548
-30.948
-31.375
-31.827
-32.298
-32.785
-33.284
-33.789
-34.297
-34.803
-35.301
-35.786
-36.254
-36.699
-37.116
-37.501
-37.848
-38.153
-38.411
-38.618
-38.768
-38.858
-38.884
-38.841
-38.727
-38.538
-38.273
-37.929
-37.505
-37.003
-36.422
-35.764
-35.033
-34.231
-33.361
-32.428
-31.436
-30.392
-29.3
-28.167
-26.998
-25.801
-24.584
-23.356
-22.125
-20.902
-19.694
-18.511
-17.363
-16.258
-15.205
-14.21
-13.278
-12.414
-11.625
-10.922
-10.31
-9.793
-9.369
-9.038
-8.796
-8.639
-8.553
-8.521
-8.524
-8.547
-8.577
-8.609
-8.638
-8.655
-8.653
-8.617
-8.534
-8.4
-8.212
-7.971
-7.687
-7.383
-7.085
-6.838
-6.722
-6.801
-7.136
-7.785
-8.758
-10.054
-11.743
-13.893
-16.479
-19.502
-22.939
-26.71
-30.884
-35.487
-40.336
-45.219
-49.985
-54.411
-58.34
-61.705
-64.216
-65.688
-66.249
-66.058
-65.348
-64.463
-63.614
-62.99
-62.976
-63.739
-65.167
-66.666
-66.9
-64.516
-58.253
-47.811
-34.437
-19.169
-2.672
15.847
39.855
72.623
116.367
171.354
233.547
296.266
350.717
386.282
394.055
368.423
309.061
222.534
118.675
7.275
-105.323
-218.824
-335.019
-453.799
-570.406
-674.098
-752.728
-798.056
-808.524
-789.301
-749.49
-697.394
-637.945
-573.913
-506.275
-436.599
-368.433
-304.623
-247.569
-198.445
-156.248
-120.616
-91.477
-68.698
-52.826
-43.313
-38.739
-37.623
-38.252
-39.348
-40.136
-40.078
-38.947
-36.7
-33.357
-29.155
-24.133
-18.033
-11.269
-4.51
1.33
4.309
3.904
1.709
-0.301
1.13
7.975
18.062
28.195
35.005
35.869
32.501
28.426
26.174
27.84
32.982
39.438
46.059
51.984
56.943
61.463
65.62
69.297
72.517
75.206
77.371
79.132
80.564
81.718
82.676
83.506
84.244
84.92
85.562
86.201
86.884
87.669
88.608
89.734
91.071
92.638
94.446
96.506
98.822
101.391
104.204
107.253
110.532
114.034
117.754
121.681
125.8
130.094
134.547
139.14
143.856
148.677
153.581
158.548
163.556
168.584
173.61
178.61
183.56
188.432
193.2
197.838
202.32
206.619
210.71
214.567
218.167
221.487
224.505
227.202
229.559
231.558
233.183
234.421
235.259
235.688
235.697
235.281
234.435
233.156
231.445
229.303
226.733
223.742
220.338
216.529
212.329
207.75
202.808
197.52
191.905
185.982
179.773
173.3
166.588
159.661
152.545
145.265
137.847
130.319
122.706
115.036
107.334
99.628
91.942
84.301
76.73
69.252
61.889
54.665
47.597
40.706
34.009
27.523
21.262
15.239
9.466
3.954
-1.289
-6.258
-10.945
-15.348
-19.465
-23.294
-26.839
-30.1
-33.082
-35.79
-38.23
-40.41
-42.338
-44.024
-45.478
-46.712
-47.735
-48.562
-49.203
-49.671
-49.98
-50.142
-50.17
-50.077
-49.875
-49.577
-49.195
-48.74
-48.223
-47.656
-47.049
-46.411
-45.752
-45.079
-44.402
-43.726
-43.06
-42.408
-41.776
-41.17
-40.592
-40.047
-39.538
-39.067
-38.636
-38.247
-37.9
-37.596
-37.336
-37.12
-36.947
-36.817
-36.73
-36.684
-36.679
-36.713
-36.787
-36.897
-37.044
-37.225
-37.441
-37.688
-37.966
-38.274
-38.611
-38.974
-39.362
-39.775
-40.21
-40.666
-41.143
-41.638
-42.15
-42.677
-43.219
-43.773
-44.338
-44.913
-45.496
-46.086
-46.681
-47.28
-47.88
-48.48
-49.079
-49.674
-50.264
-50.847
-51.421
-51.984
-52.533
-53.068
-53.586
-54.085
-54.563
-55.019
-55.451
-55.857
-56.234
-56.583
-56.9
-57.185
-57.436
-57.652
-57.832
-57.975
-58.08
-58.146
-58.173
-58.16
-58.107
-58.012
-57.877
-57.7
-57.482
-57.222
-56.921
-56.579
-56.197
-55.774
-55.311
-54.809
-54.267
-53.687
-53.069
-52.413
-51.72
-50.99
-50.224
-49.421
-48.584
-47.712
-46.806
-45.867
-44.896
-43.893
-42.859
-41.795
-40.702
-39.58
-38.43
-37.252
-36.048
-34.82
-33.566
-32.289
-30.99
-29.67
-28.331
-26.973
-25.598
-24.207
-22.803
-21.388
-19.964
-18.536
-17.106
-15.678
-14.259
-12.853
-11.465
-10.1
-8.764
-7.463
-6.202
-4.988
-3.825
-2.72
-1.677
-0.702
0.198
1.018
1.754
2.402
2.96
3.423
3.787
4.051
4.216
4.285
4.262
4.15
3.947
3.656
3.287
2.847
2.346
1.793
1.199
0.579
-0.043
-0.643
-1.2
-1.697
-2.128
-2.491
-2.782
-2.996
-3.121
-3.152
-3.09
-2.939
-2.697
-2.368
-1.959
-1.512
-1.12
-0.89
-0.939
-1.369
-2.245
-3.61
-5.517
-7.94
-10.759
-13.818
-16.906
-19.832
-22.506
-24.869
-26.824
-28.384
-29.676
-30.812
-31.951
-33.223
-34.611
-36.095
-37.75
-39.563
-41.396
-43.172
-44.892
-46.619
-48.503
-50.679
-52.698
-53.525
-52.2
-47.65
-39.681
-29.698
-18.853
-7.592
5.433
24.486
54.015
96.834
152.676
216.946
282.411
340.847
384.246
405.697
400.086
364.812
300.541
212.06
106.66
-8.364
-127.84
-250.033
-374.707
-499.54
-617.856
-719.213
-792.353
-830.214
-832.946
-806.096
-758.48
-697.959
-628.961
-554.814
-477.929
-401.469
-329.934
-265.99
-211.143
-165.318
-126.61
-94.375
-68.43
-48.665
-35.783
-29.203
-27.22
-28.172
-30.188
-31.81
-32.547
-32.264
-30.724
-27.859
-23.869
-18.764
-12.486
-5.675
0.994
6.786
9.861
9.628
7.518
5.233
5.681
11.031
19.594
28.27
34.096
34.213
29.526
23.978
20.272
20.984
26.739
34.656
42.901
50.137
55.188
59.12
62.629
65.743
68.873
71.719
73.991
75.849
77.327
78.496
79.499
80.365
81.103
81.76
82.374
82.978
83.626
84.385
85.313
86.452
87.839
89.49
91.414
93.623
96.123
98.908
101.969
105.296
108.88
112.715
116.793
121.105
125.633
130.359
135.266
140.333
145.544
150.877
156.312
161.826
167.398
173.005
178.625
184.234
189.804
195.31
200.724
206.017
211.164
216.136
220.907
225.451
229.744
233.761
237.48
240.882
243.946
246.653
248.988
250.936
252.483
253.619
254.332
254.617
254.467
253.879
252.851
251.385
249.483
247.149
244.391
241.218
237.64
233.669
229.32
224.608
219.552
214.169
208.481
202.508
196.272
189.799
183.111
176.233
169.191
162.01
154.715
147.333
139.888
132.406
124.913
117.432
109.988
102.603
95.302
88.104
81.032
74.103
67.336
60.749
54.355
48.17
42.207
36.475
30.984
25.743
20.757
16.032
11.571
7.376
3.447
-0.218
-3.62
-6.763
-9.653
-12.295
-14.696
-16.865
-18.81
-20.542
-22.07
-23.405
-24.56
-25.546
-26.375
-27.059
-27.611
-28.043
-28.368
-28.597
-28.741
-28.813
-28.823
-28.782
-28.699
-28.583
-28.444
-28.288
-28.124
-27.958
-27.797
-27.644
-27.505
-27.383
-27.282
-27.204
-27.151
-27.124
-27.124
-27.151
-27.204
-27.284
-27.387
-27.514
-27.661
-27.827
-28.009
-28.204
-28.41
-28.625
-28.844
-29.066
-29.288
-29.508
-29.723
-29.931
-30.131
-30.32
-30.498
-30.662
-30.813
-30.949
-31.071
-31.178
-31.27
-31.347
-31.411
-31.462
-31.5
-31.528
-31.547
-31.558
-31.562
-31.563
-31.561
-31.56
-31.561
-31.566
-31.577
-31.598
-31.63
-31.674
-31.734
-31.812
-31.908
-32.024
-32.163
-32.325
-32.511
-32.722
-32.959
-33.222
-33.511
-33.827
-34.169
-34.536
-34.928
-35.344
-35.783
-36.245
-36.727
-37.228
-37.748
-38.283
-38.833
-39.394
-39.965
-40.544
-41.128
-41.715
-42.302
-42.886
-43.464
-44.034
-44.593
-45.136
-45.662
-46.166
-46.644
-47.094
-47.511
-47.893
-48.236
-48.536
-48.791
-48.997
-49.15
-49.249
-49.29
-49.269
-49.184
-49.033
-48.812
-48.52
-48.154
-47.712
-47.192
-46.593
-45.914
-45.153
-44.309
-43.383
-42.373
-41.281
-40.106
-38.851
-37.517
-36.107
-34.626
-33.079
-31.47
-29.807
-28.097
-26.345
-24.561
-22.751
-20.924
-19.088
-17.252
-15.424
-13.616
-11.838
-10.103
-8.422
-6.805
-5.265
-3.81
-2.451
-1.195
-0.05
0.979
1.885
2.661
3.301
3.796
4.145
4.351
4.42
4.359
4.18
3.896
3.524
3.088
2.607
2.097
1.569
1.029
0.491
-0.03
-0.522
-0.968
-1.366
-1.723
-2.04
-2.325
-2.589
-2.841
-3.112
-3.451
-3.883
-4.45
-5.208
-6.21
-7.547
-9.312
-11.555
-14.323
-17.65
-21.459
-25.623
-29.988
-34.3
-38.346
-41.949
-44.888
-47.001
-48.3
-48.874
-48.85
-48.442
-47.79
-47.016
-46.359
-46.029
-46.111
-46.619
-47.557
-48.903
-50.689
-52.859
-55.148
-56.89
-56.961
-54.196
-47.313
-35.774
-20.434
-2.365
17.288
38.546
64.022
96.884
139.748
193.318
253.937
314.923
367.551
401.624
408.868
383.979
326.004
240.396
135.711
21.169
-96.278
-215.679
-338.079
-463.137
-586.343
-695.932
-778.512
-824.384
-830.701
-803.93
-755.195
-694.931
-630.228
-563.642
-495.24
-425.784
-357.66
-293.733
-236.709
-187.776
-146.212
-111.487
-83.253
-61.317
-46.088
-37.113
-33.171
-32.824
-34.347
-36.438
-38.297
-39.656
-40.677
-41.071
-40.351
-37.851
-32.509
-24.853
-16.58
-9.247
-5.01
-4.184
-5.155
-6.741
-7.393
-6.578
-5.343
-4.241
-3.554
-3.243
-2.558
-0.993
1.509
4.888
8.96
13.528
18.494
23.75
29.103
34.347
39.343
43.988
48.226
52.062
55.496
58.533
61.217
63.592
65.707
67.621
69.378
71.019
72.587
74.121
75.666
77.268
78.972
80.819
82.838
85.048
87.459
90.078
92.904
95.936
99.163
102.571
106.146
109.878
113.755
117.766
121.898
126.134
130.456
134.848
139.292
143.772
148.272
152.772
157.256
161.706
166.104
170.434
174.677
178.813
182.823
186.686
190.383
193.895
197.202
200.287
203.13
205.717
208.031
210.058
211.786
213.201
214.293
215.053
215.471
215.54
215.256
214.613
213.609
212.242
210.512
208.422
205.973
203.171
200.021
196.532
192.712
188.573
184.124
179.381
174.356
169.066
163.527
157.756
151.772
145.594
139.242
132.736
126.099
119.351
112.513
105.608
98.658
91.684
84.708
77.751
70.835
63.981
57.209
50.538
43.989
37.578
31.323
25.241
19.347
13.655
8.177
2.925
-2.09
-6.86
-11.378
-15.636
-19.631
-23.359
-26.818
-30.008
-32.929
-35.584
-37.976
-40.11
-41.991
-43.627
-45.023
-46.19
-47.137
-47.874
-48.411
-48.759
-48.932
-48.941
-48.798
-48.517
-48.109
-47.588
-46.967
-46.259
-45.474
-44.626
-43.725
-42.784
-41.811
-40.818
-39.813
-38.805
-37.801
-36.81
-35.836
-34.886
-33.965
-33.077
-32.225
-31.412
-30.641
-29.913
-29.229
-28.589
-27.995
-27.445
-26.938
-26.473
-26.049
-25.664
-25.315
-25.0
-24.717
-24.463
-24.236
-24.032
-23.849
-23.685
-23.537
-23.402
-23.278
-23.165
-23.058
-22.958
-22.863
-22.772
-22.684
-22.6
-22.517
-22.437
-22.359
-22.285
-22.213
-22.144
-22.08
-22.019
-21.964
-21.915
-21.871
-21.835
-21.807
-21.786
-21.775
-21.773
-21.781
-21.799
-21.829
-21.869
-21.922
-21.987
-22.064
-22.154
-22.255
-22.369
-22.495
-22.632
-22.78
-22.938
-23.105
-23.281
-23.464
-23.655
-23.851
-24.053
-24.259
-24.47
-24.684
-24.901
-25.121
-25.343
-25.568
-25.796
-26.026
-26.259
-26.496
-26.737
-26.981
-27.229
-27.481
-27.737
-27.996
-28.258
-28.523
-28.79
-29.058
-29.327
-29.597
-29.865
-30.132
-30.397
-30.657
-30.912
-31.161
-31.401
-31.63
-31.846
-32.047
-32.231
-32.394
-32.534
-32.648
-32.732
-32.783
-32.798
-32.774
-32.705
-32.59
-32.424
-32.206
-31.932
-31.602
-31.215
-30.77
-30.27
-29.714
-29.106
-28.447
-27.74
-26.988
-26.193
-25.361
-24.494
-23.599
-22.682
-21.75
-20.811
-19.873
-18.945
-18.033
-17.145
-16.287
-15.467
-14.689
-13.957
-13.278
-12.655
-12.093
-11.601
-11.18
-10.828
-10.539
-10.307
-10.123
-9.978
-9.859
-9.747
-9.627
-9.488
-9.323
-9.127
-8.894
-8.617
-8.292
-7.914
-7.487
-7.019
-6.518
-5.991
-5.447
-4.909
-4.402
-3.955
-3.618
-3.454
-3.543
-3.997
-4.908
-6.332
-8.346
-11.003
-14.249
-17.963
-21.927
-25.817
-29.394
-32.48
-34.823
-36.246
-36.73
-36.356
-35.395
-34.248
-33.141
-32.271
-31.941
-32.34
-33.589
-35.725
-38.534
-41.779
-45.385
-49.175
-52.872
-55.873
-56.944
-54.835
-48.387
-37.261
-22.672
-5.966
11.81
31.169
55.432
88.311
132.638
188.928
253.229
318.662
376.344
415.982
428.854
409.124
355.328
272.09
167.912
52.214
-67.541
-188.234
-309.722
-431.184
-548.27
-652.776
-734.001
-783.439
-798.767
-782.856
-743.553
-690.15
-628.806
-563.658
-496.431
-427.396
-358.63
-292.954
-232.956
-181.115
-138.002
-102.692
-74.495
-52.616
-36.646
-26.687
-22.027
-21.422
-23.452
-26.436
-29.22
-31.182
-32.056
-31.828
-30.146
-26.905
-21.792
-14.629
-6.644
1.317
8.086
12.284
14.592
15.53
15.67
16.204
16.772
17.005
17.07
16.815
16.752
17.508
19.147
21.659
24.927
28.72
32.911
37.406
42.012
46.51
50.755
54.642
58.12
61.209
63.916
66.25
68.25
69.961
71.436
72.733
73.902
74.983
76.021
77.056
78.138
79.318
80.647
82.173
83.933
85.948
88.235
90.806
93.665
96.813
100.244
103.943
107.899
112.099
116.532
121.188
126.05
131.1
136.317
141.679
147.166
152.755
158.426
164.152
169.911
175.677
181.427
187.136
192.779
198.327
203.755
209.032
214.132
219.027
223.691
228.096
232.217
236.031
239.514
242.647
245.409
247.783
249.753
251.303
252.423
253.101
253.328
253.098
252.406
251.25
249.629
247.545
245.003
242.007
238.567
234.693
230.397
225.693
220.598
215.128
209.304
203.147
196.679
189.925
182.908
175.656
168.196
160.555
152.761
144.844
136.832
128.753
120.637
112.512
104.406
96.346
88.359
80.473
72.711
65.099
57.66
50.415
43.385
36.59
30.047
23.773
17.781
12.084
6.694
1.62
-3.131
-7.554
-11.644
-15.399
-18.82
-21.908
-24.666
-27.099
-29.214
-31.017
-32.52
-33.73
-34.662
-35.326
-35.736
-35.907
-35.853
-35.591
-35.136
-34.504
-33.713
-32.778
-31.717
-30.547
-29.283
-27.943
-26.541
-25.094
-23.616
-22.123
-20.626
-19.141
-17.678
-16.249
-14.865
-13.536
-12.27
-11.076
-9.961
-8.929
-7.988
-7.141
-6.392
-5.743
-5.196
-4.752
-4.412
-4.175
-4.041
-4.007
-4.073
-4.234
-4.489
-4.834
-5.265
-5.778
-6.369
-7.034
-7.767
-8.564
-9.42
-10.33
-11.289
-12.291
-13.331
-14.405
-15.507
-16.633
-17.777
-18.934
-20.101
-21.273
-22.446
-23.614
-24.776
-25.926
-27.061
-28.178
-29.275
-30.348
-31.394
-32.41
-33.396
-34.348
-35.265
-36.145
-36.986
-37.788
-38.549
-39.268
-39.946
-40.58
-41.173
-41.723
-42.232
-42.699
-43.126
-43.514
-43.864
-44.177
-44.456
-44.703
-44.919
-45.107
-45.27
-45.41
-45.531
-45.635
-45.725
-45.805
-45.877
-45.945
-46.013
-46.083
-46.158
-46.243
-46.339
-46.451
-46.58
-46.73
-46.902
-47.099
-47.322
-47.571
-47.849
-48.155
-48.488
-48.85
-49.238
-49.652
-50.089
-50.549
-51.029
-51.525
-52.034
-52.553
-53.078
-53.605
-54.128
-54.644
-55.146
-55.63
-56.09
-56.522
-56.919
-57.277
-57.589
-57.851
-58.057
-58.202
-58.282
-58.292
-58.23
-58.093
-57.88
-57.589
-57.221
-56.778
-56.262
-55.675
-55.023
-54.307
-53.533
-52.706
-51.834
-50.921
-49.976
-49.008
-48.024
-47.036
-46.052
-45.083
-44.137
-43.223
-42.35
-41.525
-40.756
-40.049
-39.41
-38.843
-38.354
-37.949
-37.631
-37.397
-37.246
-37.173
-37.171
-37.231
-37.34
-37.477
-37.628
-37.778
-37.915
-38.029
-38.111
-38.15
-38.137
-38.07
-37.948
-37.773
-37.545
-37.257
-36.909
-36.525
-36.142
-35.798
-35.554
-35.477
-35.637
-36.156
-37.149
-38.653
-40.705
-43.322
-46.402
-49.856
-53.584
-57.329
-60.869
-64.086
-66.777
-68.821
-70.305
-71.208
-71.508
-71.41
-71.032
-70.462
-70.029
-69.913
-70.057
-70.641
-71.882
-73.771
-76.439
-79.629
-82.234
-83.125
-81.199
-75.71
-67.045
-56.138
-43.558
-28.567
-8.941
19.032
58.811
111.05
174.037
242.296
307.546
361.651
395.4
401.615
376.687
319.921
236.642
135.035
23.297
-91.806
-208.702
-328.068
-449.386
-568.758
-676.75
-761.682
-814.366
-831.508
-816.579
-778.055
-725.312
-664.958
-600.753
-533.529
-463.367
-391.962
-322.075
-257.673
-202.179
-157.067
-122.055
-95.108
-74.247
-58.162
-46.228
-38.611
-34.765
-33.615
-34.021
-34.622
-34.794
-34.498
-33.65
-32.334
-30.704
-28.781
-26.634
-24.451
-22.237
-19.914
-17.525
-15.079
-12.561
-10.057
-7.68
-5.404
-3.216
-1.119
0.989
3.195
5.567
8.26
11.439
15.136
19.311
23.888
28.714
33.651
38.57
43.294
47.654
51.562
54.99
57.951
60.502
62.685
64.543
66.145
67.559
68.849
70.071
71.267
72.48
73.757
75.152
76.719
78.499
80.517
82.791
85.329
88.137
91.215
94.559
98.157
101.999
106.076
110.379
114.9
119.627
124.544
129.633
134.874
140.248
145.734
151.312
156.961
162.659
168.384
174.114
179.827
185.498
191.103
196.613
202.003
207.245
212.313
217.18
221.821
226.211
230.327
234.147
237.649
240.815
243.624
246.061
248.11
249.756
250.987
251.792
252.163
252.092
251.574
250.606
249.186
247.315
244.997
242.234
239.035
235.408
231.363
226.912
222.07
216.851
211.273
205.356
199.118
192.583
185.771
178.707
171.416
163.922
156.251
148.429
140.483
132.44
124.326
116.168
107.993
99.828
91.699
83.631
75.651
67.783
60.051
52.478
45.085
37.893
30.922
24.19
17.714
11.509
5.589
-0.035
-5.35
-10.35
-15.026
-19.372
-23.386
-27.066
-30.409
-33.419
-36.097
-38.447
-40.475
-42.188
-43.594
-44.702
-45.522
-46.066
-46.347
-46.378
-46.172
-45.746
-45.113
-44.29
-43.293
-42.139
-40.844
-39.424
-37.896
-36.277
-34.583
-32.829
-31.03
-29.202
-27.359
-25.513
-23.679
-21.868
-20.092
-18.359
-16.681
-15.066
-13.522
-12.055
-10.672
-9.377
-8.175
-7.07
-6.063
-5.158
-4.353
-3.651
-3.05
-2.549
-2.147
-1.841
-1.627
-1.504
-1.467
-1.512
-1.635
-1.83
-2.093
-2.42
-2.804
-3.241
-3.726
-4.253
-4.818
-5.415
-6.041
-6.691
-7.36
-8.044
-8.741
-9.446
-10.157
-10.871
-11.585
-12.297
-13.005
-13.709
-14.406
-15.095
-15.776
-16.448
-17.112
-17.766
-18.412
-19.05
-19.679
-20.302
-20.918
-21.529
-22.135
-22.737
-23.337
-23.934
-24.531
-25.128
-25.725
-26.323
-26.923
-27.523
-28.124
-28.725
-29.325
-29.922
-30.516
-31.103
-31.682
-32.251
-32.807
-33.347
-33.868
-34.367
-34.838
-35.28
-35.689
-36.059
-36.388
-36.671
-36.904
-37.083
-37.204
-37.263
-37.256
-37.178
-37.025
-36.794
-36.482
-36.085
-35.602
-35.03
-34.368
-33.613
-32.765
-31.826
-30.797
-29.682
-28.483
-27.204
-25.851
-24.432
-22.955
-21.425
-19.85
-18.235
-16.586
-14.917
-13.241
-11.572
-9.928
-8.314
-6.738
-5.214
-3.754
-2.369
-1.078
0.127
1.255
2.27
3.145
3.844
4.328
4.633
4.809
4.841
4.723
4.521
4.279
4.094
4.084
4.167
4.248
4.33
4.397
4.392
4.307
4.04
3.466
2.708
1.892
1.046
0.226
-0.542
-1.286
-1.95
-2.466
-2.963
-3.56
-4.306
-5.284
-6.528
-8.058
-9.97
-12.359
-15.212
-18.517
-22.281
-26.497
-31.163
-36.22
-41.492
-46.745
-51.746
-56.283
-60.136
-63.052
-64.82
-65.323
-64.581
-62.815
-60.354
-57.514
-54.647
-52.127
-50.226
-49.133
-48.859
-49.181
-49.321
-47.854
-43.37
-34.444
-20.764
-4.077
14.112
33.01
52.965
77.8
111.296
154.957
208.976
268.528
325.372
370.69
394.014
387.466
348.207
278.452
185.977
80.864
-28.651
-139.074
-250.785
-365.206
-480.995
-590.726
-683.545
-748.811
-780.231
-778.919
-750.877
-704.266
-646.059
-580.506
-510.671
-439.012
-368.755
-302.944
-243.23
-190.301
-143.427
-102.107
-66.781
-38.064
-16.813
-3.037
4.263
6.509
5.499
2.704
-0.79
-4.028
-6.737
-9.037
-10.5
-10.693
-8.736
-2.876
6.49
17.117
26.114
29.122
24.607
15.217
5.225
0.352
4.26
15.773
30.352
42.13
46.457
42.182
32.749
23.61
19.113
21.916
30.719
41.522
51.45
58.333
61.918
64.07
65.824
67.705
69.912
71.823
73.2
74.206
74.912
75.471
75.982
76.415
76.769
77.101
77.451
77.862
78.398
79.111
80.037
81.211
82.654
84.367
86.357
88.622
91.154
93.945
96.989
100.277
103.805
107.564
111.542
115.724
120.093
124.633
129.328
134.16
139.112
144.165
149.299
154.494
159.732
164.989
170.241
175.464
180.63
185.713
190.686
195.524
200.198
204.683
208.953
212.985
216.753
220.237
223.415
226.265
228.769
230.908
232.668
234.032
234.987
235.523
235.629
235.298
234.523
233.302
231.633
229.515
226.952
223.947
220.509
216.644
212.365
207.683
202.612
197.17
191.375
185.244
178.801
172.067
165.065
157.82
150.359
142.706
134.888
126.934
118.869
110.723
102.523
94.296
86.071
77.875
69.734
61.676
53.725
45.906
38.243
30.758
23.473
16.408
9.581
3.008
-3.293
-9.311
-15.032
-20.446
-25.545
-30.322
-34.772
-38.891
-42.679
-46.134
-49.259
-52.057
-54.532
-56.691
-58.541
-60.091
-61.35
-62.329
-63.041
-63.497
-63.712
-63.699
-63.473
-63.048
-62.441
-61.667
-60.741
-59.678
-58.496
-57.208
-55.83
-54.377
-52.864
-51.303
-49.709
-48.094
-46.47
-44.848
-43.24
-41.656
-40.103
-38.592
-37.129
-35.722
-34.376
-33.097
-31.89
-30.758
-29.706
-28.734
-27.845
-27.041
-26.321
-25.687
-25.137
-24.671
-24.288
-23.986
-23.762
-23.615
-23.542
-23.541
-23.607
-23.739
-23.932
-24.184
-24.491
-24.848
-25.254
-25.703
-26.193
-26.72
-27.28
-27.87
-28.487
-29.126
-29.785
-30.46
-31.149
-31.848
-32.555
-33.267
-33.982
-34.698
-35.412
-36.123
-36.829
-37.528
-38.219
-38.899
-39.569
-40.227
-40.872
-41.504
-42.121
-42.723
-43.309
-43.88
-44.434
-44.971
-45.492
-45.996
-46.483
-46.953
-47.406
-47.842
-48.262
-48.665
-49.051
-49.421
-49.775
-50.11
-50.428
-50.727
-51.006
-51.264
-51.5
-51.711
-51.897
-52.056
-52.186
-52.285
-52.35
-52.38
-52.371
-52.322
-52.229
-52.091
-51.903
-51.664
-51.371
-51.022
-50.613
-50.143
-49.609
-49.009
-48.34
-47.6
-46.788
-45.902
-44.942
-43.907
-42.799
-41.618
-40.366
-39.046
-37.664
-36.222
-34.727
-33.184
-31.599
-29.98
-28.333
-26.666
-24.985
-23.3
-21.619
-19.951
-18.306
-16.694
-15.125
-13.609
-12.156
-10.775
-9.475
-8.264
-7.147
-6.129
-5.216
-4.415
-3.734
-3.18
-2.752
-2.449
-2.266
-2.197
-2.234
-2.359
-2.55
-2.785
-3.047
-3.321
-3.602
-3.881
-4.148
-4.385
-4.57
-4.692
-4.746
-4.732
-4.654
-4.518
-4.339
-4.159
-4.039
-4.038
-4.205
-4.567
-5.142
-5.968
-7.085
-8.546
-10.408
-12.699
-15.449
-18.697
-22.454
-26.697
-31.349
-36.215
-41.038
-45.588
-49.607
-52.836
-55.086
-56.199
-56.131
-55.06
-53.276
-51.076
-48.813
-46.884
-45.628
-45.336
-46.151
-47.696
-49.014
-48.937
-46.158
-39.92
-30.598
-19.032
-5.835
9.637
29.64
57.52
95.931
144.826
201.998
262.402
319.278
366.186
395.263
399.383
373.828
316.676
232.335
129.276
16.662
-98.012
-212.815
-329.01
-446.96
-563.324
-668.826
-751.109
-800.302
-812.875
-792.412
-748.313
-690.608
-625.903
-558.418
-489.31
-419.356
-351.582
-288.24
-231.578
-182.947
-141.203
-105.661
-75.676
-51.107
-33.116
-22.185
-18.531
-20.654
-25.279
-29.597
-30.637
-27.822
-23.366
-18.619
-14.856
-11.968
-7.165
0.493
9.756
18.828
24.215
23.965
20.046
15.206
12.43
14.186
19.35
25.354
30.4
32.887
33.21
33.195
33.856
35.841
39.18
43.171
47.471
51.991
56.594
61.22
65.712
69.856
73.556
76.802
79.612
82.009
84.027
85.71
87.122
88.339
89.423
90.418
91.36
92.285
93.239
94.27
95.425
96.752
98.281
100.032
102.02
104.252
106.73
109.452
112.411
115.591
118.98
122.566
126.338
130.285
134.393
138.644
143.019
147.496
152.056
156.68
161.346
166.034
170.722
175.389
180.012
184.572
189.047
193.413
197.646
201.723
205.62
209.315
212.787
216.013
218.975
221.652
224.028
226.088
227.817
229.201
230.23
230.893
231.183
231.091
230.614
229.747
228.488
226.838
224.799
222.373
219.566
216.385
212.839
208.936
204.69
200.114
195.222
190.03
184.555
178.816
172.832
166.624
160.212
153.619
146.866
139.977
132.975
125.881
118.72
111.514
104.286
97.058
89.853
82.69
75.592
68.579
61.67
54.884
48.239
41.751
35.436
29.31
23.384
17.672
12.183
6.928
1.915
-2.85
-7.363
-11.618
-15.613
-19.349
-22.824
-26.042
-29.004
-31.715
-34.18
-36.406
-38.398
-40.167
-41.719
-43.065
-44.214
-45.177
-45.965
-46.588
-47.059
-47.388
-47.587
-47.668
-47.642
-47.521
-47.316
-47.038
-46.697
-46.303
-45.867
-45.396
-44.9
-44.388
-43.865
-43.339
-42.816
-42.302
-41.801
-41.317
-40.854
-40.414
-40.0
-39.614
-39.257
-38.929
-38.631
-38.364
-38.126
-37.917
-37.737
-37.585
-37.458
-37.357
-37.28
-37.225
-37.191
-37.177
-37.181
-37.202
-37.239
-37.29
-37.355
-37.433
-37.522
-37.623
-37.734
-37.855
-37.987
-38.129
-38.281
-38.443
-38.617
-38.801
-38.998
-39.206
-39.428
-39.664
-39.914
-40.179
-40.459
-40.756
-41.068
-41.398
-41.745
-42.109
-42.49
-42.889
-43.305
-43.737
-44.186
-44.651
-45.13
-45.624
-46.132
-46.651
-47.182
-47.722
-48.272
-48.828
-49.391
-49.958
-50.528
-51.099
-51.671
-52.24
-52.806
-53.367
-53.922
-54.468
-55.005
-55.531
-56.044
-56.543
-57.025
-57.49
-57.936
-58.36
-58.761
-59.136
-59.483
-59.801
-60.086
-60.336
-60.549
-60.722
-60.854
-60.941
-60.981
-60.972
-60.91
-60.793
-60.618
-60.382
-60.083
-59.717
-59.283
-58.777
-58.198
-57.542
-56.807
-55.992
-55.094
-54.111
-53.043
-51.887
-50.645
-49.315
-47.9
-46.401
-44.82
-43.162
-41.432
-39.634
-37.776
-35.863
-33.902
-31.901
-29.869
-27.813
-25.744
-23.67
-21.602
-19.551
-17.527
-15.543
-13.611
-11.74
-9.94
-8.221
-6.594
-5.068
-3.651
-2.349
-1.169
-0.116
0.802
1.58
2.219
2.72
3.088
3.33
3.454
3.474
3.407
3.273
3.087
2.864
2.616
2.354
2.088
1.828
1.582
1.355
1.155
0.984
0.847
0.744
0.653
0.537
0.361
0.067
-0.407
-1.138
-2.248
-3.82
-5.864
-8.396
-11.416
-14.868
-18.721
-22.86
-27.02
-31.053
-34.902
-38.456
-41.686
-44.573
-46.98
-48.89
-50.491
-51.814
-52.87
-53.759
-54.444
-54.964
-55.522
-56.282
-57.282
-58.581
-60.149
-61.529
-61.903
-60.285
-55.479
-46.895
-35.023
-20.591
-4.141
14.97
38.865
70.317
111.521
162.293
220.662
282.12
339.933
387.173
415.171
416.168
385.924
323.718
234.953
128.507
12.588
-107.12
-229.335
-354.441
-480.278
-599.831
-701.451
-773.178
-807.686
-805.176
-773.069
-721.861
-660.602
-594.762
-526.101
-454.762
-382.218
-311.594
-246.422
-190.024
-143.359
-104.828
-73.181
-47.569
-28.451
-17.899
-16.12
-20.884
-28.276
-33.767
-34.768
-31.6
-26.644
-22.186
-19.286
-17.754
-16.117
-13.054
-8.393
-2.734
2.353
4.74
3.228
-1.303
-6.186
-8.172
-4.637
3.666
12.958
19.654
20.894
17.02
11.685
7.77
7.263
10.361
15.051
20.026
24.63
28.57
32.312
35.948
39.28
42.276
44.883
47.158
49.261
51.271
53.217
55.128
57.032
58.951
60.907
62.911
64.975
67.118
69.378
71.799
74.418
77.247
80.278
83.476
86.798
90.225
93.758
97.415
101.213
105.156
109.241
113.468
117.842
122.361
127.012
131.767
136.596
141.48
146.408
151.382
156.4
161.451
166.51
171.543
176.519
181.41
186.189
190.827
195.29
199.55
203.585
207.382
210.929
214.21
217.206
219.899
222.271
224.308
225.999
227.336
228.31
228.915
229.145
228.998
228.475
227.575
226.299
224.645
222.616
220.215
217.449
214.324
210.851
207.038
202.898
198.445
193.695
188.664
183.369
177.827
172.058
166.08
159.915
153.582
147.102
140.497
133.788
126.997
120.146
113.255
106.348
99.444
92.566
85.734
78.967
72.286
65.709
59.254
52.939
46.78
40.793
34.991
29.388
23.996
18.826
13.887
9.188
4.734
0.531
-3.416
-7.106
-10.536
-13.706
-16.618
-19.272
-21.673
-23.823
-25.729
-27.395
-28.83
-30.039
-31.033
-31.819
-32.408
-32.809
-33.034
-33.093
-32.997
-32.758
-32.387
-31.897
-31.298
-30.602
-29.821
-28.965
-28.046
-27.074
-26.059
-25.01
-23.938
-22.85
-21.754
-20.659
-19.572
-18.498
-17.445
-16.419
-15.424
-14.465
-13.547
-12.674
-11.85
-11.077
-10.358
-9.696
-9.092
-8.548
-8.066
-7.646
-7.288
-6.995
-6.764
-6.597
-6.492
-6.45
-6.47
-6.55
-6.69
-6.89
-7.146
-7.46
-7.829
-8.252
-8.727
-9.254
-9.83
-10.453
-11.123
-11.837
-12.592
-13.387
-14.22
-15.087
-15.986
-16.915
-17.871
-18.85
-19.85
-20.868
-21.901
-22.946
-23.999
-25.058
-26.12
-27.182
-28.241
-29.294
-30.34
-31.375
-32.396
-33.402
-34.39
-35.358
-36.305
-37.227
-38.124
-38.994
-39.835
-40.648
-41.429
-42.18
-42.9
-43.588
-44.244
-44.869
-45.463
-46.026
-46.56
-47.064
-47.541
-47.991
-48.415
-48.815
-49.191
-49.543
-49.873
-50.181
-50.467
-50.731
-50.972
-51.19
-51.384
-51.554
-51.699
-51.816
-51.906
-51.965
-51.993
-51.986
-51.942
-51.859
-51.733
-51.562
-51.342
-51.071
-50.744
-50.359
-49.912
-49.4
-48.819
-48.166
-47.437
-46.63
-45.741
-44.769
-43.713
-42.571
-41.344
-40.033
-38.641
-37.171
-35.628
-34.015
-32.337
-30.6
-28.811
-26.978
-25.107
-23.207
-21.287
-19.359
-17.434
-15.525
-13.643
-11.798
-10.002
-8.266
-6.6
-5.015
-3.521
-2.124
-0.833
0.347
1.406
2.337
3.137
3.81
4.359
4.791
5.111
5.326
5.448
5.496
5.486
5.431
5.344
5.226
5.084
4.926
4.751
4.57
4.385
4.186
3.973
3.745
3.489
3.208
2.902
2.51
1.968
1.189
0.055
-1.491
-3.481
-5.988
-9.059
-12.668
-16.712
-20.945
-25.066
-28.932
-32.454
-35.521
-38.048
-39.942
-41.232
-42.213
-43.197
-44.266
-45.412
-46.603
-47.816
-49.23
-50.948
-52.778
-54.631
-56.661
-59.023
-61.967
-65.351
-68.226
-69.58
-68.462
-64.311
-57.497
-48.321
-36.787
-22.093
-1.983
25.886
63.525
111.716
168.676
230.89
292.883
347.302
386.233
401.666
387.297
340.754
264.513
165.457
52.415
-67.31
-190.21
-315.856
-443.758
-569.401
-683.256
-773.376
-829.679
-849.317
-836.63
-799.813
-748.074
-686.73
-617.65
-542.383
-462.661
-382.514
-307.524
-241.909
-187.871
-145.305
-112.191
-86.149
-65.861
-50.789
-40.824
-36.068
-35.591
-37.811
-41.183
-44.205
-45.936
-46.175
-44.869
-41.708
-36.854
-30.17
-21.535
-12.256
-3.289
4.154
8.593
10.616
10.947
10.359
10.115
9.988
9.699
9.451
9.224
9.618
11.117
13.655
17.159
21.422
26.194
31.35
36.724
42.069
47.213
52.043
56.475
60.491
64.089
67.256
70.011
72.397
74.452
76.224
77.766
79.12
80.334
81.458
82.537
83.622
84.762
86.005
87.4
88.981
90.77
92.782
95.029
97.513
100.235
103.188
106.358
109.733
113.302
117.055
120.983
125.07
129.302
133.661
138.132
142.695
147.336
152.035
156.774
161.534
166.297
171.043
175.755
180.413
184.996
189.481
193.848
198.074
202.139
206.022
209.701
213.157
216.371
219.327
222.007
224.398
226.485
228.255
229.698
230.803
231.562
231.968
232.015
231.699
231.016
229.966
228.549
226.767
224.622
222.121
219.27
216.076
212.549
208.699
204.538
200.079
195.338
190.328
185.067
179.572
173.862
167.955
161.871
155.63
149.253
142.76
136.173
129.511
122.796
116.049
109.289
102.538
95.815
89.14
82.531
76.008
69.587
63.287
57.122
51.108
45.26
39.591
34.112
28.836
23.771
18.927
14.311
9.93
5.788
1.889
-1.763
-5.168
-8.326
-11.238
-13.905
-16.332
-18.521
-20.479
-22.212
-23.725
-25.027
-26.126
-27.03
-27.748
-28.292
-28.669
-28.892
-28.969
-28.914
-28.735
-28.446
-28.055
-27.574
-27.015
-26.388
-25.702
-24.969
-24.197
-23.398
-22.578
-21.748
-20.916
-20.087
-19.271
-18.473
-17.699
-16.955
-16.244
-15.572
-14.942
-14.357
-13.819
-13.332
-12.897
-12.515
-12.186
-11.913
-11.694
-11.53
-11.42
-11.364
-11.36
-11.409
-11.507
-11.654
-11.847
-12.086
-12.367
-12.689
-13.049
-13.445
-13.874
-14.335
-14.825
-15.34
-15.88
-16.442
-17.023
-17.622
-18.236
-18.863
-19.503
-20.152
-20.81
-21.474
-22.144
-22.818
-23.494
-24.172
-24.851
-25.528
-26.204
-26.876
-27.545
-28.209
-28.868
-29.521
-30.168
-30.808
-31.44
-32.066
-32.684
-33.295
-33.898
-34.494
-35.083
-35.665
-36.24
-36.809
-37.372
-37.93
-38.483
-39.031
-39.575
-40.116
-40.653
-41.188
-41.721
-42.251
-42.78
-43.308
-43.836
-44.363
-44.89
-45.418
-45.946
-46.474
-47.002
-47.529
-48.054
-48.578
-49.097
-49.61
-50.116
-50.614
-51.099
-51.572
-52.029
-52.466
-52.882
-53.273
-53.636
-53.967
-54.262
-54.517
-54.729
-54.894
-55.007
-55.065
-55.063
-54.999
-54.867
-54.664
-54.386
-54.03
-53.592
-53.069
-52.459
-51.761
-50.972
-50.094
-49.126
-48.07
-46.929
-45.706
-44.405
-43.029
-41.584
-40.077
-38.512
-36.896
-35.237
-33.541
-31.816
-30.073
-28.321
-26.571
-24.832
-23.117
-21.435
-19.797
-18.214
-16.695
-15.245
-13.872
-12.583
-11.387
-10.296
-9.317
-8.451
-7.701
-7.065
-6.538
-6.115
-5.78
-5.514
-5.296
-5.111
-4.949
-4.804
-4.669
-4.532
-4.379
-4.191
-3.957
-3.676
-3.344
-2.963
-2.54
-2.091
-1.656
-1.297
-1.069
-1.019
-1.185
-1.592
-2.284
-3.31
-4.718
-6.565
-8.885
-11.71
-15.087
-19.035
-23.53
-28.499
-33.774
-39.123
-44.321
-49.112
-53.212
-56.403
-58.497
-59.415
-59.263
-58.226
-56.584
-54.687
-52.883
-51.531
-50.952
-51.263
-52.415
-53.842
-54.239
-52.295
-46.684
-37.036
-24.621
-10.416
5.192
23.456
48.062
82.151
127.341
182.934
244.673
306.546
361.21
399.887
414.348
398.087
348.32
268.271
165.614
49.797
-71.318
-194.422
-319.21
-444.872
-566.741
-675.306
-758.969
-809.292
-825.221
-812.157
-779.27
-734.734
-681.401
-619.308
-548.106
-469.128
-388.246
-312.47
-246.595
-193.088
-150.515
-115.591
-86.588
-62.599
-43.783
-31.179
-24.404
-22.081
-22.72
-24.51
-26.168
-27.315
-27.737
-27.178
-25.593
-23.021
-19.512
-15.406
-11.138
-6.838
-2.616
1.263
4.681
7.524
9.641
11.165
12.35
13.312
14.203
15.246
16.585
18.419
20.988
24.309
28.283
32.813
37.734
42.878
48.108
53.227
58.01
62.336
66.157
69.461
72.296
74.693
76.676
78.298
79.63
80.735
81.672
82.49
83.225
83.924
84.646
85.447
86.386
87.507
88.836
90.392
92.187
94.228
96.52
99.06
101.837
104.841
108.065
111.502
115.146
118.987
123.01
127.201
131.54
136.013
140.602
145.291
150.062
154.898
159.78
164.69
169.61
174.519
179.396
184.217
188.959
193.599
198.113
202.478
206.671
210.67
214.453
218.001
221.293
224.312
227.04
229.461
231.56
233.323
234.737
235.792
236.477
236.785
236.709
236.244
235.387
234.135
232.488
230.449
228.019
225.205
222.012
218.448
214.523
210.248
205.635
200.699
195.454
189.917
184.107
178.041
171.74
165.224
158.514
151.632
144.601
137.443
130.181
122.839
115.439
108.006
100.563
93.133
85.739
78.404
71.151
63.999
56.971
50.086
43.364
36.822
30.479
24.349
18.448
12.789
7.384
2.245
-2.62
-7.203
-11.497
-15.497
-19.2
-22.603
-25.707
-28.512
-31.019
-33.234
-35.159
-36.803
-38.171
-39.271
-40.114
-40.709
-41.068
-41.202
-41.124
-40.847
-40.385
-39.751
-38.961
-38.028
-36.969
-35.797
-34.528
-33.176
-31.757
-30.284
-28.771
-27.233
-25.683
-24.133
-22.596
-21.083
-19.606
-18.173
-16.796
-15.483
-14.242
-13.08
-12.004
-11.02
-10.131
-9.343
-8.66
-8.082
-7.613
-7.254
-7.005
-6.865
-6.836
-6.913
-7.097
-7.384
-7.772
-8.256
-8.834
-9.5
-10.25
-11.08
-11.983
-12.955
-13.988
-15.078
-16.218
-17.401
-18.621
-19.871
-21.144
-22.435
-23.736
-25.041
-26.344
-27.638
-28.918
-30.178
-31.412
-32.615
-33.781
-34.906
-35.985
-37.014
-37.989
-38.906
-39.762
-40.555
-41.282
-41.94
-42.528
-43.045
-43.49
-43.862
-44.161
-44.387
-44.543
-44.63
-44.649
-44.604
-44.498
-44.335
-44.118
-43.851
-43.539
-43.186
-42.797
-42.377
-41.93
-41.463
-40.98
-40.488
-39.992
-39.498
-39.012
-38.54
-38.087
-37.658
-37.259
-36.895
-36.57
-36.29
-36.058
-35.879
-35.757
-35.694
-35.694
-35.757
-35.885
-36.076
-36.331
-36.647
-37.021
-37.45
-37.929
-38.455
-39.024
-39.631
-40.272
-40.943
-41.64
-42.358
-43.091
-43.833
-44.576
-45.311
-46.028
-46.718
-47.372
-47.98
-48.533
-49.024
-49.445
-49.792
-50.058
-50.236
-50.318
-50.292
-50.15
-49.89
-49.512
-49.024
-48.435
-47.762
-47.022
-46.237
-45.423
-44.589
-43.739
-42.867
-41.965
-41.027
-40.057
-39.064
-38.057
-37.044
-36.026
-34.999
-33.953
-32.865
-31.707
-30.441
-29.044
-27.507
-25.844
-24.091
-22.29
-20.488
-18.72
-17.004
-15.356
-13.788
-12.311
-10.927
-9.658
-8.531
-7.589
-6.898
-6.503
-6.433
-6.692
-7.245
-8.044
-9.033
-10.164
-11.402
-12.735
-14.14
-15.592
-17.127
-18.785
-20.621
-22.718
-25.079
-27.672
-30.518
-33.675
-37.141
-40.871
-44.692
-48.299
-51.52
-54.293
-56.523
-58.095
-58.919
-58.978
-58.508
-57.966
-57.609
-57.508
-57.692
-58.182
-59.088
-60.549
-62.42
-64.347
-66.226
-68.132
-70.189
-72.545
-74.776
-75.808
-74.674
-70.471
-62.823
-52.469
-40.183
-26.223
-9.702
11.811
41.566
81.932
132.812
192.04
254.349
312.612
359.718
387.124
387.921
358.302
297.632
211.567
108.686
-2.77
-116.648
-232.309
-351.115
-472.367
-591.198
-696.82
-776.631
-821.724
-829.941
-806.277
-760.418
-701.622
-635.628
-565.89
-493.618
-420.492
-350.362
-285.984
-229.575
-181.962
-141.49
-107.417
-79.517
-57.669
-42.72
-34.424
-31.508
-32.545
-35.717
-39.574
-43.308
-46.4
-48.439
-49.13
-48.281
-45.821
-41.939
-37.049
-31.553
-25.745
-19.988
-14.595
-9.825
-5.964
-3.052
-0.899
0.7
1.96
3.154
4.511
6.281
8.77
12.081
16.148
20.877
26.095
31.614
37.281
42.889
48.193
53.062
57.439
61.304
64.702
67.668
70.223
72.419
74.325
75.997
77.492
78.854
80.113
81.317
82.52
83.778
85.149
86.676
88.384
90.296
92.425
94.779
97.365
100.18
103.214
106.463
109.918
113.575
117.429
121.471
125.687
130.063
134.583
139.231
143.992
148.852
153.792
158.797
163.849
168.931
174.024
179.112
184.171
189.18
194.116
198.956
203.678
208.259
212.676
216.907
220.931
224.727
228.278
231.563
234.565
237.268
239.656
241.715
243.431
244.794
245.792
246.416
246.659
246.514
245.977
245.046
243.718
241.994
239.876
237.368
234.474
231.201
227.558
223.555
219.202
214.513
209.502
204.184
198.576
192.696
186.564
180.198
173.621
166.852
159.915
152.831
145.624
138.317
130.933
123.496
116.03
108.558
101.104
93.693
86.345
79.085
71.933
64.912
58.041
51.34
44.826
38.519
32.433
26.583
20.984
15.646
10.582
5.799
1.306
-2.893
-6.791
-10.387
-13.68
-16.67
-19.358
-21.748
-23.844
-25.653
-27.182
-28.439
-29.435
-30.179
-30.684
-30.962
-31.027
-30.893
-30.575
-30.088
-29.448
-28.67
-27.772
-26.77
-25.679
-24.516
-23.297
-22.037
-20.751
-19.455
-18.163
-16.887
-15.64
-14.435
-13.282
-12.19
-11.17
-10.228
-9.373
-8.61
-7.943
-7.378
-6.917
-6.563
-6.316
-6.176
-6.143
-6.214
-6.389
-6.662
-7.031
-7.491
-8.037
-8.663
-9.363
-10.13
-10.957
-11.838
-12.764
-13.729
-14.725
-15.744
-16.779
-17.822
-18.867
-19.907
-20.934
-21.945
-22.932
-23.89
-24.815
-25.704
-26.551
-27.354
-28.111
-28.819
-29.478
-30.086
-30.645
-31.153
-31.611
-32.022
-32.387
-32.709
-32.989
-33.231
-33.439
-33.617
-33.767
-33.896
-34.007
-34.105
-34.194
-34.28
-34.367
-34.459
-34.561
-34.678
-34.812
-34.969
-35.151
-35.361
-35.602
-35.876
-36.184
-36.528
-36.907
-37.322
-37.771
-38.253
-38.766
-39.307
-39.873
-40.461
-41.067
-41.685
-42.312
-42.942
-43.568
-44.185
-44.787
-45.365
-45.915
-46.427
-46.895
-47.312
-47.671
-47.964
-48.186
-48.329
-48.386
-48.351
-48.219
-47.984
-47.641
-47.187
-46.619
-45.935
-45.133
-44.215
-43.182
-42.037
-40.785
-39.429
-37.974
-36.427
-34.795
-33.086
-31.307
-29.468
-27.579
-25.653
-23.701
-21.74
-19.781
-17.839
-15.926
-14.055
-12.24
-10.492
-8.822
-7.241
-5.758
-4.384
-3.128
-2.003
-1.015
-0.162
0.556
1.146
1.616
1.973
2.232
2.411
2.525
2.588
2.608
2.59
2.543
2.476
2.395
2.309
2.225
2.138
2.046
1.946
1.824
1.662
1.448
1.151
0.728
0.122
-0.745
-1.957
-3.566
-5.607
-8.138
-11.208
-14.789
-18.768
-22.938
-27.036
-30.89
-34.392
-37.379
-39.677
-41.209
-42.026
-42.352
-42.474
-42.518
-42.512
-42.55
-42.771
-43.324
-44.286
-45.54
-46.961
-48.608
-50.592
-52.902
-55.397
-57.388
-57.654
-55.137
-48.642
-37.727
-23.428
-6.592
12.023
32.63
57.994
91.01
134.008
187.908
249.509
312.32
366.867
401.755
407.392
378.498
316.493
229.039
126.772
19.593
-87.647
-195.123
-305.18
-418.998
-532.319
-635.859
-718.45
-770.824
-789.978
-778.879
-744.591
-695.371
-637.316
-574.83
-510.84
-447.341
-386.271
-328.555
-274.282
-223.458
-176.57
-134.836
-99.874
-72.86
-53.662
-41.396
-34.786
-32.163
-32.23
-33.928
-36.071
-38.186
-40.352
-42.246
-43.39
-42.813
-38.863
-30.837
-19.852
-8.661
-1.045
-0.118
-6.271
-16.232
-24.899
-27.711
-22.324
-11.128
0.649
8.848
10.714
7.306
2.833
0.155
1.154
5.89
12.205
18.809
25.057
30.576
35.787
40.813
45.464
49.712
53.498
56.809
59.741
62.37
64.746
66.942
69.028
71.046
73.022
74.983
76.958
78.99
81.134
83.44
85.936
88.644
91.574
94.732
98.123
101.745
105.587
109.635
113.874
118.293
122.88
127.626
132.517
137.535
142.661
147.874
153.156
158.488
163.851
169.225
174.59
179.924
185.209
190.424
195.549
200.561
205.436
210.151
214.682
219.007
223.103
226.949
230.521
233.802
236.771
239.411
241.705
243.638
245.196
246.366
247.138
247.5
247.446
246.968
246.062
244.724
242.954
240.752
238.119
235.061
231.583
227.692
223.4
218.716
213.655
208.23
202.458
196.356
189.944
183.243
176.274
169.059
161.624
153.991
146.188
138.239
130.171
122.01
113.784
105.518
97.239
88.975
80.75
72.591
64.522
56.569
48.755
41.103
33.633
26.367
19.324
12.521
5.975
-0.299
-6.29
-11.984
-17.372
-22.446
-27.201
-31.631
-35.734
-39.508
-42.955
-46.077
-48.878
-51.363
-53.539
-55.415
-56.999
-58.302
-59.335
-60.112
-60.646
-60.95
-61.04
-60.931
-60.638
-60.177
-59.565
-58.817
-57.949
-56.979
-55.92
-54.788
-53.599
-52.366
-51.103
-49.823
-48.538
-47.259
-45.997
-44.762
-43.561
-42.403
-41.293
-40.239
-39.245
-38.315
-37.451
-36.657
-35.933
-35.281
-34.699
-34.189
-33.748
-33.374
-33.065
-32.818
-32.63
-32.496
-32.414
-32.379
-32.387
-32.432
-32.51
-32.617
-32.748
-32.898
-33.063
-33.239
-33.42
-33.605
-33.788
-33.967
-34.139
-34.301
-34.451
-34.587
-34.706
-34.808
-34.892
-34.957
-35.001
-35.026
-35.031
-35.016
-34.982
-34.93
-34.86
-34.775
-34.674
-34.56
-34.434
-34.298
-34.154
-34.004
-33.849
-33.693
-33.537
-33.383
-33.235
-33.093
-32.959
-32.837
-32.728
-32.633
-32.554
-32.493
-32.452
-32.431
-32.433
-32.457
-32.505
-32.576
-32.673
-32.793
-32.938
-33.106
-33.296
-33.507
-33.738
-33.988
-34.254
-34.534
-34.826
-35.128
-35.437
-35.75
-36.063
-36.373
-36.676
-36.968
-37.246
-37.504
-37.74
-37.948
-38.125
-38.266
-38.366
-38.422
-38.428
-38.381
-38.276
-38.109
-37.877
-37.577
-37.206
-36.764
-36.248
-35.661
-35.003
-34.276
-33.481
-32.623
-31.703
-30.725
-29.695
-28.617
-27.495
-26.336
-25.147
-23.939
-22.721
-21.503
-20.292
-19.1
-17.935
-16.805
-15.72
-14.687
-13.711
-12.802
-11.965
-11.21
-10.546
-9.977
-9.503
-9.119
-8.819
-8.594
-8.435
-8.327
-8.249
-8.187
-8.125
-8.056
-7.975
-7.874
-7.744
-7.581
-7.376
-7.127
-6.843
-6.528
-6.192
-5.854
-5.536
-5.261
-5.068
-5.01
-5.15
-5.578
-6.389
-7.65
-9.411
-11.733
-14.667
-18.184
-22.161
-26.38
-30.561
-34.498
-38.061
-41.082
-43.381
-44.894
-45.693
-46.017
-46.168
-46.29
-46.41
-46.593
-46.936
-47.527
-48.345
-49.184
-49.919
-50.616
-51.388
-52.349
-53.237
-53.238
-51.481
-47.081
-39.585
-29.437
-17.321
-3.682
12.292
32.91
61.377
100.46
150.205
208.423
270.275
329.005
378.351
410.777
419.282
398.939
346.851
266.167
164.208
49.762
-68.948
-188.991
-310.6
-433.723
-555.248
-666.172
-754.473
-810.07
-828.941
-814.113
-773.977
-718.337
-653.903
-584.63
-512.36
-437.854
-363.814
-293.783
-230.526
-176.34
-131.492
-94.714
-65.295
-42.544
-26.122
-16.2
-11.93
-11.824
-14.336
-17.671
-20.621
-22.702
-23.494
-22.809
-20.649
-17.063
-12.376
-7.091
-1.641
3.689
8.644
12.737
15.538
17.101
17.556
17.768
18.692
19.831
20.961
21.553
20.838
20.06
20.107
21.454
24.873
29.559
34.706
40.044
44.995
49.553
53.849
57.72
61.154
64.153
66.677
68.778
70.527
71.963
73.136
74.116
74.952
75.686
76.362
77.019
77.703
78.471
79.377
80.469
81.781
83.335
85.148
87.231
89.589
92.223
95.127
98.288
101.696
105.341
109.215
113.307
117.604
122.089
126.743
131.548
136.484
141.535
146.679
151.895
157.163
162.459
167.761
173.049
178.299
183.484
188.58
193.559
198.396
203.065
207.541
211.798
215.812
219.56
223.02
226.171
228.994
231.471
233.585
235.321
236.666
237.607
238.136
238.242
237.921
237.167
235.979
234.355
232.297
229.808
226.895
223.565
219.828
215.694
211.176
206.291
201.053
195.482
189.597
183.418
176.968
170.27
163.348
156.228
148.934
141.493
133.931
126.275
118.552
110.787
103.008
95.241
87.511
79.844
72.263
64.793
57.457
50.275
43.269
36.458
29.86
23.491
17.365
11.497
5.898
0.578
-4.454
-9.192
-13.63
-17.766
-21.597
-25.123
-28.346
-31.268
-33.894
-36.229
-38.282
-40.058
-41.569
-42.824
-43.835
-44.613
-45.17
-45.521
-45.678
-45.656
-45.468
-45.13
-44.655
-44.058
-43.353
-42.553
-41.674
-40.726
-39.724
-38.679
-37.603
-36.506
-35.399
-34.291
-33.191
-32.107
-31.046
-30.016
-29.02
-28.065
-27.155
-26.293
-25.482
-24.724
-24.02
-23.372
-22.78
-22.243
-21.761
-21.333
-20.958
-20.635
-20.36
-20.132
-19.948
-19.806
-19.704
-19.639
-19.608
-19.608
-19.638
-19.694
-19.773
-19.875
-19.996
-20.134
-20.287
-20.453
-20.631
-20.818
-21.013
-21.215
-21.421
-21.632
-21.845
-22.061
-22.279
-22.497
-22.715
-22.934
-23.152
-23.37
-23.587
-23.804
-24.02
-24.236
-24.453
-24.67
-24.888
-25.107
-25.328
-25.551
-25.778
-26.007
-26.24
-26.478
-26.721
-26.97
-27.225
-27.488
-27.76
-28.041
-28.332
-28.635
-28.95
-29.278
-29.62
-29.978
-30.351
-30.741
-31.147
-31.572
-32.014
-32.475
-32.953
-33.449
-33.961
-34.489
-35.032
-35.587
-36.152
-36.725
-37.304
-37.885
-38.466
-39.044
-39.614
-40.173
-40.717
-41.242
-41.742
-42.214
-42.651
-43.05
-43.404
-43.708
-43.957
-44.146
-44.269
-44.322
-44.3
-44.197
-44.009
-43.732
-43.362
-42.894
-42.328
-41.661
-40.892
-40.022
-39.052
-37.983
-36.821
-35.57
-34.234
-32.819
-31.333
-29.781
-28.172
-26.516
-24.821
-23.097
-21.357
-19.611
-17.873
-16.153
-14.465
-12.818
-11.226
-9.697
-8.244
-6.876
-5.602
-4.428
-3.362
-2.409
-1.579
-0.874
-0.295
0.163
0.502
0.729
0.85
0.879
0.835
0.735
0.595
0.431
0.25
0.059
-0.134
-0.327
-0.509
-0.675
-0.827
-0.962
-1.076
-1.177
-1.272
-1.38
-1.564
-1.903
-2.49
-3.436
-4.825
-6.716
-9.152
-12.174
-15.734
-19.694
-23.875
-28.055
-32.051
-35.742
-39.033
-41.777
-43.927
-45.603
-46.926
-48.038
-49.066
-50.032
-50.965
-52.045
-53.401
-54.971
-56.759
-58.823
-61.165
-63.83
-66.801
-69.449
-70.638
-69.345
-64.376
-55.177
-42.507
-27.054
-9.093
12.078
38.654
73.189
116.995
169.165
227.125
285.835
338.834
379.586
400.058
393.664
356.933
289.727
197.67
89.098
-28.259
-149.022
-272.152
-397.89
-523.892
-643.178
-744.068
-814.662
-847.879
-844.039
-810.684
-758.404
-696.103
-629.166
-559.442
-487.28
-414.408
-343.964
-279.14
-222.642
-175.158
-135.454
-102.679
-76.22
-55.838
-42.131
-34.762
-32.405
-33.547
-36.504
-39.878
-43.071
-46.181
-48.871
-50.513
-50.472
-47.251
-40.467
-31.94
-23.834
-19.076
-19.587
-23.548
-28.028
-30.082
-27.383
-21.135
-14.084
-8.235
-5.259
-4.719
-4.764
-4.334
-2.603
0.571
4.512
8.925
13.677
18.568
23.551
28.461
33.035
37.152
40.776
43.902
46.575
48.843
50.755
52.382
53.801
55.078
56.259
57.382
58.492
59.636
60.869
62.248
63.814
65.597
67.617
69.887
72.411
75.195
78.233
81.513
85.027
88.766
92.722
96.888
101.254
105.805
110.524
115.394
120.395
125.509
130.718
136.002
141.343
146.719
152.111
157.5
162.864
168.179
173.421
178.566
183.587
188.462
193.164
197.669
201.955
205.999
209.779
213.276
216.471
219.345
221.882
224.068
225.887
227.33
228.384
229.042
229.295
229.14
228.573
227.592
226.198
224.393
222.181
219.569
216.564
213.176
209.415
205.295
200.829
196.034
190.927
185.526
179.851
173.923
167.764
161.396
154.843
148.128
141.277
134.312
127.26
120.145
112.991
105.823
98.665
91.541
84.475
77.488
70.602
63.839
57.218
50.758
44.476
38.39
32.514
26.862
21.446
16.278
11.368
6.723
2.35
-1.746
-5.56
-9.09
-12.337
-15.3
-17.982
-20.385
-22.516
-24.379
-25.981
-27.331
-28.438
-29.312
-29.963
-30.403
-30.644
-30.698
-30.579
-30.299
-29.872
-29.312
-28.632
-27.845
-26.965
-26.005
-24.977
-23.896
-22.771
-21.617
-20.443
-19.261
-18.082
-16.914
-15.768
-14.651
-13.572
-12.537
-11.554
-10.627
-9.763
-8.964
-8.236
-7.58
-7.0
-6.496
-6.071
-5.724
-5.455
-5.264
-5.151
-5.113
-5.149
-5.258
-5.436
-5.681
-5.991
-6.362
-6.791
-7.274
-7.809
-8.39
-9.015
-9.678
-10.377
-11.107
-11.863
-12.641
-13.438
-14.249
-15.07
-15.897
-16.726
-17.555
-18.378
-19.193
-19.997
-20.787
-21.56
-22.313
-23.044
-23.752
-24.433
-25.086
-25.71
-26.304
-26.865
-27.394
-27.89
-28.352
-28.781
-29.175
-29.537
-29.866
-30.164
-30.432
-30.67
-30.882
-31.068
-31.231
-31.374
-31.498
-31.606
-31.7
-31.784
-31.861
-31.932
-32.002
-32.071
-32.144
-32.223
-32.309
-32.407
-32.517
-32.643
-32.786
-32.948
-33.13
-33.334
-33.559
-33.808
-34.079
-34.373
-34.687
-35.021
-35.372
-35.74
-36.121
-36.512
-36.911
-37.313
-37.714
-38.111
-38.499
-38.872
-39.227
-39.556
-39.856
-40.121
-40.346
-40.525
-40.653
-40.725
-40.736
-40.681
-40.554
-40.352
-40.07
-39.705
-39.253
-38.712
-38.081
-37.358
-36.545
-35.642
-34.653
-33.58
-32.429
-31.204
-29.91
-28.555
-27.144
-25.685
-24.185
-22.652
-21.097
-19.532
-17.968
-16.419
-14.895
-13.409
-11.973
-10.6
-9.301
-8.084
-6.956
-5.925
-5.0
-4.192
-3.515
-2.975
-2.569
-2.296
-2.149
-2.121
-2.204
-2.382
-2.63
-2.93
-3.267
-3.632
-4.026
-4.439
-4.858
-5.263
-5.633
-5.958
-6.248
-6.516
-6.769
-7.016
-7.267
-7.54
-7.885
-8.357
-8.985
-9.776
-10.75
-11.934
-13.413
-15.329
-17.757
-20.699
-24.134
-28.008
-32.26
-36.844
-41.582
-46.129
-50.22
-53.658
-56.32
-58.23
-59.369
-59.602
-58.975
-57.726
-56.049
-54.241
-52.582
-51.127
-50.036
-49.672
-50.22
-51.705
-54.154
-56.858
-58.414
-57.629
-53.094
-44.287
-32.599
-19.117
-4.353
12.61
35.717
68.885
114.522
172.713
238.911
305.733
364.12
403.667
415.943
395.574
341.594
259.352
157.496
45.473
-69.537
-185.888
-304.528
-425.813
-546.006
-655.227
-741.505
-795.197
-813.438
-800.666
-764.951
-714.807
-655.143
-588.264
-516.269
-441.291
-367.485
-298.719
-236.94
-183.146
-136.522
-96.617
-63.721
-37.97
-20.208
-10.124
-6.844
-9.327
-14.822
-21.193
-26.476
-28.71
-28.687
-27.262
-24.68
-22.068
-18.343
-12.071
-4.478
3.486
9.877
11.497
8.796
4.121
-0.063
0.153
6.25
15.837
25.687
32.426
33.373
29.65
25.042
22.213
23.687
30.062
38.495
47.18
54.781
60.08
64.166
67.788
70.999
74.246
77.234
79.651
81.667
83.323
84.7
85.937
87.06
88.072
89.015
89.932
90.861
91.851
92.966
94.247
95.723
97.421
99.349
101.509
103.909
106.544
109.402
112.477
115.759
119.24
122.914
126.771
130.796
134.975
139.289
143.721
148.254
152.872
157.555
162.285
167.042
171.806
176.558
181.276
185.935
190.512
194.982
199.319
203.499
207.496
211.287
214.848
218.156
221.19
223.929
226.355
228.449
230.194
231.576
232.581
233.196
233.412
233.219
232.612
231.584
230.134
228.259
225.962
223.245
220.114
216.574
212.635
208.308
203.605
198.541
193.132
187.395
181.35
175.018
168.42
161.58
154.522
147.271
139.853
132.293
124.619
116.856
109.033
101.175
93.309
85.463
77.66
69.928
62.29
54.77
47.392
40.177
33.146
26.318
19.712
13.345
7.23
1.383
-4.185
-9.464
-14.444
-19.12
-23.486
-27.538
-31.275
-34.697
-37.806
-40.605
-43.098
-45.293
-47.195
-48.815
-50.162
-51.247
-52.081
-52.679
-53.052
-53.215
-53.182
-52.969
-52.589
-52.06
-51.394
-50.609
-49.718
-48.737
-47.68
-46.561
-45.394
-44.191
-42.965
-41.728
-40.49
-39.262
-38.052
-36.869
-35.72
-34.613
-33.552
-32.543
-31.591
-30.697
-29.865
-29.096
-28.392
-27.752
-27.176
-26.664
-26.214
-25.825
-25.494
-25.218
-24.996
-24.823
-24.698
-24.616
-24.574
-24.568
-24.596
-24.654
-24.738
-24.844
-24.971
-25.114
-25.272
-25.441
-25.619
-25.803
-25.993
-26.185
-26.378
-26.571
-26.762
-26.951
-27.136
-27.317
-27.494
-27.665
-27.832
-27.993
-28.149
-28.3
-28.444
-28.583
-28.716
-28.843
-28.964
-29.078
-29.187
-29.289
-29.384
-29.473
-29.554
-29.628
-29.694
-29.752
-29.8
-29.84
-29.87
-29.89
-29.901
-29.902
-29.894
-29.876
-29.85
-29.815
-29.773
-29.722
-29.664
-29.598
-29.526
-29.448
-29.366
-29.281
-29.194
-29.107
-29.022
-28.941
-28.865
-28.797
-28.738
-28.691
-28.657
-28.638
-28.638
-28.658
-28.7
-28.766
-28.858
-28.976
-29.122
-29.296
-29.495
-29.72
-29.969
-30.24
-30.529
-30.835
-31.154
-31.485
-31.825
-32.172
-32.522
-32.871
-33.218
-33.557
-33.883
-34.19
-34.468
-34.71
-34.91
-35.059
-35.154
-35.186
-35.149
-35.037
-34.848
-34.576
-34.216
-33.76
-33.194
-32.513
-31.718
-30.815
-29.817
-28.735
-27.576
-26.353
-25.088
-23.791
-22.47
-21.121
-19.726
-18.28
-16.787
-15.259
-13.723
-12.191
-10.663
-9.138
-7.61
-6.073
-4.525
-2.947
-1.302
0.42
2.209
4.03
5.813
7.515
9.117
10.609
11.993
13.266
14.409
15.415
16.292
17.032
17.625
18.034
18.191
18.072
17.689
17.085
16.343
15.512
14.602
13.627
12.602
11.534
10.446
9.33
8.127
6.811
5.393
3.875
2.282
0.587
-1.34
-3.627
-6.344
-9.545
-13.225
-17.297
-21.702
-26.307
-30.811
-34.929
-38.44
-41.156
-43.042
-44.206
-44.674
-44.517
-43.98
-43.276
-42.614
-42.254
-42.289
-42.659
-43.499
-44.943
-46.953
-49.528
-52.26
-54.137
-54.127
-51.168
-44.625
-34.946
-22.936
-9.046
7.565
29.318
59.553
100.862
153.026
213.531
277.179
337.132
387.081
419.521
427.657
406.75
354.231
273.566
172.212
58.875
-58.596
-177.84
-299.699
-424.322
-548.343
-661.956
-751.891
-807.465
-824.61
-806.935
-764.329
-707.3
-642.81
-575.206
-505.568
-434.457
-364.568
-297.949
-236.725
-182.543
-134.998
-94.3
-60.933
-35.004
-17.011
-6.47
-2.011
-2.004
-4.605
-8.33
-11.985
-14.99
-17.401
-18.807
-18.693
-16.506
-10.871
-1.865
8.465
17.937
23.552
23.387
19.15
13.855
10.479
11.95
17.859
24.94
30.901
33.48
32.153
29.706
27.974
28.148
31.104
35.512
40.39
45.489
50.263
54.85
59.362
63.521
67.265
70.568
73.386
75.785
77.827
79.55
81.014
82.301
83.469
84.559
85.606
86.641
87.704
88.847
90.122
91.575
93.239
95.134
97.273
99.666
102.314
105.216
108.363
111.741
115.335
119.134
123.125
127.299
131.639
136.127
140.742
145.463
150.27
155.144
160.062
165.005
169.949
174.874
179.757
184.577
189.313
193.941
198.436
202.774
206.931
210.884
214.611
218.089
221.297
224.215
226.824
229.109
231.052
232.64
233.861
234.701
235.153
235.209
234.861
234.106
232.94
231.362
229.375
226.978
224.179
220.981
217.394
213.427
209.09
204.396
199.36
193.997
188.324
182.358
176.119
169.627
162.904
155.97
148.849
141.565
134.14
126.599
118.966
111.265
103.52
95.754
87.992
80.257
72.571
64.957
57.436
50.03
42.758
35.64
28.693
21.935
15.381
9.047
2.945
-2.912
-8.513
-13.849
-18.912
-23.695
-28.194
-32.403
-36.321
-39.946
-43.278
-46.32
-49.074
-51.543
-53.733
-55.649
-57.299
-58.691
-59.833
-60.735
-61.407
-61.859
-62.103
-62.151
-62.014
-61.705
-61.237
-60.622
-59.873
-59.002
-58.023
-56.947
-55.787
-54.556
-53.265
-51.925
-50.549
-49.146
-47.726
-46.301
-44.878
-43.468
-42.077
-40.714
-39.386
-38.1
-36.861
-35.676
-34.549
-33.484
-32.485
-31.557
-30.701
-29.921
-29.217
-28.592
-28.047
-27.582
-27.197
-26.893
-26.669
-26.524
-26.457
-26.466
-26.55
-26.705
-26.931
-27.223
-27.579
-27.996
-28.469
-28.997
-29.573
-30.196
-30.859
-31.56
-32.293
-33.054
-33.839
-34.642
-35.46
-36.287
-37.119
-37.951
-38.78
-39.6
-40.407
-41.197
-41.966
-42.71
-43.425
-44.109
-44.757
-45.366
-45.935
-46.461
-46.941
-47.374
-47.759
-48.095
-48.382
-48.618
-48.805
-48.943
-49.033
-49.076
-49.074
-49.029
-48.944
-48.821
-48.664
-48.476
-48.26
-48.021
-47.762
-47.486
-47.2
-46.906
-46.61
-46.315
-46.027
-45.749
-45.487
-45.245
-45.027
-44.836
-44.678
-44.554
-44.469
-44.425
-44.425
-44.471
-44.564
-44.707
-44.9
-45.143
-45.436
-45.778
-46.169
-46.605
-47.085
-47.606
-48.164
-48.754
-49.373
-50.017
-50.678
-51.354
-52.036
-52.72
-53.399
-54.066
-54.714
-55.337
-55.927
-56.477
-56.979
-57.427
-57.814
-58.133
-58.379
-58.543
-58.622
-58.609
-58.499
-58.287
-57.97
-57.545
-57.009
-56.361
-55.6
-54.729
-53.748
-52.661
-51.473
-50.189
-48.814
-47.354
-45.818
-44.213
-42.548
-40.833
-39.078
-37.294
-35.492
-33.686
-31.887
-30.108
-28.36
-26.654
-25.0
-23.41
-21.894
-20.46
-19.117
-17.868
-16.722
-15.686
-14.766
-13.962
-13.271
-12.69
-12.215
-11.839
-11.553
-11.341
-11.188
-11.079
-10.999
-10.944
-10.906
-10.881
-10.865
-10.844
-10.815
-10.776
-10.727
-10.667
-10.602
-10.538
-10.489
-10.512
-10.681
-11.084
-11.828
-12.996
-14.649
-16.836
-19.604
-22.912
-26.64
-30.635
-34.657
-38.509
-42.059
-45.181
-47.759
-49.802
-51.419
-52.718
-53.915
-55.185
-56.615
-58.342
-60.452
-62.925
-65.676
-68.647
-71.772
-75.01
-78.254
-81.302
-83.654
-84.308
-82.199
-76.153
-65.651
-51.591
-35.145
-17.256
2.584
27.083
59.549
102.721
157.005
219.552
284.85
344.797
389.966
411.391
401.902
358.781
285.375
189.324
80.484
-32.844
-147.533
-263.802
-382.563
-501.641
-613.108
-705.988
-769.88
-799.961
-798.278
-771.401
-728.214
-674.816
-614.501
-549.178
-478.989
-405.974
-333.331
-264.244
-203.061
-152.268
-112.355
-82.672
-60.611
-43.996
-31.857
-23.753
-19.881
-19.766
-22.182
-25.709
-29.191
-32.347
-34.991
-36.702
-36.452
-32.856
-25.426
-14.908
-4.004
4.015
7.133
4.469
-1.703
-7.393
-10.056
-7.435
-0.149
8.082
15.132
19.013
19.158
18.414
18.436
20.217
24.646
30.363
36.361
42.395
47.862
52.852
57.554
61.775
65.501
68.755
71.501
73.794
75.729
77.368
78.774
80.022
81.164
82.229
83.264
84.32
85.446
86.703
88.138
89.773
91.631
93.726
96.065
98.653
101.49
104.564
107.87
111.399
115.146
119.107
123.27
127.625
132.155
136.844
141.676
146.635
151.705
156.869
162.107
167.4
172.731
178.079
183.424
188.741
194.006
199.193
204.278
209.234
214.035
218.656
223.072
227.259
231.193
234.852
238.215
241.263
243.975
246.335
248.326
249.933
251.144
251.946
252.331
252.291
251.818
250.91
249.564
247.78
245.56
242.906
239.826
236.326
232.416
228.107
223.412
218.347
212.928
207.172
201.101
194.734
188.094
181.205
174.091
166.776
159.287
151.648
143.888
136.031
128.105
120.137
112.153
104.178
96.24
88.362
80.57
72.887
65.335
57.937
50.713
43.683
36.865
30.275
23.928
17.84
12.022
6.484
1.237
-3.714
-8.361
-12.702
-16.733
-20.453
-23.864
-26.967
-29.767
-32.268
-34.476
-36.399
-38.046
-39.426
-40.55
-41.428
-42.074
-42.499
-42.717
-42.741
-42.586
-42.265
-41.792
-41.182
-40.45
-39.608
-38.671
-37.653
-36.567
-35.425
-34.24
-33.024
-31.789
-30.544
-29.3
-28.066
-26.851
-25.662
-24.507
-23.391
-22.321
-21.301
-20.336
-19.428
-18.581
-17.797
-17.076
-16.421
-15.831
-15.306
-14.845
-14.448
-14.112
-13.836
-13.619
-13.456
-13.346
-13.286
-13.272
-13.301
-13.369
-13.474
-13.611
-13.776
-13.965
-14.175
-14.402
-14.641
-14.89
-15.145
-15.402
-15.658
-15.91
-16.155
-16.39
-16.612
-16.82
-17.011
-17.182
-17.333
-17.461
-17.565
-17.645
-17.7
-17.728
-17.73
-17.705
-17.653
-17.574
-17.469
-17.338
-17.182
-17.003
-16.802
-16.58
-16.341
-16.086
-15.818
-15.54
-15.254
-14.964
-14.671
-14.378
-14.089
-13.806
-13.532
-13.27
-13.024
-12.796
-12.589
-12.407
-12.252
-12.126
-12.032
-11.972
-11.947
-11.96
-12.011
-12.103
-12.236
-12.411
-12.629
-12.888
-13.189
-13.53
-13.909
-14.324
-14.771
-15.247
-15.748
-16.267
-16.802
-17.348
-17.901
-18.458
-19.013
-19.564
-20.107
-20.636
-21.147
-21.632
-22.084
-22.495
-22.856
-23.16
-23.403
-23.578
-23.68
-23.704
-23.651
-23.516
-23.297
-22.989
-22.584
-22.077
-21.469
-20.766
-19.978
-19.122
-18.211
-17.261
-16.291
-15.316
-14.346
-13.386
-12.426
-11.457
-10.477
-9.494
-8.525
-7.586
-6.678
-5.795
-4.929
-4.06
-3.175
-2.255
-1.268
-0.191
0.98
2.236
3.537
4.84
6.12
7.369
8.596
9.81
10.998
12.141
13.221
14.206
15.073
15.791
16.306
16.576
16.58
16.314
15.812
15.12
14.253
13.214
11.987
10.542
8.879
7.016
4.937
2.627
0.046
-2.88
-6.18
-9.859
-13.931
-18.397
-23.211
-28.271
-33.379
-38.237
-42.558
-46.082
-48.613
-50.046
-50.397
-49.796
-48.448
-46.647
-44.707
-42.975
-41.774
-41.325
-41.693
-42.872
-44.862
-47.601
-51.006
-54.604
-57.4
-58.348
-56.328
-50.696
-41.775
-30.001
-15.828
0.79
21.337
47.899
82.769
127.88
183.121
245.82
310.132
366.463
403.597
411.293
383.188
320.487
231.009
125.796
15.566
-94.654
-205.605
-319.792
-438.081
-555.228
-660.097
-740.389
-787.174
-798.63
-779.858
-739.764
-686.815
-626.595
-562.137
-494.777
-426.376
-359.367
-295.846
-237.545
-184.894
-138.179
-98.185
-65.654
-41.5
-25.738
-17.361
-14.984
-16.752
-21.026
-26.488
-31.891
-36.626
-40.541
-43.095
-43.654
-41.551
-35.688
-26.574
-16.251
-6.572
0.12
2.903
3.112
2.325
2.16
4.072
8.203
13.006
17.225
19.349
17.692
13.945
10.45
9.144
12.79
20.622
29.953
39.047
45.701
49.658
52.494
54.939
57.588
60.623
63.424
65.783
67.801
69.502
71.027
72.456
73.755
74.933
76.042
77.121
78.209
79.367
80.65
82.101
83.759
85.647
87.769
90.132
92.74
95.587
98.663
101.957
105.459
109.157
113.046
117.113
121.341
125.715
130.215
134.823
139.524
144.298
149.126
153.991
158.871
163.747
168.602
173.414
178.161
182.821
187.37
191.785
196.044
200.123
204.002
207.658
211.071
214.222
217.094
219.669
221.931
223.867
225.464
226.709
227.593
228.107
228.245
228.001
227.37
226.351
224.944
223.149
220.969
218.408
215.473
212.171
208.511
204.504
200.162
195.498
190.527
185.264
179.728
173.936
167.906
161.661
155.219
148.603
141.833
134.933
127.924
120.829
113.67
106.469
99.249
92.032
84.838
77.69
70.608
63.612
56.721
49.953
43.327
36.858
30.563
24.455
18.549
12.856
7.387
2.152
-2.841
-7.585
-12.074
-16.303
-20.271
-23.974
-27.413
-30.589
-33.502
-36.157
-38.557
-40.708
-42.615
-44.286
-45.728
-46.949
-47.959
-48.766
-49.382
-49.817
-50.081
-50.185
-50.141
-49.959
-49.652
-49.231
-48.707
-48.091
-47.393
-46.626
-45.798
-44.92
-44.002
-43.053
-42.081
-41.095
-40.103
-39.111
-38.127
-37.158
-36.207
-35.282
-34.386
-33.525
-32.7
-31.917
-31.178
-30.485
-29.84
-29.245
-28.702
-28.211
-27.774
-27.39
-27.059
-26.783
-26.559
-26.387
-26.268
-26.198
-26.179
-26.207
-26.283
-26.403
-26.567
-26.773
-27.019
-27.302
-27.621
-27.974
-28.358
-28.771
-29.211
-29.676
-30.162
-30.668
-31.19
-31.727
-32.275
-32.832
-33.395
-33.962
-34.529
-35.093
-35.653
-36.206
-36.748
-37.278
-37.793
-38.29
-38.768
-39.224
-39.656
-40.063
-40.442
-40.792
-41.112
-41.4
-41.655
-41.877
-42.064
-42.217
-42.334
-42.416
-42.463
-42.475
-42.454
-42.399
-42.313
-42.196
-42.051
-41.88
-41.683
-41.465
-41.227
-40.973
-40.704
-40.424
-40.135
-39.842
-39.546
-39.252
-38.962
-38.679
-38.408
-38.151
-37.91
-37.689
-37.492
-37.319
-37.175
-37.061
-36.98
-36.934
-36.924
-36.952
-37.019
-37.126
-37.272
-37.458
-37.683
-37.945
-38.242
-38.573
-38.935
-39.324
-39.738
-40.173
-40.625
-41.088
-41.56
-42.033
-42.504
-42.967
-43.414
-43.842
-44.242
-44.61
-44.939
-45.222
-45.453
-45.627
-45.736
-45.774
-45.737
-45.617
-45.41
-45.11
-44.714
-44.218
-43.619
-42.915
-42.106
-41.193
-40.176
-39.06
-37.847
-36.541
-35.148
-33.672
-32.12
-30.498
-28.812
-27.072
-25.287
-23.469
-21.627
-19.775
-17.922
-16.083
-14.266
-12.484
-10.745
-9.06
-7.434
-5.879
-4.404
-3.016
-1.728
-0.546
0.533
1.506
2.377
3.152
3.839
4.451
5.008
5.523
6.008
6.47
6.912
7.345
7.782
8.232
8.707
9.202
9.704
10.214
10.727
11.238
11.737
12.181
12.513
12.707
12.718
12.49
11.962
11.001
9.489
7.4
4.701
1.4
-2.399
-6.615
-11.11
-15.574
-19.739
-23.429
-26.452
-28.758
-30.442
-31.49
-31.972
-32.148
-32.221
-32.386
-32.868
-33.709
-34.818
-36.303
-38.265
-40.646
-43.432
-46.23
-48.088
-48.044
-45.14
-38.915
-30.031
-19.498
-7.843
5.975
24.75
52.19
91.182
141.533
200.654
263.383
322.868
372.779
405.515
413.977
393.215
340.68
259.992
158.87
46.241
-69.997
-187.415
-306.718
-428.062
-548.316
-658.284
-745.631
-800.299
-818.414
-803.39
-764.436
-711.677
-651.726
-588.05
-521.242
-451.158
-380.29
-312.325
-250.74
-198.474
-155.808
-121.096
-93.174
-70.97
-54.046
-42.946
-37.262
-35.663
-36.728
-38.818
-40.63
-41.902
-42.971
-43.571
-43.242
-41.501
-36.919
-29.265
-20.435
-12.394
-7.902
-9.279
-14.928
-21.497
-25.864
-24.534
-17.667
-9.172
-1.822
1.603
0.204
-2.771
-5.122
-5.441
-2.609
1.821
6.694
11.747
16.365
20.752
25.078
29.045
32.596
35.7
38.306
40.485
42.304
43.8
45.036
46.1
47.054
47.938
48.789
49.638
50.523
51.499
52.619
53.93
55.463
57.239
59.272
61.572
64.143
66.986
70.093
73.451
77.048
80.874
84.92
89.175
93.626
98.256
103.045
107.974
113.022
118.172
123.403
128.695
134.024
139.371
144.713
150.028
155.295
160.488
165.583
170.555
175.377
180.027
184.481
188.714
192.704
196.431
199.873
203.012
205.832
208.315
210.446
212.214
213.606
214.612
215.224
215.435
215.241
214.638
213.626
212.206
210.379
208.15
205.526
202.514
199.125
195.369
191.26
186.811
182.039
176.961
171.595
165.96
160.077
153.968
147.654
141.159
134.505
127.717
120.817
113.829
106.779
99.688
92.582
85.483
78.414
71.397
64.454
57.606
50.873
44.274
37.827
31.549
25.456
19.563
13.882
8.426
3.205
-1.771
-6.495
-10.961
-15.163
-19.098
-22.764
-26.161
-29.288
-32.147
-34.741
-37.075
-39.153
-40.981
-42.568
-43.92
-45.046
-45.956
-46.66
-47.168
-47.491
-47.64
-47.628
-47.464
-47.162
-46.733
-46.189
-45.54
-44.798
-43.975
-43.08
-42.123
-41.115
-40.064
-38.98
-37.869
-36.741
-35.601
-34.457
-33.314
-32.177
-31.052
-29.942
-28.851
-27.782
-26.738
-25.72
-24.731
-23.771
-22.842
-21.943
-21.076
-20.239
-19.432
-18.654
-17.906
-17.186
-16.493
-15.825
-15.183
-14.565
-13.97
-13.397
-12.846
-12.315
-11.805
-11.315
-10.845
-10.395
-9.964
-9.554
-9.163
-8.792
-8.442
-8.114
-7.807
-7.522
-7.261
-7.024
-6.812
-6.626
-6.466
-6.334
-6.23
-6.154
-6.109
-6.093
-6.107
-6.152
-6.227
-6.334
-6.47
-6.637
-6.834
-7.058
-7.311
-7.589
-7.891
-8.216
-8.562
-8.925
-9.305
-9.699
-10.104
-10.517
-10.936
-11.358
-11.781
-12.2
-12.614
-13.019
-13.413
-13.792
-14.155
-14.499
-14.822
-15.122
-15.398
-15.647
-15.868
-16.06
-16.222
-16.353
-16.453
-16.522
-16.559
-16.565
-16.541
-16.489
-16.409
-16.304
-16.176
-16.027
-15.859
-15.676
-15.479
-15.273
-15.058
-14.84
-14.622
-14.406
-14.195
-13.994
-13.803
-13.627
-13.466
-13.323
-13.198
-13.092
-13.006
-12.94
-12.894
-12.865
-12.855
-12.862
-12.887
-12.926
-12.978
-13.041
-13.112
-13.19
-13.27
-13.346
-13.414
-13.467
-13.501
-13.511
-13.491
-13.437
-13.343
-13.203
-13.013
-12.772
-12.476
-12.117
-11.688
-11.182
-10.598
-9.946
-9.233
-8.461
-7.637
-6.766
-5.858
-4.929
-3.985
-3.02
-2.032
-1.013
0.031
1.083
2.128
3.151
4.146
5.121
6.077
7.004
7.901
8.773
9.63
10.495
11.363
12.197
12.962
13.631
14.19
14.649
15.012
15.278
15.445
15.504
15.464
15.345
15.146
14.853
14.448
13.896
13.204
12.417
11.57
10.691
9.799
8.893
7.989
7.102
6.221
5.331
4.4
3.372
2.201
0.829
-0.836
-2.823
-5.134
-7.794
-10.812
-14.158
-17.796
-21.59
-25.318
-28.885
-32.291
-35.544
-38.649
-41.553
-44.16
-46.49
-48.662
-50.669
-52.386
-53.633
-54.275
-54.43
-54.317
-54.099
-53.959
-54.072
-54.614
-55.859
-57.531
-58.431
-57.301
-52.871
-44.737
-34.204
-22.288
-8.862
7.784
31.231
64.834
109.571
163.523
222.778
281.506
333.557
373.157
393.145
387.452
352.368
287.264
197.187
89.978
-26.811
-147.629
-270.824
-395.724
-518.841
-632.844
-726.664
-789.649
-817.006
-810.374
-777.522
-728.833
-671.445
-609.507
-544.311
-475.409
-404.878
-336.164
-272.456
-216.907
-170.2
-130.911
-98.11
-70.932
-49.106
-33.44
-23.784
-19.126
-18.193
-19.294
-21.151
-23.123
-24.725
-25.506
-25.115
-23.299
-20.104
-15.863
-10.98
-5.814
-0.692
4.001
7.87
10.564
12.0
12.384
11.997
11.14
10.105
9.174
8.694
9.03
10.36
12.672
15.862
19.758
24.189
29.002
33.986
38.897
43.551
47.826
51.662
55.064
58.042
60.605
62.787
64.633
66.194
67.528
68.686
69.707
70.633
71.509
72.383
73.313
74.349
75.542
76.93
78.535
80.374
82.458
84.79
87.371
90.194
93.245
96.513
99.986
103.655
107.512
111.543
115.731
120.06
124.511
129.069
133.717
138.438
143.213
148.026
152.856
157.687
162.501
167.28
172.002
176.645
181.189
185.61
189.889
194.004
197.933
201.657
205.156
208.413
211.41
214.131
216.562
218.689
220.498
221.979
223.121
223.916
224.357
224.436
224.149
223.493
222.467
221.071
219.305
217.172
214.677
211.827
208.628
205.089
201.222
197.037
192.548
187.769
182.717
177.407
171.858
166.088
160.117
153.964
147.651
141.198
134.627
127.959
121.215
114.418
107.59
100.75
93.922
87.125
80.381
73.709
67.129
60.659
54.318
48.123
42.089
36.232
30.565
25.102
19.853
14.83
10.04
5.492
1.192
-2.856
-6.647
-10.181
-13.455
-16.471
-19.23
-21.735
-23.99
-25.999
-27.768
-29.303
-30.614
-31.706
-32.59
-33.275
-33.77
-34.086
-34.234
-34.224
-34.068
-33.776
-33.361
-32.833
-32.205
-31.486
-30.688
-29.821
-28.896
-27.923
-26.911
-25.87
-24.807
-23.731
-22.649
-21.569
-20.496
-19.436
-18.396
-17.379
-16.389
-15.432
-14.51
-13.625
-12.781
-11.979
-11.221
-10.509
-9.842
-9.223
-8.651
-8.126
-7.648
-7.217
-6.832
-6.492
-6.196
-5.943
-5.732
-5.561
-5.428
-5.332
-5.272
-5.244
-5.248
-5.283
-5.345
-5.434
-5.548
-5.685
-5.843
-6.021
-6.217
-6.43
-6.659
-6.901
-7.156
-7.422
-7.697
-7.982
-8.274
-8.573
-8.876
-9.184
-9.496
-9.809
-10.124
-10.439
-10.754
-11.07
-11.384
-11.698
-12.011
-12.323
-12.634
-12.944
-13.254
-13.562
-13.869
-14.176
-14.482
-14.789
-15.095
-15.402
-15.709
-16.017
-16.326
-16.636
-16.947
-17.258
-17.57
-17.883
-18.197
-18.511
-18.827
-19.145
-19.465
-19.787
-20.112
-20.439
-20.769
-21.102
-21.437
-21.773
-22.111
-22.45
-22.79
-23.131
-23.473
-23.815
-24.158
-24.502
-24.847
-25.193
-25.54
-25.888
-26.237
-26.588
-26.941
-27.298
-27.658
-28.024
-28.394
-28.77
-29.151
-29.536
-29.926
-30.317
-30.709
-31.1
-31.488
-31.869
-32.244
-32.609
-32.965
-33.311
-33.644
-33.965
-34.272
-34.564
-34.838
-35.09
-35.315
-35.507
-35.661
-35.772
-35.837
-35.851
-35.81
-35.709
-35.547
-35.323
-35.031
-34.667
-34.219
-33.682
-33.055
-32.345
-31.561
-30.717
-29.827
-28.903
-27.966
-27.03
-26.102
-25.181
-24.256
-23.312
-22.346
-21.363
-20.377
-19.403
-18.441
-17.485
-16.53
-15.556
-14.548
-13.483
-12.323
-11.044
-9.649
-8.157
-6.613
-5.072
-3.57
-2.126
-0.749
0.559
1.787
2.926
3.973
4.906
5.702
6.323
6.711
6.825
6.658
6.226
5.57
4.752
3.818
2.809
1.748
0.639
-0.529
-1.778
-3.126
-4.591
-6.215
-8.053
-10.141
-12.486
-15.058
-17.827
-20.844
-24.151
-27.713
-31.416
-35.117
-38.741
-42.348
-45.998
-49.571
-52.907
-55.911
-58.559
-60.885
-62.831
-64.151
-64.604
-64.299
-63.494
-62.423
-61.363
-60.548
-60.192
-60.679
-62.096
-63.656
-64.189
-62.41
-57.464
-49.603
-39.631
-27.984
-13.665
5.713
33.572
72.775
123.171
182.318
245.064
304.445
354.332
387.583
397.593
379.535
330.158
251.992
151.787
38.139
-80.453
-200.759
-322.93
-447.078
-570.454
-683.999
-775.055
-832.877
-852.797
-837.621
-796.423
-739.51
-674.085
-605.065
-534.279
-462.542
-392.513
-325.946
-264.486
-209.712
-161.325
-119.629
-85.277
-58.319
-39.123
-27.278
-21.479
-20.195
-21.721
-24.606
-27.751
-30.568
-32.757
-33.89
-33.733
-32.266
-29.5
-25.766
-21.562
-17.079
-12.476
-8.089
-4.116
-0.759
1.749
3.5
4.748
5.622
6.29
6.996
7.913
9.284
11.39
14.273
17.843
21.998
26.568
31.38
36.293
41.102
45.573
49.585
53.086
56.072
58.595
60.691
62.387
63.737
64.813
65.677
66.389
66.997
67.536
68.054
68.606
69.25
70.044
71.031
72.235
73.678
75.371
77.32
79.531
82.0
84.717
87.673
90.861
94.274
97.905
101.744
105.776
109.984
114.352
118.86
123.493
128.233
133.062
137.96
142.908
147.886
152.877
157.857
162.805
167.697
172.508
177.214
181.792
186.218
190.469
194.521
198.354
201.948
205.282
208.338
211.101
213.552
215.679
217.468
218.906
219.984
220.694
221.027
220.979
220.547
219.727
218.521
216.929
214.954
212.603
209.881
206.797
203.36
199.582
195.475
191.054
186.334
181.331
176.062
170.547
164.805
158.856
152.72
146.42
139.975
133.408
126.742
119.997
113.197
106.363
99.517
92.68
85.874
79.119
72.434
65.841
59.356
52.998
46.784
40.728
34.846
29.151
23.656
18.37
13.305
8.469
3.868
-0.491
-4.603
-8.466
-12.078
-15.436
-18.543
-21.399
-24.007
-26.37
-28.494
-30.384
-32.046
-33.488
-34.719
-35.747
-36.581
-37.232
-37.71
-38.025
-38.19
-38.216
-38.113
-37.895
-37.571
-37.155
-36.657
-36.088
-35.459
-34.782
-34.065
-33.319
-32.553
-31.776
-30.996
-30.222
-29.46
-28.717
-27.999
-27.313
-26.662
-26.052
-25.486
-24.967
-24.499
-24.083
-23.72
-23.413
-23.161
-22.965
-22.824
-22.738
-22.704
-22.723
-22.792
-22.908
-23.07
-23.275
-23.52
-23.803
-24.12
-24.469
-24.846
-25.248
-25.673
-26.117
-26.577
-27.05
-27.533
-28.024
-28.519
-29.016
-29.512
-30.005
-30.493
-30.973
-31.444
-31.904
-32.352
-32.785
-33.203
-33.605
-33.99
-34.357
-34.706
-35.037
-35.349
-35.643
-35.919
-36.178
-36.419
-36.644
-36.854
-37.048
-37.229
-37.396
-37.552
-37.696
-37.831
-37.956
-38.075
-38.187
-38.294
-38.398
-38.499
-38.599
-38.699
-38.801
-38.905
-39.014
-39.128
-39.248
-39.376
-39.513
-39.66
-39.818
-39.988
-40.172
-40.368
-40.579
-40.805
-41.045
-41.301
-41.573
-41.86
-42.163
-42.482
-42.817
-43.167
-43.532
-43.912
-44.307
-44.714
-45.135
-45.567
-46.011
-46.464
-46.926
-47.396
-47.871
-48.349
-48.829
-49.308
-49.783
-50.251
-50.709
-51.154
-51.581
-51.988
-52.371
-52.727
-53.05
-53.339
-53.588
-53.794
-53.953
-54.061
-54.115
-54.11
-54.043
-53.91
-53.708
-53.435
-53.086
-52.66
-52.152
-51.562
-50.887
-50.126
-49.276
-48.338
-47.311
-46.196
-44.994
-43.708
-42.341
-40.899
-39.386
-37.808
-36.173
-34.488
-32.761
-30.999
-29.212
-27.407
-25.594
-23.783
-21.985
-20.212
-18.476
-16.787
-15.159
-13.602
-12.128
-10.746
-9.465
-8.293
-7.235
-6.298
-5.49
-4.819
-4.293
-3.915
-3.68
-3.585
-3.623
-3.785
-4.06
-4.429
-4.869
-5.361
-5.89
-6.447
-7.026
-7.616
-8.196
-8.75
-9.26
-9.72
-10.143
-10.534
-10.89
-11.218
-11.517
-11.818
-12.186
-12.662
-13.261
-14.016
-14.952
-16.146
-17.743
-19.819
-22.387
-25.441
-28.932
-32.796
-37.012
-41.417
-45.695
-49.617
-52.979
-55.642
-57.632
-58.914
-59.361
-59.019
-58.118
-56.833
-55.443
-54.219
-53.209
-52.585
-52.71
-53.756
-55.72
-58.598
-61.729
-63.834
-63.802
-60.232
-52.399
-41.228
-27.506
-11.768
6.54
30.437
63.169
107.187
162.98
227.16
293.417
352.929
395.329
411.663
395.843
346.58
268.788
170.881
62.257
-49.807
-163.173
-278.643
-396.922
-515.151
-624.884
-714.845
-774.8
-800.555
-794.716
-764.191
-717.67
-660.652
-596.242
-526.964
-454.674
-383.333
-316.58
-256.138
-203.112
-156.696
-116.272
-82.406
-55.439
-35.921
-23.777
-17.873
-16.588
-18.089
-20.849
-23.61
-25.877
-27.828
-29.226
-29.599
-28.061
-23.031
-13.824
-1.709
10.467
18.84
20.078
13.907
3.863
-4.848
-7.37
-1.393
10.297
22.389
30.529
31.891
27.917
22.937
19.902
20.834
25.59
31.887
38.412
44.422
49.588
54.396
58.966
63.129
66.862
70.094
72.817
75.14
77.14
78.87
80.408
81.825
83.163
84.454
85.726
87.013
88.359
89.824
91.456
93.286
95.337
97.623
100.15
102.926
105.95
109.215
112.705
116.41
120.319
124.422
128.71
133.17
137.785
142.537
147.407
152.377
157.429
162.544
167.703
172.886
178.071
183.241
188.374
193.451
198.448
203.341
208.108
212.725
217.169
221.419
225.45
229.243
232.777
236.033
238.993
241.641
243.962
245.941
247.565
248.824
249.707
250.206
250.314
250.026
249.339
248.25
246.761
244.872
242.587
239.912
236.852
233.418
229.618
225.465
220.972
216.153
211.024
205.602
199.906
193.955
187.769
181.37
174.78
168.021
161.116
154.089
146.962
139.76
132.505
125.221
117.932
110.661
103.429
96.26
89.174
82.193
75.336
68.621
62.068
55.692
49.51
43.534
37.78
32.257
26.976
21.946
17.175
12.667
8.428
4.461
0.766
-2.655
-5.805
-8.686
-11.302
-13.658
-15.759
-17.614
-19.23
-20.617
-21.784
-22.742
-23.502
-24.076
-24.476
-24.715
-24.806
-24.761
-24.595
-24.32
-23.949
-23.496
-22.972
-22.39
-21.763
-21.101
-20.417
-19.719
-19.019
-18.326
-17.647
-16.992
-16.368
-15.781
-15.238
-14.743
-14.302
-13.917
-13.594
-13.333
-13.138
-13.01
-12.949
-12.957
-13.032
-13.175
-13.385
-13.659
-13.995
-14.393
-14.848
-15.359
-15.922
-16.534
-17.191
-17.89
-18.627
-19.399
-20.2
-21.029
-21.879
-22.748
-23.632
-24.527
-25.428
-26.333
-27.237
-28.136
-29.028
-29.909
-30.775
-31.623
-32.451
-33.254
-34.031
-34.778
-35.492
-36.173
-36.817
-37.422
-37.987
-38.511
-38.991
-39.428
-39.82
-40.166
-40.467
-40.723
-40.933
-41.099
-41.22
-41.299
-41.336
-41.333
-41.292
-41.214
-41.103
-40.961
-40.789
-40.592
-40.372
-40.132
-39.876
-39.608
-39.33
-39.048
-38.765
-38.484
-38.211
-37.948
-37.701
-37.472
-37.266
-37.086
-36.935
-36.817
-36.734
-36.69
-36.686
-36.724
-36.806
-36.934
-37.106
-37.324
-37.587
-37.894
-38.242
-38.631
-39.057
-39.518
-40.01
-40.53
-41.073
-41.636
-42.212
-42.797
-43.384
-43.968
-44.542
-45.099
-45.632
-46.134
-46.6
-47.02
-47.39
-47.701
-47.946
-48.121
-48.217
-48.23
-48.153
-47.981
-47.711
-47.339
-46.863
-46.281
-45.593
-44.801
-43.906
-42.912
-41.822
-40.642
-39.375
-38.028
-36.608
-35.122
-33.577
-31.982
-30.349
-28.69
-27.017
-25.343
-23.681
-22.042
-20.44
-18.886
-17.392
-15.965
-14.614
-13.35
-12.18
-11.117
-10.17
-9.346
-8.642
-8.056
-7.583
-7.214
-6.941
-6.749
-6.614
-6.523
-6.462
-6.424
-6.407
-6.401
-6.392
-6.369
-6.318
-6.242
-6.149
-6.045
-5.932
-5.821
-5.72
-5.664
-5.7
-5.853
-6.165
-6.691
-7.487
-8.657
-10.297
-12.457
-15.18
-18.493
-22.305
-26.473
-30.825
-35.089
-39.026
-42.445
-45.118
-46.872
-47.728
-47.808
-47.252
-46.309
-45.169
-43.973
-42.991
-42.518
-42.653
-43.39
-44.792
-46.803
-49.375
-52.525
-55.669
-57.515
-56.77
-52.075
-42.876
-30.466
-16.281
-1.196
15.494
37.452
68.984
113.203
170.437
236.519
304.257
364.607
407.76
425.677
412.652
366.81
291.986
195.444
86.303
-27.33
-142.328
-258.506
-376.42
-494.426
-605.158
-698.406
-764.193
-796.531
-796.508
-769.611
-723.907
-666.663
-602.05
-533.355
-462.529
-391.784
-324.597
-262.955
-208.459
-161.824
-121.902
-88.421
-61.265
-40.067
-25.344
-16.758
-12.987
-12.657
-14.182
-16.113
-17.876
-19.645
-20.987
-21.17
-19.455
-14.225
-5.249
5.376
15.24
21.176
20.873
15.732
8.966
4.23
5.068
11.938
21.861
31.191
36.648
36.511
32.695
28.496
26.248
27.707
32.456
38.577
45.012
50.961
56.116
60.913
65.406
69.459
73.075
76.172
78.742
80.898
82.717
84.247
85.571
86.755
87.838
88.856
89.843
90.833
91.875
93.032
94.356
95.886
97.646
99.655
101.924
104.461
107.269
110.341
113.663
117.226
121.019
125.033
129.261
133.689
138.301
143.079
148.003
153.054
158.214
163.464
168.782
174.149
179.542
184.94
190.322
195.666
200.947
206.138
211.215
216.152
220.923
225.504
229.869
233.995
237.86
241.442
244.722
247.68
250.301
252.567
254.466
255.985
257.112
257.839
258.158
258.064
257.553
256.624
255.275
253.51
251.332
248.747
245.762
242.387
238.633
234.514
230.042
225.235
220.109
214.685
208.981
203.019
196.821
190.41
183.811
177.047
170.143
163.124
156.015
148.839
141.623
134.389
127.162
119.966
112.823
105.755
98.784
91.931
85.214
78.652
72.262
66.061
60.063
54.282
48.729
43.416
38.351
33.542
28.995
24.716
20.706
16.968
13.503
10.309
7.383
4.722
2.321
0.175
-1.724
-3.384
-4.812
-6.019
-7.014
-7.809
-8.412
-8.837
-9.095
-9.196
-9.154
-8.98
-8.686
-8.284
-7.785
-7.2
-6.541
-5.818
-5.041
-4.219
-3.363
-2.48
-1.58
-0.669
0.246
1.159
2.063
2.954
3.827
4.679
5.506
6.305
7.074
7.812
8.516
9.186
9.822
10.422
10.988
11.518
12.014
12.476
12.905
13.302
13.668
14.003
14.31
14.589
14.841
15.067
15.269
15.447
15.602
15.735
15.847
15.939
16.01
16.062
16.095
16.108
16.103
16.078
16.035
15.973
15.892
15.792
15.673
15.535
15.377
15.201
15.006
14.792
14.56
14.309
14.041
13.755
13.452
13.133
12.798
12.448
12.084
11.707
11.318
10.919
10.51
10.094
9.672
9.245
8.815
8.384
7.953
7.525
7.101
6.684
6.275
5.876
5.488
5.115
4.756
4.414
4.089
3.783
3.495
3.228
2.98
2.752
2.545
2.358
2.192
2.045
1.918
1.81
1.721
1.648
1.59
1.547
1.515
1.494
1.481
1.473
1.469
1.467
1.463
1.455
1.441
1.417
1.382
1.333
1.267
1.183
1.079
0.955
0.809
0.642
0.454
0.245
0.016
-0.229
-0.491
-0.766
-1.054
-1.354
-1.664
-1.98
-2.302
-2.628
-2.954
-3.276
-3.588
-3.884
-4.156
-4.399
-4.606
-4.773
-4.894
-4.962
-4.974
-4.929
-4.821
-4.648
-4.403
-4.074
-3.658
-3.158
-2.58
-1.938
-1.242
-0.5
0.274
1.061
1.852
2.64
3.428
4.232
5.058
5.901
6.751
7.585
8.39
9.169
9.925
10.667
11.411
12.16
12.936
13.771
14.671
15.629
16.619
17.584
18.491
19.326
20.084
20.779
21.425
22.013
22.538
22.993
23.353
23.6
23.7
23.597
23.279
22.752
22.038
21.193
20.246
19.196
18.049
16.789
15.384
13.808
12.022
9.989
7.724
5.224
2.476
-0.551
-3.976
-7.873
-12.245
-17.101
-22.428
-28.174
-34.269
-40.486
-46.388
-51.623
-55.961
-59.28
-61.575
-62.792
-62.854
-61.917
-60.387
-58.716
-57.325
-56.42
-56.04
-56.39
-57.663
-59.863
-62.818
-65.789
-67.429
-66.44
-61.486
-51.857
-38.454
-22.526
-5.118
13.974
37.684
69.965
113.981
170.289
235.174
301.432
360.025
401.859
419.441
407.962
365.937
295.624
202.744
94.73
-21.574
-141.969
-265.118
-390.368
-514.528
-630.038
-726.463
-793.576
-825.916
-824.954
-796.78
-750.152
-692.657
-628.522
-560.557
-490.179
-419.066
-350.016
-285.249
-226.856
-175.582
-131.375
-95.207
-68.321
-53.726
-53.763
-65.571
-80.716
-83.805
-56.873
11.337
120.334
