-30.276
-27.706
-25.179
-22.703
-20.287
-17.939
-15.666
-13.474
-11.368
-9.352
-7.429
-5.601
-3.872
-2.241
-0.709
0.724
2.059
3.295
4.436
5.484
6.44
7.307
8.09
8.791
9.414
9.963
10.443
10.858
11.212
11.511
11.758
11.959
12.117
12.238
12.324
12.381
12.412
12.42
12.41
12.384
12.345
12.295
12.236
12.171
12.102
12.029
11.955
11.882
11.81
11.74
11.676
11.616
11.564
11.52
11.485
11.46
11.446
11.444
11.455
11.477
11.513
11.562
11.624
11.7
11.788
11.889
12.002
12.127
12.262
12.408
12.564
12.728
12.898
13.075
13.257
13.443
13.63
13.818
14.006
14.192
14.374
14.552
14.722
14.884
15.037
15.177
15.305
15.419
15.517
15.599
15.665
15.715
15.751
15.771
15.778
15.77
15.749
15.716
15.671
15.616
15.554
15.487
15.418
15.353
15.295
15.249
15.218
15.205
15.213
15.246
15.31
15.412
15.557
15.753
16.005
16.32
16.702
17.155
17.68
18.275
18.938
19.667
20.46
21.317
22.238
23.217
24.243
25.297
26.361
27.424
28.479
29.524
30.558
31.568
32.55
33.521
34.473
35.382
36.206
36.852
37.249
37.409
37.36
37.141
36.871
36.664
36.655
37.105
38.196
39.936
42.278
45.067
48.005
50.87
53.431
55.305
56.236
56.165
55.112
53.3
51.111
48.805
46.629
44.929
43.93
43.709
44.26
45.351
46.604
47.754
48.596
48.906
48.529
47.395
45.536
43.172
40.686
38.361
36.32
34.636
33.357
32.492
31.967
31.544
30.789
29.333
27.05
23.982
20.174
15.611
10.353
4.36
-2.208
-8.807
-15.294
-21.283
-26.312
-30.745
-34.353
-37.016
-38.659
-37.995
-34.487
-27.711
-17.389
-3.977
13.707
37.319
69.157
111.524
163.831
224.164
287.79
347.483
396.036
424.399
424.943
393.584
329.606
238.587
129.346
10.076
-113.159
-238.784
-367.311
-496.764
-620.708
-728.588
-808.489
-852.48
-859.856
-835.647
-788.931
-728.719
-660.639
-588.223
-512.894
-435.979
-360.356
-289.081
-225.632
-172.158
-128.711
-94.559
-68.165
-48.993
-37.527
-33.62
-36.257
-42.408
-48.316
-51.676
-51.878
-50.556
-50.007
-50.956
-52.735
-53.635
-51.505
-45.887
-38.419
-31.319
-27.287
-27.968
-32.102
-37.045
-39.878
-37.959
-31.168
-22.004
-13.265
-7.526
-6.084
-7.349
-8.891
-8.928
-6.005
-0.274
6.739
13.882
19.984
23.714
25.12
25.307
25.569
27.989
33.7
41.281
48.662
53.623
54.429
52.097
48.836
46.297
45.921
47.54
49.867
52.27
54.301
55.91
57.598
59.527
61.671
64.057
66.61
69.299
72.18
75.266
78.543
82.016
85.681
89.518
93.509
97.63
101.857
106.168
110.553
114.994
119.475
123.977
128.485
132.981
137.448
141.866
146.213
150.467
154.605
158.606
162.449
166.112
169.574
172.817
175.822
178.573
181.051
183.243
185.135
186.712
187.964
188.88
189.451
189.669
189.529
189.026
188.157
186.919
185.313
183.34
181.003
178.307
175.256
171.859
168.124
164.061
159.681
154.998
150.025
144.777
139.271
133.524
127.554
121.381
115.023
108.502
101.837
95.05
88.163
81.195
74.17
67.109
60.033
52.963
45.921
38.928
32.003
25.167
18.439
11.837
5.381
-0.915
-7.032
-12.956
-18.673
-24.168
-29.431
-34.449
-39.214
-43.716
-47.949
-51.906
-55.583
-58.976
-62.085
-64.907
-67.444
-69.698
-71.672
-73.369
-74.796
-75.958
-76.862
-77.517
-77.932
-78.117
-78.081
-77.836
-77.394
-76.765
-75.964
-75.002
-73.893
-72.649
-71.284
-69.812
-68.246
-66.599
-64.884
-63.115
-61.304
-59.463
-57.605
-55.741
-53.882
-52.039
-50.22
-48.436
-46.694
-45.002
-43.368
-41.797
-40.295
-38.866
-37.515
-36.245
-35.059
-33.958
-32.945
-32.019
-31.181
-30.431
-29.767
-29.188
-28.692
-28.278
-27.941
-27.679
-27.488
-27.364
-27.304
-27.302
-27.353
-27.454
-27.598
-27.782
-27.999
-28.245
-28.514
-28.803
-29.105
-29.417
-29.735
-30.054
-30.371
-30.682
-30.985
-31.276
-31.553
-31.814
-32.058
-32.282
-32.485
-32.666
-32.826
-32.962
-33.077
-33.169
-33.239
-33.288
-33.317
-33.327
-33.32
-33.297
-33.26
-33.211
-33.152
-33.085
-33.012
-32.935
-32.857
-32.779
-32.702
-32.629
-32.561
-32.497
-32.439
-32.387
-32.341
-32.299
-32.262
-32.227
-32.195
-32.163
-32.129
-32.092
-32.047
-31.993
-31.927
-31.845
-31.743
-31.618
-31.465
-31.282
-31.064
-30.807
-30.507
-30.159
-29.76
-29.306
-28.792
-28.214
-27.57
-26.857
-26.072
-25.215
-24.284
-23.279
-22.203
-21.057
-19.844
-18.568
-17.232
-15.842
-14.401
-12.917
-11.396
-9.845
-8.269
-6.677
-5.076
-3.476
-1.885
-0.312
1.237
2.753
4.229
5.655
7.025
8.334
9.579
10.757
11.864
12.893
13.837
14.697
15.475
16.172
16.795
17.349
17.845
18.301
18.737
19.168
19.612
20.071
20.55
21.053
21.581
22.144
22.755
23.414
24.128
24.9
25.708
26.531
27.345
28.074
28.644
28.966
28.902
28.383
27.393
25.905
23.921
21.472
18.573
15.326
11.948
8.547
5.177
1.929
-1.167
-4.032
-6.493
-8.479
-10.071
-11.257
-12.028
-12.478
-12.634
-12.587
-12.632
-13.046
-13.946
-15.51
-17.629
-19.614
-20.635
-19.593
-15.52
-8.366
1.472
13.444
27.517
45.27
69.204
102.268
146.825
202.742
267.346
334.859
396.382
441.679
460.891
446.992
398.32
319.332
218.709
106.308
-10.42
-128.637
-248.553
-369.881
-488.472
-595.578
-679.691
-731.427
-747.711
-731.221
-689.838
-632.908
-567.353
-498.642
-429.889
-362.564
-298.077
-236.797
-178.812
-124.51
-74.797
-31.27
4.463
31.256
49.248
59.598
63.752
63.417
60.032
54.72
48.684
42.756
37.199
32.372
28.815
27.502
30.019
37.057
47.431
58.202
65.44
66.358
60.99
52.57
45.896
44.78
50.661
61.175
71.77
78.824
80.219
77.049
72.824
70.122
70.634
74.302
79.305
84.516
89.298
93.379
97.155
100.698
103.847
106.575
108.817
110.585
111.997
113.127
114.035
114.8
115.488
116.146
116.806
117.497
118.254
119.12
120.148
121.373
122.819
124.501
126.43
128.609
131.041
133.718
136.629
139.762
143.106
146.652
150.389
154.305
158.381
162.602
166.946
171.393
175.924
180.519
185.157
189.817
194.477
199.117
203.716
208.25
212.695
217.027
221.22
225.251
229.094
232.725
236.122
239.262
242.124
244.687
246.934
248.847
250.409
251.607
252.427
252.857
252.887
252.51
251.719
250.508
248.875
246.82
244.342
241.445
238.134
234.414
230.293
225.783
220.894
215.641
210.037
204.1
197.847
191.298
184.473
177.394
170.083
162.564
154.86
146.997
138.998
130.891
122.699
114.449
106.166
97.874
89.6
81.368
73.203
65.127
57.164
49.336
41.665
34.17
26.871
19.786
12.932
6.324
-0.025
-6.101
-11.894
-17.394
-22.594
-27.487
-32.069
-36.337
-40.289
-43.926
-47.248
-50.26
-52.966
-55.37
-57.481
-59.305
-60.852
-62.133
-63.157
-63.938
-64.486
-64.816
-64.941
-64.875
-64.633
-64.23
-63.68
-62.998
-62.2
-61.3
-60.313
-59.254
-58.135
-56.972
-55.776
-54.561
-53.338
-52.117
-50.911
-49.727
-48.574
-47.462
-46.395
-45.382
-44.427
-43.535
-42.71
-41.955
-41.273
-40.665
-40.133
-39.676
-39.296
-38.991
-38.759
-38.6
-38.511
-38.49
-38.534
-38.64
-38.804
-39.024
-39.295
-39.613
-39.975
-40.377
-40.814
-41.285
-41.784
-42.308
-42.855
-43.422
-44.005
-44.604
-45.214
-45.836
-46.466
-47.105
-47.75
-48.401
-49.058
-49.72
-50.388
-51.061
-51.739
-52.424
-53.117
-53.817
-54.526
-55.244
-55.973
-56.714
-57.467
-58.233
-59.014
-59.809
-60.62
-61.447
-62.291
-63.15
-64.025
-64.914
-65.816
-66.729
-67.652
-68.582
-69.514
-70.447
-71.376
-72.298
-73.208
-74.101
-74.973
-75.817
-76.629
-77.403
-78.132
-78.81
-79.43
-79.987
-80.473
-80.883
-81.209
-81.447
-81.589
-81.629
-81.562
-81.383
-81.086
-80.667
-80.122
-79.447
-78.641
-77.702
-76.63
-75.426
-74.092
-72.632
-71.05
-69.35
-67.538
-65.62
-63.605
-61.501
-59.316
-57.06
-54.742
-52.375
-49.969
-47.538
-45.093
-42.646
-40.209
-37.795
-35.414
-33.08
-30.804
-28.592
-26.452
-24.391
-22.417
-20.539
-18.763
-17.091
-15.522
-14.056
-12.69
-11.419
-10.234
-9.116
-8.047
-7.012
-6.001
-5.012
-4.042
-3.093
-2.157
-1.226
-0.291
0.648
1.59
2.535
3.482
4.429
5.332
6.111
6.674
6.919
6.768
6.178
5.108
3.514
1.418
-1.089
-3.885
-6.806
-9.733
-12.611
-15.385
-17.972
-20.356
-22.586
-24.703
-26.76
-28.757
-30.611
-32.267
-33.755
-35.059
-36.147
-37.069
-37.898
-38.803
-39.994
-41.54
-43.373
-45.103
-45.816
-44.378
-39.462
-30.303
-17.471
-1.991
15.052
33.77
56.541
86.731
127.493
179.819
241.08
305.103
362.862
404.481
420.958
406.188
358.771
282.132
183.68
72.231
-45.251
-165.574
-288.494
-413.681
-537.436
-650.962
-742.378
-801.307
-822.795
-808.931
-767.594
-708.592
-640.178
-567.996
-495.045
-422.933
-353.507
-288.636
-229.685
-177.61
-132.464
-93.706
-61.292
-35.242
-15.459
-1.88
6.329
10.521
12.021
12.056
11.532
10.837
9.879
8.833
8.079
8.034
9.778
13.658
18.53
22.98
24.97
23.209
19.133
15.004
13.106
15.099
20.14
26.27
31.702
35.134
36.239
35.422
34.057
33.437
34.946
40.075
47.835
56.441
64.21
68.827
70.558
71.188
71.807
73.871
77.427
81.18
84.566
87.175
88.929
90.387
91.794
93.158
94.551
95.96
97.401
98.982
100.772
102.795
105.079
107.646
110.495
113.622
117.016
120.653
124.513
128.583
132.848
137.293
141.903
146.66
151.543
156.53
161.598
166.722
171.877
177.04
182.185
187.29
192.33
197.282
202.124
206.831
211.378
215.741
219.894
223.813
227.475
230.857
233.939
236.7
239.124
241.194
242.895
244.216
245.144
245.671
245.789
245.492
244.776
243.638
242.078
240.098
237.699
234.888
231.671
228.057
224.055
219.678
214.939
209.854
204.438
198.709
192.687
186.391
179.842
173.063
166.077
158.906
151.575
144.108
136.529
128.863
121.134
113.367
105.586
97.814
90.075
82.391
74.784
67.277
59.89
52.643
45.556
38.646
31.931
25.427
19.149
13.111
7.324
1.799
-3.453
-8.424
-13.108
-17.5
-21.596
-25.393
-28.891
-32.09
-34.992
-37.599
-39.917
-41.951
-43.707
-45.194
-46.419
-47.393
-48.125
-48.628
-48.912
-48.989
-48.874
-48.579
-48.118
-47.504
-46.752
-45.875
-44.889
-43.806
-42.641
-41.407
-40.117
-38.784
-37.421
-36.038
-34.647
-33.257
-31.88
-30.523
-29.196
-27.904
-26.655
-25.454
-24.307
-23.218
-22.19
-21.227
-20.331
-19.502
-18.743
-18.053
-17.432
-16.879
-16.393
-15.972
-15.615
-15.318
-15.078
-14.893
-14.759
-14.673
-14.631
-14.63
-14.665
-14.734
-14.833
-14.959
-15.108
-15.278
-15.465
-15.669
-15.885
-16.114
-16.352
-16.598
-16.853
-17.114
-17.381
-17.653
-17.931
-18.215
-18.504
-18.8
-19.101
-19.41
-19.727
-20.053
-20.389
-20.737
-21.097
-21.471
-21.86
-22.266
-22.689
-23.131
-23.593
-24.076
-24.581
-25.107
-25.657
-26.229
-26.824
-27.442
-28.082
-28.744
-29.426
-30.129
-30.849
-31.586
-32.339
-33.105
-33.884
-34.672
-35.469
-36.271
-37.078
-37.886
-38.693
-39.496
-40.292
-41.078
-41.852
-42.609
-43.346
-44.061
-44.749
-45.409
-46.036
-46.627
-47.179
-47.69
-48.156
-48.575
-48.945
-49.262
-49.524
-49.731
-49.878
-49.967
-49.994
-49.959
-49.861
-49.699
-49.472
-49.18
-48.824
-48.404
-47.918
-47.369
-46.757
-46.084
-45.355
-44.572
-43.739
-42.862
-41.948
-41.002
-40.033
-39.047
-38.05
-37.049
-36.05
-35.064
-34.099
-33.168
-32.28
-31.445
-30.672
-29.97
-29.347
-28.812
-28.369
-28.021
-27.77
-27.614
-27.558
-27.606
-27.759
-28.015
-28.361
-28.779
-29.256
-29.786
-30.366
-30.985
-31.626
-32.252
-32.846
-33.415
-33.955
-34.441
-34.817
-35.009
-34.993
-34.81
-34.523
-34.158
-33.758
-33.393
-33.198
-33.374
-34.048
-35.217
-36.822
-38.827
-41.169
-43.761
-46.465
-49.036
-51.311
-53.263
-54.867
-56.094
-56.986
-57.601
-58.015
-58.395
-58.809
-59.248
-59.818
-60.613
-61.577
-62.627
-63.662
-64.567
-65.39
-66.23
-67.012
-67.66
-68.314
-69.168
-70.415
-72.202
-74.086
-75.022
-73.97
-69.785
-61.962
-51.409
-39.215
-26.157
-11.559
7.814
36.049
76.462
129.569
191.962
257.056
316.23
360.689
382.287
374.821
335.576
265.895
171.726
61.626
-56.493
-177.754
-300.952
-426.055
-550.567
-667.097
-764.295
-831.019
-860.755
-854.287
-819.023
-764.987
-700.874
-632.166
-560.558
-486.159
-410.129
-334.712
-263.622
-201.037
-148.921
-107.572
-76.128
-52.29
-34.929
-23.704
-17.455
-15.613
-16.679
-18.421
-20.228
-21.378
-21.759
-22.035
-21.346
-19.216
-15.337
-8.911
-1.042
6.826
13.698
17.719
18.525
17.535
15.983
16.016
19.595
25.857
32.946
38.762
40.636
38.445
34.635
31.699
32.287
37.771
46.572
56.426
65.531
72.334
77.001
80.663
83.856
87.046
90.313
93.219
95.672
97.762
99.53
101.107
102.572
103.906
105.122
106.275
107.408
108.571
109.832
111.238
112.817
114.603
116.609
118.834
121.281
123.945
126.811
129.869
133.11
136.521
140.098
143.828
147.696
151.687
155.782
159.963
164.215
168.521
172.864
177.225
181.589
185.936
190.252
194.518
198.713
202.817
206.808
210.665
214.369
217.899
221.235
224.357
227.249
229.894
232.277
234.383
236.2
237.715
238.918
239.8
240.351
240.567
240.441
239.97
239.15
237.982
236.466
234.604
232.4
229.858
226.985
223.789
220.278
216.465
212.359
207.973
203.323
198.422
193.286
187.932
182.377
176.64
170.738
164.691
158.518
152.238
145.869
139.432
132.944
126.426
119.896
113.373
106.874
100.417
94.02
87.699
81.47
75.348
69.349
63.484
57.768
52.212
46.827
41.623
36.608
31.791
27.179
22.776
18.589
14.62
10.872
7.347
4.044
0.964
-1.894
-4.534
-6.957
-9.167
-11.17
-12.969
-14.571
-15.982
-17.208
-18.258
-19.138
-19.857
-20.422
-20.844
-21.129
-21.287
-21.327
-21.257
-21.088
-20.826
-20.483
-20.065
-19.583
-19.044
-18.458
-17.831
-17.172
-16.488
-15.788
-15.077
-14.363
-13.652
-12.951
-12.265
-11.6
-10.962
-10.355
-9.784
-9.254
-8.769
-8.333
-7.948
-7.619
-7.347
-7.137
-6.99
-6.907
-6.892
-6.946
-7.069
-7.262
-7.527
-7.863
-8.271
-8.749
-9.297
-9.915
-10.6
-11.351
-12.167
-13.044
-13.98
-14.973
-16.02
-17.116
-18.258
-19.443
-20.666
-21.923
-23.209
-24.519
-25.85
-27.197
-28.554
-29.916
-31.28
-32.64
-33.991
-35.329
-36.65
-37.948
-39.221
-40.463
-41.672
-42.844
-43.976
-45.066
-46.112
-47.111
-48.062
-48.965
-49.818
-50.623
-51.378
-52.085
-52.745
-53.359
-53.93
-54.461
-54.953
-55.411
-55.837
-56.235
-56.609
-56.963
-57.302
-57.628
-57.948
-58.265
-58.583
-58.906
-59.239
-59.584
-59.947
-60.329
-60.734
-61.164
-61.622
-62.108
-62.623
-63.169
-63.745
-64.349
-64.982
-65.639
-66.32
-67.021
-67.738
-68.467
-69.204
-69.943
-70.679
-71.405
-72.116
-72.804
-73.463
-74.086
-74.664
-75.191
-75.66
-76.065
-76.396
-76.648
-76.815
-76.889
-76.866
-76.739
-76.504
-76.157
-75.694
-75.114
-74.415
-73.598
-72.663
-71.613
-70.452
-69.183
-67.814
-66.35
-64.799
-63.171
-61.473
-59.718
-57.916
-56.076
-54.212
-52.333
-50.452
-48.582
-46.733
-44.919
-43.15
-41.438
-39.793
-38.223
-36.733
-35.326
-34.007
-32.78
-31.65
-30.623
-29.699
-28.878
-28.16
-27.542
-27.017
-26.574
-26.188
-25.843
-25.524
-25.224
-24.948
-24.696
-24.46
-24.232
-23.997
-23.742
-23.475
-23.182
-22.833
-22.438
-22.038
-21.712
-21.605
-21.821
-22.4
-23.409
-24.927
-26.95
-29.442
-32.252
-35.111
-37.87
-40.486
-42.888
-45.002
-46.803
-48.295
-49.645
-51.169
-52.97
-55.0
-57.219
-59.617
-62.24
-65.142
-68.234
-71.26
-74.159
-77.072
-80.11
-83.272
-86.391
-88.865
-89.64
-87.71
-81.856
-71.457
-57.32
-40.452
-21.714
-0.666
25.417
59.812
104.935
160.71
223.678
287.695
344.82
386.71
405.376
394.54
351.34
277.231
178.367
63.469
-59.499
-185.798
-314.365
-444.776
-573.363
-691.603
-787.071
-848.456
-870.894
-856.737
-815.12
-757.42
-691.818
-623.323
-552.952
-479.968
-405.512
-331.814
-262.521
-201.339
-149.917
-108.179
-74.956
-49.205
-30.53
-19.331
-15.373
-16.754
-21.031
-25.219
-27.563
-28.316
-28.181
-28.164
-28.151
-27.043
-23.88
-17.776
-9.534
-0.767
7.177
12.4
14.517
14.846
14.54
15.627
19.683
25.547
31.648
36.411
38.024
37.406
36.681
37.139
40.172
45.626
52.062
58.729
64.997
70.541
75.615
80.259
84.379
87.992
91.077
93.643
95.777
97.556
99.039
100.294
101.387
102.36
103.244
104.084
104.928
105.828
106.849
108.034
109.41
110.997
112.81
114.858
117.148
119.678
122.437
125.417
128.612
132.016
135.622
139.422
143.401
147.544
151.834
156.255
160.79
165.424
170.137
174.914
179.734
184.58
189.434
194.274
199.079
203.825
208.49
213.048
217.477
221.754
225.855
229.757
233.44
236.882
240.065
242.971
245.581
247.88
249.853
251.486
252.768
253.689
254.238
254.408
254.195
253.593
252.6
251.215
249.439
247.275
244.726
241.799
238.501
234.842
230.83
226.479
221.801
216.813
211.528
205.966
200.143
194.08
187.796
181.312
174.649
167.829
160.874
153.807
146.649
139.424
132.153
124.859
117.565
110.292
103.061
95.894
88.81
81.828
74.969
68.248
61.683
55.29
49.083
43.075
37.278
31.704
26.361
21.259
16.403
11.799
7.451
3.363
-0.466
-4.035
-7.346
-10.4
-13.202
-15.756
-18.069
-20.146
-21.997
-23.629
-25.052
-26.275
-27.31
-28.167
-28.858
-29.394
-29.788
-30.051
-30.196
-30.233
-30.177
-30.036
-29.825
-29.552
-29.229
-28.867
-28.474
-28.06
-27.634
-27.203
-26.775
-26.356
-25.952
-25.568
-25.21
-24.88
-24.581
-24.317
-24.089
-23.899
-23.746
-23.632
-23.555
-23.514
-23.51
-23.538
-23.599
-23.688
-23.805
-23.946
-24.109
-24.29
-24.488
-24.699
-24.92
-25.149
-25.383
-25.619
-25.856
-26.091
-26.321
-26.546
-26.764
-26.973
-27.173
-27.363
-27.542
-27.711
-27.869
-28.017
-28.155
-28.284
-28.404
-28.517
-28.624
-28.727
-28.826
-28.924
-29.021
-29.12
-29.222
-29.328
-29.44
-29.559
-29.686
-29.822
-29.969
-30.127
-30.299
-30.483
-30.683
-30.899
-31.132
-31.382
-31.649
-31.933
-32.235
-32.554
-32.888
-33.238
-33.603
-33.981
-34.372
-34.776
-35.191
-35.616
-36.051
-36.494
-36.944
-37.4
-37.861
-38.327
-38.796
-39.268
-39.742
-40.219
-40.697
-41.177
-41.655
-42.131
-42.604
-43.07
-43.527
-43.971
-44.398
-44.806
-45.193
-45.557
-45.895
-46.207
-46.492
-46.749
-46.98
-47.182
-47.351
-47.484
-47.576
-47.624
-47.622
-47.566
-47.45
-47.269
-47.018
-46.698
-46.304
-45.833
-45.278
-44.628
-43.878
-43.029
-42.082
-41.041
-39.916
-38.719
-37.469
-36.197
-34.923
-33.662
-32.424
-31.206
-30.011
-28.835
-27.672
-26.522
-25.38
-24.238
-23.1
-21.957
-20.782
-19.579
-18.323
-16.973
-15.519
-13.915
-12.116
-10.156
-8.074
-5.844
-3.484
-0.985
1.69
4.423
7.094
9.699
12.196
14.488
16.498
18.04
18.932
19.248
19.077
18.438
17.41
16.048
14.4
12.641
10.923
9.205
7.437
5.586
3.601
1.485
-0.751
-3.168
-5.847
-8.801
-12.023
-15.538
-19.409
-23.652
-28.222
-32.986
-37.678
-42.085
-46.1
-49.534
-52.124
-53.756
-54.436
-54.352
-53.925
-53.442
-53.003
-52.811
-53.178
-54.335
-56.443
-59.456
-63.062
-67.103
-71.591
-76.354
-81.038
-84.866
-86.502
-84.681
-78.259
-66.829
-51.351
-32.996
-12.857
9.193
35.803
70.076
114.409
169.167
230.542
291.718
344.032
377.762
384.449
358.902
300.339
212.89
104.754
-15.6
-142.328
-272.28
-404.548
-536.562
-660.947
-767.173
-843.917
-883.4
-885.358
-855.967
-804.921
-741.965
-673.396
-601.753
-527.971
-452.965
-378.919
-309.384
-247.367
-194.395
-150.48
-114.576
-85.753
-63.807
-48.848
-40.238
-36.75
-36.376
-36.944
-37.742
-38.391
-38.867
-39.579
-39.93
-39.434
-38.162
-35.779
-32.198
-27.978
-23.501
-19.689
-18.258
-19.259
-21.331
-22.448
-19.398
-11.173
-0.116
10.269
15.847
14.515
8.513
2.073
-0.879
2.226
10.443
20.541
30.114
37.436
42.355
46.282
49.912
53.56
57.332
60.764
63.71
66.302
68.582
70.677
72.684
74.604
76.455
78.275
80.087
81.921
83.829
85.866
88.072
90.48
93.104
95.946
99.007
102.286
105.775
109.458
113.321
117.353
121.541
125.878
130.35
134.941
139.635
144.41
149.251
154.138
159.054
163.981
168.902
173.797
178.65
183.442
188.156
192.77
197.264
201.617
205.807
209.815
213.62
217.203
220.544
223.626
226.432
228.948
231.159
233.052
234.613
235.834
236.703
237.214
237.358
237.131
236.528
235.547
234.185
232.444
230.326
227.833
224.97
221.744
218.162
214.233
209.968
205.379
200.48
195.284
189.807
184.067
178.081
171.87
165.451
158.848
152.08
145.17
138.14
131.013
123.812
116.559
109.278
101.991
94.722
87.492
80.325
73.241
66.263
59.41
52.702
46.159
39.797
33.634
27.687
21.968
16.492
11.27
6.314
1.632
-2.767
-6.879
-10.697
-14.219
-17.443
-20.37
-22.999
-25.335
-27.382
-29.144
-30.629
-31.844
-32.799
-33.504
-33.969
-34.206
-34.229
-34.049
-33.681
-33.14
-32.439
-31.593
-30.618
-29.528
-28.339
-27.065
-25.721
-24.321
-22.879
-21.41
-19.925
-18.438
-16.961
-15.505
-14.08
-12.696
-11.362
-10.087
-8.877
-7.74
-6.679
-5.701
-4.809
-4.005
-3.294
-2.674
-2.149
-1.716
-1.376
-1.128
-0.969
-0.897
-0.909
-1.002
-1.172
-1.415
-1.727
-2.103
-2.538
-3.028
-3.567
-4.151
-4.773
-5.43
-6.115
-6.823
-7.55
-8.29
-9.039
-9.792
-10.545
-11.294
-12.034
-12.763
-13.477
-14.173
-14.849
-15.501
-16.13
-16.732
-17.306
-17.852
-18.369
-18.858
-19.317
-19.747
-20.15
-20.525
-20.875
-21.201
-21.505
-21.788
-22.053
-22.303
-22.54
-22.767
-22.987
-23.203
-23.418
-23.636
-23.86
-24.094
-24.34
-24.603
-24.885
-25.191
-25.522
-25.883
-26.275
-26.702
-27.165
-27.666
-28.207
-28.79
-29.415
-30.083
-30.793
-31.544
-32.337
-33.168
-34.037
-34.939
-35.872
-36.832
-37.814
-38.815
-39.828
-40.849
-41.872
-42.89
-43.897
-44.886
-45.85
-46.781
-47.672
-48.516
-49.304
-50.029
-50.685
-51.263
-51.755
-52.157
-52.46
-52.658
-52.747
-52.721
-52.576
-52.308
-51.915
-51.396
-50.751
-49.98
-49.086
-48.074
-46.947
-45.713
-44.377
-42.948
-41.434
-39.845
-38.191
-36.48
-34.725
-32.937
-31.129
-29.314
-27.506
-25.721
-23.97
-22.27
-20.633
-19.072
-17.601
-16.228
-14.962
-13.812
-12.789
-11.906
-11.172
-10.589
-10.159
-9.88
-9.746
-9.75
-9.878
-10.103
-10.405
-10.762
-11.162
-11.597
-12.055
-12.521
-12.976
-13.394
-13.76
-14.071
-14.324
-14.522
-14.668
-14.776
-14.888
-15.07
-15.381
-15.872
-16.57
-17.498
-18.698
-20.219
-22.119
-24.457
-27.259
-30.548
-34.357
-38.691
-43.52
-48.759
-54.195
-59.559
-64.613
-69.09
-72.72
-75.298
-76.636
-76.673
-75.571
-73.593
-71.04
-68.267
-65.696
-63.711
-62.61
-62.546
-63.14
-63.427
-62.24
-58.199
-50.458
-39.378
-25.769
-10.544
6.575
27.888
56.762
96.664
148.822
211.167
278.382
341.816
391.516
417.804
412.881
373.663
302.978
208.253
99.58
-14.191
-129.261
-245.398
-363.797
-483.649
-598.227
-697.38
-770.473
-810.21
-816.481
-794.117
-751.01
-695.058
-630.967
-562.049
-490.667
-418.922
-350.209
-287.406
-231.833
-184.009
-143.416
-108.849
-80.342
-58.142
-41.477
-30.109
-22.773
-17.42
-13.699
-11.124
-9.319
-8.765
-8.922
-9.145
-9.195
-8.817
-7.929
-6.243
-3.909
-1.185
1.272
1.781
0.203
-2.094
-3.06
0.572
9.802
22.309
34.324
40.992
39.785
32.292
22.575
16.086
16.479
24.086
36.639
49.839
60.485
67.196
70.071
71.357
72.687
74.795
78.161
81.844
85.197
88.191
90.614
92.779
94.961
97.092
99.211
101.329
103.429
105.591
107.899
110.39
113.098
116.049
119.246
122.685
126.363
130.265
134.368
138.66
143.129
147.759
152.54
157.457
162.492
167.625
172.834
178.096
183.392
188.701
194.0
199.269
204.487
209.634
214.691
219.635
224.444
229.096
233.567
237.833
241.874
245.668
249.193
252.43
255.36
257.967
260.235
262.151
263.7
264.871
265.654
266.041
266.023
265.596
264.756
263.499
261.825
259.734
257.23
254.317
251.0
247.286
243.186
238.709
233.868
228.676
223.149
217.302
211.154
204.723
198.03
191.095
183.939
176.587
169.06
161.383
153.58
145.674
137.69
129.652
121.584
113.51
105.454
97.44
89.489
81.625
73.87
66.244
58.767
51.458
44.337
37.418
30.719
24.253
18.034
12.073
6.381
0.966
-4.165
-9.005
-13.551
-17.799
-21.749
-25.402
-28.757
-31.82
-34.594
-37.084
-39.298
-41.242
-42.926
-44.36
-45.553
-46.517
-47.263
-47.803
-48.151
-48.319
-48.321
-48.17
-47.88
-47.463
-46.934
-46.306
-45.59
-44.801
-43.95
-43.049
-42.108
-41.14
-40.152
-39.156
-38.159
-37.17
-36.195
-35.242
-34.315
-33.42
-32.561
-31.742
-30.965
-30.234
-29.549
-28.913
-28.325
-27.785
-27.295
-26.852
-26.455
-26.104
-25.797
-25.531
-25.304
-25.115
-24.961
-24.839
-24.747
-24.683
-24.643
-24.627
-24.63
-24.651
-24.689
-24.739
-24.802
-24.875
-24.957
-25.047
-25.143
-25.245
-25.353
-25.466
-25.584
-25.707
-25.835
-25.969
-26.11
-26.258
-26.414
-26.58
-26.756
-26.946
-27.149
-27.367
-27.603
-27.858
-28.134
-28.432
-28.753
-29.1
-29.474
-29.877
-30.309
-30.772
-31.267
-31.795
-32.357
-32.952
-33.58
-34.241
-34.935
-35.659
-36.412
-37.193
-37.998
-38.826
-39.673
-40.537
-41.413
-42.298
-43.187
-44.076
-44.96
-45.833
-46.69
-47.526
-48.334
-49.109
-49.844
-50.534
-51.174
-51.756
-52.275
-52.726
-53.102
-53.399
-53.611
-53.732
-53.761
-53.692
-53.525
-53.257
-52.888
-52.42
-51.853
-51.191
-50.437
-49.593
-48.665
-47.659
-46.582
-45.439
-44.239
-42.99
-41.703
-40.388
-39.056
-37.72
-36.388
-35.072
-33.783
-32.532
-31.331
-30.189
-29.113
-28.11
-27.187
-26.351
-25.612
-24.973
-24.431
-23.986
-23.635
-23.371
-23.192
-23.084
-23.028
-23.009
-23.008
-23.017
-23.036
-23.06
-23.089
-23.118
-23.134
-23.135
-23.122
-23.096
-23.063
-23.02
-22.956
-22.91
-22.959
-23.192
-23.726
-24.629
-25.919
-27.656
-29.889
-32.592
-35.699
-39.017
-42.289
-45.397
-48.293
-50.903
-53.207
-55.191
-56.878
-58.504
-60.319
-62.356
-64.575
-66.878
-69.115
-71.238
-73.174
-74.692
-75.63
-76.073
-76.22
-76.32
-76.643
-77.039
-76.93
-75.665
-72.334
-66.326
-57.971
-47.756
-36.162
-22.935
-5.984
17.514
50.425
94.61
149.206
210.786
273.252
328.237
366.754
380.539
363.938
315.607
239.003
141.353
31.145
-84.778
-203.262
-324.31
-447.949
-570.76
-684.48
-777.164
-837.9
-861.894
-851.194
-814.144
-761.282
-700.109
-635.133
-567.476
-496.808
-424.596
-353.271
-286.286
-226.895
-176.579
-135.49
-102.539
-76.605
-56.953
-43.111
-34.979
-31.797
-32.271
-35.012
-38.416
-41.485
-44.023
-45.83
-46.521
-45.315
-40.959
-32.765
-21.882
-11.058
-3.321
-1.291
-4.941
-11.001
-15.958
-16.48
-11.025
-2.034
7.054
13.158
13.811
9.713
3.981
-0.382
-0.665
4.326
12.894
22.622
31.616
38.294
42.841
46.432
49.637
52.946
56.418
59.58
62.329
64.747
66.871
68.846
70.747
72.551
74.275
75.962
77.647
79.374
81.203
83.186
85.362
87.765
90.411
93.302
96.439
99.822
103.44
107.278
111.323
115.56
119.977
124.566
129.313
134.198
139.203
144.308
149.493
154.741
160.031
165.344
170.659
175.955
181.212
186.411
191.53
196.546
201.435
206.175
210.74
215.11
219.26
223.169
226.816
230.181
233.245
235.991
238.404
240.467
242.168
243.495
244.437
244.985
245.132
244.87
244.196
243.107
241.601
239.681
237.348
234.607
231.463
227.926
224.005
219.71
215.057
210.057
204.729
199.09
193.158
186.954
180.498
173.814
166.923
159.851
152.621
145.257
137.786
130.23
122.617
114.97
107.314
99.675
92.075
84.539
77.09
69.751
62.542
55.485
48.599
41.902
35.411
29.142
23.109
17.325
11.801
6.546
1.569
-3.126
-7.532
-11.649
-15.474
-19.009
-22.256
-25.217
-27.9
-30.31
-32.455
-34.344
-35.987
-37.395
-38.58
-39.555
-40.333
-40.929
-41.356
-41.63
-41.766
-41.779
-41.684
-41.497
-41.233
-40.906
-40.531
-40.122
-39.691
-39.252
-38.817
-38.395
-37.998
-37.635
-37.313
-37.039
-36.82
-36.659
-36.563
-36.532
-36.569
-36.674
-36.849
-37.091
-37.399
-37.77
-38.202
-38.69
-39.229
-39.814
-40.44
-41.1
-41.789
-42.499
-43.223
-43.954
-44.685
-45.408
-46.117
-46.803
-47.461
-48.083
-48.663
-49.195
-49.673
-50.094
-50.451
-50.741
-50.961
-51.108
-51.18
-51.175
-51.094
-50.934
-50.698
-50.386
-49.999
-49.54
-49.012
-48.417
-47.759
-47.043
-46.272
-45.452
-44.588
-43.685
-42.749
-41.785
-40.801
-39.803
-38.797
-37.79
-36.787
-35.797
-34.824
-33.876
-32.958
-32.076
-31.234
-30.439
-29.695
-29.005
-28.373
-27.802
-27.295
-26.853
-26.478
-26.169
-25.926
-25.749
-25.635
-25.583
-25.59
-25.653
-25.768
-25.93
-26.135
-26.378
-26.653
-26.953
-27.272
-27.603
-27.937
-28.268
-28.586
-28.885
-29.155
-29.389
-29.579
-29.715
-29.791
-29.798
-29.729
-29.577
-29.335
-28.997
-28.559
-28.016
-27.366
-26.607
-25.738
-24.762
-23.68
-22.494
-21.207
-19.825
-18.353
-16.796
-15.163
-13.459
-11.695
-9.881
-8.028
-6.148
-4.252
-2.353
-0.463
1.407
3.243
5.032
6.765
8.433
10.027
11.54
12.963
14.283
15.495
16.6
17.598
18.49
19.28
19.97
20.572
21.105
21.586
22.031
22.448
22.837
23.201
23.542
23.862
24.176
24.487
24.785
25.068
25.329
25.564
25.785
25.954
25.989
25.801
25.269
24.312
22.912
21.012
18.524
15.447
11.82
7.804
3.684
-0.377
-4.33
-8.079
-11.507
-14.513
-17.002
-19.097
-21.109
-23.14
-25.16
-27.127
-29.013
-30.924
-33.027
-35.273
-37.456
-39.582
-41.779
-44.205
-46.987
-49.727
-51.486
-51.29
-48.073
-41.112
-30.646
-17.13
-1.023
17.737
40.782
70.601
109.548
158.804
217.154
280.564
342.586
395.17
429.465
437.449
413.961
357.925
273.1
167.258
48.845
-75.729
-203.006
-332.349
-462.173
-586.754
-697.101
-781.921
-832.361
-846.514
-827.943
-785.119
-727.599
-661.523
-590.761
-516.677
-439.897
-362.931
-289.016
-221.867
-164.352
-117.135
-79.395
-49.682
-27.075
-11.483
-3.432
-2.504
-6.501
-12.749
-18.147
-20.982
-22.0
-22.395
-23.167
-24.303
-24.152
-20.617
-13.34
-4.056
4.365
8.183
5.902
-0.404
-7.076
-9.556
-4.934
5.795
18.842
29.48
33.935
31.344
24.527
17.833
14.839
17.61
25.073
34.226
42.885
49.458
53.826
57.276
60.428
63.582
66.823
69.701
72.085
74.102
75.804
77.322
78.754
80.101
81.389
82.66
83.941
85.268
86.696
88.28
90.065
92.085
94.362
96.9
99.704
102.776
106.11
109.694
113.516
117.565
121.831
126.304
130.973
135.821
140.829
145.978
151.246
156.616
162.066
167.576
173.124
178.69
184.25
189.785
195.269
200.68
205.99
211.175
216.207
221.061
225.712
230.135
234.305
238.201
241.799
245.08
248.025
250.615
252.834
254.667
256.1
257.121
257.721
257.892
257.626
256.919
255.769
254.174
252.136
249.659
246.746
243.405
239.644
235.474
230.908
225.959
220.642
214.975
208.977
202.667
196.067
189.199
182.086
174.752
167.223
159.524
151.68
143.718
135.664
127.543
119.383
111.208
103.045
94.919
86.853
78.873
71.0
63.257
55.664
48.242
41.009
33.983
27.178
20.611
14.293
8.237
2.451
-3.055
-8.275
-13.203
-17.837
-22.175
-26.216
-29.961
-33.412
-36.575
-39.454
-42.055
-44.386
-46.456
-48.274
-49.851
-51.198
-52.327
-53.25
-53.979
-54.529
-54.911
-55.141
-55.23
-55.192
-55.042
-54.791
-54.452
-54.038
-53.561
-53.031
-52.461
-51.859
-51.236
-50.601
-49.962
-49.326
-48.7
-48.091
-47.505
-46.945
-46.416
-45.922
-45.465
-45.047
-44.671
-44.338
-44.047
-43.799
-43.594
-43.432
-43.31
-43.229
-43.186
-43.179
-43.207
-43.268
-43.359
-43.478
-43.622
-43.791
-43.98
-44.188
-44.414
-44.653
-44.906
-45.169
-45.441
-45.719
-46.002
-46.289
-46.578
-46.866
-47.154
-47.439
-47.72
-47.996
-48.266
-48.528
-48.783
-49.028
-49.263
-49.488
-49.702
-49.904
-50.095
-50.274
-50.441
-50.597
-50.741
-50.873
-50.995
-51.107
-51.208
-51.3
-51.384
-51.46
-51.529
-51.592
-51.652
-51.708
-51.763
-51.817
-51.874
-51.935
-52.001
-52.074
-52.158
-52.253
-52.363
-52.49
-52.636
-52.804
-52.995
-53.211
-53.454
-53.725
-54.025
-54.355
-54.715
-55.105
-55.524
-55.971
-56.445
-56.945
-57.469
-58.015
-58.579
-59.159
-59.751
-60.352
-60.956
-61.561
-62.16
-62.748
-63.32
-63.871
-64.394
-64.884
-65.333
-65.735
-66.083
-66.371
-66.592
-66.739
-66.805
-66.787
-66.678
-66.473
-66.171
-65.767
-65.261
-64.653
-63.943
-63.133
-62.224
-61.22
-60.124
-58.94
-57.672
-56.326
-54.907
-53.425
-51.888
-50.305
-48.687
-47.044
-45.387
-43.726
-42.072
-40.435
-38.823
-37.244
-35.706
-34.219
-32.795
-31.446
-30.181
-29.001
-27.904
-26.889
-25.95
-25.081
-24.268
-23.491
-22.733
-21.983
-21.235
-20.49
-19.744
-18.985
-18.198
-17.368
-16.49
-15.578
-14.649
-13.712
-12.782
-11.871
-11.017
-10.291
-9.751
-9.428
-9.358
-9.569
-10.123
-11.138
-12.721
-14.914
-17.734
-21.162
-25.102
-29.477
-34.157
-38.857
-43.267
-47.117
-50.167
-52.307
-53.576
-53.935
-53.397
-52.171
-50.495
-48.703
-47.162
-46.035
-45.42
-45.563
-46.615
-48.613
-51.313
-53.828
-55.056
-53.876
-49.527
-42.119
-32.042
-19.765
-5.1
13.677
38.875
73.057
117.924
172.576
233.999
296.522
352.12
392.142
407.692
392.2
343.608
264.431
162.071
45.505
-78.43
-205.685
-335.256
-465.697
-591.12
-701.605
-785.107
-832.197
-840.781
-816.04
-768.055
-707.425
-641.373
-573.463
-504.654
-435.516
-367.797
-303.513
-244.647
-192.461
-146.963
-108.354
-76.928
-52.77
-36.059
-26.154
-21.735
-21.308
-23.27
-26.319
-29.479
-32.062
-33.892
-34.867
-34.604
-33.118
-29.893
-24.289
-17.464
-10.398
-4.376
-1.721
-1.954
-3.294
-4.421
-2.433
3.451
10.736
17.615
21.564
20.671
17.265
14.01
13.008
16.682
24.081
32.784
41.367
48.079
52.694
56.407
59.708
63.013
66.484
69.657
72.368
74.703
76.693
78.474
80.144
81.697
83.152
84.55
85.931
87.339
88.83
90.464
92.28
94.314
96.589
99.11
101.881
104.906
108.179
111.689
115.426
119.379
123.539
127.897
132.443
137.16
142.03
147.034
152.154
157.371
162.666
168.02
173.413
178.823
184.23
189.614
194.952
200.22
205.394
210.448
215.357
220.096
224.64
228.965
233.048
236.865
240.396
243.62
246.518
249.072
251.264
253.081
254.507
255.53
256.14
256.327
256.085
255.407
254.289
252.731
250.731
248.292
245.416
242.11
238.38
234.236
229.688
224.749
219.432
213.753
207.729
201.379
194.722
187.78
180.573
173.127
165.464
157.609
149.587
141.423
133.144
124.776
116.345
107.877
99.398
90.935
82.512
74.156
65.89
57.738
49.723
41.867
34.192
26.717
19.461
12.442
5.675
-0.825
-7.045
-12.972
-18.596
-23.91
-28.906
-33.578
-37.922
-41.937
-45.622
-48.978
-52.006
-54.711
-57.098
-59.173
-60.943
-62.418
-63.608
-64.522
-65.173
-65.573
-65.736
-65.673
-65.401
-64.933
-64.284
-63.47
-62.504
-61.403
-60.181
-58.853
-57.435
-55.939
-54.38
-52.773
-51.129
-49.462
-47.782
-46.103
-44.434
-42.785
-41.166
-39.584
-38.048
-36.564
-35.139
-33.777
-32.485
-31.265
-30.121
-29.055
-28.07
-27.167
-26.347
-25.61
-24.956
-24.384
-23.894
-23.484
-23.152
-22.896
-22.715
-22.606
-22.565
-22.592
-22.681
-22.831
-23.038
-23.298
-23.61
-23.968
-24.371
-24.815
-25.296
-25.813
-26.361
-26.938
-27.541
-28.168
-28.815
-29.481
-30.164
-30.86
-31.568
-32.286
-33.012
-33.744
-34.481
-35.22
-35.961
-36.702
-37.441
-38.178
-38.91
-39.636
-40.356
-41.067
-41.77
-42.461
-43.142
-43.81
-44.465
-45.107
-45.733
-46.344
-46.939
-47.516
-48.076
-48.617
-49.139
-49.641
-50.123
-50.583
-51.022
-51.438
-51.831
-52.2
-52.544
-52.861
-53.15
-53.41
-53.64
-53.837
-54.0
-54.127
-54.217
-54.268
-54.279
-54.247
-54.17
-54.047
-53.876
-53.653
-53.377
-53.046
-52.657
-52.208
-51.697
-51.121
-50.48
-49.769
-48.989
-48.136
-47.208
-46.205
-45.124
-43.964
-42.725
-41.407
-40.01
-38.536
-36.988
-35.368
-33.682
-31.934
-30.129
-28.272
-26.37
-24.429
-22.456
-20.459
-18.444
-16.422
-14.401
-12.393
-10.409
-8.459
-6.553
-4.702
-2.915
-1.202
0.426
1.962
3.4
4.733
5.955
7.059
8.036
8.881
9.598
10.19
10.663
11.024
11.281
11.45
11.553
11.607
11.63
11.636
11.628
11.615
11.604
11.599
11.612
11.648
11.701
11.77
11.853
11.933
12.003
12.045
11.992
11.769
11.285
10.426
9.127
7.342
4.999
2.049
-1.494
-5.536
-9.88
-14.283
-18.588
-22.691
-26.458
-29.75
-32.482
-34.687
-36.554
-38.297
-40.002
-41.655
-43.267
-44.894
-46.569
-48.258
-49.784
-51.028
-52.055
-52.974
-53.875
-54.547
-54.369
-52.58
-48.316
-41.013
-30.89
-18.428
-4.232
11.776
31.438
57.233
91.864
137.024
191.471
252.015
313.29
368.024
408.77
427.625
417.851
376.124
303.329
205.317
90.871
-31.857
-157.872
-285.965
-415.805
-543.953
-662.18
-758.315
-821.105
-845.708
-834.357
-795.68
-740.536
-676.363
-607.634
-536.027
-461.686
-386.922
-314.918
-248.44
-190.059
-140.429
-98.629
-64.193
-36.988
-16.89
-4.499
0.435
-0.022
-3.873
-8.7
-12.243
-14.501
-15.823
-16.503
-16.929
-15.751
-11.492
-3.652
7.132
17.927
25.833
28.925
26.713
22.048
17.867
16.385
19.506
25.65
32.235
37.306
38.392
35.298
30.117
25.318
23.841
27.861
37.086
49.079
60.842
69.522
73.589
74.254
73.671
73.55
75.272
78.509
81.977
85.062
87.304
88.722
89.867
90.919
91.885
92.831
93.721
94.585
95.548
96.68
98.01
99.576
101.397
103.474
105.807
108.391
111.205
114.235
117.472
120.905
124.523
128.318
132.277
136.383
140.621
144.972
149.418
153.94
158.522
163.142
167.783
172.424
177.045
181.628
186.151
190.593
194.929
199.138
203.195
207.079
210.767
214.237
217.469
220.442
223.138
225.539
227.631
229.397
230.823
231.899
232.612
232.954
232.916
232.492
231.677
230.469
228.865
226.866
224.475
221.695
218.532
214.994
211.088
206.827
202.221
197.286
192.035
186.486
180.657
174.566
168.233
161.68
154.928
148.0
140.92
133.71
126.395
118.999
111.546
104.059
96.564
89.083
81.641
74.26
66.963
59.772
52.709
45.792
39.043
32.479
26.117
19.974
14.063
8.399
2.992
-2.146
-7.006
-11.583
-15.869
-19.86
-23.554
-26.949
-30.046
-32.847
-35.355
-37.574
-39.51
-41.17
-42.563
-43.696
-44.581
-45.228
-45.649
-45.857
-45.864
-45.684
-45.332
-44.821
-44.167
-43.383
-42.484
-41.485
-40.401
-39.245
-38.032
-36.776
-35.488
-34.182
-32.871
-31.564
-30.274
-29.009
-27.78
-26.594
-25.46
-24.384
-23.372
-22.43
-21.561
-20.771
-20.063
-19.437
-18.897
-18.443
-18.075
-17.794
-17.598
-17.487
-17.457
-17.507
-17.635
-17.838
-18.111
-18.452
-18.857
-19.322
-19.843
-20.414
-21.033
-21.693
-22.391
-23.122
-23.882
-24.666
-25.47
-26.29
-27.122
-27.963
-28.808
-29.654
-30.498
-31.336
-32.166
-32.984
-33.788
-34.577
-35.346
-36.096
-36.824
-37.528
-38.207
-38.86
-39.486
-40.083
-40.652
-41.191
-41.7
-42.181
-42.632
-43.056
-43.453
-43.824
-44.171
-44.496
-44.801
-45.086
-45.353
-45.606
-45.844
-46.071
-46.288
-46.498
-46.703
-46.906
-47.109
-47.316
-47.529
-47.749
-47.981
-48.227
-48.489
-48.77
-49.073
-49.399
-49.753
-50.135
-50.55
-50.997
-51.477
-51.991
-52.539
-53.12
-53.732
-54.372
-55.036
-55.724
-56.43
-57.153
-57.89
-58.637
-59.393
-60.155
-60.921
-61.686
-62.445
-63.192
-63.919
-64.618
-65.281
-65.899
-66.462
-66.961
-67.39
-67.744
-68.017
-68.202
-68.289
-68.264
-68.121
-67.857
-67.471
-66.962
-66.337
-65.604
-64.781
-63.9
-62.98
-62.031
-61.058
-60.054
-59.017
-57.948
-56.843
-55.7
-54.513
-53.272
-51.977
-50.632
-49.226
-47.738
-46.125
-44.328
-42.309
-40.063
-37.594
-34.924
-32.077
-29.075
-25.964
-22.8
-19.629
-16.486
-13.387
-10.334
-7.356
-4.501
-1.844
0.522
2.538
4.18
5.437
6.31
6.806
6.937
6.748
6.308
5.658
4.819
3.778
2.499
0.985
-0.729
-2.614
-4.634
-6.802
-9.189
-11.851
-14.823
-18.133
-21.797
-25.79
-30.052
-34.423
-38.639
-42.417
-45.481
-47.624
-48.728
-48.795
-47.927
-46.286
-44.105
-41.65
-39.248
-37.208
-35.755
-34.973
-34.873
-35.471
-36.736
-38.593
-40.594
-41.837
-41.336
-37.988
-31.083
-20.759
-7.321
8.74
27.246
49.378
76.937
111.972
156.16
209.159
268.209
328.01
380.612
416.546
426.982
405.631
351.085
268.328
166.114
54.16
-60.313
-175.81
-293.573
-413.907
-533.06
-641.126
-725.643
-776.974
-792.034
-774.839
-734.378
-680.121
-618.204
-552.033
-482.918
-411.655
-340.926
-273.963
-213.396
-161.06
-116.822
-79.689
-49.438
-26.432
-11.566
-5.245
-5.964
-10.51
-15.374
-18.071
-17.968
-16.447
-15.275
-14.922
-14.626
-12.729
-7.269
1.898
12.798
23.018
29.627
30.848
28.088
23.977
21.268
22.592
27.858
34.528
40.485
43.763
43.502
41.585
40.084
40.305
43.595
49.61
56.71
64.01
70.512
75.522
79.686
83.346
86.602
89.793
92.69
95.09
97.107
98.759
100.125
101.322
102.37
103.274
104.081
104.839
105.594
106.405
107.331
108.41
109.674
111.149
112.846
114.773
116.937
119.334
121.954
124.79
127.836
131.085
134.532
138.168
141.981
145.955
150.076
154.327
158.696
163.165
167.718
172.337
177.005
181.702
186.412
191.114
195.785
200.404
204.946
209.387
213.703
217.871
221.865
225.663
229.242
232.58
235.657
238.453
240.95
243.128
244.972
246.467
247.599
248.355
248.725
248.698
248.268
247.429
246.176
244.508
242.423
239.925
237.015
233.7
229.988
225.886
221.406
216.561
211.366
205.836
199.99
193.846
187.426
180.751
173.843
166.727
159.428
151.969
144.377
136.678
128.897
121.061
113.197
105.33
97.486
89.691
81.97
74.346
66.845
59.487
52.295
45.289
38.488
31.909
25.569
19.483
13.663
8.121
2.866
-2.094
-6.753
-11.107
-15.152
-18.89
-22.319
-25.444
-28.267
-30.795
-33.035
-34.995
-36.684
-38.114
-39.295
-40.24
-40.964
-41.479
-41.8
-41.943
-41.924
-41.757
-41.459
-41.047
-40.534
-39.938
-39.274
-38.556
-37.799
-37.018
-36.224
-35.431
-34.65
-33.892
-33.167
-32.484
-31.852
-31.277
-30.766
-30.323
-29.955
-29.662
-29.45
-29.318
-29.269
-29.302
-29.416
-29.611
-29.885
-30.234
-30.657
-31.148
-31.705
-32.322
-32.995
-33.719
-34.488
-35.296
-36.139
-37.01
-37.903
-38.813
-39.734
-40.66
-41.586
-42.507
-43.418
-44.315
-45.192
-46.046
-46.873
-47.67
-48.434
-49.161
-49.85
-50.499
-51.105
-51.668
-52.186
-52.66
-53.088
-53.471
-53.809
-54.103
-54.355
-54.565
-54.735
-54.868
-54.965
-55.029
-55.063
-55.07
-55.053
-55.015
-54.959
-54.89
-54.81
-54.723
-54.632
-54.54
-54.452
-54.369
-54.296
-54.233
-54.185
-54.154
-54.141
-54.148
-54.176
-54.228
-54.302
-54.4
-54.522
-54.666
-54.832
-55.018
-55.222
-55.443
-55.678
-55.924
-56.177
-56.435
-56.693
-56.947
-57.193
-57.424
-57.637
-57.825
-57.984
-58.109
-58.194
-58.234
-58.224
-58.157
-58.031
-57.84
-57.58
-57.247
-56.838
-56.351
-55.783
-55.135
-54.405
-53.594
-52.705
-51.739
-50.702
-49.598
-48.431
-47.209
-45.938
-44.626
-43.282
-41.913
-40.528
-39.134
-37.741
-36.358
-34.995
-33.66
-32.363
-31.113
-29.916
-28.781
-27.712
-26.71
-25.775
-24.907
-24.109
-23.385
-22.738
-22.165
-21.666
-21.239
-20.88
-20.584
-20.335
-20.114
-19.906
-19.703
-19.506
-19.325
-19.157
-18.997
-18.836
-18.662
-18.476
-18.277
-18.036
-17.745
-17.434
-17.162
-17.047
-17.209
-17.701
-18.575
-19.902
-21.687
-23.888
-26.361
-28.832
-31.076
-32.979
-34.453
-35.429
-35.875
-35.829
-35.491
-35.241
-35.382
-36.071
-37.364
-39.288
-41.912
-45.25
-49.167
-53.342
-57.437
-61.305
-64.949
-68.359
-71.429
-73.796
-74.743
-73.555
-69.449
-61.9
-51.224
-38.001
-22.939
-6.234
13.417
38.226
70.65
112.532
163.68
221.145
279.243
329.591
362.197
368.133
341.656
282.515
196.971
94.677
-14.566
-124.257
-233.499
-343.837
-455.638
-565.171
-663.34
-739.088
-783.983
-795.589
-777.714
-738.408
-686.227
-626.699
-562.766
-495.589
-425.973
-356.574
-290.848
-231.649
-180.97
-138.886
-104.232
-76.279
-54.498
-38.702
-29.052
-24.834
-24.682
-27.143
-30.612
-33.828
-36.314
-38.124
-39.037
-38.654
-36.482
-31.265
-22.941
-13.369
-4.612
0.519
0.12
-4.428
-10.267
-14.189
-13.19
-6.834
2.356
11.077
16.535
16.783
12.921
8.466
5.807
7.378
14.171
23.611
33.717
42.423
47.395
49.175
49.033
48.472
49.584
53.132
58.435
64.122
68.846
71.672
72.778
73.202
73.619
74.499
75.956
77.623
79.383
81.301
83.398
85.769
88.45
91.387
94.566
97.993
101.656
105.538
109.633
113.929
118.422
123.112
127.986
133.025
138.207
143.512
148.919
154.409
159.961
165.552
171.161
176.765
182.344
187.877
193.34
198.71
203.959
209.065
214.0
218.741
223.263
227.543
231.557
235.284
238.704
241.798
244.548
246.939
248.955
250.583
251.811
252.629
253.028
253.002
252.547
251.658
250.336
248.58
246.394
243.782
240.751
237.309
233.466
229.234
224.626
219.658
214.347
208.71
202.767
196.538
190.046
183.314
176.364
169.222
161.912
154.459
146.889
139.227
131.5
123.732
115.95
108.178
100.442
92.765
85.172
77.685
70.326
63.118
56.079
49.228
42.585
36.164
29.982
24.051
18.385
12.993
7.884
3.067
-1.453
-5.671
-9.586
-13.195
-16.498
-19.498
-22.198
-24.601
-26.714
-28.544
-30.097
-31.383
-32.413
-33.196
-33.744
-34.07
-34.185
-34.104
-33.841
-33.408
-32.82
-32.092
-31.238
-30.272
-29.208
-28.061
-26.843
-25.569
-24.251
-22.901
-21.531
-20.153
-18.776
-17.411
-16.067
-14.753
-13.475
-12.243
-11.061
-9.935
-8.871
-7.873
-6.944
-6.088
-5.306
-4.6
-3.972
-3.422
-2.95
-2.555
-2.237
-1.994
-1.825
-1.727
-1.698
-1.735
-1.835
-1.996
-2.214
-2.486
-2.807
-3.176
-3.587
-4.038
-4.524
-5.043
-5.591
-6.165
-6.76
-7.374
-8.005
-8.648
-9.301
-9.961
-10.626
-11.294
-11.962
-12.628
-13.291
-13.949
-14.601
-15.245
-15.88
-16.507
-17.124
-17.731
-18.328
-18.914
-19.489
-20.054
-20.61
-21.156
-21.692
-22.221
-22.742
-23.256
-23.764
-24.267
-24.765
-25.26
-25.753
-26.243
-26.733
-27.223
-27.713
-28.203
-28.696
-29.19
-29.686
-30.184
-30.682
-31.181
-31.679
-32.175
-32.668
-33.154
-33.632
-34.1
-34.556
-34.996
-35.418
-35.818
-36.193
-36.541
-36.857
-37.137
-37.379
-37.578
-37.73
-37.831
-37.879
-37.87
-37.8
-37.665
-37.463
-37.19
-36.845
-36.424
-35.926
-35.349
-34.692
-33.955
-33.139
-32.246
-31.278
-30.238
-29.132
-27.965
-26.742
-25.471
-24.158
-22.811
-21.438
-20.048
-18.649
-17.251
-15.864
-14.498
-13.164
-11.874
-10.637
-9.462
-8.358
-7.334
-6.399
-5.561
-4.823
-4.189
-3.663
-3.248
-2.953
-2.779
-2.722
-2.777
-2.938
-3.197
-3.546
-3.97
-4.449
-4.962
-5.494
-6.028
-6.561
-7.088
-7.596
-8.08
-8.524
-8.919
-9.272
-9.588
-9.862
-10.11
-10.34
-10.57
-10.867
-11.309
-11.97
-12.948
-14.31
-16.092
-18.378
-21.238
-24.65
-28.55
-32.775
-37.083
-41.335
-45.412
-49.085
-52.147
-54.474
-56.012
-56.893
-57.352
-57.48
-57.386
-57.356
-57.682
-58.59
-60.236
-62.624
-65.689
-69.458
-73.887
-78.4
-81.936
-83.395
-81.58
-75.905
-66.683
-54.224
-38.784
-19.852
4.146
35.354
75.611
124.844
181.276
240.512
295.945
340.99
368.102
370.712
345.152
290.242
209.507
110.009
-0.768
-116.664
-235.233
-356.475
-479.514
-599.69
-707.116
-789.726
-837.764
-848.01
-825.259
-779.238
-720.442
-656.084
-588.901
-519.195
-446.928
-373.989
-304.236
-241.284
-187.747
-143.979
-108.243
-79.293
-56.515
-40.389
-32.372
-32.202
-37.739
-45.553
-51.782
-54.327
-53.493
-51.338
-49.685
-49.041
-48.664
-46.235
-40.592
-32.979
-25.158
-20.071
-19.92
-23.086
-26.765
-27.939
-23.261
-13.357
-1.864
7.981
12.378
10.11
4.399
-1.093
-2.962
1.405
10.738
21.68
31.892
39.012
42.447
44.305
45.74
47.636
50.772
54.126
57.078
59.618
61.462
62.935
64.369
65.705
66.991
68.267
69.516
70.814
72.25
73.863
75.686
77.757
80.092
82.692
85.562
88.695
92.073
95.692
99.546
103.625
107.921
112.426
117.123
121.998
127.031
132.204
137.497
142.889
148.361
153.891
159.459
165.042
170.619
176.167
181.661
187.075
192.381
197.554
202.567
207.392
212.005
216.38
220.494
224.323
227.846
231.043
233.895
236.384
238.494
240.209
241.518
242.409
242.873
242.902
242.49
241.635
240.334
238.589
236.402
233.777
230.721
227.242
223.351
219.06
214.383
209.334
203.932
198.195
192.143
185.797
179.18
172.315
165.227
157.941
150.481
142.875
135.147
127.325
119.434
111.502
103.553
95.615
87.712
79.868
72.11
64.459
56.938
49.569
42.371
35.364
28.567
21.994
15.661
9.582
3.769
-1.768
-7.02
-11.981
-16.643
-21.004
-25.06
-28.812
-32.259
-35.405
-38.251
-40.804
-43.068
-45.052
-46.764
-48.213
-49.409
-50.363
-51.088
-51.595
-51.899
-52.011
-51.947
-51.721
-51.346
-50.838
-50.211
-49.479
-48.656
-47.757
-46.795
-45.782
-44.732
-43.657
-42.568
-41.477
-40.393
-39.326
-38.285
-37.277
-36.311
-35.393
-34.528
-33.723
-32.98
-32.303
-31.697
-31.162
-30.701
-30.314
-30.002
-29.765
-29.602
-29.512
-29.492
-29.542
-29.658
-29.837
-30.076
-30.372
-30.72
-31.118
-31.559
-32.041
-32.559
-33.109
-33.686
-34.285
-34.903
-35.534
-36.176
-36.823
-37.472
-38.12
-38.761
-39.393
-40.013
-40.618
-41.204
-41.77
-42.312
-42.828
-43.317
-43.777
-44.206
-44.604
-44.968
-45.3
-45.598
-45.863
-46.094
-46.293
-46.46
-46.596
-46.702
-46.781
-46.834
-46.861
-46.867
-46.853
-46.82
-46.773
-46.712
-46.642
-46.564
-46.482
-46.398
-46.315
-46.237
-46.165
-46.103
-46.052
-46.017
-45.999
-46.0
-46.024
-46.072
-46.145
-46.245
-46.375
-46.533
-46.721
-46.939
-47.186
-47.461
-47.763
-48.091
-48.441
-48.812
-49.201
-49.605
-50.02
-50.443
-50.869
-51.295
-51.715
-52.124
-52.518
-52.89
-53.236
-53.55
-53.825
-54.058
-54.241
-54.368
-54.435
-54.435
-54.364
-54.214
-53.982
-53.663
-53.254
-52.75
-52.149
-51.45
-50.652
-49.755
-48.763
-47.677
-46.499
-45.235
-43.888
-42.465
-40.97
-39.41
-37.791
-36.119
-34.405
-32.657
-30.889
-29.109
-27.33
-25.563
-23.82
-22.113
-20.454
-18.853
-17.316
-15.851
-14.47
-13.182
-12.004
-10.943
-10.001
-9.176
-8.467
-7.866
-7.367
-6.957
-6.61
-6.309
-6.035
-5.779
-5.54
-5.311
-5.079
-4.828
-4.536
-4.19
-3.797
-3.365
-2.908
-2.442
-1.98
-1.549
-1.205
-1.004
-0.997
-1.22
-1.678
-2.389
-3.414
-4.851
-6.803
-9.328
-12.396
-15.954
-20.001
-24.521
-29.43
-34.516
-39.448
-43.919
-47.773
-50.949
-53.313
-54.673
-54.887
-53.964
-52.136
-49.777
-47.168
-44.45
-41.896
-39.915
-38.842
-38.949
-40.039
-41.216
-41.448
-39.625
-34.903
-27.314
-17.173
-4.824
10.004
29.076
54.851
89.958
135.947
191.712
253.771
316.128
370.844
409.592
424.424
409.48
362.767
286.862
188.458
76.083
-43.0
-165.163
-289.944
-417.019
-542.875
-658.825
-752.747
-813.875
-837.028
-824.469
-784.621
-727.637
-661.635
-591.303
-517.999
-442.41
-366.441
-293.323
-227.224
-171.127
-125.793
-90.044
-61.773
-39.668
-23.448
-13.749
-10.542
-12.009
-15.718
-18.794
-19.679
-18.887
-17.45
-16.65
-16.549
-16.324
-14.862
-10.912
-5.364
0.444
4.843
5.311
2.488
-1.463
-4.121
-1.758
6.161
16.863
26.946
32.261
30.913
25.234
19.14
16.291
19.16
26.859
36.38
45.514
52.581
57.377
61.236
64.801
68.372
72.061
75.402
78.239
80.692
82.804
84.697
86.474
88.135
89.705
91.224
92.72
94.229
95.806
97.512
99.393
101.483
103.803
106.358
109.154
112.192
115.468
118.969
122.684
126.605
130.721
135.028
139.515
144.165
148.965
153.894
158.936
164.072
169.286
174.557
179.868
185.199
190.53
195.843
201.116
206.325
211.448
216.46
221.335
226.049
230.579
234.899
238.987
242.82
246.376
249.637
252.581
255.192
257.451
259.344
260.856
261.973
262.686
262.984
262.858
262.304
261.317
259.894
258.035
255.741
253.017
249.866
246.297
242.318
237.941
233.178
228.044
222.555
216.729
210.586
204.146
197.43
190.463
183.269
175.873
168.3
160.576
152.729
144.785
136.772
128.717
120.646
112.586
104.564
96.606
88.737
80.981
73.362
65.903
58.623
51.544
44.683
38.059
31.686
25.578
19.748
14.205
8.96
4.019
-0.614
-4.934
-8.94
-12.632
-16.012
-19.084
-21.851
-24.322
-26.503
-28.404
-30.034
-31.407
-32.533
-33.426
-34.1
-34.569
-34.848
-34.952
-34.897
-34.698
-34.37
-33.93
-33.391
-32.769
-32.077
-31.33
-30.541
-29.723
-28.886
-28.043
-27.203
-26.376
-25.57
-24.792
-24.05
-23.349
-22.694
-22.089
-21.536
-21.037
-20.595
-20.209
-19.878
-19.603
-19.382
-19.212
-19.091
-19.017
-18.985
-18.992
-19.036
-19.111
-19.215
-19.342
-19.49
-19.655
-19.832
-20.019
-20.213
-20.409
-20.606
-20.8
-20.99
-21.172
-21.347
-21.512
-21.665
-21.807
-21.937
-22.054
-22.159
-22.252
-22.335
-22.408
-22.473
-22.53
-22.583
-22.632
-22.68
-22.729
-22.781
-22.838
-22.902
-22.975
-23.06
-23.158
-23.271
-23.402
-23.551
-23.722
-23.914
-24.13
-24.371
-24.638
-24.933
-25.256
-25.608
-25.991
-26.405
-26.85
-27.328
-27.839
-28.383
-28.959
-29.568
-30.21
-30.883
-31.589
-32.325
-33.092
-33.888
-34.713
-35.566
-36.445
-37.349
-38.276
-39.226
-40.197
-41.186
-42.192
-43.213
-44.247
-45.29
-46.341
-47.396
-48.453
-49.507
-50.554
-51.591
-52.613
-53.615
-54.591
-55.538
-56.449
-57.319
-58.144
-58.916
-59.631
-60.283
-60.866
-61.375
-61.804
-62.147
-62.4
-62.556
-62.611
-62.56
-62.399
-62.124
-61.731
-61.216
-60.577
-59.811
-58.918
-57.896
-56.744
-55.464
-54.058
-52.529
-50.881
-49.12
-47.25
-45.281
-43.22
-41.079
-38.868
-36.598
-34.281
-31.93
-29.559
-27.181
-24.81
-22.458
-20.139
-17.866
-15.655
-13.518
-11.471
-9.524
-7.69
-5.979
-4.401
-2.957
-1.653
-0.49
0.529
1.399
2.115
2.679
3.093
3.359
3.483
3.474
3.348
3.13
2.84
2.488
2.081
1.615
1.095
0.533
-0.057
-0.659
-1.265
-1.869
-2.445
-2.976
-3.483
-4.025
-4.717
-5.674
-6.951
-8.588
-10.644
-13.127
-15.99
-19.103
-22.207
-25.079
-27.65
-29.878
-31.731
-33.242
-34.468
-35.578
-36.927
-38.787
-41.186
-44.07
-47.331
-50.844
-54.552
-58.297
-61.757
-64.675
-67.02
-68.943
-70.676
-72.348
-73.928
-75.103
-75.134
-73.098
-67.824
-58.667
-46.264
-31.742
-16.171
0.939
22.486
52.43
94.259
148.637
212.63
280.049
342.263
390.331
415.471
410.693
372.862
303.108
207.569
95.296
-25.493
-149.765
-276.142
-404.389
-531.634
-650.019
-748.161
-815.324
-845.608
-840.417
-807.237
-755.634
-693.761
-626.645
-555.928
-482.035
-406.39
-331.35
-260.684
-198.418
-146.411
-105.125
-73.539
-49.775
-33.456
-24.296
-21.639
-23.987
-27.818
-30.23
-29.68
-26.231
-22.197
-19.088
-16.874
-15.028
-11.795
-6.002
1.37
9.133
15.951
19.908
21.002
20.618
19.593
19.817
22.592
26.503
30.427
33.18
33.096
31.248
29.618
29.265
31.773
37.226
43.918
50.947
57.353
62.352
66.581
70.391
73.835
77.228
80.347
82.984
85.241
87.121
88.695
90.085
91.316
92.407
93.404
94.347
95.276
96.244
97.311
98.527
99.933
101.559
103.417
105.513
107.853
110.436
113.254
116.293
119.54
122.984
126.613
130.418
134.386
138.5
142.74
147.088
151.523
156.029
160.587
165.176
169.776
174.367
178.929
183.443
187.888
192.242
196.48
200.581
204.521
208.278
211.829
215.153
218.23
221.04
223.565
225.789
227.695
229.271
230.503
231.379
231.891
232.028
231.786
231.158
230.14
228.73
226.929
224.737
222.158
219.195
215.856
212.147
208.079
203.663
198.911
193.836
188.454
182.782
176.837
170.638
164.204
157.557
150.718
143.708
136.552
129.27
121.887
114.426
106.909
99.361
91.803
84.26
76.753
69.305
61.937
54.669
47.523
40.517
33.67
26.999
20.521
14.25
8.202
2.388
-3.179
-8.49
-13.536
-18.31
-22.805
-27.018
-30.945
-34.584
-37.936
-41.002
-43.783
-46.284
-48.51
-50.466
-52.159
-53.598
-54.791
-55.747
-56.479
-56.995
-57.309
-57.431
-57.375
-57.152
-56.777
-56.262
-55.62
-54.864
-54.007
-53.062
-52.042
-50.958
-49.822
-48.645
-47.439
-46.213
-44.978
-43.742
-42.514
-41.301
-40.111
-38.95
-37.823
-36.737
-35.694
-34.7
-33.756
-32.866
-32.031
-31.253
-30.533
-29.87
-29.266
-28.719
-28.228
-27.794
-27.413
-27.085
-26.808
-26.58
-26.398
-26.261
-26.166
-26.111
-26.094
-26.112
-26.163
-26.246
-26.356
-26.494
-26.656
-26.842
-27.048
-27.275
-27.519
-27.781
-28.058
-28.35
-28.657
-28.976
-29.308
-29.651
-30.006
-30.372
-30.748
-31.134
-31.529
-31.934
-32.347
-32.769
-33.198
-33.634
-34.077
-34.526
-34.98
-35.438
-35.9
-36.365
-36.831
-37.299
-37.766
-38.233
-38.698
-39.161
-39.619
-40.073
-40.522
-40.963
-41.397
-41.822
-42.238
-42.643
-43.036
-43.417
-43.786
-44.14
-44.482
-44.808
-45.12
-45.418
-45.701
-45.969
-46.224
-46.465
-46.693
-46.908
-47.113
-47.307
-47.491
-47.666
-47.833
-47.991
-48.142
-48.285
-48.421
-48.548
-48.667
-48.778
-48.879
-48.97
-49.051
-49.12
-49.175
-49.216
-49.24
-49.246
-49.232
-49.195
-49.133
-49.043
-48.923
-48.77
-48.581
-48.351
-48.079
-47.76
-47.391
-46.968
-46.487
-45.945
-45.339
-44.667
-43.927
-43.117
-42.237
-41.287
-40.271
-39.189
-38.044
-36.839
-35.578
-34.266
-32.906
-31.504
-30.065
-28.594
-27.1
-25.593
-24.08
-22.573
-21.08
-19.611
-18.176
-16.784
-15.443
-14.161
-12.944
-11.8
-10.736
-9.762
-8.89
-8.124
-7.463
-6.905
-6.444
-6.07
-5.775
-5.542
-5.349
-5.18
-5.021
-4.863
-4.705
-4.537
-4.346
-4.123
-3.851
-3.531
-3.171
-2.78
-2.368
-1.955
-1.555
-1.204
-0.958
-0.851
-0.927
-1.245
-1.851
-2.827
-4.262
-6.211
-8.723
-11.835
-15.474
-19.522
-23.835
-28.181
-32.362
-36.206
-39.496
-42.063
-43.892
-45.048
-45.621
-45.762
-45.545
-45.023
-44.34
-43.663
-43.065
-42.548
-42.201
-42.129
-42.474
-43.423
-44.752
-45.658
-45.204
-42.307
-36.249
-27.437
-16.566
-4.179
9.992
28.109
53.376
88.85
136.187
194.3
258.888
322.893
377.534
413.343
422.115
398.932
343.159
258.951
154.156
37.053
-86.235
-212.578
-341.46
-471.498
-597.019
-708.396
-793.723
-843.262
-854.321
-831.3
-783.778
-722.638
-655.492
-585.877
-514.348
-440.663
-366.064
-293.724
-227.791
-171.433
-126.038
-90.835
-63.585
-42.859
-27.726
-18.137
-14.573
-15.54
-19.203
-23.457
-25.946
-26.786
-26.629
-25.837
-24.939
-22.726
-17.522
-8.864
2.262
13.075
20.196
21.211
16.667
9.951
4.49
3.464
7.35
12.921
17.807
20.065
18.832
16.577
15.201
15.589
18.92
24.523
30.893
37.459
43.13
47.121
50.278
53.009
55.689
59.018
62.454
65.524
68.187
70.18
71.741
73.177
74.5
75.774
77.03
78.26
79.539
80.944
82.516
84.295
86.318
88.603
91.161
93.999
97.114
100.496
104.137
108.022
112.135
116.461
120.987
125.7
130.582
135.614
140.776
146.046
151.403
156.827
162.298
167.793
173.29
178.769
184.208
189.587
194.883
200.074
205.137
210.046
214.781
219.319
223.638
227.716
231.533
235.071
238.312
241.239
243.838
246.096
247.999
249.538
250.702
251.484
251.877
251.877
251.48
250.684
249.49
247.898
245.912
243.536
240.775
237.637
234.131
230.267
226.056
221.512
216.648
211.478
206.02
200.29
194.307
188.089
181.656
175.028
168.226
161.272
154.187
146.993
139.711
132.363
124.973
117.561
110.148
102.757
95.409
88.123
80.921
73.821
66.842
60.002
53.318
46.806
40.481
34.357
28.448
22.764
17.317
12.116
7.169
2.483
-1.936
-6.084
-9.959
-13.558
-16.882
-19.93
-22.706
-25.213
-27.454
-29.436
-31.165
-32.648
-33.894
-34.912
-35.712
-36.304
-36.7
-36.911
-36.949
-36.827
-36.557
-36.152
-35.625
-34.989
-34.258
-33.443
-32.557
-31.614
-30.625
-29.601
-28.556
-27.498
-26.44
-25.39
-24.359
-23.355
-22.385
-21.457
-20.579
-19.755
-18.991
-18.292
-17.661
-17.101
-16.616
-16.206
-15.872
-15.616
-15.438
-15.336
-15.309
-15.357
-15.476
-15.666
-15.922
-16.242
-16.623
-17.061
-17.552
-18.092
-18.677
-19.302
-19.964
-20.657
-21.377
-22.119
-22.881
-23.656
-24.44
-25.231
-26.023
-26.814
-27.6
-28.377
-29.143
-29.896
-30.632
-31.35
-32.048
-32.725
-33.379
-34.01
-34.616
-35.198
-35.755
-36.287
-36.795
-37.28
-37.741
-38.181
-38.6
-39.0
-39.383
-39.75
-40.103
-40.444
-40.775
-41.098
-41.417
-41.731
-42.045
-42.36
-42.679
-43.003
-43.336
-43.678
-44.031
-44.398
-44.779
-45.177
-45.591
-46.024
-46.476
-46.946
-47.437
-47.947
-48.476
-49.023
-49.589
-50.17
-50.766
-51.375
-51.993
-52.619
-53.25
-53.881
-54.51
-55.134
-55.748
-56.349
-56.931
-57.492
-58.025
-58.527
-58.993
-59.417
-59.796
-60.123
-60.394
-60.606
-60.753
-60.831
-60.836
-60.764
-60.612
-60.376
-60.054
-59.643
-59.141
-58.547
-57.861
-57.084
-56.217
-55.263
-54.226
-53.11
-51.92
-50.662
-49.341
-47.965
-46.541
-45.077
-43.58
-42.059
-40.524
-38.987
-37.457
-35.945
-34.464
-33.021
-31.626
-30.289
-29.019
-27.825
-26.711
-25.684
-24.746
-23.904
-23.166
-22.533
-22.004
-21.574
-21.235
-20.981
-20.804
-20.692
-20.624
-20.583
-20.552
-20.519
-20.48
-20.427
-20.356
-20.258
-20.121
-19.939
-19.718
-19.462
-19.177
-18.871
-18.548
-18.223
-17.96
-17.827
-17.909
-18.307
-19.085
-20.292
-22.003
-24.281
-27.108
-30.402
-33.984
-37.595
-41.071
-44.296
-47.097
-49.331
-50.919
-51.865
-52.337
-52.605
-52.806
-53.028
-53.429
-54.098
-55.141
-56.632
-58.466
-60.554
-62.878
-65.335
-67.771
-69.807
-70.502
-68.736
-63.327
-53.584
-40.121
-24.188
-7.033
11.429
33.407
62.378
101.881
153.121
214.0
279.106
339.745
385.961
408.319
399.373
356.433
282.864
186.244
76.569
-37.468
-152.49
-268.376
-385.89
-503.689
-614.409
-707.387
-772.591
-803.766
-801.769
-773.101
-726.264
-669.117
-606.69
-540.927
-472.789
-403.465
-334.92
-270.314
-212.395
-162.865
-122.265
-89.694
-64.246
-45.192
-31.992
-24.523
-21.96
-22.923
-25.93
-29.284
-32.002
-33.926
-34.898
-34.644
-32.27
-26.332
-16.237
-3.052
10.187
19.45
21.717
16.55
6.904
-2.265
-6.332
-2.91
6.853
18.969
28.749
33.15
31.654
26.478
21.644
19.888
22.526
29.316
37.703
45.901
52.94
58.067
62.153
65.824
69.115
72.342
75.278
77.706
79.785
81.565
83.127
84.592
85.982
87.302
88.595
89.901
91.258
92.722
94.348
96.175
98.232
100.541
103.112
105.947
109.05
112.415
116.027
119.875
123.949
128.238
132.734
137.424
142.291
147.317
152.482
157.768
163.156
168.625
174.156
179.726
185.313
190.897
196.456
201.965
207.401
212.736
217.945
223.0
227.877
232.55
236.992
241.18
245.09
248.701
251.991
254.941
257.533
259.751
261.579
263.003
264.013
264.597
264.748
264.459
263.725
262.544
260.916
258.841
256.323
253.367
249.981
246.174
241.957
237.344
232.348
226.987
221.278
215.242
208.898
202.27
195.381
188.254
180.916
173.392
165.707
157.89
149.965
141.961
133.903
125.819
117.734
109.674
101.665
93.731
85.895
78.182
70.612
63.207
55.985
48.966
42.166
35.601
29.284
23.228
17.443
11.938
6.721
1.797
-2.829
-7.156
-11.183
-14.909
-18.339
-21.475
-24.322
-26.886
-29.176
-31.199
-32.964
-34.483
-35.766
-36.825
-37.672
-38.32
-38.782
-39.073
-39.204
-39.192
-39.048
-38.787
-38.422
-37.966
-37.433
-36.835
-36.183
-35.49
-34.765
-34.02
-33.262
-32.502
-31.747
-31.004
-30.28
-29.581
-28.912
-28.277
-27.681
-27.125
-26.614
-26.148
-25.729
-25.358
-25.035
-24.76
-24.532
-24.35
-24.214
-24.12
-24.068
-24.056
-24.08
-24.138
-24.229
-24.348
-24.494
-24.663
-24.854
-25.064
-25.29
-25.531
-25.784
-26.047
-26.319
-26.598
-26.883
-27.172
-27.465
-27.76
-28.057
-28.355
-28.654
-28.954
-29.254
-29.554
-29.855
-30.158
-30.461
-30.766
-31.073
-31.384
-31.698
-32.018
-32.343
-32.676
-33.017
-33.367
-33.727
-34.099
-34.483
-34.88
-35.291
-35.716
-36.156
-36.61
-37.08
-37.564
-38.063
-38.576
-39.102
-39.64
-40.19
-40.748
-41.314
-41.885
-42.46
-43.034
-43.606
-44.174
-44.733
-45.281
-45.814
-46.329
-46.821
-47.287
-47.723
-48.123
-48.485
-48.802
-49.071
-49.288
-49.448
-49.548
-49.583
-49.55
-49.444
-49.264
-49.006
-48.667
-48.245
-47.739
-47.148
-46.473
-45.714
-44.874
-43.954
-42.959
-41.894
-40.763
-39.572
-38.326
-37.033
-35.7
-34.335
-32.945
-31.54
-30.129
-28.721
-27.326
-25.955
-24.616
-23.319
-22.073
-20.885
-19.766
-18.723
-17.758
-16.877
-16.082
-15.376
-14.767
-14.257
-13.842
-13.518
-13.28
-13.121
-13.034
-13.006
-13.016
-13.045
-13.073
-13.088
-13.089
-13.074
-13.037
-12.972
-12.862
-12.7
-12.492
-12.243
-11.954
-11.626
-11.258
-10.894
-10.621
-10.538
-10.753
-11.334
-12.314
-13.756
-15.728
-18.227
-21.184
-24.434
-27.756
-31.017
-34.154
-37.051
-39.569
-41.614
-43.171
-44.38
-45.43
-46.386
-47.23
-48.008
-48.849
-49.916
-51.27
-52.817
-54.518
-56.461
-58.768
-61.506
-64.269
-66.112
-66.081
-63.159
-56.732
-47.144
-34.795
-20.042
-2.724
18.819
46.897
83.618
130.164
185.571
246.173
306.027
357.134
390.027
396.362
370.59
311.898
225.927
121.671
8.626
-106.386
-222.348
-340.556
-461.173
-580.269
-687.431
-770.181
-818.837
-830.026
-808.536
-764.07
-706.771
-643.947
-579.037
-512.81
-445.656
-379.142
-315.319
-256.349
-203.755
-157.762
-118.64
-86.65
-61.794
-44.176
-33.123
-27.382
-25.521
-25.961
-27.544
-29.414
-30.938
-32.086
-32.833
-32.758
-31.939
-29.907
-25.783
-20.52
-15.057
-10.59
-9.447
-11.392
-14.542
-16.951
-15.633
-9.419
-0.087
9.635
16.589
18.324
15.148
9.847
5.589
5.189
9.962
18.286
27.692
36.251
42.406
46.399
49.422
52.046
54.778
57.663
60.238
62.424
64.305
65.924
67.435
68.914
70.339
71.728
73.126
74.564
76.089
77.761
79.622
81.703
84.031
86.618
89.464
92.569
95.927
99.523
103.346
107.386
111.628
116.063
120.678
125.456
130.377
135.42
140.564
145.788
151.072
156.394
161.732
167.064
172.369
177.625
182.809
187.897
192.863
197.682
202.329
206.779
211.008
214.992
218.709
222.137
225.256
228.05
230.499
232.589
234.305
235.635
236.567
237.093
237.204
236.896
236.164
235.006
233.421
231.413
228.984
226.139
222.886
219.234
215.194
210.777
205.998
200.872
195.416
189.648
183.586
177.253
170.668
163.854
156.835
149.635
142.276
134.785
127.185
119.502
111.759
103.982
96.196
88.423
80.688
73.014
65.423
57.938
50.578
43.365
36.316
29.451
22.784
16.333
10.11
4.129
-1.598
-7.063
-12.255
-17.169
-21.797
-26.137
-30.185
-33.939
-37.401
-40.57
-43.449
-46.044
-48.357
-50.397
-52.169
-53.682
-54.946
-55.969
-56.763
-57.339
-57.709
-57.885
-57.881
-57.708
-57.38
-56.911
-56.314
-55.601
-54.788
-53.885
-52.907
-51.865
-50.771
-49.637
-48.474
-47.293
-46.103
-44.914
-43.735
-42.573
-41.437
-40.333
-39.267
-38.244
-37.27
-36.349
-35.483
-34.676
-33.929
-33.245
-32.623
-32.066
-31.571
-31.139
-30.769
-30.459
-30.207
-30.011
-29.869
-29.779
-29.736
-29.739
-29.785
-29.87
-29.991
-30.145
-30.329
-30.54
-30.775
-31.031
-31.305
-31.594
-31.896
-32.208
-32.529
-32.855
-33.186
-33.519
-33.853
-34.187
-34.519
-34.85
-35.178
-35.502
-35.824
-36.143
-36.459
-36.773
-37.085
-37.395
-37.705
-38.015
-38.327
-38.641
-38.958
-39.279
-39.606
-39.939
-40.278
-40.626
-40.982
-41.346
-41.72
-42.104
-42.498
-42.901
-43.314
-43.736
-44.167
-44.606
-45.051
-45.501
-45.954
-46.408
-46.861
-47.31
-47.752
-48.183
-48.601
-49.002
-49.383
-49.739
-50.066
-50.361
-50.619
-50.836
-51.007
-51.128
-51.194
-51.202
-51.147
-51.027
-50.836
-50.571
-50.23
-49.809
-49.306
-48.719
-48.045
-47.284
-46.435
-45.498
-44.474
-43.365
-42.173
-40.903
-39.56
-38.148
-36.675
-35.147
-33.571
-31.954
-30.307
-28.638
-26.955
-25.267
-23.586
-21.922
-20.285
-18.687
-17.136
-15.643
-14.216
-12.863
-11.595
-10.418
-9.332
-8.342
-7.448
-6.654
-5.965
-5.382
-4.899
-4.51
-4.209
-3.988
-3.84
-3.75
-3.695
-3.653
-3.608
-3.545
-3.464
-3.362
-3.233
-3.068
-2.854
-2.584
-2.266
-1.906
-1.506
-1.064
-0.578
-0.085
0.326
0.555
0.494
0.06
-0.781
-2.092
-3.974
-6.439
-9.417
-12.75
-16.16
-19.445
-22.526
-25.255
-27.401
-28.833
-29.496
-29.497
-29.163
-28.704
-28.174
-27.741
-27.701
-28.31
-29.765
-32.072
-35.05
-38.623
-42.774
-47.33
-51.669
-54.653
-54.971
-51.288
-42.953
-30.456
-14.791
2.94
22.762
46.806
78.443
120.929
175.129
238.351
304.373
364.55
410.199
433.237
427.736
391.191
324.428
232.645
123.635
4.875
-118.332
-244.145
-372.089
-499.593
-619.707
-721.473
-793.564
-828.769
-827.036
-795.082
-742.9
-679.911
-612.211
-542.063
-470.088
-397.128
-325.398
-258.654
-200.12
-151.426
-112.255
-80.741
-55.604
-36.694
-24.625
-19.907
-21.286
-25.741
-29.952
-31.617
-30.258
-27.422
-25.072
-23.784
-23.046
-21.184
-16.032
-7.686
1.987
10.394
14.124
12.181
6.813
1.343
-0.297
4.122
12.854
22.293
29.075
30.858
28.56
25.346
23.557
24.818
29.081
34.627
40.424
45.885
50.738
55.33
59.685
63.626
67.111
70.072
72.52
74.554
76.235
77.613
78.767
79.768
80.669
81.508
82.314
83.123
83.983
84.948
86.073
87.394
88.934
90.712
92.738
95.017
97.553
100.338
103.361
106.61
110.077
113.752
117.627
121.689
125.923
130.312
134.835
139.474
144.212
149.027
153.902
158.815
163.746
168.674
173.579
178.44
183.233
187.935
192.52
196.965
201.247
205.341
209.226
212.879
216.28
219.409
222.249
224.782
226.993
228.867
230.392
231.557
232.351
232.768
232.799
232.441
231.69
230.544
229.006
227.075
224.757
222.057
218.981
215.54
211.742
207.6
203.127
198.338
193.248
187.875
182.237
176.353
170.242
163.927
157.429
150.768
143.969
137.054
130.044
122.964
115.835
108.682
101.525
94.387
87.291
80.257
73.305
66.457
59.73
53.144
46.716
40.461
34.395
28.533
22.887
17.469
12.29
7.357
2.68
-1.737
-5.886
-9.766
-13.374
-16.708
-19.77
-22.56
-25.081
-27.338
-29.335
-31.078
-32.574
-33.831
-34.858
-35.664
-36.259
-36.654
-36.859
-36.887
-36.75
-36.459
-36.026
-35.465
-34.788
-34.008
-33.136
-32.185
-31.167
-30.093
-28.975
-27.824
-26.649
-25.462
-24.27
-23.084
-21.911
-20.758
-19.634
-18.543
-17.493
-16.488
-15.532
-14.629
-13.783
-12.996
-12.271
-11.608
-11.01
-10.476
-10.006
-9.602
-9.26
-8.982
-8.764
-8.606
-8.506
-8.46
-8.468
-8.525
-8.629
-8.778
-8.967
-9.195
-9.458
-9.753
-10.077
-10.427
-10.8
-11.192
-11.602
-12.026
-12.461
-12.905
-13.356
-13.811
-14.269
-14.727
-15.183
-15.636
-16.084
-16.526
-16.961
-17.387
-17.803
-18.209
-18.604
-18.988
-19.361
-19.722
-20.071
-20.41
-20.737
-21.054
-21.362
-21.66
-21.949
-22.231
-22.506
-22.776
-23.041
-23.302
-23.561
-23.819
-24.078
-24.337
-24.599
-24.865
-25.136
-25.412
-25.696
-25.987
-26.288
-26.598
-26.918
-27.249
-27.592
-27.945
-28.31
-28.685
-29.07
-29.464
-29.865
-30.271
-30.681
-31.092
-31.502
-31.908
-32.307
-32.697
-33.073
-33.433
-33.772
-34.087
-34.374
-34.628
-34.845
-35.022
-35.153
-35.235
-35.264
-35.234
-35.142
-34.985
-34.758
-34.457
-34.081
-33.625
-33.087
-32.466
-31.759
-30.968
-30.093
-29.135
-28.096
-26.981
-25.794
-24.54
-23.225
-21.855
-20.437
-18.978
-17.485
-15.968
-14.434
-12.893
-11.354
-9.829
-8.327
-6.86
-5.437
-4.066
-2.755
-1.515
-0.353
0.725
1.715
2.61
3.406
4.095
4.672
5.139
5.498
5.755
5.917
5.992
5.994
5.945
5.86
5.757
5.648
5.542
5.447
5.376
5.34
5.349
5.407
5.512
5.657
5.849
6.081
6.323
6.537
6.671
6.66
6.444
5.954
5.075
3.704
1.793
-0.704
-3.806
-7.45
-11.574
-16.061
-20.668
-25.167
-29.376
-33.095
-36.206
-38.699
-40.508
-41.649
-42.306
-42.656
-42.918
-43.358
-44.081
-45.1
-46.595
-48.701
-51.415
-54.715
-58.113
-60.591
-61.165
-58.719
-52.485
-42.791
-30.204
-15.26
2.072
23.524
51.8
89.439
137.86
196.113
260.098
323.247
377.075
411.693
418.526
392.074
331.49
242.225
133.362
14.236
-108.42
-232.698
-359.133
-486.738
-610.092
-718.646
-800.122
-845.43
-852.536
-826.98
-778.843
-718.44
-652.775
-584.524
-513.72
-440.499
-366.564
-295.5
-231.716
-177.886
-134.555
-100.751
-74.506
-55.089
-42.841
-37.657
-38.714
-43.259
-47.783
-50.139
-49.683
-47.791
-46.563
-46.526
-46.886
-46.014
-41.745
-33.727
-23.89
-14.632
-8.863
-8.462
-12.175
-17.241
-20.598
-19.328
-12.917
-3.783
4.933
10.456
10.926
7.587
3.68
1.453
2.948
8.47
15.684
23.121
29.643
34.312
37.993
41.241
44.092
46.891
49.404
51.403
53.04
54.359
55.44
56.409
57.294
58.109
58.893
59.689
60.533
61.476
62.578
63.88
65.409
67.191
69.236
71.547
74.131
76.983
80.092
83.449
87.042
90.865
94.908
99.162
103.61
108.236
113.021
117.945
122.992
128.142
133.375
138.67
144.006
149.362
154.718
160.049
165.332
170.541
175.651
180.634
185.467
190.123
194.577
198.805
202.783
206.49
209.906
213.01
215.784
218.21
220.274
221.962
223.26
224.158
224.646
224.718
224.367
223.59
222.385
220.751
218.691
216.207
213.307
209.997
206.286
202.187
197.71
192.872
187.689
182.177
176.356
170.247
163.872
157.252
150.412
143.376
136.169
128.816
121.343
113.777
106.143
98.467
90.775
83.093
75.445
67.858
60.355
52.96
45.695
38.582
31.642
24.895
18.358
12.049
5.983
0.175
-5.363
-10.62
-15.587
-20.255
-24.619
-28.674
-32.417
-35.847
-38.965
-41.772
-44.272
-46.471
-48.373
-49.987
-51.321
-52.385
-53.189
-53.745
-54.064
-54.16
-54.046
-53.737
-53.246
-52.587
-51.777
-50.828
-49.757
-48.579
-47.306
-45.955
-44.539
-43.071
-41.565
-40.033
-38.488
-36.941
-35.402
-33.881
-32.389
-30.933
-29.521
-28.161
-26.857
-25.617
-24.445
-23.344
-22.318
-21.37
-20.502
-19.716
-19.012
-18.39
-17.852
-17.395
-17.02
-16.725
-16.508
-16.368
-16.302
-16.308
-16.383
-16.524
-16.727
-16.991
-17.311
-17.684
-18.106
-18.574
-19.083
-19.63
-20.211
-20.823
-21.461
-22.122
-22.802
-23.498
-24.206
-24.922
-25.643
-26.365
-27.085
-27.8
-28.507
-29.202
-29.882
-30.545
-31.187
-31.807
-32.401
-32.967
-33.503
-34.007
-34.478
-34.913
-35.312
-35.673
-35.995
-36.279
-36.524
-36.731
-36.899
-37.03
-37.124
-37.183
-37.209
-37.203
-37.167
-37.105
-37.018
-36.909
-36.782
-36.641
-36.488
-36.327
-36.162
-35.998
-35.837
-35.684
-35.542
-35.417
-35.31
-35.227
-35.17
-35.144
-35.149
-35.19
-35.268
-35.385
-35.54
-35.736
-35.972
-36.247
-36.56
-36.909
-37.292
-37.707
-38.151
-38.619
-39.108
-39.613
-40.128
-40.649
-41.168
-41.68
-42.178
-42.654
-43.102
-43.514
-43.883
-44.202
-44.463
-44.659
-44.781
-44.825
-44.782
-44.646
-44.412
-44.075
-43.631
-43.078
-42.415
-41.64
-40.756
-39.765
-38.669
-37.471
-36.176
-34.791
-33.321
-31.774
-30.156
-28.478
-26.749
-24.983
-23.192
-21.388
-19.585
-17.793
-16.027
-14.298
-12.62
-11.004
-9.457
-7.99
-6.611
-5.331
-4.161
-3.108
-2.173
-1.353
-0.644
-0.042
0.459
0.871
1.212
1.499
1.746
1.962
2.149
2.311
2.453
2.578
2.698
2.814
2.921
3.012
3.081
3.113
3.099
3.028
2.843
2.475
1.843
0.838
-0.605
-2.52
-4.966
-8.02
-11.681
-15.871
-20.413
-25.023
-29.494
-33.727
-37.582
-40.858
-43.428
-45.261
-46.489
-47.431
-48.286
-49.066
-49.834
-50.747
-51.935
-53.525
-55.49
-57.636
-59.934
-62.489
-65.34
-68.193
-70.297
-70.695
-68.329
-62.63
-53.808
-42.168
-28.181
-11.749
8.753
35.431
70.703
116.365
171.671
233.64
296.588
352.319
391.985
406.99
391.09
342.476
264.22
163.632
49.564
-70.956
-194.746
-321.747
-451.515
-579.536
-696.115
-788.363
-845.494
-863.793
-846.806
-803.882
-745.64
-679.167
-608.49
-534.842
-458.722
-382.57
-309.64
-243.584
-187.151
-140.834
-103.709
-74.145
-51.082
-34.677
-25.586
-23.811
-27.581
-33.53
-38.104
-39.088
-36.565
-32.635
-29.213
-26.865
-24.955
-21.379
-15.016
-7.024
0.753
5.716
6.012
2.618
-1.889
-4.68
-3.021
3.958
13.944
23.713
30.144
30.418
25.521
19.249
15.012
16.53
24.829
36.72
48.978
58.519
63.169
64.349
64.327
64.604
66.642
70.131
73.726
76.879
79.169
80.577
81.665
82.648
83.532
84.386
85.181
85.935
86.765
87.754
88.939
90.361
92.047
94.002
96.228
98.727
101.484
104.484
107.723
111.194
114.887
118.798
122.915
127.223
131.708
136.352
141.135
146.04
151.048
156.138
161.291
166.486
171.702
176.918
182.111
187.257
192.329
197.303
202.151
206.847
211.367
215.684
219.774
223.615
227.183
230.459
233.422
236.055
238.34
240.263
241.809
242.966
243.724
244.074
244.01
243.525
242.619
241.289
239.536
237.364
234.777
231.782
228.387
224.604
220.443
215.92
211.049
205.847
200.334
194.527
188.449
182.121
175.566
168.808
161.87
154.777
147.554
140.225
132.816
125.351
117.855
110.352
102.866
95.421
88.039
80.743
73.554
66.492
59.576
52.824
46.253
39.88
33.717
27.779
22.076
16.619
11.417
6.475
1.801
-2.601
-6.73
-10.583
-14.161
-17.465
-20.497
-23.262
-25.763
-28.008
-30.003
-31.756
-33.275
-34.569
-35.648
-36.523
-37.205
-37.704
-38.033
-38.202
-38.224
-38.111
-37.874
-37.526
-37.077
-36.539
-35.923
-35.239
-34.5
-33.713
-32.888
-32.036
-31.163
-30.279
-29.39
-28.504
-27.627
-26.765
-25.923
-25.106
-24.319
-23.565
-22.848
-22.171
-21.536
-20.945
-20.401
-19.904
-19.456
-19.056
-18.707
-18.407
-18.157
-17.956
-17.803
-17.699
-17.642
-17.631
-17.665
-17.742
-17.862
-18.022
-18.22
-18.455
-18.726
-19.029
-19.363
-19.726
-20.116
-20.53
-20.966
-21.421
-21.894
-22.382
-22.883
-23.393
-23.911
-24.435
-24.962
-25.49
-26.016
-26.539
-27.056
-27.566
-28.066
-28.555
-29.031
-29.492
-29.938
-30.366
-30.776
-31.168
-31.539
-31.89
-32.22
-32.529
-32.818
-33.087
-33.336
-33.566
-33.778
-33.974
-34.155
-34.321
-34.476
-34.62
-34.756
-34.885
-35.009
-35.131
-35.251
-35.373
-35.498
-35.629
-35.766
-35.913
-36.07
-36.239
-36.421
-36.618
-36.831
-37.059
-37.305
-37.568
-37.847
-38.143
-38.455
-38.781
-39.121
-39.471
-39.831
-40.196
-40.564
-40.931
-41.293
-41.646
-41.986
-42.308
-42.608
-42.881
-43.121
-43.324
-43.485
-43.599
-43.66
-43.663
-43.604
-43.477
-43.278
-43.003
-42.648
-42.209
-41.684
-41.068
-40.359
-39.556
-38.657
-37.661
-36.566
-35.376
-34.09
-32.711
-31.245
-29.694
-28.064
-26.363
-24.599
-22.78
-20.914
-19.013
-17.086
-15.145
-13.202
-11.268
-9.353
-7.47
-5.631
-3.845
-2.126
-0.484
1.071
2.529
3.88
5.116
6.231
7.225
8.096
8.844
9.467
9.962
10.327
10.567
10.684
10.68
10.565
10.345
10.038
9.671
9.265
8.837
8.399
7.946
7.48
7.013
6.552
6.114
5.714
5.346
5.026
4.787
4.618
4.48
4.293
3.911
3.228
2.202
0.76
-1.176
-3.603
-6.475
-9.631
-12.79
-15.795
-18.587
-21.084
-23.206
-24.917
-26.226
-27.333
-28.579
-30.097
-31.877
-33.909
-36.206
-38.856
-41.926
-45.297
-48.673
-51.936
-55.148
-58.374
-61.574
-64.526
-66.57
-66.631
-63.722
-56.694
-45.132
-30.103
-12.721
6.061
26.682
52.178
85.938
130.435
185.852
248.432
311.557
366.835
405.081
418.146
400.431
350.195
270.515
168.584
53.314
-67.859
-191.24
-316.293
-442.782
-566.961
-680.067
-770.289
-827.388
-847.477
-833.649
-794.525
-740.032
-676.817
-608.692
-536.756
-461.146
-384.24
-309.205
-239.84
-180.125
-131.549
-94.067
-66.444
-46.161
-31.577
-21.747
-15.951
-13.901
-14.757
-17.167
-19.838
-21.703
-22.244
-21.387
-19.223
-16.033
-11.96
-6.982
-1.555
3.709
8.145
10.462
10.223
8.484
6.614
6.758
10.619
17.342
24.743
30.287
31.556
28.279
22.886
18.546
17.996
23.158
33.025
44.429
55.005
62.433
65.984
67.706
68.893
70.548
73.493
76.7
79.517
81.909
83.6
84.93
86.22
87.396
88.501
89.573
90.605
91.681
92.895
94.282
95.873
97.702
99.782
102.113
104.697
107.524
110.575
113.843
117.322
121.001
124.874
128.93
133.155
137.533
142.047
146.679
151.413
156.231
161.117
166.052
171.017
175.994
180.966
185.912
190.81
195.637
200.37
204.984
209.456
213.764
217.883
221.792
225.468
228.891
232.043
234.903
237.456
239.683
241.571
243.105
244.272
245.062
245.465
245.471
245.076
244.274
243.063
241.44
239.407
236.965
234.119
230.875
227.24
223.224
218.838
214.094
209.007
203.592
197.867
191.85
185.561
179.021
172.252
165.275
158.115
150.794
143.338
135.77
128.115
120.398
112.644
104.878
97.123
89.404
81.745
74.168
66.697
59.351
52.153
45.121
38.274
31.629
25.201
19.005
13.054
7.359
1.929
-3.225
-8.099
-12.687
-16.985
-20.991
-24.705
-28.127
-31.261
-34.11
-36.679
-38.973
-41.001
-42.77
-44.29
-45.572
-46.625
-47.462
-48.096
-48.537
-48.801
-48.9
-48.848
-48.658
-48.345
-47.921
-47.401
-46.798
-46.124
-45.392
-44.615
-43.802
-42.966
-42.116
-41.263
-40.414
-39.579
-38.765
-37.977
-37.224
-36.509
-35.837
-35.212
-34.638
-34.117
-33.652
-33.242
-32.89
-32.596
-32.359
-32.179
-32.054
-31.984
-31.966
-31.999
-32.08
-32.207
-32.377
-32.586
-32.833
-33.114
-33.425
-33.764
-34.128
-34.514
-34.917
-35.337
-35.769
-36.211
-36.66
-37.115
-37.572
-38.029
-38.485
-38.937
-39.384
-39.823
-40.254
-40.675
-41.084
-41.481
-41.865
-42.234
-42.588
-42.927
-43.25
-43.556
-43.846
-44.119
-44.375
-44.616
-44.84
-45.049
-45.244
-45.424
-45.592
-45.748
-45.894
-46.03
-46.158
-46.279
-46.395
-46.507
-46.617
-46.726
-46.836
-46.95
-47.068
-47.192
-47.325
-47.468
-47.623
-47.792
-47.976
-48.177
-48.396
-48.635
-48.896
-49.178
-49.484
-49.813
-50.165
-50.542
-50.942
-51.364
-51.807
-52.269
-52.748
-53.242
-53.748
-54.262
-54.782
-55.302
-55.821
-56.333
-56.833
-57.316
-57.779
-58.214
-58.618
-58.983
-59.305
-59.578
-59.796
-59.953
-60.045
-60.064
-60.007
-59.869
-59.644
-59.328
-58.917
-58.408
-57.798
-57.086
-56.271
-55.352
-54.332
-53.212
-51.997
-50.692
-49.301
-47.831
-46.289
-44.681
-43.017
-41.304
-39.553
-37.772
-35.973
-34.168
-32.37
-30.59
-28.841
-27.135
-25.483
-23.896
-22.384
-20.957
-19.622
-18.387
-17.258
-16.242
-15.347
-14.578
-13.933
-13.408
-12.996
-12.69
-12.481
-12.353
-12.287
-12.264
-12.269
-12.289
-12.318
-12.345
-12.358
-12.345
-12.294
-12.202
-12.074
-11.912
-11.719
-11.496
-11.258
-11.036
-10.869
-10.809
-10.916
-11.249
-11.887
-12.917
-14.397
-16.38
-18.91
-21.934
-25.338
-28.995
-32.699
-36.268
-39.558
-42.367
-44.503
-45.951
-46.77
-47.031
-46.91
-46.505
-45.884
-45.271
-44.897
-44.824
-45.054
-45.646
-46.597
-47.991
-49.924
-51.936
-53.004
-52.113
-48.169
-40.668
-30.421
-18.257
-4.607
10.984
30.897
58.392
96.013
144.786
203.367
267.032
328.7
379.719
409.982
411.258
379.15
314.12
222.748
114.457
-2.212
-121.974
-243.871
-368.354
-493.486
-612.528
-714.544
-788.273
-826.489
-828.999
-802.072
-755.02
-696.602
-632.316
-564.28
-493.346
-420.611
-348.556
-280.876
-220.501
-169.146
-126.928
-92.48
-64.848
-43.409
-27.808
-18.215
-13.963
-13.676
-15.962
-19.252
-22.331
-24.805
-26.69
-27.651
-27.278
-25.047
-19.763
-11.513
-2.052
6.768
12.403
13.185
10.495
6.921
4.915
7.1
13.653
21.686
28.88
32.753
31.376
27.089
22.951
21.256
25.021
33.704
44.116
54.314
61.763
65.469
67.523
69.098
71.116
74.458
78.074
81.27
84.012
85.999
87.563
89.043
90.379
91.622
92.8
93.903
95.004
96.189
97.507
98.999
100.705
102.645
104.822
107.242
109.903
112.795
115.908
119.236
122.767
126.492
130.407
134.5
138.757
143.163
147.7
152.35
157.098
161.926
166.815
171.748
176.706
181.669
186.619
191.536
196.397
201.179
205.859
210.412
214.815
219.045
223.079
226.893
230.467
233.779
236.812
239.545
241.962
244.046
245.783
247.158
248.161
248.78
249.006
248.831
248.251
247.26
245.857
244.041
241.814
239.179
236.141
232.706
228.884
224.684
220.118
215.201
209.946
204.371
198.494
192.333
185.909
179.244
172.36
165.281
158.029
150.629
143.106
135.484
127.789
120.045
112.277
104.511
96.769
89.078
81.459
73.936
66.53
59.264
52.156
45.226
38.491
31.969
25.674
19.62
13.82
8.284
3.021
-1.96
-6.653
-11.053
-15.157
-18.965
-22.474
-25.687
-28.606
-31.235
-33.58
-35.646
-37.441
-38.974
-40.253
-41.289
-42.094
-42.677
-43.053
-43.233
-43.231
-43.061
-42.734
-42.267
-41.671
-40.962
-40.153
-39.256
-38.286
-37.255
-36.175
-35.06
-33.919
-32.764
-31.606
-30.454
-29.319
-28.207
-27.127
-26.087
-25.093
-24.15
-23.265
-22.441
-21.683
-20.994
-20.377
-19.834
-19.366
-18.974
-18.66
-18.422
-18.26
-18.174
-18.162
-18.221
-18.351
-18.548
-18.81
-19.133
-19.515
-19.952
-20.439
-20.975
-21.553
-22.171
-22.825
-23.509
-24.221
-24.955
-25.708
-26.476
-27.254
-28.039
-28.826
-29.613
-30.394
-31.168
-31.93
-32.678
-33.409
-34.12
-34.808
-35.473
-36.111
-36.722
-37.303
-37.855
-38.377
-38.867
-39.326
-39.754
-40.152
-40.52
-40.858
-41.169
-41.454
-41.713
-41.949
-42.164
-42.358
-42.536
-42.697
-42.845
-42.982
-43.109
-43.229
-43.344
-43.456
-43.565
-43.675
-43.785
-43.897
-44.012
-44.128
-44.248
-44.369
-44.491
-44.614
-44.736
-44.856
-44.971
-45.08
-45.179
-45.266
-45.337
-45.39
-45.419
-45.422
-45.394
-45.332
-45.232
-45.089
-44.899
-44.659
-44.364
-44.011
-43.597
-43.117
-42.57
-41.953
-41.264
-40.504
-39.672
-38.768
-37.796
-36.758
-35.658
-34.5
-33.289
-32.03
-30.732
-29.4
-28.044
-26.669
-25.285
-23.899
-22.521
-21.161
-19.828
-18.53
-17.276
-16.075
-14.937
-13.872
-12.884
-11.977
-11.153
-10.413
-9.761
-9.204
-8.747
-8.386
-8.122
-7.952
-7.871
-7.875
-7.952
-8.077
-8.229
-8.388
-8.543
-8.695
-8.847
-8.994
-9.128
-9.232
-9.29
-9.302
-9.265
-9.169
-9.01
-8.811
-8.633
-8.587
-8.797
-9.358
-10.334
-11.762
-13.68
-16.069
-18.833
-21.848
-24.954
-28.008
-30.952
-33.758
-36.361
-38.782
-41.131
-43.458
-45.83
-48.277
-50.706
-53.053
-55.357
-57.595
-59.665
-61.542
-63.264
-64.959
-66.825
-68.999
-71.147
-72.504
-72.317
-69.618
-63.88
-55.489
-44.656
-31.522
-15.646
4.992
32.572
68.935
115.087
169.837
229.957
290.187
343.08
379.861
392.247
374.189
323.906
245.534
147.003
37.569
-75.33
-189.507
-306.039
-425.827
-546.164
-658.101
-748.711
-806.687
-827.06
-812.282
-771.539
-715.608
-651.921
-585.518
-518.101
-450.129
-384.073
-321.61
-264.257
-213.329
-168.203
-128.887
-95.87
-69.367
-49.981
-37.376
-30.39
-27.659
-27.554
-28.891
-30.784
-32.697
-34.737
-36.8
-38.393
-38.555
-35.616
-28.555
-18.363
-7.926
-1.187
-1.355
-8.506
-19.121
-27.991
-30.339
-24.247
-12.057
1.449
11.379
14.759
12.222
6.975
2.696
1.94
5.079
10.771
17.261
23.353
28.65
33.287
37.523
41.407
44.853
47.817
50.294
52.355
54.111
55.647
57.037
58.355
59.65
60.954
62.298
63.717
65.254
66.966
68.896
71.071
73.509
76.22
79.207
82.473
86.011
89.806
93.847
98.121
102.617
107.326
112.235
117.326
122.581
127.979
133.497
139.115
144.812
150.566
156.354
162.155
167.946
173.705
179.409
185.033
190.551
195.936
201.163
206.206
211.04
215.64
219.982
224.045
227.807
231.248
234.35
237.096
239.471
241.459
243.05
244.23
244.992
245.328
245.232
244.7
243.73
242.321
240.477
238.2
235.496
232.373
228.839
224.907
220.588
215.898
210.851
205.466
199.761
193.757
187.474
180.934
174.162
167.18
160.015
152.689
145.23
137.662
130.011
122.303
114.564
106.818
99.092
91.409
83.795
76.273
68.865
61.595
54.482
47.546
40.808
34.282
27.987
21.937
16.144
10.62
5.377
0.421
-4.239
-8.599
-12.654
-16.404
-19.846
-22.982
-25.815
-28.349
-30.588
-32.539
-34.21
-35.609
-36.747
-37.635
-38.284
-38.707
-38.918
-38.929
-38.757
-38.416
-37.92
-37.286
-36.529
-35.665
-34.708
-33.674
-32.577
-31.433
-30.255
-29.057
-27.851
-26.65
-25.465
-24.307
-23.185
-22.11
-21.089
-20.129
-19.237
-18.419
-17.679
-17.021
-16.449
-15.965
-15.57
-15.264
-15.048
-14.92
-14.879
-14.922
-15.047
-15.25
-15.528
-15.875
-16.287
-16.758
-17.285
-17.86
-18.478
-19.133
-19.819
-20.531
-21.262
-22.007
-22.759
-23.514
-24.267
-25.011
-25.742
-26.456
-27.148
-27.815
-28.453
-29.058
-29.628
-30.16
-30.653
-31.104
-31.514
-31.88
-32.203
-32.483
-32.72
-32.917
-33.072
-33.19
-33.272
-33.319
-33.336
-33.324
-33.288
-33.229
-33.153
-33.062
-32.96
-32.851
-32.739
-32.627
-32.52
-32.422
-32.335
-32.265
-32.214
-32.186
-32.184
-32.212
-32.271
-32.364
-32.494
-32.662
-32.87
-33.118
-33.406
-33.735
-34.105
-34.513
-34.958
-35.438
-35.951
-36.492
-37.058
-37.646
-38.25
-38.866
-39.489
-40.113
-40.733
-41.343
-41.937
-42.508
-43.05
-43.556
-44.019
-44.433
-44.791
-45.087
-45.315
-45.468
-45.54
-45.527
-45.422
-45.221
-44.921
-44.516
-44.006
-43.387
-42.66
-41.826
-40.886
-39.842
-38.699
-37.463
-36.138
-34.733
-33.255
-31.711
-30.113
-28.468
-26.789
-25.085
-23.367
-21.648
-19.941
-18.256
-16.607
-15.003
-13.457
-11.978
-10.579
-9.269
-8.05
-6.929
-5.908
-4.993
-4.192
-3.508
-2.937
-2.476
-2.123
-1.872
-1.717
-1.647
-1.639
-1.671
-1.73
-1.804
-1.896
-2.011
-2.14
-2.274
-2.399
-2.508
-2.606
-2.702
-2.784
-2.833
-2.868
-2.943
-3.162
-3.656
-4.516
-5.78
-7.507
-9.778
-12.603
-15.924
-19.578
-23.279
-26.8
-30.029
-32.837
-35.054
-36.618
-37.544
-37.994
-38.337
-38.841
-39.611
-40.797
-42.596
-45.096
-48.33
-52.164
-56.225
-60.301
-64.336
-68.154
-71.498
-73.933
-74.61
-72.608
-67.067
-57.401
-43.97
-27.763
-9.835
9.523
31.715
59.416
95.381
141.153
195.872
255.603
314.029
363.047
393.362
397.065
369.103
308.821
221.549
115.784
0.134
-119.296
-241.132
-365.947
-492.312
-614.275
-720.692
-799.164
-841.146
-845.273
-817.903
-769.495
-710.039
-646.082
-579.539
-509.764
-436.687
-361.905
-289.264
-223.712
-168.304
-123.915
-89.604
-63.121
-43.459
-30.735
-24.887
-25.345
-29.592
-34.319
-37.294
-37.614
-36.552
-36.069
-36.628
-37.661
-37.416
-33.543
-26.031
-16.797
-8.47
-4.557
-6.334
-11.82
-17.677
-19.712
-15.124
-4.618
8.251
18.913
23.687
21.452
14.946
8.649
6.117
9.551
17.896
27.932
37.35
44.428
48.995
52.447
55.527
58.623
61.847
64.734
67.131
69.163
70.9
72.479
73.992
75.428
76.803
78.16
79.537
80.976
82.539
84.273
86.214
88.391
90.821
93.505
96.444
99.636
103.068
106.729
110.61
114.7
118.991
123.472
128.127
132.939
137.889
142.956
148.121
153.367
158.673
164.018
169.383
174.747
180.091
185.393
190.63
195.777
200.81
205.704
210.435
214.979
219.312
223.412
227.257
230.828
234.105
237.071
239.709
242.003
243.941
245.51
246.699
247.499
247.902
247.903
247.497
246.683
245.459
243.827
241.79
239.353
236.522
233.305
229.712
225.754
221.444
216.796
211.827
206.552
200.99
195.161
189.085
182.782
176.275
169.586
162.739
155.755
148.659
141.474
134.224
126.931
119.62
112.313
105.033
97.801
90.641
83.571
76.614
69.787
63.109
56.598
50.268
44.137
38.216
32.519
27.057
21.84
16.875
12.171
7.733
3.564
-0.331
-3.953
-7.3
-10.374
-13.178
-15.715
-17.99
-20.008
-21.778
-23.306
-24.601
-25.672
-26.531
-27.187
-27.652
-27.937
-28.054
-28.017
-27.836
-27.525
-27.097
-26.563
-25.936
-25.228
-24.451
-23.617
-22.736
-21.82
-20.878
-19.921
-18.957
-17.996
-17.044
-16.109
-15.197
-14.316
-13.469
-12.662
-11.899
-11.182
-10.516
-9.901
-9.34
-8.833
-8.381
-7.985
-7.643
-7.354
-7.118
-6.934
-6.799
-6.711
-6.668
-6.668
-6.708
-6.785
-6.897
-7.041
-7.214
-7.412
-7.634
-7.876
-8.136
-8.411
-8.699
-8.997
-9.303
-9.615
-9.931
-10.249
-10.567
-10.884
-11.2
-11.512
-11.82
-12.124
-12.422
-12.716
-13.004
-13.287
-13.564
-13.837
-14.106
-14.371
-14.633
-14.894
-15.153
-15.413
-15.673
-15.937
-16.203
-16.475
-16.753
-17.038
-17.332
-17.635
-17.949
-18.276
-18.616
-18.971
-19.341
-19.728
-20.132
-20.555
-20.997
-21.458
-21.939
-22.441
-22.962
-23.502
-24.063
-24.642
-25.239
-25.853
-26.482
-27.126
-27.781
-28.446
-29.117
-29.793
-30.47
-31.144
-31.812
-32.471
-33.117
-33.746
-34.354
-34.937
-35.491
-36.011
-36.493
-36.933
-37.326
-37.667
-37.952
-38.177
-38.338
-38.432
-38.454
-38.401
-38.271
-38.061
-37.767
-37.389
-36.924
-36.371
-35.732
-35.007
-34.197
-33.305
-32.335
-31.293
-30.183
-29.011
-27.785
-26.51
-25.195
-23.849
-22.479
-21.094
-19.705
-18.321
-16.953
-15.612
-14.309
-13.054
-11.857
-10.727
-9.672
-8.703
-7.825
-7.042
-6.356
-5.771
-5.291
-4.921
-4.662
-4.51
-4.457
-4.499
-4.628
-4.835
-5.106
-5.417
-5.75
-6.084
-6.41
-6.722
-7.019
-7.294
-7.54
-7.742
-7.894
-7.999
-8.06
-8.079
-8.057
-7.987
-7.905
-7.889
-8.029
-8.433
-9.178
-10.293
-11.835
-13.892
-16.476
-19.532
-22.922
-26.398
-29.789
-33.039
-36.03
-38.582
-40.591
-41.997
-42.888
-43.539
-44.095
-44.555
-44.993
-45.582
-46.481
-47.845
-49.669
-51.795
-54.213
-57.002
-60.158
-63.331
-65.739
-66.42
-64.299
-58.729
-49.822
-37.86
-23.367
-6.433
14.343
40.935
75.682
120.374
174.322
234.683
295.975
350.339
389.323
404.429
389.252
341.54
263.651
162.49
47.094
-75.059
-200.224
-327.845
-457.698
-585.728
-702.114
-793.947
-850.123
-866.441
-847.33
-803.029
-744.896
-680.701
-613.531
-543.711
-470.954
-397.097
-326.021
-261.313
-205.702
-159.616
-121.412
-90.085
-65.239
-47.504
-38.377
-37.526
-42.658
-50.149
-55.964
-57.902
-56.271
-53.261
-50.875
-49.628
-48.68
-45.657
-39.344
-31.067
-22.866
-17.678
-17.493
-20.874
-25.036
-27.304
-25.179
-19.052
-11.764
-5.29
-1.588
-1.172
-1.773
-1.933
-0.6
3.034
7.864
13.09
18.476
23.53
28.37
33.088
37.422
41.297
44.684
47.538
49.931
51.936
53.592
54.966
56.138
57.17
58.109
58.997
59.872
60.779
61.774
62.914
64.239
65.776
67.545
69.556
71.818
74.334
77.099
80.104
83.338
86.795
90.466
94.347
98.425
102.687
107.118
111.7
116.416
121.248
126.18
131.193
136.267
141.383
146.523
151.666
156.791
161.875
166.893
171.822
176.636
181.31
185.82
190.141
194.25
198.124
201.741
205.082
208.126
210.856
213.254
215.304
216.992
218.306
219.233
219.764
219.891
219.607
218.907
217.79
216.253
214.298
211.926
209.143
205.955
202.369
198.396
194.046
189.334
184.273
178.88
173.173
167.17
160.893
154.362
147.6
140.631
133.478
126.165
118.718
111.162
103.522
95.824
88.092
80.354
72.632
64.953
57.341
49.818
42.409
35.135
28.016
21.074
14.327
7.793
1.488
-4.573
-10.377
-15.91
-21.164
-26.128
-30.796
-35.162
-39.223
-42.974
-46.417
-49.551
-52.379
-54.905
-57.133
-59.07
-60.724
-62.103
-63.217
-64.076
-64.693
-65.08
-65.249
-65.215
-64.991
-64.592
-64.032
-63.327
-62.491
-61.539
-60.487
-59.348
-58.136
-56.867
-55.554
-54.209
-52.844
-51.473
-50.106
-48.753
-47.425
-46.13
-44.876
-43.671
-42.521
-41.432
-40.409
-39.456
-38.576
-37.772
-37.046
-36.399
-35.831
-35.343
-34.933
-34.602
-34.346
-34.164
-34.053
-34.011
-34.034
-34.119
-34.261
-34.458
-34.704
-34.997
-35.33
-35.701
-36.105
-36.537
-36.993
-37.469
-37.959
-38.461
-38.97
-39.483
-39.995
-40.503
-41.005
-41.497
-41.976
-42.44
-42.886
-43.312
-43.715
-44.094
-44.447
-44.772
-45.068
-45.335
-45.571
-45.776
-45.949
-46.089
-46.196
-46.27
-46.312
-46.32
-46.296
-46.241
-46.155
-46.04
-45.897
-45.728
-45.534
-45.318
-45.081
-44.825
-44.551
-44.263
-43.96
-43.647
-43.325
-42.996
-42.663
-42.328
-41.994
-41.663
-41.339
-41.023
-40.718
-40.426
-40.149
-39.889
-39.649
-39.431
-39.237
-39.068
-38.926
-38.812
-38.726
-38.668
-38.637
-38.632
-38.652
-38.693
-38.753
-38.829
-38.918
-39.015
-39.12
-39.228
-39.337
-39.443
-39.542
-39.631
-39.706
-39.762
-39.792
-39.787
-39.74
-39.644
-39.493
-39.281
-39.002
-38.65
-38.219
-37.707
-37.111
-36.427
-35.646
-34.756
-33.755
-32.645
-31.434
-30.135
-28.76
-27.318
-25.823
-24.296
-22.748
-21.186
-19.608
-17.997
-16.347
-14.666
-12.965
-11.27
-9.594
-7.935
-6.289
-4.649
-3.006
-1.353
0.329
2.078
3.902
5.79
7.709
9.6
11.425
13.17
14.827
16.407
17.911
19.333
20.668
21.913
23.051
24.06
24.904
25.521
25.887
26.01
25.918
25.667
25.298
24.825
24.255
23.586
22.797
21.867
20.783
19.501
17.983
16.192
14.068
11.594
8.759
5.497
1.747
-2.484
-7.132
-12.036
-16.939
-21.66
-26.037
-29.813
-32.797
-34.904
-36.127
-36.64
-36.714
-36.48
-36.067
-35.722
-35.631
-35.968
-36.842
-38.156
-39.818
-41.851
-44.185
-46.644
-48.671
-49.069
-46.589
-40.043
-29.018
-14.568
2.095
20.067
39.898
64.613
97.671
141.591
196.44
258.434
320.956
375.731
413.958
427.739
411.465
363.082
285.054
184.088
68.844
-53.265
-178.384
-305.82
-434.998
-561.651
-676.398
-766.827
-822.592
-840.175
-823.337
-781.459
-724.814
-660.125
-591.051
-518.531
-443.102
-367.42
-294.932
-229.384
-173.481
-127.685
-91.173
-62.344
-39.952
-23.449
-12.562
-7.14
-6.246
-8.422
-12.158
-15.899
-18.922
-21.253
-22.854
-23.538
-22.592
-18.655
-11.089
-0.893
9.379
16.194
16.894
11.442
2.967
-3.843
-5.101
0.8
11.56
22.659
30.451
32.742
30.568
27.36
25.63
27.002
31.405
37.082
42.95
48.414
53.215
57.709
61.934
65.72
69.037
71.824
74.098
75.969
77.507
78.777
79.861
80.833
81.743
82.628
83.521
84.462
85.499
86.692
88.083
89.699
91.557
93.668
96.039
98.673
101.568
104.709
108.087
111.694
115.522
119.563
123.806
128.236
132.837
137.591
142.478
147.48
152.579
157.755
162.989
168.259
173.546
178.83
184.089
189.297
194.432
199.468
204.38
209.142
213.73
218.119
222.286
226.209
229.866
233.237
236.303
239.046
241.449
243.497
245.177
246.477
247.385
247.893
247.993
247.681
246.953
245.806
244.242
242.262
239.869
237.071
233.872
230.284
226.317
221.983
217.296
212.272
206.928
201.282
195.354
189.163
182.733
176.085
169.243
162.231
155.072
147.791
140.412
132.962
125.463
117.941
110.421
102.925
95.479
88.104
80.822
73.657
66.627
59.752
53.051
46.541
40.238
34.157
28.311
22.711
17.37
12.295
7.494
2.974
-1.261
-5.208
-8.866
-12.233
-15.312
-18.105
-20.615
-22.848
-24.809
-26.507
-27.948
-29.143
-30.1
-30.831
-31.347
-31.659
-31.78
-31.722
-31.498
-31.121
-30.604
-29.959
-29.2
-28.34
-27.39
-26.364
-25.274
-24.13
-22.944
-21.727
-20.488
-19.238
-17.985
-16.738
-15.505
-14.291
-13.105
-11.952
-10.836
-9.763
-8.736
-7.76
-6.835
-5.966
-5.152
-4.397
-3.7
-3.062
-2.483
-1.963
-1.5
-1.094
-0.744
-0.449
-0.206
-0.014
0.129
0.225
0.276
0.285
0.254
0.186
0.082
-0.054
-0.22
-0.413
-0.631
-0.872
-1.132
-1.41
-1.702
-2.008
-2.323
-2.647
-2.978
-3.312
-3.648
-3.984
-4.319
-4.65
-4.975
-5.294
-5.605
-5.905
-6.195
-6.471
-6.734
-6.983
-7.216
-7.432
-7.631
-7.814
-7.979
-8.126
-8.257
-8.371
-8.469
-8.551
-8.619
-8.674
-8.717
-8.749
-8.772
-8.787
-8.797
-8.802
-8.806
-8.81
-8.817
-8.827
-8.845
-8.87
-8.907
-8.957
-9.021
-9.102
-9.202
-9.322
-9.463
-9.628
-9.817
-10.03
-10.268
-10.53
-10.815
-11.123
-11.453
-11.8
-12.165
-12.543
-12.931
-13.327
-13.727
-14.126
-14.52
-14.904
-15.274
-15.624
-15.949
-16.243
-16.501
-16.718
-16.888
-17.006
-17.067
-17.066
-16.996
-16.855
-16.637
-16.338
-15.955
-15.484
-14.924
-14.272
-13.529
-12.695
-11.772
-10.763
-9.672
-8.505
-7.266
-5.963
-4.603
-3.195
-1.749
-0.274
1.221
2.724
4.225
5.711
7.172
8.595
9.969
11.285
12.53
13.696
14.771
15.748
16.623
17.394
18.055
18.603
19.031
19.337
19.522
19.591
19.545
19.391
19.136
18.792
18.384
17.934
17.457
16.966
16.461
15.939
15.41
14.884
14.378
13.902
13.453
13.029
12.64
12.302
11.996
11.664
11.199
10.474
9.398
7.929
6.016
3.582
0.619
-2.814
-6.572
-10.397
-14.096
-17.596
-20.789
-23.524
-25.743
-27.43
-28.686
-29.804
-30.955
-32.151
-33.489
-35.112
-37.09
-39.536
-42.403
-45.44
-48.594
-51.893
-55.213
-58.392
-60.955
-61.858
-60.048
-54.446
-44.433
-30.674
-14.301
3.62
23.246
46.784
77.551
118.694
170.969
231.974
295.986
354.534
398.729
419.971
411.816
371.892
301.84
207.713
97.877
-20.286
-142.245
-266.753
-393.428
-519.279
-636.622
-734.304
-801.61
-832.371
-827.507
-793.951
-741.081
-677.342
-608.213
-535.956
-461.354
-385.666
-310.964
-240.61
-178.543
-127.098
-87.143
-57.879
-36.832
-22.143
-12.691
-7.754
-7.15
-10.019
-14.811
-19.946
-24.248
-27.344
-29.206
-29.641
-27.846
-22.529
-13.079
-0.518
12.264
21.475
24.275
20.281
12.326
4.978
1.85
4.591
11.768
19.506
25.105
27.17
25.952
24.199
23.659
25.054
28.835
33.785
39.002
44.269
49.089
53.499
57.613
61.263
64.439
67.162
69.407
71.228
72.716
73.936
74.956
75.847
76.655
77.409
78.16
78.957
79.852
80.906
82.165
83.655
85.396
87.403
89.68
92.232
95.054
98.134
101.46
105.023
108.812
112.822
117.039
121.447
126.028
130.762
135.63
140.613
145.692
150.846
156.055
161.296
166.55
171.795
177.01
182.168
187.246
192.217
197.055
201.735
206.233
210.522
214.578
218.379
221.903
225.129
228.039
230.612
232.834
234.688
236.16
237.239
237.913
238.173
238.013
237.427
236.41
234.962
233.082
230.772
228.036
224.88
221.311
217.338
212.972
208.226
203.113
197.65
191.853
185.741
179.333
172.651
165.715
158.549
151.175
143.618
135.901
128.049
120.088
112.041
103.934
95.792
87.638
79.498
71.395
63.352
55.392
47.536
39.806
32.222
24.802
17.564
10.525
3.699
-2.897
-9.254
-15.358
-21.2
-26.773
-32.068
-37.081
-41.808
-46.246
-50.394
-54.253
-57.824
-61.11
-64.115
-66.844
-69.304
-71.502
-73.447
-75.147
-76.612
-77.853
-78.882
-79.71
-80.348
-80.81
-81.108
-81.254
-81.262
-81.143
-80.912
-80.58
-80.16
-79.663
-79.101
-78.485
-77.827
-77.136
-76.421
-75.692
-74.958
-74.226
-73.503
-72.796
-72.112
-71.454
-70.829
-70.239
-69.689
-69.18
-68.716
-68.298
-67.927
-67.603
-67.327
-67.098
-66.916
-66.779
-66.686
-66.636
-66.627
-66.656
-66.722
-66.822
-66.953
-67.114
-67.301
-67.512
-67.745
-67.998
-68.268
-68.552
-68.85
-69.158
-69.475
-69.8
-70.13
-70.465
-70.804
-71.144
-71.486
-71.83
-72.174
-72.519
-72.865
-73.213
-73.562
-73.914
-74.27
-74.63
-74.996
-75.369
-75.751
-76.142
-76.545
-76.96
-77.391
-77.838
-78.303
-78.788
-79.294
-79.823
-80.377
-80.956
-81.561
-82.195
-82.858
-83.55
-84.273
-85.027
-85.812
-86.628
-87.474
-88.351
-89.255
-90.187
-91.144
-92.124
-93.124
-94.142
-95.173
-96.216
-97.265
-98.318
-99.369
-100.415
-101.451
-102.471
-103.47
-104.443
-105.384
-106.288
-107.149
-107.961
-108.719
-109.417
-110.05
-110.613
-111.099
-111.505
-111.825
-112.055
-112.19
-112.227
-112.164
-111.999
-111.73
-111.358
-110.884
-110.31
-109.639
-108.874
-108.02
-107.081
-106.062
-104.97
-103.812
-102.594
-101.325
-100.013
-98.669
-97.303
-95.925
-94.547
-93.177
-91.826
-90.505
-89.224
-87.992
-86.818
-85.709
-84.669
-83.708
-82.834
-82.052
-81.363
-80.767
-80.261
-79.839
-79.497
-79.224
-79.0
-78.809
-78.635
-78.463
-78.288
-78.103
-77.901
-77.681
-77.434
-77.151
-76.836
-76.482
-76.088
-75.668
-75.233
-74.804
-74.445
-74.228
-74.231
-74.564
-75.309
-76.493
-78.148
-80.296
-82.889
-85.86
-89.113
-92.469
-95.792
-99.058
-102.228
-105.252
-108.152
-110.912
-113.495
-115.962
-118.309
-120.381
-122.068
-123.308
-123.987
-124.136
-123.873
-123.285
-122.566
-121.987
-121.736
-121.69
-121.328
-119.822
-116.047
-109.243
-99.509
-87.208
-72.921
-56.731
-37.1
-11.678
22.184
66.631
121.527
183.902
247.779
304.265
342.985
354.651
333.193
277.918
194.492
92.118
-19.377
-132.901
-246.803
-362.291
-480.035
-596.818
-703.704
-788.852
-842.255
-860.114
-845.414
-806.229
-751.971
-688.862
-620.511
-548.83
-474.988
-402.155
-334.093
-273.302
-221.411
-178.059
-141.73
-111.85
-88.14
-70.637
-59.685
-54.566
-53.859
-56.026
-59.3
-62.382
-64.777
-66.366
-67.106
-66.705
-64.232
-58.406
-48.662
-36.007
-23.235
-14.092
-11.51
-15.895
-24.2
-31.557
-33.716
-28.503
-17.762
-6.048
2.68
5.605
2.867
-1.974
-5.502
-5.057
0.738
10.117
20.534
30.214
37.597
42.832
47.125
51.021
54.979
59.095
62.914
66.332
69.452
72.314
75.051
77.742
80.362
82.921
85.472
88.055
90.718
93.52
96.5
99.686
103.104
106.766
110.671
114.821
119.209
123.817
128.634
133.647
138.844
144.215
149.747
155.421
161.218
167.118
173.101
179.149
185.242
191.361
197.483
203.59
209.66
215.674
221.611
227.448
233.16
238.724
244.116
249.312
254.29
259.026
263.498
267.687
271.572
275.135
278.36
281.231
283.733
285.854
287.581
288.905
289.816
290.309
290.378
290.019
289.231
288.012
286.366
284.294
281.803
278.9
275.592
271.889
267.804
263.35
258.541
253.393
247.923
242.151
236.095
229.777
223.218
216.44
209.467
202.322
195.028
187.609
180.09
172.494
164.846
157.17
149.49
141.828
134.207
126.651
119.181
111.817
104.58
97.488
90.561
83.814
77.263
70.923
64.808
58.929
53.296
47.92
42.807
37.965
33.398
29.109
25.101
21.376
17.931
14.767
11.88
9.266
6.919
4.835
3.007
1.425
0.083
-1.031
-1.924
-2.609
-3.096
-3.396
-3.521
-3.482
-3.292
-2.963
-2.506
-1.934
-1.258
-0.491
0.358
1.276
2.252
3.277
4.341
5.434
6.547
7.671
8.8
9.924
11.037
12.134
13.207
14.251
15.263
16.236
17.169
18.057
18.899
19.691
20.431
21.12
21.755
22.336
22.863
23.337
23.757
24.124
24.439
24.704
24.921
25.09
25.214
25.295
25.335
25.336
25.301
25.233
25.132
25.004
24.849
24.67
24.472
24.254
24.022
23.776
23.519
23.254
22.983
22.706
22.427
22.146
21.866
21.587
21.311
21.038
20.77
20.506
20.247
19.994
19.745
19.501
19.26
19.023
18.788
18.554
18.321
18.085
17.847
17.604
17.355
17.098
16.832
16.553
16.261
15.954
15.631
15.291
14.933
14.556
14.16
13.746
13.314
12.865
12.4
11.92
11.427
10.922
10.409
9.89
9.368
8.847
8.331
7.824
7.33
6.855
6.404
5.981
5.593
5.244
4.941
4.69
4.496
4.365
4.304
4.318
4.412
4.591
4.858
5.218
5.673
6.224
6.872
7.615
8.452
9.381
10.398
11.5
12.684
13.942
15.271
16.663
18.112
19.608
21.141
22.699
24.268
25.837
27.394
28.927
30.423
31.87
33.259
34.582
35.828
36.987
38.048
38.999
39.83
40.542
41.136
41.614
41.987
42.262
42.455
42.586
42.67
42.719
42.739
42.731
42.703
42.663
42.62
42.585
42.558
42.527
42.487
42.431
42.34
42.196
41.96
41.585
41.057
40.342
39.389
38.143
36.504
34.382
31.744
28.534
24.676
20.215
15.245
9.947
4.672
-0.312
-4.832
-8.62
-11.433
-13.194
-13.886
-13.681
-13.012
-12.14
-11.218
-10.538
-10.373
-10.93
-12.387
-14.727
-17.719
-21.252
-25.294
-29.449
-32.874
-34.5
-33.065
-27.841
-19.24
-7.936
5.429
20.958
40.535
66.771
102.245
148.54
204.63
267.044
329.919
385.29
424.486
439.223
423.348
374.857
296.775
196.334
82.571
-37.012
-158.885
-282.8
-408.716
-533.196
-647.711
-740.338
-800.581
-824.132
-813.753
-778.207
-727.759
-669.276
-606.349
-539.024
-466.197
-389.535
-312.315
-239.556
-176.889
-126.711
-88.931
-61.655
-41.59
-27.317
-19.026
-16.749
-20.023
-26.418
-32.482
-35.895
-36.161
-34.926
-33.863
-33.339
-32.67
-29.708
-23.458
-15.347
-7.356
-2.252
-2.003
-5.578
-10.549
-14.206
-13.954
-9.182
-1.889
5.102
9.4
9.095
4.783
-0.38
-3.939
-3.403
2.727
12.136
22.302
31.078
35.978
37.693
38.179
38.54
40.279
43.384
46.575
49.347
51.312
52.405
53.171
53.837
54.398
54.909
55.352
55.75
56.215
56.831
57.632
58.648
59.91
61.426
63.197
65.225
67.497
69.997
72.72
75.659
78.806
82.155
85.696
89.414
93.295
97.32
101.472
105.735
110.09
114.519
119.004
123.526
128.065
132.603
137.119
141.59
145.992
150.3
154.49
158.538
162.419
166.108
169.584
172.823
175.804
178.506
180.912
183.003
184.761
186.173
187.223
187.899
188.191
188.09
187.587
186.679
185.361
183.632
181.491
178.943
175.991
172.641
168.903
164.786
160.302
155.465
150.292
144.799
139.006
132.933
126.602
120.036
113.259
106.297
99.175
91.92
84.558
77.116
69.623
62.104
54.588
47.102
39.672
32.324
25.085
17.978
11.028
4.258
-2.311
-8.658
-14.764
-20.612
-26.186
-31.471
-36.455
-41.126
-45.477
-49.498
-53.185
-56.534
-59.544
-62.213
-64.545
-66.541
-68.208
-69.551
-70.578
-71.299
-71.725
-71.865
-71.734
-71.345
-70.713
-69.851
-68.777
-67.506
-66.055
-64.441
-62.681
-60.791
-58.788
-56.69
-54.512
-52.27
-49.981
-47.659
-45.317
-42.971
-40.633
-38.315
-36.029
-33.784
-31.592
-29.46
-27.396
-25.407
-23.5
-21.679
-19.95
-18.314
-16.777
-15.338
-14.0
-12.764
-11.628
-10.594
-9.659
-8.822
-8.08
-7.432
-6.873
-6.402
-6.013
-5.703
-5.468
-5.305
-5.208
-5.173
-5.197
-5.275
-5.401
-5.573
-5.785
-6.034
-6.315
-6.624
-6.957
-7.311
-7.682
-8.066
-8.462
-8.865
-9.272
-9.681
-10.089
-10.493
-10.892
-11.283
-11.665
-12.036
-12.395
-12.742
-13.076
-13.398
-13.706
-14.001
-14.284
-14.555
-14.814
-15.061
-15.297
-15.523
-15.741
-15.951
-16.155
-16.354
-16.551
-16.747
-16.943
-17.143
-17.346
-17.555
-17.771
-17.997
-18.234
-18.485
-18.752
-19.037
-19.34
-19.664
-20.01
-20.376
-20.763
-21.169
-21.593
-22.032
-22.482
-22.941
-23.407
-23.876
-24.346
-24.815
-25.279
-25.737
-26.185
-26.619
-27.035
-27.426
-27.785
-28.104
-28.377
-28.596
-28.755
-28.848
-28.87
-28.814
-28.678
-28.457
-28.144
-27.733
-27.21
-26.568
-25.805
-24.924
-23.932
-22.845
-21.676
-20.437
-19.15
-17.829
-16.482
-15.111
-13.705
-12.249
-10.741
-9.184
-7.594
-5.989
-4.37
-2.735
-1.081
0.607
2.343
4.143
6.042
8.061
10.2
12.438
14.727
16.999
19.209
21.324
23.328
25.213
26.955
28.534
29.939
31.151
32.157
32.934
33.427
33.596
33.431
32.946
32.201
31.276
30.237
29.129
27.988
26.836
25.698
24.593
23.515
22.449
21.358
20.229
19.074
17.905
16.723
15.5
14.171
12.651
10.862
8.739
6.235
3.308
-0.093
-3.979
-8.306
-12.965
-17.738
-22.387
-26.705
-30.459
-33.392
-35.283
-35.947
-35.318
-33.558
-30.978
-27.907
-24.724
-21.885
-19.808
-18.837
-19.205
-20.543
-21.761
-21.61
-18.722
-12.392
-3.251
7.889
20.719
36.329
57.585
87.909
129.455
181.558
241.307
303.21
360.399
406.246
432.638
432.444
401.246
337.734
246.851
137.184
17.359
-106.045
-231.059
-357.837
-484.556
-604.906
-707.955
-781.879
-818.853
-818.367
-786.872
-734.393
-670.546
-601.621
-530.286
-457.183
-382.833
-309.043
-238.96
-176.21
-123.685
-82.598
-52.587
-32.503
-21.163
-17.366
-19.676
-25.52
-31.328
-34.51
-33.804
-29.973
-25.565
-22.122
-20.079
-18.922
-17.135
-13.939
-9.304
-3.824
1.44
5.552
7.488
7.475
6.618
5.902
7.114
10.579
14.771
18.759
20.864
20.13
18.32
16.873
17.755
23.363
33.14
45.428
57.522
65.407
67.421
64.374
58.977
55.406
56.376
61.972
70.19
77.938
82.983
84.853
84.494
83.468
82.836
82.915
83.549
84.37
85.269
86.327
87.611
89.192
91.063
93.168
95.49
98.021
100.737
103.633
106.709
109.965
113.409
117.042
120.85
124.818
128.929
133.166
137.516
141.961
146.484
151.066
155.69
160.34
164.999
169.647
174.264
178.826
183.312
187.697
191.959
196.076
200.023
203.778
207.321
210.63
213.686
216.471
218.966
221.154
223.019
224.548
225.727
226.544
226.988
227.051
226.726
226.005
224.886
223.366
221.444
219.122
216.402
213.289
209.789
205.911
201.664
197.06
192.112
186.835
181.245
175.359
169.196
162.776
156.12
149.251
142.19
134.961
127.588
120.094
112.504
104.844
97.137
89.408
81.682
73.983
66.335
58.761
51.285
43.927
36.71
29.652
22.774
16.092
9.624
3.384
-2.614
-8.358
-13.836
-19.041
-23.965
-28.602
-32.948
-37.0
-40.757
-44.221
-47.393
-50.277
-52.878
-55.201
-57.255
-59.047
-60.587
-61.886
-62.954
-63.804
-64.449
-64.9
-65.173
-65.28
-65.235
-65.054
-64.749
-64.336
-63.827
-63.237
-62.579
-61.866
-61.109
-60.322
-59.515
-58.699
-57.884
-57.078
-56.29
-55.527
-54.797
-54.105
-53.457
-52.856
-52.308
-51.814
-51.377
-50.999
-50.681
-50.424
-50.227
-50.091
-50.015
-49.998
-50.038
-50.133
-50.283
-50.484
-50.734
-51.032
-51.374
-51.758
-52.181
-52.641
-53.135
-53.661
-54.217
-54.799
-55.407
-56.036
-56.687
-57.355
-58.041
-58.742
-59.456
-60.182
-60.919
-61.666
-62.421
-63.183
-63.951
-64.724
-65.5
-66.279
-67.06
-67.841
-68.621
-69.399
-70.174
-70.945
-71.711
-72.469
-73.22
-73.962
-74.693
-75.412
-76.119
-76.811
-77.487
-78.147
-78.79
-79.414
-80.018
-80.602
-81.164
-81.704
-82.222
-82.716
-83.185
-83.63
-84.05
-84.445
-84.814
-85.157
-85.475
-85.767
-86.034
-86.275
-86.49
-86.681
-86.845
-86.984
-87.097
-87.184
-87.243
-87.275
-87.279
-87.255
-87.201
-87.117
-87.002
-86.855
-86.674
-86.458
-86.205
-85.913
-85.581
-85.207
-84.789
-84.325
-83.813
-83.252
-82.64
-81.973
-81.252
-80.473
-79.635
-78.737
-77.778
-76.756
-75.672
-74.526
-73.319
-72.054
-70.733
-69.361
-67.942
-66.48
-64.98
-63.449
-61.892
-60.316
-58.728
-57.136
-55.548
-53.973
-52.42
-50.899
-49.42
-47.991
-46.621
-45.319
-44.093
-42.951
-41.899
-40.943
-40.087
-39.333
-38.687
-38.154
-37.736
-37.43
-37.229
-37.129
-37.12
-37.194
-37.334
-37.519
-37.728
-37.945
-38.152
-38.346
-38.516
-38.654
-38.754
-38.803
-38.796
-38.735
-38.62
-38.448
-38.231
-37.978
-37.713
-37.506
-37.432
-37.578
-38.037
-38.88
-40.16
-41.925
-44.222
-47.023
-50.223
-53.68
-57.226
-60.727
-64.09
-67.216
-69.947
-72.19
-73.993
-75.401
-76.469
-77.225
-77.62
-77.647
-77.47
-77.235
-76.96
-76.725
-76.68
-76.989
-77.866
-79.424
-81.155
-81.978
-80.772
-76.224
-67.757
-56.232
-42.528
-27.258
-9.665
13.47
45.864
90.272
146.791
211.744
278.569
338.878
384.024
405.869
398.086
357.762
286.17
189.328
75.887
-46.19
-172.086
-300.623
-431.421
-561.231
-681.736
-780.844
-847.378
-875.564
-867.166
-830.482
-775.878
-711.741
-643.127
-571.357
-496.426
-419.732
-343.776
-272.52
-210.085
-158.193
-117.099
-85.807
-62.702
-47.41
-39.518
-37.763
-40.017
-43.227
-45.08
-44.97
-43.856
-43.155
-43.543
-44.56
-44.91
-43.674
-40.621
-36.117
-31.023
-25.793
-20.715
-16.382
-12.8
-9.75
-6.959
-3.076
2.43
8.389
13.528
15.65
13.243
8.319
3.914
3.152
9.172
21.043
34.993
47.638
55.126
56.32
54.094
51.317
50.815
54.474
60.768
67.446
73.024
76.166
77.28
77.736
78.138
78.971
80.343
81.831
83.351
85.003
86.808
88.867
91.229
93.848
96.703
99.801
103.128
106.662
110.402
114.345
118.482
122.819
127.346
132.045
136.899
141.89
146.997
152.204
157.492
162.838
168.225
173.631
179.039
184.428
189.777
195.064
200.265
205.355
210.31
215.107
219.722
224.131
228.314
232.247
235.912
239.29
242.362
245.113
247.527
249.591
251.291
252.618
253.562
254.115
254.271
254.025
253.375
252.319
250.859
248.997
246.736
244.083
241.046
237.633
233.856
229.726
225.257
220.464
215.365
209.976
204.316
198.407
192.267
185.921
179.388
172.694
165.86
158.911
151.869
144.76
137.605
130.43
123.258
116.111
109.012
101.984
95.048
88.224
81.534
74.994
68.625
62.442
56.461
50.697
45.163
39.87
34.83
30.05
25.539
21.303
17.345
13.67
10.278
7.169
4.343
1.796
-0.475
-2.477
-4.214
-5.696
-6.93
-7.926
-8.694
-9.245
-9.592
-9.746
-9.72
-9.528
-9.184
-8.7
-8.092
-7.373
-6.556
-5.657
-4.688
-3.663
-2.594
-1.495
-0.378
0.747
1.868
2.975
4.058
5.109
6.12
7.084
7.993
8.843
9.628
10.346
10.991
11.562
12.057
12.475
12.816
13.079
13.266
13.377
13.415
13.383
13.282
13.117
12.89
12.606
12.268
11.882
11.452
10.982
10.477
9.943
9.383
8.803
8.209
7.603
6.992
6.38
5.77
5.168
4.576
3.998
3.439
2.899
2.384
1.894
1.433
1.002
0.603
0.237
-0.095
-0.392
-0.654
-0.88
-1.07
-1.225
-1.346
-1.433
-1.487
-1.509
-1.501
-1.465
-1.403
-1.317
-1.209
-1.081
-0.937
-0.78
-0.611
-0.435
-0.254
-0.07
0.112
0.29
0.46
0.621
0.768
0.898
1.01
1.099
1.164
1.202
1.211
1.188
1.132
1.04
0.912
0.745
0.54
0.295
0.009
-0.317
-0.683
-1.088
-1.531
-2.011
-2.524
-3.068
-3.64
-4.236
-4.853
-5.487
-6.133
-6.786
-7.441
-8.092
-8.734
-9.361
-9.967
-10.545
-11.088
-11.59
-12.045
-12.446
-12.787
-13.062
-13.264
-13.387
-13.426
-13.375
-13.228
-12.982
-12.631
-12.173
-11.605
-10.926
-10.136
-9.235
-8.225
-7.111
-5.895
-4.583
-3.18
-1.694
-0.132
1.497
3.184
4.919
6.691
8.488
10.299
12.11
13.91
15.686
17.426
19.117
20.747
22.305
23.781
25.168
26.46
27.649
28.729
29.691
30.531
31.249
31.846
32.324
32.685
32.935
33.086
33.161
33.177
33.151
33.09
32.994
32.862
32.697
32.509
32.311
32.109
31.906
31.693
31.481
31.291
31.103
30.862
30.466
29.783
28.722
27.249
25.313
22.836
19.816
16.301
12.446
8.537
4.748
1.143
-2.192
-5.157
-7.702
-9.802
-11.604
-13.447
-15.468
-17.654
-19.997
-22.485
-25.165
-28.09
-31.131
-33.977
-36.561
-38.995
-41.363
-43.749
-45.857
-46.969
-46.341
-43.112
-36.58
-26.778
-14.067
0.91
17.895
38.226
64.13
98.425
143.307
198.265
260.408
324.027
380.957
422.601
440.455
428.041
383.037
307.675
208.612
94.725
-26.317
-150.322
-276.27
-403.693
-529.296
-644.888
-739.146
-801.781
-827.481
-818.037
-781.004
-725.942
-661.086
-591.586
-519.577
-446.279
-373.384
-303.487
-239.958
-185.213
-140.156
-104.327
-76.067
-54.078
-37.649
-26.401
-20.301
-18.546
-19.753
-22.481
-25.255
-27.201
-28.173
-28.145
-26.846
-24.287
-20.231
-14.289
-7.402
-0.588
5.274
8.414
8.409
6.506
3.865
2.847
5.706
11.476
18.147
22.946
22.368
16.424
7.778
0.135
-2.136
2.738
13.563
26.958
38.868
46.733
49.668
49.279
48.118
47.757
49.311
52.383
55.674
58.617
60.803
62.243
63.447
64.576
65.63
66.664
67.639
68.588
69.632
70.85
72.278
73.953
75.894
78.101
80.574
83.309
86.286
89.488
92.905
96.526
100.339
104.336
108.504
112.825
117.283
121.858
126.531
131.285
136.101
140.96
145.841
150.725
155.594
160.429
165.209
169.913
174.519
179.004
183.345
187.52
191.508
195.286
198.834
202.131
205.159
207.902
210.341
212.462
214.25
215.693
216.778
217.496
217.837
217.793
217.359
216.529
215.302
213.675
211.648
209.225
206.407
203.2
199.612
195.649
191.323
186.645
181.627
176.283
170.63
164.684
158.464
151.988
145.277
138.353
131.238
123.953
116.524
108.973
101.324
93.601
85.83
78.034
70.237
62.464
54.739
47.085
39.525
32.081
24.775
17.626
10.655
3.879
-2.684
-9.018
-15.108
-20.942
-26.507
-31.794
-36.793
-41.499
-45.904
-50.006
-53.802
-57.291
-60.475
-63.356
-65.938
-68.225
-70.226
-71.946
-73.396
-74.586
-75.526
-76.229
-76.708
-76.974
-77.044
-76.931
-76.65
-76.215
-75.643
-74.949
-74.147
-73.253
-72.281
-71.246
-70.162
-69.043
-67.901
-66.748
-65.598
-64.46
-63.345
-62.262
-61.219
-60.224
-59.285
-58.406
-57.593
-56.849
-56.179
-55.585
-55.067
-54.627
-54.266
-53.981
-53.774
-53.64
-53.579
-53.587
-53.661
-53.798
-53.994
-54.244
-54.544
-54.89
-55.277
-55.7
-56.154
-56.635
-57.137
-57.657
-58.189
-58.729
-59.274
-59.818
-60.358
-60.892
-61.415
-61.924
-62.418
-62.893
-63.349
-63.782
-64.192
-64.577
-64.938
-65.274
-65.584
-65.87
-66.131
-66.368
-66.583
-66.775
-66.947
-67.1
-67.235
-67.355
-67.461
-67.555
-67.64
-67.718
-67.79
-67.86
-67.93
-68.001
-68.076
-68.158
-68.248
-68.349
-68.461
-68.588
-68.731
-68.891
-69.069
-69.266
-69.482
-69.717
-69.972
-70.245
-70.535
-70.841
-71.161
-71.494
-71.836
-72.185
-72.539
-72.894
-73.248
-73.596
-73.934
-74.258
-74.564
-74.847
-75.102
-75.324
-75.508
-75.65
-75.745
-75.786
-75.77
-75.692
-75.546
-75.328
-75.035
-74.661
-74.204
-73.661
-73.03
-72.311
-71.504
-70.61
-69.631
-68.571
-67.434
-66.223
-64.943
-63.6
-62.2
-60.749
-59.255
-57.725
-56.168
-54.595
-53.015
-51.441
-49.882
-48.348
-46.85
-45.397
-43.999
-42.665
-41.4
-40.212
-39.108
-38.096
-37.185
-36.381
-35.683
-35.089
-34.595
-34.196
-33.883
-33.643
-33.453
-33.298
-33.163
-33.038
-32.917
-32.793
-32.655
-32.495
-32.306
-32.086
-31.841
-31.578
-31.297
-31.007
-30.729
-30.501
-30.375
-30.414
-30.684
-31.256
-32.221
-33.667
-35.658
-38.248
-41.47
-45.268
-49.527
-54.117
-58.836
-63.49
-67.899
-71.83
-75.065
-77.553
-79.326
-80.417
-80.959
-81.059
-80.845
-80.614
-80.654
-81.07
-81.941
-83.394
-85.437
-88.114
-91.181
-93.78
-94.933
-93.582
-88.976
-81.12
-70.202
-56.604
-40.335
-20.18
5.481
38.739
81.422
133.219
191.918
252.767
308.019
348.632
365.575
351.701
304.672
228.179
130.12
20.396
-92.868
-206.779
-321.513
-437.826
-553.787
-661.615
-750.952
-812.249
-840.266
-836.854
-807.958
-761.15
-702.996
-636.99
-565.617
-491.227
-416.601
-345.693
-281.921
-227.118
-181.837
-145.008
-114.874
-90.486
-71.278
-57.15
-48.358
-44.168
-43.273
-44.367
-45.978
-47.376
-48.585
-49.463
-49.693
-48.452
-44.625
-37.685
-28.214
-18.484
-11.105
-7.936
-9.828
-14.789
-19.601
-22.067
-20.071
-13.931
-6.697
-0.369
2.89
1.79
-1.222
-3.831
-4.201
-0.223
7.016
15.345
23.485
29.777
34.097
37.575
40.644
43.713
46.918
49.815
52.274
54.386
56.189
57.809
59.334
60.759
62.104
63.418
64.745
66.129
67.628
69.296
71.169
73.282
75.651
78.281
81.175
84.335
87.753
91.417
95.315
99.435
103.769
108.307
113.037
117.942
123.005
128.205
133.526
138.949
144.454
150.023
155.633
161.264
166.895
172.504
178.069
183.564
188.965
194.246
199.38
204.343
209.109
213.654
217.954
221.985
225.726
229.156
232.257
235.01
237.398
239.405
241.019
242.226
243.016
243.379
243.309
242.8
241.848
240.453
238.614
236.333
233.616
230.469
226.899
222.917
218.536
213.769
208.632
203.142
197.318
191.18
184.751
178.053
171.109
163.946
156.588
149.062
141.393
133.61
125.739
117.808
109.843
101.871
93.92
86.016
78.183
70.449
62.836
55.369
48.069
40.959
34.057
27.382
20.952
14.782
8.885
3.276
-2.037
-7.044
-11.738
-16.113
-20.167
-23.896
-27.301
-30.384
-33.146
-35.592
-37.728
-39.562
-41.101
-42.354
-43.333
-44.048
-44.513
-44.739
-44.741
-44.532
-44.128
-43.543
-42.793
-41.892
-40.857
-39.702
-38.442
-37.092
-35.667
-34.18
-32.645
-31.075
-29.481
-27.876
-26.27
-24.674
-23.095
-21.543
-20.025
-18.548
-17.117
-15.739
-14.417
-13.155
-11.956
-10.822
-9.754
-8.754
-7.822
-6.958
-6.16
-5.428
-4.761
-4.155
-3.61
-3.122
-2.688
-2.307
-1.973
-1.685
-1.439
-1.232
-1.059
-0.92
-0.809
-0.725
-0.663
-0.623
-0.6
-0.593
-0.599
-0.617
-0.644
-0.68
-0.722
-0.77
-0.822
-0.879
-0.939
-1.002
-1.068
-1.137
-1.209
-1.283
-1.361
-1.443
-1.529
-1.621
-1.718
-1.822
-1.933
-2.053
-2.182
-2.321
-2.471
-2.632
-2.806
-2.993
-3.194
-3.409
-3.638
-3.882
-4.142
-4.416
-4.705
-5.007
-5.323
-5.651
-5.99
-6.338
-6.693
-7.053
-7.416
-7.778
-8.138
-8.492
-8.837
-9.17
-9.487
-9.785
-10.059
-10.305
-10.52
-10.699
-10.837
-10.93
-10.975
-10.966
-10.9
-10.772
-10.578
-10.314
-9.976
-9.561
-9.064
-8.483
-7.815
-7.059
-6.214
-5.279
-4.256
-3.146
-1.953
-0.679
0.67
2.092
3.58
5.129
6.731
8.381
10.071
11.792
13.536
15.292
17.05
18.798
20.528
22.229
23.892
25.507
27.064
28.554
29.971
31.308
32.56
33.719
34.776
35.725
36.57
37.313
37.959
38.516
38.991
39.397
39.754
40.08
40.39
40.699
41.008
41.323
41.65
41.994
42.367
42.775
43.214
43.677
44.156
44.637
45.11
45.556
45.909
46.092
46.01
45.56
44.686
43.351
41.497
39.067
36.063
32.573
28.79
24.953
21.215
17.66
14.396
11.572
9.321
7.637
6.32
5.171
4.143
3.271
2.617
1.986
0.889
-0.654
-2.242
-3.33
-3.038
-1.62
-0.274
0.279
-0.527
-1.863
-1.343
2.661
10.84
22.977
37.819
55.223
76.908
105.44
143.455
192.055
249.775
312.359
373.403
424.983
457.992
464.586
439.688
382.356
297.605
193.782
79.512
-38.719
-158.971
-281.702
-405.828
-526.208
-633.176
-714.893
-762.556
-774.116
-753.495
-709.478
-651.564
-585.904
-516.562
-445.339
-373.069
-302.207
-235.301
-174.48
-121.661
-77.161
-40.354
-10.918
11.724
28.015
38.057
42.731
43.405
41.464
38.507
35.711
33.673
32.62
32.628
33.989
36.728
41.115
47.301
54.249
61.249
67.488
71.765
74.245
75.481
76.128
77.513
80.665
85.367
90.403
94.544
96.065
94.745
92.878
92.088
94.21
100.212
108.011
116.092
123.335
128.604
132.74
136.427
139.736
143.044
146.106
148.662
150.854
152.719
154.332
155.809
157.169
158.424
159.616
160.788
161.979
163.24
164.634
166.203
167.976
169.982
172.228
174.72
177.463
180.453
183.678
187.13
190.798
194.672
198.748
203.011
207.448
212.041
216.77
221.618
226.567
231.597
236.69
241.825
246.981
252.139
257.277
262.374
267.406
272.349
277.177
281.864
286.387
290.721
294.84
298.723
302.346
305.688
308.729
311.452
313.838
315.87
317.535
318.819
319.711
320.201
320.279
319.941
319.18
317.995
316.383
314.347
311.888
309.01
305.721
302.029
297.943
293.475
288.639
283.449
277.921
272.075
265.929
259.503
252.82
245.901
238.772
231.455
223.975
216.358
208.628
200.812
192.933
185.018
177.092
169.179
161.305
153.491
145.763
138.141
130.649
123.305
116.13
109.143
102.359
95.795
89.465
83.382
77.557
72.001
66.721
61.724
57.016
52.599
48.477
44.648
41.113
37.868
34.909
32.232
29.83
27.695
25.819
24.192
22.804
21.644
20.701
19.962
19.413
19.043
18.838
18.784
18.868
19.076
19.395
19.81
20.31
20.881
21.51
22.187
22.899
23.635
24.385
25.14
25.889
26.626
27.342
28.03
28.684
29.298
29.869
30.391
30.861
31.276
31.635
31.934
32.174
32.353
32.47
32.526
32.521
32.456
32.331
32.148
31.909
31.615
31.267
30.867
30.418
29.921
29.378
28.792
28.165
27.498
26.794
26.056
25.284
24.482
23.651
22.792
21.909
21.002
20.074
19.126
18.159
17.176
16.177
15.165
14.141
13.106
12.062
11.011
9.953
8.891
7.825
6.758
5.689
4.622
3.557
2.496
1.439
0.389
-0.653
-1.687
-2.711
-3.724
-4.726
-5.715
-6.69
-7.652
-8.6
-9.533
-10.451
-11.353
-12.24
-13.112
-13.968
-14.809
-15.634
-16.445
-17.24
-18.021
-18.788
-19.539
-20.276
-20.998
-21.704
-22.395
-23.069
-23.725
-24.364
-24.983
-25.582
-26.16
-26.715
-27.247
-27.752
-28.23
-28.678
-29.094
-29.476
-29.822
-30.127
-30.391
-30.611
-30.783
-30.906
-30.975
-30.988
-30.944
-30.839
-30.671
-30.438
-30.139
-29.772
-29.338
-28.838
-28.272
-27.642
-26.952
-26.207
-25.41
-24.566
-23.68
-22.76
-21.811
-20.841
-19.857
-18.866
-17.877
-16.898
-15.937
-15.006
-14.11
-13.259
-12.461
-11.724
-11.057
-10.469
-9.961
-9.537
-9.198
-8.95
-8.798
-8.746
-8.791
-8.931
-9.164
-9.484
-9.887
-10.361
-10.884
-11.437
-12.001
-12.563
-13.119
-13.666
-14.201
-14.716
-15.199
-15.64
-16.042
-16.407
-16.732
-17.018
-17.271
-17.538
-17.907
-18.48
-19.361
-20.634
-22.356
-24.575
-27.351
-30.672
-34.441
-38.534
-42.784
-47.048
-51.259
-55.344
-59.166
-62.674
-65.919
-68.933
-71.788
-74.529
-77.109
-79.532
-81.95
-84.464
-87.057
-89.765
-92.678
-95.911
-99.578
-103.686
-107.682
-110.5
-111.085
-108.268
-101.472
-91.296
-78.494
-63.478
-45.516
-22.321
9.067
50.654
101.98
160.649
221.537
277.716
322.208
346.446
343.18
308.495
241.882
148.971
38.529
-81.353
-204.998
-331.226
-460.412
-590.275
-713.699
-818.872
-893.582
-930.245
-928.859
-896.738
-844.541
-781.915
-715.047
-646.0
-574.898
-502.617
-431.292
-364.604
-306.415
-258.434
-220.626
-191.655
-169.781
-154.445
-145.352
-141.571
-141.155
-141.299
-140.002
-136.828
-132.931
-130.013
-128.93
-129.422
-130.44
-130.993
-130.347
-128.626
-126.706
-125.338
-125.819
-128.535
-132.043
-134.635
-133.991
-128.61
-119.95
-110.803
-104.238
-102.981
-106.907
-113.221
-118.802
-120.723
-117.629
-111.099
-103.448
-96.488
-91.66
-88.7
-86.524
-84.703
-82.843
-80.932
-79.415
-78.35
-77.653
-77.301
-77.153
-77.121
-77.216
-77.409
-77.661
-77.952
-78.247
-78.493
-78.639
-78.646
-78.483
-78.135
-77.599
-76.875
-75.962
-74.868
-73.605
-72.183
-70.611
-68.898
-67.047
-65.067
-62.969
-60.766
-58.469
