45.784
49.317
52.607
55.575
58.125
60.181
61.695
62.643
63.017
62.815
62.05
60.758
59.003
56.871
54.439
51.758
48.868
45.809
42.632
39.408
36.218
33.122
30.166
27.383
24.799
22.438
20.311
18.406
16.689
15.11
13.635
12.248
10.945
9.724
8.574
7.482
6.431
5.419
4.445
3.511
2.615
1.754
0.934
0.169
-0.514
-1.086
-1.527
-1.828
-1.984
-1.993
-1.855
-1.569
-1.141
-0.581
0.1
0.894
1.797
2.801
3.899
5.077
6.323
7.62
8.958
10.325
11.709
13.1
14.488
15.866
17.227
18.566
19.878
21.156
22.393
23.583
24.719
25.796
26.809
27.753
28.623
29.417
30.132
30.768
31.323
31.797
32.189
32.502
32.735
32.89
32.968
32.972
32.903
32.765
32.559
32.289
31.958
31.57
31.126
30.631
30.088
29.499
28.868
28.197
27.49
26.75
25.981
25.186
24.369
23.534
22.685
21.826
20.96
20.092
19.225
18.361
17.505
16.659
15.827
15.012
14.217
13.445
12.699
11.982
11.298
10.651
10.041
9.473
8.949
8.474
8.048
7.675
7.358
7.099
6.899
6.762
6.687
6.676
6.728
6.844
7.021
7.258
7.552
7.899
8.297
8.741
9.227
9.749
10.303
10.883
11.484
12.101
12.727
13.357
13.984
14.6
15.2
15.776
16.322
16.829
17.292
17.704
18.065
18.372
18.623
18.815
18.941
19.001
18.997
18.93
18.802
18.618
18.38
18.103
17.809
17.515
17.238
16.988
16.767
16.58
16.44
16.356
16.343
16.404
16.534
16.734
17.011
17.363
17.778
18.217
18.611
18.902
19.045
19.008
18.778
18.321
17.582
16.508
15.048
13.161
10.84
8.032
4.624
0.591
-3.972
-8.828
-13.563
-17.79
-21.268
-23.717
-24.748
-24.133
-21.95
-18.647
-15.136
-12.375
-10.916
-11.238
-13.994
-19.486
-27.393
-36.765
-45.704
-51.949
-53.977
-50.34
-38.945
-18.366
11.878
51.64
98.096
147.606
198.674
248.302
294.06
333.968
361.149
370.572
357.765
317.82
253.571
168.793
69.104
-36.284
-144.543
-253.866
-362.275
-470.337
-571.299
-655.227
-714.622
-741.536
-736.842
-708.545
-663.511
-610.709
-554.826
-495.139
-433.093
-369.624
-306.445
-248.162
-197.537
-155.419
-122.362
-97.42
-79.041
-66.595
-59.134
-54.873
-52.35
-50.141
-46.821
-42.022
-35.966
-28.684
-20.524
-12.167
-4.145
2.79
7.836
10.842
11.975
11.493
9.86
7.518
4.836
2.295
0.385
-0.637
-0.668
0.267
2.029
4.513
7.628
11.259
15.27
19.538
23.957
28.436
32.903
37.289
41.513
45.497
49.168
52.465
55.355
57.843
59.948
61.701
63.143
64.312
65.258
66.04
66.712
67.325
67.925
68.547
69.232
70.023
70.958
72.074
73.397
74.935
76.694
78.673
80.868
83.271
85.871
88.648
91.586
94.669
97.884
101.217
104.651
108.167
111.743
115.36
118.996
122.631
126.245
129.816
133.323
136.747
140.066
143.263
146.318
149.21
151.92
154.429
156.718
158.77
160.57
162.1
163.349
164.304
164.956
165.297
165.32
165.019
164.393
163.44
162.159
160.553
158.626
156.382
153.827
150.97
147.821
144.389
140.689
136.732
132.535
128.111
123.479
118.655
113.657
108.504
103.214
97.807
92.303
86.722
81.081
75.403
69.705
64.007
58.327
52.684
47.094
41.575
36.142
30.81
25.593
20.506
15.56
10.766
6.137
1.681
-2.593
-6.677
-10.564
-14.249
-17.727
-20.995
-24.049
-26.889
-29.513
-31.923
-34.118
-36.103
-37.878
-39.448
-40.818
-41.993
-42.978
-43.78
-44.407
-44.864
-45.161
-45.306
-45.306
-45.171
-44.91
-44.53
-44.042
-43.454
-42.776
-42.016
-41.184
-40.288
-39.337
-38.34
-37.306
-36.241
-35.153
-34.051
-32.94
-31.827
-30.719
-29.621
-28.538
-27.475
-26.437
-25.427
-24.449
-23.505
-22.598
-21.73
-20.903
-20.118
-19.375
-18.676
-18.02
-17.407
-16.837
-16.309
-15.823
-15.377
-14.97
-14.6
-14.265
-13.964
-13.695
-13.456
-13.244
-13.057
-12.894
-12.753
-12.63
-12.526
-12.437
-12.362
-12.3
-12.248
-12.206
-12.173
-12.147
-12.127
-12.114
-12.107
-12.105
-12.108
-12.117
-12.131
-12.15
-12.174
-12.205
-12.241
-12.284
-12.334
-12.391
-12.456
-12.53
-12.612
-12.703
-12.803
-12.911
-13.029
-13.154
-13.286
-13.425
-13.569
-13.718
-13.87
-14.023
-14.176
-14.327
-14.474
-14.614
-14.746
-14.867
-14.973
-15.063
-15.132
-15.179
-15.201
-15.194
-15.156
-15.084
-14.975
-14.826
-14.636
-14.401
-14.12
-13.791
-13.412
-12.984
-12.507
-11.98
-11.407
-10.788
-10.129
-9.43
-8.697
-7.935
-7.146
-6.338
-5.514
-4.68
-3.841
-3.003
-2.171
-1.354
-0.557
0.212
0.949
1.645
2.294
2.888
3.422
3.893
4.299
4.636
4.899
5.08
5.177
5.191
5.126
4.984
4.771
4.49
4.156
3.792
3.422
3.066
2.74
2.451
2.207
2.027
1.927
1.926
2.032
2.238
2.536
2.927
3.404
3.946
4.515
5.036
5.43
5.637
5.602
5.285
4.655
3.656
2.223
0.303
-2.152
-5.163
-8.718
-12.85
-17.629
-23.009
-28.842
-34.84
-40.545
-45.58
-49.705
-52.603
-53.905
-53.433
-51.209
-47.606
-43.529
-39.787
-36.864
-35.298
-35.579
-37.823
-41.844
-46.832
-50.953
-52.41
-49.92
-41.832
-26.563
-3.306
28.507
67.701
110.566
154.789
198.947
241.696
283.669
320.867
344.943
348.197
322.257
265.892
185.624
89.272
-13.795
-119.33
-227.175
-336.964
-447.707
-551.782
-640.765
-707.349
-745.405
-757.728
-748.066
-719.987
-679.237
-626.799
-564.234
-495.422
-423.011
-351.182
-284.195
-224.48
-173.957
-133.707
-103.517
-82.381
-68.989
-61.841
-59
-58.586
-58.779
-57.767
-54.698
-49.557
-42.561
-34.202
-25.221
-16.307
-8.324
-2.243
1.577
3.223
2.968
1.317
-1.239
-4.275
-7.257
-9.614
-11.019
-11.338
-10.575
-8.871
-6.342
-3.079
0.783
5.093
9.71
14.518
19.422
24.35
29.226
33.958
38.458
42.644
46.448
49.834
52.795
55.345
57.51
59.331
60.847
62.111
63.182
64.119
64.972
65.789
66.612
67.484
68.448
69.548
70.822
72.294
73.978
75.879
77.997
80.328
82.866
85.598
88.506
91.575
94.789
98.136
101.603
105.172
108.827
112.547
116.311
120.102
123.899
127.683
131.434
135.13
138.753
142.282
145.7
148.986
152.121
155.084
157.855
160.416
162.748
164.836
166.663
168.215
169.48
170.446
171.105
171.45
171.474
171.172
170.543
169.585
168.299
166.687
164.752
162.5
159.937
157.072
153.916
150.478
146.772
142.812
138.612
134.189
129.561
124.745
119.759
114.624
109.359
103.983
98.518
92.983
87.399
81.786
76.164
70.552
64.969
59.432
53.959
48.567
43.272
38.087
33.027
28.106
23.334
18.722
14.282
10.021
5.948
2.068
-1.612
-5.089
-8.359
-11.421
-14.273
-16.916
-19.353
-21.584
-23.613
-25.445
-27.085
-28.539
-29.814
-30.917
-31.856
-32.638
-33.274
-33.771
-34.139
-34.388
-34.526
-34.562
-34.507
-34.369
-34.156
-33.879
-33.544
-33.162
-32.738
-32.282
-31.8
-31.298
-30.784
-30.263
-29.74
-29.22
-28.708
-28.206
-27.718
-27.247
-26.795
-26.363
-25.953
-25.565
-25.199
-24.857
-24.536
-24.237
-23.959
-23.7
-23.459
-23.235
-23.026
-22.831
-22.648
-22.475
-22.313
-22.157
-22.009
-21.865
-21.725
-21.588
-21.452
-21.318
-21.183
-21.047
-20.91
-20.773
-20.634
-20.494
-20.353
-20.213
-20.073
-19.935
-19.8
-19.669
-19.542
-19.423
-19.313
-19.212
-19.124
-19.05
-18.992
-18.951
-18.93
-18.93
-18.953
-19
-19.072
-19.171
-19.298
-19.453
-19.637
-19.851
-20.096
-20.37
-20.674
-21.007
-21.368
-21.756
-22.17
-22.608
-23.067
-23.545
-24.04
-24.549
-25.068
-25.595
-26.125
-26.655
-27.18
-27.696
-28.199
-28.682
-29.142
-29.574
-29.971
-30.33
-30.646
-30.913
-31.128
-31.285
-31.38
-31.41
-31.37
-31.257
-31.069
-30.803
-30.457
-30.032
-29.527
-28.942
-28.28
-27.542
-26.732
-25.854
-24.91
-23.908
-22.851
-21.747
-20.6
-19.418
-18.208
-16.976
-15.73
-14.479
-13.232
-11.996
-10.78
-9.594
-8.446
-7.345
-6.298
-5.307
-4.378
-3.514
-2.72
-2.005
-1.372
-0.82
-0.351
0.035
0.344
0.579
0.755
0.894
1.016
1.139
1.274
1.426
1.603
1.819
2.086
2.423
2.841
3.339
3.924
4.602
5.365
6.2
7.066
7.881
8.581
9.11
9.42
9.497
9.299
8.762
7.83
6.438
4.535
2.109
-0.897
-4.588
-8.963
-13.909
-19.168
-24.299
-28.916
-32.766
-35.54
-36.851
-36.489
-34.529
-31.404
-27.95
-24.965
-22.888
-22.127
-23.266
-26.552
-31.634
-37.57
-42.658
-45.018
-43.359
-36.371
-22.275
0.143
31.258
70.593
116.237
165.657
216.596
265.993
309.548
343.122
362.882
365.582
349.454
313.208
255.784
178.707
86.254
-16.944
-126.361
-240.199
-358.753
-478.343
-590.72
-683.582
-744.65
-768.974
-760.011
-727.376
-681.206
-628.102
-570.365
-507.027
-438.371
-366.577
-295.172
-229.26
-172.633
-126.892
-92.295
-67.686
-51.543
-42.868
-40.288
-41.675
-44.438
-46.041
-45.109
-41.42
-35.117
-26.482
-15.852
-3.806
8.206
18.539
26.434
31.737
34.595
35.476
34.59
32.061
28.717
25.46
22.766
20.974
20.129
20.041
20.772
22.447
24.866
27.846
31.246
34.864
38.665
42.646
46.696
50.729
54.693
58.502
62.123
65.549
68.732
71.682
74.404
76.866
79.079
81.061
82.829
84.438
85.934
87.347
88.716
90.075
91.455
92.904
94.45
96.099
97.861
99.723
101.69
103.796
106.056
108.476
111.057
113.783
116.643
119.639
122.761
125.991
129.31
132.694
136.126
139.601
143.11
146.644
150.188
153.708
157.177
160.572
163.869
167.049
170.088
172.958
175.639
178.117
180.378
182.41
184.197
185.722
186.967
187.92
188.572
188.915
188.944
188.653
188.04
187.103
185.844
184.267
182.375
180.171
177.657
174.842
171.732
168.337
164.667
160.735
156.552
152.133
147.495
142.653
137.625
132.428
127.08
121.599
116.004
110.315
104.55
98.728
92.868
86.989
81.11
75.25
69.425
63.653
57.949
52.331
46.811
41.405
36.125
30.984
25.992
21.16
16.498
12.015
7.718
3.615
-0.289
-3.988
-7.48
-10.76
-13.827
-16.681
-19.322
-21.749
-23.966
-25.975
-27.778
-29.381
-30.787
-32.004
-33.035
-33.889
-34.572
-35.092
-35.458
-35.677
-35.759
-35.711
-35.542
-35.262
-34.879
-34.402
-33.84
-33.202
-32.496
-31.73
-30.914
-30.055
-29.162
-28.242
-27.302
-26.349
-25.391
-24.432
-23.479
-22.538
-21.613
-20.71
-19.831
-18.982
-18.165
-17.383
-16.638
-15.932
-15.267
-14.643
-14.06
-13.52
-13.02
-12.563
-12.146
-11.768
-11.429
-11.128
-10.862
-10.63
-10.43
-10.26
-10.118
-10.001
-9.908
-9.835
-9.782
-9.745
-9.723
-9.713
-9.713
-9.723
-9.739
-9.76
-9.786
-9.814
-9.844
-9.876
-9.908
-9.942
-9.977
-10.014
-10.054
-10.097
-10.144
-10.196
-10.255
-10.322
-10.397
-10.482
-10.578
-10.687
-10.81
-10.948
-11.103
-11.275
-11.466
-11.677
-11.907
-12.157
-12.428
-12.719
-13.03
-13.359
-13.706
-14.069
-14.447
-14.837
-15.237
-15.644
-16.054
-16.464
-16.869
-17.265
-17.647
-18.011
-18.352
-18.665
-18.945
-19.189
-19.39
-19.545
-19.65
-19.7
-19.691
-19.621
-19.485
-19.282
-19.009
-18.664
-18.248
-17.759
-17.199
-16.569
-15.873
-15.112
-14.291
-13.415
-12.488
-11.516
-10.507
-9.467
-8.402
-7.321
-6.231
-5.142
-4.063
-3.003
-1.971
-0.975
-0.025
0.87
1.701
2.462
3.148
3.756
4.282
4.72
5.063
5.308
5.458
5.513
5.477
5.355
5.153
4.885
4.574
4.242
3.911
3.596
3.307
3.056
2.859
2.734
2.7
2.767
2.933
3.204
3.582
4.06
4.623
5.233
5.82
6.314
6.653
6.776
6.641
6.208
5.426
4.24
2.597
0.456
-2.211
-5.41
-9.181
-13.584
-18.562
-23.954
-29.471
-34.682
-39.222
-42.838
-45.174
-45.806
-44.618
-41.688
-37.406
-32.687
-28.177
-24.24
-21.544
-20.69
-21.718
-24.437
-27.937
-30.313
-30.275
-26.753
-17.79
-1.899
21.678
53.645
92.177
134.196
178.811
223.532
266.472
306.323
335.957
349.318
340.769
304.365
243.189
162.436
67.672
-34.458
-144.845
-265.399
-393.649
-522.565
-636.874
-721.187
-767.777
-777.565
-760.487
-727.319
-684.319
-633.878
-574.53
-506.481
-433.168
-358.874
-288.996
-227.487
-176.164
-135.892
-106.25
-85.841
-73.035
-66.236
-63.433
-62.637
-62.024
-59.804
-55.12
-48.066
-39.034
-28.598
-17.572
-6.713
3.113
10.877
16.157
19.039
19.788
18.936
17.01
14.426
11.716
9.445
7.925
7.301
7.579
8.591
10.213
12.355
14.891
17.718
20.759
23.944
27.225
30.55
33.854
37.073
40.146
43.01
45.63
47.983
50.082
51.995
53.782
55.506
57.211
58.914
60.624
62.346
64.083
65.85
67.661
69.531
71.481
73.534
75.708
78.014
80.441
82.949
85.505
88.079
90.657
93.245
95.858
98.518
101.248
104.065
106.981
109.999
113.114
116.314
119.584
122.907
126.273
129.682
133.13
136.611
140.11
143.602
147.058
150.44
153.713
156.838
159.784
162.524
165.034
167.296
169.296
171.021
172.459
173.597
174.422
174.922
175.086
174.91
174.388
173.522
172.313
170.763
168.879
166.665
164.126
161.27
158.104
154.634
150.87
146.823
142.507
137.936
133.127
128.097
122.864
117.45
111.873
106.155
100.317
94.379
88.361
82.286
76.174
70.045
63.92
57.819
51.761
45.764
39.846
34.024
28.316
22.735
17.296
12.013
6.898
1.963
-2.782
-7.329
-11.668
-15.794
-19.7
-23.382
-26.836
-30.061
-33.055
-35.82
-38.356
-40.666
-42.755
-44.626
-46.285
-47.739
-48.994
-50.059
-50.94
-51.648
-52.19
-52.577
-52.818
-52.924
-52.904
-52.768
-52.527
-52.191
-51.77
-51.275
-50.714
-50.097
-49.434
-48.732
-48.001
-47.249
-46.482
-45.709
-44.934
-44.165
-43.408
-42.666
-41.944
-41.247
-40.578
-39.939
-39.334
-38.763
-38.229
-37.733
-37.274
-36.854
-36.473
-36.129
-35.822
-35.552
-35.317
-35.115
-34.945
-34.805
-34.693
-34.607
-34.546
-34.507
-34.488
-34.488
-34.504
-34.536
-34.581
-34.639
-34.706
-34.784
-34.869
-34.961
-35.06
-35.164
-35.273
-35.386
-35.502
-35.622
-35.745
-35.871
-36
-36.132
-36.267
-36.405
-36.548
-36.695
-36.847
-37.004
-37.168
-37.339
-37.518
-37.705
-37.901
-38.106
-38.321
-38.545
-38.78
-39.024
-39.278
-39.541
-39.812
-40.09
-40.374
-40.662
-40.954
-41.246
-41.539
-41.828
-42.113
-42.391
-42.66
-42.918
-43.161
-43.387
-43.593
-43.777
-43.934
-44.062
-44.157
-44.216
-44.237
-44.215
-44.147
-44.031
-43.863
-43.64
-43.36
-43.02
-42.619
-42.154
-41.625
-41.032
-40.375
-39.655
-38.873
-38.033
-37.137
-36.189
-35.193
-34.152
-33.071
-31.955
-30.808
-29.637
-28.444
-27.238
-26.025
-24.812
-23.606
-22.414
-21.243
-20.1
-18.994
-17.932
-16.921
-15.966
-15.07
-14.238
-13.479
-12.799
-12.205
-11.695
-11.269
-10.923
-10.651
-10.447
-10.299
-10.186
-10.086
-9.98
-9.851
-9.692
-9.492
-9.238
-8.914
-8.501
-7.987
-7.374
-6.666
-5.866
-4.987
-4.046
-3.082
-2.161
-1.351
-0.723
-0.337
-0.243
-0.482
-1.094
-2.125
-3.629
-5.654
-8.228
-11.379
-15.108
-19.429
-24.388
-29.893
-35.733
-41.616
-47.11
-51.841
-55.578
-57.982
-58.644
-57.488
-54.631
-50.454
-45.851
-41.457
-37.582
-34.84
-33.77
-34.32
-36.216
-38.544
-39.458
-37.602
-31.924
-20.768
-2.834
22.449
55.278
94.56
137.906
183.188
227.852
268.097
300.097
320.17
324.959
312.399
281.323
230.931
161.546
76.074
-20.498
-123.828
-230.031
-336.785
-443.717
-545.229
-632.41
-697.39
-731.553
-734.637
-714.003
-676.019
-628.763
-576.54
-518.289
-455.279
-389.199
-322.228
-259.008
-202.72
-154.745
-116.129
-86.593
-64.99
-50.418
-41.793
-37.405
-35.637
-34.909
-33.525
-30.647
-26.211
-20.257
-13.096
-5.352
2.425
9.485
14.903
18.349
19.91
19.81
18.503
16.452
14.03
11.742
10.155
9.555
10.048
11.612
14.081
17.333
21.28
25.777
30.666
35.806
41.078
46.387
51.675
56.856
61.836
66.526
70.835
74.718
78.16
81.167
83.77
86.001
87.902
89.524
90.926
92.166
93.298
94.369
95.423
96.504
97.659
98.934
100.378
102.02
103.878
105.964
108.278
110.82
113.585
116.563
119.736
123.09
126.61
130.285
134.102
138.047
142.101
146.245
150.457
154.718
159.008
163.306
167.591
171.842
176.038
180.158
184.182
188.09
191.859
195.468
198.894
202.115
205.112
207.864
210.352
212.558
214.465
216.06
217.329
218.261
218.846
219.076
218.945
218.448
217.583
216.348
214.744
212.774
210.443
207.756
204.722
201.351
197.653
193.642
189.331
184.737
179.876
174.766
169.426
163.875
158.134
152.224
146.166
139.982
133.694
127.325
120.898
114.435
107.957
101.488
95.047
88.656
82.334
76.101
69.976
63.975
58.116
52.414
46.884
41.539
36.392
31.452
26.73
22.234
17.97
13.944
10.16
6.621
3.329
0.284
-2.515
-5.069
-7.382
-9.457
-11.3
-12.916
-14.312
-15.496
-16.477
-17.263
-17.864
-18.291
-18.554
-18.665
-18.633
-18.472
-18.193
-17.807
-17.327
-16.763
-16.129
-15.434
-14.689
-13.906
-13.094
-12.262
-11.419
-10.574
-9.734
-8.906
-8.097
-7.312
-6.557
-5.837
-5.155
-4.515
-3.921
-3.375
-2.878
-2.432
-2.039
-1.698
-1.41
-1.175
-0.992
-0.859
-0.776
-0.74
-0.75
-0.802
-0.895
-1.027
-1.193
-1.392
-1.62
-1.876
-2.156
-2.459
-2.782
-3.125
-3.484
-3.86
-4.25
-4.655
-5.072
-5.502
-5.944
-6.398
-6.864
-7.341
-7.83
-8.329
-8.838
-9.358
-9.887
-10.425
-10.971
-11.524
-12.085
-12.651
-13.223
-13.799
-14.379
-14.962
-15.547
-16.133
-16.717
-17.298
-17.874
-18.442
-19
-19.543
-20.069
-20.575
-21.055
-21.507
-21.924
-22.304
-22.641
-22.93
-23.166
-23.346
-23.466
-23.521
-23.51
-23.43
-23.279
-23.058
-22.765
-22.404
-21.972
-21.473
-20.907
-20.277
-19.585
-18.834
-18.027
-17.167
-16.26
-15.311
-14.329
-13.319
-12.289
-11.247
-10.2
-9.158
-8.13
-7.124
-6.147
-5.207
-4.313
-3.475
-2.706
-2.013
-1.4
-0.866
-0.411
-0.031
0.277
0.524
0.726
0.898
1.053
1.201
1.345
1.493
1.657
1.846
2.078
2.362
2.694
3.072
3.492
3.94
4.405
4.86
5.256
5.552
5.709
5.679
5.436
4.946
4.174
3.1
1.691
-0.09
-2.263
-4.855
-7.888
-11.347
-15.245
-19.611
-24.378
-29.404
-34.461
-39.209
-43.355
-46.707
-49.024
-49.984
-49.393
-47.296
-44.026
-40.228
-36.527
-33.245
-30.62
-29.109
-29.029
-30.246
-32.197
-33.678
-33.226
-29.9
-23.009
-11.397
6.13
30.171
60.768
97.04
136.257
176.025
215.374
251.36
282.52
307.729
320.715
317.321
293.366
243.859
172.021
83.47
-15.914
-119.494
-224.542
-330.746
-436.146
-533.772
-616.411
-676.644
-708.5
-715.426
-701.52
-670.538
-628.543
-576.433
-515.537
-449.616
-381
-313.517
-251.132
-196.023
-149.798
-113.263
-86.052
-67.074
-55.085
-48.68
-46.012
-45.346
-45.081
-43.643
-40.334
-35.216
-28.487
-20.609
-12.321
-4.266
2.786
7.979
11.048
12.122
11.467
9.558
6.88
3.841
0.95
-1.253
-2.499
-2.692
-1.847
-0.111
2.411
5.636
9.433
13.654
18.168
22.862
27.649
32.464
37.219
41.815
46.158
50.152
53.749
56.927
59.687
62.052
64.052
65.721
67.11
68.275
69.274
70.159
70.979
71.775
72.595
73.487
74.498
75.677
77.055
78.648
80.469
82.519
84.795
87.293
90
92.899
95.974
99.21
102.592
106.109
109.745
113.48
117.295
121.167
125.078
129.007
132.933
136.837
140.697
144.493
148.205
151.814
155.3
158.641
161.815
164.802
167.58
170.13
172.433
174.471
176.227
177.688
178.839
179.672
180.175
180.342
180.167
179.646
178.776
177.557
175.991
174.08
171.828
169.243
166.332
163.105
159.571
155.744
151.637
147.264
142.642
137.786
132.715
127.448
122.003
116.4
110.66
104.804
98.853
92.828
86.75
80.641
74.522
68.412
62.333
56.302
50.339
44.461
38.685
33.028
27.505
22.129
16.914
11.873
7.015
2.352
-2.109
-6.358
-10.391
-14.199
-17.78
-21.13
-24.246
-27.126
-29.771
-32.18
-34.356
-36.301
-38.019
-39.514
-40.792
-41.859
-42.722
-43.39
-43.87
-44.171
-44.303
-44.276
-44.1
-43.787
-43.346
-42.789
-42.127
-41.37
-40.531
-39.62
-38.647
-37.623
-36.559
-35.465
-34.35
-33.224
-32.097
-30.977
-29.872
-28.792
-27.742
-26.731
-25.765
-24.848
-23.987
-23.186
-22.448
-21.777
-21.175
-20.645
-20.186
-19.8
-19.487
-19.245
-19.073
-18.969
-18.931
-18.955
-19.039
-19.179
-19.372
-19.613
-19.901
-20.229
-20.595
-20.994
-21.421
-21.871
-22.341
-22.825
-23.319
-23.819
-24.321
-24.821
-25.315
-25.801
-26.277
-26.741
-27.189
-27.621
-28.035
-28.432
-28.81
-29.17
-29.513
-29.839
-30.15
-30.448
-30.735
-31.013
-31.283
-31.547
-31.806
-32.061
-32.311
-32.559
-32.804
-33.049
-33.294
-33.54
-33.79
-34.048
-34.314
-34.591
-34.878
-35.174
-35.477
-35.783
-36.09
-36.391
-36.683
-36.958
-37.213
-37.444
-37.649
-37.823
-37.961
-38.05
-38.087
-38.068
-37.992
-37.862
-37.68
-37.451
-37.185
-36.902
-36.621
-36.359
-36.125
-35.913
-35.723
-35.554
-35.404
-35.276
-35.16
-35.032
-34.873
-34.667
-34.396
-34.046
-33.586
-32.967
-32.146
-31.087
-29.773
-28.213
-26.412
-24.371
-22.099
-19.609
-16.938
-14.152
-11.304
-8.436
-5.59
-2.797
-0.112
2.386
4.628
6.561
8.149
9.38
10.238
10.683
10.691
10.246
9.361
8.081
6.436
4.433
2.074
-0.65
-3.729
-7.135
-10.841
-14.83
-19.091
-23.631
-28.44
-33.473
-38.691
-44.027
-49.458
-55.013
-60.616
-66.095
-71.193
-75.515
-78.694
-80.485
-80.547
-78.479
-74.23
-67.93
-59.986
-51.357
-42.835
-34.963
-28.571
-24.32
-22.184
-21.874
-22.492
-22.158
-19.388
-12.833
-0.508
18.99
46.162
81.028
122.344
167.649
214.585
260.073
299.712
329.363
345.286
344.22
324.141
283.898
222.964
142.185
45.42
-62.43
-177.368
-294.251
-410.082
-521.724
-620.746
-700.822
-755.939
-780.789
-779.082
-754.816
-711.996
-657.489
-593.17
-521.434
-446.649
-371.199
-299.374
-235.365
-181.207
-138.308
-106.648
-84.755
-70.937
-63.61
-60.703
-60.088
-59.817
-58.039
-53.851
-47.33
-38.899
-29.137
-18.879
-8.954
-0.276
6.142
9.897
11.127
10.172
7.583
3.923
-0.323
-4.574
-8.209
-10.853
-12.351
-12.682
-11.971
-10.327
-7.824
-4.587
-0.76
3.525
8.143
12.988
17.983
23.037
28.042
32.893
37.484
41.723
45.56
48.976
51.974
54.576
56.811
58.718
60.345
61.753
63.002
64.145
65.234
66.31
67.423
68.621
69.954
71.468
73.19
75.136
77.313
79.721
82.356
85.212
88.272
91.517
94.928
98.488
102.183
105.999
109.917
113.916
117.975
122.072
126.185
130.294
134.378
138.415
142.385
146.266
150.04
153.687
157.187
160.52
163.664
166.6
169.307
171.767
173.963
175.877
177.495
178.805
179.794
180.453
180.775
180.754
180.385
179.666
178.596
177.176
175.41
173.3
170.854
168.08
164.986
161.584
157.887
153.907
149.661
145.165
140.435
135.491
130.351
125.035
119.564
113.958
108.239
102.427
96.545
90.613
84.653
78.687
72.734
66.814
60.947
55.151
49.445
43.844
38.365
33.022
27.83
22.802
17.948
13.279
8.806
4.535
0.473
-3.373
-7
-10.405
-13.586
-16.541
-19.272
-21.781
-24.069
-26.14
-27.999
-29.651
-31.102
-32.359
-33.429
-34.321
-35.042
-35.603
-36.013
-36.281
-36.418
-36.433
-36.337
-36.139
-35.851
-35.482
-35.043
-34.542
-33.99
-33.395
-32.767
-32.113
-31.442
-30.76
-30.075
-29.392
-28.717
-28.055
-27.41
-26.787
-26.188
-25.617
-25.075
-24.565
-24.087
-23.644
-23.234
-22.859
-22.519
-22.212
-21.939
-21.697
-21.487
-21.305
-21.152
-21.025
-20.921
-20.84
-20.78
-20.737
-20.71
-20.698
-20.697
-20.708
-20.727
-20.754
-20.788
-20.827
-20.871
-20.921
-20.975
-21.034
-21.098
-21.169
-21.247
-21.333
-21.429
-21.535
-21.652
-21.784
-21.929
-22.091
-22.271
-22.468
-22.686
-22.925
-23.185
-23.468
-23.775
-24.105
-24.46
-24.839
-25.242
-25.669
-26.118
-26.589
-27.079
-27.588
-28.113
-28.652
-29.202
-29.759
-30.32
-30.881
-31.437
-31.983
-32.515
-33.027
-33.513
-33.97
-34.391
-34.772
-35.107
-35.391
-35.619
-35.788
-35.894
-35.932
-35.899
-35.794
-35.614
-35.358
-35.025
-34.616
-34.132
-33.575
-32.948
-32.255
-31.5
-30.688
-29.825
-28.917
-27.971
-26.993
-25.992
-24.974
-23.947
-22.921
-21.906
-20.912
-19.95
-19.028
-18.156
-17.344
-16.598
-15.922
-15.321
-14.799
-14.36
-14.013
-13.764
-13.614
-13.563
-13.612
-13.754
-13.984
-14.284
-14.632
-15.009
-15.396
-15.781
-16.158
-16.517
-16.842
-17.119
-17.326
-17.446
-17.474
-17.401
-17.215
-16.918
-16.529
-16.094
-15.68
-15.348
-15.134
-15.063
-15.164
-15.488
-16.1
-17.069
-18.454
-20.284
-22.615
-25.542
-29.103
-33.25
-37.798
-42.388
-46.694
-50.493
-53.538
-55.552
-56.353
-55.853
-54.333
-52.463
-50.775
-49.632
-49.3
-49.923
-51.648
-54.496
-57.798
-60.286
-60.756
-58.009
-51.131
-39.434
-21.898
2.356
33.297
70.157
111.69
156.08
201.575
246.131
286.57
319.3
341.073
349.053
340.881
314.836
269.679
204.988
123.017
28.397
-75.155
-184.127
-295.965
-410.104
-520.392
-617.078
-691.407
-733.827
-743.47
-727.354
-691.922
-645.383
-591.966
-530.767
-463.399
-392.043
-319.588
-251.293
-190.7
-139.532
-99.032
-68.928
-47.979
-34.981
-28.493
-26.478
-26.995
-28.195
-28.193
-26.059
-21.735
-15.381
-7.454
1.283
10.115
18.159
24.399
28.452
30.398
30.488
29.214
27.077
24.497
22.02
20.236
19.447
19.759
21.15
23.451
26.539
30.32
34.649
39.363
44.321
49.403
54.521
59.612
64.591
69.362
73.831
77.906
81.539
84.715
87.436
89.73
91.627
93.169
94.407
95.403
96.215
96.901
97.512
98.091
98.69
99.357
100.144
101.101
102.261
103.644
105.262
107.118
109.214
111.544
114.099
116.861
119.816
122.951
126.25
129.703
133.293
137.001
140.807
144.688
148.624
152.595
156.578
160.551
164.494
168.383
172.198
175.917
179.519
182.98
186.277
189.387
192.286
194.955
197.371
199.516
201.372
202.922
204.153
205.053
205.612
205.821
205.674
205.167
204.297
203.065
201.471
199.521
197.218
194.571
191.589
188.282
184.662
180.744
176.543
172.075
167.357
162.408
157.248
151.897
146.376
140.707
134.911
129.011
123.029
116.988
110.909
104.815
98.726
92.665
86.65
80.7
74.834
69.069
63.42
57.903
52.531
47.317
42.271
37.405
32.726
28.242
23.96
19.884
16.019
12.367
8.931
5.71
2.705
-0.086
-2.664
-5.033
-7.197
-9.161
-10.93
-12.509
-13.907
-15.129
-16.184
-17.08
-17.826
-18.429
-18.9
-19.247
-19.479
-19.605
-19.635
-19.577
-19.441
-19.233
-18.964
-18.639
-18.268
-17.857
-17.413
-16.943
-16.453
-15.949
-15.437
-14.921
-14.407
-13.9
-13.403
-12.92
-12.456
-12.014
-11.597
-11.206
-10.846
-10.517
-10.221
-9.96
-9.734
-9.545
-9.392
-9.274
-9.193
-9.147
-9.135
-9.156
-9.21
-9.294
-9.407
-9.549
-9.717
-9.909
-10.125
-10.362
-10.619
-10.893
-11.184
-11.489
-11.807
-12.135
-12.471
-12.815
-13.164
-13.515
-13.868
-14.221
-14.572
-14.921
-15.265
-15.604
-15.937
-16.264
-16.585
-16.9
-17.209
-17.513
-17.812
-18.109
-18.403
-18.696
-18.989
-19.283
-19.58
-19.881
-20.186
-20.496
-20.811
-21.133
-21.462
-21.797
-22.14
-22.489
-22.846
-23.209
-23.578
-23.953
-24.333
-24.716
-25.101
-25.487
-25.87
-26.25
-26.622
-26.985
-27.334
-27.667
-27.978
-28.265
-28.522
-28.746
-28.93
-29.072
-29.166
-29.208
-29.196
-29.126
-28.995
-28.803
-28.549
-28.232
-27.853
-27.413
-26.913
-26.354
-25.74
-25.073
-24.356
-23.592
-22.786
-21.942
-21.067
-20.169
-19.253
-18.326
-17.395
-16.468
-15.553
-14.66
-13.795
-12.963
-12.172
-11.428
-10.74
-10.118
-9.567
-9.087
-8.678
-8.337
-8.061
-7.846
-7.682
-7.549
-7.435
-7.322
-7.201
-7.069
-6.917
-6.736
-6.514
-6.235
-5.892
-5.488
-5.026
-4.511
-3.95
-3.353
-2.748
-2.186
-1.712
-1.38
-1.228
-1.286
-1.585
-2.147
-3.005
-4.205
-5.78
-7.758
-10.165
-13.009
-16.324
-20.173
-24.531
-29.252
-34.094
-38.692
-42.713
-45.937
-48.088
-48.799
-47.84
-45.27
-41.485
-37.254
-33.352
-30.218
-28.224
-27.953
-29.771
-33.51
-38.427
-42.992
-45.403
-44.443
-39.003
-27.479
-8.588
18.293
53.086
94.262
139.5
186.836
233.739
276.414
310.965
333.551
340.542
329.74
299.687
248.903
178.252
91.477
-7.279
-113.914
-226.762
-346.448
-469.995
-588.829
-689.358
-757.89
-787.665
-781.589
-750.492
-705.482
-653.688
-597.429
-534.736
-465.454
-392.339
-319.276
-251.648
-193.234
-145.299
-108.315
-81.606
-63.635
-53.033
-48.21
-46.923
-47.179
-47.298
-45.774
-42.054
-36.331
-28.917
-20.402
-11.691
-3.554
3.205
7.799
10.075
10.259
8.703
5.953
2.559
-1.014
-4.236
-6.595
-7.854
-7.943
-6.906
-4.901
-2.045
1.562
5.774
10.439
15.417
20.587
25.845
31.111
36.282
41.255
45.933
50.222
54.075
57.474
60.425
62.956
65.1
66.897
68.399
69.666
70.756
71.726
72.627
73.506
74.41
75.389
76.489
77.755
79.217
80.89
82.782
84.892
87.218
89.752
92.484
95.394
98.468
101.692
105.052
108.538
112.132
115.819
119.579
123.393
127.243
131.11
134.976
138.822
142.63
146.379
150.052
153.632
157.097
160.43
163.608
166.612
169.423
172.022
174.392
176.514
178.375
179.959
181.256
182.253
182.941
183.314
183.363
183.084
182.474
181.532
180.255
178.647
176.71
174.447
171.865
168.971
165.775
162.285
158.515
154.476
150.183
145.651
140.897
135.937
130.791
125.476
120.012
114.42
108.72
102.932
97.076
91.175
85.247
79.313
73.392
67.505
61.669
55.902
50.223
44.647
39.192
33.871
28.699
23.69
18.856
14.208
9.757
5.511
1.479
-2.333
-5.919
-9.274
-12.396
-15.282
-17.932
-20.346
-22.527
-24.476
-26.198
-27.698
-28.982
-30.056
-30.927
-31.604
-32.096
-32.412
-32.562
-32.555
-32.402
-32.115
-31.704
-31.18
-30.554
-29.837
-29.041
-28.176
-27.253
-26.283
-25.276
-24.242
-23.19
-22.131
-21.071
-20.02
-18.985
-17.972
-16.988
-16.039
-15.129
-14.262
-13.441
-12.671
-11.952
-11.287
-10.677
-10.122
-9.622
-9.177
-8.787
-8.449
-8.163
-7.926
-7.736
-7.592
-7.49
-7.427
-7.401
-7.409
-7.447
-7.512
-7.6
-7.71
-7.836
-7.977
-8.128
-8.288
-8.453
-8.622
-8.791
-8.96
-9.126
-9.288
-9.445
-9.596
-9.741
-9.879
-10.01
-10.136
-10.256
-10.372
-10.483
-10.593
-10.701
-10.81
-10.92
-11.034
-11.153
-11.279
-11.414
-11.56
-11.719
-11.893
-12.083
-12.291
-12.518
-12.766
-13.036
-13.328
-13.642
-13.979
-14.339
-14.72
-15.123
-15.546
-15.989
-16.449
-16.924
-17.412
-17.911
-18.416
-18.924
-19.433
-19.937
-20.433
-20.917
-21.383
-21.829
-22.249
-22.638
-22.992
-23.305
-23.573
-23.792
-23.956
-24.063
-24.109
-24.091
-24.007
-23.855
-23.636
-23.35
-22.997
-22.579
-22.096
-21.553
-20.951
-20.294
-19.586
-18.831
-18.033
-17.2
-16.338
-15.456
-14.561
-13.66
-12.761
-11.873
-11.005
-10.166
-9.363
-8.601
-7.888
-7.231
-6.637
-6.117
-5.677
-5.315
-5.033
-4.826
-4.692
-4.625
-4.614
-4.642
-4.693
-4.751
-4.806
-4.855
-4.891
-4.905
-4.884
-4.815
-4.688
-4.509
-4.278
-4
-3.684
-3.34
-2.998
-2.709
-2.521
-2.488
-2.654
-3.045
-3.691
-4.611
-5.833
-7.4
-9.346
-11.701
-14.491
-17.725
-21.435
-25.69
-30.462
-35.601
-40.848
-45.818
-50.154
-53.622
-55.94
-56.73
-55.776
-53.165
-49.34
-45.138
-41.406
-38.636
-37.25
-37.868
-40.839
-45.92
-52.241
-58.108
-61.537
-61.139
-55.656
-43.366
-22.95
6.111
43.519
87.467
135.285
184.66
232.806
275.766
309.496
330.161
334.513
320.807
288.081
235.616
163.774
75.445
-24.397
-131.352
-241.51
-352.618
-464.307
-570.895
-663.327
-733.454
-772.308
-779.181
-760.904
-723.311
-674.066
-617.476
-552.829
-481.98
-407.43
-332.115
-261.381
-199.135
-147.292
-107.136
-78.396
-59.627
-49.392
-46.04
-47.238
-50.749
-54.544
-56.663
-56.169
-53.07
-47.604
-40.327
-32.144
-23.883
-16.487
-10.95
-7.604
-6.325
-6.81
-8.52
-10.909
-13.513
-15.775
-17.163
-17.437
-16.538
-14.539
-11.627
-7.943
-3.609
1.214
6.364
11.696
17.099
22.485
27.775
32.877
37.689
42.112
46.084
49.58
52.596
55.156
57.295
59.052
60.48
61.641
62.592
63.391
64.09
64.736
65.379
66.072
66.865
67.811
68.948
70.297
71.876
73.691
75.74
78.022
80.53
83.247
86.161
89.262
92.538
95.98
99.575
103.306
107.158
111.11
115.145
119.243
123.386
127.554
131.726
135.883
140.005
144.071
148.061
151.953
155.723
159.349
162.807
166.076
169.135
171.961
174.535
176.84
178.858
180.575
181.976
183.049
183.785
184.174
184.209
183.885
183.198
182.147
180.732
178.954
176.818
174.329
171.494
168.323
164.826
161.017
156.908
152.515
147.856
142.947
137.807
132.458
126.919
121.212
115.359
109.383
103.307
97.154
90.948
84.71
78.465
72.234
66.039
59.9
53.839
47.874
42.024
36.308
30.742
25.34
20.119
15.091
10.268
5.66
1.276
-2.875
-6.787
-10.456
-13.877
-17.048
-19.969
-22.639
-25.061
-27.237
-29.172
-30.87
-32.338
-33.583
-34.613
-35.438
-36.067
-36.51
-36.778
-36.883
-36.834
-36.645
-36.327
-35.892
-35.351
-34.716
-34
-33.212
-32.365
-31.468
-30.532
-29.566
-28.58
-27.582
-26.58
-25.582
-24.594
-23.623
-22.674
-21.752
-20.862
-20.007
-19.19
-18.413
-17.679
-16.988
-16.342
-15.741
-15.185
-14.674
-14.206
-13.781
-13.397
-13.053
-12.749
-12.48
-12.248
-12.048
-11.88
-11.742
-11.632
-11.549
-11.49
-11.456
-11.444
-11.453
-11.482
-11.531
-11.598
-11.683
-11.786
-11.906
-12.043
-12.197
-12.369
-12.559
-12.767
-12.993
-13.239
-13.505
-13.791
-14.099
-14.429
-14.781
-15.157
-15.556
-15.979
-16.425
-16.894
-17.387
-17.901
-18.437
-18.992
-19.564
-20.153
-20.757
-21.372
-21.997
-22.629
-23.265
-23.903
-24.539
-25.169
-25.79
-26.398
-26.989
-27.559
-28.104
-28.62
-29.102
-29.545
-29.946
-30.299
-30.6
-30.845
-31.03
-31.149
-31.199
-31.178
-31.083
-30.911
-30.661
-30.332
-29.924
-29.439
-28.879
-28.244
-27.538
-26.763
-25.922
-25.02
-24.06
-23.048
-21.987
-20.884
-19.747
-18.585
-17.403
-16.211
-15.017
-13.828
-12.653
-11.502
-10.383
-9.302
-8.267
-7.286
-6.369
-5.525
-4.762
-4.081
-3.481
-2.96
-2.512
-2.133
-1.812
-1.535
-1.286
-1.055
-0.83
-0.608
-0.382
-0.139
0.131
0.442
0.807
1.223
1.684
2.188
2.719
3.262
3.794
4.275
4.665
4.931
5.03
4.932
4.613
4.043
3.205
2.066
0.586
-1.264
-3.511
-6.179
-9.259
-12.763
-16.745
-21.16
-25.868
-30.638
-35.112
-38.969
-42.013
-44
-44.579
-43.559
-41.015
-37.349
-33.347
-29.767
-27.018
-25.451
-25.584
-27.695
-31.56
-36.384
-40.602
-42.447
-40.716
-34.31
-21.766
-1.952
25.659
60.885
102.179
147.23
194.008
239.981
281.549
315.001
336.549
342.677
331.414
301.673
252.542
184.461
99.589
1.133
-106.222
-217.041
-326.513
-429.655
-521.285
-597.239
-654.347
-690.615
-706.013
-701.533
-678.487
-639.365
-587.435
-526.228
-459.836
-392.033
-325.569
-263.072
-206.881
-158.513
-119.024
-88.548
-66.056
-50.33
-40.231
-34.172
-30.605
-28.027
-24.837
-20.265
-14.333
-7.224
0.68
8.78
16.553
23.299
28.163
30.85
31.467
30.283
27.788
24.452
20.674
16.964
13.882
11.758
10.743
10.853
11.963
13.971
16.79
20.291
24.32
28.734
33.408
38.241
43.152
48.057
52.857
57.455
61.762
65.705
69.241
72.361
75.074
77.405
79.391
81.073
82.501
83.736
84.833
85.843
86.814
87.787
88.804
89.91
91.146
92.55
94.147
95.946
97.953
100.165
102.577
105.18
107.959
110.895
113.972
117.174
120.487
123.897
127.388
130.941
134.538
138.159
141.785
145.398
148.98
152.511
155.973
159.348
162.618
165.767
168.776
171.627
174.301
176.78
179.046
181.084
182.877
184.412
185.674
186.653
187.339
187.723
187.799
187.562
187.006
186.129
184.931
183.411
181.571
179.414
176.944
174.166
171.089
167.72
164.068
160.145
155.963
151.536
146.876
142.001
136.925
131.666
126.241
120.669
114.968
109.157
103.256
97.285
91.263
85.209
79.143
73.084
67.05
61.058
55.127
49.272
43.51
37.857
32.327
26.933
21.691
16.611
11.706
6.985
2.46
-1.863
-5.974
-9.869
-13.541
-16.987
-20.203
-23.187
-25.939
-28.459
-30.748
-32.809
-34.646
-36.263
-37.666
-38.861
-39.856
-40.658
-41.276
-41.718
-41.996
-42.117
-42.093
-41.933
-41.649
-41.252
-40.751
-40.159
-39.487
-38.744
-37.943
-37.093
-36.205
-35.289
-34.353
-33.409
-32.462
-31.523
-30.599
-29.696
-28.822
-27.981
-27.18
-26.422
-25.711
-25.051
-24.443
-23.889
-23.391
-22.949
-22.563
-22.232
-21.956
-21.734
-21.564
-21.443
-21.37
-21.343
-21.358
-21.413
-21.504
-21.628
-21.782
-21.964
-22.169
-22.395
-22.638
-22.897
-23.168
-23.449
-23.738
-24.032
-24.33
-24.628
-24.927
-25.225
-25.521
-25.814
-26.104
-26.392
-26.675
-26.957
-27.236
-27.512
-27.788
-28.062
-28.335
-28.608
-28.882
-29.155
-29.43
-29.704
-29.98
-30.256
-30.533
-30.81
-31.085
-31.358
-31.628
-31.892
-32.149
-32.396
-32.632
-32.854
-33.059
-33.245
-33.408
-33.547
-33.656
-33.733
-33.774
-33.775
-33.734
-33.647
-33.51
-33.322
-33.08
-32.782
-32.426
-32.014
-31.544
-31.017
-30.436
-29.802
-29.116
-28.381
-27.601
-26.779
-25.919
-25.026
-24.103
-23.158
-22.196
-21.224
-20.251
-19.284
-18.329
-17.393
-16.485
-15.613
-14.783
-14.003
-13.277
-12.612
-12.016
-11.497
-11.063
-10.714
-10.448
-10.261
-10.147
-10.099
-10.106
-10.15
-10.214
-10.28
-10.334
-10.366
-10.367
-10.326
-10.222
-10.036
-9.755
-9.373
-8.899
-8.341
-7.707
-7.014
-6.297
-5.608
-5.004
-4.544
-4.278
-4.243
-4.489
-5.056
-5.983
-7.32
-9.109
-11.382
-14.159
-17.456
-21.258
-25.564
-30.38
-35.58
-40.962
-46.248
-51.044
-55.017
-57.943
-59.494
-59.28
-57.243
-53.498
-48.416
-42.863
-37.463
-32.562
-28.812
-26.78
-26.446
-27.569
-29.315
-29.931
-28.123
-22.781
-12.173
4.95
29.103
60.444
97.911
139.311
182.623
225.112
262.737
291.755
308.689
310.164
294.059
259.12
204.286
130.992
43.662
-54.192
-159.121
-268.345
-381.861
-494.046
-594.585
-674.53
-723.963
-741.02
-733.026
-706.152
-667.609
-621.942
-567.949
-506.608
-440.325
-371.521
-304.641
-243.507
-190.185
-145.892
-111.014
-84.899
-66.333
-54.444
-48.047
-45.265
-44.456
-43.99
-42.304
-38.917
-33.979
-27.549
-20.024
-12.112
-4.411
2.247
7.019
9.721
10.521
9.699
7.736
5.102
2.194
-0.476
-2.401
-3.339
-3.217
-2.085
-0.104
2.607
5.956
9.814
14.042
18.519
23.136
27.803
32.456
37.014
41.387
45.488
49.233
52.575
55.502
58.026
60.181
62.001
63.528
64.81
65.904
66.866
67.75
68.602
69.464
70.377
71.388
72.54
73.879
75.432
77.214
79.233
81.487
83.973
86.683
89.603
92.716
96.004
99.451
103.043
106.766
110.605
114.538
118.547
122.609
126.703
130.809
134.905
138.971
142.984
146.924
150.77
154.504
158.103
161.548
164.816
167.886
170.74
173.357
175.72
177.812
179.617
181.121
182.313
183.183
183.722
183.923
183.781
183.293
182.457
181.272
179.742
177.867
175.655
173.11
170.242
167.06
163.575
159.799
155.748
151.436
146.879
142.095
137.103
131.921
126.569
121.067
115.437
109.699
103.875
97.986
92.052
86.096
80.137
74.196
68.292
62.445
56.672
50.99
45.417
39.969
34.659
29.502
24.51
19.696
15.069
10.639
6.415
2.403
-1.391
-4.962
-8.306
-11.422
-14.308
-16.964
-19.391
-21.592
-23.57
-25.328
-26.871
-28.206
-29.339
-30.277
-31.027
-31.599
-32.001
-32.243
-32.333
-32.283
-32.101
-31.799
-31.387
-30.875
-30.274
-29.593
-28.844
-28.035
-27.176
-26.277
-25.345
-24.39
-23.419
-22.44
-21.46
-20.486
-19.524
-18.58
-17.658
-16.764
-15.901
-15.074
-14.286
-13.538
-12.834
-12.175
-11.563
-10.998
-10.481
-10.013
-9.592
-9.218
-8.891
-8.607
-8.367
-8.166
-8.005
-7.879
-7.788
-7.729
-7.699
-7.698
-7.722
-7.771
-7.841
-7.932
-8.04
-8.165
-8.303
-8.454
-8.615
-8.785
-8.962
-9.146
-9.336
-9.53
-9.727
-9.929
-10.133
-10.339
-10.548
-10.759
-10.974
-11.193
-11.416
-11.645
-11.882
-12.127
-12.383
-12.649
-12.925
-13.213
-13.513
-13.822
-14.14
-14.466
-14.798
-15.135
-15.478
-15.824
-16.173
-16.526
-16.883
-17.244
-17.606
-17.969
-18.328
-18.679
-19.018
-19.342
-19.643
-19.916
-20.156
-20.36
-20.526
-20.651
-20.731
-20.759
-20.726
-20.625
-20.458
-20.222
-19.921
-19.56
-19.147
-18.699
-18.243
-17.798
-17.373
-16.971
-16.587
-16.215
-15.854
-15.499
-15.146
-14.787
-14.412
-14.015
-13.597
-13.144
-12.639
-12.043
-11.297
-10.364
-9.231
-7.896
-6.38
-4.703
-2.888
-0.97
0.996
2.969
4.91
6.798
8.633
10.396
12.054
13.554
14.814
15.78
16.432
16.759
16.775
16.503
15.965
15.212
14.324
13.358
12.356
11.325
10.234
9.063
7.804
6.46
5.065
3.631
2.162
0.642
-0.97
-2.721
-4.665
-6.875
-9.428
-12.41
-15.927
-19.966
-24.372
-28.894
-33.159
-36.844
-39.76
-41.65
-42.146
-41.061
-38.484
-34.831
-30.894
-27.394
-24.669
-23.053
-23.099
-25.081
-28.754
-33.307
-37.16
-38.587
-36.453
-29.589
-16.346
4.45
33.266
69.815
112.413
158.77
206.853
253.804
295.51
327.99
347.485
350.544
335.107
299.844
243.528
167.575
76.506
-26.085
-136.532
-251.996
-372.633
-492.366
-600.181
-686.355
-740.058
-759.43
-752.307
-725.318
-686.207
-639.526
-583.847
-520.206
-451.141
-379.336
-309.524
-245.672
-189.964
-143.725
-107.421
-80.396
-61.33
-49.272
-42.997
-40.562
-40.26
-40.343
-39.072
-35.902
-30.997
-24.417
-16.57
-8.167
0.195
7.63
13.189
16.63
18.09
17.84
16.373
14.145
11.539
9.071
7.271
6.424
6.633
7.857
9.937
12.745
16.185
20.13
24.436
28.977
33.642
38.34
43.003
47.567
51.952
56.081
59.883
63.296
66.29
68.872
71.065
72.902
74.427
75.681
76.712
77.582
78.347
79.057
79.759
80.49
81.288
82.196
83.254
84.499
85.954
87.631
89.532
91.657
94.002
96.56
99.318
102.257
105.359
108.61
111.996
115.504
119.115
122.812
126.574
130.379
134.208
138.04
141.855
145.63
149.346
152.98
156.513
159.925
163.196
166.305
169.231
171.953
174.451
176.709
178.707
180.429
181.86
182.988
183.801
184.289
184.445
184.264
183.741
182.873
181.661
180.105
178.209
175.978
173.417
170.534
167.34
163.845
160.061
156.002
151.683
147.12
142.33
137.331
132.143
126.784
121.274
115.636
109.889
104.055
98.156
92.213
86.247
80.279
74.33
68.42
62.567
56.79
51.106
45.532
40.084
34.774
29.616
24.623
19.804
15.17
10.729
6.488
2.454
-1.37
-4.979
-8.371
-11.544
-14.498
-17.234
-19.754
-22.061
-24.158
-26.051
-27.745
-29.248
-30.565
-31.706
-32.678
-33.491
-34.154
-34.677
-35.07
-35.342
-35.504
-35.565
-35.535
-35.424
-35.24
-34.992
-34.688
-34.337
-33.945
-33.52
-33.069
-32.597
-32.11
-31.614
-31.112
-30.611
-30.112
-29.621
-29.138
-28.668
-28.21
-27.768
-27.343
-26.934
-26.542
-26.167
-25.81
-25.468
-25.142
-24.831
-24.533
-24.248
-23.974
-23.711
-23.458
-23.214
-22.978
-22.751
-22.533
-22.324
-22.123
-21.932
-21.75
-21.58
-21.421
-21.274
-21.142
-21.024
-20.923
-20.841
-20.778
-20.736
-20.718
-20.724
-20.756
-20.816
-20.906
-21.027
-21.179
-21.366
-21.587
-21.845
-22.139
-22.47
-22.838
-23.242
-23.683
-24.158
-24.666
-25.204
-25.77
-26.361
-26.974
-27.606
-28.252
-28.908
-29.571
-30.234
-30.895
-31.546
-32.183
-32.801
-33.394
-33.955
-34.481
-34.964
-35.401
-35.786
-36.113
-36.378
-36.576
-36.702
-36.753
-36.724
-36.612
-36.415
-36.131
-35.76
-35.301
-34.755
-34.125
-33.414
-32.625
-31.762
-30.83
-29.836
-28.785
-27.684
-26.54
-25.359
-24.15
-22.921
-21.682
-20.441
-19.209
-17.994
-16.806
-15.654
-14.548
-13.498
-12.512
-11.593
-10.748
-9.98
-9.298
-8.708
-8.216
-7.819
-7.516
-7.306
-7.184
-7.142
-7.168
-7.238
-7.329
-7.422
-7.502
-7.561
-7.59
-7.574
-7.497
-7.342
-7.099
-6.767
-6.346
-5.831
-5.223
-4.539
-3.812
-3.106
-2.493
-2.031
-1.772
-1.753
-1.998
-2.554
-3.478
-4.818
-6.626
-8.932
-11.744
-15.113
-19.119
-23.738
-28.826
-34.099
-39.129
-43.547
-47.106
-49.509
-50.374
-49.489
-46.933
-43.132
-38.891
-34.979
-31.796
-29.706
-29.268
-30.733
-33.806
-37.656
-40.7
-41.199
-38.023
-30.035
-15.629
6.3
36.131
73.524
116.758
163.494
211.702
258.575
300.056
332.24
351.449
354.231
338.513
303.043
246.604
170.497
79.139
-24.045
-135.616
-252.586
-374.898
-496.762
-607.207
-696.615
-754.399
-777.938
-774.198
-749.422
-710.892
-663.036
-604.813
-537.416
-463.429
-386.186
-311.208
-242.887
-183.938
-136.038
-99.243
-72.679
-55.085
-44.942
-40.387
-39.157
-38.977
-37.821
-34.547
-28.983
-21.391
-12.251
-2.257
7.722
16.654
23.433
27.538
29.05
28.289
25.806
22.156
17.837
13.463
9.692
6.921
5.295
4.798
5.257
6.522
8.506
11.08
14.111
17.49
21.124
24.939
28.872
32.843
36.755
40.515
44.032
47.241
50.131
52.728
55.098
57.313
59.431
61.495
63.534
65.569
67.604
69.645
71.706
73.8
75.954
78.198
80.564
83.074
85.732
88.517
91.386
94.298
97.222
100.141
103.051
105.96
108.892
111.868
114.907
118.021
121.209
124.462
127.768
131.112
134.477
137.856
141.25
144.656
148.07
151.481
154.867
158.202
161.45
164.575
167.543
170.324
172.892
175.227
177.313
179.136
180.688
181.959
182.937
183.611
183.971
184.008
183.717
183.098
182.15
180.876
179.281
177.37
175.149
172.625
169.805
166.696
163.305
159.641
155.715
151.539
147.128
142.496
137.66
132.637
127.447
122.108
116.638
111.059
105.388
99.645
93.851
88.024
82.183
76.348
70.538
64.769
59.06
53.428
47.889
42.458
37.149
31.977
26.952
22.088
17.394
12.88
8.554
4.424
0.496
-3.224
-6.732
-10.025
-13.1
-15.957
-18.595
-21.017
-23.225
-25.223
-27.014
-28.604
-29.998
-31.205
-32.23
-33.081
-33.767
-34.298
-34.681
-34.928
-35.046
-35.048
-34.942
-34.738
-34.447
-34.077
-33.638
-33.138
-32.587
-31.992
-31.362
-30.704
-30.026
-29.333
-28.634
-27.933
-27.236
-26.547
-25.872
-25.213
-24.574
-23.957
-23.365
-22.8
-22.263
-21.754
-21.275
-20.825
-20.403
-20.009
-19.642
-19.301
-18.984
-18.689
-18.415
-18.161
-17.925
-17.705
-17.5
-17.31
-17.132
-16.966
-16.812
-16.668
-16.534
-16.409
-16.294
-16.187
-16.089
-16
-15.922
-15.853
-15.795
-15.75
-15.717
-15.698
-15.694
-15.706
-15.737
-15.787
-15.859
-15.955
-16.075
-16.222
-16.398
-16.604
-16.841
-17.109
-17.409
-17.742
-18.106
-18.502
-18.927
-19.381
-19.862
-20.369
-20.898
-21.449
-22.017
-22.6
-23.195
-23.797
-24.403
-25.009
-25.609
-26.201
-26.779
-27.339
-27.876
-28.385
-28.86
-29.296
-29.688
-30.031
-30.319
-30.547
-30.71
-30.806
-30.83
-30.78
-30.654
-30.452
-30.175
-29.822
-29.396
-28.899
-28.332
-27.7
-27.006
-26.255
-25.451
-24.598
-23.704
-22.776
-21.822
-20.848
-19.864
-18.876
-17.893
-16.923
-15.977
-15.062
-14.184
-13.348
-12.564
-11.838
-11.184
-10.606
-10.106
-9.684
-9.338
-9.065
-8.86
-8.712
-8.603
-8.516
-8.432
-8.34
-8.236
-8.111
-7.953
-7.75
-7.483
-7.145
-6.739
-6.269
-5.74
-5.159
-4.541
-3.916
-3.342
-2.873
-2.565
-2.466
-2.607
-3.023
-3.739
-4.79
-6.224
-8.076
-10.373
-13.136
-16.369
-20.098
-24.381
-29.182
-34.34
-39.597
-44.58
-48.946
-52.479
-54.912
-55.872
-55.134
-52.749
-49.093
-44.937
-41.037
-37.798
-35.575
-34.908
-36.14
-39.137
-43.183
-46.787
-48.239
-46.358
-40.069
-27.935
-8.752
18.076
52.404
92.848
137.271
183.708
229.699
271.73
306.045
329.001
337.177
328.102
300.091
251.702
183.62
99.163
2.145
-103.667
-216.592
-336.461
-459.749
-578.175
-678.976
-749.368
-783.144
-782.647
-757.305
-717.298
-669.083
-614.805
-553.097
-484.172
-410.956
-337.44
-268.817
-208.73
-158.627
-119.242
-90.145
-70.021
-57.558
-51.209
-48.835
-48.468
-48.35
-46.818
-43.154
-37.439
-29.945
-21.223
-12.109
-3.35
4.221
9.731
12.927
13.983
13.221
11.175
8.377
5.276
2.411
0.327
-0.704
-0.596
0.62
2.783
5.771
9.487
13.785
18.508
23.514
28.679
33.905
39.117
44.223
49.122
53.716
57.912
61.66
64.943
67.767
70.158
72.15
73.784
75.112
76.196
77.097
77.874
78.577
79.253
79.95
80.72
81.61
82.67
83.931
85.412
87.122
89.065
91.238
93.637
96.251
99.061
102.052
105.211
108.525
111.981
115.564
119.256
123.037
126.887
130.785
134.712
138.648
142.573
146.465
150.304
154.07
157.745
161.307
164.736
168.01
171.108
174.009
176.693
179.142
181.337
183.263
184.904
186.246
187.28
187.995
188.382
188.435
188.149
187.52
186.548
185.231
183.573
181.575
179.245
176.587
173.611
170.328
166.748
162.885
158.752
154.367
149.744
144.903
139.86
134.636
129.25
123.722
118.074
112.325
106.498
100.612
94.69
88.751
82.816
76.904
71.035
65.227
59.497
53.863
48.34
42.944
37.689
32.588
27.654
22.898
18.329
13.957
9.789
5.831
2.088
-1.436
-4.738
-7.817
-10.672
-13.305
-15.716
-17.91
-19.889
-21.658
-23.222
-24.589
-25.764
-26.756
-27.572
-28.221
-28.711
-29.053
-29.255
-29.326
-29.278
-29.119
-28.86
-28.509
-28.078
-27.576
-27.011
-26.394
-25.732
-25.035
-24.311
-23.566
-22.808
-22.044
-21.279
-20.52
-19.772
-19.039
-18.325
-17.635
-16.972
-16.337
-15.735
-15.167
-14.634
-14.138
-13.68
-13.261
-12.881
-12.541
-12.24
-11.979
-11.757
-11.574
-11.43
-11.323
-11.253
-11.219
-11.22
-11.254
-11.321
-11.42
-11.549
-11.708
-11.896
-12.111
-12.354
-12.623
-12.917
-13.236
-13.578
-13.944
-14.332
-14.743
-15.175
-15.628
-16.101
-16.593
-17.105
-17.634
-18.181
-18.742
-19.318
-19.906
-20.505
-21.113
-21.727
-22.345
-22.965
-23.586
-24.203
-24.816
-25.421
-26.016
-26.597
-27.163
-27.709
-28.233
-28.732
-29.202
-29.641
-30.044
-30.41
-30.735
-31.015
-31.247
-31.428
-31.555
-31.626
-31.637
-31.586
-31.472
-31.293
-31.049
-30.739
-30.364
-29.926
-29.428
-28.871
-28.26
-27.596
-26.885
-26.131
-25.339
-24.513
-23.658
-22.778
-21.881
-20.972
-20.057
-19.145
-18.241
-17.352
-16.485
-15.648
-14.849
-14.094
-13.385
-12.728
-12.126
-11.585
-11.113
-10.715
-10.39
-10.135
-9.946
-9.821
-9.752
-9.727
-9.725
-9.725
-9.709
-9.665
-9.588
-9.471
-9.305
-9.074
-8.761
-8.36
-7.873
-7.309
-6.675
-5.975
-5.223
-4.459
-3.744
-3.149
-2.734
-2.539
-2.589
-2.91
-3.538
-4.535
-5.953
-7.834
-10.207
-13.07
-16.452
-20.425
-24.979
-29.999
-35.235
-40.308
-44.872
-48.702
-51.53
-53.02
-52.965
-51.307
-48.342
-44.767
-41.253
-38.314
-36.418
-36.013
-37.39
-40.581
-44.99
-49.349
-52.209
-52.116
-47.72
-37.656
-20.652
4.119
36.666
76.074
120.694
168.345
216.417
261.511
299.75
327.392
340.879
337.131
313.866
269.526
204.738
122.909
27.967
-76.643
-190.051
-312.947
-441.953
-567.885
-675.781
-750.377
-784.331
-780.55
-750.505
-706.588
-656.289
-601.479
-539.711
-470.385
-396.292
-321.794
-252.667
-192.781
-143.515
-105.46
-78.002
-59.716
-49.225
-44.859
-44.337
-45.601
-46.84
-46.371
-43.485
-38.267
-31.001
-22.273
-12.98
-3.924
4.017
9.941
13.584
15.104
14.812
13.228
10.882
8.22
5.776
4.089
3.416
3.833
5.3
7.65
10.76
14.535
18.83
23.493
28.39
33.404
38.447
43.451
48.331
52.993
57.346
61.304
64.821
67.885
70.503
72.704
74.523
75.998
77.184
78.141
78.929
79.604
80.217
80.815
81.444
82.156
82.999
84.02
85.253
86.716
88.42
90.368
92.561
94.995
97.66
100.539
103.619
106.886
110.327
113.931
117.683
121.564
125.554
129.633
133.78
137.975
142.197
146.425
150.635
154.807
158.918
162.948
166.875
170.674
174.322
177.796
181.071
184.126
186.94
189.491
191.76
193.73
195.384
196.708
197.69
198.32
198.588
198.486
198.011
197.158
195.927
194.317
192.331
189.974
187.251
184.171
180.744
176.98
172.893
168.497
163.81
158.847
153.627
148.17
142.497
136.628
130.587
124.394
118.074
111.65
105.145
98.583
91.987
85.38
78.785
72.223
65.716
59.284
52.948
46.725
40.634
34.691
28.912
23.312
17.903
12.697
7.706
2.938
-1.599
-5.898
-9.955
-13.765
-17.327
-20.638
-23.7
-26.512
-29.079
-31.402
-33.488
-35.341
-36.968
-38.377
-39.574
-40.569
-41.372
-41.991
-42.437
-42.721
-42.852
-42.842
-42.702
-42.443
-42.075
-41.61
-41.058
-40.43
-39.735
-38.985
-38.187
-37.352
-36.487
-35.6
-34.7
-33.793
-32.886
-31.984
-31.094
-30.22
-29.367
-28.538
-27.738
-26.97
-26.236
-25.539
-24.881
-24.263
-23.689
-23.158
-22.672
-22.231
-21.837
-21.49
-21.19
-20.936
-20.73
-20.57
-20.456
-20.388
-20.365
-20.386
-20.451
-20.559
-20.709
-20.899
-21.129
-21.397
-21.702
-22.042
-22.415
-22.82
-23.253
-23.714
-24.199
-24.705
-25.231
-25.772
-26.326
-26.888
-27.455
-28.022
-28.587
-29.143
-29.686
-30.211
-30.715
-31.191
-31.636
-32.044
-32.411
-32.732
-33.002
-33.217
-33.374
-33.467
-33.493
-33.451
-33.337
-33.149
-32.887
-32.551
-32.139
-31.655
-31.1
-30.475
-29.785
-29.033
-28.222
-27.36
-26.449
-25.495
-24.505
-23.485
-22.441
-21.383
-20.318
-19.253
-18.198
-17.161
-16.15
-15.177
-14.248
-13.367
-12.541
-11.775
-11.075
-10.452
-9.911
-9.451
-9.072
-8.774
-8.553
-8.404
-8.316
-8.265
-8.232
-8.198
-8.149
-8.082
-7.988
-7.854
-7.664
-7.403
-7.06
-6.639
-6.145
-5.573
-4.93
-4.235
-3.525
-2.873
-2.353
-2.017
-1.911
-2.07
-2.513
-3.287
-4.452
-6.048
-8.117
-10.686
-13.751
-17.367
-21.607
-26.415
-31.624
-36.945
-41.959
-46.356
-49.958
-52.469
-53.517
-52.981
-50.972
-47.929
-44.65
-41.677
-39.183
-37.496
-37.112
-38.107
-40.172
-42.407
-43.225
-41.406
-36.31
-27.009
-12.218
8.837
36.407
69.82
107.172
146.744
187.068
225.772
259.52
284.828
298.291
297.471
281.063
247.517
195.787
126.156
41.374
-53.312
-153.581
-256.155
-359.331
-462.803
-560.701
-643.866
-703.984
-732.565
-730.099
-704.181
-661.545
-610.999
-556.773
-497.849
-435.702
-371.335
-306.602
-246.27
-193.231
-148.581
-113.155
-86.158
-66.08
-52.289
-43.864
-39.092
-36.547
-34.75
-32.135
-28.195
-23.083
-16.781
-9.572
-2.067
5.264
11.678
16.311
18.953
19.754
18.96
17.03
14.413
11.466
8.692
6.628
5.544
5.539
6.584
8.52
11.232
14.636
18.601
22.983
27.649
32.484
37.395
42.316
47.165
51.847
56.273
60.351
64.031
67.297
70.159
72.645
74.791
76.635
78.228
79.628
80.89
82.07
83.214
84.364
85.563
86.857
88.291
89.91
91.744
93.808
96.108
98.645
101.412
104.405
107.607
111
114.566
118.288
122.151
126.142
130.243
134.433
138.691
142.995
147.323
151.655
155.967
160.238
164.446
168.57
172.587
176.478
180.222
183.795
187.176
190.343
193.274
195.95
198.353
200.464
202.266
203.746
204.892
205.692
206.138
206.223
205.942
205.29
204.267
202.873
201.109
198.979
196.488
193.644
190.455
186.932
183.086
178.931
174.482
169.756
164.768
159.539
154.088
148.436
142.603
136.611
130.483
124.242
117.91
111.511
105.067
98.601
92.135
85.69
79.288
72.948
66.69
60.532
54.491
48.584
42.825
37.229
31.809
26.576
21.542
16.716
12.106
7.72
3.562
-0.362
-4.049
-7.497
-10.706
-13.676
-16.409
-18.906
-21.172
-23.212
-25.031
-26.636
-28.035
-29.234
-30.244
-31.074
-31.733
-32.23
-32.577
-32.782
-32.857
-32.811
-32.655
-32.397
-32.049
-31.619
-31.116
-30.551
-29.931
-29.265
-28.561
-27.826
-27.069
-26.295
-25.511
-24.724
-23.938
-23.16
-22.395
-21.646
-20.919
-20.216
-19.542
-18.898
-18.287
-17.71
-17.169
-16.665
-16.198
-15.771
-15.382
-15.034
-14.727
-14.462
-14.239
-14.06
-13.924
-13.832
-13.784
-13.781
-13.823
-13.91
-14.043
-14.22
-14.443
-14.711
-15.022
-15.376
-15.771
-16.205
-16.676
-17.181
-17.716
-18.279
-18.865
-19.472
-20.096
-20.734
-21.385
-22.045
-22.711
-23.382
-24.054
-24.721
-25.378
-26.018
-26.634
-27.218
-27.763
-28.263
-28.713
-29.106
-29.437
-29.705
-29.905
-30.034
-30.085
-30.051
-29.924
-29.705
-29.398
-29.011
-28.556
-28.045
-27.489
-26.906
-26.308
-25.701
-25.087
-24.456
-23.797
-23.106
-22.388
-21.656
-20.924
-20.192
-19.454
-18.705
-17.927
-17.108
-16.234
-15.275
-14.214
-13.047
-11.788
-10.474
-9.149
-7.839
-6.553
-5.286
-4.033
-2.805
-1.618
-0.486
0.572
1.538
2.389
3.079
3.571
3.854
3.933
3.848
3.641
3.329
2.909
2.357
1.65
0.78
-0.26
-1.493
-2.946
-4.647
-6.61
-8.818
-11.246
-13.894
-16.784
-19.967
-23.489
-27.371
-31.584
-36.102
-40.952
-46.059
-51.262
-56.301
-60.745
-64.204
-66.442
-67.149
-65.966
-62.876
-58.058
-51.959
-45.579
-39.695
-34.758
-31.488
-30.44
-31.477
-34.189
-37.501
-39.373
-38.271
-32.962
-21.627
-2.982
23.43
57.655
98.398
143.137
189.65
235.188
275.734
307.517
326.987
330.758
316.798
283.832
230.682
158.587
71.561
-26.222
-130.715
-240.478
-356.268
-474.719
-587.418
-681.459
-743.795
-769.026
-760.755
-729.246
-685.228
-635.411
-581.794
-522.928
-458.788
-391.445
-324.347
-262.401
-209.004
-165.391
-131.708
-106.793
-89.023
-77.431
-70.7
-66.873
-64.079
-60.478
-54.981
-47.596
-38.705
-28.647
-17.975
-7.431
2.125
9.632
14.564
17.027
17.308
15.877
13.215
9.73
5.966
2.565
-0.054
-1.681
-2.249
-1.868
-0.632
1.388
4.056
7.218
10.714
14.393
18.161
21.954
25.718
29.412
32.974
36.326
39.403
42.14
44.513
46.54
48.246
49.686
50.926
52.044
53.149
54.351
55.717
57.292
59.085
61.074
63.264
65.671
68.306
71.19
74.326
77.701
81.309
85.136
89.15
93.313
97.555
101.81
106.044
110.239
114.401
118.556
122.711
126.864
131.019
135.168
139.299
143.403
147.453
151.422
155.293
159.053
162.705
166.248
169.67
172.948
176.054
178.95
181.606
183.994
186.084
187.852
189.281
190.354
191.069
191.426
191.422
191.052
190.314
189.204
187.721
185.872
183.66
181.095
178.189
174.951
171.399
167.548
163.414
159.012
154.357
149.466
144.355
139.043
133.549
127.892
122.093
116.175
110.158
104.065
97.919
91.74
85.551
79.37
73.218
67.114
61.077
55.124
49.271
43.534
37.927
32.466
27.162
22.027
17.071
12.305
7.736
3.371
-0.783
-4.722
-8.443
-11.943
-15.22
-18.274
-21.106
-23.718
-26.111
-28.289
-30.258
-32.021
-33.586
-34.959
-36.149
-37.162
-38.007
-38.694
-39.232
-39.629
-39.896
-40.042
-40.077
-40.01
-39.852
-39.612
-39.298
-38.92
-38.488
-38.008
-37.489
-36.94
-36.366
-35.775
-35.173
-34.566
-33.958
-33.356
-32.763
-32.183
-31.619
-31.074
-30.552
-30.054
-29.581
-29.137
-28.721
-28.334
-27.978
-27.651
-27.355
-27.089
-26.852
-26.643
-26.462
-26.308
-26.18
-26.077
-25.999
-25.945
-25.915
-25.908
-25.923
-25.961
-26.02
-26.101
-26.203
-26.326
-26.471
-26.638
-26.826
-27.035
-27.266
-27.518
-27.792
-28.085
-28.397
-28.728
-29.077
-29.441
-29.819
-30.209
-30.61
-31.021
-31.44
-31.866
-32.297
-32.732
-33.169
-33.604
-34.036
-34.457
-34.863
-35.248
-35.609
-35.94
-36.237
-36.496
-36.713
-36.885
-37.01
-37.088
-37.114
-37.082
-36.983
-36.815
-36.582
-36.293
-35.954
-35.571
-35.148
-34.695
-34.224
-33.746
-33.26
-32.757
-32.225
-31.659
-31.066
-30.461
-29.857
-29.261
-28.663
-28.053
-27.426
-26.781
-26.113
-25.406
-24.634
-23.782
-22.862
-21.911
-20.961
-20.029
-19.112
-18.19
-17.253
-16.302
-15.348
-14.406
-13.476
-12.558
-11.665
-10.824
-10.077
-9.452
-8.935
-8.486
-8.079
-7.704
-7.38
-7.152
-7.048
-7.092
-7.317
-7.75
-8.431
-9.395
-10.646
-12.179
-13.993
-16.094
-18.523
-21.338
-24.559
-28.219
-32.362
-36.936
-41.819
-46.791
-51.498
-55.609
-58.877
-61.01
-61.645
-60.558
-57.805
-53.771
-49.176
-44.761
-40.976
-38.217
-37.112
-38.091
-41.014
-45.172
-49.102
-51.023
-49.698
-43.988
-32.228
-13.051
14.21
49.493
91.296
137.247
185.259
232.697
275.691
310.156
332.069
337.925
325.595
293.666
241.128
168.185
77.746
-24.878
-135
-248.52
-362.88
-477.515
-586.31
-679.493
-748.441
-783.85
-785.26
-760.491
-716.496
-662.235
-602.789
-537.42
-467.793
-395.932
-324.396
-258.425
-201.455
-154.676
-118.704
-92.685
-74.933
-64.157
-58.855
-56.864
-56.323
-55.675
-53.49
-49.295
-43.332
-35.874
-27.449
-18.897
-10.897
-4.182
0.493
2.996
3.558
2.514
0.386
-2.308
-5.15
-7.647
-9.304
-9.899
-9.37
-7.765
-5.25
-1.949
2.034
6.555
11.457
16.6
21.861
27.14
32.359
37.427
42.247
46.732
50.798
54.403
57.535
60.205
62.447
64.298
65.801
67.012
67.992
68.801
69.499
70.136
70.76
71.418
72.158
73.026
74.068
75.313
76.777
78.472
80.396
82.551
84.93
87.524
90.316
93.293
96.442
99.748
103.202
106.788
110.488
114.284
118.154
122.08
126.042
130.019
133.992
137.938
141.837
145.668
149.412
153.045
156.546
159.893
163.062
166.033
168.784
171.295
173.546
175.519
177.199
178.569
179.617
180.332
180.703
180.721
180.38
179.676
178.606
177.169
175.365
173.198
170.673
167.795
164.573
161.018
157.142
152.956
148.477
143.721
138.704
133.445
127.965
122.283
116.421
110.401
104.245
97.977
91.619
85.195
78.729
72.244
65.763
59.309
52.903
46.567
40.322
34.188
28.183
22.326
16.633
11.12
5.801
0.688
-4.206
-8.872
-13.301
-17.486
-21.421
-25.102
-28.526
-31.692
-34.6
-37.25
-39.646
-41.791
-43.691
-45.35
-46.778
-47.981
-48.969
-49.752
-50.34
-50.745
-50.979
-51.053
-50.981
-50.776
-50.449
-50.015
-49.485
-48.873
-48.191
-47.45
-46.662
-45.837
-44.986
-44.118
-43.241
-42.364
-41.494
-40.638
-39.801
-38.988
-38.203
-37.449
-36.731
-36.048
-35.403
-34.797
-34.229
-33.699
-33.205
-32.746
-32.321
-31.926
-31.559
-31.216
-30.894
-30.591
-30.301
-30.022
-29.751
-29.483
-29.217
-28.949
-28.677
-28.399
-28.113
-27.819
-27.515
-27.2
-26.876
-26.542
-26.2
-25.85
-25.493
-25.132
-24.768
-24.403
-24.039
-23.679
-23.323
-22.976
-22.638
-22.311
-21.999
-21.702
-21.423
-21.163
-20.924
-20.706
-20.511
-20.338
-20.188
-20.06
-19.953
-19.865
-19.794
-19.737
-19.692
-19.655
-19.622
-19.587
-19.547
-19.495
-19.427
-19.336
-19.217
-19.064
-18.873
-18.637
-18.354
-18.018
-17.628
-17.18
-16.674
-16.107
-15.479
-14.788
-14.035
-13.221
-12.348
-11.414
-10.424
-9.381
-8.29
-7.156
-5.986
-4.786
-3.562
-2.324
-1.077
0.167
1.401
2.618
3.809
4.965
6.076
7.129
8.115
9.031
9.873
10.644
11.345
11.981
12.56
13.099
13.611
14.111
14.611
15.116
15.633
16.175
16.75
17.38
18.074
18.83
19.648
20.518
21.421
22.342
23.251
24.09
24.809
25.354
25.665
25.709
25.446
24.833
23.847
22.445
20.577
18.222
15.347
11.936
8.015
3.573
-1.412
-6.836
-12.521
-18.189
-23.427
-27.903
-31.387
-33.567
-34.073
-32.707
-29.546
-25.005
-19.843
-14.78
-10.236
-6.634
-4.605
-4.498
-6.082
-8.586
-10.553
-10.324
-6.756
1.333
15.609
37.263
66.676
103.493
146.1
192.162
239.487
285.132
324.903
354.721
370.95
370.214
350.31
310.175
249.049
168.648
73.954
-31.1
-142.945
-258.626
-377.993
-495.109
-599.097
-680.095
-727.439
-739.632
-724.664
-689.988
-644.49
-592.81
-533.538
-467.92
-398.053
-326.735
-259.383
-199.559
-148.909
-108.606
-78.26
-56.591
-42.359
-34.165
-30.131
-28.475
-27.508
-25.505
-21.63
-15.895
-8.54
-0.018
8.957
17.72
25.471
31.258
34.727
36.015
35.416
33.436
30.595
27.314
24.138
21.671
20.234
19.946
20.798
22.633
25.33
28.81
32.93
37.526
42.455
47.578
52.792
58.024
63.176
68.139
72.811
77.086
80.906
84.255
87.132
89.562
91.578
93.216
94.531
95.585
96.439
97.154
97.783
98.374
98.978
99.65
100.44
101.401
102.567
103.958
105.586
107.454
109.561
111.904
114.472
117.246
120.213
123.359
126.67
130.134
133.735
137.453
141.27
145.162
149.11
153.094
157.091
161.081
165.042
168.952
172.79
176.536
180.168
183.661
186.994
190.144
193.087
195.803
198.271
200.472
202.387
204
205.297
206.266
206.896
207.177
207.103
206.667
205.868
204.702
203.172
201.277
199.024
196.417
193.465
190.176
186.561
182.634
178.408
173.898
169.121
164.095
158.838
153.371
147.714
141.887
135.914
129.815
123.613
117.331
110.992
104.616
98.228
91.847
85.495
79.192
72.956
66.808
60.764
54.84
49.052
43.415
37.941
32.642
27.53
22.614
17.901
13.4
9.115
5.052
1.213
-2.398
-5.781
-8.937
-11.866
-14.571
-17.055
-19.323
-21.379
-23.23
-24.883
-26.345
-27.623
-28.728
-29.667
-30.45
-31.087
-31.588
-31.962
-32.22
-32.372
-32.428
-32.396
-32.287
-32.11
-31.873
-31.585
-31.254
-30.887
-30.493
-30.076
-29.644
-29.202
-28.755
-28.308
-27.865
-27.43
-27.006
-26.595
-26.199
-25.821
-25.461
-25.121
-24.802
-24.502
-24.223
-23.964
-23.725
-23.504
-23.301
-23.115
-22.944
-22.788
-22.646
-22.516
-22.397
-22.289
-22.19
-22.1
-22.018
-21.944
-21.877
-21.817
-21.765
-21.72
-21.682
-21.654
-21.634
-21.625
-21.627
-21.642
-21.67
-21.714
-21.774
-21.853
-21.951
-22.071
-22.214
-22.381
-22.574
-22.794
-23.042
-23.319
-23.626
-23.963
-24.331
-24.728
-25.153
-25.608
-26.089
-26.595
-27.126
-27.679
-28.251
-28.84
-29.443
-30.058
-30.68
-31.305
-31.93
-32.55
-33.16
-33.757
-34.335
-34.889
-35.414
-35.904
-36.356
-36.763
-37.121
-37.423
-37.666
-37.843
-37.953
-37.99
-37.953
-37.838
-37.645
-37.373
-37.023
-36.597
-36.094
-35.519
-34.872
-34.158
-33.379
-32.541
-31.646
-30.7
-29.709
-28.681
-27.624
-26.547
-25.459
-24.368
-23.282
-22.212
-21.166
-20.153
-19.178
-18.252
-17.384
-16.583
-15.861
-15.227
-14.684
-14.231
-13.867
-13.584
-13.375
-13.227
-13.122
-13.047
-12.99
-12.94
-12.892
-12.837
-12.763
-12.657
-12.506
-12.294
-12.021
-11.685
-11.293
-10.863
-10.419
-9.991
-9.623
-9.355
-9.218
-9.25
-9.49
-9.966
-10.711
-11.757
-13.122
-14.837
-16.933
-19.434
-22.366
-25.73
-29.49
-33.637
-38.189
-43.082
-48.18
-53.241
-57.868
-61.707
-64.509
-65.955
-65.666
-63.45
-59.374
-53.849
-47.788
-42.119
-37.487
-34.559
-34.014
-36.142
-40.726
-46.901
-52.822
-56.402
-55.921
-49.563
-35.576
-12.807
19.22
60.001
107.54
159.06
211.554
261.172
303.634
334.876
350.949
348.494
325.396
280.482
214.406
130.42
32.699
-74.995
-190.983
-314.831
-443.563
-569.04
-677.5
-755.199
-794.453
-796.794
-772.52
-732.635
-684.482
-630.728
-569.446
-500.587
-427.074
-352.939
-283.793
-223.475
-173.427
-134.371
-105.739
-86.08
-73.965
-67.758
-65.287
-64.586
-63.915
-61.629
-57.063
-50.365
-41.889
-32.241
-22.272
-12.746
-4.502
1.558
5.153
6.458
5.811
3.751
0.809
-2.573
-5.866
-8.513
-10.195
-10.791
-10.307
-8.879
-6.625
-3.625
-0.002
4.1
8.551
13.228
18.03
22.882
27.706
32.406
36.893
41.079
44.888
48.284
51.261
53.832
56.028
57.885
59.442
60.754
61.883
62.888
63.825
64.742
65.681
66.688
67.808
69.087
70.567
72.273
74.22
76.414
78.854
81.538
84.46
87.606
90.956
94.493
98.204
102.072
106.084
110.223
114.469
118.8
123.194
127.63
132.087
136.543
140.975
145.361
149.679
153.907
158.025
162.011
165.842
169.496
172.95
176.183
179.174
181.905
184.355
186.508
188.348
189.862
191.039
191.867
192.338
192.446
192.185
191.552
190.545
189.165
187.414
185.295
182.814
179.978
176.797
173.281
169.442
165.294
160.853
156.135
151.157
145.938
140.497
134.856
129.034
123.055
116.939
110.711
104.391
98.005
91.574
85.121
78.669
72.24
65.855
59.536
53.302
47.172
41.167
35.302
29.595
24.061
18.715
13.57
8.638
3.93
-0.545
-4.779
-8.766
-12.5
-15.977
-19.195
-22.152
-24.848
-27.286
-29.467
-31.395
-33.075
-34.513
-35.717
-36.694
-37.454
-38.005
-38.36
-38.528
-38.522
-38.355
-38.037
-37.584
-37.007
-36.32
-35.536
-34.669
-33.73
-32.734
-31.691
-30.615
-29.516
-28.406
-27.294
-26.191
-25.106
-24.046
-23.02
-22.035
-21.096
-20.209
-19.379
-18.61
-17.905
-17.265
-16.694
-16.192
-15.759
-15.394
-15.098
-14.867
-14.699
-14.593
-14.544
-14.55
-14.607
-14.71
-14.856
-15.039
-15.257
-15.503
-15.775
-16.068
-16.378
-16.701
-17.034
-17.373
-17.717
-18.062
-18.406
-18.747
-19.085
-19.417
-19.743
-20.063
-20.377
-20.684
-20.986
-21.283
-21.577
-21.869
-22.16
-22.454
-22.751
-23.054
-23.364
-23.685
-24.017
-24.362
-24.723
-25.1
-25.494
-25.907
-26.34
-26.792
-27.263
-27.752
-28.26
-28.783
-29.321
-29.87
-30.428
-30.99
-31.554
-32.116
-32.67
-33.212
-33.737
-34.24
-34.716
-35.157
-35.559
-35.915
-36.219
-36.467
-36.653
-36.772
-36.82
-36.793
-36.687
-36.503
-36.237
-35.89
-35.46
-34.949
-34.358
-33.689
-32.945
-32.13
-31.245
-30.297
-29.292
-28.237
-27.14
-26.009
-24.853
-23.681
-22.502
-21.326
-20.165
-19.028
-17.922
-16.856
-15.839
-14.881
-13.995
-13.189
-12.466
-11.826
-11.27
-10.797
-10.404
-10.084
-9.819
-9.597
-9.403
-9.226
-9.065
-8.912
-8.758
-8.592
-8.394
-8.154
-7.876
-7.561
-7.213
-6.842
-6.453
-6.073
-5.751
-5.536
-5.481
-5.63
-6.004
-6.628
-7.526
-8.733
-10.302
-12.278
-14.691
-17.563
-20.901
-24.726
-29.11
-34.025
-39.309
-44.708
-49.848
-54.398
-58.177
-60.954
-62.37
-62.222
-60.559
-57.741
-54.53
-51.627
-49.357
-48.005
-48.006
-49.602
-52.617
-56.318
-59.23
-59.74
-56.754
-49.303
-36.144
-16.227
10.932
45.096
84.903
128.285
173.324
217.739
258.301
291.401
313.531
321.607
313.325
287.123
241.947
177.614
96.429
3.033
-98.727
-205.276
-314.063
-424.62
-531.126
-624.208
-695.473
-735.725
-744.243
-728.136
-693.87
-649.517
-599.176
-541.724
-478.457
-411.255
-342.652
-277.545
-219.222
-169.266
-128.913
-98.005
-75.481
-60.347
-51.411
-46.907
-45.143
-44.443
-43.006
-39.924
-35.104
-28.65
-20.939
-12.617
-4.282
3.266
9.058
12.708
14.274
13.991
12.334
9.771
6.699
3.639
1.172
-0.36
-0.809
-0.167
1.427
3.859
7.044
10.851
15.126
19.732
24.551
29.49
34.482
39.455
44.317
48.983
53.367
57.401
61.047
64.299
67.168
69.683
71.88
73.801
75.495
77.022
78.438
79.792
81.13
82.491
83.918
85.452
87.136
89.008
91.093
93.403
95.943
98.711
101.702
104.908
108.315
111.902
115.653
119.55
123.577
127.721
131.962
136.28
140.653
145.059
149.476
153.883
158.257
162.576
166.819
170.963
174.987
178.871
182.594
186.134
189.469
192.579
195.442
198.04
200.355
202.368
204.066
205.433
206.459
207.133
207.448
207.395
206.972
206.174
205.001
203.453
201.532
199.244
196.594
193.589
190.24
186.557
182.553
178.242
173.64
168.764
163.632
158.263
152.678
146.897
140.942
134.835
128.6
122.259
115.835
109.352
102.833
96.3
89.777
83.285
76.845
70.479
64.205
58.042
52.008
46.12
40.394
34.843
29.482
24.323
19.376
14.651
10.156
5.898
1.882
-1.887
-5.408
-8.678
-11.697
-14.468
-16.993
-19.274
-21.318
-23.129
-24.715
-26.083
-27.243
-28.203
-28.974
-29.566
-29.991
-30.258
-30.38
-30.369
-30.236
-29.992
-29.65
-29.22
-28.714
-28.142
-27.516
-26.845
-26.138
-25.406
-24.656
-23.897
-23.136
-22.378
-21.632
-20.901
-20.191
-19.506
-18.85
-18.226
-17.635
-17.079
-16.561
-16.079
-15.635
-15.227
-14.855
-14.519
-14.216
-13.944
-13.704
-13.491
-13.306
-13.145
-13.007
-12.89
-12.792
-12.712
-12.648
-12.598
-12.562
-12.539
-12.527
-12.528
-12.54
-12.563
-12.598
-12.646
-12.705
-12.778
-12.864
-12.965
-13.081
-13.214
-13.365
-13.535
-13.725
-13.937
-14.172
-14.43
-14.712
-15.019
-15.35
-15.707
-16.088
-16.492
-16.919
-17.368
-17.836
-18.323
-18.826
-19.341
-19.867
-20.399
-20.933
-21.467
-21.994
-22.511
-23.014
-23.497
-23.957
-24.388
-24.785
-25.144
-25.461
-25.73
-25.948
-26.11
-26.214
-26.255
-26.231
-26.14
-25.982
-25.756
-25.462
-25.101
-24.675
-24.187
-23.64
-23.037
-22.383
-21.683
-20.941
-20.164
-19.357
-18.527
-17.682
-16.829
-15.977
-15.133
-14.306
-13.504
-12.735
-12.01
-11.334
-10.712
-10.149
-9.649
-9.219
-8.868
-8.599
-8.411
-8.303
-8.272
-8.314
-8.423
-8.588
-8.786
-8.997
-9.203
-9.39
-9.553
-9.686
-9.771
-9.795
-9.738
-9.59
-9.356
-9.042
-8.641
-8.162
-7.622
-7.055
-6.529
-6.117
-5.865
-5.82
-6.012
-6.462
-7.217
-8.334
-9.855
-11.828
-14.273
-17.186
-20.615
-24.621
-29.165
-34.103
-39.154
-43.915
-48.052
-51.329
-53.459
-54.079
-52.981
-50.234
-46.24
-41.747
-37.505
-33.968
-31.574
-30.941
-32.398
-35.704
-40.084
-44.068
-45.913
-44.307
-37.916
-24.997
-4.302
24.574
61.231
104.019
150.453
198.039
243.583
282.848
311.654
326.243
323.526
301.776
260.31
199.17
119.941
25.947
-78.356
-187.715
-296.758
-400.431
-493.803
-572.459
-633.105
-673.728
-693.993
-694.871
-677.748
-644.751
-598.914
-543.524
-482.189
-418.589
-355.345
-294.565
-238.639
-189.3
-147.602
-114.262
-88.888
-70.352
-57.916
-50.606
-46.793
-45.036
-43.865
-41.827
-38.449
-33.823
-27.957
-21.154
-14.02
-7.078
-1.072
3.211
5.59
6.219
5.353
3.434
0.9
-1.887
-4.448
-6.294
-7.189
-7.058
-5.944
-4.001
-1.343
1.946
5.741
9.906
14.32
18.876
23.485
28.084
32.595
36.933
41.016
44.762
48.127
51.1
53.695
55.945
57.884
59.552
60.996
62.273
63.436
64.537
65.623
66.733
67.908
69.192
70.628
72.258
74.11
76.199
78.531
81.104
83.913
86.952
90.208
93.66
97.291
101.085
105.026
109.101
113.292
117.578
121.937
126.347
130.785
135.229
139.656
144.044
148.371
152.612
156.746
160.753
164.611
168.296
171.786
175.059
178.094
180.871
183.371
185.575
187.467
189.032
190.259
191.136
191.654
191.807
191.588
190.995
190.026
188.682
186.965
184.878
182.427
179.62
176.466
172.977
169.165
165.044
160.629
155.939
150.991
145.804
140.398
134.796
129.017
123.085
117.021
110.85
104.594
98.275
91.917
85.543
79.175
72.834
66.541
60.317
54.18
48.15
42.243
36.476
30.863
25.421
20.16
15.093
10.231
5.582
1.154
-3.046
-7.012
-10.742
-14.233
-17.483
-20.492
-23.263
-25.796
-28.096
-30.167
-32.015
-33.644
-35.064
-36.281
-37.304
-38.141
-38.803
-39.3
-39.641
-39.836
-39.898
-39.835
-39.659
-39.38
-39.008
-38.554
-38.028
-37.439
-36.797
-36.111
-35.388
-34.638
-33.867
-33.082
-32.29
-31.496
-30.706
-29.924
-29.154
-28.4
-27.664
-26.95
-26.259
-25.592
-24.952
-24.338
-23.751
-23.192
-22.659
-22.153
-21.672
-21.216
-20.784
-20.375
-19.988
-19.621
-19.275
-18.946
-18.635
-18.341
-18.062
-17.798
-17.547
-17.31
-17.087
-16.876
-16.679
-16.496
-16.328
-16.174
-16.036
-15.916
-15.813
-15.73
-15.667
-15.626
-15.608
-15.615
-15.648
-15.71
-15.8
-15.921
-16.073
-16.258
-16.475
-16.725
-17.007
-17.323
-17.669
-18.047
-18.454
-18.89
-19.352
-19.839
-20.348
-20.876
-21.42
-21.976
-22.541
-23.111
-23.68
-24.245
-24.8
-25.341
-25.862
-26.36
-26.827
-27.259
-27.651
-27.997
-28.291
-28.529
-28.706
-28.818
-28.86
-28.83
-28.724
-28.543
-28.285
-27.95
-27.539
-27.054
-26.496
-25.868
-25.172
-24.413
-23.595
-22.722
-21.799
-20.833
-19.832
-18.803
-17.754
-16.695
-15.632
-14.574
-13.531
-12.511
-11.524
-10.575
-9.673
-8.824
-8.039
-7.328
-6.699
-6.152
-5.689
-5.307
-5.002
-4.769
-4.597
-4.471
-4.374
-4.29
-4.206
-4.113
-4
-3.854
-3.661
-3.403
-3.069
-2.657
-2.173
-1.623
-1.016
-0.371
0.282
0.89
1.403
1.765
1.918
1.817
1.409
0.652
-0.487
-2.046
-4.063
-6.569
-9.585
-13.134
-17.196
-21.771
-26.891
-32.447
-38.241
-43.979
-49.209
-53.545
-56.73
-58.396
-58.118
-55.821
-51.661
-46.138
-40.29
-34.872
-30.344
-27.46
-26.859
-28.541
-32.139
-36.45
-39.37
-39.468
-35.327
-24.748
-6.247
21.061
56.737
97.677
141.502
187.307
234.422
283.19
329.216
363.63
377.866
362.709
316.387
244.756
154.75
56.792
-44.014
-148.856
-257.737
-372.465
-487.927
-591.511
-673.197
-723.204
-739.663
-730.391
-701.859
-661.265
-613.448
-557.623
-495.042
-428.131
-359.255
-293.027
-233.351
-182.338
-141.161
-109.622
-86.536
-70.567
-60.728
-55.627
-53.326
-51.98
-49.803
-45.783
-39.957
-32.647
-24.133
-14.936
-5.77
2.52
8.895
12.853
14.523
14.202
12.358
9.476
5.975
2.394
-0.636
-2.723
-3.713
-3.585
-2.471
-0.491
2.291
5.755
9.754
14.16
18.847
23.717
28.697
33.699
38.622
43.368
47.834
51.936
55.63
58.898
61.748
64.21
66.313
68.098
69.614
70.919
72.069
73.119
74.116
75.103
76.125
77.23
78.465
79.874
81.485
83.314
85.367
87.646
90.146
92.862
95.781
98.885
102.157
105.583
109.15
112.844
116.65
120.548
124.518
128.54
132.594
136.66
140.719
144.749
148.73
152.642
156.465
160.18
163.767
167.205
170.473
173.549
176.413
179.047
181.432
183.55
185.385
186.923
188.151
189.059
189.638
189.879
189.776
189.325
188.524
187.371
185.868
184.016
181.82
179.285
176.419
173.23
169.729
165.928
161.84
157.479
152.862
148.004
142.925
137.641
132.174
126.543
120.769
114.872
108.875
102.799
96.665
90.496
84.312
78.134
71.983
65.879
59.84
53.886
48.034
42.3
36.701
31.252
25.965
20.855
15.933
11.209
6.693
2.392
-1.686
-5.536
-9.154
-12.537
-15.683
-18.591
-21.262
-23.699
-25.903
-27.879
-29.632
-31.168
-32.494
-33.617
-34.547
-35.291
-35.86
-36.263
-36.512
-36.617
-36.589
-36.44
-36.18
-35.82
-35.373
-34.849
-34.258
-33.611
-32.919
-32.19
-31.435
-30.661
-29.878
-29.092
-28.31
-27.539
-26.785
-26.052
-25.345
-24.667
-24.021
-23.41
-22.835
-22.297
-21.798
-21.338
-20.915
-20.53
-20.18
-19.865
-19.583
-19.33
-19.106
-18.908
-18.733
-18.578
-18.442
-18.321
-18.213
-18.117
-18.029
-17.948
-17.873
-17.802
-17.734
-17.667
-17.603
-17.539
-17.478
-17.418
-17.362
-17.309
-17.262
-17.222
-17.191
-17.171
-17.164
-17.173
-17.198
-17.245
-17.313
-17.407
-17.529
-17.681
-17.866
-18.084
-18.339
-18.631
-18.961
-19.33
-19.738
-20.185
-20.669
-21.19
-21.746
-22.336
-22.955
-23.603
-24.274
-24.966
-25.674
-26.393
-27.119
-27.845
-28.567
-29.277
-29.971
-30.642
-31.283
-31.888
-32.452
-32.967
-33.427
-33.825
-34.156
-34.414
-34.594
-34.689
-34.698
-34.614
-34.437
-34.165
-33.795
-33.33
-32.771
-32.119
-31.378
-30.55
-29.641
-28.654
-27.597
-26.475
-25.295
-24.063
-22.788
-21.481
-20.151
-18.81
-17.466
-16.131
-14.815
-13.528
-12.282
-11.086
-9.949
-8.88
-7.888
-6.983
-6.177
-5.479
-4.89
-4.41
-4.037
-3.764
-3.584
-3.487
-3.455
-3.47
-3.517
-3.58
-3.651
-3.719
-3.771
-3.792
-3.759
-3.656
-3.48
-3.231
-2.915
-2.549
-2.145
-1.727
-1.349
-1.053
-0.889
-0.915
-1.158
-1.655
-2.445
-3.55
-5.017
-6.893
-9.208
-11.99
-15.259
-18.988
-23.185
-27.888
-33.004
-38.369
-43.721
-48.638
-52.777
-55.909
-57.721
-57.846
-56.111
-52.573
-47.621
-42.12
-36.865
-32.356
-29.129
-27.726
-28.353
-30.804
-34.271
-37.065
-37.376
-33.796
-24.841
-9.073
14.426
46.019
85.178
130.001
177.976
226.479
272.136
311.055
339.422
353.625
350.628
328.516
286.193
223.289
141.891
46.473
-58.329
-168.192
-281.39
-397.97
-514.157
-621.845
-708.611
-761.994
-777.492
-759.052
-717.357
-664.155
-606.287
-545.75
-481.537
-413.496
-343.931
-276.903
-216.899
-166.607
-126.94
-97.567
-77.038
-63.851
-56.677
-53.629
-52.802
-52.44
-50.81
-47.114
-41.394
-33.903
-25.116
-15.763
-6.559
1.648
7.895
11.821
13.55
13.373
11.792
9.303
6.324
3.382
1.053
-0.327
-0.632
0.135
1.83
4.331
7.556
11.376
15.641
20.215
24.976
29.823
34.687
39.492
44.145
48.56
52.652
56.348
59.619
62.459
64.884
66.925
68.62
70.011
71.152
72.104
72.926
73.674
74.396
75.134
75.932
76.837
77.893
79.14
80.606
82.303
84.238
86.413
88.824
91.466
94.327
97.389
100.635
104.052
107.626
111.343
115.186
119.136
123.171
127.271
131.415
135.581
139.747
143.891
147.992
152.026
155.972
159.809
163.516
167.07
170.448
173.63
176.593
179.318
181.786
183.978
185.879
187.474
188.75
189.697
190.304
190.565
190.473
190.025
189.218
188.052
186.528
184.65
182.421
179.85
176.945
173.714
170.171
166.328
162.2
157.803
153.154
148.271
143.173
137.881
132.413
126.792
121.039
115.176
109.224
103.205
97.14
91.052
84.96
78.886
72.849
66.868
60.96
55.145
49.437
43.853
38.407
33.113
27.982
23.027
18.258
13.684
9.312
5.149
1.201
-2.529
-6.036
-9.32
-12.38
-15.216
-17.829
-20.223
-22.401
-24.367
-26.126
-27.684
-29.048
-30.225
-31.223
-32.049
-32.713
-33.222
-33.586
-33.813
-33.914
-33.896
-33.77
-33.543
-33.226
-32.827
-32.354
-31.816
-31.221
-30.577
-29.892
-29.172
-28.425
-27.657
-26.874
-26.083
-25.287
-24.493
-23.705
-22.926
-22.159
-21.41
-20.679
-19.97
-19.285
-18.626
-17.994
-17.391
-16.819
-16.277
-15.768
-15.29
-14.846
-14.435
-14.058
-13.714
-13.404
-13.128
-12.885
-12.676
-12.499
-12.355
-12.242
-12.16
-12.109
-12.086
-12.092
-12.126
-12.186
-12.271
-12.382
-12.516
-12.673
-12.852
-13.052
-13.271
-13.509
-13.765
-14.036
-14.324
-14.625
-14.939
-15.265
-15.603
-15.951
-16.308
-16.674
-17.047
-17.427
-17.812
-18.201
-18.595
-18.991
-19.39
-19.79
-20.192
-20.593
-20.994
-21.394
-21.79
-22.183
-22.57
-22.952
-23.325
-23.688
-24.039
-24.378
-24.703
-25.015
-25.31
-25.588
-25.847
-26.086
-26.305
-26.498
-26.663
-26.796
-26.894
-26.954
-26.975
-26.954
-26.887
-26.773
-26.61
-26.4
-26.141
-25.829
-25.46
-25.03
-24.538
-23.995
-23.407
-22.777
-22.112
-21.417
-20.702
-19.978
-19.251
-18.514
-17.763
-16.991
-16.197
-15.396
-14.598
-13.813
-13.045
-12.282
-11.522
-10.77
-10.018
-9.26
-8.484
-7.668
-6.817
-5.959
-5.116
-4.312
-3.557
-2.839
-2.151
-1.479
-0.814
-0.159
0.492
1.146
1.799
2.436
3.046
3.604
4.114
4.614
5.124
5.665
6.247
6.851
7.447
7.987
8.407
8.648
8.662
8.405
7.853
6.982
5.75
4.126
2.06
-0.512
-3.619
-7.314
-11.69
-16.737
-22.319
-28.174
-33.894
-39.101
-43.55
-46.964
-48.958
-49.315
-48.092
-45.673
-42.817
-40.247
-38.319
-37.34
-37.797
-39.923
-43.456
-47.607
-50.834
-51.432
-48.286
-40.35
-26.162
-4.613
24.759
61.733
104.729
151.45
199.931
247.651
290.888
325.774
348.511
355.604
344.834
314.886
264.68
194.234
106.616
6.024
-103.933
-218.01
-333.381
-447.313
-551.075
-638.032
-701.685
-735.758
-743.7
-729.43
-696.45
-651.118
-594.842
-529.342
-458.678
-385.474
-314.045
-248.831
-192.451
-146.759
-112.15
-87.735
-72.141
-63.78
-60.753
-60.775
-61.534
-60.974
-57.914
-52.17
-44.046
-34.09
-23.058
-11.872
-1.612
6.584
12.156
15.139
15.8
14.638
12.174
8.87
5.325
2.185
-0.154
-1.498
-1.794
-1.149
0.354
2.66
5.65
9.19
13.158
17.435
21.933
26.586
31.305
36.002
40.586
44.962
49.055
52.8
56.155
59.115
61.688
63.896
65.774
67.36
68.703
69.863
70.893
71.845
72.767
73.698
74.682
75.766
76.991
78.394
80.001
81.824
83.87
86.141
88.632
91.338
94.244
97.334
100.59
103.998
107.544
111.214
114.992
118.859
122.795
126.778
130.79
134.811
138.82
142.797
146.72
150.569
154.324
157.967
161.477
164.832
168.013
170.997
173.766
176.301
178.582
180.594
182.32
183.748
184.864
185.658
186.123
186.249
186.033
185.469
184.557
183.295
181.686
179.73
177.434
174.803
171.845
168.57
164.988
161.111
156.953
152.53
147.857
142.952
137.832
132.518
127.027
121.383
115.604
109.712
103.73
97.679
91.58
85.455
79.327
73.214
67.138
61.119
55.175
49.324
43.584
37.971
32.501
27.188
22.046
17.086
12.319
7.756
3.405
-0.727
-4.634
-8.311
-11.756
-14.965
-17.939
-20.676
-23.18
-25.453
-27.498
-29.32
-30.925
-32.32
-33.512
-34.509
-35.321
-35.957
-36.426
-36.739
-36.907
-36.94
-36.849
-36.646
-36.342
-35.947
-35.472
-34.927
-34.324
-33.671
-32.978
-32.255
-31.509
-30.748
-29.981
-29.213
-28.451
-27.7
-26.965
-26.251
-25.562
-24.899
-24.268
-23.668
-23.103
-22.573
-22.078
-21.62
-21.197
-20.809
-20.456
-20.136
-19.848
-19.591
-19.362
-19.16
-18.983
-18.83
-18.698
-18.585
-18.491
-18.412
-18.348
-18.297
-18.258
-18.23
-18.213
-18.206
-18.209
-18.221
-18.244
-18.276
-18.318
-18.372
-18.437
-18.513
-18.603
-18.707
-18.825
-18.959
-19.11
-19.279
-19.467
-19.675
-19.904
-20.155
-20.428
-20.725
-21.046
-21.392
-21.763
-22.159
-22.58
-23.027
-23.497
-23.992
-24.508
-25.045
-25.601
-26.173
-26.76
-27.357
-27.963
-28.574
-29.187
-29.798
-30.405
-31.004
-31.59
-32.161
-32.712
-33.239
-33.739
-34.208
-34.641
-35.034
-35.385
-35.688
-35.942
-36.142
-36.284
-36.366
-36.384
-36.336
-36.22
-36.033
-35.774
-35.443
-35.04
-34.566
-34.022
-33.411
-32.737
-32.003
-31.214
-30.373
-29.487
-28.56
-27.598
-26.607
-25.592
-24.561
-23.52
-22.477
-21.438
-20.414
-19.409
-18.432
-17.491
-16.592
-15.744
-14.954
-14.225
-13.563
-12.972
-12.458
-12.028
-11.685
-11.427
-11.251
-11.151
-11.123
-11.159
-11.248
-11.368
-11.501
-11.628
-11.735
-11.814
-11.856
-11.849
-11.778
-11.623
-11.379
-11.046
-10.631
-10.136
-9.567
-8.933
-8.266
-7.62
-7.046
-6.606
-6.34
-6.277
-6.457
-6.903
-7.656
-8.77
-10.275
-12.2
-14.576
-17.406
-20.733
-24.63
-29.025
-33.73
-38.478
-42.86
-46.555
-49.386
-51.037
-51.115
-49.527
-46.436
-42.343
-38.14
-34.465
-31.567
-29.883
-30.002
-31.993
-35.461
-39.349
-41.855
-41.564
-37.657
-28.965
-13.972
8.119
37.453
73.176
113.132
155.4
198.304
239.047
273.805
299.018
311.387
308.314
288.479
250.494
193.16
118.003
29.276
-69.493
-174.749
-284.049
-397.535
-509.287
-609.117
-688.173
-736.625
-752.956
-744.22
-716.173
-675.767
-627.305
-569.823
-504.623
-434.34
-361.635
-291.048
-226.556
-170.422
-123.998
-87.785
-61.136
-42.76
-31.691
-26.62
-25.517
-26.6
-28.116
-28.38
-26.842
-23.625
-18.773
-12.702
-6.138
0.3
5.781
9.471
11.194
11.143
9.608
7.088
4.077
0.99
-1.647
-3.349
-3.907
-3.278
-1.538
1.137
4.61
8.764
13.44
18.472
23.724
29.077
34.44
39.735
44.868
49.737
54.246
58.334
61.972
65.161
67.922
70.288
72.297
74
75.457
76.725
77.859
78.91
79.924
80.948
82.032
83.226
84.577
86.12
87.876
89.856
92.063
94.495
97.146
100.006
103.057
106.284
109.674
113.213
116.889
120.688
124.591
128.58
132.634
136.734
140.86
144.993
149.114
153.201
157.236
161.2
165.072
168.834
172.464
175.939
179.238
182.339
185.223
187.869
190.257
192.371
194.195
195.713
196.913
197.785
198.318
198.503
198.336
197.812
196.927
195.681
194.076
192.113
189.797
187.135
184.134
180.804
177.157
173.204
168.959
164.438
159.658
154.636
149.391
143.941
138.309
132.514
126.578
120.523
114.371
108.145
101.866
95.557
89.239
82.933
76.659
70.439
64.289
58.23
52.277
46.448
40.758
35.221
29.849
24.656
19.652
14.846
10.246
5.861
1.695
-2.246
-5.959
-9.441
-12.692
-15.71
-18.498
-21.057
-23.39
-25.501
-27.395
-29.078
-30.555
-31.834
-32.923
-33.829
-34.562
-35.129
-35.539
-35.803
-35.93
-35.928
-35.808
-35.579
-35.25
-34.83
-34.329
-33.755
-33.117
-32.422
-31.68
-30.898
-30.082
-29.241
-28.382
-27.509
-26.63
-25.75
-24.875
-24.01
-23.158
-22.324
-21.513
-20.728
-19.971
-19.246
-18.555
-17.901
-17.286
-16.712
-16.179
-15.689
-15.245
-14.845
-14.492
-14.185
-13.926
-13.714
-13.55
-13.432
-13.362
-13.339
-13.362
-13.43
-13.542
-13.698
-13.896
-14.135
-14.412
-14.728
-15.078
-15.463
-15.878
-16.323
-16.794
-17.289
-17.806
-18.342
-18.894
-19.459
-20.035
-20.618
-21.205
-21.793
-22.378
-22.957
-23.526
-24.082
-24.622
-25.142
-25.638
-26.109
-26.549
-26.958
-27.331
-27.666
-27.959
-28.21
-28.414
-28.571
-28.679
-28.735
-28.74
-28.691
-28.588
-28.431
-28.219
-27.953
-27.633
-27.259
-26.833
-26.356
-25.831
-25.259
-24.645
-23.99
-23.301
-22.582
-21.838
-21.075
-20.298
-19.514
-18.727
-17.944
-17.169
-16.407
-15.662
-14.94
-14.246
-13.585
-12.963
-12.386
-11.856
-11.38
-10.961
-10.599
-10.294
-10.044
-9.848
-9.707
-9.626
-9.606
-9.646
-9.743
-9.894
-10.092
-10.327
-10.581
-10.828
-11.045
-11.213
-11.317
-11.353
-11.311
-11.181
-10.951
-10.606
-10.139
-9.548
-8.831
-7.992
-7.045
-6.022
-4.984
-4.013
-3.18
-2.545
-2.149
-2.031
-2.245
-2.848
-3.898
-5.445
-7.513
-10.146
-13.418
-17.338
-21.805
-26.608
-31.391
-35.786
-39.531
-42.327
-43.809
-43.786
-42.319
-39.763
-36.803
-34.139
-32.182
-31.331
-32.144
-34.845
-39.128
-44.187
-48.552
-50.586
-49.109
-42.916
-30.43
-10.603
16.831
51.38
91.307
134.247
178.014
219.785
255.771
282.393
296.38
295.04
277.134
242.124
189.704
120.966
38.585
-54.076
-152.682
-252.619
-350.01
-440.711
-520.348
-585.55
-633.989
-664.232
-676.475
-671.568
-650.193
-614.17
-566.285
-509.558
-447.447
-383.258
-319.286
-257.839
-201.693
-152.865
-112.677
-81.607
-58.917
-43.56
-34.742
-31.163
-30.93
-32.154
-32.964
-32.232
-29.822
-25.843
-20.456
-14.101
-7.42
-1.247
3.447
6.216
7.158
6.557
4.849
2.481
-0.146
-2.525
-4.117
-4.638
-4.015
-2.304
0.325
3.738
7.834
12.47
17.488
22.749
28.135
33.554
38.926
44.156
49.141
53.781
58.007
61.79
65.122
68.023
70.526
72.666
74.49
76.054
77.41
78.609
79.7
80.727
81.737
82.78
83.905
85.162
86.588
88.205
90.029
92.064
94.309
96.761
99.412
102.247
105.253
108.42
111.736
115.192
118.777
122.474
126.267
130.136
134.064
138.033
142.025
146.02
150
153.946
157.839
161.661
165.393
169.013
172.501
175.834
178.99
181.95
184.693
187.199
189.449
191.426
193.114
194.499
195.569
196.31
196.713
196.77
196.474
195.819
194.804
193.426
191.685
189.584
187.128
184.323
181.175
177.696
173.896
169.789
165.388
160.709
155.769
150.587
145.182
139.573
133.783
127.831
121.742
115.537
109.239
102.873
96.46
90.024
83.588
77.173
70.801
64.494
58.271
52.153
46.157
40.301
34.601
29.073
23.73
18.585
13.648
8.93
4.438
0.18
-3.839
-7.615
-11.146
-14.431
-17.469
-20.262
-22.812
-25.124
-27.202
-29.052
-30.681
-32.096
-33.308
-34.323
-35.153
-35.808
-36.297
-36.634
-36.828
-36.891
-36.834
-36.67
-36.408
-36.061
-35.639
-35.153
-34.611
-34.025
-33.402
-32.751
-32.079
-31.395
-30.705
-30.014
-29.328
-28.652
-27.99
-27.344
-26.72
-26.118
-25.54
-24.989
-24.465
-23.968
-23.5
-23.058
-22.645
-22.258
-21.896
-21.56
-21.248
-20.958
-20.689
-20.441
-20.211
-20
-19.806
-19.627
-19.464
-19.316
-19.182
-19.063
-18.958
-18.868
-18.792
-18.733
-18.689
-18.663
-18.655
-18.666
-18.698
-18.751
-18.828
-18.928
-19.054
-19.206
-19.387
-19.595
-19.834
-20.101
-20.399
-20.727
-21.084
-21.471
-21.885
-22.325
-22.791
-23.28
-23.79
-24.319
-24.864
-25.422
-25.99
-26.564
-27.14
-27.714
-28.281
-28.838
-29.379
-29.899
-30.394
-30.859
-31.289
-31.679
-32.025
-32.321
-32.563
-32.746
-32.868
-32.924
-32.912
-32.83
-32.676
-32.45
-32.153
-31.785
-31.348
-30.845
-30.278
-29.65
-28.967
-28.232
-27.45
-26.626
-25.765
-24.873
-23.958
-23.027
-22.087
-21.147
-20.212
-19.294
-18.399
-17.537
-16.714
-15.934
-15.203
-14.526
-13.909
-13.362
-12.889
-12.491
-12.166
-11.915
-11.734
-11.617
-11.553
-11.519
-11.494
-11.461
-11.407
-11.327
-11.212
-11.052
-10.833
-10.538
-10.16
-9.699
-9.156
-8.53
-7.825
-7.059
-6.265
-5.51
-4.866
-4.391
-4.133
-4.127
-4.393
-4.972
-5.919
-7.28
-9.105
-11.42
-14.232
-17.586
-21.555
-26.117
-31.131
-36.32
-41.278
-45.664
-49.265
-51.821
-52.993
-52.598
-50.705
-47.707
-44.344
-41.289
-38.857
-37.317
-37.113
-38.433
-41.017
-44.122
-46.319
-46.066
-42.383
-34.337
-20.604
-0.235
27.144
61.277
100.639
143.094
186.789
229.291
267.151
296.87
314.916
318.077
304.589
273.409
223.67
155.871
72.123
-24.483
-129.477
-237.778
-344.843
-445.846
-535.759
-610.498
-666.903
-702.937
-718.419
-714.087
-691.059
-651.676
-599.118
-536.918
-469.208
-399.845
-331.755
-267.77
-210.44
-161.457
-121.963
-92.102
-70.814
-56.8
-48.781
-44.996
-43.683
-43.154
-41.683
-38.433
-33.398
-26.772
-18.971
-10.67
-2.495
4.759
10.172
13.406
14.552
13.874
11.854
8.97
5.631
2.354
-0.306
-2.028
-2.677
-2.253
-0.889
1.305
4.243
7.797
11.82
16.178
20.759
25.467
30.233
34.978
39.609
44.04
48.185
51.974
55.37
58.366
60.972
63.217
65.136
66.77
68.167
69.387
70.483
71.506
72.502
73.511
74.575
75.738
77.042
78.524
80.211
82.114
84.238
86.583
89.143
91.913
94.879
98.021
101.325
104.774
108.355
112.054
115.855
119.738
123.684
127.672
131.682
135.695
139.691
143.65
147.55
151.372
155.098
158.707
162.181
165.498
168.639
171.582
174.31
176.803
179.044
181.016
182.705
184.095
185.177
185.939
186.373
186.471
186.229
185.642
184.709
183.428
181.803
179.834
177.528
174.889
171.927
168.651
165.071
161.2
157.051
152.64
147.982
143.095
137.997
132.707
127.245
121.631
115.885
110.03
104.086
98.076
92.02
85.941
79.86
73.798
67.774
61.81
55.923
50.132
44.454
38.907
33.504
28.261
23.191
18.307
13.618
9.134
4.865
0.817
-3.004
-6.594
-9.949
-13.067
-15.948
-18.591
-21
-23.177
-25.125
-26.849
-28.357
-29.654
-30.748
-31.649
-32.365
-32.906
-33.283
-33.507
-33.589
-33.54
-33.372
-33.097
-32.727
-32.272
-31.745
-31.156
-30.517
-29.836
-29.126
-28.393
-27.649
-26.901
-26.156
-25.422
-24.705
-24.012
-23.346
-22.713
-22.116
-21.559
-21.044
-20.573
-20.148
-19.768
-19.435
-19.148
-18.906
-18.707
-18.551
-18.434
-18.355
-18.311
-18.298
-18.315
-18.359
-18.426
-18.512
-18.617
-18.735
-18.866
-19.006
-19.153
-19.304
-19.459
-19.615
-19.772
-19.929
-20.084
-20.238
-20.39
-20.541
-20.69
-20.838
-20.987
-21.137
-21.29
-21.447
-21.609
-21.779
-21.958
-22.148
-22.35
-22.567
-22.798
-23.046
-23.312
-23.595
-23.897
-24.218
-24.558
-24.917
-25.295
-25.69
-26.101
-26.527
-26.965
-27.414
-27.869
-28.328
-28.788
-29.245
-29.694
-30.132
-30.553
-30.954
-31.329
-31.673
-31.98
-32.244
-32.462
-32.626
-32.733
-32.778
-32.758
-32.668
-32.506
-32.272
-31.963
-31.581
-31.124
-30.593
-29.99
-29.317
-28.576
-27.77
-26.901
-25.974
-24.994
-23.969
-22.905
-21.812
-20.695
-19.564
-18.428
-17.296
-16.177
-15.082
-14.017
-12.99
-12.011
-11.091
-10.243
-9.475
-8.79
-8.19
-7.673
-7.235
-6.871
-6.571
-6.318
-6.095
-5.89
-5.69
-5.491
-5.287
-5.065
-4.814
-4.52
-4.169
-3.762
-3.304
-2.796
-2.256
-1.704
-1.162
-0.682
-0.311
-0.09
-0.067
-0.276
-0.742
-1.495
-2.557
-3.955
-5.733
-7.921
-10.538
-13.614
-17.125
-21.076
-25.503
-30.335
-35.431
-40.565
-45.373
-49.554
-52.923
-55.219
-56.126
-55.456
-53.125
-49.446
-45.126
-40.701
-36.607
-33.243
-30.943
-30.133
-31.043
-33.081
-35.054
-35.787
-33.975
-28.577
-18.631
-2.629
20.547
50.93
87.804
129.754
174.676
220.471
264.374
302.24
329.987
344.177
341.666
320.282
278.934
216.894
135.849
40.7
-64.464
-175.891
-290.505
-407.895
-522.355
-623.62
-702.653
-749.646
-763.238
-751.149
-720.118
-678.103
-629.633
-573.354
-510.22
-442.382
-372.216
-304.237
-242.111
-187.682
-142.148
-105.926
-78.437
-58.642
-45.728
-38.526
-35.221
-34.244
-34.006
-32.901
-30.374
-26.477
-21.18
-14.827
-8.082
-1.488
4.178
8.087
10.074
10.325
9.096
6.875
4.134
1.262
-1.216
-2.802
-3.284
-2.612
-0.856
1.803
5.236
9.337
13.947
18.902
24.056
29.283
34.492
39.606
44.533
49.172
53.425
57.227
60.557
63.42
65.842
67.861
69.517
70.863
71.962
72.874
73.659
74.372
75.056
75.762
76.542
77.444
78.52
79.806
81.32
83.075
85.074
87.313
89.788
92.486
95.389
98.48
101.746
105.171
108.742
112.445
116.259
120.164
124.138
128.16
132.209
136.265
140.305
144.309
148.255
152.123
155.893
159.544
163.054
166.402
169.565
172.523
175.256
177.745
179.973
181.924
183.583
184.937
185.977
186.692
187.077
187.124
186.831
186.195
185.216
183.895
182.235
180.241
177.919
175.277
172.324
169.072
165.533
161.719
157.647
153.333
148.792
144.044
139.106
133.997
128.739
123.349
117.85
112.261
106.602
100.894
95.157
89.409
83.671
77.959
72.293
66.687
61.159
55.723
50.393
45.183
40.105
35.171
30.391
25.775
21.331
17.066
12.987
9.099
5.406
1.912
-1.38
-4.471
-7.359
-10.046
-12.533
-14.822
-16.916
-18.821
-20.54
-22.079
-23.444
-24.642
-25.678
-26.561
-27.298
-27.895
-28.362
-28.706
-28.936
-29.058
-29.081
-29.014
-28.864
-28.638
-28.346
-27.993
-27.588
-27.137
-26.647
-26.125
-25.577
-25.009
-24.426
-23.833
-23.236
-22.639
-22.045
-21.459
-20.884
-20.322
-19.776
-19.248
-18.741
-18.255
-17.791
-17.352
-16.938
-16.548
-16.185
-15.848
-15.537
-15.251
-14.991
-14.756
-14.546
-14.359
-14.196
-14.056
-13.938
-13.841
-13.765
-13.709
-13.672
-13.653
-13.651
-13.666
-13.698
-13.745
-13.808
-13.886
-13.978
-14.086
-14.208
-14.345
-14.497
-14.664
-14.845
-15.042
-15.255
-15.482
-15.725
-15.984
-16.259
-16.551
-16.858
-17.181
-17.52
-17.874
-18.243
-18.626
-19.021
-19.428
-19.845
-20.272
-20.705
-21.145
-21.588
-22.033
-22.478
-22.919
-23.354
-23.78
-24.193
-24.589
-24.966
-25.32
-25.647
-25.944
-26.207
-26.431
-26.613
-26.751
-26.839
-26.876
-26.857
-26.78
-26.643
-26.444
-26.182
-25.857
-25.469
-25.019
-24.509
-23.94
-23.315
-22.637
-21.91
-21.137
-20.322
-19.47
-18.585
-17.673
-16.74
-15.794
-14.84
-13.887
-12.941
-12.01
-11.103
-10.228
-9.391
-8.595
-7.846
-7.148
-6.507
-5.931
-5.425
-4.987
-4.617
-4.313
-4.072
-3.891
-3.757
-3.651
-3.552
-3.445
-3.318
-3.167
-2.985
-2.761
-2.479
-2.122
-1.686
-1.173
-0.586
0.073
0.805
1.597
2.416
3.199
3.881
4.407
4.736
4.844
4.702
4.262
3.465
2.251
0.577
-1.582
-4.238
-7.433
-11.254
-15.696
-20.622
-25.764
-30.742
-35.227
-39.028
-41.912
-43.518
-43.628
-42.281
-39.825
-36.996
-34.46
-32.513
-31.399
-31.528
-33.116
-35.974
-39.405
-41.992
-42.222
-39.116
-31.783
-19.045
0.089
26.096
58.791
96.909
138.578
182.107
225.353
265.174
298.091
320.686
329.694
322.572
297.435
252.605
188.375
107.692
14.25
-88.462
-199.112
-317.721
-441.296
-561.618
-665.172
-738.492
-774.345
-774.475
-748.839
-708.093
-659.254
-604.864
-543.185
-474.22
-400.85
-327.048
-258.297
-198.389
-148.732
-110.018
-81.696
-62.34
-50.593
-44.861
-42.969
-42.956
-43.092
-41.76
-38.293
-32.807
-25.595
-17.219
-8.522
-0.244
6.802
11.765
14.416
14.942
13.677
11.161
7.931
4.439
1.221
-1.178
-2.489
-2.624
-1.611
0.389
3.258
6.901
11.171
15.911
20.979
26.248
31.615
37.001
42.307
47.427
52.259
56.708
60.721
64.277
67.378
70.05
72.323
74.234
75.835
77.185
78.342
79.361
80.294
81.185
82.082
83.036
84.093
85.302
86.691
88.279
90.074
92.077
94.285
96.693
99.29
102.057
104.981
108.048
111.245
114.561
117.982
121.491
125.07
128.7
132.364
136.043
139.721
143.379
146.999
150.563
154.054
157.456
160.75
163.918
166.94
169.797
172.47
174.942
177.196
179.216
180.985
182.491
183.721
184.666
185.315
185.662
185.7
185.423
184.83
183.917
182.685
181.134
179.268
177.091
174.608
171.828
168.757
165.406
161.787
157.912
153.793
149.446
144.886
140.129
135.192
130.092
124.848
119.479
114.002
108.438
102.805
97.124
91.412
85.688
79.972
74.28
68.63
63.039
57.523
52.096
46.774
41.57
36.496
31.565
26.787
22.173
17.73
13.468
9.392
5.508
1.821
-1.666
-4.95
-8.028
-10.902
-13.571
-16.037
-18.302
-20.369
-22.242
-23.926
-25.428
-26.752
-27.906
-28.897
-29.732
-30.421
-30.97
-31.39
-31.688
-31.873
-31.954
-31.939
-31.838
-31.658
-31.407
-31.095
-30.728
-30.314
-29.859
-29.372
-28.858
-28.324
-27.774
-27.215
-26.652
-26.089
-25.529
-24.977
-24.435
-23.906
-23.393
-22.896
-22.419
-21.96
-21.523
-21.105
-20.709
-20.334
-19.978
-19.643
-19.327
-19.03
-18.751
-18.489
-18.244
-18.015
-17.802
-17.604
-17.42
-17.251
-17.096
-16.955
-16.826
-16.711
-16.608
-16.519
-16.442
-16.378
-16.328
-16.292
-16.271
-16.265
-16.276
-16.304
-16.351
-16.417
-16.504
-16.614
-16.747
-16.905
-17.09
-17.302
-17.543
-17.815
-18.116
-18.448
-18.811
-19.204
-19.628
-20.08
-20.561
-21.068
-21.6
-22.155
-22.733
-23.33
-23.943
-24.572
-25.211
-25.859
-26.512
-27.165
-27.816
-28.459
-29.091
-29.706
-30.301
-30.87
-31.409
-31.912
-32.374
-32.79
-33.154
-33.461
-33.707
-33.887
-33.998
-34.035
-33.998
-33.884
-33.692
-33.424
-33.08
-32.66
-32.166
-31.601
-30.966
-30.266
-29.502
-28.68
-27.802
-26.876
-25.908
-24.906
-23.879
-22.835
-21.781
-20.727
-19.681
-18.653
-17.65
-16.679
-15.75
-14.871
-14.053
-13.308
-12.645
-12.066
-11.572
-11.16
-10.823
-10.555
-10.344
-10.173
-10.027
-9.896
-9.771
-9.648
-9.519
-9.373
-9.197
-8.979
-8.707
-8.38
-8.003
-7.578
-7.126
-6.67
-6.238
-5.875
-5.621
-5.503
-5.558
-5.819
-6.31
-7.064
-8.108
-9.451
-11.122
-13.145
-15.538
-18.332
-21.523
-25.076
-28.988
-33.27
-37.857
-42.615
-47.296
-51.523
-54.978
-57.442
-58.645
-58.25
-56.072
-52.219
-47.138
-41.642
-36.552
-32.36
-29.509
-28.634
-30.06
-33.515
-38.166
-42.434
-44.503
-43.15
-37.17
-24.888
-5.144
22.486
57.671
98.717
143.332
189.507
234.502
274.35
305.19
323.344
325.514
309.711
274.422
218.323
142.702
51.755
-50.224
-159.056
-273.187
-393.225
-515.087
-629.67
-723.468
-782.892
-802.786
-787.136
-746.807
-693.55
-634.471
-571.799
-504.653
-433.259
-360.269
-289.937
-227.052
-174.581
-133.395
-103.077
-82.036
-68.468
-60.901
-57.431
-56.086
-55.118
-52.851
-48.498
-42.162
-34.211
-25.163
-15.775
-6.771
1.048
6.758
10.032
11.049
10.142
7.848
4.714
1.187
-2.186
-4.804
-6.35
-6.713
-5.901
-4.074
-1.358
2.163
6.342
11.013
16.031
21.256
26.579
31.925
37.188
42.26
47.034
51.404
55.314
58.743
61.692
64.187
66.26
67.951
69.315
70.417
71.319
72.083
72.765
73.412
74.079
74.819
75.684
76.727
77.982
79.468
81.197
83.173
85.394
87.857
90.551
93.458
96.563
99.853
103.315
106.937
110.703
114.595
118.594
122.677
126.826
131.02
135.24
139.464
143.67
147.839
151.949
155.98
159.911
163.718
167.379
170.871
174.171
177.258
180.112
182.713
185.041
187.082
188.819
190.24
191.333
192.088
192.497
192.553
192.253
191.593
190.571
189.19
187.45
185.356
182.915
180.133
177.02
173.587
169.846
165.811
161.496
156.919
152.096
147.045
141.787
136.341
130.728
124.969
119.085
113.099
107.033
100.909
94.749
88.574
82.404
76.261
70.164
64.132
58.183
52.334
46.601
41.001
35.546
30.252
25.129
20.189
15.443
10.898
6.562
2.442
-1.457
-5.132
-8.579
-11.797
-14.786
-17.546
-20.078
-22.387
-24.476
-26.349
-28.012
-29.473
-30.738
-31.816
-32.715
-33.444
-34.012
-34.429
-34.704
-34.848
-34.871
-34.783
-34.593
-34.311
-33.947
-33.511
-33.011
-32.456
-31.855
-31.215
-30.545
-29.851
-29.141
-28.42
-27.694
-26.97
-26.251
-25.543
-24.849
-24.173
-23.518
-22.885
-22.278
-21.697
-21.144
-20.619
-20.124
-19.657
-19.22
-18.812
-18.433
-18.082
-17.759
-17.464
-17.196
-16.954
-16.738
-16.548
-16.383
-16.244
-16.129
-16.04
-15.976
-15.938
-15.926
-15.94
-15.982
-16.051
-16.148
-16.273
-16.428
-16.613
-16.829
-17.076
-17.355
-17.667
-18.012
-18.391
-18.803
-19.249
-19.728
-20.239
-20.782
-21.355
-21.957
-22.586
-23.239
-23.915
-24.609
-25.319
-26.042
-26.773
-27.508
-28.243
-28.972
-29.691
-30.394
-31.075
-31.73
-32.353
-32.938
-33.48
-33.972
-34.41
-34.788
-35.101
-35.343
-35.51
-35.599
-35.604
-35.523
-35.354
-35.095
-34.745
-34.305
-33.776
-33.161
-32.461
-31.68
-30.822
-29.891
-28.893
-27.833
-26.717
-25.55
-24.342
-23.101
-21.836
-20.558
-19.275
-17.999
-16.74
-15.506
-14.308
-13.156
-12.057
-11.022
-10.058
-9.175
-8.386
-7.698
-7.113
-6.633
-6.253
-5.968
-5.77
-5.647
-5.579
-5.552
-5.548
-5.555
-5.561
-5.554
-5.516
-5.434
-5.282
-5.049
-4.733
-4.333
-3.86
-3.331
-2.764
-2.19
-1.665
-1.236
-0.946
-0.846
-0.972
-1.369
-2.094
-3.188
-4.685
-6.613
-8.989
-11.83
-15.144
-18.925
-23.14
-27.751
-32.724
-37.942
-43.221
-48.295
-52.767
-56.262
-58.501
-59.141
-57.808
-54.472
-49.299
-42.717
-35.667
-28.927
-23.015
-18.707
-16.638
-16.747
-18.677
-21.472
-23.204
-22.288
-17.37
-6.557
11.537
37.371
70.927
110.993
154.994
200.336
243.895
281.41
308.834
322.542
319.319
297.312
255.896
195.108
116.448
23.158
-80.501
-189.415
-298.247
-402.046
-495.956
-575.554
-637.452
-679.442
-701.03
-703.141
-687.127
-655.009
-609.658
-554.172
-492.102
-427.237
-362.209
-299.03
-239.909
-186.383
-139.643
-100.859
-70.042
-46.395
-29.538
-18.836
-13.224
-12.017
-13.907
-17.014
-20.237
-22.833
-24.084
-23.81
-21.832
-17.617
-11.466
-4.317
3.098
9.915
15.608
20.225
23.589
25.286
25.4
24.341
22.656
21.182
20.382
20.287
21.037
22.793
25.578
29.359
33.905
38.77
43.679
48.522
53.191
57.641
61.799
65.547
68.859
71.788
74.376
76.664
78.676
80.407
81.887
83.171
84.314
85.379
86.414
87.453
88.537
89.707
91.005
92.476
94.148
96.035
98.145
100.48
103.039
105.823
108.821
112.015
115.389
118.923
122.6
126.407
130.325
134.336
138.418
142.548
146.705
150.869
155.016
159.125
163.174
167.139
170.998
174.732
178.32
181.739
184.968
187.986
190.773
193.309
195.576
197.556
199.234
200.596
201.629
202.324
202.671
202.665
202.299
201.571
200.48
199.024
197.207
195.032
192.505
189.632
186.424
182.891
179.044
174.899
170.469
165.771
160.823
155.643
150.25
144.665
138.908
133.001
126.965
120.823
114.596
108.306
101.976
95.627
89.281
82.959
76.68
70.464
64.33
58.296
52.378
46.593
40.955
35.479
30.176
25.059
20.138
15.421
10.917
6.631
2.569
-1.265
-4.869
-8.242
-11.384
-14.295
-16.978
-19.436
-21.672
-23.693
-25.504
-27.112
-28.524
-29.748
-30.792
-31.667
-32.38
-32.943
-33.365
-33.655
-33.825
-33.884
-33.842
-33.709
-33.496
-33.21
-32.862
-32.459
-32.011
-31.526
-31.01
-30.47
-29.913
-29.344
-28.769
-28.192
-27.618
-27.051
-26.493
-25.948
-25.419
-24.906
-24.413
-23.939
-23.488
-23.058
-22.65
-22.265
-21.903
-21.563
-21.246
-20.95
-20.676
-20.424
-20.193
-19.984
-19.795
-19.628
-19.482
-19.357
-19.255
-19.176
-19.119
-19.088
-19.081
-19.101
-19.148
-19.224
-19.33
-19.466
-19.633
-19.832
-20.063
-20.326
-20.622
-20.95
-21.31
-21.701
-22.122
-22.573
-23.051
-23.556
-24.086
-24.638
-25.209
-25.797
-26.398
-27.009
-27.624
-28.241
-28.853
-29.456
-30.046
-30.616
-31.16
-31.673
-32.15
-32.583
-32.967
-33.297
-33.567
-33.773
-33.911
-33.976
-33.966
-33.88
-33.715
-33.473
-33.153
-32.756
-32.282
-31.734
-31.115
-30.428
-29.676
-28.862
-27.992
-27.072
-26.108
-25.109
-24.082
-23.034
-21.974
-20.911
-19.855
-18.816
-17.803
-16.822
-15.881
-14.987
-14.151
-13.384
-12.693
-12.079
-11.543
-11.086
-10.703
-10.394
-10.148
-9.947
-9.775
-9.614
-9.454
-9.29
-9.114
-8.916
-8.684
-8.4
-8.057
-7.657
-7.201
-6.693
-6.139
-5.551
-4.959
-4.418
-3.983
-3.716
-3.666
-3.869
-4.36
-5.166
-6.321
-7.881
-9.885
-12.369
-15.362
-18.869
-22.922
-27.582
-32.803
-38.409
-44.123
-49.535
-54.296
-58.197
-60.967
-62.25
-61.868
-59.914
-56.807
-53.33
-50.185
-47.696
-46.157
-46.044
-47.559
-50.429
-53.856
-56.325
-56.227
-52.54
-44.281
-30.049
-8.839
19.707
55.282
96.277
140.482
185.971
230.171
269.387
299.872
318.029
320.663
305.823
272.341
219.384
147.347
59.465
-39.997
-147.344
-257.557
-367.9
-475.731
-573.054
-653.946
-712.628
-743.546
-750.221
-736.512
-705.767
-663.853
-611.771
-550.712
-484.231
-414.635
-345.451
-280.364
-221.524
-170.572
-128.673
-96.089
-72.11
-55.661
-45.701
-40.766
-39.421
-40.362
-41.688
-41.857
-40.426
-37.355
-32.726
-26.914
-20.116
-12.47
-4.952
1.347
6.047
9.125
10.767
11.329
10.904
9.397
7.314
5.463
4.292
4.053
4.768
6.257
8.526
11.739
15.788
20.366
25.233
30.153
35.007
39.811
44.493
48.924
53.016
56.719
60.016
62.946
65.532
67.776
69.7
71.333
72.722
73.935
75.034
76.068
77.083
78.116
79.206
80.4
81.739
83.264
85.002
86.963
89.152
91.573
94.223
97.098
100.186
103.463
106.912
110.514
114.255
118.12
122.094
126.153
130.278
134.445
138.634
142.823
146.989
151.111
155.165
159.128
162.979
166.698
170.263
173.651
176.842
179.812
182.542
185.013
187.205
189.101
190.687
191.948
192.873
193.452
193.679
193.546
193.049
192.188
190.96
189.369
187.416
185.108
182.451
179.452
176.123
172.475
168.521
164.275
159.754
154.974
149.954
144.713
139.272
133.651
127.872
121.956
115.927
109.807
103.619
97.384
91.126
84.867
78.627
72.427
66.287
60.227
54.263
48.413
42.693
37.117
31.699
26.451
21.385
16.51
11.836
7.37
3.119
-0.913
-4.721
-8.303
-11.657
-14.783
-17.681
-20.354
-22.804
-25.036
-27.053
-28.862
-30.47
-31.884
-33.112
-34.162
-35.043
-35.764
-36.336
-36.767
-37.068
-37.249
-37.318
-37.286
-37.162
-36.955
-36.674
-36.327
-35.924
-35.47
-34.975
-34.444
-33.884
-33.302
-32.703
-32.093
-31.476
-30.857
-30.239
-29.627
-29.024
-28.432
-27.854
-27.291
-26.745
-26.217
-25.709
-25.22
-24.752
-24.305
-23.878
-23.473
-23.089
-22.726
-22.384
-22.063
-21.762
-21.482
-21.223
-20.985
-20.769
-20.575
-20.404
-20.257
-20.134
-20.036
-19.964
-19.918
-19.9
-19.91
-19.949
-20.017
-20.116
-20.244
-20.405
-20.596
-20.819
-21.074
-21.36
-21.676
-22.022
-22.397
-22.799
-23.226
-23.677
-24.149
-24.641
-25.15
-25.672
-26.206
-26.747
-27.291
-27.835
-28.374
-28.904
-29.418
-29.913
-30.384
-30.825
-31.232
-31.6
-31.923
-32.197
-32.418
-32.581
-32.681
-32.715
-32.679
-32.571
-32.388
-32.128
-31.792
-31.379
-30.89
-30.327
-29.694
-28.992
-28.224
-27.394
-26.508
-25.569
-24.583
-23.555
-22.491
-21.398
-20.286
-19.163
-18.037
-16.918
-15.814
-14.734
-13.688
-12.684
-11.732
-10.836
-10.003
-9.238
-8.55
-7.949
-7.438
-7.019
-6.688
-6.442
-6.277
-6.187
-6.159
-6.174
-6.212
-6.256
-6.294
-6.319
-6.323
-6.292
-6.212
-6.063
-5.837
-5.535
-5.155
-4.701
-4.177
-3.591
-2.976
-2.384
-1.866
-1.48
-1.269
-1.269
-1.518
-2.047
-2.897
-4.122
-5.761
-7.848
-10.412
-13.462
-17.026
-21.161
-25.822
-30.848
-35.991
-40.879
-45.176
-48.67
-51.076
-52.017
-51.279
-48.901
-45.225
-40.971
-36.843
-33.192
-30.382
-28.998
-29.36
-31.327
-34.238
-36.651
-36.905
-34.01
-26.968
-14.065
5.902
33.401
68.479
108.712
151.037
194.588
236.934
276.231
311.13
335.106
343.033
330.21
291.493
229.304
148.003
53.759
-45.692
-148.468
-255.165
-366.643
-481.282
-590.424
-681.126
-741.743
-766.681
-759.147
-729.152
-686.615
-637.956
-585.199
-526.548
-461.757
-393.073
-323.836
-258.836
-201.474
-153.019
-114.175
-84.619
-63.249
-49.143
-41.119
-37.307
-35.968
-35.472
-34.173
-31.317
-26.865
-20.891
-13.764
-6.172
1.269
7.781
12.486
15.111
15.782
14.778
12.598
9.74
6.616
3.738
1.641
0.58
0.613
1.672
3.548
6.085
9.172
12.674
16.454
20.409
24.458
28.534
32.586
36.544
40.323
43.847
47.042
49.888
52.406
54.655
56.724
58.69
60.623
62.573
64.577
66.651
68.789
70.992
73.261
75.609
78.058
80.633
83.36
86.245
89.276
92.424
95.636
98.869
102.086
105.265
108.397
111.493
114.58
117.681
120.818
123.999
127.222
130.479
133.758
137.045
140.324
143.59
146.844
150.084
153.309
156.506
159.659
162.74
165.713
168.545
171.203
173.659
175.89
177.88
179.612
181.077
182.271
183.185
183.81
184.139
184.163
183.875
183.274
182.358
181.132
179.599
177.766
175.638
173.223
170.529
167.563
164.334
160.848
157.116
153.147
148.955
144.553
139.955
135.178
130.237
125.15
119.936
114.61
109.191
103.696
98.142
92.547
86.929
81.305
75.691
70.104
64.56
59.075
53.664
48.341
43.122
38.019
33.044
28.21
23.527
19.005
14.653
10.481
6.494
2.7
-0.896
-4.289
-7.476
-10.454
-13.222
-15.78
-18.127
-20.267
-22.2
-23.931
-25.463
-26.802
-27.953
-28.921
-29.714
-30.339
-30.804
-31.118
-31.288
-31.325
-31.238
-31.036
-30.73
-30.328
-29.841
-29.279
-28.651
-27.967
-27.235
-26.465
-25.666
-24.845
-24.011
-23.17
-22.331
-21.499
-20.68
-19.88
-19.104
-18.356
-17.64
-16.96
-16.318
-15.716
-15.156
-14.64
-14.168
-13.741
-13.357
-13.018
-12.721
-12.467
-12.253
-12.077
-11.939
-11.835
-11.764
-11.724
-11.711
-11.723
-11.759
-11.815
-11.889
-11.981
-12.087
-12.207
-12.339
-12.483
-12.636
-12.798
-12.969
-13.148
-13.334
-13.528
-13.729
-13.939
-14.156
-14.382
-14.618
-14.863
-15.118
-15.383
-15.658
-15.942
-16.237
-16.54
-16.851
-17.17
-17.495
-17.827
-18.165
-18.51
-18.86
-19.216
-19.576
-19.94
-20.304
-20.665
-21.018
-21.356
-21.677
-21.975
-22.247
-22.488
-22.694
-22.861
-22.989
-23.075
-23.116
-23.106
-23.035
-22.898
-22.698
-22.438
-22.13
-21.783
-21.4
-20.994
-20.578
-20.16
-19.746
-19.33
-18.895
-18.432
-17.941
-17.428
-16.911
-16.398
-15.883
-15.36
-14.815
-14.237
-13.62
-12.945
-12.181
-11.316
-10.349
-9.302
-8.227
-7.152
-6.092
-5.048
-4.003
-2.953
-1.911
-0.884
0.118
1.079
1.991
2.826
3.532
4.09
4.49
4.755
4.941
5.075
5.162
5.195
5.134
4.953
4.632
4.129
3.409
2.442
1.2
-0.308
-2.064
-4.084
-6.388
-9.027
-12.065
-15.524
-19.432
-23.843
-28.709
-33.897
-39.176
-44.175
-48.548
-52.052
-54.392
-55.204
-54.277
-51.668
-47.757
-43.272
-38.947
-35.216
-32.479
-31.366
-32.267
-35.018
-38.903
-42.449
-43.913
-42.103
-35.843
-23.434
-3.572
24.344
60.218
102.517
148.929
197.426
245.241
288.315
322.657
344.421
349.904
336.847
303.951
249.933
176.037
86.61
-15.007
-125.288
-241.165
-362.535
-483.507
-593.209
-682.071
-739.522
-763.227
-760.371
-737.426
-701.823
-657.748
-603.823
-540.886
-471.238
-398.073
-326.476
-260.429
-202.379
-153.881
-115.497
-86.962
-67.269
-55.168
-49.202
-47.363
-47.739
-48.532
-47.994
-45.357
-40.632
-33.987
-25.91
-17.176
-8.489
-0.722
5.185
8.922
10.598
10.484
9.076
6.858
4.242
1.744
-0.1
-0.999
-0.846
0.329
2.375
5.168
8.613
12.578
16.918
21.501
26.219
30.98
35.72
40.37
44.849
49.08
52.991
56.523
59.645
62.363
64.697
66.68
68.352
69.757
70.943
71.972
72.898
73.774
74.645
75.548
76.524
77.614
78.858
80.291
81.938
83.808
85.904
88.224
90.764
93.516
96.464
99.591
102.877
106.307
109.865
113.537
117.305
121.148
125.046
128.977
132.919
136.852
140.754
144.605
148.382
152.065
155.634
159.071
162.354
165.464
168.382
171.088
173.563
175.791
177.757
179.444
180.841
181.935
182.717
183.181
183.319
183.129
182.606
181.751
180.564
179.049
177.208
175.048
172.575
169.799
166.73
163.379
159.758
155.881
151.763
147.419
142.867
138.123
133.205
128.131
122.921
117.593
112.167
106.662
101.096
95.49
89.861
84.228
78.609
73.022
67.482
62.006
56.609
51.304
46.106
41.026
36.077
31.267
26.608
22.108
17.774
13.613
9.631
5.833
2.222
-1.199
-4.427
-7.461
-10.302
-12.95
-15.407
-17.674
-19.755
-21.654
-23.374
-24.922
-26.302
-27.521
-28.584
-29.5
-30.274
-30.914
-31.427
-31.821
-32.104
-32.283
-32.365
-32.358
-32.27
-32.106
-31.874
-31.582
-31.234
-30.839
-30.401
-29.927
-29.422
-28.892
-28.341
-27.775
-27.197
-26.612
-26.024
-25.436
-24.85
-24.271
-23.7
-23.14
-22.592
-22.059
-21.541
-21.04
-20.558
-20.095
-19.652
-19.23
-18.83
-18.453
-18.099
-17.769
-17.464
-17.185
-16.932
-16.707
-16.508
-16.339
-16.198
-16.087
-16.007
-15.957
-15.939
-15.952
-15.998
-16.077
-16.189
-16.334
-16.513
-16.726
-16.973
-17.254
-17.569
-17.918
-18.3
-18.715
-19.161
-19.637
-20.141
-20.672
-21.227
-21.803
-22.399
-23.01
-23.634
-24.267
-24.906
-25.546
-26.184
-26.816
-27.436
-28.041
-28.626
-29.185
-29.715
-30.211
-30.668
-31.082
-31.448
-31.761
-32.017
-32.213
-32.344
-32.406
-32.397
-32.314
-32.154
-31.917
-31.602
-31.209
-30.74
-30.197
-29.582
-28.9
-28.153
-27.347
-26.485
-25.574
-24.619
-23.625
-22.6
-21.55
-20.484
-19.411
-18.339
-17.276
-16.232
-15.214
-14.232
-13.295
-12.41
-11.582
-10.818
-10.122
-9.501
-8.966
-8.52
-8.162
-7.889
-7.697
-7.581
-7.535
-7.548
-7.6
-7.671
-7.745
-7.81
-7.86
-7.887
-7.88
-7.825
-7.703
-7.51
-7.247
-6.919
-6.529
-6.082
-5.589
-5.08
-4.605
-4.214
-3.961
-3.885
-4.017
-4.39
-5.028
-5.966
-7.251
-8.914
-10.986
-13.488
-16.428
-19.835
-23.772
-28.199
-32.958
-37.794
-42.329
-46.223
-49.254
-51.134
-51.489
-50.113
-47.097
-42.867
-38.228
-33.985
-30.597
-28.511
-28.368
-30.508
-34.69
-40.092
-45.12
-47.941
-47.281
-41.833
-29.814
-9.989
18.1
54.13
96.377
142.466
190.25
236.729
277.677
309.092
327.272
328.89
311.986
275.289
217.735
140.895
49.404
-52.985
-162.6
-276.603
-395.004
-511.826
-616.263
-698.911
-749.424
-766.012
-756.251
-726.519
-684.373
-634.541
-576.019
-510.119
-439.382
-366.425
-296.175
-232.804
-178.677
-135.201
-102.334
-78.933
-63.598
-55.182
-52.08
-52.083
-53.05
-52.945
-50.578
-45.894
-39.203
-30.819
-21.338
-11.592
-2.566
4.594
9.311
11.687
12.028
10.805
8.508
5.576
2.566
0.123
-1.354
-1.728
-1.001
0.679
3.183
6.442
10.33
14.696
19.406
24.337
29.387
34.49
39.567
44.522
49.262
53.693
57.735
61.352
64.535
67.294
69.66
71.663
73.342
74.747
75.937
76.97
77.9
78.777
79.641
80.541
81.523
82.636
83.921
85.407
87.107
89.029
91.174
93.54
96.122
98.908
101.879
105.022
108.322
111.767
115.345
119.039
122.831
126.702
130.633
134.603
138.595
142.589
146.565
150.503
154.382
158.185
161.892
165.482
168.935
172.229
175.343
178.257
180.951
183.406
185.604
187.528
189.165
190.501
191.524
192.225
192.596
192.63
192.321
191.667
190.665
189.317
187.622
185.585
183.21
180.504
177.474
174.129
170.481
166.54
162.321
157.837
153.104
148.139
142.959
137.583
132.029
126.318
120.47
114.505
108.446
102.313
96.128
89.911
83.683
77.465
71.277
65.136
59.063
53.076
47.19
41.423
35.79
30.306
24.983
19.835
14.873
10.108
5.548
1.202
-2.924
-6.822
-10.488
-13.918
-17.11
-20.062
-22.775
-25.248
-27.485
-29.488
-31.261
-32.81
-34.141
-35.261
-36.176
-36.897
-37.43
-37.787
-37.977
-38.011
-37.898
-37.649
-37.277
-36.791
-36.202
-35.522
-34.761
-33.929
-33.037
-32.096
-31.115
-30.103
-29.07
-28.025
-26.976
-25.931
-24.898
-23.885
-22.896
-21.939
-21.019
-20.14
-19.307
-18.523
-17.791
-17.114
-16.494
-15.932
-15.43
-14.987
-14.603
-14.279
-14.014
-13.805
-13.654
-13.557
-13.513
-13.52
-13.578
-13.683
-13.834
-14.029
-14.266
-14.542
-14.856
-15.204
-15.585
-15.996
-16.436
-16.901
-17.389
-17.899
-18.428
-18.974
-19.534
-20.107
-20.69
-21.281
-21.878
-22.478
-23.079
-23.68
-24.277
-24.869
-25.454
-26.031
-26.596
-27.148
-27.685
-28.203
-28.701
-29.176
-29.626
-30.046
-30.435
-30.79
-31.108
-31.386
-31.622
-31.813
-31.955
-32.048
-32.089
-32.074
-32.004
-31.875
-31.688
-31.443
-31.139
-30.777
-30.36
-29.889
-29.368
-28.8
-28.187
-27.533
-26.843
-26.119
-25.367
-24.59
-23.792
-22.981
-22.161
-21.34
-20.525
-19.721
-18.937
-18.178
-17.452
-16.765
-16.125
-15.537
-15.004
-14.533
-14.129
-13.801
-13.554
-13.387
-13.297
-13.278
-13.326
-13.43
-13.58
-13.754
-13.932
-14.098
-14.234
-14.331
-14.376
-14.355
-14.251
-14.044
-13.723
-13.29
-12.751
-12.113
-11.386
-10.588
-9.757
-8.951
-8.226
-7.64
-7.244
-7.083
-7.212
-7.679
-8.524
-9.791
-11.513
-13.71
-16.409
-19.629
-23.361
-27.605
-32.344
-37.434
-42.68
-47.809
-52.434
-56.232
-58.924
-60.136
-59.569
-57.222
-53.275
-48.181
-42.694
-37.317
-32.494
-28.924
-26.999
-26.595
-27.249
-27.883
-27.041
-23.694
-16.683
-4.36
14.277
39.587
71.277
107.862
147.46
188.264
227.496
261.356
286.265
298.75
296.027
276.668
239.336
183.245
109.457
20.6
-79.551
-186.08
-294.171
-399.344
-496.18
-579.576
-645.693
-691.695
-716.645
-721.177
-706.06
-672.827
-624.656
-565.162
-498.352
-428.589
-358.954
-291.893
-230.338
-176.522
-131.678
-96.569
-70.689
-52.604
-41.346
-35.735
-33.834
-33.916
-34.306
-33.419
-30.762
-26.503
-20.711
-13.756
-6.337
0.929
7.226
11.72
14.239
14.977
14.209
12.399
10.004
7.404
5.092
3.562
3.034
3.563
5.09
7.447
10.511
14.191
18.35
22.842
27.543
32.337
37.141
41.896
46.527
50.955
55.103
58.895
62.295
65.301
67.93
70.216
72.195
73.909
75.407
76.749
77.989
79.184
80.377
81.609
82.921
84.356
85.954
87.756
89.786
92.056
94.57
97.326
100.317
103.536
106.967
110.589
114.384
118.333
122.421
126.63
130.942
135.334
139.783
144.266
148.758
153.237
157.679
162.062
166.36
170.553
174.616
178.53
182.271
185.818
189.149
192.242
195.076
197.633
199.894
201.843
203.464
204.745
205.675
206.244
206.445
206.273
205.725
204.798
203.493
201.814
199.762
197.345
194.571
191.448
187.988
184.203
180.108
175.718
171.051
166.123
160.955
155.566
149.977
144.209
138.285
132.224
126.052
119.788
113.457
107.079
100.678
94.274
87.889
81.542
75.255
69.044
62.928
56.924
51.047
45.312
39.734
34.323
29.093
24.052
19.21
14.574
10.152
5.949
1.967
-1.788
-5.317
-8.617
-11.69
-14.537
-17.161
-19.564
-21.75
-23.724
-25.492
-27.06
-28.435
-29.623
-30.633
-31.473
-32.151
-32.675
-33.055
-33.3
-33.419
-33.421
-33.314
-33.109
-32.813
-32.435
-31.984
-31.467
-30.894
-30.271
-29.606
-28.906
-28.178
-27.426
-26.658
-25.879
-25.094
-24.308
-23.525
-22.75
-21.986
-21.237
-20.507
-19.798
-19.114
-18.458
-17.831
-17.237
-16.677
-16.153
-15.667
-15.22
-14.813
-14.448
-14.125
-13.846
-13.611
-13.422
-13.278
-13.18
-13.128
-13.123
-13.165
-13.253
-13.388
-13.57
-13.799
-14.073
-14.393
-14.758
-15.166
-15.618
-16.11
-16.641
-17.209
-17.811
-18.444
-19.106
-19.793
-20.501
-21.226
-21.964
-22.712
-23.465
-24.218
-24.967
-25.708
-26.434
-27.143
-27.828
-28.485
-29.107
-29.692
-30.233
-30.727
-31.168
-31.551
-31.873
-32.13
-32.317
-32.431
-32.469
-32.429
-32.308
-32.106
-31.822
-31.456
-31.011
-30.488
-29.891
-29.224
-28.492
-27.699
-26.852
-25.957
-25.021
-24.05
-23.051
-22.032
-20.998
-19.959
-18.923
-17.899
-16.894
-15.917
-14.978
-14.084
-13.246
-12.469
-11.756
-11.111
-10.537
-10.04
-9.626
-9.301
-9.062
-8.91
-8.845
-8.86
-8.952
-9.104
-9.291
-9.489
-9.682
-9.853
-9.999
-10.11
-10.173
-10.172
-10.092
-9.923
-9.667
-9.322
-8.88
-8.344
-7.73
-7.08
-6.472
-5.977
-5.643
-5.51
-5.597
-5.94
-6.601
-7.636
-9.101
-11.04
-13.459
-16.402
-19.975
-24.184
-28.916
-33.922
-38.779
-43.113
-46.704
-49.3
-50.552
-50.282
-48.571
-45.827
-42.862
-40.424
-38.873
-38.498
-39.709
-42.638
-46.936
-51.717
-55.381
-56.218
-53.119
-45.1
-30.843
-9.39
19.557
55.579
96.993
141.466
187.046
231.383
271.014
302.325
321.83
326.484
314.531
284.909
236.679
169.82
86.995
-7.061
-108.261
-212.742
-318.56
-425.836
-528.864
-618.578
-687.002
-725.099
-732.672
-717.406
-685.262
-643.793
-596.995
-543.347
-483.751
-420.013
-354.121
-290.141
-231.548
-180.059
-136.766
-102.116
-75.524
-56.078
-43.143
-35.668
-31.965
-30.599
-30.092
-28.946
-26.669
-23.28
-18.72
-13.291
-7.567
-2.013
2.695
5.825
7.235
7.101
5.673
3.401
0.727
-1.992
-4.289
-5.714
-6.067
-5.31
-3.513
-0.844
2.558
6.584
11.079
15.877
20.844
25.86
30.836
35.7
40.369
44.753
48.768
52.362
55.515
58.235
60.552
62.505
64.136
65.499
66.657
67.67
68.596
69.486
70.385
71.341
72.401
73.611
75.017
76.649
78.527
80.66
83.049
85.689
88.573
91.688
95.015
98.536
102.236
106.096
110.104
114.239
118.481
122.808
127.195
131.619
136.059
140.489
144.887
149.23
153.493
157.655
161.694
165.587
169.31
172.841
176.157
179.234
182.053
184.595
186.839
188.77
190.373
191.635
192.545
193.095
193.277
193.085
192.518
191.573
190.251
188.555
186.489
184.06
181.276
178.148
174.687
170.906
166.82
162.446
157.801
152.904
147.774
142.432
136.898
131.196
125.346
119.372
113.297
107.143
100.932
94.688
88.431
82.185
75.968
69.802
63.704
57.694
51.788
46.003
40.352
34.851
29.512
24.347
19.365
14.576
9.988
5.606
1.438
-2.514
-6.247
-9.758
-13.048
-16.116
-18.964
-21.594
-24.01
-26.216
-28.217
-30.019
-31.629
-33.053
-34.3
-35.376
-36.291
-37.053
-37.67
-38.151
-38.506
-38.743
-38.871
-38.898
-38.834
-38.687
-38.465
-38.176
-37.828
-37.428
-36.982
-36.499
-35.983
-35.441
-34.878
-34.3
-33.711
-33.115
-32.517
-31.921
-31.329
-30.744
-30.17
-29.607
-29.059
-28.528
-28.014
-27.519
-27.045
-26.592
-26.162
-25.756
-25.374
-25.018
-24.687
-24.383
-24.107
-23.858
-23.638
-23.446
-23.283
-23.149
-23.046
-22.973
-22.93
-22.918
-22.937
-22.988
-23.07
-23.184
-23.329
-23.507
-23.717
-23.958
-24.232
-24.537
-24.874
-25.242
-25.64
-26.067
-26.523
-27.006
-27.514
-28.045
-28.598
-29.17
-29.757
-30.358
-30.97
-31.588
-32.211
-32.835
-33.456
-34.071
-34.677
-35.269
-35.845
-36.4
-36.931
-37.434
-37.905
-38.339
-38.735
-39.087
-39.393
-39.649
-39.851
-39.996
-40.081
-40.103
-40.06
-39.951
-39.772
-39.524
-39.207
-38.822
-38.369
-37.851
-37.272
-36.634
-35.941
-35.198
-34.411
-33.583
-32.721
-31.829
-30.915
-29.982
-29.038
-28.091
-27.146
-26.211
-25.294
-24.4
-23.538
-22.715
-21.939
-21.216
-20.549
-19.942
-19.399
-18.926
-18.529
-18.211
-17.971
-17.806
-17.713
-17.688
-17.725
-17.81
-17.923
-18.041
-18.147
-18.228
-18.275
-18.28
-18.23
-18.109
-17.897
-17.59
-17.187
-16.69
-16.103
-15.425
-14.669
-13.866
-13.078
-12.369
-11.793
-11.394
-11.198
-11.235
-11.548
-12.198
-13.239
-14.712
-16.647
-19.052
-21.968
-25.478
-29.58
-34.152
-38.941
-43.584
-47.75
-51.231
-53.788
-55.058
-54.811
-53.075
-50.181
-46.844
-43.762
-41.296
-39.752
-39.592
-41.082
-44.047
-47.792
-50.905
-51.781
-49.301
-42.464
-29.989
-10.796
15.587
48.92
87.861
130.333
174.411
217.827
257.371
289.451
310.639
317.955
309.172
282.788
237.772
173.871
93.32
0.79
-99.989
-205.727
-314.15
-425.28
-533.456
-628.822
-702.511
-744.654
-754.134
-738.436
-704.3
-660.04
-609.925
-552.496
-488.875
-420.963
-351.315
-285.083
-225.778
-175.094
-134.356
-103.4
-81.093
-66.375
-57.999
-54.147
-53.068
-53.017
-52.119
-49.428
-44.861
-38.544
-30.868
-22.491
-14.017
-6.263
-0.238
3.652
5.458
5.419
4.012
1.704
-1.12
-3.941
-6.175
-7.476
-7.698
-6.835
-5.032
-2.408
0.95
4.911
9.319
14.033
18.935
23.927
28.944
33.913
38.743
43.348
47.646
51.566
55.071
58.153
60.824
63.112
65.053
66.686
68.062
69.24
70.275
71.22
72.12
73.016
73.951
74.968
76.112
77.423
78.928
80.64
82.567
84.71
87.068
89.635
92.4
95.346
98.459
101.726
105.134
108.673
112.326
116.078
119.909
123.8
127.733
131.689
135.65
139.596
143.507
147.363
151.147
154.839
158.419
161.867
165.161
168.28
171.204
173.912
176.387
178.609
180.561
182.229
183.597
184.655
185.391
185.796
185.862
185.583
184.956
183.978
182.647
180.966
178.936
176.563
173.852
170.811
167.451
163.781
159.814
155.565
151.049
146.282
141.282
136.069
130.66
125.079
119.345
113.481
107.511
101.455
95.339
89.185
83.015
76.854
70.723
64.644
58.637
52.725
46.925
41.257
35.737
30.383
25.21
20.231
15.46
10.907
6.582
2.494
-1.351
-4.946
-8.288
-11.374
-14.204
-16.777
-19.095
-21.161
-22.98
-24.557
-25.9
-27.015
-27.913
-28.602
-29.095
-29.402
-29.535
-29.508
-29.333
-29.023
-28.593
-28.054
-27.422
-26.709
-25.928
-25.091
-24.21
-23.297
-22.364
-21.42
-20.476
-19.54
-18.621
-17.726
-16.862
-16.035
-15.251
-14.512
-13.823
-13.186
-12.603
-12.074
-11.601
-11.182
-10.817
-10.504
-10.24
-10.022
-9.848
-9.712
-9.612
-9.543
-9.501
-9.482
-9.482
-9.497
-9.524
-9.559
-9.6
-9.644
-9.687
-9.728
-9.764
-9.793
-9.814
-9.825
-9.827
-9.819
-9.801
-9.774
-9.74
-9.7
-9.656
-9.609
-9.562
-9.519
-9.482
-9.454
-9.439
-9.44
-9.463
-9.51
-9.586
-9.694
-9.836
-10.015
-10.231
-10.487
-10.78
-11.111
-11.477
-11.879
-12.314
-12.781
-13.279
-13.805
-14.358
-14.938
-15.539
-16.159
-16.789
-17.424
-18.056
-18.678
-19.28
-19.852
-20.384
-20.87
-21.302
-21.673
-21.975
-22.196
-22.321
-22.339
-22.245
-22.034
-21.703
-21.252
-20.682
-20.005
-19.241
-18.409
-17.522
-16.581
-15.579
-14.513
-13.38
-12.179
-10.908
-9.556
-8.106
-6.55
-4.882
-3.095
-1.176
0.908
3.207
5.759
8.583
11.673
15.007
18.562
22.31
26.209
30.206
34.225
38.196
42.063
