-165.904
-235.164
-277.625
-289.008
-278.224
-260.907
-249.847
-249.623
-257.251
-266.081
-271.792
-274.115
-274.868
-276.306
-279.06
-282.297
-284.982
-286.469
-286.652
-285.547
-283.26
-279.984
-275.958
-271.607
-267.353
-263.363
-259.698
-256.399
-253.427
-250.787
-248.477
-246.401
-244.478
-242.667
-240.922
-239.217
-237.517
-235.747
-233.858
-231.822
-229.617
-227.244
-224.711
-222.027
-219.222
-216.334
-213.394
-210.438
-207.494
-204.575
-201.708
-198.915
-196.22
-193.654
-191.229
-188.945
-186.801
-184.794
-182.912
-181.149
-179.485
-177.893
-176.349
-174.829
-173.312
-171.795
-170.273
-168.74
-167.205
-165.676
-164.172
-162.736
-161.401
-160.195
-159.15
-158.3
-157.673
-157.309
-157.241
-157.481
-158.057
-158.99
-160.296
-162.004
-164.11
-166.581
-169.401
-172.561
-175.982
-179.515
-182.909
-185.795
-187.868
-188.924
-188.718
-186.931
-183.391
-178.185
-171.707
-164.715
-157.914
-151.656
-146.308
-142.456
-140.461
-140.217
-141.071
-141.59
-140.259
-136.215
-128.431
-115.289
-95.43
-67.944
-33.579
4.726
44.249
83.645
123.741
166.037
208.624
244.708
262.412
250.133
202.646
123.278
24.285
-82.466
-190.501
-298.54
-411.405
-527.867
-638.483
-732.534
-797.118
-828.13
-832.153
-815.654
-785.913
-746.377
-695.01
-632.368
-560.637
-483.25
-405.31
-330.541
-261.91
-201.962
-152.088
-112.826
-83.691
-63.456
-51.011
-44.841
-42.775
-42.524
-41.78
-39.108
-34.208
-27.213
-18.387
-8.276
2.325
12.365
20.606
26.412
29.809
31.069
30.666
29.086
26.779
24.331
22.402
21.375
21.351
22.277
23.97
26.287
29.15
32.433
35.985
39.686
43.449
47.235
51.032
54.801
58.474
61.988
65.294
68.382
71.299
74.107
76.859
79.607
82.388
85.245
88.217
91.332
94.588
97.956
101.414
104.956
108.595
112.344
116.207
120.164
124.17
128.185
132.183
136.14
140.037
143.852
147.57
151.192
154.746
158.274
161.808
165.359
168.925
172.5
176.082
179.676
183.285
186.9
190.509
194.097
197.651
201.16
204.605
207.957
211.174
214.209
217.023
219.589
221.881
223.879
225.562
226.909
227.909
228.556
228.843
228.766
228.317
227.49
226.284
224.702
222.752
220.443
217.783
214.781
211.449
207.799
203.843
199.596
195.07
190.28
185.24
179.97
174.49
168.82
162.984
157.003
150.902
144.705
138.439
132.127
125.795
119.467
113.168
106.921
100.751
94.68
88.729
82.922
77.276
71.812
66.547
61.499
56.681
52.107
47.79
43.739
39.966
36.476
33.276
30.371
27.764
25.458
23.453
21.747
20.338
19.222
18.393
17.844
17.566
17.55
17.783
18.255
18.951
19.859
20.962
22.246
23.694
25.29
27.016
28.856
30.791
32.804
34.878
36.994
39.137
41.29
43.437
45.564
47.657
49.702
51.687
53.6
55.429
57.163
58.794
60.312
61.709
62.978
64.113
65.109
65.962
66.67
67.231
67.643
67.907
68.025
67.997
67.827
67.519
67.078
66.509
65.82
65.017
64.111
63.11
62.023
60.863
59.636
58.355
57.028
55.663
54.27
52.855
51.428
49.995
48.568
47.156
45.769
44.42
43.118
41.875
40.7
39.601
38.587
37.662
36.83
36.094
35.46
34.932
34.517
34.219
34.039
33.974
34.017
34.155
34.37
34.646
34.959
35.293
35.636
35.981
36.329
36.686
37.058
37.442
37.829
38.209
38.577
38.932
39.276
39.619
39.978
40.371
40.83
41.379
42.028
42.772
43.59
44.451
45.317
46.17
46.998
47.789
48.534
49.214
49.815
50.318
50.698
50.923
50.938
50.697
50.169
49.344
48.225
46.831
45.181
43.274
41.112
38.689
36.001
33.041
29.787
26.225
22.349
18.162
13.709
9.018
4.095
-1.058
-6.447
-12.08
-17.933
-23.999
-30.322
-36.832
-43.368
-49.695
-55.426
-60.271
-64.083
-66.594
-67.475
-66.666
-64.314
-60.878
-57.178
-53.738
-50.694
-48.357
-47.182
-47.227
-48.212
-49.267
-48.863
-45.94
-40.074
-30.6
-16.466
2.993
28.081
58.303
91.986
127.703
164.424
200.275
232.287
257.302
272.02
273.511
259.999
229.582
180.312
112.786
30.386
-63.072
-163.889
-271.234
-386.593
-507.07
-623.799
-722.536
-788.702
-815.426
-806.071
-772.164
-725.57
-673.605
-618.193
-556.78
-488.689
-416.363
-343.593
-275.758
-216.563
-167.275
-128.51
-99.765
-79.741
-67.32
-61.126
-59.094
-59.36
-60.242
-60.046
-58.017
-54.147
-48.536
-41.615
-34.153
-26.82
-20.414
-15.812
-13.259
-12.596
-13.557
-15.639
-18.336
-21.221
-23.754
-25.408
-25.947
-25.309
-23.554
-20.856
-17.341
-13.114
-8.336
-3.173
2.229
7.744
13.284
18.77
24.106
29.186
33.904
38.19
42.019
45.391
48.326
50.858
53.023
54.873
56.47
57.875
59.147
60.338
61.493
62.662
63.897
65.248
66.765
68.483
70.42
72.584
74.977
77.595
80.429
83.466
86.685
90.07
93.603
97.27
101.055
104.939
108.898
112.907
116.94
120.972
124.98
128.941
132.832
136.632
140.322
143.881
147.289
150.522
153.552
156.354
158.907
161.193
163.2
164.921
166.355
167.502
168.37
168.958
169.267
169.286
169
168.394
167.452
166.169
164.549
162.596
160.314
157.704
154.763
151.481
147.841
143.82
139.39
134.537
129.263
123.593
117.571
111.254
104.711
97.998
91.161
84.242
77.28
70.315
63.391
56.559
49.878
43.418
37.261
31.47
26.092
21.141
16.608
12.459
8.642
5.116
1.845
-1.196
-4.026
-6.664
-9.123
-11.427
-13.6
-15.679
-17.718
-19.759
-21.836
-23.959
-26.119
-28.292
-30.435
-32.513
-34.497
-36.365
-38.106
-39.714
-41.187
-42.527
-43.736
-44.81
-45.733
-46.494
-47.083
-47.5
-47.755
-47.865
-47.854
-47.745
-47.561
-47.319
-47.031
-46.707
-46.351
-45.966
-45.549
-45.102
-44.631
-44.142
-43.642
-43.136
-42.628
-42.119
-41.611
-41.103
-40.594
-40.086
-39.579
-39.074
-38.575
-38.085
-37.609
-37.151
-36.715
-36.304
-35.917
-35.557
-35.224
-34.917
-34.635
-34.377
-34.142
-33.928
-33.736
-33.563
-33.409
-33.27
-33.146
-33.034
-32.93
-32.833
-32.739
-32.645
-32.546
-32.44
-32.322
-32.19
-32.038
-31.864
-31.663
-31.431
-31.163
-30.857
-30.506
-30.109
-29.659
-29.156
-28.596
-27.977
-27.298
-26.559
-25.762
-24.907
-23.996
-23.033
-22.019
-20.957
-19.851
-18.706
-17.525
-16.312
-15.072
-13.811
-12.536
-11.253
-9.97
-8.694
-7.431
-6.189
-4.974
-3.794
-2.656
-1.566
-0.53
0.447
1.357
2.191
2.941
3.607
4.191
4.698
5.132
5.502
5.816
6.094
6.354
6.611
6.881
7.172
7.493
7.855
8.274
8.77
9.353
10.024
10.77
11.579
12.437
13.325
14.204
15.017
15.701
16.195
16.444
16.404
16.023
15.257
14.063
12.396
10.212
7.483
4.192
0.327
-4.093
-9.063
-14.59
-20.551
-26.739
-32.859
-38.485
-43.249
-46.914
-49.134
-49.496
-47.93
-44.541
-39.743
-34.526
-29.599
-25.342
-22.45
-21.522
-22.56
-25.371
-29.048
-31.575
-31.536
-27.886
-18.734
-2.549
21.327
53.461
92.27
133.82
176.311
218.22
257.8
295.8
327.762
344.967
340.029
304.203
236.808
146.82
42.977
-66.037
-178.133
-298.184
-426.178
-554.949
-669.547
-752.625
-795.16
-799.092
-775.651
-736.986
-690.15
-637.226
-575.929
-505.863
-430.166
-353.062
-280.132
-215.467
-160.92
-117.46
-84.794
-61.69
-46.747
-38.496
-34.942
-34.064
-33.904
-32.498
-28.845
-22.869
-14.811
-5.155
5.328
15.874
25.548
33.256
38.542
41.484
42.362
41.704
40.039
37.819
35.617
34.065
33.528
34.153
35.939
38.732
42.403
46.865
51.979
57.584
63.541
69.719
76.011
82.341
88.624
94.755
100.638
106.176
111.288
115.934
120.105
123.81
127.077
129.937
132.43
134.604
136.518
138.229
139.787
141.24
142.628
143.994
145.383
146.839
148.401
150.093
151.926
153.904
156.027
158.289
160.684
163.198
165.813
168.513
171.284
174.114
176.992
179.903
182.829
185.755
188.662
191.535
194.356
197.111
199.783
202.355
204.813
207.142
209.328
211.356
213.211
214.878
216.342
217.59
218.607
219.383
219.907
220.168
220.159
219.874
219.308
218.458
217.321
215.897
214.187
212.192
209.916
207.365
204.543
201.459
198.12
194.537
190.72
186.681
182.434
177.991
173.367
168.577
163.637
158.562
153.369
148.075
142.696
137.249
131.751
126.219
120.668
115.115
109.576
104.066
98.598
93.188
87.848
82.591
77.428
72.371
67.43
62.613
57.931
53.389
48.996
44.756
40.675
36.757
33.006
29.422
26.009
22.766
19.694
16.792
14.059
11.493
9.091
6.851
4.769
2.841
1.062
-0.571
-2.064
-3.423
-4.653
-5.76
-6.75
-7.629
-8.405
-9.082
-9.669
-10.173
-10.598
-10.954
-11.246
-11.48
-11.663
-11.802
-11.902
-11.969
-12.008
-12.025
-12.025
-12.013
-11.994
-11.972
-11.952
-11.939
-11.936
-11.948
-11.979
-12.033
-12.113
-12.223
-12.367
-12.547
-12.766
-13.028
-13.334
-13.686
-14.087
-14.536
-15.036
-15.586
-16.187
-16.839
-17.541
-18.293
-19.093
-19.94
-20.833
-21.769
-22.747
-23.765
-24.82
-25.909
-27.028
-28.174
-29.343
-30.53
-31.731
-32.94
-34.152
-35.361
-36.562
-37.749
-38.915
-40.055
-41.161
-42.229
-43.251
-44.223
-45.138
-45.991
-46.777
-47.492
-48.131
-48.691
-49.168
-49.56
-49.864
-50.078
-50.201
-50.233
-50.173
-50.02
-49.777
-49.444
-49.026
-48.524
-47.943
-47.289
-46.567
-45.784
-44.948
-44.068
-43.15
-42.205
-41.242
-40.268
-39.293
-38.324
-37.37
-36.439
-35.539
-34.678
-33.865
-33.108
-32.412
-31.785
-31.231
-30.751
-30.346
-30.014
-29.753
-29.565
-29.451
-29.412
-29.448
-29.555
-29.729
-29.963
-30.245
-30.554
-30.864
-31.15
-31.392
-31.574
-31.689
-31.725
-31.671
-31.515
-31.24
-30.836
-30.295
-29.607
-28.771
-27.797
-26.713
-25.581
-24.479
-23.475
-22.632
-21.988
-21.587
-21.495
-21.772
-22.485
-23.693
-25.424
-27.739
-30.75
-34.471
-38.798
-43.501
-48.167
-52.416
-56.006
-58.64
-59.93
-59.684
-57.991
-55.286
-52.402
-50.101
-48.741
-48.653
-50.345
-54.019
-59.339
-65.389
-70.512
-72.967
-71.653
-65.481
-52.879
-32.726
-4.597
31.152
72.784
118.01
164.869
210.642
251.322
282.909
301.548
303.794
287.605
251.392
193.696
115.74
21.709
-83.85
-196.444
-314.451
-438.576
-564.989
-684.57
-783.556
-847.986
-872.182
-860.171
-822.895
-771.901
-714.577
-653.095
-585.968
-513.402
-437.722
-362.554
-293.223
-233.246
-183.733
-145.15
-116.545
-96.183
-83.097
-76.001
-72.731
-71.464
-70.469
-68.095
-63.887
-58.097
-50.83
-42.524
-33.986
-25.87
-19.031
-14.35
-11.965
-11.625
-13.003
-15.561
-18.768
-22.187
-25.256
-27.414
-28.407
-28.163
-26.735
-24.3
-20.986
-16.892
-12.172
-6.993
-1.504
4.158
9.886
15.601
21.202
26.581
31.637
36.274
40.44
44.126
47.339
50.113
52.482
54.491
56.193
57.653
58.933
60.095
61.191
62.268
63.379
64.573
65.902
67.411
69.13
71.074
73.248
75.65
78.273
81.107
84.135
87.336
90.69
94.182
97.794
101.515
105.326
109.207
113.138
117.096
121.059
125.005
128.909
132.749
136.501
140.144
143.655
147.014
150.202
153.199
155.982
158.529
160.816
162.818
164.512
165.88
166.909
167.59
167.924
167.913
167.567
166.896
165.907
164.605
162.986
161.042
158.764
156.141
153.174
149.874
146.248
142.306
138.054
133.493
128.619
123.418
117.874
111.961
105.672
99.013
92.009
84.709
77.171
69.464
61.647
53.766
45.866
37.985
30.166
22.451
14.89
7.544
0.479
-6.226
-12.508
-18.324
-23.66
-28.528
-32.96
-37.009
-40.716
-44.117
-47.239
-50.102
-52.724
-55.125
-57.325
-59.352
-61.245
-63.057
-64.834
-66.609
-68.397
-70.192
-71.972
-73.7
-75.347
-76.886
-78.301
-79.584
-80.733
-81.75
-82.639
-83.407
-84.049
-84.556
-84.916
-85.123
-85.178
-85.09
-84.879
-84.566
-84.177
-83.732
-83.248
-82.737
-82.209
-81.666
-81.111
-80.54
-79.957
-79.364
-78.766
-78.17
-77.58
-76.997
-76.423
-75.855
-75.293
-74.733
-74.174
-73.614
-73.053
-72.49
-71.928
-71.37
-70.818
-70.275
-69.741
-69.218
-68.706
-68.206
-67.717
-67.238
-66.769
-66.311
-65.862
-65.424
-64.997
-64.581
-64.177
-63.784
-63.403
-63.032
-62.67
-62.318
-61.974
-61.636
-61.305
-60.978
-60.655
-60.336
-60.021
-59.708
-59.397
-59.088
-58.778
-58.466
-58.149
-57.825
-57.489
-57.14
-56.777
-56.396
-55.997
-55.579
-55.141
-54.685
-54.211
-53.716
-53.199
-52.655
-52.083
-51.477
-50.836
-50.153
-49.426
-48.652
-47.831
-46.965
-46.055
-45.099
-44.096
-43.04
-41.928
-40.763
-39.547
-38.282
-36.979
-35.647
-34.304
-32.979
-31.692
-30.455
-29.273
-28.143
-27.058
-26.017
-25.014
-24.042
-23.094
-22.158
-21.224
-20.292
-19.344
-18.359
-17.303
-16.114
-14.748
-13.184
-11.408
-9.421
-7.239
-4.87
-2.336
0.324
3.079
5.897
8.748
11.626
14.504
17.341
20.091
22.676
25.024
27.097
28.856
30.268
31.329
32.023
32.334
32.287
31.883
31.104
29.948
28.385
26.391
23.98
21.149
17.909
14.287
10.279
5.893
1.171
-3.897
-9.342
-15.097
-21.052
-26.979
-32.495
-37.264
-41.02
-43.429
-44.092
-42.775
-39.538
-34.781
-29.297
-23.93
-19.223
-15.719
-14.188
-15.093
-18.264
-22.956
-27.601
-30.25
-29.56
-24.147
-11.889
8.749
38.331
76.899
121.96
170.077
219.786
267.884
311.846
349.719
374.234
379.54
360.091
310.375
234.466
138.81
30.198
-83.675
-203.686
-332.146
-465.931
-597.315
-710.052
-787.61
-822.903
-818.784
-787.428
-742.159
-690.992
-636.261
-575.656
-508.488
-437.207
-365.693
-299.317
-241.416
-192.847
-153.823
-123.441
-100.214
-82.925
-70.23
-60.306
-51.659
-43.051
-33.259
-21.932
-9.394
3.96
17.535
30.532
42.347
52.345
59.794
64.538
66.811
66.937
65.481
63.005
59.937
56.785
54.079
52.117
51.069
51.027
51.924
53.686
56.255
59.501
63.297
67.524
72.048
76.735
81.443
86.022
90.35
94.339
97.913
101.011
103.586
105.604
107.084
108.096
108.717
109.031
109.108
109.025
108.884
108.812
108.951
109.418
110.295
111.635
113.48
115.87
118.825
122.347
126.391
130.878
135.74
140.922
146.378
152.06
157.906
163.825
169.726
175.538
181.208
186.696
191.964
196.973
201.694
206.122
210.274
214.184
217.87
221.332
224.564
227.555
230.303
232.814
235.094
237.131
238.914
240.432
241.675
242.639
243.313
243.675
243.698
243.351
242.612
241.473
239.929
237.981
235.629
232.877
229.733
226.214
222.336
218.114
213.563
208.698
203.538
198.104
192.423
186.522
180.424
174.156
167.741
161.206
154.575
147.872
141.118
134.335
127.544
120.768
114.029
107.347
100.745
94.242
87.856
81.606
75.509
69.579
63.832
58.278
52.93
47.798
42.89
38.215
33.779
29.588
25.646
21.957
18.523
15.343
12.419
9.748
7.328
5.156
3.226
1.534
0.073
-1.163
-2.183
-2.994
-3.606
-4.027
-4.267
-4.337
-4.246
-4.005
-3.625
-3.117
-2.491
-1.757
-0.927
-0.009
0.985
2.046
3.163
4.328
5.532
6.765
8.019
9.286
10.558
11.828
13.09
14.338
15.566
16.771
17.947
19.093
20.204
21.278
22.314
23.311
24.267
25.182
26.057
26.89
27.683
28.436
29.149
29.825
30.462
31.062
31.626
32.155
32.65
33.11
33.538
33.934
34.299
34.635
34.941
35.221
35.473
35.701
35.903
36.08
36.233
36.36
36.461
36.535
36.581
36.598
36.584
36.539
36.46
36.347
36.199
36.013
35.789
35.526
35.224
34.883
34.503
34.085
33.632
33.145
32.628
32.085
31.52
30.937
30.339
29.732
29.118
28.502
27.885
27.271
26.663
26.069
25.492
24.942
24.425
23.952
23.531
23.173
22.885
22.674
22.548
22.509
22.563
22.715
22.971
23.342
23.832
24.444
25.178
26.031
26.995
28.057
29.195
30.387
31.615
32.866
34.134
35.422
36.733
38.068
39.436
40.831
42.251
43.7
45.174
46.674
48.21
49.798
51.47
53.269
55.22
57.338
59.626
62.065
64.634
67.309
70.051
72.83
75.623
78.401
81.147
83.85
86.48
89.007
91.384
93.54
95.427
97.015
98.274
99.204
99.803
100.069
100.027
99.698
99.085
98.198
97.026
95.535
93.722
91.581
89.114
86.365
83.35
80.061
76.508
72.678
68.574
64.232
59.639
54.744
49.595
44.323
39.169
34.523
30.703
27.939
26.525
26.81
28.991
32.993
38.415
44.515
50.548
56.053
60.571
63.462
64.37
63.508
61.605
60.058
60.482
63.994
71.794
85.569
106.472
134.923
170.614
211.98
256.895
303.364
348.442
388.035
418.274
435.314
435.696
417.281
378.269
318.202
239.414
145.536
39.9
-75.901
-201.521
-334.203
-465.397
-580.723
-665.948
-713.015
-723.015
-705.793
-671.681
-626.962
-574.055
-511.348
-439.071
-360.762
-280.77
-204.637
-136.559
-78.625
-31.995
3.472
28.978
46.051
56.242
61.551
64.027
65.628
68.31
73.079
79.971
88.666
98.63
109.084
119.258
128.238
134.96
138.986
140.432
139.638
137.181
133.633
129.487
125.344
121.85
119.381
118.066
117.876
118.645
120.237
122.564
125.509
128.931
132.712
136.762
141
145.368
149.797
154.182
158.431
162.465
166.232
169.739
173.044
176.194
179.243
182.243
185.22
188.205
191.221
194.258
197.312
200.391
203.497
206.657
209.902
213.242
216.685
220.213
223.776
227.337
230.863
234.319
237.69
240.968
244.15
247.268
250.348
253.401
256.435
259.44
262.399
265.304
268.144
270.903
273.581
276.171
278.662
281.05
283.32
285.449
287.411
289.165
290.672
291.901
292.828
293.432
293.699
293.616
293.171
292.364
291.188
289.641
287.718
285.417
282.736
279.679
276.252
272.465
268.329
263.854
259.052
253.936
248.518
242.81
236.827
230.58
224.083
217.352
210.404
203.258
195.934
188.45
180.829
173.09
165.256
157.347
149.385
141.389
133.38
125.377
117.399
109.465
101.591
93.795
86.091
78.495
71.021
63.683
56.491
49.457
42.592
35.905
29.405
23.099
16.995
11.097
5.412
-0.057
-5.306
-10.334
-15.139
-19.722
-24.083
-28.226
-32.154
-35.87
-39.381
-42.692
-45.811
-48.744
-51.499
-54.086
-56.512
-58.786
-60.918
-62.917
-64.792
-66.553
-68.208
-69.768
-71.241
-72.636
-73.963
-75.229
-76.445
-77.617
-78.754
-79.865
-80.956
-82.034
-83.107
-84.18
-85.259
-86.35
-87.456
-88.581
-89.729
-90.902
-92.101
-93.329
-94.586
-95.872
-97.186
-98.527
-99.896
-101.29
-102.708
-104.148
-105.609
-107.089
-108.588
-110.102
-111.631
-113.173
-114.726
-116.287
-117.856
-119.431
-121.01
-122.591
-124.173
-125.756
-127.338
-128.919
-130.499
-132.078
-133.656
-135.233
-136.812
-138.392
-139.976
-141.565
-143.161
-144.767
-146.386
-148.02
-149.671
-151.341
-153.032
-154.746
-156.483
-158.243
-160.027
-161.833
-163.663
-165.516
-167.391
-169.289
-171.21
-173.156
-175.126
-177.12
-179.136
-181.17
-183.218
-185.275
-187.337
-189.396
-191.445
-193.475
-195.483
-197.464
-199.415
-201.331
-203.201
-205.016
-206.769
-208.46
-210.086
-211.649
-213.151
-214.596
-215.999
-217.383
-218.769
-220.169
-221.586
-223.017
-224.46
-225.915
-227.379
-228.854
-230.324
-231.774
-233.191
-234.571
-235.902
-237.167
-238.331
-239.341
-240.158
-240.764
-241.154
-241.34
-241.333
-241.147
-240.804
-240.341
-239.806
-239.249
-238.702
-238.187
-237.734
-237.382
-237.192
-237.243
-237.593
-238.275
-239.313
-240.714
-242.487
-244.636
-247.147
-249.992
-253.134
-256.551
-260.237
-264.206
-268.474
-273.041
-277.893
-282.997
-288.324
-293.869
-299.64
-305.645
-311.9
-318.406
-325.151
-332.165
-339.504
-347.13
-354.899
-362.548
-369.686
-375.98
-381.218
-385.134
-387.374
-387.744
-386.324
-383.526
-380.111
-376.795
-373.949
-371.923
-371.281
-372.308
-374.778
-377.942
-380.327
-380.315
-376.838
-368.799
-354.661
-333.331
-304.361
-268.024
-225.935
-180.303
-133.171
-87.371
-46.812
-15.402
2.96
4.941
-11.329
-47.173
-103.397
-179.089
-271.611
-377.053
-490.208
-605.698
-718.504
-822.967
-913.674
-986.415
-1038.179
-1067.868
-1076.026
-1063.614
-1032.327
-985.43
-926.869
-860.978
-792.223
-723.803
-658.305
-598.557
-546.787
-504.21
-471.081
-446.441
-428.664
-416.583
-408.848
-403.561
-398.905
-393.168
-385.366
-375.562
-364.218
-351.752
-338.761
-326.027
-314.414
-304.915
-298.017
-293.592
-291.331
-290.789
-291.495
-293.028
-294.878
-296.475
-297.482
-297.786
-297.381
-296.358
-294.794
-292.724
-290.239
-287.469
-284.527
-281.516
-278.518
-275.578
-272.745
-270.077
-267.615
-265.367
-263.314
-261.388
-259.489
-257.545
-255.485
-253.241
-250.756
-247.963
-244.784
-241.164
-237.051
-232.406
-227.216
-221.47
-215.164
-208.336
-201.043
-193.383
-185.492
-177.475
-169.412
-161.378
-153.426
-145.611
-137.991
-130.604
-123.472
-116.616
-110.046
-103.774
-97.816
-92.161
-86.783
-81.634
-76.643
-71.761
-66.962
-62.223
-57.539
-52.907
-48.323
-43.8
-39.365
-35.038
-30.84
-26.786
-22.885
-19.156
-15.624
-12.322
-9.285
-6.543
-4.111
-2.004
-0.231
1.205
2.302
3.067
3.516
3.661
3.512
3.079
2.37
1.395
0.169
-1.294
-2.977
-4.865
-6.941
-9.19
-11.593
-14.133
-16.794
-19.557
-22.41
-25.334
-28.312
-31.326
-34.357
-37.387
-40.397
-43.37
-46.287
-49.132
-51.888
-54.54
-57.076
-59.481
-61.744
-63.855
-65.803
-67.579
-69.176
-70.588
-71.806
-72.828
-73.648
-74.263
-74.672
-74.872
-74.864
-74.647
-74.226
-73.6
-72.776
-71.756
-70.547
-69.154
-67.584
-65.844
-63.943
-61.888
-59.69
-57.356
-54.896
-52.319
-49.636
-46.853
-43.981
-41.027
-38
-34.905
-31.751
-28.542
-25.285
-21.986
-18.647
-15.275
-11.872
-8.442
-4.987
-1.51
1.988
5.504
9.038
12.59
16.157
19.742
23.343
26.962
30.598
34.252
37.924
41.617
45.329
49.061
52.814
56.587
60.38
64.192
68.022
71.867
75.726
79.595
83.47
87.348
91.224
95.092
98.947
102.784
106.597
110.379
114.125
117.828
121.483
125.084
128.625
132.102
135.508
138.839
142.091
145.26
148.342
151.335
154.236
157.044
159.758
162.377
164.902
167.335
169.678
171.933
174.104
176.196
178.214
180.166
182.057
183.896
185.69
187.45
189.184
190.901
192.61
194.321
196.042
197.782
199.547
201.345
203.181
205.062
206.994
208.979
211.023
213.129
215.3
217.537
219.843
222.217
224.658
227.165
229.733
232.359
235.04
237.77
240.543
243.352
246.189
249.048
251.925
254.811
257.697
260.57
263.421
266.246
269.042
271.807
274.541
277.242
279.917
282.577
285.236
287.906
290.595
293.301
296.025
298.771
301.547
304.366
307.228
310.122
313.032
315.939
318.83
321.683
324.456
327.085
329.499
331.631
333.428
334.85
335.856
336.409
336.464
335.967
334.883
333.193
330.887
327.977
324.452
320.267
315.489
310.299
304.97
299.917
295.495
291.954
289.619
288.886
289.947
292.762
296.963
301.682
306.121
309.752
311.937
312.071
309.906
305.548
299.803
294.464
291.255
291.612
297.504
310.587
331.89
362.242
400.107
442.549
488.174
534.28
578.992
620.662
652.179
667.707
661.523
628.112
570.48
492.155
398.619
297.869
191.249
81.613
-28.57
-138.115
-237.87
-320.514
-380.153
-410.776
-416.219
-400.883
-368.314
-324.702
-271.123
-208.856
-141.598
-71.602
-2.576
61.626
118.883
167.587
206.876
237.01
258.976
273.89
282.976
287.912
290.29
291.662
293.675
297.099
301.935
308.07
315.148
322.556
329.784
336.12
340.686
343.2
343.791
342.721
340.468
337.49
334.16
330.979
328.515
327.077
326.773
327.577
329.31
331.836
335.042
338.772
342.834
347.04
351.242
355.337
359.277
363.023
366.511
369.663
372.399
374.669
376.466
377.822
378.783
379.4
379.734
379.859
379.875
379.906
380.038
380.324
380.78
381.388
382.15
383.089
384.225
385.572
387.123
388.858
390.759
392.818
395.013
397.31
399.652
401.961
404.189
406.315
408.337
410.28
412.15
413.94
415.644
417.258
418.777
420.193
421.49
422.633
423.602
424.385
424.977
425.388
425.613
425.633
425.427
424.961
424.209
423.153
421.77
420.039
417.944
415.474
412.628
409.412
405.832
401.89
397.587
392.925
387.908
382.548
376.854
370.842
364.526
357.922
351.051
343.934
336.592
329.047
321.318
313.424
305.388
297.231
288.976
280.645
272.262
263.85
255.433
247.035
238.679
230.388
222.182
214.081
206.106
198.275
190.604
183.108
175.804
168.704
161.819
155.161
148.739
142.561
136.634
130.963
125.552
120.403
115.517
110.894
106.533
102.431
98.584
94.986
91.632
88.514
85.624
82.953
80.491
78.229
76.153
74.253
72.516
70.929
69.48
68.156
66.943
65.829
64.8
63.845
62.951
62.106
61.299
60.518
59.752
58.992
58.227
57.449
56.648
55.818
54.951
54.041
53.082
52.071
51.002
49.874
48.684
47.429
46.111
44.727
43.28
41.77
40.199
38.569
36.882
35.142
33.352
31.516
29.638
27.721
25.77
23.789
21.783
19.755
17.711
15.655
13.59
11.521
9.453
7.388
5.332
3.288
1.259
-0.752
-2.743
-4.709
-6.651
-8.565
-10.45
-12.306
-14.132
-15.926
-17.689
-19.42
-21.12
-22.787
-24.424
-26.028
-27.602
-29.146
-30.659
-32.143
-33.598
-35.024
-36.421
-37.79
-39.129
-40.44
-41.722
-42.975
-44.199
-45.394
-46.559
-47.695
-48.8
-49.875
-50.918
-51.93
-52.909
-53.855
-54.767
-55.644
-56.488
-57.297
-58.073
-58.816
-59.527
-60.21
-60.866
-61.497
-62.105
-62.696
-63.27
-63.833
-64.388
-64.938
-65.487
-66.041
-66.604
-67.184
-67.785
-68.413
-69.073
-69.77
-70.51
-71.298
-72.14
-73.038
-73.994
-75.011
-76.093
-77.247
-78.477
-79.777
-81.144
-82.57
-84.049
-85.572
-87.127
-88.693
-90.25
-91.777
-93.26
-94.69
-96.06
-97.355
-98.558
-99.645
-100.604
-101.436
-102.146
-102.745
-103.241
-103.645
-103.993
-104.34
-104.751
-105.293
-106.014
-106.951
-108.144
-109.625
-111.446
-113.672
-116.353
-119.531
-123.229
-127.444
-132.202
-137.57
-143.49
-149.786
-156.175
-162.211
-167.503
-171.792
-174.734
-175.906
-175.115
-172.417
-168.198
-163.397
-158.915
-155.351
-153.407
-153.743
-156.569
-161.661
-168.117
-173.975
-177.164
-175.919
-168.171
-152.096
-126.575
-91.131
-46.568
4.713
59.766
115.228
166.602
209.189
238.523
250.405
241.901
211.57
158.845
84.22
-8.797
-115.533
-231.969
-352.375
-473.481
-592.412
-700.587
-791.499
-858.677
-895.837
-906.506
-894.765
-864.177
-820.978
-766.263
-701.439
-630.53
-556.233
-482.639
-413.973
-352.723
-300.784
-259.216
-227.823
-205.494
-190.847
-182.39
-178.149
-176.201
-174.718
-171.844
-166.716
-159.394
-150.134
-139.457
-128.151
-116.911
-106.616
-98.293
-92.324
-88.611
-86.885
-86.626
-87.332
-88.619
-89.973
-90.84
-90.927
-90.104
-88.391
-85.978
-83.005
-79.583
-75.865
-71.995
-68.109
-64.332
-60.744
-57.404
-54.365
-51.658
-49.312
-47.344
-45.731
-44.449
-43.439
-42.594
-41.828
-41.051
-40.175
-39.131
-37.848
-36.249
-34.289
-31.939
-29.176
-26.015
-22.47
-18.571
-14.381
-9.957
-5.364
-0.69
4.001
8.651
13.201
17.613
21.853
25.882
29.684
33.253
36.579
39.67
42.541
45.21
47.72
50.103
52.382
54.584
56.721
58.795
60.811
62.761
64.626
66.391
68.037
69.539
70.88
72.036
72.98
73.684
74.113
74.238
74.038
73.496
72.6
71.342
69.717
67.727
65.379
62.681
59.641
56.269
52.573
48.564
44.255
39.663
34.802
29.692
24.349
18.791
13.036
7.105
1.016
-5.211
-11.557
-18.002
-24.526
-31.105
-37.718
-44.342
-50.956
-57.538
-64.067
-70.522
-76.883
-83.131
-89.25
-95.223
-101.033
-106.667
-112.112
-117.354
-122.383
-127.189
-131.763
-136.099
-140.188
-144.027
-147.611
-150.938
-154.006
-156.815
-159.366
-161.662
-163.705
-165.5
-167.053
-168.371
-169.461
-170.332
-170.993
-171.455
-171.728
-171.823
-171.752
-171.527
-171.16
-170.663
-170.049
-169.329
-168.516
-167.621
-166.657
-165.634
-164.562
-163.453
-162.317
-161.162
-159.997
-158.831
-157.671
-156.525
-155.398
-154.296
-153.224
-152.186
-151.187
-150.228
-149.312
-148.44
-147.614
-146.834
-146.1
-145.411
-144.767
-144.165
-143.605
-143.084
-142.599
-142.149
-141.73
-141.341
-140.977
-140.637
-140.317
-140.015
-139.728
-139.455
-139.192
-138.937
-138.69
-138.448
-138.211
-137.976
-137.744
-137.513
-137.285
-137.057
-136.831
-136.607
-136.386
-136.167
-135.952
-135.741
-135.536
-135.336
-135.144
-134.96
-134.785
-134.619
-134.463
-134.318
-134.183
-134.059
-133.945
-133.841
-133.745
-133.658
-133.577
-133.501
-133.429
-133.358
-133.286
-133.209
-133.126
-133.032
-132.923
-132.797
-132.648
-132.472
-132.266
-132.025
-131.743
-131.418
-131.043
-130.615
-130.13
-129.582
-128.968
-128.285
-127.53
-126.698
-125.79
-124.803
-123.738
-122.594
-121.374
-120.078
-118.709
-117.269
-115.76
-114.188
-112.555
-110.865
-109.123
-107.335
-105.508
-103.65
-101.769
-99.873
-97.971
-96.07
-94.181
-92.313
-90.475
-88.673
-86.915
-85.21
-83.566
-81.996
-80.509
-79.107
-77.79
-76.558
-75.407
-74.333
-73.326
-72.368
-71.442
-70.532
-69.625
-68.714
-67.79
-66.839
-65.849
-64.799
-63.679
-62.492
-61.242
-59.935
-58.586
-57.213
-55.848
-54.554
-53.386
-52.401
-51.661
-51.213
-51.107
-51.4
-52.133
-53.354
-55.114
-57.442
-60.371
-63.923
-68.08
-72.848
-78.241
-84.157
-90.418
-96.752
-102.753
-108.071
-112.449
-115.548
-116.954
-116.412
-113.935
-109.882
-104.988
-99.95
-95.162
-91.081
-88.402
-87.597
-88.605
-90.735
-92.486
-92.247
-89.021
-81.502
-67.724
-46.263
-16.248
21.543
63.882
108.659
154.915
201.79
249.491
293.332
324.353
334.086
313.335
260.21
181.447
84.972
-19.546
-126.987
-240.162
-361.211
-488.537
-614.387
-723.088
-800.041
-838.393
-840.118
-815.632
-776.003
-727.973
-673.865
-612.12
-542.804
-468.826
-394.209
-324.296
-262.754
-211.043
-169.895
-138.784
-116.346
-101.221
-91.87
-86.221
-82.375
-78.621
-73.297
-65.708
-55.992
-44.482
-31.758
-18.662
-5.935
5.585
14.966
21.897
26.529
29.164
30.331
30.557
30.265
29.984
30.272
31.44
33.637
36.883
41.052
46.05
51.79
58.13
64.91
71.98
79.184
86.399
93.509
100.381
106.897
112.942
118.418
123.252
127.387
130.804
133.519
135.562
136.999
137.917
138.421
138.635
138.694
138.719
138.839
139.185
139.867
140.982
142.612
144.816
147.639
151.103
155.207
159.937
165.252
171.089
177.369
183.988
190.844
197.847
204.902
211.91
218.786
225.453
231.849
237.928
243.651
248.983
253.901
258.387
262.438
266.062
269.281
272.128
274.629
276.802
278.666
280.237
281.527
282.544
283.286
283.743
283.904
283.762
283.311
282.543
281.447
280.011
278.218
276.053
273.504
270.567
267.242
263.532
259.443
254.987
250.179
245.042
239.598
233.867
227.87
221.629
215.165
208.506
201.674
194.696
187.595
180.396
173.123
165.796
158.438
151.069
143.708
136.373
129.081
121.851
114.698
107.639
100.69
93.866
87.179
80.643
74.27
68.069
62.05
56.219
50.585
45.153
39.927
34.912
30.109
25.522
21.15
16.994
13.052
9.324
5.807
2.496
-0.61
-3.518
-6.231
-8.756
-11.099
-13.267
-15.266
-17.104
-18.79
-20.33
-21.735
-23.013
-24.171
-25.22
-26.169
-27.026
-27.802
-28.503
-29.14
-29.721
-30.253
-30.746
-31.206
-31.641
-32.057
-32.462
-32.859
-33.256
-33.657
-34.067
-34.489
-34.926
-35.381
-35.856
-36.353
-36.871
-37.413
-37.977
-38.561
-39.166
-39.789
-40.427
-41.077
-41.737
-42.404
-43.072
-43.738
-44.399
-45.048
-45.682
-46.296
-46.885
-47.446
-47.973
-48.464
-48.913
-49.318
-49.676
-49.983
-50.238
-50.439
-50.585
-50.674
-50.706
-50.683
-50.604
-50.471
-50.287
-50.054
-49.775
-49.456
-49.099
-48.709
-48.293
-47.854
-47.4
-46.937
-46.47
-46.006
-45.552
-45.115
-44.701
-44.316
-43.966
-43.656
-43.392
-43.178
-43.018
-42.915
-42.872
-42.89
-42.971
-43.116
-43.326
-43.598
-43.932
-44.325
-44.775
-45.276
-45.825
-46.415
-47.039
-47.692
-48.366
-49.053
-49.744
-50.431
-51.103
-51.752
-52.367
-52.938
-53.455
-53.908
-54.287
-54.583
-54.788
-54.894
-54.895
-54.786
-54.561
-54.22
-53.757
-53.172
-52.464
-51.632
-50.677
-49.601
-48.404
-47.092
-45.668
-44.141
-42.518
-40.811
-39.028
-37.181
-35.281
-33.339
-31.368
-29.379
-27.382
-25.389
-23.414
-21.471
-19.58
-17.753
-15.997
-14.318
-12.717
-11.193
-9.741
-8.35
-7.006
-5.698
-4.418
-3.161
-1.93
-0.72
0.478
1.673
2.879
4.103
5.342
6.593
7.849
9.094
10.306
11.45
12.48
13.364
14.078
14.604
14.931
15.03
14.874
14.435
13.69
12.634
11.261
9.552
7.492
5.073
2.306
-0.761
-4.096
-7.73
-11.639
-15.72
-19.768
-23.432
-26.387
-28.424
-29.298
-28.667
-26.308
-22.266
-16.939
-11.154
-5.777
-1.315
1.819
3.008
1.816
-1.661
-6.713
-11.72
-14.77
-14.7
-10.425
-0.189
17.568
43.884
78.22
117.583
158.86
200.662
243.909
289.837
336.346
376.678
399.296
393.019
352.628
280.009
184.251
76.964
-32.947
-142.233
-252.069
-364.154
-478.972
-589.628
-684.64
-754.502
-790.238
-791.798
-766.978
-722.499
-666.995
-605.366
-537.119
-464.181
-388.759
-313.649
-244.276
-184.253
-134.96
-97.137
-69.971
-51.75
-41.104
-36.409
-35.327
-35.813
-36.136
-34.695
-30.916
-25.001
-17.217
-8.136
1.34
10.462
18.411
24.376
28.193
30.087
30.405
29.703
28.52
27.308
26.586
26.831
28.245
30.862
34.6
39.272
44.735
50.861
57.485
64.438
71.565
78.741
85.858
92.819
99.522
105.858
111.727
117.064
121.844
126.064
129.75
132.937
135.667
137.996
139.988
141.702
143.201
144.544
145.78
146.967
148.159
149.409
150.767
152.272
153.946
155.803
157.85
160.084
162.504
165.101
167.859
170.768
173.814
176.987
180.276
183.667
187.145
190.69
194.285
197.911
201.549
205.179
208.784
212.341
215.832
219.237
222.535
225.705
228.726
231.575
234.23
236.669
238.871
240.817
242.488
243.867
244.939
245.689
246.107
246.182
245.907
245.275
244.282
242.927
241.208
239.128
236.69
233.899
230.764
227.293
223.497
219.389
214.983
210.294
205.34
200.138
194.709
189.072
183.249
177.261
171.131
164.882
158.538
152.121
145.655
139.163
132.667
126.191
119.755
113.38
107.087
100.893
94.818
88.878
83.088
77.464
72.017
66.762
61.707
56.863
52.237
47.838
43.669
39.737
36.044
32.591
29.381
26.413
23.685
21.195
18.94
16.916
15.117
13.538
12.171
11.01
10.046
9.271
8.676
8.252
7.99
7.878
7.908
8.069
8.351
8.744
9.237
9.822
10.487
11.224
12.024
12.876
13.773
14.706
15.667
16.648
17.641
18.639
19.636
20.626
21.601
22.558
23.49
24.394
25.264
26.098
26.891
27.641
28.346
29.002
29.608
30.162
30.664
31.114
31.509
31.852
32.142
32.379
32.565
32.702
32.79
32.831
32.827
32.781
32.694
32.569
32.409
32.217
31.994
31.746
31.473
31.179
30.866
30.538
30.197
29.844
29.483
29.116
28.744
28.369
27.992
27.616
27.24
26.866
26.494
26.124
25.756
25.39
25.026
24.662
24.298
23.932
23.562
23.188
22.806
22.415
22.013
21.596
21.163
20.71
20.235
19.735
19.208
18.651
18.062
17.438
16.779
16.083
15.348
14.574
13.761
12.909
12.02
11.094
10.133
9.14
8.117
7.069
5.998
4.909
3.806
2.693
1.576
0.461
-0.647
-1.742
-2.817
-3.866
-4.881
-5.857
-6.784
-7.658
-8.47
-9.214
-9.882
-10.468
-10.966
-11.37
-11.674
-11.873
-11.962
-11.939
-11.801
-11.547
-11.175
-10.687
-10.085
-9.373
-8.554
-7.633
-6.615
-5.505
-4.312
-3.041
-1.701
-0.298
1.159
2.66
4.194
5.75
7.317
8.884
10.439
11.973
13.473
14.929
16.33
17.669
18.937
20.126
21.227
22.227
23.121
23.906
24.586
25.166
25.652
26.052
26.382
26.661
26.908
27.142
27.377
27.62
27.884
28.18
28.525
28.939
29.434
30.013
30.672
31.405
32.2
33.041
33.899
34.72
35.46
36.071
36.504
36.729
36.706
36.4
35.791
34.841
33.513
31.782
29.614
26.993
23.939
20.45
16.5
12.176
7.632
3.121
-0.944
-4.217
-6.464
-7.384
-6.617
-4.011
0.376
6.167
12.445
18.395
23.506
27.139
28.677
27.871
24.817
20.311
16.23
14.362
16.011
23.068
37.357
59.971
91.793
131.524
175.149
220.439
265.927
310.168
354.128
393.169
417.663
419.233
388.658
324.589
235.619
131.68
22.4
-87.486
-199.806
-317.087
-435.778
-546.13
-636.796
-696.737
-723.585
-724.082
-704.915
-673.273
-632.879
-582.284
-522.219
-454.894
-383.377
-312.421
-245.686
-185.546
-133.757
-91.245
-58.118
-33.653
-16.812
-6.455
-0.953
1.359
2.226
3.559
6.355
10.767
16.744
23.948
31.785
39.71
46.9
52.318
55.543
56.614
55.769
53.518
50.346
46.657
42.994
39.965
37.916
36.979
37.127
38.169
39.955
42.378
45.304
48.594
52.136
55.849
59.665
63.531
67.389
71.16
74.769
78.149
81.257
84.095
86.707
89.174
91.571
93.969
96.413
98.932
101.549
104.258
107.062
109.969
112.983
116.125
119.416
122.879
126.53
130.363
134.35
138.438
142.582
146.739
150.887
155.014
159.123
163.231
167.356
171.511
175.702
179.922
184.158
188.392
192.603
196.769
200.876
204.917
208.882
212.759
216.529
220.164
223.632
226.893
229.905
232.631
235.04
237.106
238.805
240.119
241.026
241.513
241.575
241.205
240.404
239.177
237.531
235.477
233.035
230.222
227.05
223.528
219.652
215.419
210.833
205.906
200.663
195.124
189.3
183.199
176.831
170.193
163.286
156.111
148.648
140.896
132.877
124.626
116.209
107.701
99.159
90.632
82.156
73.761
65.49
57.389
49.493
41.851
34.512
27.53
20.986
14.938
9.412
4.409
-0.105
-4.188
-7.878
-11.203
-14.193
-16.865
-19.247
-21.365
-23.233
-24.871
-26.311
-27.593
-28.781
-29.93
-31.065
-32.198
-33.315
-34.381
-35.381
-36.304
-37.133
-37.866
-38.5
-39.036
-39.488
-39.873
-40.196
-40.458
-40.645
-40.746
-40.762
-40.703
-40.586
-40.437
-40.275
-40.116
-39.981
-39.885
-39.835
-39.839
-39.895
-39.997
-40.142
-40.333
-40.572
-40.863
-41.207
-41.604
-42.051
-42.545
-43.082
-43.66
-44.272
-44.913
-45.582
-46.274
-46.991
-47.734
-48.501
-49.293
-50.109
-50.948
-51.808
-52.688
-53.586
-54.499
-55.427
-56.367
-57.319
-58.282
-59.257
-60.243
-61.241
-62.251
-63.272
-64.304
-65.346
-66.399
-67.462
-68.533
-69.612
-70.697
-71.79
-72.888
-73.992
-75.099
-76.208
-77.319
-78.429
-79.535
-80.637
-81.732
-82.818
-83.893
-84.956
-86.005
-87.038
-88.053
-89.048
-90.022
-90.972
-91.894
-92.785
-93.64
-94.457
-95.232
-95.962
-96.646
-97.28
-97.865
-98.399
-98.884
-99.319
-99.703
-100.032
-100.305
-100.519
-100.67
-100.756
-100.773
-100.719
-100.593
-100.397
-100.134
-99.804
-99.408
-98.945
-98.411
-97.806
-97.134
-96.398
-95.605
-94.768
-93.903
-93.034
-92.187
-91.38
-90.624
-89.928
-89.285
-88.694
-88.152
-87.649
-87.189
-86.772
-86.393
-86.054
-85.75
-85.462
-85.169
-84.831
-84.402
-83.855
-83.173
-82.348
-81.397
-80.339
-79.199
-78.021
-76.822
-75.621
-74.437
-73.278
-72.157
-71.106
-70.154
-69.35
-68.754
-68.405
-68.333
-68.561
-69.076
-69.868
-70.912
-72.161
-73.602
-75.232
-77.042
-79.046
-81.263
-83.69
-86.334
-89.191
-92.222
-95.416
-98.775
-102.293
-106.001
-109.917
-114.043
-118.422
-123.1
-128.039
-133.118
-138.111
-142.667
-146.48
-149.338
-150.966
-151.032
-149.353
-146.007
-141.38
-136.182
-131.101
-126.53
-122.853
-120.663
-120.284
-121.517
-123.653
-125.302
-124.896
-121.362
-113.591
-100.019
-79.516
-51.623
-16.598
24.022
68.089
113.607
157.821
196.889
226.982
244.327
245.691
229.304
193.931
138.792
64.763
-25.591
-128.501
-238.89
-351.497
-461.499
-563.416
-651.947
-722.945
-773.298
-801.763
-808.88
-795.551
-763.353
-715.458
-655.56
-587.811
-516.8
-445.813
-377.324
-314.203
-258.674
-212.008
-175.062
-147.374
-127.442
-114.326
-106.957
-103.534
-102.471
-102.112
-100.76
-97.85
-93.528
-87.82
-81.054
-73.86
-66.76
-60.546
-56.083
-53.569
-52.831
-53.566
-55.254
-57.396
-59.572
-61.277
-62.025
-61.591
-59.924
-57.094
-53.28
-48.629
-43.27
-37.359
-31.067
-24.539
-17.896
-11.257
-4.726
1.586
7.555
13.099
18.168
22.74
26.821
30.438
33.63
36.446
38.952
41.206
43.263
45.181
47.009
48.804
50.625
52.527
54.568
56.789
59.217
61.872
64.762
67.886
71.241
74.814
78.588
82.548
86.682
90.975
95.416
99.987
104.67
109.445
114.29
119.184
124.105
129.031
133.94
138.81
143.619
148.344
152.965
157.458
161.799
165.965
169.929
173.669
177.161
180.384
183.315
185.937
188.23
190.18
191.771
192.993
193.833
194.285
194.341
193.997
193.25
192.1
190.549
188.601
186.262
183.539
180.444
176.986
173.181
169.043
164.589
159.839
154.811
149.527
144.01
138.281
132.364
126.284
120.066
113.734
107.313
100.829
94.305
87.766
81.237
74.739
68.295
61.926
55.653
49.495
43.471
37.597
31.888
26.36
21.025
15.896
10.981
6.291
1.831
-2.39
-6.371
-10.106
-13.594
-16.836
-19.832
-22.583
-25.093
-27.366
-29.408
-31.225
-32.822
-34.209
-35.392
-36.382
-37.187
-37.816
-38.281
-38.591
-38.757
-38.788
-38.697
-38.493
-38.186
-37.787
-37.307
-36.754
-36.138
-35.468
-34.753
-34.001
-33.22
-32.417
-31.599
-30.774
-29.945
-29.12
-28.303
-27.499
-26.712
-25.945
-25.202
-24.485
-23.797
-23.141
-22.518
-21.93
-21.377
-20.861
-20.383
-19.942
-19.54
-19.175
-18.848
-18.557
-18.304
-18.086
-17.903
-17.754
-17.638
-17.554
-17.5
-17.476
-17.48
-17.51
-17.566
-17.646
-17.748
-17.871
-18.014
-18.174
-18.351
-18.542
-18.747
-18.963
-19.19
-19.425
-19.668
-19.917
-20.171
-20.428
-20.688
-20.948
-21.209
-21.469
-21.728
-21.984
-22.237
-22.486
-22.731
-22.971
-23.205
-23.432
-23.653
-23.865
-24.068
-24.262
-24.444
-24.614
-24.772
-24.915
-25.044
-25.156
-25.252
-25.33
-25.388
-25.426
-25.442
-25.435
-25.403
-25.344
-25.257
-25.14
-24.99
-24.806
-24.586
-24.328
-24.028
-23.685
-23.297
-22.861
-22.375
-21.837
-21.247
-20.602
-19.904
-19.151
-18.345
-17.488
-16.581
-15.628
-14.63
-13.592
-12.515
-11.406
-10.266
-9.102
-7.916
-6.713
-5.5
-4.282
-3.067
-1.862
-0.672
0.496
1.635
2.737
3.795
4.801
5.754
6.647
7.476
8.234
8.914
9.511
10.027
10.464
10.829
11.124
11.357
11.542
11.697
11.844
12.001
12.181
12.391
12.642
12.944
13.313
13.768
14.316
14.957
15.687
16.504
17.402
18.368
19.37
20.355
21.266
22.041
22.632
23.003
23.113
22.937
22.432
21.541
20.224
18.445
16.175
13.405
10.102
6.198
1.737
-3.109
-8.066
-12.728
-16.741
-19.884
-21.864
-22.292
-20.959
-17.946
-13.681
-8.98
-4.607
-0.961
1.569
2.389
1.188
-1.793
-5.721
-8.997
-9.852
-7.111
0.409
14.374
35.977
65.669
103.097
146.506
193.528
242.064
289.242
330.943
363.129
381.991
384.215
367.887
331.576
274.073
196.778
103.961
0.233
-109.958
-224.927
-345.188
-467.079
-581.959
-676.92
-739.01
-762.972
-752.601
-718.213
-670.682
-617.079
-559.672
-497.222
-429.867
-359.69
-290.206
-226.472
-171.881
-127.559
-93.529
-68.477
-50.697
-39.204
-32.619
-28.878
-26.061
-22.328
-16.623
-9.019
0.068
10.296
21.093
31.686
41.197
48.555
53.245
55.406
55.362
53.616
50.69
47.027
43.196
39.852
37.404
36.052
35.856
36.703
38.499
41.186
44.639
48.721
53.305
58.257
63.479
68.886
74.375
79.85
85.204
90.336
95.158
99.599
103.612
107.194
110.354
113.118
115.524
117.61
119.425
121.031
122.483
123.833
125.129
126.41
127.72
129.105
130.605
132.257
134.084
136.095
138.294
140.679
143.243
145.977
148.867
151.89
155.028
158.265
161.586
164.976
168.416
171.888
175.368
178.838
182.276
185.663
188.979
192.202
195.314
198.294
201.123
203.783
206.257
208.524
210.564
212.361
213.895
215.151
216.113
216.766
217.099
217.099
216.758
216.068
215.024
213.622
211.859
209.735
207.251
204.41
201.218
197.681
193.807
189.605
185.089
180.27
175.163
169.785
164.153
158.285
152.201
145.922
139.47
132.866
126.133
119.296
112.376
105.399
98.388
91.366
84.356
77.383
70.468
63.633
56.899
50.287
43.815
37.503
31.366
25.421
19.681
14.16
8.87
3.821
-0.979
-5.522
-9.802
-13.815
-17.558
-21.029
-24.229
-27.16
-29.823
-32.224
-34.368
-36.261
-37.911
-39.326
-40.517
-41.494
-42.268
-42.85
-43.253
-43.489
-43.571
-43.512
-43.326
-43.025
-42.622
-42.131
-41.564
-40.931
-40.246
-39.517
-38.756
-37.971
-37.171
-36.365
-35.559
-34.759
-33.971
-33.2
-32.448
-31.72
-31.017
-30.341
-29.691
-29.069
-28.472
-27.9
-27.351
-26.822
-26.311
-25.814
-25.329
-24.852
-24.378
-23.904
-23.426
-22.94
-22.443
-21.93
-21.399
-20.847
-20.272
-19.671
-19.043
-18.387
-17.702
-16.988
-16.245
-15.474
-14.677
-13.855
-13.011
-12.147
-11.268
-10.376
-9.476
-8.572
-7.67
-6.773
-5.888
-5.019
-4.172
-3.352
-2.565
-1.817
-1.112
-0.456
0.145
0.687
1.165
1.575
1.913
2.176
2.361
2.465
2.486
2.424
2.276
2.044
1.726
1.324
0.841
0.277
-0.364
-1.079
-1.862
-2.71
-3.617
-4.578
-5.587
-6.637
-7.722
-8.835
-9.968
-11.115
-12.267
-13.416
-14.554
-15.674
-16.766
-17.823
-18.837
-19.8
-20.705
-21.543
-22.309
-22.995
-23.595
-24.103
-24.514
-24.823
-25.026
-25.121
-25.106
-24.979
-24.742
-24.395
-23.942
-23.384
-22.725
-21.972
-21.127
-20.198
-19.191
-18.111
-16.966
-15.764
-14.513
-13.223
-11.903
-10.562
-9.212
-7.861
-6.52
-5.202
-3.914
-2.665
-1.46
-0.307
0.785
1.806
2.747
3.608
4.388
5.086
5.703
6.243
6.714
7.136
7.53
7.912
8.295
8.684
9.086
9.514
9.981
10.507
11.096
11.746
12.45
13.205
14.006
14.84
15.669
16.427
17.039
17.444
17.592
17.452
16.99
16.158
14.892
13.134
10.838
7.974
4.535
0.481
-4.269
-9.709
-15.692
-21.931
-28.008
-33.535
-38.248
-41.852
-43.928
-44.211
-42.747
-39.933
-36.578
-33.517
-31.231
-30.144
-30.876
-33.752
-38.52
-44.337
-49.532
-52.178
-50.908
-44.372
-30.812
-8.949
21.74
60.932
106.861
157.055
209.254
260.419
306.392
343.085
366.376
372.637
359.732
325.806
270.31
195.548
104.88
2.447
-109.529
-232.282
-364.014
-498.447
-622.853
-718.995
-775.889
-791.637
-773.63
-737.012
-691.69
-642.278
-589.477
-529.842
-463.905
-394.851
-326.019
-262.418
-207.106
-160.776
-123.963
-95.991
-75.327
-61.218
-52.661
-47.812
-45.117
-43.018
-39.908
-35.273
-29.303
-22.046
-13.863
-5.457
2.623
9.575
14.521
17.281
18.043
17.093
14.945
12.097
8.957
6.077
4.019
3.058
3.295
4.699
7.107
10.404
14.494
19.233
24.465
30.044
35.843
41.759
47.711
53.604
59.333
64.793
69.885
74.551
78.768
82.542
85.899
88.87
91.494
93.819
95.906
97.813
99.595
101.302
102.977
104.666
106.417
108.278
110.298
112.507
114.922
117.551
120.393
123.446
126.703
130.149
133.766
137.536
141.442
145.472
149.61
153.842
158.146
162.502
166.887
171.281
175.664
180.014
184.31
188.53
192.653
196.658
200.526
204.236
207.765
211.09
214.189
217.039
219.622
221.915
223.899
225.557
226.872
227.831
228.42
228.629
228.447
227.868
226.886
225.497
223.699
221.493
218.881
215.866
212.456
208.656
204.479
199.935
195.037
189.801
184.243
178.382
172.238
165.832
159.185
152.322
145.267
138.046
130.684
123.209
115.646
108.024
100.369
92.71
85.072
77.483
69.968
62.553
55.261
48.117
41.143
34.36
27.787
21.444
15.347
9.511
3.952
-1.32
-6.293
-10.959
-15.31
-19.342
-23.05
-26.433
-29.492
-32.227
-34.642
-36.743
-38.536
-40.029
-41.233
-42.157
-42.814
-43.218
-43.382
-43.321
-43.052
-42.59
-41.953
-41.157
-40.221
-39.161
-37.994
-36.738
-35.409
-34.024
-32.599
-31.147
-29.685
-28.225
-26.781
-25.364
-23.985
-22.654
-21.381
-20.172
-19.035
-17.976
-16.999
-16.107
-15.304
-14.591
-13.969
-13.438
-12.996
-12.643
-12.375
-12.189
-12.082
-12.05
-12.088
-12.191
-12.354
-12.572
-12.839
-13.151
-13.502
-13.887
-14.301
-14.74
-15.2
-15.676
-16.165
-16.664
-17.17
-17.682
-18.197
-18.714
-19.233
-19.752
-20.272
-20.793
-21.315
-21.84
-22.369
-22.903
-23.445
-23.995
-24.558
-25.134
-25.727
-26.338
-26.971
-27.626
-28.308
-29.017
-29.756
-30.527
-31.329
-32.166
-33.036
-33.941
-34.88
-35.853
-36.857
-37.892
-38.954
-40.042
-41.151
-42.278
-43.42
-44.572
-45.73
-46.889
-48.044
-49.191
-50.324
-51.437
-52.525
-53.582
-54.603
-55.581
-56.511
-57.388
-58.205
-58.959
-59.643
-60.253
-60.784
-61.232
-61.592
-61.861
-62.037
-62.116
-62.098
-61.982
-61.769
-61.46
-61.057
-60.565
-59.987
-59.327
-58.591
-57.784
-56.911
-55.981
-54.998
-53.97
-52.903
-51.806
-50.688
-49.559
-48.427
-47.302
-46.191
-45.105
-44.053
-43.043
-42.085
-41.182
-40.342
-39.57
-38.874
-38.265
-37.745
-37.315
-36.971
-36.708
-36.523
-36.407
-36.348
-36.324
-36.318
-36.308
-36.285
-36.241
-36.165
-36.047
-35.872
-35.621
-35.287
-34.871
-34.378
-33.811
-33.178
-32.49
-31.779
-31.099
-30.503
-30.051
-29.787
-29.746
-29.965
-30.475
-31.314
-32.536
-34.177
-36.271
-38.841
-41.898
-45.472
-49.628
-54.335
-59.437
-64.681
-69.689
-74.113
-77.716
-80.217
-81.231
-80.507
-78.086
-74.343
-70.03
-65.942
-62.537
-60.181
-59.465
-60.786
-64.003
-68.439
-72.65
-74.826
-73.681
-68.151
-56.693
-37.856
-10.916
24.089
66.029
111.866
158.777
205.125
247.265
283.221
311.229
324.552
318.87
289.278
231.12
149.795
51.396
-57.865
-172.191
-294.74
-425.928
-560.138
-686.198
-784.917
-843.759
-860.281
-841.196
-801.78
-752.608
-698.897
-641.917
-578.474
-509.193
-437.303
-366.221
-301.203
-245.38
-199.292
-163.242
-136.231
-116.454
-102.989
-94.656
-89.442
-85.753
-82.117
-77.094
-70.382
-62.331
-53.095
-43.14
-33.246
-23.993
-16.144
-10.485
-7.116
-5.819
-6.291
-8.022
-10.541
-13.461
-16.293
-18.572
-20.06
-20.674
-20.459
-19.548
-18.04
-16.018
-13.591
-10.873
-7.965
-4.92
-1.772
1.45
4.725
8.01
11.277
14.528
17.762
20.987
24.24
27.546
30.931
34.434
38.081
41.885
45.856
49.977
54.207
58.528
62.918
67.355
71.822
76.276
80.684
85.025
89.276
93.421
97.451
101.348
105.102
108.724
112.225
115.633
118.994
122.33
125.657
128.991
132.339
135.715
139.129
142.575
146.037
149.5
152.946
156.357
159.716
162.993
166.154
169.161
171.971
174.552
176.876
178.917
180.654
182.067
183.137
183.856
184.219
184.222
183.861
183.131
182.029
180.557
178.72
176.524
173.977
171.085
167.858
164.305
160.439
156.269
151.809
147.07
142.068
136.816
131.333
125.639
119.753
113.696
107.491
101.159
94.724
88.209
81.637
75.029
68.409
61.797
55.216
48.686
42.226
35.858
29.598
23.465
17.476
11.647
5.992
0.525
-4.741
-9.794
-14.625
-19.222
-23.58
-27.691
-31.548
-35.15
-38.491
-41.571
-44.391
-46.951
-49.254
-51.304
-53.106
-54.666
-55.991
-57.09
-57.971
-58.644
-59.118
-59.404
-59.513
-59.456
-59.244
-58.89
-58.404
-57.799
-57.086
-56.278
-55.385
-54.419
-53.391
-52.312
-51.192
-50.041
-48.868
-47.683
-46.494
-45.308
-44.134
-42.976
-41.842
-40.736
-39.663
-38.626
-37.629
-36.673
-35.761
-34.894
-34.073
-33.297
-32.567
-31.881
-31.24
-30.641
-30.084
-29.566
-29.086
-28.641
-28.23
-27.851
-27.5
-27.177
-26.879
-26.603
-26.347
-26.11
-25.89
-25.684
-25.491
-25.309
-25.138
-24.976
-24.822
-24.675
-24.535
-24.401
-24.273
-24.151
-24.035
-23.925
-23.822
-23.726
-23.637
-23.556
-23.485
-23.422
-23.369
-23.327
-23.296
-23.276
-23.267
-23.27
-23.285
-23.313
-23.352
-23.404
-23.467
-23.541
-23.626
-23.721
-23.824
-23.934
-24.05
-24.169
-24.29
-24.41
-24.528
-24.64
-24.745
-24.84
-24.922
-24.987
-25.034
-25.058
-25.057
-25.027
-24.966
-24.869
-24.733
-24.556
-24.334
-24.064
-23.742
-23.367
-22.933
-22.439
-21.881
-21.256
-20.562
-19.797
-18.96
-18.049
-17.063
-16.004
-14.872
-13.669
-12.398
-11.062
-9.663
-8.204
-6.69
-5.125
-3.513
-1.857
-0.163
1.563
3.315
5.085
6.866
8.651
10.431
12.2
13.949
15.672
17.361
19.011
20.612
22.159
23.642
25.05
26.376
27.616
28.771
29.845
30.842
31.771
32.643
33.478
34.289
35.093
35.901
36.722
37.565
38.445
39.371
40.366
41.439
42.589
43.814
45.099
46.422
47.762
49.08
50.316
51.418
52.334
53.009
53.401
53.463
53.137
52.384
51.168
49.455
47.225
44.457
41.138
37.274
32.905
28.065
22.783
17.181
11.454
5.889
0.912
-3.098
-5.883
-7.091
-6.323
-3.53
1.155
7.29
13.858
20.086
25.522
29.395
31.039
30.459
27.904
24.34
21.882
22.104
26.164
36.058
53.483
79.096
113.394
154.691
198.644
243.015
286.05
325.885
363.154
393.273
407.34
397.711
355.951
282.289
186.472
77.914
-33.728
-145.706
-262.243
-382.533
-500.37
-603.051
-675.267
-710.008
-709.958
-685.193
-647
-602.045
-551.988
-495.024
-430.978
-362.447
-293.09
-227.68
-169.514
-119.965
-79.908
-49.154
-26.658
-11.369
-2.087
2.908
5.257
6.576
8.594
12.184
17.426
24.194
32.104
40.507
48.813
56.249
61.885
65.385
66.849
66.534
64.932
62.534
59.746
57.105
55.194
54.318
54.592
56.006
58.398
61.65
65.668
70.301
75.379
80.747
86.273
91.854
97.416
102.865
108.097
113.013
117.52
121.573
125.155
128.27
130.945
133.215
135.121
136.721
138.077
139.252
140.306
141.294
142.264
143.268
144.358
145.585
146.995
148.622
150.481
152.584
154.931
157.521
160.346
163.392
166.641
170.077
173.684
177.448
181.355
185.386
189.523
193.742
198.022
202.339
206.669
210.985
215.262
219.474
223.598
227.609
231.484
235.198
238.727
242.047
245.136
247.968
250.517
252.753
254.653
256.201
257.388
258.209
258.662
258.742
258.45
257.797
256.784
255.413
253.675
251.552
249.034
246.125
242.836
239.191
235.205
230.881
226.222
221.232
215.91
210.267
204.296
197.98
191.322
184.346
177.099
169.66
162.089
154.428
146.716
138.974
131.238
123.557
115.971
108.517
101.238
94.173
87.38
80.943
74.908
69.293
64.084
59.23
54.696
50.471
46.537
42.887
39.504
36.364
33.453
30.771
28.303
26.028
23.906
21.874
19.897
17.963
16.079
14.28
12.587
11.002
9.535
8.193
6.98
5.902
4.948
4.098
3.34
2.67
2.091
1.623
1.27
1.024
0.871
0.787
0.754
0.759
0.789
0.824
0.854
0.87
0.869
0.858
0.841
0.814
0.775
0.717
0.638
0.538
0.418
0.277
0.119
-0.057
-0.246
-0.445
-0.651
-0.863
-1.081
-1.307
-1.544
-1.79
-2.047
-2.315
-2.596
-2.888
-3.194
-3.511
-3.84
-4.181
-4.536
-4.905
-5.291
-5.693
-6.115
-6.556
-7.02
-7.507
-8.018
-8.556
-9.12
-9.711
-10.332
-10.982
-11.661
-12.371
-13.11
-13.879
-14.677
-15.503
-16.354
-17.23
-18.128
-19.045
-19.979
-20.926
-21.884
-22.849
-23.818
-24.786
-25.751
-26.707
-27.651
-28.577
-29.481
-30.358
-31.202
-32.009
-32.775
-33.493
-34.159
-34.768
-35.316
-35.799
-36.211
-36.548
-36.809
-36.989
-37.086
-37.099
-37.027
-36.869
-36.628
-36.305
-35.902
-35.423
-34.871
-34.249
-33.562
-32.816
-32.015
-31.164
-30.27
-29.34
-28.382
-27.405
-26.418
-25.43
-24.45
-23.487
-22.551
-21.652
-20.799
-19.999
-19.261
-18.594
-18.006
-17.51
-17.113
-16.818
-16.625
-16.53
-16.53
-16.618
-16.784
-17.011
-17.283
-17.583
-17.898
-18.222
-18.544
-18.853
-19.135
-19.369
-19.544
-19.661
-19.726
-19.745
-19.735
-19.71
-19.699
-19.756
-19.931
-20.272
-20.837
-21.658
-22.771
-24.22
-26.031
-28.242
-30.902
-34.027
-37.637
-41.754
-46.351
-51.435
-57.048
-63.072
-69.321
-75.532
-81.283
-86.24
-90.21
-92.858
-93.789
-92.934
-90.402
-86.631
-82.551
-78.81
-75.722
-73.834
-73.658
-75.185
-78.122
-81.501
-83.453
-82.555
-77.781
-67.706
-51.093
-27.331
3.799
41.429
83.374
127.579
171.785
212.685
246.679
270.248
280.048
273.501
249.023
205.564
142.883
63.268
-28.64
-129.013
-234.287
-341.893
-451.514
-557.44
-650.107
-720.999
-760.767
-768.626
-752.07
-717.971
-674.758
-626.776
-572.749
-513.73
-451.34
-387.869
-328.061
-274.944
-229.759
-193.389
-165.409
-144.68
-130.236
-120.959
-115.235
-111.574
-108.588
-104.832
-99.643
-93.064
-85.277
-76.676
-67.908
-59.552
-52.301
-46.984
-43.882
-42.863
-43.672
-45.825
-48.825
-52.262
-55.618
-58.328
-60.095
-60.788
-60.395
-59.047
-56.842
-53.848
-50.193
-46.012
-41.43
-36.566
-31.509
-26.333
-21.14
-16.036
-11.129
-6.528
-2.295
1.544
4.979
8.034
10.737
13.121
15.237
17.142
18.889
20.533
22.123
23.699
25.311
27.007
28.838
30.852
33.083
35.548
38.256
41.209
44.399
47.821
51.456
55.284
59.284
63.439
67.73
72.14
76.651
81.239
85.879
90.546
95.215
99.862
104.463
108.993
113.427
117.743
121.916
125.926
129.749
133.362
136.742
139.867
142.713
145.261
147.493
149.389
150.935
152.117
152.924
153.347
153.379
153.014
152.25
151.086
149.523
147.565
145.217
142.487
139.383
135.918
132.103
127.954
123.487
118.72
113.671
108.362
102.812
97.045
91.084
84.951
78.672
72.271
65.772
59.2
52.58
45.936
39.292
32.67
26.095
19.586
13.165
6.852
0.663
-5.382
-11.269
-16.983
-22.51
-27.84
-32.961
-37.864
-42.543
-46.99
-51.2
-55.171
-58.9
-62.385
-65.627
-68.627
-71.386
-73.909
-76.2
-78.264
-80.106
-81.735
-83.156
-84.38
-85.414
-86.267
-86.949
-87.47
-87.84
-88.069
-88.166
-88.144
-88.01
-87.777
-87.452
-87.047
-86.57
-86.029
-85.433
-84.791
-84.109
-83.394
-82.654
-81.894
-81.12
-80.338
-79.554
-78.771
-77.994
-77.228
-76.475
-75.739
-75.022
-74.327
-73.655
-73.007
-72.387
-71.793
-71.228
-70.691
-70.182
-69.703
-69.252
-68.828
-68.432
-68.063
-67.719
-67.399
-67.104
-66.833
-66.585
-66.359
-66.156
-65.976
-65.817
-65.68
-65.564
-65.467
-65.391
-65.332
-65.291
-65.268
-65.26
-65.269
-65.295
-65.336
-65.394
-65.468
-65.558
-65.665
-65.789
-65.93
-66.089
-66.265
-66.459
-66.672
-66.906
-67.159
-67.433
-67.727
-68.041
-68.375
-68.727
-69.096
-69.478
-69.87
-70.273
-70.682
-71.097
-71.515
-71.936
-72.359
-72.785
-73.213
-73.641
-74.066
-74.483
-74.886
-75.273
-75.636
-75.967
-76.261
-76.511
-76.712
-76.865
-76.965
-77.008
-76.986
-76.892
-76.718
-76.466
-76.135
-75.726
-75.243
-74.696
-74.101
-73.486
-72.868
-72.257
-71.657
-71.065
-70.475
-69.888
-69.3
-68.704
-68.094
-67.459
-66.794
-66.097
-65.354
-64.546
-63.64
-62.584
-61.346
-59.912
-58.276
-56.451
-54.453
-52.297
-50.012
-47.636
-45.202
-42.747
-40.298
-37.875
-35.511
-33.247
-31.134
-29.243
-27.626
-26.316
-25.336
-24.692
-24.378
-24.394
-24.723
-25.34
-26.225
-27.349
-28.688
-30.236
-31.972
-33.882
-35.954
-38.15
-40.443
-42.823
-45.262
-47.765
-50.345
-53.001
-55.744
-58.575
-61.474
-64.466
-67.609
-70.865
-74.112
-77.132
-79.574
-81.152
-81.677
-80.88
-78.421
-74.129
-68.122
-60.852
-53.13
-45.74
-39.154
-33.833
-30.423
-29.262
-30.098
-32.12
-33.826
-33.495
-29.92
-21.862
-7.62
14.014
43.416
80.206
122.741
168.639
215.633
260.698
299.595
328.222
342.955
340.536
318.946
277.261
214.923
133.824
38.832
-65.982
-176.731
-290.328
-406.203
-518.589
-617.68
-694.784
-740.574
-754.087
-742.545
-712.224
-670.657
-621.919
-564.98
-501.144
-432.556
-361.667
-293.085
-230.515
-176.095
-131.318
-96.301
-70.106
-51.621
-39.884
-33.474
-30.446
-28.831
-26.632
-22.668
-16.845
-9.377
-0.511
9.255
19.234
28.537
36.056
41.232
44.147
45.078
44.489
42.851
40.551
38.109
36.144
35.035
34.946
35.884
37.679
40.159
43.211
46.682
50.422
54.312
58.232
62.1
65.869
69.496
72.958
76.229
79.266
82.029
84.494
86.678
88.652
90.524
92.389
94.325
96.391
98.638
101.129
103.906
106.985
110.351
113.955
117.769
121.786
126.01
130.441
135.056
139.8
144.604
149.416
154.197
158.915
163.543
168.045
172.403
176.621
180.729
184.77
188.772
192.739
196.666
200.546
204.376
208.162
211.91
215.607
219.24
222.797
226.265
229.634
232.888
235.996
238.918
241.609
244.036
246.174
248.005
249.511
250.679
251.494
251.952
252.051
251.794
251.18
250.207
248.877
247.191
245.16
242.794
240.107
237.11
233.817
230.24
226.395
222.296
217.959
213.396
208.623
203.656
198.511
193.209
187.767
182.206
176.545
170.805
165.005
159.166
153.306
147.445
141.599
135.787
130.024
124.326
118.708
113.184
107.767
102.469
97.301
92.273
87.396
82.677
78.124
73.743
69.541
65.523
61.691
58.049
54.599
51.342
48.278
45.407
42.728
40.237
37.931
35.807
33.859
32.082
30.47
29.015
27.712
26.552
25.528
24.632
23.857
23.194
22.636
22.174
21.8
21.508
21.289
21.135
21.04
20.996
20.997
21.036
21.106
21.202
21.319
21.45
21.592
21.739
21.888
22.036
22.178
22.313
22.438
22.551
22.65
22.736
22.807
22.863
22.905
22.933
22.946
22.948
22.938
22.917
22.887
22.85
22.806
22.757
22.704
22.649
22.593
22.538
22.484
22.432
22.384
22.34
22.301
22.267
22.239
22.216
22.2
22.189
22.184
22.183
22.187
22.195
22.205
22.216
22.227
22.236
22.242
22.242
22.234
22.217
22.188
22.145
22.086
22.01
21.913
21.795
21.652
21.484
21.289
21.066
20.812
20.527
20.21
19.861
19.479
19.065
18.618
18.139
17.63
17.092
16.525
15.931
15.313
14.672
14.011
13.331
12.638
11.932
11.219
10.501
9.782
9.067
8.36
7.664
6.985
6.326
5.691
5.086
4.515
3.982
3.491
3.048
2.655
2.318
2.038
1.818
1.661
1.567
1.539
1.575
1.674
1.836
2.058
2.34
2.677
3.068
3.509
3.996
4.527
5.097
5.7
6.331
6.982
7.647
8.318
8.991
9.658
10.312
10.946
11.552
12.127
12.664
13.159
13.603
13.988
14.309
14.566
14.761
14.9
14.987
15.031
15.041
15.037
15.035
15.049
15.092
15.172
15.296
15.475
15.723
16.055
16.477
16.988
17.576
18.232
18.943
19.685
20.426
21.108
21.68
22.089
22.279
22.208
21.827
21.091
19.972
18.434
16.442
13.971
10.998
7.497
3.484
-1.042
-6.114
-11.622
-17.374
-23.092
-28.318
-32.644
-35.803
-37.415
-37.059
-34.71
-30.556
-25.11
-19.485
-14.549
-10.844
-9.212
-10.309
-14.024
-19.896
-26.702
-32.14
-34.395
-31.904
-22.477
-4.551
22.45
58.509
102.145
150.524
201.008
250.3
293.742
327.041
346.35
348.204
330.581
292.319
232.56
153.071
58.614
-46.022
-156.428
-270.944
-390.148
-510.373
-622.929
-714.623
-772.297
-790.731
-773.84
-732.666
-678.979
-620.157
-558.538
-492.889
-423.135
-351.585
-282.238
-219.927
-167.671
-126.376
-95.714
-74.176
-60.069
-52.054
-48.286
-46.8
-45.8
-43.525
-39.134
-32.682
-24.487
-15.038
-5.075
4.673
13.353
19.976
24.155
26.016
25.863
24.218
21.601
18.448
15.304
12.77
11.2
10.737
11.388
13.012
15.49
18.743
22.64
27.03
31.776
36.75
41.846
46.99
52.098
57.069
61.81
66.226
70.241
73.817
76.948
79.645
81.938
83.861
85.459
86.784
87.9
88.864
89.735
90.56
91.386
92.257
93.222
94.326
95.611
97.101
98.811
100.744
102.903
105.281
107.873
110.663
113.634
116.767
120.047
123.46
126.99
130.621
134.33
138.097
141.901
145.719
149.531
153.315
157.049
160.712
164.282
167.738
171.06
174.227
177.217
180.01
182.583
184.918
186.997
188.8
190.313
191.521
192.41
192.971
193.194
193.073
192.6
191.774
190.592
189.054
187.161
184.917
182.328
179.4
176.143
172.566
168.681
164.503
160.045
155.324
150.359
145.166
139.766
134.178
128.425
122.527
116.506
110.385
104.185
97.928
91.638
85.334
79.039
72.774
66.558
60.41
54.35
48.395
42.561
36.865
31.321
25.942
20.742
15.732
10.923
6.322
1.938
-2.222
-6.153
-9.852
-13.315
-16.541
-19.529
-22.282
-24.8
-27.088
-29.149
-30.989
-32.614
-34.03
-35.245
-36.267
-37.105
-37.769
-38.267
-38.609
-38.807
-38.869
-38.807
-38.632
-38.354
-37.983
-37.53
-37.006
-36.42
-35.782
-35.102
-34.39
-33.653
-32.901
-32.142
-31.382
-30.63
-29.89
-29.17
-28.474
-27.806
-27.172
-26.573
-26.013
-25.494
-25.018
-24.586
-24.199
-23.859
-23.564
-23.315
-23.112
-22.952
-22.836
-22.761
-22.726
-22.729
-22.769
-22.842
-22.947
-23.081
-23.242
-23.428
-23.635
-23.862
-24.104
-24.361
-24.628
-24.904
-25.186
-25.472
-25.759
-26.047
-26.334
-26.618
-26.898
-27.173
-27.443
-27.706
-27.962
-28.211
-28.453
-28.688
-28.917
-29.139
-29.357
-29.572
-29.784
-29.995
-30.207
-30.421
-30.64
-30.864
-31.096
-31.336
-31.589
-31.855
-32.138
-32.441
-32.767
-33.117
-33.496
-33.906
-34.35
-34.831
-35.349
-35.907
-36.508
-37.152
-37.842
-38.578
-39.362
-40.194
-41.074
-42.002
-42.977
-43.998
-45.063
-46.169
-47.313
-48.49
-49.698
-50.933
-52.19
-53.467
-54.759
-56.065
-57.378
-58.695
-60.011
-61.32
-62.613
-63.882
-65.118
-66.31
-67.45
-68.531
-69.547
-70.489
-71.353
-72.135
-72.831
-73.438
-73.948
-74.352
-74.641
-74.815
-74.877
-74.834
-74.697
-74.477
-74.184
-73.839
-73.453
-73.036
-72.588
-72.099
-71.555
-70.955
-70.302
-69.611
-68.894
-68.147
-67.366
-66.549
-65.681
-64.756
-63.757
-62.643
-61.388
-59.988
-58.448
-56.803
-55.089
-53.321
-51.507
-49.654
-47.768
-45.874
-43.993
-42.132
-40.309
-38.544
-36.87
-35.358
-34.058
-32.986
-32.151
-31.534
-31.116
-30.917
-30.939
-31.171
-31.615
-32.252
-33.081
-34.137
-35.433
-36.97
-38.737
-40.672
-42.747
-44.981
-47.381
-49.974
-52.778
-55.735
-58.856
-62.232
-65.836
-69.56
-73.169
-76.216
-78.329
-79.293
-78.818
-76.566
-72.44
-66.58
-59.502
-52.287
-45.93
-41.085
-38.408
-38.453
-41.299
-46.547
-53.114
-58.912
-61.78
-59.975
-51.654
-35.22
-9.775
24.912
68.042
117.348
169.974
222.813
271.867
312.9
341.977
355.272
349.641
323.155
274.672
205.084
117.99
17.511
-92.591
-210.724
-336.773
-467.307
-593.733
-702.271
-779.016
-816.967
-818.463
-793.866
-754.313
-706.741
-653.211
-591.785
-522.32
-447.743
-372.196
-301.145
-238.412
-185.582
-143.554
-112.007
-89.689
-75.298
-67.326
-63.68
-62.376
-61.554
-59.361
-54.924
-48.27
-39.659
-29.628
-19.008
-8.554
0.833
8.134
12.972
15.455
15.856
14.687
12.461
9.587
6.594
4.044
2.224
1.261
1.15
1.735
2.917
4.624
6.734
9.123
11.69
14.351
17.071
19.85
22.66
25.475
28.268
31.017
33.74
36.453
39.18
41.964
44.834
47.821
50.965
54.295
57.827
61.572
65.511
69.597
73.809
78.12
82.506
86.947
91.398
95.818
100.182
104.463
108.644
112.711
116.647
120.434
124.078
127.59
130.996
134.34
137.646
140.929
144.203
147.477
150.764
154.075
157.403
160.735
164.055
167.345
170.59
173.777
176.878
179.862
182.693
185.331
187.746
189.913
191.806
193.408
194.7
195.666
196.299
196.598
196.56
196.183
195.465
194.404
193.004
191.27
189.209
186.83
184.141
181.15
177.867
174.304
170.471
166.379
162.039
157.463
152.665
147.66
142.464
137.094
131.568
125.904
120.121
114.237
108.272
102.245
96.173
90.074
83.967
77.868
71.795
65.765
59.791
53.891
48.078
42.366
36.768
31.296
25.963
20.778
15.752
10.893
6.211
1.713
-2.594
-6.706
-10.618
-14.326
-17.828
-21.122
-24.208
-27.088
-29.761
-32.231
-34.501
-36.575
-38.458
-40.155
-41.673
-43.017
-44.196
-45.216
-46.085
-46.811
-47.403
-47.869
-48.217
-48.457
-48.597
-48.646
-48.612
-48.505
-48.333
-48.105
-47.828
-47.511
-47.16
-46.783
-46.387
-45.976
-45.558
-45.137
-44.717
-44.304
-43.899
-43.506
-43.129
-42.768
-42.425
-42.102
-41.799
-41.516
-41.253
-41.01
-40.787
-40.582
-40.394
-40.223
-40.066
-39.923
-39.791
-39.669
-39.555
-39.447
-39.343
-39.242
-39.142
-39.042
-38.939
-38.832
-38.721
-38.604
-38.481
-38.351
-38.214
-38.07
-37.918
-37.759
-37.594
-37.421
-37.243
-37.061
-36.873
-36.683
-36.491
-36.297
-36.102
-35.909
-35.716
-35.526
-35.339
-35.156
-34.977
-34.803
-34.634
-34.472
-34.315
-34.166
-34.022
-33.886
-33.756
-33.633
-33.517
-33.407
-33.303
-33.204
-33.111
-33.022
-32.937
-32.856
-32.777
-32.7
-32.624
-32.548
-32.472
-32.395
-32.315
-32.232
-32.145
-32.053
-31.955
-31.85
-31.737
-31.616
-31.486
-31.347
-31.196
-31.033
-30.859
-30.673
-30.474
-30.262
-30.034
-29.792
-29.535
-29.261
-28.968
-28.655
-28.319
-27.96
-27.577
-27.167
-26.73
-26.264
-25.769
-25.244
-24.691
-24.109
-23.497
-22.854
-22.178
-21.475
-20.751
-20.009
-19.253
-18.488
-17.717
-16.948
-16.189
-15.438
-14.694
-13.956
-13.222
-12.501
-11.8
-11.126
-10.487
-9.881
-9.303
-8.76
-8.253
-7.776
-7.328
-6.9
-6.484
-6.098
-5.753
-5.453
-5.209
-5.009
-4.844
-4.705
-4.575
-4.441
-4.294
-4.12
-3.91
-3.672
-3.404
-3.108
-2.784
-2.405
-1.958
-1.443
-0.856
-0.206
0.487
1.197
1.87
2.445
2.86
3.066
3.022
2.698
2.071
1.099
-0.261
-2.067
-4.365
-7.181
-10.516
-14.395
-18.873
-23.891
-29.272
-34.739
-39.864
-44.277
-47.731
-49.896
-50.369
-48.97
-45.757
-41.102
-35.883
-30.921
-26.748
-23.991
-23.251
-24.73
-28.225
-32.906
-37.013
-38.68
-36.325
-28.166
-12.595
11.395
44.19
85.177
132.395
183.247
234.711
282.793
323.219
351.969
365.166
359.584
333.074
284.334
214.415
127.283
27.328
-81.559
-198.146
-322.902
-452.277
-577.142
-682.845
-754.573
-785.489
-778.916
-746.566
-700.99
-649.864
-595.158
-534.395
-466.813
-394.843
-322.437
-255.026
-196.183
-147.065
-108.199
-79.005
-58.185
-44.633
-36.974
-33.206
-31.549
-30.373
-28.061
-23.925
-18.011
-10.493
-1.835
7.197
15.946
23.622
29.346
32.867
34.34
34.057
32.535
30.283
27.728
25.4
23.858
23.381
24.063
25.876
28.657
32.283
36.66
41.64
47.062
52.779
58.664
64.616
70.561
76.404
82.045
87.383
92.324
96.817
100.846
104.414
107.549
110.284
112.658
114.725
116.544
118.177
119.681
121.106
122.497
123.904
125.375
126.959
128.703
130.639
132.783
135.146
137.728
140.525
143.534
146.74
150.126
153.675
157.372
161.203
165.155
169.212
173.355
177.564
181.817
186.093
190.374
194.638
198.865
203.034
207.124
211.115
214.989
218.724
222.298
225.691
228.879
231.842
234.561
237.015
239.187
241.059
242.617
243.846
244.737
245.279
245.463
245.283
244.735
243.814
242.521
240.855
238.819
236.416
233.653
230.537
227.076
223.281
219.164
214.738
210.018
205.02
199.76
194.258
188.531
182.6
176.485
170.207
163.789
157.252
150.618
143.91
137.151
130.362
123.565
116.781
110.032
103.337
96.716
90.187
83.768
77.476
71.326
65.334
59.513
53.876
48.435
43.2
38.179
33.382
28.814
24.482
20.39
16.54
12.936
9.577
6.464
3.594
0.967
-1.423
-3.58
-5.508
-7.215
-8.707
-9.992
-11.079
-11.976
-12.693
-13.239
-13.625
-13.86
-13.955
-13.92
-13.767
-13.504
-13.143
-12.694
-12.166
-11.57
-10.914
-10.208
-9.46
-8.678
-7.871
-7.045
-6.208
-5.366
-4.525
-3.69
-2.867
-2.06
-1.272
-0.508
0.23
0.94
1.618
2.264
2.876
3.453
3.994
4.499
4.968
5.401
5.799
6.161
6.489
6.783
7.044
7.273
7.471
7.639
7.778
7.888
7.971
8.028
8.059
8.064
8.045
8.002
7.935
7.845
7.732
7.595
7.436
7.253
7.048
6.819
6.566
6.289
5.988
5.662
5.31
4.932
4.528
4.096
3.636
3.148
2.631
2.084
1.508
0.901
0.263
-0.405
-1.104
-1.834
-2.594
-3.383
-4.201
-5.047
-5.919
-6.815
-7.733
-8.672
-9.628
-10.598
-11.581
-12.572
-13.568
-14.567
-15.563
-16.554
-17.534
-18.5
-19.447
-20.37
-21.264
-22.125
-22.947
-23.726
-24.457
-25.134
-25.753
-26.309
-26.797
-27.213
-27.553
-27.813
-27.989
-28.079
-28.082
-27.995
-27.819
-27.555
-27.204
-26.768
-26.251
-25.656
-24.986
-24.247
-23.443
-22.58
-21.663
-20.699
-19.694
-18.656
-17.594
-16.516
-15.432
-14.349
-13.277
-12.225
-11.204
-10.224
-9.289
-8.407
-7.587
-6.835
-6.164
-5.582
-5.091
-4.689
-4.378
-4.152
-4.009
-3.937
-3.916
-3.926
-3.949
-3.967
-3.974
-3.961
-3.914
-3.819
-3.655
-3.413
-3.096
-2.71
-2.257
-1.754
-1.216
-0.684
-0.225
0.092
0.195
0.022
-0.474
-1.337
-2.605
-4.322
-6.541
-9.306
-12.639
-16.561
-21.069
-26.168
-31.903
-38.181
-44.778
-51.383
-57.544
-62.87
-67.115
-69.927
-70.87
-69.85
-66.999
-62.761
-58.109
-53.733
-50.009
-47.623
-47.174
-48.663
-51.79
-55.459
-57.685
-57.149
-52.564
-41.869
-23.642
2.989
37.651
77.416
119.988
164.462
210.222
257.599
302.183
335.299
348.764
333.75
288.578
219.048
130.878
33.142
-68.222
-173.852
-281.534
-390.422
-498.257
-594.837
-673.216
-727.62
-752.917
-753.717
-734.247
-698.072
-651.803
-596.752
-534.502
-468.892
-401.51
-335.522
-274.72
-220.991
-175.644
-139.352
-111.441
-90.651
-76.236
-67.195
-61.848
-58.718
-56.268
-52.936
-48.221
-42.29
-35.167
-27.183
-18.98
-11.069
-4.232
0.674
3.463
4.302
3.465
1.44
-1.294
-4.343
-7.179
-9.259
-10.319
-10.259
-9.109
-7.025
-4.118
-0.48
3.754
8.432
13.417
18.589
23.849
29.121
34.311
39.319
44.046
48.4
52.329
55.816
58.867
61.512
63.783
65.722
67.379
68.813
70.082
71.243
72.345
73.432
74.551
75.75
77.078
78.58
80.286
82.211
84.363
86.742
89.343
92.158
95.173
98.369
101.726
105.23
108.864
112.613
116.461
120.385
124.364
128.376
132.398
136.409
140.387
144.31
148.157
151.905
155.534
159.024
162.355
165.503
168.447
171.166
173.64
175.849
177.775
179.401
180.712
181.694
182.336
182.629
182.564
182.137
181.342
180.178
178.644
176.741
174.473
171.844
168.861
165.533
161.869
157.882
153.584
148.99
144.115
138.977
133.593
127.984
122.169
116.168
110.004
103.698
97.272
90.749
84.152
77.503
70.824
64.138
57.466
50.829
44.247
37.739
31.324
25.02
18.843
12.809
6.932
1.227
-4.295
-9.622
-14.744
-19.652
-24.339
-28.798
-33.024
-37.013
-40.762
-44.269
-47.535
-50.559
-53.343
-55.891
-58.205
-60.292
-62.156
-63.804
-65.244
-66.482
-67.528
-68.39
-69.078
-69.6
-69.968
-70.19
-70.278
-70.241
-70.09
-69.835
-69.485
-69.052
-68.545
-67.974
-67.347
-66.673
-65.962
-65.221
-64.459
-63.682
-62.897
-62.111
-61.33
-60.558
-59.8
-59.061
-58.344
-57.653
-56.989
-56.355
-55.752
-55.183
-54.647
-54.145
-53.678
-53.245
-52.847
-52.481
-52.147
-51.845
-51.573
-51.329
-51.112
-50.92
-50.751
-50.604
-50.476
-50.366
-50.272
-50.191
-50.123
-50.064
-50.015
-49.972
-49.936
-49.905
-49.878
-49.856
-49.836
-49.82
-49.806
-49.796
-49.789
-49.786
-49.788
-49.795
-49.808
-49.83
-49.86
-49.9
-49.951
-50.014
-50.09
-50.18
-50.285
-50.405
-50.542
-50.696
-50.867
-51.055
-51.262
-51.486
-51.728
-51.986
-52.26
-52.549
-52.85
-53.16
-53.478
-53.801
-54.128
-54.454
-54.777
-55.094
-55.4
-55.692
-55.966
-56.215
-56.432
-56.612
-56.747
-56.833
-56.866
-56.839
-56.748
-56.589
-56.358
-56.057
-55.682
-55.23
-54.696
-54.072
-53.36
-52.569
-51.704
-50.77
-49.77
-48.71
-47.599
-46.453
-45.276
-44.067
-42.822
-41.534
-40.208
-38.86
-37.503
-36.153
-34.813
-33.474
-32.134
-30.802
-29.479
-28.166
-26.853
-25.512
-24.145
-22.78
-21.437
-20.142
-18.897
-17.676
-16.466
-15.26
-14.057
-12.875
-11.717
-10.569
-9.431
-8.314
-7.238
-6.251
-5.364
-4.542
-3.771
-3.037
-2.358
-1.794
-1.395
-1.197
-1.239
-1.549
-2.156
-3.105
-4.43
-6.157
-8.308
-10.879
-13.89
-17.385
-21.411
-26.05
-31.284
-36.954
-42.805
-48.475
-53.618
-57.994
-61.322
-63.188
-63.34
-61.831
-59.042
-55.776
-52.808
-50.527
-49.266
-49.54
-51.654
-55.419
-60.037
-63.901
-65.193
-62.667
-55.237
-41.506
-20.283
8.969
46
89.33
136.652
185.842
234.452
279.018
315.662
340.642
350.667
343.273
316.821
270.197
203.092
117.873
19.5
-88.054
-201.147
-317.249
-436.233
-551.873
-653.697
-732.249
-777.09
-787.239
-770.656
-734.589
-688.004
-635.417
-575.401
-509.207
-438.771
-366.802
-298.657
-237.855
-186.01
-144.317
-112.44
-89.148
-73.326
-63.671
-58.315
-55.476
-53.425
-50.339
-45.346
-38.452
-29.856
-20.003
-9.609
0.67
9.995
17.345
22.326
25.04
25.762
25.001
23.261
20.936
18.55
16.696
15.717
15.777
16.908
18.976
21.869
25.514
29.776
34.494
39.515
44.67
49.812
54.844
59.667
64.196
68.368
72.122
75.421
78.259
80.649
82.623
84.231
85.521
86.548
87.391
88.142
88.92
89.851
91.028
92.521
94.387
96.649
99.327
102.417
105.882
109.681
113.779
118.138
122.735
127.544
132.519
137.61
142.754
147.873
152.91
157.823
162.569
167.127
171.487
175.65
179.647
183.5
187.219
190.805
194.248
197.532
200.651
203.596
206.357
208.933
211.32
213.51
215.498
217.272
218.812
220.095
221.084
221.749
222.067
222.023
221.609
220.821
219.656
218.117
216.212
213.947
211.33
208.368
205.067
201.436
197.489
193.242
188.715
183.927
178.897
173.647
168.197
162.567
156.776
150.844
144.788
138.627
132.381
126.07
119.715
113.336
106.955
100.591
94.263
87.993
81.796
75.691
69.694
63.818
58.078
52.488
47.058
41.801
36.726
31.843
27.159
22.683
18.419
14.373
10.55
6.952
3.58
0.437
-2.477
-5.165
-7.626
-9.864
-11.882
-13.684
-15.274
-16.657
-17.84
-18.83
-19.634
-20.259
-20.715
-21.009
-21.151
-21.149
-21.014
-20.753
-20.377
-19.895
-19.315
-18.648
-17.902
-17.086
-16.21
-15.282
-14.31
-13.304
-12.27
-11.217
-10.152
-9.082
-8.014
-6.952
-5.904
-4.874
-3.867
-2.887
-1.939
-1.026
-0.152
0.681
1.47
2.213
2.909
3.556
4.154
4.703
5.201
5.648
6.046
6.395
6.694
6.945
7.149
7.307
7.42
7.491
7.52
7.51
7.462
7.379
7.262
7.113
6.932
6.722
6.484
6.219
5.928
5.612
5.272
4.911
4.528
4.126
3.705
3.266
2.809
2.335
1.843
1.335
0.809
0.266
-0.294
-0.87
-1.462
-2.07
-2.693
-3.33
-3.982
-4.647
-5.326
-6.017
-6.721
-7.437
-8.163
-8.897
-9.637
-10.379
-11.122
-11.862
-12.595
-13.317
-14.027
-14.721
-15.399
-16.057
-16.693
-17.305
-17.889
-18.441
-18.957
-19.43
-19.852
-20.218
-20.523
-20.762
-20.932
-21.03
-21.054
-21.005
-20.883
-20.687
-20.413
-20.054
-19.604
-19.068
-18.449
-17.758
-17.008
-16.213
-15.388
-14.554
-13.727
-12.918
-12.128
-11.349
-10.569
-9.787
-9.008
-8.245
-7.511
-6.803
-6.12
-5.46
-4.809
-4.157
-3.478
-2.731
-1.886
-0.932
0.126
1.261
2.442
3.652
4.877
6.109
7.339
8.547
9.721
10.855
11.933
12.932
13.809
14.494
14.942
15.129
15.045
14.703
14.112
13.277
12.217
10.954
9.504
7.882
6.079
4.075
1.869
-0.528
-3.078
-5.737
-8.496
-11.358
-14.332
-17.435
-20.64
-23.957
-27.466
-31.188
-35.068
-38.945
-42.498
-45.414
-47.494
-48.497
-48.115
-46.175
-42.639
-37.804
-32.384
-27.136
-22.662
-19.498
-18.195
-19.123
-22.343
-27.293
-32.639
-36.645
-37.698
-34.457
-25.184
-8.144
17.691
52.727
95.263
141.426
188.935
236.261
281.852
326.054
364.148
387.244
387.708
356.801
293.269
204.264
98.18
-13.749
-125.584
-237.776
-350.61
-465.58
-577.193
-674.01
-746.724
-786.243
-792.546
-773.942
-737.288
-690.805
-638.629
-579.389
-514.25
-445.024
-374.109
-306.186
-244.62
-190.978
-146.405
-111.168
-84.551
-65.638
-53.456
-46.482
-43.032
-41.634
-40.656
-38.666
-35.151
-30.068
-23.543
-16.109
-8.356
-0.837
5.662
10.42
13.209
14.14
13.519
11.833
9.528
7
4.722
3.143
2.508
2.859
4.102
6.065
8.593
11.572
14.886
18.399
22.018
25.683
29.336
32.941
36.465
39.84
43.016
45.963
48.658
51.139
53.485
55.76
58.029
60.354
62.763
65.286
67.942
70.715
73.593
76.577
79.661
82.861
86.198
89.671
93.28
97.002
100.784
104.587
108.381
112.128
115.819
119.448
123.017
126.558
130.102
133.66
137.241
140.837
144.43
148.014
151.577
155.105
158.595
162.04
165.43
168.757
172.004
175.149
178.161
180.999
183.623
186.001
188.107
189.919
191.424
192.606
193.454
193.965
194.133
193.952
193.419
192.528
191.277
189.67
187.711
185.411
182.78
179.829
176.571
173.018
169.182
165.079
160.722
156.123
151.297
146.262
141.035
135.634
130.082
124.397
118.6
112.713
106.757
100.752
94.718
88.676
82.643
76.64
70.683
64.79
58.978
53.262
47.656
42.174
36.83
31.634
26.597
21.729
17.038
12.531
8.216
4.096
0.176
-3.54
-7.051
-10.354
-13.45
-16.339
-19.022
-21.501
-23.78
-25.863
-27.753
-29.458
-30.981
-32.331
-33.513
-34.534
-35.402
-36.124
-36.707
-37.159
-37.489
-37.702
-37.808
-37.815
-37.728
-37.557
-37.308
-36.989
-36.605
-36.164
-35.672
-35.134
-34.558
-33.947
-33.307
-32.643
-31.96
-31.262
-30.554
-29.839
-29.121
-28.403
-27.688
-26.98
-26.281
-25.593
-24.919
-24.261
-23.621
-23.001
-22.403
-21.828
-21.279
-20.757
-20.263
-19.799
-19.364
-18.961
-18.59
-18.252
-17.947
-17.677
-17.441
-17.24
-17.073
-16.942
-16.846
-16.783
-16.754
-16.758
-16.794
-16.86
-16.957
-17.081
-17.233
-17.411
-17.614
-17.84
-18.088
-18.355
-18.64
-18.94
-19.254
-19.578
-19.911
-20.251
-20.597
-20.946
-21.297
-21.649
-22.001
-22.351
-22.699
-23.043
-23.384
-23.721
-24.053
-24.38
-24.704
-25.024
-25.342
-25.658
-25.973
-26.288
-26.604
-26.922
-27.241
-27.561
-27.882
-28.204
-28.527
-28.853
-29.182
-29.516
-29.855
-30.204
-30.564
-30.934
-31.315
-31.704
-32.098
-32.494
-32.889
-33.276
-33.651
-34.011
-34.351
-34.673
-34.973
-35.249
-35.494
-35.7
-35.863
-35.981
-36.054
-36.081
-36.065
-36.016
-35.948
-35.884
-35.841
-35.826
-35.841
-35.881
-35.939
-36.01
-36.087
-36.16
-36.22
-36.254
-36.253
-36.215
-36.121
-35.95
-35.663
-35.205
-34.539
-33.647
-32.516
-31.154
-29.572
-27.785
-25.824
-23.727
-21.529
-19.262
-16.948
-14.603
-12.256
-9.951
-7.741
-5.701
-3.885
-2.331
-1.071
-0.121
0.514
0.833
0.859
0.623
0.141
-0.58
-1.55
-2.79
-4.304
-6.086
-8.114
-10.364
-12.833
-15.524
-18.445
-21.608
-25.006
-28.667
-32.667
-37.021
-41.664
-46.411
-50.924
-54.872
-58.007
-60.037
-60.62
-59.547
-56.77
-52.617
-47.835
-43.19
-39.321
-36.812
-36.19
-37.816
-41.727
-47.247
-52.977
-57.228
-58.251
-54.436
-44.204
-26.077
0.921
36.862
80.772
130.726
184.096
237.834
288.189
330.861
361.527
376.18
371.631
345.815
297.757
227.697
137.489
30.532
-88.425
-213.648
-339.071
-458.576
-566.251
-656.968
-726.675
-772.76
-794.47
-792.373
-768.13
-724.616
-665.57
-595.296
-518.622
-440.095
-363.35
-291.753
-228.086
-174.22
-131.36
-99.51
-77.438
-63.559
-56.283
-53.561
-53.355
-53.717
-52.72
-49.445
-43.906
-36.39
-27.421
-17.774
-8.211
0.339
6.824
10.835
12.487
12.099
10.216
7.378
4.04
0.775
-1.799
-3.322
-3.657
-2.81
-0.938
1.829
5.399
9.632
14.368
19.461
24.78
30.215
35.689
41.114
46.391
51.425
56.123
60.409
64.247
67.634
70.583
73.125
75.3
77.148
78.724
80.09
81.307
82.429
83.507
84.583
85.702
86.912
88.256
89.774
91.491
93.418
95.558
97.912
100.473
103.233
106.178
109.287
112.543
115.93
119.433
123.037
126.725
130.476
134.269
138.084
141.898
145.692
149.445
153.136
156.744
160.248
163.628
166.866
169.942
172.834
175.523
177.989
180.213
182.177
183.865
185.262
186.352
187.126
187.572
187.682
187.451
186.874
185.946
184.668
183.039
181.063
178.743
176.085
173.097
169.786
166.165
162.245
158.039
153.562
148.83
143.861
138.672
133.283
127.713
121.982
116.112
110.124
104.039
97.879
91.665
85.419
79.162
72.915
66.698
60.532
54.434
48.423
42.515
36.728
31.076
25.574
20.233
15.067
10.086
5.299
0.715
-3.659
-7.817
-11.755
-15.468
-18.955
-22.214
-25.245
-28.049
-30.629
-32.987
-35.127
-37.054
-38.774
-40.293
-41.619
-42.759
-43.722
-44.516
-45.151
-45.636
-45.981
-46.195
-46.288
-46.271
-46.153
-45.944
-45.652
-45.288
-44.859
-44.374
-43.842
-43.269
-42.664
-42.032
-41.38
-40.713
-40.038
-39.358
-38.678
-38.001
-37.331
-36.671
-36.023
-35.389
-34.771
-34.169
-33.585
-33.02
-32.472
-31.942
-31.43
-30.935
-30.455
-29.991
-29.54
-29.103
-28.677
-28.261
-27.855
-27.457
-27.067
-26.684
-26.306
-25.935
-25.568
-25.207
-24.851
-24.501
-24.156
-23.817
-23.485
-23.161
-22.845
-22.537
-22.24
-21.953
-21.678
-21.416
-21.168
-20.935
-20.718
-20.519
-20.338
-20.177
-20.036
-19.918
-19.823
-19.753
-19.708
-19.689
-19.698
-19.735
-19.8
-19.895
-20.018
-20.171
-20.353
-20.563
-20.801
-21.066
-21.358
-21.675
-22.016
-22.38
-22.766
-23.171
-23.594
-24.033
-24.487
-24.953
-25.429
-25.912
-26.4
-26.891
-27.382
-27.87
-28.353
-28.828
-29.291
-29.74
-30.171
-30.581
-30.967
-31.323
-31.649
-31.939
-32.191
-32.401
-32.568
-32.687
-32.757
-32.774
-32.737
-32.644
-32.493
-32.282
-32.011
-31.679
-31.286
-30.834
-30.322
-29.754
-29.132
-28.458
-27.737
-26.971
-26.164
-25.322
-24.449
-23.549
-22.628
-21.69
-20.741
-19.789
-18.841
-17.903
-16.983
-16.087
-15.222
-14.396
-13.618
-12.891
-12.218
-11.602
-11.046
-10.556
-10.137
-9.793
-9.52
-9.315
-9.176
-9.098
-9.072
-9.085
-9.113
-9.134
-9.129
-9.084
-8.993
-8.847
-8.634
-8.337
-7.942
-7.44
-6.835
-6.128
-5.319
-4.414
-3.433
-2.413
-1.424
-0.541
0.177
0.673
0.909
0.853
0.456
-0.344
-1.596
-3.353
-5.643
-8.476
-11.901
-15.988
-20.71
-25.923
-31.341
-36.545
-41.166
-44.939
-47.551
-48.602
-47.853
-45.366
-41.542
-37.157
-32.994
-29.505
-27.124
-26.503
-27.973
-31.278
-35.608
-39.396
-40.845
-38.71
-31.674
-17.929
3.779
33.894
72.017
116.355
164.484
214.172
262.324
304.578
336.737
354.942
355.903
337.687
298.883
238.418
157.951
62.132
-44.242
-156.68
-273.504
-395.227
-517.93
-632.737
-726.379
-785.644
-805.443
-789.818
-749.8
-697.17
-639.265
-578.379
-513.33
-444.036
-372.759
-303.426
-240.782
-187.818
-145.453
-113.389
-90.167
-74.163
-64.176
-58.519
-55.347
-52.94
-49.537
-44.28
-37.214
-28.628
-18.956
-8.875
0.947
9.69
16.336
20.473
22.213
21.839
19.89
16.904
13.319
9.713
6.727
4.75
3.96
4.393
5.913
8.406
11.798
15.954
20.723
25.969
31.56
37.389
43.372
49.409
55.388
61.199
66.732
71.894
76.632
80.924
84.777
88.214
91.269
93.982
96.402
98.586
100.593
102.476
104.284
106.06
107.849
109.7
111.661
113.774
116.068
118.555
121.24
124.122
127.195
130.45
133.872
137.44
141.136
144.945
148.851
152.841
156.899
161.005
165.14
169.283
173.414
177.516
181.569
185.554
189.452
193.246
196.917
200.449
203.824
207.024
210.029
212.822
215.384
217.701
219.755
221.532
223.018
224.203
225.077
225.631
225.86
225.757
225.319
224.545
223.434
221.986
220.206
218.096
215.662
212.911
209.851
206.494
202.848
198.928
194.746
190.318
185.658
180.783
175.711
170.46
165.047
159.493
153.817
148.038
142.176
136.252
130.285
124.294
118.3
112.321
106.374
100.478
94.649
88.903
83.255
77.72
72.311
67.04
61.919
56.958
52.167
47.554
43.126
38.889
34.849
31.008
27.371
23.938
20.711
17.689
14.871
12.254
9.836
7.613
5.58
3.731
2.061
0.562
-0.772
-1.95
-2.979
-3.867
-4.624
-5.257
-5.774
-6.186
-6.5
-6.725
-6.868
-6.939
-6.945
-6.893
-6.791
-6.646
-6.463
-6.25
-6.011
-5.752
-5.477
-5.191
-4.898
-4.601
-4.304
-4.008
-3.716
-3.429
-3.15
-2.879
-2.617
-2.365
-2.122
-1.889
-1.666
-1.453
-1.248
-1.053
-0.867
-0.688
-0.518
-0.355
-0.199
-0.05
0.092
0.228
0.357
0.48
0.596
0.706
0.809
0.904
0.991
1.07
1.139
1.198
1.246
1.282
1.306
1.315
1.309
1.287
1.248
1.19
1.113
1.015
0.897
0.757
0.596
0.413
0.208
-0.016
-0.26
-0.522
-0.8
-1.094
-1.401
-1.72
-2.047
-2.381
-2.719
-3.059
-3.396
-3.729
-4.053
-4.365
-4.663
-4.941
-5.197
-5.426
-5.625
-5.79
-5.916
-6
-6.037
-6.024
-5.956
-5.83
-5.642
-5.392
-5.076
-4.694
-4.244
-3.729
-3.148
-2.506
-1.803
-1.042
-0.227
0.638
1.549
2.501
3.491
4.513
5.56
6.625
7.699
8.773
9.842
10.895
11.924
12.921
13.876
14.782
15.631
16.416
17.127
17.754
18.285
18.712
19.033
19.249
19.361
19.377
19.301
19.146
18.93
18.669
18.373
18.056
17.724
17.386
17.057
16.752
16.487
16.275
16.118
16.01
15.948
15.913
15.886
15.839
15.727
15.504
15.136
14.586
13.815
12.794
11.483
9.846
7.861
5.501
2.739
-0.435
-4.04
-8.081
-12.523
-17.364
-22.61
-28.161
-33.852
-39.433
-44.53
-48.836
-52.149
-54.15
-54.456
-52.965
-49.829
-45.523
-40.882
-36.546
-32.821
-30.204
-29.361
-30.447
-33.121
-36.395
-38.563
-38.241
-34.591
-26.43
-12.211
8.952
37.281
71.962
110.914
152.231
194.167
233.933
267.776
291.971
303.038
298.63
277.553
238.305
180.098
103.752
12.55
-87.821
-192.661
-298.584
-403.592
-506.937
-602.886
-682.661
-738.547
-762.763
-755.896
-725.478
-678.383
-623.627
-565.84
-504.2
-440.061
-374.297
-308.667
-247.966
-195.087
-150.983
-116.339
-90.288
-71.387
-59.062
-52.331
-49.336
-48.503
-48.298
-47.18
-44.661
-40.845
-35.673
-29.426
-22.757
-16.209
-10.546
-6.601
-4.545
-4.198
-5.315
-7.447
-10.148
-13.057
-15.683
-17.513
-18.317
-18.029
-16.701
-14.503
-11.557
-7.951
-3.822
0.681
5.427
10.297
15.203
20.086
24.87
29.471
33.808
37.801
41.409
44.629
47.476
49.983
52.185
54.121
55.84
57.4
58.854
60.256
61.649
63.069
64.558
66.155
67.9
69.833
71.978
74.343
76.931
79.738
82.756
85.975
89.379
92.943
96.649
100.477
104.411
108.432
112.523
116.659
120.818
124.975
129.108
133.194
137.21
141.134
144.942
148.612
152.124
155.459
158.594
161.51
164.186
166.602
168.739
170.58
172.108
173.31
174.17
174.68
174.829
174.612
174.022
173.057
171.715
169.996
167.904
165.443
162.618
159.437
155.91
152.048
147.865
143.374
138.592
133.535
128.224
122.676
116.914
110.959
104.832
98.558
92.158
85.657
79.079
72.447
65.785
59.117
52.465
45.853
39.302
32.834
26.468
20.224
14.121
8.175
2.401
-3.184
-8.568
-13.738
-18.684
-23.396
-27.865
-32.085
-36.05
-39.756
-43.202
-46.385
-49.306
-51.966
-54.368
-56.516
-58.415
-60.07
-61.489
-62.681
-63.652
-64.415
-64.977
-65.352
-65.549
-65.581
-65.459
-65.196
-64.804
-64.295
-63.681
-62.974
-62.187
-61.33
-60.416
-59.454
-58.455
-57.429
-56.385
-55.332
-54.278
-53.23
-52.194
-51.178
-50.186
-49.222
-48.291
-47.396
-46.539
-45.722
-44.947
-44.215
-43.525
-42.878
-42.272
-41.706
-41.18
-40.69
-40.235
-39.813
-39.42
-39.056
-38.716
-38.398
-38.099
-37.817
-37.55
-37.293
-37.047
-36.808
-36.574
-36.346
-36.12
-35.897
-35.676
-35.456
-35.238
-35.022
-34.808
-34.597
-34.39
-34.189
-33.994
-33.808
-33.631
-33.466
-33.314
-33.176
-33.054
-32.949
-32.863
-32.796
-32.749
-32.723
-32.718
-32.735
-32.775
-32.836
-32.918
-33.02
-33.14
-33.278
-33.43
-33.595
-33.768
-33.947
-34.128
-34.308
-34.481
-34.644
-34.792
-34.919
-35.021
-35.091
-35.126
-35.119
-35.067
-34.965
-34.809
-34.595
-34.322
-33.988
-33.591
-33.131
-32.608
-32.022
-31.374
-30.666
-29.899
-29.075
-28.197
-27.267
-26.291
-25.275
-24.224
-23.145
-22.045
-20.932
-19.812
-18.695
-17.589
-16.503
-15.443
-14.417
-13.433
-12.5
-11.631
-10.832
-10.108
-9.457
-8.878
-8.368
-7.923
-7.533
-7.182
-6.853
-6.532
-6.206
-5.871
-5.516
-5.129
-4.697
-4.203
-3.634
-2.997
-2.295
-1.537
-0.737
0.09
0.916
1.679
2.33
2.818
3.083
3.094
2.809
2.175
1.164
-0.271
-2.176
-4.565
-7.462
-10.891
-14.836
-19.313
-24.353
-29.833
-35.561
-41.272
-46.574
-51.156
-54.817
-57.209
-57.912
-56.805
-54.009
-49.969
-45.49
-41.133
-37.142
-33.988
-32.341
-32.416
-33.948
-36.019
-37.003
-35.611
-31.056
-22.163
-7.344
14.434
43.526
79.266
119.745
163.027
207.214
249.345
285.367
311.246
323.349
318.696
295.446
252.413
188.941
106.976
11.381
-93.687
-204.266
-317.304
-432.065
-542.467
-638.747
-712.17
-753.525
-762.271
-745.692
-710.563
-665.178
-613.742
-555.361
-491.498
-424.042
-355.555
-290.876
-233.119
-183.733
-143.787
-112.95
-90.101
-74.234
-64.154
-58.144
-54.584
-51.897
-48.431
-43.41
-36.83
-28.85
-19.875
-10.561
-1.518
6.473
12.478
16.147
17.585
17.061
15.062
12.074
8.508
4.892
1.82
-0.349
-1.462
-1.497
-0.581
1.184
3.728
6.935
10.661
14.774
19.152
23.692
28.322
32.96
37.506
41.865
45.94
49.649
52.95
55.836
58.316
60.418
62.178
63.635
64.841
65.861
66.752
67.57
68.366
69.181
70.066
71.068
72.237
73.616
75.235
77.106
79.237
81.628
84.275
87.17
90.298
93.638
97.171
100.881
104.752
108.768
112.91
117.154
121.477
125.855
130.265
134.683
139.086
143.449
147.749
151.961
156.064
160.036
163.854
167.493
170.931
174.145
177.111
179.81
182.222
184.327
186.11
187.556
188.652
189.387
189.754
189.746
189.358
188.586
187.432
185.895
183.979
181.69
179.034
176.02
172.66
168.965
164.951
160.632
156.026
151.152
146.029
140.678
135.12
129.378
123.473
117.431
111.274
105.027
98.714
92.358
85.984
79.614
73.273
66.98
60.759
54.628
48.606
42.714
36.966
31.379
25.968
20.746
15.726
10.917
6.329
1.971
-2.152
-6.035
-9.673
-13.064
-16.209
-19.106
-21.757
-24.165
-26.334
-28.269
-29.975
-31.461
-32.732
-33.799
-34.67
-35.355
-35.864
-36.208
-36.399
-36.447
-36.363
-36.159
-35.847
-35.437
-34.941
-34.369
-33.732
-33.041
-32.305
-31.534
-30.737
-29.922
-29.097
-28.269
-27.446
-26.632
-25.834
-25.058
-24.306
-23.583
-22.893
-22.238
-21.62
-21.041
-20.503
-20.006
-19.55
-19.136
-18.764
-18.433
-18.143
-17.893
-17.683
-17.511
-17.377
-17.279
-17.217
-17.189
-17.195
-17.233
-17.303
-17.403
-17.533
-17.693
-17.881
-18.098
-18.342
-18.615
-18.917
-19.246
-19.604
-19.991
-20.407
-20.854
-21.331
-21.84
-22.38
-22.954
-23.562
-24.204
-24.88
-25.592
-26.339
-27.122
-27.939
-28.791
-29.676
-30.593
-31.54
-32.516
-33.519
-34.547
-35.596
-36.665
-37.751
-38.85
-39.958
-41.073
-42.19
-43.305
-44.413
-45.51
-46.591
-47.651
-48.684
-49.685
-50.65
-51.571
-52.445
-53.263
-54.022
-54.716
-55.338
-55.884
-56.35
-56.731
-57.024
-57.225
-57.333
-57.346
-57.264
-57.088
-56.816
-56.451
-55.994
-55.448
-54.814
-54.096
-53.297
-52.42
-51.47
-50.454
-49.377
-48.247
-47.069
-45.851
-44.601
-43.327
-42.038
-40.743
-39.447
-38.156
-36.879
-35.623
-34.401
-33.221
-32.082
-30.987
-29.935
-28.925
-27.955
-27.016
-26.093
-25.168
-24.225
-23.254
-22.251
-21.207
-20.111
-18.951
-17.711
-16.383
-14.974
-13.491
-11.937
-10.324
-8.667
-6.998
-5.377
-3.865
-2.525
-1.413
-0.576
-0.056
0.101
-0.158
-0.894
-2.16
-3.992
-6.419
-9.46
-13.146
-17.545
-22.633
-28.246
-34.117
-39.859
-45.11
-49.619
-53.098
-55.122
-55.413
-53.987
-51.192
-47.796
-44.556
-41.856
-40.033
-39.615
-40.933
-43.83
-47.559
-50.555
-51.039
-47.808
-39.78
-25.531
-3.853
25.842
63.373
107.307
155.408
205.635
255.513
301.472
339.634
366.235
377.678
371.284
345.257
297.999
230.019
144.646
45.717
-63.055
-180.157
-305.736
-436.401
-563.357
-672.651
-750.19
-788.97
-791.457
-768.07
-729.949
-683.891
-631.837
-571.82
-503.646
-430.225
-355.642
-285.235
-222.736
-169.705
-127.052
-94.51
-70.917
-55.071
-45.575
-40.468
-37.874
-35.994
-32.998
-28.02
-21.044
-12.283
-2.218
8.399
18.846
28.232
35.524
40.328
42.746
43.067
41.808
39.488
36.55
33.562
31.156
29.709
29.375
30.168
31.949
34.603
38.053
42.174
46.812
51.829
57.095
62.508
67.994
73.471
78.836
83.992
88.836
93.281
97.284
100.832
103.935
106.621
108.923
110.882
112.55
113.993
115.269
116.437
117.546
118.637
119.761
120.965
122.301
123.814
125.534
127.474
129.643
132.041
134.665
137.508
140.553
143.78
147.171
150.708
154.374
158.157
162.035
165.988
169.992
174.023
178.058
182.075
186.05
189.96
193.781
197.491
201.068
204.49
207.736
210.783
213.608
216.19
218.507
220.541
222.272
223.683
224.758
225.486
225.854
225.854
225.48
224.726
223.59
222.071
220.17
217.89
215.236
212.216
208.838
205.112
201.051
196.668
191.981
187.004
181.758
176.261
170.534
164.599
158.478
152.194
145.77
139.23
132.598
125.899
119.155
112.392
105.631
98.896
92.21
85.592
79.063
72.642
66.347
60.194
54.199
48.376
42.738
37.296
32.061
27.042
22.246
17.679
13.347
9.252
5.397
1.783
-1.591
-4.727
-7.627
-10.295
-12.736
-14.957
-16.963
-18.762
-20.363
-21.774
-23.004
-24.064
-24.964
-25.714
-26.324
-26.805
-27.168
-27.422
-27.579
-27.647
-27.637
-27.557
-27.416
-27.224
-26.987
-26.714
-26.411
-26.084
-25.739
-25.382
-25.016
-24.646
-24.274
-23.904
-23.538
-23.177
-22.822
-22.474
-22.133
-21.798
-21.47
-21.148
-20.83
-20.514
-20.2
-19.885
-19.569
-19.248
-18.922
-18.588
-18.246
-17.894
-17.53
-17.154
-16.766
-16.364
-15.948
-15.518
-15.075
-14.619
-14.152
-13.674
-13.187
-12.694
-12.195
-11.696
-11.197
-10.702
-10.215
-9.74
-9.279
-8.838
-8.419
-8.028
-7.667
-7.342
-7.056
-6.813
-6.618
-6.473
-6.382
-6.348
-6.374
-6.461
-6.611
-6.826
-7.106
-7.452
-7.862
-8.337
-8.876
-9.476
-10.136
-10.852
-11.622
-12.441
-13.306
-14.211
-15.151
-16.12
-17.112
-18.12
-19.137
-20.157
-21.171
-22.173
-23.153
-24.104
-25.018
-25.886
-26.701
-27.454
-28.14
-28.75
-29.279
-29.721
-30.073
-30.329
-30.49
-30.552
-30.516
-30.38
-30.144
-29.81
-29.38
-28.856
-28.24
-27.537
-26.752
-25.892
-24.964
-23.978
-22.942
-21.866
-20.759
-19.632
-18.496
-17.361
-16.237
-15.133
-14.062
-13.035
-12.069
-11.175
-10.358
-9.62
-8.964
-8.385
-7.879
-7.437
-7.042
-6.68
-6.339
-6.006
-5.677
-5.342
-4.987
-4.597
-4.155
-3.649
-3.079
-2.448
-1.763
-1.039
-0.299
0.424
1.078
1.611
1.981
2.142
2.046
1.648
0.896
-0.258
-1.844
-3.895
-6.447
-9.52
-13.145
-17.327
-22.034
-27.249
-32.964
-39.086
-45.436
-51.733
-57.557
-62.532
-66.383
-68.776
-69.304
-67.762
-64.244
-59.192
-53.416
-47.701
-42.507
-38.311
-35.808
-35.348
-36.659
-38.878
-40.404
-39.472
-34.873
-25.362
-9.2
14.866
47.22
87.401
133.61
183.306
234.112
282.931
325.382
357.116
374.245
373.326
352.197
309.692
245.037
160.052
59.661
-51.173
-167.881
-288.5
-413.216
-537.942
-653.742
-747.277
-805.304
-823.256
-805.569
-763.554
-709.507
-650.399
-588.125
-521.664
-450.883
-378.228
-307.935
-244.585
-190.954
-147.99
-115.352
-91.552
-75.013
-64.438
-58.031
-53.976
-50.61
-46.224
-40.032
-32.13
-22.819
-12.586
-2.146
7.835
16.563
23.064
26.982
28.467
27.827
25.621
22.401
18.614
14.833
11.691
9.569
8.637
8.927
10.303
12.646
15.88
19.866
24.448
29.482
34.829
40.378
46.039
51.709
57.275
62.627
67.656
72.274
76.431
80.108
83.317
86.087
88.455
90.468
92.18
93.656
94.959
96.148
97.278
98.397
99.553
100.8
102.186
103.757
105.543
107.558
109.809
112.295
115.01
117.945
121.087
124.413
127.905
131.545
135.318
139.208
143.197
147.262
151.383
155.534
159.694
163.84
167.952
172.005
175.977
179.845
183.589
187.187
190.617
193.858
196.886
199.679
202.217
204.481
206.451
208.111
209.445
210.44
211.084
211.368
211.285
210.83
209.998
208.788
207.201
205.239
202.906
200.208
197.152
193.748
190.008
185.944
181.571
176.905
171.963
166.765
161.33
155.678
149.832
143.814
137.646
131.352
124.955
118.48
111.95
105.389
98.819
92.264
85.745
79.284
72.902
66.617
60.448
54.412
48.524
42.801
37.255
31.899
26.742
21.796
17.068
12.565
8.292
4.254
0.452
-3.112
-6.439
-9.528
-12.384
-15.01
-17.41
-19.591
-21.559
-23.322
-24.888
-26.267
-27.467
-28.5
-29.376
-30.106
-30.7
-31.17
-31.527
-31.783
-31.946
-32.03
-32.043
-31.995
-31.897
-31.756
-31.582
-31.383
-31.165
-30.935
-30.7
-30.464
-30.232
-30.008
-29.795
-29.596
-29.413
-29.247
-29.099
-28.969
-28.858
-28.764
-28.686
-28.624
-28.575
-28.538
-28.511
-28.491
-28.476
-28.464
-28.452
-28.439
-28.422
-28.4
-28.37
-28.331
-28.282
-28.222
-28.15
-28.065
-27.968
-27.859
-27.739
-27.609
-27.47
-27.323
-27.172
-27.019
-26.865
-26.715
-26.571
-26.435
-26.313
-26.206
-26.119
-26.054
-26.017
-26.009
-26.035
-26.097
-26.198
-26.342
-26.531
-26.767
-27.052
-27.388
-27.776
-28.218
-28.713
-29.262
-29.865
-30.521
-31.229
-31.987
-32.793
-33.645
-34.539
-35.472
-36.441
-37.44
-38.465
-39.511
-40.573
-41.645
-42.723
-43.8
-44.871
-45.928
-46.967
-47.982
-48.965
-49.912
-50.816
-51.672
-52.475
-53.219
-53.9
-54.513
-55.054
-55.519
-55.904
-56.208
-56.427
-56.56
-56.607
-56.566
-56.44
-56.229
-55.937
-55.564
-55.117
-54.6
-54.017
-53.375
-52.681
-51.942
-51.163
-50.354
-49.521
-48.672
-47.814
-46.955
-46.103
-45.268
-44.455
-43.673
-42.931
-42.235
-41.592
-41.007
-40.482
-40.019
-39.62
-39.288
-39.027
-38.838
-38.719
-38.668
-38.682
-38.755
-38.879
-39.038
-39.206
-39.363
-39.488
-39.567
-39.592
-39.552
-39.431
-39.214
-38.883
-38.423
-37.835
-37.109
-36.236
-35.225
-34.089
-32.871
-31.651
-30.493
-29.456
-28.59
-27.918
-27.489
-27.374
-27.635
-28.341
-29.549
-31.274
-33.576
-36.569
-40.256
-44.53
-49.147
-53.677
-57.751
-61.15
-63.587
-64.681
-64.2
-62.166
-58.944
-55.324
-52.056
-49.47
-47.873
-47.8
-49.531
-52.875
-57.117
-60.693
-61.812
-59.464
-52.637
-39.53
-18.857
9.969
47.169
90.258
136.072
183.843
231.059
275.756
316.457
345.989
358.437
348.385
310.123
245.884
160.158
59.773
-48.018
-161.816
-281.109
-406.606
-533.283
-648.411
-740.341
-797.612
-818.162
-810.523
-782.14
-741.275
-692.596
-634.557
-568.222
-496.173
-421.258
-348.506
-282.04
-224.134
-176.147
-138.473
-110.383
-90.476
-77.722
-70.82
-67.731
-66.662
-65.815
-63.428
-58.966
-52.644
-44.556
-35.155
-25.229
-15.423
-6.67
0.057
4.518
6.856
7.341
6.479
4.741
2.514
0.332
-1.29
-2.097
-1.992
-1.05
0.545
2.677
5.244
8.129
11.219
14.413
17.641
20.869
24.071
27.217
30.268
33.169
35.886
38.413
40.757
42.991
45.185
47.387
49.655
52.032
54.542
57.218
60.067
63.063
66.19
69.442
72.811
76.32
79.972
83.753
87.647
91.608
95.594
99.582
103.547
107.464
111.326
115.128
118.883
122.636
126.414
130.23
134.089
137.977
141.885
145.811
149.747
153.688
157.623
161.538
165.418
169.25
173.014
176.682
180.217
183.568
186.695
189.566
192.153
194.436
196.396
198.014
199.277
200.177
200.709
200.866
200.643
200.031
199.03
197.642
195.874
193.734
191.234
188.383
185.193
181.677
177.848
173.722
169.312
164.633
159.701
154.535
149.156
143.585
137.845
131.959
125.949
119.841
113.658
107.425
101.164
94.898
88.65
82.44
76.29
70.221
64.25
58.397
52.678
47.109
41.705
36.48
31.445
26.612
21.991
17.589
13.413
9.47
5.764
2.297
-0.929
-3.913
-6.656
-9.159
-11.426
-13.463
-15.273
-16.864
-18.243
-19.419
-20.401
-21.199
-21.824
-22.285
-22.595
-22.763
-22.802
-22.723
-22.538
-22.257
-21.893
-21.455
-20.956
-20.405
-19.812
-19.188
-18.541
-17.88
-17.212
-16.546
-15.889
-15.245
-14.622
-14.024
-13.455
-12.919
-12.419
-11.957
-11.535
-11.154
-10.815
-10.516
-10.258
-10.039
-9.859
-9.714
-9.603
-9.523
-9.471
-9.446
-9.442
-9.458
-9.49
-9.535
-9.589
-9.65
-9.714
-9.778
-9.839
-9.894
-9.942
-9.98
-10.005
-10.016
-10.012
-9.991
-9.953
-9.896
-9.822
-9.729
-9.619
-9.493
-9.351
-9.194
-9.025
-8.844
-8.656
-8.461
-8.262
-8.062
-7.863
-7.67
-7.483
-7.308
-7.146
-7.001
-6.876
-6.774
-6.698
-6.65
-6.634
-6.652
-6.707
-6.8
-6.933
-7.109
-7.328
-7.591
-7.897
-8.247
-8.641
-9.076
-9.551
-10.065
-10.615
-11.198
-11.812
-12.453
-13.117
-13.801
-14.498
-15.206
-15.917
-16.628
-17.332
-18.024
-18.698
-19.348
-19.968
-20.553
-21.095
-21.588
-22.027
-22.405
-22.716
-22.955
-23.117
-23.199
-23.197
-23.107
-22.93
-22.664
-22.31
-21.869
-21.344
-20.735
-20.046
-19.282
-18.446
-17.544
-16.58
-15.561
-14.494
-13.387
-12.25
-11.093
-9.924
-8.752
-7.589
-6.443
-5.325
-4.246
-3.212
-2.234
-1.321
-0.481
0.269
0.923
1.477
1.931
2.288
2.552
2.728
2.829
2.872
2.874
2.85
2.816
2.774
2.737
2.716
2.722
2.779
2.899
3.082
3.33
3.636
3.981
4.355
4.728
5.045
5.26
5.323
5.176
4.795
4.147
3.195
1.926
0.296
-1.742
-4.21
-7.142
-10.554
-14.415
-18.743
-23.567
-28.788
-34.231
-39.621
-44.544
-48.691
-51.861
-53.769
-54.06
-52.542
-49.297
-44.749
-39.674
-34.787
-30.475
-27.126
-25.347
-25.47
-27.273
-29.99
-32.144
-32.089
-28.74
-20.946
-7.054
14.058
42.783
78.786
120.408
165.452
211.939
256.971
296.419
326.389
343.262
343.774
325.955
288.427
230.037
152.449
60.428
-42.329
-152.213
-266.626
-385.844
-503.606
-608.822
-691.823
-741.932
-757.693
-747.129
-716.958
-675.226
-626.653
-570.011
-506.459
-438.26
-367.922
-300.338
-239.499
-187.532
-145.567
-113.34
-89.619
-73.009
-62.445
-56.455
-53.015
-50.256
-46.441
-40.609
-32.876
-23.645
-13.266
-2.333
8.383
18.026
25.59
30.611
33.241
33.8
32.771
30.656
27.88
24.979
22.553
20.967
20.39
20.862
22.268
24.514
27.536
31.214
35.421
40.04
44.951
50.063
55.298
60.565
65.778
70.848
75.685
80.219
84.387
88.156
91.528
94.522
97.167
99.504
101.575
103.429
105.128
106.73
108.285
109.841
111.438
113.117
114.922
116.892
119.061
121.452
124.073
126.926
130.01
133.316
136.833
140.547
144.433
148.473
152.646
156.936
161.323
165.789
170.309
174.858
179.413
183.949
188.443
192.869
197.204
201.424
205.504
209.421
213.155
216.683
219.983
223.031
225.808
228.292
230.465
232.311
233.812
234.954
235.726
236.118
236.123
235.734
234.949
233.765
232.183
230.204
227.834
225.079
221.946
218.444
214.587
210.386
205.858
201.018
195.884
190.476
184.814
178.919
172.813
166.52
160.062
153.464
146.749
139.942
133.068
126.149
119.212
112.278
105.371
98.514
91.727
85.031
78.446
71.991
65.681
59.535
53.566
47.789
42.215
36.855
31.72
26.818
22.154
17.735
13.564
9.645
5.977
2.561
-0.604
-3.522
-6.196
-8.63
-10.832
-12.806
-14.562
-16.108
-17.452
-18.604
-19.576
-20.376
-21.017
-21.51
-21.866
-22.096
-22.213
-22.228
-22.151
-21.995
-21.771
-21.487
-21.156
-20.787
-20.388
-19.968
-19.536
-19.098
-18.662
-18.233
-17.818
-17.419
-17.042
-16.691
-16.367
-16.074
-15.813
-15.585
-15.392
-15.233
-15.108
-15.018
-14.962
-14.939
-14.946
-14.985
-15.051
-15.145
-15.264
-15.406
-15.57
-15.753
-15.954
-16.171
-16.403
-16.648
-16.905
-17.173
-17.452
-17.741
-18.039
-18.347
-18.664
-18.992
-19.332
-19.683
-20.048
-20.427
-20.823
-21.237
-21.67
-22.124
-22.601
-23.102
-23.628
-24.181
-24.762
-25.372
-26.012
-26.682
-27.382
-28.112
-28.873
-29.663
-30.48
-31.325
-32.194
-33.085
-33.997
-34.924
-35.864
-36.815
-37.773
-38.733
-39.692
-40.645
-41.587
-42.515
-43.423
-44.304
-45.15
-45.956
-46.713
-47.418
-48.064
-48.645
-49.156
-49.592
-49.95
-50.23
-50.427
-50.537
-50.555
-50.476
-50.301
-50.038
-49.694
-49.272
-48.781
-48.225
-47.615
-46.965
-46.282
-45.56
-44.799
-43.993
-43.146
-42.275
-41.392
-40.512
-39.639
-38.767
-37.896
-37.032
-36.174
-35.317
-34.451
-33.56
-32.649
-31.748
-30.882
-30.073
-29.331
-28.645
-28.005
-27.4
-26.824
-26.278
-25.762
-25.265
-24.794
-24.361
-23.982
-23.68
-23.449
-23.253
-23.065
-22.865
-22.644
-22.42
-22.216
-22.07
-22.024
-22.129
-22.432
-22.972
-23.778
-24.848
-26.196
-27.841
-29.817
-32.189
-35.004
-38.285
-42.067
-46.406
-51.264
-56.487
-61.824
-66.886
-71.329
-74.928
-77.414
-78.441
-77.828
-75.662
-72.322
-68.53
-64.97
-61.994
-59.941
-59.335
-60.435
-63.011
-66.303
-68.846
-69.018
-65.723
-57.875
-43.986
-22.972
5.592
41.401
82.831
127.598
173.637
218.268
257.774
288.454
306.686
309.271
294.513
261.475
209.484
139.311
53.369
-44.993
-151.155
-259.984
-366.92
-467.133
-555.698
-628.74
-683.357
-717.79
-732.076
-727.064
-703.966
-665.202
-613.906
-553.489
-487.9
-420.735
-354.672
-292.362
-236.186
-187.716
-148.103
-117.547
-95.096
-79.63
-70.064
-64.826
-62.34
-61.034
-59.201
-55.967
-51.275
-45.225
-38.137
-30.576
-23.051
-16.287
-11.202
-8.143
-7.027
-7.616
-9.443
-12.048
-15.055
-17.951
-20.158
-21.363
-21.443
-20.4
-18.391
-15.533
-11.908
-7.657
-2.941
2.099
7.339
12.683
18.068
23.405
28.595
33.539
38.139
42.34
46.121
49.481
52.446
55.044
57.311
59.298
61.062
62.659
64.143
65.56
66.95
68.358
69.831
71.415
73.159
75.092
77.233
79.591
82.166
84.955
87.952
91.143
94.508
98.03
101.694
105.483
109.386
113.384
117.457
121.584
125.743
129.911
134.068
138.191
142.258
146.248
150.139
153.91
157.541
161.012
164.301
167.385
170.243
172.853
175.198
177.256
179.011
180.446
181.547
182.301
182.698
182.73
182.388
181.669
180.568
179.085
177.22
174.977
172.359
169.373
166.028
162.334
158.303
153.949
149.287
144.335
139.111
133.635
127.928
122.012
115.91
109.645
103.242
96.725
90.12
83.451
76.745
70.025
63.317
56.646
50.033
43.503
37.077
30.775
24.618
18.624
12.811
7.193
1.786
-3.397
-8.344
-13.045
-17.492
-21.678
-25.597
-29.245
-32.62
-35.721
-38.55
-41.108
-43.399
-45.428
-47.201
-48.726
-50.011
-51.066
-51.901
-52.527
-52.956
-53.2
-53.273
-53.187
-52.955
-52.591
-52.109
-51.522
-50.842
-50.084
-49.258
-48.377
-47.452
-46.494
-45.514
-44.52
-43.522
-42.528
-41.545
-40.578
-39.635
-38.72
-37.836
-36.987
-36.176
-35.404
-34.672
-33.98
-33.328
-32.715
-32.139
-31.599
-31.093
-30.618
-30.17
-29.747
-29.345
-28.962
-28.592
-28.234
-27.884
-27.538
-27.195
-26.85
-26.503
-26.15
-25.791
-25.424
-25.048
-24.663
-24.269
-23.865
-23.451
-23.029
-22.599
-22.162
-21.721
-21.276
-20.832
-20.389
-19.951
-19.521
-19.102
-18.697
-18.309
-17.941
-17.596
-17.277
-16.988
-16.73
-16.506
-16.318
-16.168
-16.057
-15.986
-15.956
-15.965
-16.014
-16.1
-16.221
-16.374
-16.556
-16.765
-16.997
-17.249
-17.518
-17.802
-18.096
-18.399
-18.705
-19.01
-19.307
-19.589
-19.848
-20.076
-20.265
-20.41
-20.504
-20.541
-20.517
-20.43
-20.277
-20.054
-19.755
-19.373
-18.9
-18.339
-17.693
-16.97
-16.184
-15.348
-14.474
-13.58
-12.681
-11.782
-10.888
-9.989
-9.074
-8.14
-7.191
-6.242
-5.306
-4.384
-3.472
-2.563
-1.638
-0.684
0.315
1.391
2.564
3.838
5.204
6.625
8.054
9.465
10.846
12.201
13.535
14.838
16.091
17.28
18.38
19.37
20.222
20.886
21.321
21.514
21.467
21.222
20.83
20.315
19.683
18.923
18.017
16.966
15.768
14.403
12.859
11.127
9.21
7.151
4.973
2.667
0.211
-2.454
-5.382
-8.585
-12.087
-15.934
-20.103
-24.495
-28.9
-32.976
-36.404
-38.969
-40.417
-40.424
-38.797
-35.609
-31.253
-26.469
-22.013
-18.331
-15.818
-15.086
-16.507
-19.892
-24.488
-28.778
-30.967
-29.816
-24.174
-12.397
6.834
34.126
69.344
110.92
156.46
203.87
250.532
292.634
326.162
347.209
352.414
339.797
308.101
256.446
185.089
96.958
-2.702
-109.367
-219.081
-329.565
-440.607
-546.342
-637.328
-705.17
-740.669
-743.567
-721.685
-681.788
-632.467
-578.243
-517.932
-452.85
-384.751
-315.978
-251.484
-194.608
-146.717
-108.757
-80.279
-59.954
-46.727
-39.356
-35.963
-34.828
-34.37
-32.963
-29.88
-25.166
-18.96
-11.664
-3.993
3.448
9.913
14.531
17.044
17.595
16.46
14.133
11.112
7.802
4.719
2.414
1.164
1.065
2.094
4.09
6.934
10.534
14.745
19.405
24.373
29.522
34.755
39.998
45.161
50.142
54.847
59.185
63.11
66.606
69.678
72.355
74.669
76.663
78.389
79.906
81.272
82.544
83.77
84.995
86.264
87.623
89.119
90.795
92.677
94.78
97.112
99.67
102.449
105.441
108.631
112
115.529
119.202
123.004
126.919
130.93
135.018
139.16
143.335
147.522
151.7
155.848
159.945
163.97
167.902
171.72
175.406
178.937
182.293
185.453
188.395
191.1
193.548
195.722
197.605
199.182
200.438
201.363
201.947
202.182
202.061
201.58
200.736
199.527
197.954
196.02
193.728
191.085
188.096
184.771
181.121
177.157
172.893
168.342
163.522
158.448
153.14
147.616
141.896
136.001
129.952
123.771
117.48
111.101
104.657
98.17
91.663
85.157
78.673
72.233
65.856
59.562
53.369
47.294
41.355
35.567
29.944
24.499
19.246
14.195
9.357
4.74
0.351
-3.802
-7.715
-11.385
-14.808
-17.984
-20.912
-23.594
-26.031
-28.228
-30.19
-31.921
-33.429
-34.72
-35.805
-36.69
-37.387
-37.906
-38.257
-38.452
-38.502
-38.418
-38.213
-37.898
-37.484
-36.984
-36.408
-35.767
-35.073
-34.336
-33.566
-32.772
-31.964
-31.15
-30.338
-29.536
-28.751
-27.99
-27.256
-26.557
-25.895
-25.275
-24.7
-24.171
-23.692
-23.261
-22.881
-22.551
-22.27
-22.036
-21.85
-21.708
-21.608
-21.548
-21.525
-21.536
-21.579
-21.649
-21.745
-21.863
-22
-22.154
-22.321
-22.499
-22.686
-22.878
-23.074
-23.272
-23.47
-23.666
-23.859
-24.049
-24.233
-24.412
-24.587
-24.756
-24.92
-25.081
-25.24
-25.396
-25.554
-25.713
-25.877
-26.048
-26.227
-26.417
-26.622
-26.842
-27.08
-27.338
-27.618
-27.921
-28.249
-28.601
-28.981
-29.387
-29.82
-30.28
-30.768
-31.283
-31.824
-32.39
-32.98
-33.592
-34.224
-34.873
-35.537
-36.213
-36.898
-37.587
-38.277
-38.964
-39.642
-40.308
-40.956
-41.58
-42.176
-42.737
-43.26
-43.74
-44.173
-44.554
-44.882
-45.154
-45.369
-45.526
-45.625
-45.665
-45.647
-45.571
-45.439
-45.253
-45.013
-44.722
-44.383
-44.002
-43.582
-43.13
-42.649
-42.146
-41.625
-41.094
-40.561
-40.029
-39.504
-38.991
-38.493
-38.02
-37.581
-37.182
-36.821
-36.498
-36.211
-35.956
-35.729
-35.518
-35.303
-35.067
-34.793
-34.469
-34.091
-33.651
-33.139
-32.543
-31.847
-31.045
-30.142
-29.143
-28.053
-26.886
-25.656
-24.4
-23.178
-22.049
-21.079
-20.32
-19.811
-19.592
-19.694
-20.154
-21.025
-22.345
-24.147
-26.455
-29.277
-32.64
-36.604
-41.128
-46.043
-51.077
-55.832
-59.945
-63.177
-65.229
-65.708
-64.384
-61.323
-56.944
-52.041
-47.407
-43.484
-40.677
-39.603
-40.616
-43.512
-47.494
-50.97
-52.114
-49.68
-42.473
-28.812
-7.43
22.199
59.823
103.731
151.469
200.897
249.214
292.37
326.342
347.309
351.812
337.865
304.199
249.607
175.337
85.467
-15.71
-123.956
-237.469
-356.73
-478.465
-594.297
-691.511
-757.298
-785.829
-780.374
-751.157
-708.705
-659.582
-605.703
-545.284
-478.197
-407.035
-335.471
-268.457
-209.524
-159.981
-120.49
-90.662
-69.241
-55.096
-46.9
-42.686
-40.646
-39.143
-36.555
-32.172
-26.05
-18.371
-9.596
-0.498
8.259
15.893
21.539
24.955
26.308
25.897
24.242
21.867
19.208
16.803
15.212
14.709
15.39
17.228
20.063
23.774
28.268
33.396
38.997
44.925
51.051
57.272
63.51
69.663
75.622
81.283
86.545
91.354
95.689
99.55
102.963
105.959
108.575
110.863
112.883
114.692
116.348
117.899
119.39
120.87
122.388
123.993
125.732
127.638
129.726
132.006
134.479
137.142
139.988
143.006
146.176
149.483
152.914
156.454
160.093
163.815
167.602
171.437
175.299
179.171
183.033
186.869
190.659
194.385
198.029
201.573
205.001
208.295
211.435
214.403
217.179
219.745
222.084
224.178
226.012
227.571
228.843
229.815
230.479
230.826
230.849
230.543
229.903
228.929
227.618
225.972
223.992
221.683
219.049
216.097
212.836
209.274
205.422
201.293
196.9
192.256
187.378
182.281
176.983
171.501
165.854
160.061
154.141
148.114
142
135.819
129.591
123.336
117.073
110.821
104.6
98.426
92.317
86.291
80.362
74.547
68.86
63.314
57.923
52.698
47.649
42.788
38.122
33.66
29.407
25.369
21.551
17.955
14.583
11.437
8.516
5.819
3.343
1.085
-0.959
-2.795
-4.428
-5.866
-7.116
-8.186
-9.085
-9.822
-10.407
-10.849
-11.159
-11.347
-11.424
-11.4
-11.286
-11.094
-10.832
-10.512
-10.145
-9.739
-9.304
-8.851
-8.387
-7.921
-7.46
-7.013
-6.586
-6.186
-5.816
-5.484
-5.192
-4.945
-4.746
-4.597
-4.499
-4.454
-4.464
-4.527
-4.645
-4.816
-5.039
-5.313
-5.636
-6.006
-6.42
-6.876
-7.371
-7.901
-8.464
-9.056
-9.673
-10.313
-10.972
-11.646
-12.332
-13.026
-13.726
-14.429
-15.13
-15.829
-16.523
-17.21
-17.888
-18.557
-19.215
-19.862
-20.497
-21.12
-21.731
-22.331
-22.919
-23.496
-24.063
-24.621
-25.171
-25.715
-26.255
-26.792
-27.33
-27.869
-28.412
-28.96
-29.517
-30.083
-30.662
-31.254
-31.864
-32.491
-33.138
-33.806
-34.497
-35.21
-35.946
-36.705
-37.485
-38.285
-39.104
-39.938
-40.785
-41.643
-42.509
-43.382
-44.259
-45.137
-46.015
-46.89
-47.759
-48.617
-49.46
-50.281
-51.071
-51.825
-52.537
-53.2
-53.809
-54.36
-54.847
-55.269
-55.623
-55.905
-56.109
-56.226
-56.251
-56.184
-56.029
-55.794
-55.492
-55.136
-54.737
-54.314
-53.879
-53.438
-52.993
-52.53
-52.039
-51.516
-50.963
-50.393
-49.819
-49.239
-48.65
-48.046
-47.404
-46.71
-45.944
-45.068
-44.065
-42.936
-41.688
-40.36
-39.001
-37.637
-36.286
-34.951
-33.623
-32.309
-31.021
-29.762
-28.562
-27.443
-26.433
-25.589
-24.94
-24.491
-24.241
-24.148
-24.154
-24.231
-24.36
-24.534
-24.788
-25.139
-25.603
-26.227
-27.026
-28.018
-29.212
-30.578
-32.108
-33.836
-35.793
-38.044
-40.667
-43.683
-47.142
-51.12
-55.561
-60.32
-65.148
-69.629
-73.407
-76.251
-77.862
-77.875
-76.117
-72.698
-68.072
-63.071
-58.478
-54.731
-52.266
-51.726
-53.417
-57.029
-61.66
-65.636
-67.112
-64.833
-57.461
-43.159
-20.687
10.365
49.573
95.092
144.467
195.47
244.927
288.363
321.567
340.673
342.212
324.091
284.949
223.676
141.989
44.89
-63.715
-180.025
-301.082
-426.865
-550.81
-661.388
-748.369
-800.606
-816.365
-803.618
-769.521
-722.665
-667.991
-604.451
-533.616
-458.085
-380.953
-307.85
-242.782
-187.823
-144.272
-111.784
-89.004
-74.47
-66.681
-63.628
-63.261
-63.611
-62.702
-59.536
-54.093
-46.653
-37.701
-28.001
-18.307
-9.536
-2.784
1.492
3.392
3.212
1.49
-1.237
-4.517
-7.777
-10.374
-11.931
-12.298
-11.471
-9.603
-6.825
-3.221
1.068
5.881
11.077
16.522
22.111
27.769
33.412
38.938
44.251
49.257
53.875
58.071
61.835
65.18
68.137
70.741
73.035
75.072
76.913
78.617
80.24
81.829
83.428
85.081
86.834
88.732
90.814
93.106
95.617
98.352
101.309
104.482
107.86
111.43
115.169
119.06
123.084
127.227
131.472
135.801
140.192
144.624
149.074
153.52
157.941
162.317
166.624
170.841
174.946
178.921
182.744
186.396
189.855
193.1
196.112
198.871
201.359
203.558
205.454
207.031
208.278
209.184
209.741
209.943
209.783
209.26
208.37
207.116
205.497
203.519
201.186
198.505
195.484
192.134
188.465
184.491
180.227
175.686
170.886
165.844
160.578
155.107
149.451
143.63
137.665
131.576
125.384
119.111
112.778
106.406
100.015
93.625
87.256
80.927
74.656
68.46
62.356
56.36
50.485
44.747
39.159
33.731
28.476
23.403
18.522
13.839
9.362
5.097
1.047
-2.782
-6.39
-9.773
-12.931
-15.865
-18.576
-21.065
-23.336
-25.393
-27.239
-28.88
-30.323
-31.572
-32.637
-33.523
-34.238
-34.792
-35.191
-35.446
-35.564
-35.555
-35.427
-35.191
-34.854
-34.427
-33.917
-33.334
-32.688
-31.985
-31.235
-30.446
-29.626
-28.782
-27.922
-27.053
-26.182
-25.316
-24.461
-23.623
-22.806
-22.017
-21.26
-20.539
-19.857
-19.219
-18.626
-18.081
-17.587
-17.144
-16.755
-16.419
-16.137
-15.909
-15.736
-15.617
-15.55
-15.535
-15.57
-15.653
-15.782
-15.955
-16.17
-16.424
-16.713
-17.036
-17.388
-17.766
-18.166
-18.586
-19.019
-19.464
-19.916
-20.37
-20.824
-21.274
-21.717
-22.15
-22.57
-22.974
-23.361
-23.729
-24.075
-24.4
-24.7
-24.976
-25.227
-25.452
-25.651
-25.826
-25.977
-26.104
-26.21
-26.296
-26.363
-26.416
-26.455
-26.483
-26.503
-26.518
-26.532
-26.547
-26.568
-26.598
-26.64
-26.698
-26.774
-26.872
-26.991
-27.135
-27.305
-27.5
-27.721
-27.968
-28.239
-28.533
-28.851
-29.192
-29.554
-29.936
-30.335
-30.75
-31.178
-31.615
-32.056
-32.491
-32.916
-33.323
-33.707
-34.062
-34.381
-34.658
-34.888
-35.067
-35.192
-35.256
-35.252
-35.168
-34.998
-34.744
-34.409
-34.002
-33.534
-33.009
-32.437
-31.836
-31.212
-30.571
-29.907
-29.203
-28.452
-27.655
-26.82
-25.966
-25.103
-24.226
-23.333
-22.413
-21.456
-20.455
-19.392
-18.232
-16.97
-15.611
-14.179
-12.729
-11.295
-9.891
-8.529
-7.197
-5.889
-4.615
-3.377
-2.178
-1.04
0.026
0.988
1.792
2.425
2.893
3.214
3.448
3.63
3.767
3.872
3.928
3.894
3.74
3.416
2.87
2.085
1.045
-0.248
-1.78
-3.582
-5.703
-8.19
-11.115
-14.514
-18.424
-22.936
-28.034
-33.551
-39.226
-44.663
-49.491
-53.509
-56.47
-58
-57.9
-56.238
-53.388
-50.115
-47.135
-44.767
-43.273
-43.126
-44.592
-47.475
-51.055
-53.836
-54.115
-50.777
-42.926
-29.227
-8.386
20.236
56.524
99.279
145.459
192.364
238.614
280.719
316.776
345.28
359.562
355.334
328.205
272.758
193.301
96.621
-11.253
-122.716
-237.908
-359.391
-483.676
-603.168
-704.022
-772.011
-801.939
-797.527
-769.298
-728.267
-680.575
-627.674
-567.907
-501.15
-430.066
-358.326
-290.606
-230.316
-178.865
-137.134
-104.989
-81.371
-65.311
-55.684
-50.693
-48.611
-47.704
-46.095
-42.859
-37.896
-31.259
-23.308
-14.708
-6.057
1.803
7.849
11.7
13.42
13.249
11.686
9.215
6.244
3.322
1.057
-0.2
-0.301
0.752
2.807
5.741
9.462
13.828
18.677
23.861
29.254
34.755
40.292
45.786
51.142
56.27
61.083
65.51
69.514
73.092
76.259
79.046
81.492
83.64
85.543
87.263
88.856
90.377
91.873
93.384
94.953
96.625
98.442
100.445
102.657
105.089
107.746
110.624
113.718
117.019
120.512
124.175
127.991
131.942
136.013
140.188
144.45
148.778
153.15
157.544
161.939
166.313
170.647
174.917
179.102
183.182
187.137
190.947
194.591
198.05
201.301
204.325
207.103
209.615
211.846
213.778
215.396
216.689
217.645
218.255
218.512
218.41
217.945
217.114
215.917
214.356
212.433
210.152
207.52
204.545
201.235
197.603
193.659
189.419
184.896
180.107
175.069
169.801
164.322
158.65
152.808
146.816
140.695
134.467
128.153
121.777
115.359
108.921
102.484
96.07
89.697
83.386
77.156
71.023
65.004
59.117
53.375
47.792
42.382
37.155
32.124
27.296
22.68
18.283
14.11
10.166
6.455
2.977
-0.266
-3.274
-6.049
-8.594
-10.911
-13.006
-14.884
-16.55
-18.013
-19.278
-20.356
-21.254
-21.983
-22.55
-22.968
-23.245
-23.391
-23.419
-23.336
-23.154
-22.883
-22.533
-22.113
-21.633
-21.101
-20.527
-19.919
-19.283
-18.628
-17.96
-17.286
-16.611
-15.941
-15.28
-14.632
-14.002
-13.392
-12.805
-12.244
-11.711
-11.206
-10.732
-10.289
-9.878
-9.498
-9.15
-8.832
-8.546
-8.289
-8.062
-7.863
-7.691
-7.545
-7.425
-7.329
-7.256
-7.205
-7.175
-7.166
-7.176
-7.205
-7.252
-7.316
-7.398
-7.497
-7.612
-7.744
-7.892
-8.056
-8.237
-8.434
-8.648
-8.878
-9.126
-9.391
-9.674
-9.974
-10.293
-10.63
-10.985
-11.36
-11.753
-12.166
-12.597
-13.048
-13.518
-14.008
-14.517
-15.044
-15.591
-16.156
-16.74
-17.341
-17.96
-18.596
-19.248
-19.916
-20.6
-21.297
-22.007
-22.728
-23.46
-24.2
-24.946
-25.696
-26.448
-27.2
-27.949
-28.693
-29.43
-30.156
-30.869
-31.567
-32.245
-32.902
-33.533
-34.136
-34.707
-35.242
-35.739
-36.194
-36.603
-36.964
-37.272
-37.524
-37.717
-37.846
-37.91
-37.904
-37.827
-37.676
-37.449
-37.147
-36.768
-36.313
-35.786
-35.187
-34.518
-33.784
-32.987
-32.13
-31.219
-30.256
-29.247
-28.196
-27.109
-25.995
-24.861
-23.715
-22.566
-21.422
-20.291
-19.18
-18.1
-17.057
-16.057
-15.109
-14.221
-13.402
-12.664
-12.014
-11.455
-10.985
-10.601
-10.298
-10.068
-9.899
-9.77
-9.668
-9.576
-9.484
-9.382
-9.259
-9.1
-8.89
-8.609
-8.246
-7.802
-7.277
-6.678
-6.023
-5.329
-4.633
-3.987
-3.438
-3.029
-2.808
-2.821
-3.117
-3.751
-4.765
-6.188
-8.049
-10.375
-13.191
-16.521
-20.37
-24.708
-29.512
-34.782
-40.41
-46.209
-51.89
-57.003
-61.146
-64.051
-65.355
-64.643
-61.873
-57.223
-51.173
-44.776
-38.837
-33.821
-30.491
-29.478
-30.698
-33.748
-37.519
-39.87
-39.181
-34.139
-22.802
-3.737
23.618
59.362
102.184
149.448
198.796
247.282
290.586
324.617
345.525
349.664
334.864
299.787
243.23
166.604
74.241
-29.402
-139.884
-255.475
-376.795
-500.037
-616.393
-712.714
-775.639
-799.95
-789.739
-755.569
-708.555
-655.627
-598.675
-536.239
-468.471
-397.581
-327.008
-261.72
-205.021
-157.984
-121.107
-93.56
-73.714
-60.688
-53.316
-49.603
-47.862
-46.438
-43.712
-39.211
-33.159
-25.652
-17.108
-8.288
0.193
7.493
12.734
15.745
16.729
15.99
14.048
11.407
8.488
5.835
3.992
3.218
3.596
5.081
7.503
10.742
14.698
19.231
24.184
29.419
34.813
40.265
45.7
51.024
56.136
60.937
65.334
69.277
72.748
75.757
78.336
80.519
82.35
83.883
85.178
86.298
87.3
88.237
89.154
90.1
91.126
92.28
93.611
95.15
96.913
98.912
101.145
103.61
106.301
109.206
112.305
115.582
119.022
122.61
126.332
130.173
134.112
138.128
142.199
146.303
150.42
154.528
158.605
162.629
166.577
170.43
174.165
177.761
181.196
184.446
187.489
190.304
192.869
195.166
197.175
198.879
200.264
201.315
202.022
202.375
202.365
201.986
201.235
200.108
198.606
196.729
194.48
191.865
188.89
185.563
181.896
177.899
173.586
168.972
164.072
158.906
153.49
147.845
141.99
135.948
129.739
123.387
116.913
110.341
103.692
96.991
90.26
83.522
76.797
70.107
63.473
56.915
50.451
44.1
37.878
31.802
25.886
20.144
14.589
9.232
4.083
-0.849
-5.557
-10.035
-14.277
-18.28
-22.043
-25.564
-28.843
-31.883
-34.684
-37.251
-39.588
-41.7
-43.595
-45.277
-46.757
-48.04
-49.138
-50.058
-50.811
-51.407
-51.855
-52.166
-52.352
-52.421
-52.385
-52.254
-52.037
-51.745
-51.387
-50.972
-50.508
-50.005
-49.468
-48.906
-48.325
-47.73
-47.127
-46.52
-45.915
-45.313
-44.719
-44.135
-43.564
-43.006
-42.464
-41.937
-41.428
-40.936
-40.461
-40.003
-39.561
-39.135
-38.724
-38.328
-37.945
-37.575
-37.216
-36.867
-36.529
-36.199
-35.878
-35.565
-35.259
-34.961
-34.671
-34.389
-34.115
-33.851
-33.598
-33.357
-33.129
-32.916
-32.72
-32.542
-32.386
-32.252
-32.143
-32.061
-32.008
-31.986
-31.997
-32.042
-32.124
-32.243
-32.401
-32.598
-32.836
-33.115
-33.436
-33.797
-34.199
-34.64
-35.119
-35.635
-36.185
-36.767
-37.378
-38.015
-38.674
-39.352
-40.044
-40.747
-41.456
-42.165
-42.869
-43.564
-44.243
-44.901
-45.531
-46.128
-46.687
-47.202
-47.666
-48.076
-48.425
-48.709
-48.922
-49.061
-49.122
-49.1
-48.995
-48.802
-48.522
-48.154
-47.699
-47.158
-46.533
-45.828
-45.047
-44.192
-43.269
-42.283
-41.24
-40.145
-39.004
-37.825
-36.616
-35.385
-34.142
-32.897
-31.659
-30.436
-29.239
-28.077
-26.961
-25.9
-24.898
-23.962
-23.1
-22.32
-21.631
-21.038
-20.542
-20.138
-19.825
-19.595
-19.445
-19.36
-19.32
-19.307
-19.305
-19.299
-19.288
-19.26
-19.206
-19.112
-18.961
-18.747
-18.471
-18.139
-17.755
-17.328
-16.869
-16.411
-16.007
-15.709
-15.572
-15.638
-15.935
-16.497
-17.346
-18.513
-20.044
-21.969
-24.313
-27.096
-30.323
-34.02
-38.242
-42.948
-47.975
-53.066
-57.836
-61.931
-65.109
-67.075
-67.448
-66.018
-62.878
-58.463
-53.59
-49.108
-45.534
-43.363
-43.276
-45.617
-50.125
-55.94
-61.414
-64.626
-64.181
-58.653
-46.176
-25.496
3.78
41.21
84.937
132.423
181.325
228.453
269.452
300.281
317.328
317.464
298.985
260.9
202.438
125.439
34.617
-66.249
-173.388
-284.02
-398.084
-509.768
-609.108
-687.467
-735.335
-751.517
-743.344
-716.937
-679.498
-635.273
-583.116
-524.032
-460.228
-394.019
-329.543
-270.283
-218.127
-174.179
-138.864
-111.667
-91.514
-77.713
-69.305
-64.655
-62.334
-60.837
-58.599
-55.084
-50.38
-44.457
-37.607
-30.422
-23.379
-17.24
-12.864
-10.458
-9.878
-10.871
-12.969
-15.719
-18.752
-21.563
-23.616
-24.647
-24.562
-23.397
-21.313
-18.428
-14.832
-10.656
-6.048
-1.141
3.948
9.122
14.315
19.44
24.404
29.114
33.482
37.458
41.025
44.195
46.997
49.464
51.637
53.563
55.299
56.901
58.42
59.904
61.392
62.926
64.55
66.307
68.242
70.38
72.735
75.314
78.112
81.125
84.343
87.752
91.33
95.061
98.925
102.907
106.993
111.165
115.403
119.684
123.986
128.289
132.57
136.809
140.984
145.075
149.059
152.918
156.632
160.182
163.547
166.706
169.64
172.329
174.757
176.905
178.758
180.302
181.524
182.414
182.964
183.166
183.016
182.509
181.643
180.42
178.839
176.906
174.625
172.003
169.048
165.771
162.182
158.296
154.126
149.688
145
140.078
134.943
129.614
124.111
118.456
112.67
106.775
100.792
94.745
88.655
82.544
76.434
70.347
64.304
58.324
52.428
46.635
40.961
35.426
30.043
24.829
19.796
14.958
10.326
5.91
1.718
-2.242
-5.965
-9.444
-12.677
-15.661
-18.397
-20.883
-23.123
-25.118
-26.872
-28.392
-29.682
-30.749
-31.6
-32.244
-32.689
-32.945
-33.022
-32.93
-32.681
-32.285
-31.755
-31.101
-30.336
-29.471
-28.517
-27.485
-26.384
-25.222
-24.007
-22.747
-21.449
-20.12
-18.764
-17.389
-16
-14.604
-13.206
-11.81
-10.416
-9.026
-7.639
-6.257
-4.88
-3.51
-2.145
-0.784
0.575
1.93
3.281
4.633
5.996
7.385
8.812
10.282
11.794
13.345
14.931
16.551
18.198
19.854
21.494
23.096
24.642
26.125
27.534
28.85
30.035
31.043
31.841
32.423
32.803
32.993
32.994
32.802
32.418
31.883
31.261
30.603
29.962
29.374
28.858
28.499
28.428
28.725
29.442
30.513
31.653
32.615
33.285
33.513
33.252
32.536
31.139
29.198
27.508
26.709
27.364
29.103
29.752
27.507
22.411
16.961
16.126
22.878
33.821
38.918
24.694
-17.995
-86.53
