280.948
329.98
404.133
454.161
505.181
538.757
541.738
519.479
473.427
402.068
310.006
204.681
90.768
-28.759
-153.377
-282.519
-407.183
-523.663
-632.643
-708.697
-729.201
-717.558
-700.81
-675.387
-637.109
-591.179
-537.183
-472.738
-400.277
-324.758
-253.833
-195.186
-151.891
-123.209
-105.188
-92.773
-83.34
-76.502
-72.583
-71.491
-71.953
-71.966
-70.076
-65.95
-59.898
-52.609
-45.022
-37.917
-32.206
-28.401
-26.425
-26.588
-28.717
-33.194
-40.563
-49.127
-57.503
-63.9
-66.353
-66.239
-64.821
-63.104
-62.62
-62.439
-61.678
-60.258
-57.685
-54.45
-51.114
-47.671
-44.289
-41.049
-37.968
-35.216
-32.903
-31.038
-29.626
-28.652
-28.083
-27.883
-27.997
-28.359
-28.903
-29.576
-30.332
-31.126
-31.905
-32.619
-33.216
-33.645
-33.872
-33.879
-33.649
-33.181
-32.476
-31.537
-30.374
-29.005
-27.443
-25.702
-23.792
-21.726
-19.516
-17.18
-14.737
-12.207
-9.61
-6.964
-4.29
-1.608
1.062
3.699
6.284
8.799
11.221
13.531
15.707
17.726
19.567
21.212
22.639
23.831
24.77
25.44
25.829
25.922
25.71
25.183
24.333
23.153
21.639
19.788
17.598
15.071
12.208
9.014
5.494
1.657
-2.488
-6.931
-11.658
-16.655
-21.908
-27.399
-33.111
-39.025
-45.122
-51.382
-57.784
-64.306
-70.926
-77.624
-84.376
-91.161
-97.957
-104.742
-111.495
-118.194
-124.821
-131.353
-137.772
-144.059
-150.194
-156.163
-161.947
-167.531
-172.902
-178.047
-182.954
-187.612
-192.014
-196.151
-200.016
-203.605
-206.914
-209.94
-212.682
-215.14
-217.316
-219.211
-220.83
-222.177
-223.256
-224.076
-224.642
-224.962
-225.045
-224.901
-224.539
-223.97
-223.207
-222.26
-221.144
-219.872
-218.456
-216.911
-215.251
-213.487
-211.634
-209.705
-207.712
-205.667
-203.583
-201.471
-199.343
-197.21
-195.082
-192.97
-190.882
-188.826
-186.811
-184.844
-182.932
-181.079
-179.291
-177.573
-175.929
-174.363
-172.878
-171.476
-170.158
-168.923
-167.772
-166.701
-165.708
-164.786
-163.933
-163.144
-162.413
-161.737
-161.11
-160.529
-159.989
-159.488
-159.02
-158.578
-158.154
-157.74
-157.327
-156.906
-156.468
-156.002
-155.5
-154.954
-154.362
-153.719
-153.02
-152.258
-151.421
-150.505
-149.508
-148.43
-147.275
-146.045
-144.749
-143.404
-142.038
-140.677
-139.341
-138.039
-136.768
-135.532
-134.332
-133.17
-132.049
-130.958
-129.88
-128.803
-127.722
-126.632
-125.519
-124.35
-123.069
-121.627
-119.993
-118.161
-116.135
-113.918
-111.519
-108.945
-106.231
-103.438
-100.625
-97.841
-95.117
-92.477
-89.959
-87.626
-85.564
-83.852
-82.541
-81.653
-81.206
-81.223
-81.719
-82.708
-84.155
-85.982
-88.124
-90.528
-93.166
-96.033
-99.105
-102.335
-105.655
-109
-112.334
-115.652
-118.947
-122.203
-125.41
-128.525
-131.582
-134.699
-137.902
-141.153
-144.275
-146.917
-148.78
-149.683
-149.404
-147.693
-144.41
-139.501
-133.358
-126.841
-120.699
-115.531
-111.723
-109.496
-109.179
-110.918
-114.016
-116.706
-116.834
-112.522
-102.817
-88.171
-69.157
-45.458
-16.497
19.175
62.933
113.794
169.864
227.867
282.512
329.182
362.399
375.688
363.976
323.614
255.246
164.478
59.164
-53.541
-170.672
-292.525
-419.218
-546.381
-663.568
-757.957
-819.23
-844.808
-839.436
-811.341
-768.52
-714.42
-649.927
-575.933
-494.697
-412.591
-336.898
-272.913
-223.528
-186.724
-158.278
-135.499
-116.617
-102.03
-92.859
-87.812
-84.679
-81.173
-75.368
-67.054
-56.866
-45.231
-32.852
-20.65
-9.539
-0.619
5.551
9.136
10.502
10.155
8.629
6.411
4.092
2.349
1.612
2.038
3.65
6.317
9.921
14.397
19.613
25.413
31.652
38.191
44.921
51.758
58.602
65.337
71.849
78.022
83.759
89.006
93.735
97.947
101.665
104.916
107.737
110.179
112.304
114.173
115.844
117.37
118.797
120.179
121.568
123.018
124.58
126.287
128.159
130.207
132.437
134.848
137.439
140.199
143.112
146.165
149.346
152.646
156.054
159.559
163.144
166.793
170.489
174.214
177.953
181.688
185.403
189.079
192.7
196.247
199.706
203.057
206.282
209.361
212.273
215
217.523
219.824
221.885
223.691
225.227
226.481
227.441
228.098
228.443
228.47
228.172
227.546
226.59
225.302
223.683
221.735
219.462
216.868
213.96
210.746
207.235
203.437
199.364
195.03
190.448
185.634
180.604
175.374
169.963
164.389
158.671
152.83
146.883
140.853
134.759
128.62
122.457
116.289
110.135
104.012
97.939
91.933
86.01
80.186
74.477
68.896
63.457
58.172
53.053
48.112
43.357
38.797
34.44
30.294
26.362
22.651
19.163
15.901
12.867
10.059
7.478
5.122
2.988
1.073
-0.628
-2.12
-3.409
-4.5
-5.402
-6.122
-6.667
-7.046
-7.268
-7.342
-7.276
-7.081
-6.764
-6.337
-5.808
-5.188
-4.486
-3.711
-2.874
-1.985
-1.052
-0.085
0.906
1.915
2.931
3.949
4.96
5.959
6.938
7.891
8.811
9.695
10.535
11.328
12.068
12.752
13.375
13.936
14.431
14.858
15.216
15.502
15.716
15.856
15.924
15.919
15.842
15.696
15.481
15.202
14.863
14.468
14.023
13.532
13.001
12.436
11.841
11.221
10.581
9.925
9.256
8.58
7.904
7.236
6.583
5.956
5.363
4.815
4.321
3.888
3.524
3.233
3.02
2.89
2.846
2.895
3.047
3.307
3.677
4.157
4.739
5.413
6.161
6.966
7.806
8.666
9.533
10.403
11.279
12.169
13.079
14.009
14.948
15.886
16.818
17.744
18.668
19.602
20.565
21.579
22.674
23.877
25.197
26.627
28.142
29.705
31.274
32.828
34.358
35.852
37.296
38.665
39.935
41.079
42.066
42.859
43.402
43.644
43.551
43.116
42.356
41.298
39.977
38.392
36.539
34.427
32.066
29.48
26.688
23.701
20.527
17.174
13.678
10.068
6.374
2.616
-1.211
-5.125
-9.147
-13.263
-17.452
-21.678
-25.927
-30.262
-34.654
-38.97
-42.962
-46.232
-48.442
-49.409
-48.91
-46.611
-42.401
-36.432
-29.184
-21.673
-14.763
-8.961
-4.859
-3.032
-3.754
-6.405
-9.273
-10.147
-6.991
0.25
10.137
22.839
39.018
61.188
94.22
138.798
193.462
255.167
315.711
368.712
408.683
428.283
423.728
391.901
330.961
245.054
140.577
24.217
-97.883
-223.661
-352.651
-480.977
-600.501
-699.431
-766.415
-796.805
-794.125
-767.582
-727.107
-678.395
-622.059
-555.782
-478.629
-394.107
-309.332
-232.602
-169.783
-121.971
-86.419
-59.403
-38.111
-21.688
-10.94
-5.524
-3.762
-3.428
-1.835
2.331
8.964
17.724
27.967
38.816
49.552
59.275
67.003
72.448
75.771
77.293
77.573
77.157
76.515
76.231
76.858
78.648
81.666
85.841
90.983
96.953
103.623
110.815
118.347
126.055
133.806
141.497
149.03
156.296
163.174
169.547
175.339
180.518
185.073
189.021
192.394
195.227
197.574
199.5
201.067
202.337
203.369
204.213
204.929
205.575
206.212
206.899
207.681
208.587
209.639
210.847
212.218
213.755
215.454
217.304
219.298
221.43
223.693
226.083
228.593
231.211
233.925
236.721
239.583
242.5
245.455
248.435
251.423
254.402
257.357
260.272
263.128
265.905
268.582
271.137
273.548
275.793
277.852
279.701
281.321
282.691
283.793
284.611
285.127
285.328
285.198
284.727
283.904
282.719
281.166
279.24
276.936
274.252
271.189
267.749
263.934
259.752
255.208
250.312
245.075
239.509
233.629
227.45
220.99
214.266
207.3
200.111
192.723
185.157
177.439
169.593
161.643
153.616
145.536
137.429
129.32
121.234
113.196
105.23
97.359
89.605
81.991
74.537
67.263
60.188
53.327
46.698
40.314
34.189
28.334
22.759
17.471
12.479
7.786
3.397
-0.688
-4.468
-7.943
-11.118
-13.997
-16.585
-18.889
-20.917
-22.68
-24.187
-25.449
-26.479
-27.29
-27.895
-28.306
-28.539
-28.607
-28.524
-28.305
-27.962
-27.509
-26.96
-26.328
-25.624
-24.86
-24.048
-23.197
-22.317
-21.418
-20.506
-19.591
-18.677
-17.771
-16.877
-16.001
-15.145
-14.312
-13.504
-12.723
-11.969
-11.242
-10.542
-9.867
-9.216
-8.589
-7.982
-7.395
-6.825
-6.27
-5.729
-5.201
-4.684
-4.177
-3.679
-3.189
-2.707
-2.233
-1.767
-1.309
-0.862
-0.424
0.001
0.412
0.808
1.186
1.546
1.884
2.2
2.491
2.754
2.99
3.196
3.37
3.508
3.608
3.668
3.686
3.661
3.589
3.471
3.307
3.099
2.853
2.569
2.25
1.9
1.52
1.116
0.691
0.248
-0.213
-0.688
-1.174
-1.661
-2.138
-2.602
-3.055
-3.504
-3.955
-4.408
-4.868
-5.341
-5.837
-6.361
-6.909
-7.464
-8.01
-8.536
-9.044
-9.545
-10.051
-10.56
-11.063
-11.543
-11.991
-12.397
-12.75
-13.025
-13.192
-13.239
-13.177
-13.042
-12.873
-12.688
-12.488
-12.257
-11.976
-11.643
-11.259
-10.831
-10.363
-9.859
-9.335
-8.825
-8.37
-7.987
-7.667
-7.367
-7.047
-6.695
-6.316
-5.947
-5.637
-5.431
-5.389
-5.562
-5.997
-6.735
-7.785
-9.151
-10.848
-12.903
-15.365
-18.303
-21.756
-25.768
-30.404
-35.609
-41.192
-46.858
-52.16
-56.698
-60.217
-62.423
-62.964
-61.698
-58.787
-54.736
-50.402
-46.56
-43.609
-41.858
-41.71
-43.321
-46.354
-49.807
-52.095
-51.301
-45.651
-34.187
-16.031
8.874
38.596
71.887
108.185
146.781
189.492
236.805
285.156
330.225
364.265
378.054
365.65
322.912
250.816
156.267
47.944
-66.316
-183.027
-302.92
-427.115
-552.078
-667.753
-761.48
-822.801
-848.498
-843.356
-815.112
-770.335
-712.951
-644.708
-568.034
-488.781
-413.911
-348.284
-294.414
-250.579
-212.619
-178.746
-148.738
-123.625
-105.833
-95.684
-91.198
-90.088
-89.783
-88.351
-85.434
-81.252
-75.851
-69.545
-62.934
-56.544
-51.2
-47.766
-46.398
-46.91
-49.019
-52.194
-55.93
-59.789
-63.196
-65.612
-66.794
-66.662
-65.284
-62.84
-59.457
-55.256
-50.397
-45.054
-39.384
-33.521
-27.576
-21.652
-15.862
-10.33
-5.179
-0.491
3.694
7.363
10.536
13.245
15.525
17.429
19.019
20.353
21.492
22.492
23.4
24.271
25.162
26.127
27.223
28.492
29.958
31.637
33.535
35.65
37.981
40.517
43.243
46.146
49.214
52.436
55.805
59.309
62.933
66.66
70.472
74.354
78.289
82.26
86.25
90.243
94.222
98.169
102.069
105.903
109.652
113.296
116.814
120.187
123.393
126.416
129.234
131.831
134.191
136.297
138.138
139.7
140.973
141.945
142.61
142.96
142.99
142.696
142.076
141.129
139.857
138.262
136.348
134.122
131.59
128.761
125.645
122.255
118.603
114.703
110.571
106.221
101.672
96.941
92.046
87.007
81.843
76.573
71.219
65.799
60.334
54.843
49.345
43.86
38.407
33.003
27.665
22.411
17.255
12.214
7.3
2.528
-2.091
-6.545
-10.826
-14.923
-18.831
-22.541
-26.05
-29.353
-32.448
-35.333
-38.008
-40.473
-42.729
-44.78
-46.629
-48.28
-49.739
-51.012
-52.104
-53.025
-53.78
-54.379
-54.831
-55.145
-55.329
-55.394
-55.349
-55.204
-54.968
-54.652
-54.264
-53.814
-53.312
-52.765
-52.183
-51.574
-50.945
-50.303
-49.656
-49.008
-48.367
-47.737
-47.124
-46.531
-45.962
-45.422
-44.913
-44.439
-44.001
-43.602
-43.242
-42.925
-42.65
-42.418
-42.229
-42.085
-41.984
-41.926
-41.911
-41.937
-42.004
-42.108
-42.249
-42.424
-42.63
-42.865
-43.125
-43.408
-43.71
-44.029
-44.361
-44.702
-45.05
-45.399
-45.747
-46.088
-46.419
-46.735
-47.031
-47.302
-47.545
-47.754
-47.925
-48.052
-48.13
-48.154
-48.12
-48.023
-47.857
-47.618
-47.302
-46.908
-46.43
-45.869
-45.222
-44.491
-43.677
-42.78
-41.804
-40.75
-39.622
-38.423
-37.158
-35.831
-34.446
-33.01
-31.53
-30.013
-28.469
-26.908
-25.338
-23.769
-22.211
-20.675
-19.171
-17.711
-16.301
-14.951
-13.671
-12.474
-11.374
-10.38
-9.498
-8.728
-8.069
-7.519
-7.073
-6.719
-6.438
-6.212
-6.025
-5.862
-5.718
-5.582
-5.441
-5.28
-5.077
-4.822
-4.514
-4.16
-3.765
-3.343
-2.915
-2.519
-2.22
-2.077
-2.147
-2.492
-3.153
-4.18
-5.622
-7.513
-9.895
-12.805
-16.267
-20.301
-24.921
-30.097
-35.807
-42.04
-48.653
-55.435
-62.108
-68.246
-73.505
-77.667
-80.424
-81.42
-80.594
-78.046
-74.131
-69.695
-65.284
-61.082
-57.587
-55.261
-54.093
-54.014
-53.95
-51.611
-45.674
-35.245
-20.248
-2.288
17.932
40.177
65.361
96.149
133.942
179.136
229.04
277.094
316
337.069
332.7
299.115
236.228
149.574
48.588
-57.807
-164.018
-270.652
-379.707
-487.363
-594.052
-699.39
-775.508
-796.493
-782.259
-759.873
-727.329
-681.69
-629.833
-572.809
-509.214
-441.501
-372.825
-306.956
-247.779
-197.245
-156.295
-125.022
-102.277
-86.817
-77.498
-72.588
-70.323
-69.043
-67.036
-63.432
-58.203
-51.515
-43.764
-35.631
-27.733
-20.835
-15.828
-13.009
-12.245
-13.249
-15.513
-18.526
-21.862
-24.989
-27.336
-28.608
-28.701
-27.63
-25.559
-22.608
-18.875
-14.509
-9.679
-4.532
0.799
6.212
11.631
16.957
22.086
26.916
31.35
35.338
38.86
41.921
44.547
46.773
48.641
50.206
51.532
52.681
53.711
54.678
55.626
56.608
57.676
58.879
60.269
61.879
63.727
65.826
68.18
70.788
73.645
76.742
80.061
83.589
87.312
91.217
95.294
99.527
103.897
108.387
112.974
117.64
122.363
127.125
131.903
136.676
141.424
146.124
150.756
155.299
159.729
164.022
168.155
172.105
175.849
179.366
182.635
185.635
188.349
190.759
192.851
194.612
196.029
197.091
197.791
198.121
198.077
197.655
196.854
195.674
194.119
192.192
189.899
187.25
184.252
180.918
177.26
173.293
169.033
164.496
159.701
154.668
149.415
143.965
138.338
132.558
126.645
120.623
114.515
108.344
102.132
95.902
89.674
83.472
77.315
71.223
65.215
59.309
53.523
47.873
42.373
37.038
31.88
26.912
22.143
17.582
13.238
9.116
5.222
1.56
-1.869
-5.063
-8.021
-10.746
-13.238
-15.501
-17.538
-19.355
-20.957
-22.35
-23.541
-24.539
-25.35
-25.984
-26.449
-26.753
-26.907
-26.918
-26.796
-26.549
-26.187
-25.717
-25.148
-24.49
-23.75
-22.936
-22.057
-21.121
-20.136
-19.106
-18.041
-16.945
-15.824
-14.683
-13.528
-12.362
-11.191
-10.02
-8.851
-7.69
-6.54
-5.405
-4.287
-3.189
-2.114
-1.064
-0.041
0.951
1.912
2.839
3.729
4.581
5.391
6.159
6.884
7.564
8.201
8.795
9.348
9.863
10.341
10.784
11.194
11.575
11.926
12.251
12.549
12.822
13.076
13.314
13.544
13.773
14.009
14.26
14.535
14.843
15.193
15.59
16.038
16.54
17.103
17.735
18.45
19.257
20.157
21.156
22.254
23.45
24.737
26.098
27.507
28.942
30.394
31.858
33.343
34.853
36.393
37.969
39.587
41.257
42.992
44.798
46.675
48.633
50.69
52.883
55.282
57.93
60.848
64.047
67.517
71.243
75.215
79.396
83.732
88.174
92.667
97.172
101.673
106.13
110.497
114.7
118.624
122.182
125.315
127.962
130.087
131.656
132.614
132.952
132.696
131.846
130.42
128.412
125.787
122.547
118.694
114.233
109.22
103.684
97.637
91.14
84.216
76.862
69.217
61.456
53.786
46.562
40.057
34.422
29.947
26.958
25.509
25.457
26.371
27.496
28.317
28.688
28.358
26.892
24.199
20.566
16.786
14.604
15.71
20.865
30.582
44.437
60.844
78.871
98.208
120.016
146.495
178.797
215.863
252.856
283.966
302.981
303.633
282.284
236.084
165.489
75.401
-27.563
-136.634
-248.341
-361.985
-477.087
-589.88
-691.636
-772.723
-825.493
-847.857
-844.23
-821.029
-784.546
-739.292
-686.932
-628.3
-564.785
-498.369
-431.814
-368.808
-312.599
-264.972
-226.942
-198.239
-177.498
-163.892
-156.473
-153.442
-153.121
-153.732
-153.42
-151.465
-147.912
-142.729
-136.217
-129.003
-121.628
-114.904
-109.737
-106.352
-104.576
-104.12
-104.47
-105.127
-105.684
-105.639
-104.501
-102.057
-98.274
-93.235
-87.142
-80.161
-72.435
-64.148
-55.495
-46.645
-37.749
-28.94
-20.333
-12.053
-4.23
3.045
9.714
15.75
21.159
25.96
30.188
33.887
37.118
39.939
42.407
44.581
46.516
48.272
49.913
51.501
53.097
54.748
56.491
58.349
60.338
62.468
64.744
67.165
69.726
72.422
75.254
78.22
81.32
84.55
87.903
91.372
94.947
98.619
102.378
106.214
110.116
114.071
118.068
122.092
126.13
130.166
134.18
138.153
142.061
145.884
149.599
153.183
156.613
159.867
162.922
165.759
168.357
170.697
172.762
174.533
175.996
177.136
177.941
178.399
178.501
178.239
177.608
176.603
175.223
173.468
171.339
168.841
165.979
162.76
159.195
155.294
151.071
146.54
141.718
136.621
131.27
125.684
119.885
113.895
107.736
101.433
95.009
88.488
81.894
75.252
68.585
61.918
55.273
48.673
42.14
35.695
29.36
23.153
17.093
11.197
5.482
-0.038
-5.349
-10.44
-15.299
-19.917
-24.286
-28.4
-32.254
-35.844
-39.169
-42.226
-45.018
-47.546
-49.813
-51.824
-53.584
-55.1
-56.379
-57.431
-58.263
-58.887
-59.314
-59.553
-59.618
-59.521
-59.274
-58.89
-58.382
-57.763
-57.047
-56.246
-55.373
-54.442
-53.464
-52.453
-51.42
-50.377
-49.336
-48.307
-47.3
-46.326
-45.394
-44.513
-43.69
-42.934
-42.251
-41.648
-41.13
-40.703
-40.37
-40.134
-39.999
-39.967
-40.038
-40.214
-40.492
-40.873
-41.354
-41.932
-42.604
-43.366
-44.213
-45.141
-46.142
-47.212
-48.343
-49.528
-50.758
-52.025
-53.321
-54.636
-55.961
-57.284
-58.598
-59.891
-61.153
-62.375
-63.544
-64.651
-65.687
-66.64
-67.503
-68.265
-68.918
-69.456
-69.87
-70.157
-70.31
-70.327
-70.206
-69.945
-69.544
-69.002
-68.321
-67.502
-66.55
-65.466
-64.255
-62.922
-61.474
-59.918
-58.262
-56.517
-54.691
-52.794
-50.837
-48.832
-46.79
-44.723
-42.641
-40.552
-38.467
-36.397
-34.358
-32.358
-30.403
-28.494
-26.634
-24.822
-23.061
-21.343
-19.655
-17.982
-16.31
-14.633
-12.95
-11.258
-9.552
-7.819
-6.047
-4.232
-2.387
-0.522
1.352
3.225
5.084
6.891
8.583
10.101
11.381
12.376
13.055
13.373
13.298
12.786
11.78
10.244
8.153
5.478
2.228
-1.619
-6.13
-11.22
-16.688
-22.26
-27.479
-31.99
-35.629
-38.098
-39.023
-38.357
-36.221
-33.081
-29.963
-27.532
-25.972
-25.695
-27.098
-30.093
-34.418
-38.743
-40.461
-37.849
-30.197
-17.68
-1.411
18.174
41.845
71.1
106.937
148.848
194.827
241.075
283.081
316.942
337.601
339.249
316.963
266.957
190.746
94.959
-12.411
-123.683
-237.324
-353.628
-467.347
-580.707
-695.183
-780.849
-809.251
-801.008
-784.252
-755.502
-710.861
-658.201
-599.01
-532.086
-459.208
-381.47
-302.195
-225.373
-155.032
-97.549
-56.112
-31.864
-24.665
-29.229
-40.067
-50.882
-54.015
-47.08
-30.802
-8.817
12.065
28.428
39.551
46.331
51.574
56.252
60.055
62.683
63.459
62.504
60.548
58.156
55.925
54.381
53.748
54.128
55.534
57.839
60.933
64.736
69.147
74.039
79.286
84.771
90.381
96.034
101.646
107.115
112.342
117.231
121.696
125.692
129.208
132.251
134.85
137.041
138.866
140.378
141.645
142.726
143.682
144.563
145.416
146.289
147.233
148.297
149.527
150.954
152.593
154.453
156.535
158.838
161.353
164.069
166.965
170.025
173.233
176.574
180.037
183.604
187.257
190.974
194.734
198.518
202.307
206.081
209.818
213.501
217.108
220.623
224.027
227.302
230.427
233.384
236.153
238.715
241.053
243.15
244.99
246.559
247.845
248.836
249.524
249.902
249.961
249.699
249.111
248.195
246.952
245.382
243.488
241.275
238.747
235.913
232.78
229.358
225.659
221.694
217.477
213.022
208.343
203.458
198.382
193.132
187.726
182.184
176.522
170.76
164.916
159.009
153.057
147.079
141.093
135.116
129.164
123.254
117.402
111.624
105.934
100.345
94.872
89.526
84.319
79.261
74.362
69.632
65.076
60.703
56.518
52.525
48.729
45.132
41.736
38.541
35.549
32.756
30.162
27.764
25.557
23.538
21.702
20.043
18.555
17.232
16.065
15.049
14.174
13.433
12.817
12.318
11.925
11.631
11.426
11.302
11.248
11.256
11.318
11.424
11.568
11.739
11.931
12.137
12.348
12.558
12.761
12.951
13.122
13.269
13.388
13.473
13.521
13.529
13.494
13.412
13.282
13.101
12.869
12.584
12.245
11.853
11.408
10.911
10.362
9.765
9.12
8.431
7.699
6.929
6.123
5.284
4.417
3.525
2.612
1.684
0.743
-0.205
-1.155
-2.103
-3.044
-3.971
-4.881
-5.767
-6.626
-7.451
-8.238
-8.98
-9.674
-10.314
-10.897
-11.417
-11.87
-12.254
-12.565
-12.802
-12.964
-13.048
-13.057
-12.991
-12.853
-12.643
-12.365
-12.023
-11.619
-11.16
-10.648
-10.087
-9.484
-8.844
-8.173
-7.479
-6.768
-6.048
-5.328
-4.614
-3.916
-3.242
-2.6
-1.995
-1.431
-0.913
-0.449
-0.048
0.285
0.551
0.75
0.884
0.956
0.97
0.939
0.886
0.831
0.794
0.786
0.812
0.88
1
1.187
1.459
1.818
2.259
2.773
3.355
3.997
4.684
5.374
5.992
6.463
6.722
6.718
6.42
5.791
4.779
3.316
1.342
-1.189
-4.304
-8.008
-12.338
-17.369
-23.084
-29.325
-35.801
-42.093
-47.821
-52.756
-56.646
-59.12
-59.97
-59.256
-57.36
-55.089
-53.233
-52.152
-52.079
-53.421
-56.346
-60.594
-65.492
-69.219
-69.472
-64.911
-54.395
-37.821
-16.695
8.084
35.458
65.558
100.784
142.589
191.581
245.154
296.341
337.23
358.8
353.551
318.112
253.18
164.735
61.494
-48.589
-161.7
-279.374
-403.645
-532.971
-659.145
-767.382
-844.027
-882.536
-884.758
-860.324
-820.231
-770.927
-715.045
-652.041
-581.032
-504.411
-426.081
-350.699
-282.951
-225.113
-177.67
-140.416
-112.46
-93.819
-85.219
-85.614
-91.876
-98.675
-100.359
-94.285
-81.342
-65.771
-52
-41.886
-35.556
-30.464
-23.999
-16.878
-10.397
-7.777
-12.847
-24.499
-39.713
-53.629
-60.387
-59.052
-51.924
-42.95
-36.5
-33.845
-33.757
-34.053
-32.962
-30.049
-25.834
-21.189
-16.554
-11.994
-7.549
-3.235
0.818
4.423
7.511
10.082
12.138
13.715
14.867
15.655
16.161
16.471
16.652
16.757
16.842
16.957
17.153
17.482
17.991
18.721
19.703
20.952
22.473
24.269
26.332
28.655
31.223
34.015
37.011
40.196
43.553
47.065
50.714
54.478
58.334
62.257
66.225
70.216
74.207
78.174
82.093
85.942
89.7
93.343
96.852
100.201
103.368
106.332
109.069
111.56
113.785
115.726
117.366
118.691
119.687
120.345
120.654
120.607
120.199
119.426
118.286
116.779
114.907
112.675
110.086
107.15
103.875
100.271
96.353
92.133
87.626
82.851
77.823
72.563
67.089
61.422
55.582
49.591
43.471
37.244
30.93
24.553
18.133
11.694
5.254
-1.164
-7.542
-13.861
-20.103
-26.25
-32.286
-38.197
-43.969
-49.588
-55.044
-60.326
-65.425
-70.334
-75.046
-79.557
-83.862
-87.96
-91.848
-95.528
-98.999
-102.265
-105.328
-108.192
-110.861
-113.341
-115.638
-117.757
-119.707
-121.494
-123.125
-124.61
-125.955
-127.169
-128.259
-129.234
-130.101
-130.866
-131.538
-132.121
-132.623
-133.049
-133.402
-133.688
-133.91
-134.071
-134.172
-134.214
-134.2
-134.127
-133.997
-133.806
-133.554
-133.238
-132.855
-132.403
-131.877
-131.275
-130.594
-129.829
-128.977
-128.034
-126.996
-125.861
-124.625
-123.285
-121.838
-120.282
-118.615
-116.835
-114.942
-112.934
-110.811
-108.574
-106.224
-103.762
-101.189
-98.507
-95.721
-92.831
-89.844
-86.762
-83.592
-80.337
-77.005
-73.6
-70.129
-66.598
-63.013
-59.381
-55.706
-51.995
-48.254
-44.488
-40.703
-36.904
-33.096
-29.284
-25.472
-21.664
-17.865
-14.077
-10.304
-6.55
-2.816
0.893
4.574
8.224
11.84
15.418
18.953
22.442
25.881
29.268
32.599
35.87
39.078
42.221
45.296
48.301
51.232
54.085
56.856
59.541
62.137
64.64
67.046
69.348
71.543
73.628
75.604
77.47
79.225
80.865
82.385
83.785
85.068
86.239
87.301
88.26
89.123
89.905
90.631
91.325
92.003
92.68
93.359
94.047
94.755
95.497
96.284
97.123
98.007
98.931
99.898
100.902
101.922
102.919
103.823
104.556
105.061
105.285
105.191
104.752
103.916
102.624
100.825
98.468
95.521
91.978
87.791
82.886
77.304
71.206
64.888
58.794
53.287
48.581
44.937
42.684
41.961
42.665
44.36
46.218
47.508
47.955
47.403
45.533
42.281
37.969
33.284
30.044
30.507
35.824
46.935
63.788
84.355
107.651
132.882
159.943
191.763
229.665
273.279
320.306
363.636
396.362
412.145
404.688
371.817
313.415
231.54
131.736
18.6
-104.784
-236.634
-374.098
-507.047
-630.264
-742.305
-816.872
-831.049
-807.591
-773.016
-724.716
-660.123
-587.25
-511.542
-435.586
-362.875
-295.597
-233.493
-175.964
-123.251
-76.53
-37.97
-9.226
9.796
20.309
24.77
26.017
26.169
27.016
29.48
33.606
39.362
46.475
54.229
61.915
68.655
73.433
75.91
76.22
74.638
71.685
67.904
63.753
59.822
56.743
54.828
54.176
54.753
56.37
58.888
62.206
66.158
70.559
75.248
80.081
84.95
89.784
94.484
98.946
103.065
106.74
109.923
112.604
114.795
116.532
117.854
118.808
119.455
119.867
120.112
120.254
120.351
120.451
120.608
120.876
121.308
121.956
122.854
124.02
125.463
127.184
129.18
131.445
133.966
136.722
139.696
142.872
146.236
149.774
153.47
157.302
161.25
165.292
169.406
173.571
177.766
181.969
186.158
190.312
194.409
198.429
202.351
206.151
209.807
213.296
216.595
219.684
222.541
225.148
227.485
229.536
231.287
232.723
233.834
234.609
235.039
235.118
234.84
234.202
233.202
231.84
230.118
228.037
225.604
222.826
219.709
216.264
212.502
208.436
204.078
199.445
194.553
189.418
184.059
178.493
172.742
166.824
160.761
154.572
148.28
141.904
135.467
128.988
122.489
115.989
109.507
103.062
96.673
90.357
84.132
78.011
72.012
66.148
60.432
54.876
49.491
44.287
39.273
34.456
29.842
25.436
21.241
17.262
13.498
9.951
6.619
3.501
0.594
-2.107
-4.606
-6.909
-9.023
-10.954
-12.711
-14.302
-15.736
-17.023
-18.171
-19.191
-20.093
-20.887
-21.583
-22.191
-22.722
-23.186
-23.591
-23.949
-24.268
-24.556
-24.822
-25.074
-25.32
-25.565
-25.817
-26.081
-26.362
-26.666
-26.996
-27.356
-27.748
-28.176
-28.64
-29.143
-29.684
-30.265
-30.885
-31.544
-32.241
-32.974
-33.743
-34.545
-35.378
-36.239
-37.126
-38.035
-38.962
-39.905
-40.858
-41.819
-42.782
-43.745
-44.703
-45.652
-46.588
-47.507
-48.405
-49.279
-50.124
-50.936
-51.712
-52.448
-53.141
-53.787
-54.383
-54.926
-55.413
-55.841
-56.207
-56.508
-56.741
-56.905
-56.996
-57.013
-56.954
-56.82
-56.61
-56.324
-55.965
-55.534
-55.036
-54.473
-53.848
-53.165
-52.429
-51.645
-50.815
-49.945
-49.039
-48.104
-47.147
-46.177
-45.2
-44.224
-43.259
-42.312
-41.392
-40.506
-39.661
-38.864
-38.121
-37.444
-36.84
-36.322
-35.899
-35.573
-35.343
-35.209
-35.16
-35.187
-35.276
-35.404
-35.553
-35.709
-35.859
-35.995
-36.105
-36.17
-36.176
-36.103
-35.937
-35.675
-35.322
-34.88
-34.378
-33.847
-33.324
-32.873
-32.547
-32.39
-32.451
-32.773
-33.402
-34.395
-35.809
-37.686
-40.06
-42.951
-46.382
-50.38
-54.933
-60.014
-65.552
-71.464
-77.722
-84.206
-90.702
-96.908
-102.391
-106.769
-109.822
-111.26
-110.709
-108.138
-103.724
-97.937
-91.777
-85.912
-80.657
-76.634
-74.376
-73.921
-74.758
-75.245
-73.079
-66.753
-56.165
-42.502
-26.775
-9.367
10.737
37.006
71.919
116.263
169.05
223.896
272.591
307.613
321.119
308.975
270.09
205.069
117.567
12.08
-107.273
-238.714
-379.712
-522.189
-663.846
-802.478
-907.948
-951.131
-950.08
-931.005
-891.463
-831.011
-759.58
-681.356
-599.433
-518.319
-441.648
-372.801
-312.426
-259.761
-214.852
-177.531
-148.084
-127.191
-114.213
-107.272
-104.026
-101.691
-98.043
-92.243
-84.299
-74.625
-63.795
-52.51
-41.5
-31.755
-24.405
-19.821
-17.87
-18.222
-20.162
-23.455
-27.944
-32.532
-36.403
-38.28
-36.944
-33.55
-29.03
-24.671
-22.154
-20.22
-17.844
-14.365
-8.579
-1.576
5.574
12.551
18.641
24.08
29.204
33.837
37.992
41.628
44.667
47.2
49.314
51.042
52.441
53.587
54.548
55.385
56.155
56.9
57.666
58.511
59.494
60.663
62.048
63.667
65.528
67.633
69.983
72.571
75.383
78.4
81.608
84.991
88.538
92.235
96.067
100.016
104.063
108.187
112.369
116.591
120.834
125.079
129.304
133.491
137.621
141.676
145.636
149.479
153.184
156.732
160.101
163.271
166.226
168.945
171.413
173.615
175.538
177.17
178.501
179.524
180.229
180.613
180.67
180.4
179.801
178.873
177.619
176.043
174.151
171.949
169.445
166.649
163.573
160.229
156.629
152.79
148.726
144.454
139.991
135.356
130.567
125.644
120.606
115.472
110.264
105
99.702
94.388
89.079
83.792
78.546
73.36
68.249
63.231
58.321
53.534
48.884
44.384
40.046
35.882
31.901
28.112
24.524
21.144
17.976
15.025
12.295
9.788
7.505
5.445
3.608
1.992
0.593
-0.593
-1.571
-2.347
-2.928
-3.322
-3.536
-3.581
-3.465
-3.199
-2.792
-2.256
-1.602
-0.84
0.017
0.96
1.975
3.052
4.18
5.347
6.542
7.755
8.976
10.195
11.401
12.587
13.744
14.862
15.935
16.956
17.917
18.812
19.636
20.384
21.052
21.634
22.129
22.533
22.845
23.064
23.187
23.216
23.151
22.992
22.742
22.403
21.977
21.468
20.881
20.22
19.49
18.698
17.847
16.945
15.999
15.014
13.998
12.958
11.902
10.837
9.772
8.713
7.67
6.652
5.665
4.72
3.823
2.983
2.209
1.507
0.886
0.352
-0.086
-0.424
-0.654
-0.773
-0.777
-0.661
-0.425
-0.067
0.411
1.009
1.723
2.551
3.488
4.53
5.672
6.907
8.229
9.632
11.107
12.645
14.237
15.87
17.535
19.219
20.912
22.601
24.273
25.914
27.513
29.062
30.55
31.967
33.301
34.536
35.664
36.683
37.589
38.384
39.07
39.649
40.132
40.54
40.89
41.199
41.478
41.731
41.964
42.187
42.414
42.662
42.938
43.234
43.546
43.868
44.189
44.498
44.755
44.901
44.878
44.623
44.093
43.257
42.08
40.533
38.579
36.166
33.265
29.849
25.898
21.413
16.373
10.735
4.566
-1.943
-8.516
-14.757
-20.324
-25.017
-28.578
-30.674
-31.138
-30.058
-27.837
-25.241
-22.99
-21.385
-20.616
-21.101
-23.059
-26.304
-30.274
-33.235
-32.888
-27.982
-17.465
-1.441
18.038
39.794
62.798
87.693
118.168
156.802
204.849
259.484
312.665
355.315
377.283
370.526
331.714
261.698
167.399
59.07
-54.271
-167.458
-282.267
-401.346
-520.269
-638.238
-752.922
-834.513
-856.209
-837.12
-804.186
-757.062
-695.337
-629.761
-564.862
-499.828
-435.344
-370.577
-305.674
-243.445
-186.701
-138.883
-102.121
-75.792
-58.489
-48.337
-43.083
-40.972
-40.321
-39.286
-36.853
-32.795
-27.109
-20.148
-12.584
-5.028
1.683
6.538
9.177
9.697
8.384
5.8
2.493
-1.078
-4.324
-6.648
-7.749
-7.523
-6.018
-3.424
0.118
4.486
9.506
14.99
20.769
26.7
32.666
38.563
44.274
49.67
54.63
59.07
62.955
66.274
69.05
71.317
73.117
74.509
75.56
76.334
76.897
77.31
77.626
77.908
78.216
78.611
79.154
79.89
80.846
82.04
83.481
85.168
87.099
89.264
91.649
94.239
97.024
99.993
103.136
106.441
109.892
113.471
117.159
120.937
124.788
128.694
132.635
136.592
140.546
144.477
148.368
152.196
155.941
159.578
163.085
166.437
169.613
172.591
175.347
177.863
180.118
182.095
183.779
185.155
186.21
186.932
187.311
187.339
187.011
186.322
185.268
183.849
182.066
179.923
177.422
174.572
171.381
167.858
164.015
159.865
155.423
150.705
145.728
140.51
135.072
129.433
123.614
117.639
111.528
105.306
98.994
92.618
86.198
79.759
73.322
66.909
60.542
54.242
48.028
41.918
35.932
30.086
24.396
18.876
13.54
8.401
3.469
-1.247
-5.738
-9.997
-14.02
-17.802
-21.341
-24.634
-27.684
-30.489
-33.054
-35.381
-37.476
-39.344
-40.992
-42.428
-43.661
-44.7
-45.554
-46.235
-46.753
-47.12
-47.349
-47.449
-47.435
-47.317
-47.107
-46.818
-46.461
-46.047
-45.588
-45.095
-44.577
-44.044
-43.506
-42.971
-42.448
-41.944
-41.466
-41.02
-40.613
-40.249
-39.933
-39.669
-39.461
-39.31
-39.218
-39.188
-39.219
-39.311
-39.464
-39.676
-39.945
-40.268
-40.642
-41.064
-41.53
-42.035
-42.575
-43.144
-43.738
-44.35
-44.975
-45.607
-46.238
-46.863
-47.476
-48.069
-48.636
-49.171
-49.667
-50.117
-50.515
-50.855
-51.131
-51.336
-51.466
-51.514
-51.476
-51.349
-51.129
-50.814
-50.403
-49.894
-49.29
-48.591
-47.8
-46.918
-45.949
-44.898
-43.769
-42.566
-41.296
-39.964
-38.579
-37.149
-35.683
-34.193
-32.686
-31.175
-29.668
-28.176
-26.711
-25.284
-23.904
-22.58
-21.322
-20.141
-19.051
-18.062
-17.176
-16.395
-15.717
-15.14
-14.659
-14.265
-13.943
-13.678
-13.455
-13.261
-13.091
-12.935
-12.783
-12.621
-12.43
-12.199
-11.93
-11.63
-11.306
-10.978
-10.659
-10.379
-10.194
-10.153
-10.308
-10.72
-11.423
-12.458
-13.87
-15.686
-17.948
-20.704
-23.979
-27.799
-32.19
-37.125
-42.613
-48.701
-55.27
-62.122
-68.967
-75.335
-80.853
-85.307
-88.347
-89.562
-88.901
-86.507
-82.883
-79.073
-75.797
-73.402
-72.469
-73.484
-76.354
-80.673
-85.247
-87.952
-87.306
-82.19
-70.979
-52.444
-25.851
8.649
48.741
91.251
133.829
175.38
216.15
255.339
289.473
312.007
313.711
287.244
230.251
146.173
44.526
-64.359
-174.541
-284.808
-397.117
-512.012
-623.649
-720.713
-792.066
-831.197
-839
-823.215
-792.227
-751.268
-703.173
-647.793
-584.819
-516.784
-446.063
-375.811
-309.786
-249.643
-197.27
-154.274
-121.675
-100.816
-91.61
-91.507
-95.471
-97.999
-94.932
-85.565
-72.836
-59.795
-48.732
-40.281
-33.129
-26.791
-21.529
-17.654
-15.865
-16.205
-18.146
-21.186
-24.714
-28.085
-30.731
-32.29
-32.611
-31.709
-29.746
-26.847
-23.085
-18.598
-13.541
-8.063
-2.322
3.564
9.517
15.424
21.166
26.624
31.675
36.25
40.329
43.908
47.014
49.682
51.95
53.873
55.519
56.951
58.236
59.432
60.59
61.767
63.022
64.415
66.003
67.827
69.907
72.258
74.883
77.779
80.944
84.366
88.023
91.901
95.984
100.258
104.712
109.328
114.085
118.964
123.94
128.992
134.099
139.238
144.388
149.526
154.63
159.677
164.646
169.516
174.26
178.856
183.278
187.501
191.505
195.265
198.76
201.97
204.878
207.466
209.722
211.631
213.184
214.369
215.18
215.612
215.659
215.32
214.594
213.483
211.99
210.12
207.881
205.281
202.331
199.043
195.43
191.509
187.295
182.806
178.061
173.081
167.886
162.499
156.941
151.235
145.406
139.476
133.47
127.409
121.319
115.22
109.136
103.087
97.094
91.178
85.357
79.65
74.074
68.645
63.378
58.288
53.387
48.686
44.197
39.926
35.883
32.073
28.5
25.169
22.08
19.234
16.631
14.268
12.142
10.249
8.582
7.135
5.9
4.869
4.032
3.379
2.9
2.584
2.418
2.391
2.491
2.706
3.024
3.431
3.915
4.466
5.069
5.715
6.392
7.088
7.793
8.499
9.194
9.871
10.521
11.138
11.713
12.241
12.718
13.137
13.496
13.791
14.02
14.181
14.273
14.295
14.248
14.132
13.949
13.702
13.392
13.023
12.599
12.123
11.601
11.037
10.437
9.805
9.147
8.469
7.777
7.076
6.372
5.672
4.982
4.307
3.653
3.027
2.434
1.88
1.37
0.909
0.502
0.153
-0.131
-0.349
-0.494
-0.565
-0.557
-0.469
-0.299
-0.046
0.29
0.709
1.209
1.787
2.439
3.163
3.955
4.81
5.723
6.688
7.701
8.755
9.845
10.963
12.101
13.251
14.404
15.552
16.688
17.802
18.886
19.929
20.924
21.866
22.748
23.566
24.311
24.972
25.544
26.028
26.426
26.74
26.975
27.135
27.233
27.29
27.324
27.355
27.395
27.45
27.528
27.638
27.794
28.014
28.302
28.653
29.06
29.517
30.013
30.535
31.043
31.479
31.779
31.877
31.722
31.274
30.49
29.34
27.779
25.752
23.219
20.148
16.509
12.301
7.498
2.048
-3.985
-10.411
-16.943
-23.153
-28.668
-33.263
-36.667
-38.537
-38.708
-37.296
-34.746
-31.885
-29.501
-27.953
-27.468
-28.465
-31.146
-35.234
-39.947
-43.457
-43.484
-38.666
-28.308
-12.566
7.401
30.685
57.185
88.111
124.757
167.726
215.991
264.509
307.526
339.28
352.661
342.986
306.709
241.789
152.205
44.989
-72.961
-195.418
-321.317
-450.083
-573.059
-687.717
-793.886
-863.452
-872.466
-845.838
-812.946
-771.299
-717.399
-657.312
-592.22
-521.577
-447.809
-374.36
-305.639
-245.359
-195.094
-155.489
-125.888
-104.542
-90.402
-82.303
-78.169
-76.151
-74.456
-71.355
-66.334
-59.637
-51.375
-41.987
-32.274
-22.914
-14.818
-8.907
-5.365
-3.975
-4.405
-6.109
-8.552
-11.283
-13.728
-15.318
-15.786
-15.048
-13.159
-10.297
-6.594
-2.157
2.862
8.3
14.009
19.86
25.742
31.57
37.242
42.649
47.686
52.253
56.295
59.792
62.757
65.221
67.223
68.81
70.036
70.968
71.671
72.209
72.639
73.012
73.382
73.805
74.338
75.033
75.927
77.044
78.396
79.988
81.822
83.896
86.202
88.726
91.455
94.379
97.489
100.775
104.227
107.829
111.564
115.414
119.362
123.391
127.483
131.619
135.78
139.946
144.099
148.219
152.287
156.279
160.174
163.948
167.579
171.046
174.327
177.401
180.248
182.851
185.192
187.256
189.03
190.501
191.658
192.491
192.993
193.157
192.98
192.457
191.589
190.375
188.819
186.923
184.695
182.14
179.27
176.093
172.623
168.872
164.856
160.59
156.091
151.378
146.469
141.383
136.141
130.763
125.27
119.684
114.025
108.315
102.576
96.826
91.086
85.377
79.717
74.124
68.616
63.21
57.921
52.765
47.756
42.906
38.227
33.73
29.423
25.315
21.413
17.721
14.245
10.987
7.949
5.131
2.532
0.151
-2.014
-3.969
-5.718
-7.267
-8.622
-9.792
-10.783
-11.605
-12.268
-12.78
-13.153
-13.396
-13.519
-13.535
-13.453
-13.284
-13.039
-12.729
-12.363
-11.952
-11.506
-11.033
-10.544
-10.046
-9.548
-9.057
-8.581
-8.125
-7.697
-7.301
-6.942
-6.624
-6.352
-6.128
-5.955
-5.836
-5.77
-5.761
-5.808
-5.911
-6.069
-6.281
-6.546
-6.862
-7.226
-7.634
-8.085
-8.573
-9.096
-9.649
-10.228
-10.828
-11.445
-12.074
-12.71
-13.347
-13.979
-14.603
-15.211
-15.799
-16.36
-16.891
-17.384
-17.834
-18.237
-18.587
-18.879
-19.107
-19.268
-19.357
-19.37
-19.303
-19.154
-18.92
-18.601
-18.195
-17.704
-17.129
-16.471
-15.734
-14.92
-14.032
-13.074
-12.051
-10.968
-9.829
-8.64
-7.407
-6.139
-4.844
-3.531
-2.21
-0.887
0.427
1.723
2.99
4.22
5.406
6.539
7.611
8.613
9.532
10.359
11.093
11.734
12.283
12.746
13.127
13.439
13.701
13.931
14.146
14.361
14.583
14.823
15.093
15.409
15.79
16.245
16.771
17.362
18.008
18.694
19.398
20.08
20.676
21.125
21.365
21.329
20.966
20.216
19.024
17.35
15.147
12.371
8.99
4.981
0.326
-4.944
-10.81
-17.278
-24.214
-31.4
-38.531
-45.153
-50.894
-55.523
-58.713
-60.065
-59.503
-57.162
-53.479
-49.371
-45.414
-41.871
-39.312
-38.25
-38.79
-40.401
-41.418
-39.685
-33.758
-23.652
-10.684
4.429
21.514
41.68
68.515
104.173
149.494
204.091
262.026
315.398
355.9
373.644
362.441
320.247
248.673
154.55
46.808
-67.514
-185.418
-307.202
-433.883
-562.332
-682.389
-780.916
-846.647
-875.001
-870.596
-843.254
-802.408
-753.377
-696.361
-628.8
-550.065
-463.912
-377.56
-299.425
-235.268
-186.044
-149.012
-120.428
-97.57
-79.797
-68.084
-62.219
-60.597
-60.941
-60.455
-57.749
-52.856
-46.028
-37.817
-29.016
-20.29
-12.554
-6.87
-3.593
-2.581
-3.517
-5.849
-9.031
-12.602
-15.961
-18.465
-19.787
-19.82
-18.601
-16.319
-13.111
-9.083
-4.393
0.78
6.279
11.968
17.735
23.502
29.168
34.619
39.745
44.442
48.648
52.344
55.536
58.256
60.54
62.431
63.987
65.273
66.354
67.291
68.14
68.949
69.771
70.659
71.667
72.848
74.237
75.854
77.709
79.804
82.134
84.696
87.476
90.455
93.617
96.945
100.428
104.053
107.804
111.664
115.611
119.626
123.687
127.777
131.875
135.961
140.016
144.018
147.948
151.789
155.52
159.12
162.567
165.839
168.916
171.777
174.404
176.777
178.879
180.694
182.21
183.412
184.291
184.837
185.043
184.902
184.41
183.564
182.363
180.808
178.901
176.646
174.048
171.114
167.854
164.278
160.397
156.224
151.774
147.064
142.108
136.926
131.536
125.958
120.211
114.317
108.296
102.171
95.962
89.692
83.382
77.054
70.729
64.428
58.169
51.974
45.86
39.846
33.948
28.184
22.567
17.113
11.835
6.745
1.854
-2.829
-7.294
-11.535
-15.546
-19.322
-22.859
-26.157
-29.214
-32.031
-34.609
-36.951
-39.062
-40.946
-42.61
-44.061
-45.305
-46.353
-47.213
-47.895
-48.41
-48.769
-48.982
-49.061
-49.019
-48.865
-48.613
-48.273
-47.859
-47.38
-46.849
-46.277
-45.674
-45.051
-44.418
-43.784
-43.158
-42.549
-41.963
-41.409
-40.892
-40.419
-39.994
-39.623
-39.309
-39.056
-38.867
-38.743
-38.687
-38.7
-38.781
-38.932
-39.151
-39.438
-39.792
-40.211
-40.694
-41.237
-41.84
-42.498
-43.208
-43.966
-44.77
-45.613
-46.492
-47.403
-48.339
-49.297
-50.271
-51.257
-52.248
-53.241
-54.23
-55.209
-56.173
-57.116
-58.033
-58.918
-59.766
-60.571
-61.328
-62.031
-62.676
-63.258
-63.771
-64.21
-64.572
-64.851
-65.043
-65.145
-65.154
-65.066
-64.882
-64.598
-64.216
-63.736
-63.16
-62.49
-61.729
-60.88
-59.947
-58.934
-57.847
-56.689
-55.466
-54.184
-52.85
-51.471
-50.055
-48.611
-47.148
-45.673
-44.196
-42.728
-41.278
-39.854
-38.461
-37.105
-35.793
-34.533
-33.337
-32.211
-31.155
-30.17
-29.256
-28.413
-27.634
-26.909
-26.215
-25.53
-24.838
-24.128
-23.397
-22.639
-21.842
-20.994
-20.083
-19.101
-18.057
-16.957
-15.799
-14.593
-13.362
-12.147
-11.025
-10.074
-9.357
-8.928
-8.831
-9.095
-9.773
-10.925
-12.601
-14.852
-17.701
-21.148
-25.23
-30.004
-35.425
-41.339
-47.441
-53.292
-58.529
-62.918
-66.188
-68.001
-68.161
-66.722
-64.085
-61.045
-58.306
-56.145
-54.812
-54.744
-56.12
-58.805
-61.856
-63.127
-60.717
-53.625
-41.777
-26.252
-7.846
13.694
39.28
70.772
109.585
154.881
204.373
253.979
297.908
331.533
349.767
345.991
315.952
257.037
169.898
61.724
-60.428
-191.498
-326.859
-464.419
-598.024
-716.002
-806.573
-859.442
-872.361
-851.5
-806.327
-748.129
-683.871
-616.299
-546.983
-474.889
-401.105
-328.874
-261.11
-202.268
-154.912
-119.067
-93.997
-77.477
-67.479
-62.241
-59.674
-57.84
-54.904
-49.841
-42.629
-33.644
-23.416
-12.7
-2.256
7
13.994
18.292
20.02
19.525
17.383
14.156
10.319
6.466
3.256
1.09
0.13
0.392
1.728
4.013
7.164
11.042
15.483
20.336
25.46
30.739
36.09
41.418
46.615
51.576
56.196
60.389
64.111
67.353
70.127
72.463
74.4
75.984
77.273
78.336
79.24
80.046
80.81
81.581
82.411
83.354
84.462
85.781
87.341
89.159
91.242
93.591
96.204
99.074
102.187
105.524
109.066
112.799
116.706
120.775
124.987
129.322
133.757
138.27
142.84
147.444
152.062
156.67
161.247
165.769
170.216
174.566
178.798
182.887
186.811
190.547
194.072
197.365
200.406
203.175
205.654
207.828
209.681
211.203
212.382
213.21
213.678
213.783
213.519
212.887
211.885
210.516
208.783
206.693
204.252
201.471
198.358
194.928
191.194
187.171
182.876
178.326
173.541
168.539
163.341
157.969
152.444
146.789
141.026
135.178
129.268
123.319
117.353
111.392
105.458
99.571
93.752
88.019
82.392
76.888
71.523
66.313
61.273
56.415
51.751
47.292
43.047
39.025
35.23
31.67
28.347
25.264
22.423
19.822
17.462
15.338
13.449
11.788
10.351
9.13
8.117
7.305
6.684
6.244
5.975
5.867
5.907
6.085
6.389
6.806
7.326
7.937
8.625
9.381
10.191
11.046
11.935
12.847
13.771
14.7
15.624
16.535
17.424
18.286
19.112
19.899
20.639
21.329
21.965
22.542
23.057
23.509
23.894
24.212
24.46
24.639
24.747
24.785
24.753
24.652
24.481
24.243
23.939
23.571
23.14
22.649
22.1
21.496
20.84
20.134
19.383
18.589
17.757
16.889
15.99
15.064
14.115
13.146
12.162
11.166
10.164
9.159
8.156
7.16
6.175
5.206
4.258
3.337
2.448
1.594
0.782
0.017
-0.696
-1.352
-1.947
-2.476
-2.933
-3.316
-3.621
-3.845
-3.986
-4.043
-4.015
-3.903
-3.708
-3.432
-3.077
-2.647
-2.145
-1.575
-0.941
-0.249
0.497
1.292
2.128
2.999
3.895
4.809
5.732
6.654
7.568
8.464
9.33
10.158
10.94
11.671
12.342
12.944
13.465
13.896
14.237
14.489
14.654
14.735
14.738
14.674
14.565
14.43
14.29
14.156
14.036
13.937
13.867
13.845
13.89
14.009
14.199
14.449
14.748
15.083
15.438
15.767
16.006
16.084
15.925
15.481
14.711
13.572
12.035
10.05
7.554
4.511
0.891
-3.314
-8.083
-13.429
-19.398
-25.911
-32.761
-39.646
-46.142
-51.906
-56.731
-60.335
-62.321
-62.46
-60.851
-57.889
-54.287
-50.784
-47.76
-45.535
-44.825
-45.764
-47.489
-49.041
-48.965
-46.456
-42.68
-37.824
-30.227
-17.318
4.748
37.924
80.748
130.003
181.517
231.392
275.907
311.315
333.198
336.745
318.886
278.225
215.967
135.123
38.211
-73.067
-198.707
-337.216
-482.558
-623.896
-745.759
-834.309
-882.913
-892.69
-872.16
-831.621
-777.467
-712.685
-638.019
-554.849
-468.593
-386.51
-314.514
-255.993
-209.956
-172.717
-141.831
-115.966
-95.399
-81.681
-74.212
-71
-69.651
-67.306
-62.717
-56.046
-47.614
-37.981
-27.901
-18.025
-9.243
-2.651
1.34
2.86
2.219
-0.036
-3.358
-7.29
-11.237
-14.529
-16.773
-17.809
-17.623
-16.365
-14.16
-11.091
-7.296
-2.94
1.831
6.877
12.086
17.375
22.656
27.818
32.759
37.375
41.577
45.323
48.603
51.43
53.837
55.861
57.547
58.954
60.151
61.202
62.169
63.107
64.062
65.087
66.234
67.554
69.094
70.885
72.941
75.27
77.871
80.742
83.874
87.252
90.856
94.667
98.669
102.845
107.18
111.657
116.253
120.945
125.71
130.525
135.367
140.215
145.043
149.83
154.55
159.183
163.706
168.097
172.331
176.384
180.233
183.854
187.227
190.33
193.144
195.65
197.832
199.676
201.17
202.303
203.066
203.451
203.455
203.073
202.304
201.148
199.608
197.689
195.395
192.735
189.719
186.358
182.665
178.656
174.346
169.752
164.895
159.793
154.467
148.94
143.233
137.37
131.375
125.272
119.084
112.836
106.552
100.257
93.972
87.722
81.528
75.412
69.394
63.495
57.733
52.126
46.691
41.444
36.399
31.569
26.966
22.601
18.482
14.616
11.01
7.668
4.593
1.787
-0.75
-3.019
-5.022
-6.764
-8.249
-9.484
-10.475
-11.232
-11.764
-12.079
-12.191
-12.108
-11.845
-11.412
-10.823
-10.091
-9.229
-8.251
-7.171
-6.001
-4.755
-3.448
-2.09
-0.695
0.724
2.157
3.592
5.018
6.426
7.806
9.149
10.447
11.694
12.881
14.004
15.057
16.035
16.936
17.756
18.492
19.142
19.706
20.182
20.57
20.871
21.084
21.21
21.252
21.21
21.088
20.886
20.609
20.259
19.838
19.351
18.8
18.188
17.52
16.8
16.03
15.217
14.362
13.473
12.552
11.604
10.635
9.648
8.648
7.64
6.628
5.616
4.61
3.613
2.632
1.669
0.731
-0.178
-1.053
-1.888
-2.681
-3.424
-4.115
-4.748
-5.319
-5.823
-6.256
-6.613
-6.892
-7.087
-7.197
-7.22
-7.153
-6.996
-6.749
-6.413
-5.991
-5.484
-4.895
-4.228
-3.488
-2.678
-1.804
-0.87
0.117
1.153
2.229
3.339
4.474
5.626
6.786
7.946
9.094
10.222
11.318
12.375
13.386
14.345
15.243
16.073
16.821
17.483
18.055
18.536
18.927
19.227
19.442
19.584
19.674
19.736
19.786
19.835
19.889
19.956
20.044
20.17
20.349
20.586
20.876
21.217
21.604
22.034
22.49
22.927
23.274
23.454
23.405
23.083
22.458
21.498
20.157
18.375
16.097
13.288
9.924
5.998
1.473
-3.729
-9.572
-15.887
-22.377
-28.63
-34.319
-39.255
-43.212
-45.867
-47.046
-46.787
-45.486
-43.912
-42.616
-41.816
-41.605
-42.072
-43.363
-45.416
-47.536
-48.431
-46.572
-40.501
-29.394
-13.029
7.705
30.883
54.784
78.667
104.642
135.77
173.853
218.428
263.707
302.528
328.328
334.093
316.268
273.068
204.464
115.288
11.811
-100.485
-217.796
-339.002
-462.287
-581.355
-685.744
-764.148
-808.979
-820.018
-803.234
-766.267
-715.449
-654.358
-585.094
-511.331
-437.675
-368.253
-305.965
-250.977
-202.639
-161.044
-126.788
-101.003
-83.965
-74.671
-70.957
-70.04
-69.588
-67.801
-63.844
-57.795
-49.924
-40.675
-30.823
-21.152
-12.569
-6.061
-1.994
-0.274
-0.624
-2.527
-5.46
-8.953
-12.435
-15.311
-17.234
-18.054
-17.762
-16.487
-14.337
-11.398
-7.803
-3.704
0.761
5.474
10.34
15.285
20.23
25.076
29.726
34.089
38.086
41.671
44.831
47.575
49.925
51.919
53.596
55.01
56.222
57.293
58.276
59.222
60.172
61.175
62.278
63.527
64.967
66.625
68.517
70.649
73.022
75.633
78.474
81.531
84.784
88.214
91.804
95.54
99.405
103.384
107.454
111.594
115.781
119.994
124.213
128.414
132.577
136.679
140.699
144.617
148.412
152.063
155.548
158.845
161.932
164.789
167.396
169.733
171.783
173.529
174.957
176.053
176.808
177.212
177.257
176.938
176.251
175.193
173.765
171.968
169.804
167.28
164.401
161.175
157.613
153.726
149.526
145.029
140.248
135.202
129.909
124.387
118.656
112.737
106.652
100.423
94.071
87.621
81.094
74.514
67.903
61.285
54.681
48.114
41.604
35.171
28.836
22.616
16.53
10.593
4.823
-0.766
-6.162
-11.351
-16.323
-21.067
-25.576
-29.841
-33.858
-37.62
-41.126
-44.374
-47.361
-50.091
-52.563
-54.782
-56.751
-58.476
-59.963
-61.22
-62.254
-63.075
-63.692
-64.115
-64.355
-64.424
-64.332
-64.092
-63.716
-63.215
-62.602
-61.889
-61.088
-60.21
-59.268
-58.273
-57.235
-56.167
-55.077
-53.976
-52.873
-51.777
-50.696
-49.638
-48.609
-47.616
-46.664
-45.758
-44.904
-44.105
-43.363
-42.683
-42.066
-41.514
-41.028
-40.609
-40.256
-39.971
-39.753
-39.6
-39.511
-39.486
-39.523
-39.619
-39.772
-39.979
-40.238
-40.546
-40.898
-41.291
-41.721
-42.183
-42.675
-43.191
-43.727
-44.279
-44.843
-45.413
-45.987
-46.559
-47.124
-47.679
-48.219
-48.738
-49.234
-49.7
-50.134
-50.53
-50.884
-51.193
-51.45
-51.653
-51.797
-51.879
-51.894
-51.84
-51.713
-51.513
-51.236
-50.884
-50.455
-49.951
-49.374
-48.726
-48.01
-47.23
-46.389
-45.491
-44.541
-43.544
-42.504
-41.426
-40.317
-39.184
-38.035
-36.877
-35.719
-34.567
-33.431
-32.319
-31.24
-30.203
-29.214
-28.277
-27.401
-26.594
-25.867
-25.228
-24.677
-24.213
-23.833
-23.533
-23.306
-23.14
-23.014
-22.905
-22.794
-22.667
-22.517
-22.338
-22.118
-21.842
-21.489
-21.051
-20.532
-19.94
-19.29
-18.591
-17.864
-17.154
-16.53
-16.061
-15.825
-15.871
-16.238
-16.969
-18.097
-19.672
-21.754
-24.38
-27.583
-31.367
-35.713
-40.626
-46.13
-52.142
-58.459
-64.777
-70.69
-75.879
-80.143
-83.237
-84.832
-84.702
-82.9
-79.825
-76.153
-72.48
-69.122
-66.35
-64.633
-64.432
-65.424
-66.279
-65.415
-61.282
-53.616
-43.859
-32.553
-19.032
-2.16
20.898
52.646
92.778
140.566
193.764
246.35
292.332
324.372
333.004
312.694
262.036
183.975
87.838
-16.284
-123.01
-231.141
-343.136
-461.178
-580.072
-688.528
-773.839
-825.668
-841.998
-828.731
-794.664
-748.467
-695.606
-637.732
-574.95
-507.682
-437.609
-367.867
-302.598
-245.397
-198.015
-160.753
-132.71
-112.365
-98.796
-90.811
-86.457
-83.723
-80.601
-75.864
-69.403
-61.486
-52.359
-42.505
-32.639
-23.672
-16.749
-12.447
-10.675
-11.132
-13.305
-16.668
-20.763
-24.991
-28.658
-31.324
-32.804
-33.064
-32.242
-30.464
-27.8
-24.384
-20.371
-15.9
-11.108
-6.102
-0.967
4.197
9.278
14.166
18.75
22.939
26.686
29.973
32.814
35.242
37.297
39.025
40.481
41.731
42.841
43.872
44.879
45.914
47.029
48.279
49.719
51.397
53.345
55.58
58.11
60.933
64.047
67.442
71.105
75.013
79.147
83.491
88.027
92.74
97.609
102.612
107.724
112.919
118.173
123.463
128.762
134.045
139.288
144.464
149.551
154.523
159.357
164.026
168.505
172.768
176.792
180.553
184.03
187.202
190.051
192.559
194.713
196.5
197.91
198.934
199.566
199.801
199.637
199.074
198.114
196.76
195.017
192.893
190.399
187.546
184.347
180.817
176.973
172.833
168.417
163.745
158.84
153.722
148.416
142.946
137.336
131.611
125.795
119.914
113.991
108.052
102.119
96.216
90.365
84.587
78.903
73.331
67.891
62.599
57.471
52.523
47.766
43.214
38.878
34.765
30.885
27.242
23.843
20.691
17.787
15.133
12.727
10.569
8.654
6.979
5.539
4.327
3.336
2.557
1.983
1.603
1.407
1.384
1.525
1.816
2.248
2.807
3.482
4.263
5.135
6.089
7.113
8.196
9.327
10.495
11.691
12.905
14.129
15.353
16.571
17.774
18.956
20.11
21.232
22.316
23.356
24.35
25.293
26.182
27.015
27.789
28.502
29.154
29.743
30.269
30.732
31.131
31.467
31.74
31.951
32.102
32.193
32.225
32.201
32.121
31.987
31.8
31.563
31.277
30.943
30.563
30.139
29.673
29.166
28.621
28.039
27.422
26.774
26.096
25.391
24.663
23.914
23.148
22.369
21.58
20.785
19.987
19.191
18.401
17.62
16.853
16.105
15.38
14.682
14.016
13.386
12.797
12.254
11.761
11.321
10.941
10.624
10.373
10.194
10.09
10.063
10.117
10.255
10.477
10.786
11.18
11.659
12.222
12.866
13.587
14.382
15.245
16.171
17.154
18.188
19.265
20.38
21.524
22.69
23.87
25.055
26.236
27.402
28.546
29.657
30.727
31.747
32.704
33.592
34.406
35.141
35.791
36.349
36.804
37.152
37.395
37.536
37.575
37.52
37.375
37.157
36.888
36.595
36.294
36.002
35.724
35.467
35.248
35.085
34.996
34.992
35.066
35.211
35.431
35.717
36.047
36.383
36.648
36.764
36.677
36.339
35.714
34.779
33.482
31.762
29.572
26.858
23.603
19.818
15.467
10.497
4.956
-1.007
-7.091
-12.86
-17.979
-22.231
-25.364
-27.064
-27.123
-25.589
-22.867
-19.724
-16.858
-14.569
-13.117
-12.962
-14.379
-17.289
-20.647
-22.343
-20.639
-14.471
-4.149
8.974
25.019
44.272
67.973
99.19
138.079
184.052
235.676
286.46
330.206
360.328
368.099
349.161
302.411
229.662
138.968
38.921
-65.276
-171.458
-282.452
-400.889
-523.168
-639.941
-737.088
-802.146
-830.57
-825.512
-796.235
-752.591
-700.284
-641.621
-576.26
-503.962
-427.286
-349.994
-276.638
-211.601
-157.134
-114.198
-82.738
-61.409
-48.727
-43.168
-42.463
-44.364
-46.849
-47.973
-46.807
-43.325
-37.724
-30.523
-22.59
-14.746
-7.916
-3.059
-0.46
0.059
-1.172
-3.592
-6.636
-9.819
-12.56
-14.314
-14.835
-14.073
-12.105
-9.122
-5.272
-0.679
4.48
10.025
15.795
21.654
27.5
33.244
38.782
44.001
48.794
53.093
56.874
60.139
62.913
65.233
67.14
68.69
69.95
70.987
71.862
72.636
73.361
74.093
74.889
75.807
76.899
78.207
79.751
81.546
83.596
85.901
88.455
91.249
94.265
97.488
100.906
104.505
108.273
112.196
116.255
120.43
124.701
129.046
133.447
137.881
142.329
146.769
151.179
155.538
159.827
164.023
168.102
172.041
175.815
179.402
182.779
185.925
188.818
191.44
193.773
195.8
197.508
198.883
199.915
200.595
200.913
200.866
200.447
199.655
198.49
196.952
195.045
192.774
190.145
187.167
183.85
180.207
176.25
171.996
167.459
162.659
157.613
152.341
146.864
141.204
135.381
129.42
123.342
117.17
110.928
104.638
98.323
92.005
85.705
79.445
73.245
67.124
61.103
55.199
49.43
43.813
38.361
33.091
28.015
23.144
18.49
14.062
9.867
5.912
2.201
-1.26
-4.472
-7.431
-10.14
-12.599
-14.811
-16.782
-18.515
-20.018
-21.297
-22.36
-23.217
-23.876
-24.347
-24.642
-24.77
-24.745
-24.576
-24.277
-23.858
-23.334
-22.716
-22.015
-21.246
-20.418
-19.545
-18.638
-17.706
-16.762
-15.814
-14.872
-13.944
-13.039
-12.163
-11.322
-10.523
-9.769
-9.066
-8.417
-7.825
-7.291
-6.818
-6.407
-6.058
-5.772
-5.547
-5.384
-5.281
-5.237
-5.25
-5.318
-5.438
-5.608
-5.825
-6.086
-6.389
-6.729
-7.104
-7.51
-7.945
-8.405
-8.888
-9.391
-9.912
-10.449
-11
-11.564
-12.139
-12.724
-13.319
-13.921
-14.531
-15.148
-15.77
-16.397
-17.028
-17.661
-18.297
-18.934
-19.57
-20.206
-20.839
-21.468
-22.091
-22.707
-23.314
-23.909
-24.491
-25.058
-25.606
-26.134
-26.639
-27.118
-27.567
-27.983
-28.363
-28.701
-28.995
-29.24
-29.431
-29.566
-29.64
-29.651
-29.596
-29.472
-29.28
-29.019
-28.69
-28.293
-27.829
-27.3
-26.708
-26.057
-25.348
-24.586
-23.773
-22.916
-22.022
-21.098
-20.152
-19.193
-18.227
-17.265
-16.314
-15.385
-14.485
-13.622
-12.805
-12.045
-11.351
-10.739
-10.218
-9.79
-9.459
-9.221
-9.071
-9.002
-9.001
-9.049
-9.131
-9.233
-9.344
-9.46
-9.571
-9.665
-9.727
-9.742
-9.696
-9.59
-9.429
-9.219
-8.984
-8.753
-8.558
-8.455
-8.498
-8.723
-9.175
-9.894
-10.913
-12.274
-14.019
-16.167
-18.749
-21.793
-25.314
-29.336
-33.847
-38.793
-44.141
-49.869
-55.888
-62.035
-68.03
-73.479
-78.048
-81.512
-83.607
-83.981
-82.414
-79.002
-74.215
-68.84
-63.616
-58.985
-55.351
-53.387
-53.662
-55.666
-57.828
-58.356
-55.41
-49.118
-41.269
-31.481
-18.348
0.913
30.746
71.875
121.822
176.871
231.282
280.284
320.608
347.667
355.772
338.842
291.899
215.627
116.203
2.603
-115.997
-237.667
-362.627
-485.093
-609.124
-737.436
-833.953
-864.323
-852.331
-831.391
-799.15
-751.728
-697.804
-637.525
-566.281
-485.855
-401.228
-320.175
-251.027
-197.637
-159.932
-134.451
-116.404
-102.909
-93.126
-87.125
-84.549
-83.881
-82.901
-79.889
-74.419
-66.839
-57.766
-48.103
-38.632
-30.195
-23.807
-19.863
-18.235
-18.609
-20.439
-23.176
-26.366
-29.428
-31.732
-32.944
-32.945
-31.755
-29.547
-26.451
-22.563
-18.041
-13.062
-7.781
-2.334
3.18
8.69
14.1
19.301
24.19
28.662
32.667
36.183
39.213
41.784
43.93
45.696
47.139
48.33
49.333
50.213
51.028
51.826
52.663
53.596
54.679
55.968
57.498
59.293
61.366
63.722
66.361
69.28
72.467
75.905
79.578
83.471
87.571
91.864
96.334
100.96
105.721
110.594
115.557
120.586
125.66
130.754
135.846
140.909
145.922
150.862
155.704
160.422
164.992
169.387
173.582
177.554
181.279
184.734
187.899
190.755
193.286
195.475
197.311
198.781
199.876
200.588
200.912
200.844
200.382
199.527
198.28
196.647
194.633
192.246
189.497
186.397
182.958
179.197
175.129
170.772
166.146
161.269
156.164
150.851
145.353
139.694
133.897
127.985
121.983
115.914
109.802
103.67
97.541
91.435
85.376
79.383
73.476
67.673
61.991
56.449
51.06
45.84
40.802
35.956
31.315
26.886
22.678
18.698
14.95
11.438
8.165
5.132
2.339
-0.215
-2.533
-4.619
-6.476
-8.111
-9.53
-10.741
-11.752
-12.571
-13.209
-13.674
-13.977
-14.129
-14.141
-14.022
-13.786
-13.442
-13.001
-12.474
-11.872
-11.206
-10.485
-9.719
-8.917
-8.09
-7.244
-6.388
-5.53
-4.676
-3.833
-3.007
-2.203
-1.425
-0.678
0.034
0.71
1.345
1.939
2.49
2.996
3.458
3.875
4.246
4.573
4.856
5.096
5.295
5.453
5.572
5.653
5.698
5.709
5.687
5.635
5.553
5.444
5.309
5.15
4.969
4.767
4.545
4.304
4.045
3.77
3.478
3.171
2.848
2.511
2.159
1.792
1.411
1.015
0.603
0.177
-0.266
-0.724
-1.198
-1.687
-2.193
-2.713
-3.248
-3.797
-4.359
-4.932
-5.517
-6.111
-6.713
-7.323
-7.938
-8.556
-9.176
-9.795
-10.411
-11.021
-11.622
-12.212
-12.787
-13.344
-13.88
-14.391
-14.873
-15.322
-15.735
-16.108
-16.436
-16.716
-16.943
-17.116
-17.231
-17.287
-17.281
-17.212
-17.083
-16.892
-16.643
-16.337
-15.976
-15.561
-15.097
-14.587
-14.035
-13.443
-12.816
-12.16
-11.482
-10.79
-10.091
-9.393
-8.704
-8.032
-7.385
-6.772
-6.199
-5.674
-5.205
-4.801
-4.47
-4.225
-4.072
-4.014
-4.049
-4.172
-4.376
-4.653
-4.988
-5.363
-5.762
-6.17
-6.577
-6.973
-7.349
-7.689
-7.978
-8.198
-8.336
-8.391
-8.367
-8.275
-8.134
-7.968
-7.809
-7.704
-7.7
-7.835
-8.15
-8.685
-9.478
-10.572
-12.011
-13.823
-16.042
-18.702
-21.82
-25.42
-29.51
-34.046
-39.013
-44.42
-50.158
-56.049
-61.821
-67.023
-71.293
-74.438
-76.14
-76.038
-74.105
-70.49
-65.718
-60.867
-56.665
-53.383
-51.528
-51.535
-53.296
-56.576
-59.951
-60.625
-56.872
-47.54
-32.511
-13.575
8.605
33.852
62.711
97.788
139.661
187.765
239.98
289.789
331.207
357.258
359.751
334.43
279.042
196.41
94.728
-17.871
-135.013
-255.67
-381.197
-509.939
-635.27
-743.478
-820.592
-859.72
-862.128
-837.736
-798.449
-750.883
-696.502
-632.772
-557.853
-475.056
-391.435
-315.237
-252.33
-203.825
-167.121
-138.671
-115.903
-98.091
-86.078
-79.69
-77.391
-77
-75.837
-72.529
-67.09
-59.821
-51.273
-42.198
-33.226
-25.218
-19.206
-15.55
-14.122
-14.619
-16.503
-19.244
-22.4
-25.388
-27.575
-28.635
-28.452
-27.05
-24.608
-21.26
-17.109
-12.315
-7.063
-1.513
4.195
9.954
15.688
21.296
26.67
31.704
36.297
40.396
43.984
47.064
49.666
51.828
53.594
55.025
56.188
57.15
57.975
58.721
59.438
60.181
61.004
61.964
63.113
64.488
66.109
67.991
70.137
72.547
75.218
78.138
81.292
84.663
88.238
92.005
95.952
100.062
104.318
108.699
113.183
117.75
122.379
127.049
131.738
136.424
141.084
145.698
150.243
154.699
159.04
163.243
167.284
171.139
174.787
178.205
181.371
184.268
186.876
189.18
191.165
192.819
194.131
195.091
195.692
195.928
195.794
195.29
194.415
193.171
191.561
189.59
187.266
184.599
181.598
178.277
174.648
170.728
166.532
162.08
157.388
152.478
147.37
142.084
136.644
131.071
125.387
119.616
113.781
107.904
102.007
96.112
90.241
84.414
78.652
72.972
67.395
61.938
56.616
51.446
46.442
41.617
36.984
32.552
28.331
24.33
20.555
17.011
13.702
10.631
7.799
5.206
2.851
0.732
-1.155
-2.815
-4.254
-5.477
-6.494
-7.312
-7.941
-8.39
-8.671
-8.792
-8.767
-8.607
-8.322
-7.926
-7.43
-6.845
-6.184
-5.459
-4.681
-3.86
-3.008
-2.136
-1.252
-0.367
0.511
1.374
2.215
3.026
3.802
4.537
5.225
5.864
6.45
6.979
7.45
7.862
8.214
8.505
8.736
8.908
9.022
9.08
9.084
9.037
8.94
8.798
8.613
8.388
8.129
7.837
7.518
7.174
6.81
6.429
6.034
5.63
5.22
4.806
4.391
3.978
3.57
3.168
2.774
2.391
2.019
1.659
1.311
0.978
0.657
0.35
0.056
-0.225
-0.493
-0.749
-0.993
-1.225
-1.445
-1.654
-1.852
-2.039
-2.216
-2.383
-2.54
-2.687
-2.825
-2.953
-3.07
-3.176
-3.271
-3.352
-3.419
-3.472
-3.507
-3.524
-3.52
-3.493
-3.441
-3.361
-3.25
-3.106
-2.924
-2.703
-2.439
-2.131
-1.776
-1.374
-0.923
-0.425
0.121
0.711
1.346
2.023
2.741
3.496
4.286
5.108
5.959
6.836
7.733
8.643
9.56
10.477
11.387
12.282
13.156
14
14.808
15.572
16.286
16.943
17.535
18.053
18.485
18.823
19.066
19.216
19.275
19.251
19.15
18.987
18.782
18.549
18.303
18.055
17.81
17.58
17.379
17.22
17.123
17.097
17.142
17.255
17.429
17.644
17.882
18.106
18.263
18.308
18.2
17.896
17.356
16.538
15.389
13.872
11.96
9.624
6.841
3.583
-0.173
-4.435
-9.166
-14.34
-19.947
-25.882
-31.962
-37.912
-43.299
-47.753
-51.058
-52.91
-52.948
-51.151
-47.686
-43.011
-38.138
-33.759
-30.129
-27.822
-27.341
-28.585
-31.337
-34.305
-34.864
-31.408
-22.842
-8.821
9.276
30.743
55.229
83.389
117.498
158.879
207.975
261.899
313.785
355.715
378.252
373.617
338.133
272.223
182.158
77.446
-33.18
-145.227
-260.036
-380.243
-504.824
-625.692
-727.996
-798.006
-829.366
-824.565
-794.096
-749.465
-697.449
-640.807
-578.782
-510.225
-437.222
-363.272
-292.692
-229.897
-177.07
-134.997
-103.574
-81.423
-67.087
-59.199
-55.713
-54.59
-54.003
-52.174
-48.267
-42.321
-34.572
-25.524
-16.015
-6.812
1.204
7.088
10.546
11.733
10.961
8.77
5.715
2.266
-0.997
-3.478
-4.877
-5.09
-4.142
-2.196
0.629
4.238
8.482
13.196
18.236
23.476
28.816
34.185
39.482
44.599
49.43
53.869
57.86
61.382
64.436
67.049
69.256
71.097
72.629
73.916
75.022
76.009
76.93
77.833
78.771
79.797
80.967
82.335
83.936
85.792
87.916
90.311
92.974
95.904
99.086
102.501
106.134
109.969
113.992
118.19
122.548
127.044
131.659
136.368
141.15
145.985
150.851
155.724
160.582
165.402
170.164
174.845
179.424
183.876
188.178
192.305
196.233
199.94
203.405
206.606
209.524
212.141
214.442
216.411
218.038
219.31
220.219
220.757
220.918
220.7
220.101
219.119
217.757
216.018
213.908
211.435
208.605
205.431
201.924
198.097
193.965
189.545
184.854
179.91
174.732
169.342
163.759
158.006
152.105
146.077
139.946
133.733
127.462
121.154
114.831
108.514
102.225
95.981
89.805
83.712
77.723
71.852
66.115
60.528
55.105
49.856
44.794
39.929
35.27
30.824
26.598
22.596
18.823
15.281
11.973
8.897
6.053
3.439
1.051
-1.113
-3.06
-4.795
-6.325
-7.657
-8.798
-9.759
-10.546
-11.17
-11.641
-11.968
-12.161
-12.231
-12.188
-12.043
-11.805
-11.484
-11.091
-10.635
-10.126
-9.571
-8.981
-8.364
-7.727
-7.078
-6.425
-5.773
-5.13
-4.5
-3.89
-3.303
-2.743
-2.216
-1.723
-1.268
-0.854
-0.482
-0.155
0.127
0.362
0.548
0.687
0.777
0.818
0.81
0.754
0.651
0.5
0.303
0.06
-0.228
-0.559
-0.933
-1.347
-1.8
-2.291
-2.817
-3.376
-3.965
-4.583
-5.226
-5.892
-6.577
-7.278
-7.994
-8.719
-9.452
-10.187
-10.923
-11.654
-12.377
-13.088
-13.783
-14.457
-15.106
-15.726
-16.313
-16.862
-17.369
-17.83
-18.24
-18.595
-18.891
-19.124
-19.291
-19.389
-19.416
-19.37
-19.25
-19.055
-18.788
-18.449
-18.041
-17.567
-17.029
-16.431
-15.779
-15.076
-14.329
-13.541
-12.719
-11.87
-11.001
-10.123
-9.242
-8.368
-7.509
-6.675
-5.875
-5.12
-4.418
-3.776
-3.201
-2.701
-2.284
-1.962
-1.741
-1.622
-1.605
-1.685
-1.859
-2.123
-2.464
-2.862
-3.298
-3.753
-4.214
-4.677
-5.129
-5.561
-5.957
-6.298
-6.573
-6.787
-6.944
-7.051
-7.121
-7.163
-7.208
-7.315
-7.538
-7.937
-8.56
-9.435
-10.591
-12.058
-13.877
-16.103
-18.779
-21.931
-25.578
-29.722
-34.382
-39.617
-45.38
-51.493
-57.686
-63.575
-68.827
-73.247
-76.582
-78.484
-78.779
-77.538
-75.15
-72.384
-69.915
-68.059
-67.119
-67.474
-69.208
-72.105
-75.462
-77.758
-77.533
-73.63
-64.48
-49.044
-27.067
0.953
32.461
65.123
98.373
132.467
169.586
210.427
251.544
287.496
309.856
309.616
281.762
225.156
143.96
47.356
-55.92
-161.034
-267.772
-378.686
-493.852
-606.709
-704.723
-775.881
-814.27
-821.147
-804.659
-773.396
-731.014
-680.27
-622.625
-558.88
-493.777
-430.142
-368.535
-311.29
-258.846
-212.155
-173.86
-144.375
-123.359
-110.318
-103.143
-99.521
-97.531
-95.176
-91.367
-85.996
-79.141
-70.999
-62.081
-53.1
-44.951
-38.715
-34.93
-33.51
-34.166
-36.429
-39.796
-43.816
-47.919
-51.444
-53.972
-55.335
-55.512
-54.631
-52.811
-50.122
-46.685
-42.656
-38.175
-33.374
-28.365
-23.224
-18.039
-12.919
-7.965
-3.285
1.03
4.933
8.411
11.472
14.143
16.456
18.449
20.173
21.69
23.061
24.341
25.581
26.822
28.114
29.505
31.047
32.786
34.749
36.95
39.397
42.089
45.021
48.186
51.569
55.147
58.903
62.819
66.881
71.074
75.38
79.776
84.241
88.752
93.287
97.825
102.344
106.821
111.236
115.566
119.791
123.892
127.847
131.635
135.235
138.623
141.781
144.688
147.325
149.676
151.723
153.453
154.854
155.914
156.626
156.981
156.975
156.603
155.864
154.758
153.285
151.45
149.257
146.714
143.828
140.61
137.072
133.228
129.091
124.677
120.006
115.094
109.961
104.627
99.114
93.443
87.636
81.716
75.706
69.629
63.507
57.364
51.221
45.101
39.025
33.013
27.086
21.263
15.561
9.998
4.59
-0.648
-5.701
-10.558
-15.207
-19.636
-23.838
-27.805
-31.53
-35.008
-38.237
-41.213
-43.937
-46.408
-48.629
-50.601
-52.329
-53.818
-55.073
-56.103
-56.913
-57.514
-57.914
-58.123
-58.151
-58.008
-57.707
-57.257
-56.671
-55.96
-55.136
-54.209
-53.191
-52.093
-50.926
-49.701
-48.428
-47.116
-45.775
-44.414
-43.04
-41.662
-40.287
-38.922
-37.571
-36.241
-34.937
-33.663
-32.422
-31.219
-30.055
-28.934
-27.857
-26.825
-25.84
-24.903
-24.013
-23.172
-22.379
-21.634
-20.937
-20.287
-19.685
-19.128
-18.617
-18.151
-17.729
-17.351
-17.015
-16.721
-16.469
-16.257
-16.086
-15.956
-15.864
-15.811
-15.797
-15.82
-15.879
-15.974
-16.102
-16.262
-16.453
-16.673
-16.92
-17.192
-17.486
-17.8
-18.131
-18.477
-18.833
-19.196
-19.562
-19.926
-20.286
-20.635
-20.97
-21.286
-21.577
-21.838
-22.065
-22.251
-22.391
-22.48
-22.511
-22.48
-22.383
-22.213
-21.969
-21.647
-21.244
-20.76
-20.195
-19.549
-18.824
-18.021
-17.141
-16.187
-15.164
-14.075
-12.923
-11.714
-10.454
-9.151
-7.814
-6.452
-5.074
-3.69
-2.308
-0.939
0.405
1.717
2.987
4.205
5.362
6.445
7.439
8.333
9.126
9.814
10.4
10.889
11.284
11.599
11.854
12.064
12.245
12.409
12.561
12.714
12.883
13.084
13.338
13.658
14.041
14.483
14.979
15.51
16.058
16.587
17.04
17.365
17.518
17.453
17.13
16.506
15.53
14.157
12.363
10.116
7.393
4.183
0.463
-3.768
-8.475
-13.635
-19.221
-25.099
-31.069
-36.851
-42.044
-46.309
-49.432
-51.102
-50.962
-48.963
-45.295
-40.439
-35.231
-30.266
-25.742
-22.013
-19.625
-18.636
-18.702
-18.993
-17.663
-12.965
-4.056
10.135
29.696
52.855
78.327
104.502
131.243
161.56
197.673
240.588
287.691
331.769
364.349
376.084
359.421
311.244
233.634
133.615
20.918
-96.422
-215.89
-337.605
-461.091
-581.541
-687.414
-766.459
-811.061
-820.998
-803.053
-766.33
-717.614
-660.127
-595.883
-525.86
-452.392
-379.41
-309.084
-244.414
-187.888
-139.913
-101.8
-73.563
-53.926
-42.38
-37.087
-35.397
-35.18
-34.233
-31.312
-26.394
-19.673
-11.392
-2.131
7.303
15.913
22.548
26.658
28.349
27.948
25.951
22.876
19.196
15.505
12.475
10.52
9.79
10.284
11.849
14.35
17.695
21.746
26.328
31.284
36.48
41.809
47.192
52.542
57.753
62.727
67.364
71.584
75.346
78.637
81.474
83.885
85.911
87.597
88.999
90.183
91.214
92.15
93.045
93.945
94.9
95.962
97.18
98.6
100.251
102.15
104.304
106.714
109.377
112.286
115.429
118.785
122.337
126.071
129.97
134.022
138.208
142.51
146.905
151.372
155.89
160.438
164.995
169.54
174.051
178.507
182.887
187.171
191.338
195.366
199.232
202.915
206.393
209.646
212.655
215.4
217.864
220.033
221.893
223.432
224.641
225.51
226.032
226.202
226.018
225.476
224.579
223.326
221.723
219.772
217.483
214.862
211.919
208.667
205.116
201.283
197.18
192.826
188.236
183.429
178.424
173.24
167.898
162.417
156.82
151.125
145.355
139.531
133.673
127.801
121.936
116.096
110.3
104.566
98.911
93.351
87.902
82.579
77.394
72.362
67.492
62.796
58.283
53.961
49.838
45.918
42.207
38.707
35.422
32.353
29.498
26.858
24.43
22.21
20.195
18.38
16.758
15.323
14.067
12.982
12.061
11.292
10.669
10.179
9.814
9.563
9.415
9.362
9.391
9.493
9.658
9.875
10.135
10.428
10.746
11.078
11.418
11.756
12.086
12.4
12.693
12.958
13.19
13.384
13.537
13.645
13.703
13.711
13.667
13.567
13.413
13.202
12.936
12.615
12.238
11.808
11.326
10.792
10.21
9.581
8.907
8.19
7.434
6.64
5.81
4.949
4.058
3.14
2.197
1.232
0.248
-0.753
-1.769
-2.797
-3.836
-4.882
-5.933
-6.988
-8.044
-9.097
-10.147
-11.191
-12.226
-13.25
-14.261
-15.257
-16.236
-17.195
-18.132
-19.044
-19.93
-20.786
-21.61
-22.4
-23.152
-23.864
-24.533
-25.156
-25.73
-26.253
-26.721
-27.132
-27.482
-27.769
-27.989
-28.141
-28.222
-28.232
-28.168
-28.032
-27.823
-27.543
-27.194
-26.778
-26.298
-25.758
-25.161
-24.511
-23.814
-23.072
-22.292
-21.477
-20.635
-19.772
-18.897
-18.016
-17.138
-16.27
-15.421
-14.599
-13.813
-13.072
-12.381
-11.746
-11.173
-10.67
-10.25
-9.92
-9.679
-9.525
-9.455
-9.465
-9.547
-9.688
-9.866
-10.059
-10.244
-10.408
-10.544
-10.643
-10.696
-10.683
-10.584
-10.39
-10.103
-9.734
-9.296
-8.8
-8.264
-7.737
-7.287
-6.989
-6.921
-7.134
-7.668
-8.567
-9.863
-11.611
-13.872
-16.685
-20.083
-24.081
-28.666
-33.851
-39.667
-46.02
-52.697
-59.388
-65.656
-71.136
-75.599
-78.766
-80.29
-79.979
-77.91
-74.481
-70.449
-66.566
-63.197
-60.581
-59.186
-59.306
-60.757
-62.897
-64.026
-61.88
-55.11
-43.034
-25.932
-5.174
18.242
44.254
74.512
110.892
154.38
204.176
254.807
299.725
332.274
344.498
331.677
290.901
221.433
128.426
19.142
-99.879
-223.692
-350.829
-480.223
-606.034
-718.077
-805.013
-857.965
-875.632
-863.979
-831.247
-785.166
-730.56
-668.781
-600.344
-526.688
-450.266
-374.517
-303.761
-241.548
-189.607
-148.731
-118.353
-96.792
-82.972
-75.655
-72.672
-72.067
-71.941
-70.448
-66.992
-61.768
-54.854
-46.671
-38.025
-29.608
-22.348
-17.21
-14.396
-13.683
-14.758
-17.083
-20.126
-23.451
-26.48
-28.63
-29.635
-29.42
-28.043
-25.693
-22.507
-18.588
-14.094
-9.193
-4.036
1.245
6.55
11.81
16.934
21.826
26.39
30.533
34.208
37.409
40.149
42.465
44.399
45.994
47.312
48.42
49.385
50.27
51.13
52.012
52.967
54.046
55.302
56.784
58.525
60.541
62.842
65.428
68.296
71.441
74.848
78.496
82.369
86.448
90.718
95.164
99.768
104.507
109.359
114.298
119.301
124.344
129.404
134.456
139.476
144.438
149.319
154.097
158.747
163.243
167.561
171.675
175.561
179.197
182.56
185.629
188.384
190.809
192.887
194.606
195.953
196.919
197.495
197.676
197.458
196.839
195.819
194.4
192.586
190.385
187.803
184.852
181.542
177.888
173.905
169.61
165.02
160.155
155.036
149.684
144.122
138.372
132.46
126.408
120.242
113.986
107.665
101.305
94.928
88.559
82.222
75.939
69.731
63.621
57.627
51.769
46.065
40.531
35.182
30.033
25.096
20.383
15.901
11.661
7.667
3.926
0.441
-2.786
-5.754
-8.464
-10.919
-13.121
-15.075
-16.788
-18.266
-19.518
-20.552
-21.378
-22.006
-22.449
-22.717
-22.824
-22.781
-22.602
-22.299
-21.886
-21.377
-20.784
-20.12
-19.397
-18.628
-17.825
-16.997
-16.157
-15.314
-14.476
-13.653
-12.852
-12.08
-11.344
-10.649
-9.999
-9.398
-8.85
-8.356
-7.919
-7.54
-7.219
-6.955
-6.749
-6.6
-6.506
-6.464
-6.473
-6.531
-6.633
-6.777
-6.959
-7.177
-7.426
-7.703
-8.005
-8.329
-8.672
-9.031
-9.402
-9.785
-10.177
-10.576
-10.981
-11.39
-11.803
-12.22
-12.639
-13.062
-13.489
-13.92
-14.355
-14.796
-15.242
-15.693
-16.152
-16.616
-17.088
-17.566
-18.051
-18.544
-19.044
-19.551
-20.064
-20.583
-21.108
-21.637
-22.168
-22.7
-23.231
-23.758
-24.279
-24.79
-25.29
-25.773
-26.236
-26.676
-27.087
-27.465
-27.805
-28.101
-28.35
-28.546
-28.686
-28.766
-28.783
-28.734
-28.618
-28.436
-28.187
-27.871
-27.489
-27.042
-26.532
-25.961
-25.333
-24.648
-23.911
-23.128
-22.304
-21.447
-20.565
-19.665
-18.756
-17.846
-16.943
-16.057
-15.196
-14.367
-13.579
-12.843
-12.169
-11.571
-11.059
-10.636
-10.304
-10.062
-9.903
-9.82
-9.8
-9.825
-9.88
-9.951
-10.028
-10.105
-10.175
-10.224
-10.238
-10.203
-10.104
-9.941
-9.717
-9.435
-9.118
-8.794
-8.495
-8.274
-8.182
-8.256
-8.538
-9.075
-9.895
-11.042
-12.556
-14.452
-16.768
-19.534
-22.774
-26.517
-30.755
-35.439
-40.539
-46.043
-51.872
-57.871
-63.77
-69.181
-73.78
-77.355
-79.656
-80.345
-79.19
-76.256
-71.971
-67.081
-62.302
-58.052
-54.681
-52.807
-52.98
-54.757
-56.716
-57.172
-54.32
-48.247
-40.626
-31.077
-18.382
-0.006
28.166
66.678
113.447
165.543
218.235
267.205
308.571
336.665
344.395
326.099
279.061
205.721
114.217
12.662
-93.817
-205.667
-325.808
-450.357
-580.123
-715.122
-822.354
-869.623
-875.784
-867.861
-842.862
-799.326
-746.608
-687.492
-620.785
-547.534
-470.639
-393.997
-322.129
-258.955
-206.453
-165.374
-135.394
-115.059
-102.94
-97.502
-96.432
-97.513
-98.789
-98.462
-95.792
-90.869
-83.929
-75.527
-66.57
-57.895
-50.439
-45.134
-42.23
-41.539
-42.709
-45.183
-48.4
-51.873
-55.035
-57.32
-58.456
-58.37
-57.117
-54.875
-51.78
-47.938
-43.494
-38.608
-33.419
-28.048
-22.595
-17.135
-11.759
-6.57
-1.666
2.858
6.947
10.586
13.786
16.58
19.006
21.105
22.932
24.55
26.02
27.403
28.749
30.104
31.516
33.035
34.711
36.594
38.716
41.094
43.737
46.643
49.809
53.227
56.884
60.758
64.831
69.085
73.505
78.078
82.785
87.607
92.521
97.503
102.532
107.587
112.645
117.683
122.68
127.613
132.461
137.204
141.821
146.288
150.584
154.686
158.572
162.221
165.614
168.732
171.558
174.075
176.272
178.135
179.656
180.826
181.638
182.088
182.172
181.89
181.243
180.232
178.861
177.137
175.068
172.661
169.929
166.884
163.539
159.909
156.011
151.862
147.48
142.886
138.098
133.137
128.026
122.786
117.439
112.006
106.512
100.977
95.423
89.873
84.346
78.864
73.445
68.108
62.87
57.75
52.762
47.921
43.242
38.736
34.415
30.289
26.367
22.656
19.162
15.891
12.846
10.029
7.442
5.083
2.953
1.047
-0.636
-2.103
-3.358
-4.409
-5.263
-5.928
-6.414
-6.729
-6.884
-6.889
-6.755
-6.493
-6.113
-5.628
-5.048
-4.383
-3.645
-2.845
-1.992
-1.096
-0.168
0.784
1.752
2.728
3.705
4.675
5.632
6.572
7.49
8.38
9.241
10.068
10.861
11.616
12.334
13.013
13.654
14.257
14.824
15.355
15.852
16.317
16.753
17.161
17.545
17.907
18.25
18.576
18.89
19.193
19.489
19.78
20.069
20.359
20.651
20.948
21.252
21.564
21.886
22.218
22.562
22.918
23.286
23.667
24.06
24.466
24.883
25.311
25.749
26.196
26.652
27.117
27.589
28.068
28.554
29.046
29.544
30.047
30.556
31.069
31.587
32.11
32.638
33.172
33.711
34.257
34.811
35.374
35.946
36.531
37.128
37.741
38.371
39.02
39.69
40.385
41.106
41.858
42.642
43.46
44.314
45.206
46.137
47.108
48.117
49.162
50.243
51.357
52.503
53.678
54.879
56.102
57.346
58.607
59.881
61.162
62.446
63.724
64.99
66.238
67.46
68.65
69.801
70.906
71.957
72.95
73.879
74.737
75.515
76.201
76.79
77.281
77.675
77.977
78.195
78.336
78.414
78.451
78.461
78.461
78.462
78.47
78.499
78.562
78.673
78.852
79.111
79.446
79.857
80.337
80.866
81.427
81.983
82.48
82.874
83.125
83.189
83.025
82.59
81.834
80.717
79.215
77.299
74.943
72.122
68.809
64.997
60.72
56.007
50.862
45.394
39.777
34.28
29.334
25.3
22.39
20.903
21.188
23.268
26.985
31.884
36.965
41.55
45.384
47.911
48.635
47.634
45.11
42.359
42.008
45.676
54.512
68.81
87.065
108.536
132.786
160.466
194.125
235.205
284.277
338.762
391.817
435.621
460.822
459.09
426.155
361.822
271.815
166.021
53.976
-58.667
-172.837
-290.466
-407.412
-522.806
-634.353
-713.507
-734.589
-718.649
-694.503
-660.752
-614.231
-561.276
-502.205
-435.593
-364.294
-291.771
-222.134
-159.457
-105.807
-62.308
-29.19
-5.338
10.499
19.493
23.48
24.381
24.081
24.569
26.907
31.216
37.375
44.992
53.357
61.795
69.416
75.166
78.638
79.911
79.253
77.181
74.217
70.8
67.506
64.965
63.506
63.252
64.184
66.126
68.948
72.549
76.773
81.441
86.4
91.516
96.687
101.842
106.886
111.714
116.223
120.314
123.937
127.073
129.726
131.928
133.712
135.123
136.218
137.061
137.716
138.245
138.702
139.135
139.597
140.139
140.816
141.68
142.765
144.091
145.671
147.508
149.6
151.945
154.53
157.338
160.355
163.566
166.959
170.521
174.239
178.092
182.061
186.126
190.265
194.46
198.689
202.931
207.165
211.371
215.526
219.611
223.605
227.484
231.226
234.806
238.202
241.393
244.356
247.072
249.522
251.688
253.554
255.106
256.333
257.223
257.767
257.958
257.789
257.257
256.359
255.096
253.468
251.478
249.131
246.433
243.393
240.02
236.325
232.32
228.02
223.44
218.595
213.504
208.185
202.657
196.94
191.055
185.023
178.867
172.607
166.267
159.868
153.433
146.982
140.536
134.117
127.745
121.438
115.216
109.096
103.094
97.228
91.512
85.959
80.584
75.397
70.409
65.631
61.069
56.731
52.623
48.749
45.113
41.717
38.561
35.646
32.969
30.529
28.322
26.342
24.584
23.041
21.706
20.57
19.624
18.859
18.265
17.831
17.545
17.398
17.378
17.474
17.673
17.965
18.339
18.782
19.284
19.835
20.422
21.037
21.668
22.307
22.944
23.57
24.178
24.759
25.306
25.813
26.273
26.68
27.03
27.318
27.539
27.692
27.773
27.779
27.709
27.561
27.336
27.031
26.648
26.187
25.647
25.031
24.339
23.572
22.734
21.825
20.849
19.808
18.705
17.544
16.328
15.061
13.747
12.391
10.998
9.571
8.115
6.636
5.138
3.627
2.107
0.585
-0.935
-2.448
-3.947
-5.428
-6.885
-8.314
-9.708
-11.063
-12.374
-13.637
-14.845
-15.994
-17.082
-18.102
-19.053
-19.93
-20.732
-21.456
-22.102
-22.669
-23.158
-23.57
-23.908
-24.175
-24.374
-24.51
-24.588
-24.612
-24.589
-24.525
-24.426
-24.299
-24.15
-23.989
-23.824
-23.663
-23.516
-23.39
-23.295
-23.241
-23.239
-23.296
-23.418
-23.61
-23.878
-24.23
-24.678
-25.225
-25.873
-26.619
-27.464
-28.404
-29.436
-30.546
-31.714
-32.915
-34.132
-35.352
-36.57
-37.78
-38.966
-40.114
-41.206
-42.236
-43.21
-44.137
-45.014
-45.846
-46.655
-47.477
-48.389
-49.465
-50.764
-52.333
-54.208
-56.414
-58.998
-62.02
-65.522
-69.546
-74.118
-79.224
-84.899
-91.219
-98.125
-105.451
-112.901
-119.997
-126.362
-131.797
-135.994
-138.575
-139.466
-138.766
-136.942
-135.023
-133.728
-133.324
-134.276
-137.023
-141.49
-147.382
-153.337
-156.706
-155.714
-149.509
-138.07
-122.336
-102.48
-77.747
-47.049
-9.698
33.468
80.393
128.049
172.215
208.326
230.591
231.586
205.726
151.077
70.844
-26.084
-130.28
-235.802
-342.495
-452.24
-561.343
-671.253
-783.196
-867.488
-895.857
-890.047
-878.457
-856.948
-819.6
-771.318
-712.748
-643.657
-570.16
-499.375
-436.277
-383.592
-339.836
-302.399
-270.269
-243.376
-222.935
-210.099
-204.116
-202.771
-203.347
-203.469
-202.012
-198.937
-194.504
-188.885
-182.431
-175.758
-169.72
-165.356
-163.157
-163.022
-164.673
-167.673
-171.57
-175.957
-180.283
-183.905
-186.463
-187.834
-188.029
-187.213
-185.515
-183.016
-179.864
-176.236
-172.288
-168.156
-163.941
-159.711
-155.56
-151.593
-147.914
-144.625
-141.782
-139.405
-137.496
-136.03
-134.975
-134.293
-133.932
-133.828
-133.922
-134.156
-134.477
-134.842
-135.201
-135.5
-135.691
-135.721
-135.555
-135.173
-134.562
-133.719
-132.641
-131.333
-129.802
-128.067
-126.137
-124.027
-121.746
-119.303
-116.711
-113.986
-111.145
-108.204
-105.181
-102.092
-98.953
-95.781
-92.592
-89.404
-86.232
-83.091
-79.998
-76.971
-74.028
-71.189
-68.47
-65.89
-63.464
-61.209
-59.14
-57.271
-55.613
-54.178
-52.975
-52.012
-51.296
-50.834
-50.628
-50.682
-50.996
-51.572
-52.406
-53.495
-54.836
-56.423
-58.247
-60.302
-62.577
-65.063
-67.747
-70.617
-73.661
-76.863
-80.21
-83.685
-87.274
-90.959
-94.724
-98.552
-102.427
-106.331
-110.248
-114.16
-118.053
-121.911
-125.718
-129.459
-133.121
-136.689
-140.152
-143.498
-146.714
-149.791
-152.719
-155.49
-158.096
-160.531
-162.788
-164.862
-166.75
-168.448
-169.954
-171.267
-172.385
-173.31
-174.043
-174.584
-174.937
-175.105
-175.092
-174.901
-174.539
-174.009
-173.318
-172.472
-171.476
-170.338
-169.063
-167.658
-166.13
-164.486
-162.733
-160.878
-158.926
-156.886
-154.762
-152.562
-150.291
-147.955
-145.56
-143.111
-140.613
-138.071
-135.49
-132.875
-130.229
-127.557
-124.863
-122.151
-119.423
-116.685
-113.938
-111.187
-108.435
-105.684
-102.939
-100.203
-97.479
-94.769
-92.078
-89.408
-86.762
-84.142
-81.551
-78.992
-76.467
-73.977
-71.524
-69.109
-66.735
-64.401
-62.109
-59.86
-57.654
-55.492
-53.372
-51.295
-49.26
-47.266
-45.311
-43.393
-41.511
-39.661
-37.841
-36.048
-34.277
-32.524
-30.784
-29.053
-27.324
-25.592
-23.851
-22.094
-20.317
-18.514
-16.679
-14.807
-12.896
-10.941
-8.94
-6.891
-4.792
-2.641
-0.437
1.821
4.132
6.498
8.918
11.391
13.915
16.486
19.1
21.75
24.433
27.143
29.874
32.619
35.372
38.125
40.874
43.611
46.328
49.016
51.662
54.257
56.8
59.291
61.732
64.13
66.494
68.835
71.172
73.522
75.895
78.301
80.745
83.234
85.778
88.39
91.083
93.867
96.738
99.687
102.708
105.773
108.852
111.911
114.893
117.746
120.434
122.913
125.143
127.094
128.727
130.003
130.909
131.413
131.489
131.127
130.299
129.01
127.306
125.205
122.727
119.961
117.066
114.3
112.052
110.664
110.366
111.418
114.125
118.632
124.795
132.153
139.887
147.135
153.407
158.346
161.384
162.225
161.173
159.019
157.615
159.358
165.667
177.406
194.608
216.23
241.571
270.286
303.186
341.391
385.16
434.026
483.844
528.252
560.22
570.409
551.798
502.425
424.555
326.762
220.18
111.276
1.884
-109.285
-223.828
-337.33
-439.271
-518.848
-569.048
-588.869
-584.219
-562.867
-529.554
-487.162
-436.201
-376.053
-308.906
-238.21
-167.509
-101.263
-42.663
6.76
45.907
74.81
94.536
106.146
110.993
111.169
108.692
105.444
103.239
102.919
104.521
107.902
112.601
117.825
122.822
126.706
128.565
128.114
125.503
121.059
115.316
108.818
102.035
95.523
89.837
85.257
81.865
79.618
78.347
77.919
78.231
79.143
80.499
82.165
84.023
85.97
87.934
89.822
91.533
92.973
94.049
94.71
94.943
94.759
94.194
93.283
92.071
90.611
88.964
87.191
85.35
83.493
81.664
79.911
78.284
76.832
75.602
74.626
73.92
73.491
73.338
73.456
73.839
74.471
75.333
76.407
77.677
79.127
80.744
82.511
84.408
86.414
88.507
90.664
92.867
95.093
97.321
99.53
101.699
103.809
105.839
107.77
109.58
111.249
112.754
114.075
115.195
116.093
116.752
117.157
117.294
117.149
116.713
115.976
114.931
113.572
111.895
109.898
107.58
104.942
101.987
98.718
95.141
91.265
87.096
82.647
77.928
72.953
67.735
62.29
56.634
50.784
44.758
38.573
32.249
25.806
19.262
12.637
5.953
-0.773
-7.519
-14.267
-20.998
-27.694
-34.337
-40.911
-47.4
-53.788
-60.063
-66.21
-72.217
-78.074
-83.77
-89.297
-94.645
-99.81
-104.784
-109.564
-114.145
-118.526
-122.705
-126.682
-130.456
-134.029
-137.403
-140.581
-143.566
-146.361
-148.973
-151.405
-153.663
-155.753
-157.681
-159.452
-161.073
-162.55
-163.888
-165.094
-166.172
-167.128
-167.966
-168.691
-169.306
-169.814
-170.22
-170.524
-170.729
-170.835
-170.845
-170.757
-170.573
-170.29
-169.909
-169.428
-168.845
-168.16
-167.369
-166.472
-165.466
-164.35
-163.122
-161.78
-160.324
-158.752
-157.063
-155.258
-153.337
-151.299
-149.147
-146.882
-144.507
-142.024
-139.438
-136.751
-133.969
-131.097
-128.141
-125.105
-121.999
-118.827
-115.597
-112.318
-108.997
-105.642
-102.263
-98.867
-95.463
-92.06
-88.666
-85.288
-81.934
-78.61
-75.324
-72.081
-68.886
-65.744
-62.658
-59.633
-56.669
-53.769
-50.933
-48.162
-45.453
-42.806
-40.219
-37.688
-35.211
-32.785
-30.405
-28.068
-25.77
-23.508
-21.277
-19.073
-16.892
-14.731
-12.584
-10.447
-8.317
-6.189
-4.058
-1.921
0.226
2.385
4.557
6.745
8.95
11.17
13.406
15.655
17.916
20.19
22.479
24.784
27.104
29.437
31.778
34.126
36.481
38.846
41.221
43.609
46.018
48.46
50.96
53.536
56.199
58.958
61.813
64.763
67.814
70.972
74.242
77.628
81.121
84.717
88.416
92.203
96.054
99.92
103.714
107.361
110.8
113.986
116.894
119.491
121.712
123.499
124.794
125.541
125.729
125.305
124.152
122.265
119.731
116.787
113.869
111.345
109.437
108.426
108.63
110.207
113.187
117.185
121.359
125.075
127.921
129.593
129.921
128.789
126.349
123.446
121.474
121.824
125.695
134.151
148.539
169.814
198.093
232.265
269.202
306.718
344.377
382.155
421.735
462.96
502.13
535.349
556.389
557.522
534.05
482.295
402.003
299.624
181.511
53.481
-79.538
-214.959
-343.684
-461.26
-567.986
-637.72
-647.282
-621.626
-590.061
-550.591
-499.597
-440.811
-372.452
-292.981
-206.495
-120.44
-43.383
19.018
66.069
100.716
126.871
147.491
163.467
174.086
179.848
182.41
183.862
186.707
192.034
199.615
209.078
219.728
230.636
241.055
250.1
256.864
261.132
263.11
263.161
261.848
259.714
257.235
254.97
253.472
253.039
253.771
255.634
258.476
262.173
266.622
271.688
277.218
283.073
289.135
295.295
301.471
307.579
313.519
319.198
324.531
329.44
333.886
337.867
341.4
344.514
347.25
349.649
351.763
353.656
355.388
357.012
358.577
360.125
361.698
363.342
365.098
367.007
369.092
371.362
373.821
376.465
379.288
382.278
385.42
388.69
392.069
395.539
399.084
402.687
406.33
409.991
413.648
417.279
420.862
424.376
427.799
431.11
434.288
437.311
440.159
442.815
445.257
447.465
449.419
451.099
452.484
453.558
454.303
454.703
454.742
454.409
453.694
452.585
451.078
449.164
446.841
444.107
440.96
437.401
433.433
429.061
424.29
419.128
413.583
407.667
401.392
394.77
387.816
380.547
372.98
365.131
357.021
348.668
340.093
331.317
322.362
313.249
304
294.639
285.187
275.667
266.101
256.512
246.92
237.347
227.813
218.337
208.939
199.636
190.446
181.385
172.468
163.711
155.125
146.724
138.517
130.516
122.728
115.161
107.821
100.712
93.84
87.206
80.812
74.658
68.744
63.068
57.628
52.419
47.437
42.676
38.131
33.794
29.657
25.712
21.951
18.364
14.942
11.675
8.553
5.567
2.705
-0.041
-2.683
-5.229
-7.689
-10.072
-12.388
-14.644
-16.848
-19.01
-21.134
-23.229
-25.301
-27.355
-29.397
-31.431
-33.462
-35.493
-37.528
-39.57
-41.621
-43.684
-45.759
-47.848
-49.952
-52.071
-54.205
-56.354
-58.517
-60.694
-62.884
-65.085
-67.297
-69.517
-71.745
-73.978
-76.215
-78.454
-80.692
-82.929
-85.161
-87.386
-89.603
-91.808
-93.999
-96.175
-98.332
-100.469
-102.583
-104.672
-106.733
-108.763
-110.759
-112.719
-114.64
-116.519
-118.352
-120.136
-121.869
-123.547
-125.167
-126.726
-128.22
-129.647
-131.002
-132.282
-133.486
-134.61
-135.652
-136.611
-137.486
-138.276
-138.982
-139.606
-140.15
-140.614
-141.002
-141.317
-141.56
-141.738
-141.852
-141.906
-141.906
-141.856
-141.765
-141.638
-141.485
-141.311
-141.126
-140.937
-140.753
-140.583
-140.436
-140.317
-140.236
-140.198
-140.214
-140.297
-140.453
-140.685
-140.991
-141.37
-141.815
-142.321
-142.877
-143.464
-144.063
-144.657
-145.232
-145.781
-146.294
-146.758
-147.159
-147.476
-147.696
-147.824
-147.868
-147.84
-147.761
-147.647
-147.532
-147.484
-147.56
-147.821
-148.331
-149.131
-150.268
-151.801
-153.769
-156.224
-159.223
-162.791
-166.95
-171.722
-177.072
-182.994
-189.515
-196.499
-203.729
-210.907
-217.577
-223.392
-228.166
-231.573
-233.212
-233
-231.043
-227.82
-224.289
-221.012
-218.194
-216.286
-215.718
-216.596
-218.474
-219.646
-217.77
-211.355
-200.34
-186.165
-170.113
-152.19
-131.011
-103.377
-66.688
-21.156
31.275
85.977
135.822
175.638
200.269
203.356
181.631
132.135
53.913
-47.444
-165.835
-295.743
-431.471
-570.537
-708.11
-834.407
-938.375
-1009.248
-1042.729
-1042.72
-1017.683
-976.688
-923.906
-860.481
-786.485
-703.958
-620.135
-541.497
-472.896
-416.424
-369.163
-329.183
-295.935
-269.095
-250.135
-239.134
-233.949
-232.197
-231.1
-228.404
-223.44
-216.305
-207.297
-196.98
-186.146
-175.583
-166.251
-159.137
-154.554
-152.364
-152.255
-153.673
-156.068
-158.95
-161.72
-163.774
-164.772
-164.578
-163.199
-160.779
-157.44
-153.28
-148.441
-143.085
-137.359
-131.389
-125.281
-119.118
-112.987
-106.993
-101.235
-95.807
-90.791
-86.232
-82.14
-78.502
-75.29
-72.464
-69.982
-67.788
-65.815
-64.002
-62.29
-60.626
-58.967
-57.263
-55.465
-53.523
-51.394
-49.046
-46.465
-43.645
-40.584
-37.285
-33.755
-30.008
-26.063
-21.939
-17.652
-13.214
-8.64
-3.946
0.847
5.719
10.649
15.617
20.603
25.585
30.544
35.458
40.308
45.073
49.734
54.272
58.665
62.893
66.933
70.766
74.372
77.733
80.83
83.648
86.173
88.39
90.291
91.864
93.103
94.001
94.553
94.757
94.612
94.118
93.277
92.093
90.571
88.72
86.546
84.061
81.276
78.204
74.859
71.257
67.414
63.347
59.076
54.619
49.997
45.23
40.339
35.345
30.272
25.139
19.969
14.784
9.605
4.451
-0.655
-5.696
-10.652
-15.505
-20.238
-24.835
-29.281
-33.561
-37.662
-41.572
-45.28
-48.778
-52.055
-55.107
-57.925
-60.507
-62.85
-64.951
-66.81
-68.427
-69.806
-70.949
-71.86
-72.546
-73.012
-73.266
-73.318
-73.175
-72.848
-72.348
-71.685
-70.871
-69.918
-68.837
-67.641
-66.343
-64.954
-63.487
-61.954
-60.366
-58.735
-57.073
-55.391
-53.698
-52.004
-50.32
-48.654
-47.013
-45.406
-43.839
-42.32
-40.852
-39.441
-38.091
-36.806
-35.587
-34.437
-33.358
-32.35
-31.414
-30.549
-29.755
-29.031
-28.376
-27.788
-27.266
-26.808
-26.411
-26.074
-25.794
-25.568
-25.394
-25.269
-25.191
-25.158
-25.166
-25.213
-25.295
-25.411
-25.556
-25.729
-25.926
-26.144
-26.38
-26.631
-26.894
-27.167
-27.448
-27.733
-28.02
-28.307
-28.59
-28.866
-29.133
-29.388
-29.627
-29.846
-30.043
-30.212
-30.352
-30.457
-30.523
-30.547
-30.523
-30.448
-30.317
-30.127
-29.872
-29.551
-29.16
-28.698
-28.161
-27.551
-26.867
-26.11
-25.281
-24.382
-23.415
-22.382
-21.287
-20.134
-18.925
-17.664
-16.356
-15.008
-13.626
-12.218
-10.791
-9.353
-7.912
-6.478
-5.058
-3.664
-2.304
-0.984
0.289
1.506
2.657
3.732
4.722
5.627
6.447
7.183
7.839
8.418
8.931
9.398
9.836
10.263
10.688
11.116
11.553
12.01
12.498
13.036
13.627
14.269
14.954
15.676
16.426
17.188
17.926
18.582
19.094
19.402
19.455
19.221
18.661
17.75
16.449
14.706
12.483
9.75
6.48
2.666
-1.718
-6.728
-12.313
-18.281
-24.339
-30.068
-35.092
-39.162
-41.995
-43.226
-42.659
-40.412
-36.958
-33.134
-29.755
-27.27
-26
-26.39
-28.693
-32.655
-37.35
-41.203
-42.184
-38.403
-28.864
-12.63
10.527
38.849
71.328
107.661
147.051
191.066
240.071
290.111
336.792
373.282
390.89
384.354
349.902
286.419
198.678
93.438
-23.111
-146.06
-273.555
-404.142
-532.005
-646.808
-737.004
-793.796
-815.5
-808.339
-781.668
-743.272
-696.984
-641.985
-575.785
-498.652
-414.745
-331.358
-256.727
-196.063
-150.017
-115.796
-89.625
-68.837
-52.829
-42.5
-37.585
-36.499
-37.042
-36.557
-33.761
-28.741
-21.764
-13.403
-4.482
4.33
12.149
17.976
21.51
22.905
22.47
20.737
18.234
15.402
12.805
11.035
10.378
10.919
12.612
15.272
18.764
22.98
27.767
32.953
38.392
43.954
49.538
55.07
60.459
65.603
70.406
74.777
78.665
82.057
84.966
87.424
89.471
91.153
92.525
93.654
94.604
95.435
96.204
96.956
97.744
98.62
99.634
100.838
102.266
103.936
105.861
108.042
110.479
113.167
116.095
119.247
122.606
126.158
129.89
133.79
137.844
142.03
146.33
150.72
155.181
159.69
164.225
168.765
173.286
177.766
182.18
186.509
190.728
194.814
198.74
202.483
206.018
209.323
212.375
215.152
217.634
219.804
221.645
223.143
224.284
225.058
225.456
225.471
225.097
224.332
223.174
221.625
219.687
217.366
214.668
211.604
208.184
204.421
200.33
195.929
191.234
186.266
181.046
175.595
169.938
164.098
158.101
151.972
145.737
139.422
133.055
126.663
120.27
113.903
107.589
101.35
95.212
89.197
83.328
77.625
72.108
66.797
61.708
56.857
52.259
47.926
43.87
40.1
36.624
33.449
30.578
28.015
25.762
23.817
22.179
20.844
19.808
19.065
18.607
18.425
18.51
18.851
19.435
20.252
21.287
22.526
23.956
25.562
27.329
29.242
31.285
33.444
35.704
38.049
40.465
42.937
45.453
47.998
50.56
53.126
55.684
58.225
60.737
63.211
65.637
68.009
70.317
72.556
74.718
76.799
78.794
80.698
82.508
84.22
85.831
87.341
88.746
90.047
91.241
92.33
93.313
94.191
94.966
95.638
96.21
96.685
97.064
97.35
97.546
97.655
97.681
97.627
97.496
97.292
97.02
96.683
96.285
95.832
95.327
94.776
94.183
93.554
92.894
92.207
91.5
90.777
90.046
89.31
88.577
87.85
87.136
86.438
85.762
85.11
84.486
83.891
83.328
82.796
82.296
81.83
81.397
80.995
80.624
80.284
79.972
79.687
79.426
79.184
78.956
78.738
78.523
78.307
78.084
77.847
77.589
77.304
76.987
76.633
76.235
75.785
75.273
74.693
74.045
73.329
72.55
71.714
70.825
69.894
68.941
67.98
67.028
66.097
65.193
64.324
63.502
62.741
62.059
61.468
60.961
60.53
60.167
59.85
59.567
59.286
58.949
58.506
57.907
57.096
56.042
54.709
53.045
51.019
48.584
45.691
42.324
38.466
34.09
29.222
23.859
17.973
11.691
5.207
-1.229
-7.206
-12.398
-16.622
-19.561
-20.861
-20.485
-18.553
-15.493
-12.201
-9.302
-7.062
-5.887
-6.141
-7.774
-10.521
-13.498
-14.684
-12.207
-4.805
8.511
27.174
49.526
74.295
100.602
129.349
162.453
201.125
244.862
289.241
328.083
353.737
357.745
335.01
283.237
205.361
109.372
3.517
-105.803
-217.396
-332.394
-449.423
-562.435
-659.1
-727.61
-762.502
-765.406
-745.224
-711.673
-670.088
-622.721
-568.942
-507.82
-441.488
-372.998
-305.9
-244.41
-191.038
-146.969
-112.636
-87.185
-69.418
-58.504
-53.087
-51.176
-50.798
-49.998
-47.575
-43.385
-37.604
-30.449
-22.424
-14.248
-6.824
-1.204
2.117
3.244
2.474
0.268
-2.886
-6.549
-10.158
-13.073
-14.933
-15.62
-15.148
-13.678
-11.336
-8.206
-4.429
-0.178
4.398
9.168
14.035
18.929
23.756
28.41
32.786
36.781
40.339
43.441
46.088
48.305
50.128
51.595
52.762
53.692
54.447
55.088
55.668
56.234
56.837
57.531
58.37
59.406
60.673
62.192
63.975
66.023
68.336
70.906
73.723
76.765
80.015
83.458
87.078
90.861
94.789
98.84
102.992
107.221
111.504
115.817
120.138
124.443
128.707
132.909
137.023
141.029
144.904
148.621
152.158
155.49
158.593
161.445
164.024
166.311
168.286
169.934
171.239
172.19
172.775
172.985
172.814
172.257
171.309
169.971
168.244
166.129
163.632
160.759
157.518
153.921
149.979
145.706
141.117
136.23
131.061
125.631
119.96
114.07
107.983
101.721
95.31
88.772
82.132
75.415
68.644
61.844
55.04
48.253
41.506
34.822
28.222
21.724
15.349
9.115
3.039
-2.864
-8.578
-14.089
-19.387
-24.458
-29.295
-33.888
-38.23
-42.317
-46.142
-49.705
-53.003
-56.036
-58.806
-61.314
-63.564
-65.562
-67.312
-68.822
-70.099
-71.152
-71.99
-72.623
-73.063
-73.319
-73.403
-73.328
-73.104
-72.744
-72.261
-71.667
-70.974
-70.195
-69.341
-68.424
-67.457
-66.45
-65.415
-64.361
-63.299
-62.239
-61.189
-60.157
-59.153
-58.182
-57.252
-56.368
-55.536
-54.761
-54.047
-53.396
-52.813
-52.299
-51.856
-51.485
-51.187
-50.962
-50.81
-50.729
-50.718
-50.776
-50.899
-51.084
-51.33
-51.631
-51.983
-52.383
-52.825
-53.306
-53.82
-54.361
-54.927
-55.51
-56.105
-56.708
-57.313
-57.914
-58.507
-59.085
-59.644
-60.178
-60.682
-61.151
-61.58
-61.965
-62.301
-62.583
-62.807
-62.969
-63.066
-63.096
-63.055
-62.943
-62.758
-62.501
-62.173
-61.776
-61.313
-60.785
-60.197
-59.552
-58.854
-58.107
-57.316
-56.485
-55.619
-54.724
-53.808
-52.878
-51.941
-51.005
-50.076
-49.164
-48.274
-47.416
-46.597
-45.823
-45.099
-44.432
-43.829
-43.301
-42.853
-42.485
-42.193
-41.974
-41.819
-41.723
-41.672
-41.646
-41.63
-41.607
-41.562
-41.489
-41.38
-41.223
-41.005
-40.708
-40.322
-39.854
-39.311
-38.705
-38.054
-37.373
-36.693
-36.071
-35.553
-35.188
-35.03
-35.111
-35.467
-36.144
-37.167
-38.571
-40.4
-42.673
-45.408
-48.627
-52.298
-56.423
-61.047
-66.066
-71.299
-76.486
-81.206
-85.125
-88.073
-89.751
-89.773
-88.083
-84.836
-80.52
-76.123
-72.282
-69.288
-67.686
-67.998
-70.329
-74.039
-77.389
-78.217
-74.931
-67.648
-57.462
-43.964
-26.685
-3.893
27.682
67.563
114.803
167.91
221.068
269.588
307.693
326.87
321.631
288.104
226.092
142.056
44.562
-58.42
-162.605
-269.344
-381.05
-496.629
-608.604
-703.774
-770.116
-801.958
-801.929
-779.417
-743.511
-699.624
-649.135
-590.421
-524.083
-453.152
-382.018
-316.142
-258.143
-208.989
-168.878
-136.63
-112.023
-94.685
-83.63
-77.652
-74.598
-72.315
-69.115
-64.07
-57.21
-48.844
-39.375
-29.471
-19.8
-11.182
-4.548
-0.24
1.84
1.97
0.648
-1.639
-4.462
-7.279
-9.516
-10.832
-11.077
-10.245
-8.463
-5.839
-2.459
1.545
6.021
10.828
15.848
20.985
26.163
31.306
36.317
41.104
45.581
49.67
53.331
56.556
59.357
61.759
63.804
65.534
67.003
68.275
69.409
70.462
71.484
72.517
73.607
74.804
76.153
77.697
79.465
81.471
83.723
86.223
88.966
91.946
95.149
98.556
102.15
105.914
109.833
113.893
118.076
122.361
126.727
131.149
135.607
140.077
144.539
148.968
153.342
157.638
161.835
165.913
169.848
173.619
177.204
180.579
183.724
186.62
189.247
191.587
193.624
195.344
196.735
197.785
198.487
198.832
198.816
198.435
197.687
196.572
195.092
193.25
191.053
188.507
185.621
182.406
178.873
175.038
170.914
166.518
161.868
156.982
151.879
146.58
141.105
135.474
129.71
123.835
117.869
111.834
105.752
99.645
93.532
87.434
81.37
75.359
69.419
63.568
57.821
52.194
46.7
41.355
36.169
31.155
26.322
21.678
17.232
12.991
8.958
5.139
1.535
-1.851
-5.019
-7.97
-10.704
-13.224
-15.533
-17.636
-19.536
-21.24
-22.753
-24.081
-25.232
-26.213
-27.032
-27.696
-28.214
-28.594
-28.844
-28.974
-28.992
-28.906
-28.726
-28.46
-28.117
-27.704
-27.231
-26.704
-26.133
-25.523
-24.882
-24.216
-23.532
-22.836
-22.132
-21.427
-20.725
-20.031
-19.35
-18.685
-18.041
-17.421
-16.828
-16.268
-15.741
-15.252
-14.802
-14.396
-14.034
-13.719
-13.452
-13.236
-13.071
-12.958
-12.898
-12.89
-12.934
-13.031
-13.177
-13.373
-13.616
-13.905
-14.237
-14.61
-15.022
-15.47
-15.95
-16.46
-16.995
-17.552
-18.126
-18.712
-19.305
-19.901
-20.492
-21.075
-21.643
-22.189
-22.708
-23.193
-23.637
-24.035
-24.379
-24.664
-24.884
-25.035
-25.11
-25.107
-25.023
-24.855
-24.602
-24.265
-23.843
-23.339
-22.752
-22.086
-21.343
-20.525
-19.637
-18.681
-17.662
-16.586
-15.46
-14.293
-13.092
-11.866
-10.625
-9.376
-8.131
-6.898
-5.686
-4.504
-3.363
-2.27
-1.237
-0.279
0.596
1.384
2.083
2.698
3.233
3.696
4.1
4.464
4.803
5.133
5.467
5.81
6.175
6.576
7.024
7.543
8.143
8.822
9.581
10.403
11.264
12.143
13.002
13.776
14.414
14.865
15.073
14.999
14.593
13.797
12.571
10.878
8.681
5.953
2.67
-1.176
-5.571
-10.464
-15.81
-21.581
-27.65
-33.799
-39.73
-45.028
-49.322
-52.398
-53.948
-53.557
-51.187
-47.037
-41.517
-35.555
-29.867
-24.794
-20.97
-19.121
-18.95
-19.456
-19.488
-17.107
-11.736
-4.664
4.282
16.297
32.926
57.569
92.286
135.463
185.116
237.862
287.948
331.365
363.173
375.998
364.603
324.677
255.097
161.642
52.144
-66.027
-189.273
-317.137
-444.619
-572.209
-699.553
-795.323
-830.149
-824.269
-807.319
-779.114
-736.912
-686.827
-627.483
-555.276
-473.786
-390.226
-312.833
-248.416
-198.591
-160.254
-129.557
-103.73
-81.929
-65.83
-56.121
-51.252
-48.904
-46.216
-41.542
-34.939
-26.833
-17.609
-7.789
1.946
10.694
17.328
21.316
22.82
22.196
19.95
16.588
12.562
8.464
4.992
2.586
1.41
1.478
2.649
4.795
7.848
11.678
16.12
21.022
26.241
31.658
37.19
42.742
48.201
53.456
58.394
62.919
66.982
70.569
73.687
76.365
78.637
80.544
82.143
83.498
84.676
85.736
86.732
87.71
88.723
89.825
91.067
92.5
94.154
96.045
98.182
100.566
103.194
106.059
109.148
112.441
115.918
119.566
123.369
127.315
131.385
135.559
139.815
144.133
148.489
152.864
157.237
161.585
165.887
170.121
174.268
178.307
182.217
185.976
189.561
192.95
196.122
199.056
201.732
204.132
206.239
208.036
209.511
210.653
211.45
211.895
211.981
211.704
211.059
210.047
208.666
206.921
204.814
202.352
199.543
196.396
192.922
189.134
185.046
180.673
176.031
171.14
166.018
160.684
155.16
149.466
143.625
137.659
131.591
125.444
119.24
113.002
106.753
100.514
94.306
88.15
82.066
76.072
70.186
64.426
58.807
53.344
48.05
42.938
38.019
33.302
28.797
24.511
20.449
16.615
13.014
9.647
6.514
3.615
0.948
-1.489
-3.702
-5.693
-7.471
-9.041
-10.411
-11.59
-12.587
-13.411
-14.072
-14.58
-14.946
-15.181
-15.294
-15.296
-15.198
-15.011
-14.743
-14.405
-14.007
-13.556
-13.062
-12.533
-11.976
-11.398
-10.806
-10.206
-9.603
-9.002
-8.408
-7.824
-7.254
-6.701
-6.166
-5.652
-5.161
-4.693
-4.248
-3.828
-3.432
-3.06
-2.712
-2.387
-2.084
-1.803
-1.543
-1.303
-1.083
-0.883
-0.702
-0.54
-0.397
-0.272
-0.167
-0.081
-0.015
0.031
0.055
0.058
0.038
-0.004
-0.07
-0.159
-0.272
-0.409
-0.569
-0.753
-0.961
-1.192
-1.445
-1.721
-2.017
-2.334
-2.67
-3.022
-3.389
-3.769
-4.159
-4.555
-4.956
-5.357
-5.754
-6.144
-6.522
-6.883
-7.222
-7.534
-7.815
-8.058
-8.259
-8.414
-8.519
-8.57
-8.564
-8.501
-8.378
-8.197
-7.956
-7.656
-7.298
-6.883
-6.414
-5.893
-5.321
-4.702
-4.041
-3.344
-2.619
-1.872
-1.11
-0.342
0.426
1.184
1.923
2.635
3.313
3.95
4.538
5.065
5.517
5.886
6.171
6.371
6.488
6.527
6.492
6.396
6.258
6.094
5.919
5.745
5.575
5.418
5.286
5.191
5.152
5.177
5.263
5.402
5.589
5.803
6.028
6.228
6.346
6.331
6.138
5.714
5.026
4.039
2.711
1.02
-1.067
-3.588
-6.564
-10.016
-13.962
-18.389
-23.299
-28.715
-34.555
-40.652
-46.745
-52.451
-57.416
-61.391
-64.09
-65.157
-64.398
-61.902
-58.095
-53.775
-49.74
-46.483
-44.375
-43.879
-45.273
-48.346
-52.305
-55.673
-56.438
-52.765
-43.325
-27.027
-4.152
23.472
54.076
86.479
121.219
160.765
206.859
258.107
309.329
352.146
376.679
374.645
341.553
277.83
189.567
85.96
-24.421
-136.649
-252.123
-372.714
-493.785
-615.066
-734.986
-823.214
-851.951
-841.505
-820.164
-786.588
-738.091
-681.877
-619.064
-548.121
-471.887
-394.268
-319.81
-253.005
-196.229
-150.645
-116.363
-92.137
-76.467
-67.898
-64.348
-63.675
-63.867
-62.919
-59.808
-54.475
-47.159
-38.371
-28.928
-19.622
-11.396
-5.296
-1.705
-0.497
-1.348
-3.691
-6.95
-10.632
-14.125
-16.787
-18.28
-18.484
-17.418
-15.255
-12.128
-8.14
-3.452
1.754
7.319
13.103
18.996
24.916
30.755
36.395
41.721
46.625
51.044
54.956
58.359
61.278
63.746
65.803
67.508
68.925
70.119
71.153
72.081
72.955
73.829
74.759
75.8
77.008
78.417
80.049
81.915
84.02
86.361
88.935
91.728
94.723
97.904
101.257
104.769
108.428
112.219
116.124
120.121
124.192
128.315
132.471
136.641
140.804
144.939
149.026
153.044
156.975
160.796
164.487
168.023
171.382
174.541
177.479
180.176
182.611
184.766
186.623
188.168
189.388
190.27
190.805
190.984
190.799
190.247
189.324
188.028
186.359
184.32
181.914
179.147
176.026
172.56
168.759
164.637
160.206
155.483
150.483
145.224
139.726
134.009
128.094
122.002
115.756
109.379
102.896
96.328
89.701
83.038
76.361
69.694
63.059
56.478
49.971
43.559
37.261
31.094
25.078
19.226
13.556
8.081
2.814
-2.234
-7.053
-11.634
-15.969
-20.052
-23.879
-27.447
-30.754
-33.8
-36.585
-39.112
-41.385
-43.408
-45.189
-46.733
-48.05
-49.148
-50.036
-50.727
-51.23
-51.558
-51.721
-51.732
-51.604
-51.348
-50.978
-50.504
-49.939
-49.295
-48.584
-47.817
-47.005
-46.157
-45.284
-44.396
-43.5
-42.605
-41.719
-40.847
-39.996
-39.171
-38.377
-37.617
-36.895
-36.212
-35.57
-34.971
-34.414
-33.9
-33.427
-32.995
-32.603
-32.248
-31.929
-31.644
-31.39
-31.164
-30.965
-30.79
-30.637
-30.502
-30.384
-30.281
-30.19
-30.111
-30.04
-29.978
-29.922
-29.872
-29.826
-29.785
-29.748
-29.715
-29.686
-29.66
-29.64
-29.626
-29.617
-29.615
-29.621
-29.634
-29.657
-29.689
-29.73
-29.781
-29.842
-29.912
-29.992
-30.082
-30.179
-30.284
-30.396
-30.511
-30.63
-30.748
-30.864
-30.975
-31.077
-31.168
-31.244
-31.301
-31.335
-31.343
-31.321
-31.264
-31.169
-31.032
-30.848
-30.616
-30.331
-29.991
-29.596
-29.144
-28.636
-28.071
-27.452
-26.78
-26.058
-25.288
-24.473
-23.618
-22.726
-21.801
-20.848
-19.872
-18.881
-17.881
-16.88
-15.885
-14.904
-13.945
-13.016
-12.128
-11.286
-10.494
-9.757
-9.08
-8.471
-7.938
-7.488
-7.118
-6.828
-6.615
-6.476
-6.404
-6.385
-6.393
-6.407
-6.407
-6.379
-6.319
-6.217
-6.061
-5.837
-5.528
-5.126
-4.636
-4.064
-3.406
-2.673
-1.885
-1.082
-0.341
0.26
0.659
0.8
0.642
0.157
-0.709
-2.012
-3.804
-6.134
-9.027
-12.484
-16.542
-21.259
-26.6
-32.418
-38.41
-44.137
-49.225
-53.428
-56.471
-58.005
-57.806
-55.922
-52.766
-49.141
-45.8
-43.078
-41.257
-40.821
-42.045
-44.824
-48.1
-49.686
-47.69
-40.945
-29.673
-15.13
2.738
24.22
50.787
85.495
128.299
178.094
232.519
284.867
330.017
363.384
378.146
370.021
335.031
270.002
179.485
70.193
-54.004
-180.194
-294.754
-409.357
-544.175
-691.113
-809.318
-858.658
-849.195
-825.845
-802.263
-763.966
-709.507
-644.868
-570.91
-491.513
-413.694
-342.752
-281.913
-230.64
-186.492
-148.534
-116.729
-91.787
-74.649
-64.702
-59.66
-56.937
-54.402
-50.505
-44.893
-37.944
-29.776
-20.733
-11.581
-2.975
4.238
9.196
11.762
12.172
10.749
8.034
4.57
0.82
-2.636
-5.226
-6.675
-6.889
-5.907
-3.895
-0.971
2.763
7.16
12.057
17.307
22.777
28.356
33.958
39.478
44.803
49.822
54.429
58.562
62.2
65.347
68.035
70.298
72.179
73.734
75.029
76.128
77.095
77.984
78.845
79.729
80.692
81.785
83.064
84.56
86.294
88.276
90.507
92.985
95.703
98.648
101.801
105.144
108.663
112.343
116.172
120.135
124.211
128.38
132.622
136.915
141.239
145.576
149.902
154.199
158.444
162.618
166.701
170.674
174.513
178.196
181.701
185.007
188.093
190.939
193.526
195.837
197.857
199.57
200.966
202.034
202.764
203.149
203.184
202.863
202.185
201.149
199.756
198.009
195.911
193.469
190.691
187.585
184.163
180.437
176.419
172.126
167.574
162.779
157.76
152.537
147.13
141.559
135.846
130.014
124.083
118.077
112.017
105.926
99.826
93.737
87.682
81.678
75.748
69.908
64.178
58.574
53.113
47.808
42.676
37.727
32.975
28.429
24.099
19.993
16.118
12.479
9.08
5.923
3.011
0.343
-2.083
-4.267
-6.215
-7.932
-9.422
-10.692
-11.752
-12.608
-13.271
-13.75
-14.057
-14.201
-14.195
-14.051
-13.78
-13.394
-12.905
-12.325
-11.667
-10.941
-10.159
-9.332
-8.47
-7.585
-6.684
-5.779
-4.876
-3.985
-3.113
-2.265
-1.449
-0.669
0.07
0.764
1.41
2.006
2.548
3.036
3.468
3.844
4.165
4.43
4.642
4.801
4.91
4.97
4.983
4.952
4.879
4.767
4.618
4.434
4.219
3.974
3.702
3.405
3.085
2.744
2.383
2.004
1.608
1.195
0.768
0.325
-0.131
-0.6
-1.081
-1.574
-2.078
-2.591
-3.112
-3.642
-4.178
-4.721
-5.269
-5.822
-6.377
-6.934
-7.491
-8.047
-8.599
-9.144
-9.68
-10.205
-10.716
-11.21
-11.683
-12.132
-12.553
-12.941
-13.293
-13.603
-13.867
-14.079
-14.236
-14.334
-14.369
-14.338
-14.238
-14.068
-13.828
-13.517
-13.137
-12.686
-12.166
-11.579
-10.926
-10.21
-9.431
-8.594
-7.703
-6.764
-5.784
-4.771
-3.731
-2.674
-1.606
-0.537
0.525
1.573
2.6
3.596
4.551
5.453
6.287
7.043
7.717
8.305
8.807
9.231
9.582
9.874
10.128
10.359
10.577
10.792
11.008
11.234
11.486
11.776
12.12
12.532
13.01
13.553
14.159
14.8
15.445
16.057
16.574
16.945
17.131
17.092
16.788
16.182
15.225
13.874
12.095
9.868
7.177
4.005
0.331
-3.834
-8.465
-13.491
-18.836
-24.481
-30.316
-36.15
-41.703
-46.55
-50.315
-52.788
-53.69
-52.661
-49.684
-44.928
-38.833
-32.441
-26.511
-21.355
-17.593
-15.792
-15.89
-17.629
-19.768
-19.73
-15.776
-7.092
6.378
23.678
44.077
67.864
96.727
131.918
174.118
222.84
273.429
319.916
355.146
370.184
358.913
318.178
249.141
158.688
55.773
-52.288
-162.646
-276.074
-393.615
-511.932
-621.075
-708.884
-765.769
-788.779
-782.974
-757.041
-718.846
-672.926
-620.346
-560.632
-494.169
-423.45
-351.938
-283.675
-222.368
-170.014
-127.643
-95.348
-72.057
-56.604
-47.767
-43.636
-42.272
-41.834
-40.478
-37.288
-32.188
-25.31
-17.077
-8.242
0.47
8.176
13.909
17.333
18.562
17.886
15.819
12.889
9.558
6.393
3.99
2.655
2.491
3.475
5.441
8.269
11.862
16.078
20.755
25.753
30.949
36.246
41.573
46.835
51.927
56.744
61.183
65.187
68.736
71.833
74.506
76.788
78.718
80.35
81.746
82.968
84.071
85.11
86.127
87.172
88.298
89.555
90.997
92.657
94.553
96.698
99.092
101.732
104.614
107.724
111.041
114.549
118.232
122.074
126.065
130.186
134.418
138.739
143.128
147.562
152.02
156.482
160.925
165.327
169.666
173.922
178.075
182.104
185.985
189.696
193.214
196.517
199.585
202.398
204.935
207.179
209.114
210.727
212.003
212.934
213.51
213.722
213.567
213.039
212.137
210.86
209.211
207.191
204.806
202.063
198.97
195.538
191.777
187.702
183.326
178.667
173.741
168.567
163.164
157.552
151.754
145.79
139.683
133.455
127.13
120.731
114.281
107.802
101.318
94.849
88.417
82.043
75.746
69.545
63.459
57.504
51.696
46.051
40.582
35.302
30.223
25.354
20.704
16.281
12.09
8.137
4.425
0.955
-2.272
-5.256
-7.999
-10.504
-12.776
-14.82
-16.643
-18.251
-19.653
-20.858
-21.875
-22.715
-23.387
-23.904
-24.275
-24.511
-24.625
-24.628
-24.531
-24.344
-24.08
-23.749
-23.362
-22.928
-22.457
-21.96
-21.444
-20.918
-20.39
-19.867
-19.356
-18.863
-18.394
-17.952
-17.543
-17.17
-16.836
-16.543
-16.293
-16.088
-15.929
-15.815
-15.747
-15.726
-15.75
-15.82
-15.933
-16.09
-16.289
-16.529
-16.808
-17.126
-17.48
-17.87
-18.294
-18.75
-19.237
-19.753
-20.297
-20.865
-21.458
-22.071
-22.704
-23.354
-24.019
-24.697
-25.386
-26.083
-26.786
-27.494
-28.203
-28.912
-29.619
-30.32
-31.013
-31.695
-32.363
-33.015
-33.646
-34.254
-34.835
-35.385
-35.902
-36.38
-36.817
-37.209
-37.552
-37.843
-38.078
-38.255
-38.372
-38.428
-38.421
-38.352
-38.221
-38.03
-37.781
-37.475
-37.116
-36.705
-36.247
-35.744
-35.2
-34.618
-34.005
-33.367
-32.71
-32.042
-31.369
-30.699
-30.039
-29.398
-28.784
-28.204
-27.665
-27.175
-26.739
-26.366
-26.069
-25.853
-25.72
-25.67
-25.7
-25.803
-25.975
-26.205
-26.473
-26.764
-27.06
-27.347
-27.618
-27.863
-28.069
-28.223
-28.302
-28.298
-28.212
-28.053
-27.83
-27.564
-27.268
-26.975
-26.744
-26.629
-26.683
-26.965
-27.508
-28.356
-29.561
-31.158
-33.193
-35.713
-38.736
-42.278
-46.363
-50.962
-56.072
-61.71
-67.745
-73.986
-80.178
-85.915
-90.854
-94.79
-97.401
-98.326
-97.514
-95.075
-91.4
-87.363
-83.601
-80.412
-78.242
-77.512
-78.218
-80.119
-82.375
-82.936
-79.875
-71.997
-58.241
-39.131
-16.311
9.337
37.026
67.533
102.893
143.771
189.233
234.786
273.343
297.105
297.608
269.685
212.66
130.534
32.657
-71.531
-176.478
-282.294
-391.001
-499.099
-606.659
-712.811
-789.206
-809.49
-794.831
-774.145
-745.256
-704.484
-658.31
-606.95
-548.381
-484.912
-419.233
-354.61
-295.146
-243.119
-199.708
-165.427
-139.448
-120.71
-108.588
-101.898
-98.812
-97.481
-95.984
-93.116
-88.716
-82.891
-75.783
-67.819
-59.617
-52.011
-46.036
-42.185
-40.371
-40.325
-41.612
-43.776
-46.418
-48.999
-50.891
-51.737
-51.416
-49.939
-47.471
-44.137
-40.021
-35.266
-30.046
-24.514
-18.802
-13.011
-7.21
-1.491
4.042
9.286
14.14
18.547
22.489
25.965
29
31.627
33.883
35.82
37.501
38.984
40.326
41.581
42.79
44.006
45.277
46.657
48.195
49.928
51.873
54.044
56.445
59.074
61.929
64.998
68.265
71.715
75.335
79.113
83.037
87.093
91.263
95.528
99.867
104.259
108.687
113.13
117.568
121.979
126.344
130.644
134.858
138.967
142.949
146.781
150.442
153.911
157.166
160.188
162.958
165.457
167.671
169.584
171.183
172.458
173.399
173.996
174.244
174.138
173.675
172.853
171.674
170.139
168.253
166.021
163.451
160.553
157.337
153.816
150.003
145.914
141.565
136.974
132.159
127.139
121.934
116.566
111.055
105.424
99.694
93.887
88.026
82.131
76.226
70.33
64.464
58.648
52.902
47.244
41.692
36.262
30.97
25.832
20.859
16.066
11.464
7.061
2.867
-1.111
-4.867
-8.396
-11.696
-14.763
-17.597
-20.198
-22.568
-24.71
-26.628
-28.325
-29.808
-31.084
-32.159
-33.041
-33.74
-34.264
-34.623
-34.826
-34.885
-34.809
-34.609
-34.295
-33.879
-33.371
-32.78
-32.118
-31.394
-30.618
-29.798
-28.944
-28.064
-27.165
-26.254
-25.339
-24.425
-23.518
-22.623
-21.745
-20.886
-20.051
-19.242
-18.462
-17.712
-16.995
-16.31
-15.659
-15.042
-14.46
-13.912
-13.398
-12.917
-12.47
-12.055
-11.671
-11.319
-10.996
-10.703
-10.438
-10.202
-9.991
-9.808
-9.65
-9.517
-9.408
-9.323
-9.261
-9.221
-9.203
-9.206
-9.228
-9.269
-9.328
-9.403
-9.493
-9.598
-9.715
-9.845
-9.984
-10.131
-10.284
-10.441
-10.599
-10.756
-10.908
-11.053
-11.188
-11.308
-11.411
-11.493
-11.549
-11.576
-11.57
-11.526
-11.442
-11.312
-11.135
-10.907
-10.625
-10.289
-9.897
-9.45
-8.948
-8.392
-7.784
-7.126
-6.42
-5.67
-4.878
-4.049
-3.185
-2.291
-1.371
-0.433
0.517
1.472
2.425
3.369
4.297
5.201
6.072
6.901
7.685
8.419
9.097
9.711
10.25
10.709
11.087
11.388
11.616
11.776
11.874
11.923
11.944
11.961
11.993
12.055
12.153
12.295
12.493
12.766
13.134
13.606
14.178
14.839
15.579
16.386
17.246
18.118
18.936
19.634
20.139
20.405
20.394
20.061
19.372
18.274
16.708
14.634
12.025
8.864
5.172
0.942
-3.864
-9.163
-14.766
-20.389
-25.595
-30.025
-33.474
-35.668
-36.273
-35.139
-32.301
-28.129
-23.492
-19.142
-15.432
-12.766
-11.553
-11.937
-13.897
-16.386
-17.001
-13.753
-5.311
8.057
24.313
42.627
63.042
87.71
120.628
163.159
214.895
272.14
327.183
372.332
399.479
401.227
373.534
316.239
233.611
133.642
25.385
-85.745
-198.522
-313.594
-431.508
-547.123
-649.996
-729.536
-777.354
-792.546
-781.25
-750.914
-708.452
-656.925
-595.797
-525.302
-447.739
-368.402
-294.223
-230.63
-179.843
-140.186
-108.606
-82.848
-62
-47.115
-38.508
-34.516
-32.778
-30.531
-26.187
-19.759
-11.646
-2.258
7.849
17.947
27.086
34.145
38.596
40.584
40.466
38.741
35.911
32.434
28.891
25.953
24.041
23.306
23.752
25.237
27.634
30.869
34.813
39.304
44.195
49.349
54.651
60.022
65.371
70.593
75.584
80.238
84.465
88.22
91.491
94.287
96.638
98.579
100.15
101.407
102.414
103.235
103.932
104.557
105.155
105.777
106.476
107.303
108.307
109.519
110.955
112.625
114.531
116.671
119.042
121.629
124.416
127.385
130.523
133.817
137.255
140.821
144.496
148.261
152.094
155.976
159.888
163.81
167.72
171.599
175.426
179.181
182.847
186.402
189.824
193.093
196.187
199.084
201.765
204.212
206.404
208.326
209.962
211.3
212.326
213.032
213.408
213.447
213.144
212.495
211.498
210.153
208.46
206.422
204.045
201.335
198.299
194.948
191.291
187.341
183.112
178.619
173.877
168.905
163.719
158.339
152.784
147.076
141.234
135.28
129.236
123.122
116.96
110.772
104.578
98.399
92.254
86.162
80.142
74.212
68.389
62.688
57.124
51.711
46.463
41.391
36.506
31.817
27.333
23.061
19.006
15.173
11.566
8.187
5.037
2.115
-0.578
-3.047
-5.294
-7.325
-9.143
-10.756
-12.172
-13.396
-14.44
-15.31
-16.017
-16.57
-16.98
-17.256
-17.41
-17.451
-17.39
-17.238
-17.004
-16.699
-16.333
-15.915
-15.454
-14.96
-14.441
-13.905
-13.359
-12.811
-12.267
-11.734
-11.217
-10.722
-10.253
-9.814
-9.409
-9.042
-8.714
-8.428
-8.187
-7.99
-7.839
-7.736
-7.679
-7.669
-7.706
-7.788
-7.916
-8.087
-8.302
-8.557
-8.851
-9.182
-9.548
-9.947
-10.374
-10.829
-11.308
-11.808
-12.326
-12.86
-13.405
-13.96
-14.521
-15.083
-15.644
-16.2
-16.747
-17.281
-17.799
-18.297
-18.771
-19.217
-19.632
-20.011
-20.351
-20.648
-20.899
-21.101
-21.25
-21.344
-21.381
-21.359
-21.277
-21.136
-20.936
-20.677
-20.363
-19.994
-19.574
-19.105
-18.591
-18.036
-17.443
-16.817
-16.161
-15.482
-14.786
-14.078
-13.367
-12.658
-11.959
-11.276
-10.619
-9.995
-9.409
-8.867
-8.372
-7.929
-7.545
-7.228
-6.982
-6.806
-6.697
-6.653
-6.67
-6.743
-6.858
-6.994
-7.129
-7.246
-7.334
-7.389
-7.403
-7.366
-7.262
-7.074
-6.797
-6.436
-5.996
-5.482
-4.899
-4.261
-3.606
-3.001
-2.517
-2.213
-2.133
-2.3
-2.743
-3.504
-4.644
-6.223
-8.286
-10.86
-13.954
-17.613
-21.922
-26.885
-32.364
-38.08
-43.625
-48.626
-52.862
-56.083
-57.913
-58.119
-56.746
-54.177
-51.246
-48.755
-47.105
-46.603
-47.689
-50.574
-55.014
-60.198
-64.473
-66.033
-63.714
-56.497
-43.117
-22.556
5.728
41.214
81.648
124.241
166.735
207.905
247.477
284.553
316.957
339.628
344.97
326.03
277.876
201.295
103.233
-7.323
-122.235
-238.176
-356.182
-477.201
-597.857
-708.34
-795.494
-848.249
-863.261
-846.064
-807.279
-757.592
-703.032
-643.955
-577.812
-503.419
-423.355
-344.24
-274.217
-218.486
-177.608
-148.175
-125.616
-107.039
-92.161
-81.908
-76.029
-72.952
-70.382
-66.345
-60.354
-52.73
-43.813
-34.208
-24.666
-16.042
-9.427
-5.359
-3.678
-4.026
-5.898
-8.771
-12.195
-15.585
-18.244
-19.766
-20.024
-19.029
-16.957
-13.947
-10.08
-5.501
-0.396
5.077
10.763
16.544
22.341
28.046
33.537
38.699
43.41
47.603
51.256
54.37
56.971
59.098
60.79
62.104
63.112
63.879
64.474
64.958
65.382
65.806
66.288
66.891
67.673
68.678
69.927
71.437
73.213
75.256
77.565
80.129
82.929
85.952
89.184
92.612
96.226
100.011
103.946
108.012
112.187
116.451
120.782
125.16
129.561
133.965
138.349
142.692
146.971
151.165
155.249
159.198
162.988
166.594
169.994
173.165
176.085
178.734
181.093
183.145
184.878
186.277
187.331
188.03
188.368
188.339
187.938
187.165
186.018
184.5
182.614
180.367
177.766
174.819
171.538
167.935
164.025
159.822
155.345
150.611
145.639
140.45
135.063
129.502
123.789
117.945
111.995
105.962
99.868
93.737
87.591
81.453
75.342
69.281
63.289
57.385
51.586
45.911
40.373
34.99
29.774
24.738
19.894
15.252
10.82
6.607
2.619
-1.14
-4.665
-7.955
-11.007
-13.822
-16.401
-18.746
-20.861
-22.75
-24.419
-25.873
-27.121
-28.17
-29.03
-29.709
-30.218
-30.566
-30.765
-30.824
-30.755
-30.569
-30.276
-29.887
-29.414
-28.867
-28.257
-27.594
-26.889
-26.152
-25.39
-24.615
-23.834
-23.056
-22.288
-21.538
-20.812
-20.116
-19.457
-18.84
-18.27
-17.749
-17.281
-16.87
-16.516
-16.22
-15.984
-15.806
-15.687
-15.625
-15.619
-15.668
-15.768
-15.918
-16.114
-16.352
-16.628
-16.939
-17.279
-17.644
-18.029
-18.428
-18.836
-19.247
-19.657
-20.059
-20.446
-20.814
-21.156
-21.466
-21.739
-21.967
-22.147
-22.274
-22.343
-22.352
-22.298
-22.18
-21.997
-21.749
-21.436
-21.06
-20.621
-20.122
-19.565
-18.952
-18.286
-17.572
-16.813
-16.017
-15.191
-14.34
-13.473
-12.595
-11.715
-10.84
-9.979
-9.14
-8.327
-7.548
-6.809
-6.12
-5.493
-4.934
-4.445
-4.025
-3.669
-3.374
-3.133
-2.933
-2.756
-2.582
-2.396
-2.182
-1.935
-1.643
-1.295
-0.876
-0.367
0.241
0.943
1.732
2.597
3.522
4.484
5.446
6.341
7.11
7.693
8.026
8.062
7.745
7.021
5.853
4.198
2.015
-0.725
-4.043
-7.96
-12.45
-17.497
-23.115
-29.176
-35.461
-41.672
-47.358
-52.14
-55.787
-57.971
-58.285
-56.673
-53.298
-48.632
-43.659
-39.01
-34.98
-32.172
-31.123
-31.907
-34.004
-35.742
-34.829
-29.696
-20.123
-7.033
8.992
27.75
50.098
79.049
116.395
162.714
217.678
275.668
329.091
370.68
391.126
384.488
348.647
282.914
192.12
83.767
-36.142
-162.477
-292.868
-426.099
-556.688
-674.663
-768.658
-829.283
-854.453
-850.051
-824.768
-786.27
-737.56
-677.548
-605.456
-523.367
-437.926
-357.195
-287.148
-230.333
-184.593
-146.78
-115.185
-89.161
-69.909
-58.152
-52.402
-50.396
-49.424
-47.177
-42.905
-36.755
-29.028
-20.195
-10.969
-2.031
5.745
11.405
14.67
15.713
14.847
12.615
9.564
6.157
2.978
0.64
-0.555
-0.504
0.764
3.072
6.289
10.31
14.978
20.116
25.569
31.2
36.899
42.586
48.159
53.505
58.519
63.094
67.173
70.736
73.79
76.365
78.499
80.236
81.635
82.764
83.689
84.472
85.171
85.834
86.513
87.264
88.14
89.195
90.464
91.967
93.716
95.712
97.953
100.434
103.141
106.054
109.156
112.431
115.865
119.445
123.155
126.975
130.883
134.857
138.875
142.917
146.961
150.986
154.969
158.888
162.724
166.455
170.061
173.519
176.807
179.901
182.781
185.426
187.815
189.93
191.754
193.271
194.466
195.33
195.851
196.022
195.835
195.286
194.372
193.092
191.448
189.44
187.073
184.355
181.291
177.893
174.171
170.138
165.808
161.197
156.322
151.201
145.851
140.295
134.551
128.641
122.588
116.412
110.138
103.787
97.382
90.946
84.501
78.069
71.671
65.326
59.056
52.878
46.811
40.872
35.077
29.441
23.977
18.699
13.617
8.743
4.086
-0.348
-4.552
-8.521
-12.25
-15.738
-18.983
-21.985
-24.746
-27.267
-29.553
-31.608
-33.437
-35.048
-36.447
-37.644
-38.646
-39.465
-40.109
-40.59
-40.919
-41.108
-41.167
-41.11
-40.947
-40.692
-40.356
-39.95
-39.487
-38.979
-38.435
-37.867
-37.286
-36.701
-36.122
-35.557
-35.016
-34.505
-34.033
-33.604
-33.225
-32.9
-32.634
-32.429
-32.288
-32.212
-32.202
-32.258
-32.379
-32.565
-32.814
-33.122
-33.487
-33.905
-34.372
-34.882
-35.432
-36.014
-36.623
-37.253
-37.897
-38.548
-39.199
-39.843
-40.473
-41.082
-41.661
-42.203
-42.702
-43.15
-43.54
-43.868
-44.128
-44.314
-44.425
-44.457
-44.41
-44.283
-44.075
-43.787
-43.421
-42.978
-42.46
-41.872
-41.215
-40.493
-39.714
-38.882
-38.007
-37.097
-36.16
-35.204
-34.24
-33.275
-32.321
-31.386
-30.478
-29.605
-28.779
-28.01
-27.312
-26.695
-26.162
-25.717
-25.357
-25.077
-24.871
-24.728
-24.626
-24.55
-24.483
-24.413
-24.332
-24.229
-24.088
-23.896
-23.632
-23.285
-22.855
-22.345
-21.762
-21.125
-20.46
-19.802
-19.214
-18.754
-18.47
-18.416
-18.643
-19.196
-20.136
-21.511
-23.348
-25.686
-28.552
-31.971
-35.972
-40.545
-45.646
-51.231
-57.252
-63.597
-70.075
-76.383
-82.118
-86.937
-90.587
-92.808
-93.268
-91.769
-88.413
-83.627
-78.125
-72.54
-67.225
-62.537
-59.055
-57.271
-56.846
-56.405
-54.243
-48.787
-39.829
-28.868
-16.544
-2.136
15.816
40.612
74.98
118.255
168.806
223.168
275.12
319.783
350.949
360.382
341.771
290.334
207.025
99.441
-22.375
-148.615
-276.482
-405.962
-532.406
-658.723
-786.136
-882.163
-915.078
-905.802
-883.875
-846.606
-791.389
-725.681
-651.063
-567.825
-481.014
-397.537
-323.402
-261.512
-210.808
-169.035
-134.627
-106.917
-86.737
-74.497
-68.697
-67.036
-66.699
-65.205
-61.62
-55.987
-48.603
-39.947
-30.712
-21.606
-13.563
-7.647
-4.224
-3.152
-4.111
-6.532
-9.844
-13.564
-17.069
-19.693
-21.091
-21.141
-19.864
-17.448
-14.036
-9.735
-4.72
0.817
6.706
12.796
18.968
25.137
31.192
37.014
42.489
47.507
52.011
55.977
59.411
62.342
64.807
66.853
68.54
69.937
71.113
72.132
73.054
73.93
74.816
75.768
76.84
78.087
79.542
81.226
83.149
85.312
87.712
90.343
93.191
96.238
99.465
102.859
106.404
110.088
113.896
117.806
121.8
125.856
129.954
134.075
138.198
142.304
146.373
150.385
154.319
158.16
161.885
165.474
168.906
172.16
175.214
178.051
180.65
182.994
185.067
186.854
188.342
189.52
190.378
190.908
191.103
190.959
190.472
189.64
188.464
186.945
185.087
182.895
180.375
177.536
174.386
170.938
167.204
163.197
158.933
154.426
149.695
144.757
139.631
134.335
128.89
123.317
117.636
111.867
106.033
100.154
94.251
88.344
82.454
76.601
70.803
65.078
59.445
53.921
48.521
43.262
38.157
33.221
28.465
23.901
19.539
15.388
11.456
7.75
4.275
1.037
-1.963
-4.722
-7.239
-9.514
-11.549
-13.347
-14.91
-16.244
-17.355
-18.248
-18.931
-19.413
-19.702
-19.808
-19.742
-19.514
-19.135
-18.618
-17.974
-17.215
-16.354
-15.403
-14.376
-13.283
-12.139
-10.954
-9.742
-8.513
-7.28
-6.051
-4.839
-3.652
-2.5
-1.39
-0.331
0.67
1.608
2.477
3.271
3.987
4.622
5.172
5.636
6.012
6.302
6.504
6.622
6.657
6.613
6.492
6.299
6.04
5.72
5.344
4.92
4.453
3.952
3.424
2.876
2.317
1.754
1.193
0.643
0.11
-0.4
-0.881
-1.331
-1.743
-2.115
-2.445
-2.728
-2.964
-3.149
-3.283
-3.362
-3.384
-3.349
-3.257
-3.109
-2.906
-2.65
-2.345
-1.993
-1.599
-1.166
-0.691
-0.175
0.38
0.973
1.595
2.241
2.906
3.587
4.28
4.982
5.693
6.425
7.197
8.03
8.941
9.944
11.042
12.243
13.554
14.989
16.558
18.267
20.115
22.1
24.223
26.476
28.828
31.209
33.525
35.676
37.57
39.144
40.323
41.017
41.149
40.637
39.419
37.471
34.742
31.136
26.603
21.178
15.021
8.478
1.935
-4.256
-9.713
-13.993
-16.675
-17.593
-16.932
-15.136
-13.245
-12.215
-12.484
-14.826
-18.284
-20.932
-22.384
-22.182
-22.193
-26.659
-36.487
-43.389
-37.231
-27.863
-12.63
-25.795
