83.658
93.589
90.873
86.343
90.494
93.577
89.325
88.127
93.337
95.897
95.338
96.718
95.708
89.902
86.767
87.727
86.163
81.296
75.492
68.749
64.485
63.089
55.475
41.754
35.515
36.162
29.218
16.937
11.751
9.747
4.447
3.999
9.586
7.595
-3.256
-8.97
-5.795
-1.77
-1.05
-4.046
-9.722
-12.314
-9.441
-7.569
-10.229
-14.163
-18.502
-22.931
-24.117
-24.235
-29.022
-35.68
-39.031
-41.869
-45.371
-44.055
-37.623
-31.304
-25.973
-20.166
-11.823
5.25
32.045
60.162
89.466
128.893
174.482
215.804
258.981
312.341
362.223
386.399
375.348
330.694
258.902
167.839
62.644
-51.62
-167.376
-279.431
-388.171
-501.57
-629.11
-753.808
-826.661
-822.876
-779.051
-739.991
-705.651
-660.612
-607.39
-545.217
-466.441
-387.043
-331.258
-289.637
-239.293
-185.862
-144.998
-114.004
-89.867
-77.957
-71.73
-60.663
-52.656
-57.887
-67.374
-68.012
-59.707
-50.253
-47.714
-53.424
-56.98
-49.909
-38.761
-30.678
-22.029
-13.205
-12.034
-17.367
-23.103
-32.122
-43.611
-43.412
-25.879
-4.697
7.25
8.141
-0.433
-13.091
-21.473
-24.159
-22.57
-12.311
4.723
15.21
14.099
8.676
2.274
-3.714
-3.117
3.041
7.356
12.29
22.241
29.387
27.79
23.382
20.761
21.275
29.079
40.623
44.782
43.171
46.864
54.521
58.335
60.264
62.685
61.776
60.537
65.166
69.597
67.326
65.962
70.454
73.668
74.722
80.408
87.524
88.261
85.775
87.504
93.998
101.759
108.254
113.941
120.923
126.792
127.552
128.032
134.512
141.265
142.089
143.066
148.231
151.748
153.524
159.205
163.754
159.107
152.255
154.372
162.249
167.527
171.548
178.086
184.266
186.88
187.314
188.209
190.988
193.464
191.364
187.004
186.831
188.532
185.671
180.48
176.746
171.64
164.89
160.232
155.703
148.006
139.8
131.408
118.57
103.175
90.977
81.468
71.904
61.795
48.875
33.602
22.591
16.073
6.176
-6.517
-14.768
-20.707
-29.443
-37.509
-43.926
-54.511
-66.322
-70.41
-70.224
-74.854
-82.306
-87.473
-91.95
-95.775
-97.219
-101.119
-110.375
-117.947
-119.424
-118.595
-116.921
-114.166
-114.004
-116.283
-115.833
-113.028
-111.375
-110.367
-111.004
-114.787
-115.9
-111.846
-111.449
-116.669
-118.389
-118.015
-123.064
-125.778
-118.489
-112.838
-116.576
-118.99
-115.675
-114.591
-114.316
-109.205
-106.524
-110.935
-112.585
-108.505
-107.646
-108.936
-104.912
-100.488
-101.624
-101.898
-97.596
-95.201
-97.235
-99.231
-98.927
-97.459
-96.706
-97.413
-96.953
-93.981
-91.891
-90.409
-84.88
-78.278
-77.333
-79.341
-79.868
-81.404
-82.189
-77.274
-73.703
-79.492
-86.052
-85.088
-83.809
-86.555
-86.157
-80.722
-75.961
-74.052
-75.168
-78.913
-80.28
-77.914
-78.431
-81.734
-80.377
-77.677
-81.804
-86.369
-82.686
-77.936
-79.551
-81.713
-80.241
-78.103
-74.98
-71.219
-71.667
-73.984
-71.432
-67.097
-66.126
-65.639
-65.242
-67.907
-68.594
-63.623
-61.097
-64.399
-65.585
-64.046
-65.677
-66.273
-62.26
-62.882
-70.457
-73.487
-70.632
-71.66
-75.336
-74.494
-72.019
-71.811
-70.685
-67.77
-65.681
-64.834
-66.353
-70.425
-71.631
-68.385
-67.676
-70.893
-70.911
-66.731
-63.58
-61.973
-60.613
-61.06
-62.504
-62.73
-62.67
-61.81
-58.627
-57.567
-61.641
-64.457
-62.764
-62.098
-62.377
-58.566
-54.711
-55.796
-56.403
-54.196
-54.857
-55.946
-51.325
-47.612
-50.433
-50.262
-42.461
-36.346
-33.557
-26.756
-19.152
-17.805
-18.245
-15.68
-13.813
-13.432
-11.573
-9.227
-5.604
1.187
3.858
-2.069
-5.178
1.082
6.026
4.158
0.976
-4
-11.287
-13.234
-11.731
-17.967
-28.99
-35.192
-41.138
-51.678
-59.011
-60.629
-63.686
-68.152
-70.1
-72.343
-74.565
-71.04
-65.78
-67.972
-74.128
-75.707
-74.707
-74.69
-71.961
-66.671
-64.551
-64.53
-61.949
-58.312
-55.088
-50.729
-48.657
-52.431
-57.265
-58.809
-58.818
-58.085
-57.138
-57.817
-56.244
-48.159
-37.732
-25.535
-4.992
19.634
39.79
64.352
103.09
145.668
183.368
224.21
273.351
324.129
362.296
366.954
330.244
268.393
189.869
86.926
-28.894
-135.49
-237.789
-346.728
-454.346
-562.153
-675.785
-762.261
-782.91
-755.911
-723.204
-690.859
-650.438
-608.145
-559.091
-486.327
-401.917
-338.707
-299.985
-260.639
-208.684
-153.335
-107.946
-82.177
-73.744
-67.632
-56.331
-47.04
-45.217
-49.799
-56.405
-53.489
-36.127
-21.78
-25.331
-34.654
-34.075
-25.147
-12.288
2.569
12.748
16.172
17.465
13.353
-0.038
-11.107
-8.604
2.458
16.221
32.052
40.927
34.918
24.183
20.524
21.322
24.257
33.213
45.624
56.508
65.924
69.062
59.789
46.7
41.964
43.431
46.116
52.093
59.636
64.269
68.201
71.887
70.912
69.178
72.774
75.124
72.115
73.897
82.301
85.373
83.068
85.042
88.8
90.12
95.028
102.223
103.347
103.98
112.409
120.914
124.291
130.485
138.746
140.229
139.736
145.488
151.449
152.512
154.453
159.082
163.36
169.35
177.062
181.078
181.953
184.516
188.424
193.213
201.291
210.921
219.559
229.262
238.053
239.417
236.07
236.804
241.067
243.712
246.588
251.972
256.705
259.728
263.449
268.188
273.372
278.031
278.398
273.534
268.667
266.448
264.584
263.302
262.939
259.526
253.459
250.562
249.058
242.639
234.351
228.197
217.676
200.336
186.011
178.401
169.663
157.436
146.628
137.475
127.289
116.343
104.804
93.106
84.196
77.59
68.991
59.814
54.721
50.464
42.115
34.478
32.18
29.325
21.693
14.364
9.876
5.421
1.798
0.592
-0.268
-0.218
2.17
2.569
-0.885
-2.759
-1.448
-0.225
1.12
1.603
-2.699
-8.345
-9.18
-7.831
-6.781
-2.996
-0.707
-6.512
-13.211
-13.39
-14.589
-19.966
-19.64
-13.675
-12.72
-15.592
-15.134
-14.162
-15.066
-13.844
-12.131
-13.485
-13.512
-10.43
-9.731
-11.358
-11.851
-14.546
-20.382
-22.711
-20.682
-19.698
-19.994
-20.284
-21.84
-21.364
-15.574
-10.465
-10.83
-11.441
-9.377
-9.416
-12.413
-14.348
-15.079
-15.295
-13.245
-11.437
-13.296
-13.988
-9.913
-7.699
-9.921
-9.388
-6.453
-9.198
-14.793
-14.182
-9.32
-6.797
-5.81
-3.535
-0.504
1.537
0.437
-2.948
-3.539
-0.584
1.219
0.976
-0.39
-5.079
-10.32
-9.372
-5.245
-5.5
-7.876
-7.996
-8.931
-11.77
-12.483
-11.17
-10.224
-8.586
-7.274
-9.112
-9.701
-4.076
1.04
-1.026
-3.374
-0.308
1.885
0.609
0.466
-0.693
-4.999
-5.247
-1.512
-3.439
-8.251
-7.061
-5.413
-7.907
-4.913
3.965
5.61
0.55
-0.347
1.059
0.142
1.943
4.905
0.74
-5.376
-4.615
-3.864
-9.662
-14.104
-12.752
-10.934
-9.031
-5.172
-3.552
-4.475
-3.389
-3
-6.326
-7.105
-3.823
-4.902
-10.956
-13.66
-12.313
-11.912
-12.097
-11.678
-12.87
-14.758
-13.823
-10.481
-7.85
-8.564
-13.099
-16.655
-14.708
-11.664
-11.881
-10.204
-4.721
-2.467
-3.368
-0.464
3.803
4.339
5.661
9.385
9.381
7.68
10.593
13.247
11.693
13.7
19.864
19.922
15.652
18.236
26.284
31.665
33.871
33.9
32.439
34.941
41.44
43.105
38.387
33.767
29.712
24.547
21.442
19.506
14.237
8.362
5.059
-0.347
-8.157
-11.284
-11.203
-15.025
-19.305
-18.415
-17.445
-20.263
-22.057
-20.778
-18.274
-14.159
-11.033
-13.09
-16.516
-17.22
-19.544
-23.621
-22.766
-20.049
-23.43
-28.36
-28.49
-28.364
-29.303
-26.321
-23.533
-27.095
-30.91
-29.185
-25.383
-19.545
-8.029
6.83
23.507
44.982
69.633
96.7
133.411
179.722
225.618
271.675
324.027
372.489
401.089
405.222
382.594
330.822
255.224
159.653
45.342
-74.606
-185.965
-291.77
-400.473
-515.595
-636.526
-740.839
-788.442
-772.733
-732.252
-695.791
-659.14
-614.865
-560.474
-489.998
-410.427
-341.972
-286.162
-228.254
-171.216
-128.856
-97.822
-70.134
-51.186
-42.31
-34.228
-27.814
-30.8
-36.543
-33.56
-23.37
-10.881
1.47
4.703
-4.708
-10.705
-0.849
13.96
20.905
22.057
21.955
21.062
18.625
10.559
-1.636
-3.157
12.766
31.251
39.673
40.866
36.957
27.893
20.656
18.451
16.837
19.976
35.667
54.905
62.264
58.246
51.979
46.35
42.298
42.823
48.346
57.003
65.748
70.04
70.249
71.417
71.609
65.885
60.375
62.652
67.582
70.176
74.903
81.402
82.703
80.096
80.152
83.234
87.895
93.783
95.863
91.419
88.325
92.248
97.96
102.44
108.704
114.948
118.515
123.135
128.053
126.991
124.277
129.104
137.356
141.682
145.532
150.269
150.365
148.967
153.592
160.339
164.06
169.645
178.8
186.264
192.819
200.973
205.648
205.747
208.197
212.65
213.354
213.348
216.67
218.851
218.663
220.806
223.386
222.414
222.216
225.698
228.057
228.109
229.366
230.769
230.242
228.695
223.92
214.486
206.736
203.405
197.802
188.996
182.853
176.559
164.304
150.547
139.694
128.358
116.651
107.555
97.401
84.795
76.323
72.065
64.587
54.63
47.545
41.08
32.938
26.747
22.036
14.574
6.177
-0.005
-6.011
-12.827
-18.768
-23.861
-26.958
-26.808
-28.06
-33.171
-36.062
-35.598
-37.206
-37.025
-30.438
-27.975
-34.952
-37.885
-33.034
-33.762
-39.641
-38.908
-36.568
-41.786
-46.375
-44.034
-42.664
-44.443
-44.02
-43.876
-46.654
-47.191
-45.496
-46.51
-47.471
-45.516
-45.266
-46.729
-45.335
-44.203
-46.04
-44.836
-40.637
-41.527
-45.237
-43.733
-41.355
-44.748
-48.04
-45.881
-43.05
-42.498
-42.551
-44.083
-45.809
-43.281
-39.369
-40.555
-45.102
-47.712
-46.404
-40.411
-33.918
-35.493
-43.303
-46.277
-43.303
-41.092
-39.248
-36.751
-38.348
-42.134
-40.995
-37.454
-36.546
-35.002
-32.734
-34.809
-37.312
-35.011
-34.31
-38.067
-38.409
-35.343
-35.116
-34.238
-30.952
-32.819
-36.758
-32.582
-27.125
-30.638
-34.893
-33.084
-33.266
-36.759
-35.957
-33.009
-32.766
-31.717
-29.899
-31.766
-33.914
-32.649
-32.384
-34.299
-34.649
-34.683
-35.39
-33.105
-29.93
-31.235
-33.507
-32.574
-33.447
-38.59
-42.445
-43.115
-42.938
-41.097
-38.45
-38.766
-39.814
-38.302
-38.947
-42.857
-41.962
-37.174
-38.899
-45.654
-48.828
-50.522
-52.435
-47.363
-38.203
-37.289
-42.314
-42.383
-39.841
-40.718
-40.86
-38.327
-38.294
-40.403
-41.474
-44.432
-49.223
-49.859
-47.67
-48.605
-50.268
-49.537
-50.639
-53.048
-50.382
-45.098
-43.182
-41.226
-37.045
-36.52
-39.084
-38.029
-35.548
-36.949
-39.515
-40.341
-40.257
-38.366
-36.703
-39.666
-41.657
-35.513
-29.673
-32.536
-35.231
-32.312
-33.505
-39.821
-39.829
-33.878
-31.13
-30.007
-25.786
-21.821
-19.463
-15.471
-11.665
-10.469
-8.082
-3.706
-2.78
-5.402
-5.07
0.662
7.753
11.305
11.158
13.466
21.472
28.221
29.297
31.627
37.448
38.328
33.584
31.116
29.677
23.767
16.654
11.048
3.827
-3.262
-6.875
-10.66
-15.769
-17.477
-17.458
-21.082
-25.529
-26.388
-26.098
-26.595
-26.67
-27.427
-28.214
-25.181
-21.648
-24.23
-28.015
-25.7
-22.834
-24.402
-24.151
-20.998
-22.431
-27.66
-30.137
-29.957
-28.496
-25.614
-25.87
-30.323
-30.776
-26.273
-26.639
-31.309
-28.121
-14.876
0.723
17.748
39.169
61.96
85.473
117.696
161.659
208.569
252.728
299.071
348.801
390.765
411.675
404.878
369.548
308.043
222.65
116.916
0.185
-118.674
-236.118
-346.671
-452.347
-571.927
-701.469
-790.794
-806.263
-775.389
-735.059
-692.13
-647.545
-600.451
-537.14
-456.247
-376.273
-304.741
-238.397
-183.374
-141.674
-103.168
-67.252
-42.153
-26.68
-17.392
-15.449
-16.468
-17.246
-22.569
-25.663
-11.202
11.191
15.948
3.347
-5.376
-1.325
11.22
25.876
33.373
31.326
30.036
32.246
27.454
16.559
14.586
25.85
41.949
57.489
67.888
66.714
57.313
49.378
43.774
38.364
38.397
47.136
60.291
73.182
80.375
77.083
69.195
66.04
65.706
65.381
70.921
80.859
84.769
83.525
84.218
82.929
78.241
81.351
93.642
101.723
102.495
104.586
108.936
111.465
112.958
113.376
111.413
110.157
110.667
110.262
112.433
121.089
128.954
130.11
131.049
135.982
140.953
146.193
152.987
156.055
155.104
156.642
159.89
162.382
169.21
178.296
179.524
176.602
179.908
184.484
184.363
187.342
195.186
200.01
204.772
214.04
218.31
215.428
218.481
226.684
226.199
221.049
224.76
232.632
234.382
234.67
239.004
242.036
241.302
241.477
243.098
242.839
240.256
236.725
234.711
236.021
236.075
229.952
222.338
218.081
213.034
205.352
199.001
192.028
180.234
167.66
158.233
149.397
140.947
133.771
123.086
108.68
98.85
94
86.282
76.251
67.743
56.344
41.373
30.368
22.966
13.351
4.623
-0.098
-5.762
-12.54
-15.478
-16.777
-19.72
-21.781
-24.254
-30.638
-35.495
-33.403
-30.081
-31.368
-35.193
-39.721
-44.438
-45.662
-43.045
-41.893
-42.868
-42.593
-43.733
-49.195
-53.222
-51.635
-49.347
-50.447
-54.113
-58.928
-60.951
-57.659
-55.984
-60.603
-63.556
-61.264
-61.543
-64.71
-64.267
-63.142
-64.152
-61.056
-55.264
-55.48
-58.285
-55.999
-52.553
-52.232
-52.753
-55.782
-62.484
-65.595
-62.717
-61.287
-62.561
-60.772
-57.073
-55.543
-53.436
-49.5
-49.038
-52.807
-55.683
-56.78
-57.449
-56.398
-55.297
-56.625
-55.946
-51.017
-49.033
-52.455
-54.556
-54.438
-56.15
-57.134
-55.952
-57.844
-61.453
-59.852
-55.196
-52.66
-50.538
-49.244
-51.521
-52.131
-47.515
-45.16
-48.117
-49.813
-49.841
-51.765
-51.13
-46.16
-44.691
-47.899
-48.784
-48.399
-51.084
-52.349
-49.533
-48.469
-50.191
-50.294
-50.764
-53.852
-54.038
-50.238
-49.875
-53.789
-55.416
-54.17
-53.82
-54.454
-55.086
-55.127
-53.051
-50.704
-51.602
-53.254
-51.997
-50.269
-49.618
-47.671
-46.431
-49.436
-52.848
-52.681
-52.037
-52.102
-50.334
-50.379
-56.149
-60.767
-58.72
-56.519
-58.155
-58.494
-56.675
-56.003
-54.555
-51.728
-51.361
-51.677
-49.435
-48.992
-51.53
-51.269
-50.116
-52.859
-52.469
-45.527
-43.981
-50.192
-50.25
-43.992
-44.811
-50.687
-51.425
-50.381
-52.133
-52.488
-52.329
-54.689
-53.369
-46.858
-45.112
-49.64
-51.316
-49.115
-48.027
-47.466
-47.149
-49.445
-51.565
-50.739
-49.861
-48.24
-43.237
-41.11
-46.134
-50.203
-49.781
-51.608
-54.149
-50.655
-46.383
-46.849
-45.372
-40.759
-41.215
-42.938
-35.575
-25.003
-22.157
-23.431
-22.506
-21.197
-19.858
-16.824
-14.336
-12.499
-8.867
-6.017
-5.939
-4.545
-0.48
3.968
9.479
13.672
10.77
5.232
5.469
6.507
1.424
-4.047
-6.129
-9.74
-14.073
-15.995
-20.301
-27.09
-29.06
-29.996
-38.265
-46.863
-48.288
-50.919
-57.822
-58.023
-51.788
-51.082
-54.483
-53.531
-51.61
-52.027
-49.837
-48.203
-54.556
-60.898
-56.484
-48.172
-45.555
-45.754
-45.268
-44.849
-42.834
-41.022
-44.733
-49.856
-50.029
-50.667
-55.396
-56.889
-53.715
-50.708
-43.89
-29.773
-13.714
4.937
29.294
51.56
72.779
109.476
159.091
202.72
244.922
297.616
343.546
363.592
362.793
341.129
287.023
205.012
106.979
-6.825
-131.213
-250.022
-357.314
-463.642
-583.519
-714.216
-818.271
-853.556
-827.134
-781.956
-739.277
-694.235
-644.113
-584.852
-507.641
-419.731
-340.471
-274.014
-214.028
-164.514
-129.279
-99.218
-70.701
-53.05
-46.841
-42.121
-38.952
-43.221
-50.295
-51.98
-45.622
-31.526
-18.26
-18.847
-26.874
-21.512
-3.149
9.895
15.897
24.615
31.524
28.45
20.56
14.245
10.426
14.167
29.173
47.944
61.155
65.648
60.736
49.824
40.512
36.164
37.188
46.61
61.894
72.583
74.445
71.349
64.651
56.99
56.093
61.473
64.666
67.783
78.207
88.429
87.713
82.634
82.464
82.823
80.939
83.566
90.713
94.771
95.801
98.359
100.259
98.482
97.054
101.071
109.333
115.515
115.484
113.3
115.49
120.724
124.302
127.687
132.646
135.882
138.165
143.93
149.031
147.662
146.87
154.615
165.375
173.192
180.417
185.797
186.249
187.847
194.26
198.482
200.291
207.765
216.605
216.843
214.222
217.927
223.302
226.412
232.22
239.403
242.128
243.467
246.646
247.287
246.147
249.704
255.836
257.242
253.592
249.182
247.595
250.123
252.608
250.968
249.359
250.665
248.804
242.388
238.225
235.303
227.267
217.691
211.271
202.425
189.529
180.01
172.57
159.618
145.948
139.232
133.244
121.142
107.158
94.667
82.618
72.735
65.311
57.46
50.217
44.677
37.044
27.136
19.317
13.324
7.818
5.67
5.713
2.523
-3.141
-7.632
-11.1
-11.593
-7.783
-7.741
-15.729
-21.882
-21.989
-24.154
-27.39
-24.636
-22.408
-26.289
-26.438
-21.056
-22.188
-27.871
-26.687
-24.475
-29.817
-33.453
-30.488
-31.929
-38.945
-40.616
-37.575
-36.951
-36.602
-34.606
-34.337
-34.233
-32.366
-32.929
-35.081
-33.165
-30.356
-31.512
-31.764
-29.01
-29.599
-33.564
-35.197
-35.011
-33.928
-29.222
-24.699
-26.006
-28.773
-28.839
-30.325
-32.885
-31.704
-30.905
-35.536
-39.858
-39.76
-39.361
-38.659
-35.314
-34.25
-37.165
-36.731
-32.681
-33.077
-37.258
-38.741
-38.334
-38.421
-37.614
-37.421
-38.825
-37.176
-32.535
-30.997
-31.561
-29.835
-28.816
-30.192
-29.888
-29.496
-31.825
-30.719
-25.632
-27.427
-34.835
-33.868
-25.742
-23.279
-26.12
-27.818
-30.29
-32.912
-30.888
-28.801
-31.914
-34.103
-32.065
-31.442
-32.594
-32.316
-33.187
-35.658
-36.643
-38.578
-41.984
-41.323
-39.95
-45.11
-49.091
-44.363
-41.227
-45.006
-44.706
-39.108
-38.775
-41.535
-39.378
-37.094
-39.435
-41.07
-41.377
-45.052
-48.549
-47.739
-48.003
-50.753
-48.846
-43.958
-45.36
-50.658
-50.622
-46.234
-43.429
-43.296
-45.254
-47.061
-45.596
-44.354
-47.017
-48.238
-46.322
-48.387
-53.463
-54.134
-52.183
-50.628
-46.623
-44.544
-50.271
-54.407
-49.286
-45.9
-50.102
-50.643
-45.937
-47.31
-51.958
-49.063
-43.857
-43.973
-42.79
-38.235
-38.954
-43.16
-42.391
-40.249
-41.293
-39.827
-35.751
-36.058
-37.632
-34.513
-32.247
-34.059
-32.465
-27.04
-26.674
-31.809
-35.926
-37.224
-35.093
-29.676
-27.593
-31.274
-32.18
-28.011
-26.852
-28.597
-26.412
-22.299
-20.06
-16.438
-11.385
-8.716
-6.394
-3.031
-2.845
-4.317
-2.141
-0.593
-5.713
-12.031
-11.477
-4.517
4.054
10.658
13.826
14.62
15.177
17.242
21.332
23.645
18.41
7.716
0.549
-1.015
-3.255
-7.82
-11.051
-14.684
-22.452
-30.134
-32.941
-34.849
-38.758
-39.816
-36.744
-34.614
-34.02
-32.434
-31.266
-30.294
-26.854
-24.934
-29.108
-33.486
-32.672
-31.659
-33.406
-34.133
-34.704
-37.959
-39.688
-37.283
-35.481
-35.972
-36.125
-36.666
-37.577
-35.375
-31.639
-31.202
-32.114
-29.363
-21.82
-9.419
6.399
22.152
41.353
72.573
113.704
154.54
193.529
236.012
282.805
330.382
370.654
388.348
372.938
328.74
261.455
169.653
59.767
-53.869
-168.87
-287.48
-400.79
-511.326
-637.599
-763.007
-832.708
-828.531
-788.388
-745.272
-703.732
-660.273
-604.042
-526.156
-441.459
-367.292
-298.472
-231.73
-177.619
-135.254
-95.879
-64.544
-47.623
-39.775
-35.325
-30.294
-22.361
-20.92
-31.821
-37.06
-21.833
-1.896
2.941
-4.967
-13.597
-13.698
-2.85
8.242
11.117
16.767
30.853
34.718
19.424
4.908
6.298
18.1
34.565
51.852
60.837
59.576
54.426
46.057
35.728
32.556
38.759
48.394
61.328
74.701
75.841
64.418
56.486
56.991
58.394
62.049
70.799
76.304
76.401
80.217
85.866
83.802
79.61
83.251
89.571
92.341
96.152
102.344
105.589
105.589
105.568
106.397
109.39
114.204
116.475
116.327
119.204
124.87
129.167
132.895
136.127
135.042
132.998
137.497
144.789
147.383
148.805
153.123
156.932
161.443
169.752
175.269
174.97
177.285
182.733
183.514
183.766
191.303
200.869
207.651
215.677
222.68
222.71
221.187
224.367
227.543
228.377
231.581
236.28
238.92
242.113
246.66
248.649
248.356
247.478
244.882
244.208
249.879
255.598
254.956
252.761
251.521
246.388
240.283
240.493
242.575
238.607
230.56
222.186
213.654
206.969
201.162
190.528
177.163
168.046
159.547
145.576
131.503
121.887
111.563
99.497
90.545
82.572
71.874
62.841
57.309
50.253
42.522
38.173
32.823
23.376
16.152
12.602
6.697
-0.451
-4.592
-8.774
-13.158
-12.375
-10.576
-15.749
-22.603
-23.784
-23.974
-25.896
-24.103
-21.204
-25.452
-32.792
-34.376
-32.728
-32.789
-32.457
-31.636
-33.199
-35.168
-35.834
-37.223
-37.753
-35.731
-35.293
-36.316
-33.158
-29.097
-31.621
-36.332
-35.829
-34.033
-36.062
-38.618
-39.293
-40.545
-42.223
-42.065
-41.019
-41.283
-43.501
-46.248
-45.387
-39.861
-36.26
-37.754
-37.949
-35.168
-35.18
-35.795
-31.756
-28.92
-31.108
-30.834
-28.341
-32.231
-37.947
-36.434
-33.524
-34.79
-33.696
-29.735
-30.068
-32.309
-31.357
-30.692
-30.809
-28.018
-27.126
-32.127
-36.036
-37.008
-41.042
-43.296
-36.624
-30.447
-33.005
-35.755
-33.954
-33.354
-31.869
-25.41
-22.461
-28.187
-33.727
-34.3
-33.783
-31.296
-25.787
-23.532
-26.105
-27.553
-27.48
-28.942
-29.828
-29.887
-32.405
-34.153
-30.897
-27.836
-29.168
-30.13
-28.715
-28.715
-29.641
-29.046
-29.19
-30.959
-31.413
-31.119
-32.395
-33.112
-31.841
-31.265
-31.584
-31.17
-31.922
-33.903
-33.573
-32.572
-34.269
-34.72
-31.946
-31.812
-34.519
-34.173
-32.471
-33.373
-34.44
-35.991
-39.969
-39.913
-33.788
-32.133
-36.264
-35.086
-30.918
-35.495
-43.943
-43.936
-38.155
-35.136
-35.51
-37.885
-40.675
-39.66
-36.262
-36.58
-38.057
-34.955
-32.196
-35.411
-39.369
-39.322
-37.693
-35.665
-34.012
-36.315
-40.197
-39.086
-35.927
-37.235
-39.09
-36.974
-36.235
-39.163
-40.227
-39.356
-39.575
-37.457
-33.407
-33.851
-34.445
-27.914
-23.898
-30.105
-32.935
-24.53
-18.467
-20.951
-22.359
-21.507
-24.583
-27.973
-26.635
-23.571
-19.764
-13.397
-8.103
-6.537
-5.273
-3.303
-2.197
-0.216
2.201
1.013
-2.917
-6.196
-8.207
-5.468
4.564
13.275
13.153
11.256
14.427
18.502
20.964
22.897
19.509
9.003
0.293
-2.704
-6.77
-13.112
-16.492
-18.95
-24.982
-31.093
-33.945
-36.776
-41.138
-44.503
-45.354
-42.888
-38.696
-38.687
-42.903
-42.791
-37.597
-35.81
-37.4
-36.634
-36.463
-39.757
-41.247
-40.597
-42.85
-45.353
-44.853
-46.223
-49.488
-47.589
-42.256
-41.035
-43.166
-45.233
-48.232
-49.242
-42.809
-32.384
-23.283
-10.891
8.378
28.169
47.571
76.894
117.837
157.948
191.593
228.794
279.324
336.827
378.131
381.607
349.001
294.204
216.014
111.558
-0.648
-106.563
-215.075
-327.041
-432.828
-542.956
-662.494
-754.033
-783.302
-767.176
-736.436
-697.406
-652.02
-606.903
-553.465
-478.399
-393.592
-326.277
-282.088
-240.308
-187.116
-134.154
-96.806
-73.994
-60.287
-54.937
-50.083
-37.419
-27.812
-33.738
-42.467
-37.902
-28.188
-25.156
-24.819
-24.798
-28.507
-27.78
-13.206
6.073
18.356
26.018
29.729
22.708
8.591
-0.261
0.255
8.573
23.687
38.665
44.644
41.766
33.94
23.759
18.095
21.767
29.264
37.345
49.773
60.964
60.094
51.671
46.513
43.887
42.659
48.12
56.751
60.287
62.967
69.683
72.551
69.588
71.325
77.659
78.627
77.128
80.967
85.318
86.135
89.076
93.425
92.529
89.818
92.094
97.274
102.462
108.094
111.172
110.585
112.281
118.721
126.188
133.559
139.881
141.372
140.01
141.534
144.798
147.346
152.424
159.854
164.575
167.447
172.337
177.341
180.503
184.067
188.658
194.542
203.899
212.968
215.13
214.758
219.094
222.224
218.494
216.659
221.936
227.06
231.418
240.796
249.143
248.62
245.859
247.59
250.038
251.802
255.112
256.408
253.555
252.056
254.114
255.205
253.668
251.104
246.423
238.446
229.212
220.497
212.541
205.915
199.371
189.404
176.018
163.29
152.677
142.223
130.71
117.67
103.66
91.226
80.482
68.956
58.41
51.586
44.754
34.946
25.968
19.775
14.822
12.136
10.121
3.725
-4.032
-7.52
-11.725
-19.134
-20.07
-14.198
-14.664
-22.535
-28.981
-35.909
-44.077
-43.226
-35.249
-34.271
-39.007
-40.24
-41.316
-42.914
-37.309
-30.723
-34.346
-39.741
-37.636
-36.823
-40.48
-38.741
-33.784
-35.94
-41.16
-42.201
-43.942
-48.114
-47.417
-43.331
-44.687
-49.423
-49.276
-45.462
-43.839
-43.991
-42.693
-40.291
-39.688
-42.185
-44.295
-41.97
-39.334
-43.088
-48.546
-46.879
-42.313
-43.86
-48.161
-47.646
-44.053
-41.979
-42.224
-44.95
-47.816
-46.755
-44.602
-45.931
-46.631
-44.28
-44.867
-47.208
-43.881
-40.373
-44.902
-48.571
-43.298
-38.429
-39.022
-37.444
-34.996
-38.512
-41.005
-35.6
-30.895
-32.65
-35.198
-36.894
-39.292
-38.746
-35.956
-36.97
-40.113
-40.952
-41.604
-41.629
-38.081
-36.585
-40.456
-40.545
-34.13
-30.931
-32.39
-33.119
-36.467
-42.378
-40.244
-31.522
-29.822
-34.219
-34.697
-34.598
-39.331
-42.031
-39.248
-38.164
-41.475
-44.958
-46.316
-44.711
-41.033
-39.921
-42.457
-44.576
-45.648
-46.072
-42.574
-38.086
-41.117
-48.07
-47.937
-43.945
-45.495
-48.076
-45.707
-45.544
-50.22
-49.801
-43.213
-41.296
-46.175
-50.562
-51.324
-49.569
-47.991
-50.068
-52.896
-51.1
-49.23
-51.893
-51.775
-47.08
-48.303
-53.926
-51.378
-44.532
-44.973
-47.099
-43.135
-40.054
-41.283
-40.625
-39.522
-42.414
-44.459
-43.312
-43.269
-41.731
-35.398
-32.118
-35.826
-37.425
-32.501
-26.453
-21.475
-17.673
-17.877
-19.477
-16.197
-10.139
-6.812
-5.084
-3.759
-4.955
-6.025
-3.669
-2.026
-3.068
-1.858
1.427
2.89
5.022
8.386
7.881
6.803
11.947
16.571
12.341
5.417
2.22
-0.768
-4.301
-5.139
-6.555
-12.798
-20.715
-26.271
-29.654
-32.599
-36.946
-41.106
-40.025
-36.494
-39.959
-46.821
-43.798
-34.042
-32.322
-37.765
-39.699
-39.324
-41.009
-39.772
-34.832
-34.187
-38.108
-40.018
-41.176
-45.265
-48.599
-48.578
-48.958
-52.363
-57.202
-59.56
-56.922
-53.764
-53.824
-48.574
-31.993
-14.939
-3.55
13.744
41.727
71.765
104.04
143.913
185.237
224.375
270.583
324.045
365.968
377.925
354.856
301.545
225.36
130.61
22.14
-89.296
-196.325
-302.101
-410.378
-521.613
-635.196
-734.918
-787.347
-780.246
-742.006
-702.369
-662.448
-617.125
-568.455
-507.352
-425.721
-347.516
-300.295
-267.625
-218.607
-160.075
-114.994
-84.172
-62.904
-55.173
-53.94
-46.26
-37.498
-38.758
-44.55
-43.801
-34.962
-23.917
-19.88
-25.825
-30.653
-25.424
-15.706
-4.849
10.202
21.28
18.276
9.094
2.663
-5.63
-11.579
0.243
25.589
43.548
48.412
47.427
41.703
32.137
24.364
19.351
18.003
26.673
42.727
53.434
55.442
53.358
45.991
35.02
31.003
36.847
44.792
51.815
59.331
64.703
65.979
65.109
63.771
64.239
67.982
70.965
71.206
74.439
81.576
85.564
86.397
89.041
90.154
88.339
92.606
102.558
105.386
102.37
106.262
114.085
116.287
118.914
127.642
133.204
131.395
130.474
133.371
137.22
143.867
153.828
162.734
169.086
172.48
171.192
170.081
175.801
183.608
185.964
186.133
189.455
194.537
199.996
206.227
211.656
216.671
223.269
227.947
227.405
227.74
234.342
241.441
243.659
245.106
248.352
249.811
250.271
253.734
257.187
256.37
254.237
252.924
249.711
245.274
242.015
237.543
230.705
224.193
217.216
208.234
200.377
193.654
183.172
169.487
157.128
146.066
135.658
127.589
119.518
107.702
94.868
84.817
75.73
66.035
57.799
51.284
44.392
36.325
26.787
16.349
8.437
4.64
1.618
-2.186
-4.797
-7.688
-13.597
-19.328
-20.93
-20.249
-20.671
-24.075
-30.457
-34.792
-33.247
-31.756
-34.744
-35.951
-33.949
-35.856
-38.165
-32.376
-26.853
-32.176
-39.119
-38.104
-36.379
-38.098
-37.043
-34.641
-36.133
-36.89
-35.144
-37.575
-40.519
-35.109
-29.53
-34.538
-41.757
-42.053
-40.337
-38.872
-34.826
-32.745
-35.354
-36.996
-37.875
-41.544
-42.095
-37.252
-36.555
-41.526
-43.835
-43.94
-44.779
-41.635
-37.163
-40.146
-44.663
-41.307
-37.469
-39.448
-39.206
-35.326
-35.985
-38.811
-37.365
-36.257
-38.312
-37.479
-34.138
-34.007
-35.009
-34.532
-35.55
-35.545
-30.122
-25.685
-26.902
-26.2
-22.702
-25.938
-32.662
-31.898
-28.746
-31.516
-33.255
-30.631
-31.88
-34.85
-31.932
-30.748
-36.803
-37.998
-30.756
-28.072
-31.397
-30.923
-28.589
-29.965
-30.199
-26.87
-25.269
-26.113
-26.762
-28.303
-30.611
-31.575
-32.615
-35.214
-37.852
-40.574
-43.545
-43.566
-40.009
-36.822
-34.959
-32.458
-30.725
-31.903
-34.514
-36.69
-38.169
-39.159
-41.181
-44.527
-45.05
-41.069
-38.21
-39.216
-39.258
-37.498
-38.718
-41.157
-39.546
-37.06
-38.238
-39.625
-39.316
-40.504
-41.087
-37.714
-35.397
-37.339
-38.338
-36.9
-36.693
-37.268
-37.902
-40.265
-41.185
-37.718
-34.367
-32.772
-29.407
-28.032
-33.474
-38.687
-38.109
-38.288
-41.563
-41.776
-40.456
-42.855
-43.798
-38.745
-34.758
-36.223
-37.619
-35.842
-33.273
-31.815
-33.733
-38.739
-39.883
-34.603
-30.583
-30.97
-30.672
-30.12
-32.421
-32.898
-29.445
-28.549
-29.634
-24.735
-17.119
-16.154
-17.676
-12.491
-4.454
-1.052
-0.161
0.823
-0.983
-4.836
-6.39
-5.208
-1.727
4.983
12.031
15.724
17.404
19.064
20.864
23.569
24.52
18.238
6.951
-1.418
-5.32
-7.445
-8.295
-10.529
-17.685
-26.298
-30.95
-32.179
-32.158
-32.842
-38.535
-47.897
-50.891
-43.979
-35.153
-30.277
-30.179
-35.105
-38.4
-32.046
-24.317
-27.659
-34.89
-34.643
-32.567
-34.1
-32.993
-29.979
-32.972
-38.644
-39.917
-40.075
-42.095
-42.498
-42.244
-44.627
-45.561
-40.229
-30.182
-17.339
-1.324
17.722
40.365
68.049
101.952
143.892
192.651
242.41
291.456
341.54
384.376
404.842
397.51
364.468
302.982
211.333
100.765
-13.729
-129.123
-244.856
-350.833
-449.901
-566.196
-695.198
-783.953
-798.726
-766.327
-724.968
-685.346
-645.507
-598.786
-535.282
-459.025
-384.499
-316.414
-254.398
-201.708
-156.364
-114.564
-81.356
-60.599
-47.428
-38.624
-33.654
-29.33
-27.01
-31.269
-35.205
-27.083
-11.447
-3.946
-9.009
-16.227
-14.163
-2.442
8.578
12.975
17.512
24.816
24.093
12.54
3.926
5.146
10.517
20.59
37.788
51.214
51.26
44.248
37.144
28.839
22.229
24.06
35.007
51.832
68.358
73.373
64.279
54.528
53.031
53.722
53.399
56.644
63.058
69.891
77.296
80.393
74.614
67.564
66.423
67.714
71.238
79.941
86.217
84.852
85.608
91.888
93.281
90.661
95.624
104.965
107.779
107.017
109.945
115.436
121.316
125.07
122.637
119.601
124.828
132.048
132.573
132.785
137.136
138.965
139.953
148.607
160.3
165.937
168.517
172.553
175.647
178.895
186.165
194.367
199.657
204.184
208.412
209.91
210.506
212.743
215.26
217.61
219.724
219.754
221.167
228.817
235.879
235.18
234.674
239.874
242.066
239.698
241.286
243.511
238.833
234.009
234.477
233.151
229.196
228.984
228.236
220.991
213.548
208.786
198.735
184.085
175.26
172.229
166.554
156.463
143.769
129.069
116.218
107.598
99.802
92.465
86.999
77.86
63.463
53.165
48.695
41.332
32.407
28.701
24.883
16.29
10.683
10.746
9.785
7.838
7.336
3.13
-4.791
-7.818
-5.494
-4.486
-5.079
-6.158
-10.567
-15.766
-16.006
-14.382
-16.819
-21.331
-24.341
-25.726
-23.912
-19.358
-18.489
-22.847
-25.648
-25.195
-25.727
-25.72
-22.609
-21.443
-24.425
-25.344
-22.807
-22.289
-23.966
-24.386
-24.183
-23.895
-23.193
-25.484
-30.753
-32
-28.032
-25.241
-24.869
-24.669
-26.066
-27.188
-23.764
-21.626
-27.915
-34.791
-33.944
-32.647
-35.956
-36.03
-31.904
-31.685
-32.792
-28.885
-26.454
-29.976
-30.866
-26.28
-23.406
-22.724
-20.823
-19.821
-18.765
-13.855
-9.869
-12.023
-16.135
-19.488
-23.196
-22.848
-17.356
-15.668
-19.347
-19.47
-15.713
-14.343
-14.124
-13.428
-15.001
-15.734
-12.396
-11.808
-16.681
-18.614
-16.097
-15.704
-15.718
-12.92
-14.057
-20.829
-23.202
-18.979
-16.919
-18.732
-19.755
-20.75
-22.668
-21.748
-18.355
-17.086
-17.731
-17.798
-18.337
-20.296
-22.672
-24.975
-26.429
-27.254
-29.921
-33.201
-33.437
-34.272
-39.843
-43.203
-39.911
-38.898
-43.521
-44.32
-39.648
-36.722
-34.342
-30.222
-31.089
-36.489
-36.54
-32.785
-32.956
-33.056
-30.685
-34.151
-41.497
-41.363
-37.38
-39.183
-41.39
-38.302
-36.642
-38.475
-38.059
-36.99
-39.182
-40.84
-39.982
-40.451
-42.789
-45.202
-48.031
-49.756
-48.726
-47.889
-48.601
-48.253
-47.878
-49.708
-50.814
-50.297
-51.549
-52.13
-48.216
-45.892
-49.781
-52.561
-51.072
-52.794
-56.997
-54.762
-49.428
-50.55
-54.544
-54.926
-56.235
-60.232
-59.497
-53.766
-50.105
-47.919
-43.946
-42.248
-44.065
-42.897
-38.045
-36.545
-39.557
-40.895
-37.555
-32.835
-30.46
-28.956
-24.003
-17.227
-15.324
-17.958
-18.578
-17.956
-20.968
-23.306
-19.273
-14.083
-12.159
-8.304
-1.617
1.823
3.327
7.581
10.421
8.048
4.524
0.678
-6.387
-13.365
-17.308
-21.859
-26.296
-25.921
-25.4
-31.756
-40.728
-46.433
-50.735
-54.338
-55.313
-55.991
-57.647
-57.179
-54.91
-52.538
-47.892
-43.252
-44.937
-50.294
-53.165
-54.86
-54.481
-48.372
-44.869
-51.528
-56.674
-51.835
-48.265
-51.207
-52.105
-51.903
-56.652
-60.249
-58.564
-58.495
-60.519
-58.241
-52.315
-44.68
-33.416
-20.365
-5.257
18.882
50.423
81.478
117.248
163.665
210.463
253.57
302.852
350.729
374.75
371.603
347.111
292.444
205.581
104.324
-2.769
-121.739
-244.726
-353.953
-454.419
-569.673
-698.871
-801.614
-839.29
-817.111
-771.502
-729.136
-690.743
-643.901
-581.361
-507.935
-431.54
-355.419
-283.618
-222.688
-174.262
-135.6
-104.516
-78.521
-57.488
-45.859
-43.528
-43.285
-43.062
-47.171
-52.884
-49.789
-34.877
-19.907
-19.266
-30.351
-33.949
-21.216
-6.095
0.636
7.609
19.057
22.279
11.962
-0.084
-4.566
-0.483
12.304
28.37
38.093
40.038
37.164
29.198
20.567
18.537
21.486
27.161
40.143
56.719
64.314
61.616
55.948
48.054
39.719
39.237
46.553
53.519
59.488
66.192
67.336
60.491
54.096
53.636
57.505
65.643
76.099
81.328
80.502
82.192
88.187
91.943
93.992
99.409
104.196
103.152
102.139
107.033
113.706
117.739
119.35
119.189
121.061
128.958
137.237
139.101
138.585
140.378
143.471
149.828
159.795
166.138
167.319
169.204
171.366
172.714
178.345
185.506
186.305
186.432
193.34
198.731
197.128
197.817
203.892
208.004
210.885
217.414
223.166
224.477
226.537
231.251
233.387
231.062
228.52
230.355
235.736
237.167
231.783
229.599
236.546
241.77
237.971
233.848
233.846
231.108
224.588
218.064
209.113
198.371
192.514
188.406
177.275
162.811
152.463
143.455
133.613
125.956
117.528
105.424
95.61
88.933
78.486
67.584
63.292
58.072
45.303
35.077
32.999
29.76
22.745
18.274
14.297
7.865
5.119
5.432
0.118
-7.718
-10.416
-12.788
-17.216
-15.786
-11.393
-14.127
-18.146
-15.604
-15.82
-23.197
-25.567
-20.646
-19.87
-23.077
-21.991
-20.12
-23.107
-25.528
-23.539
-21.518
-20.875
-20.128
-21.772
-26.232
-29.201
-29.448
-28.126
-25.419
-24.481
-26.961
-28.098
-28.486
-33.907
-37.854
-31.801
-25.999
-29.933
-33.74
-31.587
-30.808
-30.696
-26.76
-24.993
-26.528
-24.22
-22.754
-28.79
-31.912
-25.769
-22.348
-26.449
-28.831
-27.871
-28.238
-29.013
-30.487
-33.789
-33.919
-31.445
-33.897
-36.522
-30.25
-23.662
-26.376
-30.062
-28.846
-28.826
-29.013
-25.235
-24.402
-28.748
-28.965
-25.613
-26.377
-26.255
-20.44
-17.909
-21.715
-23.464
-22.969
-24.73
-24.246
-19.985
-19.156
-21.307
-20.491
-20.434
-24.762
-27.007
-25.95
-28.04
-30.059
-26.042
-23.375
-26.74
-25.933
-18.253
-15.009
-17.783
-18.152
-16.863
-18.157
-19.254
-20.198
-24.569
-28.105
-26.231
-24.515
-26.781
-28.113
-27.466
-29.424
-32.517
-31.567
-27.352
-24.077
-24.351
-28.435
-31.593
-28.292
-22.051
-19.674
-19.768
-19.94
-23.425
-28.561
-28.672
-25.019
-22.808
-21.62
-22.002
-26.331
-29.931
-28.602
-27.05
-27.197
-25.68
-25.843
-30.385
-31.21
-25.952
-24.661
-28.742
-29.376
-27.72
-30.76
-35.695
-37.439
-36.974
-34.662
-31.54
-32.624
-36.497
-36.405
-35.362
-38.794
-39.815
-34.473
-32.606
-35.719
-32.911
-26.829
-28.883
-33.489
-31.716
-31.605
-36.703
-35.285
-28.069
-30.033
-40.531
-45.234
-40.643
-33.565
-29.483
-30.833
-34.87
-35.98
-34.303
-32.393
-29.65
-29.098
-34.191
-37.522
-32.727
-27.291
-25.6
-21.617
-18.287
-23.392
-27.933
-21.601
-15.116
-18.306
-21.185
-16.742
-11.99
-8.519
-2.156
2.362
0.405
-2.263
-1.494
0.396
2.902
5.57
6.706
9.745
16.819
21.344
19.981
18.063
18.068
19.323
22.493
22.234
13.021
3.785
3.081
2.038
-5.255
-9.494
-9.558
-15.498
-24.494
-27
-27.563
-32.029
-34.486
-33.906
-36.483
-38.088
-32.829
-28.423
-29.716
-28.943
-25.486
-26.791
-29.116
-25.872
-23.793
-28.191
-32.022
-32.493
-34.875
-37.832
-37.566
-38.825
-44.469
-48.519
-48.297
-46.546
-43.277
-40.335
-42.729
-46.321
-41.001
-27.813
-15.57
-4.526
12.322
37.527
68.417
103.327
142.486
185.655
233.048
284.734
334.826
371.351
385.031
373.163
335.794
272.669
183.468
73.229
-45.451
-163.71
-279.575
-388.097
-493.578
-615.996
-745.901
-829.458
-837.969
-801.222
-753.798
-706.449
-662.237
-613.301
-546.465
-467.714
-389.268
-310.94
-240.158
-191.159
-155.988
-118.344
-83.11
-60.478
-48.482
-45.217
-48.14
-47.107
-41.899
-44.473
-50.702
-42.935
-25.126
-19.416
-28.673
-34.195
-26.048
-11.673
-0.157
7.21
14.324
22.042
23.149
13.098
2.138
3.364
15.599
30.068
42.279
49.453
48.994
41.622
28.998
15.117
10.284
20.283
36.913
50.789
60.304
62.622
55.945
48.913
48.068
47.875
46.833
51.869
61.393
68.21
73.183
76.797
74.259
68.654
67.983
72.033
78.324
86.478
91.055
89.457
89.511
93.471
93.927
92.646
97.63
104.596
106.15
107.216
112.833
117.769
118.512
119.023
122.398
128.572
136.266
141.555
141.68
140.232
141.748
146.612
154.641
163.939
169.004
170.678
176.274
183.264
184.092
184.746
191.974
197.069
196.735
202.291
212.891
215.326
212.769
217.576
225.527
227.054
226.398
230.038
235.253
238.664
240.086
238.806
236.761
238.928
245.269
249.942
249.795
248.18
249.994
254.383
255.29
251.848
250.321
250.488
243.815
230.827
221.865
217.658
210.758
203.174
199.441
192.701
178.704
165.793
157.015
145.993
134.045
125.704
115.21
99.974
89.48
85.588
78.232
66.522
58.578
53.724
46.585
38.544
31.487
24.23
18.258
13.614
6.975
1.344
0.918
-1.072
-8.928
-13.936
-13.8
-16.234
-18.363
-15.162
-16.534
-25.575
-28.216
-23.241
-23.063
-24.187
-19.128
-18.604
-26.749
-29.059
-24.502
-26.226
-30.367
-26.491
-21.377
-21.407
-20.461
-19.046
-23.741
-30.071
-30.769
-28.139
-25.972
-25.229
-27.478
-30.407
-29.087
-25.604
-24.601
-24.918
-26.234
-30.201
-32.2
-29.618
-29.488
-32.418
-29.512
-23.124
-23.301
-26.462
-24.476
-21.944
-24.346
-27.782
-30.038
-32.343
-31.726
-27.729
-25.974
-26.389
-24.743
-24.201
-26.713
-26.082
-23.975
-28.944
-35.301
-33.618
-32.302
-37.57
-37.303
-29.61
-29.271
-33.9
-28.932
-21.289
-24.085
-29.396
-29.512
-31.493
-34.342
-29.955
-25.063
-28.6
-33.412
-32.95
-31.988
-31.703
-29.172
-28.561
-32.543
-34.32
-30.585
-26.767
-25.108
-22.87
-20.876
-22.099
-25.619
-28.331
-29.263
-30.321
-33.334
-36.229
-35.947
-34.62
-35.256
-35.252
-33.336
-33.833
-36.309
-35.097
-32.308
-34.147
-37.649
-37.883
-37.936
-39.21
-37.615
-34.404
-33.573
-32.825
-31.049
-32.129
-34.621
-34.095
-33.013
-34.143
-35.218
-36.454
-38.255
-35.973
-30.528
-30.279
-35.143
-37.181
-35.554
-34.145
-33.418
-34.836
-39.533
-41.727
-38.533
-37.401
-41.171
-43.076
-42.715
-44.616
-44.619
-39.669
-37.007
-38.623
-38.241
-36.717
-37.646
-37.571
-36.485
-38.546
-39.156
-34.319
-32.115
-35.9
-37.679
-36.607
-37.617
-37.205
-34.712
-38.666
-46.658
-47.372
-44.446
-46.625
-46.804
-39.886
-37.325
-42.96
-44.774
-39.795
-36.252
-34.9
-33.947
-36.928
-40.268
-36.597
-32.197
-35.395
-39.727
-39.513
-39.622
-39.961
-36.595
-33.775
-33.548
-31.158
-29.511
-32.918
-33.449
-27.507
-25.033
-27.302
-24.195
-16.186
-11.383
-9.362
-7.452
-7.004
-5.553
-1.377
-1.66
-8.804
-11.942
-4.761
5.542
11.905
13.435
11.709
12.293
18.871
23.727
19.466
12.034
6.989
0.312
-7.48
-11.019
-13.667
-19.338
-23.349
-26.381
-34.414
-41.494
-40.115
-38.285
-42.496
-46.036
-46.908
-48.987
-47.899
-41.812
-38.993
-39.544
-37.027
-36.562
-42.023
-43.876
-40.492
-40.767
-41.737
-37.665
-36.237
-39.684
-39.571
-39.216
-45.614
-50.111
-47.467
-46.832
-48.372
-44.728
-41.609
-42.747
-36.413
-19.833
-3.614
12.988
36.065
61.213
89.907
131.492
180.415
227.357
278.581
332.352
368.342
377.643
365.123
326.745
258.568
168.31
61.364
-59.122
-181.708
-296.402
-403.882
-513.768
-638.116
-763.734
-841.857
-844.535
-804.567
-763.107
-721.846
-671.906
-616.178
-550.179
-468.03
-384.1
-314.154
-253.561
-197.274
-153.474
-122.859
-94.478
-68.529
-55.086
-51.588
-47.232
-43.435
-47.674
-54.755
-52.2
-38.421
-24.401
-21.016
-27.755
-32.053
-23.846
-9.108
0.763
5.781
10.742
13.461
10.397
1.828
-9.791
-15.803
-6.005
14.769
30.895
36.663
35.468
28.462
19.322
14.916
14.257
14.556
23.044
42.751
59.879
62.617
55.522
47.029
41.618
43.029
49.445
54.697
59.985
68.304
72.803
69.035
64.536
63.303
60.859
58.936
63.799
73.11
80.297
83.588
83.439
81.445
81.411
84.138
87.28
90.695
93.014
91.17
90.385
98.383
109.048
113.006
115.366
121.753
125.801
126.313
130.789
136.644
137.097
138.209
145.442
151.672
154.279
159.346
164.998
165.911
166.911
172.204
177.354
182.352
191.554
200.368
202.564
202.553
205.305
208.078
209.668
212.992
218.352
224.183
228.871
229.997
229.782
234.433
241.795
243.58
241.183
241.815
243.841
242.791
241.475
241.688
239.909
236.84
236.11
234.997
229.876
223.989
220.231
215.513
206.977
196.054
186.27
179.583
172.42
160.291
147.551
139.733
130.122
112.582
96.361
88.715
81.461
69.398
59.18
53.477
47.705
40.501
33.21
26.495
21.755
17.764
11.051
3.699
-0.495
-4.325
-9.012
-9.691
-8.42
-12.584
-18.617
-19.699
-20.983
-26.531
-29.487
-28.577
-30.176
-31.834
-28.742
-27.428
-32.256
-35.34
-32.588
-29.55
-28.233
-26.976
-27.929
-31.018
-31.941
-31.674
-33.595
-34.637
-33.112
-33.887
-36.786
-36.581
-35.152
-36.094
-36.239
-35.17
-36.296
-36.074
-31.997
-30.839
-32.864
-30.3
-27.884
-34.406
-40.23
-35.196
-29.589
-31.072
-30.557
-26.175
-26.619
-29.355
-27.546
-25.924
-27.153
-25.53
-23.375
-26.762
-29.794
-26.485
-22.429
-20.785
-18.486
-18.202
-22.049
-22.846
-18.575
-17.756
-21.701
-23.139
-22.41
-24.337
-26.318
-24.588
-21.376
-19.623
-20.631
-23.688
-23.22
-17.036
-14.111
-19.903
-25.716
-25.485
-24.558
-24.775
-22.792
-22.008
-25.366
-26.256
-22.196
-20.733
-23.254
-22.71
-18.803
-17.729
-20.762
-24.502
-26.212
-25.8
-26.503
-29.036
-28.06
-23.578
-23.699
-28.307
-29.451
-28.107
-28.855
-28.295
-25.753
-26.404
-27.648
-24.866
-23.645
-26.989
-27.947
-25.683
-26.291
-27.837
-26.145
-25.638
-28.7
-30.287
-30.164
-32.108
-33.217
-31.263
-31.987
-36.276
-37.312
-35.852
-37.67
-39.543
-37.589
-37.117
-40.068
-41.084
-40.535
-41.625
-41.273
-39.828
-43.019
-46.884
-43.947
-40.165
-42.103
-43.079
-40.093
-40.351
-43.053
-41.165
-37.692
-37.828
-38.077
-36.783
-37.201
-37.249
-34.556
-34.122
-37.168
-38.133
-38.64
-43.617
-46.731
-41.585
-36.046
-36.979
-37.923
-34.127
-30.904
-31.899
-34.426
-35.372
-33.754
-31.63
-32.226
-34.488
-35.486
-35.302
-32.925
-27.126
-23.029
-23.519
-22.031
-18.047
-20.556
-26.334
-22.764
-13.932
-12.158
-12.629
-7.099
-3.09
-5.156
-4.239
1.355
3.572
1.952
-0.219
-3.073
-2.186
5.835
13.4
15.588
17.439
19.833
19.796
19.466
17.488
8.715
-1.281
-4.205
-4.278
-5.993
-6.295
-8.647
-18.436
-27.494
-28.418
-28.394
-31.479
-31.934
-31.305
-35.34
-39.081
-37.023
-33.895
-32.49
-30.029
-29.204
-33.162
-36.264
-35.257
-34.979
-35.466
-33.63
-34.791
-40.941
-42.001
-36.271
-35.117
-39.24
-39.807
-38.941
-41.874
-44.159
-43.96
-44.627
-42.308
-34.05
-26.095
-17.513
0.495
23.87
44.066
68.714
105.45
145.126
181.91
224.583
278.591
336.951
382.606
392.68
360.11
302.506
229.885
134.523
24.835
-79.122
-181.573
-293.016
-403.368
-511.168
-626.431
-724.605
-765.434
-755.159
-727.017
-689.7
-644.196
-602.419
-557.234
-486.887
-400.943
-333.601
-293.143
-256.271
-206.352
-151.122
-107.092
-81.381
-68.797
-60.74
-52.79
-44.063
-36.245
-33.979
-37.214
-36.494
-27.156
-19.1
-20.486
-25.691
-27.47
-23.745
-11.83
5.757
17.19
17.509
14.477
11.394
3.763
-6.193
-10.019
-3.74
11.918
31.585
43.705
41.659
31.892
22.528
15.209
11.65
14.807
24.651
39.944
55.583
59.676
48.608
36.438
34.325
36.955
39.445
45.515
54.623
61.324
64.546
64.99
62.706
61.057
62.089
62.854
64.189
70.45
77.687
79.218
78.758
80.946
81.826
81.646
86.662
93.906
96.888
98.989
102.662
103.551
104.461
112.189
122.462
127.804
129.761
132.159
135.318
138.446
139.687
139.825
144.689
154.697
162.106
164.865
167.587
169.975
171.055
175.906
185.142
191.969
195.528
200.736
206.826
211.337
216.833
222.402
222.404
219.263
220.733
225.618
228.536
230.82
234.336
237.232
240.718
246.174
249.233
248.043
247.362
248.942
250.127
250.285
248.724
244.372
240.961
240.219
235.699
226.18
219.442
214.187
202.306
189.089
183.127
177.188
164.708
153.327
145.124
132.428
117.432
106.945
97.004
84.265
73.296
63.571
51.697
42.553
39.846
37.998
32.764
25.82
19.2
15.03
13.297
8.081
-2.983
-12.59
-17.204
-21.429
-24.113
-20.981
-17.782
-19.888
-21.829
-21.332
-22.672
-23.712
-23.01
-27.97
-37.072
-38.303
-34.246
-37.069
-41.948
-38.283
-32.637
-33.385
-35.306
-35.201
-36.533
-36.752
-33.909
-34.473
-38.687
-38.725
-36.118
-37.42
-39.19
-37.309
-35.784
-35.127
-32.3
-31.636
-35.608
-37.244
-36.132
-39.753
-44.343
-41.304
-36.137
-36.838
-39.509
-40.384
-41.011
-38.831
-32.63
-29.035
-30.62
-32.341
-32.971
-34.159
-33.628
-31.371
-31.767
-34.222
-34.334
-32.596
-30.926
-28.126
-25.932
-28.342
-32.476
-32.212
-28.907
-27.913
-29.628
-31.202
-31.031
-28.769
-25.603
-23.274
-21.671
-21.049
-22.675
-23.552
-20.238
-18.823
-25.608
-32.306
-30.035
-25.949
-26.676
-26.311
-24.431
-27.833
-31.645
-28.444
-25.09
-26.553
-26.18
-24.409
-28.166
-32.882
-31.22
-27.261
-25.769
-25.097
-24.719
-24.449
-22.653
-21.937
-24.049
-23.118
-17.428
-15.361
-20.041
-24.8
-26.975
-29.619
-32.565
-33.926
-33.748
-31.886
-30.128
-32.257
-36.305
-37.086
-36.414
-37.429
-36.489
-33.514
-35.315
-39.928
-38.299
-32.973
-31.965
-32.022
-29.485
-30.176
-33.74
-32.867
-31.048
-34.205
-35.631
-31.696
-30.342
-32.889
-34.145
-36.523
-40.989
-41.095
-38.086
-38.956
-41.773
-42.906
-44.331
-43.928
-38.892
-35.593
-37.474
-37.867
-35.503
-35.634
-36.023
-33.511
-32.839
-33.503
-28.755
-22.425
-21.678
-21.2
-17.197
-16.933
-20.034
-17.756
-13.057
-13.14
-12.604
-7.588
-6.283
-9.778
-7.739
0.262
4.473
4.639
7.764
12.674
13.903
12.689
12.817
13.571
13.341
13.231
13.167
9.915
2.231
-5.83
-9.639
-9.416
-8.833
-11.139
-18.563
-31.005
-42.85
-47.35
-46.204
-46.636
-49.927
-53.216
-57.056
-60.574
-59.094
-53.081
-47.413
-43.731
-43.809
-48.804
-51.156
-45.763
-42.557
-47.258
-48.493
-42.242
-40.702
-45.859
-47.146
-45.643
-48.821
-52.132
-50.647
-49.665
-50.926
-50.865
-51.002
-50.461
-42.291
-27.63
-12.754
4.605
26.177
48.188
76.611
118.897
163.449
199.745
240.78
295.866
347.667
374.717
370.378
336.136
276.015
193.576
91.105
-21.627
-130.603
-233.778
-337.309
-443.933
-557.141
-671.188
-753.257
-773.969
-749.856
-716.95
-683.281
-642.089
-596.496
-541.279
-462.923
-377.407
-319.668
-287.004
-244.396
-184.064
-129.803
-93.739
-71.135
-59.093
-51.807
-40.541
-29.31
-26.886
-29.384
-30.685
-32.086
-31.203
-25.374
-23.366
-29.633
-31.81
-21.661
-6.202
8.37
20.252
25.096
22.878
17.876
8.347
-3.976
-4.898
11.08
30.013
41.064
45.744
44.526
37.552
30.341
25.838
24.674
31.473
45.09
55.289
58.98
60.596
57.937
49.531
44.661
48.335
54.23
60.364
70.073
79.305
82.383
81.299
78.073
72.496
70.01
75.349
82.17
83.387
83.063
86.795
91.553
93.126
93.267
95.538
100.717
105.608
105.645
102.741
104.694
112.62
120.164
125.279
129.078
129.842
130.361
136.997
145.326
146.774
146.213
150.979
155.833
157.339
161.869
169.622
174.513
177.594
180.817
181.366
182.74
190.856
200.298
204.881
209.548
216.694
219.974
218.649
218.416
220.302
223.358
228.277
232.266
233.516
236.051
239.448
238.572
237.2
241.421
245.267
242.627
239.077
238.507
237.145
234.673
232.991
229.714
224.45
218.451
207.821
193.645
186.517
186.226
179.305
164.192
151.518
142.361
132.027
122.794
114.882
103.314
90.06
79.906
70.086
59.381
52.232
46.258
35.844
26.098
23.423
22.451
16.692
7.883
-0.484
-5.949
-7.424
-9.413
-15.733
-21.424
-22.814
-24.794
-28.694
-29.153
-27.227
-28.694
-31.169
-29.795
-28.68
-32.234
-35.667
-34.746
-32.463
-30.96
-30.035
-31.956
-36.135
-37.424
-36.353
-37.677
-39.597
-39.091
-39.457
-41.592
-41.588
-40.356
-40.744
-40.466
-39.025
-39.541
-40.119
-37.948
-36.605
-37.35
-35.922
-33.361
-33.862
-34.982
-34.386
-35.686
-39.19
-41.1
-41.307
-39.719
-35.045
-32.701
-36.877
-39.353
-34.701
-31.094
-31.811
-29.923
-26.81
-28.994
-31.706
-29.125
-26.909
-29.274
-31.781
-32.093
-31.934
-31.814
-32.703
-35.121
-36.415
-35.993
-36.303
-36.246
-34.2
-33.662
-35.42
-33.907
-28.849
-26.673
-27.788
-28.248
-29.988
-33.922
-33.922
-29.755
-29.016
-31.247
-30.477
-29.111
-30.65
-31.886
-32.62
-34.11
-31.205
-25.085
-25.833
-30.54
-28.304
-25.098
-29.44
-30.947
-23.33
-18.822
-22.294
-25.822
-28.782
-32.422
-30.86
-26.327
-27.481
-30.912
-30.942
-32.58
-35.592
-32.452
-27.962
-30.571
-33.844
-32.459
-33.549
-36.959
-34.98
-32.35
-35.733
-37.607
-34.009
-32.746
-33.555
-30.106
-27.213
-29.778
-31.677
-31.233
-33.487
-35.289
-32.304
-30.032
-31.161
-31.432
-32.405
-36.071
-35.665
-30.361
-29.825
-34.893
-37.728
-38.464
-39.421
-36.755
-32.715
-34.962
-39.638
-38.117
-33.868
-33.387
-34.516
-35.326
-37.832
-39.895
-38.256
-35.95
-36.904
-39.799
-41.083
-38.715
-34.488
-33.448
-36.352
-37.955
-37.084
-37.374
-37.299
-34.034
-32.446
-35.69
-37.807
-36.802
-38.637
-42.563
-41.738
-37.493
-35.075
-33.23
-30.859
-30.239
-28.865
-24.108
-20.794
-20.523
-18.039
-14.626
-14.511
-12.18
-4.613
-0.968
-3.601
-2.934
1.151
0.332
-1.92
2.858
11.205
16.388
18.506
17.773
14.636
14.002
16.261
15.498
11.202
6.205
-0.406
-5.25
-3.416
-3.068
-12.243
-21.103
-22.455
-25.556
-32.452
-34.569
-35.579
-42.857
-49.119
-48.586
-47.188
-46.316
-43.828
-44.212
-46.297
-41.973
-36.083
-38.821
-43.702
-41.629
-39.367
-41.799
-40.946
-35.298
-33.256
-35.346
-36.477
-37.814
-39.802
-38.593
-36.643
-39.573
-45.023
-47.416
-44.044
-33.517
-19.047
-5.053
12.828
38.337
66.103
98.457
144.425
195.646
239.218
282.955
331.517
367.622
381.932
378.643
347.824
279.404
187.388
84.306
-32.847
-154.851
-263.559
-363.885
-475.921
-603.235
-723.927
-802.23
-816.004
-781.639
-735.854
-695.536
-654.013
-603.245
-540.307
-465.613
-386.924
-314.682
-251.951
-198.183
-155.443
-121.361
-88.631
-59.313
-43.663
-41.048
-40.55
-39.619
-43.448
-50.097
-51.248
-42.872
-29.515
-22.544
-28.499
-36.437
-31.304
-17.204
-7.281
-0.477
9.409
16.39
13.23
4.098
-3.826
-5.913
2.641
19.795
33.611
37.424
36.385
34.165
28.633
20.634
14.518
15.377
28.521
49.42
61.717
59.39
54.12
51.971
47.526
42.24
42.78
47.859
54.741
63.872
69.892
67.136
61.07
58.28
57.675
60.241
68.285
74.941
74.378
73.46
77.542
81.108
81.802
84.472
89.349
92.835
95.157
97.041
98.226
100.975
105.323
107.873
110.581
116.753
121.235
120.736
121.544
125.398
127.658
131.043
138.951
145.661
149.56
155.486
160.284
160.942
165.029
172.658
173.88
172.399
179.279
189.676
195.219
199.513
203.625
203.821
205.94
214.408
219.943
219.278
222.488
229.78
231.249
229.258
231.865
235.047
233.963
233.191
233.79
231.943
230.824
233.864
235.596
233.089
230.829
228.727
222.992
216.911
214.939
213.086
206.209
195.756
184.503
172.507
160.179
148.934
139.406
131.271
122.381
110.459
98.429
91.222
86.787
80.042
71.061
60.304
47.176
37.043
33.332
28.524
19.066
12.381
9.262
3.581
-1.712
-3.194
-7.525
-14.844
-15.487
-10.742
-9.599
-10.622
-10.53
-13.422
-17.558
-16.666
-14.793
-16.75
-17.316
-16.143
-19.666
-23.414
-19.716
-14.918
-15.518
-16.235
-15.967
-20.548
-26.898
-28.513
-28.794
-31.442
-32.935
-32.594
-32.662
-30.862
-27.49
-28.334
-31.882
-30.132
-23.398
-18.762
-19.363
-24.404
-29.827
-29.037
-23.016
-20.542
-22.973
-24.705
-26.413
-29.856
-29.99
-26.4
-25.712
-27.035
-24.665
-21.135
-20.564
-21.066
-22.666
-26.189
-26.107
-20.986
-19.214
-22.888
-24.575
-23.29
-23.71
-24.747
-23.97
-22.534
-20.505
-19.035
-21.598
-25.724
-26.224
-25.316
-25.701
-24.293
-22.299
-24.857
-28.863
-28.463
-26.515
-27.245
-28.708
-29.296
-29.726
-29.338
-29.459
-32.643
-34.85
-31.136
-26.778
-28.11
-30.476
-28.713
-26.796
-27.324
-27.219
-27.71
-31.353
-32.79
-28.947
-26.756
-28.769
-29.487
-29.705
-32.83
-33.286
-27.952
-24.451
-27.017
-32.063
-36.821
-37.734
-32.55
-28.936
-32.386
-34.569
-31.634
-31.768
-34.411
-32.15
-30.285
-34.489
-36.231
-32.58
-32.884
-36.327
-33.896
-28.862
-28.291
-28.143
-25.086
-24.121
-26.469
-28.117
-28.667
-28.658
-27.362
-28.3
-33.907
-38.368
-37.678
-35.796
-34.696
-33.119
-33.047
-34.285
-32.925
-31.599
-35.517
-40.663
-41.869
-41.793
-41.122
-37.029
-33.895
-36.781
-40.965
-42.015
-41.24
-37.065
-30.693
-31.692
-39.649
-40.72
-33.423
-30.16
-32.436
-32.415
-30.49
-30.684
-32.329
-34.396
-34.589
-29.741
-25.531
-29.5
-34.569
-31.15
-25.632
-25.72
-25.809
-22.386
-20.57
-19.576
-16.09
-15.852
-20.175
-18.564
-10.264
-7.132
-8.887
-5.272
1.276
2.779
2.608
5.308
7.636
8.977
12.591
17.564
22.378
27.766
31.052
29.763
28.243
30.248
33.077
33.691
30.354
21.654
12.635
10.306
9.703
2.173
-7.504
-12.346
-16.849
-22.724
-24.295
-25.481
-33.13
-39.258
-36.71
-33.548
-33.85
-32.051
-30.338
-32.457
-31.519
-26.349
-26.553
-31.539
-33.204
-34.589
-39.635
-41.732
-39.331
-39.055
-40.512
-41.016
-43.58
-45.583
-41.916
-39.844
-45.333
-49.567
-48.047
-46.212
-41.021
-27.575
-12.171
4.503
29.632
56.887
79.999
113.641
163.434
209.992
249.781
299.825
351.966
381.116
386.999
375.461
332.598
254.65
158.306
49.136
-74.468
-197.902
-307.797
-412.006
-525.751
-652.238
-768.919
-832.922
-825.599
-779.141
-733.968
-695.212
-649.256
-591.183
-522.161
-444.148
-364.072
-290.621
-228.325
-179.199
-142.157
-110.089
-78.332
-53.657
-43.664
-43.121
-41.863
-39.101
-40.592
-46.238
-46.57
-34.137
-17.988
-15.974
-27.632
-32.117
-19.822
-3.927
4.817
10.424
16.052
17.883
14.02
5.569
-4.307
-6.622
5.446
24.893
39.717
45.968
43.662
34.362
25.527
21.632
18.421
17.681
28.129
44.798
52.765
50.207
44.826
39.061
35.238
37.344
42.352
47.839
58.634
71.313
73.725
67.053
62.399
60.752
60.072
64.696
72.165
74.486
74.258
76.595
78.173
79.945
87.466
95.197
95.917
95.509
98.849
101.526
103.629
107.837
109.519
108.428
112.507
120.266
123.418
124.062
126.927
129.546
133.18
141.293
148.268
151.098
156.249
162.001
161.087
160.621
168.945
177.158
179.33
184.797
194.962
199.854
200.731
205.817
212.155
214.789
217.279
220.23
219.716
219.316
224.218
229.953
231.675
232.225
233.397
233.029
231.396
230.723
232.699
238.154
242.988
240.952
234.464
231.193
231.204
229.65
225.947
221.461
216.069
209.845
201.85
190.979
180.473
172.858
163.138
148.328
134.983
126.135
115.498
102.354
92.988
85.98
76.246
66.331
57.143
44.145
31.596
26.929
23.055
12.485
4.927
6.638
6.065
-2.076
-7.545
-7.868
-11.083
-16.83
-20.168
-23.375
-26.852
-25.928
-23.206
-24.45
-26.604
-26.164
-26.42
-27.828
-27.369
-26.621
-27.904
-30.594
-34.664
-37.509
-34.851
-31.078
-33.274
-37.564
-38.471
-39.239
-40.498
-38.326
-36.734
-40.601
-43.643
-41.46
-40.288
-41.693
-39.521
-35.163
-35.038
-37.063
-36.545
-35.873
-36.939
-36.451
-34.254
-33.687
-34.26
-34.176
-34.357
-34.569
-34.167
-35.218
-37.035
-36.127
-34.665
-35.887
-35.94
-33.799
-35.435
-38.91
-36.449
-32.168
-33.343
-33.875
-28.918
-26.402
-29.176
-30.502
-30.086
-31.45
-32.598
-33.237
-35.023
-34.579
-31.778
-32.042
-33.036
-29.525
-26.997
-29.969
-31.738
-29.949
-31.051
-34.262
-33.176
-29.655
-28.626
-28.738
-28.14
-27.863
-27.341
-25.977
-25.634
-26.877
-28.339
-29.564
-29.942
-28.498
-26.859
-27.271
-28.337
-28.124
-27.764
-27.333
-25.393
-24.939
-29.277
-33.688
-33.12
-31.235
-31.357
-30.126
-26.923
-26.062
-28.368
-31.946
-35.613
-35.317
-29.22
-25.476
-29.51
-33.299
-32.011
-32.697
-36.328
-35.302
-31.057
-30.737
-33.52
-36.568
-39.782
-39.923
-36.918
-37.538
-40.57
-38.289
-35.47
-40.718
-46.504
-43.136
-37.086
-36.897
-39.669
-40.727
-39.592
-36.039
-32.212
-32.24
-33.89
-31.496
-27.703
-29.122
-33.479
-34.291
-32.918
-34.614
-38.274
-38.632
-35.222
-33.703
-37.449
-41.421
-39.68
-35.129
-33.759
-34.905
-34.974
-33.654
-32.57
-34.621
-41.286
-45.84
-40.732
-32.822
-33.681
-39.088
-38.78
-35.68
-35.441
-33.855
-30.383
-32.593
-38.419
-37.943
-32.99
-31.564
-31.462
-29.449
-30.587
-34.899
-35.398
-33.438
-34.371
-34.369
-30.492
-29.489
-33.975
-37.062
-34.76
-29.076
-22.339
-16.821
-13.44
-10.847
-9.794
-10.427
-7.838
-2.194
-2.015
-7.174
-7.961
-4.418
-2.697
1.313
11.352
19.327
20.794
21.116
21.764
21.838
25.373
30.686
28.819
19.873
11.737
6.203
2.811
3.198
1.743
-8.765
-21.813
-28.418
-32.771
-38.52
-40.195
-39.028
-41.316
-42.36
-37.477
-34.233
-35.144
-32.994
-29.64
-31.18
-32.513
-30.802
-33.655
-39.84
-39.648
-35.72
-36.205
-38.177
-38.083
-39.964
-43.986
-46.016
-46.324
-45.751
-43.847
-43.678
-46.16
-47.039
-46.235
-44.927
-36.863
-20.483
-4.856
9.899
33.561
64.517
96.966
137.407
186.872
233.066
276.215
325.378
368.662
386.252
377.771
347.047
287.55
199.941
96.169
-16.443
-135.479
-254.418
-365.996
-473.668
-591.586
-717.491
-811.823
-835.619
-802.591
-758.062
-721.026
-680.422
-627.194
-561.144
-483.843
-402.108
-326.894
-263.382
-209.747
-163.833
-124.693
-91.855
-67.863
-54.996
-47.793
-39.72
-34.913
-39.496
-48.04
-50.332
-41.837
-25.362
-13.648
-19.608
-33.794
-32.717
-14.387
2.093
9.718
16.351
22.057
20.222
12.104
4.116
0.893
5.529
17.035
30.611
43.144
50.236
45.397
32.782
25.723
26.584
28.185
32.642
45.304
58.494
62.16
58.529
53.173
47.082
43.252
45.827
53.491
62.903
70.708
71.699
67.378
67.179
71.597
72.902
73.433
78.618
82.264
81.305
84.509
93.044
97.399
94.875
90.288
89.167
96.963
109.023
111.015
103.888
104.536
114.443
119.712
119.841
123.681
128.07
127.975
129.611
135.304
138.523
140.663
147.241
153.131
154.95
160.352
168.977
170.992
168.819
171.004
174.777
178.736
189.229
201.635
205.447
204.647
205.985
206.626
209.28
219.267
226.895
224.268
222.49
228.08
231.309
229.733
231.363
235.489
236.659
237.125
239.346
240.886
241.654
242.393
240.442
236.68
235.692
235.373
230.627
224.184
220.033
215.681
209.423
201.895
191.222
179.494
172.48
166.027
152.662
138.346
130.138
121.613
108.731
97.885
89.54
77.768
63.902
52.459
43.757
37.864
32.991
24.763
16.167
13.521
12.021
5.337
-0.02
0.2
-2.726
-11.099
-15.219
-13.937
-14.894
-17.303
-17.122
-17.68
-20.078
-20.027
-19.065
-21.413
-25.021
-28.211
-31.981
-32.607
-28.758
-27.797
-30.619
-28.908
-23.928
-23.371
-24.527
-23.788
-26.101
-30.616
-30.716
-29.279
-30.952
-31.485
-29.645
-30.14
-32.032
-32.728
-33.869
-32.957
-27.211
-24.207
-28.2
-29.964
-26.842
-27.966
-31.806
-29.798
-27.42
-30.566
-30.01
-23.592
-22.905
-26.571
-23.735
-19.575
-22.486
-25.225
-23.884
-26.066
-30.426
-30.467
-31.148
-34.474
-31.679
-25.764
-28.952
-35.986
-34.35
-29.149
-29.507
-30.854
-28.356
-25.859
-25.775
-26.831
-27.724
-25.61
-20.703
-19.666
-23.898
-25.608
-22.861
-22.219
-24.654
-26.029
-26.697
-26.751
-23.156
-19.04
-20.304
-23.758
-24.18
-24.129
-25.757
-26.957
-28.078
-29.081
-27.455
-25.744
-27.032
-27.11
-25.087
-25.937
-26.22
-21.214
-19.358
-24.649
-26.243
-23.187
-26.054
-29.934
-24.429
-19.209
-24.661
-31.299
-31.817
-31.917
-31.436
-26.974
-25.819
-31.103
-32.617
-28.145
-27.474
-30.799
-30.208
-27.488
-28.766
-32.278
-33.928
-33.295
-31.697
-32.363
-37.088
-40.537
-37.48
-32.379
-31.813
-34.131
-34.474
-32.45
-30.486
-30.453
-31.936
-31.808
-29.74
-30.567
-34.586
-35.163
-31.441
-29.249
-29.617
-31.557
-37.094
-41.695
-37.925
-32.773
-36.345
-40.093
-34.312
-28.998
-31.869
-33.388
-29.909
-28.902
-29.264
-27.672
-30.673
-37.761
-38.544
-35.188
-36.422
-37.066
-32.343
-31.021
-34.845
-34.37
-30.823
-31.009
-29.789
-24.379
-24.459
-30.603
-31.168
-26.139
-24.795
-25.463
-22.108
-18.25
-18.867
-22.848
-27.592
-29.379
-25.13
-19.688
-19.568
-21.698
-20.781
-17.341
-10.874
-1.621
2.716
0.048
-0.159
3.075
1.624
0.443
8.962
19.486
21.966
20.595
20.272
21.254
26.366
31.76
26.367
13.042
5.361
3.021
-2.495
-8.311
-10.018
-13.766
-22.005
-27.511
-28.695
-30.503
-32.683
-34.177
-37.828
-40.773
-38.127
-35.675
-38.372
-38.51
-32.633
-29.085
-30.464
-32.088
-34.143
-37.221
-39.034
-41.468
-44.78
-43.597
-40.259
-41.971
-44.037
-40.564
-39.323
-44.703
-48.125
-46.659
-46.357
-48.126
-49.145
-47.605
-39.147
-22.865
-5.285
11.734
33.092
59.808
91.4
129.442
170.358
211.277
259.729
317.599
367.228
389.795
382.519
348.573
285.174
191.317
80.329
-29.159
-135.463
-247.713
-360.879
-467.675
-580.142
-696.355
-773.151
-780.389
-747.095
-713.473
-680.807
-638.195
-589.086
-529.759
-450.449
-369.185
-315.436
-279.511
-229.325
-167.667
-120.852
-90.733
-66.59
-54.387
-54.853
-50.719
-40.226
-40.318
-49.209
-48.506
-36.573
-26.251
-24.152
-29.67
-36.255
-32.814
-18.657
-4.987
3.734
10.564
13.542
10.633
4.508
-4.732
-13.708
-10.504
6.501
23.998
36.715
46.626
45.079
28.468
14.254
14.538
20.268
25.845
36.829
50.253
56.475
54.367
47.472
38.994
35.184
38.772
44.736
50.752
58.22
63.695
64.735
65.1
64.755
61.303
60.373
64.762
66.346
65.372
72.674
84.186
85.885
81.635
83.382
87.543
87.853
89.721
95.297
98.994
102.427
110.303
117.324
118.478
119.341
123.675
127.55
130.198
133.81
135.886
135.53
138.409
146.963
156.086
161.069
161.939
162.255
165.965
171.376
173.465
175.21
183.798
195.256
200.09
200.191
202.83
206.825
208.612
210.346
214.3
219.969
226.513
231.128
231.685
231.999
235.089
237.696
239.414
243.639
246.692
243.907
241.582
244.949
247.336
244.794
242.456
240.403
233.844
225.112
218.795
213.425
206.498
196.879
183.531
170.395
163.013
157.596
147.353
134.788
124.021
112.828
101.314
92.213
82.345
70.143
61.135
54.502
44.089
34.342
30.779
25.52
14.457
6.901
4.63
-0.737
-8.075
-11.522
-14.666
-20.052
-22.866
-24
-27.689
-29.117
-24.779
-22.276
-25.358
-28.364
-30.073
-32.19
-30.995
-27.498
-28.916
-32.754
-32.06
-30.919
-33.415
-34.29
-32.925
-33.758
-33.984
-31.766
-32.864
-36.702
-36.6
-34.432
-34.751
-34.684
-33.482
-35.116
-37.43
-36.796
-37.113
-40.076
-40.862
-39.764
-40.324
-39.394
-35.547
-35.176
-39.468
-42.201
-42.118
-40.76
-36.565
-33.089
-36.727
-42.611
-42.503
-40.179
-40.521
-38.954
-35.414
-37.386
-42.374
-40.537
-33.959
-31.904
-33.889
-34.409
-33.755
-33.513
-32.705
-31.87
-32.148
-33.155
-34.961
-35.447
-30.715
-24.892
-26.162
-30.865
-30.832
-29.845
-32.153
-31.476
-27.568
-29.132
-34.062
-33.851
-31.402
-31.357
-29.738
-27.082
-29.258
-32.975
-32.048
-29.251
-27.265
-24.563
-24.466
-28.632
-29.068
-23.864
-23.023
-28.094
-30.452
-30.682
-33.753
-34.61
-30.393
-29.013
-33.222
-37.297
-39.18
-38.01
-31.955
-27.227
-30.343
-34.898
-34.059
-31.868
-31.113
-29.613
-29.607
-32.788
-34.506
-33.78
-34.139
-33.598
-30.927
-32.784
-39.716
-41.69
-36.181
-30.711
-28.059
-27.629
-31.291
-35.642
-35.029
-33.328
-34.849
-35.061
-33.644
-36.141
-39.208
-37.446
-36.132
-38.26
-37.541
-34.295
-35.121
-36.82
-33.014
-28.473
-28.82
-29.522
-27.275
-26.828
-30.562
-34.554
-34.539
-29.131
-22.936
-23.937
-30.599
-33.207
-30.985
-29.952
-29.157
-27.298
-28.65
-30.908
-28.184
-25.884
-29.634
-31.695
-27.149
-22.501
-19.118
-13.169
-8.906
-8.874
-5.423
2.246
5.012
3.034
3.029
2.28
-1.891
-1.296
7.447
14.873
14.937
11.554
9.616
12.813
21.555
27.249
22.032
11.184
3.345
-0.721
-2.522
-3.56
-8.072
-16.441
-23.582
-27.557
-28.963
-27.718
-28.665
-36.191
-42.737
-41.08
-38.125
-39.242
-38.834
-36.92
-38.676
-38.912
-34.149
-34.286
-40.797
-41.686
-37.933
-39.788
-42.018
-37.354
-35.488
-41.972
-46.283
-45.093
-46.888
-51.947
-53.667
-52.006
-50.405
-51.076
-54.059
-51.592
-37.147
-20.915
-12.337
0.187
24.957
50.159
73.514
108.893
153.701
194.092
235.511
287.831
340.162
374.992
382.009
355.432
299.374
222.642
124.954
10.661
-102.486
-208.356
-314.916
-421.405
-528.519
-643.654
-743.946
-784.553
-764.525
-726.294
-690.678
-650.198
-605.155
-554.609
-484.606
-401.796
-337.558
-298.041
-255.978
-199.979
-146.945
-107.961
-80.302
-63.086
-54.125
-45.951
-37.363
-33.929
-37.089
-42.62
-42.965
-32.438
-18.957
-17.201
-24.769
-26.595
-19.844
-10.64
0.642
11.398
14.63
12.796
10.527
1.608
-13.114
-15.571
1.868
24.138
38.481
45.241
44.587
36.12
25.547
18.015
15.023
19.889
32.914
46.207
53.377
54.55
49.627
40.249
34.455
37.094
43.619
49.309
54.317
59.669
65.589
69.723
67.924
62.903
62.668
66.612
68.604
71.023
77.596
82.727
83.7
86.464
90.739
90.981
91.443
97.55
102.141
99.702
97.194
99.131
103.39
112.142
124.516
130.338
129.203
132.985
141.009
142.758
141.955
147.796
155.754
159.485
162.122
166.008
170.557
176.815
181.984
182.479
183.279
188.404
193.366
198.026
206.234
211.954
209.998
209.035
213.85
217.216
219.352
226.553
233.061
232.245
231.416
235.195
236.947
235.929
237.761
240.216
239.446
238.983
240.818
242.367
242.781
240.423
233.49
227.224
225.483
220.977
209.835
201.095
198.405
192.672
180.627
168.851
158.897
147.69
136.205
125.355
114.345
105.206
97.003
84.297
69.765
61.354
56.128
47.559
39.696
35.096
27.353
18.023
15.595
15.672
9.495
2.193
-0.862
-5.318
-11.318
-12.346
-12.263
-17.148
-21.123
-20.414
-21.499
-25.46
-26.772
-26.14
-26.676
-27.323
-27.922
-28.213
-25.837
-24.342
-29.572
-36.293
-35.439
-29.134
-25.195
-26.624
-31.453
-33.909
-30.299
-26.635
-28.75
-31.347
-30.623
-31.818
-34.258
-31.462
-27.872
-30.828
-34.293
-32.427
-31.832
-34.964
-34.909
-33.183
-36.844
-40.324
-35.07
-27.433
-26.267
-28.371
-29.786
-31.927
-32.055
-27.85
-25.495
-27.259
-27.073
-25.913
-28.999
-31.254
-28.265
-27.032
-29.566
-28.57
-24.73
-23.506
-21.82
-18.219
-18.911
-22.704
-22.191
-19.513
-20.198
-21.956
-23.084
-25.208
-25.131
-21.57
-20.806
-23.116
-21.955
-19.52
-20.895
-21.06
-17.172
-16.032
-18.47
-18.546
-17.843
-19.788
-20.312
-18.051
-17.545
-18.395
-17.576
-16.544
-15.194
-12.149
-12.663
-19.256
-22.504
-17.14
-11.869
-12.671
-15.609
-18.339
-20.265
-18.074
-14.105
-15.199
-19.199
-19.642
-18.167
-17.668
-16.5
-16.721
-21.548
-26.371
-26.108
-22.586
-18.782
-17.646
-22.795
-30.032
-29.845
-23.575
-20.966
-22.956
-23.998
-24.205
-24.824
-23.641
-22.395
-23.931
-24.397
-22.541
-24.256
-28.781
-29.663
-29.269
-31.821
-32.196
-28.075
-25.952
-26.93
-26.586
-27.014
-30.235
-30.607
-27.236
-26.705
-28.673
-28.492
-28.831
-31.046
-29.572
-26.023
-28.05
-32.202
-30.389
-26.107
-25.446
-25.923
-25.331
-25.648
-26.107
-25.324
-25.183
-26.357
-27.831
-29.308
-28.731
-25.528
-25.206
-29.52
-31.229
-28.295
-26.8
-26.361
-23.678
-24.402
-30.487
-31.967
-26.814
-25.077
-27.654
-27.787
-27.657
-29.857
-28.649
-24.508
-25.05
-28.364
-27.596
-23.689
-18.161
-10.138
-4.911
-5.506
-3.918
2.371
4.105
0.174
-0.379
2.847
3.861
4.411
8.79
15.294
20.841
23.616
22.496
21.14
24.454
29.059
28.423
23.298
17.036
9.814
3.28
-0.615
-4.656
-10.273
-14.761
-19.607
-27.188
-31.936
-31.125
-32.472
-38.217
-41.156
-40.874
-42.383
-44.55
-45.774
-46.839
-44.138
-37.651
-36.336
-41.3
-42.996
-40.628
-40.681
-41.504
-40.702
-43.052
-47.617
-47.839
-46.766
-49.765
-51.095
-46.989
-44.769
-47.077
-48.027
-46.907
-45.651
-39.96
-27.789
-13.408
2.97
24.153
49.45
82.009
126.645
175.512
220.532
270.663
327.267
367.426
378.409
371.426
347.106
291.512
206.38
105.305
-6.303
-124.17
-238.628
-345.22
-450.934
-568.792
-695.277
-791.143
-817.224
-787.443
-745.974
-709.317
-670.104
-625.096
-568.201
-492.699
-412.82
-347.739
-291.906
-233.175
-179.827
-142.797
-115.184
-88.674
-67.771
-56.692
-51.411
-49.309
-52.15
-58.927
-63.516
-58.778
-44.985
-34.834
-38.626
-46.084
-41.031
-27.103
-17.342
-11.594
-4.733
-0.014
-0.637
-5.553
-14.751
-22.76
-17.92
-0.2
17.248
26.783
28.088
20.314
8.451
2.153
2.154
5.326
15.18
30.312
39.668
39.829
36.967
32.518
25.968
22.211
23.478
27.4
34.603
43.899
48.469
47.485
46.742
45.988
43.549
45.074
51.277
53.997
54.025
59.978
68.908
71.51
69.008
67.384
68.624
74.597
83.319
86.039
81.975
81.248
86.039
89.961
93.696
99.197
100.756
98.362
99.832
104.444
107.776
114.115
123.597
127.798
129.092
136.377
144.177
144.75
145.336
150.96
154.906
157.118
163.99
171.936
175.662
179.412
184.471
186.154
187.279
192.572
197.363
199.443
204.67
211.505
212.631
210.912
212.103
212.921
211.843
213.332
215.349
213.274
211.862
215.452
218.647
217.597
214.843
211.014
205.64
200.847
197.088
193.692
191.088
185.74
174.025
161.899
155.252
148.485
137.337
126.957
117.492
103.083
87.477
78.477
72.588
63.498
53.692
46.146
39.413
33.881
29.301
21.534
11.221
4.535
1.951
-0.762
-3.846
-6.855
-11.556
-15.707
-15.761
-14.722
-16.455
-19.546
-22.944
-26.621
-27.776
-26.913
-28.778
-31.588
-30.369
-29.079
-32.347
-35.332
-35.445
-36.76
-37.363
-33.75
-32.036
-34.676
-33.609
-29.51
-31.119
-34.522
-32.924
-33.389
-38.244
-36.792
-30.635
-32.135
-37.202
-35.46
-32.646
-34.236
-33.66
-31.693
-35.138
-38.193
-34.769
-32.497
-35.125
-36.174
-34.877
-34.125
-31.823
-29.515
-31.501
-33.655
-32.204
-31.974
-33.211
-30.764
-28.076
-29.275
-28.087
-23.228
-23.622
-28.172
-27.271
-23.547
-24.33
-25.525
-24.083
-25.67
-28.891
-27.347
-25.685
-28.801
-29.47
-25.17
-23.442
-23.713
-20.993
-19.967
-21.867
-18.141
-10.709
-10.234
-14.266
-15.116
-16.26
-19.873
-19.563
-15.547
-14.522
-16.392
-18.011
-19.014
-16.925
-11.545
-10.265
-15.226
-18.03
-15.337
-12.41
-11.435
-12.462
-16.58
-18.876
-14.869
-11.854
-14.662
-15.361
-12.347
-13.863
-17.077
-13.785
-9.94
-12.975
-17.089
-17.728
-18.531
-19.868
-20.214
-21.557
-22.082
-18.4
-15.557
-17.719
-18.8
-16.092
-15.445
-16.917
-16.852
-19.331
-25.206
-25.989
-22.129
-22.49
-24.143
-20.919
-19.271
-21.427
-18.322
-12.267
-14.196
-20.45
-22.687
-23.981
-25.22
-22.382
-21.688
-28.166
-31.149
-25.821
-24.12
-28.664
-27.796
-21.248
-19.31
-21.976
-23.056
-22.289
-20.66
-18.861
-20.47
-24.146
-23.471
-20.36
-21.297
-23.706
-23.986
-25.694
-27.482
-24.242
-21.288
-23.496
-24.155
-23.415
-29.32
-34.3
-27.998
-22.016
-25.808
-27.161
-21.355
-19.432
-21.052
-19.278
-19.186
-22.513
-20.981
-16.815
-18.773
-23.331
-24.464
-24.307
-22.161
-15.231
-9.258
-9.85
-13.602
-16.722
-17.528
-12.88
-6.081
-5.77
-9.939
-10.282
-8.512
-7.675
-2.78
4.274
4.6
2.238
6.591
12.099
10.962
9.576
14.089
20.547
26.013
28.982
25.485
20.429
24.419
32.652
32.053
24.449
18.152
12.357
7.015
6.306
6.606
1.688
-6.476
-15.266
-24.149
-27.42
-23.573
-23.323
-31.059
-36.26
-34.404
-32.965
-33.819
-32.431
-29.498
-27.63
-26.981
-28.832
-31.46
-29.072
-23.614
-23.231
-27.591
-31.22
-33.616
-33.888
-30.966
-31.302
-37.215
-38.96
-35.108
-36.021
-39.016
-34.568
-31.064
-35.394
-31.759
-12.99
4.846
18.388
40.825
70.888
102.855
144.607
194.668
240.551
287.211
340.931
382.53
395.781
386.219
352.315
284.244
190.676
86.729
-27.088
-149.265
-266.28
-370.686
-474.381
-594.653
-720.959
-806.451
-818.474
-781.293
-738.39
-701.245
-661.261
-613.642
-551.393
-470.922
-386.693
-314.191
-251.25
-193.974
-147.854
-111.958
-78.425
-51.294
-39.813
-37.586
-33.09
-29.757
-34.817
-43.802
-48.515
-43.4
-26.135
-8.724
-9.719
-22.014
-19.84
-2.251
10.971
18.576
29.235
33.798
24.074
11.237
4.037
1.604
9.26
28.711
46.008
51.984
52.312
49.972
42.971
34.851
29.64
28.93
37.337
53.407
64.262
64.054
60.241
56.617
52.003
50.273
53.359
57.772
64.415
73.311
76.241
71.831
69.703
71.875
73.941
79.222
88.361
91.742
88.198
87.635
90.92
91.648
90.745
91.008
92.163
97.389
106.077
108.465
104.62
107.837
118.732
124.825
125.571
127.52
127.651
126.026
130.84
138.775
140.558
141.984
150.392
158.767
163.251
169.286
174.536
174.146
174.478
179.157
181.118
180.839
187.094
197.929
204.978
208.781
212.649
215.371
217.268
219.35
220.263
222.216
227.739
232.087
232.788
234.796
237.998
238.592
240.611
246.318
248.352
245.493
245.241
246.415
243.217
240.283
241.695
240.231
232.895
226.449
222.331
217.602
214.281
210.444
199.106
184.637
176.533
169.584
155.945
143.027
136.577
128.06
114.234
103.206
95.904
86.46
76.085
67.357
56.833
44.378
35.655
32.172
30.026
25.946
19.06
11.613
7.638
7.121
6.542
5.255
3.468
-1.215
-7.395
-9.835
-10
-12.95
-16.17
-16.613
-18.647
-22.528
-22.018
-18.937
-19.771
-22.136
-22.789
-25.13
-27.974
-26.715
-25.675
-29.281
-31.749
-30.294
-30.728
-34.073
-36.794
-39.842
-42.348
-39.87
-35.982
-36.954
-38.329
-35.544
-34.221
-36.193
-35.998
-35.063
-36.608
-34.929
-29.315
-29.299
-34.469
-34.736
-31.41
-31.842
-33.154
-32.247
-34.197
-39.002
-40.478
-39.489
-40.204
-40.992
-40.61
-40.901
-40.418
-37.974
-37.16
-38.828
-39.713
-40.179
-41.303
-40.206
-38.046
-40.536
-45.486
-45.009
-39.861
-37.096
-38.226
-40.183
-40.618
-38.308
-35.795
-37.553
-40.727
-39.254
-36.748
-39.368
-42.907
-41.959
-39.109
-36.827
-35.874
-39.279
-44.137
-42.438
-37
-37.028
-40.596
-41.144
-39.437
-36.498
-31.94
-30.226
-32.019
-31.282
-29.986
-33.775
-36.177
-32.263
-31.33
-36.076
-36.723
-34.32
-37.394
-41.06
-39.427
-40.136
-44.752
-42.794
-36.29
-37.745
-44.022
-44.341
-42.971
-46.217
-47.216
-43.244
-42.254
-44.154
-42.159
-38.68
-38.435
-38.916
-38.895
-40.047
-40.809
-41.122
-43.309
-44.897
-44.016
-44.625
-46.447
-45.307
-44.681
-48.056
-49.066
-45.265
-43.703
-44.348
-40.62
-35.802
-36.946
-40.946
-43.104
-45.268
-46.774
-44.181
-40.701
-40.894
-42.976
-45.788
-49.982
-50.748
-45.643
-42.228
-43.997
-44.51
-42.578
-42.53
-42.375
-41.231
-44.383
-48.923
-46.867
-42.628
-43.184
-44.03
-42.826
-43.794
-43.546
-39.091
-39.356
-46.49
-48.992
-44.776
-42.321
-41.685
-40.015
-40.753
-42.368
-39.875
-37.854
-40.341
-40.919
-37.536
-35.916
-35.08
-31.989
-31.162
-32.639
-29.697
-25.094
-25.828
-27.429
-24.432
-20.616
-17.429
-13.091
-11.666
-14.305
-14.637
-12.632
-12.925
-12.002
-7.498
-6.185
-8.53
-6.641
-0.708
5.262
14.165
23.601
23.964
18.825
20.054
24.106
20.748
12.595
4.16
-6.829
-15.764
-15.291
-12.361
-16.082
-21.624
-24.868
-30.396
-35.917
-35.161
-33.877
-39.03
-44.873
-45.997
-45.279
-43.215
-38.755
-36.055
-36.122
-34.185
-31.602
-34.224
-39.828
-42.026
-40.95
-40.263
-40.885
-41.751
-41.772
-41.563
-42.896
-43.927
-41.413
-38.587
-40.022
-42.852
-44.625
-47.907
-48.445
-38.346
-23.022
-11.144
3.735
27.855
54.309
83.224
123.422
168.221
207.503
252.542
309.483
355.283
372.373
368.808
346.977
296.25
217.791
120.254
6.065
-117.142
-235.732
-345.59
-452.666
-568.156
-696.027
-805.44
-848.273
-823.607
-777.507
-736.229
-693.149
-644.232
-586.767
-511.142
-424.232
-347.277
-283.801
-224.458
-172.695
-134.487
-102.617
-73.431
-55.308
-48.767
-43.406
-37.276
-36.642
-41.484
-46.351
-45.168
-33.612
-20.576
-22.67
-34.045
-30.629
-11.549
1.774
5.356
11.659
19.932
20.559
13.895
5.821
0.309
1.704
11.91
27.123
41.345
48.521
45.51
36.737
28.644
22.361
20.361
29.274
46.792
60.63
65.183
63.139
55.356
45.864
43.892
48.684
51.461
54.18
62.588
70.017
70.558
69.88
69.49
65.798
65.692
75.234
84.235
85.224
86.143
90.523
92.007
90.812
91.103
91.336
92.613
98.236
102.033
98.665
95.876
98.827
102.001
105.675
115.11
124.354
125.323
123.114
124.816
129.613
136.532
143.693
145.906
146.511
153.727
162.451
164.295
164.797
168.65
171.514
176.37
187.4
195.029
194.593
196.078
200.372
199.977
201.222
211.128
219.743
220.861
222.695
227.232
228.958
230.521
235.091
236.873
233.989
233.102
236.221
238.566
237.675
234.712
231.559
230.052
229.977
229.754
229.478
227.441
219.317
208.642
205.124
206.067
199.651
187.283
177.708
167.853
154.25
144.292
138.009
125.792
110.671
102.581
96.933
86.235
75.693
68.329
58.734
49.052
45.462
42.924
34.837
25.145
18.655
15.275
14.32
11.857
3.992
-3.326
-4.402
-5.713
-10.909
-12.555
-10.055
-11.083
-13.974
-13.705
-15.168
-20.121
-20.541
-16.828
-17.671
-20.679
-19.045
-17.678
-20.864
-22.338
-20.702
-21.914
-24.804
-25.398
-26.61
-29.332
-29.419
-27.814
-27.544
-26.305
-23.764
-23.709
-24.367
-21.795
-19.878
-23.064
-27.625
-29.046
-27.215
-22.669
-17.85
-17.169
-20.046
-22.262
-22.573
-20.432
-16.623
-17.823
-25.506
-28.788
-24.24
-22.811
-26.025
-24.365
-20.644
-22.995
-24.859
-19.796
-16.205
-18.781
-20.371
-19.59
-21.834
-25.286
-25.88
-26.482
-28.217
-26.399
-20.961
-17.276
-17.372
-20.013
-23.203
-23.735
-22.848
-25.976
-30.248
-28.022
-23.366
-23.812
-24.956
-22.995
-22.881
-23.204
-19.446
-18.211
-21.751
-18.845
-10.182
-9.68
-14.587
-12.178
-7.285
-9.614
-14.16
-15.549
-16.402
-16.238
-14.821
-17.254
-22.394
-24.106
-24.401
-26.491
-26.311
-23.455
-22.633
-23.109
-23.956
-28.428
-32.612
-30.092
-27.2
-30.402
-32.066
-28.421
-27.585
-29.325
-26.334
-23.448
-26.881
-29.018
-25.764
-25.042
-27.502
-26.655
-25.497
-27.576
-26.516
-22.048
-23.387
-29.887
-32.582
-30.231
-25.546
-19.405
-16.581
-19.675
-21.822
-20.13
-21.161
-25.666
-28.485
-31.081
-34.375
-32.32
-27.256
-29.897
-37.237
-37.61
-35.267
-39.907
-43.013
-34.995
-27.87
-33.795
-42.934
-42.448
-35.426
-30.521
-30.298
-32.271
-32.932
-32.894
-36.073
-40.926
-41.577
-37.437
-32.328
-29.65
-32.218
-36.783
-34.504
-27.302
-26.899
-31.675
-30.846
-28.91
-35.162
-41.725
-39.364
-34.177
-32.391
-32.452
-33.863
-34.638
-30.764
-26.854
-29.962
-35.363
-34.858
-29.688
-25.802
-27.08
-33.297
-37.579
-34.068
-28.938
-30.129
-32.709
-30.258
-27.586
-28.198
-27.726
-27.051
-29.305
-27.126
-16.733
-9.601
-10.41
-9.081
-4.646
-4.954
-5.714
-0.737
2.501
-0.441
-2.157
0.494
5.041
11.86
17.525
16.449
14.282
18.993
24.584
22.08
14.04
6.411
0.556
-2.695
-3.78
-6.647
-11.898
-15.744
-19.087
-25.212
-30.478
-31.673
-34.134
-39.323
-40.007
-36.626
-37.089
-39.034
-35.532
-31.068
-31.732
-33.7
-34.011
-35.54
-37.696
-37.942
-38.354
-39.803
-39.323
-38.249
-40.263
-42.016
-38.99
-35.137
-35.248
-36.832
-37.055
-37.554
-39.39
-40.406
-37.192
-28.374
-16.618
-3.433
14.31
37.096
63.127
97.285
141.803
186.191
226.471
274.382
330.616
375.167
392.032
379.12
336.716
265.048
169.823
62.859
-45.638
-156.489
-272.246
-383.975
-490.858
-610.494
-732.931
-804.031
-797.498
-754.764
-718.686
-683.638
-634.511
-576.493
-510.808
-432.382
-355.681
-299.389
-254.148
-202.949
-152.841
-115.026
-84.013
-59.099
-49.847
-49.696
-42.29
-31.862
-32.905
-41.251
-41.581
-30.354
-17.964
-16.556
-25.319
-28.432
-17.476
-3.794
4.341
13.425
23.871
26.931
22.656
14.088
-0.38
-9.465
4.305
31.547
47.856
50.847
49.394
41.202
28.447
21.822
19.805
17.689
24.232
41.472
54.726
56.556
51.76
43.618
37.655
39.556
42.142
40.091
44.169
56.436
62.371
61.797
66.338
69.4
62.517
60.369
72.091
81.925
81.567
81.846
85.935
87.443
87.356
88.303
88.181
88.755
93.247
98.954
103.717
108.479
111.668
113.855
119.836
127.163
128.578
127.348
130.324
133.304
132.566
135.127
143.201
149.397
153.146
159.556
165.725
168.165
172.203
179.529
183.328
184.038
190.168
200.051
203.364
200.741
202.118
208.676
213.831
216.244
218.487
220.829
223.726
227.839
230.578
230.107
229.087
229.76
230.951
231.404
231.833
234.114
238.033
238.717
233.838
229.951
230.741
229.646
225.112
223.615
222.207
213.465
202.528
194.861
184.909
172.902
166.021
159.858
147.358
135.307
128.779
120.112
106.47
94.453
86.363
81.192
78.327
71.156
55.815
42.125
36.556
31.943
26.121
23.654
19.187
7.908
-0.813
-2.26
-4.907
-10.2
-12.28
-14.611
-20.993
-23.967
-19.918
-16.133
-16.306
-18.17
-21.025
-22.425
-19.803
-18.475
-22.628
-26.547
-27.188
-28.475
-29.387
-28.327
-31.076
-37
-36.634
-31.681
-31.733
-33.889
-31.554
-29.981
-32.707
-33.238
-30.928
-31.997
-34.899
-35.176
-35.036
-34.374
-28.841
-22.596
-23.805
-28.762
-28.821
-26.445
-28.272
-31.625
-31.22
-29.702
-31.969
-36.761
-39.245
-37.437
-34.08
-32.519
-31.715
-29.355
-27.32
-27.191
-26.448
-25.44
-27.51
-30.276
-30.5
-31.872
-34.637
-32.107
-26.655
-27.802
-32.492
-30.927
-25.344
-22.14
-19.261
-15.498
-14.873
-16.95
-18.857
-21.99
-25.315
-24.372
-21.761
-23.144
-25.506
-24.314
-23.232
-25.257
-26.846
-26.356
-25.338
-23.267
-21.342
-22.823
-24.367
-20.26
-14.446
-14.367
-18.46
-20.497
-19.534
-20.011
-24.68
-28.407
-24.452
-17.848
-18.806
-24.034
-23.904
-21.549
-23.564
-24.755
-21.417
-21.166
-26.06
-28.453
-28.368
-31.044
-32.316
-28.521
-27.138
-31.027
-32.131
-29.479
-31.043
-37.048
-40.827
-40.23
-36.791
-33.568
-34.599
-37.05
-34.305
-31.21
-36.418
-42.57
-38.594
-30.957
-30.086
-33.123
-35.03
-36.301
-35.93
-34.183
-34.977
-37.245
-38.022
-39.83
-41.41
-37.043
-31.358
-32.65
-36.459
-36.754
-37.331
-38.448
-35.007
-31.298
-34.503
-40.195
-41.503
-39.749
-37.996
-37.558
-39.33
-40.244
-37.562
-35.975
-37.621
-36.077
-31.987
-34.609
-41.487
-41.96
-38.532
-39.082
-40.193
-39.022
-41.085
-44.483
-41.235
-35.11
-34.458
-36.152
-34.365
-31.194
-29.754
-30.148
-31.511
-30.253
-24.315
-19.188
-18.48
-16.036
-8.658
-4.281
-7.831
-12.366
-10.766
-4.777
-0.467
-2.12
-7.48
-7.548
1.453
11.508
16.669
20.444
23.634
22.595
19.145
15.572
9.454
3.104
-0.073
-7.022
-20.443
-27.588
-24.125
-23.289
-28.855
-30.95
-29.708
-32.388
-36.961
-39.679
-41.044
-38.187
-32.398
-34.476
-44.44
-48.081
-43.37
-41.573
-43.757
-43.907
-43.244
-42.662
-40.14
-40.06
-44.589
-46.805
-46.645
-50.419
-52.757
-47.866
-45.326
-49.726
-51.371
-49.536
-50.379
-47.033
-35.394
-26.648
-20.414
-2.369
23.291
42.776
64.933
102.565
144.863
180.624
218.701
268.631
326.026
373.711
386.703
356.642
302.241
232.142
133.725
16.023
-93.264
-194.964
-302.862
-408.435
-510.77
-624.145
-725.141
-767.261
-754.406
-727.086
-697.415
-658.141
-615.765
-570.128
-503.98
-419.519
-347.374
-304.02
-270.093
-222.061
-164.025
-116.751
-89.33
-74.526
-64.118
-55.554
-47.724
-42.331
-44.34
-50.015
-45.839
-31.216
-23.576
-29.676
-36.382
-35.472
-29.344
-16.574
0.404
8.862
7.173
6.804
6.561
-2.026
-11.282
-10.592
-2.977
9.989
29.292
42.416
38.987
29.301
23.35
17.318
11.615
13.039
21.335
33.619
47.491
54.008
48.462
40.643
37.494
34.752
33.449
39.296
48.26
54.982
61.831
66.507
63.236
58.35
60.35
64.341
65.624
68.825
73.425
74.205
74.121
75.9
75.386
75.557
82.972
89.917
88.377
88.286
95.91
101.05
102.981
111.592
119.662
116.136
112.939
120.301
125.978
124.793
127.462
132.496
132.121
134.729
146.968
157.881
160.273
160.125
161.717
165.075
170.042
174.583
179.97
189.408
195.547
191.452
189.131
198.471
206.747
205.561
206.406
212.98
216.332
218.591
225.288
229.393
228.23
228.842
229.311
226.684
230.391
240.708
242.829
235.555
230.219
227.096
224.339
226.865
228.485
218.707
205.966
200.153
192.495
179.402
172.482
170.571
160.389
144.699
134.491
127.099
117.931
110.522
103.007
91.175
80.463
72.386
59.155
44.425
39.319
38.756
32.555
24.845
19.41
11.639
4.579
3.537
1.098
-6.819
-10.558
-8.737
-11.023
-15.212
-13.537
-12.102
-16.461
-18.794
-16.868
-18.403
-22.13
-21.713
-20.786
-23.367
-25.178
-25.211
-27.432
-30.205
-30.004
-29.673
-32.529
-36.264
-37.025
-34.126
-31.029
-31.143
-31.475
-28.136
-25.609
-27.498
-27.922
-26.025
-30.033
-37.143
-35.864
-29.67
-29.199
-30.869
-29.132
-29.539
-32.583
-30.742
-26.081
-25.597
-27.206
-28.385
-31.559
-33.358
-29.017
-24.049
-23.784
-24.161
-23.879
-26.647
-29.221
-27.565
-27.176
-30.433
-30.348
-26.639
-25.95
-26.258
-23.311
-21.537
-21.521
-17.728
-15.775
-23.147
-28.258
-20.617
-13.361
-17.382
-22.254
-21.504
-22.166
-23.97
-21.819
-20.619
-23.518
-23.977
-21.672
-23.405
-27.675
-28.399
-25.898
-22.477
-18.558
-15.019
-11.807
-10.136
-13.487
-17.973
-15.928
-12.896
-18.413
-25.736
-25.125
-21.199
-18.919
-15.594
-13.756
-17.207
-19.745
-17.927
-18.531
-21.758
-20.427
-17.495
-20.339
-25.58
-28.096
-29.734
-30.437
-28.771
-28.151
-28.196
-24.511
-22.068
-26.232
-27.878
-21.835
-20.11
-26.656
-28.454
-22.764
-20.504
-23.167
-25.328
-28.247
-31.959
-32.593
-32.878
-36.098
-37.107
-33.333
-30.031
-29.792
-31.308
-33.796
-34.091
-30.373
-28.227
-30.327
-30.452
-28.123
-30.962
-36.853
-35.946
-29.801
-27.248
-28.338
-28.915
-29.556
-30.824
-31.103
-30.582
-31.092
-34.676
-39.512
-37.018
-25.998
-21.358
-29.412
-34.708
-29.855
-27.471
-31.508
-32.493
-31.232
-34.379
-36.881
-33.099
-29.436
-31.819
-36.054
-36.459
-33.178
-29.282
-26.916
-26.984
-28.773
-29.41
-27.308
-25.242
-26.109
-28.659
-30.421
-30.742
-30.549
-31.525
-33.122
-32.577
-31.178
-32.101
-31.132
-23.396
-15.174
-13.23
-12.557
-7.882
-3.037
-2.228
-5.483
-10.004
-8.868
-0.932
1.414
-6.189
-7.725
2.909
9.348
6.917
10.116
19.733
23.366
21.417
18.905
12.152
3.992
3.306
4.792
-1.639
-11.032
-15.796
-19.533
-25.635
-31.567
-36.232
-38.88
-38.208
-37.604
-39.162
-38.187
-34.877
-36.273
-40.624
-40.504
-38.982
-41.515
-43.477
-42.757
-44.901
-47.026
-41.977
-36.511
-38.998
-42.707
-42.65
-44.952
-48.353
-46.192
-44.552
-49.969
-54.112
-51.534
-49.267
-48.501
-41.411
-26.549
-8.36
11.165
30.691
51.417
80.707
120.854
162.863
202.891
249.595
305.571
357.989
391.6
397.127
371.318
318.016
241.272
141.582
28.029
-84.913
-196.594
-310.383
-419.328
-527.323
-645.797
-750.522
-797.285
-785.038
-748.595
-707.319
-665.191
-624.776
-575.078
-505.198
-429.458
-364.613
-304.887
-243.303
-186.527
-139.681
-102.976
-77.13
-58.223
-42.463
-34.323
-34.923
-37.773
-42.524
-49.889
-49.232
-35.067
-20.794
-19.351
-26.905
-30.588
-20.996
-1.798
12.519
16.754
19.506
21.548
15.002
4.711
1.53
3.627
8.958
24.124
43.732
51.057
44.939
35.989
26.002
16.861
18.225
30.275
43.48
54.956
62.704
60.215
51.968
49.097
48.541
44.422
45.399
55.104
61.625
62.515
66.788
70.474
65.992
62.456
66.194
67.561
65.121
68.393
74.721
77.04
79.804
83.445
81.043
78.904
87.028
96.732
97.17
94.074
93.953
95.309
99.63
107.643
113.195
115.645
120.441
123.965
120.518
117.721
123.481
131.675
135.798
139.052
144.796
152.625
160.289
162.062
157.546
157.923
167.198
174.328
177.103
185.219
195.284
196.385
193.492
196.27
201.801
205.736
209.754
214.127
218.036
220.728
219.661
217.964
223.066
230.69
229.918
223.775
222.444
224.874
226.38
228.506
228.58
220.667
211.444
211.134
213.586
209.433
204.163
201.939
194.85
182.992
176.457
172.184
159.384
142.848
133.092
126.9
117.725
107.166
96.824
86.51
78.606
71.778
61.443
51.177
47.233
44.422
34.795
22.462
15.416
12.989
10.071
4.321
-2.409
-5.309
-4.057
-5.573
-11.275
-13.202
-9.647
-8.139
-11.268
-15.373
-18.231
-18.231
-15.681
-15.187
-16.714
-14.425
-10.768
-13.829
-20.59
-22.727
-21.642
-21.609
-21.572
-22.053
-24.3
-24.577
-23.032
-25.948
-30.968
-29.59
-24.997
-26.005
-30.408
-31.954
-31.105
-29.585
-27.746
-26.933
-26.307
-25.005
-25.58
-26.325
-22.699
-19.735
-23.637
-27.504
-25.376
-24.033
-25.863
-23.401
-18.253
-19.5
-23.961
-23.089
-21.223
-24.937
-28.449
-26.52
-24.208
-24.207
-22.88
-20.431
-19.448
-18.743
-18.048
-19.19
-21.095
-22.785
-24.771
-23.899
-19.642
-19.861
-25.541
-26.147
-21.009
-19.686
-19.682
-14.229
-11.043
-15.089
-16.08
-12.128
-13.767
-18.445
-15.886
-11.796
-14.58
-16.56
-12.569
-11.374
-14.774
-14.733
-12.58
-13.834
-15.152
-14.742
-16.047
-16.862
-14.976
-14.646
-16.267
-17.834
-22.316
-26.905
-24.26
-20.04
-22.106
-23.074
-18.596
-17.672
-20.409
-17.957
-14.38
-17.837
-22.677
-22.182
-19.792
-18.095
-16.647
-19.002
-25.151
-26.565
-20.304
-14.296
-13.503
-16.08
-20.829
-24.874
-23.945
-21.891
-23.872
-24.332
-19.885
-18.965
-24.65
-28.974
-28.684
-26.614
-23.837
-23.191
-26.797
-28.829
-26.343
-26.128
-28.607
-25.977
-21.133
-22.628
-26.14
-25.683
-27.124
-31.439
-29.578
-24.062
-25.897
-31.144
-29.96
-26.806
-28.073
-29.298
-27.931
-27.453
-27.707
-27.925
-30.295
-32.553
-31.619
-32.422
-37.659
-39.198
-33.06
-28.579
-33.023
-40.652
-42.046
-35.069
-25.916
-22.439
-24.88
-26.902
-26.837
-27.595
-26.809
-21.726
-18.524
-22.366
-28.683
-32.909
-33.733
-28.384
-20.523
-19.688
-23.245
-21.508
-18.398
-20.605
-21.851
-19.22
-18.923
-17.913
-10.766
-5.776
-6.935
-4.748
0.139
-1.108
-2.784
1.331
1.825
-3.393
-2.719
3.579
6.725
10.053
17.429
22.018
22.532
24.849
27.044
25.699
23.755
19.192
8.402
-0.199
-1.065
-4.78
-15.365
-20.53
-17.74
-19.204
-26.829
-31.013
-30.635
-31.687
-34.493
-36.539
-38.18
-39.417
-39.159
-37.252
-33.679
-30.574
-32.078
-36.198
-36.408
-34.252
-35.604
-37.899
-37.226
-37.095
-38.229
-37.301
-38.187
-43.246
-43.811
-38.904
-39.833
-44.724
-42.367
-38.717
-41.847
-40.043
-26.301
-10.311
7.871
33.28
56.007
76.679
115.973
171.364
218.779
260.992
312.602
358.726
381.65
386.343
370.461
321.224
242.327
141.685
21.128
-103.445
-216.224
-325.159
-436.829
-547.731
-665.356
-777.989
-834.386
-814.945
-766.299
-726.349
-687.176
-640.791
-589.277
-522.939
-439.934
-358.897
-289.523
-227.471
-176.664
-140.521
-108.246
-75.786
-54.12
-46.067
-43.93
-45.019
-47.103
-46.921
-48.956
-50.921
-39.089
-20.532
-19.166
-29.358
-25.718
-10.462
-0.728
5.091
12.052
14.934
14.51
13.951
7.326
-2.915
-1.86
11.285
23.554
32.931
42.361
44.297
35.724
26.986
23.307
21.818
25.992
39.066
52.856
59.666
59.875
53.52
43.336
39.158
43.435
48.418
53.68
63.164
69.745
66.951
62.337
61.834
61.291
60.938
65.445
71.476
74.263
77.196
82.839
87.083
86.726
82.848
79.323
81.837
90.215
94.689
90.722
88.831
97.98
111.577
119.98
122.592
122.084
121.108
123.349
127.237
128.045
128.66
133.454
139.086
144.027
150.754
155.527
155.486
156.434
160.117
163.103
168.74
178.155
182.929
182.909
187.747
195.64
197.545
196.933
201.017
205.352
205.716
208.094
214.493
217.851
216.865
217.149
219.194
220.837
223.287
226.075
227.991
231.167
233.809
231.224
227.745
228.673
227.34
219.865
214.827
213.778
207.875
197.998
189.826
178.223
162.306
154.6
156.598
153.148
139.229
125.203
117.172
111.76
104.003
92.293
80.352
71.811
63.251
50.719
37.649
28.348
21.444
15.26
12.119
12.407
10.179
1.451
-7.184
-7.307
-2.386
-2.385
-8.81
-15.371
-18.791
-20.031
-19.717
-19.23
-21.392
-25.312
-26.076
-23.292
-22.918
-26.578
-28.314
-26.217
-25.611
-27.701
-28.423
-28.196
-29.724
-30.73
-28.947
-26.867
-27.128
-30.327
-34.792
-35.495
-31.924
-32.591
-39.621
-42.266
-37.328
-34.832
-36.663
-35.355
-32.793
-34.198
-33.949
-28.764
-26.892
-30.814
-32.797
-31.5
-32.057
-34.369
-36.11
-36.855
-34.367
-29.077
-26.649
-27.418
-26.686
-25.674
-26.296
-25.172
-23.845
-26.991
-29.99
-28.296
-28.087
-32.257
-34.24
-31.908
-28.808
-25.716
-24.686
-29.115
-34.092
-33.634
-33.321
-37.181
-36.82
-30.748
-30.621
-36.595
-36.477
-31.813
-32.905
-35.376
-30.601
-24.203
-22.868
-23.152
-24.356
-28.983
-30.119
-22.265
-15.748
-20.362
-29.441
-32.303
-27.746
-22.041
-21.609
-25.117
-26.356
-27.083
-31.574
-32.906
-26.716
-23.611
-27.628
-27.947
-23.079
-22.144
-24.402
-25.499
-28.3
-30.743
-27.661
-26.073
-32.568
-38.517
-37.487
-35.234
-34.334
-32.63
-32.426
-33.467
-31.366
-29.3
-31.157
-30.391
-25.926
-29.027
-38.791
-40.113
-32.632
-28.778
-28.455
-26.49
-28.076
-33.735
-34.067
-30.478
-33.186
-39.558
-39.8
-35.56
-34.527
-37.225
-39.129
-37.733
-34.196
-31.557
-31.192
-31.778
-32.806
-35.744
-40.438
-43.985
-44.366
-42.048
-38.325
-36.085
-38.669
-42.755
-40.762
-34.465
-32.409
-34.438
-35.39
-36.507
-39.254
-40.585
-39.656
-37.036
-33.114
-32.336
-35.899
-36.646
-33.49
-33.564
-36.221
-36.658
-36.8
-35.87
-30.702
-29.483
-37.944
-43.535
-38.856
-35.275
-37.034
-35.257
-30.834
-31.348
-34.65
-36.828
-38.236
-35.364
-27.475
-23.522
-26.768
-30.216
-32.242
-34.444
-31.258
-22.712
-19.809
-23.268
-21.768
-15.113
-11.633
-9.113
-3.12
0.158
-3.371
-7.881
-8.94
-7.236
-4.834
-4.876
-5.226
1.948
14.324
20.912
22.668
26.955
29.848
28.555
30.43
31.928
20.116
2.007
-4.756
-4.307
-8.463
-11.155
-10.349
-20.366
-36.874
-36.635
-24.526
-26.161
-38.245
-40.975
-37.503
-36.592
-32.43
-26.683
-28.718
-32.62
-30.503
-29.168
-30.948
-28.613
-24.559
-25.272
-26.552
-24.25
-22.393
-24.208
-30.038
-37.652
-39.371
-34.055
-34.035
-42.845
-47.205
-43.95
-43.5
-43.027
-31.818
-14.61
2.051
24.643
53.424
80.146
109.277
147.846
188.521
229.789
281.953
338.115
376.084
386.993
372.185
331.799
271.068
191.622
85.929
-39.289
-164.106
-281.926
-392.036
-493.99
-607.015
-736
-827.996
-837.299
-795.127
-750.533
-707.322
-658.633
-608.126
-545.502
-463.388
-381.129
-313.567
-253.035
-196.915
-151.885
-114.431
-80.123
-56.862
-48.383
-43.612
-32.972
-21.337
-20.218
-30.963
-38.326
-28.424
-10.959
-7.332
-19.03
-28.32
-26.188
-17.294
-3.779
13.583
26.473
28.723
23.765
14.781
3.84
-0.308
7.94
21.083
31.369
39.124
42.809
38.477
28.662
19.504
16.44
25.243
43.726
58.577
63.419
64.758
63.607
55.907
49.501
52.284
55.602
54.087
57.712
67.891
73.447
73.841
74.759
72.066
65.535
66.246
75.828
83.418
84.962
84.94
86.584
90.972
94.98
92.55
87.563
91.352
101.432
104.351
100.988
103.746
111.877
115.007
114.095
117.021
123.433
128.514
130.214
128.517
128.099
134.9
144.274
148.043
150.557
157.855
163.316
162.472
162.373
165.658
168.424
172.752
179.583
182.542
183.551
191.274
201.122
204.367
206.481
212.57
216.448
216.964
219.25
221.711
222.57
224.263
223.397
218.373
218.917
227.285
231.749
230.888
234.848
241.627
241.142
234.485
228.933
227.162
228.423
227.45
217.847
204
195.697
192.004
186.54
179.353
171.142
159.78
147.504
137.99
129.982
122.232
114.478
102.933
87.551
76.156
70.546
62.639
50.071
38.709
30.384
23.184
17.553
12.854
7.233
2.462
0.135
-2.345
-6.907
-12.073
-14.799
-12.522
-8.023
-8.567
-14.803
-19.82
-20.945
-20.113
-17.1
-14.749
-19.643
-28.158
-28.747
-22.671
-21.4
-24.651
-24.694
-25.048
-30.552
-32.764
-27.614
-27.022
-35.305
-40.049
-36.609
-33.393
-32.704
-32.527
-36.087
-39.968
-34.249
-24.227
-24.339
-31.714
-33.405
-29.153
-25.842
-25.313
-27.815
-31.916
-33.064
-31.864
-31.87
-29.93
-25.605
-27.128
-32.727
-30.733
-25.491
-29.954
-37.367
-35.34
-30.238
-29.187
-26.852
-25.018
-30.446
-34.687
-29.361
-24.922
-29.379
-34.62
-35.996
-37.163
-36.654
-32.683
-30.384
-31.363
-31.294
-29.796
-28.932
-27.662
-25.614
-24.553
-25.237
-26.926
-26.954
-24.079
-23.047
-25.461
-24.656
-22.851
-30.313
-37.835
-28.301
-15.016
-20.361
-32.407
-31.655
-27.812
-29.874
-26.598
-20.748
-28.375
-39.54
-34.043
-21.982
-21.157
-23.107
-17.655
-14.454
-18.378
-20.234
-18.667
-20.692
-25.579
-28.375
-28.277
-26.202
-25.128
-27.864
-28.843
-22.429
-16.378
-18.562
-22.775
-23.675
-25.309
-27.064
-25.428
-25.935
-31.204
-32.089
-26.189
-23.321
-26.192
-28.309
-28.523
-28.944
-27.73
-25.291
-25.021
-25.847
-26.184
-27.969
-29.418
-27.996
-28.821
-33.84
-35.634
-33.47
-32.986
-30.593
-25.051
-27.267
-35.466
-34.08
-27.472
-30.263
-34.035
-29.873
-31.785
-41.264
-38.849
-27.389
-26.26
-31.293
-30.893
-30.977
-32.53
-27.38
-23.034
-29.5
-36.643
-35.418
-32.943
-32.554
-30.531
-29.831
-32.127
-31.738
-29.439
-30.111
-29.75
-26.515
-27.897
-31.894
-28.113
-21.923
-25.497
-32.646
-32.681
-30.631
-32.308
-33.921
-34.369
-34.535
-30.797
-24.677
-22.807
-23.388
-20.835
-16.673
-12.862
-8.568
-6.594
-7.062
-3.309
3.163
2.965
-0.868
0.758
2.85
0.548
3.228
11.95
14.622
12.852
15.791
15.875
7.6
5.354
13.887
16.282
6.618
-2.755
-7.323
-11.541
-14.297
-15.14
-19.156
-26.276
-31.265
-33.145
-34.019
-35.021
-36.366
-36.26
-34.446
-35.506
-39.193
-37.887
-32.79
-33.419
-37.188
-35.149
-32.727
-37.166
-40.435
-38.086
-38.562
-40.811
-36.939
-35.02
-42.89
-47.746
-42.66
-41.228
-47.21
-48.648
-45.138
-44.381
-43.457
-39.108
-34.737
-26.651
-8.694
12.5
29.28
48.903
82.141
127.351
173.863
215.823
259.637
312.622
363.602
388.516
378.072
342.622
287.793
206.825
101.996
-10.198
-122.575
-239.766
-355.567
-463.31
-579.375
-707.753
-802.458
-821.27
-786.838
-745.881
-708.068
-661.841
-607.037
-545.245
-471.896
-392.718
-324.389
-271.722
-222.518
-170.109
-123.408
-90.036
-68.136
-55.868
-49.965
-41.755
-31.862
-32.615
-43.382
-47.133
-37.632
-25.692
-20.821
-25.066
-33.637
-33.556
-18.909
-1.931
8.883
20.017
27.759
18.145
-0.181
-6.438
-4.228
-3.804
5.822
28.239
43.231
42.448
36.869
28.989
18.373
14.446
18.095
22.341
32.778
51.359
59.752
49.601
37.546
34.45
35.025
36.889
40.793
45.518
54.429
65.987
67.733
61.075
62.63
69.277
65.428
60.292
69.049
79.469
79.569
80.313
84.436
80.445
74.251
80.018
91.661
97.685
98.74
96.328
93.59
99.632
111.044
114.373
112.614
115.832
119.108
119.454
125.147
133.055
134.305
137.141
147.85
154.186
153.614
158.519
164.992
162.126
160.71
170.436
178.047
177.764
182.262
191.948
196.471
198.921
203.845
205.05
204.079
208.995
215.608
219.341
225.95
232.422
229.938
226.509
231.244
234.45
231.215
231.849
236.47
236.999
237.595
241.37
240.646
236.907
237.65
236.53
227.463
218.546
213.448
206.597
197.862
188.149
175.08
164.244
161.369
156.821
141.412
123.85
115.147
112.486
107.714
97.933
85.158
73.047
62.611
51.749
42.262
38.002
32.947
18.882
4.596
2.996
6.691
3.276
-2.485
-5.103
-10.562
-17.557
-17.3
-14.815
-20.909
-30.633
-33.08
-29.086
-25.704
-26.774
-31.19
-32.66
-28.968
-28.392
-32.932
-31.711
-25.393
-28.203
-37.425
-37.543
-31.962
-32.936
-35.613
-33.98
-35.817
-41.148
-39.286
-33.615
-35.284
-40.2
-40.209
-38.398
-37.098
-33.796
-30.844
-30.413
-30.783
-34.115
-39.63
-38.651
-32.76
-33.041
-36.355
-34.282
-34.005
-39.106
-37.06
-28.425
-30.247
-40.259
-39.843
-30.699
-28.584
-31.99
-30.65
-27.785
-29.414
-31.384
-30.932
-31.943
-34.009
-32.263
-27.414
-24.871
-26.173
-27.661
-26.804
-26.196
-28.115
-28.437
-24.413
-22.738
-27.029
-28.428
-23.197
-21.398
-25.821
-26.631
-23.095
-23.834
-27.572
-27.953
-27.307
-28.04
-26.43
-23.725
-24.77
-25.992
-22.49
-18.591
-17.81
-17.21
-18.336
-24.772
-30.743
-30.868
-30.544
-32.866
-32.707
-29.926
-29.696
-31.924
-34.281
-36.275
-35.404
-32.948
-36.375
-41.989
-36.529
-25.914
-28.033
-36.457
-33.1
-24.147
-24.197
-29.519
-32.876
-34.898
-33.66
-29.029
-28.717
-34.344
-37.342
-33.737
-28.676
-27.454
-30.029
-32.528
-32.702
-32.948
-34.723
-34.974
-33.929
-36.832
-41.148
-37.536
-29.538
-30.256
-37.857
-40.932
-40.469
-40.472
-36.472
-31.958
-36.749
-43.985
-40.978
-33.051
-30.271
-31.31
-33.792
-36.969
-36.262
-33.014
-34.479
-37.526
-34.408
-29.353
-28.236
-26.133
-20.097
-16.165
-16.709
-17.684
-18.021
-18.295
-15.781
-10.83
-9
-9.872
-6.32
0.544
1.693
-2.409
-2.885
0.064
-0.45
-1.658
4.764
15.5
18.5
13.049
11.888
18.969
23.316
21.286
19.682
15.349
4.516
0.626
7.167
3.29
-13.804
-20.659
-16.586
-22.096
-33.075
-33.95
-33.118
-40.256
-44.566
-41.137
-38.864
-38.477
-37.041
-38.978
-41.669
-36.955
-30.479
-31.563
-36.612
-41.02
-44.387
-41.85
-34.779
-35.226
-43.102
-45.555
-42.231
-41.658
-42.86
-43.642
-47.36
-50.936
-49.085
-46.171
-44.142
-36.367
-24.788
-16.674
-5.251
17.501
43.32
67.069
98.019
137.702
176.376
213.308
255.76
305.026
352.172
376.118
358.151
306.212
237.242
145.974
30.281
-83.759
-180.686
-275.368
-375.278
-475.399
-581.987
-686.924
-748.881
-747.715
-716.854
-689.905
-661.326
-619.133
-568.727
-509.466
-432.245
-351.318
-295.198
-260.849
-219.747
-165.879
-118.519
-89.041
-74.212
-66.509
-57.119
-43.812
-35.117
-36.575
-42.236
-42.981
-34.661
-22.533
-19.046
-27.381
-34.758
-31.214
-19.682
-4.249
12.119
22.18
22.783
18.226
10.035
-0.57
-5.022
2.201
16.291
31.506
43.413
45.855
39.283
31.937
26.835
21.719
19.47
23.95
32.755
43.037
52.866
55.347
46.789
36.317
32.684
33.629
39.154
52.743
63.324
57.795
49.277
56.384
69.025
70.57
67.268
67.825
67.494
67.011
73.678
82.132
81.508
74.787
72.422
76.41
81.729
85.459
88.154
90.929
94.87
101.237
109.243
114.671
115.692
118.395
126.952
132.912
129.021
123.804
126.321
133.103
140.813
149.632
154.775
156.611
164.594
176.767
181.272
180.375
184.2
191.148
196.774
203.028
208.809
211.327
213.482
216.48
218.065
220.831
226.24
228.936
229.489
234.944
241.844
241.928
240.507
245.118
248.881
246.071
244.066
245.609
243.982
240.424
240.36
238.144
228.794
221.132
222.015
224.124
218.628
205.41
189.758
178.028
171.655
164.221
151.93
139.289
128.045
115.083
102.892
95.122
87.195
75.501
64.549
57.115
49.941
39.856
26.257
12.76
6.121
5.955
4.258
0.02
-1.871
-5.128
-14.484
-21.802
-20.837
-20.204
-24.875
-27.357
-26.84
-30.214
-33.609
-31.031
-31.172
-39.184
-42.588
-36.627
-34.094
-38.288
-39.675
-38.132
-38.838
-39.877
-40.961
-42.875
-39.437
-31.955
-32.727
-39.568
-38.127
-31.925
-34.316
-40.57
-40.302
-38.595
-41.447
-43.968
-44.883
-48.206
-49.368
-42.349
-34.236
-34.36
-39.369
-41.543
-40.453
-39.272
-38.774
-38.366
-38.439
-40.137
-42.569
-42.494
-40.083
-39.61
-40.711
-38.89
-36.276
-37.666
-38.936
-36.208
-36.806
-43.546
-44.758
-35.488
-28.139
-32.097
-41.46
-45.78
-41.64
-34.825
-32.194
-32.307
-31.344
-30.984
-31.212
-29.5
-30.182
-35.932
-37.737
-32.49
-31.491
-36.127
-33.643
-25.751
-26.983
-33.912
-32.094
-25.969
-28.118
-33.324
-31.025
-25.334
-24.187
-26.898
-30.13
-31.36
-28.636
-25.21
-25.821
-28.683
-31.033
-33.62
-33.832
-29.231
-25.994
-28.149
-29.691
-28.594
-29.568
-30.654
-29.164
-31.012
-35.082
-30.963
-22.635
-23.402
-29.269
-28.903
-25.822
-26.465
-27.793
-28.672
-31.593
-34.155
-35.08
-37.345
-38.408
-34.422
-31.341
-34.505
-38.332
-38.381
-37.575
-36.978
-36.039
-36.408
-36.177
-32.64
-30.657
-33.873
-36.263
-34.11
-32.866
-35.747
-39.154
-40.511
-40.738
-41.135
-41.575
-39.313
-32.893
-27.923
-30.102
-34.976
-35.282
-31.972
-28.748
-25.73
-24.6
-27.901
-30.569
-24.834
-13.398
-6.096
-6.207
-9.464
-11.525
-10.261
-6.542
-3.725
-2.304
-0.296
1.233
2.249
6.488
11.677
11.559
10.258
14.476
18.511
17.882
19.656
23.873
21.948
17.99
20.082
19.816
10.549
3.466
3.223
-0.474
-7.682
-10.057
-12.354
-21.128
-30.089
-34.98
-38.171
-37.66
-34.592
-36.132
-38.519
-33.492
-28.511
-31.694
-33.969
-29.703
-28.409
-32.874
-35.414
-36.665
-40.943
-43.08
-40.045
-38.415
-39.963
-39.701
-38.735
-41.302
-44.838
-44.337
-39.51
-35.245
-38.37
-47.362
-48.553
-35.787
-21.843
-14.055
-0.551
23.571
47.752
73.409
111.379
154.118
191.368
235.217
292.929
346.312
378.935
386.287
362.165
308.51
235.425
140.435
24.79
-89.312
-194.008
-303.233
-412.522
-513.166
-621.597
-728.911
-780.989
-762.812
-723.492
-692.423
-655.151
-606.79
-553.157
-485.193
-405.326
-339.982
-297.79
-257.333
-204.991
-150.241
-106.589
-78.664
-61.821
-48.659
-38.834
-35.108
-33.986
-33.789
-38.33
-41.348
-31.796
-18.813
-19.273
-26.606
-25.908
-21.167
-17.235
-5.869
9.535
14.105
10.955
10.546
6.181
-4.997
-7.624
3.655
18.107
31.959
43.752
44.129
33.516
24.044
18.162
12.153
11.56
22.182
39.175
52.525
53.875
44.819
39.191
43.375
46.149
41.728
40.273
46.932
55.865
63.621
67.502
63.505
57.904
60.567
66.66
67.556
68.159
73.373
77.195
77.695
79.823
82.183
82.251
84.3
87.973
88.343
90.07
98.078
104.057
103.537
106.052
114.57
120.404
121.533
121.85
121.076
122.378
131.107
140.246
141.802
144.3
153.307
157.282
154.202
158.489
169.521
172.241
168.922
173.554
185.533
196.015
202.825
205.447
204.001
204.233
209.257
214.272
216.177
216.985
218.236
220.625
223.321
223.081
222.135
226.825
232.156
228.473
223.532
229.336
236.481
232.615
226.943
229.383
231.263
224.62
215.234
209.055
204.016
195.787
184.081
173.699
166.926
158.609
146.456
135.747
126.668
114.515
103.975
100.157
93.004
76.412
64.261
63.169
58.848
46.887
39.072
33.578
20.568
8.838
8.573
9.142
2.295
-3.05
-4.277
-9.81
-16.857
-14.908
-7.623
-7.551
-15.929
-23.639
-24.951
-21.332
-17.602
-17.706
-21.184
-24.981
-27.964
-29.418
-27.721
-24.758
-24.439
-26.443
-28.974
-31.865
-32.377
-29.166
-28.217
-31.822
-32.799
-29.863
-30.374
-34.206
-35.338
-34.404
-33.386
-30.911
-30.117
-33.741
-35.535
-32.963
-33.049
-35.815
-34.629
-32.138
-32.823
-32.572
-31.265
-34.009
-37.198
-36.365
-35.894
-35.35
-29.903
-26.403
-30.873
-33.468
-29.676
-29.379
-32.123
-28.654
-25.018
-29.653
-33.498
-30.39
-29.003
-31.159
-30.318
-28.808
-29.886
-28.79
-26.071
-26.984
-27.839
-24.983
-25.143
-30.945
-34.123
-30.997
-27.688
-28.722
-31.548
-30.907
-26.069
-23.764
-28.359
-33.094
-31.287
-28.146
-30.332
-34.015
-33.174
-29.898
-28.272
-27.189
-25.688
-25.791
-26.694
-26.608
-27.566
-28.704
-25.557
-21.771
-24.554
-29.91
-30.657
-29.369
-29.287
-28.123
-26.817
-27.448
-26.824
-25.591
-29.696
-35.986
-36.062
-32.724
-32.858
-34.211
-34.012
-34.829
-35.678
-34.148
-33.645
-35.49
-35.559
-33.984
-33.262
-31.862
-31.558
-36.117
-39.58
-36.38
-34.421
-38.732
-41.652
-40.909
-41.704
-40.894
-35.334
-34.13
-40.719
-43.384
-38.088
-35.31
-38.219
-40.14
-40.778
-42.423
-41.569
-39.286
-41.756
-45.822
-44.47
-41.098
-40.963
-41.208
-39.604
-38.625
-38.795
-38.688
-37.683
-35.633
-34.813
-37.064
-38.446
-37.189
-39.024
-44.142
-45.081
-41.889
-39.268
-35.129
-29.345
-27.188
-26.194
-21.616
-19.054
-20.871
-18.677
-13.126
-14.519
-19.993
-18.868
-14.653
-15.553
-16.228
-10.033
-3.117
-1.596
-0.776
4.495
12.005
17.402
18.534
16.054
13.553
14.221
17.067
17.718
12.735
5.249
2.002
-0.308
-10.937
-21.816
-17.078
-7.487
-14.808
-29.83
-31.919
-29.291
-36.275
-42.568
-38.923
-35.972
-38.296
-37.811
-36.172
-38.547
-36.563
-27.157
-25.013
-34.498
-40.347
-37.824
-37.792
-40.671
-37.866
-32.253
-32.276
-37.092
-41.162
-41.466
-38.299
-37.009
-41.826
-47.761
-49.526
-49.07
-45.902
-36.249
-21.934
-4.013
20.161
45.873
70.85
108.558
162.15
211.383
251.494
300.35
352.724
383.618
391.902
384.43
345.076
266.083
167.542
62.051
-53.024
-169.729
-276.792
-378.927
-488.394
-609.342
-725.231
-798.92
-808.081
-773.208
-728.275
-685.039
-641.617
-595.013
-535.763
-459.204
-380.307
-313.73
-254.378
-198.044
-155.11
-126.529
-98.406
-70.402
-55.044
-49.705
-42.841
-37.73
-42.527
-51.608
-53.145
-42.479
-26.137
-19.113
-27.485
-35.621
-28.129
-12.893
-3.293
2.681
9.279
11.997
8.784
1.85
-8.408
-15.435
-7.589
12.736
30.797
39.533
39.034
29.089
16.509
11.173
12.158
15.948
26.404
41.459
49.875
49.185
46.263
41.633
32.85
26.782
31.255
42.044
50.778
56.318
59.75
59.648
57.741
58.459
61.401
62.429
60.941
61.102
66.009
72.081
73.085
70.663
71.798
74.984
73.917
74.079
84.647
97.031
96.719
89.729
90.972
98.558
103.352
107.022
113.174
118.178
119.319
118.813
119.798
124.678
132.59
138.97
142.091
144.156
145.407
146.013
149.456
156.283
163.094
170.444
180.223
188.563
192.354
195.183
200.083
204.736
205.914
204.292
205.094
211.414
217.815
218.816
218.178
219.951
221.65
223.237
227.226
229.603
227.029
225.022
225.921
223.864
218.745
216.919
218.207
218.281
217.212
215.066
209.451
201.223
192.441
182.096
171.249
163.435
156.644
146.003
132.335
118.705
106.284
97.459
91.277
81.252
69.353
64.709
61.495
47.524
32.7
31.692
32.677
21.564
10.102
7.993
4.378
-3.562
-5.294
-3.464
-7.06
-11.079
-11.796
-16.775
-24.765
-25.928
-21.818
-18.897
-15.593
-12.307
-14.142
-19.076
-22.645
-27.015
-31.042
-28.299
-23.311
-26.807
-33.592
-31.173
-24.052
-23.187
-24.87
-22.673
-21.396
-23.878
-24.75
-23.336
-24.476
-28.297
-31.108
-30.99
-28.806
-27.68
-28.125
-26.138
-23.229
-26.333
-31.19
-27.519
-21.709
-25.63
-31.508
-28.784
-26.04
-29.304
-28.317
-21.64
-20.677
-25.104
-27.029
-28.505
-30.557
-27.221
-22.116
-24.387
-30.326
-31.113
-26.849
-22.458
-23.106
-29.196
-30.555
-22.497
-18.263
-23.923
-26.325
-22.418
-23.385
-25.498
-18.417
-11.988
-17.298
-23.999
-23.197
-21.983
-22.527
-19.315
-16.05
-18.055
-20.114
-18.446
-16.844
-16.855
-17.821
-19.779
-19.456
-16.43
-17.563
-23.149
-24.956
-22.703
-21.745
-20.653
-18.646
-19.772
-21.63
-19.449
-17.257
-18.134
-17.86
-16.778
-18.201
-17.971
-14.758
-16.528
-23.22
-25.222
-23.867
-27.268
-30.701
-27.444
-25.525
-30.299
-31.046
-23.32
-18.877
-21.942
-23.54
-21.954
-22.64
-24.255
-23.852
-23.123
-22.043
-20.59
-21.788
-23.529
-21.458
-19.772
-22.366
-24.278
-24.123
-26.353
-28.629
-27.157
-26.227
-27.643
-27.269
-26.908
-29.334
-28.059
-21.17
-19.168
-24.972
-28.372
-26.714
-26.781
-27.991
-26.199
-25.468
-28.866
-31.051
-29.801
-28.693
-26.783
-22.678
-22.326
-27.57
-30.405
-28.268
-27.083
-27.605
-26.71
-25.838
-26.017
-25.588
-25.186
-24.981
-24.297
-26.909
-33.783
-37.075
-33.394
-29.232
-27.448
-24.724
-21.415
-20.453
-20.615
-18.131
-12.262
-7.754
-9.702
-14.51
-13.546
-7.558
-5.493
-8.338
-8.762
-5.655
-3.269
0.029
6.531
10.804
9.951
9.982
13.497
16.263
17.926
20.901
23.163
23.789
26.149
29.669
29.411
23.795
15.32
8.233
5.57
3.075
-5.013
-13.175
-14.688
-17.014
-26.189
-33.244
-34.338
-37.788
-41.907
-38.293
-33.726
-36.957
-40.425
-38.792
-38.19
-37.544
-33.058
-33.088
-39.068
-37.637
-30.83
-34.26
-42.292
-40.711
-37.988
-42.803
-44.124
-40.378
-43.471
-48.299
-44.216
-40.18
-43.25
-45.497
-46.712
-49.215
-40.595
-18.739
-1.926
8.129
28.186
58.027
89.491
129.583
178.955
224.449
268.048
318.492
361.751
381.263
381.373
362.414
309.869
222.833
118.997
9.441
-107.203
-227.973
-340.181
-442.177
-556.029
-688.945
-796.109
-829.484
-803.224
-761.627
-718.917
-672.525
-626.139
-572.045
-498.445
-416.223
-340.512
-269.421
-206.009
-163.017
-134.719
-103.124
-69.735
-49.071
-41.827
-38.38
-36.686
-40.507
-48.2
-52.118
-45.638
-30.584
-19.95
-24.817
-35.627
-33.033
-18.43
-8.782
-4.922
4.168
14.821
15.527
6.672
-4.176
-9.975
-4.223
11.241
26.163
35.722
40.213
37.029
27.827
19.985
15.023
13.241
21.836
39.954
53.089
54.23
49.667
43.665
37.505
35.02
36.77
41.245
50.684
62.13
65.441
60.776
59.526
64.578
69.505
73.037
76.553
76.943
74.995
77.555
83.999
86.059
82.996
81.399
83.34
87.249
91.865
93.147
89.953
90.142
97.783
106.217
112.012
116.922
117.994
116.287
121.47
132.538
137.388
136.023
137.522
141.08
143.199
148.461
158.036
164.639
164.924
163.423
165.27
171.997
180.728
187.704
193.969
200.454
202.004
198.234
198.759
205.897
210.529
211.531
215.933
221.195
221.197
220.695
224.684
228.66
230.676
234.378
237.395
235.303
232.447
233.656
235.439
234.728
232.848
228.736
221.938
216.85
213.751
207.77
200.089
193.578
183.333
168.766
159.228
154.563
144.201
129.876
120.832
113.746
103.318
93.945
85.095
72.039
61.376
57.222
48.589
34.018
28.468
31.709
26.885
13.786
7.494
9.068
6.659
-2.648
-11.453
-15.879
-19.167
-22.623
-21.716
-16.528
-15.639
-20.592
-22.18
-19.897
-22.31
-26.048
-22.787
-20.404
-27.413
-32.858
-27.748
-22.185
-23.22
-23.977
-22.465
-23.758
-25.669
-24.367
-23.97
-26.684
-28.856
-31.057
-34.338
-31.899
-22.211
-17.359
-23.258
-29.224
-27.019
-21.27
-17.914
-18.767
-24.008
-29.581
-30.021
-26.435
-23.156
-20.986
-20.057
-21.68
-24.876
-27.247
-27.843
-26.926
-26.028
-26.358
-25.83
-23.085
-22.002
-24.83
-26.755
-23.899
-19.374
-17.971
-20.963
-25.14
-24.672
-19.122
-16.449
-20.047
-21.866
-17.829
-16.002
-20.2
-22.566
-19.137
-15.322
-14.226
-14.536
-16.166
-18.136
-18.382
-18.134
-18.586
-17.812
-16.177
-16.612
-18.894
-20.528
-19.811
-16.372
-13.875
-17.195
-23.195
-24.326
-21.087
-19.169
-19.723
-22.308
-26.947
-28.873
-25.534
-24.453
-28.273
-26.87
-19.033
-17.924
-24.669
-25.999
-21.617
-23.081
-29.294
-30.746
-27.816
-25.099
-23.357
-25.431
-31.225
-31.484
-24.338
-21.498
-26.118
-28.844
-28.265
-29.205
-28.839
-25.676
-25.316
-26.813
-25.447
-25.845
-30.475
-30.803
-25.555
-24.411
-28.254
-30.433
-32.119
-36.046
-37.837
-35.962
-35.102
-35.964
-35.131
-32.333
-29.541
-28.477
-30.46
-33.312
-33.843
-34.905
-38.592
-38.438
-33.078
-32.334
-37.183
-38.24
-37.335
-40.099
-39.038
-33.505
-37.29
-46.508
-43.072
-33.476
-35.79
-42.99
-41.302
-36.26
-34.441
-33.205
-34.508
-39.229
-39.708
-35.873
-35.726
-37.315
-36.017
-37.115
-40.642
-37.723
-31.275
-31.193
-33.777
-33.318
-36.038
-42.28
-41.716
-35.831
-35.476
-38.269
-36.156
-33.227
-34.563
-35.974
-36.271
-38.96
-41.248
-39.041
-34.817
-31.197
-28.441
-27.678
-27.345
-24.439
-20.689
-17.458
-13.345
-12.719
-18.728
-21.17
-13.361
-6.119
-5.971
-5.281
-3.435
-5.882
-6.039
1.354
6.144
3.855
4.394
10.101
13.568
15.121
19.152
23.045
23.445
21.555
18.938
16.373
12.532
4.434
-3.247
-2.351
-0.3
-10.205
-23.562
-24.878
-21.602
-27.09
-35.484
-38.982
-42.048
-45.002
-42.825
-39.896
-40.858
-40.101
-36.388
-36.021
-37.718
-37.66
-39.542
-42.516
-40.766
-39.564
-44.745
-47.707
-44.482
-43.797
-45.032
-41.98
-41.579
-47.795
-50.826
-49.294
-49.768
-47.811
-41.002
-38.354
-37.517
-25.637
-5.462
11.971
28.753
51.548
81.677
121.825
171.809
223.229
272.471
321.828
363.174
383.905
383.315
361.156
307.045
219.205
112.248
-2.494
-122.13
-238.139
-341.774
-444.26
-566.375
-698.349
-793.511
-818.872
-791.222
-748.354
-708.695
-670.337
-625.057
-564.755
-489.13
-408.659
-335.362
-273.843
-220.723
-171.687
-128.829
-95.394
-69.202
-51.443
-47.072
-48.526
-42.94
-36.106
-41.052
-50.223
-45.572
-27.242
-13.795
-17.783
-29.076
-27.854
-13.244
-2.006
2.436
11.176
20.52
17.115
6.498
1.282
-1.788
-3.432
8.456
30.157
41.326
38.764
33.988
28.052
19.005
13.894
16.801
26.011
41.395
56.899
60.614
53.005
45.496
41.499
38.69
39.582
43.922
47.004
51.747
61.741
67.741
63.466
59.13
61.162
62.777
63.912
71.429
80.445
82.535
81.791
83.185
82.76
80.155
81.496
86.58
89.354
89.478
92.131
98.648
104.246
105.786
107.267
112.354
116.905
117.496
117.898
119.485
120.306
125.336
137.821
147.434
147.343
147.59
155.39
163.354
166.53
168.732
170.861
172.494
177.827
186.35
191.759
195.104
200.316
202.429
199.804
202.057
210.623
214.662
212.475
211.954
214.389
217.774
222.581
225.643
225.622
228.875
235.233
236.012
232.824
234.053
235.847
230.234
221.612
217.86
218.274
218.814
216.907
210.802
203.226
198.518
192.576
180.176
168.551
163.56
155.56
140.233
129.396
125.037
115.218
100.698
90.601
81.332
69.116
60.288
52.833
39.302
27.31
24.494
20.787
11.48
6.708
5.183
-2.713
-9.308
-5.779
-3.742
-10.365
-14.579
-13.852
-17.266
-22.943
-24.542
-25.034
-25.549
-23.548
-24.161
-30.764
-35.192
-32.403
-27.787
-25.589
-26.145
-29.315
-31.139
-28.629
-27.614
-31.549
-32.982
-30.144
-32.989
-41.292
-41.282
-31.66
-27.216
-32.845
-37.194
-33.508
-28.637
-29.56
-32.902
-32.523
-30.48
-31.644
-33.148
-31.611
-31.901
-35.36
-34.882
-31.372
-32.607
-34.606
-30.816
-29.49
-35.637
-37.038
-29.332
-25.593
-28.596
-27.299
-22.845
-24.303
-27.511
-26.377
-26.1
-28.302
-28.426
-28.897
-30.729
-27.367
-21.06
-20.383
-23.905
-28.598
-33.73
-29.701
-16.338
-15.395
-30.455
-35.482
-25.793
-22.259
-23.598
-17.428
-16.275
-28.535
-34.97
-28.081
-23.589
-23.665
-19.959
-19.88
-27.804
-28.891
-18.528
-12.123
-15.205
-18.49
-19.144
-20.094
-20.375
-20.526
-22.234
-22.331
-20.892
-23.607
-27.898
-25.914
-21.49
-23.193
-28.395
-30.82
-30.441
-28.289
-25.93
-27.17
-30.034
-28.767
-25.815
-26.13
-26.984
-26.832
-28.882
-30.22
-27.038
-25.205
-27.213
-26.43
-25.68
-32.926
-38.428
-31.059
-24.195
-30.813
-38.053
-34.517
-29.95
-30.942
-30.866
-28.027
-27.01
-28.708
-32.534
-36.306
-35.246
-31.546
-32.184
-35.09
-34.962
-34.46
-35.651
-36.782
-40.293
-44.39
-39.061
-27.8
-27.413
-37.13
-41.3
-39.28
-38.917
-37.182
-33.707
-36.309
-40.691
-37.196
-32.537
-34.047
-34.017
-30.747
-32.623
-35.926
-33.486
-33.21
-39.075
-39.979
-34.711
-34.777
-39.425
-39.927
-38.376
-37.953
-34.091
-27.78
-25.697
-27.556
-30.022
-31.95
-29.444
-22.228
-19.191
-22.475
-22.288
-17.078
-16.038
-19.132
-18.381
-14.096
-10.617
-7.218
-4.376
-4.152
-2.849
1.739
3.403
0.165
-0.217
4.302
6.876
7.976
15.141
25.738
28.931
23.451
18.331
19.188
22.647
21.845
15.956
11.416
8.867
1.606
-6.917
-7.381
-5.733
-11.209
-17.396
-20.44
-27.323
-33.618
-30.687
-28.849
-36.753
-42.339
-40.481
-42.286
-47.183
-45.356
-40.152
-37.942
-37.036
-38.717
-42.815
-40.682
-33.637
-33.879
-39.587
-40.428
-39.396
-41.984
-44.175
-45.534
-48.744
-48.147
-41.699
-38.611
-41.37
-42.791
-41.434
-38.358
-30.549
-19.974
-9.562
7.226
31.888
54.16
76.108
113.666
165.642
214.414
257.595
306.793
358.351
391.11
390.08
355.98
294.097
206.241
98.035
-15.056
-120.319
-219.775
-320.045
-424.013
-536.989
-654.02
-740.002
-760.433
-731.317
-697.87
-671.742
-633.686
-581.812
-526.381
-459.018
-378.057
-312.282
-274.659
-237.036
-183.115
-132.476
-97.239
-70.703
-55.045
-52.75
-49.942
-39.428
-31.975
-32.461
-33.769
-31.819
-27.073
-22.323
-23.016
-27.19
-25.32
-16.021
-4.635
7.009
14.65
14.028
12.453
15.119
13.287
4.912
2.198
11.485
29.65
50.776
61.704
53.175
36.705
26.737
20.495
15.222
20.194
36.708
51.677
57.464
56.431
49.765
40.3
35.884
38.235
43.144
51.609
62.733
67.274
64.283
63.826
66.687
66.699
66.895
69.753
69.493
68.252
73.558
79.282
77.467
76.105
82.153
89.315
93.874
97.282
96.813
95.097
101.711
113.8
119.692
120.284
122.464
124.338
124.935
128.939
133.965
134.464
135.5
142.935
150.997
154.836
158.641
163.474
167.094
174.074
185.283
189.158
182.617
181.408
194.552
210.197
215.825
212.904
208.658
207.623
210.908
217.112
224.431
231.069
234.626
235.224
236.192
239.415
244.267
248.924
249.84
246.278
244.293
247.698
250.689
248.302
245.348
246.306
246.671
242.473
237.082
232.301
225.436
217.276
209.64
199.947
188.83
180.3
170.763
156.129
143.12
135.246
124.719
110.339
99.013
88.397
74.376
64.533
61.587
54.616
40.57
28.674
21.355
15.306
12.02
9.541
1.718
-7.018
-8.08
-5.996
-8.3
-11.587
-13.149
-16.823
-20.551
-20.291
-21.741
-27.562
-29.029
-25.002
-24.421
-26.348
-25.201
-25.231
-27.521
-26.026
-24.841
-29.721
-32.514
-29.636
-30.197
-33.425
-30.547
-25.303
-25.142
-27.687
-29.796
-31.373
-31.193
-31.316
-34.434
-36.397
-35.42
-37.01
-39.707
-35.695
-28.164
-26.778
-30.724
-33.014
-31.867
-28.781
-26.331
-28.54
-34.069
-35.545
-31.968
-30.282
-31.995
-32.39
-31.615
-32.261
-31.918
-29.703
-29.38
-30.18
-28.982
-29
-31.111
-29.256
-25.671
-28.504
-32.136
-28.325
-26.243
-32.509
-35.363
-30.651
-28.824
-28.262
-21.622
-18.612
-25.226
-27.469
-21.329
-20.239
-24.643
-24.39
-22.002
-23.232
-25.753
-29.954
-35.846
-34.386
-23.346
-15.041
-16.022
-19.923
-22.033
-22.168
-19.611
-16.933
-17.91
-19.996
-20.669
-23.411
-27.995
-28.469
-24.732
-21.866
-21.339
-22.877
-25.326
-23.845
-18.614
-17.487
-20.184
-19.065
-17.893
-23.833
-29.049
-26.591
-25.444
-29.787
-30.434
-26.397
-25.454
-25.513
-21.598
-19.977
-26.058
-32.778
-32.168
-27.195
-26.981
-33.574
-37.403
-32.358
-27.933
-31.927
-34.778
-29.082
-24.904
-29.146
-33.802
-35.372
-39.127
-41.625
-36.758
-32.542
-36.235
-38.838
-34.519
-31.807
-33.918
-33.852
-30.504
-28.929
-31.447
-36.895
-38.926
-32.178
-25.59
-29.506
-35.37
-33.671
-31.832
-32.721
-27.75
-21.169
-23.469
-26.788
-21.92
-18.115
-20.18
-17.516
-9.169
-6.86
-11.726
-14.119
-10.165
-3.901
-1.059
-3.215
-3.808
2.062
6.916
5.302
6.566
14.662
17.306
11.86
11.726
17.989
19.341
17.639
19.732
17.684
5.285
-6.007
-6.514
-3.064
-5.206
-13.613
-24.361
-33.524
-38.38
-39.16
-38.827
-40.93
-46.294
-49.991
-47.229
-42.661
-42.978
-44.057
-40.581
-38.514
-41.593
-41.756
-36.924
-36.993
-43.878
-48.057
-46.15
-43.333
-42.975
-44.767
-46.779
-47.262
-47.516
-48.475
-47.349
-44.716
-46.451
-51.821
-51.231
-41.485
-30.313
-20.87
-6.511
14.392
35.872
59.798
93.966
135.037
174.146
214.215
262.881
316.884
363.576
386.556
372.95
326.708
260.757
175.052
67.684
-45.596
-152.214
-257.873
-364.167
-468.585
-581.607
-697.977
-775.81
-786.934
-753.077
-708.685
-668.504
-634.501
-596.377
-535.451
-453.073
-375.863
-320.819
-278.082
-232.386
-181.401
-132.615
-95.399
-73.693
-61.946
-53.469
-49.034
-49.747
-51.163
-51.438
-52.333
-50.088
-40.742
-31.464
-31.489
-37.293
-37.291
-26.308
-10.729
-0.697
1.967
3.395
4.406
-1.428
-13.639
-20.923
-14.604
2.529
20.917
32.064
33.4
27.926
19.217
10.868
8.466
12.393
15.992
21.207
37.189
54.65
52.946
36.384
26.444
26.01
27.146
33.343
45.793
54.476
56.298
56.967
57.399
56.262
55.358
55.781
57.88
60.663
61.12
63.435
75.01
86.547
83.372
75.114
79.11
87.202
84.696
79.692
83.695
90.188
91.979
93.818
99.447
106.287
111.816
114.108
113.765
116.161
121.677
123.532
123.34
129.893
140.369
146.265
150.587
156.804
158.796
157.849
163.879
174.051
178.576
181.523
189.367
195.003
193.853
194.399
200.69
206.471
209.573
213.52
218.392
221.492
221.6
220.397
222.81
229.865
233.755
230.442
227.487
229.73
232.287
232.119
230.124
225.38
220.371
220.158
220.416
214.118
206.322
201.274
189.691
170.481
159.858
160.542
154.665
137.828
123.79
115.201
104.253
92.838
84.785
74.38
60.321
51.88
50.842
45.767
31.361
17.908
14.2
14.128
9.218
2.576
-1.246
-7.789
-19.925
-27.557
-25.198
-23.189
-28.022
-31.876
-31.342
-33.173
-37.294
-37.325
-35.011
-34.962
-35.484
-36.161
-39.084
-41.005
-39.298
-37.149
-34.648
-31.228
-33.866
-43.047
-46.004
-40.768
-40.374
-44.856
-43.844
-43.18
-51.045
-54.712
-45.2
-36.475
-37.196
-38.694
-38.684
-42.306
-45.66
-43.651
-39.975
-38.397
-39.827
-45.425
-51.104
-49.965
-43.926
-39.73
-38.894
-41.822
-48.094
-49.55
-42.593
-39.596
-46.196
-47.882
-39.565
-36.875
-44.08
-47.662
-44.409
-41.481
-38.984
-36.858
-39.132
-42.204
-41.234
-40.981
-43.371
-42.979
-40.692
-40.51
-40.187
-39.706
-41.351
-40.121
-35.362
-37.006
-43.087
-39.988
-31.988
-33.34
-37.959
-35.216
-34.401
-40.808
-40.584
-31.076
-27.441
-31.95
-34.202
-34.082
-35.148
-33.707
-30.548
-31.326
-34.033
-34.654
-34.753
-33.89
-30.38
-28.475
-30.707
-32.842
-33.438
-34.879
-36.457
-37.743
-40.35
-41.913
-40.163
-38.777
-39.33
-39.759
-43.117
-49.34
-47.665
-37.419
-33.868
-38.485
-37.411
-32.711
-35.531
-39.682
-37.544
-37.155
-41.117
-41.57
-41.139
-46.401
-50.918
-48.326
-43.432
-40.455
-38.89
-38.91
-40.602
-44.383
-48.966
-46.928
-37.762
-36.371
-47.672
-54.685
-49.882
-46.007
-46.977
-44.856
-42.746
-46.607
-48.774
-44.522
-42.023
-43.727
-44.326
-45.787
-49.818
-48.435
-41.104
-40.163
-47.231
-49.739
-45.953
-46.404
-51.239
-51.444
-46.986
-44.013
-43.712
-44.815
-45.133
-41.088
-36.913
-41.113
-47.197
-42.326
-33.115
-32.999
-37.176
-36.681
-34.404
-32.255
-28.332
-26
-26.725
-27.544
-29.549
-30.272
-21.401
-8.877
-8.381
-16.492
-18.121
-14.285
-13.329
-12.56
-9.121
-6.75
-3.961
2.183
6.061
5.211
6.209
9.33
8.634
6.309
5.844
1.309
-9.977
-19.174
-19.779
-16.298
-17.431
-27.285
-39.252
-42.061
-37.959
-40.083
-48.171
-51.14
-50.853
-54.7
-56.621
-51.719
-48.693
-50.78
-51.138
-50.224
-50.644
-47.426
-44.308
-52.397
-62.718
-57.596
-45.959
-47.109
-55.75
-58.148
-57.443
-59.526
-61.375
-61.505
-60.758
-59.091
-60.001
-62.637
-57.239
-44.611
-36.662
-28.167
-3.344
31.157
59.82
89.831
132.244
179.592
228.599
285.701
339.076
369.444
379.83
375.183
342.041
275.487
186.795
79.773
-42.308
-163.539
-274.236
-378.64
-485.406
-606.371
-733.1
-817.208
-824.448
-785.342
-745.636
-710.738
-669.463
-618.672
-553.275
-475.338
-401.623
-338.432
-277.635
-221.465
-177.546
-141.02
-108.021
-84.63
-69.848
-56.435
-47.226
-47.054
-51.7
-58.356
-65.164
-60.837
-42.464
-30.72
-39.088
-50.099
-45.528
-31.747
-19.788
-10.848
-6.968
-9.223
-11.475
-12.967
-18.764
-23.104
-17.11
-4.497
10.177
26.2
33.105
24.036
12.236
5.614
-4.129
-9.485
7.526
34.297
44.002
38.854
33.675
28.55
25.134
29.301
32.628
29.196
32.011
45.377
54.304
53.096
50.067
48.395
46.963
46.408
46.218
48.62
56.159
61.462
59.321
59.557
66.983
71.189
70.247
73.588
78.648
77.251
75.86
81.214
84.896
82.831
85.397
95.782
103.972
106.317
108.097
110.269
111.582
115.141
122.456
130.678
137.036
139.314
137.922
138.491
144.455
152.334
159.038
164.739
169.3
173.479
178.085
180.474
179.918
181.505
187.877
194.939
198.831
200.955
205.843
214.437
219.89
216.638
211.267
213.318
220.349
224.119
224.601
226.097
226.957
224.552
222.696
223.882
224.103
222.365
221.312
217.503
208.424
201.31
198.129
189.447
174.761
164.065
156.982
146.513
135.331
127.4
118.873
108.219
98.123
88.024
78.665
73.607
68.798
57.37
44.381
37.645
32.715
24.795
19.139
16.831
11.857
6.439
5.819
3.891
-4.064
-8.853
-4.928
-1.581
-5.486
-11.01
-12.643
-11.295
-8.878
-7.357
-9.137
-13.674
-18.751
-23.151
-23.97
-19.03
-13.849
-15.434
-20.67
-21.034
-14.454
-6.485
-4.58
-10.411
-15.739
-13.496
-9.093
-9.02
-9.722
-8.892
-10.086
-11.187
-8.588
-7.962
-12.401
-14.466
-12.744
-14.505
-17.132
-12.66
-7.558
-11.52
-16.517
-11.91
-5.501
-6.989
