-41.164
-36.313
-25.967
-16.018
-11.361
-6.469
0.931
3.549
0.18
-0.595
3.693
8.046
12.27
17.604
19.218
15.726
13.838
15.932
17.961
20.365
25.519
29.663
29.773
28.815
28.644
29.133
31.264
31.803
25.697
16.512
9.622
1.217
-11.728
-23.863
-32.645
-41.794
-52.517
-63.329
-73.758
-82.922
-90.688
-98.277
-104.892
-110.151
-116.649
-124.118
-129.945
-136.167
-143.846
-147.628
-147.733
-152.501
-160.333
-160.634
-157.015
-162.812
-173.983
-175.872
-170.763
-170.306
-173.09
-172.97
-172.453
-173.68
-174.078
-173.862
-173.364
-170.191
-166.87
-168
-169.936
-167.709
-165.08
-166.024
-167.402
-166.673
-164.968
-162.212
-159.095
-158.32
-158.706
-157.611
-157.074
-157.215
-153.37
-146.411
-141.597
-139.025
-138.578
-141.912
-142.682
-135.001
-127.623
-128.429
-131.186
-132.626
-136.518
-137.703
-131.059
-125.518
-126.305
-126.148
-124.033
-124.049
-121.697
-116.404
-116.455
-118.409
-113.181
-109.097
-114.733
-118.875
-115.34
-114.792
-117.313
-112.634
-106.308
-108.332
-111.8
-109.428
-105.114
-99.208
-91.088
-88.773
-93.388
-94.997
-93.122
-94.386
-95.539
-92.957
-91.718
-91.776
-88.145
-84.339
-84.047
-82.453
-79.774
-82.549
-87.778
-87.572
-83.661
-81.443
-81.571
-83.474
-84.742
-81.355
-76.116
-74.822
-74.469
-70.818
-69.749
-76.071
-82.902
-83.274
-80.004
-77.78
-76.608
-75.817
-75.637
-75.011
-73.822
-73.977
-75.525
-76.817
-77.189
-75.965
-74.466
-76.687
-80.494
-79.127
-75.898
-78.387
-81.936
-81.509
-84.519
-92.04
-93.43
-90.796
-95.764
-102.808
-100.076
-94.036
-94.271
-95.463
-93.279
-92.325
-91.83
-87.541
-83.552
-84.536
-87.14
-88.179
-88.626
-87.892
-85.028
-82.727
-83.592
-86.614
-88.439
-85.657
-79.843
-78.176
-81.6
-81.065
-73.82
-68.932
-70.354
-71.509
-68.988
-66.369
-65.972
-66.806
-66.991
-64.854
-61.531
-60.067
-59.804
-57.742
-54.418
-51.484
-48.297
-45.672
-44.743
-42.819
-40.291
-42.633
-46.287
-40.849
-30.514
-27.675
-28.378
-23.537
-19.948
-22.97
-24.169
-23.435
-29.275
-35.952
-35.87
-38.057
-46.44
-50.437
-49.961
-53.947
-59.299
-61.833
-67.447
-75.073
-77.118
-77.48
-81.471
-82.973
-81.153
-83.916
-87.631
-83.793
-79.459
-83.145
-88.358
-90.79
-95.678
-100.494
-99.652
-99.883
-104.324
-102.252
-93.933
-94.48
-104.334
-109.599
-107.761
-105.07
-103.561
-106.347
-114.184
-116.521
-107.003
-93.497
-79.462
-59.929
-37.416
-14.974
15.793
58.722
104.786
149.95
197.705
243.736
278.646
297.763
295.185
262.702
200.985
117.387
15.982
-98.668
-218.404
-336.279
-446.428
-552.556
-673.916
-807.377
-901.878
-919.755
-888.395
-848.784
-806.954
-760.302
-710.093
-645.833
-564.981
-485.33
-415.063
-349.63
-295.669
-257.861
-223.206
-185.423
-155.135
-137.435
-128.162
-125.732
-127.422
-128.664
-130.899
-133.357
-126.771
-111.697
-104.022
-109.128
-112.741
-104.59
-90.271
-78.076
-69.097
-59.71
-49.671
-47.364
-58.71
-73.848
-79.344
-74.377
-62.215
-44.521
-31.614
-34.001
-44.108
-49.421
-52.2
-56.518
-55.286
-45.048
-33.077
-24.158
-19.071
-21.323
-29.653
-35.472
-36.081
-34.932
-30.085
-19.606
-10.221
-7.052
-6.665
-6.184
-6.042
-4.88
-2.159
0.224
3.006
7.555
11.392
13.511
16.15
17.477
14.528
12.674
18.454
27.351
31.638
33.378
38.336
44.763
47.64
48.271
52.829
63.064
72.637
76.054
77.689
83.729
91.389
97.089
103.434
108.435
106.487
103.592
107.823
111.563
108.258
107.751
114.158
117.925
119.836
127.763
135.047
135.664
139.564
149.161
153.225
151.9
152.611
151.821
149.156
153.235
159.585
157.262
153.145
156.594
161.163
164.111
171.291
176.096
169.928
163.201
165.233
167.669
165.903
165.08
162.361
153.745
146.543
143.381
135.732
123.078
113.484
106.477
96.493
83.902
70.213
56.257
47.105
44.624
42.355
36.555
28.344
15.613
-0.659
-12.651
-19.843
-28.003
-33.919
-34.135
-35.94
-40.219
-37.969
-33.169
-37.52
-45.995
-48.714
-50.827
-56.657
-59.205
-57.466
-56.877
-55.162
-51.078
-51.241
-53.926
-50.956
-47.577
-51.725
-54.651
-49.699
-48.333
-55.812
-59.656
-55.003
-51.781
-53.6
-54.312
-51.42
-47.205
-43.687
-42.34
-42.989
-44.109
-44.674
-42.448
-36.785
-33.074
-33.224
-30.536
-25.806
-28.333
-33.739
-29.941
-23.182
-25.72
-30.272
-25.758
-18.222
-15.839
-16.113
-16.698
-18.001
-17.463
-15.65
-16.762
-18.521
-17.179
-16.252
-17.177
-16.551
-16.365
-18.275
-17.052
-14.204
-17.195
-21.299
-18.924
-17.445
-22.446
-23.667
-15.724
-7.672
-4.651
-3.221
-1.293
3.502
13.142
19.912
15.32
6.562
5.105
8.095
8.962
11.568
18.387
21.43
15.836
7.606
3.657
5.297
9.531
11.015
7.835
4.328
3.334
3.466
6.379
14.581
23.074
25.197
22.258
19.471
19.925
24.382
28.827
27.635
24.138
25.341
27.88
26.228
24.642
25.567
24.731
24.9
30.111
31.924
26.444
25.1
29.108
25.571
18.057
21.861
31.74
32.129
25.778
22.993
22.838
22.71
25.1
28.121
26.938
23.432
22.715
24.64
25.388
24.265
25.157
29.414
30.915
26.17
23.057
26.77
28.591
23.772
22.779
30.029
34.405
31.256
28.233
27.787
28.584
33.954
39.843
36.125
27.788
26.136
26.408
23.129
24.716
30.934
29.508
23.403
24.73
29.975
32.424
35.751
37.643
33.111
32.72
42.126
45.526
38.934
40.103
48.949
48.369
43.021
47.201
53.476
52.311
50.938
52.991
54.537
59.198
68.607
74.434
74.62
75.221
77.435
81.168
87.729
92.144
91.529
92.785
96.456
94.714
90.921
92.604
92.745
84.675
76.558
73.925
71.591
67.016
61.376
54.722
49.943
47.764
41.684
31.906
27.878
28.324
23.346
16.295
16.855
21.269
21.945
21.405
22.261
20.466
14.684
9.251
8.428
12.615
15.375
8.912
-1.48
-2.058
6.516
10.989
8.596
5.797
2.901
-0.284
0.428
1.906
-1.172
-0.684
12.11
30.319
46.58
64.233
84.603
107.151
139.122
182.707
227.05
268.038
312.445
357.918
394.699
418.143
418.874
383.522
316.69
234.105
137.84
24.244
-99.063
-220.029
-332.614
-444.134
-570.375
-698.169
-776.856
-784.356
-757.137
-725.478
-682.681
-628.817
-574.157
-508.921
-426.777
-346.97
-279.812
-215.848
-157.437
-114.006
-77.981
-42.124
-16.162
-4.945
1.452
8.311
11.342
8.746
2.975
-0.228
8.451
26.801
35.042
26.418
22.294
34.945
48.642
54.053
60.7
69.436
71.647
68.32
62.513
53.325
48.99
59.582
79.148
96.04
106.302
106.872
97.642
89.675
89.808
89.212
85.223
91.149
108.837
120.462
117.685
110.09
104.972
104.167
110.349
119.461
123.869
126.513
132.513
136.282
134.001
132.053
133.778
135.625
136.053
135.845
137.281
144.718
155.308
159.063
155.75
153.875
154.366
155.243
160.395
168.16
170.404
168.988
172.43
179.561
183.32
183.209
184.458
190.17
196.493
197.225
195.171
199.257
208.556
214.921
219.219
226.299
232.303
234.571
238.883
244.543
244.296
243.154
250.97
261.839
266.197
268.097
271.745
272.921
272.082
273.407
274.367
273.697
276.483
282.141
284.99
286.682
290.943
294.1
294.266
296.327
300.22
300.859
299.92
300.933
300.086
295.603
293.282
295.27
297.161
295.908
291.194
284.462
278.203
271.338
262.257
255.43
252.298
244.751
230.498
217.854
207.826
194.494
181.755
174.555
165.277
150.996
142.205
139.459
131.094
119.388
115.786
114.657
104.168
90.815
85.069
81.253
73.707
69.337
68.814
62.288
51.35
47.628
50.259
49.665
45.984
44.425
43.33
39.404
34.769
32.352
30.608
26.648
22.848
24.283
27.702
24.786
18.584
17.818
17.317
9.384
3.945
9.529
14.374
10.641
8.495
11.197
9.962
6.163
6.83
7.724
4.236
1.043
-0.166
-2.304
-3.49
-2.251
-1.893
-2.494
-2.945
-7.394
-15.71
-19.66
-17.248
-14.919
-15.431
-18.111
-23.129
-26.903
-25.532
-22.343
-20.669
-18.798
-18.114
-21.005
-22.999
-21.542
-21.2
-22.477
-22.978
-25.964
-30.595
-29.866
-27.649
-32.288
-36.877
-34.02
-32.537
-36.948
-38.798
-38.337
-41.925
-43.876
-40.686
-42.401
-49.702
-50.373
-44.938
-43.075
-43.143
-42.663
-47.151
-51.927
-46.162
-37.686
-40.241
-48.13
-52.05
-54.998
-55.871
-50.371
-48.111
-55.612
-60.25
-56.26
-55.037
-58.208
-56.926
-53.856
-54.951
-55.753
-54.13
-55.308
-59.925
-64.442
-67.448
-67.79
-65.557
-62.907
-59.617
-56.597
-59.502
-67.509
-70.011
-64.213
-60.827
-66.02
-73.475
-77.194
-78.006
-77.338
-74.826
-70.524
-66.426
-67.927
-77.005
-83.259
-77.654
-70.968
-76.123
-83.853
-81.22
-75.646
-77.24
-80.462
-79.664
-78.248
-76.528
-73.429
-75.131
-83.235
-87.307
-81.822
-74.807
-73.978
-77.892
-80.434
-76.959
-70.189
-67.947
-70.526
-71.482
-71.52
-74.188
-74.589
-70.554
-70.082
-74.694
-76.175
-73.931
-73.981
-75.694
-76.21
-76.523
-75.62
-72.538
-71.734
-74.659
-76.521
-76.09
-74.281
-68.879
-63.713
-66.244
-70.546
-67.264
-63.575
-66.707
-67.868
-63.832
-64.369
-68.493
-67.192
-64.609
-65.495
-61.128
-50.737
-46.97
-48.89
-44.275
-36.306
-34.815
-35.911
-34.986
-36.646
-40.169
-39.848
-37.082
-33.513
-26.131
-17.49
-12.698
-8.892
-2.793
1.568
1.158
-1.927
-6.069
-11.313
-17.51
-23.678
-26.964
-26.582
-27.735
-33.289
-38.468
-42.045
-48.699
-56.41
-60.963
-67.764
-77.983
-79.376
-69.633
-63.795
-67.039
-68.99
-66.263
-63.395
-60.056
-57.676
-62.431
-71.604
-76.729
-78.048
-77.72
-73.338
-69.929
-74.265
-77.501
-72.449
-71.943
-81.682
-86.447
-83.744
-87.368
-91.033
-78.405
-58.74
-45.555
-28.648
-2.687
20.842
46.912
89.867
139.612
183.272
230.618
283.486
324.299
346.146
348.813
320.772
259.918
179.167
80.837
-36.251
-158.597
-274.646
-383.361
-488.068
-604.915
-738.885
-843.502
-869.217
-836.737
-796.097
-757.028
-710.78
-658.733
-593.852
-511.076
-428.207
-357.197
-289.458
-226.683
-180.694
-145.848
-111.833
-85.847
-74.991
-70.772
-64.599
-58.304
-57.308
-63.649
-69.987
-63.24
-45.144
-35.944
-44.891
-55.885
-53.03
-40.353
-28.943
-21.708
-15.389
-7.999
-3.322
-8.113
-20.08
-25.373
-16.509
-1.891
9.376
16.362
17.888
13.747
9.394
5.304
-2.073
-3.882
9.895
29.114
40.938
48.04
50.005
40.365
28.688
28.314
33.096
36.85
46.73
59.576
63.007
59.794
56.957
50.606
43.555
45.103
48.843
45.537
43.985
50.938
57.406
59.711
62.313
62.083
58.847
63.109
73.405
75.307
69.684
69.517
75.101
79.819
84.831
91.218
95.377
96.815
97.715
100.175
107.214
116.563
120.881
122.445
130.44
141.064
144.284
145.449
153.681
161.745
162.099
163.112
170.646
177.207
178.764
179.324
179.717
179.415
180.899
184.252
188.581
195.146
200.679
200.825
200.957
206.208
210.717
211.615
213.766
214.555
209.333
205.861
209.585
212.121
209.306
206.484
204.056
201.203
202.678
205.988
202.009
193.001
187.729
185.546
183.022
180.607
174.616
162.831
153.625
149.838
140.563
123.239
108.452
98.064
85.933
74.266
66.869
59.748
50.184
40.172
31.686
28.897
33.822
37.276
30.507
19.505
12.063
5.105
-2.973
-6.431
-5.379
-6.251
-9.912
-13.645
-16.429
-15.003
-8.84
-6.617
-11.99
-15.922
-15.711
-19.224
-24.478
-22.66
-18.108
-18.785
-20.683
-21.433
-26.236
-30.891
-26.981
-21.081
-21.886
-22.585
-16.873
-11.742
-12.941
-17.161
-19.672
-18.291
-15.537
-16.613
-20.004
-21.353
-24.276
-30.366
-31.367
-26.243
-25.159
-29.639
-31.762
-30.48
-29.613
-28.322
-25.735
-24.989
-26.868
-27.054
-22.426
-16.61
-16.22
-20.935
-23.213
-21.307
-22.461
-28.419
-32.249
-33.12
-36.139
-38.123
-33.817
-29.713
-31.977
-33.984
-31.815
-31.955
-33.466
-27.96
-19.679
-18.408
-20.556
-21.709
-27.526
-35.054
-33.654
-29.088
-32.192
-35.446
-32.131
-31.489
-34.607
-31.979
-28.007
-30.644
-32.504
-30.503
-33.523
-38.312
-34.744
-29.242
-30.137
-30.399
-26.271
-25.453
-29.211
-30.998
-28.515
-22.841
-17.271
-18.097
-23.93
-25.295
-21.863
-20.428
-19
-15.794
-19.185
-29.188
-33.306
-30.649
-30.842
-32.357
-30.661
-31.551
-35.081
-32.753
-29.033
-33.577
-38.583
-35.056
-32.005
-36.074
-39.503
-38.92
-38.052
-35.617
-32.159
-33.337
-36.805
-37.078
-38.245
-42.126
-42.155
-39.662
-40.776
-41.396
-38.832
-38.298
-36.88
-31.919
-34.787
-44.036
-39.358
-24.389
-23.3
-32.301
-31.768
-26.523
-26.637
-25.643
-23.541
-27.569
-30.912
-28.312
-28.813
-31.556
-26.578
-20.693
-23.945
-27.899
-25.671
-24.161
-24.617
-22.652
-22.345
-25.69
-25.927
-23.357
-24.147
-25.063
-21.452
-18.686
-21.019
-24.344
-24.625
-21.466
-17.054
-16.133
-19.435
-20.35
-14.637
-6.247
-1.469
-3.478
-8.673
-7.34
2.464
7.948
1.968
-4.151
-2.553
-1.174
-2.605
0.785
5.907
4.486
4.007
13.028
21.992
23.29
25.942
34.903
42.814
46.202
45.507
36.475
20.634
9.955
9.044
9.07
3.407
-6.431
-17.631
-25.96
-27.28
-26.643
-32.198
-39.468
-39.294
-35.079
-34.425
-35.273
-33.288
-29.517
-25.938
-23.683
-22.884
-22.28
-24.327
-31.233
-34.958
-30.183
-27.771
-33.983
-38.414
-37.55
-39.4
-42.791
-43.22
-46.001
-50.876
-48.781
-43.09
-43.79
-45.839
-41.063
-34.352
-28.472
-16.502
2.018
21.395
43.134
69.649
97.266
127.788
168.695
218.033
268.551
318.591
359.065
369.762
345.768
299.148
229.707
132.531
25.048
-75.704
-179.212
-291.46
-399.87
-507.421
-626.273
-732.029
-782.589
-776.025
-743.888
-706.612
-667.336
-625.867
-576.989
-511.577
-432.973
-362.011
-311.863
-267.635
-212.27
-157.367
-119.779
-92.736
-69.329
-58.617
-57.062
-48.149
-37.593
-42.309
-53.138
-51.249
-40.827
-34.272
-32.558
-35.244
-40.526
-36.965
-21.254
-8.163
-4.108
1.939
10.769
9.097
-3.262
-12.957
-14.693
-9.163
6.275
26.867
38.711
36.8
27.33
15.461
6.425
6.685
15.021
27.073
43.429
58.354
59.246
48.163
39.373
35.954
33.316
33.947
40.158
48.06
54.315
56.082
51.795
46.913
46.14
46.776
49.842
60.055
71.652
76.104
77.747
82.942
88.188
90.592
92.177
91.799
89.251
90.026
94.49
96.627
98.015
104.427
111.694
114.594
118.532
125.643
128.201
126.015
127.195
131.477
134.871
140.371
148.308
153.045
154.73
156.953
158.323
159.959
167.827
179.339
184.427
182.826
183.206
187.503
191.669
195.163
198.668
202.298
208.488
215.739
217.223
214.247
215.609
220.893
223.212
223.799
226.255
226.717
222.823
220.057
222.432
227.383
230.37
228.888
226.015
228.745
236.086
236.88
226.307
212.762
204.301
199.497
192.277
180.252
168.945
163.648
158.307
146.076
134.069
128.631
120.943
106.221
94.405
88.025
77.63
64.172
56.301
51.038
43.757
40.728
41.699
35.22
21.79
13.264
10.13
4.914
-2.086
-7.861
-12.859
-16.029
-16.642
-16.582
-14.268
-8.089
-4.543
-8.84
-16.06
-22.414
-29.83
-34.684
-31.67
-27.181
-30.278
-37.821
-41.783
-40.731
-36.985
-31.393
-24.494
-19.777
-21.766
-27.585
-28.079
-23.299
-23.161
-27.912
-27.98
-24.863
-28.197
-34.375
-32.658
-25.721
-22.147
-20.738
-19.794
-23.961
-30.166
-28.782
-22.736
-22.117
-25.191
-26.6
-29.952
-35.031
-33.353
-26.156
-24.166
-29.001
-33.979
-35.788
-34.195
-31.161
-30.45
-30.206
-26.412
-23.415
-24.996
-25.488
-22.776
-21.364
-20.331
-19.531
-25.032
-32.211
-29.582
-23.393
-25.514
-29.599
-29.496
-31.615
-31.428
-20.72
-15.377
-26.866
-32.677
-20.808
-15.253
-24.316
-26.252
-19.305
-20.269
-23.124
-16.471
-12.757
-20.821
-28.876
-30.162
-27.952
-22.988
-19.67
-22.096
-22.316
-17.242
-16.588
-19.683
-18.632
-19.956
-28.157
-31.443
-27.242
-26.858
-30.054
-30.276
-31.514
-34.883
-33.401
-28.773
-26.843
-24.362
-20.11
-20.13
-23.799
-25.598
-25.585
-23.485
-18.216
-17.139
-25.171
-32.212
-30.29
-26.654
-27.251
-28.718
-31.566
-38.887
-44.533
-42.337
-38.105
-37.579
-37.223
-35.903
-37.424
-39.714
-39.32
-39.217
-39.265
-35.431
-32.441
-35.51
-37.389
-34.28
-35.134
-41.23
-42.697
-38.66
-35.472
-33.322
-32.333
-35.064
-37.37
-36.198
-37.573
-40.584
-35.365
-26.101
-26.466
-33.013
-32.896
-26.856
-21.609
-17.902
-16.89
-18.699
-17.762
-13.227
-9.642
-5.597
-0.881
-2.598
-8.822
-9.776
-8.223
-9.883
-7.289
1.162
4.734
5.86
14.312
21.213
17.09
12.72
13.286
7.389
-5.077
-12.711
-16.348
-21.616
-24.931
-25.089
-26.624
-28.767
-29.689
-31.541
-32.657
-31.909
-35.95
-44.809
-47.328
-42.542
-41.865
-47.446
-51.662
-51.985
-48.984
-41.874
-35.68
-37.92
-45.53
-49.038
-46.087
-39.966
-33.837
-32.74
-39.184
-46.72
-49.434
-50.015
-50.25
-47.947
-46.591
-50.758
-53.999
-47.676
-35.229
-23.966
-12.02
5.16
24.922
43.743
65.744
96.841
136.024
179.102
226.763
281.01
333.236
363.496
358.673
325.301
272.641
194.432
88.206
-25.547
-130.535
-235.72
-347.058
-454.554
-559.079
-666.114
-751.488
-780.548
-756.859
-715.669
-679.609
-646.111
-605.931
-553.156
-484.822
-408.11
-341.609
-292.969
-246.481
-191.152
-141.45
-109.949
-86.961
-65.513
-53.168
-48.558
-42.311
-39.561
-46.643
-50.336
-39.735
-24.802
-16.153
-14.753
-22.02
-31.785
-27.163
-7.197
9.161
14.654
17.632
18.246
10.843
-1.111
-9.727
-7.464
10.901
35.628
48.389
48.575
46.841
40.868
27.739
18.69
19.322
24.511
35.677
51.328
57.506
51.801
47.245
46.074
43.295
43.795
49.687
55.635
64.19
75.774
77.285
66.761
60.192
61.495
62.519
66.548
75.707
78.353
74.902
79.858
89.131
88.805
86.694
92.657
94.515
87.502
88.031
98.559
103.975
104.894
111.232
117.916
120.623
127.247
135.701
135.643
133.425
140.724
150.608
152.046
149.383
151.356
158.182
164.649
166.554
166.051
169.443
176.575
182.534
188.186
195.096
199.536
202.289
207.299
209.488
205.789
206.975
216.623
221.181
217.529
218.98
226.366
228.506
227.702
231.418
234.492
234.966
240.744
247.42
242.973
233.663
232.542
235.848
235.592
233.466
229.703
221.856
214.485
211.442
208.162
201.217
192.214
181.692
170.449
160.98
152.475
143.228
135.056
126.788
113.598
98.129
87.931
82.539
77.025
70.53
62.122
51.681
45.285
43.806
36.702
22.741
16.517
21.212
20.855
8.714
-3.069
-6.17
-5.459
-6.564
-10.489
-16.105
-19.867
-19.914
-19.877
-21.483
-21.149
-18.387
-16.713
-17.576
-21.39
-25.676
-23.25
-16.22
-17.053
-23.143
-19.97
-13.78
-20.735
-31.9
-30.985
-25.256
-25.471
-26.486
-25.408
-26.182
-27.237
-28.407
-32.426
-32.889
-26.716
-25.255
-30.744
-31.414
-28.648
-31.797
-34.327
-29.378
-26.894
-32.088
-35.992
-35.69
-35.204
-32.911
-30.17
-33.781
-39.136
-36.312
-30.415
-30.823
-34.06
-35.001
-35.007
-33.059
-28.646
-27.151
-28.612
-26.91
-23.848
-23.715
-22.173
-18.901
-20.405
-21.457
-14.597
-10.787
-17.668
-23.456
-24.624
-27.849
-24.942
-13.145
-12.558
-25.189
-27.55
-20.266
-22.09
-25.631
-19.487
-18.706
-28.757
-30.748
-22.585
-20.042
-22.802
-24.226
-27.996
-30.386
-24.097
-19.861
-26.672
-32.083
-28.702
-26.037
-26.868
-26.892
-29.217
-34.084
-34.755
-32.42
-31.813
-30.475
-29.43
-33.282
-35.552
-30.773
-28.727
-31.49
-25.531
-14.697
-19.204
-34.627
-38.88
-33.496
-33.456
-35.395
-31.987
-30.782
-35.299
-36.02
-30.48
-27.46
-30.56
-35.173
-37.974
-40.392
-44.628
-46.936
-40.412
-30.439
-31.36
-40.125
-40.27
-34.349
-36.733
-42.277
-39.884
-37.307
-41.488
-43.217
-38.687
-35.129
-34.063
-34.025
-36.703
-38.222
-35
-34.217
-38.871
-40.899
-39.722
-40.714
-39.083
-32.582
-31.153
-34.767
-32.466
-28.039
-31.464
-36.252
-35.152
-34.014
-33.749
-29.39
-26.76
-31.045
-33.779
-30.764
-28.419
-26.395
-21.267
-19.185
-21.79
-20.107
-14.869
-13.843
-11.223
-1.389
4.442
1.295
-0.069
1.7
0.136
-0.006
3.305
2.467
1.724
8.515
13.003
11.561
17.606
28.446
29.185
27.136
33.497
36.931
31.559
29.2
29.039
20.638
9.881
5.443
2.002
-3.383
-6.402
-9.385
-15.424
-19.284
-19.201
-20.368
-23.184
-25.532
-29.234
-32.38
-30.857
-29.437
-32.515
-33.303
-28.935
-27.614
-30.924
-31.758
-30.594
-32.152
-33.198
-30.589
-29.008
-30.682
-31.903
-32.198
-33.068
-32.384
-30.439
-30.776
-31.714
-31.376
-33.802
-35.825
-26.717
-9.703
3.769
18.416
43.063
71.535
101.132
139.736
183.461
224.472
270.236
319.775
353.618
367.851
370.045
345.701
280.953
191.617
92.93
-17.111
-133.35
-244.825
-350.542
-454.872
-567.452
-690.594
-788.771
-817.898
-789.39
-749.073
-712.73
-672.133
-624.86
-565.43
-490.037
-414.197
-348.205
-280.049
-210.985
-163.017
-134.698
-102.526
-67.757
-50.398
-48.593
-46.833
-45.31
-51.207
-59.666
-59.99
-49
-34.039
-26.86
-30.89
-35.632
-30.123
-17.304
-7.427
-3.304
-0.269
4.32
7.465
3.758
-6.809
-13.299
-5.39
10.924
23.688
32.34
37.771
33.56
22.659
17.158
15.756
11.78
14.114
29.095
43.374
46.63
43.123
36.054
27.89
24.972
26.511
29.651
40.382
56.822
64.393
61.808
60.114
58.599
53.658
52.501
55.674
55.2
54.599
58.94
59.844
56.677
62.448
74.071
75.354
69.759
71.46
77.4
78.94
78.014
76.419
75.474
81.89
92.897
97.347
98.319
103.539
105.864
103.012
108.087
121.787
129.5
128.8
127.794
127.986
130.615
139.306
147.866
148.344
147.112
153.187
162.866
169.089
171.962
174.278
176.671
178.321
179.62
183.589
190.797
195.285
192.369
186.462
185.317
190.544
197.325
201.234
202.214
201.47
199.576
199.515
203.289
205.278
200.076
192.98
191.037
191.833
189.986
184.932
178.736
173.633
169.976
164.345
154.497
143.949
136.674
130.155
118.34
102.554
92.149
87.752
78.751
66.31
63.167
64.583
53.901
35.509
26.178
24.721
20.895
15.37
10.138
1.784
-6.492
-8.309
-8.553
-15.155
-23.928
-26.563
-23.958
-22.069
-23.461
-26.916
-30.185
-33.088
-36.441
-36.992
-33.174
-33.614
-43.293
-50.214
-45.181
-38.033
-37.957
-40.575
-43.104
-47.287
-48.304
-43.123
-40.227
-44.781
-49.28
-48.305
-46.238
-47.399
-51.661
-56.427
-56.247
-49.9
-46.067
-49.393
-52.601
-52.754
-54.293
-53.642
-47.172
-44.707
-50.462
-52.801
-48.658
-47.409
-48.379
-45.866
-44.514
-46.121
-43.366
-37.428
-36.975
-41.542
-45.239
-46.428
-44.832
-41.786
-41.432
-42.846
-40.971
-37.455
-37.354
-39.645
-41.86
-43.933
-42.637
-36.418
-32.772
-35.369
-35.534
-30.251
-28.998
-33.605
-35.312
-33.309
-33.216
-34.129
-33.858
-33.829
-32.253
-27.544
-24.328
-24.08
-22.123
-19.075
-19.858
-23.759
-27.538
-29.862
-28.879
-26.463
-28.807
-33.836
-32.655
-27.494
-28.538
-34.078
-34.124
-28.824
-25.956
-27.057
-28.347
-27.903
-25.843
-23.859
-23.992
-24.368
-22.556
-22.145
-26.349
-31.075
-32.964
-33.747
-32.781
-29.217
-28.757
-33.79
-36.955
-35.569
-35.451
-35.992
-32.663
-30.26
-33.021
-34.698
-33.38
-35.422
-38.696
-36.035
-31.315
-30.82
-31.359
-30.119
-29.268
-28.373
-26.902
-26.621
-25.408
-22.379
-23.48
-28.661
-30.169
-29.299
-31.484
-31.874
-28.778
-30.11
-32.558
-27.009
-22.563
-27.914
-29.987
-23.922
-26.217
-37.273
-38.661
-31.979
-32.583
-36.436
-32.763
-27.194
-26.612
-27.198
-27.659
-30.102
-30.549
-27.001
-25.712
-28.678
-30.106
-28.906
-29.177
-29.769
-26.586
-21.408
-19.515
-22.029
-24.435
-21.953
-16.699
-15.167
-16.606
-14.557
-10.293
-9.275
-9.094
-6.887
-6.489
-7.318
-4.503
-1.008
-0.283
2.117
5.988
5.863
5.619
10.859
16.114
17.462
20.115
25.301
29.189
32.248
34.547
33.16
31.54
35.102
38.842
35.933
29.289
22.392
14.391
9.235
10.821
12.548
8.806
4.348
0.637
-6.991
-14.623
-15.95
-17.126
-22.894
-24.864
-20.59
-18.813
-19.026
-14.959
-11.557
-12.813
-12.722
-12.773
-19.427
-25.612
-23.941
-21.254
-21.11
-19.947
-22.144
-28.742
-28.579
-22.802
-26.283
-37.077
-41.496
-41.144
-42.984
-42.218
-34.377
-22.599
-9.096
5.452
21.663
43.522
71.569
104.572
147.461
197.773
241.19
279.418
327.112
372.455
388.522
376.454
348.094
290.834
194.398
78.987
-35.331
-150.556
-264.924
-367.148
-467.809
-590.467
-719.805
-804.724
-821.985
-795.153
-753.208
-708.823
-665.362
-616.338
-552.073
-475.528
-396.535
-319.918
-251.337
-197.265
-155.017
-118.063
-85.629
-59.832
-43.215
-36.358
-32.852
-28.835
-31.462
-40.792
-41.184
-26.893
-12.675
-10.658
-18.309
-26.556
-25.461
-12.355
2.426
10.717
17.81
26.356
27.537
18.614
10.198
11.223
20.786
32.773
41.017
44.669
46.991
46.021
37.765
27.505
22.804
24.081
33.131
51.012
64.791
63.044
55.457
52.508
48.555
41.867
41.173
47.377
55.846
66.97
75.871
73.022
63.681
61.194
63.483
61.45
59.113
62.952
67.895
69.901
73.653
80.162
84.687
86.427
87.472
89.151
93.976
101.109
104.325
103.318
105.353
111.389
115.733
117.551
118.916
119.34
120.645
125.085
128.09
126.779
128.315
136.906
145.09
147.383
148.444
152.947
159.605
165.744
169.996
173.094
178.086
184.811
187.381
183.923
182.333
189.243
200.443
207.367
207.565
207.116
213.078
220.986
219.128
211.961
217.626
233.405
236.966
227.587
225.444
232.798
236.887
237.351
237.875
233.873
226.825
224.14
223.29
219.3
215.48
212.257
204.91
195.99
191.113
187.804
180.585
168.063
152.566
139.486
131.457
123.494
112.994
105.825
103.901
100.457
92.64
85.166
80.903
77.162
69.282
55.693
41.751
33.631
28.69
22.269
18.279
18.915
15.688
5.511
-1.324
-0.062
2.459
3.406
3.944
0.713
-5.203
-6.612
-5.084
-6.175
-5.638
-2.017
-4.105
-10.263
-9.13
-5.175
-9.617
-15.292
-13.069
-11.275
-14.507
-13.756
-9.153
-9.967
-13.962
-13.796
-11.449
-10.346
-10.034
-11.856
-15.519
-17.038
-17.255
-19.712
-20.792
-16.158
-11.291
-13.264
-19.48
-22.804
-20.487
-15.154
-12.683
-16.779
-23.696
-27.653
-27.681
-24.356
-18.807
-15.959
-18.006
-19.967
-19.654
-20.278
-20.632
-17.998
-16.723
-19.621
-21.54
-21.112
-22.818
-24.007
-19.436
-15.704
-20.636
-27.561
-28.439
-27.116
-26.759
-24.374
-22.119
-23.526
-24.639
-23.298
-21.551
-16.417
-8.817
-9.573
-17.609
-17.151
-7.739
-4.641
-9.316
-11.904
-12.323
-13.728
-13.186
-10.844
-8.731
-4.819
-3.334
-11.705
-21.157
-18.242
-10.364
-11.126
-16.451
-18.425
-19.586
-19.918
-15.274
-10.679
-11.645
-11.997
-8.598
-8.65
-11.926
-10.586
-7.372
-9.964
-16.131
-20.837
-22.881
-20.782
-17.432
-19.343
-22.949
-20.471
-16.273
-16.811
-18.516
-19.568
-22.425
-22.748
-18.001
-16.556
-21.275
-22.951
-17.998
-12.043
-8.48
-9.464
-16.723
-24.233
-25.777
-25.309
-25.671
-23.5
-23.152
-30.761
-36.773
-31.5
-24.123
-23.305
-22.544
-18.867
-18.314
-19.771
-18.626
-18.767
-22.585
-23.761
-19.498
-14.337
-12.156
-15.31
-22.349
-23.864
-15.734
-9.632
-14.04
-19.56
-16.227
-8.508
-6.097
-11.628
-17.896
-16.062
-10.376
-13.308
-22.018
-22.47
-17.345
-19.04
-21.956
-15.826
-9.301
-10.043
-10.583
-11.429
-18.375
-19.474
-8.19
-3.389
-10.006
-7.23
3.933
1.098
-10.927
-10.171
1.135
9.042
12.268
11.514
7.136
7.48
13.181
13.144
9.972
16.134
25.501
25.032
20.868
23.572
29.976
35.337
39.547
40.355
37.984
36.218
33.52
28.294
25.457
24.989
21.046
16.311
16.06
15.441
10.636
5.56
-0.286
-8.452
-12.039
-10.41
-14.748
-25.037
-28.188
-22.825
-17.671
-13.341
-10.431
-16.276
-26.263
-26.205
-19.711
-21.197
-27.991
-30.007
-29.782
-30.518
-28.244
-25.122
-26.45
-29.05
-30.111
-32.882
-36.235
-36.388
-35.809
-36.134
-33.755
-29.816
-28.66
-26.479
-17.382
-3.459
13.123
34.357
57.718
81.405
114.271
161.243
211.661
257.077
300.594
340.854
367.177
369.593
342.043
284.543
203.102
102.05
-12.204
-126.554
-237.31
-351.497
-467.8
-585.717
-710.259
-814.636
-850.748
-822.705
-782.825
-750.892
-707.945
-650.597
-588.327
-517.537
-438.903
-365.332
-299.089
-236
-183.623
-145.78
-112.625
-84.039
-69.702
-62.418
-49.597
-41.114
-49.34
-62.415
-64.553
-55.435
-38.852
-23.414
-26.142
-44.311
-48.815
-29.913
-11.208
-5.037
0.272
6.738
3.591
-8.591
-19.247
-20.688
-10.568
4.35
14.569
23.139
33.77
34.177
19.394
7.62
9.556
14.964
19.221
29.083
45.23
60.226
63.103
48.33
31.118
30.422
37.795
38.345
41.827
56.234
66.348
63.959
58.525
52.658
46.096
50.324
67.011
77.248
73.444
70.496
75.556
79.96
81.196
83.552
85.269
84.595
84.096
83.126
82.484
88.008
96.524
97.83
95.734
101.767
112.074
115.914
116.161
120.778
127.663
131.184
131.945
134.001
138.763
143.865
147.577
150.922
152.776
151.508
152.671
161.477
172.037
178.206
183.158
188.156
189.249
188.542
191.179
195.016
196.564
197.491
198.673
200.151
205.08
211.791
212.376
207.775
207.307
210.804
211.714
212.557
216.883
218.174
213.075
208.591
207.596
206.033
203.368
199.444
192.472
189.08
194.815
195.887
179.11
158.022
148.929
143.612
132.37
122.427
114.913
100.558
84.946
80.059
78.2
68.608
58.816
53.758
44.577
31.546
24.706
22.593
17.807
10.965
3.829
-3.998
-10.139
-13.877
-16.671
-17.372
-18.112
-23.202
-28.078
-28.44
-30.946
-36.715
-37.004
-33.968
-36.07
-38.666
-36.98
-38.968
-46.447
-50.246
-49.914
-50.921
-49.782
-45.077
-44.769
-46.823
-40.139
-31.479
-37.192
-50.842
-54.904
-52.02
-53.243
-55.88
-54.942
-53.485
-52.486
-50.06
-46.955
-41.992
-35.626
-36.758
-47.298
-53.328
-48.463
-42.929
-41.28
-39.532
-40.702
-46.201
-46.751
-40.43
-36.885
-36.864
-33.845
-31.857
-36.801
-41.455
-38.536
-33.329
-31.582
-31.292
-30.347
-29.093
-28.734
-32.066
-36.804
-34.517
-26.652
-25.253
-31.35
-34.189
-30.798
-26.29
-22.291
-18.076
-14.749
-14.816
-20.975
-30.277
-33.389
-27.928
-22.438
-22.062
-24.634
-29.617
-35.048
-33.426
-24.78
-20.607
-24.635
-27.377
-25.363
-25.201
-27.005
-24.275
-18.366
-16.588
-20.162
-23.592
-22.288
-19.069
-21.41
-27.941
-28.634
-24.329
-25.462
-29.413
-26.164
-20.941
-23.115
-26.387
-24.193
-24.08
-29.102
-30.081
-26.637
-28.86
-35.327
-36.08
-32.979
-33.526
-35.119
-33.107
-30.901
-32.407
-35.727
-36.259
-31.831
-27.232
-28.807
-33.721
-36.103
-37.369
-37.709
-33.309
-29.355
-33.112
-37.528
-34.784
-30.86
-30.472
-30.14
-30.301
-32.359
-32.35
-31.257
-34.522
-39.685
-42.549
-45.098
-44.811
-36.323
-27.99
-31.298
-38.192
-35.548
-29.152
-28.467
-28.518
-26.877
-31.887
-42.189
-45.944
-41.691
-37.05
-35.223
-36.544
-40.676
-44.108
-45.044
-45.033
-43.427
-40.358
-40.145
-42.614
-41.798
-38.294
-38.365
-40.379
-38.354
-34.699
-33.974
-33.682
-32.248
-30.762
-25.702
-19.074
-21.819
-29.582
-25.717
-16.519
-20.472
-30.133
-29.986
-27.232
-29.216
-26.978
-18.686
-12.089
-7.147
-3.509
-5.443
-7.675
-2.355
4.088
3.201
-1.308
-3.203
-0.079
8.21
14.914
13.534
12.497
21.926
32.643
30.488
19.464
13.57
16.576
18.912
11.056
-2.176
-8.118
-7.096
-9.261
-14.329
-17.514
-23.676
-33.718
-37.732
-35.236
-35.396
-36.863
-35.231
-36.81
-42.143
-40.274
-32.589
-32.915
-41.794
-48.4
-50.155
-49.17
-44.245
-38.921
-38.599
-37.336
-29.25
-25.243
-33.948
-42.69
-41.837
-42.62
-50.021
-51.534
-46.289
-47.36
-51.697
-44.219
-24.924
-3.866
16.353
37.617
62.35
94.53
133.111
173.678
218.666
270.023
318.478
353.111
366.997
352.014
308.123
245.147
161.349
50.798
-68.797
-178.329
-286.081
-398.818
-510.572
-629.345
-748.209
-816.546
-810.02
-772.232
-739.025
-699.304
-646.895
-591.345
-527.036
-449.127
-372.432
-308.146
-253.249
-202.416
-150.809
-102.519
-75.517
-73.824
-73.629
-59.569
-45.692
-45.268
-51.467
-54.664
-52.025
-42.646
-31.914
-29.45
-33.352
-32.397
-23.288
-10.563
1.745
10.006
14.021
16.361
12.764
1.139
-5.02
1.938
9.485
15.062
32.161
52.463
52.661
39.72
36.109
35.459
22.577
10.728
19.021
41.095
58.233
58.76
42.127
22.473
17.302
25.362
34.437
44.36
58.225
66.837
64.365
58.643
55.099
54.773
62.326
72.733
72.39
66.493
70.501
78.498
79.149
80.893
88.246
88.731
82.63
84.59
93.177
96.915
97.714
100.12
101.083
103.961
113.797
121.112
117.869
113.916
117.966
125.094
131.113
137.35
143.605
149.265
153.379
154.598
157.959
167.855
174.919
171.258
167.45
173.016
180.353
182.797
184.831
189.343
194.576
199.728
203.43
205.591
209.933
216.216
219.177
219.043
220.157
221.516
220.983
221.628
225.353
229.819
234.859
241.903
248.135
249.038
243.32
232.653
222.064
217.849
218.454
215.287
207.814
203.731
201.982
195.155
186.042
181.205
177.452
170.084
159.765
146.605
132.639
122.679
114.672
105.275
99.615
96.786
84.963
65.344
52.917
49.106
44.063
39.299
40.633
41.972
35.429
23.504
13.298
9.947
12.803
12.172
0.809
-12.815
-17.765
-17.424
-18.314
-18.206
-15.729
-14.084
-12.719
-10.47
-10.936
-14.247
-15.153
-14.53
-18.682
-25.543
-26.176
-20.855
-18.884
-21.143
-18.629
-10.473
-7.139
-13.488
-22.514
-26.323
-24.016
-20.259
-19.732
-21.364
-20.576
-17.86
-18.441
-23.464
-27.726
-26.154
-20.312
-16.765
-17.731
-19.566
-21.207
-22.706
-21.099
-19.804
-24.599
-25.714
-14.395
-7.539
-17.814
-25.908
-18.969
-15.633
-24.758
-28.607
-23.788
-26.66
-32.67
-22.825
-6.244
-6.715
-20.479
-28.503
-28.004
-24.489
-20.097
-19.872
-25.243
-28.346
-26.856
-26.431
-26.682
-23.867
-20.342
-19.396
-20.619
-22.348
-22.149
-20.49
-23.029
-29.639
-30.374
-23.044
-19.255
-23.843
-27.622
-25.641
-22.562
-21.068
-22.31
-28.305
-32.096
-24.388
-13.612
-13.472
-18.362
-18.612
-18.866
-20.306
-16.851
-15.038
-22.488
-29.739
-30.587
-31.669
-31.409
-24.46
-19.963
-25.641
-32.675
-33.096
-29.898
-27.312
-28.491
-34.27
-37.192
-32.197
-28.378
-33.321
-40.199
-42.35
-41.106
-37.111
-32.69
-34.053
-39.19
-39.78
-35.921
-31.629
-26.694
-24.697
-30.1
-36.688
-38.747
-40.804
-42.575
-38.357
-33.551
-34.002
-31.71
-24.976
-26.365
-36.155
-41.203
-41.683
-45.391
-46.843
-41.02
-37.848
-42.585
-45.814
-42.377
-37.309
-34.028
-32.533
-31.088
-26.804
-24.033
-28.979
-32.456
-24.162
-15.262
-16.798
-19.861
-19.262
-19.588
-13.105
4.481
11.757
-3.956
-21.055
-21.211
-13.513
-8.498
-5.355
-4.263
-5.672
-6.527
-6.355
-4.662
1.653
8.583
8.725
6.05
6.361
3.946
-0.902
4.572
15.906
11.731
-4.556
-9.202
-4.699
-10.57
-20.053
-17.518
-14.846
-26.238
-39.592
-43.037
-43.206
-44.086
-41.786
-38.352
-37.037
-35.794
-35.003
-36.757
-38.48
-37.052
-33.077
-31.056
-37.011
-47.097
-47.862
-39.943
-40.314
-52.61
-63.341
-66.558
-64.723
-57.257
-48.816
-49.018
-55.412
-58.769
-58.917
-56.106
-46.254
-35.626
-32.295
-25.576
-4.35
21.814
45.79
76.685
115.489
153.205
192.591
239.159
286.227
325.602
347.615
337.289
294.759
232.137
145.642
34.389
-74.952
-167.867
-263.617
-370.748
-477.954
-586.776
-692.463
-759.151
-765.411
-736.411
-703.158
-671.579
-637.036
-592.194
-527.927
-449.707
-378.865
-327.56
-287.451
-244.553
-194.357
-144.799
-108.484
-88.857
-78.18
-70.791
-66.101
-60.064
-51.48
-49.099
-53.348
-49.011
-34.012
-27.224
-34.556
-41.259
-41.009
-38
-29.008
-13.42
-3.653
-5.813
-11.005
-12.792
-13.566
-15.512
-16.815
-11.7
4.236
23.466
32.215
27.488
15.907
3.912
-1.037
5.259
15.293
22.024
30.632
42.212
45.122
36.442
27.818
24.326
23.848
30.705
44.368
52.966
54.973
59.127
61.515
56.439
54.166
58.963
60.401
60.466
69.246
78.608
78.916
79.283
83.79
82.842
79.643
85.776
94.708
95.126
93.731
98.778
105.046
109.145
114.613
119.967
122.021
123.248
125.227
127.674
132.95
139.414
141.646
143.28
151.499
161.099
163.02
159.391
156.88
158.426
165.635
176.49
184.448
187.023
186.912
185.671
185.957
192.44
202.634
207.716
206.431
206.673
213.012
221.982
227.81
228.799
229.844
234.885
237.906
233.088
228.092
231.006
235.176
232.666
227.708
226.064
226.964
228.86
229.566
224.76
215.588
208.537
203.932
196.676
187.684
181.883
177.727
169.162
155.098
141.042
132.3
126.492
116.811
105.037
98.659
93.085
79.024
64.027
58.29
53.024
40.675
30.924
27.147
20.813
14.484
14.781
13.206
4.408
-0.026
4.226
6.243
2.193
-2.78
-6.942
-6.68
0.964
5.049
-2.154
-6.78
-1.298
-1.461
-11.783
-15.965
-12.401
-13.452
-16.441
-15.336
-17.63
-23.887
-24.094
-21.12
-23.104
-23.784
-18.123
-13.944
-13.608
-12.473
-13.637
-17.995
-17.139
-13.334
-17.076
-22.424
-19.613
-17.274
-21.135
-20.452
-14.124
-13.411
-16.758
-15.605
-12.812
-12.694
-12.467
-12.241
-14.542
-16.935
-17.103
-15.552
-11.438
-6.517
-5.383
-5.221
-0.227
4.671
1.606
-7.178
-16.363
-22.709
-20.825
-11.912
-7.685
-10.508
-10.278
-7.195
-7.744
-5.547
0.774
-4.032
-17.507
-16.832
-5.229
-5.595
-12.782
-9.067
-2.912
-6.662
-11.653
-10.563
-8.297
-7.926
-10.496
-14.662
-11.351
-0.505
1.934
-7.233
-12.205
-8.566
-5.35
-3.436
-1.479
-4.462
-10.3
-12.688
-15.195
-19.324
-16.78
-9.273
-9.387
-17.465
-23.397
-23.901
-19.823
-12.695
-11.043
-19.292
-26.105
-24.211
-22.852
-24.816
-20.749
-13.575
-14.94
-21.708
-24.906
-25.692
-24.112
-16.02
-7.747
-10.34
-22.269
-33.032
-34.63
-25.822
-15.57
-15.046
-20.745
-22.206
-22.473
-27.493
-29.255
-23.512
-21.648
-27.773
-32.685
-35.027
-37.782
-33.997
-23.338
-19.964
-26.179
-29.672
-30.78
-36.977
-40.447
-34.267
-29.475
-32.542
-34.906
-34.424
-36.262
-37.136
-34.01
-32.727
-34.318
-33.727
-32.326
-32.865
-32.577
-31.421
-31.574
-30.107
-25.972
-23.532
-23.093
-22.49
-23.193
-22.853
-16.349
-8.093
-5.096
-5.367
-7.208
-11.674
-12.456
-6.631
-4.658
-9.679
-11.17
-8.572
-8.66
-4.483
9.452
19.577
17.327
13.483
14.639
15.223
13.894
12.561
8.166
1.676
0.546
4.544
3.901
-5.745
-17.207
-22.414
-23.603
-28.39
-35.759
-38.928
-40.968
-48.76
-55.353
-51.747
-45.814
-45.533
-43.306
-37.048
-37.931
-45.004
-45.509
-41.586
-44.536
-51.852
-55.16
-55.652
-56.776
-57.435
-57.402
-57.8
-58.032
-58.384
-60.33
-62.155
-61.206
-60.253
-63.203
-66.237
-62.398
-51.548
-37.94
-23.377
-7.417
12.036
39.351
76.35
117.91
157.721
197.57
244.57
296.681
338.212
355.494
349.103
323.114
271.946
189.699
85.771
-23.195
-132.252
-243.16
-349.755
-450.809
-561.309
-680.548
-770.624
-799.578
-781.775
-750.382
-718.266
-682.053
-636.33
-575.427
-501.721
-429.824
-368.584
-310.007
-247.292
-189.419
-147.284
-118.24
-94.052
-74.061
-61.42
-54.409
-50.647
-52.671
-60.465
-65.822
-61.588
-50.164
-40.112
-39.066
-46.035
-48.488
-37.128
-20.627
-11.099
-5.638
0.583
1.198
-6.017
-13.102
-16.953
-16.471
-3.94
17.358
29.189
27.909
26.042
22.618
10.224
0.223
5.301
18.536
31.869
44.885
50.032
42.658
35.383
35.405
32.543
25.661
26.739
35.468
43.036
49.998
55.967
54.414
48.869
47.966
49.385
50.266
54.483
58.871
57.817
57.47
62.087
64.494
64.47
70.253
79.012
81.387
78.435
77.086
80.323
87.703
95.504
99.181
100.517
105.269
113.501
119.339
119.102
115.717
115.7
121.544
127.917
129.667
130.326
134.253
137.228
136.964
141.214
152.282
161.106
166.083
173.572
179.191
177.008
176.336
183.306
188.063
186.873
187.464
189.876
190.962
195.771
203.566
205.584
204.481
208.405
212.012
209.21
207.756
212.342
215.411
213.686
211.682
209.736
206.123
203.005
200.995
198.445
195.312
189.712
180.448
173.167
169.959
163.75
154.521
149.269
143.427
130.837
121.929
122.46
116.687
97.5
82.127
78.623
72.957
60.646
52.449
46.893
36.406
30.344
34.387
31.305
14.418
3.295
4.566
2.031
-7.126
-10.718
-8.706
-8.478
-10.552
-14.513
-19.387
-20.281
-17.921
-18.312
-21.312
-23.785
-25.389
-25.036
-23.65
-24.399
-23.827
-18.921
-17.284
-21.416
-21.899
-18.384
-19.41
-22.179
-20.813
-19.855
-20.488
-18.093
-17.054
-20.624
-19.266
-11.864
-12.132
-20.334
-21.715
-15.766
-13.792
-15.366
-15.771
-19.297
-24.274
-20.166
-10.74
-10.529
-18.199
-21.736
-19.355
-15.182
-11.958
-14.046
-19.705
-20.187
-16.976
-18.118
-19.492
-14.833
-9.692
-8.442
-10.235
-17.568
-25.678
-23.278
-17.212
-21.405
-26.437
-21.221
-18.898
-24.986
-22.564
-10.856
-7.875
-12.636
-12.615
-11.116
-11.028
-4.188
3.794
-1.408
-11.509
-9.539
-2.041
-3.755
-11.475
-15.886
-17.267
-19.098
-22.122
-24.378
-22.145
-17.274
-16.804
-19.265
-17.156
-13.014
-13.574
-16.203
-17.708
-20.665
-22.295
-18.018
-14.685
-18.554
-20.605
-12.709
-3.109
-3.136
-12.939
-24.288
-28.132
-23.792
-21.191
-24.563
-25.991
-25.1
-30.392
-35.782
-28.461
-15.754
-12.769
-18.669
-26.361
-32.6
-32.065
-24.634
-21.075
-25.805
-30.84
-32.386
-33.739
-34.402
-32.456
-30.291
-29.655
-30.214
-32.572
-34.262
-30.191
-22.789
-20.687
-25.544
-31.111
-32.981
-30.964
-27.314
-26.639
-30.824
-35.649
-37.692
-36.985
-32.19
-25.146
-24.29
-31.435
-37.188
-37.2
-36.772
-37.58
-36.783
-36.132
-37.098
-34.275
-25.725
-19.177
-19.325
-22.362
-26.243
-31.02
-32.377
-28.734
-25.466
-24.695
-24.603
-26.828
-30.008
-27.112
-19.34
-15.217
-14.857
-14.414
-16.649
-20.84
-19.134
-11.273
-5.02
-3.486
-4.43
-3.675
2.689
10.28
10.738
8.575
15.011
27.164
32.889
28.17
17.505
9.226
11.069
17.94
15.669
4.565
-2.707
-5.26
-8.79
-9.473
-7.757
-13.82
-25.328
-31.2
-34.824
-41.678
-43.837
-41.119
-44.508
-48.682
-41.401
-33.105
-37.599
-45.398
-45.644
-42.381
-37.841
-33.862
-39.552
-50.432
-49.081
-38.65
-36.498
-40.425
-40.179
-41.135
-46.962
-48.844
-46.099
-46.618
-49.269
-50.6
-53.419
-55.098
-48.412
-34.249
-16.132
5.302
25.128
42.393
70.009
113.924
161.02
205.523
256.526
308.562
342.7
357.318
359.962
341.633
290.664
210.033
106.588
-10.657
-127.168
-237.332
-344.361
-450.211
-565.737
-694.795
-797.204
-827.326
-801.618
-765.308
-727.417
-680.696
-631.476
-577.127
-506.929
-429.502
-359.264
-295.885
-239.31
-193.439
-152.538
-114.074
-88.895
-77.811
-66.958
-54.794
-50.936
-53.742
-57.445
-62.825
-63.648
-51.775
-38.893
-39.742
-44.748
-39.292
-28.494
-21.734
-16.914
-9.406
0.276
5.278
-3.386
-20.561
-27.459
-18.958
-6.857
5.215
19.715
27.428
21.225
11.423
7.765
6.777
6.27
11.613
24.382
38.625
47.034
45.823
38.375
32.583
30.463
28.66
30.441
41.299
53.394
54.64
49.167
48.152
50.692
52.317
56.023
61.488
62.893
62.087
65.304
71.763
78.138
81.995
79.041
72.236
73.021
81.888
87.885
88.902
89.078
87.55
88.128
97.527
107.99
109.065
107.177
110.147
114.328
118.396
123.568
125.496
126.422
134.154
142.28
142.19
144.055
154.199
158.782
155.015
160.121
175.257
182.757
180.539
180.98
185.733
189.86
193.17
193.599
189.98
190.726
201.275
213.481
218.665
217.586
215.79
218.739
225.695
228.53
225.657
225.503
228.853
227.938
223.629
221.456
219.842
218.434
219.287
216.529
208.229
205.167
207.467
201.444
189.489
184.546
179.809
164.388
150.297
148.285
144.985
130.105
114.163
105.251
99.152
93.452
86.86
75.812
63.877
54.747
42.208
29.165
29.896
37.234
29.878
14.195
10.161
12.119
7.5
3.284
3.693
0.086
-5.518
-4.612
-3.039
-6.831
-7.716
-3.18
-3.559
-10.221
-13.443
-10.849
-8.51
-10.63
-15.749
-16.978
-11.671
-10.031
-17.166
-18.692
-7.451
-0.466
-6.886
-12.645
-11.554
-13.237
-17.267
-15.565
-11.478
-10.128
-8.548
-7.475
-10.115
-12.016
-10.895
-11.239
-11.541
-9.121
-10.432
-15.871
-15.704
-11.832
-13.328
-15.327
-12.456
-12.171
-14.901
-12.29
-8.186
-9.735
-11.205
-8.81
-7.968
-8.092
-4.557
-1.278
-3.791
-9.34
-11.332
-6.692
0.292
1.183
-4.477
-7.285
-3.839
-1.562
-2.753
-0.766
4.293
4.944
1.909
1.47
2.385
1.655
1.873
3.222
4.046
7.941
13.719
12.085
4.26
1.019
1.618
-0.119
-0.193
2.2
-1.331
-7.782
-6.048
-0.891
-2.511
-4.636
0.648
6.645
6.82
3.541
-1.102
-4.953
-4.344
-1.628
-0.237
2.534
4.177
-2.312
-9.244
-4.64
2.842
1.144
-1.478
2.082
2.326
-2.344
-0.944
4.464
3.025
-1.709
-0.816
3.979
9.314
13.316
8.595
-4.856
-12.483
-8.548
-3.409
-0.766
3.711
5.752
0.529
-5.476
-6.355
-4.085
-0.828
1.322
-0.972
-5.788
-8.04
-7.232
-5.001
-2.485
-1.669
-0.69
3.376
3.756
-4.031
-6.464
4.217
10.21
0.378
-9.148
-8.45
-8.651
-12.509
-10.769
-6.074
-5.974
-5.943
-3.445
-5.904
-12.314
-13.313
-9.919
-8.519
-7.724
-6.611
-9.146
-13.956
-16.053
-15.238
-12.834
-9.839
-9.161
-10.045
-7.892
-3.819
-2.126
-1.822
-2.406
-6.803
-10.929
-7.062
1.098
5.309
7.316
9.03
5.154
-0.89
2.26
12.284
18.587
21.82
25.297
25.94
26.349
30.915
33.2
30.764
32.404
36.072
31.868
26.79
30.921
35.719
34.4
33.418
31.046
21.657
14.555
14.957
11.26
2.195
-1.135
-4.024
-16.678
-26.939
-22.697
-16.622
-20.717
-26.804
-27.588
-27.358
-27.536
-25.393
-23.342
-24.144
-24.85
-23.134
-21.599
-23.35
-27.793
-30.956
-30.58
-30.144
-32.997
-36.219
-36.56
-35.863
-36.284
-37.296
-37.603
-36.17
-35.128
-38.732
-43.983
-42.018
-31.49
-16.818
2.07
23.67
42.376
63.143
97.699
142.058
183.347
224.776
275.871
327.407
361.997
375.769
368.832
333.082
265.238
173.409
65.609
-52.235
-172.455
-289.26
-400.036
-510.459
-634.772
-761.775
-840.256
-841.732
-801.494
-760.796
-722.089
-678.854
-628.969
-562.072
-479.578
-402.013
-336.177
-273.46
-217.148
-173.769
-136.549
-102.74
-80.394
-67.652
-54.658
-44.822
-46.915
-55.655
-61.123
-60.271
-49.898
-33.582
-29.925
-44.397
-53.852
-43.814
-26.886
-12.138
2.027
8.752
4.602
-0.008
-4.448
-16.007
-22.433
-9.788
8.485
17.39
22.613
25.482
17.907
6.372
2.624
3.906
7.664
19.838
37.146
47.373
46.259
38.308
31.096
31.348
35.48
34.967
34.954
44.306
53.849
53.177
50.322
49.921
43.026
33.179
34.091
41.671
45.686
51.481
60.673
61.689
55.534
54.86
58.876
61.349
66.082
72.688
73.139
69.919
70.758
72.473
72.41
77.579
87.022
90.343
89.808
94.426
97.584
92.266
91.462
104.507
118.24
121.134
119.098
120.819
128.158
137.167
141.33
141.799
146.739
155.172
158.67
157.586
157.898
160.871
166.686
174.635
179.015
178.977
182.612
189.889
190.773
187.443
192.197
200.942
198.552
188.591
188.952
202.063
211.532
205.414
191.137
186.02
194.072
200.286
194.271
184.327
179.09
175.029
169.002
163.398
157.796
150.761
143.886
136.497
127.154
119.037
112.35
101.029
85.308
73.008
65.96
59.671
51.905
41.514
28.787
19.755
17.667
15.134
6.761
-1.12
-3.332
-5.731
-13.965
-23.041
-25.59
-23.879
-25.453
-30.374
-33.491
-35.807
-39.497
-38.679
-31.595
-29.189
-35.51
-38.735
-34.795
-35.003
-40.99
-41.479
-38.036
-41.226
-44.802
-38.712
-33.936
-40.592
-46.248
-43.182
-43.099
-48.357
-46.376
-37.041
-32.374
-34.858
-38.049
-37.069
-31.054
-26.394
-31.034
-40.062
-43.145
-42.6
-44.773
-46.4
-45.042
-44.251
-42.969
-39.493
-38.793
-40.473
-37.483
-33.751
-37.991
-42.924
-38.393
-33.384
-38.534
-44.973
-42.882
-38.757
-38.121
-35.692
-31.758
-33.597
-38.712
-39.14
-37.935
-42.243
-48.48
-49.622
-47.781
-48.322
-49.717
-47.497
-43.299
-42.848
-45.482
-44.293
-39.738
-40.231
-45.37
-46.387
-43.677
-43.386
-43.309
-41.197
-42.474
-46.403
-44.787
-39.172
-37.903
-40.193
-40.523
-38.457
-35.473
-34.096
-37.597
-41.914
-39.986
-35.873
-37.702
-42.839
-46.183
-49.726
-52.418
-48.786
-42.617
-42.221
-44.405
-41.798
-37.544
-37.499
-39.723
-41.092
-41.975
-42.155
-42.135
-43.845
-45.074
-43.133
-41.902
-42.741
-38.696
-29.872
-27.307
-33.406
-39.245
-41.558
-42.28
-40.758
-40.25
-44.507
-46.645
-43.027
-43.726
-49.982
-48.983
-41.294
-39.526
-42.347
-41.825
-41.784
-45.329
-46.263
-43.907
-43.361
-43.323
-41.977
-42.165
-41.968
-38.678
-38.558
-43.466
-43.126
-35.898
-34.072
-40.643
-45.903
-46.035
-44.333
-42.29
-40.917
-40.505
-39.702
-40.788
-44.061
-40.955
-31.041
-29.683
-40.846
-48.182
-43.709
-36.393
-33.19
-35.069
-40.274
-41.051
-34.364
-29.889
-31.94
-33.609
-34.848
-38.293
-35.579
-25.486
-22.622
-29.498
-32.57
-29.616
-27.817
-26.527
-25.818
-29.718
-32.455
-26.541
-18.736
-17.74
-19.653
-17.84
-13.405
-10.64
-10.81
-11.315
-9.106
-6.547
-8.909
-12.962
-9.891
-2.191
0.107
-1.592
0.007
3.159
6.019
12.392
18.316
16.647
13.497
16.319
19.283
19.114
21.994
25.005
19.189
9.762
5.841
2.977
-3.084
-7.214
-9.761
-15.543
-20.707
-22.101
-25.391
-30.724
-31.216
-28.7
-29.775
-32.106
-31.368
-29.775
-28.325
-26.215
-28.304
-35.154
-35.01
-24.365
-18.546
-25.817
-34.294
-34.309
-29.993
-26.757
-26.46
-30.873
-38.461
-43.617
-42.744
-37.423
-33.445
-35.838
-41.425
-41.999
-35.062
-22.074
-2.915
17.712
33.212
50.518
81.47
121.28
159.338
199.401
247.352
296.763
339.557
370.249
378.556
358.299
313.824
244.355
145.696
32.059
-77.532
-186.322
-299.268
-406.651
-516.171
-644.314
-760.063
-810.324
-797.217
-760.691
-717.231
-669.528
-624.333
-572.064
-500.227
-421.885
-352.07
-286.871
-225.72
-176.082
-136.26
-102.232
-75.769
-55.129
-38.691
-30.761
-29.578
-29.52
-34.944
-45.712
-44.69
-26.1
-11.223
-15.211
-26.082
-27.802
-18.574
-4.223
7.826
13.101
15.509
17.675
12.446
-1.7
-11.761
-8.396
4.769
22.573
40.066
47.519
40.493
27.959
20.583
19.406
20.839
24.858
34.404
49.087
61.404
62.782
54.172
44.946
41.241
41.671
42.897
44.893
51.366
62.761
70.419
68.012
63.704
66.099
69.695
69.659
71.965
77.149
78.257
78.014
82.256
84.953
82.635
83.72
88.791
89.269
87.968
91.655
94.933
95.421
100.857
108.741
110.559
113.228
123.799
131.435
130.708
132.433
138.203
140.01
142.565
152.392
160.783
161.924
163.768
169.158
172.302
174.416
180.538
188.017
192.825
195.65
196.252
195.14
197.925
206.307
214.659
220.908
225.585
224.328
218.622
219.447
226.592
227.921
224.345
226.593
232.056
232.815
232.922
236.636
238.526
235.746
231.185
225.569
221.041
222.005
225.335
224.716
221.873
218.785
210.878
199.102
191.999
190.751
188.1
180.315
168.679
155.337
143.457
134.774
127.078
118.663
110.283
101.276
90.741
80.168
69.713
58.719
50.734
48.021
45.52
38.975
30.008
20.918
15.089
15.277
14.724
6.625
-0.198
2.595
5.65
2.254
0.781
3.627
4.317
4.272
3.735
-5.061
-16.494
-16.702
-12.016
-13.382
-12.625
-7.863
-12.228
-19.611
-13.575
-5.116
-9.412
-13.203
-7.415
-7.758
-17.108
-17.955
-10.141
-9.161
-14.509
-16.626
-17.134
-18.725
-17.711
-15.689
-16.916
-17.333
-12.535
-7.006
-6.828
-11.044
-11.998
-4.904
1.861
-2.049
-9.122
-6.941
-2.74
-8.07
-14.324
-10.406
-4.114
-5.126
-9.497
-11.304
-9.932
-7.302
-7.803
-11.381
-11.643
-10.068
-13.01
-15.832
-15.01
-17.238
-17.926
-7.312
0.336
-9.035
-16.271
-7.138
-1.82
-10.01
-12.475
-6.268
-8.15
-14.15
-9.966
-3.123
-4.049
-4.688
-0.329
0.219
-4.259
-6.029
-5.97
-8.979
-11.65
-10.688
-9.992
-10.954
-10.33
-8.82
-8.902
-9.286
-9.521
-10.995
-12.324
-12.79
-13.824
-13.282
-10.665
-12.413
-17.895
-16.459
-8.808
-6.727
-10.092
-11.806
-15.189
-21.573
-21.708
-15.594
-13.286
-13.7
-11.447
-12.482
-19.627
-24.556
-24.39
-22.362
-18.666
-17.341
-21.706
-21.673
-13.112
-12.109
-22.51
-23.761
-12.857
-12.158
-22.59
-21.891
-12.562
-16.468
-28.047
-26.568
-19.489
-24.327
-31.68
-28.822
-27.841
-36.148
-36.974
-24.41
-17.778
-24.74
-28.53
-21.266
-16.044
-19.864
-22.408
-18.357
-18.444
-28.305
-35.806
-32.516
-27.46
-26.957
-25.364
-22.995
-25.255
-27.897
-28.65
-34.222
-40.009
-35.466
-29.681
-33.918
-36.321
-27.183
-19.084
-20.199
-21.885
-20.803
-22.158
-23.328
-19.043
-15.046
-17.971
-22.034
-20.834
-19.447
-21.346
-19.346
-11.326
-6.648
-7.937
-5.571
2.744
5.957
0.55
-1.752
4.166
7.577
3.219
0.79
7.062
17.198
24.601
26.083
22.259
19.19
21.109
22.908
19.618
14.846
10.694
3.169
-6.283
-11.362
-13.271
-16.447
-20.084
-25.282
-34.112
-39.505
-37.525
-38.559
-45.467
-45.683
-39.442
-40.602
-46.394
-44.383
-38.326
-35.133
-31.061
-28.937
-34.983
-39.173
-34.13
-33.211
-41.115
-42.449
-35.719
-35.644
-41.064
-41.139
-38.798
-38.342
-35.957
-35.99
-44.607
-50.631
-42.899
-29.96
-20.728
-9.892
5.84
21.876
40.138
69.862
112.587
157.495
195.173
232.407
283.07
339.411
370.017
358.647
320.741
266.771
185.384
79.027
-28.241
-128.976
-233.157
-337.858
-439.524
-550.69
-666.26
-748.123
-770.879
-750.907
-718.09
-684.89
-648.068
-602.52
-544.205
-468.502
-383.165
-315.526
-279.135
-246.841
-192.752
-135.551
-101.682
-83.483
-67.789
-59.89
-57.26
-47.028
-34.486
-32.433
-34.352
-30.155
-25.489
-25.725
-27.176
-30.63
-38.055
-39.759
-26.537
-5.812
8.048
9.646
4.436
1.295
1.218
-2.425
-5.973
4.18
24.849
36.494
34.418
29.935
25.805
18.523
12.564
12.83
18.915
31.813
48.145
55.11
47.808
37.845
34.645
34.381
31.821
30.096
36.092
49.772
60.907
62.765
62.484
65.311
63.508
55.973
55.607
64.032
66.855
61.331
59.921
65.618
70.272
72.974
77.974
82.53
83.129
83.693
87.856
92.684
94.049
92.71
94.496
102.881
111.94
115.497
118.076
123.492
126.275
127.507
135.927
146.282
147.185
146.327
154.065
159.538
154.976
154.581
164.748
171.909
172.961
178.919
188.017
191.034
192.237
197.313
200.562
200.802
205.614
214.57
220.76
224.017
226.564
227.028
226.157
225.797
223.85
220.796
222.617
229.471
233.746
234.511
238.819
244.086
237.997
222.859
217.86
226.651
227.526
209.462
190.996
187.621
188.096
178.795
164.843
154.019
143.885
133.161
125.058
117.533
107.767
99.933
93.513
79.698
61.715
54.1
54.46
47.302
35.003
30.864
31.128
24.741
14.659
7.893
2.522
-5.278
-14.694
-20.763
-18.391
-12.615
-15.92
-27.084
-31.758
-28.177
-26.645
-27.237
-24.843
-23.889
-27.278
-30.077
-32.791
-37.747
-37.08
-27.57
-23.005
-31.363
-38.924
-34.288
-27.397
-29.546
-35.565
-38.569
-41.604
-46.204
-47.331
-42.354
-35.204
-33.615
-40.504
-46.651
-43.679
-38.337
-38.196
-39.194
-39.245
-41.606
-43.113
-41.343
-43.013
-49.248
-50.997
-45.908
-40.623
-38.699
-39.493
-41.231
-41.235
-40.496
-42.465
-45.254
-46.455
-49.424
-52.572
-47.842
-38.743
-37.347
-41.058
-38.928
-34.588
-35.981
-37.919
-37.129
-40.514
-45.152
-40.348
-31.331
-29.939
-32.397
-31.841
-31.809
-32.127
-27.522
-22.683
-24.322
-27.735
-28.303
-28.517
-26.636
-20.025
-16.764
-23.66
-33.598
-38.423
-38.606
-36.043
-32.834
-32.096
-31.941
-30.424
-32.007
-35.551
-32.527
-25.524
-24.89
-30.165
-37.003
-44.603
-44.418
-31.913
-24.849
-34.613
-42.689
-36.532
-30.558
-32.363
-33.045
-33.7
-39.072
-40.371
-36.259
-39.343
-46.555
-44.463
-39.734
-42.911
-44.322
-37.718
-34.496
-38.868
-42.746
-43.789
-42.919
-38.257
-34.684
-38.643
-42.928
-38.935
-34.411
-38.005
-42.167
-39.13
-35.151
-36.674
-40.77
-44.504
-48.425
-51.304
-50.848
-46.914
-41.679
-38.271
-37.51
-37.898
-39.19
-40.303
-38.133
-34.385
-34.021
-35.657
-35.392
-34.748
-35.148
-34.623
-33.492
-33.091
-32.038
-30.549
-31.612
-34.673
-35.017
-30.584
-24.071
-18.739
-16.347
-15.483
-10.624
-2.293
-1.652
-9.708
-10.019
1.62
9.174
7.482
6.595
7.58
6.613
8.887
15.694
19.541
20.352
22.352
21.391
16.689
17.051
21.706
20.279
14.324
11.565
8.246
0.417
-5.883
-7.863
-7.57
-4.214
-3.53
-15.237
-31.945
-39.126
-40.424
-43.504
-42.309
-37.229
-40.385
-48.254
-45.712
-36.256
-33.34
-34.324
-31.212
-27.879
-28.597
-30.017
-30.964
-32.448
-31.744
-29.076
-29.898
-34.189
-36.612
-37.502
-39.982
-40.896
-37.557
-35.593
-39.291
-42.681
-37.871
-25.832
-13.46
-1.97
14.396
35.791
57.72
86.317
127.243
166.874
198.228
240.815
299.742
346.307
363.181
358.614
331.327
270.671
181.866
79.384
-26.949
-131.11
-232.932
-335.075
-438.012
-547.812
-663.483
-750.106
-770.358
-740.766
-705.526
-673.706
-632.604
-586.792
-536.456
-463.912
-379.269
-322.085
-292.985
-251.319
-190.395
-141.625
-111.03
-82.208
-59.505
-51.236
-45.016
-35.572
-36.227
-48.4
-57.098
-54.711
-44.688
-34.061
-31.511
-37.899
-41.696
-33.188
-14.155
5.645
13.787
7.386
-0.709
-2.771
-7.74
-16.416
-13.808
2.138
17.538
28.282
36.721
35.972
23.765
11.372
5.464
4.713
12.132
26.794
36.687
37.437
37.321
37.876
35.033
33.353
35.971
37.704
41.281
53.405
64.651
63.659
57.743
54.538
49.52
45.297
49.099
52.493
48.179
49.138
61.88
70.797
68.087
65.321
69.792
77.599
83.687
84.82
84.68
90.285
94.103
84.711
74.936
82.222
94.73
95.769
94.189
99.045
101.956
102.264
109.306
119.936
127.696
135.664
140.389
135.211
131.235
139.661
149.784
152.458
155.948
164.058
170.372
173.475
174.669
174.488
179.088
189.136
192.485
187.08
185.662
188.791
187.965
189.087
197.933
203.334
200.113
198.219
199.875
199.532
199.005
198.508
193.404
190.044
196.981
205.088
203.01
195.378
187.555
177.333
167.88
163.002
156.886
147.667
140.862
132.559
117.769
106.637
103.914
96.985
83.767
76.073
70.864
58.065
45.033
40.225
36.706
29.417
20.739
10.034
0.199
-1.575
1.122
0.37
-1.869
-4.801
-12.98
-21.116
-21.389
-20.346
-24.53
-27.116
-24.284
-21.573
-20.414
-19.896
-23.719
-30.499
-32.626
-29.901
-27.624
-26.779
-28.858
-35.822
-40.229
-34.655
-26.196
-23.624
-24.765
-27.627
-32.501
-33.051
-27.657
-26.8
-32.776
-35.35
-33.398
-33.403
-32.845
-29.435
-30.493
-37.442
-41.696
-39.868
-34.683
-29.064
-29.189
-36.196
-38.32
-31.352
-28.255
-32.273
-31.78
-28.077
-30.9
-33.794
-29.133
-26.099
-28.714
-28.367
-26.912
-30.485
-30.576
-24.176
-25.047
-32.965
-31.145
-21.432
-19.787
-24.734
-26.167
-25.261
-23.201
-16.824
-11.359
-12.523
-15.751
-19.124
-25.633
-29.182
-23.855
-18.511
-20.09
-21.125
-18.54
-19.102
-19.736
-11.049
0.717
1.942
-5.843
-11.885
-12.128
-7.749
-1.847
-0.34
-5.253
-11.891
-16.683
-17.837
-12.224
-3.208
-0.704
-5.058
-7.417
-7.903
-12.388
-16.504
-14.372
-11.178
-10.72
-9.135
-8.266
-12.957
-17.507
-14.717
-8.567
-5.729
-6.485
-7.912
-8.2
-8.688
-11.094
-12.465
-11.088
-12.108
-16.383
-17.505
-16.902
-20.625
-23.461
-20.09
-17.864
-19.961
-20.241
-20.587
-24.838
-26.118
-23.783
-26.998
-30.703
-23.76
-15.721
-18.418
-21.328
-16.668
-17.181
-26.234
-28.241
-22.067
-23.339
-29.751
-25.783
-17.138
-19.903
-28.279
-28.563
-25.275
-26.506
-27.176
-23.365
-20.719
-21.611
-21.363
-18.679
-17.937
-19.636
-18.02
-14.226
-19.206
-31.908
-35.531
-28.711
-27.788
-31.054
-24.515
-17.173
-22.041
-24.908
-15.523
-11.246
-18.968
-20.88
-12.161
-6.802
-8.142
-9.536
-10.062
-9.009
-4.529
-1.707
-3.778
-5.275
-4.463
-4.429
-2.147
4.717
10.531
13.465
17.414
19.963
17.26
13.967
13.79
13.856
15.296
21.789
28.657
30.613
32.33
37.407
40.069
37.838
36.744
37.933
35.202
28.012
22.213
19.52
17.294
13.79
8.39
2.24
-3.102
-9.268
-16.149
-19.809
-22.607
-29.263
-32.866
-28.053
-24.705
-25.472
-19.356
-11.91
-18.08
-25.305
-13.734
2.576
0.782
-11.995
-19.264
-21.501
-22.649
-21.626
-22.615
-29.842
-37.349
-38.553
-35.552
-32.63
-30.679
-29.312
-28.107
-25.777
-19.955
-8.978
5.422
20.283
37.205
61.968
97.738
140.97
185.237
230.29
282.203
337.294
376.301
386.612
375.377
349.106
299.357
218.382
113.301
-1.061
-114.967
-224.324
-324.384
-419.494
-530.601
-658.259
-755.109
-781.514
-757.717
-721.076
-681.631
-642.243
-603.976
-551.312
-477.682
-401.068
-332.535
-268.678
-214.004
-173.136
-136.44
-97.499
-65.478
-50.167
-48.398
-48.167
-42.861
-38.42
-40.951
-44.473
-41.207
-34.268
-30.685
-30.766
-29.417
-22.639
-12.435
-4.469
1.327
9.112
14.848
11.399
2.737
-4.011
-8.361
-5.573
11.543
33.951
45.371
45.545
41.515
32.053
19.635
14.739
17.532
21.094
29.921
46.462
55.247
48.651
42.059
42.626
38.905
32.073
36.645
49.718
56.838
57.86
58.977
58.273
55.004
53.348
55.797
64.272
74.781
74.749
66.064
68.111
79.742
78.957
68.169
68.344
75.624
74.864
72.982
78.891
84.817
88.177
93.627
95.346
91.935
96.947
110.197
114.628
111.914
118.431
129.649
129.898
123.198
122.96
130.863
141.462
148.319
146.944
144.474
151.612
162.79
166.236
166.086
172.448
181.82
184.181
179.178
175.72
180.158
189.33
196.425
200.557
205.522
211.898
216.005
215.921
214.782
215.808
216.775
214.06
208.681
204.573
205.382
211.289
215.355
211.999
207.892
209.084
206.748
194.806
184.728
184.674
185.412
179.441
171.366
164.458
156.469
146.221
132.997
118.175
108.051
103.776
97.6
86.942
77.007
68.946
60.844
53.413
45.556
36.077
28.897
24.454
17.131
9.465
9.824
13.324
7.931
-3.274
-8.062
-5.917
-5.006
-8.427
-13.809
-16.318
-12.351
-8.159
-13.047
-21.556
-22.631
-20.289
-21.981
-22.388
-19.03
-21.313
-31.177
-37.775
-35.127
-28.116
-24.298
-27.197
-32.561
-33.546
-31.318
-31.289
-33.363
-36.082
-39.334
-38.648
-32.924
-31.387
-36.158
-36.791
-33.206
-34.611
-36.144
-30.55
-27.281
-30.879
-30.883
-27.704
-28.912
-26.498
-17.266
-17.909
-30.266
-33.97
-26.878
-25.823
-30.541
-29.121
-24.649
-25.649
-29.027
-29.63
-29.343
-30.566
-32.28
-32.887
-31.863
-29.571
-27.285
-27.941
-33.394
-38.103
-33.293
-21.863
-17.193
-22.01
-24.217
-19.275
-16.937
-20.379
-21.536
-19.248
-19.119
-20.755
-23.008
-27.12
-27.416
-20.581
-17.169
-21.716
-22.937
-18.858
-19.542
-22.131
-18.808
-17.504
-23.414
-24.956
-19.128
-17.713
-20.697
-18.356
-14.474
-16.966
-20.121
-17.909
-15.664
-17.265
-19.86
-23.07
-27.771
-30.474
-28.495
-23.536
-18.898
-19.421
-26.795
-32.955
-31.441
-28.489
-27.887
-23.12
-16.627
-19.24
-26.395
-26.646
-25.833
-31.808
-34.811
-28.801
-25.093
-28.643
-30.826
-30.457
-33.674
-37.758
-36.78
-33.066
-31.468
-33.046
-36.14
-37.215
-35.409
-35.144
-38.06
-40.098
-39.565
-38.6
-39.081
-42.069
-45.24
-44.18
-40.813
-39.957
-39.939
-39.263
-41.469
-44.6
-42.207
-35.801
-30.835
-28.017
-28.658
-33.951
-36.343
-30.376
-25.923
-30.312
-32.779
-26.505
-22.675
-26.667
-28.582
-25.752
-25.635
-27.919
-28.342
-29.252
-31.094
-30.683
-31.146
-35.09
-36.273
-32.45
-30.485
-32.325
-33.477
-32.252
-27.542
-18.962
-13.574
-16.187
-18.558
-14.555
-11.81
-14.781
-15.125
-9.635
-8.567
-16.059
-19.59
-10.385
1.932
7.195
8.956
10.52
8.316
5.185
8.002
13.175
14.027
14.445
19.586
24.329
23.086
21.437
26.934
34.051
31.365
20.882
13.477
9.283
2.67
-2.536
-2.828
-5.004
-12.117
-18.288
-21.538
-23.47
-23.215
-23.742
-28.928
-33.089
-31.361
-29.804
-31.317
-31.309
-31.459
-34.565
-34.412
-30.222
-30.379
-32.964
-31.415
-33.076
-41.791
-43.884
-35.382
-30.683
-34.025
-38.202
-44.531
-52.219
-50.215
-40.821
-40.076
-48.137
-51.462
-46.333
-35.262
-18.192
0.868
18.294
38.331
63.479
93.626
134.406
185.485
234.96
280.002
325.71
362.329
377.04
373.133
348.608
287.561
191.959
83.887
-27.236
-143.714
-257.33
-360.366
-465.965
-590.719
-719.094
-805.058
-820.163
-786.369
-745.604
-712.193
-673.098
-618.055
-550.149
-477.088
-404.933
-335.702
-267.968
-204.637
-155.855
-125.1
-101.183
-76.661
-59.284
-51.978
-45.43
-41.077
-49.742
-63.587
-63.19
-47.672
-30.829
-21.615
-23.658
-33.961
-39.004
-30.078
-14
0.911
12.059
15.193
8.331
-2.906
-12.526
-15.245
-6.145
8.796
18.881
26.072
32.117
26.835
13.606
11.547
19.466
21.68
23.276
35.47
48.138
49.554
43.969
36.846
31.226
31.719
33.602
30.737
35.322
55.477
69.779
62.009
50.77
52.551
56.217
55.031
58.107
63.157
61.901
62.957
72.379
76.951
72.433
72.349
78.463
81.254
82.982
87.221
86.879
82.821
84.576
90.031
94.279
102.449
112.099
112.863
110.192
115.23
122.826
127.089
132.123
135.568
133.687
134.738
141.493
145.526
148.31
154.976
159.078
162.066
175.579
190.64
190.022
185.037
192.794
202.567
202.808
202.199
203.307
200.016
200.725
212.552
221.472
218.637
215.23
216.62
216.87
217.815
223.667
228.423
226.285
220.046
215.983
219.584
228.096
229.142
219.955
213.784
215.525
214.171
205.162
194.975
186.264
178.893
174.18
166.892
151.159
134.644
126.646
121.99
113.1
101.167
88.009
75.165
67.075
62.543
56.506
50.524
44.376
32.75
22.887
25.905
30.107
20.084
7.054
4.978
5.581
1.957
0.844
1.259
-4.192
-10.349
-8.989
-4.673
-5.283
-11.248
-17.823
-17.95
-10.455
-6.798
-13.964
-20.16
-16.681
-13.664
-17.05
-18.201
-16
-18.53
-23.89
-25.308
-23.778
-20.267
-14.098
-11.917
-17.65
-21.656
-17.984
-15.976
-20.701
-23.452
-20.994
-20.392
-21.758
-20.068
-18.709
-20.517
-19.773
-16.474
-16.84
-17.757
-15.427
-17.826
-26.234
-26.893
-16.116
-7.718
-10.691
-19.993
-25.31
-20.591
-12.472
-12.836
-18.863
-19.279
-16.556
-17.713
-16.45
-9.173
-6.787
-11.714
-11.773
-6.835
-8.96
-15.952
-17.053
-15.145
-16.642
-17.487
-15.864
-16.865
-20.141
-21.422
-19.349
-13.134
-7.05
-9.812
-17.142
-16.27
-10.461
-10.149
-11.291
-9.346
-10.721
-14.999
-15.301
-15.198
-19.075
-21.044
-18.931
-17.795
-18.191
-19.093
-21.593
-21.96
-17.604
-14.748
-16.02
-16.309
-16.39
-19.86
-21.956
-20.005
-20.274
-23.387
-23.124
-21.451
-23.36
-23.571
-17.624
-13.349
-16.731
-22.168
-24.269
-24.069
-24.325
-28.497
-35.594
-36.469
-29.368
-26.168
-29.419
-27.891
-22.358
-24.078
-29.779
-28.946
-24.523
-23.795
-25.629
-27.691
-29.645
-29.299
-26.953
-26.014
-26.08
-25.591
-26.632
-29.017
-29.462
-28.856
-29.489
-29.749
-29.234
-29.124
-26.519
-21.006
-19.964
-24.833
-25.953
-21.034
-20.113
-26.205
-30.945
-30.367
-27.719
-24.94
-23.68
-26.528
-30.957
-32.479
-33.332
-36.203
-36.384
-32.262
-30.752
-32.938
-31.71
-27.654
-28.296
-32.991
-34.571
-31.403
-28.105
-28.666
-32.456
-36.129
-38.375
-38.321
-32.793
-24.493
-22.882
-26.462
-23.483
-16.791
-19.048
-25.263
-24.42
-23.688
-28.183
-25.683
-15.661
-13.916
-19.121
-17.509
-12.684
-13.578
-15.022
-13.933
-14.754
-13.145
-5.008
0.238
-0.266
3.832
9.91
5.912
-1.312
0.67
4.596
3.032
4.435
11.22
15.289
17.336
20.999
21.541
19.909
24.059
29.409
25.089
14.911
8.11
2.803
-3.925
-7.762
-8.51
-11.669
-17.821
-24.494
-31.895
-38.175
-39.984
-40.27
-43.914
-48.237
-47.466
-41.739
-35.903
-33.566
-33.586
-32.006
-29.655
-31.458
-35.01
-34.404
-34.649
-40.709
-42.632
-35.84
-33.855
-41.706
-47.656
-47.51
-46.072
-43.914
-42.601
-43.271
-40.618
-37.346
-41.401
-42.23
-28.277
-14.016
-8.595
6.498
37.436
67.063
96.18
139.733
190.695
236.636
283.82
331.167
361.237
369.905
361.382
324.657
253.295
161.297
58.128
-56.575
-173.913
-283.957
-389.773
-499.879
-620.821
-741.692
-820.931
-828.069
-789.582
-749.208
-712.778
-668.24
-614.427
-548.243
-467.597
-387.009
-318.276
-256.353
-200.866
-159.044
-125.683
-93.191
-69.683
-61.132
-57.435
-51.734
-47.94
-46.643
-46.566
-49.065
-47.615
-35.915
-26.548
-31.129
-35.804
-26.863
-14.956
-9.651
-2.63
8.953
15.133
12.966
6.568
-4.459
-15.635
-12.969
7.028
29.519
39.787
35.945
25.544
18.251
17.171
17.953
20.413
30.189
45.183
54.594
53.006
44.82
37.486
35.587
37.51
39.502
44.036
54.278
63.266
63.515
59.529
57.233
55.495
55.688
60.163
63.616
64.957
71.946
80.5
77.235
66.99
65.264
70.621
73.611
75.535
79
81.268
83.501
88.16
92.445
95.519
99.971
103.393
102.79
102.977
108.311
115.533
122.083
128.43
131.5
130.695
133.553
142.234
148.706
150.78
153.231
154.108
151.343
153.803
166.258
177.741
179.702
178.636
181.335
185.687
189.874
194.227
196.255
195.796
197.645
203.254
208.639
210.498
209.341
209.711
215.079
220.32
219.077
216.255
218.07
218.938
215.093
214.223
216.874
212.475
202.646
199.59
201.177
196.584
187.389
179.871
173.048
167.104
164.14
159.345
147.7
132.502
119.228
109.86
102.879
95.231
87.59
81.092
70.242
54.618
45.427
43.428
35.752
23.9
18.91
13.853
1.115
-4.253
5.219
9.848
-0.747
-12.019
-16.332
-19.53
-19.888
-15.957
-17.844
-26.225
-28.596
-26.055
-28.673
-30.808
-25.841
-24.146
-30.163
-33.318
-32.613
-35.148
-36.897
-34.504
-34.522
-35.746
-33.299
-35.675
-45.146
-45.424
-34.599
-32.072
-40.614
-44.818
-42.87
-41.833
-40.022
-37.638
-38.12
-35.71
-29.541
-32.419
-42.833
-42.006
-31.429
-30.834
-39.023
-40.247
-36.919
-38.211
-38.324
-32.937
-30.192
-32.737
-36.014
-41.446
-48.005
-46.262
-36.779
-32.155
-34.644
-34.872
-30.933
-29.263
-30.977
-30.512
-25.704
-22.16
-25.451
-32.513
-36.019
-34.251
-30.682
-27.967
-27.198
-28.124
-27.881
-24.949
-23.047
-25.055
-27.213
-25.234
-20.872
-18.97
-22.163
-27.438
-27.568
-21.664
-18.449
-20.896
-21.418
-19.697
-23.52
-28.441
-24.318
-18.099
-19.955
-21.256
-14.901
-12.106
-17.15
-18.394
-14.722
-16.104
-20.539
-20.504
-19.168
-20.116
-19.901
-18.554
-18.634
-18.185
-17.853
-21.022
-23.34
-20.291
-17.337
-17.695
-17.17
-16.109
-16.448
-14.59
-12.182
-15.783
-21.252
-20.818
-18.955
-21.79
-25.515
-26.728
-26.669
-24.443
-21.441
-22.752
-25.252
-22.066
-18.575
-22.364
-26.426
-22.673
-17.201
-17.463
-20.499
-21.309
-19.776
-18.244
-19.099
-21.45
-21.04
-18.709
-20.277
-23.527
-20.925
-15.871
-16.605
-20.214
-21.443
-22.893
-23.731
-19.141
-14.237
-16.353
-20.546
-20.809
-20.595
-21.534
-20.172
-18.321
-19.991
-22.949
-24.472
-25.803
-26.635
-25.537
-23.652
-21.438
-19.168
-20.582
-25.339
-24.824
-16.849
-12.302
-17.522
-24.951
-27.138
-24.948
-21.338
-19.473
-21.431
-22.802
-19.898
-18.412
-20.728
-19.221
-13.613
-12.848
-16.591
-17.665
-15.248
-10.505
-5.048
-5.284
-10.102
-7.878
0.509
1.102
-5.242
-4.683
3.053
7.282
5.973
4.164
4.909
9.343
15.155
17.174
15.549
15.127
16.213
16.483
18.642
26.352
36.38
41.113
37.775
33.691
38.109
47.032
48.092
41.126
34.121
25.563
15.639
16.066
25.315
24.638
12.26
4.025
1.517
-3.529
-8.217
-9.887
-15.246
-24.389
-29.84
-29.982
-25.405
-16.153
-10.066
-13.047
-16.313
-12.972
-10.372
-12.958
-15.689
-18.083
-22.83
-25.53
-22.877
-20.617
-22.317
-23.467
-23.387
-27.662
-34.242
-33.734
-26.733
-24.501
-30.444
-34.818
-29.793
-20.008
-12.819
-3.582
16.772
42.326
62.014
84.55
124.053
171.809
215.275
261.991
313.997
353.561
372.94
376.088
353.526
297.708
221.135
131.919
26.637
-88.46
-203.208
-314.635
-420.444
-529.194
-654.395
-768.609
-816.31
-793.669
-750.674
-714.789
-676.996
-631.362
-575.249
-501.709
-419.833
-347.96
-285.413
-224.554
-172.925
-135.557
-102.843
-73.58
-58.025
-52.377
-44.238
-37.73
-41.938
-50.795
-55.684
-53.882
-41.434
-24.291
-19.6
-26.042
-24.645
-13.654
-4.921
2.675
13.417
19.917
16.951
8.253
-1.266
-4.726
3.058
17.34
32.28
45.455
47.145
31.446
14.479
12.236
16.094
14.988
16.629
28.85
44.909
55.232
55.54
46.586
36.801
35.529
40.271
42.918
45.188
53.4
63.806
67.334
63.02
56.463
52.514
54.693
62.097
67.548
68.004
68.269
68.562
65.08
63.305
69.727
77.55
80.32
83.271
86.978
84.268
79.426
83.045
92.336
100.225
107.585
111.747
108.045
104.974
111.36
119.895
123.463
126.514
130.978
133.824
136.598
141.343
146.501
151.427
154.641
154.073
154.074
159.89
168.668
176.257
181.799
183.567
183.785
188.143
192.462
190.414
191.366
203.172
212.905
210.977
208.326
212.076
215.812
218.34
221.868
221.754
219.388
222.335
224.706
218.138
212.627
215.533
214.708
205.723
200.808
200.777
195.834
189.223
187.101
182.962
174.516
169.331
164.698
151.788
135.554
124.5
116.482
109.795
104.605
93.516
75.922
65.861
66.251
62.741
51.333
40.662
31.093
19.534
11.051
7.124
1.783
-4.323
-7.039
-10.09
-15.291
-16.828
-15.769
-19.028
-23.793
-24.292
-23.904
-25.42
-26.184
-27.44
-30.275
-29.415
-25.554
-27.507
-34.004
-34.369
-29.191
-29.608
-37.974
-44.972
-43.09
-35.399
-32.287
-38.369
-45.513
-46.4
-45.171
-45.183
-42.922
-39.316
-38.141
-38.053
-40.207
-47.296
-51.608
-46.215
-38.721
-36.758
-39.149
-44.744
-48.443
-41.788
-31.801
-32.708
-38.62
-36.881
-33.902
-37.325
-38.915
-36.485
-39.185
-43.334
-39.126
-33.998
-36.651
-38.701
-35.253
-33.889
-34.316
-31
-29.59
-33.453
-32.949
-25.943
-23.118
-26.305
-27.3
-24.629
-21.815
-19.443
-19.115
-22.287
-24.948
-24.394
-23.071
-20.408
-15.056
-12.956
-17.233
-20.685
-20.367
-21.214
-22.13
-20.884
-23.293
-28.228
-26.217
-22.369
-28.473
-35.912
-30.841
-21.798
-23.098
-30.48
-32.425
-27.393
-21.605
-21.728
-28.671
-34.58
-33.067
-29.062
-29.07
-30.158
-27.232
-21.329
-16.064
-13.798
-14.665
-16.139
-18.001
-23.753
-30.95
-31.44
-26.566
-26.142
-30.827
-32.808
-29.705
-23.614
-17.202
-17.494
-26.696
-33.137
-30.663
-30.415
-36.016
-35.831
-30.61
-32.409
-36.323
-31.162
-24.97
-26.974
-29.083
-27.946
-31.944
-37.026
-32.557
-26.248
-29.17
-33.612
-31.374
-28.436
-28.26
-26.887
-25.251
-26.387
-28.341
-29.242
-29.373
-28.462
-27.089
-26.469
-27.534
-31.525
-35.102
-31.479
-23.756
-21.934
-24.147
-22.592
-21.639
-25.71
-25.43
-17.366
-13.354
-17.303
-20.722
-21.616
-22.656
-22.993
-25.992
-33.43
-34.274
-23.851
-16.384
-18.78
-20.194
-17.075
-16.775
-17.443
-12.959
-8.28
-8.663
-8.601
-4.211
0.514
4.079
7.49
7.517
3.985
3.629
7.431
8.964
9.176
16.093
29.221
37.401
31.927
17.304
8.611
13.367
20.444
18.653
13.793
12.095
7.767
0.559
-0.515
2.444
-1.03
-9.775
-16.403
-20.927
-25.149
-29.698
-37.683
-45.28
-42.172
-32.663
-31.459
-36.496
-35.704
-30.738
-28.266
-27.786
-30.812
-37.669
-39.753
-35.567
-34.472
-34.949
-28.375
-21.203
-23.925
-31.518
-36.291
-39.844
-42.411
-42.368
-44.219
-48.976
-49.081
-42.633
-34.627
-25.166
-12.865
0.321
15.275
34.071
57.532
90.259
131.786
169.758
201.355
241.581
295.388
345.303
371.114
364.409
328.381
269.61
187.579
81.986
-32.741
-138.823
-234.101
-327.724
-429.079
-541.038
-648.732
-722.321
-744.319
-726.887
-695.522
-663.679
-630.005
-590.901
-539.987
-466.999
-381.699
-317.568
-283.405
-247.221
-192.105
-139.047
-102.665
-77.594
-63.914
-60.958
-56.389
-48.06
-45.501
-45.361
-39.449
-33.488
-31.475
-27.129
-22.997
-26.741
-30.69
-24.188
-12.212
-1.232
10.476
18.622
15.505
5.85
-1.876
-6.646
-4.208
10.976
29.055
35.808
34.014
32.81
31.075
25.776
19.939
16.981
19.435
29.104
42.121
52.01
56.22
53.443
44.298
36.201
34.878
37.256
41.271
48.097
54.476
59.105
64.653
64.957
55.719
52.863
67.229
81.396
81.465
78.31
79.792
80.96
82.818
87.248
88.309
87.638
92.3
96.303
93.846
95.787
107.443
115.75
114.761
114.331
117.935
119.469
118.972
120.36
122.136
123.009
126.2
133.481
143.434
153.881
161.868
165.959
167.735
168.524
170.558
178.197
189.168
194.667
194.891
197.733
201.973
202.781
205.443
213.094
217.324
216.225
219.562
228.301
232.724
231.476
231.63
234.678
237.222
237.962
237.119
236.059
235.822
233.434
228.604
228.405
232.91
231.739
224.524
220.576
217.613
209.66
204.014
203.164
194.349
176.184
163.51
159.46
155.08
148.816
141.112
128.257
113.865
104.354
96.619
88.101
81.438
71.783
54.437
38.949
32.684
28.627
22.502
17.893
14.2
9.764
6.027
0.414
-8.563
-14.588
-15.09
-14.494
-13.227
-11.946
-17.072
-26.168
-26.807
-19.603
-17.94
-22.72
-24.327
-24.708
-30.048
-33.113
-28.637
-27.301
-33.15
-33.808
-27.271
-26.521
-32.747
-35.047
-31.828
-29.222
-29.476
-31.836
-34.017
-34.446
-36.545
-41.181
-42.214
-39.375
-38.877
-38.964
-35.667
-34.217
-36.755
-36.73
-34.099
-33.988
-34.002
-32.398
-33.854
-36.573
-35.216
-34.201
-36.375
-34.418
-28.656
-27.933
-29.806
-27.755
-26.264
-27.133
-25.182
-25.442
-33.925
-39.493
-33.489
-26.787
-27.965
-30.769
-31.359
-32.941
-33.699
-29.801
-24.966
-24.096
-26.355
-30.978
-36.703
-35.642
-25.107
-18.071
-23.089
-29.271
-27.848
-26.42
-29.064
-27.305
-19.109
-14.157
-17.128
-22.837
-25.838
-24.609
-21.525
-21.337
-24.617
-26.277
-22.791
-16.619
-15.097
-22.981
-32.542
-32.598
-27.761
-28.571
-30.558
-27.714
-28.77
-36.983
-39.473
-32.598
-28.469
-30.945
-33.173
-33.293
-31.817
-27.751
-25.861
-29.374
-31.271
-29.177
-30.272
-33.596
-33.335
-34.101
-37.548
-34.336
-27.104
-29.552
-37.951
-39.275
-37.076
-37.793
-35.04
-28.519
-28.169
-32.915
-34.785
-35.906
-38.789
-38.775
-37.282
-39.591
-42.276
-42.623
-44.776
-46.001
-40.66
-35.439
-36.079
-34.825
-29.618
-29.85
-34.409
-33.687
-30.761
-33.305
-36.508
-34.892
-33.768
-36.155
-36.326
-31.892
-27.89
-28.338
-31.854
-34.172
-33.541
-33.055
-33.683
-30.704
-23.874
-19.659
-18.294
-14.972
-12.816
-15.264
-15.099
-9.295
-6.444
-7.832
-6.207
-3.692
-4.151
-1.062
5.462
5.042
0.469
3.102
9.988
13.987
16.782
16.473
11.56
13.143
23.789
28.194
23.417
20.08
13.182
-3.978
-14.962
-9.221
-4.09
-10.517
-16.498
-17.108
-21.076
-27.821
-30.535
-31.924
-35.89
-39.191
-40.28
-40.889
-40.403
-39.164
-39.023
-37.947
-34.154
-30.541
-28.955
-29.813
-35.15
-41.437
-40.331
-34.096
-33.74
-40.013
-44.587
-46.086
-48.423
-51.029
-52.174
-53.099
-54.663
-57.081
-59.471
-56.655
-45.667
-31.888
-17.39
4.504
32.986
58.303
81.689
112.87
151.892
195.366
244.87
294.279
331.069
350.244
346.559
310.769
245.489
160.039
57.328
-53.597
-159.588
-263.625
-369.732
-469.658
-570.604
-683.801
-773.818
-791.782
-754.173
-715.07
-685.938
-647.522
-598.29
-540.594
-468.054
-393.825
-339.78
-295.959
-241.42
-185.972
-147.112
-118.404
-91.638
-72.84
-62.541
-53.712
-47.189
-47.164
-52.8
-59.645
-57.975
-43.196
-31.972
-39.946
-51.537
-46.166
-32.488
-24.989
-18.599
-8.369
-1.601
-3.139
-12.237
-25.968
-34.671
-29.355
-12.541
8.191
24.318
25.447
13.632
5.605
6.065
4.322
2.193
10.797
24.97
33.741
39.108
41.027
32.305
20.224
19.84
27.053
30.078
33.646
44.525
54.251
55.612
53.582
52.079
50.557
50.765
52.546
53.317
55.769
62.641
68.855
69.427
66.709
66.765
73.678
82.984
84.385
78.224
75.41
77.65
78.933
82.05
91.112
99.682
103.106
106.447
112.637
118.036
119.656
118.14
118.083
124.662
134.418
138.025
135.659
136.07
140.794
145.487
151.999
161.713
166.917
165.827
169.741
180.614
185.609
183.69
186.519
191.595
190.057
190.666
200.72
207.196
204.954
207.471
215.094
214.959
210.112
210.397
212.373
213.256
217.273
220.754
218.705
217.42
220.187
219.517
213.304
207.36
202.513
196.843
192.476
189.133
182.743
173.251
162.62
150.969
141.507
136.461
129.508
117.618
107.707
99.58
86.365
74.153
70.568
65.467
51.666
39.895
35.171
29.806
22.6
17.223
12.105
7.064
3.387
-1.528
-5.725
-3.655
-0.124
-2.518
-7.093
-10.692
-16.092
-18.239
-12.757
-11.597
-21.576
-28.081
-23.715
-21.126
-23.359
-20.27
-15.94
-19.612
-21.961
-15.795
-13.504
-18.852
-19.465
-16.861
-21.149
-25.426
-23.774
-26.574
-33.145
-30.046
-22.222
-22.926
-26.722
-26.025
-25.935
-25.983
-20.703
-16.518
-19.47
-23.046
-24.569
-28.037
-29.239
-25.057
-25.148
-32.684
-36.192
-32.148
-28.093
-24.78
-21.428
-23.898
-29.065
-25.933
-18.225
-17.424
-21.603
-24.709
-27.284
-26.622
-20.356
-15.79
-16.322
-15.852
-14.184
-14.651
-13.114
-9.076
-9.708
-14.122
-15.891
-16.124
-16.086
-12.879
-9.545
-9.563
-8
-4.251
-5.674
-11.429
-13.827
-12.006
-8.926
-7.111
-10.901
-18.061
-19.039
-14.756
-14.474
-15.843
-12.909
-12.559
-18.821
-21.648
-17.139
-12.971
-10.561
-7.851
-9.818
-15.793
-16.594
-14.134
-17.491
-22.092
-20.58
-20.472
-26.668
-29.128
-24.667
-22.977
-25.379
-26.122
-27.065
-28.268
-23.956
-19.039
-22.473
-27.407
-24.589
-19.536
-17.82
-16.403
-15.804
-18.17
-19.491
-19.031
-20.984
-22.772
-20.93
-20.611
-22.751
-20.139
-14.717
-14.705
-17.264
-16.914
-17.113
-19.25
-20.841
-24.58
-29.632
-28.918
-25.058
-25.145
-25.561
-25.522
-32.727
-40.803
-35.675
-24.931
-24.156
-28.878
-30.275
-32.449
-35.571
-32.839
-29.026
-32.119
-34.29
-27.778
-22.789
-27.408
-31.946
-29.308
-26.307
-26.631
-26.02
-24.084
-23.025
-21.81
-20.622
-20.695
-20.015
-17.846
-16.403
-15.493
-14.676
-15.445
-15.774
-13.445
-11.596
-10.088
-5.322
-2.998
-8.992
-13.562
-7.861
0.365
4.237
7.311
10.016
10.203
11.791
16.561
21.076
26.291
33.81
39.039
39.926
39.19
35.904
30.013
27.215
27.821
25.345
20.185
17.134
13.077
4.276
-3.838
-7.169
-9.709
-13.828
-18.567
-25.307
-32.622
-34.614
-31.302
-28.131
-25.631
-21.779
-18.602
-18.151
-19.756
-22.453
-23.258
-19.978
-19.364
-28.117
-37.526
-36.297
-29.757
-26.693
-24.663
-23.231
-27.541
-33.243
-33.268
-32.553
-35.768
-38.264
-38.832
-38.863
-32.542
-17.689
-1.24
15.736
37.272
61.722
91.92
135.909
185.4
225.851
266.018
317.388
362.111
381.308
381.535
363.091
309.751
224.777
126.663
16.905
-104.611
-219.948
-319.669
-418.896
-534.678
-662.029
-766.536
-808.372
-788.447
-747.295
-711.836
-677.383
-635.389
-582.469
-514.185
-433.801
-353.068
-279.848
-219.54
-176.907
-144.546
-110.107
-77.781
-58.741
-49.601
-43.412
-43.173
-48.131
-50.403
-49.554
-46.592
-35.092
-20.801
-23.079
-37.465
-35.86
-16.647
-6.377
-7.435
2.139
19.788
21.765
6.734
-6.38
-9.568
-5.391
6.06
21.977
33.951
36.379
29.727
19.291
12.098
9.484
8.95
13.858
27.197
40.775
45.847
43.951
38.509
32.032
31.361
38.247
44.53
48.319
56.253
66.32
69.314
63.045
52.21
44.689
47.817
56.942
60.07
58.546
61.634
65.525
63.028
61.219
66.743
72.089
72.307
73.552
77.653
80.206
82.504
87.105
90.871
93.408
98.264
103.535
105.71
107.718
112.545
117.561
120.26
121.599
123.554
127.918
134.008
137.505
137.191
138.395
143.88
150.16
156.347
164.095
169.967
171.303
172.637
176.593
181.057
187.43
195.896
199.396
196.817
196.777
199.76
199.05
198.992
205.535
209.304
203.729
199.304
201.968
205.412
209.186
214.591
213.778
206.471
203.934
206.497
206.164
204.52
202.362
193.131
181.506
178.569
178.443
170.911
162.758
160.413
155.615
143.856
130.62
118.205
107.817
102.309
96.265
82.648
66.537
55.55
49.75
47.338
44.428
35.703
25.324
21.436
20.907
17.203
12.113
7.428
1.711
-2.008
-1.924
-3.924
-9.896
-13.398
-12.984
-12.681
-11.619
-10.448
-15.88
-25.147
-26.973
-23.256
-23.46
-24.749
-23.297
-25.312
-29.413
-26.938
-22.759
-24.764
-26.02
-23.033
-24.765
-29.609
-27.639
-24.12
-27.136
-28.857
-24.66
-22.763
-23.509
-21.345
-21.558
-26.681
-27.896
-26.264
-30.26
-32.876
-25.575
-18.008
-17.821
-19.069
-19.846
-21.092
-18.616
-17.364
-25.423
-31.473
-25.55
-22.244
-29.341
-31.896
-25.991
-22.654
-21.487
-18.796
-19.323
-20.913
-19.252
-21.745
-27.477
-21.938
-9.719
-10.752
-21.558
-24.212
-20.391
-19.116
-16.656
-13.607
-18.956
-27.477
-26.636
-20.427
-18.144
-16.566
-11.957
-8.728
-9.747
-13.412
-15.633
-12.242
-8.599
-13.411
-19.26
-15.593
-11.643
-15.132
-13.778
-5.373
-7
-17.639
-18.033
-9.96
-9.363
-13.015
-11.441
-11.353
-17.744
-21.956
-20.363
-18.641
-18.507
-19.428
-22.814
-25.524
-23.753
-21.134
-20.251
-18.17
-16.507
-18.315
-18.722
-15.849
-16.318
-19.468
-19.001
-19.277
-24.568
-25.826
-19.577
-16.682
-20.467
-23.038
-23.03
-22.963
-20.463
-17.664
-20.339
-23.947
-21.863
-19.567
-22.065
-23.796
-23.03
-25.287
-29.296
-30.45
-31.583
-33.762
-32.465
-31.232
-36.192
-40.049
-36.002
-32.469
-34.578
-35.016
-31.918
-30.298
-30.636
-34.304
-42.692
-46.476
-40.776
-38.393
-43.337
-40.905
-31.189
-30.303
-34.904
-31.236
-25.519
-26.423
-26.519
-24.068
-26.808
-31.136
-29.793
-26.726
-26.018
-26.594
-29.038
-31.349
-29.851
-27.818
-26.7
-21.205
-15.664
-19.857
-25.687
-19.621
-9.247
-7.243
-8.663
-7.28
-8.564
-13.031
-12.973
-8.779
-6.913
-7.759
-9.085
-9.352
-4.574
4.024
7.922
7.409
10.829
16.28
18.296
22.037
28.592
28.614
23.444
22.911
23.289
17.254
10.705
7.397
1.232
-6.632
-9.656
-11.093
-16.135
-22.757
-30.536
-39.701
-43.54
-39.497
-35.331
-33.701
-30.177
-27.365
-29.823
-32.765
-31.576
-28.857
-26.255
-24.581
-27.26
-32.328
-34.339
-36.644
-42.727
-43.824
-35.902
-31.073
-35.442
-40.481
-43.718
-48.853
-48.965
-39.013
-31.609
-35.545
-39.184
-31.855
-17.449
0.325
22.254
45.003
67.651
97.83
138.601
183.327
229.709
280.647
328.758
359.67
369.62
361.489
330.365
269.284
180.094
71.379
-45.285
-160.198
-270.945
-378.21
-486.517
-606.741
-730.197
-814.058
-828.367
-793.625
-746.54
-703.272
-664.241
-618.446
-550.718
-466.301
-385.419
-313.554
-248.161
-196.563
-159.508
-124.791
-90.685
-66.511
-52.902
-45.184
-43.061
-44.801
-47.5
-51.33
-51.842
-42.092
-27.802
-21.582
-24.376
-28.126
-27.117
-18.98
-6.505
3.351
9.335
13.488
11.221
1.521
-3.899
1.471
9.581
15.912
24.105
31.547
32.972
30.934
26.873
18.166
10.556
13.353
25.922
42.554
55.79
54.4
40.336
33.463
39.636
42.669
38.294
38.825
45.558
51.607
58.593
65.987
65.733
58.513
53.222
52.943
57.33
66.139
73.617
74.983
74.649
75.948
76.192
77.385
83.368
88.948
89.314
89.303
91.208
90.826
90.746
97.656
108.175
114.299
115.262
113.515
110.179
108.34
111.082
118.189
128.279
137.49
139.846
136.974
137.546
142.636
146.704
150.81
157.655
163.564
168.96
178.958
188.452
188.901
184.984
185.018
188.327
192.385
195.731
195.554
194.914
199.792
205.897
206.679
206.854
210.714
212.939
212.135
213.696
216.44
215.577
214.282
216.663
218.264
214.46
208.122
202.957
198.79
195.083
191.36
186.31
180.498
174.089
164.058
152.38
146.999
145.851
137.873
124.666
116.556
109.596
94.872
80.016
74.378
71.172
64.619
60.1
56.723
46.942
34.029
26.203
21.403
14.382
6.536
0.629
-3.296
-6.029
-8.241
-8.425
-5.33
-4.161
-8.937
-12.743
-10.871
-11.218
-17.526
-21.681
-20.78
-20.016
-19.512
-17.833
-19.296
-24.481
-27.282
-26.353
-25.688
-26.359
-27.001
-26.382
-24.319
-24.704
-29.276
-30.098
-23.738
-21.127
-25.948
-26.246
-20.85
-22.485
-29.546
-29.054
-23.151
-22.428
-25.186
-24.863
-22.582
-21.438
-22.241
-25.863
-29.88
-28.928
-23.988
-22.267
-26.027
-30.198
-30.316
-26.875
-23.596
-22.878
-22.577
-21.68
-25.044
-31.992
-31.155
-20.298
-12.814
-14.045
-16.238
-18.374
-23.359
-24.942
-20.222
-16.836
-16.817
-16.398
-18.558
-23.57
-22.226
-14.311
-11.517
-15.767
-18.883
-20.16
-22.821
-23.547
-20.408
-18.248
-19.035
-18.831
-16.639
-16.455
-18.775
-18.967
-16.85
-16.89
-17.384
-14.702
-14.774
-22.091
-27.279
-22.85
-16.429
-16.047
-18.801
-20.813
-23.769
-27.957
-29.229
-26.137
-23.664
-25.259
-26.607
-24
-21.307
-21.144
-20.409
-19.781
-22.988
-26.641
-26.223
-25.341
-26.34
-24.873
-20.978
-19.626
-20.803
-22.991
-27.553
-31.186
-29.123
-26.786
-31.006
-36.38
-35.538
-30.9
-26.9
-24.591
-25.209
-27.131
-26.059
-24.034
-25.879
-29.571
-32.64
-36.228
-36.851
-32.534
-31.658
-36.842
-38.091
-33.954
-32.708
-32.888
-30.407
-31.125
-35.656
-35.772
-33.752
-37.356
-41.435
-39.269
-35.607
-33.493
-30.386
-29.608
-33.926
-36.867
-34.866
-31.869
-28.916
-26.463
-28.736
-33.697
-34.434
-32.394
-31.43
-28.555
-24.94
-27.061
-31.241
-30.585
-30.604
-34.544
-32.464
-23.854
-22.391
-28.056
-27.88
-23.407
-24.827
-29.051
-29.408
-28.827
-28.777
-26.329
-24.612
-26.552
-26.494
-22.505
-20.934
-21.096
-15.829
-7.772
-5.218
-7.884
-10.998
-12.563
-11.136
-7.606
-5.215
-2.3
3.294
6.202
5.144
9.338
19.918
25.764
25.185
26.651
29.357
27.978
25.961
24.836
19.309
12.19
10.331
8.428
-0.149
-9.582
-14.773
-18.944
-22.398
-23.278
-25.136
-29.945
-33.943
-35.013
-34.082
-33.249
-35.476
-37.908
-33.992
-28.096
-29.115
-31.973
-28.877
-25.786
-27.946
-30.421
-32.049
-35.144
-35.791
-33.934
-36.847
-42.437
-42.656
-41.881
-46.354
-48.539
-44.156
-42.542
-45.771
-44.37
-36.968
-27.334
-10.358
15.574
39.958
61.601
94.194
138.768
180.558
219.197
267.345
319.45
356.418
371.431
363.136
325.235
260.045
176.693
76.465
-39.036
-160.572
-279.817
-390.571
-496.655
-617.233
-745.666
-828.355
-834.221
-798.605
-760.514
-720.774
-676.72
-630.235
-568.941
-487.817
-402.251
-322.451
-252.843
-204.641
-173.949
-138.194
-93.789
-60.17
-46.609
-46.651
-50.988
-50.299
-45.206
-47.311
-53.337
-45.086
-25.921
-19.368
-28.368
-33.253
-25.565
-14.069
-5.511
1.277
8.461
13.667
10.055
-3.288
-13.685
-9.622
3.32
14.077
21.285
26.367
27.525
25.615
21.989
15.65
11.518
17.426
30.786
43.766
53.333
55.214
46.641
38.187
39.587
42.554
40.188
42.162
52.282
59.422
60.181
61.038
60.585
55.8
53.183
55.455
56.973
58.94
65.926
72.397
73.627
74.908
77.643
78.148
80.074
85.111
84.72
78.697
78.623
85.364
90.263
93.873
98.928
100.319
99.058
104.026
113.194
117.09
117.452
121.256
126.905
130.958
134.625
137.906
139.901
141.833
143.237
144.328
149.104
156.501
161.98
169.706
180.938
182.386
171.711
168.343
178.783
187.509
189.781
193.417
194.944
190.246
190.769
202.557
213.171
214.137
211.791
211.407
211.604
213.03
217.357
220.277
215.769
207.157
204.906
209.667
209.81
202.598
198.973
199.849
193.388
180.672
174.245
172.559
165.427
154.814
145.94
135.683
123.844
114.078
103.514
91.869
86.232
83.203
72.604
61.432
60.978
60.338
46.789
31.372
25.924
23.547
19.182
16.62
11.473
-0.517
-8.733
-7.572
-7.963
-13.034
-13.5
-10.832
-13.253
-17.186
-16.659
-14.552
-13.941
-15.669
-20.438
-22.891
-18.697
-15.827
-19.663
-21.849
-19.749
-21.425
-24.287
-19.889
-15.566
-20.981
-28.274
-28.944
-27.654
-27.053
-24.382
-23.389
-27.595
-31.172
-30.083
-27.957
-27.272
-27.367
-27.149
-24.98
-22.933
-24.999
-26.703
-22.264
-18.436
-21.015
-22.502
-20.646
-23.421
-27.483
-23.575
-18.069
-19.107
-20.134
-17.748
-18.094
-18.863
-14.09
-9.714
-11.826
-16.223
-19.385
-19.962
-14.827
-9.469
-13.334
-19.531
-16.519
-11.609
-14.523
-18.205
-17.489
-18.443
-19.593
-14.927
-11.836
-16.901
-19.601
-13.868
-10.644
-13.488
-12.708
-9.297
-12.321
-17.025
-14.302
-9.001
-8.362
-10.711
-14.756
-19.837
-19.984
-14.824
-12.871
-15.118
-15.114
-13.245
-12.081
-9.863
-8.732
-11.184
-11.707
-9.046
-10.185
-13.43
-12.352
-12.411
-17.975
-19.597
-13.753
-10.587
-13.383
-15.866
-16.346
-15.461
-13.228
-14.992
-21.96
-24.439
-20.779
-20.134
-19.966
-13.079
-8.447
-12.462
-14.038
-10.757
-13.352
-18.913
-18.707
-19.042
-23.758
-24.314
-21.402
-22.686
-23.876
-20.268
-17.645
-17.895
-18.287
-20.254
-20.641
-15.346
-14.494
-24.075
-29.166
-23.531
-22.233
-28.01
-27.772
-23.117
-23.613
-24.953
-22.97
-23.488
-25.786
-24.835
-24.993
-28.187
-27.239
-22.984
-22.607
-23.351
-21.632
-22.58
-25.489
-23.501
-19.644
-19.139
-17.733
-15.428
-19.299
-25.302
-24.153
-21.044
-24.404
-28.94
-28.072
-24.215
-19.39
-15.01
-16.092
-20.888
-21.594
-20.585
-23.964
-25.117
-18.253
-12.857
-15.548
-18.515
-17.125
-16.367
-16.425
-12.361
-5.881
-2.571
-3.029
-4.156
-3.036
1.038
5.126
6.79
7.209
6.487
4.645
7.179
16.705
25.106
26.724
26.754
28.199
28.349
29.825
35.609
38.923
34.234
26.138
18.907
13.029
10.971
11.618
8.565
2.205
-2.139
-6.651
-13.812
-18.294
-19.995
-25.116
-29.633
-27.486
-27.161
-33.36
-33.31
-23.878
-20.941
-27.518
-29.415
-26.042
-28.171
-32.398
-30.719
-28.714
-30.846
-31.185
-29.227
-30.105
-32.106
-32.919
-34.609
-35.226
-33.759
-36.37
-42.284
-42.107
-35.448
-25.946
-8.697
14.204
30.538
44.974
74.469
116.316
156.804
196.927
241.367
286.18
328.621
362.08
369.464
344.863
298.69
230.63
133.117
18.634
-95.645
-211.435
-326.784
-431.359
-541.719
-678.148
-802.902
-854.704
-833.469
-786.038
-738.925
-694.655
-651.476
-596.7
-519.674
-433.736
-356.237
-287.965
-229.037
-183.411
-144.676
-106.121
-75.094
-58.623
-51.344
-45.697
-40.053
-37.718
-43.301
-53.187
-53.82
-39.332
-22.285
-18.503
-27.905
-34.179
-23.722
-4.824
3.698
3.256
9.554
18.242
12.091
-3.829
-10.146
-3.576
8.607
24.193
38.143
41.654
36.018
28.526
20.163
12.507
12.894
22.111
32.883
42.712
52.169
56.228
51.283
42.294
36.249
36.023
39.973
45.409
54.636
68.464
75.103
66.294
55.956
57.439
61.77
61.308
64.406
71.302
71.481
68.425
72.361
78.581
80.089
80.874
82.586
83.484
88.069
95.459
96.648
94.933
100.037
105.9
105.277
106.908
114.276
117.11
114.396
114.023
114.934
115.745
122.728
133.362
136.806
134.418
135.391
139.255
141.962
146.242
155.032
166.645
176.388
177.48
170.908
170.553
181.897
190.346
188.061
187.916
196.433
202.635
202.146
202.853
206.529
209.787
214.458
219.633
219.787
217.549
217.868
215.958
210.508
209.947
213.708
213.06
209.331
207.319
204.716
201.306
198.469
192.479
184.699
180.599
174.542
161.29
150.744
147.096
139.532
127.503
120.366
113.57
100.937
92.32
90.362
81.587
65.824
55.796
49.341
38.964
30.959
28.036
21.591
12.883
10.141
9.177
4.44
1.522
0.566
-6.136
-13.692
-11.92
-7.72
-11.685
-17.691
-18.304
-18.796
-21.898
-21.67
-17.731
-16.625
-20.475
-25.28
-26.219
-22.831
-21.237
-25.291
-29.616
-31.14
-34.707
-38.851
-36.372
-31.37
-32.303
-35.226
-35.257
-37.677
-42.223
-40.193
-33.532
-31.362
-32.811
-34.395
-37.48
-37.882
-32.148
-28.49
-29.062
-25.237
-21.739
-28.841
-36.649
-34.378
-30.942
-31.075
-27.611
-24.33
-28.733
-33.21
-30.722
-26.282
-22.237
-18.034
-18.908
-24.464
-25.762
-22.336
-19.866
-16.369
-12.185
-16.128
-26.193
-28.879
-23.088
-18.698
-17.523
-17.182
-18.896
-19.88
-17.103
-16.888
-22.443
-25.791
-24.926
-26.902
-29.739
-26.374
-21.818
-23.642
-27.427
-27.633
-26.34
-24.176
-20.083
-18.337
-21.247
-23.257
-21.341
-19.899
-21.982
-25.488
-27.663
-28.676
-31.272
-34.445
-31.382
-23.084
-22.029
-29.23
-29.666
-21.684
-20.058
-25.652
-26.632
-23.988
-24.771
-25.791
-25.392
-28.416
-31.437
-28.627
-26.145
-27.954
-26.497
-22.93
-27.466
-34.777
-32.928
-28.934
-33.106
-37.607
-35.289
-32.759
-32.129
-28.404
-25.037
-27.72
-31.844
-32.106
-31.337
-32.52
-33.524
-31.037
-25.602
-23.68
-29.048
-33.986
-32.53
-32.206
-36.208
-35.75
-32.412
-35.954
-39.221
-32.69
-28.88
-36.673
-40.942
-34.462
-31.636
-36.988
-39.497
-37.907
-38.476
-38.968
-36.67
-35.116
-34.476
-32.452
-31.099
-30.759
-28.585
-26.453
-26.755
-26.506
-25.852
-28.369
-30.217
-27.223
-25.206
-26.046
-21.976
-14.961
-15.128
-18.863
-17.047
-14.014
-15.221
-16.076
-14.074
-10.945
-6.373
-3.223
-4.555
-4.733
-0.155
3.417
4.343
6.37
7.932
9.06
15.569
24.438
26.299
24.345
27.059
30.563
29.432
28.343
27.822
20.128
6.887
-1.325
-2.782
-3.769
-7.177
-13.776
-23.057
-28.829
-27.74
-27.105
-31.547
-35.521
-36.727
-37.857
-36.889
-34.211
-35.583
-37.152
-31.744
-27.656
-32.006
-33.439
-28.42
-31.96
-42.958
-41.801
-30.589
-29.195
-35.671
-34.835
-30.54
-32.404
-34.754
-34.101
-38.017
-45.087
-45.485
-39.859
-34.677
-29.376
-19.805
-3.159
19.487
42.055
64.648
95.803
133.571
168.905
208.728
261.82
314.862
352.003
369.848
359.945
313.889
240.049
147.267
37.7
-76.143
-182.813
-288.468
-397.583
-507.237
-621.029
-727.113
-785.675
-779.679
-741.989
-706.097
-672.589
-632.825
-582.73
-515.066
-433.166
-361.369
-314.286
-274.878
-225.136
-172.331
-128.704
-95.299
-74.062
-66.948
-63.673
-53.407
-41.88
-41.044
-49.015
-51.484
-41.303
-28.177
-24.293
-28.396
-32.045
-31.347
-24.242
-10.081
2.684
5.304
3.46
3.973
-0.773
-13.581
-18.831
-7.691
8.822
22.303
33.911
39.302
33.481
22.337
12.327
4.525
4.023
15.413
32.289
45.356
50.208
44.452
33.249
30.006
37.393
43.783
44.679
46.292
50.337
55.072
60.933
63.46
57.808
51.667
53.996
59.4
61.298
64.478
71.234
74.372
72.214
72.044
76.033
79.274
79.767
79.795
82.097
88.02
94.632
97.815
99.845
104.546
108.898
110.056
111.461
114.377
115.876
117.567
123.564
132.38
140.14
145.27
146.75
146.141
147.771
151.127
153.452
158.362
167.392
174.364
179.235
186.631
191.736
192.962
200.208
210.471
209.89
205.543
211.899
218.988
215.641
214.311
221.842
225.656
223.587
225.555
228.912
228.17
229.74
233.366
230.03
225.166
228.167
230.003
223.208
217.868
217.506
213.126
205.383
200.212
193.556
183.221
175.036
168.49
158.753
147.958
138.067
127.127
117.556
110.676
101.188
89.821
82.362
74.064
59.361
46.575
41.159
34.983
25.312
19.037
15.796
10.635
6.185
4.58
1.318
-3.136
-3.491
-2.719
-6.308
-11.061
-15.272
-22.483
-26.99
-22.338
-20.15
-29.196
-34.993
-28.741
-24.001
-26.284
-25.169
-21.247
-24.015
-29.729
-29.24
-25.975
-28.495
-35.428
-37.969
-33.127
-27.941
-28.468
-31.324
-32.706
-35.408
-38.065
-33.397
-25.229
-25.877
-33.647
-37.208
-36.329
-35.94
-34.522
-32.378
-32.585
-33.353
-34.141
-36.317
-34.917
-29.482
-29.947
-35.212
-32.787
-25.009
-22.921
-23.768
-23.581
-29.128
-37.86
-36.124
-25.867
-22.811
-28.784
-32.945
-33.628
-35.417
-34.13
-25.223
-17.375
-20.608
-29.527
-32.07
-27.696
-24.612
-24.138
-21.301
-18.164
-20.903
-25.622
-24.351
-20.632
-21.111
-21.465
-18.326
-18.988
-24.175
-23.716
-18.927
-21.704
-29.314
-29.62
-25.233
-25.063
-24.946
-18.889
-12.775
-12.202
-13.964
-15.523
-17.174
-17.187
-16.636
-19.276
-21.9
-20.495
-20.915
-25.712
-26.584
-23.721
-26.623
-31.286
-27.787
-22.789
-24.787
-25.763
-19.869
-15.319
-16.373
-18.34
-20.193
-23.444
-27.252
-32.066
-35.998
-34.148
-30.979
-34.417
-37.284
-30.786
-24.26
-26.056
-28.416
-27.005
-25.754
-22.849
-19.436
-24.493
-34.159
-35.517
-31.04
-28.597
-25.099
-21.932
-26.616
-32.918
-30.72
-25.403
-24.484
-25.632
-27.563
-30.428
-28.189
-18.812
-12.13
-14.995
-20.369
-20.267
-17.526
-16.152
-12.779
-6.542
-3.48
-4.501
-3.257
1.511
3.913
0.804
-2.941
0.49
10.619
17.432
17.124
16.743
17.943
15.828
13.904
18.039
23.482
25.165
25.732
25.598
22.399
18.05
14.149
10.05
7.728
6.585
1.032
-8.539
-16.096
-21.126
-24.571
-23.251
-20.302
-24.163
-31.255
-30.983
-26.296
-26.338
-27.681
-24.464
-22.301
-25.315
-27.979
-28.591
-31.018
-33.019
-30.698
-27.989
-29.131
-31.855
-34.663
-39.915
-46.078
-46.61
-40.452
-35.622
-37.495
-41.908
-44.022
-42.905
-36.724
-26.292
-17.212
-7.413
11.977
37.128
57.303
79.993
119.363
165.736
201.086
234.519
286.588
347.115
380.167
367.394
322.226
260.057
178.008
74.409
-35.327
-137.711
-235.22
-333.748
-436.959
-548.052
-655.586
-730.624
-755.293
-740.827
-710.624
-678.204
-643.414
-600.358
-542.586
-465.571
-379.635
-314.479
-284.023
-258.755
-207.852
-147.652
-111.062
-97.828
-89.312
-79.89
-68.784
-53.855
-44.117
-47.37
-51.56
-44.913
-35.025
-30.857
-31.324
-35.365
-39.763
-35.201
-19.449
-1.618
9.13
9.132
1.969
-3.53
-6.04
-11.235
-13.507
-1.906
16.628
28.29
35.218
40.667
34.963
17.767
5.614
7.113
16.369
27.041
34.895
37.384
36.67
34.782
32.294
32.86
36.912
38.507
38.227
43.665
53.182
58.762
61.255
62.862
57.547
47.84
48.765
59.759
63.623
60.31
63.187
66.984
61.297
57.497
65.821
75.387
78.764
81.178
82.58
82.339
87.149
95.279
98.389
100.262
106.031
108.258
105.046
106.109
112.102
116.042
120.027
127.61
134.607
139.783
146.169
151.339
152.855
155.136
160.38
165.441
170.846
179.09
187.009
190.968
192.243
192.132
191.636
194.18
199.406
202.342
203.849
208.879
214.752
216.251
216.48
219.045
220.32
219.116
219.525
219.933
215.663
210.668
210.389
211.434
211.416
213.341
213.608
207.233
200.985
198.49
190.637
178.278
172.533
167.826
153.244
138.273
132.693
128.083
119.72
112.896
104.933
91.501
79.458
73.453
67.12
56.212
45.287
39.23
35.903
29.02
18.264
10.639
7.93
4.558
0.132
-1.848
-3.908
-7.693
-9.209
-10.067
-14.863
-19.389
-20.999
-25.452
-29.863
-25.579
-20.541
-26.044
-32.001
-27.569
-23.302
-26.664
-27.572
-24.169
-26.375
-30.803
-27.99
-23.686
-24.532
-25.928
-28.31
-34.484
-35.569
-29.352
-28.949
-35.227
-36.849
-36.258
-38.759
-37.076
-31.03
-29.034
-27.483
-22.899
-24.895
-32.361
-30.875
-22.863
-22.574
-28.284
-31.183
-32.251
-31.379
-25.575
-21.148
-23.346
-26.443
-29.021
-34.476
-35.796
-28.45
-23.525
-25.434
-24.454
-21.205
-23.957
-26.306
-20.647
-16.644
-21.535
-27.108
-28.8
-30.95
-32.8
-31.339
-29.216
-27.432
-23.836
-20.979
-21.967
-23.38
-21.49
-18.42
-18.269
-21.775
-24.962
-23.752
-20.536
-19.538
-17.883
-13.442
-14.108
-22.733
-26.73
-20.609
-17.077
-20.715
-21.226
-20.026
-25.819
-29.146
-20.554
-13.459
-16.792
-19.234
-17.537
-19.18
-19.224
-12.926
-11.31
-17.676
-19.981
-17.164
-18.561
-21.706
-21.071
-22.77
-28.867
-29.667
-23.216
-19.235
-21.876
-26.528
-27.864
-22.585
-14.075
-12.38
-20.195
-28.698
-31.882
-31.431
-28.591
-24.271
-22.777
-26.552
-31.698
-32.526
-28.13
-23.838
-25.53
-32.131
-37.178
-37.723
-36.272
-35.256
-35.209
-35.188
-32.849
-29.928
-32.328
-37.014
-33.849
-26.8
-29.047
-36.166
-34.447
-28.776
-30.967
-35.372
-33.501
-31.789
-35.156
-37.021
-35.465
-35.348
-35.099
-31.828
-29.535
-29.037
-26.192
-23.245
-23.267
-21.581
-17.477
-16.362
-15.762
-12.478
-13.969
-21.19
-22.675
-17.452
-14.466
-11.952
-5.604
-1.141
0.026
3.486
6.654
6.476
10.42
19.073
20.623
14.559
13.94
21.22
26.113
23.574
16.682
9.427
5.267
4.239
1.323
-5.518
-12.525
-18.276
-24.106
-28.863
-32.456
-36.556
-38.947
-38.175
-37.147
-34.121
-26.831
-24.648
-33.033
-38.561
-33.142
-28.895
-31.931
-33.388
-32.602
-35.834
-38.097
-34.261
-31.72
-33.962
-34.077
-31.492
-32.495
-37.05
-41.404
-44.105
-43.88
-42.764
-44.795
-45.191
-36.376
-20.734
-1.084
24.139
48.479
68.4
98.362
144.745
192.096
236.871
290.008
339.79
364.386
367.915
357.9
320.113
247.406
152.234
42.882
-75.099
-188.339
-290.751
-389.717
-496.836
-619.525
-737.592
-802.288
-795.006
-754.269
-717.407
-683.665
-644.408
-596.736
-532.217
-452.524
-377.588
-316.922
-261.126
-207.265
-162.533
-127.053
-97.394
-76.943
-66.6
-58.705
-50.094
-47.338
-53.743
-63.005
-66.449
-59.058
-44.351
-34.932
-36.218
-36.739
-29.028
-21.088
-14.355
-0.314
14.079
12.478
-2.266
-16.751
-27.932
-31.816
-18.591
5.954
22.668
24.659
17.952
8.337
2.321
4.435
10.337
15.426
21.814
30.59
38.33
40.151
33.171
24.286
25.368
32.97
33.674
31.942
41.927
55.753
55.739
47.602
46.395
47.871
44.583
44.35
50.394
54.106
56.247
62.638
66.198
62.619
61.97
65.991
66.603
68.562
75.886
74.837
65.463
70.845
90.006
95.254
85.688
85.358
96.028
102.786
105.383
108.788
109.783
109.504
114.563
124.145
132.161
136.141
137.924
141.022
145.25
145.639
143.984
150.077
162.774
169.649
170.549
175.402
180.862
178.768
177.367
185.274
192.468
190.539
187.724
190.151
194.598
200.443
205.477
203.475
199.336
201.985
204.971
202.336
203.152
208.313
206.516
200.635
200.809
201.576
197.133
195.198
196.323
189.675
175.953
166.445
163.054
159.912
154.853
147.449
136.502
123.36
111.011
102.093
97.717
93.281
82.463
68.673
60.43
56.594
50.223
41.826
36.506
34.121
29.962
21.613
12.354
6.79
3.563
-1.934
-9.275
-15.676
-20.874
-22.138
-16.437
-11.242
-16.448
-26.516
-28.629
-23.445
-20.727
-21.683
-21.517
-22.207
-27.258
-31.13
-28.583
-24.64
-23.49
-21.74
-19.002
-18.743
-20.193
-22.328
-25.401
-24.668
-18.955
-17.367
-22.522
-25.795
-24.739
-22.14
-16.628
-12.739
-18.447
-26.383
-25.149
-20.405
-20.121
-19.656
-16.92
-18.106
-23.827
-28.101
-27.416
-23.006
-20.179
-22.229
-23.36
-19.004
-16.418
-19.94
-21.513
-19.087
-20.928
-25.022
-22.723
-19.32
-21.827
-22.363
-18.091
-19.227
-23.368
-18.985
-13.103
-16.736
-20.136
-14.948
-11.862
-15.77
-16.706
-12.569
-10.76
-11.401
-11.127
-11.906
-13.115
-10.085
-4.945
-3.773
-5.738
-7.218
-8.474
-8.42
-3.899
2.575
5.212
3.825
1.837
0.186
-1.767
-4.646
-8.509
-10.767
-9.975
-10.489
-14.712
-17.453
-16.328
-15.51
-14.875
-11.588
-10.02
-13.146
-14.236
-10.855
-10.444
-14.091
-13.956
-8.952
-7.119
-13.282
-22.447
-25.608
-21.755
-18.739
-18.845
-17.35
-17.929
-27.01
-34.554
-28.091
-17.372
-17.291
-22.543
-22.721
-20.506
-19.302
-16.905
-17.106
-24.756
-32.143
-29.667
-22.779
-22.778
-27.591
-25.489
-15.969
-12.615
-20.549
-27.367
-25.467
-23.522
-26.26
-26.563
-24.358
-27.564
-33.089
-31.958
-27.531
-27.096
-27.868
-26.404
-24.87
-22.016
-16.3
-13.752
-17.534
-21.721
-22.195
-18.762
-11.967
-9.863
-19.855
-29.687
-23.871
-12.669
-13.318
-18.559
-14.642
-8.335
-9.593
-11.339
-5.93
0.508
1.252
-1.806
-4.63
-3.75
2.667
9.874
12.425
14.194
20.338
26.739
28.593
27.972
27.174
26.95
28.959
30.818
28.026
22.944
19.454
14.831
7.455
1.133
-3.012
-7.724
-14.618
-23.057
-28.588
-27.418
-26.049
-31.465
-35.343
-29.812
-25.5
-30.988
-36.175
-33.905
-31.623
-32.88
-33.016
-32.271
-33.877
-37.327
-42.396
-48.387
-51.027
-49.99
-50.117
-51.003
-49.598
-50.229
-55.383
-56.192
-48.954
-45.025
-49.188
-49.966
-42.096
-32.69
-21.412
-1.884
21.76
44.454
73.781
114.612
158.02
198.923
245.112
298.651
345.017
369.413
371.464
354.745
312.555
237.456
137.118
26.238
-89.693
-208.462
-320.688
-424.701
-538.345
-668.259
-779.817
-830.018
-818.241
-777.466
-734.099
-695.397
-654.058
-596.741
-522.601
-444.626
-369.575
-298.488
-238.734
-192.702
-152.244
-115.677
-87.464
-66.211
-52.116
-47.634
-46.403
-46.139
-55.197
-65.13
-55.104
-34.359
-30.664
-41.097
-43.589
-37.367
-31.007
-20.303
-5.467
2.949
5.952
10.611
8.996
-4.609
-14.051
-7.441
3.695
10.681
20.329
31.562
32.621
23.28
14.012
9.555
9.186
13.025
21.609
34.726
46.994
48.584
40.683
36.343
37.475
34.911
32.455
40.873
54.737
62.277
63.512
61.446
56.541
55.353
62.065
67.807
66.622
65.579
69.013
73.75
79.133
83.617
82.932
80.577
82.678
86.147
87.614
89.54
90.982
91.206
95.499
102.148
102.945
101.809
107.122
113.551
116.426
123.476
133.565
133.905
128.197
133.029
146.444
153.413
152.632
151.196
150.443
152.422
159.895
169.122
177.957
187.361
191.512
188.579
189.916
198.512
202.799
201.591
204.673
211.343
214.63
214.756
214.239
215.071
220.494
226.906
226.227
221.679
222.474
226.381
226.681
224.955
223.011
218.965
216.874
220.728
222.179
213.82
203.793
200.118
197.126
189.844
182.222
174.929
163.886
150.765
140.893
135.079
129.321
118.431
103.578
94.857
94.761
89.938
74.375
59.963
52.689
45.989
39.305
35.104
28.295
19.208
15.763
15.354
10.235
4.175
1.879
-0.552
-3.013
-1.972
-2.733
-9.664
-15.583
-15.653
-14.212
-13.356
-13.159
-16.404
-19.746
-16.492
-11.574
-12.595
-14.74
-14.117
-16.172
-19.36
-17.115
-14.796
-17.553
-17.16
-12.308
-13.984
-20.211
-19.734
-17.094
-20.67
-23.08
-19.265
-17.679
-19.917
-18.595
-15.771
-17.298
-19.398
-18.57
-17.892
-17.521
-16.692
-18.67
-21.227
-19
-17.428
-21.856
-23.389
-17.863
-16.553
-22.135
-23.962
-21.571
-21.327
-19.702
-15.692
-16.871
-20.25
-17.43
-14.386
-17.077
-17.658
-14.249
-15.226
-19.27
-19.394
-17.747
-17.651
-17.316
-16.543
-15.445
-13.884
-15.685
-19.559
-17.474
-12.737
-14.56
-16.585
-12.003
-10.691
-15.399
-15.4
-13.649
-18.778
-21.329
-15.245
-13.452
-18.518
-17.354
-11.217
-11.592
-15.298
-14.712
-14.132
-16.681
-16.837
-13.827
-12.854
-14.602
-17.051
-19.446
-19.55
-17.301
-16.394
-16.333
-16.16
-21.271
-29.527
-28.579
-20.376
-19.325
-23.278
-21.066
-18.185
-21.504
-21.595
-15.662
-15.809
-22.399
-25.016
-26.129
-31.11
-32.365
-26.438
-22.251
-23.635
-26.77
-29.905
-31.17
-29.222
-27.909
-28.845
-29.206
-30.843
-35.521
-37.033
-33.162
-31.335
-33.522
-34.008
-32.864
-33.047
-31.43
-28.162
-30.197
-35.361
-34.113
-29.874
-32.163
-36.117
-34.241
-32.294
-33.619
-31.694
-27.912
-30.057
-35.37
-37.084
-35.043
-29.977
-25.647
-30.152
-38.266
-34.858
-24.29
-23.632
-30.58
-32.463
-30.988
-30.897
-29.014
-28.127
-33.069
-35.113
-27.247
-19.589
-19.238
-18.381
-13.539
-11.085
-11.711
-11.039
-9.727
-9.215
-8.555
-8.852
-8.293
-1.325
7.445
8.233
7.306
16.237
27.818
30.113
27.197
26.109
25.442
24.071
21.666
16.07
9.388
4.014
-2.347
-7.169
-6.676
-9.042
-19.67
-27.521
-27.795
-30.949
-37.215
-36.574
-33.224
-36.461
-40.699
-40.362
-41.413
-43.948
-41.152
-36.749
-37.631
-39.674
-38.948
-38.522
-37.911
-36.208
-38.341
-42.752
-41.649
-38.385
-40.443
-43.265
-42.1
-41.171
-41.199
-41.393
-47.843
-57.369
-53.908
-37.307
-24.238
-14.495
5.388
30.692
51.435
79.193
123.631
171.519
215.904
265.273
312.538
341.903
357.682
362.853
338.761
277.792
195.319
99.197
-12.057
-131.495
-250.32
-363.192
-470.497
-588.476
-719.658
-817.432
-839.651
-810.566
-773.325
-733.941
-688.464
-639.096
-575.169
-493.751
-415.014
-346.836
-280.531
-222.512
-180.348
-141.818
-103.067
-77.529
-65.346
-56.725
-53.621
-55.342
-52.637
-50.301
-56.263
-56.131
-39.876
-27.707
-33.849
-41.202
-35.526
-24.918
-15.78
-6.132
-0.22
-2.158
-6.933
-11.729
-17.373
-18.267
-11.134
-2.307
6.758
19.224
26.781
21.355
12.275
8.162
4.636
3.554
13.196
28.059
37.748
42.307
40.66
31.055
24.844
28.198
27.964
21.845
26.96
43.124
50.534
45.739
41.743
42.445
43.654
44.696
46.372
49.488
55.201
60.946
63.42
64.122
64.574
65.079
69.557
77.316
78.853
74.52
76.437
83.062
83.019
81.553
88.155
94.55
94.655
97.423
103.42
103.884
102.867
108.28
115.606
120.618
125.472
128.001
127.598
131.418
139.437
143.21
144.52
152.487
165.826
175.982
178.686
175.12
172.269
176.938
183.474
183.545
183.792
191.064
195.929
193.036
193.53
201.915
207.467
204.622
199.467
198.241
202.376
207.953
208.161
203.928
203.527
206.444
204.708
200.614
201.144
201.782
197.413
193
188.618
179.137
171.324
171.197
166.823
151.604
138.33
131.16
119.129
103.608
95.209
90.506
82.126
73.591
65.702
53.624
42.846
41.093
40.414
31.264
20.333
15.674
12.221
5.458
0.442
-1.16
-4.845
-10.611
-12.908
-12.021
-12.571
-15.581
-19.39
-22.185
-22.501
-21.549
-21.799
-23.388
-25.639
-27.281
-25.197
-20.325
-19.143
-22.912
-25.389
-23.677
-21.049
-20.908
-23.807
-26.471
-26.016
-26.744
-31.865
-33.865
-29.661
-29.636
-35.176
-33.667
-25.601
-22.847
-22.749
-19.393
-22.005
-31.704
-32.774
-25.252
-24.295
-26.643
-22.063
-20.079
-25.943
-24.271
-13.843
-12.764
-18.745
-15.812
-11.559
-18.508
-24.694
-20.574
-17.426
-19.925
-20.576
-20.059
-20.953
-18.718
-15.307
-16.65
-18.428
-18.025
-22.753
-28.825
-20.802
-3.005
1.158
-13.037
-25.789
-24.919
-17.069
-11.564
-12.573
-19.483
-25.477
-23.81
-16.261
-10.128
-10.099
-14.352
-17.559
-18.437
-18.915
-16.965
-12.213
-11.895
-16.627
-15.524
-8.067
-7.481
-15.417
-20.081
-18.241
-15.699
-15.701
-19.97
-26.393
-27.222
-22.781
-21.387
-21.441
-17.195
-13.827
-15.289
-16.872
-19.45
-26.182
-30.994
-30.723
-29.81
-26.361
-19.272
-18.635
-24.792
-22.886
-14.265
-16.61
-27.35
-28.137
-21.104
-21.376
-26.767
-27.168
-24.777
-23.95
-23.291
-25.213
-30.907
-31.689
-24.442
-19.666
-22.042
-24.379
-24.29
-25.62
-27.355
-26.552
-24.132
-21.486
-19.903
-21.231
-23.909
-25.28
-26.952
-29.886
-31.212
-31.433
-33.758
-36.24
-36.388
-36.043
-33.504
-26.48
-23.425
-30.296
-35.669
-31.007
-25.7
-25.674
-24.468
-22.545
-26.323
-30.5
-26.479
-19.648
-20.662
-29.523
-37.709
-39.049
-35.091
-31.401
-29.75
-28.556
-29.037
-31.567
-30.889
-25.485
-22.047
-22.538
-21.545
-19.339
-19.763
-19.311
-15.463
-13.813
-14.21
-8.705
0.741
4.347
2.18
0.272
-0.464
1.831
10.104
17.239
14.83
9.584
11.486
17.408
22.479
28.888
33.828
31.834
28.716
30.112
29.357
24.793
24.359
24.933
17.714
8.71
5.424
1.292
-7.334
-14.064
-18.379
-23.631
-26.33
-25.931
-28.443
-31.86
-29.591
-26.57
-30.557
-36.599
-36.194
-29.92
-24.054
-23.865
-27.734
-27.381
-22.54
-23.401
-29.423
-28.976
-23.842
-25.734
-32.937
-36.096
-35.393
-34.55
-33.045
-31.694
-32.631
-35.179
-38.267
-38.997
-31.032
-14.824
0.954
15.239
34.133
55.792
78.571
112.428
159.055
203.812
244.215
291.875
339.384
365.517
367.187
349.612
305.19
230.153
135.949
30.882
-84.875
-205.594
-320.129
-426.844
-540.411
-669.382
-783.714
-835.214
-818.684
-774.757
-732.33
-688.57
-636.223
-575.76
-509.455
-439.83
-367.69
-293.911
-226.948
-176.65
-139.79
-106.11
-76.428
-58.738
-49.987
-40.385
-32.099
-33.889
-42.509
-46.664
-41.321
-28.612
-16.588
-16.408
-26.32
-28.877
-17.076
-4.083
2.166
8.821
17.575
19.259
10.072
-3.485
-11.066
-4.707
12.383
28.011
37.333
42.694
40.323
28.407
17.639
14.997
15.944
21.887
38.261
55.347
59.295
53.366
46.77
40.44
36.315
38.526
43.477
47.961
56.004
64.518
63.937
57.982
56.604
56.278
53.372
57.692
70.389
76.206
71.876
70.876
76.37
79.463
78.807
79.195
81.221
83.844
86.547
87.866
88.276
90.674
96.682
104.35
108.252
106.197
104.881
109.27
113.904
115.414
118.619
123.709
126.99
132.164
141.047
145.535
144.304
146.747
152.81
154.371
154.915
162.28
171.189
174.413
176.787
182.707
186.69
186.093
185.874
186.866
187.068
191.887
204.155
213.495
213.376
212.234
215.598
218.729
219.76
219.643
217.025
215.47
219.289
221.626
215.76
208.48
207.56
210.746
212.698
209.883
202.122
193.985
187.086
178.56
171.636
169.07
161.261
144.653
133.441
131.839
125.304
111.492
102.28
95.552
83.446
74.722
75.475
72.433
58.874
46.187
39.712
33.901
28.159
23.894
18.416
12.029
5.916
-1.812
-7.646
-7.563
-8.455
-12.818
-10.268
-2.39
-3.832
-11.923
-13.319
-11.675
-14.063
-13.883
-10.792
-14.694
-22.212
-23.534
-23.351
-26.087
-24.318
-19.775
-22.931
-28.751
-26.502
-21.354
-20.401
-20.517
-21.698
-25.705
-25.726
-19.68
-17.283
-21.684
-25.652
-25.954
-22.899
-17.046
-15.503
-22.074
-25.424
-19.318
-16.031
-20.231
-19.566
-12.909
-12.869
-19.175
-21.732
-20.377
-18.91
-16.499
-14.746
-15.562
-15.508
-14.384
-16.347
-19.305
-18.961
-17.338
-15.831
-12.836
-11.533
-14.05
-14.015
-9.646
-9.323
-13.259
-11.972
-8.656
-15.125
-25.527
-24.708
-16.686
-15.541
-19.542
-18.455
-12.819
-10.014
-11.944
-13.854
-12.006
-10.423
-14.1
-17.845
-15.239
-12.1
-14.587
-16.456
-13.273
-11.58
-13.3
-12.305
-10.148
-11.901
-11.741
-6.422
-7.033
-15.812
-17.858
-11.024
-9.794
-14.913
-15.434
-13.001
-13.635
-13.397
-10.577
-10.581
-14.135
-17.365
-18.178
-16.312
-14.866
-17.294
-20.65
-21.961
-23.238
-22.384
-16.909
-14.812
-19.814
-20.703
-14.124
-12.375
-18.732
-24.421
-27.952
-31.012
-28.111
-19.576
-15.743
-18.771
-21.15
-21.704
-23.597
-24.64
-23.838
-24.579
-25.668
-24.552
-25.931
-32.149
-35.753
-32.903
-29.462
-28.619
-28.018
-27.665
-27.603
-25.062
-21.199
-20.134
-21.89
-25.256
-28.467
-25.367
-16.84
-16.177
-25.256
-28.304
-22.915
-23.709
-30.456
-30.194
-24.977
-24.056
-23.882
-19.428
-15.829
-17.139
-20.145
-20.484
-16.479
-11.881
-12.999
-17.367
-15.936
-8.98
-4.581
-4.249
-4.826
-6.26
-6.636
-1.791
4.877
6.392
5.347
8.231
12.046
11.114
8.732
10.353
15.585
22.455
28.197
28.607
25.878
26.115
27.331
26.836
30.343
35.601
29.804
15.839
9.727
10.894
7.849
1.496
-3.22
-8.511
-14.504
-19.561
-25.462
-29.955
-30.326
-31.43
-32.76
-28.677
-27.971
-37.662
-40.737
-29.081
-23.165
-29.893
-32.231
-29.284
-31.8
-32.938
-28.154
-30.091
-39.02
-41.194
-38.447
-40.014
-42.038
-41.755
-44.252
-46.244
-42.646
-41.429
-47.358
-49.795
-42.362
-31.437
-18.925
-0.5
20.084
37.307
58.818
93.784
134.771
170.204
205.588
253.978
311.377
355.763
368.592
349.324
306.598
241.24
150.4
44.242
-62.679
-169.828
-278.26
-380.595
-484.032
-604.741
-722.096
-787.664
-788.724
-755.865
-714.817
-672.682
-633.398
-591.615
-529.329
-443.704
-362.898
-312.906
-280.75
-235.916
-178.347
-132.271
-103.229
-80.042
-63.741
-55.981
-44.725
-33
-41.091
-60.275
-58.819
-39.466
-31.477
-37.224
-41.281
-44.152
-44.79
-29.656
-4.182
8.667
6.636
3.72
-0.137
-9.978
-18.192
-17.653
-9.793
3.818
18.944
28.088
30.982
30.103
22.022
8.006
-2.2
-3.591
3.818
20.887
40.207
46.869
39.108
30.584
29.236
30.951
31.917
33.057
35.499
39.141
43.069
47.022
52.448
57.3
55.883
51.425
55.172
66.066
70.876
67.255
64.686
65.72
66.584
68.607
73.96
79.421
81.868
81.54
79.96
80.625
86.356
93.975
99.431
104.09
108.297
109.598
111.657
118.416
122.915
121.549
125.104
137.176
146.06
148.692
152.11
153.822
150.939
152.448
160.921
168.317
175.466
184.943
187.1
181.354
183.305
192.787
194.019
190.426
195.799
203.615
204.188
206.205
213.86
216.432
213.286
215.32
222.001
224.674
224.017
225.303
227.475
227.425
225.822
224.272
221.575
215.055
207.065
205.468
209.464
206.679
195.28
187.04
182.404
173.163
163.283
155.643
141.853
126.152
121.101
118.108
104.963
91.695
84.924
74.946
63.456
59.118
52.819
36.997
24.756
23.613
22.314
13.969
4.093
-2.085
-3.535
-2.508
-3.426
-6.409
-8.094
-9.65
-14.387
-21.847
-29.826
-34.332
-30.55
-23.253
-24.727
-34.028
-36.65
-30.368
-27.768
-30.949
-30.387
-26.572
-26.818
-29.587
-31.35
-32.513
-30.545
-28.15
-35.45
-45.208
-38.154
-22.823
-24.597
-38.842
-43.362
-39.722
-40.098
-40.262
-35.796
-35.032
-39.375
-38.872
-32.568
-29.775
-32.928
-36.843
-39.539
-41.757
-42.373
-40.977
-39.111
-37.955
-38.53
-39.986
-38.467
-34.587
-34.318
-36.776
-35.932
-34.313
-36.111
-35.593
-30.703
-30.503
-35.574
-34.827
-28.254
-27.08
-31.973
-34.298
-32.542
-30.579
-29.765
-31.309
-35.193
-36.789
-33.955
-29.798
-24.439
-18.071
-17.835
-25.081
-29.825
-29.862
-31.755
-32.275
-27.734
-27.313
-32.466
-32.077
-28.652
-31.739
-34.297
-30.846
-31.328
-35.618
-33.437
-29.37
-29.791
-27.896
-25.734
-31.84
-36.334
-30.951
-29.007
-34.133
-33.054
-29.044
-32.718
-34.672
-28.782
-28.365
-35.887
-39.007
-38.544
-41.489
-42.111
-37.512
-37.035
-42.53
-43.817
-36.939
-29.957
-31.232
-38.294
-40.837
-37.278
-37.729
-43.59
-43.942
-39.063
-41.427
-49.663
-49.612
-41.152
-37.386
-40.393
-41.448
-40.058
-42.072
-45.699
-46
-44.312
-43.129
-42.578
-43.645
-45.302
-44.962
-44.341
-43.808
-39.999
-37.196
-40.876
-43.347
-40.863
-44.148
-50.971
-45.175
-32.116
-30.857
-37.02
-34.036
-24.17
-19.559
-21.962
-25.145
-23.754
-18.825
-17.231
-19.57
-17.729
-11.846
-10.715
-11.564
-4.908
3.452
3.084
0
2.167
3.487
0.074
-0.91
3.064
6.735
8.725
11.078
12.467
9.829
2.726
-4.908
-7.749
-7.655
-12.998
-23.688
-30.111
-31.494
-35.272
-38.962
-37.423
-38.837
-48.476
-54.48
-49.703
-44.669
-46.85
-49.704
-46.807
-40.651
-38.121
-43.063
-49.732
-48.963
-44.213
-46.32
-52.45
-52.404
-50.314
-55.132
-60.933
-59.773
-57.643
-59.91
-60.532
-56.181
-52.022
-51.19
-52.22
-52.009
-46.054
-32.613
-13.936
7.468
27.304
45.017
73.216
119.003
165.15
199.366
238.881
295.087
344.625
360.629
343.009
301.913
236.749
145.936
41.234
-63.304
-167.445
-274.314
-376.876
-473.926
-578.727
-687.542
-764.227
-781.883
-756.717
-720.669
-684.985
-646.282
-601.665
-543.725
-467.387
-390.421
-337.341
-301.386
-256.225
-199.57
-150.805
-117.672
-94.577
-77.957
-65.135
-53.899
-47.841
-49.45
-53.63
-54.339
-49.003
-39.486
-35.174
-43.027
-52.855
-49.81
-36.543
-24.358
-15.239
-9.18
-9.796
-13.239
-14.277
-18.568
-25.833
-21.711
-4.758
9.689
17.355
22.237
19.099
8.398
2.109
0.232
-4.266
-2.583
12.763
28.596
34.389
34.892
30.59
19.814
13.742
19.331
26.665
31.16
38.622
44.748
43.398
43.615
48.708
45.591
35.171
34.725
43.425
47.267
48.747
55.452
61.54
63.268
66.102
71.058
75.746
80.031
81.044
78.533
80.637
89.024
93.686
92.042
92.8
98.395
103.213
105.592
106.647
105.313
103.974
108.755
119.444
128.958
133.664
135.571
136.516
137.757
141.746
148.563
154.8
159.627
167.234
179.607
189.886
189.162
181.132
179.722
187.782
194.272
196.073
199.647
202.516
199.701
198.289
201.78
201.999
201.416
209.905
217.335
210.252
202.798
209.337
214.5
207.132
203.929
212.138
213.815
201.78
189.634
184.748
182.519
178.448
169.396
156.061
144.928
136.844
125.985
113.983
105.979
98.284
88.065
80.338
74.346
64.342
54.475
50.234
45.359
35.561
27.212
23.036
18.555
11.827
3.74
-3.137
-5.011
-5.187
-10.179
-15.163
-13.92
-14.426
-21.541
-24.702
-21.225
-22.605
-29.414
-31.634
-29.27
-27.387
-26.998
-31.27
-38.408
-37.017
-28.457
-28.683
-37.944
-41.717
-38.206
-34.202
-29.415
-25.619
-28.679
-34.3
-34.677
-33.218
-34.534
-35.4
-35.738
-38.866
-40.258
-35.291
-30.376
-31.442
-34.472
-34.985
-32.458
-27.229
-24.461
-30.111
-37.875
-37.383
-32.092
-30.696
-31.941
-31.926
-30.595
-26.471
-20.635
-18.865
-19.821
-18.296
-19.269
-25.931
-27.701
-21.659
-20.388
-25.425
-25.579
-22.181
-22.677
-21.694
-15.691
-13.961
-19.068
-22.399
-21.324
-18.453
-14.495
-14.037
-19.845
-22.911
-18.13
-14.763
-15.662
-11.923
-6.604
-11.535
-20.493
-19.111
-12.299
-11.443
-12.937
-12.521
-14.644
-15.741
-9.206
-4.799
-11.672
-18.434
-16.234
-14.077
-16.068
-15.652
-13.42
-13.52
-14.279
-15.956
-19.361
-19.376
-15.578
-14.548
-15.732
-14.063
-11.568
-11.363
-11.917
-12.516
-12.3
-9.488
-8.47
-14.22
-20.66
-20.137
-15.897
-13.383
-12.655
-13.799
-16.197
-15.957
-12.827
-10.633
-9.98
-10.478
-13.682
-18.041
-20.724
-22.352
-22.093
-18.487
-16.466
-18.496
-17.048
-10.875
-10.677
-17.816
-21.524
-19.747
-17.788
-14.72
-11.874
-15.926
-22.054
-19.675
-13.399
-11.969
-11.856
-11.96
-18.091
-24.409
-21.535
-16.745
-17.844
-18.106
-16.052
-18.522
-19.711
-12.299
-6.982
-10.474
-11.487
-7.533
-9.448
-15.153
-14.976
-12.555
-13.072
-11.903
-8.568
-7.292
-5.499
-1.94
-1.161
-0.607
4.131
6.56
4.348
7.483
16.183
19.971
21.036
26.408
29.346
25.937
26.051
32.389
37.974
42.86
46.462
41.945
35.098
38.867
47.787
49.694
47.268
43.034
31.876
21.008
22.579
27.695
21.384
10.624
8.855
11.124
6.81
-1.19
-5.296
-6.69
-9.828
-12.787
-10.877
-6.343
-6.482
-11.107
-12.297
-8.948
-7.457
-7.912
-6.917
-8.768
-15.534
-18.18
-13.628
-11.89
-15.486
-15.59
-11.713
-10.023
-9.344
-10.153
-18.03
-25.809
-21.718
-13.689
-12.39
-8.526
4.364
17.573
32.871
59.525
89.943
117.133
152.004
197.097
242.198
290.625
345.359
387.444
403.866
400.662
374.715
317.096
234.493
133.843
17.033
-99.528
-201.942
-301.732
-411.144
-527.119
-642.999
-736.457
-771.614
-748.387
-707.533
-672.458
-634.766
-588.116
-531.375
-459.932
-380.404
-308.258
-246.967
-191.909
-143.291
-101.938
-68.153
-46.176
-36.935
-32.884
-26.904
-18.985
-13.986
-16.49
-22.632
-19.876
-5.148
5.897
2.146
-4.165
1.308
12.522
19.365
26.367
37.849
44.123
37.853
28.067
25.972
29.134
31.044
37.14
55.19
74.916
77.767
64.175
50.484
43.861
39.858
38.809
46.9
63.114
77.893
84.968
84.813
78.209
68.415
64.59
69.428
73.998
75.611
81.482
88.835
87.223
80.192
78.842
81.746
81.959
81.516
86.361
97.088
107.524
110.133
107.821
111.13
116.934
113.965
111.203
122.173
130.912
121.307
113.68
124.956
135.99
134.364
135.361
143.59
147.421
147.582
150.062
151.171
152.162
159.858
168.809
170.586
169.985
172.63
176.81
184.318
194.749
197.094
190.737
192.069
203.337
209.447
210.198
215.491
219.364
216.272
219.156
233.898
245.597
244.594
239.418
239.565
243.249
244.7
245.634
250.909
254.944
249.933
244.247
248.765
255.235
252.554
246.128
242.966
240.668
238.446
237.209
233.373
227.538
225.057
223.046
215.837
208.022
203.79
197.365
186.879
177.738
168.141
154.166
142.606
137.076
129.076
118.095
112.966
108.761
95.279
80.309
74.315
71.562
66.136
61.281
57.329
53.289
52.467
53.154
50.282
46.773
45.244
40.498
33.668
33.011
35.909
33.841
29.929
30.472
32.157
31.123
28.607
24.945
22.283
24.886
28.269
24.666
19.626
21.966
25.639
23.651
23.426
28.23
27.171
19.285
17.496
20.982
18.068
12.972
15.065
17.59
14.903
14.827
18.962
20.39
20.391
22.334
22.653
21.734
23.621
24.9
22.089
19.22
18.909
20.256
22.987
24.166
21.899
21.107
23.482
24.535
25.88
30.334
31.212
26.222
24.005
25.582
24.501
23.339
25.117
24.551
24.18
31.387
37.172
31.467
25.819
29.341
30.641
25.895
26.4
30.231
27.376
24.566
29.352
32.256
28.426
25.998
25.623
23.227
23.609
27.006
24.975
20.499
22.584
26.175
25.147
25.253
27.266
26.136
26.286
29.165
25.832
20.251
24.63
31.203
28.704
26.731
31.192
31.655
28.498
30.312
30.006
21.245
15.505
18.439
21.735
24.395
29.152
29.253
24.263
24.583
28.513
26.541
24.03
27.339
26.947
19.728
17.211
20.072
19.485
18.032
19.056
16.807
13.541
15.97
17.768
14.914
16.406
20.961
17.589
11.779
13.9
15.673
9.498
5.549
9.296
11.609
9.685
10.28
12.438
9.258
2.59
0.455
4.205
7.282
5.246
2.063
2.197
1.259
-3.726
-3.967
3.782
6.986
1.457
-0.817
2.13
0.422
-4.233
-4.061
-2.341
-2.386
0.961
6.863
7.665
3.899
0.992
-0.876
-1.239
1.452
2.378
-1.067
-2.11
0.705
0.768
-0.089
3.228
4.95
2.657
5.531
12.666
12.247
6.654
6.325
7.652
5.477
6.711
12.269
13.379
11.275
11.726
10.418
7.625
13.075
22.985
25.121
24.905
31.908
37.067
32.627
28.833
32.768
37.126
34.714
25.104
12.995
6.786
7.826
7.161
2.038
-1.665
-6.315
-17.195
-26.108
-26.446
-28.321
-36.745
-41.19
-39.491
-39.802
-39.788
-35.521
-35.719
-42.931
-45.665
-40.955
-37.629
-38.843
-42.281
-46.157
-46.774
-44.702
-46.146
-48.268
-44.198
-41.784
-48.78
-54.347
-52.475
-54.611
-61.178
-60.241
-57.557
-64.563
-69.415
-58.888
-42.706
-28.987
-10.479
13.149
36.602
68.073
113.488
160.094
201.268
248.049
299.232
334.493
344.621
335.758
305.858
245.032
154.108
45.727
-68.502
-184.103
-297.568
-403.937
-511.369
-637.397
-766.59
-846.679
-856.188
-829.838
-798.116
-759.175
-713.16
-665.108
-605.49
-530.382
-454.074
-383.666
-316.903
-260.508
-218.663
-183.327
-152.622
-131.847
-118.036
-107.629
-104.359
-107.567
-113.087
-120.75
-123.532
-110.971
-93.578
-91.997
-102.097
-104.315
-96.192
-87.381
-80.916
-75.951
-70.667
-63.214
-62.365
-78.381
-99.028
-103.202
-91.16
-74.543
-57.966
-48.613
-53.486
-62.796
-66.089
-70.709
-79.889
-81.033
-70.746
-59.621
-52.403
-50.35
-57.368
-67.182
-68.718
-65.198
-63.689
-60.773
-55.857
-54.27
-52.875
-48.013
-47.214
-53.168
-56.855
-55.322
-51.955
-44.798
-36.581
-37.414
-43.593
-41.945
-36.753
-39.792
-44.944
-43.037
-40.38
-41.224
-39.373
-36.05
-37.886
-40.164
-35.546
-28.35
-25.419
-26.482
-28.415
-27.813
-22.488
-15.903
-12.473
-9.896
-5.267
-2.012
-2.132
-1.935
-1.399
-3.352
-2.087
7.69
15.883
13.705
11.455
18.086
25.119
25.947
25.415
25.873
26.463
29.467
33.895
36.145
37.579
38.569
36.286
34.381
37.506
40.704
40.068
39.73
39.569
35.295
30.438
29.997
29.787
25.337
20.508
19.041
