-24.146
-10.228
-9.665
-12.393
-7.514
-0.703
3.936
9.687
13.926
14.451
17.973
25.394
28.889
29.421
32.82
35.082
34.548
40.413
52.361
58.766
61.168
69.167
78.141
82.098
89.486
103.91
116
124.285
135.32
145.439
147.158
144.234
145.143
151.855
158.733
156.897
144.961
132.986
127.228
122.692
117.734
117.733
120.152
113.276
90.831
58.55
28.705
9.503
-3.029
-18.918
-40.357
-61.357
-78.018
-90.618
-100.154
-109.203
-120.018
-130.432
-140.197
-155.391
-174.831
-186.389
-189.89
-201.041
-221.299
-233.935
-236.555
-243.718
-257.73
-268.593
-274.871
-280.918
-287.219
-295.021
-304.601
-310.368
-311.077
-313.208
-317.363
-318.497
-318.196
-320.006
-321.933
-324.112
-328.523
-330.133
-325.793
-322.551
-322.735
-319.012
-311.626
-308.427
-309.701
-312.012
-315.224
-315.264
-308.322
-300.834
-297.376
-293.819
-293.519
-303.131
-312.069
-307.719
-298.296
-293.775
-289.358
-283.668
-282.092
-280.708
-275.237
-272.379
-273.332
-270.144
-265.001
-265.62
-267.172
-262.901
-257.935
-256.502
-253.839
-246.957
-237.919
-229.614
-225.761
-225.555
-221.08
-210.671
-202.772
-200.337
-198.261
-193.894
-185.645
-173.594
-166.048
-166.127
-162.928
-155.194
-154.483
-153.532
-135.049
-109.506
-96.512
-88.514
-74.067
-61.475
-52.602
-37.107
-20.774
-16.53
-17.495
-13.432
-10.122
-10.186
-4.47
8.141
19.558
28.34
37
44.425
50.782
57.099
61.3
63.92
67.008
66.299
60.377
58.936
67.065
77.386
85.032
90.598
90.993
86.321
85.302
90.801
94.749
92.538
88.091
86.538
90.791
98.334
101.169
98.156
97.923
101.67
101.62
100.092
105.497
112.311
110.982
107.188
109.213
114.042
119.507
127.641
133.576
133.716
135.732
142.807
146.966
147.388
151.345
157.153
159.303
161.455
166.903
171.157
172.952
175.817
178.889
180.398
182.673
185.814
187.753
190.315
194.534
196.851
195.82
193.663
192.661
195.711
202.628
207.582
210.003
216.876
226.817
230.512
228.941
230.456
234.699
237.322
240.013
243.631
244.47
242.412
241.14
242.821
249.758
261.585
269.952
270.529
273.456
285.698
297.669
301.876
304.666
310.001
313.685
315.407
316.756
314.749
310.568
309.32
308.028
303.349
301.689
303.495
298.79
289.452
287.824
293.07
295.84
294.945
291.789
287.64
289.463
297.956
302.369
301.592
305.659
312.602
313.36
311.729
314.254
318.019
321.479
325.126
324.672
322.779
328.565
336.885
336.685
333.362
334.59
334.953
332.979
334.966
338.938
340.293
341.501
342.748
343.45
350.762
367.117
385.549
406.062
432.272
459.103
487.245
526.816
574.413
619.83
668.462
720.61
754.464
758.578
743.275
708.435
642.781
550.355
443.1
324.913
203.419
92.981
-6.177
-112.512
-236.265
-354.71
-426.202
-432.655
-396.683
-353.446
-318.161
-282.068
-230.143
-160.111
-83.226
-9.554
57.774
117.284
168.934
214.963
255.688
288.196
308.5
315.421
316.066
319.748
323.553
318.429
309.136
309.938
323.296
337.605
341.394
333.968
327.676
334.951
349.896
357.666
359.169
363.431
365.52
357.376
345.324
338.281
337.522
344.668
359.478
373.385
380.19
381.668
377.979
369.233
361.876
359.132
358.514
364.467
381.303
396.238
394.757
383.187
374.669
369.534
365.103
365.395
372.185
381.488
388.563
388.814
382.205
376.328
374.547
371.332
367.268
369.823
376.679
379.828
380.696
383.188
385.058
386.274
389.218
391.293
391.963
395.774
399.783
396.69
391.104
391.578
393.951
391.504
387.517
384.766
380.814
377.991
379.759
382.583
385.427
393.173
403.444
408.208
408.003
408.437
409.641
409.552
407.877
404.196
400.161
398.739
398.157
395.841
394.075
392.305
386.423
380.989
382.857
385.239
379.944
373.198
370.658
367.154
361.791
359.266
356.219
347.848
339.016
334.23
330.541
326.264
322.503
317.957
312.991
311.106
310.87
307.519
302.172
297.58
291.152
281.702
271.143
256.293
235.672
218.99
211.426
202.411
185.321
168.042
155.878
145.399
134.788
124.164
112.942
102.743
93.197
80.321
66.001
55.822
47.94
38.931
31.079
23.694
13.58
4.776
-0.05
-7.087
-16.801
-22.539
-27.565
-37.796
-46.224
-48.345
-52.004
-57.587
-58.293
-59.245
-65.394
-68.512
-68.783
-76.374
-84.585
-81.7
-78.371
-86.331
-96.317
-101.044
-105.737
-109.778
-110.16
-112.418
-117.459
-119.378
-120.278
-123.256
-122.973
-120.447
-123.833
-130.222
-133.074
-137.106
-144.078
-146.906
-148.603
-156.392
-161.039
-154.941
-152.439
-162.7
-171.418
-170.391
-170.887
-177.64
-182.73
-184.506
-186.739
-188.198
-187.889
-187.41
-185.634
-183.439
-185.309
-188.902
-188.275
-186.781
-190.001
-194.606
-196.8
-197.383
-194.856
-189.859
-189.726
-195.172
-197.49
-195.12
-194.025
-194.112
-191.981
-188.128
-183.191
-178.92
-179.496
-181.776
-178.021
-171.889
-171.655
-173.733
-173.371
-175.375
-179.5
-178.48
-174.773
-174.487
-173.11
-168.506
-168.711
-173.155
-172.104
-167.926
-169.46
-173.516
-175.576
-180.272
-186.077
-185.098
-181.746
-184.556
-188.069
-186.23
-185.579
-189.599
-192.359
-193.232
-196.939
-201.856
-203.347
-201.698
-200.206
-202.182
-208.743
-215.846
-218.701
-218.296
-218.057
-218.808
-220.101
-220.336
-216.753
-210.96
-209.569
-214.53
-218.909
-216.926
-212.825
-213.733
-217.824
-218.21
-215.292
-214.697
-216.06
-214.735
-211.461
-210.657
-212.661
-215.524
-219.149
-221.023
-216.552
-209.14
-206.799
-206.434
-199.632
-190.839
-188.244
-186.789
-180.88
-176.526
-175.996
-173.132
-169.03
-168.153
-165.029
-156.054
-149.012
-147.07
-144.108
-139.675
-137.809
-136.326
-131.89
-124.521
-113.521
-102.052
-97.658
-98.498
-95.648
-90.51
-90.315
-94.525
-101.048
-110.163
-117.135
-119.646
-124.687
-132.378
-133.206
-129.825
-133.677
-141.053
-141.565
-139.603
-142.757
-146.725
-147.449
-147.365
-145.104
-139.361
-137.149
-141.969
-146.437
-145.364
-141.089
-135.86
-131.959
-132.549
-135.279
-135.297
-133.606
-132.411
-130.697
-130.879
-136.181
-141.296
-140.932
-139.572
-139.478
-135.243
-128.711
-127.407
-126.8
-117.743
-104.305
-92.28
-74.971
-48.221
-20.298
5.127
36.1
77.276
125.353
178.18
232.615
278.351
305.698
311.725
293.8
248.337
175.566
77.979
-38.627
-162.654
-284.74
-400.75
-509.613
-623.453
-754.58
-874.149
-930.634
-920.296
-884.05
-845.362
-804.338
-761.557
-709.514
-638.549
-559.339
-485.155
-413.799
-349.526
-303.751
-269.491
-234.549
-205.319
-188.777
-178.418
-171.584
-171.705
-175.916
-181.642
-189.307
-190.139
-177.006
-164.121
-168.069
-180.917
-185.04
-177.989
-168.099
-161.842
-161.485
-164.657
-168.61
-177.09
-193.068
-208.153
-211.857
-204.894
-193.976
-183.446
-177.601
-179.925
-187.136
-192.551
-194.491
-195.435
-195.292
-190.478
-180.776
-173.618
-174.584
-176.652
-170.592
-159.815
-150.181
-137.364
-119.712
-105.63
-97.404
-91.103
-93.809
-111.752
-129.826
-133.35
-131.652
-134.542
-134.111
-127.281
-123.203
-122.385
-118.891
-115.468
-113.983
-109.273
-103.413
-102.979
-104.027
-100.788
-96.478
-91.823
-81.837
-68.178
-57.088
-50.851
-50.723
-54.12
-50.939
-39.699
-32.554
-30.659
-20.755
-3.018
8.527
11.535
14.07
17.993
22.356
29.254
37.653
44.172
49.504
55.232
59.894
62.545
64.255
66.582
71.887
80.562
88.604
94.044
99.458
103.664
103.883
106.052
115.046
121.71
118.921
116.325
121.92
127.304
123.201
111.16
94.528
74.6
56.127
43.699
35.033
24.73
10.919
-2.457
-8.832
-9.968
-17.489
-33.311
-45.1
-51.289
-63.114
-77.549
-82.925
-85.464
-95.948
-107.77
-114.135
-120.199
-126.137
-127.866
-131.561
-141.971
-151.486
-156.53
-163.042
-171.674
-178.508
-183.704
-186.239
-184.25
-182.635
-185.114
-187.698
-189.617
-193.868
-196.209
-192.343
-188.475
-190.224
-193.335
-191.938
-184.4
-173.516
-167.482
-170.568
-173.776
-169.119
-163.63
-163.928
-163.993
-161.047
-161.521
-164.866
-164.804
-163.173
-162.058
-156.758
-150.304
-151.786
-156.957
-157.016
-157.489
-163.539
-166.241
-161.751
-158.913
-160.059
-159.754
-159.044
-159.587
-155.865
-147.402
-142.626
-145.01
-150.752
-157.581
-164.317
-169.089
-172.793
-176.288
-178.039
-179.686
-182.867
-182.127
-175.355
-170.757
-171.032
-168.831
-163.313
-159.48
-155.419
-149.659
-148.248
-151.711
-151.949
-147.286
-145.017
-147.775
-146.385
-128.684
-95.848
-64.384
-44.936
-29.228
-7.334
17.14
38.318
57.435
74.945
89.136
102.014
114.237
122.937
130.872
141.858
149.266
148.093
146.349
147.508
143.086
133.33
128.294
126.558
119.823
110.845
104.392
96.323
86.957
84.135
85.553
80.626
69.485
59.927
53.116
47.46
44.809
44.73
44.418
43.927
43.139
40.067
34.792
27.629
18.438
12.199
13.829
18.582
20.972
24.377
29.912
31.233
27.881
25.368
21.93
13.504
4.309
-1.646
-5.744
-5.699
0.135
2.846
-3.467
-9.688
-8.234
-4.24
-2.557
-2.806
-6.021
-9.793
-7.33
-0.998
0.299
-2.447
-2.937
-1.577
0.477
4.17
6.128
5.06
6.86
12.661
17.094
20.276
24.338
25.575
23.735
25.007
29.49
31.525
30.358
28.525
28.66
35.336
47.424
55.035
55.424
57.444
64.341
70.191
72.414
72.356
70.733
71.301
77.998
86.617
89.959
87.636
83.588
80.526
79.348
77.85
73.065
67.815
65.888
62.71
54.091
46.167
43.374
40.849
37.279
36.347
34.76
28.081
21.341
19.941
22.086
25.248
27.819
28.213
29.619
35.051
38.779
36.711
35.666
38.997
40.107
38.74
40.609
40.472
31.971
24.895
28.135
34.263
36.874
37.727
34.385
27.111
25.836
31.163
32.783
32.844
40.272
50.526
60.211
79.405
108.222
133.494
156.893
189.3
225.897
262.321
308.833
360.216
390.938
393.653
379.279
344.944
280.901
190.341
79.898
-45.068
-172.09
-289.019
-396.12
-507.177
-636.011
-763.609
-836.68
-832.212
-789.471
-748.423
-707.489
-658.402
-603.633
-537.128
-456.189
-376.49
-306.878
-241.88
-187.781
-155.262
-133.693
-110.192
-92.449
-85.974
-80.906
-75.402
-78.675
-89.348
-95.507
-88.365
-67.927
-48.623
-50.355
-70.019
-81.753
-73.628
-58.422
-46.717
-36.396
-26.867
-22.155
-24.39
-34.153
-46.631
-48.554
-34.32
-15.155
-0.384
10.201
12.235
2.506
-7.928
-10.3
-9.416
-5.461
6.879
19.457
20.667
15.817
14.911
16.817
18.158
19.642
21.724
26.835
37.38
47.189
49.149
46.676
45.239
45.158
48.083
54.83
60.699
64.601
70.406
76.18
78.05
78.587
79.059
77.244
77.467
85.097
94.629
99.171
100.833
101.59
100.853
104.215
114.657
122.574
123.223
126.113
133.706
137.135
137.881
144.568
153.684
158.513
162.078
165.8
166.768
168.983
174.921
177.356
177.847
188.829
206.6
214.071
210.771
209.097
211.723
215.697
220.616
223.171
222.386
224.432
229.533
231.813
234.372
242.006
248.102
248.106
248.253
250.708
251.388
251.351
251.538
247.914
243.136
244.01
245.826
240.741
234.236
233.544
232.067
220.895
204.896
196.228
196.235
192.521
177.588
160.847
152.493
147.472
137.489
124.771
113.321
101.431
89.439
80.123
70.507
57.871
48.282
45.184
41.427
33.541
26.58
20.61
13.013
8.603
8.218
3.746
-3.755
-5.979
-6.268
-9.162
-7.277
-1.046
-2.762
-9.655
-8.453
-4.147
-8.637
-15.74
-16.643
-16.571
-18.074
-15.787
-13.046
-16.364
-19.771
-16.371
-11.359
-11.19
-15.37
-20.067
-19.143
-11.127
-5.905
-8.53
-9.092
-4.747
-5.118
-6.746
0.948
8.826
6.257
4.492
10.257
12.298
10.369
14.95
21.55
23.168
26.62
32.374
31.187
26.948
28.818
31.543
29.176
26.113
23.145
18.085
16.577
21.171
24.446
23.903
23.637
22.343
18.901
18.956
23.26
26.137
28.264
33.01
36.866
37.629
38.781
40.154
39.567
39.319
39.706
39.045
42.056
50.433
54.157
48.896
44.358
45.818
48.856
51.619
53.069
49.563
43.931
41.781
41.34
43.066
51.86
59.583
54.788
48.702
56.787
69.741
74.636
76.45
77.412
71.955
67.793
74.008
80.129
78.254
77.937
79.9
73.501
65.722
72.335
87.754
96.682
98.606
100.495
105.062
111.724
115.19
111.232
106.474
106.443
104.506
98.894
98.719
102.838
100.038
90.421
81.443
73.736
67.802
65.664
61.323
50.314
39.768
33.979
29.422
27.704
30.663
31.765
28.91
27.144
26.111
25.765
30.923
36.302
32.864
28.348
31.936
35.11
31.136
26.64
24.413
22.793
24.95
28.197
24.362
18.592
21.162
26.341
25.386
23.608
24.821
23.207
20.052
20.88
19.387
11.086
6.549
10.01
10.909
7.2
6.743
7.716
4.994
3.107
5.457
9.466
15.595
22.366
23.235
20.556
21.648
21.61
16.687
18.472
28.945
32.11
27.381
29.818
35.962
34.812
34.635
38.8
32.048
16.957
14.207
21.902
26.928
35.331
46.126
38.095
11.775
-7.595
-14.065
-19.125
-23.138
-24.243
-27.841
-32.199
-31.125
-25.344
-15.092
-1.27
4.542
-4.223
-15.996
-22.178
-27.585
-33.43
-37.159
-41.653
-44.486
-39.326
-34.025
-38.085
-42.029
-37.173
-32.762
-34.998
-39.029
-45.666
-55.616
-57.1
-44.354
-28.793
-16.522
-0.544
19.595
38.225
60.319
93.499
133.544
175.016
221.298
274.906
329.818
371.551
381.937
357.163
311.986
250.161
159.812
50.41
-54.157
-158.796
-275.788
-387.932
-491.102
-613.091
-739.71
-805.548
-792.102
-748.99
-711.599
-675.321
-634.102
-583.581
-512.68
-427.185
-352.497
-299.581
-253.865
-201.645
-150.298
-115.222
-93.958
-71.723
-50.476
-41.911
-38.77
-31.483
-32.722
-46.314
-46.963
-24.236
-4.151
-5.644
-17.163
-23.333
-19.748
-6.257
10.304
19.182
21.102
23.425
24.128
18.89
12.618
11.731
17.746
29.168
39.688
43.079
41.532
37.178
26.704
15.699
16.981
29.104
41.155
53.337
67.898
74.827
68.69
60.179
56.881
54.468
51.887
53.919
61.043
71.284
82.439
88.113
85.41
81.017
79.267
78.623
81.74
90.056
95.965
96.175
97.731
103.104
107.75
111.359
115.527
118.034
118.57
119.679
121.672
125.672
133.539
140.467
141.633
142.757
147.968
150.257
148.851
154.022
164.432
167.693
165.902
170.529
178.694
181.966
183.639
187.546
190.078
191.576
195.248
199.345
204.582
213.818
220.897
220.021
217.533
217.889
217.309
218.304
225.642
231.968
230.46
228.414
232.14
236.597
238.074
240.109
245.136
250.345
250.128
243.07
238.368
244.101
250.461
244.297
232.78
228.569
226.647
218.987
209.549
198.746
181.719
166.055
160.375
155.55
144.339
135.83
132.279
123.883
112.013
104.828
97.72
84.089
68.107
53.655
40.916
32.01
24.521
13.952
6.142
5.806
3.826
-4.097
-9.273
-10.941
-16.541
-23.44
-26.081
-28.262
-32.711
-36.515
-39.54
-41.799
-41.442
-42.67
-48.802
-51.165
-44.757
-40.804
-46.255
-53.025
-57.892
-65.912
-73.197
-73.224
-71.162
-71.494
-69.653
-66.255
-66.046
-64.246
-56.854
-51.825
-53.225
-53.885
-50.743
-47.766
-46.888
-48.563
-51.478
-50.871
-47.721
-49.095
-53.783
-54.893
-53.877
-53.93
-51.011
-45.115
-43.055
-44.355
-43.226
-40.436
-37.403
-31.956
-28.935
-34.594
-40.627
-37.271
-32.231
-34.503
-38.294
-38.825
-39.082
-35.99
-27.203
-23.676
-31.182
-38.665
-40.56
-43.493
-46.023
-40.64
-32.351
-32.684
-42.265
-50.398
-48.017
-41.238
-45.895
-61.126
-67.502
-60.06
-53.775
-52.917
-49.156
-44.826
-45.851
-45.906
-41.857
-42.706
-49.456
-52.808
-52.913
-54.798
-53.815
-48.251
-46.83
-48.702
-42.299
-29.883
-25.725
-32.675
-41.789
-45.524
-41.174
-33.148
-29.802
-30.685
-29.254
-26.789
-26.795
-26.223
-25.503
-29.358
-33.789
-32.965
-31.748
-33.803
-33.921
-31.555
-30.809
-28.528
-22.666
-20.81
-25.753
-30.748
-34.398
-39.273
-40.516
-35.807
-33.344
-36.094
-38.115
-39.979
-43.897
-42.551
-35.164
-33.636
-38.764
-39.875
-38.28
-39.64
-36.992
-26.621
-17.77
-14.514
-12.95
-13.401
-15.366
-13.667
-8.756
-4.653
-1.133
-0.02
-3.424
-3.639
3.816
8.237
4.818
4.295
8.74
8.677
6.596
11.387
17.597
17.375
16.712
20.577
22.762
20.869
19.115
15.011
5.531
-0.957
0.724
1.181
-5.178
-11.087
-13.331
-16.92
-22.857
-28.518
-33.098
-34.711
-32.385
-30.632
-32.963
-36.018
-35.449
-32.428
-31.84
-35.089
-37.428
-36.549
-37.153
-40.189
-39.944
-37.329
-39.394
-44.352
-44.267
-39.199
-34.575
-31.769
-30.967
-34.185
-40.135
-44.501
-46.415
-48.929
-54.227
-58.961
-54.75
-40.163
-26.529
-18.527
-3.574
23.287
49.19
72.087
105.227
146.465
182.104
217.666
267.421
324.147
364.889
372.78
345.178
291.573
219.021
123.469
8.772
-106.307
-213.212
-317.01
-416.615
-512.773
-613.396
-702.272
-741.133
-725.263
-692.62
-667.045
-638.335
-598.441
-550.441
-486.507
-401.808
-321.402
-271.441
-237.804
-191.065
-132.836
-85.503
-57.538
-42.202
-33.014
-27.026
-21.81
-15.488
-10.043
-9.899
-11.301
-4.148
7.52
7.956
-0.965
-1.753
7.592
16.416
25.153
36.631
43.066
42.723
43.435
41.976
30.937
20.957
25.651
39.771
54.04
67.229
74.428
71.408
65.905
62.451
55.697
49.731
54.132
62.631
65.1
65.043
64.617
59.414
55.373
59.856
63.751
59.287
55.675
60.227
67.826
72.574
71.164
63.358
57.117
59.29
65.606
71.038
75.63
76.441
72.153
70.636
76.501
84.321
92.434
103.622
111.85
111.208
109.756
113.687
115.94
115.182
119.415
126.052
127.324
126.875
127.672
125.536
126.129
138.272
153.226
159.236
160.768
163.755
165.103
164.961
167.691
173.381
181.43
191.841
199.968
203.092
206.352
211.708
213.849
212.884
215.08
220.424
224.341
226.767
228.854
230.112
232.664
236.685
235.889
228.547
222.213
221.224
223.844
230.189
238.187
239.95
233.245
225.385
221.748
220.772
217.752
208.055
193.337
182.605
178.6
172.912
162.229
153.166
146.795
137.878
127.166
116.292
102.038
88.386
83.388
80.469
69.226
56.154
48.991
41.654
33.092
31.226
31.834
24.513
12.504
2.71
-5.86
-11.999
-13.024
-13.998
-17.906
-19.762
-19.992
-24.228
-29.87
-30.921
-28.646
-27.606
-31.285
-39.816
-44.954
-39.668
-31.901
-31.371
-33.912
-34.798
-37.396
-39.784
-37.06
-34.745
-37.537
-38.542
-35.316
-34.657
-36.257
-35.923
-37.857
-42.889
-43.027
-40.048
-43.533
-50.158
-52.156
-52.901
-52.74
-44.984
-35.245
-33.334
-33.094
-28.807
-28.366
-32.26
-31.955
-31.099
-35.955
-38.976
-36.024
-34.942
-36.367
-34.174
-31.159
-30.813
-29.774
-30.927
-39.068
-44.979
-41.047
-36.942
-37.81
-35.22
-31.052
-35.609
-43.701
-44.931
-43.728
-46.496
-50.154
-53.054
-55.974
-55.076
-49.568
-45.922
-47.34
-50.644
-52.451
-50.962
-47.574
-46.677
-47.656
-45.348
-40.981
-38.871
-36.132
-31.094
-30.207
-33.774
-34.097
-33.731
-40.362
-47.593
-47.896
-48.824
-53.306
-50.827
-42.477
-41.46
-46.405
-46.79
-45.066
-47.064
-48.529
-47.768
-50.69
-56.709
-58.649
-55.806
-53.541
-54.728
-58.326
-61.181
-61.157
-61.183
-64.963
-69.964
-71.896
-70.736
-67.545
-63.538
-61.358
-59.772
-55.371
-51.798
-52.794
-52.12
-47.041
-46.391
-51.271
-50.446
-42.573
-38.004
-39.126
-41.16
-43.795
-45.775
-42.887
-39.987
-45.802
-55.196
-57.483
-54.611
-52.067
-47.336
-41.266
-41.04
-46.085
-49.216
-48.365
-45.262
-41.589
-39.517
-37.995
-34.438
-31.843
-32.912
-33.551
-32.251
-32.377
-31.7
-26.942
-23.99
-27.073
-29.175
-25.117
-18.863
-12.814
-6.315
-2.48
-2.302
-1.104
0.999
-0.525
-3.696
-4.972
-7.05
-10.652
-12.612
-14.748
-19.397
-23.671
-28.547
-36.997
-42.312
-40.323
-41.897
-51.049
-53.896
-46.875
-44.435
-50.079
-53.402
-53.26
-54.908
-57.271
-60.596
-66.281
-67.331
-61.479
-59.156
-60.969
-55.649
-47.278
-48.887
-54.881
-53.421
-48.695
-47.251
-46.285
-45.775
-49.383
-54.691
-56.958
-54.3
-45.771
-32.725
-16.882
4.08
29.78
56.098
87.625
130.282
174.227
211.781
255.426
309.051
350.372
363.554
354.076
323.721
265.863
181.713
78.458
-36.183
-151.253
-258.786
-358.946
-457.329
-565.053
-681.411
-769.582
-789.697
-756.653
-717.125
-684.237
-644.159
-596.073
-540.243
-466.021
-382.612
-316.65
-267.307
-212.742
-155.299
-111.694
-78.225
-47.95
-32.277
-34.205
-35.252
-27.123
-22.304
-27.004
-31.501
-26.995
-16.246
-10.106
-15.121
-22.411
-18.739
-6.895
2.126
9.083
18.959
27.348
29.385
25.489
15.67
5.852
8.702
23.878
37.094
42.895
44.927
41.09
30.514
20.678
15.048
12.7
19.301
36.726
53.166
60.273
61.307
57.948
52.195
52.723
60.516
66.907
71.68
78.844
83.182
82.328
82.697
83.805
81.951
84.082
93.514
99.904
100.011
101.931
104.216
100.241
95.9
97.631
100.045
101.394
107.967
117.823
123.946
128.66
135.724
140.838
141.676
141.635
141.719
142.427
145.518
146.489
141.546
139.995
149.741
162.443
169.999
175.413
178.96
177.85
177.055
180.122
183.112
187.537
196.896
203.461
202.06
200.854
202.121
199.589
198.866
207.812
216.397
215.93
216.09
222.467
226.608
226.57
228.701
232.405
233.765
233.45
232.612
233.19
237.923
241.8
237.084
227.62
221.651
217.964
212.183
203.802
192.373
179.712
170.134
161.313
149.451
140.418
137.029
129.41
114.562
102.44
94.621
84.15
72.082
59.795
42.975
27.848
24.583
24.549
16.466
8.334
5.234
-3.392
-16.635
-21.167
-20.362
-25.814
-32.154
-32.032
-32.41
-36.743
-39.371
-40.659
-42.467
-41.392
-41.414
-49.338
-57.739
-59.351
-62.669
-71.306
-74.92
-71.915
-70.987
-72.539
-73.327
-74.933
-74.493
-68.264
-63.048
-63.751
-64.044
-62.389
-64.802
-69.333
-70.681
-71.319
-71.485
-66.426
-60.838
-63.438
-69.661
-69.835
-63.851
-55.712
-49.101
-49.624
-56.506
-60.686
-59.428
-57.328
-54.536
-51.157
-52.131
-55.118
-51.669
-44.041
-40.331
-39.779
-40.395
-45.07
-50.169
-49.774
-50.327
-58.052
-64.327
-63.361
-62.43
-62.738
-57.938
-52.295
-52.557
-53.654
-52.723
-54.231
-54.445
-49.539
-48.969
-54.793
-53.792
-45.455
-42.17
-42.406
-39.161
-37.761
-40.144
-40.113
-41.049
-46.549
-47.367
-43.131
-46.055
-52.062
-48.419
-42.783
-45.48
-47.128
-42.264
-40.506
-42.884
-43.26
-45.499
-49.909
-46.267
-37.264
-36.958
-44.087
-47.709
-47.045
-44.113
-38.101
-34.584
-38.297
-43.932
-48.443
-53.757
-54.776
-48.098
-44.024
-49.708
-57.083
-59.302
-58.619
-55.727
-51.076
-50.666
-55.38
-56.821
-52.393
-49.317
-51.491
-55.837
-58.645
-58.631
-59.025
-63.809
-68.018
-64.299
-58.564
-60.904
-67.567
-69.936
-68.906
-67.163
-63.337
-59.911
-60.453
-60.533
-55.67
-50.228
-47.365
-43.155
-38.509
-40.985
-49.364
-52.595
-47.454
-43.561
-48.201
-55.718
-56.306
-50.662
-47.659
-48.448
-46.028
-40.44
-37.67
-36.247
-32.068
-28.253
-26.622
-23.698
-21.213
-22.133
-20.158
-11.799
-5.399
-4.163
-1.173
2.581
0.403
-2.344
2.246
7.901
7.792
7.143
8.467
6.632
3.206
3.418
4.252
2.36
0.318
-2.639
-9.918
-18.747
-23.996
-25.16
-25.684
-29.028
-32.589
-30.024
-24.723
-26.303
-31.313
-29.283
-24.227
-26.197
-31.986
-34.702
-36.596
-39.353
-40.527
-42.994
-49.111
-52.499
-51.354
-53.825
-60.406
-62.556
-60.278
-58.668
-54.867
-47.801
-45.212
-47.757
-45.88
-37.298
-27.71
-17.034
-1.183
18.995
40.214
63.623
95.609
139.489
188.298
235.902
287.436
341.671
379.704
388.507
372.231
332.716
266.936
179.934
77.405
-39.868
-162.2
-272.443
-367.761
-466.023
-583.391
-704.074
-783.203
-793.919
-757.467
-712.863
-676.483
-640.633
-592.823
-529.562
-456.66
-379.788
-304.081
-238.84
-187.188
-141.591
-100.114
-68.203
-44.854
-28.205
-22.293
-24.118
-24.916
-25.584
-28.618
-26.739
-17.478
-10.429
-11.07
-14.738
-14.642
-5.371
11.005
22.544
25.493
31.89
44.912
49.895
41.131
30.899
28.444
34.151
47.352
61.475
65.698
59.705
50.992
42.343
35.327
32.81
33.773
40.336
58.356
79.151
85.589
80.455
78.51
79.48
78.404
82.254
93.849
104.247
109.431
110.562
105.31
97.912
98.539
103.759
103.126
101.386
107.424
115.304
117.919
119.081
120.638
119.889
120.03
124.284
128.553
130.496
132.194
134.073
138.625
149.084
158.599
158.837
155.27
155.32
155.371
152.874
151.928
152.933
154.899
161.567
172.858
182.63
188.834
193.326
195.903
197.549
200.943
204.633
206.205
208.442
213.878
219.435
222.107
222.851
223.695
227.049
234.016
240.102
240.886
240.918
245.949
251.632
251.089
246.262
243.631
245.075
246.339
242.593
236.154
234.1
236.039
235.052
231.084
228.724
225.89
220.014
215.573
213.069
206.257
196.459
189.045
179.039
163.321
152.271
148.122
137.767
120.949
111.499
107.956
98.359
84.585
73.402
62.865
52.803
45.345
36.036
24.683
19.15
17.056
9.216
0.517
-0.296
1.184
-0.952
-3.004
-5.913
-12.113
-13.118
-6.846
-7.39
-17.479
-22.191
-18.783
-17.888
-19.936
-20.578
-22.725
-25.878
-26.586
-29.177
-34.555
-34.904
-31.801
-34.269
-39.859
-41.899
-42.54
-43.334
-41.885
-41.066
-43.676
-45.478
-44.832
-45.295
-45.934
-44.001
-42.248
-42.462
-42.057
-41.215
-41.132
-39.124
-35.657
-35.027
-34.85
-30.719
-27.311
-28.788
-30.033
-28.676
-28.894
-30.428
-30.962
-33.147
-36.824
-37.219
-35.423
-35.817
-37.217
-38.217
-40.375
-40.981
-37.206
-34.796
-37.865
-39.841
-36.65
-33.998
-35.198
-38.627
-44.931
-51.602
-51.865
-47.704
-46.375
-45.934
-42.796
-40.717
-39.617
-35.514
-32.388
-32.966
-30.385
-24.872
-25.53
-29.556
-27.511
-23.946
-26.948
-31.658
-32.664
-33.598
-36.332
-38.902
-41.532
-42.427
-38.954
-36.044
-37.872
-38.472
-34.613
-31.819
-30.015
-24.375
-19.206
-20.056
-22.103
-22.051
-24.453
-28.314
-27.805
-25.923
-28.642
-33.153
-35.396
-37.667
-41.848
-45.579
-46.196
-43.919
-43.327
-48.185
-53.121
-51.46
-48.882
-53.066
-57.689
-54.637
-49.308
-48.036
-46.658
-42.627
-40.442
-40.189
-37.92
-35.224
-34.891
-36.048
-39.825
-45.574
-45.285
-37.943
-35.473
-41.706
-47.257
-49.427
-51.792
-51.096
-47.578
-49.924
-55.059
-50.537
-40.395
-36.989
-36.384
-30.929
-25.831
-23.657
-19.564
-16.844
-19.747
-21.109
-17.532
-16.098
-18.234
-19.889
-21.756
-22.989
-20.414
-17.785
-17.834
-14.854
-8.336
-5.236
-5.02
-2.673
0.158
1.753
4.035
4.99
2.966
2.404
4.706
7.744
14.364
23.31
24.56
19.052
19.725
26.738
29.766
28.453
25.223
16.348
6.057
3.825
5.405
1.973
-3.918
-9.776
-18.334
-25.117
-25.583
-26.903
-32.979
-36.524
-35.184
-32.727
-28.208
-22.95
-23
-25.671
-24.531
-23.333
-24.597
-21.323
-15.197
-17.66
-25.915
-26.601
-21.096
-19.817
-22.302
-24.527
-27.955
-29.637
-25.823
-24.05
-28.73
-30.102
-25.886
-26.78
-30.878
-25.319
-11.229
3.71
23.177
49.286
75.13
102.502
139.341
180.834
220.866
266.545
317.088
355.046
372.229
371.547
346.606
292.253
216.059
119.755
1.34
-124.73
-242.102
-349.478
-451.059
-559.505
-686.017
-797.048
-835.631
-804.128
-756.23
-715.536
-671.923
-624.959
-573.651
-504.706
-420.264
-338.62
-268.091
-209.929
-166.549
-130.115
-91.001
-58.762
-46.669
-46.787
-43.922
-37.583
-35.351
-39.19
-42.138
-32.234
-8.439
9.846
6.815
-5.061
-4.603
7.613
17.836
22.865
28.016
33.239
33.239
25.451
13.972
7.293
10.427
20.814
33.651
44.519
47.994
43.747
38.498
34.743
30.216
29.649
39.446
55.311
68.957
75.844
72.576
62.509
56.54
55.925
53.334
53.89
66.556
81.549
86.151
86.543
90.409
92.257
90.537
92.818
99.749
106.313
112.479
117.729
119.124
119.941
123.853
126.418
126.028
128.221
132.662
135.116
138.236
142.864
143.48
142.76
148.261
154.933
155.422
155.92
160.581
161.445
157.93
160.352
169.181
175.694
178.61
181.061
183.087
186.921
194.42
200.531
202.876
206.74
213.577
220.755
228.986
235.007
232.271
227.532
233.54
246.082
252.732
254.008
255.335
254.412
250.42
248.929
251.215
251.847
247.431
240.196
235.061
235.053
238.184
240.937
242.267
240.953
237.251
237.058
241.174
238.672
226.329
216.405
212.71
205.399
193.894
185.087
175.032
159.885
148.275
142.491
132.132
116.631
105.002
94.133
77.061
61.873
55.83
49.472
36.435
25.271
19.906
13.095
2.939
-4.722
-7.434
-7.276
-7.679
-11.885
-18.201
-21.735
-22.637
-23.954
-25.854
-28.969
-34.128
-38.306
-41.097
-46.212
-49.772
-45.077
-39.009
-40.937
-44.395
-41.86
-39.544
-41.114
-41.101
-41.036
-45.811
-49.573
-48.651
-50.753
-55.093
-51.472
-44.786
-46.597
-49.547
-43.557
-37.631
-39.445
-41.498
-41.036
-44
-49.347
-52.355
-52.643
-48.922
-42.193
-40.717
-46.465
-50.002
-47.238
-43.001
-39.325
-37.58
-41.887
-48.872
-49.835
-45.968
-44.978
-47.766
-50.819
-52.585
-52.475
-52.085
-54.533
-58.201
-59.255
-58.777
-58.13
-55.067
-51.079
-49.88
-47.669
-40.229
-33.302
-31.364
-29.907
-28.403
-31.132
-33.859
-31.624
-30.902
-35.257
-37.19
-34.625
-32.405
-29.53
-26.192
-28.369
-32.606
-30.424
-27.088
-29.306
-29.627
-25.242
-25.978
-31.769
-32.629
-29.161
-26.035
-20.878
-17.288
-22.872
-29.866
-27.556
-23.741
-26.784
-29.197
-27.861
-30.874
-37.223
-38.348
-34.983
-31.976
-29.984
-30.685
-34.205
-35.061
-32.147
-30.475
-30.713
-31.751
-35.517
-38.825
-36.687
-34.275
-36.824
-39.484
-41.485
-47.707
-52.056
-47.345
-43.101
-48.083
-54.823
-57.415
-58.883
-57.967
-53.052
-50.356
-52.416
-54.863
-57.402
-59.611
-55.898
-48.777
-47.372
-48.066
-42.341
-36.911
-39.216
-40.735
-36.731
-36.11
-40.158
-41.987
-44.217
-49.592
-51.662
-51.709
-56.798
-60.449
-56.338
-54.781
-60.207
-61.022
-55.575
-54.624
-57.274
-55.175
-51.225
-51.729
-54.549
-56.485
-57.083
-54.621
-50.889
-51.402
-54.225
-53.242
-50.976
-51.328
-49.705
-44.506
-41.636
-41.235
-39.764
-40.615
-44.645
-45.413
-44.424
-48.905
-55.056
-56.191
-56.022
-57.348
-55.274
-48.274
-39.943
-33.403
-31.644
-32.857
-29.009
-21.04
-20.762
-28.52
-32.055
-31.082
-35.618
-43.194
-44.644
-42.586
-43.24
-46.001
-52.041
-63.115
-72.367
-75.126
-77.18
-80.792
-82.369
-84.07
-86.294
-81.864
-73.064
-71.082
-75.191
-78.228
-81.215
-83.404
-81.048
-81.524
-90.922
-98.217
-95.738
-92.063
-91.283
-88.626
-86.294
-87.546
-87.511
-84.677
-82.173
-78.619
-75.391
-76.643
-74.388
-59.313
-39.499
-23.269
-4.584
19.696
47.418
84.095
129.986
173.295
213.365
258.804
301.536
326.676
332.094
313.13
257.69
169.179
64.319
-48.629
-167.244
-284.427
-394.318
-500.6
-615.143
-739.286
-841.515
-880.403
-857.955
-815.848
-778.496
-737.668
-685.345
-624.5
-555.327
-477.573
-398.868
-327.14
-264.762
-214.065
-175.332
-141.885
-111.798
-94.78
-92.781
-91.843
-86.534
-87.923
-98.357
-104.587
-97.998
-81.838
-66.264
-63.731
-72.331
-71.432
-54.146
-39.849
-37.395
-33.382
-25.043
-23.031
-26.587
-30.373
-35.414
-33.856
-15.763
6.527
15.604
15.532
14.23
8.146
-0.729
-4.301
-2.96
4.08
23.297
46.676
55.972
50.271
42.278
36.698
32.125
29.452
29.619
33.772
41.284
45.586
44.398
45.933
52.601
56.446
57.559
63.352
70.799
73.195
74.786
79.374
81.121
78.681
78.78
83.073
89.098
96.549
101.175
98.845
97.789
106.244
116.572
120.603
123.206
128.28
132.977
138.165
144.756
147.553
146.292
148.038
154.613
163.661
175.215
184.633
184.892
181.185
183.607
190.01
194.245
198
202.762
207.393
214.195
221.326
221.574
218.658
222.288
228.183
229.665
233.764
242.081
243.729
240.115
241.649
243.99
241.653
243.556
250.974
253.565
253.293
256.046
254.449
247.829
247.552
250.241
244.852
237.434
233.819
225.611
213.99
208.914
204.494
193.042
183.546
178.807
168.018
152.634
142.19
132.31
118.331
107.695
100.377
88.057
74.608
66.824
59.091
49.621
45.457
42.693
33.285
24.417
22.406
18.543
10.053
5.933
5.994
2.738
-2.66
-6.364
-8.626
-7.625
-3.694
-3.47
-7.458
-8.961
-8.262
-8.789
-7.155
-3.772
-6.254
-12.581
-13.337
-10.591
-11.346
-11.827
-7.706
-3.86
-2.761
-1.135
1.127
3.446
7.533
11.262
11.725
10.593
7.901
3.691
4.837
12.575
15.571
10.389
7.057
7.672
5.956
4.157
5.558
3.795
-2.067
-2.281
4.02
6.681
3.169
-0.819
-3.001
-2.547
1.72
5.347
4.306
2.855
3.318
1.309
-2.181
-1.772
0.881
2.492
4.268
4.422
0.886
-0.947
1.482
3.018
3.982
7.368
6.125
-3.431
-9.277
-4.404
1.169
0.791
-0.611
-1.63
-4.723
-5.851
-1.88
1.485
0.714
0.326
2.737
5.43
7.228
7.732
6.894
8.664
15.132
20.337
19.724
16.432
12.609
7.787
5.091
6.002
6.271
4.981
5.047
4.249
-0.056
-4.091
-5.693
-6.874
-5.941
-1.172
2.883
3.055
1.128
-2.467
-6.508
-6.132
-1.776
-0.694
-4.674
-7.545
-5.465
-1.193
-0.002
-4.342
-10.065
-11.465
-10.951
-14.15
-18.151
-17.769
-15.293
-12.232
-6.492
-3.32
-7.923
-11.292
-5.928
-0.583
-1.206
-1.618
-2.193
-8.976
-15.949
-14.847
-10.837
-9.548
-7.64
-5.079
-5.498
-6.352
-6.267
-9.759
-14.349
-12.569
-7.984
-8.466
-12.008
-14.782
-17.023
-15.894
-11.857
-13.53
-20.199
-20.977
-17.451
-17.667
-15.946
-8.334
-5.05
-6.931
-3.439
1.112
-2.809
-6.313
-0.861
4.211
3.126
2.137
1.496
-2.744
-6.169
-4.727
-2.309
-1.923
-2.853
-3.885
-1.581
5.452
11.176
11.996
13.105
16.407
17.411
17.482
20.945
23.994
23.801
26.628
33.644
36.612
34.31
33.911
37.319
41.552
44.108
40.56
30.69
24.722
27.84
29.941
24.074
16.568
10.917
3.241
-5.464
-11.455
-15.596
-18.123
-19.41
-24.69
-32.548
-32.076
-23.342
-18.361
-18.677
-17.71
-17.485
-20.6
-21.885
-20.789
-22.293
-25.01
-25.866
-27.23
-29.065
-28.243
-26.834
-27.453
-27.426
-26.341
-27.31
-29.37
-30.79
-33.046
-34.069
-30.628
-26.323
-23.155
-16.01
-4.13
9.814
29.982
57.903
86.997
118.518
158.87
201.113
238.075
280.686
334.204
376.822
385.995
363.721
318.797
248.106
152.076
46.227
-59.58
-171.131
-287.106
-397.003
-508.381
-633.361
-744.381
-793.722
-779.003
-741.08
-703.122
-659.276
-610.002
-559.483
-494.715
-411.785
-338.08
-290.21
-246.041
-189.241
-136.498
-100.22
-72.572
-52.876
-45.133
-37.617
-23.288
-17.028
-24.988
-30.494
-25.851
-21.203
-19.773
-17.9
-19.099
-22.875
-19.228
-7.69
1.872
8.324
15.773
19.297
13.232
2.253
-6.035
-7.552
0.645
17.519
34.404
41.493
36.729
26.62
18.544
13.002
8.168
9.73
24.035
43.711
54.773
53.874
46.349
36.87
31.137
33.441
39.086
42.946
49.383
59.193
61.538
53.138
45.982
45.912
46.304
46.137
50.43
56.617
60.109
62.692
65.35
67.375
71.093
75.713
78.141
81.656
87.342
88.007
84.154
85.197
91.088
96.393
103.608
112.584
115.55
113.745
116.326
122.556
126.273
129.038
133.194
135.991
137.791
141.259
144.749
148.475
156.221
164.611
167.728
171.007
180.771
189.186
188.838
186.96
190.212
194.49
197.837
203.277
208.894
212.377
217.325
224.036
227.574
227.886
228.027
227.067
224.045
220.639
218.601
220.335
224.868
224.878
219.067
215.859
216.317
213.858
210.583
209.52
202.757
188.731
178.823
174.306
165.05
151.885
142.29
134.063
124.63
117.595
109.501
95.01
83.14
81.018
76.197
60.769
47.959
45.274
41.819
32.084
22.808
16.64
10.312
1.895
-7.905
-13.751
-11.927
-11.337
-20.244
-28.809
-27.485
-25.643
-31.209
-35.996
-34.508
-32.112
-32.013
-34.224
-39.536
-43.355
-40.576
-37.778
-43.42
-52.506
-55.791
-53.56
-50.55
-48.224
-46.406
-45.056
-44.45
-45.06
-44.457
-39.375
-34.032
-35.948
-42.036
-42.739
-38.469
-37.156
-40.058
-43.043
-44.7
-44.501
-41.847
-39.166
-37.061
-32.228
-27.206
-29.007
-35.067
-37.201
-36.008
-35.926
-36.122
-36.132
-37.291
-37.23
-34.334
-30.877
-26.604
-20.466
-16.264
-16.048
-16.572
-17.512
-20.826
-23.322
-22.758
-24.433
-31.06
-36.524
-36.796
-35.216
-33.553
-29.889
-26.353
-28.019
-34.333
-39.375
-39.016
-34.527
-31.804
-35.346
-40.858
-40.516
-35.397
-32.207
-31.152
-29.068
-27.975
-29.942
-31.809
-31.115
-28.703
-25.529
-23.777
-25.64
-28.425
-28.841
-28.548
-29.157
-30.135
-32.481
-35.992
-39.093
-43.945
-50.115
-49.977
-42.769
-38.041
-38.216
-37.354
-35.434
-35.13
-33.856
-31.147
-30.403
-30.91
-31.522
-34.941
-38.855
-37.35
-34.354
-37.327
-41.831
-41.237
-40.675
-45.201
-50.166
-52.824
-55.003
-54.52
-51.516
-52.542
-56.212
-54.267
-49.702
-50.319
-52.477
-52.273
-54.901
-59.954
-60.466
-58.246
-58.303
-57.767
-55.574
-55.351
-53.987
-48.398
-46.508
-51.68
-53.938
-50.73
-50.998
-53.851
-51.801
-48.738
-49.356
-47.803
-42.551
-39.252
-36.697
-32.323
-30.714
-32.354
-32.086
-29.953
-26.373
-18.958
-12.796
-13.308
-13.681
-9.714
-8.531
-10.5
-9.209
-7.621
-8.32
-4.142
4.396
8.181
8.729
11.804
13.97
14.037
15.836
15.674
10.745
7.589
5.615
-2.778
-12.145
-14.023
-15.78
-23.196
-27.523
-26.73
-30.232
-37.533
-40.949
-42.677
-46.214
-47.051
-45.811
-49.249
-54.38
-53.515
-49.793
-49.631
-51.282
-52.172
-53.561
-54.238
-52.212
-49.83
-48.846
-47.956
-48.556
-52.579
-55.469
-52.446
-47.916
-48.842
-54.319
-58.197
-56.578
-51.461
-49.143
-50.57
-47.905
-37.671
-23.764
-4.889
19.442
40.204
59.857
95.23
142.601
181.779
217.703
269.215
326.967
363.582
366.829
338.91
282.909
201.278
100.443
-6.455
-109.851
-214.095
-322.382
-426.806
-529.396
-638.83
-732.432
-770.301
-755.102
-724.405
-690.904
-646.453
-601.386
-561.222
-499.566
-408.272
-328.781
-287.736
-255.911
-205.54
-150.527
-109.78
-83.663
-70.27
-65.638
-59.386
-50.008
-44.186
-41.662
-40.685
-42.142
-39.577
-30.169
-27.034
-34.741
-37.02
-26.516
-12.899
0.827
14.731
19.077
12.764
8.262
6.751
1.05
-2.485
4.868
18.603
32.471
42.006
39.3
26.321
16.069
10.269
3.106
1.909
14.101
29.429
37.272
39.734
38.744
33.403
28.214
27.414
31.152
41.44
55.707
62.049
57.601
54.252
55.961
55.701
55.157
59.634
63.626
63.681
66.076
71.101
73.63
75.904
79.4
80.349
82.583
90.286
94.412
91.52
94.278
105.102
111.382
112.533
117.376
122.547
122.631
124.078
130.691
136.475
138.927
140.977
143.772
148.699
156.895
164.203
166.625
166.6
168.168
173.218
181.444
188.149
190.229
194.384
205.427
214.15
213.587
212.654
218.063
222.131
220.551
221.142
227.489
233.501
236.023
236.59
235.108
233.413
235.148
237.608
237.071
237.558
240.461
238.57
230.969
226.443
227.859
229.665
227.917
221.229
209.782
198.517
191.889
186.74
178.454
167.775
156.421
144.976
135.624
127.883
116.892
102.977
92.458
85.772
77.817
68.275
59.604
51.192
43.086
36.605
30.476
24.227
19.013
12.558
4.575
0.629
-0.764
-7.484
-14.683
-12.295
-7.185
-10.235
-17.031
-21.602
-25.515
-27.001
-25.251
-26.48
-30.167
-29.634
-27.873
-29.31
-28.367
-24.601
-27.199
-35.693
-40.458
-40.524
-40.85
-42.085
-45.149
-51.35
-55.04
-51.537
-47.092
-47.667
-48.938
-46.796
-44.427
-44.997
-48.904
-55.415
-60.134
-59.692
-58.547
-59.469
-57.036
-51.298
-50.131
-52.527
-51.26
-49.166
-51.619
-53.983
-52.983
-53.899
-57.193
-56.816
-53.491
-52.444
-53.032
-52.932
-52.434
-50.393
-48.492
-52.748
-58.978
-55.105
-45.16
-44.092
-49.874
-50.31
-45.999
-41.831
-35.914
-30.649
-31.355
-33.914
-33.249
-32.102
-30.91
-27.193
-25.241
-28.841
-32.507
-31.304
-27.415
-24.62
-26.38
-32.533
-34.459
-26.942
-19.351
-20.044
-23.086
-22.183
-20.296
-19.865
-19.735
-20.461
-21.601
-20.399
-17.476
-15.367
-13.88
-13.712
-16.787
-20.435
-21.769
-24.308
-29.485
-31.331
-28.474
-27.429
-29.598
-30.447
-29.716
-29.237
-28.537
-29.346
-32.729
-34.147
-32.701
-33.815
-36.493
-35.343
-33.457
-35.258
-36.326
-33.546
-30.89
-30.744
-33.438
-39.094
-41.682
-36.607
-32.746
-37.196
-41.251
-39.282
-38.179
-38.685
-35.878
-34.525
-37.574
-36.66
-31.033
-28.965
-28.07
-24.303
-26.583
-36.053
-38.212
-32.185
-32.163
-37.121
-36.557
-34.559
-36.55
-35.92
-32.422
-33.177
-34.002
-29.835
-28.374
-32.151
-33.785
-34.69
-38.557
-37.789
-30.477
-26.78
-27.848
-26.724
-24.485
-22.225
-15.722
-9.239
-9.975
-12.128
-9.158
-6.424
-6.466
-3.457
2.28
5.158
5.541
5.352
3.988
4.262
7.865
9.565
8.736
12.052
17.513
17.233
14.737
16.724
18.774
17.032
15.13
12.008
5.212
0.895
0.808
-3.112
-9.788
-10.821
-11.077
-18.698
-26.382
-27.167
-28.085
-33.205
-37.512
-40.183
-42.252
-40.228
-35.66
-34.328
-33.76
-30.545
-30.532
-35.775
-38.797
-37.512
-36.422
-36.615
-38.927
-43.131
-42.008
-35.345
-35.564
-42.864
-43.67
-40.231
-44.805
-51.959
-51.597
-49.063
-48.061
-42.059
-32.007
-23.243
-10.015
12.368
35.811
57.041
85.639
124.476
164.896
205.552
253.76
307.232
351.748
373.628
366.351
333.422
281.979
206.654
99.913
-20.619
-130.272
-231.897
-335.722
-437.694
-544.427
-663.366
-759.345
-788.293
-762.111
-722.682
-685.928
-649.344
-609.604
-556.117
-484.014
-407.891
-341.671
-284.352
-231.771
-182.363
-136.128
-98.439
-73.563
-56.092
-41.406
-33.72
-34.64
-38.771
-43.164
-46.261
-42.412
-30.75
-20.875
-20.37
-25.032
-24.606
-12.6
6.751
21.028
25.009
25.247
23.758
14.813
1.792
-4.06
-0.227
9.688
24.556
39.161
45.425
44.59
41.669
35.118
26.939
26.819
36.22
47.348
57.233
64.001
61.369
52.035
47.269
47.903
48.207
51.442
60.192
67.71
71.828
75.366
73.274
63.862
59.445
65.103
70.097
70.962
74.116
78.1
80.306
85.562
91.172
89.083
85.297
89.457
96.409
99.348
101.673
105.709
109.124
111.836
115.174
121.035
130.66
138.096
138.054
138.788
146.886
153.191
154.02
159.74
169.511
172.021
170.977
175.134
178.142
175.868
177.745
185.892
192.563
198.556
207.421
213.435
214.014
214.968
216.204
214.162
214.994
224.606
235.719
239.502
236.828
232.12
229.406
232.269
238.086
240.278
238.789
237.48
236.598
237.567
242.844
246.551
242.17
236.014
235.106
233.515
225.902
217.25
210.522
202.96
194.852
187.413
178.702
168.278
156.843
144.483
134.965
130.142
122.306
107.767
96.185
91.922
86.007
75.796
68.027
60.935
49.423
40.733
40.347
38.165
28.423
20.293
16.926
10.91
3.38
1.818
3.252
-0.759
-10.073
-17.453
-17.945
-14.533
-14.733
-18.659
-18.823
-15.698
-16.689
-19.222
-16.996
-15.935
-20.743
-21.828
-15.107
-11.572
-15.784
-20.625
-24.095
-28.208
-29.846
-27.918
-26.266
-25.961
-27.275
-31.23
-32.717
-27.324
-21.694
-21.148
-20.752
-19.407
-21.707
-24.297
-22.58
-22.052
-25.861
-28.163
-27.903
-29.383
-30.971
-29.98
-29.339
-29.98
-29.441
-28.784
-29.229
-28.582
-27.599
-28.505
-27.536
-21.975
-17.876
-19.289
-20.966
-19.364
-17.757
-17.89
-18.872
-21.778
-26.353
-29.367
-29.836
-29.06
-28.186
-29.413
-32.057
-30.525
-25.265
-24.172
-26.607
-24.921
-22.044
-24.409
-25.901
-21.714
-20.47
-24.955
-25.866
-22.605
-22.531
-24.345
-25.781
-30.26
-33.52
-29.488
-25.7
-27.191
-25.742
-21.676
-23.77
-26.656
-22.991
-21.135
-24.425
-24.026
-22.812
-29.121
-34.561
-31.175
-27.773
-28.881
-28.687
-28.845
-32.269
-32.998
-31.301
-33.549
-35.253
-32.208
-31.954
-33.758
-27.78
-19.853
-21.475
-26.219
-26.267
-27.856
-32.553
-33.403
-32.412
-34.383
-34.461
-31.18
-31.826
-36.016
-36.684
-34.982
-34.395
-32.529
-31.237
-35.159
-38.083
-33.396
-28.734
-30.04
-30.494
-28.206
-29.941
-34.57
-36.061
-35.11
-33.293
-30.731
-31.717
-36.97
-39.69
-38.658
-38.683
-38.455
-35.512
-34.531
-37.747
-40.057
-38.905
-36.563
-34.655
-34.588
-36.426
-36.314
-33.933
-35.166
-39.629
-40.07
-37.203
-36.959
-37.478
-35.692
-34.454
-33.387
-30.178
-28.915
-29.768
-25.515
-19.59
-22.252
-27.751
-24.524
-17.731
-15.624
-13.38
-8.487
-7.455
-9.87
-9.426
-6.189
-0.563
8.819
14.131
8.955
4.161
8.914
13.742
10.515
3.995
-2.928
-10.541
-14.947
-16.876
-22.507
-30.126
-34.981
-39.944
-44.594
-42.569
-39.827
-48.375
-60.843
-61.444
-53.394
-48.557
-47.586
-48.641
-53.069
-56.027
-52.91
-48.731
-46.566
-43.509
-42.867
-48.562
-52.792
-49.596
-46.442
-48.563
-51.528
-54.267
-59.257
-63.271
-62.955
-60.539
-57.988
-55.879
-54.482
-49.337
-36.662
-21.875
-8.567
9.575
34.09
60.528
94.891
142.049
188.183
225.845
269.907
322.319
359.842
370.045
357.214
318.417
251.048
164.137
62.291
-54.444
-175.372
-287.331
-387.82
-486.553
-601.678
-729.336
-820.223
-833.015
-793.093
-749.941
-713.807
-673.211
-625.072
-562.746
-480.185
-392.62
-319.073
-258.046
-201.981
-152.677
-112.017
-79.608
-59.28
-51.637
-48.466
-44.105
-41.425
-44.194
-51.832
-57.208
-49.139
-29.175
-17.432
-24.438
-33.502
-28.123
-14.283
-2.642
6.442
13.775
18.093
19.621
15.709
5.567
0.456
10.224
27.586
42.327
53.116
56.38
48.772
39.699
37.418
36.526
36.142
45.208
61.008
70.167
69.622
64.771
58.484
54.515
55.577
57.641
60.29
69.946
83.476
89.003
84.973
78.486
72.386
69.068
72.74
80.718
87.336
92.813
96.85
96.595
95.823
99.013
101.396
100.754
103.73
110.282
113.247
113.807
115.903
116.189
115.769
122.228
132.679
137.368
136.932
136.965
137.691
140.5
148.327
157.555
163.961
169.45
174.453
176.552
177.834
180.781
183.316
186.031
191.747
196.758
197.316
198.041
201.369
202.719
202.654
205.425
207.587
206.586
209.302
217.57
223.229
224.388
226.497
229.711
232.168
235.167
235.911
230.918
225.729
225.264
225.078
223.084
222.54
220.97
215.234
210.427
208.58
203.919
196.243
189.382
180.04
166.764
156.173
147.971
135.095
121.471
114.986
109.92
98.667
86.014
76.517
66.975
57.202
49.28
40.291
29.977
23.658
21.111
17.529
13.062
8.954
4.096
0.721
-0.356
-5.368
-14.665
-19.258
-19.597
-24.389
-30.155
-29.637
-29.564
-34.538
-36.05
-33.601
-35.949
-39.864
-38.665
-38.263
-41.965
-43.119
-41.469
-41.193
-39.333
-35.983
-38.15
-43.895
-44.813
-42.219
-40.727
-38.029
-35.171
-37.909
-42.209
-39.908
-34.85
-33.763
-33.696
-32.614
-34.34
-37.2
-36.742
-36.1
-38.583
-40.968
-41.182
-39.294
-34.553
-31.409
-35.089
-39.424
-37.285
-34.326
-36.003
-38.503
-40.635
-43.698
-43.51
-39.939
-38.682
-36.57
-28.991
-25.439
-31.891
-36.425
-32.536
-29.589
-30.653
-30.039
-30.001
-33.384
-33.65
-29.604
-28.648
-30.034
-27.711
-23.998
-23.133
-24.22
-26.904
-29.918
-29.482
-28.022
-30.606
-33.255
-31.362
-29.876
-31.772
-32.257
-30.499
-30.175
-30.5
-29.632
-28.324
-25.552
-22.228
-23.72
-28.566
-28.98
-26.216
-26.386
-27.018
-25.935
-27.8
-30.438
-27.451
-24.982
-30.448
-35.634
-34.125
-34.995
-42.067
-45.642
-43.796
-44.398
-45.857
-41.337
-34.762
-32.98
-34.699
-37.405
-39.79
-37.688
-32.121
-31.667
-37.289
-40.436
-38.695
-36.77
-35.677
-33.625
-31.154
-30.054
-32.154
-36.464
-37.172
-32.564
-29.805
-32.136
-34.248
-35.121
-37.797
-38.766
-35.334
-32.92
-32.77
-30.524
-29.803
-34.898
-37.636
-32.603
-28.323
-29.168
-29.486
-29.339
-31.698
-31.764
-28.664
-30.2
-35.528
-36.663
-36.305
-39.925
-42.317
-40.819
-40.827
-40.84
-37.225
-36.749
-41.945
-43.519
-39.874
-38.785
-40.451
-41.29
-42.096
-41.005
-37.051
-36.888
-40.722
-39.69
-35.408
-34.765
-31.925
-24.02
-21.833
-24.318
-18.48
-9.66
-10.143
-11.251
-4.911
-2.548
-7.114
-7.072
-4.765
-8.675
-10.7
-4.882
-0.615
-0.101
3.091
5.951
6.574
12.267
20.287
20.826
18.494
20.887
22.604
20.888
20.448
17.61
7.911
-0.12
-0.67
-1.113
-6.278
-13.345
-20.617
-25.192
-23.658
-21.826
-26.49
-32.208
-33.589
-35.076
-36.795
-33.899
-31.063
-32.37
-29.483
-21.74
-22.172
-29.446
-28.711
-23.151
-25.803
-30.216
-26.616
-24.417
-29.496
-31.713
-29.618
-31.045
-32.583
-30.73
-33.539
-40.978
-43.413
-42.921
-44.634
-39.922
-24.363
-8.425
4.892
24.505
51.6
82.377
119.503
161.589
201.958
244.851
296.257
344.78
376.369
389.008
377.48
332.595
258.871
165.946
55.103
-68.191
-190.602
-303.803
-407.758
-514.881
-640.533
-761.798
-823.358
-812.553
-773.088
-735.476
-697.1
-655.301
-604.852
-533.794
-449.695
-371.995
-302.146
-236.93
-185.106
-146.328
-107.917
-70.912
-47.382
-37.457
-32.436
-28.462
-26.186
-28.532
-35.724
-36.662
-21.829
-4.362
-3.476
-13.553
-15.359
-5.361
7.155
16.491
22.303
27.96
35.543
37.172
26.971
17.536
22.033
34.681
47.481
60.469
67.342
61.737
52.531
47.288
40.439
33.516
38.084
53.27
67.211
74.808
75.929
70.524
64.002
62.32
63.596
65.209
68.846
73.636
77.329
82.045
87.153
85.885
78.674
76.876
86.411
100.044
108.094
107.693
103.504
102.522
104.448
103.103
100.235
102.712
107.227
107.889
110.081
117.319
122.057
122.871
127.065
133.638
138.506
146.061
154.683
153.814
148.182
153.619
167.161
174.386
176.124
179.671
182.717
183.826
186.63
189.536
191.256
197.581
207.859
212.075
209.692
211.025
218.115
223.667
225.283
225.548
225.702
227.28
230.681
232.784
233.147
234.097
234.118
232.928
234.484
236.599
234.187
231.945
234.433
235.87
234.531
235.673
235.635
228.748
222.518
222.306
218.783
207.554
197.577
192.295
186.226
178.426
170.624
161.733
153.545
147.803
139.167
124.558
108.822
94.328
81.287
74.505
72.721
65.668
53.187
44.878
39.902
32.84
28.249
26.779
19.158
7.6
3.902
4.943
0.142
-7.314
-11.132
-15.187
-21.329
-24.327
-23.805
-24.824
-28.935
-33.647
-35.757
-34.059
-32.398
-34.889
-38.529
-39.593
-41.176
-44.323
-44.027
-41.887
-45.116
-51.03
-52.779
-53.518
-55.895
-53.722
-47.385
-45.226
-46.28
-44.837
-43.963
-45.745
-45.181
-42.981
-43.515
-43.227
-40.322
-41.256
-45.047
-43.702
-40.404
-41.864
-42.266
-38.148
-38.897
-45.86
-48.415
-46.437
-47.553
-49.153
-47.731
-48.43
-51.126
-49.76
-46.437
-45.769
-45.821
-46.469
-50.015
-53.204
-53.619
-53.969
-53.531
-50.896
-50.175
-50.922
-47.586
-43.819
-45.904
-48.863
-48.635
-50.213
-52.757
-50.745
-48.774
-51.633
-52.701
-49.008
-46.523
-44.755
-40.229
-38.584
-42.25
-43.621
-42.333
-44.387
-44.946
-39.198
-36.228
-39.707
-39.943
-36.646
-38.349
-41.529
-40.154
-40.665
-45.723
-46.845
-43.016
-41.351
-41.415
-39.818
-39.805
-42.928
-44.717
-43.525
-41.511
-38.825
-35.33
-32.688
-31.289
-30.666
-30.967
-30.56
-28.29
-27.532
-30.438
-34.121
-37.797
-42.454
-43.79
-39.596
-36.825
-39.599
-43.508
-45.956
-46.787
-44.516
-43.179
-48.137
-53.312
-51.692
-48.687
-48.152
-44.928
-40.391
-40.915
-42.603
-40.292
-39.045
-40.696
-39.704
-38.641
-43.209
-46.206
-40.497
-34.225
-34.471
-36.508
-38.286
-41.385
-40.415
-33.826
-30.843
-32.856
-31.646
-29.428
-32.303
-33.25
-28.198
-27.921
-35.271
-38.919
-36.376
-34.885
-35.559
-37.396
-41.482
-43.1
-38.553
-34.608
-35.416
-34.992
-31.291
-29.12
-28.197
-24.963
-21.947
-23.817
-29.521
-34.035
-33.871
-29.58
-25.324
-24.964
-27.268
-27.259
-22.801
-17.158
-14.82
-15.789
-14.791
-9.349
-5.283
-5.973
-4.851
0.031
0.1
-4.565
-3.455
1.842
1.31
-0.528
6.264
16.503
21.73
24.322
26.029
24.297
22.763
24.817
24.332
17.832
10.659
4.515
-2.095
-4.217
-0.78
-2.483
-12.839
-20.541
-21.452
-24.427
-31.911
-38.339
-42.773
-45.202
-43.26
-40.932
-43.064
-44.436
-41.414
-41.112
-46.335
-49.833
-48.986
-48.545
-50.331
-52.302
-52.123
-48.279
-43.589
-42.448
-42.754
-41.822
-44.108
-49.796
-50.72
-47.37
-48.407
-51.895
-50.012
-43.878
-35.638
-21.674
-2.108
19.758
44.572
72.334
102.005
137.178
178.952
221.717
264.3
308.376
343.58
353.775
335.205
292.115
223.695
131.073
25.377
-85.766
-204.085
-321.739
-424.742
-526.148
-651.141
-776.771
-842.823
-833.346
-790.743
-749.292
-708.147
-660.342
-603.755
-534.347
-454.365
-375.553
-306.249
-246.672
-195.249
-150.942
-112.58
-80.498
-57.972
-48.234
-47.753
-47.423
-45.224
-48.045
-54.977
-52.953
-36.36
-18.221
-15.01
-25.982
-32.676
-22.4
-5.773
1.777
3.98
9.256
11.199
4.885
-1.36
-3.841
-5.207
1.039
18.728
35.061
40.56
39.947
34.631
23.206
15.091
17.827
25.517
34.588
47.762
59.119
60.179
54.648
49.134
44.113
42.052
45.977
52.569
59.931
68.451
71.666
66.899
64.217
66.669
65.807
64.476
70.951
77.428
76.917
79.291
87.557
91.327
91.542
95.951
99.291
98.004
101.339
109.863
113.829
115.466
121.722
127.048
127.699
130.604
136.038
137.779
137.859
138.826
137.582
138.542
147.688
156.649
158.981
163.106
170.272
171.686
171.923
178.719
184.014
185.43
193.603
202.647
198.413
192.488
201.201
212.86
213.916
212.865
216.003
217.792
218.949
222.692
225.398
227.295
230.834
230.457
225.716
226.813
233.805
236.641
235.818
236.69
235.732
231.68
230.657
232.331
231.403
228.782
224.845
215.103
202.355
194.625
189.59
180.007
167.741
157.135
146.913
136.388
125.925
113.612
101.62
94.182
87.399
77.757
70.885
66.45
55.766
42.301
36.488
34.509
29.269
24.733
20.971
12.356
4.77
4.538
2.485
-5.704
-8.761
-4.406
-2.952
-4.923
-4.847
-6.07
-10.147
-11.42
-11.644
-16.797
-22.556
-23.613
-23.566
-22.936
-18.441
-15.913
-21.006
-25.94
-24.029
-20.709
-20.191
-20.77
-23.308
-26.737
-24.384
-17.233
-15.324
-20.199
-23.779
-23.532
-22.821
-22.663
-23.136
-24.293
-24.449
-24.344
-25.963
-26.497
-25.044
-26.962
-31.143
-30.194
-27.42
-31.596
-38.877
-39.589
-32.959
-24.206
-18.786
-19.851
-23.377
-23.346
-21.804
-22.137
-20.804
-17.744
-20.141
-27.158
-29.846
-28.516
-28.998
-28.294
-25.078
-27.785
-35.044
-33.755
-25.532
-23.791
-26.478
-23.007
-16.948
-16.9
-21.262
-25.896
-30.327
-33.397
-34.466
-34.465
-32.719
-30.354
-31.427
-34.401
-33.569
-29.917
-27.747
-26.548
-26.579
-30.196
-33.153
-30.212
-26.054
-25.77
-25.986
-25.533
-27.528
-28.479
-24.584
-22.073
-25.086
-28.163
-28.851
-28.466
-24.146
-18.177
-19.338
-24.592
-23.567
-19.914
-22.603
-28.17
-30.477
-29.878
-26.908
-24.463
-27.606
-31.522
-29.159
-27.317
-31.793
-34.138
-32.052
-34.775
-40.019
-37.51
-31.179
-29.817
-30.459
-29.559
-29.982
-30.179
-27.678
-28.359
-34.411
-36.893
-32.442
-29.596
-33.148
-38.491
-40.774
-39.305
-36.881
-36.978
-38.601
-39.539
-42.576
-47.853
-48.47
-44.629
-45.548
-50.621
-50.729
-48.163
-51.024
-54.963
-52.571
-48.047
-46.321
-44.474
-42.554
-44.232
-45.64
-41.604
-37.47
-39.085
-41.549
-39.778
-37.27
-37.416
-37.921
-35.711
-30.902
-27.855
-30.446
-33.87
-31.302
-26.539
-24.49
-20.35
-14.279
-15.663
-21.823
-20.579
-14.832
-14.399
-14.355
-8.211
-2.312
-0.025
3.348
6.168
4.857
4.023
6.233
8.076
10.16
13.752
15.682
17.509
23.261
27.967
27.013
25.868
26.769
24.895
21.783
20.308
14.04
2.261
-2.374
3.04
5.126
-0.557
-4.849
-6.599
-11.777
-17.457
-20.539
-27.455
-37.418
-39.409
-34.366
-32.214
-30.914
-25.779
-22.888
-23.503
-20.002
-14.493
-15.545
-21.283
-24.974
-25.251
-23.194
-21.666
-23.608
-25.59
-24.632
-25.803
-30.05
-30.594
-28.579
-29.758
-29.762
-25.98
-26.917
-31.92
-28.735
-17.663
-7.192
6.361
27.372
49.566
72.915
105.079
143.373
180.541
219.443
265.913
318.961
367.141
387.364
365.421
313.73
244.506
151.993
43.89
-57.982
-158.4
-272.652
-387.098
-491.327
-601.442
-706.694
-761.077
-754.052
-721.044
-684.378
-643.356
-601.111
-555.186
-489.848
-406.319
-332.473
-285.869
-250.83
-204.715
-149.341
-103.334
-74.96
-56.997
-42.563
-31.883
-24.869
-19.599
-18.497
-23.572
-26.457
-18.521
-7.608
-6.985
-14.274
-18.329
-15.505
-5.791
11.039
27.399
33.165
29.162
21.518
12.24
4.635
3.764
10.415
25.032
45.061
56.33
50.735
42.54
41.759
37.763
29.172
30.61
41.882
51.857
61.817
70.815
67.141
54.564
49.794
52.875
54.53
56.778
62.69
68.79
74.19
77.264
73.89
69.89
74.113
80.767
81.989
83.84
90.693
95.797
96.937
98.428
100.055
101.7
106.57
112.187
114.356
116.166
119.512
120.895
122.089
127.837
135.153
140.119
144.743
147.795
145.827
144.933
151.614
158.727
160.025
163.57
173.814
181.474
182.922
185.756
191.269
194.557
197.459
203.151
208.904
213.125
215.899
215.03
213.105
216.655
224.009
229.659
234.777
240.272
243.74
247.976
254.828
257.213
252.877
250.217
251.272
249.373
245.082
245.137
249.538
251.979
247.769
239.127
234.901
238.173
238.91
230.673
220.976
213.66
202.577
189.573
183.193
179.988
171.172
158.877
147.847
136.99
128.143
123.674
116.404
100.917
85.262
76.232
68.144
56.055
43.763
34.619
27.327
19.146
7.685
-3.503
-5.758
-1.859
-5.686
-16.487
-20.072
-18.114
-22.826
-30.013
-30.967
-32.182
-36.929
-35.903
-30.001
-29.699
-32.992
-33.407
-34.695
-37.383
-35.034
-31.306
-33.935
-37.305
-34.489
-31.66
-34.228
-37.34
-37.64
-37.8
-39.446
-41.908
-44.074
-45.255
-46.739
-48.396
-47.101
-44.604
-45.855
-47.161
-43.272
-40.438
-43.14
-43.408
-39.141
-39.434
-44.131
-44.873
-42.953
-42.883
-41.96
-39.762
-39.049
-37.492
-36.073
-41.787
-51.026
-52.572
-48.315
-47.227
-47.916
-47.076
-48.688
-52.347
-52.019
-49.081
-47.845
-45.32
-40.722
-40.351
-43.485
-42.515
-39.137
-39.977
-41.74
-39.415
-37.281
-38.016
-37.339
-35.318
-35.19
-34.209
-30.829
-30.032
-32.88
-35.061
-35.945
-36.601
-36.005
-35.55
-37.249
-39.469
-42.323
-47.631
-51.291
-49.031
-44.785
-41.928
-38.547
-36.914
-40.401
-43.192
-40.39
-38.443
-42.309
-47.172
-49.219
-49.628
-49.118
-48.805
-49.398
-48.04
-44.944
-44.634
-45.238
-43.144
-44.138
-50.226
-51.673
-47.509
-47.382
-49.177
-46.078
-44.988
-49.595
-49.31
-43.532
-44.031
-48.386
-46.481
-44.412
-50.013
-54.179
-50.047
-46.023
-47.456
-49.19
-48.053
-45.376
-42.79
-43.131
-46.484
-47.611
-45.56
-45.462
-46.624
-44.364
-41.869
-43.367
-44.22
-42.032
-42.693
-46.466
-46.362
-42.542
-40.711
-40.904
-41.217
-42.723
-43.897
-42.147
-40.044
-40.114
-40.971
-42.982
-46.423
-47.199
-44.618
-42.699
-40.022
-34.594
-32.761
-36.143
-34.971
-26.325
-18.514
-14.539
-10.995
-7.938
-6.414
-5.15
-3.659
-1.304
2.236
3.534
1.677
2.707
7.165
5.899
-1.78
-4.516
0.058
3.19
3.335
3.126
-1.438
-8.507
-7.908
-3.092
-7.252
-17.628
-23.44
-26.737
-31.358
-33.315
-34.438
-39.898
-44.226
-42.612
-41.874
-45.385
-47.271
-45.956
-44.683
-43.859
-44.565
-48.169
-50.59
-49.715
-50.679
-54.127
-54.38
-52.571
-53.249
-52.995
-49.44
-48.542
-51.552
-53.102
-54.097
-57.002
-57.13
-54.399
-55.658
-57.332
-49.046
-32.297
-13.768
6.894
29.132
52.122
83.394
124.888
165.263
202.261
247.722
303.265
353.099
376.731
360.759
310.431
241.069
152.789
41.685
-74.211
-179.58
-285.498
-397.576
-505.764
-614.041
-720.263
-784.789
-782.694
-747.949
-716.379
-682.345
-639.507
-594.901
-535.753
-451.319
-371.98
-325.178
-288.375
-234.492
-174.911
-126.771
-90.165
-67.19
-58.923
-53.517
-44.701
-39.396
-39.652
-41.57
-43.311
-39.66
-28.128
-20.398
-25.309
-32.69
-30.858
-20.442
-4.764
11.788
20.46
19.62
15.836
8.664
-4.16
-12.133
-5.542
9.717
25.935
41.29
48.754
42.172
30.166
23.326
20.317
20.318
29.304
45.803
59.043
62.751
58.814
52.12
47.116
44.337
42.552
45.112
54.544
64.589
69.045
69.438
66.663
60.593
58.855
66.569
73.977
72.968
71.582
77.015
82.934
83.069
79.941
78.111
80.781
88.092
94.178
94.983
95.629
100.437
105.746
109.291
113.292
117.353
120.43
123.889
126.161
125.934
129.148
138.765
147.096
150.324
154.544
160.66
163.289
164.072
167.033
169.927
173.217
180.232
185.427
184.175
184.381
189.142
190.57
191.136
199.794
209.508
210.288
208.923
212.332
216.166
219.772
225.222
226.269
221.217
220.098
225.229
228.041
228.002
230.372
231.913
228.342
223.475
220.361
216.98
212.018
205.126
196.625
189.11
182.601
174.46
167.121
162.818
155.098
141.151
129.292
121.496
109.879
95.912
87.052
79.395
68.984
63.323
62.846
57.551
49.061
45.274
40.615
29.828
21.488
19.078
15.262
9.71
6.497
2.541
-3.307
-7.14
-10.544
-15.209
-16.661
-16.295
-19.785
-22.474
-19.626
-18.858
-22.972
-23.575
-21.653
-25.532
-29.955
-26.199
-21.54
-24.388
-28.038
-26.48
-25.82
-29.596
-32.129
-30.832
-29.555
-30.216
-31.445
-32.091
-31.652
-30.572
-29.3
-26.875
-24.454
-25.266
-27.321
-26.297
-25.188
-27.188
-26.802
-22.961
-24.367
-30.004
-29.041
-24.359
-26.34
-29.863
-26.955
-24.557
-27.5
-29.318
-28.907
-29.564
-28.152
-25.495
-27.84
-30.546
-26.404
-22.894
-26.844
-30.875
-30.357
-29.412
-27.362
-22.247
-19.342
-20.681
-21.371
-20.891
-21.348
-20.042
-16.728
-16.067
-17.575
-17.63
-17.851
-19.271
-19.116
-18.96
-20.941
-19.891
-14.564
-13.142
-16.837
-18.377
-18.335
-20.157
-18.708
-13.579
-14.066
-19.594
-20.688
-18.639
-18.965
-18.123
-15.36
-17.024
-21.747
-23.28
-22.855
-22.582
-21.066
-21.18
-25.017
-27.144
-25.499
-24.469
-24.044
-22.892
-24.34
-26.717
-24.615
-22.43
-25.217
-25.662
-20.457
-18.64
-20.755
-18.599
-16.285
-20.225
-21.82
-16.975
-16.716
-22.533
-24.399
-24.172
-28.481
-32.02
-31.525
-32.919
-35.35
-34.33
-34.935
-39.931
-41.612
-38.046
-35.632
-34.616
-32.943
-34.353
-37.645
-36.025
-32.273
-32.766
-33.139
-30.438
-32.029
-38.133
-39.786
-38.319
-41.192
-44.918
-43.694
-41.262
-41.549
-43.039
-44.437
-44.359
-41.549
-38.911
-38.893
-39.985
-41.552
-41.957
-37.871
-34.13
-37.75
-41.389
-35.857
-28.536
-26.822
-24.608
-20.278
-20.598
-23.174
-21.546
-18.921
-17.736
-13.819
-9.679
-11.359
-13.687
-9.749
-5.521
-7.502
-9.376
-4.681
1.485
3.037
2.06
2.368
5.055
10.018
13.589
10.486
2.429
-4.282
-8.38
-11.581
-13.948
-17.318
-23.755
-31.194
-38.09
-43.935
-44.471
-40.249
-41.288
-49.597
-54.694
-53.825
-53.781
-54.762
-54.177
-54.938
-55.487
-50.12
-43.497
-44.154
-49.152
-51.872
-51.942
-49.523
-46.004
-47.087
-51.967
-53.228
-51.642
-51.225
-48.438
-45.172
-50.556
-59.296
-58.516
-52.224
-47.683
-37.793
-21.159
-6.915
9.224
36.354
67.201
97.451
136.337
181.542
223.85
270.078
320.944
354.698
361.174
350.104
318.027
252.046
157.51
49.493
-64.665
-180.087
-290.114
-392.978
-498.69
-620.38
-741.969
-813.472
-810.187
-768.12
-730.531
-698.731
-657.583
-604.433
-538.206
-458.72
-380.258
-316.546
-261.291
-205.777
-157.026
-121.149
-92.36
-70.038
-60.612
-58.627
-52.999
-47.892
-52.309
-60.074
-59.234
-47.706
-32.923
-27.475
-36.335
-43.605
-32.871
-14.22
-4.737
-0.878
5.175
7.777
2.956
-4.084
-10.108
-12.821
-7.138
5.783
19.022
29.398
33.665
27.247
15.883
10.316
10.075
12.82
25.57
46.177
57.208
52.806
44.508
38.631
34.353
33.422
33.842
33.532
41.196
58.77
69.426
65.668
60.8
60.956
60.834
64.235
74.716
81.523
79.503
77.982
79.292
77.851
77.414
82.317
85.934
86.016
89.406
95.17
97.746
100.76
106.798
110.157
111.783
118.454
125.914
125.915
122.495
124.113
131.292
139.893
145.812
147.767
150.802
158.647
165.425
166.835
168.332
172.496
176.134
181.649
190.682
195.672
194.702
195.824
199.483
200.717
203.941
212.485
217.963
216.269
214.933
217.747
220.897
222.507
222.232
219.861
219.714
224.12
226.9
225.453
225.64
227.428
225.502
222.527
221.922
219.386
214.529
210.932
204.369
193.323
187.044
185.923
179.333
168.103
159.283
149.099
136.646
130.198
126.528
115.575
102.248
92.974
80.6
65.329
59.231
59.887
54.575
45.384
38.73
29.51
18.126
14.803
17.458
14.934
7.726
1.772
-3.019
-5.428
-3.895
-4.249
-8.872
-10.046
-5.685
-3.876
-7.644
-12.374
-15.347
-16.268
-15.93
-17.653
-21.402
-22.039
-19.649
-19.474
-20.563
-19.076
-17.217
-16.976
-16.713
-18.28
-22.64
-24.255
-22.79
-24.769
-27.835
-25.194
-22.313
-26.795
-32.658
-32.051
-28.014
-26.146
-27.516
-31.309
-34.409
-33.076
-29.656
-29.001
-29.605
-28.232
-26.495
-25.287
-23.772
-25.018
-29.644
-31.427
-29.863
-31.28
-33.741
-31.751
-29.977
-32.144
-31.928
-27.989
-26.1
-24.764
-21.387
-21.954
-27.018
-27.633
-23.421
-22.631
-25.826
-27.761
-27.367
-25.67
-23.763
-24.383
-27.304
-27.497
-23.205
-19.733
-21.625
-25.892
-26.416
-22.75
-20.224
-21.201
-21.912
-20.513
-21.043
-24.534
-24.727
-18.866
-13.525
-14.228
-18.512
-21.939
-22.375
-19.673
-17.698
-20.631
-24.136
-21.655
-17.96
-20.07
-22.232
-19.027
-18.369
-23.459
-24.638
-21.003
-21.795
-25.312
-25.187
-25.629
-27.972
-24.911
-18.991
-19.333
-22.708
-22.286
-21.051
-21.499
-21.622
-23.176
-26.121
-25.651
-24.265
-27.138
-28.446
-24.008
-21.804
-24.132
-24.284
-24.528
-29.268
-30.717
-24.982
-20.871
-20.514
-18.662
-18.97
-24.456
-26.421
-21.172
-16.058
-14.127
-14.554
-18.827
-22.413
-19.72
-17.661
-21.722
-23.308
-19.263
-18.468
-21.13
-20.467
-19.63
-22.128
-22.634
-21.575
-24.386
-26.379
-23.684
-24.111
-27.663
-23.486
-14.86
-14.549
-19.642
-20.513
-18.808
-17.319
-14.223
-13.004
-16.952
-20.486
-20.055
-19.573
-20.314
-20.576
-21.737
-23.617
-22.874
-20.253
-18.628
-16.503
-12.614
-9.422
-7.291
-4.519
-1.947
0.168
2.877
3.592
1.437
2.343
6.793
6.732
3.351
5.38
9.119
7.771
9.67
20.089
26.913
24.595
23.755
28.686
33.72
37.384
38.645
33.011
23.348
17.587
15.607
12.749
8.406
3.086
-2.235
-4.522
-6.006
-13.118
-22.311
-24.265
-22.16
-24.348
-26.688
-24.022
-23.282
-26.924
-26.062
-20.808
-20.394
-22.243
-18.821
-16.169
-20.883
-25.878
-26.278
-27.091
-28.345
-26.349
-25.925
-30.811
-34.116
-32.018
-30.027
-29.982
-28.371
-26.594
-27.913
-28.448
-22.091
-9.809
3.61
18.926
40.792
67.986
96.209
129.47
173.108
220.436
265.036
312.625
360.894
390.593
392.326
373.003
330.437
255.154
154.728
46.088
-67.187
-185.885
-298.494
-399.022
-506.84
-635.252
-750.636
-803.248
-790.351
-750.229
-709.42
-669.416
-624.295
-567.657
-497.584
-419.966
-340.709
-265.333
-203.357
-157.622
-119.185
-82.142
-50.345
-29.54
-22.058
-22.412
-20.015
-15.473
-19.871
-30.93
-32.621
-21.282
-9.547
-6.498
-9.655
-11.214
-5.843
3.885
13.287
24.539
37.854
42.565
32.459
17.068
7.642
8.112
20.077
39.02
52.872
56.277
53.649
47.187
38.237
32.997
33.912
38.77
50.091
66.146
72.645
64.47
56.427
56.712
56.763
54.384
57.165
64.703
71.246
75.832
77.285
74.551
72.638
74.012
74.22
74.27
79.304
84.519
83.675
83.218
87.657
88.49
84.242
86.507
96.329
102.804
104.548
105.93
104.17
100.713
104.732
114.594
119.298
118.161
118.446
121.634
125.378
128.733
131.983
137.374
144.415
147.425
147.338
152.107
159.46
161.52
162.652
168.865
174.972
178.983
185.527
191.123
191.247
192.809
200.274
206.671
207.494
205.913
205.823
210.504
218.646
221.736
218.246
219.208
227.889
233.747
233.553
234.264
235.381
233.022
232.718
237.182
237.264
229.207
221.359
218.055
215.583
211.888
206.388
197.669
187.777
179.664
172
164.289
158.626
152.3
141.159
128.635
118.624
108.458
98.301
91.505
83.081
67.739
52.901
44.68
36.761
27.056
22.65
22.245
17.939
11.384
8.019
5.931
2.776
-0.33
-4.723
-11.142
-15.602
-16.698
-18.102
-20.838
-22.295
-21.82
-21.15
-22.272
-25.97
-29.622
-30.291
-30.365
-33.082
-36.279
-37.404
-36.795
-33.954
-31.019
-33.874
-39.79
-38.674
-32.77
-33.629
-39.638
-41.244
-40.825
-43.652
-44.259
-40.521
-40.374
-44.004
-43.276
-39.841
-40.454
-42.435
-42.802
-46.101
-50.835
-49.045
-43.684
-43.949
-47.422
-47.007
-44.161
-41.377
-37.595
-35.576
-37.62
-39.622
-40.366
-43.098
-45.408
-43.58
-40.766
-39.193
-36.783
-34.873
-35.283
-34.499
-31.142
-29.042
-29.374
-31.103
-34.918
-38.139
-36.357
-32.833
-32.979
-34.647
-35.383
-37.047
-37.846
-35.543
-34.531
-36.008
-35.322
-35.122
-39.874
-42.886
-40.302
-39.574
-40.797
-38.326
-39.13
-47.405
-50.123
-44.14
-43.463
-47.195
-42.628
-35.651
-37.488
-40.813
-38.32
-35.966
-35.153
-32.56
-33.235
-38.854
-40.865
-38.974
-40.805
-43.105
-40.073
-37.981
-40.858
-42.673
-42.437
-43.542
-43.446
-42.321
-44.883
-47.248
-44.386
-42.614
-45.349
-45.796
-43.045
-42.366
-43.398
-45.612
-50.267
-51.233
-44.693
-39.994
-41.899
-41.791
-38.289
-39.915
-44.532
-43.462
-40.192
-42.616
-48.591
-52.561
-52.411
-47.723
-43.384
-45.945
-50.545
-48.469
-44.095
-44.293
-44.523
-42.43
-44.432
-49.632
-50.207
-47.436
-47.703
-50.111
-50.565
-48.269
-44.466
-42.368
-44.364
-46.951
-46.793
-47.199
-49.252
-48.097
-44.874
-45.506
-46.749
-43.107
-40.629
-44.487
-47.368
-45.369
-44.921
-46.098
-42.864
-38.879
-40.169
-41.886
-39.917
-39.329
-42.106
-43.918
-42.711
-38.798
-35.095
-38.265
-46.709
-48.318
-41.297
-36.952
-37.731
-36.896
-34.55
-32.688
-28.918
-26.582
-29.797
-30.392
-23.016
-17.654
-18.462
-16.604
-12.46
-13.336
-14.228
-9.863
-7.604
-9.367
-7.699
-4.409
-4.058
0.394
10.633
14.329
9.358
7.707
10.725
9.751
4.906
0.11
-5.766
-10.785
-11.481
-11.727
-14.897
-18.666
-23.687
-30.687
-34.448
-35.092
-39.724
-47.054
-50.733
-52.084
-51.897
-46.872
-42.68
-45.825
-47.022
-39.195
-34.516
-41.024
-48.47
-50.327
-50.895
-50.014
-46.389
-45.524
-48.201
-49.002
-49.168
-51.34
-51.94
-52.455
-57.498
-59.938
-53.753
-49.696
-54.448
-56.853
-49.461
-35.807
-14.91
13.034
36.669
53.473
78.864
118.849
161.671
203.895
252.147
300.173
335.077
355.36
358.949
334.084
276.857
195.084
94.567
-18.968
-135.979
-250.35
-358.486
-463.379
-582.564
-715.743
-815.677
-840.814
-810.617
-767.472
-726.861
-687.534
-641.888
-575.606
-491.655
-411.339
-340.234
-271.755
-213.595
-172.133
-136.116
-99.919
-72.034
-55.471
-46.712
-44.551
-45.34
-45.91
-49.404
-51.877
-41.087
-21.333
-12.098
-17.024
-23.049
-23.873
-19.163
-6.853
7.608
15.39
19.365
23.061
18.3
4.416
-3.132
3.506
17.925
35.779
51.98
55.019
44.299
32.666
25.416
20.957
23.999
36.134
49.534
59.527
64.655
61.027
52.783
49.997
50.612
48.093
48.849
59.006
71.005
77.382
77.912
72.997
67.253
68.002
72.187
73.446
76.287
82.734
84.338
83.11
90.301
99.746
98.836
96.482
103.665
109.425
106.01
105.109
111.74
116.94
118.437
119.681
119.742
120.583
125.767
130.876
132.848
136.853
143.753
148.776
151.769
153.177
151.637
152.618
161.139
169.812
172.48
175.327
181.637
186.804
192.268
201.441
208.01
207.772
207.298
208.908
207.598
206.095
211.038
218.607
221.858
221.913
221.456
220.822
222.644
227.757
231.841
233.418
234.43
233.229
229.608
229.055
232.182
232.686
229.108
224.438
218.395
211.103
204.772
198.286
191.044
186.067
181.421
172.068
160.94
152.286
142.563
130.941
122.232
114.192
102.628
93.28
88.646
80.259
68.205
62.129
58.307
46.276
32.167
26.882
25.897
21.691
16.728
13.28
8.971
4.063
0.455
-1.867
-2.677
-2.8
-5.016
-8.816
-11.513
-13.909
-16.009
-14.658
-12.205
-14.361
-18.108
-17.499
-15.906
-17.823
-19.808
-19.294
-18.528
-17.717
-16.853
-18.33
-19.919
-17.518
-15.327
-17.805
-19.484
-17.485
-18.098
-21.07
-19.633
-17.432
-20.465
-21.894
-17.933
-18.039
-23.068
-22.037
-16.229
-15.56
-17.268
-14.943
-12.912
-14.357
-14.96
-13.774
-13.039
-12.504
-13.656
-17.882
-20.464
-18.724
-17.178
-17.3
-16.602
-16.925
-18.782
-17.396
-14.231
-15.403
-17.754
-16.521
-16.925
-20.679
-20.548
-17.642
-18.778
-19.741
-16.06
-14.307
-15.811
-14.89
-15.596
-21.083
-20.87
-13.376
-12.731
-19.665
-21.002
-17.179
-16.665
-17.334
-17.091
-19.471
-20.066
-14.177
-10.695
-14.959
-18.022
-17.524
-20.984
-25.198
-22.595
-19.996
-24.706
-29.072
-27.153
-24.649
-24.275
-23.017
-21.814
-21.965
-21.395
-20.853
-21.776
-21.772
-20.767
-20.913
-20.544
-19.899
-22.437
-24.528
-21.453
-18.977
-20.631
-20.017
-17.985
-21.983
-26.672
-23.727
-20.724
-25.294
-30.306
-30.607
-30.085
-28.931
-26.569
-27.89
-31.687
-31.205
-29.353
-32.062
-34.912
-33.866
-33.267
-34.501
-34.375
-33.734
-34.383
-35.221
-36.282
-36.925
-34.338
-30.675
-30.998
-33.73
-35.216
-36.291
-35.468
-29.863
-25.392
-28.371
-32.194
-29.739
-26.619
-27.958
-29.457
-29.894
-32.987
-35.96
-34.714
-33.769
-36.483
-37.761
-35.329
-33.709
-34.385
-34.865
-34.522
-33.135
-30.357
-28.891
-29.97
-29.518
-26.427
-25.515
-27.407
-28.105
-28.733
-31.998
-34.312
-32.796
-31.127
-32.649
-36.385
-38.99
-36.915
-32.372
-32.681
-37.311
-38.396
-35.899
-34.436
-31.415
-26.023
-25.09
-28.018
-26.686
-23.158
-24.56
-26.509
-22.332
-16.447
-13.892
-11.847
-8.451
-5.054
-0.902
3.083
3.664
3.052
4.545
5.37
6.467
13.898
22.924
23.882
21.794
24.615
26.549
24.595
26.114
28.149
20.673
9.095
3.647
0.739
-3.723
-5.712
-6.914
-12.527
-18.827
-22.12
-26.686
-33.178
-36.399
-36.46
-37.106
-38.287
-39.53
-41.382
-41.319
-38.068
-35.834
-36.673
-37.393
-37.704
-40.192
-42.72
-41.636
-38.101
-34.748
-33.828
-38.076
-44.375
-45.093
-41.93
-42.742
-44.908
-42.003
-39.262
-42.409
-44.735
-40.044
-30.909
-17.673
1.502
21.603
39.508
62.541
95.427
133.024
172.456
216.845
266.701
317.982
361.399
381.114
367.943
328.304
266.273
176.023
65.245
-44.865
-150.582
-260.512
-369.313
-475.977
-596.323
-717.653
-789.394
-790.872
-755.853
-716.811
-676.582
-631.887
-580.87
-516.366
-438.699
-363.601
-304.124
-255.34
-205.59
-155.795
-116.254
-88.355
-65.734
-49.162
-41.478
-36.85
-32.652
-36.094
-45.162
-44.583
-30.402
-16.381
-12.782
-17.78
-24.813
-24.759
-12.478
3.675
13.283
18.055
20.455
15.506
4.719
-2.95
-5.409
-2.422
11.901
32.96
42.994
37.613
29.562
23.423
14.954
8.977
12.293
21.998
35.485
51.715
60.779
55.983
47.08
42.679
39.259
37.452
43.746
54.909
62.271
64.092
62.3
59.143
58.012
58.48
58.002
58.996
62.925
65.802
67.989
73.536
78.895
79.476
79.903
83.656
86.853
89.013
92.027
91.768
88.403
91.488
101.288
106.555
107.192
112.947
121.288
123.073
121.78
124.977
130.213
134.412
140.892
149.082
153.256
153.743
156.449
162.52
167.774
170.786
175.062
182.19
187.629
188.428
189.711
194.45
196.046
192.768
194.08
201.479
205.297
206.324
213.052
220.852
222.128
223.168
228.114
229.229
225.964
226.64
229.898
229.304
227.433
227.626
226.943
225.17
224.014
219.505
209.908
201.808
198.363
194.355
186.792
177.825
168.778
160.452
153.455
145.197
134.719
125.807
118.155
107.43
96.063
88.007
79.435
69.123
62.369
57.277
48.24
39.43
34.519
27.723
18.923
15.404
14.431
7.826
-1.706
-7.514
-9.858
-10.54
-10.544
-12.187
-14.697
-16.388
-20.507
-26.347
-25.597
-18.774
-16.514
-19.77
-21.312
-22.483
-25.953
-25.271
-19.792
-19.797
-26.347
-29.756
-29.004
-29.601
-30.012
-28.259
-28.512
-31.671
-33.855
-33.802
-31.439
-27.546
-26.939
-29.908
-28.688
-23.191
-23.199
-29.508
-33.831
-34.608
-34.167
-31.598
-29.955
-33.813
-38.356
-37.636
-35.098
-34.054
-32.611
-31.876
-33.513
-34.037
-32.471
-32.052
-31.831
-30.765
-32.677
-35.661
-33.054
-29.328
-32.516
-35.879
-31.159
-25.927
-27.527
-30.73
-32.66
-35.166
-33.34
-26.06
-24.226
-30.141
-32.375
-28.603
-25.96
-24.469
-23.469
-27.045
-31.21
-29.383
-26.993
-28.437
-27.563
-24.879
-27.293
-29.723
-25.269
-21.685
-24.81
-26.865
-24.221
-22.439
-22.402
-22.616
-25.762
-29.516
-26.923
-19.761
-15.285
-15.622
-20.754
-28.57
-30.964
-25.779
-23.118
-27.127
-29.655
-27.984
-27.535
-28.426
-27.388
-25.798
-25.614
-26.379
-27.861
-29.159
-29.59
-31.139
-33.425
-32.272
-28.622
-27.773
-28.628
-27.471
-27.512
-30.418
-29.739
-24.686
-23.362
-25.566
-24.121
-22.814
-28.671
-34.196
-30.801
-25.545
-26.235
-29.464
-32.701
-36.334
-35.607
-30.09
-28.386
-31.389
-31.609
-30.592
-33.308
-34.442
-30.963
-30.472
-33.97
-33.199
-28.914
-29.061
-32.708
-33.038
-28.609
-23.42
-22.357
-25.928
-28.377
-27.274
-28.246
-32.209
-31.992
-27.69
-26.801
-28.493
-27.429
-26.429
-28.047
-27.52
-24.687
-24.263
-24.031
-21.497
-21.071
-22.102
-19.676
-18.217
-21.879
-23.612
-20.796
-19.29
-16.699
-8.28
-1.666
-2.644
-4.641
-4.705
-5.846
-4.7
0.076
1.265
-0.101
4.864
13.067
16.194
17.065
19.346
20.434
21.391
22.603
17.739
7.483
0.389
-3.582
-8.535
-11.051
-10.993
-15.536
-23.394
-26.766
-27.425
-30.402
-32.856
-34.206
-39.278
-44.928
-44.428
-41.278
-40.298
-38.37
-35.117
-34.452
-35.277
-36.855
-41.505
-43.876
-38.596
-34.816
-39.444
-42.619
-39.453
-39.451
-44.051
-45.375
-45.124
-47.158
-45.655
-40.284
-40.567
-45.587
-43.976
-34.466
-25.27
-17.777
-5.535
14.907
40.011
65.974
95.938
134.572
177.438
217.605
261.001
316.237
367.269
381.482
352.721
304.85
244.609
155.153
41.8
-69.883
-176.758
-286.229
-388.825
-486.776
-600.03
-712.701
-774.869
-773.098
-742.015
-707.664
-668.18
-621.739
-572.964
-515.343
-440.069
-363.381
-311.777
-278.105
-232.459
-174.117
-126.942
-95.808
-72.545
-60.665
-58.231
-50.043
-37.14
-35.876
-44.551
-47.257
-41.391
-34.359
-29.72
-30.078
-34.2
-30.847
-14.174
4.239
13.821
18.814
22.623
19.157
7.071
-6.383
-14.945
-12.433
5.589
29.552
43.522
45.475
41.398
31.821
20.637
17.627
23.721
32.979
44.284
54.289
53.818
43.953
37.575
39.491
42.776
43.698
45.296
50.43
59.128
67.178
68.949
66.082
64.071
62.437
62.117
69.704
81.345
85.043
83.623
87.129
90.919
89.023
88.9
93.023
93.122
90.751
95.453
104.967
109.924
109.854
111.039
117.154
126.304
132.92
134.632
135.063
136.132
136.703
139.935
148.019
153.917
153.254
153.288
158.196
162.479
164.627
168.108
171.478
173.748
178.558
184.182
186.123
188.827
196.461
202.271
202.637
204.422
209.208
211.155
211.867
216.943
223.336
225.758
225.377
224.331
223.617
225.921
230.34
231.686
229.899
228.615
226.917
224.39
224.348
224.364
218.933
211.648
207.734
202.574
191.998
180.569
171.664
163.637
155.787
147.063
135.353
122.982
113.189
103.376
91.062
78.817
68.429
60.055
54.827
49.805
40.064
29.205
23.061
17.651
9.569
4.882
4.273
-0.132
-7.033
-9.006
-9.108
-11.941
-12.551
-10.283
-11.996
-15.767
-15.4
-15.468
-20.739
-25.337
-26.055
-27.052
-27.883
-26.092
-25.51
-28.144
-30.291
-30.985
-30.603
-27.446
-24.98
-27.885
-30.676
-28.426
-27.843
-31.179
-30.08
-25.428
-26.436
-30.306
-29.428
-27.092
-26.373
-24.111
-23.276
-26.877
-26.973
-21.78
-22.901
-30.654
-31.988
-27.428
-27.516
-29.975
-29.07
-29.027
-29.81
-26.035
-23.287
-27.188
-28.852
-24.443
-24.217
-29.454
-30.418
-27.527
-27.799
-29.877
-29.44
-25.86
-20.441
-18.949
-25.436
-30.452
-24.927
-18.291
-20.979
-26.263
-26.71
-25.666
-24.585
-21.956
-21.836
-25.638
-26.964
-24.12
-21.921
-20.632
-18.759
-19.449
-22.888
-24.346
-23.121
-21.175
-18.731
-19.023
-24.056
-26.443
-22.333
-21.027
-26.41
-29.478
-27.946
-27.708
-26.891
-23.182
-23.285
-27.097
-25.306
-19.73
-19.59
-22.692
-23.365
-24.085
-25.481
-24.808
-25.354
-28.847
-29.751
-27.962
-28.168
-27.839
-25.52
-27.061
-30.814
-29.603
-27.673
-30.422
-30.947
-26.947
-26.894
-30.169
-29.046
-26.773
-28.799
-30.041
-27.438
-26.047
-27.001
-28.04
-30.92
-34.15
-31.729
-26.393
-26.651
-31.357
-34.251
-35.484
-35.876
-33.129
-29.44
-28.954
-30.252
-31.624
-33.975
-34.509
-30.814
-28.248
-31.186
-35.698
-37.974
-38.32
-36.365
-32.952
-31.08
-29.82
-27.51
-27.892
-31.451
-31.896
-29.866
-32.827
-38.995
-40.798
-39.631
-40.338
-41.155
-39.833
-38.109
-37.161
-37.331
-37.901
-34.997
-29.343
-29.395
-35.616
-37.496
-34.389
-35.565
-38.273
-33.966
-28.4
-28.623
-28.048
-24.614
-26.951
-32.486
-30.154
-23.126
-20.501
-19.343
-15.711
-13.345
-11.693
-7.062
-3.503
-4.966
-7.802
-9.616
-10.433
-7.391
-1.219
3.26
7.774
15.373
20.381
19.495
18.937
20.523
18.517
12.049
4.642
-2.701
-8.805
-13.012
-18.016
-22.329
-21.167
-19.991
-27.248
-35.98
-36.48
-35.476
-40.427
-44.865
-44.626
-44.533
-44.537
-41.224
-36.914
-33.733
-31.64
-33.582
-38.551
-39.415
-36.393
-36.169
-38.124
-38.655
-39.579
-40.436
-38.135
-36.58
-39.199
-40.309
-37.999
-38.159
-39.798
-38.742
-39.562
-41.946
-34.503
-17.329
-2.222
11.745
31.922
55.856
86.156
131.255
180.198
217.83
257.548
313.206
362.831
381.378
373.894
348.57
297.196
215.759
112.776
-1.684
-119.066
-233.246
-341.36
-444.222
-553.265
-674.881
-775.908
-809.008
-780.216
-736.925
-699.096
-658.046
-612.972
-560.761
-489.64
-408.345
-338.108
-277.828
-218.415
-167.679
-129.46
-93.848
-63.269
-49.414
-46.385
-41.509
-37.801
-41.148
-46.773
-49.502
-46.354
-34.012
-20.996
-22.636
-32.878
-30.151
-13.419
0.101
5.815
10.389
13.413
11.745
6.86
0.245
-4.618
-0.616
12.812
28.983
43.687
52.18
47.302
33.134
22.852
18.693
16.267
20.956
35.755
48.987
52.36
50.663
47.585
43.44
41.783
42.997
44.727
51.328
63.817
70.609
67.022
63.859
65.339
65.491
66.433
72.243
76.98
79.59
86.887
94.021
92.205
88.367
90.149
92.906
96.158
103.162
106.413
102.157
101.044
106.237
109.454
111.543
117.668
123.626
126.96
131.028
133.628
133.864
139.263
149.525
154.417
154.001
156.644
161.576
164.413
167.423
171.368
173.867
178.15
186.042
190.651
190.597
194.062
200.55
202.254
202.447
207.451
212.213
214.374
220.765
229.21
231.261
230.53
232.558
232.452
229.806
230.883
232.317
228.92
226.579
227.826
226.533
223.81
224.022
222.839
219.373
220.019
220.936
212.989
200.774
192.389
184.764
175.53
168.414
161.275
149.706
137.206
126.992
116.805
107.022
98.904
89.562
79.128
70.764
62.314
52.652
47.27
45.317
38.308
27.467
21.345
18.948
15.34
13.074
12.676
8.398
1.496
-0.769
0.654
-0.02
-2.602
-4.626
-5.263
-2.757
0.486
-2.666
-9.96
-11.318
-8.392
-10.148
-13.59
-12.282
-10.991
-13.937
-16.839
-18.226
-20.097
-20.489
-18.948
-18.891
-19.317
-17.338
-15.878
-17.448
-18.871
-18.464
-18.43
-20.461
-25.836
-32.749
-33.374
-25.832
-20.873
-23.632
-25.823
-24.972
-26.92
-28.274
-23.699
-20.935
-24.886
-27.649
-27.913
-31.003
-30.953
-24.138
-23.066
-30.56
-32.164
-27.304
-27.692
-29.317
-25.665
-25.983
-31.501
-30.207
-25.643
-28.602
-30.838
-24.938
-22.504
-27.7
-29.104
-25.451
-24.845
-26.559
-27.365
-28.198
-27.061
-24.374
-26.478
-31.354
-30.567
-25.979
-23.106
-20.372
-19.119
-22.894
-25.645
-22.938
-21.806
-23.819
-22.136
-19.936
-24.391
-29.31
-27.276
-23.502
-23.214
-24.047
-24.654
-25.044
-23.951
-23.466
-24.884
-23.527
-19.999
-21.696
-25.487
-22.524
-18.391
-21.293
-24.072
-21.926
-23.692
-31.076
-35.533
-36.35
-36.149
-31.966
-27.063
-28.971
-32.693
-30.122
-26.304
-26.694
-26.495
-23.622
-22.591
-24.568
-28.102
-31.96
-31.664
-26.172
-23.771
-28.389
-32.78
-33.438
-33.933
-33.263
-30.264
-30.58
-34.128
-33.133
-29.289
-29.857
-30.377
-24.939
-20.867
-23.966
-27.323
-25.985
-24.262
-25.835
-30.509
-36.435
-39.294
-37.049
-33.747
-31.953
-29.76
-27.712
-27.654
-27.64
-26.617
-26.459
-26.527
-26.07
-28.232
-33.171
-35.834
-34.779
-32.617
-29.121
-24.579
-23.818
-27.737
-30.238
-29.056
-27.588
-26.406
-26.221
-31.251
-38.292
-38.207
-33.233
-31.677
-30.705
-26.559
-25.801
-28.971
-26.614
-19.206
-15.767
-16.085
-14.747
-11.476
-7.132
-2.939
-2.046
-2.812
-2.139
-4.635
-11.088
-10.68
-1.973
1.977
0.398
5.473
15.211
18.561
18.318
21.424
24.496
25.368
25.915
21.139
8.631
-1.728
-4.8
-7.343
-11.764
-15.586
-21.836
-30.613
-34.858
-34.712
-36.788
-40.377
-42.731
-46.301
-48.728
-44.677
-39.529
-39.878
-40.029
-36.215
-35.187
-38.168
-39.24
-39.277
-41.19
-41.952
-41.12
-41.579
-42.204
-43.206
-46.353
-46.225
-40.962
-40.896
-47.141
-46.34
-38.403
-37.299
-43.803
-46.604
-40.852
-27.894
-10.723
6.346
23.795
46.216
74.796
109.978
152.196
196.35
240.517
290.676
341.232
372.178
375.269
356.419
313.189
237.615
135.979
24.161
-91.479
-211.865
-328.145
-431.599
-539.685
-670.635
-790.85
-843.085
-824.632
-781.749
-742.557
-703.747
-657.835
-599.488
-526.775
-447.229
-370.255
-301.086
-243.738
-196.606
-153.052
-113.351
-82.92
-62.541
-51.458
-48.392
-47.542
-47.248
-52.175
-57.134
-49.604
-32.222
-20.342
-20.981
-28.91
-32.33
-20.915
-2.309
3.988
-0.301
4.396
15.77
13.627
-1.004
-10.066
-8.065
1.843
19.182
36.611
42.461
36.168
24.558
12.979
7.85
11.727
19.026
29.042
45.664
59.169
56.569
46.33
42.961
42.451
38.941
40.574
50.156
58.026
61.281
64.541
66.131
63.465
61.081
62.424
65.84
69.593
71.967
72.498
74.605
78.384
78.988
78.771
84.179
89.777
87.412
84.208
89.489
98.231
103.714
106.768
106.371
103.208
106.541
117.751
124.471
123.566
124.478
128.013
129.593
133.995
143.291
148.758
148.913
151.927
157.347
159.057
159.261
161.654
165.066
171.531
182.409
189.867
189.312
187.831
190.232
194.381
200.069
206.013
207.952
207.428
207.672
206.708
207.138
213.855
219.013
215.343
213.107
218.833
222.115
219.848
221.094
224.781
223.242
217.922
211.78
204.53
199.703
197.354
190.311
179.86
174.78
172.976
166.138
154.81
142.801
130.723
120.925
113.725
103.514
89.577
77.83
68.579
59.261
53.138
50.005
42.585
31.001
22.299
17.101
13.975
14.077
11.157
-0.671
-10.333
-7.834
-4.207
-8.097
-9.632
-6.104
-8.714
-16.121
-17.189
-15.243
-18.857
-23.686
-24.56
-24.945
-25.654
-25.043
-26.41
-29.1
-26.965
-23.082
-25
-28.796
-28.771
-28.899
-30.743
-31.022
-32.529
-35.667
-32.523
-25.065
-24.361
-27.895
-26.573
-24.3
-26.195
-27.457
-26.79
-28.116
-30.087
-31.045
-32.048
-29.7
-23.696
-23.155
-29.349
-31.667
-29.237
-30.361
-32.483
-29.819
-28.271
-30.909
-30.313
-26.802
-27.149
-27.213
-22.82
-22.089
-26.839
-27.9
-26.745
-31.279
-35.874
-33.067
-28.857
-28.241
-27.268
-25.991
-27.671
-28.911
-27.155
-26.465
-27.084
-25.545
-25.161
-28.936
-30.242
-25.693
-22.913
-25.549
-27.617
-26.04
-23.433
-21.261
-20.149
-20.531
-20.354
-18.799
-18.489
-20.075
-21.449
-22.12
-22.376
-21.808
-21.181
-21.208
-21.509
-23.095
-25.963
-26.263
-23.103
-21.25
-22.145
-23.176
-25.052
-27.707
-27.129
-24.899
-25.888
-26.348
-22.717
-21.617
-25.103
-26.318
-27.039
-32.953
-36.265
-30.345
-25.548
-28.519
-30.62
-29.194
-30.684
-32.032
-28.535
-28.551
-35.556
-37.876
-31.82
-26.686
-24.652
-23.685
-27.897
-34.535
-34.22
-30.552
-31.501
-31.646
-27.813
-28.697
-34.368
-36.057
-36.004
-39.017
-38.953
-34.213
-33.312
-36.95
-39.053
-40.393
-42.182
-40.633
-37.184
-37.018
-38.849
-39.816
-40.621
-39.552
-35.607
-34.797
-38.956
-40.187
-37.313
-38.347
-42.209
-41.558
-39.275
-39.762
-38.173
-34.29
-35.275
-38.704
-37.282
-34.752
-35.667
-34.739
-30.271
-28.381
-30.734
-35.486
-41.597
-42.625
-34.307
-26.833
-28.857
-33.028
-33.835
-35.836
-36.848
-31.53
-27.441
-31.161
-33.916
-30.244
-27.981
-30.214
-31.747
-31.986
-31.025
-24.782
-16.556
-14.98
-17.607
-16.225
-11.742
-7.875
-3.448
0.551
1.014
-0.861
-3.482
-5.648
-1.3
11.136
20.786
20.692
18.033
19.169
22.382
25.411
24.933
17.514
8.137
3.229
-1.079
-8.436
-13.039
-12.907
-15.032
-21.422
-26.751
-29.405
-32.195
-36.646
-42.114
-44.795
-40.898
-35.257
-35.357
-37.166
-34.079
-31.23
-32.15
-30.018
-26.434
-30.847
-37.329
-34.786
-31.152
-36.689
-43.518
-43.786
-42.608
-43.532
-44.742
-46.926
-49.262
-48.668
-47.44
-47.416
-43.007
-32.258
-20.924
-9.658
5.987
25.378
47.965
78.348
115.548
151.918
187.418
229.964
281.373
332.836
370.616
383.351
368.798
329.622
262.603
166.65
56.3
-54.82
-170.141
-287.952
-395.118
-502.013
-630.88
-755.677
-819.103
-812.036
-773.531
-730.415
-688.296
-647.72
-596.814
-524.042
-441.411
-365.053
-294.933
-232.162
-182.92
-142.032
-102.61
-70.28
-50.243
-39.622
-35.107
-32.311
-28.96
-32.112
-41.951
-41.372
-24.624
-11.333
-14.376
-23.068
-24.469
-15.299
1.218
14.274
16.649
17.774
25.017
26.789
15.961
5.69
6.36
14.743
29.678
49.481
60.775
55.219
43.339
36.466
34.631
36.803
42.739
49.54
58.326
70.017
75.275
68.803
61.297
59.772
57.95
55.454
60.588
73.096
84.452
88.125
81.417
70.095
67.097
74.359
80.34
81.36
84.076
88.536
89.929
89.45
89.819
91.315
95.426
101.515
105.497
107.451
109.485
109.037
106.979
110.637
119.218
124.556
127.772
133.05
134.399
130.565
133.13
143.186
147.848
146.941
151.351
158.917
161.86
164.3
170.134
173.731
174.136
177.744
186.035
195.719
204.053
208.155
208.644
210.653
214.98
217.957
219.646
221.195
221.867
225.18
233.999
240.186
236.285
229.762
229.982
234.627
239.683
245.337
247.773
243.177
237.278
236.354
237.799
237.74
235.112
228.143
219.01
213.506
209.563
201.785
194.578
191.706
185.385
172.722
162.383
155.434
144.574
131.734
121.954
110.833
97.02
87.545
80.941
69.526
57.488
52.057
47.593
38.962
32.773
31.749
28.741
21.569
14.57
8.737
4.673
4.719
4.922
-0.401
-7.465
-10.97
-13.671
-17.168
-17.835
-16.657
-18.152
-21.327
-22.825
-22.776
-22.46
-22.695
-23.675
-23.776
-23.077
-24.327
-26.262
-25.756
-25.729
-27.732
-25.921
-20.916
-22.069
-28.809
-31.935
-31.666
-32.853
-33.275
-32.406
-34.603
-37.168
-34.661
-31.351
-31.808
-31.474
-28.858
-29.086
-30.625
-28.03
-24.44
-24.971
-27.707
-30.648
-34.191
-35.641
-33.631
-31.88
-31.326
-29.259
-26.753
-25.968
-25.351
-23.959
-22.4
-20.362
-19.956
-23.334
-25.833
-24.122
-23.906
-26.638
-24.992
-20.776
-23.542
-29.039
-26.61
-21.559
-23.463
-27.132
-26.407
-26.193
-28.288
-27.396
-24.035
-22.739
-22.739
-22.29
-22.495
-23.055
-23.648
-25.379
-26.145
-24.707
-26.024
-30.053
-28.796
-24.157
-25.583
-28.72
-25.316
-23.022
-27.434
-28.481
-24.212
-25.567
-31.243
-31.509
-29.441
-31.018
-31.846
-30.029
-30.283
-30.91
-27.487
-24.159
-25.466
-27.861
-28.05
-27.974
-29.935
-34.558
-39.36
-39.23
-35.484
-35.967
-40.034
-39.148
-34.123
-32.702
-34.459
-35.587
-37.827
-41.007
-41.666
-41.89
-44.298
-45.079
-43.762
-45.671
-48.947
-46.765
-42.122
-43.198
-48.191
-48.661
-42.661
-35.736
-33.491
-36.228
-38.487
-36.93
-36.823
-41.346
-42.785
-38.046
-37.116
-42.855
-44.926
-41.069
-38.507
-36.703
-33.167
-34.012
-40.528
-43.94
-41.839
-39.505
-37.454
-35.427
-37.506
-41.874
-41.775
-39.079
-39.367
-40.17
-38.781
-38.76
-40.924
-42.147
-41.641
-38.676
-33.535
-31.417
-33.49
-33.82
-32.241
-32.828
-32.548
-29.719
-29.78
-31.635
-30.084
-29.446
-31.402
-26.896
-17.555
-15.358
-16.062
-8.577
-0.837
-3.086
-7.165
-5.387
-2.851
-2.461
-2.07
-1.448
1.999
9.674
13.912
11.841
13.595
21.337
23.438
17.788
13.596
11.173
5.355
-0.763
-4.421
-9.659
-15.69
-17.448
-18.216
-23.902
-31.164
-34.575
-35.563
-37.443
-40.592
-42.631
-40.331
-36.065
-36.136
-37.769
-33.432
-28.004
-30.198
-35.364
-37.088
-38.431
-39.008
-34.796
-32.205
-37.258
-41.27
-38.56
-38.107
-43.665
-47.464
-47.589
-47.72
-46.805
-45.585
-46.778
-44.018
-31.953
-18.707
-8.576
7.237
30.124
51.949
75.711
109.79
149.779
188.981
230.923
278.887
328.958
369.943
381.639
352.257
293.386
215.993
117.46
7.137
-98.776
-205.378
-317.449
-421.256
-521.214
-634.307
-732.86
-768.562
-748.722
-717.563
-687.6
-647.737
-600.649
-548.359
-479.423
-397.73
-329.579
-287.203
-252.883
-206.975
-152.682
-108.072
-83.328
-72.505
-65.949
-59.541
-49.928
-37.534
-33.274
-41.043
-44.023
-32.629
-24.376
-31.601
-39.817
-37.464
-31.784
-24.974
-11.072
3.912
10.328
11.039
7.855
-3.717
-15.727
-13.911
-0.664
14.367
29.893
40.982
38.208
26.354
17.568
12.861
10.902
16.439
27.9
37.647
43.885
46.453
43.625
39.603
37.94
34.884
33.176
41.582
54.895
60.844
60.798
60.492
57.668
53.67
55.017
59.744
61.94
63.418
67.853
74.428
81.517
86.586
86.911
86.361
90.97
97.042
97.472
95.483
96.931
98.556
98.747
104.423
115.107
120.924
122.043
126.826
134.012
137.609
138.59
139.587
141.777
147.27
153.642
155.776
156.546
161.543
168.702
175.222
182.155
187.158
189.017
194.017
201.994
202.983
199.183
203.533
213.07
215.253
213.678
217.607
222.923
225.017
227.157
228.137
226.232
228.2
234.879
237.694
237.808
241.87
244.093
238.859
234.321
235.196
234.587
229.522
223.596
218.04
213.24
209.163
202.017
190.976
180.784
171.47
159.277
147.092
137.98
126.629
111.072
98.383
90.705
83.34
75.849
68.733
59.174
49.71
44.595
38.716
28.038
18.806
13.555
7.677
2.216
-0.588
-4.759
-9.771
-11.394
-14.448
-22.263
-26.33
-24.573
-26.004
-29.617
-27.821
-25.617
-29.112
-31.472
-29.123
-28.559
-30.447
-31.065
-33.005
-36.133
-35.308
-34.046
-37.325
-38.473
-34.8
-34.926
-38.141
-36.024
-32.889
-35.62
-38.564
-37.996
-38.238
-38.569
-36.922
-37.548
-40.478
-40.6
-39.506
-40.491
-40.572
-39.267
-40.197
-41.569
-40.773
-41.565
-44.722
-44.887
-42.57
-42.98
-43.806
-40.164
-34.799
-31.3
-29.303
-31.208
-37.839
-41.224
-37.065
-32.348
-30.836
-29.02
-27.723
-28.887
-28.342
-25.641
-26.68
-30.765
-32.113
-31.484
-31.611
-30.633
-28.77
-28.487
-27.408
-23.948
-22.389
-23.128
-22.092
-22.085
-26.538
-28.683
-25.058
-24.202
-28.462
-29.36
-26.343
-25.992
-26.847
-25.483
-25.101
-25.93
-24.609
-24.555
-28.957
-31.895
-30.206
-29.02
-29.891
-30.897
-34.158
-38.001
-35.368
-29.115
-29.169
-33.711
-34.157
-31.315
-29.277
-26.776
-24.841
-27.196
-31.119
-31.982
-31.536
-32.042
-31.891
-30.867
-30.181
-29.834
-31.309
-34.897
-35.554
-32.001
-31.243
-34.886
-36.478
-36.511
-40.043
-42.865
-40.411
-38.726
-40.786
-40.665
-38.492
-39.11
-39.522
-38.007
-40.849
-45.982
-43.616
-37.945
-40.261
-45.729
-44.075
-39.612
-38.959
-37.59
-32.454
-29.264
-31.118
-33.872
-33.384
-30.296
-28.538
-29.681
-30.426
-29.365
-30.068
-32.907
-33.469
-30.917
-27.609
-24.042
-22.026
-23.579
-24.049
-19.262
-15.216
-17.181
-19.706
-17.711
-13.448
-8.869
-4.849
-3.487
-2.478
1.25
2.789
-0.303
-0.087
4.474
3.389
-1.923
0.391
8.566
12.616
13.907
16.223
17.068
19.47
25.989
25.54
13.784
5.228
4.154
-1.482
-10.085
-11.328
-11.519
-18.257
-23.761
-24.809
-28.406
-34.111
-37.367
-38.931
-38.001
-34.467
-34.426
-37.821
-36.841
-32.146
-30.022
-29.814
-30.556
-34.601
-38.058
-36.121
-33.426
-33.721
-33.027
-31.377
-32.762
-34.037
-32.257
-33.201
-38.136
-39.316
-36.389
-36.605
-39.433
-39.762
-36.664
-27.476
-9.979
8.482
22.342
38.394
62.298
92.293
128.474
169.114
207.549
246.922
298.223
354.568
388.702
381.996
340.415
277.658
195.99
94.682
-14.783
-120.265
-223.795
-329.52
-435.721
-545.124
-654.169
-734.271
-757.6
-735.011
-700.392
-668.737
-632.208
-584.959
-527.955
-457.838
-378.425
-313.655
-275.857
-239.695
-184.426
-129.21
-93.495
-68.735
-50.136
-44.157
-41.736
-31.531
-23.997
-28.144
-32.721
-28.693
-21.286
-17.359
-20.473
-28.348
-29.502
-18.015
-3.593
6.481
16.296
24.806
24.363
16.208
7.136
-0.345
-1.285
10.462
27.923
38.763
43.622
46.284
40.698
26.498
16.259
16.592
24.133
37.274
51.53
57.183
54.129
50.073
45.35
39.581
39.709
46.53
53.372
60.545
69.324
72.612
68.989
66.847
68.377
70.352
73.731
77.006
76.756
78.702
87.486
94.366
93.359
91.946
95.183
99.422
102.381
102.792
98.968
96.918
103.866
113.414
116.164
116.409
120.805
126.164
129.498
132.103
133.626
136.752
145.881
155.329
158.252
160.421
165.608
166.908
165.495
170.636
179.107
182.016
182.74
187.197
193.251
199.827
207.486
211.294
209.145
207.33
209.438
213.643
219.918
226.158
226.606
223.33
224.194
227.883
228.685
229.426
232.742
232.973
228.935
227.526
230.066
232.049
232.089
228.789
220.731
213.889
213.209
211.828
203.364
192.296
182.92
173.648
163.97
153.924
142.12
131.177
124.886
119.547
109.051
94.351
80.026
68.252
59.66
53.275
46.193
37.461
28.371
19.457
13.043
12.584
13.926
9.126
1.31
-1.198
-1.869
-7.057
-11.416
-11.374
-13.889
-19.076
-19.504
-18.147
-20.497
-20.794
-17.08
-17.273
-20.774
-20.937
-21.378
-26.048
-28.639
-26.692
-25.711
-26.215
-25.568
-25.383
-25.503
-24.035
-24.02
-25.945
-24.602
-22.702
-27.542
-33.961
-34.031
-32.493
-33.29
-32.295
-32.081
-36.899
-38.495
-32.412
-29.698
-34.629
-37.584
-36.472
-37.257
-38.06
-35.497
-33.626
-34.087
-33.848
-33.137
-32.04
-29.532
-30.23
-35.207
-34.962
-28.937
-29.849
-37.372
-39.002
-36.907
-39.473
-39.649
-32.287
-28.528
-31.956
-30.831
-23.258
-20.209
-24.187
-28.378
-29.935
-29.747
-28.228
-27.283
-28.923
-31.965
-33.833
-33.04
-30.229
-28.269
-28.008
-26.621
-24.91
-28.078
-34.374
-35.234
-30.223
-27.878
-30.847
-33.914
-34.362
-32.975
-30.269
-28.071
-27.505
-26.695
-26.953
-31.358
-34.994
-32.656
-30.798
-34.336
-35.961
-32.229
-29.691
-30.198
-31.358
-34.463
-36.113
-30.384
-24.496
-27.276
-30.809
-28.205
-27.217
-29.258
-26.036
-20.796
-21.351
-23.383
-23.616
-26.211
-27.939
-25.026
-26.203
-34.583
-38.512
-35.245
-35.137
-39.614
-42.404
-43.619
-42.682
-35.951
-29.811
-31.855
-34.392
-31.409
-32.175
-37.865
-36.06
-29.339
-32.026
-40.044
-40.171
-35.866
-35.473
-35.863
-34.261
-34.127
-35.059
-34.009
-32.282
-32.595
-35.561
-39.152
-38.998
-35.23
-34.972
-39.747
-41.346
-37.41
-35.249
-36.716
-37.188
-37.411
-39.575
-39.838
-37.172
-36.627
-38.092
-36.786
-33.744
-33.055
-34.979
-38.401
-41.465
-40.694
-36.917
-34.459
-31.874
-26.297
-23.219
-26.312
-27.677
-22.58
-17.729
-16.009
-13.555
-11.943
-12.438
-8.734
-0.716
3.406
3.16
3.114
2.404
1.747
3.544
3.406
1.108
5.965
16.814
21.723
21.196
23.178
24.306
21.285
21.42
24.795
20.875
9.857
2.061
-1.058
-3.697
-5.018
-6.316
-11.757
-17.593
-19.625
-23.643
-31.77
-36.632
-37.622
-39.298
-38.023
-32.759
-32.209
-36.739
-37.289
-34.529
-35.113
-37.474
-38.92
-42.342
-47.026
-47.239
-42.218
-37.867
-38.626
-41.452
-40.467
-38.044
-41.952
-49.3
-49.852
-46.169
-48.963
-55.097
-52.892
-42.122
-28.915
-12.832
6.46
25.316
46.882
78.516
117.522
156.333
196.814
244.096
293.972
337.248
367.6
379.462
366.747
325.948
256.759
163.455
56.013
-57.531
-174.811
-288.398
-389.719
-491.929
-614.731
-735.927
-802.641
-799.4
-760.768
-719.688
-683.468
-646.686
-597.833
-529.616
-452.253
-380.082
-314.534
-253.916
-201.452
-157.338
-119.429
-88.785
-66.753
-54.794
-53.352
-54.774
-51.305
-48.393
-51.692
-52.655
-44.046
-32.971
-29.239
-34.472
-40.525
-34.417
-16.171
-2.799
-0.78
2.174
8.254
6.153
-2.142
-5.926
-5.997
-2.562
11.787
29.885
34.444
27.688
22.633
17.704
9.014
4.943
10.588
22.095
37.57
51.928
54.085
44.573
36.142
32.663
29.709
30.088
37.877
48.058
54.992
57.669
55.051
49.957
49.304
52.372
54.117
57.657
65
68.838
68.205
70.342
72.713
69.925
70.203
79.18
86.713
87.908
90.063
93.36
93.868
96.422
101.331
101.162
100.717
108.364
114.323
110.462
108.969
115.9
120.125
120.503
126.079
133.105
135.705
141.103
150.572
153.545
151.498
156.158
165.572
169.951
170.703
174.051
179.654
184.632
187.327
187.554
188.552
192.758
197.569
201.387
205.426
207.412
205.412
204.14
206.506
208.91
211.042
215.174
216.116
209.484
202.984
203.386
205.248
203.718
201.383
198.506
193.593
189.086
184.701
177.302
169.69
163.986
155.031
142.766
133.647
126.264
115.73
104.764
95.234
85.01
77.426
73.995
65.879
50.246
37.569
31.675
24.854
15.484
7.853
0.061
-8.727
-12.159
-10.572
-12.437
-18.25
-22.59
-25.807
-28.362
-27.835
-27.401
-30.036
-30.338
-26.5
-25.111
-27.635
-30.572
-34.767
-38.989
-37.752
-33.951
-35.485
-39.812
-39.7
-36.26
-33.022
-29.982
-29.273
-32.362
-34.232
-32.565
-32.47
-35.118
-36.41
-36.869
-38.895
-41.031
-42.24
-41.49
-36.503
-31.51
-32.419
-33.898
-30.711
-29.811
-33.289
-32.899
-30.055
-32.024
-33.791
-30.258
-27.778
-28.072
-26.837
-27.779
-32.058
-30.434
-24.585
-27.718
-36.864
-38.271
-34.469
-33.861
-31.693
-26.236
-26.327
-29.631
-25.772
-20.106
-22.329
-25.453
-22.592
-21.618
-25.995
-27.123
-22.678
-19.591
-20.366
-21.931
-22.241
-21.493
-21.726
-23.694
-24.288
-22.933
-23.274
-23.524
-19.346
-15.448
-16.46
-16.46
-13.784
-15.812
-19.965
-17.563
-14.29
-18.144
-21.677
-18.96
-16.422
-15.554
-12.397
-11.907
-16.726
-16.722
-10.685
-12.535
-21.991
-22.71
-15.078
-14.115
-19.233
-19.696
-16.431
-14.526
-13.391
-14.378
-18.833
-22.004
-22.234
-23.426
-24.451
-22.388
-21.102
-22.916
-23.382
-21.081
-18.597
-15.793
-14.097
-17.27
-21.519
-20.315
-17.81
-20.502
-24.027
-22.886
-20.621
-21.388
-24.024
-26.257
-25.916
-22.465
-20.109
-21.708
-23.576
-23.481
-24.168
-25.486
-25.343
-25.67
-26.675
-24.864
-21.757
-20.932
-21.086
-23.471
-30.384
-33.308
-26.288
-21.151
-25.202
-27.826
-25.999
-28.317
-30.02
-22.628
-17.001
-22.61
-28.149
-25.927
-24.195
-26.235
-27.757
-30.137
-33.732
-33.567
-31.722
-33.441
-34.245
-30.165
-26.982
-27.345
-27.624
-28.027
-28.103
-23.792
-19.712
-23.542
-28.132
-24.005
-18.629
-20.178
-21.602
-17.785
-15.421
-17.172
-17.551
-14.959
-12.156
-10.423
-10.103
-9.407
-5.61
-1.888
-1.757
0.305
7.105
9.949
6.198
5.229
8.533
9.274
10.904
19.197
25.187
21.101
17.079
22.173
29.474
31.831
29.718
22.374
12.021
7.385
8.744
6.713
-0.187
-6.327
-11.426
-17.131
-22.35
-27.244
-31.147
-31.7
-31.714
-35.169
-38.257
-36.821
-33.923
-32.015
-29.931
-28.582
-28.578
-28.37
-29.733
-33.803
-35.19
-32.316
-32.137
-36.168
-38.493
-39.038
-41.105
-41.652
-38.376
-35.806
-36.873
-39.924
-43.511
-45.289
-42.781
-38.097
-33.021
-24.029
-9.735
7.07
27.503
54.369
85.922
121.209
161.595
204.928
250.559
300.934
347.494
374.157
377.888
361.359
315.549
236.402
138.806
33.746
-81.915
-202.657
-312.938
-416.006
-533.395
-664.507
-771.425
-817.893
-805.157
-761.541
-715.325
-678.119
-638.841
-580.823
-506.803
-429.994
-353.906
-282.01
-223.941
-178.843
-137.735
-100.421
-71.597
-54.299
-50.914
-53.572
-48.117
-39.159
-42.368
-51.1
-46.133
-29.981
-19.904
-21.314
-27.846
-30.891
-23.485
-9.079
1.007
5.707
12.081
16.96
12.651
3.076
-2.645
-0.71
9.296
23.668
35.416
42.543
44.575
36.448
21.73
15.516
21.15
28.635
38.138
53.737
63.565
57.899
48.098
44.883
44.223
44.796
50.507
57.933
63.874
71.13
75.826
71.485
64.182
61.626
61.252
63.295
71.87
79.925
79.252
76.619
79.083
82.301
84.567
89.074
92.413
91.133
89.49
89.825
91.374
97.18
106.367
111.875
114.499
119.936
124.436
123.884
123.973
126.859
128.668
133.209
143.711
151.135
152.138
156.775
165.529
167.786
165.028
166.625
171.504
176.086
183.383
191.971
195.817
197.081
201.68
208.36
213.605
217.331
219.571
220.379
220.626
219.688
218.672
221.475
226.231
227.21
227.064
231.019
234.818
235.085
236.768
238.347
232.484
224.493
223.422
222.833
215.604
209.03
206.844
202.068
194.794
189.799
182.133
168.118
155.534
148.974
143.629
136.289
126.613
113.855
101.165
92.468
84.985
74.918
63.668
53.121
44.568
39.809
35.48
27.085
19.914
19.117
17.2
9.604
4.758
4.786
1.236
-4.557
-4.349
-1.578
-2.805
-4.441
-4.446
-7.084
-10.208
-9.646
-10.38
-14.757
-15.387
-11.476
-11.464
-16.531
-20.444
-20.279
-16.281
-11.538
-11.993
-16.781
-18.278
-16.11
-15.503
-15.133
-12.798
-13.302
-18.169
-20.721
-18.58
-17.21
-18.66
-19.459
-18.652
-17.681
-16.38
-15.722
-17.391
-18.957
-17.955
-16.401
-15.215
-14.05
-15.495
-17.598
-13.889
-9.027
-12.159
-15.968
-11.636
-10.236
-18.419
-20.592
-11.265
-7.098
-11.515
-10.411
-4.291
-3.639
-5.104
-3.59
-4.698
-8.782
-9.625
-9.574
-12.557
-13.17
-8.249
-4.131
-5.264
-8.005
-7.527
-4.349
-2.865
-4.011
-3.627
-1.398
-2.63
-6.81
-7.147
-3.993
-3.533
-4.935
-4.382
-4.346
-5.509
-3.219
-0.219
-3.429
-7.331
-3.174
3.264
4.189
3.501
3.224
-0.781
-4.402
-1.186
3.16
2.193
-0.99
-4.893
-9.796
-9.907
-5.443
-6.47
-12.402
-13.108
-10.636
-11.445
-9.772
-2.932
-0.111
-2.401
-2.001
-0.376
-1.364
-1.099
-0.749
-4.821
-6.479
-1.285
0.294
-5.451
-8.592
-7.956
-10.012
-12.088
-10.897
-10.623
-11.448
-10.644
-11.167
-12.561
-9.004
-3.524
-3.43
-5.712
-5.325
-4.853
-5.757
-6.666
-9.083
-11.113
-7.993
-4.37
-6.784
-9.483
-7.583
-8.115
-12.935
-13.537
-9.739
-9.383
-11.772
-12.229
-12.764
-14.056
-12.458
-10.276
-11.708
-12.638
-9.854
-8.93
-12.449
-14.866
-13.042
-9.298
-6.216
-5.603
-6.963
-7.397
-8.098
-11.655
-12.149
-5.186
-0.917
-6.131
-10.186
-7.071
-5.2
-6.055
-3.781
-2.054
-4.524
-5.395
-4.54
-7.104
-8.913
-6.602
-6.322
-7.145
-1.974
3.702
2.162
-0.457
0.342
0.171
2.046
10.156
14.836
11.177
10.546
15.331
14.964
12.287
17.449
23.727
21.623
18.346
21.692
28.192
34.687
39.076
36.826
32.768
37.052
43.879
40.41
30.452
23.796
19.092
14.705
13.063
9.937
2.202
-3.974
-7.946
-15.681
-22.451
-21.086
-18.977
-23.2
-27.029
-26.122
-24.996
-24.036
-21.577
-21.116
-22.243
-20.33
-18.462
-20.771
-22.102
-20.301
-21.916
-27.26
-29.813
-29.339
-29.006
-28.951
-30.698
-34.77
-36.819
-36.503
-37.507
-37.207
-34.388
-36.261
-40.501
-33.607
-17.242
-4.658
6.985
27.482
52.912
81.35
120.753
166.457
206.856
249.41
303.069
351.751
376.964
379.58
360.295
310.315
229.439
129.44
21.265
-90.961
-207.781
-325.229
-436.025
-549.149
-676.354
-786.908
-829.201
-804.819
-761.722
-724.435
-685.721
-639.398
-580.456
-504.688
-423.186
-348.729
-279.224
-215.839
-169.26
-135.999
-101.613
-68.673
-50.675
-45.723
-41.998
-37.668
-37.357
-41.145
-45.119
-42.832
-30.612
-18.596
-20.784
-30.541
-28.545
-13.304
0.611
7.446
12.207
17.7
21.715
18.194
3.683
-10.189
-6.618
10.918
25.612
33.102
36.381
32.349
23.456
19.495
19.678
18.948
25.021
42.525
57.774
60.068
55.44
50.198
44.86
42.533
44.723
48.633
55.332
65.423
71.716
70.831
68.652
67.4
65.42
66.264
71.024
74.225
76.111
80.256
82.048
79.24
79.454
83.611
85.008
86.601
92.724
95.756
93.398
95.147
100.52
101.641
103.56
111.945
117.986
116.577
114.197
113.14
113.676
120.765
130.729
134.69
137.536
144.943
147.712
144.381
148.861
160.906
165.983
165.145
170.183
180.074
187.814
193.238
196.522
197.354
200.096
205.268
207.493
209.036
215.927
222.364
221.035
218.302
220.405
222.368
221.744
222.819
225.419
226.929
228.423
229.025
226.653
224.396
223.297
218.446
211.368
209.19
208.926
202.616
192.356
182.713
172.576
164.44
161.26
155.505
142.64
131.278
123.893
112.153
97.889
89.711
83.31
71.014
57.746
50.149
45.826
40.085
31.221
21.138
14.291
10.387
4.791
-0.604
-1.921
-4.849
-13.287
-19.667
-21.694
-26.644
-33.087
-35.332
-38.55
-44.165
-42.205
-35.376
-37.624
-44.547
-42.99
-39.332
-43.011
-45.465
-41.633
-41.389
-46.816
-49.907
-51.027
-53.323
-52.665
-49.549
-50.816
-54.939
-55.683
-54.882
-56.442
-58.432
-59.015
-59.53
-60.69
-62.834
-65.923
-67.076
-64.826
-63.235
-64.826
-66.688
-67.921
-69.503
-68.276
-64.391
-64.822
-68.709
-67.662
-64.173
-66.383
-70.722
-71.326
-71.462
-72.146
-69.593
-66.173
-65.505
-65.24
-65.539
-69.23
-72.732
-72.572
-72.106
-71.91
-69.207
-67.714
-70.583
-72.065
-69.96
-70.263
-73.006
-72.845
-71.634
-73.053
-74.275
-74.094
-75.488
-77.083
-76.061
-74.642
-73.421
-69.679
-66.767
-70.024
-75.192
-75.823
-74.461
-75.001
-75.81
-76.385
-77.968
-78.238
-76.342
-76.373
-79.01
-80.57
-81.279
-82.703
-82.895
-82.598
-84.618
-85.875
-83.563
-81.141
-79.285
-76.951
-79.855
-88.584
-91.872
-86.871
-83.343
-82.971
-81.05
-81.771
-88.236
-92.469
-90.383
-88.099
-88.762
-90.206
-91.973
-93.643
-94.828
-98.153
-102.06
-99.904
-94.096
-93.518
-95.982
-94.928
-94.141
-95.699
-93.1
-88.874
-92.158
-98.035
-97.25
-94.71
-95.917
-96.618
-97.539
-103.005
-106.125
-100.529
-94.571
-96.101
-101.446
-105.221
-103.691
-96.127
-91.766
-96.957
-100.947
-97.33
-97.409
-103.016
-101.666
-96.454
-99.591
-104.329
-100.776
-97.173
-100.047
-103.176
-104.841
-107.082
-105.576
-100.956
-101.245
-105.317
-106.57
-106.886
-107.819
-105.15
-102.053
-105.004
-108.941
-108.348
-108.84
-111.641
-108.945
-102.277
-100.863
-103.886
-105.494
-106.542
-107.337
-104.549
-100.198
-98.327
-97.487
-97.175
-100.124
-104.504
-106.489
-106.302
-103.763
-98.665
-95.659
-96.28
-95.227
-92.485
-91.936
-88.722
-79.376
-73.619
-76.483
-78.296
-74.84
-72.442
-70.28
-63.23
-56.021
-53.855
-52.501
-50.087
-50.797
-53.589
-55.18
-58.891
-66.621
-73.662
-78.549
-84.296
-90.416
-95.121
-98.811
-100.57
-101.285
-106.351
-114.625
-116.507
-111.328
-109.403
-112.807
-113.791
-111.615
-111.966
-113.914
-112.71
-109.513
-108.684
-111.142
-114.087
-114.161
-111.931
-111.94
-114.976
-116.997
-117.959
-120.388
-121.423
-119.672
-121.314
-127.588
-130.755
-129.337
-129.152
-128.759
-122.118
-110.058
-94.817
-74.488
-50.885
-27.747
-0.343
36.824
78.386
118.422
160.436
207.521
254.837
291.91
304.209
282.953
233.935
163.071
69.234
-37.211
-141.027
-247.492
-363.002
-475.261
-587.268
-715.034
-828.163
-871.205
-849.582
-813.334
-777.496
-731.23
-681.223
-629.224
-559.109
-477.027
-410.645
-362.499
-313.064
-259.154
-211.423
-173.374
-145.25
-128.246
-118.294
-110.226
-103.031
-97.834
-99.697
-110.238
-114.022
-97.362
-76.114
-72.984
-82.03
-84.533
-76.887
-63.712
-48.365
-36.616
-31.384
-30.298
-34.847
-45.904
-54.05
-50.558
-36.974
-17.359
2.146
10.546
5.468
-2.876
-9.152
-15.649
-18.802
-12.38
2.073
18.614
30.965
33.741
29.69
27.623
29.138
30.827
35.904
47.569
59.992
68.734
75.921
79.116
74.505
70.068
74.437
81.893
87.14
96.55
110.4
118.485
120.805
127.005
137.192
146.09
155.141
163.634
165.702
165.252
172.78
186.506
196.96
203.441
209.573
214.187
216.994
221.452
228.48
235.343
239.53
241.631
246.131
255.573
265.09
269.818
272.17
275.37
279.355
285.682
295.127
302.893
306.555
311.467
320.363
327.687
329.642
330.062
333.601
340.269
346.979
351.431
355.124
360.042
362.886
361.043
360.47
365.51
369.826
369.343
369.336
370.593
367.892
364.057
364.893
365.938
362.764
361.177
363.145
360.86
352.747
346.029
342.211
336.586
327.974
318.114
307.785
297.359
286.538
275.93
268.359
262.338
251.896
239.115
231.529
225.069
211.908
199.993
198.125
195.89
184.654
174.756
171.822
167.39
161.75
161.658
161.271
155.433
151.52
149.524
141.558
134.301
137.603
142.591
139.498
134.531
132.876
131.37
130.432
131.441
130.979
129.2
129.303
128.525
124.472
122.412
125.383
128.755
129.349
128.344
126.538
125.316
126.166
126.713
125.716
126.494
127.994
125.71
123.338
125.932
128.697
128.602
130.428
132.775
130.419
127.729
128.845
128.903
127.812
130.623
132.887
128.62
123.449
122.923
123.97
124.876
126.513
126.493
124.345
122.954
121.806
120.661
123.251
127.659
126.844
122.626
122.496
125.486
126.051
123.699
120.229
117.812
119.347
121.947
119.064
112.952
110.966
112.262
112.479
112.604
112.662
109.572
105.522
104.787
105.325
105.107
106.555
107.65
104.035
99.841
99.844
100.053
98.582
98.393
96.242
90.353
89.176
93.67
93.135
88.24
88.445
90.148
86.897
84.474
84.332
79.089
73.193
76.048
79.787
74.702
69.257
70.671
71.63
69.381
69.21
68.544
62.902
57.571
57.481
60.561
63.864
62.811
54.356
46.624
47.524
50.448
49.812
50.834
51.694
44.969
37.147
36.746
37.181
34.318
34.798
36.655
32.467
27.296
27.08
26.241
22.615
21.508
22.029
20.418
18.597
16.875
13.428
12.349
15.623
16.108
11.38
8.081
6.853
3.241
0.666
2.902
4.583
2.914
1.871
0.529
-3.907
-7.138
-6.45
-5.4
-4.708
-3.497
-4.031
-5.026
-4.235
-6.618
-11.637
-7.561
4.167
6.222
-2.556
-7.092
-6.8
-10.422
-13.389
-10.074
-6.324
-3.605
2.007
5.637
4.569
7.366
13.922
13.158
6.509
3.779
2.837
-0.619
-0.427
5.828
11.132
13.056
14.528
15.737
17.476
20.38
18.428
8.486
-1.058
-4.675
-7.53
-11.67
-13.869
-16.396
-21.768
-26.139
-29.304
-35.43
-42.369
-47.45
-54.556
-62.443
-63.593
-59.64
-57.636
-55.74
-50.685
-47.384
-49.219
-53.146
-57.558
-61.905
-63.092
-61.272
-60.74
-62.173
-62.893
-62.489
-62.233
-63.54
-67.111
-70.155
-70.537
-72.59
-79.113
-84.648
-84.953
-80.918
-71.543
-57.335
-43.39
-28.406
-5.98
21.003
47.253
78.067
115.869
151.29
183.233
225.486
280.758
326.457
336.039
305.13
248.619
176.449
86.208
-19.975
-130.078
-235.804
-335.878
-431.717
-531.027
-638.405
-733.49
-782.531
-779.471
-752.053
-723.262
-690.916
-648.425
-597.508
-533.93
-453.014
-375.473
-328.557
-300.512
-258.182
-200.834
-152.592
-122.155
-106.176
-103.696
-105.214
-98.041
-87.319
-84.641
-86.144
-83.275
-77.918
-74.5
-74.179
-77.864
-82.084
-79.689
-70.175
-58.195
-46.362
-38.967
-40.181
-45.891
-51.869
-60.371
-66.368
-58.869
-42.755
-32.743
-29.307
-26.456
-28.198
-36.631
-45.101
-51.565
-55.845
-50.239
-33.446
-17.822
-11.765
-14.011
-23.068
-33.956
-36.87
-30.575
-22.929
-17.435
-12.894
-9.236
-5.635
-2.572
-3.984
-8.025
-6.503
0.34
4.259
4.677
7.162
10.922
11.587
9.343
7.216
8.221
13.18
17.113
16.066
16.3
23.27
29.683
30.124
32.277
39.622
44.057
44.058
46.484
50.983
54.239
59.054
65.005
68.34
73.412
83.53
90.771
91.646
93.311
97.021
99.255
104.985
117.077
126.272
127.899
128.649
131.093
133.191
137.466
143.073
143.821
142.025
144.399
148.377
150.795
155.575
162.029
165.396
168.309
172.413
171.543
167.25
169.111
174.572
173.774
168.455
163.709
157.154
150.331
148.542
146.67
137.626
126.445
118.732
110.726
100.077
89.899
81.107
72.459
62.987
50.94
38.098
29.339
21.987
9.888
-1.578
-5.372
-9.948
-23.022
-34.854
-38.492
-42.043
-48.089
-50.47
-52.568
-59.576
-63.867
-61.333
-61.466
-67.611
-71.825
-71.869
-71.482
-71.329
-73.429
-80.316
-86.651
-87.662
-88.366
-91.062
-89.609
-84.253
-82.866
-85.829
-87.16
-85.923
-84.134
-82.11
-81.946
-85.651
-89.816
-90.605
-89.386
-88.203
-87.064
-86.54
-85.994
-83.956
-83.288
-85.999
-86.796
-84.011
-84.25
-86.988
-85.477
-83.784
-87.348
-87.238
-78.196
-71.869
-75.346
-80.872
-82.072
-79.722
-76.398
-75.996
-78.808
-79.458
-77.769
-78.104
-77.069
-71.501
-69.476
-74.093
-75.384
-71.032
-69.42
-70.383
-69.551
-70.66
-72.968
-69.253
-64.986
-69.602
-74.575
-70.073
-64.896
-67.303
-71.287
-72.041
-71.007
-68.214
-65.1
-64.207
-63.357
-61.742
-62.17
-61.45
-55.97
-53.045
-57.7
-61.578
-59.851
-58.854
-60.128
-59.926
-61.034
-64.166
-62.326
-57.859
-60.481
-64.972
-61.147
-56.504
-59.655
-62.089
-57.708
-53.708
-53.466
-54.063
-56.327
-59.26
-57.94
-54.631
-55.367
-57.781
-56.951
-54.658
-53.836
-54.217
-55.374
-55.883
-54.151
-53.409
-56.689
-59.574
-58.194
-56.207
-56.54
-57.877
-59.926
-60.696
-56.439
-51.417
-52.911
-57.116
-57.201
-55.859
-55.687
-53.715
-52.189
-55.447
-58.83
-57.444
-54.894
-53.752
-52.626
-52.784
-54.114
-53.377
-52.709
-55.547
-57.952
-57.765
-58.951
-59.421
-54.34
-49.873
-52.955
-57.588
-57.241
-54.733
-51.966
-48.183
-47.235
-49.942
-49.432
-45.897
-47.803
-53.567
-54.298
-50.711
-47.463
-44.415
-44.008
-46.937
-44.804
-37.128
-35.149
-37.111
-32.78
-29.565
-36.021
-38.433
-28.171
-20.511
-23.449
-25.765
-23.363
-21.678
-19.448
-15.377
-13.109
-10.31
-4.023
0.018
0.39
3.294
6.33
3.685
1.194
2.793
-0.061
-9.23
-15.43
-17.655
-20.919
-23.103
-24.877
-33.256
-44.534
-48.479
-47.793
-49.342
-49.211
-45.375
-44.871
-48.206
-49.019
-47.99
-46.89
-41.695
-35.278
-35.855
-39.975
-40.51
-41.364
-44.846
-44.551
-40.677
-39.347
-39.526
-39.578
-42.829
-46.42
-44.082
-39.448
-38.378
-38.992
-41.101
-46.371
-46.449
-34.181
-18.333
-5.48
12.137
35.936
58.998
87.737
130.56
176.188
214.992
258.292
313.224
364.718
392.312
386.631
352.818
301.389
228.899
126.568
10.351
-96.174
-198.484
-306.809
-410.284
-512.878
-631.474
-735.145
-769.202
-741.726
-703.133
-667.128
-624.339
-582.623
-538.976
-471.718
-388.832
-324.12
-281.127
-234.662
-178.715
-130.115
-96.883
-72.333
-51.87
-38.104
-32.263
-30.549
-30.923
-35.064
-38.74
-32.44
-18.53
-11.752
-16.729
-22.647
-21.211
-12.813
-0.013
12.141
18.935
22.792
24.751
18.001
4.193
-1.634
6.869
21.772
37.459
50.212
51.867
43.266
36.454
33.937
28.745
24.175
29.275
42.977
59.641
74.881
79.823
69.676
54.53
45.237
42.191
45.851
56.571
65.36
66.782
68.756
73.745
73.061
67.52
66.772
70.55
73.984
78.414
82.632
83.61
86.677
93.662
95.724
93.972
99.426
107.511
106.524
102.495
105.156
110.765
116.77
125.053
129.749
128.672
131.48
139.347
142.217
140.34
141.909
147.112
152.843
158.345
161.107
162.105
166.729
172.47
173.819
176.586
185.707
192.722
193.781
197.218
203.068
203.643
203.962
211.646
218.369
217.649
218.693
224.741
226.822
224.61
224.537
225.322
226.296
231.283
236.333
235.32
232.088
231.473
232.918
236.773
240.47
236.729
227.165
221.439
219.892
215.716
208.856
201.767
192.916
183.509
176.304
167.846
155.471
143.651
134.618
125.795
117.059
107.429
93.168
78.228
71.204
69.591
64.281
54.553
44.213
34.186
27.252
25.691
24.079
18.328
13.037
9.702
4.49
0.732
1.945
0.139
-7.217
-8.64
-3.262
-4.21
-11.158
-12.838
-11.194
-13.497
-16.266
-16.55
-17.579
-17.107
-12.552
-11.054
-16.012
-19.125
-16.449
-13.864
-14.625
-16.838
-18.609
-18.237
-16.771
-18.341
-21.895
-22.201
-20.749
-22.595
-25.841
-25.915
-23.022
-19.201
-16.74
-18.067
-20.553
-20.186
-20.447
-23.553
-22.782
-18.525
-21.584
-30.023
-30.716
-25.151
-23.853
-24.807
-22.821
-22.081
-23.612
-22.358
-20.437
-22.388
-24.547
-24.306
-25.187
-26.373
-24.88
-24.403
-25.813
-22.068
-14.292
-12.787
-16.904
-17.067
-13.716
-12.46
-11.929
-11.772
-14.907
-17.316
-15.058
-13.509
-14.962
-14.64
-13.952
-16.645
-18.138
-15.967
-15.483
-16.447
-13.58
-9.772
-10.373
-12.365
-12.058
-11.364
-10.454
-7.73
-7.054
-11.75
-15.399
-11.146
-4.448
-4.711
-9.985
-10.945
-5.647
-0.823
-1.155
-4.782
-8.546
-11.982
-14.872
-15.36
-13.412
-11.816
-11.432
-11.524
-13.355
-15.16
-11.41
-5.155
-5.701
-10.308
-9.996
-8.776
-12.752
-14.742
-10.756
-8.83
-10.456
-10.518
-12.48
-17.894
-18.044
-13.496
-14.867
-19.505
-17.388
-12.277
-12.251
-15.08
-16.37
-15.398
-12.373
-10.83
-13.56
-15.099
-11.205
-7.544
-8.584
-11.48
-14.467
-17.048
-16.373
-14.247
-16.505
-20.763
-20.466
-18.608
-20.607
-22.845
-21.936
-20.87
-19.953
-18.388
-20.069
-23.333
-20.807
-16.415
-18.47
-20.475
-15.798
-13.793
-18.415
-19.255
-15.724
-16.363
-17.412
-13.33
-10.937
-12.601
-11.91
-10.488
-11.776
-9.533
-2.581
0.695
-0.314
-0.11
0.88
3.002
8.963
13.85
13.843
15.597
20.718
21.284
18.03
19.088
24.571
31.055
37.491
39.306
35.692
36.403
44.029
48.293
47.018
46.089
41.787
31.283
24.652
24.425
19.711
10.549
6.074
3.04
-3.927
-8.601
-9.753
-14.763
-21.249
-22.695
-22.365
-22.168
-19.628
-20.161
-25.598
-24.143
-14.59
-11.619
-15.586
-14.386
-11.456
-15.147
-18.738
-18.031
-19.713
-21.779
-19.308
-20.791
-28.134
-27.258
-19.01
-20.272
-28.888
-30.103
-26.757
-26.004
-20.784
-9.061
1.015
13.464
38.019
68.736
98.797
136.276
183.583
229.948
274.604
324.46
370.278
395.933
398.916
380.352
335.133
261.487
163.036
46.954
-72.926
-186.088
-293.243
-397.67
-507.871
-633.834
-751.23
-807.198
-790.277
-744.843
-705.648
-670.994
-630.222
-573.69
-497.522
-417.001
-347.735
-283.583
-219.487
-166.803
-128.795
-96.144
-69.505
-54.73
-46.229
-38.265
-35.077
-38.333
-43.51
-47.397
-43.922
-27.346
-9.766
-10.436
-23.827
-27.366
-16.056
-1.909
7.841
11.559
9.93
8.976
9.139
1.788
-8.731
-4.777
13.289
27.451
33.323
38.407
40.615
36.625
32.179
27.954
20.912
20.492
34.637
51.263
57.292
55.681
51.358
44.923
41.269
44.175
50.363
58.17
67.546
72.917
71.32
68.391
66.676
63.127
60.454
64.082
71.766
78.573
83.336
85.674
86.59
88.534
89.793
88.614
89.436
93.369
94.47
93.143
95.535
99.93
102.401
106.699
113.992
118.638
120.62
124.076
127.028
128.104
131.427
136.45
139.454
143.657
151.504
157.023
157.269
157.065
159.021
162.104
166.136
170.38
175.484
184.791
195.297
198.598
196.754
199.487
205.385
207.57
210.843
220.207
226.721
225.184
224.864
228.664
228.766
227.883
233.696
237.996
232.217
226.44
228.227
229.517
227.573
227.568
225.76
217.937
210.864
208.169
204.499
197.478
188.535
178.705
170.622
164.092
154.799
143.812
134.496
123.69
111.511
104.429
99.055
87.014
73.644
65.489
55.455
41.905
35.014
33.386
26.667
18.307
15.911
14.58
10.005
5.311
-0.376
-7.207
-8.957
-7.954
-13.525
-21.496
-22.004
-19.434
-21.012
-22.84
-22.059
-21.955
-21.688
-20.263
-22.4
-26.924
-26.747
-25.282
-30.249
-36.004
-34.881
-32.466
-33.413
-32.001
-27.273
-25.483
-26.208
-25.606
-25.772
-27.633
-28.275
-29.104
-31.785
-32.107
-28.897
-27.268
-29.638
-34.198
-37.532
-35.45
-30.574
-31.557
-36.551
-35.945
-33.479
-38.051
-41.897
-36.746
-33.333
-37.695
-37.614
-31.352
-31.371
-34.534
-30.523
-27.675
-32.551
-32.741
-26.156
-26.961
-33.44
-33.089
-29.892
-30.537
-28.484
-23.595
-25.502
-31.851
-32.817
-29.148
-26.095
-24.828
-26.288
-29.022
-29.26
-29.368
-31.632
-29.827
-23.486
-22.114
-24.629
-22.036
-19.335
-23.989
-27.001
-22.45
-20.487
-23.936
-23.626
-20.921
-23.062
-24.98
-21.711
-20.079
-22.487
-22.782
-21.259
-21.705
-22.147
-22.607
-25.644
-26.977
-23.831
-22.965
-26.807
-29.199
-29.411
-30.739
-30.761
-28.679
-29.224
-31.547
-30.565
-28.279
-28.95
-30.667
-31.249
-31.642
-31.276
-30.8
-33.865
-38.394
-37.927
-34.195
-33.356
-33.807
-31.881
-29.775
-28.705
-27.407
-28.305
-31.56
-31.122
-27.661
-29.454
-34.842
-34.618
-30.256
-28.83
-29.162
-28.774
-29.588
-30.716
-31.236
-34.018
-36.185
-32.387
-28.82
-32.688
-37.036
-34.907
-31.436
-30.95
-30.912
-29.757
-27.004
-23.153
-23.474
-29.295
-32.285
-29.691
-29.125
-31.082
-28.936
-25.366
-26.423
-28.976
-30.037
-31.462
-30.254
-24.806
-24.554
-33.843
-40.358
-34.924
-26.586
-26.951
-32.753
-33.783
-30.16
-29.851
-32.279
-29.418
-22.579
-21.157
-24.828
-24.622
-20.392
-19.055
-19.189
-15.925
-12.907
-12.28
-7.978
-1.82
-3.377
-8.132
-3.977
3.988
3.743
-0.84
-0.841
1.995
4.407
8.405
14.933
22.308
27.039
25.264
20.589
21.232
25.171
24.242
19.537
14.876
7.373
-1.41
-4.281
-4.287
-9.421
-15.809
-17.324
-18.711
-23.431
-27.501
-31.54
-37.321
-38.317
-33.652
-33.444
-38.082
-39.347
-40.4
-44.809
-43.776
-37.377
-37.407
-41.518
-40.26
-38.494
-39.592
-35.532
-29.638
-33.922
-42.711
-43.486
-41.543
-46.137
-51.877
-51.579
-48.071
-46.441
-47.854
-48.818
-42.84
-29.495
-15.045
1.149
24.284
49.692
73.543
106.48
153.202
201.351
247.181
297.805
343.205
366.841
373.197
365.89
326.639
247.714
148.11
41.107
-75.676
-196.661
-308.265
-410.727
-520.751
-646.048
-759.261
-815.588
-805.536
-764.763
-725.561
-689.023
-644.399
-586.466
-515.698
-437.938
-360.821
-288.497
-224.798
-175.174
-139.318
-109.496
-81.565
-60.879
-52.17
-50.344
-48.113
-46.401
-49.248
-53.367
-49.616
-34.482
-18.32
-16.316
-26.592
-30.012
-19.393
-8.367
-4.431
0.312
8.267
11.898
8.022
-0.371
-7.862
-6.695
5.381
21.224
34.313
41.232
37.539
26.279
18.677
15.5
9.304
7.668
22.821
42.575
46.542
39.434
36.368
35.788
32.723
33.059
39.251
47.011
56.568
65.956
66.391
58.617
54.109
56.588
61.337
65.444
66.529
65.067
68.221
76.461
79.531
77.05
79.312
84.365
83.852
83.604
89.429
92.143
88.502
88.781
94.06
96.429
97.903
103.57
109.012
109.825
108.918
110.51
116.1
122.97
127.416
132.438
141.037
146.104
144.523
146.482
154.711
159.464
161.378
168.716
176.83
178.853
180.387
184.627
187.072
190.678
199.883
206.93
206.74
207.338
211.348
212.429
213.46
219.898
222.968
216.569
212.819
218.624
222.275
217.959
214.685
215.466
215.131
214.494
214.837
211.256
204.676
201.874
200.429
193.686
184.531
177.161
168.066
156.073
145.905
138.336
129.885
119.033
106.071
93.656
85.514
78.767
67.876
56.17
48.259
39.865
29.35
22.42
18.631
13.707
10.38
8.981
3.226
-4.799
-7.935
-10.744
-19.742
-28.408
-30.275
-29.476
-29.449
-29.548
-31.02
-32.418
-29.665
-26.34
-28.642
-33.309
-35.185
-36.407
-38.342
-38.62
-38.465
-39.005
-36.867
-33.676
-35.686
-40.064
-39.738
-37.869
-39.931
-42.372
-42.06
-42.29
-43.769
-43.881
-42.759
-40.254
-35.927
-34.829
-39.907
-43.557
-40.753
-38.641
-41.705
-43.782
-41.357
-38.76
-39.325
-42.422
-45.434
-45.267
-42.839
-42.4
-44.471
-46.711
-47.914
-45.571
-39.058
-35.048
-37.49
-40.187
-40.088
-42.276
-45.253
-42.23
-37.729
-40.318
-44.929
-43.421
-39.991
-39.583
-38.814
-37.607
-39.583
-41.251
-39.518
-39.501
-41.758
-39.819
-35.272
-34.887
-36.546
-35.2
-32.784
-31.978
-31.555
-30.842
-30.711
-31.837
-33.821
-33.921
-31.318
-31.044
-34.77
-35.972
-33.813
-35.653
-39.639
-37.583
-33.862
-35.911
-37.402
-33.896
-33.338
-36.073
-33.847
-31.273
-36.351
-40.84
-38.333
-38.015
-41.735
-39.97
-35.678
-37.606
-40.334
-39.139
-40.344
-42.281
-38.407
-36.222
-41.431
-43.546
-39.47
-39.521
-42.713
-40.816
-38.592
-41.157
-41.916
-39.804
-42.059
-46.962
-48.284
-47.871
-47.99
-47.16
-47.169
-48.49
-47.592
-46.908
-49.337
-47.79
-41.146
-41.023
-47.317
-48.464
-48.032
-53.989
-56.869
-52.411
-54.164
-61.5
-58.415
-49.508
-50.089
-52.861
-47.28
-44.56
-50.693
-51.798
-45.23
-45.055
-52.264
-55.942
-55.797
-56.475
-55.553
-51.835
-48.669
-47.119
-47.282
-48.728
-47.882
-45.597
-47.811
-52.015
-51.393
-49.887
-52.163
-52.359
-48.965
-47.968
-46.113
-38.677
-35.567
-43.05
-48.838
-45.526
-42.824
-45.093
-44.39
-39.745
-38.966
-42.707
-44.602
-42.151
-36.92
-31.092
-27.731
-27.581
-27.523
-26.387
-25.872
-25.773
-25.473
-24.961
-21.65
-16.44
-17.009
-22.345
-19.676
-7.375
1.619
2.596
1.472
0.761
2.137
8.453
13.657
9.27
-0.975
-10.391
-20.042
-27.423
-25.778
-20.682
-24.007
-34.655
-44.328
-49.93
-50.117
-46.731
-47.629
-53.284
-54.666
-51.579
-51.525
-52.799
-50.44
-48.072
-48.469
-48.475
-48.493
-50.138
-49.937
-48.623
-52.422
-58.456
-58.011
-53.839
-54.908
-59.937
-61.983
-61.088
-61.2
-61.973
-60.82
-59.017
-60.724
-65.019
-63.419
-51.334
-35.743
-22.152
-5.042
19.011
46.345
79.193
120.454
161.91
202
252.238
306.243
340.099
349.479
342.111
308.238
240.158
150.828
49.358
-64.513
-181.502
-291.553
-397.67
-508.39
-631.421
-757.864
-844.622
-853.126
-805.086
-754.57
-719.246
-680.314
-625.648
-556.981
-476.544
-391.681
-317.064
-259.86
-213.947
-171.335
-129.976
-93.807
-71.166
-64.775
-63.298
-55.931
-48.429
-50.278
-58.434
-63.368
-57.672
-41.341
-28.932
-34.092
-44.422
-40.1
-27.492
-20.941
-14.185
-1.259
4.721
-4.579
-19.597
-29.486
-28.983
-16.884
-0.016
13.95
24.351
28.022
20.061
8.434
4.217
4.018
3.857
11.411
27.28
38.438
38.509
32.478
24.939
19.926
20.961
25.062
29.702
38.26
47.416
47.833
43.015
43.368
45.871
44.554
46.099
53.871
59.376
61.631
68.053
75.353
75.928
74.156
75.834
77.372
77.145
79.327
83.618
86.574
88.986
92.898
98.228
103.965
108.36
112.037
118.037
123.034
121.157
119.567
129.158
142.838
147.809
148.097
152.197
156.818
158.511
159.974
160.38
159.492
164.051
174.858
183.246
187.871
194.904
201.869
202.014
199.326
201.888
208.608
214.152
217.26
218.621
219.691
223.009
227.294
228.913
230.105
234.402
237.654
236.508
236.104
238.811
239.524
236.531
232.431
228.263
226.228
226.718
222.616
211.158
201.103
196.307
189.924
179.726
169.892
160.522
150.595
142.723
136.933
129.728
120.012
108.921
98.419
91.023
84.402
72.867
59.23
51.885
49.106
43.014
34.409
27.846
22.464
18.105
16.349
13.651
7.704
3.17
1.402
-0.916
-1.827
-0.201
-2.285
-7.855
-8.698
-6.5
-7.769
-7.348
-1.964
-2.014
-9.729
-12.674
-9.796
-12.098
-17.256
-15.004
-8.768
-6.915
-7.644
-7.305
-6.631
-5.01
-2.4
-1.405
-0.984
0.748
-0.314
-5.861
-8.7
-4.272
2.486
6.238
6.74
4.788
0.835
