84.225
92.865
99.162
103.273
105.366
105.637
104.332
101.736
98.153
93.856
89.07
84.006
78.891
73.93
69.29
65.091
61.388
58.199
55.521
53.331
51.601
50.295
49.344
48.643
48.075
47.556
47.027
46.447
45.752
44.855
43.688
42.196
40.358
38.17
35.61
32.635
29.211
25.301
20.908
16.118
11.006
5.619
-0.001
-5.839
-11.8
-17.681
-23.275
-28.355
-32.693
-36.106
-38.302
-38.896
-37.739
-34.883
-30.634
-25.667
-20.485
-15.347
-10.72
-6.985
-4.019
-1.295
2.398
8.707
18.597
32.447
50.627
72.934
98.025
123.291
144.771
158.306
160.612
149.05
121.098
74.8
10.146
-70.256
-161.755
-259.29
-357.896
-452.657
-538.046
-607.891
-658.039
-687.354
-696.644
-687.624
-662.645
-624.372
-576.821
-525.764
-475.598
-428.665
-386.245
-348.601
-315.647
-287.425
-262.959
-239.983
-217.09
-193.821
-170.187
-147.01
-125.017
-104.55
-86.297
-71.182
-59.663
-51.885
-47.682
-46.434
-47.595
-50.691
-55.132
-60.426
-66.138
-71.824
-77.174
-81.925
-85.837
-88.769
-90.625
-91.319
-90.837
-89.195
-86.447
-82.743
-78.24
-73.098
-67.511
-61.628
-55.615
-49.68
-43.981
-38.649
-33.791
-29.443
-25.629
-22.378
-19.682
-17.509
-15.817
-14.531
-13.58
-12.912
-12.454
-12.137
-11.882
-11.594
-11.2
-10.655
-9.918
-8.97
-7.796
-6.382
-4.728
-2.853
-0.769
1.509
3.966
6.597
9.388
12.319
15.366
18.506
21.714
24.973
28.263
31.564
34.856
38.121
41.34
44.502
47.589
50.58
53.455
56.192
58.77
61.17
63.373
65.357
67.106
68.602
69.834
70.788
71.455
71.825
71.891
71.647
71.09
70.218
69.03
67.529
65.718
63.601
61.187
58.484
55.503
52.255
48.753
45.012
41.047
36.876
32.515
27.983
23.299
18.482
13.555
8.537
3.45
-1.686
-6.848
-12.017
-17.17
-22.289
-27.355
-32.348
-37.252
-42.051
-46.728
-51.27
-55.662
-59.894
-63.954
-67.832
-71.518
-75.007
-78.292
-81.368
-84.231
-86.88
-89.314
-91.532
-93.536
-95.328
-96.912
-98.291
-99.471
-100.458
-101.259
-101.882
-102.335
-102.629
-102.771
-102.773
-102.646
-102.399
-102.042
-101.587
-101.043
-100.421
-99.73
-98.982
-98.184
-97.348
-96.482
-95.596
-94.697
-93.793
-92.89
-91.995
-91.113
-90.248
-89.405
-88.587
-87.796
-87.034
-86.304
-85.606
-84.942
-84.31
-83.709
-83.138
-82.594
-82.073
-81.572
-81.085
-80.609
-80.139
-79.674
-79.21
-78.743
-78.269
-77.786
-77.29
-76.778
-76.247
-75.692
-75.111
-74.502
-73.862
-73.194
-72.495
-71.768
-71.014
-70.237
-69.44
-68.628
-67.803
-66.967
-66.122
-65.27
-64.413
-63.555
-62.697
-61.842
-60.995
-60.165
-59.359
-58.586
-57.851
-57.156
-56.505
-55.899
-55.34
-54.826
-54.352
-53.916
-53.524
-53.184
-52.915
-52.724
-52.613
-52.574
-52.596
-52.654
-52.715
-52.741
-52.683
-52.51
-52.206
-51.769
-51.212
-50.543
-49.761
-48.858
-47.818
-46.621
-45.263
-43.752
-42.106
-40.401
-38.762
-37.328
-36.268
-35.712
-35.739
-36.409
-37.74
-39.729
-42.348
-45.54
-49.246
-53.435
-58.098
-63.216
-68.72
-74.39
-79.887
-84.84
-88.826
-91.501
-92.514
-91.422
-88.045
-82.495
-75.157
-66.781
-58.037
-49.181
-40.622
-32.983
-26.208
-19.831
-12.815
-3.194
10.318
27.955
50.148
77.219
108.049
140.43
170.57
193.055
203.655
199.488
177.533
135.139
71.496
-12.075
-111.321
-219.571
-330.813
-439.715
-540.514
-627.08
-693.947
-737.62
-757.531
-755.748
-734.687
-696.769
-644.921
-583.212
-516.859
-450.708
-388.277
-331.112
-279.928
-235.508
-198.765
-170.041
-148.115
-130.866
-116.046
-102.58
-90.351
-79.211
-68.557
-57.427
-45.633
-34.004
-23.967
-16.399
-11.301
-8.338
-7.233
-8.146
-11.119
-15.62
-20.638
-25.227
-28.867
-31.388
-32.827
-33.107
-32.077
-29.72
-26.174
-21.685
-16.493
-10.764
-4.582
1.978
8.792
15.682
22.425
28.832
34.787
40.23
45.143
49.503
53.287
56.499
59.184
61.419
63.286
64.852
66.162
67.265
68.226
69.129
70.073
71.132
72.348
73.753
75.361
77.188
79.251
81.545
84.051
86.749
89.621
92.656
95.849
99.188
102.65
106.212
109.848
113.538
117.265
121.007
124.745
128.458
132.128
135.738
139.275
142.72
146.053
149.254
152.3
155.171
157.848
160.312
162.542
164.521
166.234
167.669
168.814
169.659
170.195
170.416
170.317
169.895
169.149
168.079
166.688
164.98
162.962
160.641
158.027
155.131
151.965
148.543
144.879
140.99
136.894
132.607
128.149
123.539
118.799
113.949
109.01
104.003
98.951
93.873
88.792
83.729
78.702
73.732
68.836
64.032
59.337
54.766
50.333
46.051
41.933
37.988
34.228
30.66
27.29
24.126
21.171
18.428
15.901
13.59
11.494
9.613
7.943
6.482
5.224
4.165
3.296
2.611
2.102
1.76
1.575
1.539
1.64
1.867
2.21
2.657
3.196
3.816
4.505
5.252
6.045
6.874
7.73
8.601
9.479
10.355
11.221
12.067
12.887
13.674
14.421
15.123
15.774
16.372
16.912
17.394
17.815
18.175
18.474
18.713
18.893
19.016
19.084
19.098
19.063
18.983
18.862
18.707
18.524
18.318
18.098
17.868
17.637
17.407
17.185
16.975
16.784
16.615
16.473
16.363
16.289
16.256
16.267
16.327
16.435
16.593
16.801
17.057
17.36
17.706
18.091
18.51
18.96
19.439
19.943
20.47
21.017
21.58
22.157
22.743
23.333
23.917
24.488
25.035
25.552
26.036
26.482
26.889
27.254
27.578
27.866
28.118
28.329
28.489
28.581
28.596
28.532
28.397
28.201
27.969
27.732
27.527
27.401
27.388
27.501
27.746
28.11
28.585
29.173
29.883
30.732
31.74
32.913
34.243
35.713
37.253
38.745
40.058
41.028
41.525
41.471
40.805
39.508
37.578
35.036
31.928
28.306
24.2
19.621
14.591
9.173
3.568
-1.905
-6.895
-10.996
-13.869
-15.165
-14.442
-11.497
-6.395
0.545
8.649
17.288
26.183
34.893
42.761
49.773
56.302
63.294
72.639
85.612
102.53
123.948
150.336
180.782
213.341
244.387
268.545
281.603
280.568
262.219
223.683
163.693
82.99
-14.548
-122.492
-235.117
-347.099
-452.601
-545.542
-620.002
-671.897
-700.31
-706.63
-692.538
-660.323
-612.728
-553.259
-487.233
-419.457
-353.206
-291.036
-234.654
-184.955
-143.203
-110.383
-85.351
-66.664
-52.871
-41.841
-32.53
-24.638
-17.094
-8.71
0.611
10.753
20.994
29.705
36.275
40.788
43.042
42.972
40.727
36.476
30.945
25.361
20.454
16.581
13.973
12.616
12.56
13.913
16.57
20.284
24.823
29.982
35.633
41.711
48.101
54.623
61.055
67.187
72.883
78.066
82.699
86.768
90.251
93.152
95.52
97.421
98.929
100.113
101.019
101.698
102.219
102.665
103.135
103.712
104.447
105.376
106.521
107.894
109.509
111.364
113.438
115.711
118.168
120.797
123.592
126.542
129.626
132.823
136.106
139.454
142.847
146.267
149.691
153.101
156.475
159.8
163.059
166.236
169.311
172.26
175.063
177.697
180.143
182.38
184.387
186.146
187.64
188.855
189.778
190.399
190.708
190.695
190.356
189.686
188.682
187.344
185.672
183.67
181.342
178.696
175.739
172.482
168.936
165.113
161.028
156.697
152.136
147.363
142.397
137.257
131.964
126.539
121.003
115.378
109.686
103.949
98.189
92.427
86.685
80.983
75.34
69.774
64.305
58.949
53.721
48.637
43.709
38.952
34.375
29.989
25.804
21.827
18.063
14.519
11.198
8.102
5.233
2.592
0.176
-2.016
-3.987
-5.742
-7.286
-8.624
-9.764
-10.713
-11.479
-12.071
-12.5
-12.774
-12.905
-12.902
-12.778
-12.543
-12.208
-11.785
-11.285
-10.719
-10.096
-9.429
-8.728
-8.003
-7.264
-6.52
-5.782
-5.057
-4.353
-3.678
-3.039
-2.44
-1.888
-1.387
-0.941
-0.555
-0.23
0.03
0.222
0.347
0.402
0.388
0.307
0.158
-0.056
-0.332
-0.668
-1.059
-1.502
-1.994
-2.53
-3.106
-3.718
-4.359
-5.024
-5.707
-6.401
-7.098
-7.793
-8.477
-9.146
-9.794
-10.415
-11.005
-11.56
-12.075
-12.546
-12.97
-13.342
-13.66
-13.92
-14.119
-14.257
-14.333
-14.349
-14.305
-14.204
-14.048
-13.841
-13.589
-13.297
-12.967
-12.602
-12.205
-11.779
-11.33
-10.862
-10.376
-9.879
-9.376
-8.876
-8.387
-7.919
-7.474
-7.056
-6.669
-6.312
-5.991
-5.706
-5.451
-5.228
-5.04
-4.898
-4.822
-4.824
-4.897
-5.037
-5.224
-5.428
-5.63
-5.797
-5.882
-5.861
-5.717
-5.447
-5.073
-4.607
-4.043
-3.374
-2.563
-1.578
-0.431
0.867
2.275
3.693
5.029
6.162
6.923
7.191
6.888
5.957
4.412
2.298
-0.359
-3.518
-7.16
-11.31
-15.952
-21.03
-26.407
-31.825
-36.99
-41.553
-45.127
-47.272
-47.506
-45.591
-41.576
-35.806
-28.926
-21.491
-13.756
-6.15
0.699
6.754
12.398
18.761
27.873
40.912
58.111
79.841
106.388
137.116
170.42
202.56
227.997
242.777
244.029
228.898
194.96
140.153
64.281
-28.946
-133.247
-243.338
-354.025
-460.096
-556.251
-635.557
-692.834
-726.883
-738.607
-729.362
-701.438
-656.855
-598.325
-531.874
-462.962
-395.051
-331.187
-273.08
-221.452
-178.016
-144.129
-118.342
-99.027
-84.609
-72.697
-62.372
-53.486
-44.872
-35.349
-24.905
-13.684
-2.5
6.949
14.097
19.048
21.623
21.815
19.778
15.693
10.309
4.843
0.032
-3.747
-6.27
-7.548
-7.523
-6.094
-3.352
0.464
5.12
10.414
16.209
22.427
28.95
35.598
42.141
48.374
54.158
59.409
64.094
68.201
71.708
74.621
76.988
78.872
80.349
81.489
82.341
82.957
83.409
83.781
84.175
84.679
85.343
86.207
87.295
88.62
90.197
92.026
94.088
96.364
98.841
101.508
104.359
107.385
110.566
113.88
117.302
120.811
124.386
128.009
131.659
135.313
138.954
142.565
146.13
149.632
153.048
156.358
159.536
162.562
165.412
168.066
170.502
172.698
174.637
176.302
177.681
178.76
179.526
179.97
180.084
179.862
179.299
178.393
177.144
175.551
173.619
171.353
168.759
165.847
162.626
159.108
155.307
151.237
146.915
142.357
137.581
132.608
127.456
122.148
116.705
111.149
105.502
99.786
94.025
88.241
82.455
76.689
70.963
65.296
59.709
54.219
48.842
43.596
38.495
33.553
28.782
24.194
19.799
15.607
11.623
7.856
4.309
0.986
-2.11
-4.978
-7.618
-10.031
-12.221
-14.189
-15.94
-17.481
-18.817
-19.955
-20.903
-21.671
-22.266
-22.698
-22.979
-23.118
-23.125
-23.013
-22.791
-22.471
-22.064
-21.581
-21.031
-20.426
-19.776
-19.089
-18.376
-17.646
-16.908
-16.169
-15.438
-14.722
-14.027
-13.36
-12.727
-12.132
-11.58
-11.075
-10.622
-10.222
-9.88
-9.598
-9.377
-9.219
-9.126
-9.096
-9.13
-9.227
-9.386
-9.607
-9.886
-10.223
-10.616
-11.063
-11.56
-12.107
-12.7
-13.337
-14.012
-14.724
-15.468
-16.24
-17.036
-17.851
-18.681
-19.523
-20.371
-21.221
-22.07
-22.913
-23.743
-24.557
-25.348
-26.112
-26.841
-27.533
-28.181
-28.782
-29.334
-29.833
-30.278
-30.664
-30.99
-31.255
-31.456
-31.592
-31.661
-31.662
-31.595
-31.462
-31.265
-31.005
-30.687
-30.313
-29.889
-29.421
-28.914
-28.373
-27.801
-27.203
-26.582
-25.944
-25.295
-24.637
-23.975
-23.316
-22.67
-22.044
-21.447
-20.883
-20.354
-19.864
-19.412
-19.004
-18.637
-18.307
-18.017
-17.769
-17.574
-17.451
-17.412
-17.451
-17.563
-17.73
-17.923
-18.119
-18.287
-18.383
-18.383
-18.269
-18.036
-17.703
-17.275
-16.747
-16.112
-15.332
-14.376
-13.255
-11.983
-10.606
-9.23
-7.953
-6.895
-6.221
-6.04
-6.434
-7.462
-9.114
-11.361
-14.168
-17.486
-21.306
-25.646
-30.48
-35.745
-41.277
-46.783
-51.961
-56.461
-59.898
-61.879
-61.939
-59.836
-55.646
-49.7
-42.66
-35.141
-27.404
-19.868
-13.188
-7.367
-1.959
4.042
12.603
25.069
41.724
63.076
89.578
120.259
153.111
184.466
208.885
222.092
221.096
202.688
164.007
103.861
23.067
-74.45
-182.219
-294.466
-405.825
-510.421
-602.16
-675.171
-725.464
-752.203
-756.837
-741.112
-707.378
-658.435
-597.84
-530.914
-462.43
-395.626
-333.023
-276.296
-226.331
-184.383
-151.427
-126.313
-107.589
-93.8
-82.827
-73.624
-65.879
-58.495
-50.248
-41.021
-30.941
-20.729
-12.013
-5.398
-0.795
1.586
1.656
-0.444
-4.54
-9.905
-15.3
-19.998
-23.65
-26.027
-27.147
-26.961
-25.367
-22.473
-18.535
-13.789
-8.438
-2.612
3.631
10.178
16.851
23.429
29.703
35.538
40.859
45.63
49.835
53.456
56.496
59.004
61.05
62.708
64.048
65.116
65.962
66.654
67.274
67.92
68.674
69.585
70.689
72.008
73.555
75.342
77.368
79.612
82.054
84.68
87.476
90.438
93.554
96.806
100.171
103.624
107.146
110.717
114.32
117.934
121.541
125.121
128.659
132.143
135.555
138.876
142.084
145.158
148.078
150.824
153.375
155.712
157.816
159.671
161.263
162.581
163.611
164.345
164.773
164.89
164.691
164.173
163.335
162.177
160.701
158.911
156.814
154.418
151.73
148.761
145.523
142.029
138.294
134.334
130.165
125.803
121.269
116.582
111.76
106.826
101.798
96.699
91.55
86.371
81.183
76.006
70.86
65.764
60.734
55.79
50.947
46.219
41.622
37.169
32.871
28.739
24.783
21.011
17.431
14.048
10.866
7.889
5.12
2.558
0.205
-1.942
-3.885
-5.627
-7.173
-8.527
-9.696
-10.687
-11.509
-12.168
-12.674
-13.036
-13.264
-13.369
-13.36
-13.247
-13.041
-12.753
-12.393
-11.97
-11.496
-10.98
-10.43
-9.857
-9.268
-8.671
-8.075
-7.485
-6.909
-6.351
-5.818
-5.314
-4.844
-4.41
-4.016
-3.664
-3.358
-3.097
-2.884
-2.719
-2.602
-2.534
-2.513
-2.539
-2.611
-2.729
-2.891
-3.096
-3.342
-3.627
-3.95
-4.307
-4.697
-5.116
-5.563
-6.035
-6.53
-7.045
-7.579
-8.129
-8.693
-9.269
-9.855
-10.448
-11.046
-11.647
-12.25
-12.85
-13.447
-14.038
-14.621
-15.193
-15.754
-16.3
-16.829
-17.337
-17.821
-18.278
-18.705
-19.097
-19.451
-19.765
-20.037
-20.263
-20.444
-20.577
-20.661
-20.694
-20.676
-20.606
-20.483
-20.307
-20.078
-19.797
-19.465
-19.085
-18.66
-18.192
-17.685
-17.142
-16.569
-15.97
-15.351
-14.713
-14.06
-13.396
-12.729
-12.063
-11.405
-10.758
-10.127
-9.52
-8.947
-8.413
-7.921
-7.474
-7.07
-6.711
-6.401
-6.141
-5.93
-5.765
-5.646
-5.575
-5.568
-5.636
-5.781
-5.989
-6.239
-6.514
-6.805
-7.096
-7.36
-7.568
-7.697
-7.739
-7.708
-7.606
-7.422
-7.142
-6.729
-6.143
-5.384
-4.468
-3.44
-2.357
-1.277
-0.276
0.529
1.022
1.113
0.755
-0.038
-1.267
-2.945
-5.041
-7.562
-10.513
-13.864
-17.596
-21.606
-25.696
-29.645
-33.154
-35.859
-37.438
-37.516
-35.718
-31.995
-26.489
-19.565
-11.962
-4.21
3.391
10.319
16.173
21.13
25.834
31.658
40.378
52.987
69.845
91.357
117.388
146.56
176.021
201.396
218.071
222.428
211.652
183.022
134.348
65.569
-20.557
-118.888
-223.584
-329.169
-430.504
-521.792
-596.686
-650.694
-682.013
-691.365
-680.996
-653.289
-610.67
-556.915
-497.119
-436.021
-377.565
-323.827
-275.215
-232.264
-195.584
-165.041
-139.996
-119.037
-99.964
-81.801
-64.771
-48.881
-34.218
-20.713
-7.76
4.338
14.252
21.401
25.798
27.601
27.456
25.712
22.155
17.149
11.631
6.292
1.74
-1.666
-4.016
-5.272
-5.225
-3.851
-1.232
2.495
7.074
12.318
18.14
24.4
30.955
37.635
44.189
50.426
56.226
61.496
66.206
70.342
73.878
76.821
79.218
81.126
82.621
83.775
84.634
85.262
85.728
86.114
86.527
87.047
87.723
88.595
89.684
91.006
92.578
94.398
96.45
98.717
101.187
103.85
106.701
109.731
112.922
116.252
119.697
123.236
126.851
130.523
134.232
137.957
141.679
145.382
149.052
152.669
156.212
159.659
162.986
166.171
169.19
172.022
174.643
177.032
179.17
181.04
182.626
183.915
184.892
185.546
185.869
185.852
185.489
184.777
183.713
182.297
180.529
178.415
175.96
173.17
170.055
166.626
162.894
158.873
154.58
150.03
145.24
140.23
135.02
129.631
124.085
118.403
112.609
106.725
100.775
94.783
88.77
82.759
76.773
70.831
64.955
59.164
53.476
47.909
42.481
37.205
32.098
27.172
22.438
17.909
13.592
9.495
5.626
1.989
-1.411
-4.573
-7.494
-10.176
-12.619
-14.826
-16.801
-18.547
-20.072
-21.381
-22.483
-23.386
-24.1
-24.634
-24.999
-25.205
-25.264
-25.188
-24.987
-24.674
-24.259
-23.755
-23.174
-22.526
-21.823
-21.077
-20.296
-19.493
-18.677
-17.856
-17.041
-16.239
-15.457
-14.703
-13.984
-13.305
-12.672
-12.091
-11.565
-11.098
-10.694
-10.354
-10.079
-9.872
-9.731
-9.656
-9.648
-9.704
-9.824
-10.006
-10.246
-10.544
-10.895
-11.298
-11.748
-12.24
-12.771
-13.336
-13.931
-14.55
-15.188
-15.84
-16.501
-17.167
-17.833
-18.493
-19.142
-19.774
-20.382
-20.963
-21.509
-22.015
-22.476
-22.889
-23.249
-23.555
-23.804
-23.993
-24.122
-24.187
-24.189
-24.127
-23.999
-23.807
-23.549
-23.228
-22.846
-22.408
-21.916
-21.376
-20.79
-20.166
-19.51
-18.829
-18.127
-17.409
-16.678
-15.941
-15.207
-14.479
-13.764
-13.066
-12.394
-11.756
-11.164
-10.623
-10.135
-9.703
-9.326
-9.008
-8.751
-8.553
-8.41
-8.323
-8.292
-8.329
-8.454
-8.671
-8.971
-9.342
-9.758
-10.199
-10.65
-11.077
-11.44
-11.717
-11.889
-11.962
-11.963
-11.88
-11.703
-11.409
-10.948
-10.303
-9.486
-8.515
-7.445
-6.357
-5.326
-4.479
-3.969
-3.885
-4.3
-5.232
-6.637
-8.518
-10.852
-13.609
-16.803
-20.429
-24.462
-28.84
-33.408
-37.911
-42.058
-45.493
-47.832
-48.704
-47.712
-44.73
-39.901
-33.554
-26.328
-18.743
-11.101
-3.883
2.53
8.298
14.012
20.85
30.382
43.486
60.475
81.759
107.14
135.334
163.816
188.595
205.527
211.369
203.4
178.968
136.005
74.254
-3.902
-93.828
-190.578
-289.287
-385.007
-472.205
-544.604
-597.805
-630.453
-643.192
-637.507
-615.539
-579.8
-534.179
-484.418
-434.968
-388.258
-345.663
-307.551
-273.943
-244.946
-219.578
-195.574
-171.485
-146.797
-121.528
-96.473
-72.348
-49.533
-28.764
-11.05
3.053
13.349
19.956
23.417
24.248
22.877
19.833
15.653
10.789
5.662
0.656
-3.932
-7.837
-10.847
-12.832
-13.705
-13.416
-11.965
-9.4
-5.825
-1.386
3.756
9.453
15.552
21.899
28.322
34.62
40.623
46.211
51.309
55.875
59.891
63.34
66.236
68.628
70.582
72.171
73.46
74.503
75.361
76.105
76.815
77.58
78.467
79.521
80.773
82.246
83.952
85.905
88.1
90.519
93.142
95.956
98.947
102.109
105.427
108.88
112.444
116.097
119.816
123.583
127.376
131.174
134.955
138.699
142.388
146.007
149.535
152.95
156.23
159.352
162.292
165.029
167.543
169.81
171.812
173.531
174.951
176.061
176.847
177.3
177.409
177.17
176.577
175.627
174.321
172.658
170.643
168.279
165.575
162.54
159.184
155.518
151.558
147.318
142.814
138.066
133.092
127.911
122.545
117.017
111.348
105.561
99.681
93.73
87.731
81.71
75.687
69.686
63.729
57.836
52.027
46.321
40.736
35.289
29.995
24.869
19.923
15.17
10.62
6.282
2.162
-1.731
-5.394
-8.824
-12.017
-14.974
-17.694
-20.179
-22.432
-24.457
-26.259
-27.843
-29.217
-30.388
-31.364
-32.155
-32.769
-33.218
-33.511
-33.659
-33.673
-33.565
-33.346
-33.026
-32.618
-32.131
-31.576
-30.965
-30.305
-29.608
-28.882
-28.137
-27.379
-26.619
-25.861
-25.114
-24.384
-23.677
-22.997
-22.349
-21.738
-21.166
-20.638
-20.156
-19.722
-19.339
-19.009
-18.732
-18.511
-18.345
-18.233
-18.176
-18.173
-18.221
-18.321
-18.47
-18.667
-18.91
-19.196
-19.523
-19.89
-20.294
-20.731
-21.198
-21.693
-22.21
-22.748
-23.302
-23.869
-24.443
-25.023
-25.603
-26.182
-26.754
-27.315
-27.859
-28.382
-28.879
-29.344
-29.772
-30.157
-30.497
-30.786
-31.022
-31.203
-31.326
-31.389
-31.388
-31.323
-31.191
-30.993
-30.727
-30.391
-29.988
-29.519
-28.988
-28.396
-27.749
-27.048
-26.301
-25.513
-24.692
-23.84
-22.962
-22.061
-21.144
-20.219
-19.291
-18.363
-17.444
-16.541
-15.665
-14.826
-14.033
-13.287
-12.592
-11.948
-11.359
-10.828
-10.356
-9.936
-9.571
-9.262
-9.022
-8.875
-8.824
-8.86
-8.971
-9.132
-9.322
-9.529
-9.723
-9.861
-9.925
-9.897
-9.782
-9.612
-9.373
-9.051
-8.623
-8.032
-7.259
-6.32
-5.232
-4.046
-2.846
-1.7
-0.726
-0.08
0.157
-0.083
-0.826
-2.026
-3.693
-5.825
-8.395
-11.429
-14.932
-18.868
-23.187
-27.73
-32.227
-36.415
-39.951
-42.463
-43.617
-42.983
-40.37
-35.897
-29.829
-22.764
-15.282
-7.608
-0.154
6.437
12.182
17.509
23.371
31.669
43.689
59.701
80.237
105.722
135.228
166.842
196.974
220.374
232.937
231.794
213.906
176.55
118.579
40.798
-52.989
-156.549
-264.29
-371.177
-471.753
-560.057
-630.405
-678.882
-704.456
-708.743
-693.725
-661.463
-614.491
-556.55
-492.847
-428.369
-366.832
-310.006
-258.77
-214.003
-176.747
-147.485
-125.007
-107.203
-91.805
-77.632
-64.554
-52.447
-40.736
-28.56
-15.821
-3.349
7.404
15.494
20.899
23.899
24.742
23.374
19.812
14.602
8.786
3.302
-1.331
-4.887
-7.365
-8.686
-8.681
-7.326
-4.757
-1.179
3.191
8.197
13.767
19.797
26.136
32.601
38.95
44.987
50.594
55.689
60.238
64.223
67.621
70.435
72.713
74.52
75.929
77.008
77.801
78.363
78.764
79.091
79.447
79.914
80.538
81.357
82.39
83.653
85.16
86.912
88.887
91.068
93.44
95.994
98.725
101.623
104.669
107.84
111.112
114.464
117.879
121.337
124.818
128.304
131.775
135.216
138.613
141.95
145.205
148.357
151.385
154.266
156.98
159.507
161.824
163.914
165.758
167.342
168.652
169.677
170.404
170.824
170.931
170.718
170.181
169.319
168.13
166.616
164.779
162.625
160.162
157.397
154.339
151.001
147.394
143.534
139.435
135.114
130.588
125.876
120.997
115.971
110.82
105.564
100.224
94.822
89.381
83.92
78.462
73.026
67.632
62.299
57.046
51.888
46.844
41.927
37.153
32.534
28.082
23.808
19.722
15.831
12.143
8.664
5.397
2.346
-0.487
-3.101
-5.496
-7.675
-9.639
-11.392
-12.939
-14.285
-15.438
-16.403
-17.189
-17.805
-18.259
-18.561
-18.721
-18.749
-18.655
-18.451
-18.146
-17.751
-17.277
-16.734
-16.131
-15.478
-14.785
-14.06
-13.312
-12.549
-11.778
-11.006
-10.241
-9.487
-8.752
-8.04
-7.356
-6.703
-6.085
-5.505
-4.965
-4.468
-4.015
-3.607
-3.247
-2.934
-2.669
-2.453
-2.284
-2.163
-2.086
-2.054
-2.065
-2.117
-2.209
-2.339
-2.505
-2.705
-2.939
-3.205
-3.5
-3.822
-4.168
-4.537
-4.925
-5.33
-5.749
-6.178
-6.616
-7.061
-7.509
-7.958
-8.407
-8.851
-9.288
-9.712
-10.122
-10.511
-10.877
-11.214
-11.52
-11.793
-12.03
-12.228
-12.387
-12.502
-12.573
-12.596
-12.571
-12.496
-12.367
-12.183
-11.946
-11.656
-11.314
-10.924
-10.487
-10.009
-9.493
-8.946
-8.37
-7.769
-7.144
-6.499
-5.835
-5.155
-4.463
-3.762
-3.059
-2.361
-1.677
-1.017
-0.387
0.207
0.761
1.274
1.744
2.169
2.556
2.901
3.201
3.445
3.617
3.707
3.714
3.646
3.514
3.34
3.16
3.007
2.927
2.951
3.094
3.354
3.72
4.18
4.732
5.388
6.161
7.062
8.097
9.253
10.515
11.822
13.059
14.098
14.786
14.99
14.635
13.675
12.086
9.873
7.06
3.666
-0.238
-4.598
-9.384
-14.551
-20.069
-25.791
-31.428
-36.645
-41.041
-44.229
-45.921
-45.783
-43.443
-38.826
-32.111
-23.717
-14.431
-4.845
4.73
13.762
21.813
28.993
35.839
43.6
53.953
67.85
85.674
107.894
134.382
163.785
193.328
218.644
235.2
239.437
228.443
199.414
150.083
80.193
-7.469
-107.657
-214.821
-323.552
-428.693
-524.741
-604.983
-664.408
-701.354
-716.22
-710.295
-685.748
-644.476
-589.147
-525.502
-458.81
-392.625
-330.127
-273.126
-222.425
-179.783
-146.592
-121.472
-102.838
-89.056
-77.634
-67.61
-58.822
-50.108
-40.327
-29.468
-17.674
-5.803
4.389
12.298
17.983
21.258
22.127
20.706
17.141
12.145
6.887
2.133
-1.706
-4.393
-5.919
-6.215
-5.174
-2.859
0.526
4.746
9.604
14.96
20.724
26.799
33.023
39.181
45.088
50.595
55.605
60.083
64.009
67.356
70.13
72.362
74.099
75.419
76.398
77.083
77.535
77.819
78.014
78.221
78.525
78.982
79.631
80.498
81.595
82.939
84.533
86.361
88.409
90.662
93.108
95.743
98.555
101.528
104.639
107.862
111.176
114.562
118.001
121.473
124.96
128.44
131.899
135.322
138.692
141.988
145.188
148.27
151.21
153.988
156.583
158.973
161.137
163.058
164.721
166.111
167.215
168.022
168.522
168.706
168.568
168.105
167.312
166.19
164.739
162.961
160.863
158.45
155.731
152.715
149.412
145.836
142.001
137.922
133.614
129.095
124.383
119.497
114.458
109.286
104.001
98.626
93.181
87.689
82.17
76.645
71.135
65.658
60.235
54.882
49.617
44.457
39.416
34.509
29.749
25.149
20.719
16.469
12.407
8.541
4.876
1.418
-1.83
-4.866
-7.688
-10.296
-12.691
-14.875
-16.85
-18.621
-20.192
-21.568
-22.757
-23.765
-24.6
-25.27
-25.784
-26.15
-26.377
-26.476
-26.455
-26.324
-26.093
-25.772
-25.37
-24.896
-24.359
-23.769
-23.135
-22.463
-21.762
-21.04
-20.303
-19.557
-18.81
-18.065
-17.33
-16.608
-15.904
-15.222
-14.565
-13.938
-13.343
-12.781
-12.257
-11.77
-11.322
-10.916
-10.551
-10.23
-9.953
-9.72
-9.533
-9.391
-9.295
-9.244
-9.237
-9.274
-9.354
-9.476
-9.64
-9.844
-10.087
-10.37
-10.69
-11.048
-11.441
-11.868
-12.327
-12.816
-13.332
-13.872
-14.435
-15.016
-15.612
-16.222
-16.842
-17.469
-18.099
-18.728
-19.351
-19.964
-20.561
-21.136
-21.684
-22.199
-22.678
-23.116
-23.51
-23.857
-24.152
-24.393
-24.576
-24.699
-24.758
-24.75
-24.673
-24.524
-24.304
-24.014
-23.653
-23.225
-22.731
-22.176
-21.566
-20.905
-20.198
-19.446
-18.655
-17.827
-16.967
-16.079
-15.167
-14.235
-13.292
-12.345
-11.406
-10.484
-9.586
-8.717
-7.881
-7.082
-6.323
-5.605
-4.924
-4.282
-3.684
-3.143
-2.677
-2.296
-2.001
-1.787
-1.646
-1.552
-1.478
-1.386
-1.232
-0.986
-0.634
-0.173
0.382
1.025
1.758
2.59
3.538
4.621
5.847
7.204
8.676
10.191
11.63
12.861
13.722
14.086
13.879
13.043
11.558
9.427
6.671
3.339
-0.515
-4.861
-9.691
-14.98
-20.662
-26.528
-32.248
-37.472
-41.791
-44.869
-46.365
-45.837
-43.089
-38.204
-31.517
-23.722
-15.454
-6.976
1.292
8.708
15.288
21.427
28.085
37.172
49.951
66.715
87.988
114.163
144.245
176.204
206.365
229.419
241.222
238.841
219.154
179.388
118.393
37.189
-60.147
-167.362
-278.83
-389.394
-493.49
-584.858
-657.439
-707.522
-734.425
-739.242
-723.558
-689.21
-638.349
-575.166
-505.602
-434.324
-364.695
-299.623
-240.907
-190.232
-149.756
-119.609
-97.843
-82.871
-72.816
-65.356
-59.463
-54.076
-47.329
-38.602
-28.317
-16.799
-5.203
4.885
13.0
18.851
21.881
22.23
20.215
16.131
10.928
5.734
1.146
-2.417
-4.696
-5.74
-5.509
-3.946
-1.217
2.462
6.892
11.883
17.332
23.176
29.293
35.512
41.618
47.408
52.754
57.584
61.864
65.582
68.718
71.279
73.316
74.898
76.097
76.98
77.587
77.972
78.205
78.369
78.564
78.87
79.337
80.0
80.885
82.004
83.372
84.988
86.832
88.886
91.136
93.571
96.187
98.974
101.911
104.978
108.151
111.409
114.734
118.108
121.509
124.919
128.319
131.692
135.025
138.299
141.493
144.587
147.558
150.383
153.042
155.514
157.778
159.814
161.605
163.135
164.392
165.362
166.034
166.4
166.45
166.18
165.586
164.665
163.418
161.844
159.948
157.735
155.211
152.385
149.266
145.866
142.198
138.275
134.113
129.728
125.138
120.36
115.415
110.322
105.102
99.775
94.363
88.887
83.369
77.829
72.289
66.767
61.283
55.857
50.505
45.244
40.092
35.062
30.169
25.425
20.842
16.431
12.202
8.162
4.319
0.677
-2.757
-5.981
-8.992
-11.79
-14.374
-16.745
-18.906
-20.86
-22.61
-24.163
-25.522
-26.695
-27.69
-28.513
-29.174
-29.68
-30.042
-30.268
-30.368
-30.352
-30.23
-30.011
-29.705
-29.322
-28.872
-28.363
-27.804
-27.204
-26.572
-25.915
-25.242
-24.558
-23.872
-23.189
-22.516
-21.856
-21.216
-20.599
-20.01
-19.451
-18.927
-18.438
-17.989
-17.58
-17.213
-16.89
-16.61
-16.376
-16.187
-16.043
-15.943
-15.889
-15.878
-15.911
-15.988
-16.107
-16.269
-16.471
-16.714
-16.996
-17.315
-17.669
-18.057
-18.478
-18.929
-19.409
-19.916
-20.449
-21.005
-21.584
-22.184
-22.801
-23.433
-24.079
-24.734
-25.397
-26.064
-26.732
-27.397
-28.056
-28.707
-29.345
-29.968
-30.572
-31.151
-31.701
-32.218
-32.696
-33.131
-33.517
-33.852
-34.132
-34.354
-34.516
-34.617
-34.652
-34.622
-34.524
-34.357
-34.12
-33.812
-33.433
-32.983
-32.465
-31.881
-31.234
-30.528
-29.767
-28.957
-28.105
-27.218
-26.3
-25.355
-24.388
-23.406
-22.414
-21.418
-20.422
-19.432
-18.456
-17.502
-16.581
-15.699
-14.861
-14.07
-13.329
-12.638
-12.002
-11.419
-10.885
-10.403
-9.975
-9.61
-9.328
-9.14
-9.038
-9.016
-9.055
-9.125
-9.204
-9.258
-9.245
-9.139
-8.923
-8.591
-8.16
-7.631
-6.999
-6.253
-5.356
-4.277
-3.027
-1.622
-0.112
1.396
2.802
3.985
4.783
5.091
4.826
3.93
2.413
0.302
-2.37
-5.553
-9.24
-13.449
-18.15
-23.274
-28.652
-33.978
-38.947
-43.211
-46.385
-48.083
-47.845
-45.43
-40.918
-34.645
-27.275
-19.429
-11.376
-3.535
3.429
9.502
15.111
21.244
29.849
42.268
58.802
79.984
106.255
136.637
169.097
199.936
223.766
236.343
234.644
215.444
175.853
114.632
32.743
-65.72
-174.444
-287.718
-400.247
-506.318
-599.495
-673.535
-724.609
-751.999
-756.803
-740.633
-705.394
-653.308
-588.679
-517.619
-444.913
-373.992
-307.804
-248.16
-196.756
-155.777
-125.336
-103.407
-88.341
-78.21
-70.662
-64.666
-59.147
-52.207
-43.215
-32.618
-20.771
-8.864
1.498
9.85
15.899
19.078
19.525
17.564
13.504
8.318
3.146
-1.407
-4.922
-7.134
-8.093
-7.756
-6.068
-3.195
0.641
5.241
10.412
16.052
22.095
28.415
34.841
41.151
47.138
52.673
57.683
62.132
66.005
69.283
71.972
74.125
75.808
77.096
78.055
78.728
79.168
79.446
79.647
79.873
80.205
80.694
81.377
82.278
83.41
84.789
86.413
88.262
90.318
92.568
95.0
97.611
100.391
103.319
106.375
109.536
112.781
116.093
119.453
122.842
126.241
129.632
133.0
136.331
139.609
142.813
145.924
148.918
151.775
154.476
156.999
159.324
161.432
163.306
164.932
166.297
167.389
168.197
168.711
168.926
168.835
168.435
167.724
166.701
165.368
163.728
161.786
159.549
157.025
154.222
151.152
147.827
144.26
140.466
136.46
132.259
127.879
123.34
118.66
113.858
108.955
103.969
98.922
93.833
88.723
83.61
78.514
73.453
68.444
63.503
58.648
53.892
49.25
44.734
40.357
36.13
32.063
28.164
24.441
20.9
17.547
14.385
11.419
8.649
6.077
3.704
1.527
-0.455
-2.244
-3.846
-5.263
-6.501
-7.567
-8.466
-9.207
-9.796
-10.242
-10.553
-10.738
-10.806
-10.765
-10.625
-10.394
-10.082
-9.697
-9.249
-8.745
-8.195
-7.606
-6.985
-6.341
-5.68
-5.008
-4.332
-3.658
-2.991
-2.335
-1.695
-1.076
-0.48
0.088
0.625
1.129
1.598
2.029
2.42
2.771
3.08
3.346
3.569
3.748
3.882
3.971
4.015
4.014
3.967
3.875
3.74
3.561
3.341
3.08
2.779
2.439
2.063
1.651
1.204
0.725
0.214
-0.327
-0.895
-1.488
-2.103
-2.739
-3.391
-4.057
-4.734
-5.418
-6.105
-6.794
-7.479
-8.158
-8.826
-9.477
-10.106
-10.709
-11.28
-11.814
-12.304
-12.748
-13.142
-13.482
-13.765
-13.99
-14.152
-14.249
-14.28
-14.243
-14.136
-13.959
-13.709
-13.388
-12.999
-12.543
-12.023
-11.444
-10.807
-10.12
-9.389
-8.62
-7.816
-6.983
-6.124
-5.245
-4.355
-3.46
-2.564
-1.675
-0.801
0.048
0.86
1.627
2.347
3.018
3.637
4.203
4.709
5.156
5.55
5.888
6.167
6.375
6.489
6.503
6.427
6.273
6.068
5.83
5.573
5.327
5.133
5.01
4.975
5.021
5.121
5.286
5.531
5.88
6.388
7.077
7.929
8.929
10.021
11.12
12.157
13.011
13.527
13.625
13.238
12.344
10.991
9.173
6.895
4.186
1.023
-2.602
-6.653
-11.077
-15.713
-20.285
-24.521
-28.073
-30.568
-31.673
-30.96
-28.253
-23.688
-17.56
-10.496
-3.095
4.421
11.642
17.938
23.354
28.362
33.96
42.088
54.059
70.135
90.833
116.555
146.303
178.057
208.151
231.283
243.286
241.271
222.201
183.376
123.805
44.527
-50.478
-154.83
-262.768
-369.136
-468.374
-554.469
-621.926
-667.125
-689.297
-690.31
-672.39
-637.794
-589.271
-530.713
-467.233
-403.632
-343.42
-288.152
-238.554
-195.384
-159.524
-131.352
-109.677
-92.447
-77.505
-63.785
-51.189
-39.613
-28.508
-17.007
-4.99
6.74
16.805
24.323
29.285
31.989
32.671
31.255
27.754
22.702
17.107
11.886
7.542
4.277
2.089
1.05
1.314
2.895
5.652
9.373
13.842
18.905
24.49
30.501
36.795
43.193
49.465
55.418
60.938
65.95
70.419
74.332
77.666
80.428
82.669
84.453
85.856
86.943
87.761
88.359
88.808
89.189
89.602
90.124
90.8
91.665
92.738
94.035
95.568
97.337
99.321
101.504
103.87
106.408
109.115
111.979
114.981
118.099
121.31
124.594
127.934
131.31
134.704
138.095
141.466
144.8
148.083
151.299
154.426
157.442
160.327
163.059
165.616
167.979
170.125
172.036
173.696
175.088
176.199
177.017
177.531
177.732
177.61
177.163
176.384
175.272
173.827
172.048
169.941
167.51
164.761
161.704
158.347
154.702
150.781
146.601
142.174
137.52
132.654
127.595
122.364
116.981
111.466
105.842
100.13
94.352
88.531
82.687
76.842
71.017
65.233
59.507
53.86
48.31
42.872
37.564
32.4
27.393
22.558
17.905
13.444
9.186
5.137
1.304
-2.308
-5.693
-8.851
-11.778
-14.475
-16.942
-19.181
-21.196
-22.991
-24.571
-25.942
-27.11
-28.085
-28.874
-29.486
-29.932
-30.22
-30.362
-30.368
-30.25
-30.018
-29.684
-29.259
-28.755
-28.182
-27.551
-26.875
-26.162
-25.424
-24.67
-23.91
-23.155
-22.411
-21.689
-20.995
-20.337
-19.72
-19.152
-18.636
-18.178
-17.78
-17.445
-17.176
-16.973
-16.839
-16.773
-16.776
-16.845
-16.98
-17.18
-17.44
-17.759
-18.132
-18.557
-19.03
-19.545
-20.097
-20.682
-21.294
-21.927
-22.575
-23.231
-23.887
-24.537
-25.173
-25.788
-26.374
-26.925
-27.433
-27.895
-28.305
-28.658
-28.95
-29.177
-29.337
-29.428
-29.448
-29.396
-29.271
-29.074
-28.805
-28.467
-28.062
-27.593
-27.064
-26.477
-25.839
-25.154
-24.429
-23.67
-22.882
-22.071
-21.247
-20.418
-19.594
-18.785
-17.999
-17.244
-16.531
-15.868
-15.261
-14.715
-14.233
-13.815
-13.466
-13.188
-12.984
-12.856
-12.804
-12.826
-12.928
-13.112
-13.379
-13.735
-14.17
-14.671
-15.238
-15.866
-16.54
-17.251
-17.984
-18.712
-19.43
-20.121
-20.755
-21.318
-21.786
-22.134
-22.342
-22.389
-22.273
-22.021
-21.662
-21.229
-20.785
-20.383
-20.082
-19.974
-20.104
-20.516
-21.282
-22.413
-23.89
-25.716
-27.885
-30.388
-33.228
-36.3
-39.419
-42.414
-45.028
-47.009
-48.137
-48.045
-46.374
-43.016
-38.036
-31.798
-25.011
-18.163
-11.518
-5.559
-0.661
3.306
6.906
11.477
18.763
29.784
44.921
64.492
88.314
115.023
141.927
164.986
179.891
183.217
172.284
144.573
98.11
32.993
-48.013
-140.157
-238.163
-336.862
-431.211
-515.517
-583.518
-631.127
-657.313
-663.04
-650.265
-621.543
-579.719
-529.033
-475.388
-423.231
-374.922
-331.629
-293.464
-260.225
-231.835
-207.221
-184.079
-160.962
-137.394
-113.417
-89.888
-67.562
-46.809
-28.304
-12.936
-1.13
6.999
11.622
13.351
12.738
10.253
6.474
1.878
-3.119
-8.1
-12.749
-16.8
-20.011
-22.242
-23.405
-23.424
-22.292
-20.028
-16.691
-12.427
-7.397
-1.761
4.297
10.634
17.09
23.468
29.611
35.384
40.683
45.472
49.727
53.422
56.564
59.186
61.33
63.074
64.49
65.632
66.57
67.371
68.112
68.887
69.765
70.792
72.004
73.424
75.062
76.935
79.04
81.362
83.886
86.596
89.479
92.529
95.731
99.065
102.508
106.036
109.626
113.261
116.921
120.587
124.237
127.855
131.423
134.927
138.351
141.673
144.871
147.925
150.814
153.516
156.013
158.283
160.309
162.074
163.564
164.767
165.672
166.269
166.55
166.509
166.141
165.444
164.418
163.062
161.379
159.374
157.055
154.428
151.504
148.292
144.807
141.06
137.067
132.845
128.409
123.779
118.972
114.008
108.909
103.694
98.385
93.003
87.569
82.105
76.631
71.168
65.736
60.353
55.037
49.806
44.676
39.662
34.78
30.041
25.46
21.046
16.81
12.761
8.906
5.251
1.803
-1.436
-4.461
-7.272
-9.867
-12.247
-14.413
-16.367
-18.112
-19.654
-20.997
-22.146
-23.11
-23.895
-24.509
-24.96
-25.258
-25.411
-25.43
-25.323
-25.1
-24.772
-24.347
-23.837
-23.25
-22.598
-21.888
-21.132
-20.337
-19.513
-18.668
-17.81
-16.947
-16.087
-15.237
-14.403
-13.593
-12.812
-12.066
-11.36
-10.698
-10.084
-9.521
-9.01
-8.555
-8.157
-7.817
-7.535
-7.313
-7.149
-7.043
-6.995
-7.003
-7.065
-7.179
-7.341
-7.549
-7.8
-8.089
-8.412
-8.766
-9.145
-9.547
-9.966
-10.398
-10.836
-11.275
-11.709
-12.131
-12.536
-12.916
-13.266
-13.581
-13.856
-14.087
-14.272
-14.407
-14.489
-14.514
-14.481
-14.387
-14.232
-14.013
-13.731
-13.384
-12.976
-12.51
-11.987
-11.411
-10.785
-10.116
-9.409
-8.671
-7.904
-7.114
-6.303
-5.478
-4.647
-3.815
-2.987
-2.169
-1.369
-0.598
0.133
0.818
1.453
2.037
2.568
3.044
3.461
3.819
4.124
4.374
4.567
4.689
4.719
4.651
4.494
4.26
3.976
3.66
3.325
3.002
2.73
2.529
2.416
2.383
2.401
2.48
2.634
2.886
3.292
3.874
4.614
5.495
6.462
7.431
8.33
9.038
9.398
9.324
8.748
7.646
6.065
4.001
1.458
-1.538
-5.013
-8.974
-13.391
-18.207
-23.264
-28.287
-32.999
-37.052
-40.064
-41.687
-41.49
-39.291
-35.227
-29.594
-23.014
-16.072
-8.977
-2.128
3.846
8.989
13.77
19.197
27.205
39.075
55.026
75.526
100.961
130.348
161.711
191.408
214.121
225.722
223.354
203.999
165.018
105.382
26.009
-69.18
-173.873
-282.462
-389.752
-490.139
-577.829
-647.3
-694.871
-719.827
-723.605
-707.92
-675.037
-627.642
-569.123
-504.507
-438.292
-373.56
-312.736
-257.454
-208.598
-167.409
-134.878
-109.979
-91.367
-77.658
-66.802
-57.765
-50.222
-43.093
-35.156
-26.254
-16.484
-6.545
1.973
8.463
13.004
15.386
15.513
13.507
9.532
4.297
-0.984
-5.594
-9.196
-11.569
-12.732
-12.641
-11.193
-8.495
-4.797
-0.332
4.704
10.188
16.065
22.228
28.503
34.675
40.538
45.962
50.873
55.239
59.045
62.272
64.925
67.055
68.726
70.016
70.989
71.691
72.171
72.494
72.74
73.007
73.374
73.892
74.595
75.506
76.637
78.002
79.6
81.411
83.416
85.601
87.955
90.472
93.144
95.952
98.875
101.889
104.977
108.12
111.301
114.501
117.702
120.887
124.042
127.155
130.21
133.187
136.069
138.835
141.464
143.94
146.243
148.354
150.255
151.933
153.372
154.563
155.495
156.157
156.542
156.644
156.459
155.984
155.217
154.159
152.811
151.177
149.263
147.075
144.622
141.911
138.955
135.766
132.355
128.737
124.928
120.943
116.798
112.51
108.098
103.581
98.975
94.3
89.575
84.819
80.049
75.284
70.54
65.835
61.184
56.603
52.106
47.706
43.417
39.249
35.214
31.322
27.582
24.001
20.585
17.341
14.273
11.384
8.678
6.155
3.816
1.66
-0.313
-2.106
-3.722
-5.164
-6.438
-7.548
-8.501
-9.302
-9.958
-10.476
-10.864
-11.13
-11.281
-11.326
-11.274
-11.132
-10.909
-10.615
-10.257
-9.844
-9.384
-8.885
-8.354
-7.799
-7.227
-6.645
-6.06
-5.477
-4.904
-4.346
-3.808
-3.293
-2.807
-2.352
-1.931
-1.548
-1.204
-0.901
-0.64
-0.424
-0.252
-0.127
-0.047
-0.013
-0.023
-0.076
-0.17
-0.304
-0.474
-0.678
-0.912
-1.174
-1.459
-1.767
-2.091
-2.43
-2.779
-3.132
-3.485
-3.832
-4.17
-4.49
-4.79
-5.065
-5.311
-5.526
-5.707
-5.849
-5.952
-6.011
-6.026
-5.994
-5.913
-5.78
-5.595
-5.357
-5.07
-4.733
-4.351
-3.925
-3.461
-2.964
-2.44
-1.893
-1.327
-0.745
-0.151
0.453
1.061
1.671
2.278
2.877
3.459
4.014
4.535
5.015
5.451
5.838
6.175
6.461
6.696
6.885
7.03
7.124
7.161
7.122
6.999
6.791
6.506
6.154
5.759
5.353
4.972
4.663
4.459
4.374
4.414
4.567
4.825
5.192
5.675
6.294
7.067
8.002
9.09
10.316
11.611
12.859
13.931
14.665
14.932
14.654
13.772
12.263
10.127
7.382
4.073
0.251
-4.054
-8.833
-14.064
-19.688
-25.504
-31.196
-36.416
-40.762
-43.894
-45.463
-45.028
-42.381
-37.588
-30.965
-23.186
-14.881
-6.327
2.036
9.549
16.202
22.374
29.025
38.061
50.773
67.494
88.792
115.152
145.668
178.384
209.651
234.067
247.379
246.562
228.36
189.86
129.777
48.856
-49.001
-157.325
-270.338
-382.668
-488.428
-581.481
-655.873
-707.514
-735.5
-741.266
-726.541
-693.654
-645.396
-585.32
-518.773
-450.583
-384.024
-321.614
-265.029
-215.142
-173.194
-140.152
-114.857
-95.846
-81.663
-70.208
-60.459
-52.133
-44.171
-35.392
-25.708
-15.256
-4.773
4.124
10.833
15.446
17.767
17.728
15.484
11.216
5.661
0.047
-4.894
-8.807
-11.459
-12.861
-12.957
-11.64
-9.01
-5.316
-0.787
4.375
10.04
16.144
22.568
29.129
35.602
41.771
47.501
52.71
57.361
61.438
64.918
67.804
70.143
72.001
73.453
74.566
75.386
75.964
76.37
76.688
77.017
77.443
78.017
78.775
79.739
80.924
82.341
83.99
85.85
87.901
90.129
92.522
95.076
97.78
100.614
103.558
106.586
109.679
112.818
115.986
119.162
122.329
125.468
128.565
131.609
134.584
137.47
140.249
142.899
145.4
147.736
149.885
151.829
153.551
155.035
156.269
157.241
157.942
158.361
158.491
158.326
157.864
157.1
156.035
154.668
153.002
151.041
148.791
146.26
143.455
140.388
137.068
133.508
129.723
125.727
121.535
117.164
112.631
107.953
103.151
98.242
93.247
88.184
83.073
77.934
72.786
67.648
62.538
57.473
52.47
47.545
42.713
37.989
33.385
28.915
24.59
20.421
16.417
12.587
8.939
5.478
2.209
-0.862
-3.733
-6.401
-8.866
-11.127
-13.186
-15.043
-16.702
-18.166
-19.439
-20.528
-21.437
-22.174
-22.745
-23.159
-23.424
-23.547
-23.538
-23.406
-23.159
-22.808
-22.361
-21.829
-21.22
-20.545
-19.812
-19.032
-18.213
-17.364
-16.495
-15.612
-14.725
-13.84
-12.967
-12.111
-11.281
-10.482
-9.72
-9.001
-8.329
-7.709
-7.144
-6.637
-6.19
-5.805
-5.484
-5.229
-5.038
-4.914
-4.855
-4.861
-4.931
-5.063
-5.255
-5.504
-5.806
-6.159
-6.559
-7.0
-7.479
-7.991
-8.531
-9.096
-9.678
-10.273
-10.872
-11.471
-12.061
-12.636
-13.189
-13.713
-14.203
-14.654
-15.062
-15.423
-15.732
-15.988
-16.185
-16.322
-16.396
-16.406
-16.349
-16.224
-16.032
-15.775
-15.455
-15.075
-14.638
-14.148
-13.609
-13.03
-12.415
-11.768
-11.094
-10.397
-9.682
-8.959
-8.233
-7.509
-6.793
-6.095
-5.424
-4.793
-4.207
-3.669
-3.181
-2.744
-2.361
-2.036
-1.767
-1.548
-1.383
-1.273
-1.231
-1.28
-1.423
-1.65
-1.95
-2.294
-2.662
-3.042
-3.401
-3.699
-3.916
-4.036
-4.066
-4.033
-3.924
-3.723
-3.407
-2.917
-2.234
-1.374
-0.355
0.764
1.891
2.952
3.822
4.343
4.433
4.019
3.075
1.649
-0.267
-2.668
-5.527
-8.874
-12.721
-17.03
-21.739
-26.678
-31.55
-36.072
-39.883
-42.595
-43.857
-43.226
-40.515
-35.88
-29.637
-22.432
-14.874
-7.179
0.242
6.716
12.271
17.388
23.092
31.383
43.596
59.969
81.025
107.194
137.457
169.748
200.281
223.56
235.299
232.477
211.892
170.736
107.921
24.571
-75.076
-184.561
-298.046
-410.14
-515.059
-606.393
-678.089
-726.566
-751.287
-753.483
-734.915
-697.587
-643.842
-578.12
-506.48
-433.565
-362.71
-296.782
-237.524
-186.646
-146.307
-116.486
-95.146
-80.665
-71.127
-64.264
-59.083
-54.473
-48.526
-40.613
-31.141
-20.449
-9.706
-0.433
6.952
12.196
14.778
14.796
12.538
8.306
3.042
-2.121
-6.58
-9.946
-11.98
-12.73
-12.161
-10.214
-7.054
-2.926
1.952
7.371
13.213
19.428
25.91
32.487
38.949
45.092
50.786
55.971
60.624
64.723
68.244
71.189
73.604
75.564
77.149
78.421
79.424
80.206
80.832
81.386
81.963
82.641
83.465
84.467
85.664
87.073
88.705
90.56
92.616
94.854
97.258
99.817
102.525
105.372
108.338
111.398
114.531
117.716
120.937
124.176
127.413
130.63
133.81
136.939
140.005
142.991
145.879
148.65
151.283
153.759
156.061
158.17
160.067
161.735
163.161
164.331
165.235
165.863
166.205
166.256
166.008
165.461
164.61
163.455
161.998
160.24
158.188
155.848
153.227
150.334
147.18
143.775
140.134
136.27
132.199
127.936
123.499
118.904
114.17
109.318
104.365
99.332
94.238
89.104
83.949
78.792
73.653
68.549
63.499
58.518
53.624
48.831
44.153
39.604
35.197
30.942
26.849
22.929
19.189
15.636
12.275
9.111
6.148
3.388
0.832
-1.52
-3.668
-5.614
-7.361
-8.913
-10.274
-11.45
-12.446
-13.27
-13.93
-14.432
-14.786
-15.0
-15.083
-15.046
-14.896
-14.645
-14.302
-13.876
-13.377
-12.815
-12.198
-11.537
-10.838
-10.112
-9.365
-8.606
-7.842
-7.08
-6.326
-5.587
-4.869
-4.176
-3.513
-2.885
-2.295
-1.746
-1.242
-0.785
-0.377
-0.021
0.282
0.53
0.724
0.862
0.944
0.971
0.943
0.862
0.728
0.543
0.308
0.025
-0.304
-0.679
-1.096
-1.555
-2.052
-2.584
-3.148
-3.742
-4.361
-5.003
-5.664
-6.339
-7.026
-7.72
-8.42
-9.121
-9.818
-10.508
-11.185
-11.844
-12.481
-13.09
-13.667
-14.207
-14.706
-15.161
-15.57
-15.93
-16.237
-16.489
-16.684
-16.82
-16.895
-16.908
-16.856
-16.74
-16.561
-16.321
-16.023
-15.669
-15.263
-14.81
-14.317
-13.788
-13.227
-12.639
-12.026
-11.392
-10.743
-10.083
-9.417
-8.75
-8.089
-7.441
-6.818
-6.227
-5.674
-5.161
-4.691
-4.265
-3.887
-3.558
-3.272
-3.034
-2.847
-2.718
-2.666
-2.703
-2.821
-3.012
-3.257
-3.524
-3.79
-4.027
-4.191
-4.262
-4.227
-4.079
-3.839
-3.516
-3.098
-2.58
-1.932
-1.12
-0.155
0.943
2.137
3.324
4.407
5.283
5.795
5.84
5.357
4.29
2.651
0.47
-2.241
-5.432
-9.069
-13.16
-17.662
-22.531
-27.67
-32.812
-37.66
-41.901
-45.126
-47.028
-47.293
-45.487
-41.498
-35.513
-27.904
-19.436
-10.765
-2.11
6.068
13.111
19.059
24.357
30.117
38.392
50.484
66.666
87.415
113.043
142.442
173.37
201.895
222.578
231.168
224.727
200.281
155.173
88.61
2.187
-99.616
-210.203
-323.504
-434.216
-536.707
-624.424
-691.555
-734.832
-753.793
-750.232
-726.531
-684.715
-627.23
-559.006
-486.106
-413.434
-344.752
-282.083
-226.333
-179.151
-142.43
-115.678
-96.804
-83.51
-73.08
-64.113
-56.427
-49.025
-40.371
-30.045
-18.398
-6.453
3.882
11.72
17.215
20.295
20.836
18.934
14.747
8.986
2.992
-2.381
-6.76
-9.904
-11.839
-12.53
-11.831
-9.798
-6.67
-2.662
2.014
7.205
12.871
18.916
25.186
31.495
37.594
43.307
48.54
53.235
57.38
60.959
63.948
66.37
68.29
69.781
70.919
71.767
72.356
72.744
73.004
73.222
73.499
73.909
74.49
75.275
76.281
77.522
79.012
80.745
82.696
84.847
87.184
89.696
92.381
95.224
98.204
101.299
104.487
107.746
111.058
114.405
117.766
121.12
124.451
127.743
130.981
134.147
137.223
140.187
143.018
145.695
148.2
150.512
152.611
154.48
156.102
157.465
158.556
159.364
159.879
160.093
160.002
159.6
158.885
157.856
156.514
154.861
152.903
150.645
148.094
145.261
142.155
138.788
135.174
131.328
127.264
122.998
118.549
113.935
109.174
104.287
99.292
94.211
89.063
83.869
78.65
73.425
68.214
63.036
57.908
52.848
47.872
42.996
38.235
33.601
29.108
24.767
20.588
16.581
12.753
9.111
5.662
2.408
-0.645
-3.497
-6.145
-8.591
-10.834
-12.877
-14.722
-16.374
-17.837
-19.116
-20.219
-21.152
-21.923
-22.539
-23.009
-23.342
-23.548
-23.634
-23.612
-23.489
-23.277
-22.984
-22.62
-22.194
-21.715
-21.191
-20.632
-20.044
-19.436
-18.815
-18.187
-17.558
-16.935
-16.323
-15.727
-15.151
-14.601
-14.079
-13.589
-13.133
-12.714
-12.334
-11.994
-11.696
-11.441
-11.23
-11.063
-10.941
-10.863
-10.831
-10.843
-10.898
-10.996
-11.135
-11.313
-11.529
-11.782
-12.07
-12.391
-12.744
-13.127
-13.538
-13.976
-14.438
-14.922
-15.424
-15.942
-16.475
-17.018
-17.569
-18.124
-18.681
-19.237
-19.79
-20.336
-20.872
-21.392
-21.894
-22.371
-22.821
-23.238
-23.618
-23.957
-24.252
-24.501
-24.701
-24.851
-24.947
-24.988
-24.972
-24.897
-24.764
-24.57
-24.314
-23.997
-23.621
-23.189
-22.704
-22.168
-21.585
-20.96
-20.301
-19.612
-18.896
-18.157
-17.398
-16.623
-15.84
-15.055
-14.27
-13.493
-12.731
-11.994
-11.294
-10.636
-10.024
-9.46
-8.944
-8.478
-8.067
-7.71
-7.402
-7.145
-6.942
-6.804
-6.753
-6.793
-6.913
-7.101
-7.33
-7.58
-7.839
-8.075
-8.247
-8.338
-8.335
-8.242
-8.09
-7.87
-7.562
-7.152
-6.592
-5.864
-4.99
-3.982
-2.891
-1.799
-0.773
0.07
0.579
0.676
0.299
-0.578
-1.907
-3.704
-5.976
-8.666
-11.775
-15.286
-19.134
-23.301
-27.671
-31.986
-36.011
-39.404
-41.755
-42.803
-42.21
-39.616
-35.02
-28.565
-20.647
-12.068
-3.383
5.111
12.862
19.463
25.074
30.268
36.419
45.3
57.874
74.521
95.635
121.071
149.466
177.973
202.261
217.765
220.893
208.874
179.072
129.346
59.731
-26.903
-125.439
-230.014
-335.102
-435.604
-525.732
-599.15
-651.471
-680.983
-688.461
-676.278
-646.914
-602.857
-547.978
-487.404
-425.873
-367.333
-313.784
-265.538
-223.065
-186.896
-156.853
-132.301
-111.818
-93.203
-75.522
-59.01
-43.69
-29.673
-16.862
-4.614
6.791
16.067
22.642
26.518
27.859
27.31
25.205
21.327
16.028
10.224
4.613
-0.187
-3.824
-6.381
-7.826
-7.962
-6.767
-4.327
-0.779
3.622
8.69
14.342
20.441
26.853
33.41
39.867
46.032
51.779
57.019
61.719
65.865
69.433
72.427
74.894
76.892
78.499
79.783
80.79
81.581
82.219
82.787
83.386
84.092
84.955
86.009
87.275
88.765
90.494
92.459
94.641
97.022
99.586
102.32
105.221
108.277
111.468
114.771
118.163
121.621
125.128
128.666
132.213
135.75
139.259
142.724
146.133
149.467
152.707
155.832
158.821
161.652
164.305
166.762
169.001
171.003
172.754
174.237
175.441
176.354
176.966
177.267
177.252
176.915
176.252
175.263
173.947
172.305
170.341
168.062
165.473
162.584
159.403
155.943
152.216
148.237
144.021
139.583
134.941
130.112
125.117
119.975
114.706
109.331
103.869
98.344
92.775
87.184
81.591
76.016
70.478
64.995
59.587
54.269
49.057
43.968
39.015
34.211
29.569
25.1
20.813
16.718
12.821
9.129
5.647
2.38
-0.671
-3.503
-6.116
-8.511
-10.689
-12.652
-14.405
-15.952
-17.298
-18.451
-19.416
-20.202
-20.817
-21.27
-21.57
-21.726
-21.749
-21.65
-21.438
-21.125
-20.721
-20.236
-19.682
-19.07
-18.408
-17.709
-16.98
-16.233
-15.476
-14.718
-13.968
-13.235
-12.525
-11.846
-11.205
-10.606
-10.054
-9.555
-9.112
-8.727
-8.404
-8.144
-7.95
-7.821
-7.758
-7.762
-7.83
-7.962
-8.156
-8.409
-8.717
-9.079
-9.489
-9.943
-10.436
-10.964
-11.522
-12.103
-12.703
-13.315
-13.932
-14.547
-15.154
-15.744
-16.312
-16.85
-17.354
-17.817
-18.235
-18.604
-18.92
-19.18
-19.381
-19.52
-19.595
-19.605
-19.548
-19.424
-19.234
-18.978
-18.659
-18.281
-17.847
-17.359
-16.822
-16.244
-15.631
-14.988
-14.321
-13.633
-12.934
-12.23
-11.53
-10.841
-10.168
-9.517
-8.899
-8.323
-7.797
-7.324
-6.906
-6.546
-6.244
-6.004
-5.829
-5.718
-5.668
-5.676
-5.748
-5.899
-6.142
-6.479
-6.898
-7.375
-7.896
-8.447
-9.011
-9.56
-10.061
-10.485
-10.823
-11.085
-11.272
-11.376
-11.376
-11.228
-10.889
-10.352
-9.636
-8.795
-7.892
-6.985
-6.157
-5.523
-5.201
-5.293
-5.839
-6.826
-8.242
-10.061
-12.268
-14.889
-17.948
-21.44
-25.296
-29.346
-33.361
-37.096
-40.26
-42.544
-43.566
-42.856
-40.236
-35.818
-29.92
-23.189
-16.175
-9.074
-2.259
3.697
8.812
13.513
18.79
26.506
37.955
53.422
73.278
97.775
125.878
155.56
183.448
204.682
215.153
212.004
192.249
153.19
94.285
17.064
-74.773
-175.36
-278.857
-380.019
-472.665
-550.036
-607.565
-643.05
-656.332
-649.583
-625.598
-587.195
-538.851
-486.458
-434.46
-385.76
-342.105
-303.582
-269.978
-241.217
-216.026
-192.172
-168.274
-143.707
-118.439
-93.311
-69.063
-46.141
-25.353
-7.683
6.34
16.526
23.019
26.354
27.042
25.521
22.325
17.996
12.995
7.742
2.623
-2.064
-6.055
-9.133
-11.169
-12.077
-11.811
-10.374
-7.822
-4.253
0.185
5.334
11.046
17.163
23.53
29.973
36.291
42.308
47.907
53.007
57.568
61.569
64.994
67.856
70.204
72.105
73.629
74.844
75.801
76.562
77.199
77.792
78.431
79.182
80.091
81.191
82.503
84.042
85.818
87.83
90.058
92.484
95.093
97.875
100.821
103.919
107.149
110.487
113.912
117.401
120.938
124.503
128.074
131.631
135.157
138.633
142.045
145.375
148.602
151.705
154.66
157.448
160.047
162.436
164.596
166.507
168.153
169.52
170.595
171.367
171.825
171.962
171.771
171.248
170.391
169.199
167.672
165.814
163.629
161.125
158.309
155.192
151.785
148.1
144.153
139.958
135.534
130.897
126.067
121.063
115.906
110.618
105.219
99.732
94.18
88.583
82.965
77.348
71.751
66.196
60.703
55.289
49.972
44.771
39.7
34.773
30.006
25.409
20.995
16.773
12.752
8.939
5.34
1.96
-1.198
-4.131
-6.838
-9.32
-11.578
-13.613
-15.43
-17.033
-18.427
-19.618
-20.615
-21.424
-22.055
-22.516
-22.817
-22.969
-22.981
-22.865
-22.63
-22.288
-21.849
-21.324
-20.724
-20.06
-19.341
-18.578
-17.781
-16.96
-16.124
-15.281
-14.44
-13.608
-12.793
-12.002
-11.241
-10.517
-9.835
-9.2
-8.616
-8.089
-7.62
-7.213
-6.869
-6.591
-6.378
-6.231
-6.15
-6.135
-6.186
-6.3
-6.477
-6.716
-7.014
-7.367
-7.774
-8.23
-8.732
-9.275
-9.855
-10.467
-11.106
-11.767
-12.446
-13.138
-13.838
-14.539
-15.237
-15.924
-16.595
-17.243
-17.862
-18.446
-18.99
-19.489
-19.94
-20.339
-20.684
-20.97
-21.196
-21.36
-21.458
-21.49
-21.454
-21.349
-21.174
-20.933
-20.626
-20.257
-19.83
-19.349
-18.819
-18.248
-17.642
-17.006
-16.344
-15.661
-14.961
-14.251
-13.538
-12.825
-12.117
-11.424
-10.754
-10.118
-9.523
-8.974
-8.474
-8.025
-7.63
-7.291
-7.008
-6.777
-6.599
-6.48
-6.427
-6.457
-6.578
-6.785
-7.068
-7.409
-7.776
-8.146
-8.484
-8.746
-8.908
-8.955
-8.88
-8.698
-8.412
-8.013
-7.498
-6.84
-6.01
-5.022
-3.888
-2.651
-1.416
-0.279
0.646
1.201
1.286
0.83
-0.228
-1.877
-4.095
-6.857
-10.082
-13.732
-17.799
-22.224
-26.975
-31.926
-36.793
-41.305
-45.122
-47.834
-49.142
-48.689
-46.071
-41.238
-34.386
-25.96
-16.79
-7.475
1.69
10.16
17.499
23.835
29.716
36.473
45.869
58.851
75.737
96.866
122.037
149.839
177.481
200.709
215.011
216.86
203.542
172.482
121.621
51.057
-36.334
-135.467
-240.509
-345.982
-446.814
-537.256
-611.017
-663.737
-693.723
-701.743
-690.14
-661.362
-617.845
-563.407
-503.133
-441.726
-383.128
-329.353
-280.729
-237.758
-201.024
-170.396
-145.293
-124.333
-105.314
-87.295
-70.512
-54.977
-40.788
-27.838
-15.461
-3.921
5.483
12.17
16.138
17.549
17.052
14.988
11.136
5.848
0.05
-5.551
-10.333
-13.936
-16.448
-17.839
-17.909
-16.638
-14.113
-10.474
-5.979
-0.819
4.918
11.096
17.575
24.184
30.675
36.852
42.59
47.796
52.439
56.504
59.966
62.832
65.147
66.972
68.384
69.454
70.231
70.773
71.149
71.442
71.756
72.167
72.727
73.471
74.421
75.59
76.994
78.631
80.484
82.534
84.768
87.175
89.751
92.486
95.362
98.357
101.447
104.614
107.839
111.106
114.394
117.687
120.965
124.215
127.425
130.577
133.653
136.633
139.495
142.219
144.786
147.177
149.371
151.351
153.101
154.606
155.856
156.838
157.542
157.961
158.086
157.915
157.442
156.667
155.589
154.21
152.533
150.563
148.306
145.771
142.967
139.905
136.595
133.052
129.29
125.325
121.171
116.846
112.368
107.755
103.027
98.203
93.301
88.342
83.344
78.328
73.313
68.315
63.352
58.441
53.598
48.838
44.176
39.624
35.195
30.9
26.75
22.754
18.92
15.256
11.768
8.46
5.337
2.402
-0.344
-2.898
-5.261
-7.435
-9.42
-11.219
-12.836
-14.275
-15.541
-16.64
-17.578
-18.361
-18.996
-19.492
-19.857
-20.097
-20.223
-20.242
-20.162
-19.994
-19.743
-19.421
-19.033
-18.589
-18.096
-17.562
-16.995
-16.402
-15.789
-15.164
-14.533
-13.902
-13.277
-12.663
-12.066
-11.49
-10.939
-10.418
-9.929
-9.477
-9.065
-8.695
-8.37
-8.093
-7.864
-7.685
-7.556
-7.477
-7.449
-7.472
-7.544
-7.666
-7.836
-8.053
-8.317
-8.625
-8.976
-9.367
-9.796
-10.261
-10.756
-11.28
-11.828
-12.396
-12.98
-13.575
-14.178
-14.786
-15.392
-15.993
-16.584
-17.157
-17.709
-18.233
-18.724
-19.175
-19.583
-19.943
-20.251
-20.505
-20.702
-20.839
-20.913
-20.922
-20.865
-20.74
-20.546
-20.28
-19.944
-19.54
-19.07
-18.537
-17.944
-17.296
-16.599
-15.861
-15.087
-14.283
-13.453
-12.601
-11.733
-10.855
-9.973
-9.091
-8.215
-7.354
-6.515
-5.711
-4.95
-4.236
-3.572
-2.962
-2.407
-1.911
-1.473
-1.089
-0.762
-0.496
-0.298
-0.186
-0.171
-0.243
-0.397
-0.615
-0.864
-1.121
-1.353
-1.516
-1.586
-1.548
-1.393
-1.139
-0.789
-0.333
0.231
0.931
1.797
2.817
3.978
5.242
6.503
7.668
8.624
9.214
9.337
8.921
7.903
6.29
4.102
1.36
-1.859
-5.521
-9.623
-14.109
-18.95
-24.026
-29.056
-33.771
-37.835
-40.834
-42.465
-42.367
-40.123
-35.665
-29.181
-21.101
-12.241
-3.197
5.739
14.011
21.173
27.363
33.133
39.845
49.301
62.465
79.711
101.464
127.527
156.505
185.57
210.301
226.109
229.399
217.283
187.06
136.548
65.628
-22.778
-123.411
-230.64
-338.949
-443.176
-537.807
-616.145
-673.321
-707.786
-720.027
-711.534
-684.626
-641.294
-584.349
-519.546
-452.118
-385.595
-323.007
-266.029
-215.413
-172.841
-139.655
-114.517
-95.846
-82.06
-70.804
-61.13
-52.857
-44.825
-35.824
-25.815
-14.938
-3.997
5.299
12.361
17.277
19.858
20.078
18.088
14.055
8.714
3.282
-1.508
-5.289
-7.832
-9.155
-9.204
-7.873
-5.255
-1.58
2.922
8.055
13.686
19.739
26.1
32.591
38.989
45.083
50.738
55.868
60.438
64.436
67.839
70.649
72.912
74.689
76.052
77.072
77.794
78.269
78.568
78.774
78.988
79.294
79.747
80.382
81.225
82.289
83.588
85.125
86.879
88.835
90.979
93.301
95.799
98.462
101.274
104.212
107.255
110.382
113.575
116.817
120.088
123.37
126.645
129.898
133.117
136.286
139.384
142.391
145.285
148.046
150.654
153.088
155.327
157.352
159.148
160.699
161.993
163.016
163.759
164.212
164.368
164.221
163.767
163.004
161.931
160.549
158.861
156.872
154.588
152.017
149.167
146.05
142.678
139.063
135.221
131.167
126.917
122.488
117.899
113.169
108.317
103.364
98.328
93.231
88.093
82.934
77.773
72.63
67.523
62.468
57.484
52.586
47.79
43.108
38.555
34.142
29.881
25.781
21.852
18.101
14.534
11.158
7.975
4.99
2.204
-0.382
-2.767
-4.954
-6.942
-8.737
-10.341
-11.758
-12.996
-14.058
-14.953
-15.688
-16.27
-16.707
-17.008
-17.182
-17.238
-17.184
-17.03
-16.784
-16.456
-16.054
-15.587
-15.064
-14.492
-13.88
-13.235
-12.566
-11.878
-11.178
-10.474
-9.769
-9.071
-8.383
-7.711
-7.059
-6.429
-5.827
-5.254
-4.713
-4.207
-3.738
-3.307
-2.917
-2.568
-2.261
-1.997
-1.776
-1.599
-1.466
-1.377
-1.333
-1.334
-1.38
-1.47
-1.604
-1.781
-2.001
-2.263
-2.565
-2.906
-3.285
-3.7
-4.151
-4.636
-5.153
-5.7
-6.276
-6.879
-7.506
-8.156
-8.824
-9.508
-10.205
-10.912
-11.625
-12.341
-13.055
-13.765
-14.466
-15.155
-15.826
-16.475
-17.096
-17.684
-18.234
-18.74
-19.199
-19.607
-19.959
-20.254
-20.488
-20.66
-20.767
-20.807
-20.778
-20.681
-20.514
-20.277
-19.97
-19.594
-19.154
-18.651
-18.09
-17.474
-16.809
-16.1
-15.356
-14.581
-13.782
-12.963
-12.129
-11.288
-10.447
-9.613
-8.79
-7.985
-7.205
-6.46
-5.759
-5.107
-4.509
-3.965
-3.479
-3.052
-2.689
-2.389
-2.149
-1.972
-1.856
-1.812
-1.859
-2.001
-2.229
-2.53
-2.877
-3.249
-3.629
-3.984
-4.281
-4.493
-4.6
-4.6
-4.508
-4.32
-4.036
-3.634
-3.064
-2.314
-1.399
-0.354
0.742
1.808
2.766
3.498
3.863
3.762
3.112
1.886
0.119
-2.17
-4.93
-8.131
-11.794
-15.899
-20.412
-25.225
-30.115
-34.822
-39.052
-42.434
-44.599
-45.148
-43.648
-39.988
-34.36
-27.175
-19.194
-10.989
-2.851
4.693
11.201
16.828
22.209
28.706
38.13
51.478
69.078
91.358
118.144
148.017
178.137
204.034
221.046
225.538
214.58
185.37
135.642
65.177
-23.204
-124.194
-232.128
-341.469
-446.953
-542.98
-622.754
-681.261
-716.857
-729.996
-722.108
-695.5
-652.196
-595.016
-529.788
-461.818
-394.657
-331.416
-273.84
-222.708
-179.737
-146.27
-120.915
-102.059
-88.107
-76.665
-66.775
-58.247
-49.9
-40.536
-30.153
-18.923
-7.686
1.848
9.106
14.178
16.878
17.181
15.24
11.239
5.931
0.533
-4.229
-7.989
-10.526
-11.851
-11.9
-10.569
-7.949
-4.272
0.23
5.361
10.99
17.039
23.392
29.869
36.243
42.306
47.925
53.014
57.541
61.493
64.846
67.603
69.812
71.533
72.838
73.796
74.452
74.859
75.088
75.223
75.363
75.597
75.977
76.54
77.312
78.306
79.538
81.008
82.699
84.593
86.678
88.943
91.386
93.999
96.764
99.659
102.663
105.754
108.916
112.131
115.378
118.641
121.901
125.143
128.354
131.52
134.619
137.632
140.537
143.314
145.941
148.399
150.667
152.726
154.56
156.152
157.49
158.563
159.358
159.866
160.079
159.992
159.601
158.902
157.894
156.578
154.957
153.034
150.817
148.311
145.527
142.474
139.163
135.609
131.826
127.828
123.632
119.254
114.715
110.031
105.223
100.312
95.316
90.256
85.154
80.03
74.903
69.792
64.717
59.695
54.744
49.879
45.117
40.471
35.957
31.585
27.368
23.316
19.438
15.743
12.237
8.925
5.813
2.903
0.197
-2.302
-4.596
-6.685
-8.572
-10.258
-11.75
-13.051
-14.167
-15.105
-15.872
-16.477
-16.927
-17.232
-17.401
-17.443
-17.368
-17.185
-16.905
-16.537
-16.092
-15.578
-15.006
-14.383
-13.72
-13.025
-12.305
-11.568
-10.821
-10.072
-9.325
-8.588
-7.865
-7.161
-6.48
-5.826
-5.203
-4.613
-4.058
-3.541
-3.062
-2.623
-2.224
-1.864
-1.545
-1.266
-1.025
-0.822
-0.657
-0.527
-0.432
-0.372
-0.343
-0.345
-0.376
-0.436
-0.522
-0.634
-0.771
-0.932
-1.117
-1.326
-1.557
-1.811
-2.087
-2.384
-2.701
-3.038
-3.395
-3.771
-4.166
-4.579
-5.01
-5.46
-5.927
-6.412
-6.913
-7.43
-7.961
-8.505
-9.06
-9.625
-10.196
-10.772
-11.351
-11.931
-12.509
-13.082
-13.647
-14.201
-14.739
-15.256
-15.748
-16.21
-16.637
-17.026
-17.372
-17.673
-17.927
-18.131
-18.281
-18.376
-18.413
-18.391
-18.308
-18.162
-17.951
-17.676
-17.338
-16.939
-16.481
-15.967
-15.401
-14.788
-14.135
-13.446
-12.727
-11.981
-11.211
-10.422
-9.62
-8.81
-7.996
-7.183
-6.379
-5.592
-4.833
-4.109
-3.424
-2.782
-2.186
-1.635
-1.134
-0.684
-0.277
0.081
0.388
0.635
0.805
0.888
0.891
0.821
0.695
0.544
0.39
0.266
0.215
0.259
0.413
0.685
1.058
1.528
2.105
2.79
3.611
4.596
5.734
7.011
8.389
9.761
11.035
12.096
12.788
13.01
12.689
11.758
10.223
8.103
5.417
2.242
-1.39
-5.475
-9.961
-14.817
-19.923
-25.0
-29.777
-33.918
-37.011
-38.748
-38.767
-36.646
-32.317
-25.968
-18.027
-9.313
-0.421
8.355
16.455
23.428
29.409
34.961
41.449
50.678
63.619
80.647
102.198
128.098
156.954
185.923
210.569
226.289
229.467
217.192
186.73
135.842
64.38
-24.722
-126.181
-234.342
-343.636
-448.848
-544.399
-623.49
-681.171
-715.867
-728.056
-719.235
-691.763
-647.669
-589.806
-524.025
-455.653
-388.274
-324.966
-267.425
-216.403
-173.59
-140.344
-115.295
-96.81
-83.265
-72.262
-62.83
-54.781
-46.932
-38.041
-28.059
-17.139
-6.107
3.302
10.489
15.541
18.261
18.609
16.725
12.779
7.513
2.157
-2.55
-6.244
-8.7
-9.938
-9.903
-8.494
-5.805
-2.071
2.476
7.641
13.293
19.36
25.73
32.227
38.628
44.724
50.377
55.505
60.072
64.067
67.467
70.275
72.536
74.313
75.68
76.704
77.431
77.911
78.214
78.421
78.634
78.937
79.382
80.006
80.834
81.88
83.157
84.667
86.391
88.311
90.414
92.691
95.138
97.747
100.5
103.376
106.353
109.41
112.53
115.698
118.892
122.096
125.293
128.468
131.609
134.701
137.724
140.659
143.485
146.181
148.729
151.108
153.299
155.283
157.044
158.568
159.842
160.854
161.594
162.051
162.219
162.092
161.665
160.937
159.904
158.569
156.932
154.999
152.774
150.265
147.479
144.425
141.116
137.564
133.781
129.782
125.583
121.2
116.65
111.951
107.123
102.184
97.154
92.053
86.9
81.715
76.518
71.328
66.162
61.039
55.976
50.989
46.094
41.305
36.637
32.103
27.715
23.484
19.419
15.531
11.825
8.311
4.992
1.873
-1.042
-3.751
-6.253
-8.548
-10.637
-12.522
-14.206
-15.693
-16.989
-18.098
-19.028
-19.786
-20.379
-20.816
-21.106
-21.259
-21.283
-21.189
-20.987
-20.686
-20.298
-19.831
-19.297
-18.705
-18.064
-17.383
-16.673
-15.942
-15.197
-14.447
-13.7
-12.962
-12.239
-11.537
-10.863
-10.219
-9.611
-9.043
-8.516
-8.034
-7.598
-7.211
-6.873
-6.584
-6.345
-6.155
-6.013
-5.919
-5.87
-5.865
-5.903
-5.98
-6.096
-6.247
-6.431
-6.646
-6.89
-7.16
-7.455
-7.771
-8.107
-8.46
-8.83
-9.215
-9.612
-10.022
-10.444
-10.876
-11.319
-11.771
-12.232
-12.702
-13.179
-13.664
-14.155
-14.654
-15.16
-15.672
-16.191
-16.717
-17.249
-17.787
-18.332
-18.882
-19.436
-19.994
-20.555
-21.117
-21.678
-22.238
-22.792
-23.341
-23.881
-24.41
-24.925
-25.422
-25.897
-26.345
-26.763
-27.146
-27.489
-27.79
-28.044
-28.25
-28.404
-28.505
-28.55
-28.537
-28.465
-28.333
-28.139
-27.884
-27.566
-27.187
-26.746
-26.248
-25.695
-25.089
-24.434
-23.734
-22.994
-22.223
-21.424
-20.601
-19.759
-18.904
-18.043
-17.184
-16.333
-15.496
-14.678
-13.889
-13.139
-12.436
-11.782
-11.18
-10.631
-10.135
-9.697
-9.318
-8.998
-8.733
-8.523
-8.374
-8.297
-8.306
-8.401
-8.571
-8.793
-9.051
-9.335
-9.627
-9.9
-10.125
-10.275
-10.344
-10.34
-10.262
-10.098
-9.834
-9.431
-8.853
-8.098
-7.185
-6.163
-5.095
-4.042
-3.084
-2.337
-1.91
-1.899
-2.351
-3.253
-4.617
-6.446
-8.699
-11.388
-14.508
-18.01
-21.866
-25.947
-30.023
-33.87
-37.183
-39.591
-40.803
-40.45
-38.16
-33.905
-27.824
-20.307
-12.124
-3.803
4.347
11.76
18.007
23.221
27.968
33.609
41.908
53.814
69.725
90.065
114.704
142.304
170.011
193.474
208.175
210.548
197.827
167.374
116.984
46.583
-40.874
-140.168
-245.603
-351.723
-453.572
-545.55
-620.963
-674.973
-705.893
-714.501
-702.729
-672.854
-626.861
-568.022
-502.226
-435.089
-370.719
-311.421
-258.071
-211.399
-172.779
-142.989
-120.533
-103.038
-88.051
-74.136
-61.222
-49.297
-37.688
-25.462
-12.573
0.099
11.032
19.2
24.616
27.607
28.422
27.01
23.385
18.09
12.188
6.634
1.949
-1.648
-4.156
-5.497
-5.5
-4.142
-1.564
2.028
6.409
11.424
16.997
23.02
29.345
35.788
42.109
48.115
53.684
58.737
63.238
67.171
70.512
73.266
75.481
77.222
78.564
79.575
80.302
80.801
81.142
81.413
81.719
82.14
82.724
83.508
84.513
85.753
87.244
88.984
90.955
93.137
95.518
98.086
100.837
103.762
106.839
110.048
113.364
116.765
120.234
123.753
127.301
130.859
134.407
137.93
141.415
144.843
148.194
151.447
154.578
157.566
160.39
163.028
165.459
167.664
169.625
171.325
172.753
173.895
174.739
175.276
175.498
175.4
174.977
174.225
173.146
171.738
170.005
167.952
165.585
162.913
159.943
156.688
153.159
149.371
145.338
141.076
136.602
131.934
127.092
122.094
116.962
111.715
106.376
100.965
95.504
90.013
84.514
79.026
73.569
68.161
62.821
57.565
52.409
47.368
42.458
37.69
33.077
28.63
24.358
20.27
16.373
12.672
9.174
5.881
2.796
-0.08
-2.747
-5.205
-7.456
-9.504
-11.352
-13.004
-14.468
-15.748
-16.852
-17.788
-18.564
-19.189
-19.67
-20.019
-20.244
-20.354
-20.36
-20.271
-20.095
-19.844
-19.525
-19.148
-18.721
-18.252
-17.75
-17.222
-16.675
-16.116
-15.551
-14.986
-14.426
-13.875
-13.339
-12.821
-12.323
-11.85
-11.403
-10.984
-10.596
-10.24
-9.917
-9.627
-9.371
-9.15
-8.963
-8.811
-8.692
-8.608
-8.557
-8.54
-8.556
-8.604
-8.685
-8.799
-8.943
-9.119
-9.325
-9.559
-9.823
-10.113
-10.431
-10.774
-11.143
-11.536
-11.952
-12.391
-12.852
-13.333
-13.833
-14.349
-14.881
-15.427
-15.983
-16.549
-17.12
-17.694
-18.269
-18.841
-19.408
-19.966
-20.509
-21.033
-21.533
-22.006
-22.444
-22.844
-23.201
-23.512
-23.772
-23.979
-24.131
-24.224
-24.255
-24.224
-24.127
-23.965
-23.736
-23.439
-23.074
-22.642
-22.147
-21.59
-20.975
-20.305
-19.584
-18.82
-18.018
-17.185
-16.325
-15.441
-14.541
-13.633
-12.725
-11.823
-10.935
-10.066
-9.227
-8.43
-7.682
-6.989
-6.353
-5.776
-5.26
-4.81
-4.429
-4.118
-3.872
-3.692
-3.584
-3.56
-3.636
-3.811
-4.073
-4.401
-4.779
-5.194
-5.63
-6.057
-6.445
-6.769
-7.018
-7.203
-7.322
-7.366
-7.32
-7.147
-6.81
-6.304
-5.646
-4.88
-4.063
-3.25
-2.518
-1.976
-1.732
-1.879
-2.466
-3.481
-4.927
-6.801
-9.055
-11.689
-14.702
-18.053
-21.71
-25.551
-29.36
-32.928
-35.978
-38.171
-39.212
-38.735
-36.368
-32.075
-26.005
-18.548
-10.449
-2.222
5.864
13.302
19.681
25.124
30.172
36.111
44.653
56.72
72.581
92.501
116.245
142.473
168.57
190.556
204.192
206.141
193.828
164.847
117.339
51.452
-30.064
-122.498
-220.645
-319.393
-413.767
-498.177
-566.451
-614.573
-641.534
-648.237
-636.555
-608.948
-568.157
-518.328
-465.301
-413.469
-365.173
-321.621
-282.982
-249.133
-220.087
-194.833
-171.1
-147.468
-123.465
-99.132
-75.318
-52.76
-31.806
-13.12
2.405
14.333
22.545
27.206
28.931
28.275
25.712
21.825
17.101
11.966
6.845
2.061
-2.117
-5.446
-7.784
-9.04
-9.139
-8.071
-5.856
-2.553
1.688
6.703
12.331
18.38
24.703
31.14
37.487
43.586
49.301
54.529
59.23
63.384
66.962
69.973
72.45
74.437
76.012
77.25
78.205
78.951
79.558
80.104
80.684
81.369
82.208
83.238
84.481
85.951
87.664
89.619
91.801
94.198
96.793
99.575
102.537
105.665
108.941
112.341
115.841
119.419
123.056
126.733
130.431
134.128
137.807
141.448
145.039
148.562
151.993
155.311
158.494
161.517
164.361
167.004
169.423
171.599
173.514
175.153
176.5
177.545
178.275
178.681
178.754
178.489
177.883
176.932
175.637
173.998
172.02
169.708
167.069
164.113
160.85
157.291
153.45
149.342
144.983
140.391
135.582
130.577
125.397
120.061
114.592
109.012
103.343
97.608
91.829
86.028
80.229
74.45
68.714
63.04
57.446
51.951
46.572
41.325
36.225
31.285
26.518
21.935
17.548
13.363
9.389
5.631
2.095
-1.216
-4.3
-7.155
-9.781
-12.18
-14.354
-16.306
-18.04
-19.561
-20.877
-21.994
-22.919
-23.661
-24.23
-24.633
-24.882
-24.986
-24.955
-24.8
-24.532
-24.16
-23.696
-23.15
-22.532
-21.851
-21.119
-20.343
-19.532
-18.696
-17.843
-16.979
-16.112
-15.25
-14.397
-13.56
-12.744
-11.954
-11.195
-10.468
-9.779
-9.13
-8.522
-7.959
-7.441
-6.97
-6.546
-6.171
-5.845
-5.568
-5.34
-5.16
-5.03
-4.946
-4.91
-4.921
-4.977
-5.078
-5.224
-5.413
-5.645
-5.919
-6.234
-6.587
-6.979
-7.407
-7.871
-8.367
-8.895
-9.453
-10.04
-10.654
-11.293
-11.955
-12.64
-13.343
-14.064
-14.799
-15.545
-16.3
-17.059
-17.82
-18.578
-19.331
-20.075
-20.805
-21.519
-22.211
-22.876
-23.51
-24.108
-24.664
-25.173
-25.631
-26.035
-26.38
-26.666
-26.888
-27.046
-27.137
-27.16
-27.114
-26.998
-26.812
-26.554
-26.225
-25.827
-25.363
-24.835
-24.246
-23.603
-22.908
-22.17
-21.395
-20.591
-19.761
-18.912
-18.049
-17.178
-16.309
-15.446
-14.595
-13.762
-12.957
-12.187
-11.463
-10.791
-10.173
-9.613
-9.111
-8.671
-8.295
-7.984
-7.732
-7.542
-7.415
-7.36
-7.397
-7.529
-7.751
-8.048
-8.396
-8.771
-9.154
-9.516
-9.818
-10.036
-10.146
-10.147
-10.051
-9.859
-9.572
-9.168
-8.601
-7.857
-6.948
-5.909
-4.818
-3.753
-2.791
-2.046
-1.652
-1.714
-2.316
-3.486
-5.196
-7.415
-10.073
-13.139
-16.624
-20.502
-24.74
-29.217
-33.697
-37.943
-41.671
-44.536
-46.2
-46.265
-44.302
-40.213
-34.183
-26.653
-18.411
-10.023
-1.762
5.86
12.414
18.031
23.296
29.565
38.653
51.568
68.602
90.063
115.727
144.154
172.582
196.796
212.261
215.448
203.652
174.298
125.389
57.047
-27.929
-124.525
-227.031
-330.121
-428.809
-517.438
-589.867
-641.822
-671.661
-680.179
-669.616
-642.302
-600.583
-548.162
-490.03
-430.813
-374.348
-322.593
-275.851
-234.585
-199.371
-170.078
-146.062
-125.939
-107.516
-89.819
-73.129
-57.513
-43.089
-29.807
-17.048
-5.068
4.842
12.096
16.692
18.774
18.977
17.651
14.553
10.0
4.856
-0.24
-4.656
-8.005
-10.359
-11.663
-11.721
-10.513
-8.103
-4.601
-0.262
4.725
10.268
16.217
22.454
28.829
35.114
41.137
46.763
51.887
56.472
60.499
63.938
66.795
69.099
70.895
72.264
73.279
73.991
74.466
74.765
74.963
75.16
75.431
75.826
76.384
77.125
78.062
79.213
80.579
82.146
83.902
85.833
87.926
90.18
92.583
95.12
97.772
100.515
103.33
106.203
109.119
112.059
115.009
117.952
120.875
123.767
126.613
129.396
132.096
134.693
137.169
139.505
141.683
143.683
145.488
147.083
148.455
149.591
150.481
151.113
151.48
151.573
151.388
150.921
150.169
149.13
147.806
146.198
144.312
142.151
139.725
137.039
134.103
130.929
127.527
123.912
120.096
116.095
111.925
107.602
103.143
98.568
93.894
89.139
84.323
79.464
74.581
69.692
64.816
59.968
55.167
50.427
45.764
41.193
36.727
32.379
28.161
24.084
20.158
16.391
12.792
9.366
6.121
3.06
0.186
-2.496
-4.987
-7.286
-9.392
-11.309
-13.037
-14.581
-15.944
-17.131
-18.148
-19.0
-19.695
-20.239
-20.639
-20.905
-21.043
-21.063
-20.973
-20.781
-20.496
-20.127
-19.682
-19.169
-18.598
-17.975
-17.309
-16.608
-15.878
-15.127
-14.361
-13.587
-12.81
-12.036
-11.27
-10.516
-9.779
-9.061
-8.366
-7.697
-7.057
-6.449
-5.873
-5.333
-4.829
-4.363
-3.935
-3.548
-3.201
-2.894
-2.629
-2.405
-2.222
-2.082
-1.984
-1.929
-1.916
-1.946
-2.017
-2.13
-2.284
-2.476
-2.708
-2.976
-3.282
-3.623
-3.999
-4.408
-4.849
-5.322
-5.824
-6.354
-6.909
-7.487
-8.086
-8.702
-9.333
-9.976
-10.626
-11.281
-11.938
-12.593
-13.242
-13.881
-14.503
-15.103
-15.677
-16.219
-16.722
-17.183
-17.596
-17.959
-18.268
-18.52
-18.713
-18.844
-18.911
-18.911
-18.845
-18.71
-18.505
-18.229
-17.885
-17.474
-16.999
-16.464
-15.872
-15.227
-14.535
-13.803
-13.039
-12.245
-11.427
-10.589
-9.737
-8.881
-8.028
-7.181
-6.348
-5.538
-4.761
-4.03
-3.35
-2.725
-2.155
-1.644
-1.192
-0.805
-0.48
-0.212
-0.004
0.143
0.217
0.195
0.073
-0.139
-0.427
-0.763
-1.127
-1.504
-1.862
-2.159
-2.375
-2.491
-2.514
-2.47
-2.35
-2.133
-1.798
-1.287
-0.577
0.312
1.365
2.523
3.696
4.809
5.739
6.324
6.483
6.145
5.289
3.962
2.16
-0.109
-2.815
-5.981
-9.615
-13.681
-18.119
-22.76
-27.315
-31.498
-34.951
-37.29
-38.173
-37.167
-34.095
-29.11
-22.522
-14.984
-7.106
0.89
8.597
15.376
21.274
26.767
32.859
41.5
53.974
70.493
91.521
117.418
147.154
178.677
208.28
230.639
241.612
238.355
217.884
177.541
116.348
35.372
-61.356
-167.42
-277.048
-385.073
-485.925
-573.557
-642.372
-688.652
-711.562
-712.912
-694.882
-659.702
-610.088
-549.936
-484.484
-418.707
-356.292
-298.933
-247.463
-202.733
-165.742
-136.971
-115.213
-98.296
-83.906
-70.856
-58.976
-48.106
-37.611
-26.512
-14.642
-2.86
7.359
15.054
20.186
23.048
23.867
22.517
18.986
13.825
8.089
2.742
-1.694
-5.021
-7.255
-8.322
-8.064
-6.467
-3.682
0.068
4.555
9.628
15.219
21.239
27.545
33.956
40.237
46.193
51.708
56.706
61.155
65.039
68.334
71.049
73.232
74.952
76.285
77.296
78.028
78.531
78.874
79.138
79.426
79.813
80.346
81.059
81.971
83.096
84.449
86.028
87.812
89.783
91.926
94.23
96.69
99.297
102.032
104.873
107.798
110.787
113.825
116.894
119.976
123.053
126.109
129.128
132.1
135.009
137.837
140.564
143.17
145.637
147.946
150.078
152.015
153.74
155.238
156.496
157.502
158.246
158.719
158.912
158.821
158.441
157.769
156.805
155.548
154.0
152.165
150.049
147.658
145.0
142.085
138.921
135.522
131.9
128.07
124.045
119.843
115.478
110.969
106.333
101.59
96.757
91.854
86.899
81.912
76.912
71.917
66.944
62.011
57.134
52.329
47.611
42.994
38.491
34.114
29.875
25.784
21.85
18.082
14.486
11.069
7.836
4.791
1.936
-0.726
-3.194
-5.468
-7.55
-9.44
-11.143
-12.661
-13.999
-15.162
-16.156
-16.987
-17.663
-18.191
-18.58
-18.837
-18.971
-18.99
-18.904
-18.722
-18.452
-18.104
-17.685
-17.205
-16.672
-16.094
-15.478
-14.832
-14.164
-13.479
-12.784
-12.085
-11.388
-10.697
-10.018
-9.354
-8.71
-8.088
-7.493
-6.925
-6.388
-5.883
-5.411
-4.972
-4.569
-4.201
-3.868
-3.571
-3.308
-3.081
-2.887
-2.727
-2.599
-2.503
-2.438
-2.403
-2.397
-2.42
-2.471
-2.55
-2.656
-2.79
-2.95
-3.136
-3.347
-3.582
-3.841
-4.123
-4.427
-4.753
-5.1
-5.468
-5.855
-6.262
-6.688
-7.132
-7.592
-8.066
-8.554
-9.053
-9.562
-10.076
-10.596
-11.117
-11.638
-12.157
-12.67
-13.175
-13.667
-14.142
-14.596
-15.024
-15.421
-15.784
-16.107
-16.388
-16.624
-16.813
-16.952
-17.038
-17.07
-17.047
-16.965
-16.825
-16.623
-16.36
-16.036
-15.653
-15.212
-14.717
-14.17
-13.577
-12.941
-12.272
-11.573
-10.849
-10.105
-9.345
-8.573
-7.796
-7.019
-6.245
-5.48
-4.732
-4.009
-3.321
-2.677
-2.079
-1.532
-1.038
-0.599
-0.218
0.105
0.376
0.594
0.756
0.853
0.865
0.783
0.613
0.362
0.048
-0.299
-0.658
-0.995
-1.262
-1.435
-1.494
-1.434
-1.273
-1.016
-0.658
-0.191
0.421
1.209
2.165
3.278
4.511
5.762
6.945
7.94
8.586
8.773
8.417
7.461
5.912
3.801
1.166
-1.94
-5.501
-9.537
-14.031
-18.927
-24.075
-29.205
-34.035
-38.233
-41.438
-43.24
-43.152
-40.94
-36.655
-30.643
-23.578
-16.036
-8.258
-0.656
6.15
12.129
17.637
23.767
32.57
45.222
61.941
83.071
108.809
138.463
170.424
200.987
224.728
237.833
237.538
221.137
186.411
131.454
56.193
-35.626
-137.89
-245.508
-353.462
-456.769
-550.336
-627.429
-683.04
-716.035
-727.276
-718.048
-690.533
-646.624
-588.925
-523.33
-455.221
-388.057
-324.845
-267.291
-216.146
-173.138
-139.678
-114.387
-95.638
-81.83
-70.569
-60.914
-52.695
-44.737
-35.809
-25.854
-15.004
-4.072
5.222
12.284
17.205
19.793
20.019
18.021
13.967
8.596
3.131
-1.685
-5.48
-8.027
-9.344
-9.376
-8.024
-5.379
-1.678
2.848
8.0
13.645
19.71
26.081
32.582
38.987
45.086
50.74
55.865
60.424
64.405
67.785
70.566
72.795
74.533
75.854
76.827
77.497
77.916
78.152
78.287
78.424
78.647
79.008
79.544
80.28
81.229
82.406
83.812
85.428
87.235
89.223
91.379
93.702
96.182
98.803
101.544
104.382
107.298
110.274
113.296
116.343
119.399
122.446
125.473
128.466
131.412
134.291
137.085
139.773
142.335
144.755
147.011
149.085
150.96
152.619
154.05
155.239
156.176
156.851
157.254
157.38
157.222
156.777
156.042
155.018
153.703
152.102
150.217
148.056
145.625
142.932
139.986
136.799
133.382
129.749
125.913
121.89
117.694
113.344
108.856
104.248
99.538
94.744
89.886
84.982
80.051
75.111
70.179
65.273
60.408
55.602
50.869
46.223
41.679
37.248
32.942
28.773
24.75
20.882
17.178
13.642
10.282
7.102
4.106
1.296
-1.325
-3.758
-6.002
-8.059
-9.93
-11.619
-13.128
-14.464
-15.629
-16.632
-17.477
-18.172
-18.724
-19.141
-19.431
-19.603
-19.664
-19.624
-19.491
-19.274
-18.981
-18.621
-18.202
-17.733
-17.221
-16.673
-16.098
-15.501
-14.889
-14.269
-13.646
-13.026
-12.413
-11.813
-11.228
-10.664
-10.122
-9.606
-9.119
-8.662
-8.237
-7.845
-7.487
-7.164
-6.875
-6.622
-6.404
-6.22
-6.071
-5.955
-5.872
-5.821
-5.802
-5.812
-5.852
-5.921
-6.017
-6.14
-6.29
-6.465
-6.666
-6.892
-7.143
-7.417
-7.713
-8.032
-8.372
-8.732
-9.113
-9.513
-9.931
-10.368
-10.822
-11.293
-11.779
-12.281
-12.796
-13.322
-13.859
-14.404
-14.956
-15.511
-16.068
-16.624
-17.177
-17.724
-18.262
-18.788
-19.297
-19.785
-20.248
-20.682
-21.081
-21.443
-21.762
-22.037
-22.264
-22.44
-22.564
-22.633
-22.645
-22.599
-22.493
-22.325
-22.095
-21.803
-21.449
-21.035
-20.563
-20.036
-19.457
-18.83
-18.161
-17.456
-16.72
-15.958
-15.172
-14.369
-13.552
-12.73
-11.907
-11.088
-10.278
-9.485
-8.717
-7.985
-7.294
-6.648
-6.048
-5.496
-4.993
-4.545
-4.151
-3.807
-3.514
-3.272
-3.092
-2.995
-2.986
-3.057
-3.192
-3.367
-3.56
-3.758
-3.932
-4.046
-4.078
-4.007
-3.834
-3.58
-3.241
-2.813
-2.276
-1.575
-0.7
0.332
1.488
2.693
3.868
4.946
5.815
6.338
6.422
5.988
5.005
3.513
1.52
-0.94
-3.841
-7.209
-11.033
-15.261
-19.798
-24.43
-28.891
-32.932
-36.217
-38.399
-39.129
-37.958
-34.715
-29.56
-22.825
-15.184
-7.238
0.812
8.533
15.245
20.933
26.008
31.503
39.409
51.027
66.595
86.577
111.33
139.853
170.116
198.414
219.462
229.131
224.552
202.757
161.094
98.568
16.381
-81.355
-188.408
-299.09
-408.312
-510.626
-599.663
-669.456
-716.416
-739.782
-740.94
-721.875
-684.354
-630.534
-565.103
-494.173
-422.786
-354.836
-292.522
-236.872
-189.596
-152.679
-125.694
-106.494
-92.696
-81.519
-71.552
-62.658
-53.921
-43.896
-32.206
-19.25
-6.104
5.314
14.099
20.393
24.157
25.314
23.953
20.227
14.816
8.998
3.657
-0.793
-4.09
-6.223
-7.143
-6.694
-4.894
-1.944
1.947
6.567
11.752
17.438
23.535
29.9
36.351
42.655
48.615
54.117
59.096
63.528
67.39
70.652
73.319
75.437
77.081
78.331
79.251
79.883
80.281
80.515
80.672
80.857
81.146
81.584
82.203
83.021
84.056
85.323
86.823
88.534
90.439
92.524
94.778
97.201
99.781
102.499
105.332
108.258
111.257
114.316
117.415
120.537
123.665
126.781
129.872
132.927
135.929
138.86
141.701
144.431
147.031
149.482
151.766
153.863
155.755
157.427
158.865
160.058
160.994
161.664
162.057
162.168
161.992
161.525
160.764
159.709
158.361
156.722
154.798
152.594
150.117
147.376
144.381
141.142
137.673
133.986
130.097
126.019
121.769
117.365
112.825
108.166
103.407
98.567
93.665
88.721
83.753
78.78
73.819
68.889
64.005
59.184
54.442
49.792
45.249
40.826
36.534
32.385
28.387
24.551
20.884
17.392
14.082
10.957
8.021
5.276
2.725
0.367
-1.799
-3.773
-5.558
-7.159
-8.578
-9.821
-10.894
-11.803
-12.556
-13.159
-13.621
-13.95
-14.155
-14.244
-14.227
-14.112
-13.908
-13.625
-13.272
-12.856
-12.387
-11.874
-11.323
-10.743
-10.141
-9.525
-8.9
-8.272
-7.648
-7.032
-6.429
-5.844
-5.281
-4.743
-4.232
-3.753
-3.306
-2.893
-2.517
-2.177
-1.875
-1.61
-1.382
-1.192
-1.038
-0.92
-0.837
-0.789
-0.773
-0.79
-0.838
-0.916
-1.022
-1.156
-1.316
-1.502
-1.711
-1.944
-2.2
-2.479
-2.78
-3.102
-3.446
-3.811
-4.195
-4.6
-5.022
-5.462
-5.92
-6.395
-6.885
-7.391
-7.912
-8.447
-8.995
-9.557
-10.129
-10.711
-11.301
-11.898
-12.499
-13.102
-13.706
-14.307
-14.903
-15.492
-16.072
-16.64
-17.192
-17.723
-18.23
-18.708
-19.154
-19.562
-19.928
-20.249
-20.523
-20.747
-20.92
-21.038
-21.101
-21.108
-21.056
-20.945
-20.775
-20.545
-20.255
-19.906
-19.501
-19.044
-18.537
-17.984
-17.388
-16.755
-16.093
-15.406
-14.698
-13.973
-13.233
-12.486
-11.737
-10.993
-10.257
-9.534
-8.832
-8.16
-7.529
-6.944
-6.406
-5.916
-5.474
-5.081
-4.741
-4.451
-4.205
-4.003
-3.847
-3.749
-3.729
-3.791
-3.926
-4.12
-4.346
-4.584
-4.821
-5.025
-5.155
-5.195
-5.126
-4.954
-4.71
-4.381
-3.951
-3.399
-2.67
-1.743
-0.636
0.632
2.004
3.387
4.709
5.845
6.638
7.006
6.874
6.212
5.066
3.426
1.294
-1.3
-4.389
-7.984
-12.05
-16.529
-21.251
-25.926
-30.277
-33.951
-36.566
-37.777
-37.141
-34.464
-29.895
-23.739
-16.638
-9.203
-1.645
5.63
11.951
17.35
22.3
27.814
35.89
47.863
63.984
84.78
110.67
140.644
172.64
202.889
225.964
237.622
234.893
214.643
174.062
112.03
29.646
-68.917
-177.275
-289.613
-400.718
-505.01
-595.974
-667.459
-715.72
-739.95
-741.564
-722.599
-684.867
-630.549
-564.407
-492.683
-420.534
-351.969
-289.249
-233.406
-186.176
-149.573
-123.146
-104.685
-91.738
-81.424
-72.269
-64.116
-56.009
-46.472
-35.124
-22.38
-9.339
2.032
10.803
17.11
20.898
22.079
20.74
17.029
11.632
5.839
0.538
-3.859
-7.092
-9.154
-9.997
-9.466
-7.587
-4.562
-0.607
4.068
9.298
15.018
21.139
27.52
33.981
40.289
46.254
51.76
56.743
61.181
65.05
68.323
71.002
73.136
74.797
76.067
77.01
77.67
78.098
78.365
78.558
78.78
79.108
79.585
80.243
81.101
82.175
83.483
85.024
86.779
88.729
90.86
93.164
95.638
98.271
101.043
103.933
106.918
109.979
113.101
116.267
119.457
122.654
125.842
129.005
132.133
135.208
138.211
141.122
143.921
146.587
149.1
151.442
153.592
155.531
157.243
158.715
159.932
160.884
161.558
161.946
162.04
161.833
161.323
160.506
159.379
157.945
156.205
154.165
151.829
149.205
146.301
143.127
139.695
136.016
132.105
127.977
123.648
119.133
114.452
109.624
104.666
99.6
94.445
89.221
83.948
78.648
73.34
68.044
62.777
57.559
52.407
47.339
42.37
37.516
32.79
28.207
23.779
19.517
15.432
11.531
7.823
4.314
1.01
-2.085
-4.967
-7.637
-10.091
-12.332
-14.361
-16.179
-17.792
-19.203
-20.418
-21.444
-22.287
-22.956
-23.459
-23.805
-24.004
-24.066
-24.0
-23.818
-23.53
-23.146
-22.677
-22.134
-21.526
-20.866
-20.161
-19.423
-18.66
-17.882
-17.096
-16.31
-15.532
-14.769
-14.027
-13.311
-12.627
-11.978
-11.37
-10.805
-10.286
-9.815
-9.394
-9.024
-8.705
-8.438
-8.223
-8.058
-7.942
-7.875
-7.855
-7.88
-7.947
-8.055
-8.202
-8.385
-8.602
-8.85
-9.126
-9.428
-9.754
-10.102
-10.47
-10.855
-11.257
-11.674
-12.105
-12.547
-13.0
-13.463
-13.933
-14.409
-14.892
-15.379
-15.87
-16.365
-16.861
-17.36
-17.861
-18.362
-18.863
-19.362
-19.858
-20.35
-20.836
-21.315
-21.785
-22.243
-22.688
-23.119
-23.534
-23.93
-24.304
-24.653
-24.974
-25.262
-25.513
-25.725
-25.893
-26.014
-26.086
-26.108
-26.076
-25.991
-25.849
-25.65
-25.392
-25.075
-24.699
-24.262
-23.765
-23.21
-22.598
-21.934
-21.222
-20.463
-19.663
-18.828
-17.964
-17.078
-16.173
-15.255
-14.325
-13.392
-12.463
-11.543
-10.637
-9.751
-8.892
-8.071
-7.299
-6.58
-5.918
-5.315
-4.77
-4.287
-3.868
-3.512
-3.214
-2.975
-2.797
-2.69
-2.677
-2.762
-2.934
-3.182
-3.477
-3.801
-4.14
-4.463
-4.728
-4.917
-5.01
-5.014
-4.956
-4.826
-4.606
-4.274
-3.776
-3.09
-2.234
-1.224
-0.113
1.012
2.082
2.977
3.543
3.697
3.37
2.538
1.248
-0.506
-2.716
-5.351
-8.436
-11.977
-15.939
-20.271
-24.81
-29.284
-33.424
-36.885
-39.297
-40.319
-39.519
-36.725
-32.079
-25.889
-18.801
-11.422
-3.976
3.127
9.257
14.471
19.254
24.634
32.578
44.405
60.383
80.988
106.581
136.14
167.601
197.314
220.014
231.521
228.961
209.311
169.882
109.778
30.184
-64.949
-169.267
-276.89
-382.649
-480.658
-564.591
-629.157
-670.99
-689.544
-687.034
-666.03
-628.958
-579.511
-522.441
-462.651
-404.744
-351.504
-303.491
-260.92
-224.165
-192.8
-166.075
-142.846
-121.026
-99.495
-78.518
-58.43
-39.579
-22.429
-6.907
6.974
18.207
26.243
31.209
33.294
33.091
31.213
27.8
23.007
17.527
11.993
6.903
2.726
-0.445
-2.601
-3.595
-3.325
-1.813
0.873
4.584
9.106
14.307
20.068
26.236
32.67
39.181
45.543
51.579
57.166
62.225
66.723
70.641
73.959
76.688
78.877
80.594
81.918
82.916
83.64
84.151
84.518
84.827
85.175
85.635
86.254
87.066
88.091
89.346
90.845
92.586
94.549
96.718
99.078
101.619
104.334
107.213
110.237
113.384
116.63
119.957
123.348
126.783
130.244
133.712
137.168
140.597
143.985
147.314
150.566
153.717
156.747
159.634
162.359
164.9
167.236
169.349
171.221
172.837
174.183
175.248
176.019
176.487
176.644
176.485
176.005
175.2
174.07
172.615
170.838
168.743
166.337
163.625
160.618
157.326
153.759
149.932
145.86
141.556
137.039
132.325
127.432
122.382
117.192
111.883
106.477
100.993
95.453
89.877
84.287
78.702
73.141
67.622
62.165
56.786
51.502
46.328
41.278
36.368
31.608
27.011
22.586
18.344
14.292
10.437
6.785
3.34
0.105
-2.917
-5.725
-8.32
-10.702
-12.874
-14.839
-16.601
-18.164
-19.535
-20.72
-21.726
-22.56
-23.232
-23.75
-24.123
-24.36
-24.471
-24.465
-24.352
-24.142
-23.844
-23.469
-23.024
-22.521
-21.967
-21.373
-20.745
-20.093
-19.424
-18.745
-18.063
-17.385
-16.716
-16.062
-15.427
-14.816
-14.234
-13.684
-13.168
-12.691
-12.253
-11.858
-11.507
-11.201
-10.941
-10.728
-10.561
-10.442
-10.37
-10.346
-10.37
-10.44
-10.557
-10.719
-10.926
-11.176
-11.468
-11.8
-12.17
-12.576
-13.017
-13.491
-13.995
-14.527
-15.085
-15.668
-16.272
-16.896
-17.535
-18.187
-18.849
-19.518
-20.19
-20.861
-21.528
-22.188
-22.836
-23.47
-24.086
-24.678
-25.242
-25.774
-26.268
-26.719
-27.123
-27.476
-27.774
-28.013
-28.191
-28.305
-28.355
-28.337
-28.25
-28.094
-27.867
-27.57
-27.201
-26.762
-26.254
-25.68
-25.044
-24.349
-23.6
-22.801
-21.96
-21.083
-20.177
-19.248
-18.299
-17.338
-16.369
-15.402
-14.442
-13.494
-12.566
-11.664
-10.798
-9.978
-9.21
-8.499
-7.846
-7.254
-6.725
-6.265
-5.872
-5.544
-5.281
-5.084
-4.963
-4.937
-5.011
-5.177
-5.42
-5.716
-6.044
-6.386
-6.712
-6.985
-7.18
-7.274
-7.267
-7.175
-6.997
-6.729
-6.353
-5.817
-5.111
-4.249
-3.261
-2.22
-1.2
-0.274
0.442
0.811
0.734
0.129
-1.028
-2.7
-4.868
-7.48
-10.505
-13.959
-17.817
-22.046
-26.543
-31.102
-35.483
-39.409
-42.528
-44.476
-44.862
-43.263
-39.572
-33.975
-26.873
-19.001
-10.922
-2.94
4.424
10.73
16.124
21.238
27.408
36.41
49.254
66.29
87.93
114.009
143.154
172.637
198.203
215.346
220.497
210.748
183.298
135.972
68.675
-15.839
-112.52
-215.858
-320.417
-420.771
-510.887
-584.095
-635.925
-665.228
-673.001
-661.207
-632.497
-589.867
-537.703
-482.233
-428.171
-377.977
-332.936
-293.247
-258.728
-229.337
-203.966
-180.15
-156.345
-132.038
-107.23
-82.79
-59.494
-37.708
-18.169
-1.857
10.743
19.47
24.497
26.471
25.965
23.469
19.593
14.845
9.67
4.522
-0.283
-4.48
-7.822
-10.169
-11.42
-11.491
-10.37
-8.078
-4.672
-0.308
4.848
10.631
16.842
23.325
29.913
36.396
42.614
48.43
53.738
58.497
62.686
66.274
69.27
71.708
73.629
75.114
76.235
77.05
77.633
78.057
78.4
78.762
79.216
79.809
80.582
81.558
82.751
84.176
85.836
87.715
89.801
92.081
94.541
97.178
99.98
102.928
106.0
109.174
112.426
115.743
119.104
122.492
125.889
129.275
132.637
135.961
139.23
142.426
145.527
148.511
151.358
154.048
156.561
158.875
160.972
162.836
164.45
165.803
166.883
167.677
168.178
168.376
168.267
167.847
167.112
166.062
164.697
163.021
161.038
158.754
156.178
153.318
150.184
146.788
143.143
139.264
135.166
130.865
126.378
121.723
116.919
111.986
106.943
101.811
96.61
91.36
86.082
80.796
75.52
70.273
65.073
59.938
54.883
49.925
45.078
40.356
35.771
31.335
27.059
22.952
19.023
15.278
11.724
8.366
5.207
2.25
-0.504
-3.053
-5.398
-7.541
-9.484
-11.23
-12.783
-14.15
-15.334
-16.344
-17.185
-17.866
-18.395
-18.78
-19.03
-19.154
-19.161
-19.06
-18.862
-18.574
-18.206
-17.768
-17.269
-16.716
-16.118
-15.484
-14.822
-14.138
-13.439
-12.733
-12.026
-11.324
-10.631
-9.953
-9.295
-8.66
-8.053
-7.477
-6.933
-6.425
-5.955
-5.524
-5.133
-4.784
-4.477
-4.212
-3.991
-3.812
-3.676
-3.583
-3.531
-3.52
-3.55
-3.619
-3.728
-3.875
-4.059
-4.281
-4.538
-4.832
-5.16
-5.521
-5.914
-6.337
-6.79
-7.27
-7.777
-8.308
-8.863
-9.44
-10.037
-10.653
-11.286
-11.934
-12.594
-13.265
-13.942
-14.625
-15.309
-15.992
-16.67
-17.34
-18.0
-18.646
-19.274
-19.881
-20.462
-21.012
-21.527
-22.001
-22.43
-22.81
-23.136
-23.405
-23.614
-23.763
-23.848
-23.867
-23.818
-23.701
-23.514
-23.258
-22.931
-22.533
-22.066
-21.533
-20.937
-20.281
-19.57
-18.808
-18.001
-17.158
-16.284
-15.385
-14.464
-13.527
-12.579
-11.63
-10.685
-9.749
-8.829
-7.934
-7.073
-6.259
-5.499
-4.795
-4.151
-3.567
-3.046
-2.592
-2.203
-1.875
-1.609
-1.406
-1.278
-1.248
-1.321
-1.487
-1.733
-2.033
-2.366
-2.72
-3.064
-3.354
-3.573
-3.701
-3.744
-3.73
-3.65
-3.485
-3.212
-2.776
-2.153
-1.361
-0.415
0.634
1.702
2.724
3.579
4.112
4.239
3.893
3.047
1.747
-0.015
-2.242
-4.908
-8.039
-11.644
-15.689
-20.122
-24.792
-29.429
-33.768
-37.466
-40.146
-41.465
-40.994
-38.54
-34.219
-28.305
-21.394
-14.066
-6.547
0.744
7.163
12.724
17.867
23.573
31.775
43.785
59.89
80.634
106.471
136.483
168.755
199.656
223.822
237.058
236.399
218.696
181.183
122.679
43.952
-51.145
-156.286
-265.844
-374.582
-476.818
-566.666
-638.435
-688.257
-715.306
-720.974
-706.933
-675.424
-629.117
-571.41
-507.414
-441.716
-377.443
-317.037
-262.127
-213.585
-172.635
-140.237
-115.309
-96.492
-82.406
-71.014
-61.321
-53.04
-45.137
-36.469
-26.937
-16.65
-6.304
2.525
9.246
13.939
16.409
16.6
14.66
10.754
5.59
0.359
-4.226
-7.816
-10.182
-11.339
-11.233
-9.762
-7.022
-3.252
1.321
6.498
12.152
18.216
24.575
31.05
37.422
43.483
49.099
54.193
58.726
62.684
66.046
68.813
71.033
72.767
74.09
75.067
75.745
76.175
76.425
76.578
76.732
76.971
77.346
77.894
78.639
79.595
80.775
82.18
83.793
85.595
87.574
89.72
92.031
94.497
97.102
99.826
102.646
105.544
108.503
111.508
114.538
117.579
120.612
123.625
126.607
129.542
132.411
135.196
137.876
140.432
142.845
145.095
147.164
149.034
150.688
152.114
153.299
154.232
154.903
155.304
155.427
155.268
154.824
154.091
153.07
151.761
150.167
148.294
146.146
143.731
141.058
138.136
134.977
131.593
127.998
124.206
120.232
116.092
111.804
107.385
102.854
98.229
93.529
88.773
83.98
79.169
74.358
69.565
64.807
60.1
55.46
50.902
46.439
42.085
37.852
33.751
29.792
25.984
22.336
18.855
15.545
12.413
9.462
6.695
4.113
1.717
-0.492
-2.517
-4.358
-6.02
-7.506
-8.821
-9.969
-10.959
-11.795
-12.485
-13.038
-13.46
-13.762
-13.95
-14.034
-14.022
-13.924
-13.747
-13.502
-13.195
-12.836
-12.432
-11.991
-11.521
-11.028
-10.519
-10.0
-9.477
-8.956
-8.441
-7.938
-7.449
-6.981
-6.534
-6.113
-5.719
-5.355
-5.022
-4.721
-4.453
-4.217
-4.015
-3.846
-3.709
-3.605
-3.531
-3.489
-3.476
-3.493
-3.536
-3.607
-3.703
-3.823
-3.967
-4.134
-4.324
-4.535
-4.768
-5.022
-5.297
-5.592
-5.906
-6.238
-6.589
-6.956
-7.34
-7.741
-8.157
-8.588
-9.035
-9.497
-9.974
-10.464
-10.967
-11.482
-12.007
-12.542
-13.083
-13.629
-14.178
-14.728
-15.277
-15.823
-16.362
-16.893
-17.41
-17.91
-18.389
-18.843
-19.266
-19.654
-20.004
-20.313
-20.577
-20.795
-20.963
-21.081
-21.144
-21.154
-21.106
-21.0
-20.833
-20.606
-20.317
-19.969
-19.562
-19.1
-18.585
-18.021
-17.412
-16.765
-16.086
-15.378
-14.646
-13.893
-13.124
-12.345
-11.56
-10.774
-9.992
-9.22
-8.467
-7.744
-7.057
-6.41
-5.808
-5.252
-4.744
-4.286
-3.88
-3.518
-3.204
-2.94
-2.735
-2.61
-2.575
-2.624
-2.751
-2.938
-3.155
-3.381
-3.581
-3.713
-3.752
-3.678
-3.486
-3.193
-2.803
-2.312
-1.711
-0.962
-0.035
1.062
2.313
3.674
5.039
6.315
7.381
8.077
8.293
7.951
6.989
5.418
3.263
0.562
-2.637
-6.321
-10.509
-15.173
-20.249
-25.575
-30.857
-35.798
-40.056
-43.254
-45.009
-44.86
-42.569
-38.201
-32.078
-24.853
-17.136
-9.191
-1.436
5.479
11.546
17.182
23.357
31.993
44.41
60.893
81.958
108.039
138.179
170.406
201.112
224.987
237.852
236.793
218.678
180.67
121.566
42.158
-53.714
-159.694
-270.071
-379.683
-482.873
-573.462
-645.557
-695.069
-720.926
-724.798
-708.737
-674.903
-625.968
-565.83
-499.916
-433.424
-370.191
-312.027
-259.828
-214.462
-176.961
-147.799
-125.673
-108.342
-93.447
-79.753
-67.102
-55.363
-43.93
-31.89
-19.15
-6.588
4.304
12.547
18.115
21.298
22.333
21.139
17.727
12.653
6.977
1.656
-2.788
-6.141
-8.406
-9.506
-9.273
-7.689
-4.899
-1.119
3.428
8.585
14.28
20.41
26.825
33.341
39.719
45.762
51.351
56.408
60.896
64.801
68.096
70.789
72.926
74.575
75.812
76.703
77.294
77.641
77.813
77.898
77.999
78.196
78.537
79.057
79.778
80.715
81.883
83.282
84.893
86.699
88.687
90.847
93.177
95.666
98.297
101.049
103.899
106.829
109.822
112.861
115.929
119.007
122.078
125.13
128.149
131.121
134.025
136.844
139.556
142.14
144.579
146.852
148.94
150.825
152.49
153.922
155.109
156.038
156.701
157.086
157.188
157.002
156.523
155.749
154.68
153.315
151.659
149.715
147.489
144.989
142.223
139.201
135.934
132.435
128.718
124.796
120.686
116.404
111.968
107.396
102.705
97.917
93.048
88.12
83.152
78.163
73.173
68.199
63.259
58.37
53.55
48.814
44.176
39.652
35.252
30.991
26.879
22.926
19.141
15.532
12.105
8.867
5.821
2.972
0.321
-2.13
-4.382
-6.434
-8.288
-9.948
-11.417
-12.7
-13.802
-14.73
-15.489
-16.088
-16.535
-16.838
-17.006
-17.048
-16.974
-16.793
-16.516
-16.15
-15.707
-15.195
-14.624
-14.003
-13.34
-12.645
-11.925
-11.189
-10.442
-9.693
-8.947
-8.21
-7.489
-6.787
-6.108
-5.458
-4.839
-4.254
-3.705
-3.194
-2.724
-2.294
-1.905
-1.558
-1.251
-0.986
-0.759
-0.572
-0.421
-0.306
-0.225
-0.177
-0.16
-0.171
-0.211
-0.275
-0.364
-0.475
-0.607
-0.758
-0.927
-1.114
-1.317
-1.536
-1.77
-2.019
-2.283
-2.561
-2.853
-3.158
-3.476
-3.807
-4.15
-4.506
-4.874
-5.255
-5.647
-6.052
-6.47
-6.899
-7.339
-7.789
-8.248
-8.714
-9.188
-9.666
-10.146
-10.627
-11.106
-11.582
-12.052
-12.514
-12.963
-13.396
-13.808
-14.196
-14.554
-14.879
-15.166
-15.411
-15.612
-15.767
-15.872
-15.927
-15.928
-15.873
-15.762
-15.594
-15.366
-15.078
-14.73
-14.323
-13.858
-13.34
-12.77
-12.153
-11.491
-10.791
-10.059
-9.301
-8.521
-7.722
-6.908
-6.085
-5.261
-4.442
-3.632
-2.836
-2.063
-1.323
-0.625
0.023
0.621
1.167
1.66
2.099
2.479
2.803
3.076
3.297
3.463
3.563
3.575
3.494
3.33
3.097
2.82
2.52
2.211
1.924
1.701
1.558
1.514
1.563
1.676
1.864
2.145
2.539
3.103
3.857
4.785
5.869
7.049
8.232
9.345
10.262
10.826
10.955
10.575
9.659
8.254
6.354
3.967
1.123
-2.206
-6.035
-10.326
-15.02
-19.944
-24.8
-29.305
-33.1
-35.803
-37.07
-36.454
-33.774
-29.191
-23.033
-15.966
-8.606
-1.156
5.992
12.189
17.49
22.393
27.942
36.147
48.328
64.694
85.71
111.724
141.659
173.389
203.107
225.401
236.071
232.217
210.814
169.179
106.339
23.545
-74.936
-182.71
-293.971
-403.541
-505.917
-594.7
-663.932
-710.086
-732.505
-732.692
-712.747
-674.515
-620.197
-554.527
-483.604
-412.426
-344.874
-283.114
-228.124
-181.602
-145.509
-119.388
-101.096
-88.251
-78.034
-69.019
-61.051
-53.176
-43.929
-32.918
-20.519
-7.805
3.294
11.866
18.045
21.773
22.956
21.668
18.048
12.767
7.101
1.924
-2.356
-5.488
-7.468
-8.253
-7.694
-5.819
-2.832
1.053
5.625
10.725
16.292
22.244
28.443
34.716
40.835
46.615
51.943
56.759
61.043
64.773
67.923
70.499
72.55
74.148
75.377
76.299
76.956
77.4
77.698
77.935
78.212
78.604
79.151
79.886
80.826
81.986
83.382
85.014
86.86
88.903
91.126
93.521
96.082
98.8
101.653
104.619
107.675
110.802
113.983
117.202
120.438
123.673
126.891
130.076
133.216
136.294
139.292
142.188
144.964
147.597
150.071
152.365
154.46
156.339
157.985
159.385
160.528
161.402
161.997
162.304
162.317
162.031
161.443
160.552
159.356
157.857
156.059
153.967
151.588
148.929
145.999
142.809
139.371
135.698
131.803
127.702
123.411
118.946
114.326
109.57
104.695
99.721
94.668
89.556
84.404
79.231
74.058
68.901
63.78
58.711
53.711
48.797
43.982
39.282
34.708
30.275
25.993
21.872
17.922
14.15
10.563
7.168
3.968
0.967
-1.832
-4.427
-6.819
-9.008
-10.996
-12.785
-14.379
-15.784
-17.003
-18.043
-18.911
-19.614
-20.161
-20.559
-20.818
-20.947
-20.956
-20.853
-20.648
-20.352
-19.973
-19.522
-19.008
-18.44
-17.828
-17.179
-16.503
-15.807
-15.099
-14.385
-13.674
-12.97
-12.28
-11.608
-10.96
-10.339
-9.749
-9.193
-8.674
-8.194
-7.755
-7.357
-7.001
-6.689
-6.419
-6.191
-6.004
-5.857
-5.75
-5.681
-5.647
-5.649
-5.683
-5.748
-5.843
-5.965
-6.112
-6.283
-6.477
-6.69
-6.923
-7.174
-7.442
-7.726
-8.026
-8.34
-8.669
-9.01
-9.363
-9.728
-10.104
-10.49
-10.886
-11.291
-11.705
-12.128
-12.56
-13.001
-13.449
-13.905
-14.367
-14.834
-15.305
-15.779
-16.253
-16.727
-17.198
-17.665
-18.125
-18.577
-19.019
-19.446
-19.855
-20.242
-20.604
-20.937
-21.235
-21.496
-21.715
-21.891
-22.02
-22.102
-22.135
-22.115
-22.042
-21.915
-21.731
-21.491
-21.194
-20.839
-20.427
-19.961
-19.443
-18.877
-18.266
-17.612
-16.923
-16.206
-15.464
-14.703
-13.926
-13.136
-12.341
-11.547
-10.76
-9.983
-9.224
-8.489
-7.788
-7.133
-6.529
-5.977
-5.479
-5.036
-4.65
-4.323
-4.054
-3.836
-3.672
-3.562
-3.519
-3.563
-3.7
-3.917
-4.204
-4.533
-4.883
-5.244
-5.582
-5.858
-6.053
-6.148
-6.15
-6.087
-5.948
-5.713
-5.361
-4.835
-4.115
-3.218
-2.162
-1.0
0.183
1.316
2.279
2.915
3.142
2.891
2.137
0.924
-0.759
-2.914
-5.515
-8.59
-12.146
-16.148
-20.544
-25.177
-29.774
-34.066
-37.707
-40.316
-41.552
-40.988
-38.434
-34.013
-28.003
-21.002
-13.598
-6.026
1.289
7.684
13.165
18.176
23.692
31.637
43.333
59.074
79.429
104.9
134.592
166.576
197.215
221.134
234.093
233.084
214.898
176.675
117.2
37.276
-59.199
-165.82
-276.841
-386.91
-490.207
-580.694
-652.599
-702.048
-728.246
-732.665
-717.089
-683.869
-635.802
-576.417
-510.915
-443.941
-378.642
-317.44
-261.932
-212.965
-171.738
-139.194
-114.225
-95.428
-81.401
-70.104
-60.536
-52.408
-44.665
-36.119
-26.658
-16.408
-6.077
2.747
9.469
14.179
16.675
16.874
14.919
10.983
5.783
0.531
-4.057
-7.639
-9.989
-11.123
-10.991
-9.491
-6.724
-2.939
1.636
6.803
12.437
18.476
24.808
31.254
37.593
43.616
49.19
54.237
58.723
62.632
65.944
68.664
70.841
72.541
73.839
74.802
75.478
75.917
76.187
76.373
76.575
76.876
77.329
77.971
78.827
79.911
81.238
82.809
84.605
86.608
88.806
91.188
93.751
96.485
99.375
102.398
105.532
108.758
112.058
115.415
118.809
122.223
125.638
129.038
132.413
135.743
139.01
142.193
145.269
148.217
151.016
153.646
156.084
158.312
160.31
162.064
163.56
164.783
165.723
166.368
166.709
166.741
166.458
165.855
164.932
163.687
162.122
160.241
158.049
155.553
152.76
149.68
146.325
142.707
138.841
134.74
130.422
125.903
121.201
116.336
111.328
106.197
100.963
95.647
90.271
84.856
79.422
73.99
68.579
63.208
57.895
52.659
47.516
42.481
37.571
32.798
28.176
23.717
19.431
15.328
11.416
7.701
4.191
0.889
-2.202
-5.078
-7.74
-10.187
-12.421
-14.443
-16.258
-17.869
-19.281
-20.501
-21.535
-22.391
-23.076
-23.601
-23.973
-24.202
-24.298
-24.271
-24.13
-23.885
-23.547
-23.126
-22.632
-22.074
-21.461
-20.804
-20.111
-19.391
-18.651
-17.9
-17.144
-16.39
-15.645
-14.914
-14.201
-13.513
-12.852
-12.223
-11.629
-11.073
-10.557
-10.083
-9.654
-9.27
-8.933
-8.642
-8.399
-8.204
-8.057
-7.958
-7.907
-7.903
-7.947
-8.037
-8.172
-8.352
-8.574
-8.838
-9.142
-9.483
-9.86
-10.272
-10.717
-11.193
-11.698
-12.229
-12.786
-13.367
-13.967
-14.585
-15.219
-15.865
-16.521
-17.184
-17.849
-18.513
-19.174
-19.828
-20.471
-21.097
-21.704
-22.284
-22.834
-23.348
-23.822
-24.25
-24.628
-24.953
-25.221
-25.431
-25.58
-25.665
-25.685
-25.639
-25.525
-25.344
-25.094
-24.777
-24.392
-23.941
-23.429
-22.858
-22.231
-21.553
-20.828
-20.062
-19.264
-18.438
-17.589
-16.723
-15.846
-14.968
-14.095
-13.235
-12.394
-11.577
-10.795
-10.058
-9.373
-8.745
-8.174
-7.664
-7.215
-6.831
-6.515
-6.264
-6.075
-5.946
-5.882
-5.898
-6.007
-6.21
-6.494
-6.837
-7.223
-7.64
-8.068
-8.481
-8.844
-9.129
-9.327
-9.446
-9.487
-9.442
-9.29
-8.985
-8.486
-7.782
-6.894
-5.873
-4.781
-3.675
-2.638
-1.782
-1.225
-1.07
-1.36
-2.083
-3.228
-4.772
-6.702
-9.045
-11.83
-15.051
-18.639
-22.427
-26.182
-29.663
-32.58
-34.624
-35.409
-34.466
-31.608
-26.954
-20.826
-13.87
-6.636
0.684
7.721
13.884
19.177
24.036
29.463
37.338
48.979
64.673
84.791
109.622
138.15
168.343
196.807
218.614
229.582
226.8
207.217
168.084
108.839
31.001
-61.695
-163.299
-267.881
-370.081
-463.584
-541.554
-599.363
-634.785
-647.685
-640.253
-615.322
-575.786
-526.211
-472.615
-419.56
-369.997
-325.7
-286.797
-253.081
-224.499
-199.788
-176.607
-153.489
-129.758
-105.327
-81.04
-57.646
-35.566
-15.6
1.261
14.498
23.914
29.644
32.271
32.334
30.311
26.78
22.253
17.152
11.887
6.816
2.232
-1.599
-4.487
-6.324
-7.022
-6.534
-4.86
-2.044
1.791
6.482
11.854
17.742
24.003
30.496
37.052
43.476
49.598
55.299
60.512
65.207
69.355
72.936
75.956
78.459
80.513
82.197
83.573
84.697
85.627
86.43
87.185
87.981
88.882
89.93
91.155
92.573
94.202
96.055
98.129
100.407
102.87
105.505
108.3
111.25
114.342
117.556
120.869
124.258
127.704
131.191
134.699
138.209
141.701
145.159
148.565
151.908
155.17
158.329
161.367
164.262
166.993
169.541
171.886
174.007
175.887
177.509
178.859
179.925
180.695
181.158
181.306
181.132
180.631
179.799
178.635
177.137
175.308
173.152
170.674
167.881
164.783
161.387
157.708
153.756
149.547
145.096
140.419
135.534
130.459
125.214
119.819
114.295
108.663
102.944
97.16
91.333
85.485
79.635
73.806
68.016
62.285
56.631
51.073
45.626
40.307
35.131
30.111
25.261
20.591
16.111
11.832
7.759
3.901
0.262
-3.153
-6.342
-9.304
-12.036
-14.541
-16.82
-18.875
-20.712
-22.334
-23.747
-24.959
-25.976
-26.806
-27.459
-27.943
-28.268
-28.444
-28.481
-28.39
-28.182
-27.867
-27.457
-26.962
-26.392
-25.757
-25.069
-24.336
-23.568
-22.775
-21.964
-21.144
-20.323
-19.509
-18.708
-17.927
-17.172
-16.448
-15.76
-15.113
-14.51
-13.955
-13.451
-13.0
-12.606
-12.268
-11.99
-11.772
-11.614
-11.516
-11.477
-11.496
-11.573
-11.704
-11.889
-12.125
-12.41
-12.742
-13.118
-13.535
-13.99
-14.48
-15.001
-15.549
-16.121
-16.713
-17.32
-17.938
-18.563
-19.189
-19.813
-20.431
-21.038
-21.628
-22.196
-22.737
-23.246
-23.716
-24.144
-24.523
-24.85
-25.122
-25.335
-25.486
-25.575
-25.599
-25.557
-25.448
-25.27
-25.024
-24.711
-24.33
-23.882
-23.371
-22.799
-22.172
-21.491
-20.762
-19.991
-19.183
-18.347
-17.489
-16.614
-15.727
-14.836
-13.95
-13.076
-12.221
-11.391
-10.593
-9.836
-9.13
-8.484
-7.901
-7.382
-6.929
-6.545
-6.232
-5.992
-5.824
-5.724
-5.691
-5.729
-5.852
-6.075
-6.4
-6.813
-7.292
-7.821
-8.388
-8.974
-9.551
-10.084
-10.544
-10.921
-11.223
-11.452
-11.599
-11.645
-11.543
-11.251
-10.761
-10.089
-9.287
-8.412
-7.522
-6.698
-6.054
-5.71
-5.767
-6.271
-7.208
-8.57
-10.335
-12.486
-15.048
-18.043
-21.464
-25.25
-29.238
-33.202
-36.906
-40.058
-42.35
-43.402
-42.741
-40.176
-35.816
-29.97
-23.273
-16.283
-9.188
-2.367
3.588
8.725
13.499
18.932
26.943
38.81
54.77
75.186
100.298
129.056
159.474
188.056
209.784
220.718
218.136
199.208
161.463
104.079
28.192
-62.387
-161.72
-264.395
-365.403
-459.092
-539.35
-600.888
-640.664
-658.455
-656.175
-636.099
-600.844
-554.013
-500.542
-445.762
-393.482
-345.703
-303.055
-265.626
-233.373
-205.821
-181.528
-158.501
-135.56
-112.399
-89.362
-67.167
-46.354
-27.353
-10.821
2.46
12.11
18.156
20.931
21.038
19.034
15.41
10.696
5.435
0.109
-4.902
-9.292
-12.86
-15.463
-16.975
-17.326
-16.487
-14.467
-11.334
-7.205
-2.221
3.462
9.659
16.185
22.849
29.438
35.784
41.751
47.235
52.181
56.556
60.341
63.541
66.189
68.327
70.015
71.322
72.303
73.03
73.58
74.039
74.505
75.051
75.731
76.586
77.64
78.912
80.413
82.145
84.091
86.242
88.585
91.11
93.812
96.679
99.693
102.835
106.08
109.406
112.797
116.233
119.695
123.165
126.625
130.058
133.451
136.788
140.048
143.211
146.253
149.153
151.89
154.444
156.793
158.916
160.798
162.421
163.774
164.842
165.615
166.082
166.237
166.071
165.582
164.766
163.622
162.151
160.355
158.24
155.811
153.078
150.049
146.735
143.148
139.304
135.216
130.901
126.377
121.66
116.771
111.73
106.556
101.272
95.898
90.455
84.967
79.452
73.934
68.431
62.962
57.548
52.206
46.953
41.805
36.778
31.887
27.144
22.561
18.15
13.92
9.88
6.036
2.395
-1.038
-4.26
-7.268
-10.061
-12.638
-15.001
-17.151
-19.091
-20.824
-22.357
-23.693
-24.839
-25.803
-26.592
-27.213
-27.677
-27.99
-28.163
-28.206
-28.127
-27.937
-27.645
-27.262
-26.797
-26.26
-25.66
-25.006
-24.306
-23.57
-22.805
-22.019
-21.219
-20.413
-19.607
-18.807
-18.019
-17.249
-16.501
-15.781
-15.093
-14.439
-13.824
-13.251
-12.721
-12.238
-11.804
-11.42
-11.089
-10.81
-10.585
-10.413
-10.294
-10.228
-10.213
-10.249
-10.334
-10.467
-10.645
-10.869
-11.135
-11.442
-11.788
-12.171
-12.586
-13.033
-13.506
-14.003
-14.52
-15.052
-15.596
-16.148
-16.704
-17.26
-17.811
-18.354
-18.882
-19.391
-19.876
-20.33
-20.749
-21.127
-21.46
-21.745
-21.978
-22.158
-22.282
-22.348
-22.353
-22.297
-22.179
-21.997
-21.75
-21.437
-21.061
-20.622
-20.123
-19.568
-18.96
-18.304
-17.606
-16.873
-16.111
-15.327
-14.524
-13.709
-12.886
-12.063
-11.245
-10.437
-9.645
-8.877
-8.142
-7.449
-6.808
-6.222
-5.695
-5.23
-4.827
-4.49
-4.219
-4.007
-3.855
-3.767
-3.75
-3.823
-3.995
-4.261
-4.613
-5.032
-5.488
-5.957
-6.406
-6.79
-7.081
-7.259
-7.316
-7.269
-7.119
-6.862
-6.487
-5.955
-5.234
-4.333
-3.263
-2.066
-0.845
0.309
1.278
1.904
2.08
1.724
0.781
-0.741
-2.811
-5.393
-8.435
-11.928
-15.886
-20.286
-25.065
-30.064
-34.994
-39.564
-43.433
-46.233
-47.585
-47.03
-44.345
-39.611
-33.161
-25.661
-17.715
-9.572
-1.632
5.482
11.793
17.735
24.291
33.38
46.272
63.199
84.592
110.77
140.732
172.487
202.473
225.508
237.503
235.647
216.997
178.918
120.413
42.469
-51.16
-154.343
-261.319
-366.98
-465.749
-551.498
-618.942
-664.658
-687.623
-689.476
-672.669
-639.516
-593.108
-537.845
-478.201
-418.31
-361.771
-310.062
-263.53
-222.826
-188.105
-158.867
-134.743
-114.512
-96.122
-78.879
-62.915
-48.108
-34.642
-22.444
-10.802
0.036
8.862
15.192
18.998
20.421
20.082
18.265
14.74
9.851
4.486
-0.67
-5.019
-8.231
-10.391
-11.469
-11.272
-9.78
-7.089
-3.348
1.187
6.33
11.999
18.073
24.415
30.861
37.173
43.164
48.715
53.744
58.22
62.127
65.444
68.175
70.369
72.087
73.406
74.394
75.098
75.577
75.897
76.137
76.398
76.754
77.254
77.932
78.809
79.898
81.213
82.755
84.505
86.446
88.565
90.851
93.299
95.901
98.638
101.49
104.433
107.45
110.523
113.635
116.767
119.903
123.024
126.116
129.167
132.162
135.08
137.903
140.61
143.18
145.596
147.837
149.884
151.72
153.329
154.697
155.813
156.665
157.243
157.54
157.548
157.264
156.684
155.805
154.629
153.157
151.392
149.34
147.007
144.401
141.532
138.41
135.048
131.458
127.656
123.656
119.474
115.128
110.635
106.015
101.285
96.466
91.577
86.636
81.665
76.682
71.706
66.754
61.845
56.995
52.219
47.534
42.953
38.489
34.154
29.96
25.918
22.035
18.321
14.782
11.423
8.249
5.264
2.47
-0.132
-2.542
-4.759
-6.786
-8.625
-10.28
-11.755
-13.055
-14.186
-15.154
-15.967
-16.632
-17.157
-17.551
-17.821
-17.976
-18.026
-17.978
-17.843
-17.629
-17.345
-16.999
-16.6
-16.156
-15.674
-15.163
-14.63
-14.08
-13.52
-12.956
-12.394
-11.838
-11.292
-10.762
-10.25
-9.761
-9.297
-8.86
-8.453
-8.077
-7.734
-7.425
-7.15
-6.91
-6.705
-6.536
-6.403
-6.306
-6.244
-6.218
-6.226
-6.267
-6.34
-6.444
-6.578
-6.74
-6.928
-7.143
-7.382
-7.645
-7.93
-8.236
-8.561
-8.904
-9.262
-9.633
-10.016
-10.407
-10.805
-11.207
-11.61
-12.013
-12.414
-12.809
-13.197
-13.574
-13.937
-14.281
-14.602
-14.898
-15.162
-15.394
-15.588
-15.743
-15.858
-15.93
-15.956
-15.935
-15.867
-15.748
-15.578
-15.355
-15.079
-14.749
-14.368
-13.936
-13.456
-12.932
-12.368
-11.767
-11.137
-10.482
-9.807
-9.115
-8.409
-7.694
-6.973
-6.251
-5.532
-4.821
-4.123
-3.449
-2.806
-2.205
-1.649
-1.141
-0.685
-0.279
0.072
0.368
0.616
0.812
0.955
1.038
1.041
0.954
0.783
0.537
0.234
-0.093
-0.42
-0.72
-0.949
-1.084
-1.11
-1.02
-0.835
-0.563
-0.197
0.27
0.87
1.637
2.561
3.625
4.794
5.971
7.062
7.966
8.53
8.646
8.255
7.297
5.783
3.745
1.189
-1.833
-5.288
-9.184
-13.483
-18.141
-23.067
-28.0
-32.651
-36.712
-39.784
-41.562
-41.737
-39.876
-35.862
-29.874
-22.271
-13.793
-5.079
3.672
12.024
19.328
25.63
31.36
37.592
46.345
58.891
75.468
96.521
122.335
151.808
182.767
211.385
232.321
241.431
235.872
212.745
169.494
105.328
21.731
-76.959
-184.353
-294.635
-402.7
-503.126
-589.6
-656.396
-700.238
-720.635
-719.197
-698.108
-659.237
-604.811
-539.553
-469.421
-399.243
-332.765
-272.049
-218.011
-172.303
-136.852
-111.184
-93.232
-80.709
-70.854
-62.279
-54.82
-47.504
-38.883
-28.574
-16.934
-5.006
5.341
13.254
18.861
22.102
22.911
21.374
17.676
12.531
7.15
2.352
-1.49
-4.166
-5.67
-5.954
-4.899
-2.551
0.88
5.166
10.11
15.568
21.448
27.646
33.993
40.275
46.303
51.928
57.052
61.638
65.67
69.123
71.996
74.317
76.128
77.503
78.514
79.211
79.654
79.908
80.053
80.191
80.408
80.759
81.286
82.012
82.95
84.116
85.514
87.129
88.947
90.957
93.146
95.511
98.043
100.726
103.538
106.457
109.46
112.53
115.651
118.804
121.971
125.137
128.285
131.404
134.479
137.492
140.421
143.246
145.947
148.503
150.896
153.104
155.108
156.893
158.443
159.745
160.789
161.561
162.053
162.258
162.168
161.78
161.09
160.098
158.803
157.208
155.318
153.137
150.674
147.937
144.934
141.678
138.181
134.456
130.519
126.383
122.066
117.586
112.96
108.208
103.348
98.401
93.385
88.322
83.229
78.128
73.036
67.972
62.952
57.995
53.116
48.331
43.653
39.097
34.675
30.398
26.277
22.322
18.539
14.938
11.522
8.298
5.268
2.437
-0.196
-2.629
-4.862
-6.898
-8.738
-10.387
-11.848
-13.126
-14.227
-15.158
-15.927
-16.539
-17.004
-17.331
-17.527
-17.603
-17.567
-17.429
-17.198
-16.884
-16.495
-16.041
-15.531
-14.973
-14.376
-13.747
-13.095
-12.426
-11.748
-11.068
-10.391
-9.722
-9.067
-8.431
-7.817
-7.228
-6.669
-6.141
-5.647
-5.189
-4.768
-4.386
-4.042
-3.739
-3.475
-3.251
-3.066
-2.919
-2.811
-2.74
-2.705
-2.706
-2.742
-2.812
-2.915
-3.051
-3.217
-3.413
-3.638
-3.889
-4.165
-4.466
-4.789
-5.133
-5.497
-5.881
-6.282
-6.7
-7.134
-7.582
-8.042
-8.512
-8.991
-9.476
-9.966
-10.458
-10.95
-11.44
-11.925
-12.404
-12.873
-13.33
-13.769
-14.188
-14.582
-14.946
-15.277
-15.571
-15.823
-16.032
-16.195
-16.311
-16.377
-16.391
-16.351
-16.257
-16.108
-15.902
-15.639
-15.318
-14.941
-14.509
-14.027
-13.496
-12.92
-12.302
-11.648
-10.966
-10.26
-9.533
-8.79
-8.035
-7.272
-6.511
-5.756
-5.011
-4.283
-3.579
-2.909
-2.284
-1.711
-1.189
-0.723
-0.311
0.044
0.337
0.573
0.755
0.883
0.954
0.958
0.872
0.691
0.427
0.091
-0.289
-0.693
-1.108
-1.501
-1.831
-2.081
-2.231
-2.287
-2.278
-2.19
-2.009
-1.711
-1.239
-0.573
0.271
1.278
2.388
3.512
4.577
5.459
6.002
6.125
5.754
4.86
3.492
1.64
-0.688
-3.463
-6.713
-10.453
-14.648
-19.239
-24.054
-28.8
-33.196
-36.886
-39.491
-40.666
-39.964
-37.2
-32.531
-26.276
-19.098
-11.614
-4.025
3.275
9.633
15.107
20.192
25.925
34.329
46.733
63.357
84.679
111.052
141.393
173.589
203.834
226.694
237.954
234.701
213.884
172.808
110.476
28.091
-70.12
-177.772
-289.086
-398.911
-501.758
-591.224
-661.31
-708.416
-731.821
-732.978
-713.924
-676.445
-622.687
-557.36
-486.604
-415.471
-347.883
-286.049
-230.984
-184.419
-148.357
-122.343
-104.189
-91.474
-81.353
-72.374
-64.378
-56.403
-46.97
-35.702
-23.018
-10.016
1.352
10.164
16.553
20.455
21.769
20.573
17.019
11.785
6.151
0.991
-3.293
-6.445
-8.458
-9.286
-8.773
-6.947
-4.008
-0.165
4.376
9.457
15.015
20.966
27.17
33.452
39.581
45.368
50.703
55.521
59.802
63.523
66.655
69.204
71.214
72.759
73.918
74.756
75.312
75.639
75.807
75.901
76.026
76.255
76.634
77.193
77.952
78.928
80.136
81.578
83.232
85.082
87.113
89.315
91.688
94.219
96.888
99.675
102.554
105.509
108.523
111.578
114.655
117.736
120.804
123.845
126.846
129.791
132.66
135.434
138.091
140.611
142.976
145.165
147.159
148.94
150.492
151.801
152.855
153.643
154.153
154.378
154.312
153.948
153.284
152.319
151.05
149.481
147.614
145.455
143.012
140.29
137.3
134.052
130.559
126.833
122.889
118.742
114.407
109.903
105.247
100.458
95.554
90.556
85.482
80.353
75.189
70.008
64.83
59.673
54.555
49.493
44.503
39.6
34.8
30.115
25.558
21.141
16.874
12.767
8.829
5.067
1.486
-1.908
-5.111
-8.119
-10.932
-13.549
-15.969
-18.193
-20.224
-22.065
-23.719
-25.191
-26.487
-27.614
-28.577
-29.384
-30.043
-30.562
-30.951
-31.216
-31.368
-31.415
-31.366
-31.23
-31.016
-30.733
-30.39
-29.994
-29.554
-29.077
-28.57
-28.042
-27.498
-26.945
-26.389
-25.835
-25.289
-24.755
-24.237
-23.739
-23.265
-22.818
-22.399
-22.012
-21.656
-21.335
-21.047
-20.795
-20.578
-20.396
-20.249
-20.137
-20.059
-20.015
-20.003
-20.024
-20.075
-20.157
-20.267
-20.406
-20.572
-20.764
-20.982
-21.226
-21.494
-21.785
-22.098
-22.433
-22.788
-23.161
-23.552
-23.959
-24.381
-24.817
-25.266
-25.727
-26.199
-26.681
-27.172
-27.67
-28.174
-28.681
-29.191
-29.701
-30.208
-30.711
-31.207
-31.694
-32.168
-32.629
-33.071
-33.493
-33.89
-34.259
-34.594
-34.893
-35.152
-35.366
-35.534
-35.653
-35.722
-35.738
-35.7
-35.608
-35.46
-35.255
-34.993
-34.673
-34.297
-33.863
-33.375
-32.835
-32.245
-31.609
-30.932
-30.218
-29.472
-28.701
-27.912
-27.109
-26.296
-25.479
-24.662
-23.854
-23.06
-22.283
-21.53
-20.808
-20.124
-19.489
-18.908
-18.382
-17.913
-17.503
-17.153
-16.866
-16.641
-16.476
-16.369
-16.323
-16.345
-16.457
-16.663
-16.953
-17.314
-17.718
-18.142
-18.571
-18.977
-19.323
-19.587
-19.748
-19.805
-19.777
-19.662
-19.458
-19.144
-18.665
-18.008
-17.189
-16.246
-15.259
-14.311
-13.472
-12.855
-12.598
-12.795
-13.527
-14.819
-16.626
-18.925
-21.673
-24.842
-28.461
-32.518
-36.97
-41.71
-46.507
-51.095
-55.207
-58.496
-60.617
-61.21
-59.823
-56.319
-50.89
-43.92
-36.14
-28.163
-20.182
-12.615
-6.087
-0.579
4.371
9.846
17.844
29.678
45.575
65.924
90.997
119.647
149.625
177.221
197.251
205.416
198.805
174.421
129.514
63.638
-21.307
-121.089
-229.371
-339.891
-447.306
-545.645
-627.948
-689.256
-727.172
-741.314
-733.65
-706.979
-663.489
-606.381
-541.356
-473.458
-406.536
-344.0
-287.329
-237.095
-194.84
-161.631
-136.204
-117.149
-102.869
-90.997
-80.64
-71.64
-62.911
-53.389
-43.05
-32.006
-21.043
-11.803
-4.85
-0.107
2.256
2.249
0.041
-4.186
-9.694
-15.295
-20.274
-24.257
-27.017
-28.56
-28.822
-27.697
-25.272
-21.773
-17.421
-12.407
-6.864
-0.869
5.457
11.933
18.33
24.443
30.136
35.323
39.968
44.057
47.564
50.495
52.893
54.816
56.335
57.516
58.404
59.052
59.529
59.918
60.322
60.824
61.478
62.322
63.378
64.661
66.185
67.95
69.935
72.125
74.507
77.068
79.806
82.713
85.768
88.951
92.239
95.61
99.045
102.528
106.037
109.555
113.062
116.545
119.99
123.381
126.699
129.922
133.03
136.001
138.814
141.451
143.889
146.11
148.097
149.834
151.309
152.508
153.422
154.039
154.353
154.357
154.046
153.418
152.471
151.206
149.624
147.73
145.529
143.029
140.238
137.166
133.825
130.227
126.387
122.319
118.04
113.566
108.916
104.109
99.163
94.099
88.938
83.699
78.403
73.071
67.724
62.379
57.058
51.777
46.554
41.408
36.353
31.405
26.579
21.888
17.343
12.958
8.742
4.704
0.851
-2.808
-6.269
-9.527
-12.578
-15.42
-18.053
-20.475
-22.688
-24.693
-26.493
-28.093
-29.496
-30.709
-31.737
-32.587
-33.267
-33.784
-34.148
-34.366
-34.448
-34.403
-34.24
-33.969
-33.599
-33.139
-32.6
-31.99
-31.319
-30.595
-29.827
-29.024
-28.193
-27.341
-26.476
-25.605
-24.735
-23.87
-23.017
-22.182
-21.368
-20.58
-19.822
-19.097
-18.409
-17.76
-17.152
-16.586
-16.066
-15.592
-15.165
-14.786
-14.455
-14.173
-13.94
-13.755
-13.617
-13.525
-13.478
-13.474
-13.511
-13.587
-13.701
-13.85
-14.033
-14.246
-14.486
-14.753
-15.041
-15.347
-15.669
-16.002
-16.342
-16.687
-17.031
-17.37
-17.702
-18.021
-18.324
-18.606
-18.862
-19.087
-19.276
-19.424
-19.525
-19.576
-19.572
-19.509
-19.385
-19.197
-18.944
-18.623
-18.233
-17.773
-17.243
-16.642
-15.971
-15.231
-14.421
-13.546
-12.609
-11.614
-10.566
-9.469
-8.329
-7.155
-5.953
-4.731
-3.493
-2.246
-0.995
0.249
1.479
2.688
3.868
5.014
6.115
7.159
8.138
9.047
9.885
10.649
11.338
11.948
12.477
12.925
13.296
13.592
13.808
13.931
13.949
13.86
13.68
13.429
13.127
12.785
12.424
12.072
11.762
11.522
11.363
11.274
11.255
11.318
11.476
11.768
12.234
12.877
13.684
14.61
15.601
16.602
17.54
18.304
18.783
18.886
18.563
17.828
16.68
15.123
13.203
10.921
8.276
5.308
2.048
-1.387
-4.784
-7.939
-10.578
-12.363
-12.999
-12.12
-9.357
-4.672
1.786
9.629
18.117
26.74
35.232
43.094
49.921
55.839
61.395
67.875
76.988
89.658
106.155
126.732
151.147
178.07
204.893
227.65
242.123
244.991
233.691
205.847
159.62
95.145
15.15
-75.695
-172.242
-269.431
-362.343
-445.456
-512.668
-559.989
-586.414
-592.836
-581.086
-553.584
-513.039
-463.543
-410.874
-359.394
-311.431
-268.18
-229.827
-196.261
-167.488
-142.505
-119.053
-95.705
-71.988
-47.932
-24.361
-1.999
18.814
37.421
52.93
64.906
73.228
78.058
80.002
79.605
77.33
73.752
69.353
64.551
59.765
55.31
51.447
48.415
46.355
45.356
45.493
46.775
49.183
52.66
57.06
62.223
67.99
74.175
80.633
87.208
93.701
99.956
105.843
111.26
116.167
120.544
124.366
127.637
130.391
132.67
134.552
136.107
137.391
138.472
139.421
140.313
141.241
142.274
143.459
144.833
146.416
148.222
150.265
152.546
155.049
157.76
160.664
163.75
167.01
170.431
173.994
177.677
181.455
185.305
189.211
193.154
197.112
201.068
205.001
208.896
212.738
216.509
220.19
223.757
227.189
230.464
233.562
236.461
239.141
241.582
243.767
245.682
247.313
248.648
249.676
250.387
250.774
250.832
250.557
249.947
249.0
247.719
246.106
244.168
241.911
239.345
236.477
233.321
229.888
226.194
222.252
218.08
213.694
209.114
204.357
199.445
194.398
189.238
183.984
178.658
173.283
167.878
162.466
157.066
151.697
146.379
141.129
135.964
130.903
125.958
121.146
116.479
111.969
107.629
103.467
99.493
95.713
92.135
88.763
85.602
82.654
79.921
77.404
75.101
73.013
71.136
69.467
68.001
66.734
65.659
64.771
64.061
63.522
63.145
62.922
62.844
62.901
63.084
63.384
63.79
64.292
64.883
65.55
66.286
67.08
67.924
68.809
69.727
70.669
71.628
72.597
73.569
74.537
75.496
76.44
77.363
78.26
79.129
79.963
80.76
81.516
82.229
82.896
83.514
84.083
84.6
85.065
85.475
85.83
86.13
86.375
86.563
86.697
86.776
86.801
86.774
86.696
86.569
86.395
86.175
85.911
85.606
85.261
84.88
84.463
84.015
83.538
83.036
82.511
81.968
81.41
80.84
80.263
79.683
79.104
78.53
77.966
77.415
76.884
76.378
75.902
75.46
75.059
74.703
74.395
74.14
73.939
73.796
73.711
73.687
73.725
73.826
73.991
74.218
74.508
74.861
75.274
75.746
76.271
76.847
77.469
78.134
78.834
79.563
80.313
81.079
81.854
82.633
83.409
84.173
84.916
85.632
86.315
86.958
87.552
88.086
88.554
88.952
89.279
89.534
89.714
89.816
89.841
89.788
89.663
89.467
89.194
88.832
88.368
87.799
87.14
86.412
85.633
84.814
83.976
83.146
82.358
81.64
81.002
80.437
79.945
79.536
79.228
79.069
79.099
79.328
79.738
80.275
80.876
81.479
81.997
82.317
82.323
81.912
81.039
79.713
77.939
75.736
73.122
70.069
66.548
62.562
58.174
53.554
48.947
44.608
40.84
37.957
36.34
36.457
38.492
42.329
47.639
53.764
60.132
66.563
72.691
77.935
82.361
86.459
91.283
98.791
110.274
125.947
146.158
171.145
199.798
230.013
258.133
278.943
288.386
283.722
262.141
221.23
160.275
80.519
-14.004
-116.996
-222.83
-326.499
-422.619
-505.482
-569.957
-612.739
-633.265
-633.419
-615.402
-581.428
-534.156
-477.346
-415.879
-354.303
-295.998
-242.511
-194.567
-152.976
-118.698
-92.111
-72.137
-56.834
-44.022
-32.626
-22.51
-13.48
-4.96
3.95
13.459
22.799
30.616
36.094
39.226
40.317
39.672
37.174
32.816
27.155
21.113
15.546
10.933
7.405
4.928
3.582
3.491
4.655
6.936
10.09
13.894
18.2
22.891
27.87
32.986
38.024
42.805
47.183
51.058
54.397
57.184
59.394
61.027
62.109
62.677
62.801
62.552
61.981
61.152
60.128
58.984
57.818
56.715
55.729
54.902
54.257
53.807
53.567
53.542
53.718
54.084
54.628
55.338
56.212
57.242
58.412
59.702
61.089
62.552
64.074
65.637
67.225
68.818
70.399
71.955
73.472
74.936
76.327
77.625
78.81
79.86
80.757
81.479
82.006
82.32
82.404
82.242
81.823
81.133
80.161
78.898
77.336
75.469
73.292
70.802
67.997
64.877
61.443
57.7
53.653
49.309
44.677
39.768
34.593
29.167
23.504
17.621
11.535
5.264
-1.173
-7.757
-14.467
-21.281
-28.18
-35.142
-42.144
-49.166
-56.186
-63.183
-70.138
-77.032
-83.846
-90.564
-97.169
-103.648
-109.986
-116.172
-122.192
-128.037
-133.696
-139.161
-144.427
-149.488
-154.342
-158.989
-163.433
-167.678
-171.73
-175.596
-179.283
-182.802
-186.159
-189.364
-192.425
-195.349
-198.149
-200.838
-203.429
-205.942
-208.394
-210.803
-213.192
-215.579
-217.987
-220.432
-222.926
-225.479
-228.104
-230.816
-233.638
-236.584
-239.657
-242.857
-246.177
-249.605
-253.119
-256.684
-260.247
-263.752
-267.148
-270.391
-273.45
-276.298
-278.913
-281.269
-283.339
-285.12
-286.634
-287.916
-289.005
-289.941
-290.772
-291.581
-292.486
-293.595
-295.004
-296.786
-298.987
-301.643
-304.765
-308.336
-312.318
-316.608
-321.053
-325.465
-329.633
-333.364
-336.451
-338.639
-339.63
-339.142
-336.924
-332.768
-326.501
-317.959
-307.03
-293.667
-277.888
-259.815
-239.647
-217.649
-194.139
-169.426
-143.845
