-14.157
-19.027
-20.271
-16.934
-7.93
7.899
31.35
62.391
100.101
141.97
184.501
225.722
263.717
297.139
326.844
348.78
355.28
339.58
293.175
216.131
118.383
8.912
-103.006
-214.791
-331.554
-452.883
-571.848
-674.996
-746.487
-778.99
-776.032
-749.275
-710.788
-667.551
-621.158
-568.819
-509.309
-444.8
-378.409
-314.33
-256.079
-205.046
-161.951
-127.234
-100.491
-80.998
-68.246
-61.253
-58.364
-58.112
-58.926
-59.197
-58.286
-56.085
-52.464
-47.693
-42.361
-36.992
-32.329
-29.166
-27.694
-27.759
-29.11
-31.284
-33.809
-36.291
-38.256
-39.249
-39.081
-37.737
-35.296
-31.945
-27.84
-23.111
-17.929
-12.481
-6.911
-1.35
4.082
9.292
14.166
18.583
22.463
25.758
28.444
30.533
32.05
33.028
33.515
33.574
33.263
32.643
31.771
30.697
29.481
28.179
26.851
25.558
24.341
23.232
22.256
21.431
20.773
20.292
19.985
19.839
19.843
19.983
20.244
20.617
21.082
21.622
22.227
22.892
23.629
24.447
25.349
26.329
27.372
28.462
29.599
30.786
32.024
33.326
34.7
36.158
37.729
39.426
41.238
43.138
45.071
46.968
48.782
50.478
52.028
53.414
54.603
55.561
56.263
56.671
56.747
56.445
55.695
54.447
52.687
50.425
47.707
44.603
41.162
37.425
33.43
29.205
24.786
20.211
15.501
10.685
5.802
0.902
-3.943
-8.669
-13.244
-17.652
-21.904
-26.028
-30.04
-33.946
-37.761
-41.487
-45.124
-48.671
-52.112
-55.433
-58.626
-61.696
-64.656
-67.522
-70.294
-72.967
-75.525
-77.947
-80.215
-82.318
-84.237
-85.963
-87.491
-88.819
-89.954
-90.908
-91.688
-92.299
-92.744
-93.026
-93.15
-93.125
-92.96
-92.666
-92.254
-91.736
-91.125
-90.433
-89.672
-88.85
-87.977
-87.057
-86.098
-85.107
-84.09
-83.054
-82.006
-80.952
-79.9
-78.857
-77.83
-76.824
-75.846
-74.9
-73.991
-73.123
-72.301
-71.527
-70.804
-70.136
-69.525
-68.972
-68.478
-68.046
-67.676
-67.366
-67.118
-66.93
-66.801
-66.728
-66.712
-66.748
-66.837
-66.975
-67.16
-67.392
-67.668
-67.985
-68.343
-68.739
-69.17
-69.634
-70.128
-70.648
-71.192
-71.757
-72.338
-72.934
-73.542
-74.159
-74.781
-75.407
-76.034
-76.659
-77.281
-77.896
-78.504
-79.102
-79.69
-80.265
-80.829
-81.379
-81.916
-82.439
-82.949
-83.445
-83.926
-84.392
-84.842
-85.275
-85.691
-86.087
-86.461
-86.814
-87.146
-87.455
-87.744
-88.011
-88.257
-88.482
-88.686
-88.868
-89.024
-89.151
-89.245
-89.303
-89.321
-89.299
-89.235
-89.125
-88.968
-88.766
-88.519
-88.227
-87.883
-87.479
-87.011
-86.48
-85.893
-85.26
-84.592
-83.892
-83.17
-82.445
-81.725
-81.016
-80.312
-79.592
-78.847
-78.074
-77.279
-76.481
-75.685
-74.881
-74.059
-73.207
-72.312
-71.373
-70.367
-69.248
-67.995
-66.602
-65.087
-63.497
-61.857
-60.165
-58.417
-56.6
-54.714
-52.782
-50.816
-48.821
-46.811
-44.79
-42.795
-40.902
-39.15
-37.556
-36.118
-34.792
-33.576
-32.512
-31.628
-30.957
-30.531
-30.365
-30.492
-30.966
-31.811
-33.034
-34.627
-36.549
-38.79
-41.363
-44.283
-47.559
-51.193
-55.186
-59.445
-63.8
-67.987
-71.588
-74.22
-75.617
-75.426
-73.248
-69.059
-63.058
-55.723
-48.074
-40.886
-34.599
-29.968
-27.629
-27.51
-29.242
-31.76
-32.978
-31.321
-25.466
-13.449
6.181
34.031
70.284
113.734
161.864
212.371
262.238
307.078
342.803
365.585
371.703
358.82
325.622
271.02
196.535
106.852
5.744
-103.068
-216.496
-334.322
-450.541
-554.273
-636.133
-685.866
-701.554
-690.758
-659.925
-616.665
-565.929
-506.862
-440.78
-370.242
-297.839
-228.436
-166.137
-113.142
-70.575
-38.168
-14.637
1.567
11.681
17.341
20.758
23.922
28.564
35.628
44.968
56.066
68.457
81.42
94.022
105.322
114.318
120.544
124.161
125.504
125.048
123.318
120.782
117.979
115.495
113.674
112.67
112.552
113.251
114.7
116.867
119.648
122.93
126.624
130.632
134.876
139.29
143.783
148.266
152.666
156.901
160.907
164.628
168.003
171.01
173.652
175.94
177.905
179.582
181.006
182.228
183.302
184.28
185.208
186.13
187.077
188.087
189.195
190.431
191.826
193.398
195.151
197.089
199.207
201.495
203.945
206.54
209.256
212.075
214.98
217.953
220.979
224.04
227.115
230.185
233.229
236.227
239.161
242.01
244.756
247.381
249.867
252.198
254.359
256.335
258.111
259.67
261.0
262.088
262.922
263.491
263.787
263.802
263.532
262.971
262.12
260.976
259.541
257.818
255.81
253.522
250.961
248.135
245.054
241.726
238.164
234.379
230.386
226.197
221.828
217.294
212.61
207.794
202.861
197.829
192.715
187.534
182.306
177.045
171.769
166.493
161.234
156.006
150.824
145.701
140.65
135.685
130.816
126.053
121.408
116.889
112.504
108.26
104.163
100.219
96.433
92.808
89.347
86.052
82.925
79.965
77.174
74.549
72.091
69.795
67.66
65.682
63.858
62.182
60.651
59.26
58.004
56.877
55.873
54.988
54.215
53.547
52.98
52.507
52.121
51.817
51.589
51.43
51.336
51.3
51.318
51.384
51.494
51.642
51.825
52.038
52.277
52.538
52.817
53.112
53.418
53.733
54.054
54.379
54.704
55.027
55.346
55.657
55.959
56.248
56.523
56.781
57.019
57.237
57.431
57.6
57.742
57.854
57.936
57.984
57.997
57.973
57.91
57.806
57.66
57.47
57.234
56.951
56.62
56.24
55.81
55.328
54.793
54.207
53.567
52.875
52.131
51.337
50.492
49.601
48.663
47.683
46.662
45.603
44.509
43.384
42.231
41.054
39.857
38.645
37.421
36.192
34.961
33.735
32.517
31.313
30.128
28.967
27.835
26.736
25.675
24.655
23.682
22.76
21.89
21.076
20.319
19.622
18.984
18.405
17.884
17.418
17.005
16.642
16.325
16.051
15.814
15.611
15.437
15.287
15.155
15.037
14.924
14.81
14.688
14.551
14.391
14.201
13.972
13.701
13.386
13.024
12.612
12.146
11.621
11.032
10.381
9.669
8.897
8.067
7.186
6.266
5.332
4.403
3.496
2.622
1.782
0.983
0.237
-0.445
-1.052
-1.578
-2.029
-2.404
-2.694
-2.905
-3.051
-3.173
-3.346
-3.631
-4.075
-4.716
-5.571
-6.677
-8.09
-9.864
-12.045
-14.671
-17.749
-21.321
-25.491
-30.266
-35.539
-41.072
-46.464
-51.362
-55.549
-58.767
-60.666
-61.057
-60.02
-57.962
-55.672
-53.901
-53.041
-53.414
-55.488
-59.439
-64.933
-71.12
-76.434
-79.151
-78.129
-72.305
-60.242
-40.926
-14.024
20.14
59.943
103.106
147.695
191.226
230.106
260.705
279.553
283.522
270.696
239.96
190.412
122.206
38.388
-57.001
-160.655
-267.778
-375.922
-482.694
-579.764
-660.811
-719.586
-749.97
-755.334
-739.43
-705.602
-659.997
-603.861
-538.785
-468.656
-395.964
-324.909
-259.803
-203.18
-156.871
-121.285
-95.593
-78.529
-68.621
-64.111
-62.882
-62.767
-61.8
-58.823
-53.602
-46.365
-37.561
-27.843
-18.025
-9.078
-2.063
2.512
4.711
4.814
3.323
0.766
-2.388
-5.544
-8.049
-9.527
-9.842
-8.981
-7.094
-4.297
-0.659
3.677
8.548
13.814
19.339
25.022
30.79
36.536
42.141
47.493
52.474
57.018
61.098
64.703
67.85
70.57
72.892
74.867
76.554
78.01
79.29
80.446
81.524
82.575
83.652
84.807
86.094
87.549
89.191
91.033
93.078
95.323
97.765
100.39
103.181
106.122
109.2
112.401
115.713
119.122
122.608
126.152
129.734
133.332
136.928
140.502
144.033
147.502
150.887
154.168
157.329
160.347
163.202
165.873
168.336
170.573
172.564
174.29
175.732
176.875
177.706
178.21
178.378
178.202
177.674
176.788
175.541
173.931
171.958
169.624
166.933
163.889
160.5
156.774
152.723
148.359
143.696
138.748
133.533
128.068
122.373
116.468
110.374
104.112
97.705
91.176
84.549
77.846
71.09
64.306
57.515
50.741
44.003
37.324
30.723
24.219
17.83
11.573
5.464
-0.484
-6.255
-11.839
-17.224
-22.401
-27.36
-32.096
-36.603
-40.875
-44.912
-48.709
-52.268
-55.589
-58.674
-61.526
-64.149
-66.549
-68.731
-70.704
-72.474
-74.05
-75.441
-76.658
-77.709
-78.605
-79.357
-79.975
-80.469
-80.851
-81.13
-81.316
-81.42
-81.451
-81.418
-81.33
-81.195
-81.022
-80.818
-80.59
-80.344
-80.087
-79.823
-79.557
-79.293
-79.036
-78.789
-78.553
-78.332
-78.126
-77.938
-77.768
-77.617
-77.486
-77.372
-77.278
-77.202
-77.142
-77.1
-77.072
-77.059
-77.059
-77.072
-77.097
-77.132
-77.178
-77.233
-77.297
-77.37
-77.451
-77.541
-77.639
-77.747
-77.864
-77.991
-78.128
-78.278
-78.44
-78.616
-78.807
-79.013
-79.236
-79.476
-79.734
-80.01
-80.305
-80.618
-80.95
-81.3
-81.667
-82.052
-82.454
-82.87
-83.3
-83.742
-84.194
-84.654
-85.118
-85.585
-86.051
-86.512
-86.966
-87.409
-87.838
-88.247
-88.634
-88.993
-89.321
-89.613
-89.864
-90.071
-90.229
-90.336
-90.389
-90.385
-90.322
-90.199
-90.018
-89.778
-89.481
-89.126
-88.718
-88.257
-87.746
-87.189
-86.589
-85.949
-85.275
-84.571
-83.845
-83.102
-82.348
-81.591
-80.836
-80.089
-79.36
-78.653
-77.975
-77.33
-76.724
-76.165
-75.662
-75.222
-74.845
-74.531
-74.276
-74.075
-73.921
-73.802
-73.698
-73.589
-73.459
-73.291
-73.073
-72.796
-72.444
-72.001
-71.45
-70.783
-69.999
-69.108
-68.115
-67.037
-65.902
-64.751
-63.653
-62.671
-61.87
-61.317
-61.07
-61.189
-61.723
-62.711
-64.189
-66.195
-68.753
-71.887
-75.622
-79.933
-84.801
-90.204
-95.982
-101.91
-107.685
-112.858
-117.043
-119.95
-121.196
-120.477
-117.835
-113.473
-107.882
-101.914
-96.146
-91.066
-87.429
-85.618
-85.431
-86.335
-87.168
-86.345
-82.776
-75.242
-62.004
-42.064
-15.191
18.161
56.329
97.214
138.885
178.492
212.054
235.87
246.58
241.54
219.235
178.375
118.243
39.536
-54.233
-158.45
-269.401
-382.403
-494.786
-603.407
-699.889
-777.899
-831.32
-854.81
-851.833
-826.067
-781.293
-724.24
-656.845
-581.649
-503.202
-424.084
-348.761
-281.642
-224.943
-180.202
-147.474
-125.246
-111.72
-105.189
-103.416
-104.11
-105.178
-104.635
-101.461
-95.676
-87.672
-78.03
-67.616
-57.276
-47.938
-40.625
-35.73
-33.126
-32.483
-33.249
-34.86
-36.838
-38.615
-39.598
-39.486
-38.18
-35.71
-32.252
-27.943
-22.892
-17.26
-11.217
-4.913
1.524
7.994
14.424
20.716
26.767
32.478
37.756
42.55
46.844
50.638
53.96
56.845
59.333
61.48
63.349
65.0
66.495
67.886
69.22
70.549
71.926
73.4
75.021
76.823
78.823
81.036
83.464
86.106
88.96
92.014
95.252
98.661
102.226
105.934
109.775
113.731
117.785
121.917
126.105
130.329
134.571
138.808
143.021
147.189
151.291
155.307
159.218
163.004
166.643
170.114
173.396
176.469
179.313
181.909
184.241
186.29
188.044
189.488
190.613
191.407
191.863
191.975
191.738
191.15
190.21
188.919
187.28
185.299
182.981
180.337
177.375
174.108
170.55
166.714
162.618
158.277
153.711
148.937
143.975
138.845
133.568
128.164
122.655
117.06
111.402
105.701
99.978
94.254
88.548
82.881
77.27
71.735
66.292
60.958
55.75
50.681
45.765
41.015
36.443
32.058
27.868
23.883
20.108
16.548
13.207
10.087
7.191
4.518
2.069
-0.158
-2.165
-3.955
-5.531
-6.899
-8.063
-9.03
-9.804
-10.395
-10.808
-11.052
-11.135
-11.065
-10.853
-10.506
-10.035
-9.45
-8.759
-7.972
-7.101
-6.153
-5.138
-4.066
-2.945
-1.783
-0.589
0.63
1.867
3.115
4.368
5.62
6.864
8.095
9.308
10.498
11.66
12.79
13.884
14.937
15.947
16.908
17.819
18.677
19.479
20.223
20.907
21.53
22.091
22.588
23.021
23.391
23.696
23.937
24.115
24.229
24.281
24.269
24.196
24.061
23.865
23.609
23.293
22.917
22.484
21.994
21.448
20.849
20.199
19.5
18.755
17.967
17.14
16.278
15.384
14.462
13.517
12.552
11.573
10.584
9.589
8.593
7.601
6.617
5.647
4.695
3.765
2.863
1.994
1.163
0.375
-0.365
-1.05
-1.677
-2.238
-2.73
-3.146
-3.482
-3.735
-3.902
-3.98
-3.967
-3.863
-3.67
-3.387
-3.018
-2.563
-2.026
-1.41
-0.718
0.045
0.875
1.767
2.716
3.712
4.749
5.815
6.904
8.006
9.113
10.214
11.3
12.364
13.398
14.392
15.337
16.22
17.027
17.749
18.382
18.924
19.378
19.748
20.043
20.275
20.464
20.622
20.76
20.884
20.997
21.108
21.228
21.371
21.556
21.787
22.069
22.402
22.782
23.198
23.625
24.025
24.354
24.583
24.683
24.639
24.431
24.018
23.375
22.473
21.285
19.809
18.026
15.902
13.415
10.545
7.304
3.746
-0.107
-4.29
-8.758
-13.377
-17.91
-21.965
-25.227
-27.509
-28.553
-28.021
-25.739
-21.805
-16.665
-11.155
-6.062
-1.814
1.194
2.386
1.476
-1.279
-5.066
-8.332
-9.355
-7.039
-0.298
12.453
32.351
59.876
94.837
135.673
180.21
226.601
272.202
313.036
345.193
364.836
368.22
352.99
317.594
260.482
182.82
88.965
-17.736
-133.609
-255.479
-383.11
-510.013
-624.712
-717.093
-776.002
-799.072
-793.634
-766.274
-724.786
-673.626
-611.67
-540.15
-461.766
-380.136
-300.825
-228.244
-165.067
-112.874
-72.12
-42.347
-22.344
-10.629
-5.45
-4.466
-5.526
-6.741
-6.388
-3.77
1.027
7.761
15.854
24.402
32.605
39.581
44.45
47.003
47.464
46.175
43.691
40.573
37.287
34.389
32.428
31.653
32.12
33.772
36.427
39.944
44.218
49.087
54.378
59.942
65.642
71.372
77.058
82.602
87.902
92.863
97.393
101.444
105.01
108.099
110.742
112.975
114.839
116.388
117.687
118.797
119.776
120.677
121.543
122.422
123.364
124.414
125.617
127.0
128.577
130.355
132.332
134.504
136.865
139.4
142.091
144.922
147.878
150.947
154.117
157.372
160.697
164.072
167.479
170.901
174.322
177.722
181.086
184.396
187.633
190.781
193.824
196.745
199.524
202.143
204.584
206.829
208.86
210.662
212.22
213.518
214.546
215.292
215.746
215.903
215.753
215.293
214.519
213.428
212.019
210.293
208.251
205.898
203.236
200.274
197.016
193.474
189.655
185.572
181.236
176.662
171.864
166.856
161.656
156.279
150.745
145.071
139.276
133.378
127.397
121.353
115.263
109.147
103.023
96.909
90.823
84.78
78.799
72.893
67.079
61.369
55.779
50.32
45.004
39.842
34.843
30.018
25.372
20.914
16.649
12.581
8.713
5.049
1.59
-1.665
-4.715
-7.564
-10.213
-12.666
-14.929
-17.005
-18.902
-20.625
-22.181
-23.578
-24.823
-25.925
-26.891
-27.73
-28.451
-29.061
-29.569
-29.984
-30.313
-30.566
-30.749
-30.872
-30.94
-30.961
-30.942
-30.888
-30.806
-30.7
-30.575
-30.436
-30.287
-30.129
-29.967
-29.802
-29.635
-29.469
-29.304
-29.141
-28.98
-28.82
-28.662
-28.506
-28.351
-28.196
-28.04
-27.884
-27.727
-27.567
-27.404
-27.238
-27.067
-26.891
-26.71
-26.523
-26.33
-26.131
-25.925
-25.714
-25.498
-25.278
-25.054
-24.828
-24.601
-24.376
-24.153
-23.934
-23.723
-23.522
-23.332
-23.156
-22.997
-22.857
-22.738
-22.641
-22.57
-22.523
-22.504
-22.512
-22.547
-22.61
-22.701
-22.818
-22.962
-23.132
-23.325
-23.542
-23.779
-24.036
-24.308
-24.595
-24.892
-25.197
-25.505
-25.813
-26.116
-26.411
-26.693
-26.956
-27.196
-27.407
-27.585
-27.722
-27.815
-27.858
-27.847
-27.778
-27.647
-27.452
-27.191
-26.863
-26.469
-26.01
-25.486
-24.9
-24.253
-23.548
-22.788
-21.977
-21.118
-20.216
-19.274
-18.301
-17.302
-16.286
-15.259
-14.228
-13.202
-12.187
-11.193
-10.228
-9.298
-8.409
-7.571
-6.79
-6.081
-5.449
-4.896
-4.422
-4.022
-3.694
-3.429
-3.217
-3.037
-2.872
-2.703
-2.517
-2.306
-2.058
-1.763
-1.405
-0.967
-0.441
0.168
0.851
1.597
2.391
3.209
4.014
4.742
5.336
5.737
5.883
5.729
5.224
4.322
2.993
1.205
-1.077
-3.87
-7.191
-11.059
-15.453
-20.369
-25.832
-31.718
-37.818
-43.839
-49.319
-53.852
-57.173
-58.906
-58.624
-56.283
-52.067
-46.475
-40.583
-35.198
-30.771
-28.056
-27.694
-29.639
-33.518
-38.196
-41.485
-41.735
-37.646
-27.286
-9.161
17.402
52.633
95.278
142.66
192.408
241.646
286.103
321.66
344.373
350.367
337.288
303.827
248.73
173.247
81.582
-21.996
-133.181
-250.024
-372.936
-498.399
-617.675
-717.634
-785.012
-813.84
-807.511
-776.529
-731.757
-679.915
-622.972
-559.188
-488.517
-413.763
-338.848
-268.98
-207.899
-157.013
-117.012
-87.47
-67.032
-54.444
-48.217
-46.172
-46.295
-46.776
-45.87
-42.813
-37.661
-30.625
-22.222
-13.303
-4.613
2.991
8.592
11.926
13.159
12.61
10.817
8.321
5.573
3.112
1.497
0.994
1.684
3.524
6.335
9.984
14.367
19.331
24.711
30.364
36.161
41.998
47.799
53.467
58.901
64.005
68.687
72.898
76.623
79.871
82.672
85.063
87.085
88.793
90.246
91.506
92.631
93.672
94.675
95.689
96.763
97.945
99.282
100.805
102.531
104.467
106.615
108.97
111.527
114.273
117.189
120.26
123.47
126.805
130.252
133.794
137.414
141.089
144.801
148.527
152.248
155.945
159.597
163.184
166.684
170.08
173.353
176.482
179.448
182.229
184.805
187.157
189.266
191.114
192.684
193.963
194.935
195.59
195.919
195.913
195.566
194.875
193.836
192.448
190.715
188.637
186.22
183.471
180.398
177.01
173.319
169.337
165.079
160.56
155.795
150.803
145.6
140.207
134.641
128.924
123.075
117.115
111.064
104.944
98.776
92.579
86.375
80.183
74.023
67.913
61.871
55.914
50.058
44.318
38.708
33.24
27.928
22.78
17.807
13.016
8.415
4.008
-0.198
-4.202
-8.0
-11.591
-14.975
-18.152
-21.124
-23.892
-26.461
-28.834
-31.015
-33.011
-34.825
-36.466
-37.94
-39.255
-40.418
-41.439
-42.324
-43.085
-43.728
-44.263
-44.7
-45.047
-45.312
-45.504
-45.632
-45.702
-45.723
-45.7
-45.642
-45.553
-45.439
-45.306
-45.158
-44.999
-44.833
-44.664
-44.495
-44.329
-44.167
-44.013
-43.868
-43.734
-43.611
-43.501
-43.404
-43.32
-43.25
-43.193
-43.148
-43.114
-43.091
-43.076
-43.069
-43.068
-43.072
-43.078
-43.086
-43.094
-43.101
-43.106
-43.107
-43.105
-43.097
-43.085
-43.068
-43.046
-43.019
-42.988
-42.952
-42.913
-42.871
-42.827
-42.781
-42.735
-42.69
-42.646
-42.606
-42.569
-42.537
-42.512
-42.495
-42.488
-42.492
-42.509
-42.54
-42.586
-42.649
-42.729
-42.828
-42.946
-43.084
-43.241
-43.418
-43.614
-43.828
-44.06
-44.309
-44.571
-44.846
-45.131
-45.424
-45.72
-46.018
-46.313
-46.602
-46.882
-47.148
-47.396
-47.623
-47.824
-47.994
-48.129
-48.226
-48.279
-48.285
-48.241
-48.143
-47.989
-47.776
-47.504
-47.171
-46.778
-46.324
-45.811
-45.238
-44.609
-43.924
-43.187
-42.399
-41.564
-40.686
-39.77
-38.823
-37.851
-36.861
-35.857
-34.848
-33.84
-32.843
-31.862
-30.904
-29.972
-29.074
-28.215
-27.407
-26.656
-25.963
-25.325
-24.741
-24.207
-23.718
-23.264
-22.827
-22.39
-21.933
-21.448
-20.929
-20.37
-19.764
-19.094
-18.345
-17.509
-16.59
-15.598
-14.546
-13.444
-12.308
-11.181
-10.124
-9.202
-8.487
-8.023
-7.849
-8.009
-8.53
-9.465
-10.871
-12.785
-15.242
-18.257
-21.824
-25.968
-30.733
-36.045
-41.721
-47.477
-52.909
-57.674
-61.532
-64.171
-65.201
-64.398
-61.826
-57.868
-53.264
-48.757
-44.791
-41.821
-40.513
-41.229
-43.762
-47.373
-50.61
-51.78
-49.697
-43.071
-30.115
-9.633
18.778
54.754
96.609
142.067
189.01
234.379
273.863
303.446
319.466
318.658
299.032
259.236
198.22
117.621
22.197
-84.248
-198.039
-316.204
-438.421
-558.333
-664.932
-748.49
-798.519
-813.173
-799.724
-764.836
-716.662
-660.215
-594.958
-522.772
-446.467
-369.225
-296.587
-232.453
-178.709
-136.419
-105.033
-83.024
-68.823
-60.828
-56.954
-55.209
-53.795
-50.977
-45.985
-38.948
-30.222
-20.361
-10.166
-0.367
8.203
14.583
18.429
19.899
19.326
17.263
14.246
10.726
7.243
4.381
2.47
1.615
1.775
2.785
4.511
6.867
9.745
13.017
16.577
20.345
24.25
28.242
32.266
36.232
40.059
43.682
47.055
50.192
53.156
56.0
58.776
61.539
64.312
67.124
69.996
72.914
75.871
78.872
81.917
85.027
88.234
91.546
94.97
98.488
102.052
105.628
109.186
112.693
116.142
119.527
122.855
126.16
129.475
132.817
136.196
139.61
143.043
146.49
149.943
153.391
156.834
160.268
163.685
167.079
170.438
173.737
176.95
180.035
182.951
185.667
188.156
190.395
192.369
194.062
195.46
196.56
197.352
197.828
197.984
197.809
197.298
196.451
195.269
193.758
191.925
189.776
187.318
184.56
181.511
178.18
174.576
170.708
166.586
162.225
157.637
152.84
147.851
142.688
137.37
131.916
126.347
120.683
114.943
109.148
103.315
97.465
91.617
85.789
79.998
74.263
68.6
63.026
57.556
52.204
46.985
41.913
36.998
32.252
27.685
23.308
19.127
15.15
11.384
7.834
4.503
1.396
-1.488
-4.146
-6.58
-8.792
-10.784
-12.561
-14.126
-15.487
-16.648
-17.617
-18.401
-19.008
-19.446
-19.724
-19.851
-19.837
-19.691
-19.423
-19.043
-18.562
-17.989
-17.335
-16.609
-15.822
-14.983
-14.1
-13.184
-12.243
-11.285
-10.319
-9.351
-8.388
-7.438
-6.505
-5.595
-4.714
-3.865
-3.052
-2.279
-1.548
-0.862
-0.224
0.365
0.904
1.391
1.826
2.208
2.538
2.816
3.041
3.216
3.34
3.414
3.441
3.42
3.355
3.245
3.093
2.9
2.668
2.398
2.091
1.749
1.373
0.963
0.522
0.051
-0.451
-0.981
-1.538
-2.123
-2.732
-3.367
-4.024
-4.703
-5.403
-6.122
-6.859
-7.613
-8.381
-9.163
-9.955
-10.757
-11.565
-12.378
-13.192
-14.005
-14.815
-15.619
-16.414
-17.197
-17.964
-18.712
-19.438
-20.137
-20.806
-21.44
-22.035
-22.588
-23.094
-23.55
-23.951
-24.295
-24.577
-24.794
-24.945
-25.025
-25.034
-24.967
-24.826
-24.608
-24.315
-23.947
-23.504
-22.991
-22.409
-21.762
-21.055
-20.292
-19.477
-18.616
-17.716
-16.781
-15.818
-14.834
-13.835
-12.829
-11.825
-10.831
-9.856
-8.907
-7.993
-7.123
-6.305
-5.548
-4.853
-4.225
-3.668
-3.186
-2.789
-2.477
-2.25
-2.105
-2.04
-2.05
-2.129
-2.265
-2.434
-2.615
-2.79
-2.946
-3.079
-3.18
-3.236
-3.234
-3.161
-3.012
-2.793
-2.505
-2.141
-1.706
-1.219
-0.713
-0.254
0.094
0.282
0.268
0.015
-0.5
-1.321
-2.497
-4.061
-6.047
-8.482
-11.368
-14.758
-18.728
-23.223
-28.085
-33.041
-37.684
-41.699
-44.906
-46.993
-47.569
-46.524
-43.971
-40.382
-36.636
-33.33
-30.666
-29.055
-29.077
-30.87
-34.198
-38.112
-40.819
-41.009
-38.079
-30.848
-17.637
2.572
30.484
64.907
102.154
140.564
179.756
219.332
260.32
298.453
324.794
331.384
309.439
257.14
180.943
87.444
-14.652
-119.678
-227.29
-335.059
-439.587
-536.109
-617.705
-679.587
-719.492
-736.795
-732.397
-707.941
-665.78
-609.265
-542.451
-469.826
-395.578
-323.081
-255.515
-195.539
-144.962
-104.944
-75.486
-55.41
-43.231
-37.408
-35.934
-36.835
-38.256
-38.373
-36.304
-32.037
-25.809
-18.124
-9.755
-1.435
5.961
11.489
14.817
16.062
15.516
13.706
11.154
8.317
5.752
3.999
3.324
3.812
5.416
7.972
11.358
15.465
20.141
25.224
30.571
36.062
41.607
47.12
52.498
57.632
62.412
66.765
70.66
74.086
77.06
79.611
81.771
83.59
85.128
86.441
87.586
88.615
89.576
90.519
91.501
92.573
93.791
95.193
96.801
98.631
100.689
102.972
105.477
108.193
111.101
114.187
117.437
120.838
124.377
128.04
131.807
135.659
139.575
143.534
147.518
151.505
155.475
159.408
163.284
167.082
170.784
174.369
177.815
181.1
184.201
187.097
189.767
192.191
194.349
196.222
197.796
199.054
199.986
200.579
200.825
200.717
200.248
199.416
198.218
196.655
194.728
192.442
189.801
186.814
183.488
179.835
175.867
171.597
167.04
162.212
157.131
151.815
146.284
140.557
134.655
128.601
122.416
116.124
109.746
103.307
96.829
90.335
83.847
77.387
70.976
64.634
58.38
52.234
46.212
40.331
34.605
29.049
23.676
18.497
13.522
8.761
4.222
-0.09
-4.169
-8.012
-11.614
-14.975
-18.094
-20.972
-23.61
-26.011
-28.18
-30.12
-31.838
-33.341
-34.637
-35.733
-36.639
-37.365
-37.92
-38.316
-38.563
-38.672
-38.654
-38.52
-38.281
-37.947
-37.53
-37.039
-36.484
-35.875
-35.221
-34.531
-33.813
-33.074
-32.323
-31.565
-30.808
-30.057
-29.318
-28.596
-27.896
-27.223
-26.58
-25.971
-25.398
-24.864
-24.371
-23.92
-23.513
-23.149
-22.829
-22.552
-22.319
-22.13
-21.982
-21.876
-21.81
-21.784
-21.796
-21.847
-21.934
-22.058
-22.217
-22.411
-22.64
-22.903
-23.201
-23.531
-23.895
-24.292
-24.72
-25.18
-25.67
-26.188
-26.734
-27.307
-27.904
-28.524
-29.165
-29.826
-30.504
-31.198
-31.906
-32.625
-33.354
-34.09
-34.83
-35.572
-36.313
-37.05
-37.78
-38.498
-39.201
-39.885
-40.546
-41.179
-41.779
-42.343
-42.864
-43.339
-43.763
-44.131
-44.44
-44.686
-44.866
-44.979
-45.022
-44.995
-44.896
-44.727
-44.489
-44.183
-43.811
-43.375
-42.879
-42.324
-41.715
-41.055
-40.347
-39.596
-38.807
-37.986
-37.138
-36.27
-35.387
-34.496
-33.605
-32.722
-31.853
-31.002
-30.173
-29.37
-28.601
-27.874
-27.195
-26.563
-25.977
-25.437
-24.94
-24.482
-24.053
-23.633
-23.202
-22.746
-22.254
-21.724
-21.151
-20.525
-19.832
-19.058
-18.195
-17.253
-16.239
-15.151
-13.998
-12.802
-11.6
-10.462
-9.465
-8.658
-8.09
-7.792
-7.784
-8.116
-8.85
-10.033
-11.716
-13.922
-16.65
-19.948
-23.891
-28.436
-33.433
-38.589
-43.486
-47.792
-51.29
-53.699
-54.656
-53.959
-51.689
-48.261
-44.452
-40.981
-38.233
-36.587
-36.625
-38.64
-42.37
-47.016
-51.073
-52.841
-51.142
-44.746
-31.958
-11.562
16.84
52.887
94.941
140.625
187.68
233.076
272.561
302.006
317.763
316.537
296.262
255.972
195.069
115.44
22.05
-81.014
-189.993
-301.924
-416.53
-528.13
-626.554
-702.841
-747.236
-758.554
-744.456
-711.536
-667.676
-617.24
-558.935
-493.891
-424.239
-352.431
-283.346
-220.973
-167.527
-124.523
-92.056
-69.093
-54.425
-46.956
-45.04
-46.496
-49.186
-51.004
-50.679
-48.058
-43.321
-36.736
-28.884
-20.559
-12.724
-6.486
-2.371
-0.29
0.047
-0.889
-2.612
-4.678
-6.528
-7.566
-7.481
-6.193
-3.759
-0.365
3.846
8.765
14.232
20.07
26.123
32.265
38.405
44.461
50.34
55.933
61.135
65.875
70.125
73.877
77.146
79.964
82.363
84.393
86.112
87.574
88.834
89.945
90.95
91.9
92.846
93.839
94.929
96.153
97.534
99.086
100.815
102.721
104.802
107.048
109.445
111.982
114.647
117.43
120.322
123.311
126.383
129.52
132.707
135.926
139.161
142.396
145.613
148.795
151.927
154.992
157.974
160.855
163.618
166.244
168.713
171.008
173.111
175.004
176.672
178.098
179.27
180.175
180.802
181.142
181.187
180.93
180.365
179.49
178.302
176.801
174.988
172.865
170.436
167.707
164.686
161.382
157.803
153.963
149.873
145.547
141.001
136.25
131.31
126.199
120.936
115.538
110.026
104.419
98.736
92.997
87.222
81.432
75.644
69.877
64.15
58.481
52.885
47.38
41.981
36.703
31.558
26.561
21.723
17.055
12.565
8.264
4.158
0.253
-3.446
-6.935
-10.21
-13.272
-16.118
-18.75
-21.17
-23.379
-25.382
-27.182
-28.787
-30.201
-31.431
-32.486
-33.372
-34.099
-34.675
-35.108
-35.409
-35.587
-35.65
-35.609
-35.473
-35.252
-34.954
-34.588
-34.163
-33.688
-33.171
-32.618
-32.037
-31.435
-30.818
-30.191
-29.56
-28.929
-28.302
-27.682
-27.073
-26.477
-25.896
-25.332
-24.786
-24.258
-23.749
-23.26
-22.791
-22.342
-21.912
-21.501
-21.11
-20.736
-20.381
-20.043
-19.722
-19.418
-19.131
-18.86
-18.605
-18.367
-18.145
-17.941
-17.753
-17.584
-17.433
-17.302
-17.192
-17.103
-17.037
-16.995
-16.978
-16.989
-17.028
-17.097
-17.196
-17.325
-17.487
-17.68
-17.905
-18.16
-18.446
-18.762
-19.106
-19.476
-19.871
-20.289
-20.726
-21.179
-21.645
-22.12
-22.6
-23.081
-23.557
-24.026
-24.482
-24.92
-25.336
-25.724
-26.079
-26.397
-26.673
-26.901
-27.077
-27.197
-27.258
-27.256
-27.189
-27.055
-26.855
-26.587
-26.254
-25.856
-25.396
-24.876
-24.299
-23.67
-22.992
-22.271
-21.511
-20.718
-19.899
-19.061
-18.212
-17.359
-16.509
-15.671
-14.854
-14.065
-13.311
-12.595
-11.922
-11.297
-10.726
-10.216
-9.773
-9.395
-9.082
-8.835
-8.65
-8.522
-8.441
-8.383
-8.328
-8.259
-8.161
-8.029
-7.856
-7.629
-7.335
-6.961
-6.5
-5.953
-5.323
-4.606
-3.807
-2.941
-2.044
-1.183
-0.433
0.148
0.504
0.595
0.396
-0.141
-1.074
-2.454
-4.329
-6.732
-9.667
-13.185
-17.365
-22.179
-27.479
-32.974
-38.232
-42.887
-46.713
-49.427
-50.668
-50.251
-48.268
-45.15
-41.704
-38.661
-36.365
-35.121
-35.404
-37.397
-40.801
-44.795
-47.846
-48.326
-45.198
-37.44
-23.623
-2.747
25.555
60.962
101.844
145.989
191.421
235.454
274.295
304.144
321.195
322.063
304.874
268.422
211.83
135.86
43.033
-63.065
-177.429
-294.551
-409.471
-516.818
-611.176
-688.318
-745.04
-779.436
-791.508
-782.056
-752.352
-705.082
-643.74
-572.168
-494.828
-415.833
-338.427
-265.927
-201.287
-146.475
-102.831
-70.536
-48.476
-35.23
-29.256
-28.377
-30.384
-33.175
-34.702
-33.929
-30.752
-25.334
-18.139
-9.975
-1.65
5.874
11.547
14.986
16.312
15.816
14.018
11.456
8.584
5.967
4.198
3.561
4.13
5.853
8.538
12.038
16.248
21.004
26.133
31.489
36.94
42.392
47.781
53.021
58.019
62.688
66.941
70.74
74.079
76.973
79.453
81.561
83.337
84.836
86.124
87.26
88.302
89.3
90.299
91.346
92.486
93.767
95.233
96.91
98.812
100.946
103.309
105.897
108.702
111.708
114.897
118.249
121.749
125.38
129.127
132.972
136.894
140.871
144.88
148.899
152.907
156.882
160.803
164.646
168.391
172.018
175.505
178.833
181.979
184.922
187.641
190.116
192.329
194.26
195.895
197.217
198.213
198.874
199.189
199.152
198.756
197.999
196.878
195.394
193.549
191.347
188.793
185.896
182.664
179.109
175.242
171.079
166.634
161.923
156.965
151.778
146.382
140.797
135.044
129.145
123.121
116.996
110.791
104.528
98.231
91.92
85.617
79.344
73.121
66.966
60.899
54.938
49.098
43.395
37.843
32.457
27.247
22.224
17.397
12.776
8.366
4.173
0.202
-3.545
-7.065
-10.358
-13.424
-16.265
-18.884
-21.283
-23.467
-25.443
-27.215
-28.791
-30.178
-31.384
-32.419
-33.29
-34.007
-34.581
-35.02
-35.334
-35.534
-35.628
-35.628
-35.541
-35.378
-35.147
-34.857
-34.515
-34.13
-33.71
-33.259
-32.786
-32.295
-31.793
-31.283
-30.77
-30.258
-29.75
-29.249
-28.757
-28.276
-27.808
-27.355
-26.916
-26.493
-26.085
-25.694
-25.319
-24.959
-24.614
-24.285
-23.97
-23.669
-23.382
-23.108
-22.847
-22.599
-22.364
-22.142
-21.931
-21.733
-21.548
-21.376
-21.218
-21.075
-20.947
-20.837
-20.746
-20.674
-20.625
-20.599
-20.597
-20.621
-20.673
-20.755
-20.867
-21.011
-21.188
-21.399
-21.643
-21.923
-22.237
-22.584
-22.964
-23.375
-23.816
-24.284
-24.775
-25.288
-25.82
-26.368
-26.93
-27.502
-28.08
-28.662
-29.244
-29.821
-30.388
-30.938
-31.462
-31.953
-32.407
-32.816
-33.176
-33.479
-33.722
-33.899
-34.009
-34.05
-34.018
-33.904
-33.701
-33.406
-33.024
-32.564
-32.034
-31.439
-30.786
-30.085
-29.351
-28.595
-27.819
-27.013
-26.168
-25.279
-24.356
-23.415
-22.473
-21.536
-20.597
-19.645
-18.681
-17.704
-16.711
-15.686
-14.605
-13.454
-12.248
-11.024
-9.818
-8.644
-7.502
-6.372
-5.245
-4.126
-3.027
-1.962
-0.929
0.072
1.03
1.918
2.695
3.339
3.862
4.307
4.7
5.04
5.312
5.475
5.501
5.377
5.078
4.569
3.812
2.771
1.423
-0.216
-2.141
-4.375
-6.951
-9.934
-13.364
-17.221
-21.512
-26.27
-31.415
-36.797
-42.17
-47.109
-51.266
-54.433
-56.272
-56.397
-54.747
-51.445
-46.93
-42.132
-37.735
-34.08
-31.763
-31.353
-32.808
-35.771
-39.213
-41.174
-40.165
-35.165
-24.672
-7.336
17.371
49.589
88.339
131.198
176.121
221.022
262.566
297.081
321.19
331.529
325.585
302.023
259.371
196.725
115.943
21.233
-83.943
-196.103
-312.762
-433.846
-553.081
-659.729
-744.295
-796.178
-813.23
-802.325
-769.538
-722.509
-666.092
-599.734
-525.402
-446.209
-365.509
-288.989
-220.912
-163.546
-118.316
-84.982
-62.095
-48.007
-41.028
-38.95
-39.552
-40.763
-40.555
-37.898
-32.79
-25.56
-16.76
-7.231
2.231
10.699
17.109
21.049
22.637
22.19
20.267
17.435
14.167
11.048
8.709
7.479
7.473
8.672
10.899
14.018
17.928
22.468
27.463
32.762
38.232
43.774
49.316
54.761
60.002
64.937
69.466
73.537
77.131
80.25
82.921
85.18
87.068
88.642
89.968
91.109
92.125
93.07
93.991
94.941
95.973
97.138
98.486
100.05
101.85
103.895
106.186
108.722
111.495
114.492
117.693
121.081
124.64
128.353
132.206
136.183
140.26
144.417
148.63
152.876
157.136
161.385
165.602
169.765
173.852
177.842
181.715
185.45
189.024
192.416
195.603
198.566
201.284
203.739
205.913
207.791
209.357
210.6
211.51
212.078
212.297
212.162
211.669
210.818
209.608
208.042
206.124
203.859
201.255
198.321
195.068
191.508
187.655
183.522
179.128
174.488
169.62
164.544
159.279
153.844
148.261
142.55
136.732
130.827
124.857
118.843
112.804
106.761
100.734
94.74
88.799
82.928
77.143
71.46
65.894
60.458
55.166
50.03
45.06
40.265
35.655
31.237
27.016
22.999
19.188
15.587
12.196
9.018
6.05
3.292
0.741
-1.606
-3.753
-5.705
-7.467
-9.045
-10.447
-11.679
-12.75
-13.666
-14.437
-15.072
-15.579
-15.966
-16.245
-16.423
-16.509
-16.514
-16.445
-16.313
-16.124
-15.889
-15.615
-15.309
-14.979
-14.632
-14.275
-13.912
-13.549
-13.191
-12.842
-12.507
-12.188
-11.888
-11.61
-11.356
-11.126
-10.923
-10.747
-10.599
-10.478
-10.385
-10.319
-10.281
-10.269
-10.282
-10.319
-10.38
-10.463
-10.567
-10.69
-10.83
-10.988
-11.16
-11.346
-11.545
-11.755
-11.976
-12.207
-12.447
-12.697
-12.955
-13.222
-13.499
-13.786
-14.084
-14.394
-14.718
-15.055
-15.409
-15.779
-16.168
-16.575
-17.003
-17.452
-17.923
-18.415
-18.929
-19.465
-20.023
-20.603
-21.204
-21.824
-22.464
-23.122
-23.795
-24.482
-25.182
-25.89
-26.605
-27.324
-28.043
-28.759
-29.468
-30.166
-30.849
-31.512
-32.149
-32.756
-33.327
-33.856
-34.34
-34.772
-35.149
-35.467
-35.722
-35.912
-36.036
-36.093
-36.083
-36.004
-35.857
-35.643
-35.364
-35.021
-34.617
-34.153
-33.635
-33.067
-32.456
-31.81
-31.133
-30.434
-29.718
-28.994
-28.268
-27.549
-26.842
-26.153
-25.492
-24.867
-24.291
-23.773
-23.315
-22.917
-22.578
-22.293
-22.054
-21.852
-21.667
-21.485
-21.295
-21.085
-20.852
-20.588
-20.28
-19.918
-19.485
-18.971
-18.379
-17.714
-16.982
-16.206
-15.407
-14.619
-13.9
-13.299
-12.856
-12.616
-12.619
-12.901
-13.511
-14.485
-15.844
-17.617
-19.823
-22.48
-25.614
-29.218
-33.264
-37.727
-42.586
-47.758
-53.084
-58.305
-63.045
-66.95
-69.754
-71.168
-70.823
-68.518
-64.353
-58.721
-52.401
-46.246
-40.776
-36.497
-34.178
-34.259
-36.576
-40.449
-44.366
-46.41
-45.296
-39.827
-28.043
-8.323
19.931
56.771
99.963
145.201
190.329
233.505
272.683
308.125
335.219
345.376
331.264
284.919
205.839
102.832
-13.601
-133.208
-250.755
-367.352
-484.604
-598.328
-699.009
-775.737
-818.373
-826.263
-806.903
-767.725
-717.408
-660.34
-595.669
-524.972
-450.453
-374.846
-303.011
-238.262
-182.103
-135.654
-99.104
-71.679
-52.351
-40.013
-33.078
-29.847
-28.849
-28.454
-27.177
-24.447
-20.219
-14.601
-8.105
-1.315
5.25
10.829
14.677
16.589
16.712
15.362
13.061
10.29
7.456
5.077
3.633
3.354
4.294
6.371
9.403
13.239
17.757
22.788
28.157
33.717
39.341
44.93
50.405
55.672
60.627
65.175
69.255
72.839
75.935
78.569
80.78
82.612
84.121
85.372
86.426
87.343
88.177
88.973
89.783
90.655
91.64
92.785
94.126
95.68
97.458
99.461
101.684
104.119
106.751
109.561
112.532
115.645
118.888
122.245
125.701
129.236
132.829
136.46
140.107
143.752
147.374
150.954
154.472
157.91
161.248
164.469
167.556
170.488
173.246
175.81
178.162
180.284
182.16
183.773
185.11
186.157
186.905
187.345
187.469
187.272
186.75
185.9
184.722
183.216
181.386
179.235
176.769
173.996
170.924
167.564
163.925
160.022
155.868
151.477
146.865
142.048
137.044
131.87
126.544
121.086
115.513
109.847
104.106
98.31
92.478
86.629
80.783
74.956
69.168
63.435
57.772
52.196
46.721
41.361
36.128
31.034
26.091
21.308
16.694
12.256
8.0
3.934
0.06
-3.618
-7.096
-10.375
-13.453
-16.331
-19.01
-21.493
-23.783
-25.884
-27.801
-29.54
-31.107
-32.508
-33.751
-34.845
-35.796
-36.614
-37.307
-37.885
-38.355
-38.729
-39.013
-39.219
-39.353
-39.427
-39.446
-39.421
-39.358
-39.266
-39.15
-39.018
-38.875
-38.727
-38.579
-38.436
-38.302
-38.18
-38.073
-37.985
-37.916
-37.869
-37.843
-37.841
-37.862
-37.907
-37.973
-38.062
-38.173
-38.303
-38.452
-38.617
-38.798
-38.993
-39.198
-39.413
-39.634
-39.861
-40.09
-40.321
-40.552
-40.782
-41.008
-41.23
-41.448
-41.66
-41.866
-42.067
-42.261
-42.451
-42.636
-42.818
-42.997
-43.176
-43.356
-43.538
-43.723
-43.914
-44.111
-44.316
-44.53
-44.753
-44.986
-45.229
-45.484
-45.75
-46.028
-46.318
-46.618
-46.929
-47.249
-47.577
-47.911
-48.249
-48.588
-48.926
-49.26
-49.587
-49.903
-50.204
-50.485
-50.742
-50.971
-51.164
-51.318
-51.426
-51.482
-51.483
-51.423
-51.298
-51.105
-50.839
-50.5
-50.087
-49.599
-49.034
-48.394
-47.678
-46.888
-46.026
-45.094
-44.092
-43.026
-41.899
-40.718
-39.488
-38.218
-36.914
-35.583
-34.233
-32.871
-31.507
-30.147
-28.799
-27.472
-26.174
-24.917
-23.713
-22.572
-21.497
-20.489
-19.546
-18.663
-17.834
-17.048
-16.288
-15.542
-14.796
-14.042
-13.276
-12.488
-11.667
-10.805
-9.881
-8.887
-7.828
-6.703
-5.529
-4.328
-3.122
-1.947
-0.86
0.092
0.864
1.407
1.684
1.657
1.276
0.511
-0.667
-2.286
-4.366
-6.93
-9.99
-13.539
-17.547
-21.992
-26.862
-32.051
-37.368
-42.526
-47.116
-50.775
-53.267
-54.27
-53.395
-50.607
-46.087
-40.306
-34.268
-28.718
-24.043
-20.91
-19.919
-21.007
-23.833
-27.391
-29.665
-29.192
-24.889
-15.049
1.646
25.771
57.559
95.904
138.376
182.908
227.002
266.797
298.543
318.567
323.154
310.011
277.768
225.015
152.642
64.364
-35.851
-143.948
-258.054
-378.507
-502.176
-620.669
-720.904
-789.71
-820.513
-815.907
-786.058
-741.417
-688.714
-630.293
-564.526
-491.595
-414.512
-337.255
-265.215
-202.28
-149.923
-108.851
-78.569
-57.611
-44.605
-37.962
-35.435
-34.979
-34.799
-33.215
-29.534
-23.874
-16.509
-7.998
0.792
9.103
16.099
20.914
23.33
23.555
21.955
19.096
15.547
11.787
8.37
5.858
4.526
4.459
5.617
7.831
10.971
14.932
19.567
24.709
30.214
35.949
41.801
47.683
53.492
59.116
64.451
69.4
73.909
77.959
81.559
84.739
87.535
89.99
92.158
94.102
95.884
97.562
99.19
100.816
102.489
104.26
106.175
108.282
110.608
113.168
115.965
118.996
122.253
125.725
129.397
133.244
137.246
141.385
145.642
150.001
154.443
158.943
163.479
168.027
172.562
177.064
181.51
185.876
190.14
194.281
198.275
202.104
205.745
209.177
212.376
215.321
217.992
220.369
222.434
224.171
225.564
226.6
227.268
227.56
227.47
226.99
226.119
224.856
223.201
221.156
218.728
215.921
212.745
209.21
205.327
201.111
196.576
191.738
186.617
181.23
175.599
169.745
163.69
157.457
151.07
144.553
137.93
131.227
124.466
117.674
110.874
104.09
97.344
90.659
84.056
77.556
71.176
64.937
58.853
52.942
47.216
41.688
36.371
31.274
26.406
21.773
17.382
13.237
9.34
5.694
2.297
-0.851
-3.752
-6.411
-8.833
-11.023
-12.99
-14.74
-16.283
-17.628
-18.786
-19.768
-20.584
-21.246
-21.766
-22.156
-22.427
-22.592
-22.661
-22.646
-22.558
-22.407
-22.204
-21.956
-21.674
-21.366
-21.038
-20.699
-20.354
-20.009
-19.669
-19.338
-19.02
-18.718
-18.434
-18.17
-17.927
-17.705
-17.504
-17.325
-17.166
-17.027
-16.905
-16.799
-16.708
-16.629
-16.561
-16.501
-16.448
-16.4
-16.356
-16.314
-16.273
-16.233
-16.194
-16.154
-16.115
-16.077
-16.04
-16.007
-15.978
-15.955
-15.94
-15.934
-15.94
-15.959
-15.994
-16.046
-16.117
-16.209
-16.324
-16.464
-16.63
-16.824
-17.046
-17.298
-17.579
-17.891
-18.231
-18.6
-18.996
-19.417
-19.861
-20.325
-20.806
-21.3
-21.802
-22.309
-22.814
-23.313
-23.798
-24.264
-24.705
-25.114
-25.485
-25.814
-26.093
-26.319
-26.488
-26.596
-26.642
-26.622
-26.534
-26.376
-26.149
-25.85
-25.48
-25.039
-24.527
-23.949
-23.307
-22.607
-21.855
-21.056
-20.216
-19.344
-18.445
-17.529
-16.604
-15.675
-14.753
-13.846
-12.965
-12.126
-11.338
-10.605
-9.929
-9.313
-8.752
-8.244
-7.78
-7.345
-6.925
-6.51
-6.092
-5.669
-5.231
-4.77
-4.272
-3.723
-3.114
-2.451
-1.739
-0.986
-0.211
0.567
1.312
1.97
2.489
2.829
2.944
2.791
2.331
1.512
0.296
-1.341
-3.426
-5.976
-9.006
-12.532
-16.555
-21.045
-25.985
-31.358
-37.054
-42.883
-48.574
-53.74
-58.051
-61.276
-63.089
-63.101
-61.215
-57.601
-52.723
-47.397
-42.227
-37.485
-33.671
-31.461
-31.023
-32.052
-33.628
-34.143
-32.36
-27.535
-18.5
-3.74
17.689
46.112
80.837
120.042
161.953
204.739
245.497
280.398
305.63
317.54
313.145
290.513
248.004
185.709
106.362
13.708
-88.533
-198.786
-316.824
-439.197
-557.546
-658.546
-728.824
-762.029
-760.621
-734.421
-694.076
-646.087
-592.441
-531.623
-463.688
-391.465
-318.87
-250.963
-191.26
-141.228
-101.727
-72.449
-52.211
-39.831
-33.914
-32.486
-33.688
-35.731
-36.757
-35.848
-32.916
-28.07
-21.728
-14.619
-7.402
-0.924
3.829
6.509
7.213
6.198
3.975
1.053
-2.142
-5.054
-7.117
-8.057
-7.783
-6.344
-3.918
-0.631
3.41
8.051
13.124
18.483
24.007
29.606
35.199
40.691
45.969
50.925
55.483
59.612
63.3
66.564
69.435
71.942
74.136
76.074
77.811
79.401
80.891
82.325
83.748
85.211
86.762
88.451
90.315
92.372
94.634
97.104
99.778
102.649
105.704
108.921
112.286
115.781
119.392
123.106
126.908
130.777
134.695
138.641
142.594
146.535
150.445
154.305
158.095
161.797
165.393
168.866
172.198
175.37
178.363
181.157
183.735
186.078
188.17
189.995
191.538
192.787
193.731
194.36
194.667
194.645
194.29
193.6
192.572
191.208
189.51
187.481
185.127
182.454
179.471
176.188
172.615
168.765
164.652
160.29
155.695
150.883
145.872
140.679
135.323
129.823
124.199
118.469
112.655
106.776
100.852
94.903
88.948
83.005
77.094
71.231
65.434
59.718
54.098
48.588
43.202
37.951
32.848
27.902
23.122
18.516
14.091
9.853
5.807
1.957
-1.696
-5.149
-8.401
-11.452
-14.305
-16.96
-19.42
-21.689
-23.772
-25.672
-27.397
-28.951
-30.343
-31.579
-32.666
-33.612
-34.426
-35.114
-35.686
-36.147
-36.508
-36.775
-36.955
-37.057
-37.087
-37.053
-36.96
-36.815
-36.624
-36.392
-36.125
-35.826
-35.501
-35.154
-34.788
-34.408
-34.016
-33.616
-33.211
-32.803
-32.395
-31.989
-31.587
-31.189
-30.798
-30.414
-30.039
-29.673
-29.318
-28.975
-28.645
-28.33
-28.032
-27.752
-27.492
-27.253
-27.037
-26.845
-26.681
-26.545
-26.439
-26.366
-26.327
-26.325
-26.361
-26.435
-26.549
-26.704
-26.899
-27.134
-27.408
-27.718
-28.065
-28.445
-28.859
-29.303
-29.778
-30.282
-30.813
-31.371
-31.953
-32.556
-33.175
-33.802
-34.431
-35.054
-35.663
-36.251
-36.81
-37.333
-37.815
-38.251
-38.636
-38.964
-39.226
-39.412
-39.514
-39.528
-39.455
-39.297
-39.062
-38.765
-38.421
-38.045
-37.65
-37.242
-36.819
-36.373
-35.895
-35.374
-34.808
-34.203
-33.564
-32.896
-32.196
-31.457
-30.66
-29.781
-28.792
-27.659
-26.365
-24.904
-23.287
-21.542
-19.71
-17.838
-15.957
-14.081
-12.216
-10.368
-8.554
-6.795
-5.131
-3.6
-2.249
-1.133
-0.289
0.257
0.5
0.465
0.194
-0.26
-0.868
-1.631
-2.562
-3.671
-4.956
-6.411
-8.02
-9.782
-11.687
-13.708
-15.83
-18.033
-20.306
-22.676
-25.194
-27.918
-30.876
-34.073
-37.468
-41.061
-44.906
-48.954
-53.061
-56.978
-60.312
-62.743
-64.089
-64.071
-62.323
-58.83
-53.775
-47.645
-41.507
-36.17
-32.083
-29.95
-30.341
-33.12
-37.865
-43.461
-47.73
-49.019
-46.047
-36.927
-20.259
4.496
37.485
77.474
121.828
168.238
213.967
254.96
287.301
307.294
311.423
297.559
264.727
212.167
140.229
52.202
-47.724
-155.957
-267.4
-379.399
-489.409
-589.157
-672.395
-732.883
-764.529
-770.641
-754.904
-720.575
-673.686
-615.424
-547.355
-473.58
-396.903
-321.564
-252.008
-190.873
-140.053
-100.505
-71.889
-52.978
-42.263
-38.023
-38.025
-40.164
-42.566
-43.464
-42.068
-38.438
-32.834
-25.814
-18.234
-10.851
-4.501
-0.043
2.292
2.704
1.521
-0.711
-3.45
-6.244
-8.562
-9.909
-10.066
-8.996
-6.771
-3.576
0.45
5.185
10.462
16.11
21.978
27.936
33.886
39.744
45.411
50.781
55.759
60.281
64.324
67.891
71.004
73.698
76.01
77.992
79.706
81.211
82.565
83.822
85.029
86.235
87.491
88.847
90.35
92.033
93.913
96.002
98.301
100.806
103.513
106.408
109.475
112.698
116.063
119.556
123.165
126.875
130.666
134.52
138.415
142.334
146.255
150.159
154.026
157.837
161.571
165.208
168.731
172.119
175.351
178.408
181.267
183.909
186.316
188.47
190.354
191.952
193.251
194.239
194.906
195.243
195.244
194.903
194.217
193.183
191.802
190.076
188.007
185.601
182.865
179.807
176.437
172.767
168.81
164.581
160.096
155.371
150.426
145.278
139.947
134.454
128.82
123.065
117.211
111.279
105.29
99.266
93.228
87.195
81.187
75.223
69.32
63.497
57.769
52.152
46.661
41.309
36.109
31.072
26.209
21.529
17.04
12.749
8.663
4.784
1.118
-2.334
-5.572
-8.594
-11.403
-14.0
-16.388
-18.572
-20.556
-22.346
-23.948
-25.369
-26.615
-27.695
-28.617
-29.387
-30.016
-30.511
-30.879
-31.131
-31.274
-31.317
-31.267
-31.134
-30.925
-30.648
-30.311
-29.921
-29.485
-29.011
-28.504
-27.971
-27.418
-26.849
-26.271
-25.686
-25.099
-24.515
-23.935
-23.363
-22.803
-22.255
-21.721
-21.205
-20.706
-20.227
-19.769
-19.334
-18.921
-18.534
-18.172
-17.837
-17.53
-17.253
-17.005
-16.788
-16.602
-16.448
-16.327
-16.239
-16.184
-16.163
-16.176
-16.224
-16.305
-16.421
-16.571
-16.755
-16.973
-17.224
-17.508
-17.823
-18.17
-18.546
-18.951
-19.383
-19.841
-20.323
-20.826
-21.348
-21.887
-22.439
-23.001
-23.569
-24.139
-24.709
-25.272
-25.826
-26.366
-26.888
-27.388
-27.861
-28.304
-28.712
-29.081
-29.409
-29.69
-29.921
-30.101
-30.226
-30.294
-30.304
-30.255
-30.147
-29.982
-29.76
-29.483
-29.153
-28.772
-28.343
-27.87
-27.356
-26.805
-26.22
-25.608
-24.974
-24.328
-23.675
-23.022
-22.378
-21.75
-21.144
-20.569
-20.03
-19.532
-19.082
-18.685
-18.349
-18.084
-17.894
-17.781
-17.741
-17.77
-17.859
-18.002
-18.181
-18.378
-18.574
-18.753
-18.902
-19.013
-19.071
-19.062
-18.972
-18.78
-18.476
-18.061
-17.537
-16.916
-16.214
-15.452
-14.674
-13.937
-13.295
-12.799
-12.499
-12.439
-12.676
-13.268
-14.258
-15.68
-17.555
-19.908
-22.759
-26.119
-29.995
-34.343
-39.113
-44.272
-49.691
-55.17
-60.437
-65.076
-68.683
-70.996
-71.671
-70.335
-66.988
-61.791
-55.162
-48.046
-41.175
-35.042
-30.442
-28.018
-27.724
-29.257
-31.701
-33.213
-32.381
-27.935
-17.978
-1.103
23.236
55.119
93.433
135.763
179.749
222.415
259.431
286.691
300.573
297.529
275.168
232.506
168.946
86.278
-10.577
-117.726
-231.48
-348.665
-468.564
-584.977
-687.516
-766.697
-812.407
-823.359
-806.628
-768.906
-718.499
-659.747
-591.912
-516.929
-437.477
-356.983
-281.206
-214.131
-157.868
-113.864
-81.876
-60.533
-48.314
-43.447
-43.569
-46.381
-49.733
-51.522
-50.676
-47.129
-41.134
-33.269
-24.446
-15.531
-7.511
-1.454
2.245
3.702
3.234
1.415
-1.173
-4.032
-6.565
-8.196
-8.65
-7.849
-5.857
-2.865
0.981
5.558
10.698
16.224
21.986
27.858
33.743
39.553
45.187
50.53
55.477
59.957
63.942
67.427
70.433
72.995
75.153
76.96
78.481
79.777
80.908
81.931
82.894
83.853
84.864
85.981
87.257
88.731
90.426
92.356
94.525
96.931
99.57
102.429
105.491
108.741
112.163
115.745
119.473
123.331
127.301
131.361
135.492
139.67
143.876
148.089
152.289
156.454
160.563
164.596
168.534
172.355
176.036
179.557
182.895
186.027
188.934
191.596
193.994
196.11
197.929
199.437
200.621
201.472
201.98
202.138
201.94
201.384
200.468
199.192
197.558
195.571
193.236
190.56
187.554
184.228
180.594
176.667
172.461
167.994
163.283
158.345
153.202
147.872
142.378
136.738
130.976
125.114
119.172
113.172
107.137
101.088
95.045
89.029
83.06
77.156
71.335
65.615
60.012
54.541
49.216
44.051
39.057
34.245
29.623
25.202
20.986
16.982
13.194
9.624
6.276
3.149
0.243
-2.444
-4.914
-7.171
-9.22
-11.065
-12.712
-14.17
-15.443
-16.542
-17.474
-18.247
-18.872
-19.357
-19.712
-19.948
-20.073
-20.097
-20.031
-19.884
-19.664
-19.381
-19.044
-18.661
-18.24
-17.789
-17.314
-16.823
-16.32
-15.812
-15.304
-14.799
-14.303
-13.817
-13.346
-12.891
-12.455
-12.04
-11.646
-11.275
-10.929
-10.606
-10.309
-10.036
-9.788
-9.564
-9.364
-9.188
-9.036
-8.906
-8.799
-8.715
-8.652
-8.612
-8.593
-8.596
-8.621
-8.668
-8.737
-8.829
-8.945
-9.085
-9.249
-9.441
-9.659
-9.906
-10.182
-10.488
-10.825
-11.194
-11.595
-12.028
-12.493
-12.991
-13.52
-14.081
-14.672
-15.294
-15.943
-16.62
-17.321
-18.044
-18.787
-19.547
-20.319
-21.101
-21.888
-22.676
-23.461
-24.239
-25.003
-25.75
-26.474
-27.17
-27.832
-28.454
-29.032
-29.56
-30.035
-30.452
-30.809
-31.101
-31.329
-31.49
-31.584
-31.611
-31.57
-31.464
-31.293
-31.058
-30.764
-30.41
-30.001
-29.541
-29.036
-28.491
-27.912
-27.305
-26.676
-26.032
-25.382
-24.732
-24.091
-23.464
-22.855
-22.272
-21.721
-21.213
-20.754
-20.344
-19.983
-19.669
-19.4
-19.172
-18.974
-18.789
-18.598
-18.385
-18.137
-17.849
-17.513
-17.12
-16.657
-16.107
-15.466
-14.736
-13.927
-13.044
-12.096
-11.095
-10.082
-9.116
-8.259
-7.583
-7.135
-6.954
-7.083
-7.551
-8.403
-9.699
-11.473
-13.756
-16.577
-19.936
-23.873
-28.46
-33.613
-39.126
-44.703
-49.906
-54.394
-57.981
-60.334
-61.032
-59.969
-57.294
-53.51
-49.522
-45.952
-43.012
-41.124
-40.883
-42.382
-45.262
-48.492
-50.264
-49.207
-44.576
-35.232
-19.641
3.065
33.159
69.88
111.114
155.005
199.929
243.068
280.478
308.351
323.051
321.62
302.367
263.596
203.897
124.62
30.161
-75.703
-189.283
-307.676
-430.641
-551.864
-660.166
-745.719
-797.866
-814.399
-802.475
-768.565
-720.542
-663.52
-597.01
-522.965
-444.473
-364.827
-289.713
-223.337
-167.85
-124.557
-93.083
-71.899
-59.314
-53.587
-52.453
-53.671
-55.195
-55.072
-52.354
-47.09
-39.641
-30.589
-20.814
-11.15
-2.532
4.003
8.075
9.818
9.554
7.838
5.234
2.223
-0.609
-2.644
-3.566
-3.264
-1.759
0.778
4.218
8.462
13.351
18.714
24.402
30.284
36.262
42.262
48.184
53.92
59.362
64.409
69.006
73.129
76.775
79.969
82.738
85.123
87.177
88.961
90.536
91.961
93.287
94.561
95.834
97.159
98.587
100.168
101.935
103.907
106.096
108.505
111.132
113.971
117.011
120.235
123.626
127.17
130.854
134.666
138.59
142.607
146.697
150.841
155.018
159.209
163.394
167.554
171.668
175.717
179.682
183.543
187.281
190.874
194.3
197.54
200.57
203.373
205.928
208.217
210.224
211.933
213.331
214.407
215.151
215.553
215.608
215.311
214.659
213.651
212.287
210.57
208.504
206.095
203.35
200.279
196.892
193.202
189.221
184.966
180.451
175.694
170.714
165.529
160.158
154.624
148.946
143.147
137.249
131.273
125.242
119.177
113.102
107.036
101.0
95.015
89.099
83.271
77.549
71.947
66.483
61.169
56.019
51.045
46.257
41.664
37.275
33.095
29.131
25.388
21.867
18.571
15.501
12.656
10.034
7.634
5.451
3.48
1.716
0.152
-1.219
-2.406
-3.416
-4.26
-4.947
-5.487
-5.891
-6.169
-6.332
-6.39
-6.354
-6.234
-6.039
-5.78
-5.465
-5.103
-4.702
-4.27
-3.815
-3.343
-2.861
-2.373
-1.886
-1.405
-0.933
-0.474
-0.032
0.39
0.79
1.167
1.518
1.843
2.14
2.41
2.652
2.866
3.053
3.214
3.35
3.461
3.549
3.614
3.658
3.682
3.685
3.668
3.632
3.577
3.501
3.406
3.289
3.151
2.99
2.805
2.595
2.359
2.095
1.802
1.479
1.125
0.739
0.32
-0.133
-0.62
-1.14
-1.695
-2.283
-2.904
-3.557
-4.241
-4.956
-5.699
-6.47
-7.267
-8.086
-8.925
-9.782
-10.652
-11.532
-12.417
-13.303
-14.184
-15.057
-15.914
-16.751
-17.561
-18.339
-19.079
-19.775
-20.422
-21.014
-21.547
-22.017
-22.419
-22.752
-23.013
-23.202
-23.317
-23.36
-23.332
-23.234
-23.069
-22.839
-22.55
-22.203
-21.804
-21.356
-20.866
-20.338
-19.781
-19.2
-18.605
-18.003
-17.402
-16.81
-16.239
-15.696
-15.191
-14.728
-14.313
-13.952
-13.654
-13.428
-13.277
-13.204
-13.206
-13.283
-13.431
-13.647
-13.919
-14.227
-14.55
-14.873
-15.186
-15.482
-15.756
-15.996
-16.187
-16.31
-16.361
-16.342
-16.26
-16.114
-15.905
-15.646
-15.369
-15.138
-15.018
-15.06
-15.305
-15.775
-16.498
-17.523
-18.909
-20.714
-22.978
-25.725
-28.962
-32.736
-37.13
-42.145
-47.647
-53.366
-58.919
-63.974
-68.33
-71.739
-73.82
-74.321
-73.26
-70.987
-68.252
-65.767
-63.889
-62.908
-63.305
-65.383
-68.997
-73.469
-77.348
-78.981
-77.241
-71.12
-59.271
-40.522
-14.28
19.353
59.083
102.844
148.715
194.345
236.354
270.904
294.209
302.901
294.416
266.945
219.226
150.942
64.389
-35.614
-144.964
-259.826
-377.299
-496.52
-611.104
-710.954
-787.012
-829.505
-837.415
-817.847
-777.44
-724.699
-664.261
-595.538
-520.484
-441.64
-362.228
-287.897
-222.492
-167.843
-125.171
-94.068
-73.09
-60.814
-55.539
-54.909
-56.706
-58.908
-59.564
-57.754
-53.481
-46.978
-38.813
-29.904
-21.092
-13.335
-7.632
-4.309
-3.22
-4.039
-6.188
-9.086
-12.229
-15.019
-16.891
-17.578
-17.005
-15.231
-12.44
-8.767
-4.332
0.701
6.162
11.9
17.791
23.736
29.641
35.4
40.894
46.011
50.675
54.856
58.544
61.758
64.533
66.903
68.924
70.658
72.164
73.502
74.727
75.888
77.039
78.237
79.534
80.987
82.633
84.494
86.583
88.903
91.449
94.216
97.188
100.346
103.672
107.151
110.767
114.505
118.349
122.279
126.273
130.308
134.364
138.419
142.453
146.445
150.374
154.219
157.962
161.583
165.061
168.377
171.508
174.432
177.131
179.584
181.774
183.682
185.294
186.596
187.575
188.224
188.533
188.496
188.109
187.369
186.275
184.83
183.035
180.895
178.416
175.607
172.477
169.037
165.299
161.277
156.987
152.444
147.665
142.669
137.475
132.102
126.571
120.902
115.117
109.236
103.281
97.273
91.233
85.183
79.141
73.128
67.162
61.262
55.444
49.724
44.119
38.641
33.303
28.118
23.096
18.247
13.579
9.1
4.815
0.73
-3.151
-6.826
-10.292
-13.549
-16.597
-19.438
-22.074
-24.508
-26.743
-28.786
-30.64
-32.312
-33.809
-35.137
-36.305
-37.321
-38.193
-38.928
-39.537
-40.028
-40.41
-40.691
-40.88
-40.986
-41.017
-40.98
-40.884
-40.737
-40.544
-40.314
-40.053
-39.765
-39.459
-39.137
-38.807
-38.471
-38.134
-37.8
-37.472
-37.153
-36.845
-36.552
-36.275
-36.017
-35.778
-35.561
-35.367
-35.196
-35.05
-34.929
-34.833
-34.764
-34.722
-34.707
-34.719
-34.76
-34.829
-34.928
-35.057
-35.216
-35.406
-35.627
-35.882
-36.169
-36.49
-36.846
-37.238
-37.666
-38.13
-38.632
-39.173
-39.751
-40.367
-41.021
-41.712
-42.44
-43.202
-43.999
-44.827
-45.685
-46.572
-47.483
-48.418
-49.373
-50.344
-51.328
-52.322
-53.32
-54.319
-55.314
-56.3
-57.27
-58.222
-59.148
-60.044
-60.904
-61.722
-62.493
-63.212
-63.873
-64.472
-65.003
-65.464
-65.849
-66.158
-66.386
-66.535
-66.602
-66.589
-66.497
-66.328
-66.084
-65.77
-65.388
-64.943
-64.441
-63.885
-63.283
-62.639
-61.962
-61.257
-60.535
-59.804
-59.07
-58.344
-57.633
-56.948
-56.299
-55.692
-55.133
-54.626
-54.176
-53.791
-53.478
-53.243
-53.083
-52.997
-52.985
-53.045
-53.174
-53.361
-53.585
-53.829
-54.075
-54.314
-54.544
-54.759
-54.947
-55.096
-55.192
-55.232
-55.222
-55.166
-55.056
-54.893
-54.689
-54.474
-54.31
-54.26
-54.371
-54.681
-55.218
-56.003
-57.076
-58.487
-60.276
-62.477
-65.115
-68.193
-71.765
-75.927
-80.637
-85.735
-90.937
-95.793
-99.935
-103.153
-105.108
-105.386
-103.931
-100.899
-96.788
-92.66
-89.283
-87.038
-86.562
-88.387
-92.381
-98.136
-104.513
-109.328
-110.943
-108.078
-98.866
-81.894
-56.525
-22.486
19.076
65.631
114.987
164.429
209.848
247.301
272.949
282.853
274.539
246.66
197.793
128.87
43.987
-53.591
-160.33
-273.054
-391.616
-510.05
-617.2
-703.094
-756.658
-775.391
-766.705
-737.115
-694.191
-642.633
-581.364
-511.775
-436.891
-359.76
-285.303
-217.597
-158.858
-110.412
-72.652
-44.791
-25.315
-13.071
-6.688
-4.145
-3.722
-3.701
-2.382
0.754
5.504
11.77
19.122
26.825
34.304
40.755
45.319
47.842
48.548
47.751
45.985
43.769
41.523
39.759
38.968
39.356
40.958
43.702
47.402
51.913
57.115
62.842
68.919
75.2
81.555
87.871
94.054
99.994
105.572
110.708
115.352
119.487
123.126
126.296
129.032
131.384
133.414
135.181
136.744
138.159
139.475
140.749
142.037
143.395
144.879
146.529
148.373
150.428
152.7
155.189
157.892
160.797
163.887
167.148
170.567
174.132
177.831
181.651
185.573
189.579
193.65
197.765
201.906
206.054
210.189
214.291
218.341
222.321
226.212
229.994
233.644
237.142
240.465
243.59
246.497
249.165
251.574
253.705
255.541
257.067
258.268
259.134
259.651
259.812
259.608
259.034
258.085
256.76
255.058
252.981
250.531
247.714
244.537
241.009
237.14
232.942
228.429
223.616
218.519
213.155
207.544
201.705
195.658
189.427
183.032
176.496
169.844
163.097
156.28
149.416
142.528
135.639
128.77
121.944
115.181
108.502
101.926
95.471
89.155
82.994
77.004
71.198
65.588
60.188
55.005
50.05
45.33
40.85
36.616
32.631
28.897
25.415
22.185
19.204
16.47
13.978
11.724
9.702
7.904
6.322
4.949
3.775
2.79
1.984
1.347
0.867
0.534
0.335
0.261
0.298
0.437
0.666
0.973
1.348
1.781
2.261
2.779
3.325
3.89
4.465
5.043
5.616
6.177
6.718
7.235
7.722
8.175
8.588
8.959
9.284
9.56
9.786
9.959
10.079
10.144
10.154
10.108
10.006
9.85
9.639
9.374
9.056
8.687
8.268
7.801
7.288
6.731
6.133
5.495
4.821
4.114
3.377
2.614
1.829
1.025
0.207
-0.622
-1.456
-2.293
-3.127
-3.956
-4.774
-5.578
-6.363
-7.126
-7.863
-8.569
-9.24
-9.872
-10.461
-11.004
-11.498
-11.937
-12.32
-12.642
-12.901
-13.094
-13.22
-13.275
-13.259
-13.171
-13.011
-12.78
-12.479
-12.11
-11.678
-11.187
-10.641
-10.046
-9.408
-8.733
-8.027
-7.296
-6.549
-5.79
-5.027
-4.268
-3.519
-2.79
-2.09
-1.425
-0.805
-0.235
0.276
0.718
1.085
1.374
1.58
1.7
1.729
1.657
1.482
1.207
0.836
0.374
-0.171
-0.792
-1.474
-2.194
-2.929
-3.658
-4.362
-5.035
-5.667
-6.24
-6.738
-7.144
-7.448
-7.658
-7.783
-7.822
-7.789
-7.702
-7.597
-7.54
-7.594
-7.813
-8.252
-8.956
-9.963
-11.312
-13.038
-15.184
-17.782
-20.843
-24.381
-28.396
-32.89
-37.892
-43.316
-48.959
-54.537
-59.644
-63.906
-67.07
-68.783
-68.633
-66.548
-62.665
-57.44
-51.839
-46.6
-42.227
-39.528
-39.204
-41.33
-45.606
-50.924
-55.315
-57.352
-55.459
-47.331
-31.239
-6.056
27.724
67.015
109.46
153.844
199.154
245.609
288.202
317.451
324.96
301.67
246.28
165.898
67.749
-38.749
-147.306
-257.017
-365.38
-469.067
-563.527
-642.248
-700.828
-737.406
-751.912
-745.787
-720.689
-678.909
-623.72
-558.909
-488.787
-417.325
-347.481
-282.042
-223.52
-173.65
-133.602
-103.505
-82.251
-68.483
-60.898
-57.719
-57.161
-57.489
-56.89
-54.443
-50.108
-44.056
-36.689
-28.677
-20.635
-13.369
-7.85
-4.448
-3.076
-3.481
-5.175
-7.671
-10.568
-13.339
-15.401
-16.45
-16.372
-15.184
-13.049
-10.089
-6.395
-2.11
2.606
7.613
12.79
18.044
23.312
28.509
33.539
38.31
42.729
46.748
50.351
53.541
56.346
58.798
60.935
62.808
64.474
65.989
67.407
68.776
70.133
71.524
72.993
74.586
76.345
78.3
80.464
82.845
85.44
88.243
91.248
94.437
97.791
101.291
104.919
108.659
112.497
116.415
120.392
124.406
128.436
132.459
136.455
140.403
144.283
148.072
151.752
155.302
158.705
161.942
164.991
167.834
170.45
172.822
174.932
176.764
178.303
179.534
180.448
181.033
181.282
181.19
180.752
179.965
178.828
177.344
175.513
173.342
170.836
168.002
164.85
161.39
157.633
153.595
149.288
144.728
139.932
134.917
129.702
124.306
118.748
113.048
107.228
101.307
95.308
89.25
83.154
77.043
70.935
64.851
58.809
52.829
46.928
41.122
35.428
29.859
24.43
19.153
14.04
9.102
4.347
-0.215
-4.579
-8.736
-12.683
-16.416
-19.932
-23.229
-26.306
-29.163
-31.803
-34.226
-36.435
-38.436
-40.233
-41.831
-43.237
-44.457
-45.5
-46.373
-47.085
-47.644
-48.06
-48.341
-48.498
-48.539
-48.473
-48.31
-48.06
-47.73
-47.329
-46.867
-46.35
-45.787
-45.185
-44.551
-43.892
-43.214
-42.523
-41.824
-41.123
-40.425
-39.734
-39.053
-38.387
-37.737
-37.107
-36.499
-35.915
-35.356
-34.823
-34.318
-33.842
-33.394
-32.976
-32.588
-32.231
-31.903
-31.605
-31.338
-31.101
-30.894
-30.717
-30.57
-30.453
-30.366
-30.309
-30.282
-30.285
-30.316
-30.377
-30.466
-30.583
-30.727
-30.896
-31.09
-31.308
-31.55
-31.814
-32.098
-32.402
-32.724
-33.061
-33.413
-33.776
-34.148
-34.526
-34.908
-35.288
-35.665
-36.035
-36.394
-36.738
-37.063
-37.364
-37.638
-37.881
-38.087
-38.253
-38.376
-38.453
-38.481
-38.458
-38.382
-38.254
-38.073
-37.841
-37.556
-37.221
-36.837
-36.405
-35.928
-35.409
-34.85
-34.254
-33.626
-32.971
-32.295
-31.604
-30.903
-30.2
-29.5
-28.811
-28.141
-27.497
-26.881
-26.3
-25.759
-25.264
-24.825
-24.447
-24.129
-23.87
-23.667
-23.516
-23.412
-23.345
-23.294
-23.242
-23.172
-23.07
-22.934
-22.756
-22.527
-22.233
-21.861
-21.402
-20.864
-20.252
-19.569
-18.827
-18.041
-17.246
-16.503
-15.874
-15.42
-15.193
-15.235
-15.579
-16.257
-17.307
-18.775
-20.7
-23.106
-26.023
-29.456
-33.424
-37.986
-43.062
-48.45
-53.87
-58.892
-63.15
-66.432
-68.415
-68.707
-67.263
-64.238
-60.062
-55.688
-51.781
-48.635
-46.832
-46.88
-48.688
-51.932
-55.629
-57.842
-57.187
-52.665
-42.68
-25.956
-1.913
29.702
67.827
110.072
154.398
198.443
238.557
270.984
292.014
298.124
287.079
257.571
208.543
139.927
54.413
-43.064
-148.316
-257.445
-368.305
-480.907
-589.102
-683.002
-753.672
-791.192
-795.125
-773.39
-732.76
-681.926
-625.344
-561.754
-492.626
-419.967
-346.437
-277.318
-216.233
-164.802
-124.102
-93.715
-72.247
-58.48
-51.011
-47.799
-46.931
-46.645
-45.196
-41.783
-36.451
-29.394
-21.081
-12.298
-3.737
3.779
9.328
12.618
13.796
13.163
11.242
8.561
5.561
2.784
0.798
-0.111
0.156
1.567
3.958
7.202
11.202
15.81
20.864
26.221
31.755
37.365
42.976
48.489
53.802
58.816
63.437
67.614
71.33
74.591
77.427
79.874
81.972
83.775
85.345
86.74
88.018
89.232
90.425
91.647
92.948
94.375
95.975
97.779
99.802
102.052
104.528
107.225
110.136
113.246
116.536
119.988
123.586
127.314
131.158
135.102
139.123
143.202
147.316
151.444
155.566
159.66
163.704
167.679
171.562
175.335
178.977
182.467
185.786
188.911
191.823
194.5
196.925
199.079
200.946
202.512
203.762
204.686
205.275
205.521
205.418
204.962
204.151
202.984
201.463
199.59
197.37
194.809
191.916
188.699
185.17
181.34
177.225
172.839
168.198
163.32
158.224
152.928
147.453
141.819
136.046
130.157
124.173
118.115
112.005
105.865
99.714
93.575
87.467
81.408
75.418
69.514
63.713
58.031
52.482
47.08
41.838
36.769
31.882
27.187
22.693
18.408
14.336
10.484
6.855
3.452
0.276
-2.672
-5.394
-7.891
-10.165
-12.221
-14.063
-15.696
-17.127
-18.363
-19.411
-20.279
-20.976
-21.511
-21.893
-22.131
-22.236
-22.218
-22.085
-21.848
-21.517
-21.102
-20.613
-20.058
-19.448
-18.791
-18.096
-17.372
-16.627
-15.869
-15.104
-14.34
-13.584
-12.84
-12.115
-11.414
-10.741
-10.1
-9.494
-8.927
-8.401
-7.918
-7.482
-7.092
-6.751
-6.459
-6.218
-6.026
-5.886
-5.796
-5.757
-5.768
-5.828
-5.938
-6.095
-6.3
-6.551
-6.848
-7.188
-7.57
-7.992
-8.453
-8.951
-9.482
-10.045
-10.638
-11.258
-11.903
-12.57
-13.257
-13.96
-14.678
-15.407
-16.143
-16.884
-17.626
-18.364
-19.096
-19.817
-20.524
-21.212
-21.877
-22.515
-23.121
-23.69
-24.218
-24.701
-25.132
-25.507
-25.824
-26.077
-26.263
-26.381
-26.427
-26.4
-26.301
-26.129
-25.885
-25.569
-25.182
-24.725
-24.201
-23.612
-22.958
-22.245
-21.476
-20.657
-19.796
-18.899
-17.975
-17.03
-16.073
-15.112
-14.154
-13.209
-12.281
-11.378
-10.513
-9.694
-8.936
-8.248
-7.634
-7.096
-6.633
-6.238
-5.905
-5.621
-5.365
-5.125
-4.89
-4.652
-4.407
-4.148
-3.861
-3.533
-3.149
-2.697
-2.178
-1.593
-0.945
-0.259
0.436
1.104
1.689
2.144
2.433
2.519
2.366
1.935
1.182
0.063
-1.453
-3.389
-5.762
-8.592
-11.902
-15.683
-19.918
-24.551
-29.528
-34.849
-40.42
-46.054
-51.478
-56.283
-60.092
-62.663
-63.661
-62.674
-59.652
-54.762
-48.458
-41.771
-35.496
-30.091
-26.331
-24.893
-25.757
-28.622
-32.482
-35.261
-35.393
-31.63
-22.051
-5.163
19.726
52.924
93.333
138.429
185.945
233.073
275.608
309.395
330.418
334.827
320.148
285.057
228.603
151.139
56.168
-51.729
-168.557
-288.751
-409.184
-526.743
-632.426
-719.536
-781.515
-812.174
-815.272
-794.893
-754.877
-702.129
-638.279
-565.24
-487.408
-407.528
-329.91
-259.153
-197.736
-147.246
-108.309
-80.22
-61.534
-50.745
-46.085
-45.215
-46.06
-46.841
-45.937
-42.766
-37.514
-30.456
-22.173
-13.561
-5.375
1.558
6.395
8.961
9.491
8.325
6.001
3.061
-0.054
-2.815
-4.684
-5.42
-4.964
-3.366
-0.803
2.595
6.729
11.447
16.583
21.993
27.547
33.145
38.718
44.175
49.418
54.355
58.894
62.989
66.631
69.83
72.614
75.019
77.085
78.865
80.424
81.821
83.115
84.355
85.583
86.847
88.193
89.667
91.312
93.157
95.214
97.489
99.981
102.685
105.592
108.689
111.953
115.367
118.914
122.579
126.347
130.203
134.124
138.091
142.083
146.077
150.056
153.999
157.884
161.693
165.404
168.999
172.459
175.766
178.898
181.837
184.561
187.053
189.295
191.271
192.965
194.362
195.451
196.222
196.667
196.779
196.552
195.984
195.072
193.816
192.218
190.281
188.01
185.41
182.49
179.259
175.728
171.909
167.815
163.461
158.863
154.037
149.002
143.776
138.379
132.829
127.148
121.356
115.474
109.523
103.524
97.497
91.462
85.44
79.45
73.509
67.636
61.848
56.16
50.588
45.145
39.846
34.702
29.725
24.925
20.312
15.893
11.675
7.665
3.866
0.282
-3.084
-6.232
-9.161
-11.872
-14.367
-16.649
-18.722
-20.59
-22.26
-23.737
-25.029
-26.142
-27.085
-27.866
-28.493
-28.975
-29.321
-29.539
-29.64
-29.632
-29.523
-29.324
-29.042
-28.687
-28.267
-27.79
-27.265
-26.698
-26.098
-25.471
-24.824
-24.163
-23.494
-22.822
-22.152
-21.488
-20.835
-20.196
-19.574
-18.973
-18.394
-17.839
-17.311
-16.812
-16.342
-15.903
-15.496
-15.123
-14.783
-14.479
-14.212
-13.98
-13.787
-13.631
-13.513
-13.433
-13.393
-13.392
-13.429
-13.506
-13.622
-13.777
-13.97
-14.202
-14.47
-14.775
-15.116
-15.49
-15.898
-16.337
-16.806
-17.303
-17.826
-18.373
-18.943
-19.531
-20.136
-20.753
-21.379
-22.011
-22.644
-23.274
-23.895
-24.505
-25.097
-25.668
-26.212
-26.724
-27.199
-27.633
-28.021
-28.359
-28.641
-28.866
-29.029
-29.128
-29.16
-29.125
-29.022
-28.852
-28.615
-28.313
-27.946
-27.517
-27.03
-26.487
-25.892
-25.247
-24.558
-23.831
-23.071
-22.286
-21.483
-20.669
-19.852
-19.039
-18.239
-17.46
-16.71
-15.993
-15.315
-14.681
-14.099
-13.579
-13.126
-12.739
-12.418
-12.157
-11.954
-11.802
-11.691
-11.599
-11.509
-11.402
-11.265
-11.094
-10.879
-10.612
-10.273
-9.843
-9.315
-8.689
-7.973
-7.176
-6.303
-5.368
-4.41
-3.489
-2.666
-2.009
-1.56
-1.355
-1.439
-1.843
-2.624
-3.843
-5.539
-7.749
-10.49
-13.759
-17.585
-22.016
-26.98
-32.298
-37.697
-42.788
-47.26
-50.902
-53.417
-54.422
-53.681
-51.229
-47.414
-42.918
-38.398
-34.209
-30.731
-28.583
-28.164
-29.369
-31.569
-33.455
-33.51
-30.722
-23.986
-11.655
7.496
34.031
67.76
107.212
150.341
195.236
239.098
277.828
307.383
323.916
324.023
305.559
266.833
206.528
126.176
30.3
-76.474
-189.667
-307.546
-430.522
-554.17
-669.27
-762.493
-820.485
-838.506
-820.865
-778.432
-723.011
-661.757
-596.848
-527.411
-453.616
-377.979
-304.726
-238.728
-183.075
-138.821
-105.734
-82.344
-66.982
-58.31
-54.45
-53.381
-53.212
-52.044
-48.905
-43.773
-36.898
-28.727
-19.991
-11.402
-3.825
1.716
4.838
5.664
4.502
1.902
-1.578
-5.471
-9.18
-12.062
-13.774
-14.185
-13.302
-11.293
-8.285
-4.378
0.265
5.464
11.056
16.899
22.883
28.923
34.909
40.722
46.246
51.372
56.041
60.226
63.924
67.158
69.958
72.363
74.432
76.226
77.807
79.236
80.567
81.849
83.134
84.476
85.929
87.541
89.346
91.361
93.596
96.052
98.726
101.609
104.688
107.944
111.36
114.92
118.61
122.416
126.322
130.308
134.355
138.44
142.544
146.647
150.73
154.772
158.754
162.656
166.459
170.144
173.692
177.082
180.294
183.306
186.098
188.652
190.949
192.973
194.707
196.139
197.255
198.045
198.502
198.617
198.385
197.803
196.867
195.578
193.938
191.949
189.615
186.944
183.942
180.621
176.991
173.065
168.857
164.382
159.657
154.7
149.528
144.162
138.622
132.928
127.102
121.164
115.137
109.042
102.902
96.738
90.571
84.421
78.309
72.255
66.276
60.39
54.615
48.966
43.458
38.106
32.922
27.919
23.106
18.494
14.09
9.901
5.933
2.191
-1.324
-4.608
-7.662
-10.486
-13.08
-15.449
-17.596
-19.525
-21.242
-22.754
-24.067
-25.19
-26.13
-26.897
-27.501
-27.95
-28.255
-28.425
-28.472
-28.404
-28.234
-27.97
-27.623
-27.204
-26.721
-26.184
-25.603
-24.987
-24.343
-23.679
-23.004
-22.323
-21.644
-20.973
-20.314
-19.673
-19.055
-18.462
-17.9
-17.37
-16.876
-16.419
-16.001
-15.624
-15.288
-14.995
-14.745
-14.539
-14.376
-14.256
-14.181
-14.149
-14.159
-14.212
-14.307
-14.442
-14.618
-14.833
-15.086
-15.376
-15.703
-16.066
-16.462
-16.89
-17.35
-17.839
-18.356
-18.898
-19.464
-20.052
-20.659
-21.283
-21.921
-22.572
-23.232
-23.9
-24.571
-25.243
-25.912
-26.576
-27.23
-27.871
-28.494
-29.096
-29.672
-30.219
-30.733
-31.208
-31.641
-32.029
-32.366
-32.65
-32.876
-33.042
-33.144
-33.183
-33.155
-33.06
-32.899
-32.672
-32.381
-32.029
-31.618
-31.152
-30.634
-30.068
-29.46
-28.814
-28.134
-27.425
-26.695
-25.949
-25.195
-24.441
-23.693
-22.958
-22.245
-21.562
-20.917
-20.317
-19.765
-19.266
-18.825
-18.448
-18.144
-17.918
-17.767
-17.689
-17.682
-17.74
-17.858
-18.021
-18.205
-18.388
-18.552
-18.683
-18.777
-18.828
-18.819
-18.735
-18.559
-18.28
-17.907
-17.447
-16.897
-16.266
-15.575
-14.863
-14.205
-13.68
-13.338
-13.226
-13.375
-13.806
-14.571
-15.732
-17.336
-19.431
-22.035
-25.141
-28.797
-33.073
-37.93
-43.22
-48.648
-53.798
-58.343
-62.068
-64.697
-65.874
-65.365
-63.209
-59.79
-55.84
-52.067
-48.84
-46.486
-45.549
-46.359
-48.74
-52.014
-54.789
-55.444
-52.931
-46.205
-33.715
-14.317
12.492
46.532
86.287
129.615
174.661
218.821
258.232
289.042
307.495
310.191
295.104
260.652
205.381
130.397
39.627
-62.626
-172.025
-286.911
-407.844
-531.044
-647.705
-744.623
-808.359
-833.409
-823.508
-788.915
-740.477
-685.114
-624.89
-558.57
-486.613
-411.473
-336.789
-267.773
-207.92
-158.437
-119.886
-91.392
-71.224
-58.359
-51.479
-48.421
-47.348
-46.518
-44.26
-40.097
-34.289
-26.965
-18.578
-9.945
-1.72
5.24
10.053
12.572
13.039
11.777
9.322
6.201
2.846
-0.188
-2.344
-3.368
-3.186
-1.845
0.479
3.663
7.608
12.164
17.168
22.474
27.95
33.492
39.026
44.456
49.679
54.598
59.117
63.188
66.799
69.96
72.7
75.057
77.072
78.799
80.302
81.643
82.881
84.068
85.25
86.475
87.792
89.25
90.893
92.75
94.836
97.157
99.71
102.491
105.491
108.695
112.081
115.632
119.33
123.159
127.105
131.148
135.269
139.446
143.656
147.877
152.088
156.269
160.398
164.453
168.413
172.257
175.967
179.521
182.898
186.077
189.035
191.754
194.214
196.398
198.288
199.869
201.129
202.057
202.643
202.879
202.761
202.283
201.445
200.245
198.686
196.77
194.503
191.89
188.942
185.666
182.077
178.185
174.006
169.556
164.852
159.912
154.755
149.402
143.873
138.19
132.375
126.449
120.437
114.36
108.24
102.101
95.965
89.852
83.784
77.78
71.86
66.042
60.342
54.778
49.363
44.112
39.038
34.151
29.461
24.979
20.71
16.662
12.839
9.245
5.882
2.751
-0.148
-2.817
-5.258
-7.475
-9.474
-11.259
-12.837
-14.217
-15.407
-16.414
-17.251
-17.925
-18.449
-18.832
-19.087
-19.224
-19.255
-19.191
-19.043
-18.822
-18.538
-18.202
-17.825
-17.414
-16.98
-16.531
-16.075
-15.62
-15.173
-14.741
-14.328
-13.941
-13.583
-13.259
-12.973
-12.726
-12.521
-12.361
-12.246
-12.177
-12.155
-12.179
-12.25
-12.366
-12.527
-12.731
-12.976
-13.261
-13.583
-13.941
-14.333
-14.755
-15.207
-15.685
-16.187
-16.712
-17.256
-17.818
-18.394
-18.981
-19.579
-20.183
-20.791
-21.4
-22.009
-22.613
-23.212
-23.802
-24.381
-24.945
-25.493
-26.02
-26.525
-27.004
-27.454
-27.873
-28.256
-28.602
-28.907
-29.168
-29.383
-29.549
-29.661
-29.719
-29.718
-29.656
-29.531
-29.341
-29.085
-28.762
-28.371
-27.914
-27.391
-26.805
-26.158
-25.452
-24.691
-23.879
-23.021
-22.12
-21.183
-20.213
-19.216
-18.199
-17.169
-16.134
-15.1
-14.075
-13.067
-12.085
-11.137
-10.233
-9.379
-8.579
-7.84
-7.166
-6.566
-6.048
-5.62
-5.28
-5.03
-4.869
-4.794
-4.8
-4.872
-4.99
-5.131
-5.276
-5.412
-5.532
-5.628
-5.687
-5.694
-5.632
-5.492
-5.275
-4.984
-4.618
-4.183
-3.699
-3.203
-2.769
-2.471
-2.372
-2.525
-2.966
-3.721
-4.832
-6.357
-8.343
-10.834
-13.857
-17.411
-21.535
-26.292
-31.651
-37.46
-43.43
-49.15
-54.267
-58.555
-61.746
-63.489
-63.584
-62.083
-59.361
-56.135
-53.06
-50.438
-48.524
-47.758
-48.351
-50.076
-52.233
-53.451
-52.252
-47.749
-39.109
-25.063
-4.667
22.466
56.123
94.845
136.617
179.792
222.15
260.309
290.818
310.27
315.426
304.309
275.522
227.598
161.344
80.298
-11.814
-111.32
-216.912
-329.558
-446.424
-559.256
-655.102
-720.749
-749.958
-745.815
-718.66
-679.034
-633.258
-582.898
-525.763
-461.449
-392.532
-322.741
-257.09
-199.252
-150.735
-112.369
-83.913
-64.199
-52.066
-46.143
-44.423
-44.98
-46.018
-45.777
-43.408
-38.88
-32.363
-24.318
-15.539
-6.757
1.157
7.254
11.205
13.112
13.233
12.047
10.05
7.667
5.433
3.906
3.365
3.902
5.489
7.966
11.222
15.166
19.664
24.565
29.741
35.08
40.499
45.938
51.313
56.528
61.491
66.107
70.325
74.125
77.508
80.497
83.12
85.409
87.412
89.183
90.774
92.234
93.609
94.935
96.255
97.614
99.056
100.627
102.357
104.262
106.349
108.621
111.072
113.699
116.487
119.419
122.477
125.647
128.916
132.271
135.697
139.176
142.689
146.215
149.736
153.233
156.687
160.08
163.393
166.609
169.709
172.68
175.503
178.16
180.634
182.907
184.963
186.786
188.361
189.673
190.711
191.463
191.92
192.075
191.923
191.458
190.678
189.581
188.169
186.443
184.407
182.065
179.425
176.495
173.283
169.802
166.063
162.079
157.864
153.435
148.806
143.995
139.018
133.895
128.643
123.281
117.827
112.301
106.722
101.108
95.479
89.852
84.246
78.678
73.164
67.721
62.364
57.106
51.962
46.945
42.065
37.334
32.76
28.354
24.121
20.07
16.204
12.529
9.047
5.76
2.671
-0.22
-2.915
-5.414
-7.72
-9.835
-11.764
-13.51
-15.078
-16.474
-17.703
-18.773
-19.69
-20.461
-21.093
-21.595
-21.974
-22.238
-22.395
-22.454
-22.422
-22.308
-22.12
-21.866
-21.552
-21.188
-20.779
-20.333
-19.857
-19.357
-18.838
-18.307
-17.769
-17.228
-16.691
-16.161
-15.643
-15.141
-14.658
-14.2
-13.768
-13.367
-12.999
-12.667
-12.374
-12.122
-11.915
-11.753
-11.638
-11.573
-11.559
-11.595
-11.684
-11.826
-12.019
-12.265
-12.563
-12.911
-13.308
-13.753
-14.245
-14.781
-15.36
-15.978
-16.635
-17.326
-18.048
-18.798
-19.573
-20.367
-21.177
-21.998
-22.825
-23.653
-24.476
-25.29
-26.088
-26.864
-27.613
-28.327
-29.003
-29.633
-30.211
-30.734
-31.197
-31.595
-31.925
-32.184
-32.371
-32.486
-32.527
-32.496
-32.391
-32.215
-31.97
-31.657
-31.278
-30.837
-30.337
-29.782
-29.177
-28.529
-27.845
-27.131
-26.393
-25.638
-24.875
-24.11
-23.353
-22.608
-21.883
-21.185
-20.521
-19.904
-19.34
-18.832
-18.378
-17.976
-17.621
-17.308
-17.028
-16.763
-16.496
-16.213
-15.9
-15.551
-15.156
-14.707
-14.188
-13.581
-12.878
-12.081
-11.2
-10.25
-9.244
-8.203
-7.166
-6.19
-5.336
-4.664
-4.227
-4.066
-4.233
-4.77
-5.718
-7.118
-9.009
-11.418
-14.357
-17.841
-21.851
-26.381
-31.437
-36.896
-42.554
-48.131
-53.218
-57.46
-60.613
-62.339
-62.24
-60.261
-56.541
-51.49
-46.039
-40.88
-36.409
-33.31
-32.178
-32.985
-35.45
-38.663
-40.742
-40.267
-36.084
-26.423
-9.952
13.883
45.27
83.13
125.105
169.045
212.243
250.679
280.471
297.957
299.689
283.477
248.146
192.913
118.272
27.695
-74.407
-184.311
-296.891
-409.365
-518.951
-617.28
-698.205
-755.688
-783.956
-786.637
-767.568
-730.261
-681.087
-621.345
-552.594
-478.792
-402.414
-327.506
-258.461
-197.785
-147.235
-107.669
-78.675
-59.093
-47.6
-42.574
-41.803
-43.199
-44.879
-45.111
-43.153
-39.05
-33.003
-25.535
-17.49
-9.646
-2.879
1.928
4.533
5.125
4.021
1.739
-1.196
-4.337
-7.155
-9.118
-9.983
-9.694
-8.304
-5.989
-2.88
0.923
5.271
10.003
14.983
20.085
25.214
30.305
35.27
40.017
44.458
48.51
52.13
55.316
58.076
60.444
62.453
64.143
65.566
66.783
67.851
68.826
69.757
70.685
71.656
72.714
73.905
75.27
76.835
78.612
80.606
82.816
85.236
87.859
90.669
93.647
96.775
100.037
103.419
106.906
110.481
114.125
117.816
121.535
125.261
128.976
132.659
136.292
139.855
143.33
146.697
149.94
153.041
155.98
158.739
161.298
163.64
165.748
167.607
169.202
170.518
171.545
172.273
172.693
172.799
172.586
172.05
171.189
170.004
168.495
166.666
164.521
162.067
159.31
156.261
152.93
149.327
145.466
141.362
137.028
132.482
127.739
122.818
117.735
112.511
107.164
101.714
96.18
90.581
84.939
79.271
73.599
67.939
62.312
56.733
51.222
45.794
40.464
35.248
30.159
25.211
20.414
15.78
11.319
7.04
2.95
-0.944
-4.637
-8.125
-11.403
-14.47
-17.325
-19.967
-22.398
-24.618
-26.631
-28.441
-30.052
-31.468
-32.696
-33.743
-34.614
-35.319
-35.864
-36.257
-36.509
-36.627
-36.62
-36.498
-36.27
-35.944
-35.531
-35.04
-34.478
-33.855
-33.18
-32.461
-31.705
-30.921
-30.115
-29.295
-28.468
-27.64
-26.815
-26.001
-25.201
-24.421
-23.665
-22.936
-22.238
-21.575
-20.95
-20.365
-19.822
-19.324
-18.873
-18.47
-18.116
-17.812
-17.561
-17.361
-17.214
-17.119
-17.077
-17.088
-17.15
-17.263
-17.425
-17.635
-17.892
-18.193
-18.535
-18.917
-19.335
-19.787
-20.27
-20.78
-21.315
-21.869
-22.44
-23.023
-23.614
-24.208
-24.8
-25.386
-25.96
-26.518
-27.054
-27.563
-28.039
-28.478
-28.873
-29.22
-29.515
-29.751
-29.926
-30.034
-30.074
-30.042
-29.936
-29.756
-29.502
-29.174
-28.775
-28.305
-27.767
-27.165
-26.502
-25.782
-25.01
-24.19
-23.327
-22.428
-21.499
-20.549
-19.585
-18.616
-17.648
-16.692
-15.754
-14.845
-13.973
-13.144
-12.362
-11.633
-10.967
-10.373
-9.856
-9.417
-9.053
-8.761
-8.538
-8.378
-8.269
-8.19
-8.121
-8.045
-7.947
-7.822
-7.66
-7.452
-7.178
-6.82
-6.371
-5.833
-5.213
-4.519
-3.757
-2.94
-2.109
-1.321
-0.638
-0.125
0.175
0.227
-0.013
-0.577
-1.517
-2.889
-4.728
-7.063
-9.912
-13.273
-17.172
-21.658
-26.658
-31.988
-37.379
-42.447
-46.873
-50.439
-52.84
-53.687
-52.756
-50.1
-46.088
-41.432
-36.813
-32.612
-29.239
-27.34
-27.322
-29.062
-31.892
-34.453
-35.159
-32.899
-26.502
-14.272
5.105
32.188
66.79
107.453
151.921
198.008
242.77
281.969
311.375
327.157
325.741
304.763
263.071
199.92
116.981
19.081
-89.733
-205.592
-325.1
-447.376
-566.307
-671.405
-753.189
-801.554
-814.901
-800.299
-764.466
-715.642
-658.41
-592.068
-518.506
-440.471
-361.303
-286.715
-220.682
-165.227
-121.713
-89.833
-68.147
-55.092
-48.885
-47.184
-47.748
-48.527
-47.57
-43.965
-37.766
-29.331
-19.301
-8.602
1.895
11.225
18.362
22.936
25.07
25.091
23.557
21.026
17.985
15.007
12.686
11.359
11.159
12.079
13.975
16.728
20.24
24.377
28.984
33.922
39.075
44.347
49.664
54.945
60.096
65.024
69.642
73.875
77.684
81.058
84.011
86.568
88.768
90.653
92.276
93.699
94.98
96.174
97.331
98.49
99.699
101.001
102.443
104.063
105.888
107.931
110.196
112.683
115.386
118.296
121.399
124.673
128.099
131.661
135.343
139.128
142.999
146.934
150.911
154.909
158.904
162.877
166.805
170.668
174.444
178.113
181.654
185.05
188.281
191.328
194.17
196.789
199.166
201.285
203.129
204.684
205.937
206.876
207.491
207.777
207.725
207.333
206.597
205.517
204.093
202.329
200.227
197.795
195.039
191.97
188.596
184.931
180.989
176.783
172.33
167.646
162.75
157.66
152.395
146.974
141.418
135.747
129.981
124.142
118.249
112.323
106.385
100.454
94.549
88.69
82.895
77.18
71.561
66.056
60.678
55.441
50.357
45.439
40.696
36.138
31.773
27.607
23.647
19.896
16.357
13.032
9.923
7.029
4.347
1.877
-0.385
-2.444
-4.304
-5.972
-7.453
-8.756
-9.889
-10.859
-11.676
-12.349
-12.887
-13.301
-13.601
-13.796
-13.897
-13.914
-13.858
-13.738
-13.564
-13.346
-13.093
-12.813
-12.515
-12.206
-11.893
-11.584
-11.283
-10.997
-10.731
-10.49
-10.278
-10.098
-9.955
-9.851
-9.787
-9.767
-9.79
-9.858
-9.971
-10.129
-10.332
-10.579
-10.87
-11.204
-11.579
-11.995
-12.45
-12.942
-13.47
-14.032
-14.625
-15.249
-15.901
-16.579
-17.282
-18.009
-18.758
-19.526
-20.313
-21.115
-21.931
-22.758
-23.593
-24.434
-25.275
-26.115
-26.951
-27.779
-28.597
-29.404
-30.197
-30.975
-31.738
-32.483
-33.207
-33.906
-34.576
-35.211
-35.805
-36.353
-36.849
-37.29
-37.67
-37.988
-38.242
-38.43
-38.548
-38.593
-38.555
-38.431
-38.22
-37.925
-37.551
-37.111
-36.618
-36.09
-35.547
-35.002
-34.463
-33.93
-33.398
-32.859
-32.304
-31.731
-31.148
-30.561
-29.972
-29.381
-28.781
-28.154
-27.476
-26.718
-25.846
-24.841
-23.696
-22.417
-21.033
-19.58
-18.1
-16.624
-15.162
-13.718
-12.298
-10.912
-9.576
-8.322
-7.18
-6.193
-5.412
-4.87
-4.59
-4.571
-4.787
-5.195
-5.744
-6.403
-7.17
-8.053
-9.062
-10.202
-11.475
-12.881
-14.437
-16.135
-17.95
-19.873
-21.88
-23.988
-26.246
-28.71
-31.441
-34.469
-37.774
-41.351
-45.244
-49.411
-53.73
-57.983
-61.808
-64.921
-67.175
-68.355
-68.152
-66.371
-63.033
-58.45
-53.299
-48.255
-43.629
-39.68
-36.905
-35.636
-35.796
-36.885
-37.658
-36.56
-32.744
-25.594
-13.722
4.158
28.693
60.282
97.135
135.6
174.401
212.749
249.531
285.73
317.14
335.063
332.22
300.3
237.38
150.686
49.116
-58.773
-168.606
-281.798
-400.937
-522.427
-635.936
-729.819
-792.476
-820.823
-821.535
-801.231
-767.045
-722.892
-667.364
-601.371
-527.547
-449.399
-372.191
-300.023
-235.521
-180.542
-135.973
-101.775
-77.012
-60.373
-50.445
-45.352
-43.268
-42.418
-40.925
-37.849
-33.125
-26.897
-19.601
-11.93
-4.489
1.928
6.375
8.541
8.571
6.787
3.767
0.073
-3.824
-7.339
-9.88
-11.148
-11.043
-9.608
-7.027
-3.443
1.022
6.192
11.877
17.906
24.131
30.432
36.703
42.821
48.654
54.075
58.999
63.387
67.226
70.535
73.346
75.697
77.647
79.262
80.608
81.747
82.739
83.636
84.497
85.382
86.348
87.453
88.738
90.228
91.935
93.866
96.016
98.38
100.944
103.689
106.599
109.659
112.855
116.175
119.604
123.123
126.713
130.354
134.025
137.708
141.384
145.035
148.641
152.183
155.644
159.007
162.252
165.36
168.311
171.085
173.662
176.023
178.152
180.03
181.644
182.978
184.021
184.763
185.196
185.311
185.103
184.568
183.703
182.509
180.986
179.137
176.966
174.479
171.683
168.588
165.203
161.542
157.616
153.442
149.033
144.408
139.584
134.579
129.412
124.103
118.672
113.139
107.526
101.852
96.138
90.404
84.671
78.957
73.281
67.663
62.118
56.663
51.314
46.085
40.991
36.044
31.255
26.636
22.195
17.942
13.883
10.024
6.371
2.927
-0.306
-3.325
-6.132
-8.726
-11.111
-13.287
-15.261
-17.036
-18.618
-20.013
-21.229
-22.273
-23.153
-23.879
-24.459
-24.903
-25.22
-25.419
-25.512
-25.506
-25.411
-25.238
-24.995
-24.691
-24.335
-23.936
-23.503
-23.041
-22.561
-22.068
-21.569
-21.07
-20.576
-20.094
-19.627
-19.18
-18.756
-18.357
-17.988
-17.65
-17.344
-17.071
-16.833
-16.629
-16.46
-16.324
-16.222
-16.153
-16.116
-16.11
-16.133
-16.186
-16.265
-16.371
-16.502
-16.657
-16.834
-17.033
-17.251
-17.487
-17.741
-18.01
-18.294
-18.591
-18.9
-19.219
-19.548
-19.884
-20.225
-20.571
-20.92
-21.269
-21.618
-21.965
-22.307
-22.645
-22.975
-23.296
-23.607
-23.905
-24.188
-24.454
-24.7
-24.923
-25.12
-25.289
-25.426
-25.529
-25.593
-25.617
-25.596
-25.527
-25.408
-25.234
-25.005
-24.716
-24.366
-23.953
-23.477
-22.937
-22.334
-21.669
-20.943
-20.16
-19.321
-18.43
-17.491
-16.507
-15.483
-14.424
-13.332
-12.215
-11.076
-9.924
-8.765
-7.606
-6.454
-5.317
-4.202
-3.119
-2.076
-1.079
-0.132
0.759
1.59
2.353
3.039
3.643
4.167
4.61
4.973
5.261
5.478
5.638
5.763
5.876
5.993
6.127
6.284
6.47
6.698
6.981
7.336
7.767
8.271
8.842
9.481
10.179
10.917
11.653
12.316
12.831
13.136
13.181
12.929
12.355
11.414
10.048
8.205
5.839
2.925
-0.544
-4.612
-9.353
-14.746
-20.644
-26.758
-32.672
-38.021
-42.57
-46.045
-48.074
-48.433
-47.172
-44.678
-41.735
-39.081
-37.086
-36.048
-36.444
-38.525
-42.079
-46.35
-49.826
-50.842
-48.301
-41.215
-28.256
-8.357
18.956
53.451
93.712
137.643
183.363
228.515
269.703
303.268
325.662
333.504
324.25
296.085
247.381
178.611
92.962
-5.812
-114.11
-230.523
-355.119
-484.522
-610.047
-717.861
-794.053
-831.48
-832.207
-806.261
-764.485
-713.819
-656.614
-591.293
-518.055
-440.096
-361.765
-288.74
-224.967
-171.975
-130.475
-99.912
-78.795
-65.622
-58.665
-55.627
-54.436
-53.306
-50.602
-45.673
-38.689
-30.028
-20.329
-10.509
-1.359
6.284
11.581
14.328
14.757
13.253
10.408
6.81
2.957
-0.58
-3.234
-4.723
-4.951
-3.946
-1.865
1.171
5.06
9.653
14.782
20.295
26.057
31.954
37.895
43.768
49.454
54.839
59.814
64.319
68.328
71.837
74.871
77.459
79.639
81.465
82.999
84.304
85.44
86.461
87.415
88.355
89.335
90.406
91.621
93.011
94.594
96.382
98.375
100.571
102.964
105.541
108.284
111.176
114.203
117.352
120.612
123.967
127.4
130.892
134.424
137.976
141.532
145.075
148.584
152.043
155.434
158.74
161.943
165.028
167.973
170.761
173.372
175.788
177.991
179.964
181.691
183.158
184.352
185.261
185.876
186.187
186.189
185.876
185.243
184.289
183.013
181.416
179.499
177.267
174.726
171.882
168.743
165.321
161.626
157.671
153.469
149.036
144.387
139.54
134.511
129.32
123.984
118.525
112.962
107.314
101.602
95.847
90.068
84.285
78.518
72.785
67.106
61.497
55.976
50.559
45.261
40.097
35.081
30.224
25.539
21.035
16.723
12.61
8.704
5.009
1.531
-1.728
-4.764
-7.578
-10.169
-12.539
-14.69
-16.624
-18.347
-19.864
-21.179
-22.301
-23.236
-23.992
-24.578
-25.004
-25.279
-25.412
-25.414
-25.295
-25.066
-24.737
-24.319
-23.821
-23.254
-22.628
-21.952
-21.237
-20.492
-19.724
-18.942
-18.153
-17.366
-16.584
-15.816
-15.066
-14.339
-13.639
-12.97
-12.336
-11.74
-11.184
-10.671
-10.203
-9.78
-9.405
-9.077
-8.796
-8.562
-8.375
-8.233
-8.137
-8.085
-8.076
-8.109
-8.184
-8.297
-8.449
-8.638
-8.863
-9.121
-9.412
-9.736
-10.09
-10.475
-10.889
-11.332
-11.804
-12.304
-12.83
-13.382
-13.958
-14.555
-15.173
-15.808
-16.459
-17.122
-17.795
-18.477
-19.165
-19.859
-20.557
-21.256
-21.957
-22.657
-23.352
-24.039
-24.712
-25.365
-25.993
-26.589
-27.151
-27.673
-28.15
-28.579
-28.958
-29.284
-29.554
-29.761
-29.895
-29.949
-29.925
-29.825
-29.656
-29.432
-29.164
-28.863
-28.548
-28.23
-27.914
-27.598
-27.269
-26.913
-26.525
-26.106
-25.668
-25.225
-24.772
-24.305
-23.817
-23.286
-22.695
-22.022
-21.228
-20.291
-19.215
-18.016
-16.732
-15.418
-14.101
-12.798
-11.519
-10.26
-9.024
-7.824
-6.662
-5.56
-4.548
-3.661
-2.956
-2.477
-2.217
-2.161
-2.273
-2.489
-2.78
-3.134
-3.534
-3.993
-4.545
-5.209
-6.025
-7.035
-8.235
-9.628
-11.198
-12.914
-14.807
-16.926
-19.316
-22.057
-25.197
-28.734
-32.718
-37.199
-42.097
-47.259
-52.417
-57.164
-61.188
-64.284
-66.172
-66.507
-65.089
-62.0
-57.665
-52.863
-48.355
-44.582
-41.978
-41.189
-42.592
-45.963
-50.511
-54.713
-56.811
-55.584
-49.749
-37.532
-17.705
10.198
45.871
87.661
133.323
180.74
226.816
267.314
298.261
315.704
316.115
297.387
257.689
196.601
116.679
21.642
-85.015
-201.445
-327.282
-459.57
-589.501
-702.771
-785.507
-830.181
-838.396
-820.31
-786.022
-741.401
-688.892
-626.897
-555.38
-477.895
-398.448
-321.86
-252.55
-192.788
-143.615
-105.49
-77.697
-58.77
-47.635
-42.843
-42.134
-43.544
-45.201
-45.334
-43.394
-39.547
-33.864
-26.795
-19.145
-11.602
-5.059
-0.423
2.116
2.772
1.845
-0.153
-2.716
-5.433
-7.775
-9.215
-9.521
-8.65
-6.673
-3.785
-0.135
4.167
8.963
14.087
19.406
24.796
30.164
35.451
40.579
45.462
50.023
54.185
57.909
61.194
64.058
66.537
68.675
70.516
72.113
73.53
74.825
76.054
77.266
78.501
79.803
81.214
82.776
84.53
86.502
88.704
91.14
93.806
96.697
99.802
103.107
106.591
110.234
114.018
117.927
121.946
126.056
130.237
134.467
138.723
142.983
147.228
151.436
155.586
159.656
163.627
167.479
171.192
174.749
178.128
181.31
184.276
187.006
189.485
191.695
193.621
195.249
196.568
197.568
198.241
198.579
198.579
198.238
197.553
196.526
195.159
193.455
191.42
189.06
186.383
183.4
180.121
176.559
172.727
168.639
164.312
159.761
155.004
150.058
144.943
139.676
134.277
128.765
123.161
117.483
111.752
105.986
100.206
94.43
88.676
82.962
77.305
71.721
66.226
60.834
55.558
50.412
45.407
40.554
35.863
31.344
27.003
22.849
18.886
15.12
11.554
8.191
5.034
2.082
-0.664
-3.206
-5.544
-7.682
-9.623
-11.371
-12.931
-14.309
-15.511
-16.543
-17.414
-18.13
-18.699
-19.131
-19.432
-19.613
-19.682
-19.647
-19.518
-19.303
-19.012
-18.653
-18.235
-17.765
-17.254
-16.708
-16.134
-15.542
-14.937
-14.327
-13.717
-13.114
-12.523
-11.95
-11.399
-10.875
-10.382
-9.924
-9.505
-9.126
-8.791
-8.502
-8.26
-8.068
-7.926
-7.834
-7.794
-7.806
-7.869
-7.984
-8.148
-8.361
-8.621
-8.928
-9.279
-9.671
-10.103
-10.571
-11.073
-11.604
-12.163
-12.744
-13.344
-13.959
-14.586
-15.219
-15.855
-16.49
-17.119
-17.737
-18.34
-18.923
-19.482
-20.012
-20.509
-20.968
-21.386
-21.758
-22.079
-22.348
-22.559
-22.71
-22.798
-22.82
-22.776
-22.662
-22.478
-22.225
-21.902
-21.511
-21.054
-20.533
-19.953
-19.317
-18.63
-17.898
-17.126
-16.319
-15.485
-14.631
-13.761
-12.884
-12.004
-11.131
-10.273
-9.437
-8.629
-7.858
-7.129
-6.453
-5.838
-5.288
-4.806
-4.396
-4.06
-3.803
-3.634
-3.552
-3.555
-3.64
-3.802
-4.037
-4.339
-4.692
-5.072
-5.457
-5.823
-6.157
-6.453
-6.696
-6.872
-6.962
-6.946
-6.821
-6.594
-6.263
-5.828
-5.299
-4.692
-4.05
-3.45
-2.958
-2.629
-2.52
-2.66
-3.086
-3.852
-5.009
-6.613
-8.694
-11.269
-14.345
-17.957
-22.16
-26.891
-31.971
-37.096
-41.851
-45.884
-48.973
-50.81
-51.003
-49.48
-46.371
-42.079
-37.514
-33.331
-29.842
-27.619
-27.174
-28.431
-31.095
-34.286
-36.18
-35.457
-31.11
-21.512
-5.431
17.689
48.094
84.797
125.64
168.755
211.737
250.83
282.366
302.735
308.358
296.935
266.852
216.562
147.041
62.17
-33.932
-137.186
-246.242
-362.044
-481.149
-594.733
-689.098
-750.311
-772.579
-759.828
-723.215
-674.417
-620.742
-564.209
-502.945
-436.734
-367.641
-299.035
-235.963
-181.704
-137.183
-102.764
-77.518
-59.802
-48.737
-43.145
-41.025
-40.723
-40.655
-39.263
-36.094
-31.353
-25.11
-17.778
-10.11
-2.705
3.634
8.076
10.474
11.021
10.011
7.956
5.349
2.6
0.237
-1.255
-1.662
-0.921
0.894
3.615
7.119
11.299
16.011
21.107
26.451
31.93
37.45
42.923
48.253
53.335
58.065
62.377
66.238
69.641
72.61
75.179
77.383
79.272
80.904
82.331
83.608
84.787
85.91
87.026
88.184
89.433
90.822
92.385
94.144
96.109
98.282
100.658
103.232
105.99
108.914
111.988
115.196
118.525
121.962
125.492
129.097
132.756
136.45
140.158
143.861
147.541
151.177
154.751
158.242
161.634
164.909
168.047
171.029
173.836
176.448
178.845
181.011
182.927
184.577
185.947
187.025
187.797
188.257
188.395
188.206
187.685
186.83
185.64
184.115
182.259
180.074
177.567
174.744
171.616
168.191
164.482
160.502
156.264
151.785
147.08
142.167
137.063
131.788
126.36
120.8
115.127
109.362
103.525
97.638
91.721
85.794
79.876
73.988
68.148
62.373
56.68
51.086
45.606
40.254
35.043
29.986
25.093
20.375
15.841
11.498
7.354
3.413
-0.32
-3.841
-7.149
-10.241
-13.117
-15.779
-18.227
-20.463
-22.492
-24.317
-25.942
-27.375
-28.62
-29.684
-30.577
-31.304
-31.875
-32.298
-32.581
-32.735
-32.768
-32.688
-32.507
-32.231
-31.872
-31.437
-30.936
-30.376
-29.768
-29.118
-28.434
-27.724
-26.994
-26.253
-25.505
-24.758
-24.017
-23.289
-22.578
-21.889
-21.228
-20.598
-20.004
-19.449
-18.936
-18.468
-18.048
-17.677
-17.358
-17.092
-16.88
-16.723
-16.622
-16.577
-16.587
-16.652
-16.771
-16.942
-17.165
-17.437
-17.755
-18.119
-18.524
-18.968
-19.449
-19.962
-20.505
-21.074
-21.663
-22.27
-22.889
-23.516
-24.145
-24.772
-25.391
-25.996
-26.584
-27.149
-27.685
-28.187
-28.65
-29.07
-29.44
-29.757
-30.017
-30.215
-30.35
-30.418
-30.418
-30.349
-30.212
-30.007
-29.736
-29.4
-29.001
-28.543
-28.029
-27.462
-26.846
-26.186
-25.486
-24.754
-23.995
-23.217
-22.43
-21.639
-20.853
-20.08
-19.326
-18.601
-17.912
-17.265
-16.667
-16.123
-15.641
-15.231
-14.898
-14.643
-14.462
-14.351
-14.305
-14.316
-14.373
-14.461
-14.561
-14.659
-14.742
-14.805
-14.838
-14.833
-14.773
-14.64
-14.425
-14.13
-13.765
-13.342
-12.87
-12.368
-11.87
-11.428
-11.093
-10.916
-10.942
-11.204
-11.748
-12.612
-13.829
-15.437
-17.47
-19.953
-22.904
-26.34
-30.248
-34.625
-39.487
-44.717
-50.122
-55.429
-60.222
-64.132
-66.913
-68.222
-67.674
-65.258
-61.156
-55.836
-50.323
-45.406
-41.573
-39.597
-40.058
-42.82
-47.452
-52.861
-56.948
-58.083
-54.836
-45.182
-27.791
-2.29
31.205
71.267
115.279
160.805
204.671
242.416
270.137
284.449
282.218
261.647
221.792
161.908
83.904
-7.282
-107.907
-214.489
-324.461
-438.17
-549.91
-649.197
-727.004
-773.255
-786.42
-774.348
-743.527
-701.559
-653.054
-596.568
-532.93
-464.367
-393.17
-323.758
-259.919
-203.653
-156.199
-118.084
-88.794
-67.269
-52.813
-44.415
-40.354
-39.12
-39.086
-38.507
-36.723
-33.729
-29.416
-24.039
-18.144
-12.173
-6.876
-3.131
-1.171
-0.847
-1.916
-3.903
-6.351
-8.9
-11.047
-12.278
-12.357
-11.221
-8.939
-5.699
-1.65
3.092
8.359
13.975
19.79
25.676
31.533
37.285
42.842
48.105
52.985
57.425
61.399
64.911
67.988
70.668
72.992
75.015
76.797
78.398
79.874
81.277
82.65
84.042
85.499
87.065
88.785
90.689
92.792
95.103
97.62
100.336
103.242
106.323
109.559
112.932
116.425
120.021
123.706
127.462
131.269
135.107
138.955
142.791
146.597
150.353
154.039
157.637
161.128
164.494
167.719
170.783
173.669
176.359
178.834
181.076
183.071
184.803
186.257
187.422
188.286
188.842
189.081
188.998
188.589
187.851
186.784
185.389
183.667
181.625
179.266
176.598
173.63
170.371
166.833
163.028
158.97
154.673
150.152
145.425
140.506
135.416
130.171
124.79
119.292
113.696
108.023
102.29
96.517
90.724
84.929
79.15
73.405
67.711
62.084
56.54
51.094
45.759
40.548
35.474
30.547
25.779
21.177
16.75
12.505
8.449
4.587
0.923
-2.539
-5.797
-8.849
-11.696
-14.336
-16.771
-19.004
-21.037
-22.873
-24.518
-25.975
-27.251
-28.351
-29.282
-30.052
-30.667
-31.134
-31.463
-31.661
-31.736
-31.697
-31.551
-31.307
-30.974
-30.558
-30.068
-29.511
-28.895
-28.228
-27.517
-26.769
-25.991
-25.19
-24.372
-23.545
-22.712
-21.881
-21.056
-20.243
-19.444
-18.664
-17.908
-17.178
-16.479
-15.813
-15.182
-14.589
-14.038
-13.528
-13.063
-12.643
-12.27
-11.944
-11.667
-11.44
-11.264
-11.139
-11.065
-11.042
-11.071
-11.15
-11.277
-11.452
-11.672
-11.934
-12.236
-12.574
-12.945
-13.345
-13.773
-14.225
-14.698
-15.191
-15.699
-16.22
-16.75
-17.286
-17.821
-18.348
-18.861
-19.354
-19.821
-20.259
-20.661
-21.021
-21.338
-21.608
-21.829
-21.997
-22.106
-22.143
-22.105
-21.994
-21.815
-21.58
-21.299
-20.977
-20.628
-20.266
-19.902
-19.54
-19.174
-18.787
-18.37
-17.924
-17.456
-16.985
-16.521
-16.056
-15.585
-15.096
-14.574
-14.014
-13.392
-12.671
-11.843
-10.91
-9.897
-8.859
-7.828
-6.815
-5.83
-4.857
-3.889
-2.938
-2.006
-1.097
-0.231
0.58
1.305
1.883
2.304
2.572
2.711
2.782
2.822
2.83
2.816
2.763
2.627
2.387
2.006
1.421
0.621
-0.417
-1.701
-3.193
-4.914
-6.908
-9.215
-11.914
-15.053
-18.622
-22.656
-27.199
-32.162
-37.386
-42.608
-47.417
-51.503
-54.657
-56.59
-56.964
-55.579
-52.498
-48.109
-43.132
-38.257
-33.884
-30.426
-28.517
-28.541
-30.327
-33.166
-35.656
-36.168
-33.57
-26.653
-13.705
6.483
34.398
69.766
110.976
155.799
202.107
246.875
285.931
315.207
330.738
329.195
308.758
268.075
206.399
124.882
26.453
-84.71
-203.135
-323.278
-439.969
-547.248
-639.505
-712.501
-763.142
-790.353
-794.828
-777.53
-740.281
-686.657
-620.704
-546.852
-469.899
-393.255
-319.606
-252.13
-193.207
-144.095
-105.567
-77.042
-56.941
-44.222
-37.615
-35.027
-34.619
-34.623
-33.333
-30.228
-25.496
-19.187
-11.687
-3.747
3.992
10.664
15.365
17.917
18.537
17.521
15.382
12.626
9.667
7.05
5.324
4.735
5.349
7.105
9.818
13.354
17.609
22.432
27.658
33.144
38.759
44.404
50.009
55.486
60.741
65.682
70.221
74.314
77.954
81.157
83.956
86.389
88.497
90.333
91.961
93.439
94.824
96.166
97.505
98.887
100.358
101.961
103.74
105.72
107.912
110.321
112.943
115.772
118.799
122.006
125.372
128.879
132.508
136.244
140.07
143.969
147.919
151.897
155.883
159.853
163.787
167.664
171.463
175.164
178.745
182.187
185.473
188.582
191.494
194.191
196.652
198.86
200.798
202.452
203.805
204.846
205.564
205.951
205.999
205.704
205.061
204.069
202.729
201.041
199.01
196.64
193.939
190.914
187.577
183.938
180.011
175.808
171.347
166.643
161.713
156.577
151.253
145.762
140.124
134.358
128.488
122.533
116.516
110.456
104.375
98.294
92.231
86.207
80.24
74.348
68.546
62.852
57.281
51.845
46.557
41.431
36.475
31.699
27.112
22.721
18.532
14.55
10.777
7.218
3.872
0.741
-2.177
-4.883
-7.379
-9.671
-11.762
-13.657
-15.363
-16.887
-18.235
-19.416
-20.437
-21.307
-22.036
-22.631
-23.102
-23.458
-23.709
-23.862
-23.928
-23.916
-23.833
-23.688
-23.491
-23.247
-22.967
-22.655
-22.32
-21.968
-21.606
-21.237
-20.869
-20.505
-20.15
-19.808
-19.482
-19.176
-18.892
-18.632
-18.399
-18.194
-18.02
-17.877
-17.766
-17.688
-17.645
-17.637
-17.664
-17.726
-17.825
-17.961
-18.132
-18.339
-18.582
-18.859
-19.17
-19.514
-19.889
-20.293
-20.726
-21.185
-21.668
-22.174
-22.7
-23.244
-23.804
-24.378
-24.963
-25.556
-26.154
-26.755
-27.354
-27.949
-28.536
-29.11
-29.669
-30.207
-30.72
-31.203
-31.652
-32.062
-32.427
-32.742
-33.003
-33.207
-33.348
-33.425
-33.434
-33.373
-33.242
-33.041
-32.77
-32.43
-32.021
-31.546
-31.005
-30.402
-29.739
-29.019
-28.244
-27.42
-26.553
-25.65
-24.718
-23.763
-22.794
-21.818
-20.844
-19.879
-18.932
-18.009
-17.12
-16.273
-15.478
-14.748
-14.091
-13.51
-13.006
-12.576
-12.212
-11.908
-11.652
-11.425
-11.214
-11.007
-10.794
-10.57
-10.327
-10.053
-9.738
-9.365
-8.922
-8.411
-7.837
-7.208
-6.548
-5.886
-5.255
-4.704
-4.28
-4.019
-3.961
-4.149
-4.611
-5.388
-6.517
-8.019
-9.927
-12.275
-15.082
-18.374
-22.147
-26.359
-30.993
-36.057
-41.468
-47.067
-52.596
-57.634
-61.819
-64.909
-66.582
-66.462
-64.397
-60.484
-55.155
-49.361
-43.989
-39.61
-36.849
-36.314
-38.176
-42.16
-47.356
-51.885
-53.785
-51.502
-43.355
-27.786
-3.875
28.699
69.288
115.792
165.51
215.553
262.19
301.242
328.744
341.016
334.919
308.486
260.84
191.875
104.071
2.445
-108.988
-226.335
-346.576
-469.043
-587.372
-691.245
-771.308
-817.309
-828.151
-811.259
-773.498
-723.508
-665.712
-599.112
-525.449
-447.188
-367.562
-292.283
-225.279
-168.576
-123.625
-90.234
-67.103
-52.862
-45.892
-43.96
-44.882
-46.57
-46.936
-44.916
-40.428
-33.69
-25.226
-15.886
-6.483
2.01
8.494
12.548
14.268
13.958
12.173
9.478
6.353
3.395
1.239
0.213
0.429
1.859
4.319
7.671
11.808
16.569
21.778
27.281
32.945
38.666
44.371
49.962
55.331
60.375
64.993
69.133
72.775
75.922
78.602
80.849
82.703
84.221
85.465
86.495
87.373
88.15
88.874
89.596
90.368
91.24
92.264
93.471
94.881
96.504
98.342
100.392
102.649
105.101
107.729
110.518
113.454
116.522
119.712
123.008
126.391
129.842
133.343
136.872
140.412
143.945
147.45
150.909
154.302
157.612
160.82
163.908
166.856
169.644
172.25
174.656
176.843
178.793
180.49
181.916
183.059
183.907
184.449
184.676
184.581
184.159
183.406
182.321
180.902
179.153
177.074
174.672
171.953
168.923
165.594
161.975
158.079
153.919
149.509
144.867
140.008
134.95
129.712
124.314
118.775
113.116
107.357
101.521
95.627
89.698
83.756
77.819
71.91
66.047
60.249
54.535
48.922
43.427
38.063
32.847
27.79
22.905
18.203
13.694
9.386
5.287
1.403
-2.261
-5.701
-8.915
-11.902
-14.66
-17.193
-19.501
-21.588
-23.458
-25.117
-26.571
-27.826
-28.892
-29.776
-30.487
-31.036
-31.432
-31.686
-31.808
-31.81
-31.701
-31.493
-31.197
-30.822
-30.379
-29.877
-29.326
-28.736
-28.116
-27.472
-26.815
-26.15
-25.485
-24.827
-24.18
-23.551
-22.944
-22.363
-21.811
-21.291
-20.806
-20.358
-19.948
-19.577
-19.245
-18.955
-18.704
-18.494
-18.323
-18.191
-18.097
-18.041
-18.02
-18.035
-18.084
-18.167
-18.283
-18.43
-18.608
-18.815
-19.052
-19.316
-19.608
-19.924
-20.265
-20.63
-21.016
-21.424
-21.851
-22.297
-22.76
-23.24
-23.735
-24.244
-24.764
-25.295
-25.835
-26.381
-26.931
-27.482
-28.033
-28.579
-29.118
-29.646
-30.161
-30.658
-31.134
-31.584
-32.004
-32.39
-32.738
-33.045
-33.307
-33.521
-33.684
-33.796
-33.853
-33.857
-33.807
-33.704
-33.547
-33.338
-33.079
-32.772
-32.418
-32.022
-31.584
-31.11
-30.604
-30.071
-29.518
-28.951
-28.376
-27.8
-27.228
-26.669
-26.131
-25.62
-25.141
-24.699
-24.298
-23.947
-23.655
-23.426
-23.26
-23.153
-23.102
-23.101
-23.146
-23.226
-23.321
-23.415
-23.491
-23.541
-23.56
-23.544
-23.486
-23.369
-23.178
-22.907
-22.558
-22.142
-21.669
-21.143
-20.578
-20.009
-19.49
-19.076
-18.829
-18.781
-18.958
-19.392
-20.101
-21.13
-22.532
-24.341
-26.591
-29.3
-32.464
-36.12
-40.333
-45.049
-50.096
-55.203
-59.97
-64.076
-67.322
-69.428
-70.027
-68.913
-66.167
-62.22
-57.877
-53.91
-50.73
-48.733
-48.522
-50.437
-54.271
-59.242
-63.812
-66.222
-65.3
-59.855
-48.179
-29.061
-2.001
32.78
73.669
118.431
165.095
210.824
251.452
282.976
301.597
303.715
287.103
250.204
191.545
112.571
18.059
-88.394
-203.137
-323.471
-449.903
-575.704
-688.696
-778.096
-831.802
-847.951
-835.302
-801.216
-754.465
-700.027
-636.247
-564.258
-486.724
-406.625
-329.319
-259.244
-198.772
-149.256
-111.029
-83.241
-64.422
-53.44
-48.801
-48.255
-49.858
-51.732
-52.078
-50.339
-46.675
-41.147
-34.222
-26.712
-19.29
-12.856
-8.324
-5.875
-5.306
-6.314
-8.369
-10.949
-13.622
-15.83
-17.057
-17.085
-15.874
-13.511
-10.189
-6.056
-1.235
4.105
9.789
15.673
21.636
27.586
33.446
39.123
44.515
49.525
54.092
58.188
61.818
65.006
67.79
70.21
72.319
74.18
75.853
77.394
78.856
80.282
81.719
83.217
84.822
86.582
88.53
90.682
93.049
95.629
98.417
101.405
104.578
107.914
111.396
115.007
118.729
122.55
126.451
130.413
134.416
138.436
142.454
146.45
150.404
154.296
158.107
161.817
165.409
168.866
172.17
175.303
178.245
180.978
183.486
185.751
187.758
189.492
190.941
192.094
192.94
193.472
193.684
193.571
193.13
192.359
191.259
189.83
188.076
186.002
183.614
180.919
177.926
174.646
171.09
167.271
163.203
158.9
154.378
149.654
144.745
139.668
134.443
129.086
123.618
118.058
112.424
106.736
101.013
95.274
89.538
83.822
78.144
72.521
66.97
61.506
56.143
50.897
45.781
40.806
35.986
31.329
26.847
22.548
18.44
14.529
10.822
7.322
4.035
0.962
-1.894
-4.534
-6.957
-9.164
-11.159
-12.942
-14.52
-15.895
-17.074
-18.061
-18.865
-19.491
-19.947
-20.242
-20.384
-20.381
-20.244
-19.98
-19.601
-19.115
-18.531
-17.861
-17.113
-16.298
-15.425
-14.503
-13.542
-12.551
-11.539
-10.513
-9.483
-8.456
-7.439
-6.439
-5.462
-4.515
-3.602
-2.73
-1.902
-1.122
-0.396
0.274
0.885
1.433
1.918
2.337
2.689
2.972
3.187
3.332
3.408
3.415
3.354
3.226
3.032
2.776
2.458
2.082
1.651
1.169
0.639
0.065
-0.549
-1.198
-1.877
-2.583
-3.31
-4.053
-4.807
-5.567
-6.327
-7.082
-7.826
-8.554
-9.258
-9.935
-10.578
-11.181
-11.739
-12.247
-12.698
-13.089
-13.413
-13.667
-13.846
-13.945
-13.963
-13.897
-13.746
-13.508
-13.183
-12.774
-12.282
-11.71
-11.061
-10.338
-9.547
-8.691
-7.777
-6.81
-5.796
-4.742
-3.655
-2.543
-1.417
-0.285
0.845
1.963
3.061
4.128
5.156
6.134
7.058
7.92
8.715
9.434
10.067
10.608
11.058
11.418
11.689
11.877
11.986
12.026
12.017
11.977
11.922
11.865
11.812
11.769
11.749
11.766
11.836
11.969
12.16
12.405
12.705
13.051
13.434
13.821
14.159
14.394
14.472
14.347
13.984
13.354
12.43
11.179
9.559
7.535
5.085
2.183
-1.173
-5.003
-9.367
-14.192
-19.293
-24.402
-29.097
-33.029
-36.005
-37.715
-37.776
-36.137
-32.923
-28.563
-24.047
-20.045
-16.833
-15.001
-15.059
-16.958
-20.488
-24.681
-27.494
-27.563
-24.039
-15.226
0.345
23.346
54.468
92.138
132.262
173.191
213.947
253.287
292.401
327.179
348.72
349.502
321.127
261.939
179.666
83.578
-17.564
-119.548
-224.272
-334.608
-447.234
-552.21
-638.214
-694.078
-717.145
-714.186
-691.768
-657.027
-613.895
-560.968
-499.058
-430.503
-358.436
-287.896
-222.88
-165.869
-118.49
-81.331
-54.107
-35.798
-25.092
-20.471
-19.9
-21.433
-23.286
-23.756
-22.077
-18.259
-12.498
-5.313
2.485
10.164
16.871
21.727
24.472
25.243
24.334
22.261
19.541
16.621
14.036
12.285
11.598
12.037
13.54
15.944
19.128
22.982
27.362
32.117
37.112
42.241
47.415
52.554
57.563
62.338
66.777
70.814
74.42
77.589
80.34
82.707
84.721
86.433
87.899
89.173
90.308
91.356
92.357
93.361
94.416
95.572
96.879
98.372
100.071
101.989
104.126
106.481
109.046
111.81
114.753
117.858
121.11
124.493
127.996
131.601
135.289
139.039
142.83
146.64
150.45
154.238
157.983
161.664
165.262
168.755
172.126
175.355
178.419
181.298
183.971
186.417
188.618
190.554
192.209
193.565
194.61
195.331
195.718
195.763
195.459
194.8
193.785
192.412
190.682
188.597
186.161
183.382
180.266
176.824
173.065
169.004
164.654
160.03
155.15
150.03
144.691
139.151
133.431
127.553
121.537
115.408
109.186
102.895
96.558
90.196
83.834
77.491
71.19
64.95
58.792
52.734
46.794
40.987
35.33
29.837
24.521
19.393
14.464
9.744
5.24
0.959
-3.094
-6.914
-10.5
-13.849
-16.961
-19.838
-22.48
-24.891
-27.076
-29.039
-30.786
-32.325
-33.664
-34.811
-35.775
-36.567
-37.196
-37.672
-38.008
-38.213
-38.299
-38.276
-38.157
-37.951
-37.67
-37.324
-36.922
-36.475
-35.992
-35.482
-34.952
-34.412
-33.867
-33.326
-32.794
-32.277
-31.78
-31.309
-30.868
-30.461
-30.09
-29.758
-29.469
-29.222
-29.021
-28.865
-28.756
-28.693
-28.677
-28.706
-28.78
-28.898
-29.059
-29.26
-29.5
-29.777
-30.088
-30.431
-30.804
-31.202
-31.624
-32.067
-32.529
-33.005
-33.493
-33.991
-34.494
-34.999
-35.504
-36.005
-36.498
-36.979
-37.445
-37.893
-38.319
-38.72
-39.092
-39.43
-39.732
-39.994
-40.213
-40.385
-40.508
-40.578
-40.594
-40.553
-40.455
-40.3
-40.086
-39.815
-39.49
-39.11
-38.677
-38.196
-37.667
-37.094
-36.481
-35.831
-35.147
-34.434
-33.698
-32.944
-32.178
-31.408
-30.638
-29.875
-29.126
-28.4
-27.704
-27.04
-26.414
-25.831
-25.298
-24.824
-24.414
-24.069
-23.786
-23.564
-23.4
-23.289
-23.221
-23.176
-23.136
-23.082
-23.001
-22.889
-22.735
-22.531
-22.262
-21.911
-21.472
-20.949
-20.35
-19.681
-18.951
-18.174
-17.389
-16.658
-16.043
-15.613
-15.414
-15.485
-15.869
-16.596
-17.711
-19.272
-21.309
-23.851
-26.921
-30.514
-34.66
-39.415
-44.682
-50.252
-55.837
-61.022
-65.483
-69.041
-71.38
-72.119
-71.162
-68.658
-65.072
-61.228
-57.695
-54.677
-52.561
-51.889
-52.731
-54.728
-56.92
-57.686
-55.768
-50.462
-40.73
-25.19
-3.115
25.588
60.084
98.373
138.647
179.259
217.502
249.701
272.325
282.137
276.826
255.115
215.638
157.664
82.044
-7.63
-106.591
-211.095
-316.762
-421.332
-521.976
-610.62
-681.542
-729.175
-748.785
-744.643
-720.563
-680.205
-630.2
-571.864
-506.826
-438.733
-368.978
-300.947
-238.731
-184.482
-139.795
-105.107
-79.417
-61.53
-50.632
-45.39
-43.855
-44.044
-43.919
-42.195
-38.679
-33.511
-26.844
-19.129
-11.033
-3.44
2.529
6.305
7.939
7.681
5.971
3.281
0.024
-3.235
-5.832
-7.389
-7.766
-6.964
-5.147
-2.439
1.082
5.274
9.967
15.017
20.294
25.705
31.188
36.651
41.987
47.09
51.854
56.217
60.157
63.666
66.766
69.484
71.852
73.919
75.741
77.372
78.863
80.263
81.608
82.946
84.323
85.788
87.388
89.154
91.103
93.244
95.574
98.091
100.785
103.643
106.643
109.768
113.0
116.326
119.731
123.199
126.711
130.246
133.783
137.303
140.788
144.219
147.578
150.846
154.006
157.043
159.94
162.681
165.25
167.628
169.799
171.747
173.457
174.916
176.108
177.024
177.654
177.989
178.023
177.752
177.171
176.279
175.076
173.562
171.742
169.618
167.196
164.483
161.487
158.219
154.687
150.904
146.884
142.638
138.182
133.532
128.703
123.712
118.576
113.313
107.941
102.478
96.943
91.353
85.727
80.084
74.439
68.812
63.218
57.674
52.195
46.795
41.488
36.288
31.207
26.256
21.445
16.785
12.283
7.949
3.788
-0.193
-3.988
-7.595
-11.008
-14.227
-17.248
-20.072
-22.698
-25.129
-27.364
-29.408
-31.262
-32.932
-34.421
-35.735
-36.879
-37.86
-38.684
-39.357
-39.887
-40.282
-40.548
-40.695
-40.728
-40.658
-40.492
-40.237
-39.902
-39.495
-39.023
-38.495
-37.917
-37.298
-36.644
-35.963
-35.261
-34.546
-33.822
-33.097
-32.375
-31.663
-30.966
-30.288
-29.633
-29.006
-28.411
-27.852
-27.331
-26.852
-26.417
-26.03
-25.691
-25.402
-25.165
-24.98
-24.847
-24.767
-24.739
-24.762
-24.834
-24.955
-25.122
-25.334
-25.587
-25.879
-26.207
-26.568
-26.958
-27.373
-27.808
-28.259
-28.721
-29.19
-29.66
-30.127
-30.585
-31.028
-31.451
-31.849
-32.215
-32.543
-32.828
-33.064
-33.246
-33.37
-33.43
-33.424
-33.349
-33.204
-32.986
-32.698
-32.337
-31.904
-31.402
-30.83
-30.193
-29.491
-28.727
-27.906
-27.032
-26.111
-25.151
-24.159
-23.142
-22.108
-21.065
-20.02
-18.984
-17.964
-16.966
-16.0
-15.072
-14.195
-13.382
-12.641
-11.976
-11.386
-10.871
-10.427
-10.048
-9.723
-9.436
-9.17
-8.913
-8.655
-8.391
-8.112
-7.804
-7.454
-7.044
-6.565
-6.02
-5.415
-4.756
-4.063
-3.353
-2.66
-2.04
-1.543
-1.211
-1.088
-1.214
-1.631
-2.389
-3.53
-5.079
-7.063
-9.5
-12.403
-15.787
-19.654
-23.977
-28.739
-33.923
-39.42
-45.044
-50.533
-55.512
-59.657
-62.742
-64.44
-64.361
-62.404
-58.735
-53.81
-48.435
-43.21
-38.408
-34.534
-32.281
-31.841
-32.937
-34.672
-35.444
-33.993
-29.557
-20.981
-6.742
14.125
41.958
76.083
114.61
155.635
197.264
236.634
269.922
293.232
302.895
296.123
271.408
227.617
164.36
82.901
-13.826
-121.504
-234.931
-348.894
-458.353
-557.937
-642.657
-708.592
-753.048
-775.247
-775.699
-755.276
-715.8
-660.364
-592.795
-517.53
-439.115
-360.977
-286.207
-218.231
-159.728
-112.417
-76.879
-52.189
-36.735
-29.17
-27.707
-29.879
-33.265
-35.577
-35.419
-32.625
-27.468
-20.277
-11.698
-2.634
5.839
12.518
16.81
18.806
18.832
17.384
14.99
12.129
9.393
7.439
6.623
7.043
8.656
11.271
14.736
18.95
23.759
28.986
34.483
40.122
45.805
51.466
57.014
62.349
67.377
72.005
76.185
79.905
83.172
86.017
88.48
90.603
92.438
94.048
95.489
96.821
98.094
99.352
100.642
102.013
103.51
105.18
107.049
109.135
111.442
113.969
116.71
119.657
122.795
126.106
129.569
133.169
136.89
140.716
144.63
148.611
152.638
156.686
160.734
164.762
168.747
172.668
176.503
180.23
183.83
187.282
190.567
193.663
196.55
199.207
201.616
203.758
205.618
207.18
208.43
209.356
209.949
210.201
210.105
209.656
208.852
207.692
206.175
204.306
202.088
199.526
196.63
193.408
189.871
186.032
181.905
177.506
172.85
167.957
162.846
157.535
152.046
146.399
140.617
134.72
128.732
122.673
116.565
110.431
104.29
98.164
92.073
86.036
80.072
74.198
68.43
62.786
57.279
51.923
46.73
41.713
36.88
32.243
27.807
23.58
19.567
15.772
12.198
8.846
5.716
2.809
0.122
-2.349
-4.606
-6.656
-8.502
-10.152
-11.613
-12.892
-13.997
-14.937
-15.72
-16.355
-16.853
-17.222
-17.472
-17.611
-17.651
-17.6
-17.467
-17.262
-16.993
-16.669
-16.299
-15.889
-15.449
-14.985
-14.504
-14.011
-13.514
-13.018
-12.526
-12.044
-11.577
-11.126
-10.697
-10.292
-9.913
-9.563
-9.244
-8.958
-8.707
-8.491
-8.313
-8.173
-8.072
-8.011
-7.991
-8.013
-8.076
-8.181
-8.328
-8.516
-8.745
-9.014
-9.322
-9.668
-10.051
-10.468
-10.92
-11.404
-11.918
-12.46
-13.029
-13.621
-14.233
-14.864
-15.509
-16.164
-16.827
-17.494
-18.16
-18.82
-19.471
-20.108
-20.725
-21.316
-21.878
-22.403
-22.888
-23.326
-23.714
-24.047
-24.321
-24.534
-24.684
-24.769
-24.789
-24.742
-24.629
-24.45
-24.208
-23.902
-23.535
-23.11
-22.627
-22.093
-21.513
-20.892
-20.237
-19.553
-18.848
-18.131
-17.408
-16.689
-15.983
-15.293
-14.629
-13.997
-13.406
-12.87
-12.396
-11.984
-11.637
-11.353
-11.13
-10.967
-10.852
-10.768
-10.698
-10.627
-10.543
-10.448
-10.333
-10.189
-10.006
-9.768
-9.467
-9.115
-8.715
-8.274
-7.808
-7.324
-6.858
-6.473
-6.226
-6.177
-6.376
-6.849
-7.625
-8.739
-10.226
-12.141
-14.526
-17.399
-20.784
-24.685
-29.126
-34.184
-39.824
-45.866
-52.039
-57.953
-63.279
-67.841
-71.397
-73.561
-74.087
-72.968
-70.584
-67.743
-65.082
-62.878
-61.338
-60.819
-61.745
-64.182
-67.442
-70.065
-70.599
-68.049
-61.718
-50.66
-33.442
-9.08
22.471
60.177
102.263
147.008
192.65
236.431
274.294
302.111
316.079
312.954
290.732
247.869
183.219
98.582
-2.222
-115.906
-237.214
-362.443
-488.45
-606.032
-707.395
-784.762
-830.772
-848.013
-839.995
-810.364
-765.299
-705.923
-634.17
-554.673
-470.913
-387.862
-310.374
-241.316
-183.025
-136.873
-102.739
-79.459
-65.351
-58.57
-56.871
-58.041
-59.95
-60.469
-58.524
-54.064
-47.366
-39.0
-29.806
-20.577
-12.285
-6.049
-2.3
-0.93
-1.623
-3.804
-6.895
-10.418
-13.763
-16.27
-17.593
-17.607
-16.334
-13.962
-10.629
-6.441
-1.558
3.835
9.581
15.543
21.614
27.721
33.763
39.631
45.217
50.418
55.176
59.472
63.306
66.706
69.705
72.344
74.677
76.767
78.676
80.46
82.172
83.855
85.559
87.332
89.223
91.28
93.532
95.994
98.672
101.564
104.664
107.961
111.439
115.076
118.852
122.748
126.747
130.835
134.992
139.197
143.428
147.662
151.876
156.051
160.164
164.194
168.121
171.925
175.586
179.087
182.408
185.53
188.433
191.097
193.505
195.64
197.485
199.027
200.252
201.148
201.707
201.922
201.786
201.295
200.447
199.241
197.679
195.762
193.496
190.886
187.94
184.666
181.076
177.183
172.998
168.538
163.818
158.855
153.668
148.275
142.696
136.951
131.061
125.046
118.929
112.729
106.47
100.172
93.856
87.543
81.253
75.006
68.821
62.716
56.707
50.812
45.045
39.421
33.954
28.656
23.539
18.611
13.883
9.363
5.056
0.969
-2.895
-6.532
-9.94
-13.118
-16.067
-18.789
-21.284
-23.557
-25.611
-27.452
-29.086
-30.519
-31.758
-32.811
-33.686
-34.393
-34.941
-35.338
-35.595
-35.721
-35.727
-35.622
-35.416
-35.119
-34.741
-34.291
-33.777
-33.21
-32.598
-31.948
-31.269
-30.568
-29.853
-29.128
-28.402
-27.679
-26.964
-26.262
-25.578
-24.915
-24.277
-23.667
-23.087
-22.54
-22.028
-21.552
-21.114
-20.714
-20.354
-20.033
-19.752
-19.512
-19.311
-19.15
-19.028
-18.946
-18.901
-18.894
-18.922
-18.986
-19.083
-19.213
-19.373
-19.561
-19.777
-20.018
-20.282
-20.567
-20.872
-21.193
-21.53
-21.878
-22.235
-22.599
-22.966
-23.333
-23.696
-24.053
-24.4
-24.733
-25.049
-25.344
-25.614
-25.855
-26.064
-26.236
-26.368
-26.456
-26.497
-26.489
-26.429
-26.315
-26.148
-25.926
-25.649
-25.319
-24.937
-24.503
-24.019
-23.489
-22.915
-22.299
-21.645
-20.955
-20.235
-19.491
-18.727
-17.95
-17.164
-16.377
-15.596
-14.827
-14.078
-13.354
-12.658
-11.995
-11.368
-10.785
-10.253
-9.777
-9.355
-8.987
-8.672
-8.405
-8.183
-7.994
-7.814
-7.625
-7.411
-7.162
-6.874
-6.544
-6.162
-5.716
-5.194
-4.592
-3.915
-3.168
-2.353
-1.476
-0.557
0.366
1.224
1.941
2.459
2.728
2.714
2.394
1.724
0.649
-0.876
-2.9
-5.447
-8.524
-12.175
-16.481
-21.426
-26.872
-32.538
-38.004
-42.898
-46.989
-50.015
-51.606
-51.537
-49.857
-46.944
-43.594
-40.609
-38.371
-37.151
-37.452
-39.556
-43.275
-47.959
-52.103
-53.868
-52.18
-46.227
-34.453
-15.479
11.339
46.312
87.439
130.708
174.529
217.869
259.337
299.852
335.106
355.968
354.856
323.085
258.52
168.985
63.978
-47.47
-160.447
-276.511
-398.283
-521.604
-635.941
-729.348
-790.035
-815.479
-812.605
-788.147
-749.61
-701.043
-641.327
-571.721
-494.962
-414.692
-336.363
-264.307
-201.277
-149.007
-108.094
-78.178
-58.07
-46.281
-41.102
-40.257
-41.596
-43.187
-43.226
-40.94
-36.383
-29.803
-21.786
-13.23
-4.947
2.142
7.122
9.746
10.198
8.831
6.231
2.973
-0.435
-3.403
-5.394
-6.158
-5.634
-3.893
-1.115
2.564
7.02
12.09
17.606
23.418
29.399
35.447
41.462
47.336
52.946
58.177
62.952
67.235
71.017
74.318
77.172
79.612
81.694
83.477
85.021
86.384
87.619
88.774
89.901
91.055
92.288
93.654
95.191
96.919
98.85
100.989
103.328
105.863
108.581
111.461
114.488
117.646
120.922
124.305
127.779
131.327
134.931
138.571
142.227
145.882
149.519
153.119
156.664
160.137
163.52
166.798
169.952
172.964
175.815
178.486
180.957
183.213
185.235
187.007
188.515
189.746
190.689
191.333
191.671
191.695
191.4
190.782
189.839
188.57
186.977
185.06
182.824
180.275
177.419
174.264
170.82
167.097
163.109
158.868
154.389
149.687
144.779
139.683
134.417
128.999
123.449
117.787
112.034
106.209
100.334
94.429
88.514
82.609
76.733
70.905
65.143
59.465
53.886
48.424
43.092
37.904
32.875
28.014
23.334
18.843
14.551
10.465
6.591
2.935
-0.5
-3.71
-6.695
-9.453
-11.985
-14.293
-16.38
-18.25
-19.907
-21.359
-22.611
-23.672
-24.551
-25.255
-25.795
-26.18
-26.422
-26.529
-26.514
-26.387
-26.159
-25.841
-25.443
-24.976
-24.45
-23.875
-23.26
-22.616
-21.95
-21.271
-20.588
-19.906
-19.234
-18.579
-17.945
-17.34
-16.768
-16.232
-15.738
-15.288
-14.885
-14.531
-14.226
-13.972
-13.769
-13.617
-13.517
-13.467
-13.467
-13.517
-13.616
-13.762
-13.955
-14.193
-14.474
-14.797
-15.16
-15.562
-16.001
-16.476
-16.983
-17.523
-18.092
-18.69
-19.313
-19.96
-20.627
-21.312
-22.011
-22.722
-23.44
-24.163
-24.887
-25.611
-26.332
-27.049
-27.76
-28.461
-29.152
-29.828
-30.488
-31.124
-31.729
-32.297
-32.823
-33.302
-33.73
-34.102
-34.413
-34.661
-34.846
-34.968
-35.023
-35.007
-34.908
-34.723
-34.454
-34.107
-33.695
-33.227
-32.708
-32.152
-31.577
-30.996
-30.415
-29.829
-29.22
-28.58
-27.909
-27.218
-26.525
-25.836
-25.146
-24.45
-23.74
-23.012
-22.261
-21.463
-20.574
-19.575
-18.461
-17.251
-15.989
-14.696
-13.377
-12.035
-10.664
-9.272
-7.878
-6.492
-5.119
-3.769
-2.459
-1.234
-0.166
0.702
1.351
1.776
1.999
2.014
1.799
1.339
0.616
-0.384
-1.685
-3.309
-5.292
-7.655
-10.387
-13.472
-16.879
-20.597
-24.634
-28.986
-33.637
-38.58
-43.843
-49.373
-55.03
-60.567
-65.589
-69.762
-72.855
-74.581
-74.592
-72.714
-69.074
-64.135
-58.726
-53.646
-49.345
-46.273
-45.067
-46.043
-48.927
-52.873
-56.305
-57.468
-55.193
-48.275
-35.014
-14.254
14.394
50.516
92.339
137.536
184.041
228.952
268.109
297.509
313.43
312.663
293.376
254.127
193.696
113.677
18.595
-86.909
-198.392
-314.439
-435.997
-559.148
-674.855
-769.785
-830.326
-851.448
-837.68
-799.871
-749.544
-693.813
-634.387
-569.633
-499.508
-426.092
-352.902
-285.019
-225.758
-176.192
-136.836
-106.892
-84.841
-69.894
-60.925
-55.945
-53.27
-51.244
-48.215
-43.671
-37.778
-30.568
-22.412
-14.032
-6.012
0.835
5.632
8.218
8.818
7.734
5.489
2.595
-0.532
-3.34
-5.264
-6.04
-5.587
-3.951
-1.31
2.21
6.508
11.432
16.815
22.506
28.366
34.29
40.2
46.0
51.583
56.849
61.699
66.082
69.984
73.414
76.402
78.985
81.202
83.108
84.766
86.236
87.576
88.837
90.062
91.297
92.591
93.991
95.543
97.275
99.2
101.325
103.647
106.16
108.857
111.722
114.734
117.874
121.128
124.479
127.915
131.419
134.971
138.552
142.14
145.715
149.259
152.753
156.177
159.512
162.74
165.843
168.805
171.609
174.235
176.666
178.884
180.872
182.615
184.099
185.308
186.232
186.86
187.184
187.196
186.892
186.268
185.322
184.052
182.459
180.547
178.318
175.778
172.933
169.793
166.366
162.664
158.699
154.485
150.037
145.369
140.5
135.447
130.228
124.861
119.365
113.762
108.069
102.307
96.496
90.655
84.804
78.963
73.149
67.381
61.676
56.05
50.52
45.099
39.804
34.645
29.636
24.788
20.111
15.615
11.308
7.197
3.287
-0.415
-3.907
-7.186
-10.251
-13.1
-15.735
-18.157
-20.368
-22.372
-24.172
-25.774
-27.183
-28.406
-29.448
-30.318
-31.022
-31.57
-31.968
-32.226
-32.352
-32.355
-32.243
-32.025
-31.71
-31.305
-30.821
-30.263
-29.642
-28.964
-28.237
-27.469
-26.666
-25.835
-24.982
-24.112
-23.232
-22.346
-21.459
-20.576
-19.699
-18.835
-17.985
-17.153
-16.343
-15.556
-14.797
-14.067
-13.368
-12.703
-12.074
-11.482
-10.929
-10.417
-9.948
-9.524
-9.145
-8.814
-8.531
-8.297
-8.112
-7.976
-7.891
-7.854
-7.866
-7.927
-8.034
-8.188
-8.386
-8.627
-8.91
-9.231
-9.587
-9.977
-10.396
-10.841
-11.306
-11.788
-12.282
-12.783
-13.286
-13.785
-14.273
-14.746
-15.196
-15.617
-16.002
-16.343
-16.635
-16.87
-17.044
-17.15
-17.184
-17.141
-17.019
-16.816
-16.531
-16.162
-15.708
-15.169
-14.546
-13.84
-13.052
-12.185
-11.242
-10.227
-9.148
-8.012
-6.828
-5.604
-4.349
-3.073
-1.785
-0.496
0.786
2.051
3.291
4.493
5.643
6.726
7.732
8.653
9.487
10.233
10.893
11.474
11.987
12.448
12.869
13.258
13.619
13.952
14.263
14.562
14.86
15.171
15.501
15.85
16.22
16.606
16.998
17.371
17.688
17.907
17.997
17.935
17.704
17.289
16.658
15.787
14.657
13.247
11.562
9.592
7.312
4.707
1.77
-1.484
-4.996
-8.738
-12.739
-16.956
-21.269
-25.458
-29.165
-32.091
-34.042
-34.772
-33.957
-31.41
-27.216
-21.79
-15.927
-10.434
-5.805
-2.493
-1.126
-2.052
-5.054
-9.366
-13.479
-15.609
-14.52
-8.987
2.684
21.701
48.547
82.998
123.458
167.66
213.598
258.497
298.368
329.368
347.867
350.526
335.371
301.163
246.773
173.557
85.894
-12.689
-118.688
-229.316
-344.761
-459.385
-562.552
-644.918
-696.05
-713.951
-706.303
-679.648
-641.519
-596.479
-543.057
-482.103
-415.986
-347.138
-280.039
-218.407
-164.206
-118.64
-82.127
-54.07
-33.284
-18.942
-9.981
-4.694
-1.607
0.81
4.11
8.787
14.687
21.769
29.685
37.8
45.603
52.32
57.103
59.765
60.478
59.519
57.378
54.529
51.364
48.408
46.206
45.028
44.974
46.013
47.988
50.789
54.325
58.465
63.058
67.969
73.078
78.287
83.522
88.692
93.696
98.437
102.82
106.794
110.338
113.462
116.195
118.57
120.627
122.419
124.002
125.437
126.778
128.074
129.368
130.706
132.135
133.7
135.447
137.405
139.587
142.001
144.642
147.505
150.581
153.854
157.3
160.902
164.639
168.495
172.455
176.498
180.604
184.748
188.907
193.059
197.18
201.25
205.244
209.141
212.92
216.559
220.038
223.338
226.436
229.312
231.945
234.315
236.405
238.198
239.677
240.829
241.642
242.106
242.214
241.96
241.339
240.351
238.994
237.271
235.186
232.743
229.95
226.817
223.353
219.571
215.485
211.11
206.462
201.561
196.423
191.071
185.523
179.802
173.929
167.927
161.819
155.627
149.375
143.085
136.781
130.484
124.217
118.001
111.857
105.804
99.86
94.043
88.37
82.855
77.512
72.354
67.393
62.638
58.099
53.783
49.695
45.841
42.225
38.847
35.709
32.81
30.15
27.724
25.529
23.561
21.814
20.281
18.954
17.825
16.885
16.125
15.534
15.101
14.814
14.664
14.637
14.723
14.909
15.185
15.538
15.956
16.43
16.949
17.501
18.076
18.666
19.261
19.852
20.432
20.994
21.531
22.036
22.504
22.931
23.311
23.641
23.917
24.136
24.296
24.395
24.433
24.407
24.318
24.165
23.951
23.674
23.338
22.943
22.491
21.985
21.427
20.82
20.167
19.472
18.738
17.97
17.17
16.344
15.495
14.627
13.744
12.849
11.948
11.043
10.138
9.239
8.348
7.47
6.609
5.77
4.956
4.171
3.419
2.703
2.028
1.397
0.812
0.276
-0.207
-0.635
-1.006
-1.319
-1.572
-1.765
-1.899
-1.974
-1.992
-1.956
-1.868
-1.732
-1.551
-1.328
-1.069
-0.777
-0.457
-0.114
0.249
0.626
1.01
1.395
1.775
2.143
2.493
2.817
3.109
3.359
3.564
3.72
3.826
3.878
3.872
3.8
3.659
3.453
3.182
2.851
2.461
2.018
1.535
1.034
0.539
0.066
-0.372
-0.773
-1.13
-1.432
-1.668
-1.824
-1.9
-1.905
-1.847
-1.722
-1.536
-1.307
-1.074
-0.91
-0.888
-1.062
-1.483
-2.185
-3.198
-4.565
-6.342
-8.569
-11.278
-14.494
-18.214
-22.484
-27.39
-32.88
-38.788
-44.828
-50.543
-55.566
-59.697
-62.606
-63.895
-63.502
-61.544
-58.487
-55.377
-52.929
-51.451
-51.52
-53.613
-57.629
-63.294
-69.564
-74.292
-76.009
-73.791
-65.911
-50.901
-28.129
3.044
40.974
81.431
122.668
163.652
203.08
242.168
276.742
297.697
297.359
267.147
205.353
119.927
20.342
-84.42
-189.841
-297.712
-410.693
-525.199
-631.394
-718.005
-774.073
-797.347
-794.614
-772.533
-738.347
-695.907
-643.99
-583.507
-516.718
-446.651
-378.0
-314.375
-258.001
-210.368
-172.129
-143.155
-122.592
-109.377
-102.31
-99.686
-99.855
-101.171
-101.865
-101.055
-98.631
-94.624
-89.379
-83.515
-77.571
-72.313
-68.665
-66.943
-67.055
-68.75
-71.53
-74.909
-78.492
-81.755
-84.164
-85.456
-85.551
-84.5
-82.486
-79.648
-76.101
-72.008
-67.542
-62.859
-58.089
-53.336
-48.69
-44.253
-40.134
-36.437
-33.23
-30.543
-28.382
-26.727
-25.546
-24.801
-24.442
-24.408
-24.644
-25.092
-25.698
-26.413
-27.177
-27.935
-28.632
-29.22
-29.668
-29.958
-30.076
-30.014
-29.768
-29.334
-28.711
-27.899
-26.884
-25.651
-24.191
-22.496
-20.575
-18.432
-16.068
-13.477
-10.645
-7.564
-4.243
-0.7
3.039
6.934
10.938
14.99
19.002
22.877
26.514
29.813
32.69
35.068
36.866
37.98
38.261
37.636
36.147
33.948
31.309
28.494
25.692
23.144
21.249
20.285
