52.907
53.065
53.075
52.991
52.849
52.671
52.479
52.292
52.137
52.043
52.024
52.083
52.22
52.437
52.734
53.115
53.571
54.087
54.647
55.232
55.829
56.434
57.039
57.64
58.233
58.813
59.38
59.939
60.493
61.04
61.58
62.11
62.632
63.15
63.665
64.18
64.697
65.216
65.736
66.259
66.781
67.302
67.818
68.324
68.817
69.295
69.757
70.199
70.62
71.018
71.391
71.736
72.053
72.338
72.588
72.8
72.972
73.1
73.183
73.217
73.2
73.13
73.005
72.824
72.584
72.284
71.923
71.499
71.012
70.462
69.848
69.172
68.434
67.637
66.781
65.87
64.907
63.894
62.835
61.734
60.595
59.422
58.22
56.993
55.747
54.487
53.219
51.95
50.685
49.43
48.191
46.975
45.788
44.635
43.522
42.455
41.44
40.482
39.585
38.756
37.997
37.314
36.708
36.183
35.741
35.381
35.105
34.91
34.796
34.76
34.798
34.908
35.086
35.327
35.626
35.979
36.379
36.822
37.299
37.802
38.324
38.855
39.388
39.913
40.423
40.91
41.364
41.778
42.145
42.458
42.712
42.898
43.007
43.032
42.975
42.837
42.624
42.342
41.998
41.603
41.175
40.73
40.281
39.842
39.415
39.01
38.637
38.305
38.031
37.824
37.677
37.588
37.545
37.529
37.53
37.521
37.452
37.287
36.985
36.502
35.82
34.913
33.75
32.324
30.604
28.561
26.184
23.453
20.356
16.918
13.123
8.936
4.432
-0.251
-4.882
-9.101
-12.623
-15.253
-16.74
-16.781
-15.233
-12.221
-8.194
-3.942
-0.225
2.508
3.856
3.276
0.517
-4.123
-9.808
-15.033
-18.113
-17.909
-13.319
-2.867
14.411
38.774
69.785
105.801
144.682
184.558
222.899
256.142
280.914
294.078
292.902
275.84
241.709
189.466
120.469
38.549
-52.432
-148.681
-248.882
-353.684
-459.536
-558.68
-639.871
-691.685
-710.06
-698.899
-667.38
-625.307
-578.694
-529.077
-475.208
-417.052
-356.34
-295.929
-239.883
-190.789
-149.352
-115.864
-89.612
-69.334
-54.461
-44.182
-36.98
-31.632
-26.92
-21.576
-15.264
-8.164
-0.299
8.033
16.264
23.967
30.501
35.161
37.817
38.645
37.902
36.037
33.478
30.578
27.795
25.6
24.242
23.82
24.315
25.603
27.594
30.215
33.351
36.863
40.621
44.495
48.371
52.156
55.74
59.012
61.888
64.3
66.219
67.658
68.65
69.234
69.454
69.358
69.007
68.474
67.834
67.172
66.567
66.104
65.879
65.978
66.456
67.349
68.658
70.349
72.396
74.774
77.455
80.417
83.628
87.053
90.662
94.422
98.295
102.236
106.177
110.06
113.848
117.518
121.069
124.517
127.866
131.112
134.256
137.291
140.204
142.985
145.611
148.055
150.3
152.335
154.159
155.77
157.159
158.306
159.189
159.776
160.045
159.977
159.55
158.751
157.571
156.005
154.059
151.74
149.058
146.016
142.623
138.885
134.811
130.418
125.719
120.735
115.484
109.989
104.273
98.361
92.275
86.038
79.674
73.203
66.648
60.032
53.378
46.71
40.052
33.425
26.854
20.361
13.968
7.695
1.562
-4.415
-10.218
-15.833
-21.244
-26.441
-31.411
-36.144
-40.634
-44.872
-48.853
-52.573
-56.03
-59.222
-62.15
-64.815
-67.219
-69.366
-71.261
-72.911
-74.32
-75.497
-76.449
-77.187
-77.718
-78.053
-78.203
-78.178
-77.99
-77.65
-77.171
-76.564
-75.841
-75.014
-74.094
-73.092
-72.02
-70.888
-69.706
-68.485
-67.233
-65.96
-64.673
-63.381
-62.091
-60.81
-59.543
-58.297
-57.077
-55.887
-54.733
-53.617
-52.543
-51.515
-50.536
-49.607
-48.731
-47.91
-47.145
-46.439
-45.791
-45.204
-44.678
-44.213
-43.81
-43.469
-43.189
-42.972
-42.815
-42.719
-42.683
-42.705
-42.785
-42.922
-43.114
-43.36
-43.656
-44.003
-44.397
-44.836
-45.318
-45.839
-46.397
-46.987
-47.607
-48.253
-48.92
-49.604
-50.301
-51.005
-51.713
-52.418
-53.115
-53.799
-54.463
-55.103
-55.712
-56.285
-56.815
-57.297
-57.726
-58.096
-58.402
-58.64
-58.805
-58.894
-58.902
-58.829
-58.67
-58.425
-58.092
-57.671
-57.164
-56.571
-55.894
-55.137
-54.302
-53.394
-52.42
-51.384
-50.293
-49.155
-47.976
-46.765
-45.53
-44.279
-43.021
-41.764
-40.518
-39.291
-38.096
-36.94
-35.834
-34.788
-33.81
-32.908
-32.087
-31.35
-30.699
-30.137
-29.664
-29.288
-29.008
-28.824
-28.734
-28.735
-28.821
-28.984
-29.208
-29.472
-29.762
-30.062
-30.364
-30.668
-30.966
-31.25
-31.508
-31.725
-31.893
-32.007
-32.058
-32.033
-31.932
-31.767
-31.574
-31.407
-31.306
-31.291
-31.369
-31.554
-31.885
-32.409
-33.177
-34.238
-35.608
-37.34
-39.538
-42.248
-45.438
-48.95
-52.46
-55.685
-58.464
-60.6
-61.867
-62.137
-61.363
-59.87
-58.373
-57.425
-57.413
-58.614
-61.158
-65.193
-70.741
-77.118
-83.066
-87.352
-88.713
-86.222
-79.18
-66.469
-47.169
-21.228
10.724
47.391
86.902
127.581
167.401
203.124
231.268
248.593
252.288
240.514
212.048
165.94
102.225
23.401
-66.058
-162.179
-261.276
-361.1
-461.067
-555.893
-637.524
-698.833
-732.084
-737.041
-720.062
-686.551
-643.44
-594.441
-538.785
-477.903
-413.679
-348.373
-286.331
-230.712
-183.128
-144.827
-115.795
-95.039
-81.606
-74.372
-71.601
-71.563
-72.534
-72.675
-70.995
-67.336
-61.731
-54.514
-46.337
-37.82
-29.782
-23.198
-18.455
-15.52
-14.195
-14.034
-14.59
-15.479
-16.195
-16.219
-15.299
-13.356
-10.441
-6.723
-2.326
2.645
8.042
13.71
19.514
25.346
31.126
36.787
42.246
47.408
52.181
56.506
60.359
63.736
66.66
69.163
71.277
73.054
74.55
75.818
76.91
77.877
78.76
79.605
80.462
81.378
82.402
83.57
84.903
86.417
88.117
90.003
92.073
94.319
96.726
99.282
101.977
104.798
107.737
110.782
113.916
117.123
120.384
123.683
127.001
130.321
133.625
136.895
140.112
143.26
146.321
149.279
152.113
154.806
157.339
159.693
161.851
163.798
165.517
166.995
168.22
169.179
169.865
170.269
170.386
170.21
169.739
168.97
167.905
166.544
164.892
162.952
160.731
158.236
155.477
152.463
149.207
145.72
142.016
138.11
134.017
129.754
125.337
120.782
116.108
111.333
106.474
101.55
96.577
91.575
86.561
81.551
76.562
71.611
66.713
61.881
57.132
52.476
47.928
43.497
39.196
35.032
31.017
27.156
23.457
19.926
16.568
13.387
10.386
7.566
4.931
2.478
0.21
-1.877
-3.784
-5.513
-7.068
-8.452
-9.672
-10.73
-11.634
-12.388
-13.0
-13.475
-13.822
-14.047
-14.157
-14.161
-14.065
-13.877
-13.605
-13.257
-12.84
-12.36
-11.825
-11.242
-10.617
-9.956
-9.264
-8.548
-7.812
-7.061
-6.3
-5.532
-4.761
-3.991
-3.225
-2.465
-1.714
-0.974
-0.247
0.464
1.158
1.834
2.49
3.126
3.74
4.331
4.9
5.446
5.969
6.468
6.944
7.396
7.825
8.23
8.611
8.968
9.3
9.607
9.887
10.14
10.365
10.561
10.727
10.861
10.961
11.028
11.058
11.051
11.007
10.923
10.8
10.638
10.436
10.194
9.914
9.597
9.243
8.855
8.433
7.981
7.499
6.99
6.457
5.903
5.33
4.742
4.144
3.538
2.929
2.323
1.723
1.136
0.567
0.021
-0.496
-0.977
-1.417
-1.809
-2.147
-2.425
-2.637
-2.779
-2.846
-2.834
-2.741
-2.564
-2.302
-1.955
-1.524
-1.011
-0.416
0.259
1.01
1.833
2.727
3.685
4.705
5.781
6.907
8.076
9.28
10.512
11.763
13.026
14.293
15.557
16.807
18.036
19.236
20.4
21.521
22.589
23.595
24.532
25.399
26.199
26.935
27.611
28.235
28.815
29.366
29.9
30.43
30.966
31.513
32.075
32.66
33.282
33.951
34.674
35.448
36.26
37.098
37.95
38.799
39.619
40.365
40.996
41.472
41.757
41.826
41.646
41.192
40.442
39.37
37.953
36.173
34.021
31.481
28.559
25.243
21.493
17.388
13.084
8.816
4.952
1.822
-0.357
-1.279
-0.579
1.761
5.546
10.289
14.981
18.834
21.391
21.954
19.934
15.406
8.772
1.122
-5.459
-9.36
-9.313
-3.496
9.483
30.228
58.914
94.394
134.228
176.284
218.013
255.619
285.469
304.114
308.168
295.597
265.247
215.96
148.783
67.426
-24.329
-122.756
-226.328
-335.642
-447.695
-554.568
-644.117
-704.106
-728.952
-721.557
-691.516
-648.801
-599.633
-546.066
-486.668
-421.382
-352.745
-284.554
-221.796
-168.065
-124.726
-91.923
-68.698
-53.607
-45.319
-42.156
-41.913
-42.413
-41.729
-38.77
-33.39
-25.854
-16.626
-6.375
4.046
13.627
21.304
26.562
29.446
30.222
29.367
27.367
24.649
21.768
19.312
17.642
16.923
17.187
18.314
20.211
22.814
26.005
29.657
33.66
37.902
42.303
46.798
51.303
55.742
60.032
64.094
67.865
71.292
74.344
77.028
79.361
81.371
83.098
84.579
85.862
87.006
88.06
89.074
90.091
91.149
92.284
93.538
94.945
96.536
98.33
100.333
102.547
104.967
107.586
110.392
113.369
116.496
119.753
123.121
126.584
130.124
133.722
137.356
141.003
144.643
148.253
151.812
155.3
158.695
161.976
165.124
168.12
170.947
173.586
176.018
178.227
180.196
181.908
183.349
184.506
185.368
185.923
186.165
186.086
185.684
184.955
183.899
182.517
180.811
178.787
176.45
173.807
170.869
167.645
164.146
160.387
156.38
152.142
147.687
143.032
138.195
133.194
128.047
122.773
117.389
111.916
106.373
100.778
95.151
89.511
83.875
78.263
72.692
67.179
61.74
56.39
51.145
46.017
41.019
36.164
31.461
26.92
22.551
18.36
14.354
10.538
6.918
3.495
0.274
-2.745
-5.56
-8.172
-10.582
-12.792
-14.803
-16.62
-18.245
-19.685
-20.943
-22.026
-22.942
-23.696
-24.298
-24.754
-25.074
-25.266
-25.34
-25.305
-25.172
-24.948
-24.645
-24.272
-23.838
-23.354
-22.827
-22.267
-21.682
-21.08
-20.469
-19.858
-19.251
-18.657
-18.082
-17.531
-17.01
-16.525
-16.079
-15.677
-15.322
-15.018
-14.766
-14.569
-14.428
-14.344
-14.318
-14.349
-14.437
-14.581
-14.78
-15.032
-15.334
-15.684
-16.079
-16.515
-16.989
-17.498
-18.039
-18.608
-19.202
-19.818
-20.453
-21.103
-21.766
-22.438
-23.117
-23.799
-24.483
-25.164
-25.842
-26.515
-27.182
-27.841
-28.492
-29.135
-29.769
-30.394
-31.01
-31.616
-32.214
-32.803
-33.384
-33.958
-34.527
-35.091
-35.652
-36.211
-36.769
-37.327
-37.886
-38.444
-39.003
-39.561
-40.117
-40.669
-41.217
-41.761
-42.299
-42.831
-43.357
-43.874
-44.382
-44.878
-45.359
-45.82
-46.254
-46.654
-47.016
-47.333
-47.6
-47.813
-47.969
-48.063
-48.096
-48.066
-47.969
-47.8
-47.55
-47.213
-46.789
-46.279
-45.689
-45.031
-44.314
-43.55
-42.757
-41.948
-41.129
-40.302
-39.456
-38.579
-37.67
-36.732
-35.773
-34.806
-33.83
-32.846
-31.856
-30.847
-29.805
-28.71
-27.522
-26.215
-24.779
-23.214
-21.538
-19.784
-17.971
-16.116
-14.236
-12.337
-10.434
-8.541
-6.661
-4.814
-3.034
-1.364
0.134
1.395
2.387
3.078
3.444
3.497
3.242
2.682
1.834
0.702
-0.718
-2.428
-4.453
-6.806
-9.479
-12.446
-15.659
-19.063
-22.629
-26.328
-30.114
-33.982
-37.904
-41.871
-45.941
-50.063
-54.094
-57.821
-60.886
-62.956
-63.85
-63.304
-60.998
-56.959
-51.377
-44.704
-37.909
-31.724
-26.585
-23.189
-22.088
-23.216
-26.27
-30.34
-33.619
-34.734
-32.482
-25.106
-11.319
9.461
37.381
71.43
109.512
149.615
189.057
224.036
250.966
266.257
266.589
249.859
214.354
159.704
88.067
2.584
-92.915
-196.334
-308.446
-427.124
-546.627
-655.887
-738.92
-786.331
-796.316
-774.803
-735.185
-686.555
-633.495
-577.417
-515.865
-449.563
-381.715
-315.751
-256.062
-205.132
-163.378
-130.88
-106.701
-89.377
-77.86
-70.756
-66.403
-63.462
-60.605
-56.681
-51.352
-44.782
-37.188
-29.079
-21.061
-13.626
-7.426
-3.072
-0.67
-0.024
-0.809
-2.541
-4.771
-7.124
-9.142
-10.377
-10.61
-9.78
-7.935
-5.225
-1.772
2.33
6.947
11.93
17.15
22.486
27.841
33.147
38.318
43.264
47.899
52.139
55.94
59.294
62.211
64.72
66.855
68.656
70.171
71.459
72.577
73.576
74.504
75.4
76.305
77.265
78.32
79.513
80.868
82.399
84.112
86.005
88.075
90.316
92.713
95.249
97.909
100.679
103.545
106.497
109.52
112.596
115.71
118.841
121.973
125.09
128.174
131.208
134.176
137.06
139.847
142.52
145.065
147.464
149.703
151.763
153.631
155.292
156.733
157.94
158.903
159.611
160.057
160.235
160.138
159.763
159.108
158.17
156.951
155.452
153.676
151.626
149.309
146.731
143.901
140.827
137.52
133.991
130.252
126.318
122.201
117.916
113.48
108.907
104.214
99.418
94.537
89.587
84.586
79.552
74.501
69.451
64.417
59.418
54.466
49.579
44.769
40.051
35.438
30.94
26.571
22.34
18.256
14.329
10.567
6.976
3.563
0.332
-2.711
-5.564
-8.225
-10.691
-12.962
-15.039
-16.922
-18.614
-20.117
-21.437
-22.576
-23.541
-24.338
-24.973
-25.454
-25.787
-25.982
-26.045
-25.987
-25.815
-25.539
-25.167
-24.709
-24.173
-23.568
-22.904
-22.188
-21.43
-20.637
-19.819
-18.982
-18.136
-17.287
-16.442
-15.609
-14.793
-14.002
-13.24
-12.512
-11.824
-11.178
-10.579
-10.03
-9.532
-9.087
-8.697
-8.362
-8.083
-7.86
-7.691
-7.577
-7.515
-7.504
-7.543
-7.629
-7.76
-7.934
-8.147
-8.398
-8.683
-8.999
-9.343
-9.71
-10.099
-10.503
-10.921
-11.348
-11.78
-12.214
-12.645
-13.071
-13.488
-13.893
-14.283
-14.657
-15.011
-15.345
-15.656
-15.945
-16.21
-16.452
-16.669
-16.863
-17.034
-17.182
-17.31
-17.417
-17.504
-17.575
-17.629
-17.67
-17.697
-17.714
-17.722
-17.724
-17.721
-17.715
-17.708
-17.702
-17.699
-17.702
-17.711
-17.729
-17.757
-17.796
-17.847
-17.909
-17.984
-18.07
-18.166
-18.271
-18.383
-18.5
-18.619
-18.738
-18.852
-18.96
-19.058
-19.141
-19.207
-19.251
-19.269
-19.258
-19.215
-19.136
-19.018
-18.86
-18.659
-18.414
-18.124
-17.79
-17.41
-16.983
-16.511
-15.994
-15.433
-14.829
-14.184
-13.501
-12.782
-12.034
-11.263
-10.474
-9.673
-8.867
-8.063
-7.267
-6.486
-5.728
-4.997
-4.299
-3.64
-3.027
-2.47
-1.974
-1.537
-1.157
-0.832
-0.554
-0.319
-0.117
0.068
0.247
0.434
0.635
0.854
1.096
1.372
1.69
2.066
2.507
3.009
3.567
4.178
4.829
5.511
6.203
6.862
7.457
7.956
8.321
8.529
8.551
8.352
7.913
7.202
6.181
4.83
3.119
1.021
-1.457
-4.342
-7.681
-11.43
-15.474
-19.607
-23.498
-26.857
-29.482
-31.112
-31.414
-30.188
-27.489
-23.694
-19.524
-15.698
-12.638
-10.713
-10.472
-12.26
-15.908
-20.705
-25.242
-27.865
-27.44
-22.91
-12.788
4.101
28.316
59.746
96.996
137.969
180.806
223.04
261.145
291.555
310.574
314.778
302.124
271.026
220.862
153.351
71.275
-21.879
-123.899
-235.052
-353.391
-473.772
-585.685
-674.044
-729.588
-749.79
-739.879
-712.258
-675.046
-632.134
-584.555
-529.452
-467.229
-401.235
-334.712
-271.905
-215.751
-167.112
-126.61
-94.437
-69.896
-52.142
-40.272
-32.887
-28.535
-25.995
-23.935
-21.193
-17.357
-12.39
-6.406
0.128
6.704
12.868
17.993
21.515
23.313
23.544
22.518
20.717
18.581
16.478
14.848
14.068
14.303
15.573
17.776
20.719
24.251
28.258
32.61
37.198
41.922
46.681
51.392
55.975
60.345
64.429
68.152
71.471
74.383
76.912
79.121
81.107
82.938
84.67
86.342
87.954
89.522
91.079
92.648
94.263
95.956
97.749
99.675
101.767
104.03
106.459
109.022
111.663
114.35
117.066
119.807
122.598
125.451
128.365
131.345
134.394
137.507
140.68
143.896
147.124
150.346
153.548
156.725
159.882
163.013
166.099
169.118
172.037
174.824
177.456
179.904
182.137
184.133
185.87
187.334
188.52
189.42
190.024
190.322
190.304
189.961
189.292
188.294
186.969
185.319
183.348
181.063
178.473
175.588
172.417
168.97
165.257
161.29
157.083
152.651
148.01
143.179
138.175
133.02
127.733
122.338
116.855
111.305
105.712
100.094
94.475
88.874
83.311
77.805
72.374
67.035
61.806
56.7
51.733
46.917
42.265
37.787
33.492
29.39
25.488
21.792
18.306
15.035
11.982
9.147
6.531
4.134
1.952
-0.016
-1.775
-3.332
-4.693
-5.864
-6.856
-7.676
-8.335
-8.842
-9.209
-9.445
-9.561
-9.569
-9.479
-9.302
-9.049
-8.729
-8.353
-7.93
-7.47
-6.981
-6.471
-5.947
-5.419
-4.891
-4.371
-3.864
-3.376
-2.912
-2.476
-2.071
-1.702
-1.37
-1.077
-0.825
-0.615
-0.447
-0.32
-0.234
-0.187
-0.179
-0.207
-0.269
-0.363
-0.486
-0.635
-0.808
-1.002
-1.215
-1.443
-1.685
-1.939
-2.201
-2.472
-2.748
-3.028
-3.311
-3.595
-3.878
-4.161
-4.44
-4.717
-4.988
-5.255
-5.517
-5.772
-6.022
-6.266
-6.504
-6.738
-6.967
-7.192
-7.415
-7.638
-7.86
-8.085
-8.314
-8.549
-8.791
-9.044
-9.307
-9.584
-9.876
-10.185
-10.511
-10.857
-11.223
-11.611
-12.022
-12.457
-12.918
-13.404
-13.918
-14.459
-15.028
-15.625
-16.25
-16.904
-17.586
-18.295
-19.03
-19.79
-20.574
-21.379
-22.204
-23.046
-23.901
-24.766
-25.638
-26.513
-27.384
-28.249
-29.102
-29.94
-30.757
-31.548
-32.308
-33.033
-33.717
-34.355
-34.941
-35.468
-35.93
-36.323
-36.641
-36.88
-37.034
-37.101
-37.076
-36.959
-36.748
-36.442
-36.039
-35.537
-34.933
-34.232
-33.44
-32.56
-31.596
-30.554
-29.438
-28.26
-27.03
-25.754
-24.434
-23.075
-21.677
-20.256
-18.822
-17.386
-15.962
-14.55
-13.152
-11.778
-10.44
-9.143
-7.892
-6.681
-5.499
-4.359
-3.27
-2.238
-1.269
-0.346
0.543
1.403
2.24
3.05
3.827
4.583
5.33
6.066
6.792
7.49
8.135
8.739
9.3
9.801
10.231
10.546
10.7
10.67
10.424
9.926
9.15
8.059
6.61
4.802
2.611
0.019
-2.974
-6.408
-10.293
-14.599
-19.33
-24.49
-30.003
-35.735
-41.449
-46.783
-51.432
-55.179
-57.747
-58.803
-58.161
-55.903
-52.431
-48.469
-44.718
-41.593
-39.495
-39.018
-40.515
-43.798
-48.143
-52.171
-54.303
-53.442
-48.486
-37.901
-20.469
4.361
36.408
74.332
116.089
159.674
202.401
240.529
270.207
287.562
289.071
272.341
235.58
178.678
104.057
14.96
-84.499
-192.368
-309.542
-432.939
-556.025
-666.807
-748.127
-790.961
-794.652
-766.125
-720.183
-666.66
-609.747
-550.667
-487.003
-419.402
-351.445
-287.11
-230.654
-184.206
-147.945
-121.217
-102.483
-90.152
-82.793
-78.486
-75.449
-72.197
-67.401
-60.617
-52.082
-42.18
-31.497
-20.827
-10.879
-2.398
3.86
7.707
9.355
9.146
7.598
5.212
2.403
-0.337
-2.507
-3.814
-4.134
-3.458
-1.896
0.456
3.514
7.159
11.262
15.693
20.324
25.04
29.739
34.339
38.769
42.96
46.844
50.354
53.444
56.105
58.354
60.224
61.766
63.026
64.05
64.912
65.692
66.467
67.323
68.304
69.42
70.692
72.141
73.794
75.678
77.799
80.146
82.707
85.47
88.423
91.559
94.848
98.248
101.721
105.222
108.732
112.259
115.799
119.345
122.883
126.394
129.863
133.288
136.653
139.935
143.111
146.154
149.049
151.79
154.369
156.779
159.003
161.013
162.786
164.305
165.553
166.516
167.18
167.528
167.554
167.257
166.64
165.705
164.454
162.886
161.004
158.811
156.316
153.529
150.459
147.118
143.518
139.675
135.604
131.323
126.85
122.198
117.386
112.43
107.349
102.162
96.887
91.544
86.152
80.73
75.298
69.874
64.477
59.126
53.835
48.621
43.501
38.487
33.593
28.833
24.216
19.756
15.46
11.339
7.4
3.65
0.095
-3.259
-6.409
-9.351
-12.084
-14.606
-16.916
-19.016
-20.907
-22.591
-24.071
-25.351
-26.436
-27.331
-28.042
-28.577
-28.942
-29.147
-29.198
-29.106
-28.879
-28.527
-28.059
-27.486
-26.817
-26.062
-25.23
-24.333
-23.379
-22.378
-21.34
-20.274
-19.189
-18.092
-16.993
-15.9
-14.819
-13.757
-12.721
-11.717
-10.751
-9.827
-8.949
-8.122
-7.349
-6.632
-5.973
-5.375
-4.838
-4.362
-3.947
-3.593
-3.298
-3.061
-2.88
-2.752
-2.674
-2.644
-2.659
-2.714
-2.807
-2.934
-3.091
-3.274
-3.48
-3.706
-3.947
-4.2
-4.463
-4.732
-5.005
-5.279
-5.552
-5.822
-6.087
-6.346
-6.597
-6.841
-7.076
-7.302
-7.519
-7.728
-7.93
-8.126
-8.317
-8.506
-8.693
-8.881
-9.073
-9.271
-9.477
-9.693
-9.923
-10.168
-10.43
-10.712
-11.016
-11.343
-11.696
-12.074
-12.481
-12.915
-13.377
-13.867
-14.385
-14.929
-15.499
-16.092
-16.707
-17.342
-17.994
-18.66
-19.337
-20.021
-20.708
-21.394
-22.075
-22.746
-23.401
-24.035
-24.644
-25.221
-25.761
-26.26
-26.712
-27.112
-27.455
-27.736
-27.952
-28.097
-28.168
-28.162
-28.075
-27.906
-27.653
-27.316
-26.893
-26.386
-25.797
-25.128
-24.382
-23.562
-22.672
-21.716
-20.699
-19.626
-18.503
-17.334
-16.127
-14.889
-13.629
-12.354
-11.075
-9.8
-8.538
-7.298
-6.088
-4.918
-3.794
-2.723
-1.713
-0.771
0.096
0.876
1.564
2.16
2.663
3.079
3.416
3.681
3.887
4.054
4.195
4.327
4.46
4.6
4.758
4.947
5.179
5.474
5.845
6.291
6.814
7.404
8.042
8.715
9.391
10.019
10.558
10.967
11.204
11.241
11.043
10.566
9.779
8.647
7.138
5.233
2.909
0.156
-3.021
-6.598
-10.555
-14.868
-19.439
-24.107
-28.64
-32.719
-36.056
-38.446
-39.603
-39.173
-37.086
-33.45
-28.596
-23.281
-18.07
-13.273
-9.488
-7.302
-6.775
-7.743
-9.491
-10.473
-9.568
-5.881
2.083
15.538
35.126
61.178
92.892
128.389
166.009
203.577
237.685
264.944
281.991
285.512
273.384
244.158
196.502
131.335
52.162
-37.256
-133.077
-233.765
-339.805
-447.883
-550.192
-634.869
-689.942
-710.598
-700.412
-669.216
-627.247
-580.887
-531.992
-478.964
-421.539
-361.464
-301.416
-245.262
-195.529
-152.804
-117.353
-88.866
-66.426
-49.588
-37.822
-30.01
-25.147
-22.282
-20.246
-18.114
-15.551
-12.341
-8.433
-4.123
0.324
4.601
8.195
10.635
11.801
11.825
10.976
9.668
8.275
7.088
6.45
6.7
7.988
10.319
13.61
17.686
22.387
27.596
33.159
38.915
44.738
50.492
56.061
61.356
66.274
70.739
74.71
78.161
81.093
83.533
85.519
87.101
88.344
89.305
90.04
90.605
91.05
91.432
91.809
92.235
92.767
93.445
94.298
95.349
96.612
98.092
99.788
101.694
103.795
106.082
108.547
111.181
113.974
116.916
119.992
123.187
126.483
129.864
133.313
136.812
140.341
143.883
147.419
150.931
154.399
157.805
161.125
164.339
167.422
170.354
173.113
175.677
178.024
180.137
181.995
183.584
184.888
185.893
186.588
186.962
187.006
186.715
186.082
185.105
183.782
182.115
180.107
177.761
175.084
172.085
168.774
165.162
161.263
157.091
152.664
147.998
143.111
138.024
132.757
127.329
121.765
116.084
110.31
104.466
98.574
92.657
86.736
80.834
74.972
69.169
63.445
57.82
52.31
46.933
41.704
36.637
31.747
27.044
22.539
18.242
14.16
10.299
6.666
3.262
0.091
-2.846
-5.551
-8.023
-10.266
-12.282
-14.078
-15.658
-17.028
-18.196
-19.17
-19.959
-20.572
-21.019
-21.309
-21.454
-21.465
-21.352
-21.125
-20.797
-20.378
-19.879
-19.311
-18.684
-18.008
-17.294
-16.55
-15.785
-15.008
-14.227
-13.449
-12.68
-11.927
-11.196
-10.491
-9.818
-9.18
-8.582
-8.026
-7.517
-7.054
-6.642
-6.282
-5.973
-5.718
-5.517
-5.369
-5.274
-5.232
-5.243
-5.305
-5.418
-5.58
-5.789
-6.044
-6.342
-6.683
-7.063
-7.48
-7.934
-8.42
-8.938
-9.484
-10.058
-10.657
-11.279
-11.922
-12.583
-13.261
-13.953
-14.658
-15.372
-16.094
-16.822
-17.555
-18.289
-19.023
-19.755
-20.484
-21.206
-21.919
-22.622
-23.311
-23.985
-24.641
-25.277
-25.89
-26.478
-27.04
-27.572
-28.074
-28.543
-28.977
-29.373
-29.729
-30.045
-30.316
-30.543
-30.722
-30.852
-30.932
-30.96
-30.935
-30.855
-30.718
-30.524
-30.272
-29.959
-29.586
-29.151
-28.655
-28.099
-27.483
-26.808
-26.077
-25.294
-24.46
-23.579
-22.655
-21.691
-20.692
-19.662
-18.605
-17.525
-16.428
-15.319
-14.202
-13.084
-11.973
-10.872
-9.789
-8.728
-7.696
-6.699
-5.743
-4.834
-3.974
-3.169
-2.425
-1.75
-1.148
-0.621
-0.166
0.219
0.537
0.796
1.004
1.178
1.335
1.49
1.657
1.847
2.069
2.335
2.66
3.061
3.544
4.108
4.744
5.444
6.198
6.986
7.774
8.503
9.12
9.568
9.79
9.741
9.363
8.605
7.429
5.793
3.666
1.029
-2.141
-5.862
-10.122
-14.917
-20.226
-25.915
-31.801
-37.621
-43.0
-47.636
-51.263
-53.533
-54.176
-53.182
-50.706
-47.179
-43.297
-39.496
-36.154
-33.877
-32.991
-33.396
-34.693
-35.877
-35.597
-33.007
-27.205
-16.675
-0.483
21.679
49.833
82.053
115.956
150.77
184.251
214.691
240.882
257.34
259.719
243.946
205.499
147.061
73.2
-11.218
-100.339
-194.441
-294.95
-399.66
-502.888
-592.682
-657.141
-690.687
-694.844
-678.102
-649.235
-613.382
-572.379
-524.84
-470.622
-412.047
-351.938
-294.049
-241.488
-195.731
-157.62
-127.154
-103.559
-85.949
-73.622
-65.528
-60.214
-56.252
-52.19
-47.178
-41.185
-34.384
-26.941
-19.226
-11.753
-5.169
-0.289
2.524
3.422
2.691
0.743
-1.991
-5.143
-8.236
-10.702
-12.214
-12.655
-12.019
-10.435
-8.009
-4.798
-0.922
3.47
8.245
13.269
18.44
23.685
28.906
33.996
38.849
43.359
47.461
51.133
54.37
57.19
59.62
61.689
63.443
64.936
66.223
67.355
68.38
69.339
70.278
71.245
72.288
73.456
74.781
76.279
77.96
79.828
81.878
84.108
86.504
89.051
91.732
94.536
97.449
100.461
103.559
106.724
109.939
113.185
116.445
119.702
122.939
126.139
129.283
132.357
135.343
138.226
140.991
143.62
146.095
148.398
150.513
152.424
154.116
155.572
156.781
157.73
158.408
158.808
158.921
158.741
158.263
157.485
156.405
155.023
153.34
151.36
149.087
146.528
143.69
140.582
137.215
133.6
129.75
125.68
121.405
116.939
112.301
107.506
102.573
97.521
92.367
87.132
81.834
76.492
71.127
65.757
60.401
55.078
49.806
44.601
39.482
34.463
29.559
24.786
20.155
15.68
11.37
7.237
3.289
-0.466
-4.023
-7.376
-10.52
-13.454
-16.174
-18.682
-20.977
-23.062
-24.937
-26.607
-28.077
-29.35
-30.434
-31.335
-32.06
-32.617
-33.016
-33.264
-33.371
-33.348
-33.204
-32.949
-32.594
-32.149
-31.624
-31.028
-30.373
-29.668
-28.922
-28.143
-27.341
-26.523
-25.696
-24.868
-24.044
-23.231
-22.433
-21.655
-20.9
-20.173
-19.476
-18.812
-18.181
-17.587
-17.029
-16.508
-16.024
-15.576
-15.164
-14.788
-14.445
-14.134
-13.853
-13.601
-13.375
-13.174
-12.995
-12.837
-12.697
-12.573
-12.463
-12.366
-12.28
-12.204
-12.136
-12.077
-12.026
-11.983
-11.947
-11.919
-11.899
-11.889
-11.89
-11.902
-11.927
-11.968
-12.026
-12.103
-12.202
-12.324
-12.472
-12.649
-12.856
-13.096
-13.371
-13.683
-14.033
-14.423
-14.855
-15.329
-15.846
-16.406
-17.009
-17.654
-18.342
-19.069
-19.834
-20.634
-21.468
-22.33
-23.219
-24.13
-25.059
-26.001
-26.951
-27.903
-28.852
-29.792
-30.716
-31.618
-32.492
-33.329
-34.125
-34.872
-35.564
-36.194
-36.756
-37.245
-37.656
-37.982
-38.22
-38.367
-38.419
-38.375
-38.232
-37.992
-37.655
-37.223
-36.698
-36.083
-35.385
-34.606
-33.754
-32.834
-31.853
-30.819
-29.738
-28.62
-27.473
-26.306
-25.13
-23.954
-22.789
-21.646
-20.535
-19.467
-18.45
-17.495
-16.607
-15.79
-15.052
-14.399
-13.84
-13.379
-13.016
-12.75
-12.58
-12.502
-12.507
-12.585
-12.711
-12.869
-13.044
-13.226
-13.412
-13.596
-13.764
-13.902
-13.996
-14.031
-14.01
-13.932
-13.787
-13.578
-13.32
-13.044
-12.815
-12.689
-12.695
-12.858
-13.185
-13.693
-14.435
-15.459
-16.81
-18.531
-20.622
-23.119
-26.117
-29.624
-33.566
-37.754
-41.839
-45.532
-48.68
-51.066
-52.43
-52.616
-51.527
-49.434
-46.975
-44.628
-42.767
-41.71
-41.681
-42.99
-45.805
-49.579
-53.246
-55.74
-55.875
-52.733
-45.452
-32.666
-13.377
12.501
44.379
80.981
120.535
161.341
200.98
235.764
262.106
276.816
277.039
260.909
227.125
174.598
104.573
21.07
-72.518
-172.713
-276.758
-384.237
-489.627
-583.613
-658.107
-704.354
-721.035
-714.62
-690.615
-655.517
-613.343
-563.358
-506.74
-445.775
-382.738
-321.464
-265.21
-215.768
-174.177
-140.828
-115.189
-96.185
-83.117
-75.051
-70.413
-67.832
-65.868
-63.038
-58.864
-53.453
-46.796
-39.191
-31.201
-23.291
-16.198
-10.745
-7.146
-5.284
-4.932
-5.663
-7.081
-8.853
-10.526
-11.622
-11.879
-11.197
-9.607
-7.25
-4.238
-0.659
3.374
7.729
12.287
16.947
21.619
26.241
30.752
35.075
39.138
42.876
46.229
49.169
51.704
53.854
55.651
57.135
58.344
59.324
60.132
60.819
61.434
62.02
62.612
63.247
63.967
64.81
65.811
66.994
68.37
69.944
71.715
73.68
75.834
78.166
80.659
83.296
86.067
88.957
91.954
95.044
98.208
101.428
104.683
107.956
111.228
114.479
117.69
120.841
123.915
126.892
129.755
132.486
135.067
137.479
139.703
141.723
143.524
145.088
146.403
147.456
148.236
148.734
148.943
148.857
148.472
147.787
146.799
145.512
143.927
142.048
139.882
137.435
134.718
131.74
128.512
125.048
121.362
117.468
113.383
109.123
104.706
100.149
95.47
90.689
85.824
80.895
75.921
70.921
65.914
60.918
55.951
51.031
46.176
41.399
36.718
32.145
27.694
23.377
19.205
15.189
11.336
7.656
4.154
0.836
-2.292
-5.229
-7.971
-10.516
-12.865
-15.018
-16.976
-18.741
-20.317
-21.708
-22.917
-23.951
-24.816
-25.518
-26.063
-26.461
-26.719
-26.845
-26.847
-26.735
-26.517
-26.201
-25.796
-25.311
-24.754
-24.133
-23.455
-22.73
-21.963
-21.161
-20.332
-19.481
-18.614
-17.737
-16.855
-15.972
-15.094
-14.223
-13.364
-12.521
-11.695
-10.89
-10.108
-9.351
-8.619
-7.915
-7.239
-6.592
-5.974
-5.384
-4.823
-4.29
-3.786
-3.309
-2.858
-2.433
-2.033
-1.658
-1.306
-0.976
-0.668
-0.38
-0.112
0.137
0.368
0.581
0.779
0.962
1.13
1.285
1.427
1.558
1.679
1.79
1.892
1.985
2.071
2.15
2.221
2.286
2.344
2.396
2.442
2.482
2.516
2.544
2.566
2.582
2.591
2.594
2.591
2.581
2.564
2.54
2.51
2.473
2.431
2.382
2.328
2.27
2.207
2.141
2.072
2.001
1.929
1.857
1.786
1.719
1.655
1.599
1.551
1.514
1.491
1.484
1.496
1.529
1.586
1.67
1.785
1.934
2.12
2.346
2.616
2.933
3.3
3.719
4.192
4.722
5.308
5.952
6.652
7.408
8.219
9.084
10.001
10.968
11.982
13.041
14.142
15.281
16.454
17.654
18.874
20.108
21.349
22.589
23.822
25.039
26.233
27.399
28.53
29.618
30.656
31.634
32.54
33.367
34.112
34.774
35.353
35.856
36.289
36.662
36.994
37.298
37.584
37.861
38.132
38.408
38.701
39.022
39.388
39.811
40.289
40.826
41.416
42.036
42.668
43.281
43.819
44.24
44.505
44.572
44.418
44.003
43.277
42.202
40.741
38.868
36.58
33.853
30.673
27.054
23.004
18.577
13.857
8.86
3.694
-1.453
-6.361
-10.671
-14.032
-16.233
-16.969
-15.895
-12.991
-8.386
-2.465
3.931
10.168
15.775
19.972
22.125
22.159
20.285
17.411
15.115
14.483
16.849
24.188
37.944
59.061
87.075
119.429
154.323
190.767
227.832
265.556
299.49
321.574
324.482
300.127
247.091
171.728
81.486
-14.777
-112.201
-212.949
-319.122
-429.159
-536.093
-626.555
-688.128
-715.54
-711.285
-684.653
-645.148
-598.473
-546.632
-488.47
-424.254
-356.62
-289.061
-226.201
-171.372
-125.888
-90.373
-64.373
-46.603
-35.863
-30.76
-29.303
-29.663
-30.202
-29.369
-26.502
-21.664
-15.058
-7.154
1.278
9.55
16.881
22.445
26.002
27.698
27.807
26.798
25.144
23.241
21.571
20.626
20.64
21.677
23.695
26.533
30.072
34.219
38.841
43.794
48.953
54.211
59.48
64.699
69.788
74.663
79.244
83.452
87.25
90.627
93.594
96.184
98.429
100.37
102.055
103.542
104.883
106.132
107.334
108.528
109.757
111.063
112.486
114.065
115.827
117.783
119.938
122.29
124.834
127.561
130.458
133.506
136.688
139.988
143.391
146.882
150.446
154.063
157.713
161.375
165.03
168.658
172.239
175.753
179.181
182.502
185.698
188.75
191.641
194.351
196.861
199.153
201.21
203.016
204.557
205.818
206.789
207.46
207.823
207.872
207.604
207.014
206.104
204.872
203.323
201.46
199.288
196.814
194.047
190.996
187.672
184.086
180.253
176.187
171.904
167.418
162.749
157.913
152.93
147.818
142.596
137.285
131.903
126.471
121.008
115.534
110.066
104.624
99.225
93.886
88.622
83.449
78.38
73.43
68.609
63.93
59.402
55.036
50.839
46.819
42.982
39.335
35.882
32.625
29.569
26.715
24.063
21.614
19.365
17.316
15.462
13.801
12.327
11.035
9.918
8.971
8.184
7.551
7.063
6.711
6.487
6.381
6.384
6.486
6.679
6.952
7.297
7.705
8.165
8.669
9.209
9.775
10.359
10.953
11.549
12.14
12.718
13.276
13.808
14.309
14.772
15.193
15.566
15.889
16.158
16.37
16.522
16.615
16.645
16.614
16.519
16.363
16.146
15.869
15.533
15.14
14.693
14.193
13.645
13.05
12.412
11.734
11.019
10.272
9.496
8.693
7.87
7.028
6.172
5.306
4.433
3.557
2.682
1.811
0.947
0.094
-0.746
-1.572
-2.379
-3.168
-3.935
-4.681
-5.404
-6.104
-6.781
-7.434
-8.064
-8.671
-9.257
-9.822
-10.368
-10.895
-11.406
-11.903
-12.386
-12.859
-13.322
-13.779
-14.231
-14.68
-15.129
-15.579
-16.032
-16.491
-16.956
-17.431
-17.915
-18.41
-18.917
-19.437
-19.969
-20.514
-21.07
-21.637
-22.215
-22.8
-23.392
-23.987
-24.582
-25.176
-25.766
-26.348
-26.92
-27.478
-28.019
-28.54
-29.037
-29.505
-29.938
-30.332
-30.682
-30.984
-31.234
-31.428
-31.563
-31.636
-31.646
-31.593
-31.477
-31.295
-31.044
-30.72
-30.324
-29.865
-29.352
-28.788
-28.18
-27.533
-26.858
-26.169
-25.474
-24.772
-24.062
-23.337
-22.604
-21.878
-21.169
-20.492
-19.851
-19.235
-18.644
-18.084
-17.556
-17.059
-16.583
-16.101
-15.613
-15.143
-14.707
-14.324
-13.995
-13.697
-13.418
-13.152
-12.896
-12.666
-12.461
-12.267
-12.086
-11.925
-11.801
-11.753
-11.788
-11.875
-12.003
-12.159
-12.354
-12.639
-13.044
-13.594
-14.325
-15.261
-16.432
-17.887
-19.637
-21.695
-24.08
-26.786
-29.842
-33.298
-37.162
-41.463
-46.251
-51.461
-56.958
-62.528
-67.808
-72.479
-76.329
-79.077
-80.376
-80.048
-78.164
-75.115
-71.651
-68.49
-66.013
-64.593
-64.794
-66.926
-70.797
-75.679
-80.096
-82.362
-81.434
-76.27
-65.207
-47.081
-21.427
11.746
50.245
91.301
133.875
175.478
214.001
247.763
270.728
278.12
265.752
228.772
169.441
92.256
1.973
-94.747
-197.289
-308.094
-425.46
-544.801
-654.587
-738.531
-787.686
-800.332
-782.551
-747.327
-703.126
-654.384
-602.512
-545.023
-482.625
-418.116
-354.374
-295.887
-245.369
-203.334
-170.116
-144.975
-126.508
-114.038
-106.603
-102.455
-100.145
-98.304
-95.558
-91.508
-86.328
-80.035
-72.939
-65.686
-58.779
-52.909
-48.815
-46.605
-46.066
-46.933
-48.75
-51.068
-53.522
-55.634
-56.916
-57.153
-56.283
-54.352
-51.522
-47.909
-43.604
-38.75
-33.502
-27.997
-22.364
-16.7
-11.08
-5.592
-0.332
4.609
9.148
13.241
16.879
20.07
22.843
25.231
27.27
29.012
30.513
31.83
33.017
34.12
35.181
36.245
37.357
38.56
39.897
41.394
43.066
44.92
46.957
49.177
51.574
54.138
56.855
59.712
62.697
65.799
69.01
72.316
75.701
79.149
82.644
86.168
89.706
93.241
96.755
100.232
103.654
107.004
110.265
113.421
116.452
119.34
122.067
124.614
126.966
129.105
131.016
132.685
134.099
135.248
136.121
136.711
137.009
137.012
136.714
136.114
135.21
134.004
132.497
130.694
128.601
126.223
123.571
120.654
117.483
114.072
110.433
106.583
102.537
98.312
93.925
89.396
84.743
79.985
75.141
70.232
65.277
60.295
55.305
50.327
45.379
40.478
35.643
30.888
26.231
21.685
17.265
12.984
8.854
4.885
1.087
-2.53
-5.961
-9.198
-12.237
-15.073
-17.705
-20.131
-22.35
-24.364
-26.174
-27.784
-29.197
-30.419
-31.454
-32.31
-32.993
-33.511
-33.873
-34.086
-34.161
-34.105
-33.93
-33.644
-33.258
-32.781
-32.224
-31.596
-30.908
-30.169
-29.388
-28.575
-27.738
-26.885
-26.024
-25.163
-24.308
-23.466
-22.643
-21.844
-21.073
-20.336
-19.635
-18.973
-18.354
-17.778
-17.249
-16.767
-16.332
-15.946
-15.608
-15.319
-15.077
-14.882
-14.732
-14.627
-14.565
-14.543
-14.559
-14.612
-14.698
-14.816
-14.961
-15.132
-15.326
-15.54
-15.77
-16.014
-16.269
-16.533
-16.802
-17.074
-17.347
-17.618
-17.886
-18.149
-18.405
-18.652
-18.89
-19.117
-19.332
-19.534
-19.722
-19.896
-20.055
-20.199
-20.327
-20.44
-20.537
-20.619
-20.687
-20.741
-20.782
-20.811
-20.83
-20.84
-20.843
-20.84
-20.833
-20.824
-20.816
-20.811
-20.81
-20.815
-20.829
-20.853
-20.888
-20.935
-20.996
-21.071
-21.161
-21.265
-21.383
-21.515
-21.66
-21.817
-21.986
-22.166
-22.353
-22.547
-22.745
-22.944
-23.143
-23.337
-23.523
-23.699
-23.859
-24.0
-24.118
-24.208
-24.266
-24.286
-24.264
-24.195
-24.074
-23.895
-23.657
-23.353
-22.982
-22.539
-22.025
-21.436
-20.774
-20.038
-19.231
-18.353
-17.406
-16.393
-15.318
-14.184
-12.996
-11.758
-10.475
-9.154
-7.802
-6.426
-5.036
-3.639
-2.243
-0.857
0.51
1.849
3.151
4.41
5.617
6.765
7.845
8.844
9.757
10.581
11.316
11.965
12.532
13.022
13.443
13.813
14.143
14.447
14.735
15.012
15.285
15.565
15.864
16.2
16.584
17.013
17.486
17.995
18.524
19.064
19.591
20.053
20.414
20.631
20.659
20.476
20.052
19.345
18.334
16.974
15.225
13.07
10.479
7.438
3.963
0.038
-4.36
-9.154
-14.206
-19.298
-24.097
-28.324
-31.775
-34.17
-35.161
-34.528
-32.297
-28.792
-24.666
-20.59
-16.964
-14.195
-12.913
-13.554
-16.05
-19.821
-23.575
-25.707
-25.167
-20.914
-11.23
5.214
29.007
60.284
97.007
136.345
177.173
217.028
253.869
285.956
307.119
312.422
297.375
257.312
195.013
115.064
22.454
-75.876
-179.338
-289.843
-405.313
-521.662
-628.039
-708.808
-755.344
-765.773
-745.456
-706.9
-658.737
-605.161
-547.722
-484.757
-417.202
-348.343
-281.939
-222.284
-171.9
-131.569
-101.13
-79.303
-64.564
-55.587
-50.606
-47.833
-45.629
-42.372
-37.301
-30.474
-22.196
-12.96
-3.463
5.633
13.564
19.451
22.976
24.289
23.708
21.752
18.929
15.663
12.471
9.919
8.341
7.876
8.531
10.175
12.695
16.011
19.997
24.502
29.388
34.524
39.799
45.131
50.43
55.591
60.519
65.12
69.315
73.067
76.366
79.225
81.669
83.733
85.458
86.894
88.101
89.137
90.056
90.907
91.73
92.572
93.478
94.49
95.648
96.973
98.478
100.167
102.038
104.086
106.305
108.68
111.194
113.831
116.577
119.418
122.343
125.335
128.378
131.452
134.539
137.623
140.686
143.71
146.679
149.575
152.382
155.083
157.663
160.106
162.395
164.513
166.444
168.172
169.684
170.967
172.007
172.794
173.319
173.574
173.552
173.25
172.663
171.79
170.63
169.184
167.455
165.447
163.165
160.615
157.807
154.749
151.453
147.929
144.192
140.254
136.131
131.838
127.392
122.81
118.108
113.304
108.417
103.465
98.466
93.437
88.397
83.364
78.354
73.384
68.471
63.63
58.876
54.223
49.684
45.272
40.998
36.872
32.904
29.101
25.473
22.024
18.76
15.684
12.801
10.113
7.619
5.321
3.217
1.305
-0.417
-1.953
-3.308
-4.487
-5.496
-6.341
-7.03
-7.57
-7.969
-8.236
-8.38
-8.409
-8.335
-8.164
-7.909
-7.577
-7.179
-6.723
-6.22
-5.676
-5.102
-4.504
-3.891
-3.27
-2.647
-2.029
-1.422
-0.83
-0.259
0.287
0.805
1.291
1.743
2.159
2.536
2.875
3.173
3.431
3.648
3.826
3.965
4.067
4.133
4.165
4.165
4.137
4.083
4.005
3.907
3.791
3.661
3.519
3.368
3.211
3.051
2.889
2.728
2.57
2.416
2.268
2.128
1.996
1.873
1.76
1.658
1.565
1.483
1.412
1.35
1.298
1.255
1.219
1.19
1.165
1.143
1.123
1.101
1.077
1.047
1.009
0.961
0.899
0.823
0.728
0.613
0.476
0.315
0.128
-0.086
-0.327
-0.597
-0.895
-1.222
-1.576
-1.956
-2.363
-2.795
-3.25
-3.726
-4.222
-4.735
-5.263
-5.802
-6.349
-6.902
-7.455
-8.005
-8.547
-9.078
-9.591
-10.083
-10.547
-10.978
-11.371
-11.72
-12.019
-12.263
-12.446
-12.564
-12.613
-12.589
-12.489
-12.312
-12.057
-11.723
-11.313
-10.825
-10.261
-9.623
-8.914
-8.136
-7.292
-6.386
-5.421
-4.404
-3.341
-2.24
-1.108
0.047
1.216
2.391
3.565
4.726
5.867
6.981
8.058
9.088
10.062
10.965
11.79
12.532
13.19
13.764
14.26
14.683
15.042
15.353
15.628
15.875
16.101
16.311
16.51
16.707
16.912
17.136
17.39
17.672
17.98
18.311
18.648
18.968
19.247
19.444
19.523
19.458
19.219
18.77
18.094
17.163
15.953
14.462
12.662
10.527
8.039
5.169
1.916
-1.685
-5.634
-9.948
-14.565
-19.352
-24.076
-28.383
-31.996
-34.741
-36.386
-36.631
-35.318
-32.546
-28.728
-24.608
-20.883
-17.92
-16.065
-15.847
-17.531
-20.879
-25.138
-28.886
-30.558
-29.148
-23.642
-12.593
5.02
29.602
60.874
97.338
137.004
178.137
218.285
253.882
281.4
297.445
298.999
284.25
251.75
200.247
130.968
47.743
-45.376
-144.371
-247.783
-356.145
-465.826
-568.778
-653.163
-707.021
-725.86
-713.543
-679.725
-634.694
-584.963
-532.393
-475.702
-414.896
-351.816
-289.466
-232.225
-182.859
-142.054
-110.02
-85.867
-68.148
-56.144
-48.862
-44.572
-41.883
-39.486
-36.086
-31.361
-25.533
-18.656
-11.069
-3.406
3.853
10.044
14.453
16.978
17.817
17.24
15.698
13.624
11.365
9.372
8.106
7.782
8.466
10.111
12.564
15.711
19.462
23.692
28.26
33.042
37.925
42.815
47.643
52.329
56.787
60.935
64.696
68.029
70.923
73.393
75.472
77.195
78.605
79.75
80.687
81.473
82.16
82.797
83.424
84.086
84.824
85.682
86.701
87.906
89.313
90.927
92.749
94.774
96.995
99.402
101.976
104.702
107.566
110.553
113.651
116.845
120.116
123.444
126.81
130.194
133.576
136.938
140.26
143.521
146.701
149.782
152.745
155.572
158.241
160.734
163.03
165.112
166.963
168.564
169.903
170.963
171.734
172.205
172.369
172.217
171.746
170.951
169.831
168.385
166.617
164.529
162.126
159.414
156.402
153.099
149.516
145.666
141.561
137.218
132.651
127.878
122.916
117.783
112.499
107.083
101.555
95.935
90.244
84.501
78.728
72.945
67.17
61.425
55.726
50.093
44.541
39.088
33.749
28.538
23.469
18.554
13.803
9.228
4.838
0.64
-3.359
-7.153
-10.737
-14.108
-17.263
-20.201
-22.922
-25.426
-27.716
-29.793
-31.662
-33.326
-34.791
-36.064
-37.15
-38.057
-38.794
-39.368
-39.788
-40.064
-40.205
-40.22
-40.119
-39.912
-39.609
-39.218
-38.75
-38.213
-37.617
-36.97
-36.28
-35.555
-34.803
-34.032
-33.247
-32.455
-31.662
-30.874
-30.096
-29.333
-28.588
-27.866
-27.17
-26.502
-25.867
-25.265
-24.698
-24.168
-23.677
-23.223
-22.809
-22.434
-22.098
-21.8
-21.541
-21.32
-21.135
-20.987
-20.875
-20.797
-20.753
-20.743
-20.764
-20.818
-20.902
-21.018
-21.163
-21.337
-21.541
-21.773
-22.033
-22.32
-22.635
-22.975
-23.342
-23.734
-24.15
-24.59
-25.053
-25.537
-26.042
-26.568
-27.111
-27.672
-28.248
-28.837
-29.439
-30.051
-30.669
-31.293
-31.918
-32.542
-33.162
-33.775
-34.377
-34.965
-35.535
-36.082
-36.604
-37.096
-37.552
-37.97
-38.346
-38.674
-38.951
-39.174
-39.338
-39.441
-39.478
-39.449
-39.349
-39.178
-38.933
-38.613
-38.218
-37.747
-37.202
-36.583
-35.891
-35.131
-34.304
-33.417
-32.474
-31.479
-30.439
-29.359
-28.247
-27.108
-25.949
-24.776
-23.596
-22.415
-21.242
-20.085
-18.951
-17.849
-16.786
-15.769
-14.806
-13.901
-13.056
-12.274
-11.556
-10.906
-10.331
-9.834
-9.415
-9.075
-8.812
-8.623
-8.501
-8.429
-8.386
-8.354
-8.314
-8.256
-8.176
-8.062
-7.902
-7.687
-7.401
-7.035
-6.59
-6.057
-5.43
-4.722
-3.955
-3.18
-2.466
-1.868
-1.428
-1.183
-1.166
-1.433
-2.045
-3.053
-4.504
-6.42
-8.84
-11.853
-15.485
-19.648
-24.156
-28.689
-32.929
-36.689
-39.749
-41.783
-42.61
-42.254
-40.995
-39.465
-38.237
-37.571
-37.689
-38.929
-41.442
-45.025
-49.011
-52.139
-53.076
-50.931
-44.925
-34.051
-17.446
5.249
33.783
67.0
103.155
140.661
177.676
211.519
239.134
257.559
264.143
256.875
234.415
195.731
140.43
70.267
-10.957
-99.976
-193.706
-289.922
-388.301
-483.924
-568.457
-634.563
-674.115
-686.028
-676.384
-650.356
-614.313
-571.907
-522.213
-466.308
-406.102
-343.675
-283.07
-227.643
-179.305
-139.432
-108.208
-84.863
-68.487
-58.259
-52.895
-50.629
-49.658
-48.165
-45.06
-40.195
-33.702
-25.784
-16.895
-7.694
0.965
8.057
13.058
16.009
17.146
16.859
15.557
13.612
11.514
9.847
8.975
9.036
10.036
11.848
14.363
17.52
21.215
25.314
29.701
34.269
38.932
43.634
48.312
52.881
57.26
61.366
65.125
68.502
71.491
74.102
76.363
78.303
79.957
81.371
82.598
83.69
84.697
85.66
86.618
87.613
88.687
89.885
91.249
92.804
94.565
96.538
98.725
101.123
103.727
106.524
109.497
112.629
115.906
119.314
122.84
126.465
130.172
133.937
137.74
141.558
145.371
149.158
152.895
156.561
160.135
163.595
166.922
170.095
173.092
175.892
178.474
180.818
182.905
184.718
186.239
187.454
188.35
188.915
189.142
189.022
188.55
187.722
186.537
184.996
183.1
180.854
178.263
175.335
172.08
168.51
164.637
160.475
156.042
151.354
146.429
141.288
135.951
130.44
124.776
118.983
113.082
107.098
101.053
94.97
88.873
82.784
76.724
70.717
64.781
58.936
53.202
47.595
42.133
36.831
31.702
26.759
22.015
17.48
13.161
9.067
5.204
1.577
-1.811
-4.959
-7.865
-10.53
-12.955
-15.145
-17.102
-18.832
-20.341
-21.636
-22.724
-23.614
-24.314
-24.834
-25.184
-25.374
-25.414
-25.315
-25.089
-24.745
-24.294
-23.747
-23.115
-22.407
-21.634
-20.805
-19.931
-19.019
-18.078
-17.117
-16.142
-15.161
-14.181
-13.207
-12.244
-11.298
-10.372
-9.47
-8.597
-7.753
-6.943
-6.168
-5.43
-4.73
-4.068
-3.447
-2.866
-2.326
-1.826
-1.367
-0.948
-0.569
-0.229
0.072
0.336
0.562
0.752
0.908
1.029
1.117
1.174
1.2
1.195
1.161
1.099
1.008
0.889
0.742
0.568
0.366
0.136
-0.122
-0.409
-0.723
-1.066
-1.437
-1.837
-2.265
-2.722
-3.208
-3.723
-4.265
-4.835
-5.431
-6.054
-6.701
-7.372
-8.065
-8.779
-9.513
-10.265
-11.033
-11.817
-12.613
-13.42
-14.234
-15.053
-15.874
-16.692
-17.504
-18.306
-19.092
-19.859
-20.602
-21.315
-21.995
-22.635
-23.23
-23.776
-24.268
-24.699
-25.066
-25.365
-25.592
-25.743
-25.817
-25.81
-25.723
-25.555
-25.305
-24.973
-24.561
-24.069
-23.498
-22.851
-22.131
-21.338
-20.477
-19.553
-18.57
-17.536
-16.457
-15.341
-14.195
-13.026
-11.845
-10.661
-9.482
-8.315
-7.167
-6.046
-4.962
-3.928
-2.951
-2.035
-1.181
-0.39
0.338
1.004
1.617
2.192
2.743
3.284
3.823
4.363
4.91
5.471
6.057
6.682
7.35
8.056
8.796
9.563
10.346
11.131
11.878
12.533
13.036
13.328
13.357
13.085
12.468
11.471
10.053
8.161
5.759
2.817
-0.689
-4.764
-9.429
-14.723
-20.586
-26.845
-33.246
-39.42
-45.035
-49.857
-53.586
-55.846
-56.433
-55.398
-53.086
-50.17
-47.294
-44.832
-43.185
-42.93
-44.377
-47.324
-51.056
-54.23
-55.335
-53.273
-46.897
-34.664
-15.463
11.055
44.521
83.435
125.622
168.951
210.579
246.668
273.511
287.659
286.043
266.775
228.724
171.971
98.852
12.858
-82.63
-185.774
-295.767
-409.76
-520.777
-617.331
-688.131
-727.179
-735.857
-722.53
-695.776
-660.775
-619.487
-570.488
-513.706
-451.861
-388.139
-326.423
-270.074
-220.713
-179.166
-145.817
-120.134
-101.023
-87.69
-79.085
-73.573
-69.765
-66.288
-61.793
-55.904
-48.821
-40.636
-31.724
-22.712
-14.088
-6.546
-0.823
2.934
4.879
5.261
4.524
3.086
1.275
-0.475
-1.729
-2.256
-1.947
-0.822
0.969
3.291
6.024
9.035
12.203
15.428
18.619
21.702
24.629
27.364
29.895
32.203
34.263
36.048
37.535
38.749
39.759
40.661
41.546
42.486
43.532
44.735
46.152
47.823
49.765
51.963
54.375
56.972
59.748
62.704
65.841
69.138
72.546
76.004
79.467
82.901
86.28
89.578
92.764
95.819
98.749
101.579
104.349
107.084
109.789
112.461
115.093
117.684
120.241
122.768
125.254
127.689
130.062
132.361
134.581
136.708
138.716
140.571
142.234
143.677
144.878
145.821
146.494
146.882
146.977
146.773
146.272
145.476
144.385
143.0
141.321
139.353
137.103
134.583
131.806
128.783
125.526
122.05
118.367
114.493
110.441
106.225
101.859
97.357
92.735
88.01
83.201
78.323
73.396
68.437
63.464
58.495
53.545
48.632
43.769
38.972
34.255
29.63
25.11
20.705
16.427
12.285
8.289
4.445
0.761
-2.758
-6.107
-9.281
-12.278
-15.097
-17.735
-20.193
-22.471
-24.571
-26.494
-28.244
-29.825
-31.241
-32.498
-33.6
-34.555
-35.37
-36.052
-36.609
-37.047
-37.376
-37.602
-37.734
-37.78
-37.747
-37.643
-37.476
-37.253
-36.98
-36.666
-36.316
-35.936
-35.533
-35.11
-34.674
-34.229
-33.778
-33.325
-32.874
-32.426
-31.984
-31.55
-31.124
-30.708
-30.302
-29.906
-29.519
-29.141
-28.771
-28.408
-28.05
-27.696
-27.344
-26.993
-26.641
-26.287
-25.929
-25.565
-25.194
-24.815
-24.427
-24.029
-23.621
-23.201
-22.77
-22.327
-21.873
-21.408
-20.934
-20.45
-19.958
-19.461
-18.958
-18.454
-17.949
-17.448
-16.951
-16.463
-15.985
-15.523
-15.077
-14.653
-14.252
-13.877
-13.533
-13.221
-12.944
-12.703
-12.502
-12.341
-12.221
-12.143
-12.107
-12.112
-12.159
-12.246
-12.372
-12.535
-12.733
-12.963
-13.224
-13.511
-13.82
-14.149
-14.491
-14.843
-15.199
-15.553
-15.9
-16.235
-16.55
-16.841
-17.1
-17.321
-17.499
-17.627
-17.699
-17.71
-17.655
-17.531
-17.332
-17.057
-16.704
-16.272
-15.76
-15.171
-14.505
-13.763
-12.949
-12.065
-11.115
-10.104
-9.035
-7.914
-6.747
-5.542
-4.307
-3.051
-1.781
-0.506
0.763
2.018
3.247
4.442
5.597
6.703
7.753
8.737
9.644
10.466
11.204
11.856
12.424
12.91
13.316
13.653
13.937
14.182
14.403
14.611
14.806
14.997
15.194
15.406
15.651
15.936
16.257
16.612
16.999
17.41
17.838
18.259
18.626
18.898
19.028
18.978
18.726
18.248
17.516
16.501
15.156
13.444
11.339
8.812
5.858
2.45
-1.474
-5.887
-10.674
-15.631
-20.434
-24.805
-28.568
-31.48
-33.245
-33.672
-32.664
-30.499
-27.823
-25.146
-22.872
-21.354
-20.871
-21.79
-24.319
-27.913
-31.446
-33.769
-33.632
-30.085
-22.254
-8.749
11.464
38.479
71.657
109.632
150.529
192.592
233.396
269.205
296.338
311.5
311.805
295.4
260.819
206.821
134.648
48.284
-48.075
-150.349
-257.032
-368.592
-481.281
-586.961
-673.739
-729.62
-750.106
-738.958
-705.608
-660.125
-608.906
-553.837
-493.82
-429.117
-361.805
-295.128
-233.748
-180.733
-137.034
-103.022
-77.853
-60.012
-48.65
-42.598
-39.89
-38.866
-37.981
-35.776
-31.856
-26.439
-19.611
-11.772
-3.661
4.117
10.788
15.573
18.351
19.339
18.816
17.25
15.103
12.753
10.693
9.405
9.103
9.841
11.565
14.114
17.372
21.248
25.607
30.303
35.207
40.203
45.202
50.144
54.945
59.521
63.788
67.664
71.11
74.119
76.703
78.891
80.718
82.222
83.452
84.469
85.326
86.079
86.775
87.452
88.154
88.926
89.81
90.849
92.069
93.482
95.097
96.911
98.922
101.123
103.501
106.037
108.714
111.519
114.436
117.453
120.554
123.719
126.929
130.164
133.403
136.629
139.821
142.96
146.027
149.004
151.871
154.612
157.209
159.643
161.895
163.949
165.786
167.39
168.748
169.845
170.669
171.21
171.46
171.412
171.061
170.404
169.44
168.169
166.591
164.712
162.534
160.066
157.313
154.287
150.996
147.453
143.671
139.663
135.445
131.032
126.442
121.691
116.798
111.78
106.657
101.448
96.172
90.848
85.495
80.132
74.779
69.452
64.17
58.949
53.806
48.754
43.809
38.984
34.29
29.741
25.344
21.111
17.05
13.167
9.47
5.963
2.652
-0.461
-3.373
-6.083
-8.59
-10.894
-12.998
-14.903
-16.613
-18.132
-19.465
-20.617
-21.595
-22.406
-23.057
-23.557
-23.914
-24.138
-24.236
-24.219
-24.096
-23.877
-23.57
-23.185
-22.731
-22.217
-21.653
-21.046
-20.404
-19.737
-19.051
-18.353
-17.651
-16.951
-16.26
-15.582
-14.924
-14.289
-13.682
-13.106
-12.565
-12.059
-11.592
-11.164
-10.776
-10.428
-10.12
-9.85
-9.618
-9.421
-9.257
-9.125
-9.02
-8.941
-8.884
-8.846
-8.824
-8.814
-8.814
-8.82
-8.829
-8.839
-8.846
-8.847
-8.84
-8.823
-8.792
-8.746
-8.683
-8.601
-8.501
-8.381
-8.241
-8.081
-7.902
-7.704
-7.49
-7.26
-7.017
-6.763
-6.5
-6.231
-5.96
-5.691
-5.427
-5.171
-4.929
-4.704
-4.5
-4.321
-4.171
-4.052
-3.969
-3.925
-3.923
-3.966
-4.056
-4.196
-4.387
-4.63
-4.927
-5.277
-5.679
-6.134
-6.639
-7.192
-7.79
-8.43
-9.107
-9.817
-10.558
-11.324
-12.111
-12.913
-13.725
-14.541
-15.355
-16.16
-16.946
-17.705
-18.428
-19.108
-19.738
-20.31
-20.817
-21.253
-21.612
-21.891
-22.087
-22.195
-22.207
-22.114
-21.914
-21.611
-21.212
-20.725
-20.154
-19.505
-18.789
-18.018
-17.203
-16.349
-15.447
-14.491
-13.482
-12.428
-11.347
-10.258
-9.168
-8.074
-6.968
-5.852
-4.728
-3.597
-2.45
-1.267
-0.039
1.218
2.468
3.677
4.832
5.935
7.005
8.051
9.07
10.048
10.967
11.829
12.635
13.376
14.031
14.563
14.953
15.217
15.398
15.524
15.602
15.609
15.505
15.273
14.909
14.405
13.758
12.939
11.917
10.682
9.231
7.58
5.742
3.689
1.37
-1.244
-4.169
-7.38
-10.822
-14.487
-18.402
-22.522
-26.731
-30.811
-34.438
-37.332
-39.288
-40.064
-39.348
-36.944
-32.907
-27.581
-21.631
-15.759
-10.434
-6.108
-3.415
-2.753
-3.995
-6.527
-9.113
-10.266
-8.908
-3.907
6.305
22.954
46.586
77.038
113.041
152.612
193.778
233.881
269.215
296.024
310.612
309.656
290.931
252.802
195.208
120.521
32.0
-66.296
-172.449
-287.401
-408.529
-529.829
-639.781
-721.627
-766.129
-772.162
-746.233
-702.666
-651.065
-595.583
-537.357
-473.879
-405.742
-336.465
-269.964
-210.6
-160.776
-120.973
-90.913
-69.477
-55.241
-46.784
-42.353
-40.284
-39.086
-37.446
-34.545
-29.885
-23.455
-15.701
-7.15
1.702
10.353
18.479
25.733
31.56
35.808
38.685
40.367
41.113
41.101
40.257
38.772
37.175
35.758
34.669
34.002
33.668
33.674
34.182
35.162
36.419
37.824
39.264
40.691
42.172
43.731
45.353
47.06
48.891
50.874
53.038
55.395
57.932
60.646
63.54
66.612
69.853
73.244
76.752
80.345
83.993
87.657
91.288
94.846
98.303
101.642
104.863
107.965
110.945
113.802
116.544
119.181
121.733
124.223
126.681
129.13
131.588
134.075
136.607
139.194
141.841
144.54
147.272
150.02
152.766
155.49
158.168
160.774
163.278
165.647
167.848
169.851
171.63
173.164
174.433
175.42
176.113
176.503
176.589
176.369
175.841
175.004
173.859
172.41
170.664
168.627
166.308
163.717
160.864
157.76
154.414
150.84
147.049
143.054
138.867
134.503
129.977
125.304
120.504
115.592
110.587
105.506
100.369
95.192
89.994
84.791
79.6
74.437
69.317
64.255
59.266
54.362
49.556
44.86
40.283
35.837
31.528
27.366
23.357
19.508
15.823
12.307
8.964
5.796
2.806
-0.006
-2.64
-5.095
-7.375
-9.481
-11.416
-13.184
-14.79
-16.238
-17.534
-18.684
-19.695
-20.572
-21.323
-21.954
-22.474
-22.887
-23.203
-23.427
-23.567
-23.63
-23.621
-23.549
-23.418
-23.236
-23.009
-22.741
-22.439
-22.108
-21.753
-21.379
-20.989
-20.589
-20.181
-19.769
-19.356
-18.944
-18.536
-18.134
-17.738
-17.352
-16.974
-16.607
-16.25
-15.903
-15.567
-15.242
-14.927
-14.622
-14.326
-14.041
-13.764
-13.496
-13.237
-12.986
-12.743
-12.508
-12.28
-12.058
-11.843
-11.635
-11.433
-11.236
-11.046
-10.862
-10.684
-10.513
-10.349
-10.192
-10.044
-9.904
-9.774
-9.654
-9.545
-9.449
-9.367
-9.301
-9.25
-9.218
-9.204
-9.211
-9.24
-9.29
-9.364
-9.462
-9.584
-9.731
-9.904
-10.103
-10.328
-10.581
-10.86
-11.168
-11.503
-11.867
-12.258
-12.676
-13.121
-13.592
-14.088
-14.609
-15.152
-15.716
-16.3
-16.902
-17.52
-18.151
-18.793
-19.442
-20.095
-20.748
-21.399
-22.042
-22.674
-23.291
-23.89
-24.469
-25.025
-25.553
-26.051
-26.516
-26.945
-27.333
-27.674
-27.963
-28.195
-28.366
-28.472
-28.509
-28.476
-28.368
-28.185
-27.927
-27.596
-27.19
-26.705
-26.134
-25.48
-24.747
-23.947
-23.088
-22.178
-21.222
-20.232
-19.225
-18.211
-17.195
-16.168
-15.123
-14.059
-12.983
-11.912
-10.862
-9.838
-8.831
-7.836
-6.854
-5.886
-4.933
-3.98
-2.998
-1.978
-0.93
0.117
1.134
2.113
3.066
4.009
4.951
5.889
6.807
7.701
8.579
9.444
10.29
11.093
11.807
12.412
12.92
13.351
13.717
14.006
14.172
14.173
13.981
13.573
12.923
11.992
10.73
9.09
7.055
4.628
1.825
-1.363
-4.97
-9.019
-13.514
-18.413
-23.66
-29.24
-35.064
-40.956
-46.654
-51.775
-55.97
-59.004
-60.57
-60.296
-58.12
-54.164
-48.809
-42.901
-37.062
-31.671
-27.419
-24.924
-24.241
-25.145
-26.737
-27.341
-25.884
-21.293
-11.734
4.085
26.989
56.696
90.729
127.192
165.364
204.7
245.246
282.997
310.345
319.926
303.918
260.507
193.97
109.888
17.022
-79.493
-179.643
-284.481
-396.39
-512.331
-622.149
-712.156
-769.415
-788.725
-774.177
-736.578
-687.144
-632.818
-575.684
-514.375
-448.692
-380.824
-314.6
-254.67
-203.983
-163.445
-132.774
-110.564
-95.213
-85.513
-79.799
-76.263
-73.254
-69.12
-63.059
-55.154
-45.739
-35.292
-24.518
-14.094
-4.807
2.396
7.134
9.512
9.799
8.506
6.15
3.145
0.023
-2.636
-4.49
-5.351
-5.163
-4.036
-2.056
0.71
4.137
8.104
12.492
17.185
22.093
27.135
32.214
37.244
42.129
46.779
51.119
55.083
58.63
61.76
64.487
66.839
68.854
70.569
72.033
73.305
74.438
75.481
76.482
77.479
78.512
79.626
80.859
82.247
83.813
85.565
87.508
89.64
91.956
94.447
97.1
99.895
102.815
105.847
108.975
112.186
115.466
118.795
122.153
125.523
128.886
132.223
135.516
138.747
141.897
144.948
147.884
150.689
153.345
155.836
158.143
160.25
162.142
163.803
165.219
166.378
167.268
167.88
168.206
168.24
167.976
167.413
166.548
165.381
163.913
162.147
160.088
157.741
155.112
152.21
149.045
145.627
141.969
138.083
133.984
129.686
125.206
120.559
115.764
110.837
105.796
100.661
95.448
90.177
84.867
79.535
74.201
68.881
63.593
58.354
53.178
48.083
43.08
38.185
33.41
28.765
24.263
19.912
15.722
11.701
7.855
4.19
0.711
-2.578
-5.675
-8.577
-11.283
-13.795
-16.113
-18.239
-20.176
-21.927
-23.497
-24.892
-26.116
-27.176
-28.08
-28.835
-29.449
-29.93
-30.286
-30.526
-30.658
-30.692
-30.636
-30.499
-30.288
-30.013
-29.681
-29.301
-28.879
-28.425
-27.943
-27.442
-26.927
-26.405
-25.88
-25.359
-24.845
-24.344
-23.859
-23.394
-22.951
-22.534
-22.145
-21.785
-21.457
-21.16
-20.897
-20.666
-20.469
-20.305
-20.173
-20.073
-20.004
-19.965
-19.954
-19.97
-20.012
-20.078
-20.166
-20.276
-20.404
-20.55
-20.713
-20.89
-21.08
-21.281
-21.491
-21.71
-21.935
-22.165
-22.398
-22.633
-22.868
-23.102
-23.333
-23.561
-23.784
-24.001
-24.211
-24.413
-24.606
-24.79
-24.964
-25.128
-25.282
-25.426
-25.561
-25.685
-25.801
-25.909
-26.008
-26.101
-26.186
-26.264
-26.337
-26.404
-26.466
-26.525
-26.581
-26.636
-26.691
-26.747
-26.806
-26.869
-26.938
-27.015
-27.101
-27.196
-27.304
-27.426
-27.562
-27.714
-27.883
-28.07
-28.274
-28.496
-28.736
-28.991
-29.261
-29.544
-29.837
-30.138
-30.446
-30.757
-31.07
-31.383
-31.696
-32.005
-32.309
-32.606
-32.892
-33.164
-33.414
-33.636
-33.826
-33.976
-34.082
-34.139
-34.141
-34.086
-33.971
-33.793
-33.549
-33.234
-32.84
-32.362
-31.8
-31.157
-30.44
-29.662
-28.832
-27.962
-27.066
-26.156
-25.239
-24.315
-23.376
-22.41
-21.414
-20.391
-19.354
-18.315
-17.272
-16.222
-15.155
-14.058
-12.919
-11.723
-10.445
-9.066
-7.585
-6.012
-4.383
-2.738
-1.1
0.522
2.133
3.739
5.327
6.885
8.396
9.841
11.202
12.454
13.551
14.461
15.172
15.687
16.044
16.278
16.399
16.405
16.27
15.97
15.495
14.833
13.961
12.861
11.517
9.919
8.092
6.052
3.796
1.304
-1.47
-4.559
-7.972
-11.687
-15.681
-19.966
-24.474
-29.058
-33.484
-37.406
-40.511
-42.596
-43.386
-42.531
-39.979
-35.857
-30.532
-24.857
-19.5
-14.86
-11.619
-10.385
-11.167
-13.716
-17.171
-19.757
-20.112
-17.11
-9.032
5.452
26.97
55.759
90.814
129.954
171.196
212.027
248.724
277.678
295.412
298.65
285.405
254.415
204.617
137.102
55.423
-36.401
-134.285
-236.324
-342.403
-449.371
-550.05
-633.453
-688.706
-711.048
-703.307
-674.351
-633.443
-586.878
-537.02
-482.839
-424.61
-364.157
-304.098
-248.542
-200.156
-159.63
-127.263
-102.239
-83.121
-69.221
-59.657
-52.874
-47.643
-42.781
-37.08
-30.278
-22.644
-14.267
-5.481
3.122
11.115
17.876
22.722
25.551
26.553
25.988
24.3
21.907
19.157
16.503
14.418
13.168
12.87
13.522
15.012
17.253
20.172
23.663
27.598
31.853
36.323
40.913
45.549
50.157
54.645
58.927
62.922
66.558
69.796
72.631
75.075
77.154
78.903
80.359
81.572
82.599
83.494
84.307
85.084
85.863
86.685
87.594
88.63
89.832
91.224
92.819
94.62
96.627
98.837
101.24
103.824
106.569
109.46
112.48
115.615
118.851
122.172
125.557
128.988
132.442
135.901
139.343
142.75
146.1
149.373
152.55
155.611
158.539
161.314
163.917
166.329
168.53
170.503
172.232
173.701
174.896
175.804
176.416
176.721
176.714
176.39
175.744
174.775
173.483
171.869
169.937
167.692
165.141
162.29
159.151
155.734
152.051
148.117
143.946
139.555
134.961
130.181
125.235
120.141
114.921
109.593
104.179
98.7
93.176
87.627
82.074
76.537
71.034
65.584
60.205
54.913
49.724
44.653
39.714
34.919
30.279
25.806
21.508
17.393
13.469
9.741
6.213
2.889
-0.228
-3.138
-5.84
-8.336
-10.627
-12.716
-14.607
-16.305
-17.815
-19.143
-20.297
-21.284
-22.112
-22.788
-23.322
-23.723
-23.999
-24.16
-24.215
-24.173
-24.043
-23.833
-23.552
-23.209
-22.812
-22.367
-21.883
-21.367
-20.824
-20.26
-19.683
-19.096
-18.504
-17.913
-17.326
-16.746
-16.177
-15.621
-15.08
-14.557
-14.053
-13.569
-13.107
-12.666
-12.247
-11.851
-11.478
-11.127
-10.798
-10.492
-10.207
-9.944
-9.701
-9.479
-9.277
-9.094
-8.931
-8.788
-8.663
-8.558
-8.473
-8.406
-8.36
-8.333
-8.327
-8.341
-8.375
-8.431
-8.509
-8.61
-8.734
-8.882
-9.054
-9.252
-9.475
-9.725
-10.003
-10.307
-10.639
-10.999
-11.388
-11.805
-12.25
-12.723
-13.223
-13.751
-14.305
-14.884
-15.486
-16.11
-16.754
-17.416
-18.093
-18.783
-19.482
-20.189
-20.901
-21.613
-22.324
-23.028
-23.723
-24.405
-25.07
-25.713
-26.331
-26.919
-27.473
-27.988
-28.462
-28.89
-29.267
-29.59
-29.855
-30.058
-30.196
-30.265
-30.263
-30.187
-30.036
-29.809
-29.505
-29.124
-28.668
-28.138
-27.538
-26.87
-26.136
-25.341
-24.489
-23.584
-22.631
-21.634
-20.599
-19.534
-18.443
-17.336
-16.219
-15.099
-13.985
-12.882
-11.801
-10.748
-9.733
-8.759
-7.832
-6.958
-6.143
-5.397
-4.724
-4.124
-3.596
-3.138
-2.745
-2.416
-2.14
-1.901
-1.683
-1.471
-1.252
-1.024
-0.779
-0.509
-0.201
0.16
0.578
1.048
1.563
2.117
2.703
3.314
3.919
4.468
4.912
5.195
5.277
5.131
4.723
4.03
3.017
1.636
-0.141
-2.331
-4.958
-8.02
-11.546
-15.609
-20.142
-24.974
-29.866
-34.429
-38.353
-41.48
-43.519
-44.116
-43.218
-40.95
-37.74
-34.485
-31.806
-29.972
-29.453
-30.665
-33.544
-37.791
-42.47
-45.797
-46.418
-43.364
-35.351
-21.296
-0.656
26.799
60.291
97.816
137.48
177.206
214.045
244.849
266.407
275.447
269.563
247.44
208.056
151.319
78.596
-7.701
-103.897
-205.357
-307.321
-404.999
-493.473
-568.423
-626.41
-665.057
-683.649
-682.628
-663.249
-627.759
-579.163
-520.965
-457.169
-391.605
-327.267
-266.874
-212.698
-166.301
-128.766
-100.208
-79.649
-65.808
-57.446
-52.989
-50.886
-49.624
-47.608
-44.029
-38.865
-32.312
-24.746
-16.746
-8.841
-1.725
3.743
7.233
8.833
8.781
7.521
5.497
3.07
0.721
-1.011
-1.836
-1.641
-0.427
1.662
4.518
8.062
12.161
16.663
21.433
26.354
31.338
36.324
41.23
45.963
50.432
54.548
58.265
61.563
64.442
66.926
69.041
70.824
72.325
73.6
74.704
75.689
76.601
77.481
78.374
79.324
80.377
81.576
82.952
84.521
86.293
88.269
90.447
92.822
95.383
98.111
100.992
104.012
107.155
110.41
113.762
117.19
120.677
124.2
127.739
131.277
134.791
138.263
141.673
145.001
148.227
151.335
154.305
157.117
159.753
162.191
164.415
166.406
168.149
169.628
170.829
171.741
172.353
172.657
172.647
172.318
171.665
170.688
169.386
167.761
165.817
163.559
160.994
158.129
154.976
151.546
147.85
143.904
139.723
135.322
130.719
125.931
120.978
115.877
110.65
105.315
99.893
94.403
88.867
83.304
77.732
72.173
66.643
61.162
55.745
50.409
45.17
40.042
35.039
30.173
25.456
20.9
16.513
12.303
8.279
4.447
0.812
-2.623
-5.853
-8.878
-11.695
-14.306
-16.71
-18.909
-20.907
-22.706
-24.311
-25.727
-26.958
-28.012
-28.895
-29.614
-30.176
-30.589
-30.86
-30.998
-31.011
-30.907
-30.694
-30.382
-29.978
-29.492
-28.931
-28.304
-27.619
-26.883
-26.105
-25.291
-24.449
-23.585
-22.706
-21.818
-20.926
-20.037
-19.154
-18.282
-17.426
-16.59
-15.775
-14.986
-14.225
-13.495
-12.796
-12.132
-11.503
-10.91
-10.355
-9.837
-9.359
-8.918
-8.516
-8.151
-7.823
-7.531
-7.274
-7.05
-6.859
-6.698
-6.566
-6.461
-6.382
-6.326
-6.293
-6.28
-6.287
-6.31
-6.349
-6.404
-6.472
-6.553
-6.647
-6.753
-6.87
-6.999
-7.138
-7.288
-7.449
-7.621
-7.804
-7.998
-8.204
-8.423
-8.654
-8.9
-9.16
-9.436
-9.729
-10.039
-10.369
-10.719
-11.09
-11.483
-11.899
-12.339
-12.803
-13.291
-13.802
-14.337
-14.894
-15.471
-16.067
-16.68
-17.305
-17.942
-18.585
-19.233
-19.881
-20.525
-21.161
-21.785
-22.392
-22.978
-23.536
-24.064
-24.554
-25.004
-25.406
-25.757
-26.05
-26.282
-26.447
-26.541
-26.559
-26.497
-26.351
-26.118
-25.796
-25.383
-24.878
-24.281
-23.594
-22.82
-21.961
-21.023
-20.008
-18.923
-17.773
-16.565
-15.305
-14.0
-12.658
-11.287
-9.896
-8.495
-7.094
-5.702
-4.329
-2.983
-1.673
-0.41
0.798
1.945
3.024
4.028
4.949
5.777
6.507
7.139
7.676
8.122
8.484
8.767
8.984
9.15
9.283
9.398
9.505
9.614
9.734
9.877
10.06
10.301
10.606
10.975
11.396
11.861
12.361
12.881
13.39
13.845
14.202
14.421
14.468
14.315
13.922
13.253
12.278
10.967
9.303
7.272
4.873
2.092
-1.062
-4.587
-8.497
-12.703
-17.052
-21.321
-25.165
-28.244
-30.307
-31.016
-29.99
-27.186
-22.773
-17.19
-11.392
-6.177
-2.097
0.04
-0.446
-3.56
-8.953
-15.611
-21.547
-25.119
-24.886
-18.863
-5.565
15.642
44.85
80.874
121.321
163.875
205.587
242.417
270.636
286.661
287.299
270.732
235.618
181.779
111.488
27.979
-64.935
-164.913
-272.379
-385.416
-498.612
-601.784
-680.689
-726.805
-738.688
-721.976
-688.233
-645.188
-596.867
-544.458
-485.949
-422.397
-356.734
-291.993
-232.648
-181.454
-139.079
-105.935
-81.295
-63.69
-52.295
-46.003
-42.934
-41.534
-40.369
-38.049
-34.191
-29.011
-22.594
-15.331
-7.922
-0.917
4.985
9.079
11.286
11.837
11.022
9.317
7.181
4.99
3.219
2.298
2.405
3.575
5.736
8.727
12.429
16.74
21.515
26.604
31.871
37.194
42.483
47.655
52.618
57.276
61.535
65.335
68.654
71.493
73.878
75.84
77.417
78.658
79.621
80.363
80.942
81.409
81.811
82.197
82.617
83.121
83.755
84.556
85.541
86.723
88.106
89.688
91.468
93.434
95.573
97.871
100.316
102.897
105.605
108.425
111.343
114.34
117.398
120.501
123.631
126.771
129.903
133.009
136.072
139.075
142.0
144.829
147.544
150.126
152.554
154.809
156.876
158.735
160.372
161.77
162.917
163.801
164.412
164.741
164.781
164.527
163.974
163.119
161.963
160.505
158.749
156.697
154.356
151.732
148.834
145.672
142.257
138.6
134.716
130.618
126.322
121.845
117.202
112.412
107.492
102.462
97.339
92.143
86.892
81.606
76.304
71.003
65.721
60.477
55.286
50.164
45.128
40.192
35.369
30.672
26.113
21.703
17.451
13.367
9.458
5.731
2.191
-1.157
-4.309
-7.263
-10.017
-12.571
-14.925
-17.08
-19.038
-20.802
-22.377
-23.765
-24.973
-26.007
-26.872
-27.575
-28.124
-28.527
-28.791
-28.925
-28.938
-28.838
-28.634
-28.336
-27.953
-27.492
-26.963
-26.374
-25.734
-25.051
-24.332
-23.585
-22.817
-22.034
-21.244
-20.452
-19.664
-18.884
-18.119
-17.371
-16.645
-15.945
-15.274
-14.634
-14.029
-13.461
-12.93
-12.439
-11.988
-11.579
-11.211
-10.885
-10.599
-10.354
-10.149
-9.981
-9.851
-9.755
-9.694
-9.664
-9.663
-9.691
-9.744
-9.822
-9.92
-10.039
-10.176
-10.328
-10.495
-10.674
-10.864
-11.063
-11.27
-11.483
-11.702
-11.924
-12.149
-12.377
-12.605
-12.833
-13.061
-13.287
-13.512
-13.736
-13.958
-14.178
-14.396
-14.614
-14.832
-15.05
-15.269
-15.49
-15.715
-15.944
-16.178
-16.419
-16.668
-16.926
-17.193
-17.471
-17.761
-18.063
-18.378
-18.706
-19.047
-19.401
-19.767
-20.146
-20.535
-20.935
-21.343
-21.759
-22.181
-22.608
-23.037
-23.467
-23.895
-24.319
-24.736
-25.143
-25.537
-25.915
-26.274
-26.608
-26.916
-27.193
-27.434
-27.637
-27.796
-27.908
-27.969
-27.975
-27.923
-27.808
-27.628
-27.381
-27.065
-26.679
-26.222
-25.696
-25.102
-24.441
-23.717
-22.931
-22.086
-21.185
-20.233
-19.234
-18.191
-17.108
-15.992
-14.849
-13.687
-12.513
-11.336
-10.161
-8.999
-7.855
-6.74
-5.661
-4.623
-3.634
-2.699
-1.828
-1.031
-0.315
0.32
0.875
1.353
1.762
2.106
2.399
2.659
2.902
3.14
3.386
3.644
3.921
4.228
4.573
4.971
5.43
5.947
6.515
7.128
7.768
8.417
9.046
9.604
10.05
10.345
10.443
10.316
9.936
9.267
8.295
6.992
5.324
3.277
0.828
-2.047
-5.322
-9.002
-13.108
-17.571
-22.272
-27.013
-31.455
-35.289
-38.289
-40.173
-40.639
-39.511
-36.768
-32.715
-28.012
-23.364
-19.349
-16.487
-15.334
-16.259
-19.286
-23.875
-28.819
-32.547
-33.629
-30.824
-22.529
-7.294
15.679
46.631
84.026
124.646
166.508
207.956
247.313
284.635
315.735
333.1
330.323
299.709
240.441
159.84
65.06
-35.421
-138.431
-248.457
-365.896
-486.948
-601.172
-690.61
-744.234
-759.394
-741.57
-704.644
-658.316
-607.448
-553.611
-494.317
-430.234
-364.523
-300.555
-242.724
-193.48
-153.176
-121.83
-98.373
-81.168
-69.139
-60.992
-55.225
-50.721
-46.342
-41.024
-34.514
-27.073
-18.944
-10.604
-2.603
4.693
10.717
14.874
17.068
17.492
16.466
14.479
11.971
9.295
6.898
5.242
4.567
4.964
6.401
8.733
11.847
15.648
20.006
24.771
29.809
34.997
40.233
45.441
50.53
55.404
59.97
64.142
67.869
71.135
73.949
76.337
78.334
79.984
81.337
82.453
83.392
84.207
84.95
85.661
86.387
87.173
88.063
89.101
90.316
91.722
93.329
95.135
97.139
99.333
101.706
104.24
106.92
109.731
112.66
115.695
118.821
122.02
125.274
128.563
131.868
135.171
138.454
141.698
144.883
147.992
151.005
153.907
156.679
159.302
161.758
164.028
166.094
167.94
169.551
170.91
172.006
172.827
173.362
173.604
173.546
173.183
172.511
171.529
170.237
168.636
166.729
164.522
162.02
159.23
156.163
152.828
149.237
145.404
141.342
137.066
132.592
127.937
123.118
118.153
113.06
107.858
102.565
97.199
91.781
86.329
80.861
75.397
69.952
64.546
59.194
53.912
48.715
43.617
38.631
33.77
29.045
24.465
20.039
15.777
11.685
7.769
4.034
0.483
-2.879
-6.053
-9.035
-11.827
-14.429
-16.843
-19.07
-21.113
-22.977
-24.665
-26.182
-27.534
-28.727
-29.766
-30.66
-31.414
-32.037
-32.537
-32.92
-33.196
-33.371
-33.455
-33.454
-33.376
-33.229
-33.02
-32.757
-32.445
-32.091
-31.702
-31.282
-30.839
-30.376
-29.898
-29.41
-28.917
-28.421
-27.927
-27.439
-26.959
-26.49
-26.036
-25.598
-25.178
-24.778
-24.401
-24.046
-23.715
-23.408
-23.125
-22.868
-22.634
-22.425
-22.24
-22.077
-21.937
-21.818
-21.72
-21.64
-21.579
-21.535
-21.507
-21.493
-21.493
-21.506
-21.529
-21.563
-21.605
-21.654
-21.71
-21.769
-21.832
-21.896
-21.96
-22.023
-22.082
-22.137
-22.187
-22.23
-22.267
-22.295
-22.315
-22.326
-22.328
-22.321
-22.304
-22.279
-22.244
-22.202
-22.152
-22.096
-22.034
-21.967
-21.896
-21.824
-21.75
-21.675
-21.603
-21.533
-21.468
-21.408
-21.356
-21.314
-21.283
-21.265
-21.262
-21.276
-21.307
-21.358
-21.429
-21.52
-21.633
-21.767
-21.922
-22.097
-22.294
-22.51
-22.745
-22.996
-23.264
-23.545
-23.838
-24.14
-24.448
-24.759
-25.07
-25.379
-25.68
-25.972
-26.25
-26.51
-26.749
-26.962
-27.144
-27.292
-27.4
-27.465
-27.482
-27.449
-27.361
-27.216
-27.013
-26.749
-26.425
-26.041
-25.598
-25.095
-24.534
-23.917
-23.247
-22.524
-21.753
-20.935
-20.075
-19.179
-18.253
-17.305
-16.339
-15.363
-14.384
-13.409
-12.445
-11.499
-10.576
-9.683
-8.829
-8.022
-7.272
-6.587
-5.97
-5.42
-4.936
-4.512
-4.141
-3.813
-3.511
-3.222
-2.933
-2.635
-2.324
-1.99
-1.625
-1.217
-0.753
-0.224
0.372
1.027
1.736
2.478
3.227
3.955
4.614
5.158
5.553
5.758
5.732
5.447
4.866
3.955
2.696
1.057
-0.988
-3.455
-6.367
-9.718
-13.471
-17.612
-22.135
-26.962
-31.952
-36.876
-41.387
-45.194
-48.093
-49.837
-50.113
-48.745
-45.799
-41.621
-36.891
-32.32
-28.304
-25.197
-23.565
-23.721
-25.496
-28.298
-30.835
-31.512
-29.362
-23.55
-12.58
4.718
28.76
59.575
95.218
132.202
169.055
204.532
237.181
267.576
291.912
302.961
294.732
259.878
197.058
113.24
16.6
-84.004
-183.627
-284.536
-389.178
-495.436
-596.117
-678.663
-731.494
-750.696
-739.779
-707.721
-663.915
-614.238
-560.679
-502.497
-440.045
-375.252
-310.963
-251.131
-198.314
-153.142
-115.759
-85.563
-61.511
-43.179
-30.018
-20.884
-14.826
-11.004
-8.645
-7.524
-7.614
-8.594
-10.12
-11.934
-13.81
-15.729
-17.559
-18.803
-19.088
-18.261
-16.416
-13.984
-11.241
-8.192
-5.011
-2.047
0.487
2.474
4.073
5.797
7.945
10.576
13.783
17.623
22.096
27.183
32.688
38.229
43.545
48.488
52.965
56.973
60.512
63.575
66.208
68.502
70.531
72.362
74.037
75.573
76.999
78.356
79.689
81.053
82.492
84.046
85.742
87.598
89.622
91.816
94.178
96.7
99.372
102.179
105.108
108.154
111.305
114.553
117.883
121.276
124.713
128.178
131.653
135.124
138.575
141.988
145.349
148.642
151.852
154.965
157.964
160.833
163.553
166.109
168.484
170.663
172.632
174.376
175.883
177.141
178.14
178.871
179.326
179.5
179.385
178.979
178.279
177.284
175.994
174.411
172.537
170.377
167.938
165.225
162.248
159.016
155.54
151.832
147.904
143.771
139.446
134.946
130.286
125.484
120.556
115.52
110.394
105.196
99.945
94.658
89.353
84.049
78.762
73.509
68.307
63.171
58.117
53.159
48.312
43.588
38.999
34.557
30.272
26.154
22.21
18.449
14.876
11.497
8.315
5.335
2.557
-0.017
-2.387
-4.555
-6.522
-8.291
-9.867
-11.255
-12.459
-13.486
-14.343
-15.038
-15.578
-15.971
-16.226
-16.353
-16.359
-16.256
-16.052
-15.756
-15.379
-14.93
-14.418
-13.853
-13.242
-12.595
-11.92
-11.225
-10.517
-9.803
-9.089
-8.382
-7.687
-7.009
-6.353
-5.721
-5.117
-4.545
-4.005
-3.5
-3.031
-2.598
-2.203
-1.846
-1.526
-1.243
-0.996
-0.786
-0.609
-0.466
-0.356
-0.275
-0.223
-0.198
-0.198
-0.221
-0.266
-0.329
-0.411
-0.509
-0.621
-0.747
-0.885
-1.033
-1.192
-1.36
-1.536
-1.721
-1.914
-2.115
-2.325
-2.544
-2.772
-3.01
-3.258
-3.517
-3.786
-4.067
-4.359
-4.662
-4.976
-5.302
-5.639
-5.986
-6.346
-6.717
-7.1
-7.495
-7.903
-8.322
-8.754
-9.198
-9.653
-10.119
-10.596
-11.082
-11.579
-12.084
-12.599
-13.121
-13.65
-14.185
-14.726
-15.269
-15.815
-16.362
-16.908
-17.452
-17.994
-18.532
-19.067
-19.597
-20.123
-20.644
-21.159
-21.667
-22.167
-22.658
-23.137
-23.602
-24.051
-24.482
-24.893
-25.283
-25.65
-25.995
-26.316
-26.613
-26.884
-27.127
-27.339
-27.515
-27.651
-27.744
-27.788
-27.781
-27.72
-27.603
-27.431
-27.204
-26.923
-26.585
-26.187
-25.723
-25.188
-24.582
-23.905
-23.163
-22.364
-21.522
-20.655
-19.78
-18.912
-18.059
-17.226
-16.406
-15.593
-14.779
-13.963
-13.149
-12.343
-11.547
-10.764
-9.994
-9.224
-8.433
-7.591
-6.659
-5.607
-4.418
-3.085
-1.615
-0.031
1.635
3.356
5.107
6.87
8.628
10.367
12.075
13.725
15.278
16.684
17.882
18.812
19.433
19.711
19.622
19.172
18.385
17.287
15.917
14.305
12.468
10.427
8.193
5.777
3.202
0.498
-2.303
-5.154
-8.008
-10.823
-13.559
-16.208
-18.787
-21.32
-23.832
-26.368
-28.998
-31.709
-34.401
-36.882
-38.828
-39.933
-39.999
-38.753
-35.868
-31.359
-25.463
-18.68
-12.021
-6.298
-1.999
0.144
-0.47
-3.759
-9.304
-16.007
-21.778
-24.962
-24.212
-17.619
-3.741
18.058
47.951
84.739
125.922
169.247
211.979
250.169
280.086
298.185
301.072
286.869
254.604
203.211
133.916
50.583
-42.957
-142.074
-244.439
-351.36
-460.398
-565.808
-657.791
-722.267
-751.995
-747.357
-714.993
-667.599
-613.982
-557.978
-500.424
-439.188
-374.644
-309.615
-247.685
-192.883
-147.213
-111.073
-84.119
-65.081
-52.779
-46.077
-43.155
-42.251
-41.806
-40.324
-37.166
-32.362
-26.042
-18.624
-10.826
-3.309
3.163
7.817
10.454
11.236
10.456
8.608
6.181
3.607
1.397
0.021
-0.3
0.49
2.332
5.069
8.583
12.764
17.47
22.546
27.855
33.283
38.734
44.116
49.331
54.271
58.831
62.945
66.583
69.738
72.43
74.691
76.555
78.073
79.303
80.299
81.117
81.81
82.423
83.007
83.615
84.296
85.102
86.07
87.219
88.564
90.11
91.853
93.79
95.912
98.201
100.645
103.231
105.947
108.785
111.73
114.766
117.877
121.045
124.252
127.482
130.717
133.941
137.135
140.284
143.37
146.377
149.288
152.084
154.746
157.256
159.595
161.746
163.692
165.416
166.906
168.146
169.127
169.838
170.27
170.417
170.272
169.833
169.095
168.059
166.725
165.094
163.17
160.958
158.464
155.695
152.661
149.371
145.838
142.073
138.09
133.904
129.53
124.983
120.282
115.442
110.483
105.421
100.276
95.066
89.809
84.525
79.23
73.942
68.679
63.458
58.293
53.2
48.194
43.289
38.498
33.832
29.303
24.921
20.696
16.637
12.75
9.042
5.519
2.185
-0.956
-3.903
-6.652
-9.205
-11.561
-13.721
-15.689
-17.466
-19.058
-20.469
-21.704
-22.769
-23.672
-24.419
-25.018
-25.476
-25.802
-26.005
-26.093
-26.074
-25.958
-25.753
-25.468
-25.113
-24.695
-24.224
-23.706
-23.152
-22.567
-21.959
-21.336
-20.705
-20.07
-19.44
-18.817
-18.209
-17.619
-17.051
-16.508
-15.994
-15.511
-15.06
-14.644
-14.263
-13.919
-13.611
-13.339
-13.104
-12.905
-12.74
-12.61
-12.512
-12.445
-12.408
-12.399
-12.415
-12.455
-12.518
-12.6
-12.699
-12.815
-12.944
-13.084
-13.234
-13.391
-13.554
-13.721
-13.89
-14.059
-14.228
-14.396
-14.561
-14.723
-14.881
-15.036
-15.187
-15.334
-15.477
-15.616
-15.752
-15.885
-16.016
-16.145
-16.273
-16.4
-16.528
-16.658
-16.789
-16.924
-17.063
-17.206
-17.355
-17.511
-17.675
-17.847
-18.029
-18.221
-18.425
-18.642
-18.871
-19.115
-19.373
-19.646
-19.933
-20.235
-20.55
-20.88
-21.221
-21.574
-21.936
-22.306
-22.683
-23.064
-23.447
-23.831
-24.212
-24.589
-24.958
-25.317
-25.663
-25.993
-26.304
-26.592
-26.855
-27.089
-27.291
-27.458
-27.585
-27.67
-27.708
-27.697
-27.632
-27.511
-27.33
-27.086
-26.778
-26.404
-25.963
-25.454
-24.878
-24.238
-23.533
-22.768
-21.943
-21.063
-20.131
-19.151
-18.126
-17.061
-15.961
-14.832
-13.68
-12.514
-11.34
-10.165
-8.998
-7.846
-6.716
-5.616
-4.553
-3.534
-2.566
-1.656
-0.813
-0.048
0.633
1.228
1.736
2.161
2.508
2.781
2.992
3.156
3.287
3.396
3.494
3.588
3.688
3.806
3.956
4.154
4.409
4.721
5.086
5.5
5.947
6.412
6.865
7.264
7.569
7.746
7.759
7.569
7.139
6.423
5.389
4.015
2.28
0.164
-2.355
-5.296
-8.667
-12.441
-16.603
-21.161
-26.029
-31.053
-35.998
-40.488
-44.197
-46.92
-48.372
-48.221
-46.443
-43.19
-38.873
-34.371
-30.322
-27.048
-25.11
-24.991
-26.611
-29.652
-33.191
-35.456
-35.169
-31.378
-22.616
-7.756
13.713
42.029
76.233
114.192
154.097
193.751
229.781
258.935
278.0
283.526
273.308
246.244
201.093
138.637
62.318
-25.353
-121.459
-223.173
-330.187
-437.347
-535.284
-615.616
-669.123
-693.61
-694.93
-678.597
-650.896
-615.181
-570.352
-517.218
-457.843
-395.166
-333.483
-275.982
-224.658
-180.815
-144.984
-117.045
-96.181
-81.332
-71.399
-64.916
-60.499
-56.815
-52.461
-46.811
-39.91
-31.929
-23.256
-14.466
-6.035
1.396
7.062
10.713
12.452
12.519
11.353
9.374
6.934
4.493
2.55
1.407
1.201
1.948
3.539
5.885
8.913
12.512
16.547
20.893
25.442
30.107
34.821
39.516
44.105
48.506
52.637
56.43
59.843
62.868
65.514
67.804
69.773
71.457
72.905
74.174
75.318
76.384
77.418
78.456
79.537
80.706
82.001
83.462
85.114
86.97
89.035
91.309
93.787
96.463
99.322
102.344
105.512
108.81
112.222
115.734
119.329
122.986
126.685
130.403
134.119
137.814
141.466
145.054
148.557
151.955
155.23
158.362
161.333
164.123
166.713
169.085
171.219
173.1
174.712
176.04
177.072
177.796
178.204
178.287
178.042
177.462
176.547
175.295
173.708
171.789
169.542
166.973
164.09
160.902
157.42
153.657
149.626
145.342
140.821
136.08
131.137
126.011
120.72
115.286
109.728
104.066
98.323
92.518
86.673
80.808
74.944
69.102
63.299
57.557
51.892
46.321
40.863
35.53
30.34
25.304
20.435
15.744
11.242
6.938
2.839
-1.049
-4.72
-8.17
-11.397
-14.399
-17.175
-19.728
-22.058
-24.169
-26.064
-27.748
-29.228
-30.509
-31.598
-32.504
-33.236
-33.801
-34.21
-34.472
-34.598
-34.599
-34.483
-34.263
-33.949
-33.551
-33.079
-32.544
-31.956
-31.324
-30.657
-29.965
-29.255
-28.536
-27.813
-27.095
-26.387
-25.693
-25.02
-24.37
-23.747
-23.155
-22.596
-22.071
-21.582
-21.129
-20.715
-20.337
-19.996
-19.692
-19.422
-19.186
-18.983
-18.809
-18.664
-18.545
-18.45
-18.376
-18.322
-18.284
-18.26
-18.248
-18.246
-18.251
-18.262
-18.276
-18.293
-18.312
-18.331
-18.35
-18.368
-18.386
-18.403
-18.42
-18.437
-18.455
-18.474
-18.497
-18.523
-18.555
-18.592
-18.638
-18.693
-18.759
-18.838
-18.93
-19.038
-19.163
-19.306
-19.468
-19.652
-19.858
-20.087
-20.341
-20.619
-20.924
-21.254
-21.611
-21.993
-22.4
-22.831
-23.285
-23.76
-24.254
-24.765
-25.29
-25.827
-26.372
-26.923
-27.477
-28.03
-28.578
-29.117
-29.644
-30.154
-30.643
-31.107
-31.542
-31.943
-32.306
-32.628
-32.903
-33.128
-33.297
-33.409
-33.457
-33.439
-33.352
-33.193
-32.959
-32.649
-32.262
-31.798
-31.257
-30.641
-29.951
-29.191
-28.361
-27.466
-26.51
-25.497
-24.431
-23.315
-22.157
-20.96
-19.734
-18.483
-17.216
-15.94
-14.662
-13.39
-12.132
-10.896
-9.69
-8.519
-7.39
-6.308
-5.282
-4.32
-3.43
-2.611
-1.863
-1.183
-0.57
-0.019
0.478
0.939
1.377
1.807
2.24
2.678
3.13
3.604
4.113
4.672
5.291
5.965
6.689
7.457
8.257
9.08
9.899
10.663
11.322
11.825
12.127
12.204
12.027
11.563
10.773
9.602
8.007
5.962
3.449
0.458
-3.028
-7.069
-11.642
-16.602
-21.726
-26.695
-31.214
-35.108
-38.153
-39.999
-40.415
-39.403
-37.246
-34.579
-32.03
-29.916
-28.526
-28.324
-29.63
-32.387
-36.036
-39.322
-40.792
-39.439
-34.328
-24.226
-8.051
14.81
44.33
79.385
118.166
158.986
199.704
237.23
268.197
289.243
297.143
289.591
264.986
221.787
160.529
84.325
-3.368
-98.335
-198.644
-305.56
-416.684
-526.241
-623.728
-693.974
-728.901
-728.344
-699.174
-655.214
-605.949
-555.355
-504.069
-449.27
-390.834
-331.347
-274.093
-222.789
-179.249
-143.755
-115.955
-94.748
-79.146
-68.298
-60.812
-55.346
-50.658
-45.437
-39.122
-31.752
-23.434
-14.485
-5.442
3.215
10.859
16.733
20.596
22.577
22.922
22.067
20.438
18.38
16.348
14.852
14.193
14.5
15.785
17.928
20.83
24.424
28.598
33.215
38.147
43.277
48.501
53.748
58.942
63.989
68.805
73.303
77.41
81.091
84.341
87.17
89.605
91.678
93.426
94.898
96.15
97.236
98.207
99.106
99.973
100.849
101.775
102.794
103.943
105.245
106.711
108.347
110.151
112.12
114.247
116.518
118.916
121.425
124.031
126.722
129.486
132.307
135.169
138.055
140.945
143.823
146.672
149.474
152.214
154.872
157.434
159.883
162.204
164.381
166.398
168.238
169.886
171.327
172.547
173.534
174.276
174.762
174.984
174.936
174.613
174.011
173.129
171.965
170.52
168.796
166.798
164.528
161.994
159.201
156.159
152.877
149.364
145.632
141.694
137.562
133.251
128.774
124.146
119.385
114.505
109.523
104.456
99.321
94.136
88.916
83.68
78.443
73.222
68.032
62.888
57.805
52.794
47.87
43.044
38.327
33.729
29.259
24.927
20.74
16.705
12.829
9.116
5.572
2.201
-0.994
-4.011
-6.847
-9.502
-11.976
-14.269
-16.383
-18.319
-20.08
-21.671
-23.096
-24.358
-25.465
-26.422
-27.235
-27.911
-28.458
-28.882
-29.19
-29.391
-29.492
-29.499
-29.421
-29.265
-29.038
-28.747
-28.399
-28.001
-27.559
-27.08
-26.57
-26.036
-25.483
-24.917
-24.344
-23.769
-23.197
-22.633
-22.082
-21.546
-21.031
-20.538
-20.07
-19.63
-19.219
-18.838
-18.489
-18.171
-17.885
-17.631
-17.409
-17.217
-17.055
-16.922
-16.816
-16.738
-16.685
-16.656
-16.651
-16.667
-16.702
-16.757
-16.828
-16.914
-17.014
-17.125
-17.245
-17.372
-17.504
-17.64
-17.777
-17.913
-18.047
-18.178
-18.303
-18.423
-18.537
-18.643
-18.742
-18.834
-18.919
-18.996
-19.068
-19.133
-19.194
-19.251
-19.305
-19.358
-19.409
-19.462
-19.515
-19.572
-19.632
-19.697
-19.769
-19.849
-19.938
-20.039
-20.151
-20.278
-20.42
-20.58
-20.757
-20.954
-21.17
-21.407
-21.665
-21.943
-22.241
-22.558
-22.892
-23.242
-23.607
-23.983
-24.368
-24.76
-25.154
-25.548
-25.938
-26.32
-26.688
-27.041
-27.371
-27.676
-27.95
-28.189
-28.388
-28.542
-28.646
-28.694
-28.682
-28.604
-28.456
-28.233
-27.931
-27.547
-27.078
-26.522
-25.876
-25.142
-24.32
-23.411
-22.416
-21.338
-20.181
-18.947
-17.642
-16.271
-14.838
-13.35
-11.814
-10.238
-8.632
-7.004
-5.364
-3.722
-2.086
-0.468
1.123
2.677
4.185
5.638
7.028
8.342
9.568
10.698
11.727
12.654
13.479
14.207
14.84
15.387
15.865
16.286
16.664
17.012
17.334
17.639
17.938
18.242
18.572
18.939
19.342
19.783
20.254
20.737
21.222
21.681
22.061
22.319
22.408
22.272
21.886
21.214
20.217
18.876
17.149
14.992
12.384
9.296
5.712
1.659
-2.875
-7.909
-13.348
-19.032
-24.708
-29.999
-34.605
-38.308
-40.825
-41.815
-41.089
-38.711
-35.054
-30.801
-26.615
-22.889
-20.012
-18.554
-18.829
-20.622
-23.22
-25.297
-25.347
-22.348
-15.237
-2.537
16.751
42.932
75.605
113.226
153.764
195.356
235.386
270.256
296.548
310.912
310.483
293.589
258.679
205.321
135.484
52.169
-40.957
-141.791
-250.96
-366.706
-483.74
-591.647
-675.383
-725.642
-740.236
-724.287
-689.871
-645.393
-595.187
-540.792
-480.378
-414.955
-347.817
-282.667
-223.994
-174.514
-134.945
-105.112
-83.707
-69.07
-59.918
-54.587
-51.292
-48.424
-44.407
-38.482
-30.751
-21.595
-11.512
-1.195
8.694
17.406
24.045
28.253
30.14
29.983
28.291
25.584
22.277
18.882
15.949
13.797
12.583
12.341
12.943
14.266
16.222
18.683
21.537
24.705
28.112
31.697
35.395
39.123
42.796
46.339
49.681
52.762
55.544
58.015
60.21
62.198
64.05
65.813
67.519
69.178
70.791
72.374
73.949
75.535
77.154
78.825
80.57
82.419
84.392
86.49
88.694
90.958
93.242
95.526
97.805
100.087
102.396
104.74
107.128
109.572
112.074
114.631
117.239
119.877
122.524
125.169
127.805
130.437
133.067
135.685
138.274
140.811
143.264
145.608
147.816
149.859
151.712
153.357
154.775
155.957
156.899
157.591
158.024
158.187
158.072
157.67
156.981
156.001
154.731
153.175
151.336
149.22
146.836
144.19
141.289
138.141
134.754
131.137
127.3
123.257
119.019
114.602
110.022
105.293
100.435
95.465
90.399
85.256
80.054
74.811
69.543
64.27
59.007
53.772
48.582
43.451
38.397
33.432
28.571
23.826
19.21
14.733
10.406
6.236
2.234
-1.596
-5.247
-8.713
-11.992
-15.08
-17.975
-20.676
-23.183
-25.498
-27.621
-29.555
-31.305
-32.874
-34.267
-35.49
-36.549
-37.45
-38.2
-38.807
-39.279
-39.623
-39.847
-39.96
-39.97
-39.886
-39.716
-39.469
-39.152
-38.772
-38.338
-37.857
-37.334
-36.777
-36.191
-35.582
-34.954
-34.313
-33.662
-33.005
-32.347
-31.69
-31.037
-30.392
-29.756
-29.132
-28.522
-27.928
-27.351
-26.793
-26.254
-25.736
-25.239
-24.765
-24.312
-23.882
-23.475
-23.09
-22.726
-22.385
-22.065
-21.766
-21.488
-21.229
-20.991
-20.772
-20.572
-20.391
-20.229
-20.086
-19.961
-19.854
-19.764
-19.691
-19.633
-19.591
-19.562
-19.546
-19.54
-19.545
-19.558
-19.577
-19.602
-19.63
-19.659
-19.689
-19.717
-19.742
-19.762
-19.777
-19.786
-19.788
-19.782
-19.769
-19.748
-19.72
-19.684
-19.641
-19.591
-19.534
-19.471
-19.403
-19.331
-19.257
-19.182
-19.109
-19.039
-18.976
-18.924
-18.883
-18.858
-18.852
-18.867
-18.906
-18.973
-19.07
-19.2
-19.366
-19.57
-19.814
-20.1
-20.429
-20.801
-21.216
-21.672
-22.169
-22.704
-23.274
-23.876
-24.507
-25.164
-25.845
-26.546
-27.263
-27.99
-28.725
-29.46
-30.19
-30.905
-31.595
-32.252
-32.866
-33.43
-33.936
-34.376
-34.742
-35.028
-35.232
-35.349
-35.373
-35.296
-35.106
-34.797
-34.37
-33.829
-33.18
-32.432
-31.591
-30.669
-29.683
-28.645
-27.562
-26.434
-25.247
-23.999
-22.694
-21.343
-19.965
-18.571
-17.161
-15.737
-14.302
-12.853
-11.388
-9.891
-8.327
-6.684
-4.96
-3.17
-1.35
0.478
2.304
4.116
5.909
7.67
9.377
11.019
12.593
14.083
15.466
16.701
17.724
18.492
18.989
19.203
19.144
18.816
18.212
17.345
16.235
14.902
13.365
11.628
9.671
7.499
5.127
2.59
-0.052
-2.762
-5.53
-8.343
-11.194
-14.076
-16.969
-19.902
-22.964
-26.178
-29.469
-32.666
-35.466
-37.607
-38.944
-39.297
-38.397
-36.098
-32.487
-27.961
-23.291
-19.205
-16.084
-14.211
-13.982
-15.631
-18.984
-23.342
-27.301
-29.298
-28.286
-23.411
-13.574
2.212
24.48
53.162
87.123
124.543
163.809
203.044
239.513
270.087
291.545
300.675
295.071
273.102
233.073
174.949
101.044
14.261
-81.481
-183.968
-293.783
-408.543
-522.795
-626.411
-704.598
-748.636
-756.959
-734.984
-695.201
-646.44
-593.013
-536.402
-474.712
-408.706
-341.508
-276.709
-218.525
-169.344
-129.839
-99.857
-78.156
-63.326
-54.174
-49.041
-46.251
-44.264
-41.517
-37.25
-31.485
-24.444
-16.54
-8.411
-0.638
6.073
10.892
13.547
14.185
13.104
10.804
7.783
4.453
1.332
-1.018
-2.298
-2.394
-1.312
0.799
3.825
7.676
12.206
17.248
22.65
28.278
34.023
39.805
45.52
51.059
56.313
61.183
65.612
69.576
73.071
76.12
78.748
80.992
82.905
84.545
85.969
87.232
88.385
89.472
90.54
91.639
92.817
94.119
95.574
97.2
99.007
100.995
103.161
105.5
108.001
110.645
113.42
116.311
119.306
122.395
125.564
128.796
132.075
135.381
138.7
142.014
145.307
148.562
151.763
154.894
157.94
160.884
163.712
166.406
168.948
171.322
173.511
175.499
177.273
178.817
180.118
181.166
181.951
182.464
182.698
182.647
182.306
181.672
180.744
179.521
178.005
176.198
174.104
171.73
169.081
166.166
162.995
159.578
155.927
152.055
147.976
143.705
139.257
134.649
129.897
125.018
120.031
114.953
109.803
104.598
99.356
94.095
88.834
83.588
78.374
73.209
68.108
63.085
58.156
53.331
48.626
44.05
39.614
35.328
31.201
27.239
23.451
19.841
16.415
13.174
10.123
7.262
4.592
2.112
-0.179
-2.283
-4.203
-5.943
-7.509
-8.904
-10.135
-11.208
-12.13
-12.908
-13.55
-14.064
-14.457
-14.737
-14.914
-14.996
-14.99
-14.905
-14.749
-14.53
-14.255
-13.933
-13.57
-13.174
-12.75
-12.304
-11.844
-11.374
-10.898
-10.422
-9.95
-9.486
-9.032
-8.591
-8.167
-7.762
-7.377
-7.014
-6.675
-6.359
-6.069
-5.804
-5.565
-5.353
-5.165
-5.004
-4.868
-4.756
-4.668
-4.604
-4.563
-4.544
-4.545
-4.567
-4.609
-4.669
-4.747
-4.842
-4.953
-5.079
-5.219
-5.374
-5.541
-5.72
-5.911
-6.112
-6.324
-6.544
-6.773
-7.01
-7.254
-7.504
-7.759
-8.02
-8.285
-8.553
-8.824
-9.097
-9.372
-9.647
-9.922
-10.197
-10.471
-10.743
-11.014
-11.281
-11.546
-11.808
-12.066
-12.32
-12.57
-12.816
-13.058
-13.296
-13.53
-13.761
-13.99
-14.216
-14.44
-14.663
-14.886
-15.108
-15.33
-15.554
-15.78
-16.009
-16.241
-16.477
-16.719
-16.966
-17.219
-17.479
-17.747
-18.023
-18.306
-18.599
-18.901
-19.212
-19.532
-19.862
-20.202
-20.55
-20.907
-21.271
-21.642
-22.018
-22.397
-22.777
-23.158
-23.535
-23.909
-24.275
-24.632
-24.978
-25.31
-25.625
-25.921
-26.195
-26.444
-26.666
-26.857
-27.016
-27.139
-27.224
-27.269
-27.272
-27.229
-27.139
-26.999
-26.807
-26.562
-26.261
-25.904
-25.49
-25.018
-24.489
-23.904
-23.266
-22.577
-21.84
-21.058
-20.235
-19.375
-18.482
-17.561
-16.615
-15.65
-14.67
-13.682
-12.691
-11.706
-10.733
-9.777
-8.846
-7.945
-7.081
-6.259
-5.486
-4.765
-4.1
-3.496
-2.958
-2.493
-2.106
-1.793
-1.551
-1.374
-1.254
-1.182
-1.148
-1.132
-1.12
-1.097
-1.052
-0.981
-0.875
-0.724
-0.519
-0.244
0.109
0.534
1.026
1.574
2.16
2.773
3.386
3.951
4.431
4.786
4.972
4.971
4.754
4.287
3.555
2.527
1.169
-0.529
-2.591
-5.033
-7.84
-11.03
-14.638
-18.598
-22.777
-26.954
-30.782
-33.956
-36.263
-37.437
-37.15
-35.237
-31.811
-27.297
-22.486
-18.209
-14.981
-13.256
-13.664
-16.54
-21.627
-28.142
-34.542
-38.92
-39.955
-36.496
-26.814
-9.557
15.674
48.75
87.568
128.317
168.977
207.723
242.637
273.75
297.034
305.414
292.992
253.13
186.036
99.511
1.352
-100.449
-203.53
-311.029
-422.314
-531.896
-628.287
-698.019
-734.188
-738.368
-719.293
-686.594
-646.192
-599.904
-546.097
-484.784
-418.709
-351.427
-287.469
-230.167
-180.983
-140.828
-109.941
-87.613
-72.728
-64.096
-60.131
-59.147
-59.677
-60.185
-59.357
-56.73
-52.364
-46.475
-39.616
-32.407
-25.402
-19.323
-14.812
-12.032
-10.835
-10.921
-11.823
-13.11
-14.408
-15.269
-15.306
-14.341
-12.349
-9.415
-5.7
-1.339
3.55
8.818
14.31
19.902
25.488
30.983
36.317
41.41
46.173
50.532
54.438
57.873
60.842
63.371
65.494
67.25
68.691
69.874
70.855
71.687
72.42
73.097
73.766
74.474
75.264
76.18
77.254
78.504
79.942
81.573
83.396
85.407
87.599
89.957
92.471
95.13
97.922
100.839
103.869
106.996
110.204
113.478
116.799
120.152
123.519
126.884
130.229
133.535
136.786
139.963
143.047
146.02
148.862
151.551
154.068
156.396
158.515
160.409
162.062
163.46
164.59
165.441
166.004
166.271
166.235
165.892
165.239
164.274
162.997
161.411
159.518
157.324
154.834
152.057
149.002
145.679
142.101
138.281
134.233
129.972
125.515
120.88
116.084
111.147
106.088
100.927
95.684
90.379
85.033
79.667
74.298
68.947
63.633
58.373
53.184
48.082
43.084
38.203
33.453
28.847
24.396
20.11
16.0
12.073
8.336
4.797
1.459
-1.674
-4.597
-7.31
-9.812
-12.104
-14.187
-16.064
-17.738
-19.214
-20.498
-21.597
-22.516
-23.265
-23.852
-24.285
-24.574
-24.727
-24.755
-24.667
-24.474
-24.184
-23.807
-23.353
-22.83
-22.249
-21.617
-20.944
-20.236
-19.502
-18.75
-17.985
-17.216
-16.448
-15.686
-14.937
-14.205
-13.494
-12.808
-12.151
-11.525
-10.932
-10.374
-9.852
-9.367
-8.919
-8.509
-8.136
-7.8
-7.5
-7.235
-7.004
-6.806
-6.64
-6.504
-6.397
-6.318
-6.265
-6.237
-6.233
-6.251
-6.291
-6.35
-6.428
-6.523
-6.634
-6.759
-6.898
-7.048
-7.209
-7.379
-7.557
-7.743
-7.935
-8.132
-8.333
-8.537
-8.744
-8.953
-9.163
-9.372
-9.58
-9.787
-9.991
-10.191
-10.387
-10.577
-10.76
-10.936
-11.102
-11.259
-11.404
-11.537
-11.657
-11.763
-11.855
-11.931
-11.992
-12.036
-12.065
-12.077
-12.074
-12.055
-12.02
-11.972
-11.91
-11.835
-11.748
-11.651
-11.546
-11.433
-11.314
-11.192
-11.069
-10.946
-10.825
-10.711
-10.603
-10.507
-10.423
-10.354
-10.303
-10.273
-10.266
-10.284
-10.328
-10.402
-10.506
-10.643
-10.812
-11.015
-11.253
-11.524
-11.829
-12.166
-12.536
-12.935
-13.362
-13.815
-14.291
-14.787
-15.3
-15.827
-16.363
-16.904
-17.445
-17.982
-18.508
-19.02
-19.51
-19.974
-20.406
-20.8
-21.151
-21.452
-21.698
-21.885
-22.007
-22.06
-22.039
-21.941
-21.762
-21.502
-21.157
-20.727
-20.212
-19.613
-18.933
-18.172
-17.336
-16.426
-15.448
-14.407
-13.308
-12.157
-10.96
-9.723
-8.455
-7.162
-5.855
-4.542
-3.232
-1.933
-0.656
0.589
1.794
2.95
4.052
5.093
6.069
6.97
7.789
8.52
9.163
9.716
10.18
10.558
10.854
11.078
11.251
11.391
11.514
11.63
11.747
11.872
12.019
12.203
12.438
12.737
13.099
13.527
14.026
14.594
15.217
15.865
16.479
16.996
17.367
17.546
17.5
17.203
16.61
15.661
14.309
12.504
10.218
7.446
4.144
0.247
-4.217
-9.121
-14.215
-19.138
-23.603
-27.439
-30.411
-32.202
-32.612
-31.647
-29.607
-27.115
-24.693
-22.53
-20.837
-20.031
-20.357
-21.724
-23.578
-24.684
-23.828
-20.435
-13.673
-2.144
15.104
38.745
68.203
100.802
135.032
170.579
207.128
245.143
281.038
307.516
317.605
303.833
264.425
203.611
126.65
41.682
-47.179
-140.496
-237.889
-340.437
-443.414
-536.182
-610.167
-656.961
-674.927
-670.395
-648.678
-615.738
-575.548
-527.567
-473.002
-414.188
-353.374
-294.303
-240.167
-192.694
-152.829
-120.838
-96.108
-77.528
-64.365
-55.694
-50.009
-46.048
-42.538
-38.194
-32.678
-26.185
-18.772
-10.763
-2.719
4.926
11.512
16.322
19.218
20.354
19.975
18.51
16.362
13.867
11.473
9.645
8.641
8.571
9.423
11.081
13.451
16.459
19.997
23.942
28.175
32.597
37.12
41.677
46.201
50.611
54.829
58.781
62.404
65.664
68.56
71.105
73.326
75.26
76.941
78.415
79.737
80.957
82.121
83.27
84.438
85.661
86.978
88.423
90.03
91.82
93.8
95.971
98.332
100.873
103.587
106.458
109.466
112.591
115.819
119.132
122.517
125.955
129.428
132.914
136.394
139.846
143.253
146.595
149.852
153.005
156.036
158.927
161.662
164.225
166.598
168.765
170.709
172.415
173.871
175.064
175.982
176.616
176.958
177.002
176.743
176.179
175.308
174.13
172.647
170.861
168.778
166.402
163.741
160.803
157.597
154.133
150.425
146.484
142.323
137.958
133.404
128.676
123.792
118.767
113.621
108.37
103.031
97.624
92.166
86.673
81.165
75.657
70.167
64.71
59.302
53.957
48.69
43.514
38.442
33.485
28.655
23.961
19.413
15.019
10.788
6.726
2.84
-0.865
-4.385
-7.716
-10.856
-13.802
-16.555
-19.114
-21.479
-23.653
-25.638
-27.438
-29.055
-30.496
-31.764
-32.866
-33.808
-34.596
-35.236
-35.737
-36.106
-36.35
-36.477
-36.495
-36.411
-36.235
-35.973
-35.634
-35.226
-34.756
-34.233
-33.664
-33.057
-32.419
-31.757
-31.078
-30.389
-29.696
-29.005
-28.32
-27.646
-26.989
-26.351
-25.737
-25.149
-24.589
-24.061
-23.565
-23.104
-22.677
-22.287
-21.933
-21.616
-21.334
-21.089
-20.879
-20.704
-20.563
-20.454
-20.376
-20.329
-20.309
-20.315
-20.346
-20.398
-20.47
-20.56
-20.664
-20.781
-20.908
-21.044
-21.186
-21.332
-21.481
-21.632
-21.783
-21.933
-22.081
-22.226
-22.369
-22.507
-22.642
-22.774
-22.902
-23.026
-23.148
-23.267
-23.383
-23.497
-23.611
-23.723
-23.836
-23.95
-24.066
-24.186
-24.311
-24.442
-24.581
-24.729
-24.889
-25.061
-25.247
-25.448
-25.665
-25.9
-26.153
-26.425
-26.716
-27.027
-27.357
-27.707
-28.074
-28.459
-28.86
-29.275
-29.703
-30.14
-30.586
-31.038
-31.493
-31.948
-32.402
-32.851
-33.291
-33.719
-34.132
-34.525
-34.895
-35.237
-35.546
-35.82
-36.053
-36.242
-36.382
-36.469
-36.5
-36.471
-36.38
-36.222
-35.996
-35.7
-35.332
-34.893
-34.381
-33.798
-33.145
-32.425
-31.641
-30.798
-29.898
-28.947
-27.949
-26.91
-25.836
-24.731
-23.601
-22.451
-21.289
-20.12
-18.954
-17.797
-16.658
-15.545
-14.464
-13.423
-12.428
-11.48
-10.584
-9.741
-8.957
-8.237
-7.589
-7.014
-6.516
-6.092
-5.74
-5.452
-5.215
-5.007
-4.812
-4.61
-4.391
-4.149
-3.875
-3.561
-3.199
-2.772
-2.27
-1.689
-1.018
-0.256
0.586
1.485
2.391
3.236
3.957
4.505
4.835
4.911
4.679
4.078
3.06
1.575
-0.41
-2.944
-6.123
-9.975
-14.422
-19.279
-24.225
-28.954
-33.269
-36.938
-39.629
-41.12
-41.384
-40.703
-39.719
-38.939
-38.568
-38.731
-39.655
-41.598
-44.508
-47.743
-50.05
-50.216
-47.471
-41.34
-31.154
-15.823
5.335
32.25
63.976
98.944
135.818
173.385
209.582
241.18
264.883
277.655
277.081
261.664
229.731
179.788
112.798
32.333
-57.577
-153.09
-253.191
-358.847
-466.909
-569.534
-654.589
-709.795
-730.197
-719.426
-687.436
-644.584
-597.395
-547.612
-493.444
-434.585
-372.648
-310.376
-252.129
-200.789
-157.293
-122.253
-95.118
-74.658
-60.376
-51.526
-46.577
-44.219
-43.006
-41.314
-38.516
-34.624
-29.511
-23.379
-16.742
-10.009
-3.905
0.688
3.522
4.699
4.425
3.144
1.272
-0.85
-2.726
-3.85
-3.978
-3.025
-1.045
1.792
5.366
9.575
14.279
19.325
24.575
29.916
35.255
40.516
45.613
50.445
54.918
58.967
62.565
65.705
68.413
70.723
72.672
74.31
75.694
76.877
77.912
78.85
79.733
80.608
81.522
82.522
83.657
84.959
86.45
88.142
90.036
92.13
94.418
96.889
99.524
102.311
105.233
108.279
111.436
114.69
118.024
121.418
124.855
128.313
131.777
135.226
138.642
142.006
145.302
148.51
151.615
154.599
157.442
160.127
162.635
164.947
167.047
168.92
170.549
171.92
173.023
173.847
174.384
174.626
174.568
174.206
173.539
172.564
171.285
169.702
167.821
165.646
163.185
160.447
157.44
154.176
150.666
146.924
142.964
138.801
134.449
129.926
125.247
120.431
115.495
110.456
105.333
100.143
94.907
89.64
84.361
79.088
73.837
68.624
63.465
58.375
53.367
48.455
43.651
38.967
34.413
29.998
25.731
21.621
17.673
13.893
10.287
6.859
3.611
0.546
-2.334
-5.028
-7.537
-9.86
-12.0
-13.957
-15.736
-17.339
-18.77
-20.034
-21.137
-22.084
-22.882
-23.536
-24.054
-24.443
-24.71
-24.863
-24.91
-24.857
-24.712
-24.484
-24.179
-23.805
-23.368
-22.876
-22.336
-21.753
-21.134
-20.484
-19.811
-19.12
-18.415
-17.702
-16.987
-16.274
-15.568
-14.872
-14.191
-13.527
-12.884
-12.264
-11.67
-11.103
-10.565
-10.057
-9.58
-9.133
-8.718
-8.333
-7.979
-7.655
-7.36
-7.093
-6.853
-6.639
-6.45
-6.284
-6.142
-6.021
-5.92
-5.839
-5.775
-5.727
-5.693
-5.672
-5.662
-5.662
-5.669
-5.682
-5.7
-5.722
-5.747
-5.772
-5.798
-5.825
-5.85
-5.875
-5.898
-5.921
-5.942
-5.964
-5.986
-6.009
-6.033
-6.06
-6.09
-6.124
-6.162
-6.204
-6.252
-6.305
-6.363
-6.427
-6.499
-6.577
-6.664
-6.76
-6.865
-6.981
-7.108
-7.247
-7.399
-7.562
-7.739
-7.929
-8.132
-8.348
-8.579
-8.823
-9.08
-9.351
-9.634
-9.929
-10.236
-10.553
-10.879
-11.213
-11.555
-11.903
-12.257
-12.617
-12.981
-13.349
-13.72
-14.094
-14.468
-14.842
-15.212
-15.579
-15.937
-16.286
-16.624
-16.947
-17.254
-17.545
-17.817
-18.07
-18.302
-18.511
-18.696
-18.851
-18.974
-19.059
-19.102
-19.099
-19.049
-18.948
-18.795
-18.589
-18.33
-18.019
-17.654
-17.234
-16.753
-16.205
-15.593
-14.921
-14.196
-13.432
-12.639
-11.828
-11.015
-10.214
-9.429
-8.666
-7.912
-7.158
-6.4
-5.64
-4.892
-4.166
-3.46
-2.77
-2.088
-1.397
-0.688
0.055
0.865
1.766
2.764
3.855
5.009
6.187
7.37
8.553
9.737
10.926
12.105
13.255
14.369
15.427
16.414
17.309
18.058
18.62
18.982
19.144
19.137
19.001
18.744
18.361
17.847
17.194
16.398
15.455
14.339
13.035
11.541
9.862
8.03
6.052
3.907
1.568
-1.01
-3.853
-6.986
-10.464
-14.282
-18.343
-22.453
-26.3
-29.597
-32.176
-33.842
-34.305
-33.416
-31.223
-28.09
-24.745
-21.759
-19.393
-17.836
-17.347
-18.171
-20.206
-22.7
-24.282
-23.659
-19.978
-12.716
-1.234
15.487
37.998
66.029
98.472
133.668
170.174
206.769
241.476
271.179
292.788
303.546
301.18
284.285
251.352
200.897
133.833
53.715
-35.772
-131.208
-231.781
-338.737
-449.136
-554.989
-644.036
-703.758
-728.679
-722.085
-693.819
-654.095
-609.084
-560.268
-505.592
-444.578
-379.439
-313.617
-251.832
-197.386
-151.497
-114.804
-86.956
-66.878
-53.648
-46.087
-42.374
-40.836
-39.908
-38.039
-34.551
-29.434
-22.795
-15.035
-6.845
1.142
8.15
13.343
16.458
17.618
17.091
15.333
12.791
9.853
6.985
4.678
3.199
2.621
2.905
3.918
5.558
7.777
10.505
13.631
17.053
20.675
24.41
28.205
32.01
35.749
39.365
42.806
46.036
49.078
51.972
54.742
57.407
59.964
62.391
64.696
66.907
69.048
71.149
73.233
75.313
77.42
79.581
81.815
84.128
86.493
88.878
91.274
93.678
96.11
98.601
101.164
103.801
106.519
109.32
112.202
115.164
118.186
121.247
124.333
127.435
130.557
133.701
136.855
140.001
143.112
146.156
149.105
151.934
154.613
157.116
159.422
161.513
163.377
165.008
166.395
167.526
168.389
168.971
169.263
169.262
168.964
168.367
167.473
166.284
164.805
163.043
161.003
158.691
156.114
153.276
150.188
146.858
143.297
139.518
135.535
131.363
127.017
122.516
117.875
113.114
108.248
103.297
98.278
93.207
88.104
82.984
77.865
72.764
67.695
62.674
57.716
52.834
48.042
43.35
38.771
34.315
29.99
25.806
21.77
17.888
14.166
10.609
7.221
4.004
0.961
-1.907
-4.601
-7.121
-9.47
-11.652
-13.668
-15.525
-17.226
-18.777
-20.185
-21.455
-22.593
-23.607
-24.503
-25.289
-25.97
-26.555
-27.05
-27.462
-27.797
-28.062
-28.264
-28.408
-28.5
-28.546
-28.551
-28.521
-28.459
-28.371
-28.26
-28.13
-27.984
-27.825
-27.655
-27.476
-27.29
-27.098
-26.901
-26.699
-26.492
-26.282
-26.067
-25.848
-25.624
-25.395
-25.161
-24.922
-24.678
-24.429
-24.175
-23.916
-23.653
-23.386
-23.115
-22.84
-22.564
-22.285
-22.005
-21.724
-21.443
-21.163
-20.884
-20.608
-20.336
-20.068
-19.806
-19.551
-19.304
-19.066
-18.839
-18.624
-18.422
-18.234
-18.062
-17.906
-17.767
-17.647
-17.544
-17.461
-17.395
-17.349
-17.32
-17.309
-17.315
-17.338
-17.376
-17.429
-17.497
-17.577
-17.67
-17.774
-17.89
-18.015
-18.15
-18.293
-18.445
-18.604
-18.77
-18.944
-19.124
-19.311
-19.504
-19.704
-19.909
-20.121
-20.34
-20.566
-20.799
-21.041
-21.291
-21.55
-21.82
-22.1
-22.392
-22.696
-23.012
-23.341
-23.681
-24.034
-24.399
-24.774
-25.161
-25.557
-25.96
-26.371
-26.786
-27.203
-27.621
-28.036
-28.444
-28.843
-29.229
-29.598
-29.947
-30.271
-30.564
-30.824
-31.045
-31.222
-31.35
-31.423
-31.437
-31.387
-31.267
-31.075
-30.806
-30.458
-30.028
-29.516
-28.921
-28.243
-27.482
-26.64
-25.717
-24.715
-23.637
-22.485
-21.262
-19.974
-18.627
-17.229
-15.789
-14.314
-12.814
-11.299
-9.777
-8.26
-6.755
-5.271
-3.817
-2.403
-1.044
0.244
1.451
2.571
3.6
4.535
5.378
6.133
6.811
7.428
7.995
8.519
9.004
9.445
9.848
10.223
10.578
10.929
11.283
11.635
11.987
12.339
12.677
12.989
13.239
13.377
13.378
13.226
12.909
12.425
11.757
10.869
9.745
8.366
6.72
4.821
2.657
0.201
-2.548
-5.593
-8.903
-12.406
-16.096
-20.026
-24.165
-28.417
-32.573
-36.284
-39.281
-41.401
-42.419
-42.038
-40.084
-36.638
-32.116
-27.29
-22.914
-19.426
-17.189
-16.729
-18.349
-21.84
-26.47
-30.813
-33.223
-32.614
-27.975
-17.84
-1.087
22.797
53.677
90.139
130.127
171.904
213.114
250.216
279.621
297.793
301.425
288.522
257.68
207.542
139.091
55.951
-38.038
-138.928
-245.009
-356.653
-470.507
-578.558
-668.801
-729.115
-754.192
-747.173
-717.621
-675.508
-627.002
-573.972
-514.934
-449.887
-381.356
-312.879
-249.176
-193.577
-147.295
-110.909
-83.971
-65.241
-53.632
-47.816
-45.815
-45.822
-46.197
-45.355
-42.622
-38.035
-31.747
-24.204
-16.162
-8.298
-1.41
3.65
6.635
7.686
7.086
5.317
2.862
0.134
-2.365
-4.116
-4.868
-4.542
-3.181
-0.944
2.05
5.71
9.905
14.488
19.334
24.33
29.384
34.43
39.382
44.149
48.639
52.766
56.482
59.774
62.65
65.138
67.272
69.088
70.635
71.968
73.141
74.206
75.208
76.188
77.188
78.253
79.426
80.751
82.256
83.955
85.853
87.951
90.242
92.722
95.375
98.184
101.132
104.204
107.386
110.666
114.029
117.457
120.93
124.428
127.934
131.428
134.893
138.309
141.659
144.924
148.087
151.133
154.045
156.803
159.391
161.791
163.987
165.963
167.705
169.199
170.433
171.396
172.079
172.476
172.581
172.39
171.899
171.107
170.016
168.626
166.94
164.964
162.702
160.162
157.352
154.283
150.965
147.411
143.632
139.643
135.459
131.095
126.567
121.892
117.086
112.166
107.15
102.056
96.9
91.701
86.474
81.238
76.008
70.801
65.632
60.514
55.463
50.491
45.612
40.837
36.178
31.644
27.245
22.991
18.888
14.945
11.167
7.559
4.126
0.871
-2.203
-5.095
-7.802
-10.326
-12.667
-14.826
-16.805
-18.606
-20.233
-21.691
-22.982
-24.113
-25.087
-25.912
-26.592
-27.133
-27.543
-27.828
-27.995
-28.05
-28.001
-27.855
-27.62
-27.304
-26.912
-26.454
-25.936
-25.365
-24.748
-24.093
-23.405
-22.692
-21.959
-21.212
-20.458
-19.7
-18.945
-18.198
-17.462
-16.741
-16.04
-15.362
-14.711
-14.089
-13.499
-12.943
-12.425
-11.945
-11.506
-11.108
-10.754
-10.442
-10.175
-9.951
-9.77
-9.632
-9.536
-9.48
-9.464
-9.485
-9.543
-9.634
-9.757
-9.91
-10.09
-10.295
-10.523
-10.772
-11.037
-11.318
-11.612
-11.916
-12.228
-12.546
-12.866
-13.187
-13.506
-13.821
-14.129
-14.429
-14.719
-14.996
-15.259
-15.508
-15.74
-15.955
-16.152
-16.331
-16.493
-16.637
-16.763
-16.873
-16.968
-17.047
-17.114
-17.167
-17.211
-17.245
-17.271
-17.292
-17.309
-17.325
-17.34
-17.357
-17.378
-17.405
-17.439
-17.484
-17.54
-17.611
-17.696
-17.799
-17.921
-18.064
-18.227
-18.413
-18.622
-18.852
-19.106
-19.38
-19.675
-19.989
-20.32
-20.667
-21.027
-21.397
-21.776
-22.159
-22.545
-22.93
-23.309
-23.68
-24.039
-24.382
-24.704
-25.002
-25.271
-25.508
-25.709
-25.869
-25.984
-26.05
-26.064
-26.021
-25.918
-25.753
-25.522
-25.225
-24.859
-24.425
-23.924
-23.355
-22.723
-22.028
-21.275
-20.467
-19.608
-18.703
-17.756
-16.774
-15.761
-14.722
-13.665
-12.597
-11.525
-10.456
-9.396
-8.354
-7.338
-6.354
-5.411
-4.516
-3.67
-2.88
-2.15
-1.487
-0.897
-0.384
0.052
0.414
0.702
0.92
1.074
1.177
1.248
1.306
1.367
1.443
1.538
1.662
1.825
2.041
2.324
2.683
3.115
3.619
4.198
4.848
5.553
6.285
6.983
7.587
8.048
8.323
8.385
8.211
7.762
6.986
5.841
4.285
2.296
-0.134
-3.052
-6.526
-10.549
-15.003
-19.645
-24.126
-28.146
-31.51
-33.986
-35.246
-35.082
-33.517
-30.881
-27.842
-25.035
-22.777
-21.32
-21.091
-22.351
-24.968
-28.345
-31.205
-32.113
-30.127
-24.397
-13.748
2.808
25.789
55.133
89.689
127.691
167.56
207.246
243.766
273.877
294.324
301.949
294.441
270.122
227.298
166.427
90.593
3.045
-92.285
-193.9
-303.499
-418.447
-532.25
-633.486
-706.026
-741.6
-740.419
-709.705
-663.582
-611.425
-556.86
-500.491
-439.786
-375.166
-309.938
-248.009
-193.5
-148.447
-113.157
-87.137
-69.034
-57.526
-51.347
-48.64
-47.642
-46.799
-44.645
-40.592
-34.732
-27.276
-18.695
-9.727
-1.044
6.583
12.346
16.01
17.715
17.735
16.537
14.582
12.266
10.069
8.488
7.792
8.082
9.343
11.444
14.279
17.767
21.787
26.204
30.895
35.754
40.69
45.637
50.521
55.255
59.757
63.951
67.773
71.191
74.202
76.819
79.068
80.986
82.61
83.989
85.178
86.23
87.195
88.117
89.034
89.988
91.021
92.172
93.477
94.96
96.633
98.5
100.562
102.815
105.252
107.861
110.626
113.53
116.562
119.706
122.952
126.283
129.683
133.131
136.61
140.101
143.585
147.045
150.46
153.812
157.083
160.253
163.305
166.221
168.981
171.565
173.955
176.133
178.081
179.783
181.225
182.391
183.27
183.852
184.128
184.09
183.733
183.051
182.044
180.71
179.049
177.064
174.759
172.139
169.21
165.982
162.464
158.666
154.602
150.284
145.728
140.949
135.964
130.791
125.449
119.956
114.332
108.598
102.775
96.882
90.941
84.972
78.997
73.034
67.105
61.228
55.421
49.703
44.091
38.601
33.247
28.045
23.008
18.148
13.476
9.002
4.736
0.684
-3.145
-6.747
-10.116
-13.252
-16.15
-18.811
-21.235
-23.423
-25.38
-27.108
-28.613
-29.901
-30.979
-31.854
-32.535
-33.032
-33.354
-33.512
-33.517
-33.379
-33.11
-32.722
-32.227
-31.635
-30.959
-30.21
-29.399
-28.536
-27.633
-26.7
-25.746
-24.78
-23.812
-22.851
-21.903
-20.976
-20.077
-19.211
-18.384
-17.601
-16.864
-16.178
-15.544
-14.965
-14.441
-13.973
-13.561
-13.205
-12.902
-12.652
-12.453
-12.301
-12.194
-12.129
-12.102
-12.111
-12.153
-12.222
-12.317
-12.434
-12.569
-12.72
-12.882
-13.054
-13.231
-13.413
-13.595
-13.776
-13.954
-14.127
-14.294
-14.454
-14.605
-14.748
-14.88
-15.004
-15.118
-15.223
-15.32
-15.41
-15.494
-15.573
-15.65
-15.726
-15.803
-15.883
-15.968
-16.06
-16.161
-16.272
-16.396
-16.535
-16.689
-16.861
-17.051
-17.26
-17.49
-17.74
-18.01
-18.301
-18.612
-18.941
-19.289
-19.653
-20.032
-20.424
-20.829
-21.242
-21.663
-22.088
-22.514
-22.938
-23.356
-23.765
-24.162
-24.541
-24.9
-25.233
-25.537
-25.807
-26.039
-26.229
-26.373
-26.466
-26.504
-26.485
-26.403
-26.258
-26.046
-25.765
-25.416
-24.997
-24.509
-23.953
-23.332
-22.648
-21.902
-21.098
-20.239
-19.331
-18.375
-17.377
-16.342
-15.276
-14.185
-13.077
-11.96
-10.84
-9.726
-8.625
-7.544
-6.494
-5.481
-4.512
-3.594
-2.734
-1.939
-1.222
-0.587
-0.036
0.43
0.815
1.123
1.36
1.535
1.665
1.766
1.851
1.935
2.022
2.124
2.252
2.415
2.633
2.918
3.267
3.68
4.149
4.657
5.192
5.729
6.213
6.602
6.848
6.893
6.708
6.258
5.501
4.416
2.962
1.095
-1.206
-3.972
-7.22
-10.924
-15.097
-19.762
-24.829
-30.139
-35.443
-40.36
-44.593
-47.95
-50.164
-50.912
-50.018
-47.536
-43.846
-39.672
-35.66
-32.142
-29.455
-28.113
-28.421
-30.231
-32.848
-34.867
-34.832
-31.915
-25.119
-12.911
5.751
31.451
63.421
98.793
135.686
173.358
211.217
249.45
284.216
308.217
314.594
295.97
250.869
183.955
100.986
10.554
-82.177
-177.075
-274.796
-377.028
-480.76
-577.051
-654.551
-702.712
-718.112
-705.091
-672.779
-630.735
-584.537
-535.482
-482.413
-425.176
-365.426
-306.034
-250.884
-202.445
-161.545
-128.567
-102.892
-83.419
-69.589
-60.532
-54.698
-50.782
-47.465
-43.414
-38.228
-32.017
-24.781
-16.817
-8.691
-0.871
5.969
11.092
14.332
15.829
15.816
14.714
12.929
10.799
8.766
7.296
6.64
6.888
7.997
9.807
12.17
14.985
18.132
21.482
24.937
28.417
31.859
35.244
38.542
41.7
44.671
47.398
49.829
51.963
53.84
55.528
57.121
58.696
60.312
62.032
63.901
65.95
68.192
70.606
73.171
75.886
78.755
81.798
85.034
88.455
92.038
95.746
99.527
103.338
107.147
110.914
114.616
118.244
121.803
125.324
128.834
132.339
135.843
139.332
142.789
146.206
149.573
152.874
156.106
159.259
162.323
165.291
168.148
170.87
173.43
175.786
177.901
179.747
181.298
182.536
183.448
184.019
184.243
184.118
183.641
182.81
181.622
180.078
178.177
175.926
173.333
170.411
167.171
163.629
159.797
155.691
151.328
146.721
141.888
136.843
131.604
126.187
120.614
114.904
109.08
103.161
97.17
91.129
85.061
78.987
72.928
66.904
60.934
55.038
49.233
43.535
37.961
32.524
27.238
22.115
17.166
12.401
7.827
3.453
-0.716
-4.675
-8.419
-11.947
-15.255
-18.345
-21.215
-23.866
-26.3
-28.521
-30.532
-32.337
-33.942
-35.354
-36.579
-37.626
-38.503
-39.219
-39.783
-40.205
-40.494
-40.659
-40.711
-40.658
-40.51
-40.276
-39.966
-39.587
-39.147
-38.656
-38.119
-37.545
-36.939
-36.308
-35.657
-34.993
-34.319
-33.64
-32.961
-32.286
-31.618
-30.96
-30.315
-29.686
-29.073
-28.48
-27.906
-27.354
-26.822
-26.312
-25.823
-25.355
-24.908
-24.481
-24.073
-23.683
-23.311
-22.956
-22.617
-22.292
-21.981
-21.684
-21.4
-21.127
-20.867
-20.617
-20.379
-20.152
-19.935
-19.729
-19.534
-19.348
-19.173
-19.009
-18.854
-18.711
-18.578
-18.456
-18.345
-18.247
-18.16
-18.085
-18.023
-17.975
-17.941
-17.921
-17.916
-17.926
-17.953
-17.996
-18.057
-18.135
-18.231
-18.345
-18.478
-18.63
-18.801
-18.99
-19.199
-19.426
-19.671
-19.935
-20.215
-20.511
-20.823
-21.148
-21.486
-21.834
-22.19
-22.553
-22.921
-23.291
-23.661
-24.027
-24.388
-24.74
-25.08
-25.404
-25.71
-25.993
-26.249
-26.476
-26.668
-26.823
-26.936
-27.003
-27.02
-26.983
-26.888
-26.732
-26.512
-26.223
-25.863
-25.431
-24.925
-24.343
-23.686
-22.954
-22.149
-21.273
-20.329
-19.319
-18.249
-17.12
-15.94
-14.712
-13.442
-12.134
-10.797
-9.436
-8.06
-6.677
-5.293
-3.918
-2.56
-1.227
0.07
1.324
2.531
3.685
4.777
5.802
6.748
7.61
8.387
9.078
9.682
10.202
10.641
11.01
11.329
11.617
11.887
12.154
12.42
12.696
12.991
13.319
13.696
14.128
14.614
15.152
15.742
16.377
17.038
17.693
18.278
18.726
18.981
18.996
18.734
18.172
17.266
15.966
14.227
12.006
9.277
6.035
2.238
-2.173
-7.186
-12.673
-18.383
-23.953
-29.047
-33.432
-36.836
-38.898
-39.375
-38.288
-35.961
-33.061
-30.276
-27.993
-26.551
-26.497
-28.182
-31.47
-35.727
-39.596
-41.458
-40.214
-34.807
-23.71
-5.703
19.827
52.817
91.859
134.804
179.771
224.283
264.673
297.191
318.157
324.109
312.957
283.355
234.011
165.928
82.772
-11.626
-113.27
-220.246
-332.764
-447.353
-556.002
-646.949
-708.353
-735.204
-730.825
-704.698
-666.65
-622.594
-574.191
-519.932
-459.698
-395.86
-331.702
-271.508
-218.317
-173.216
-136.768
-108.656
-87.781
-73.188
-63.796
-57.949
-54.134
-50.952
-46.933
-41.443
-34.557
-26.438
-17.495
-8.395
0.326
7.979
13.753
17.399
19.023
18.86
17.377
15.028
12.18
9.314
6.93
5.307
4.605
4.856
5.946
7.795
10.317
13.381
16.874
20.686
24.721
28.905
33.163
37.416
41.593
45.616
49.419
52.955
56.163
59.016
61.531
63.728
65.657
67.376
68.905
70.277
71.541
72.731
73.896
75.081
76.309
77.61
79.02
80.565
82.28
84.188
86.283
88.557
90.995
93.571
96.29
99.149
102.131
105.226
108.419
111.691
115.036
118.445
121.895
125.365
128.831
132.269
135.666
139.009
142.281
145.471
148.555
151.508
154.314
156.952
159.402
161.649
163.67
165.445
166.964
168.214
169.186
169.871
170.26
170.344
170.119
169.58
168.727
167.56
166.083
164.296
162.207
159.823
157.151
154.203
150.987
147.516
143.801
139.857
135.697
131.339
126.798
122.092
117.239
112.257
107.166
101.985
96.733
91.429
86.093
80.742
75.397
70.075
64.793
59.569
54.419
49.359
44.401
39.561
34.85
30.279
25.86
21.601
17.511
13.596
9.863
6.316
2.96
-0.204
-3.173
-5.946
-8.524
-10.908
-13.101
-15.104
-16.923
-18.562
-20.026
-21.321
-22.454
-23.432
-24.264
-24.956
-25.518
-25.958
-26.286
-26.509
-26.637
-26.68
-26.645
-26.543
-26.381
-26.169
-25.913
-25.622
-25.303
-24.963
-24.609
-24.246
-23.88
-23.517
-23.16
-22.814
-22.484
-22.172
-21.88
-21.613
-21.371
-21.157
-20.971
-20.815
-20.689
-20.593
-20.527
-20.49
-20.481
-20.5
-20.545
-20.614
-20.706
-20.818
-20.948
-21.094
-21.254
-21.424
-21.603
-21.788
-21.976
-22.166
-22.354
-22.539
-22.719
-22.891
-23.054
-23.206
-23.345
-23.469
-23.578
-23.669
-23.742
-23.796
-23.829
-23.842
-23.833
-23.803
-23.751
-23.677
-23.582
-23.467
-23.331
-23.176
-23.004
-22.816
-22.614
-22.4
-22.176
-21.944
-21.708
-21.469
-21.231
-20.996
-20.768
-20.548
-20.34
-20.146
-19.97
-19.814
-19.681
-19.574
-19.495
-19.445
-19.428
-19.445
-19.497
-19.585
-19.71
-19.872
-20.071
-20.307
-20.579
-20.886
-21.226
-21.597
-21.997
-22.422
-22.869
-23.334
-23.813
-24.3
-24.791
-25.28
-25.763
-26.233
-26.685
-27.112
-27.509
-27.869
-28.187
-28.455
-28.669
-28.821
-28.908
-28.924
-28.866
-28.729
-28.511
-28.21
-27.827
-27.359
-26.809
-26.176
-25.463
-24.672
-23.806
-22.868
-21.862
-20.793
-19.668
-18.495
-17.283
-16.041
-14.777
-13.501
-12.225
-10.957
-9.707
-8.485
-7.297
-6.155
-5.069
-4.051
-3.114
-2.267
-1.515
-0.859
-0.301
0.167
0.549
0.856
1.106
1.311
1.478
1.617
1.729
1.825
1.918
2.022
2.153
2.325
2.541
2.801
3.106
3.436
3.769
4.079
4.319
4.453
4.454
4.294
3.948
3.388
2.573
1.465
0.035
-1.742
-3.88
-6.394
-9.306
-12.608
-16.287
-20.297
-24.593
-29.172
-33.957
-38.791
-43.443
-47.55
-50.76
-52.83
-53.443
-52.227
-49.15
-44.375
-38.319
-31.941
-26.024
-21.085
-17.916
-17.148
-18.726
-22.298
-26.882
-30.544
-31.739
-29.11
-20.747
-5.27
17.865
48.705
86.069
127.633
171.153
213.708
251.288
280.192
296.835
297.991
281.694
246.413
191.975
120.76
36.134
-57.979
-159.531
-269.421
-385.683
-502.72
-609.6
-690.54
-736.398
-745.608
-724.191
-685.56
-638.838
-588.519
-535.985
-478.771
-417.32
-354.605
-294.039
-239.833
-194.351
-157.964
-130.289
-110.018
-95.691
-86.242
-80.187
-75.977
-72.216
-67.498
-61.201
-53.434
-44.478
-34.746
-24.843
-15.336
-6.904
-0.389
3.903
6.092
6.431
5.387
3.419
0.901
-1.681
-3.779
-5.065
-5.385
-4.708
-3.148
-0.8
2.276
5.964
10.136
14.676
19.466
24.416
29.454
34.497
39.449
44.215
48.701
52.822
56.532
59.813
62.67
65.129
67.219
68.978
70.453
71.699
72.773
73.726
74.602
75.445
76.297
77.204
78.214
79.369
80.7
82.221
83.941
85.861
87.981
90.294
92.79
95.449
98.258
101.203
104.27
107.449
110.725
114.08
117.495
120.95
124.429
127.912
131.381
134.816
138.2
141.512
144.737
147.856
150.851
153.703
156.393
158.903
161.213
163.307
165.169
166.782
168.133
169.21
170.001
170.499
170.695
170.583
170.161
169.424
168.372
167.005
165.327
163.34
161.049
158.462
155.587
152.433
149.011
145.333
141.413
137.265
132.904
128.348
123.612
118.715
113.675
108.512
103.243
97.89
92.472
87.008
81.518
76.021
70.538
65.085
59.682
54.346
49.092
43.937
38.896
33.983
29.21
24.589
20.131
15.847
11.744
7.831
4.114
0.597
-2.713
-5.816
-8.708
-11.388
-13.858
-16.118
-18.17
-20.017
-21.664
-23.116
-24.379
-25.458
-26.361
-27.096
-27.672
-28.096
-28.379
-28.53
-28.559
-28.476
-28.29
-28.013
-27.653
-27.221
-26.726
-26.178
-25.586
-24.958
-24.303
-23.628
-22.941
-22.249
-21.558
-20.873
-20.2
-19.544
-18.909
-18.297
-17.713
-17.158
-16.634
-16.144
-15.687
-15.265
-14.877
-14.524
-14.205
-13.918
-13.662
-13.436
-13.238
-13.066
-12.917
-12.788
-12.678
-12.584
-12.504
-12.434
-12.373
-12.317
-12.266
-12.216
-12.167
-12.116
-12.062
-12.004
-11.941
-11.872
-11.797
-11.716
-11.629
-11.536
-11.438
-11.334
-11.227
-11.116
-11.004
-10.89
-10.775
-10.663
-10.552
-10.446
-10.346
-10.252
-10.167
-10.093
-10.03
-9.981
-9.947
-9.93
-9.932
-9.953
-9.994
-10.059
-10.146
-10.258
-10.395
-10.557
-10.745
-10.959
-11.199
-11.465
-11.754
-12.068
-12.403
-12.76
-13.135
-13.527
-13.934
-14.354
-14.784
-15.222
-15.665
-16.11
-16.554
-16.995
-17.429
-17.853
-18.263
-18.656
-19.027
-19.374
-19.691
-19.976
-20.223
-20.429
-20.589
-20.698
-20.754
-20.751
-20.685
-20.554
-20.352
-20.078
-19.729
-19.303
-18.799
-18.216
-17.556
-16.818
-16.006
-15.121
-14.165
-13.14
-12.05
-10.898
-9.688
-8.423
-7.108
-5.748
-4.349
-2.921
-1.471
-0.005
1.467
2.938
4.399
5.842
7.258
8.64
9.98
11.27
12.5
13.658
14.735
15.731
16.645
17.479
18.238
18.929
19.56
20.148
20.706
21.243
21.767
22.282
22.794
23.313
23.85
24.419
25.027
25.672
26.35
27.054
27.769
28.476
29.151
29.75
30.239
30.591
30.778
30.767
30.531
30.035
29.247
28.155
26.734
24.96
22.813
20.263
17.303
13.956
10.219
6.075
1.574
-3.159
-7.893
-12.274
-15.983
-18.804
-20.468
-20.635
-19.131
-16.062
-11.859
-7.312
-3.193
0.049
1.986
2.009
-0.176
-4.291
-9.493
-14.221
-16.746
-15.89
-10.451
1.189
20.179
46.956
81.165
121.18
164.825
210.11
254.272
293.503
324.076
342.258
344.824
329.821
295.484
241.326
169.445
83.035
-13.884
-119.074
-233.349
-354.789
-477.807
-591.144
-678.258
-729.142
-741.514
-721.168
-681.89
-633.218
-580.05
-524.044
-462.718
-396.654
-329.076
-263.681
-205.135
-156.189
-117.418
-88.53
-68.136
-54.566
-46.55
-42.367
-40.163
-38.258
-35.008
-29.631
-22.212
-13.092
-2.769
8.027
18.586
28.085
35.56
40.629
43.391
44.102
43.263
41.377
38.853
36.222
34.057
32.689
32.291
32.909
34.428
36.761
39.842
43.548
47.757
52.354
57.224
62.285
67.458
72.651
77.779
82.749
87.474
91.882
95.911
99.527
102.729
105.531
107.961
110.057
111.855
113.403
114.759
115.974
117.095
118.171
119.238
120.337
121.512
122.798
124.231
125.832
127.609
129.569
131.709
134.024
136.509
139.149
141.929
144.833
147.849
150.962
154.162
157.434
160.761
164.125
167.508
170.894
174.264
177.602
180.888
184.106
187.237
190.264
193.17
195.939
198.551
200.989
203.235
205.272
207.085
208.657
209.976
211.029
211.804
212.292
212.486
212.379
211.966
211.245
210.212
208.868
207.213
205.251
202.986
200.422
197.566
194.428
191.016
187.343
183.42
179.26
174.88
170.294
165.519
160.573
155.473
150.24
144.891
139.448
133.929
128.355
122.747
117.123
111.504
105.91
100.358
94.867
89.454
84.137
78.93
73.849
68.908
64.119
59.496
55.048
50.786
46.718
42.852
39.195
35.75
32.523
29.514
26.727
24.16
21.814
19.684
17.77
16.065
14.565
13.264
12.154
11.227
10.476
9.89
9.46
9.176
9.027
9.004
9.094
9.287
9.572
9.937
10.373
10.869
11.414
11.998
12.612
13.246
13.891
14.541
15.186
15.82
16.436
17.03
17.595
18.128
18.624
19.081
19.496
19.868
20.194
20.474
20.709
20.898
21.042
21.142
21.199
21.216
21.193
21.135
21.043
20.92
20.769
20.594
20.396
20.18
19.949
19.705
19.452
19.192
18.928
18.664
18.401
18.141
17.888
17.641
17.403
17.175
16.958
16.751
16.555
16.369
16.192
16.026
15.868
15.718
15.575
15.438
15.307
15.179
15.054
14.93
14.805
14.677
14.545
14.405
14.256
14.096
13.922
13.733
13.525
13.297
13.048
12.774
12.474
12.146
11.788
11.401
10.982
10.533
10.052
9.542
9.005
8.443
7.857
7.25
6.625
5.982
5.324
4.653
3.969
3.272
2.564
1.851
1.136
0.424
-0.28
-0.969
-1.637
-2.277
-2.879
-3.441
-3.959
-4.428
-4.845
-5.202
-5.489
-5.7
-5.836
-5.895
-5.88
-5.794
-5.642
-5.439
-5.208
-4.968
-4.734
-4.51
-4.292
-4.082
-3.88
-3.686
-3.501
-3.316
-3.115
-2.89
-2.636
-2.344
-1.998
-1.566
-1.003
-0.274
0.638
1.736
3.008
4.445
6.033
7.749
9.565
11.437
13.321
15.184
17.002
18.74
20.362
21.814
23.023
23.94
24.533
24.781
24.683
24.237
23.444
22.322
20.891
19.178
17.219
15.034
12.632
10.03
7.241
4.274
1.17
-2.058
-5.404
-8.85
-12.406
-16.094
-19.92
-23.906
-28.064
-32.373
-36.855
-41.554
-46.426
-51.356
-56.139
-60.447
-64.021
-66.679
-68.171
-68.19
-66.564
-63.36
-58.947
-53.998
-49.169
-44.857
-41.443
-39.479
-39.265
-40.602
-42.823
-44.659
-44.663
-41.86
-35.236
-23.345
-5.202
19.514
50.468
86.185
124.701
164.236
202.259
235.145
259.417
271.842
269.642
251.202
215.231
160.704
89.001
3.983
-90.201
-189.568
-292.683
-399.946
-508.06
-609.551
-693.155
-747.587
-768.301
-758.615
-727.694
-685.256
-637.707
-587.12
-532.251
-473.154
-411.6
-350.419
-293.942
-244.943
-204.121
-171.727
-146.914
-128.263
-115.083
-106.429
-100.635
-96.393
-92.485
-87.714
-81.814
-75.03
-67.448
-59.429
-51.615
-44.477
-38.648
-34.788
-32.979
-33.034
-34.688
-37.488
-40.996
-44.832
-48.522
-51.596
-53.819
-55.092
-55.418
-54.884
-53.53
-51.401
-48.575
-45.149
-41.207
-36.796
-31.963
-26.755
-21.244
-15.532
-9.73
-3.936
1.777
7.349
12.73
17.872
22.712
27.22
31.381
