95.541
92.548
89.21
85.501
81.445
77.075
72.417
67.511
62.415
57.183
51.871
46.536
41.216
35.958
30.819
25.861
21.159
16.766
12.714
9.02
5.688
2.715
0.094
-2.191
-4.169
-5.867
-7.304
-8.498
-9.458
-10.196
-10.732
-11.086
-11.279
-11.331
-11.256
-11.067
-10.779
-10.402
-9.945
-9.414
-8.809
-8.135
-7.398
-6.607
-5.768
-4.89
-3.979
-3.041
-2.084
-1.111
-0.128
0.863
1.864
2.872
3.887
4.907
5.931
6.957
7.986
9.015
10.042
11.063
12.075
13.078
14.071
15.055
16.025
16.977
17.91
18.82
19.706
20.56
21.374
22.138
22.848
23.503
24.102
24.644
25.129
25.552
25.917
26.229
26.485
26.683
26.81
26.84
26.768
26.601
26.352
26.045
25.699
25.325
24.956
24.63
24.366
24.18
24.065
23.989
23.965
24.007
24.139
24.417
24.863
25.46
26.19
26.995
27.783
28.481
28.963
29.068
28.716
27.832
26.39
24.44
21.975
19.001
15.552
11.597
7.126
2.178
-3.186
-8.79
-14.332
-19.526
-24.006
-27.382
-29.302
-29.308
-27.21
-23.163
-17.486
-10.842
-3.855
3.262
10.105
16.001
20.996
25.589
30.829
38.763
50.753
67.036
88.122
114.405
144.81
177.188
207.665
230.695
241.95
238.427
216.974
174.794
110.849
26.368
-74.327
-184.683
-298.746
-411.21
-516.416
-607.812
-679.307
-727.265
-750.999
-752.067
-732.623
-694.563
-640.152
-574.183
-502.833
-431.167
-363.093
-300.765
-245.142
-197.898
-160.981
-133.927
-114.585
-100.576
-89.102
-78.763
-69.445
-60.242
-49.733
-37.559
-24.123
-10.503
1.374
10.598
17.311
21.47
23.007
22.015
18.647
13.583
8.101
3.082
-1.059
-4.058
-5.907
-6.555
-5.847
-3.803
-0.62
3.494
8.327
13.716
19.594
25.868
32.394
38.991
45.421
51.489
57.079
62.125
66.603
70.491
73.759
76.41
78.49
80.072
81.238
82.053
82.558
82.809
82.876
82.849
82.836
82.913
83.127
83.512
84.087
84.871
85.882
87.119
88.565
90.201
92.014
93.996
96.145
98.453
100.898
103.461
106.118
108.85
111.644
114.481
117.344
120.215
123.078
125.921
128.732
131.495
134.193
136.807
139.316
141.702
143.946
146.03
147.935
149.643
151.14
152.412
153.448
154.238
154.77
155.037
155.033
154.754
154.195
153.356
152.235
150.835
149.159
147.213
145.002
142.534
139.818
136.864
133.684
130.29
126.696
122.915
118.963
114.856
110.61
106.243
101.772
97.215
92.59
87.915
83.209
78.49
73.773
69.077
64.418
59.81
55.268
50.808
46.441
42.18
38.036
34.02
30.141
26.407
22.827
19.405
16.147
13.057
10.138
7.394
4.824
2.429
0.209
-1.839
-3.715
-5.424
-6.969
-8.356
-9.588
-10.671
-11.613
-12.419
-13.098
-13.655
-14.1
-14.439
-14.682
-14.836
-14.91
-14.911
-14.849
-14.73
-14.564
-14.357
-14.116
-13.85
-13.564
-13.265
-12.959
-12.652
-12.349
-12.056
-11.776
-11.513
-11.272
-11.055
-10.866
-10.707
-10.58
-10.487
-10.429
-10.409
-10.426
-10.482
-10.577
-10.712
-10.886
-11.1
-11.354
-11.647
-11.978
-12.347
-12.752
-13.194
-13.672
-14.185
-14.733
-15.313
-15.927
-16.572
-17.247
-17.952
-18.683
-19.44
-20.221
-21.025
-21.851
-22.697
-23.561
-24.442
-25.338
-26.247
-27.168
-28.096
-29.03
-29.967
-30.903
-31.837
-32.763
-33.679
-34.582
-35.467
-36.333
-37.175
-37.988
-38.767
-39.508
-40.206
-40.855
-41.451
-41.988
-42.463
-42.874
-43.216
-43.489
-43.689
-43.814
-43.863
-43.834
-43.727
-43.54
-43.273
-42.926
-42.5
-41.998
-41.423
-40.78
-40.071
-39.301
-38.477
-37.606
-36.695
-35.747
-34.768
-33.761
-32.734
-31.695
-30.65
-29.603
-28.562
-27.535
-26.533
-25.567
-24.645
-23.768
-22.939
-22.16
-21.431
-20.759
-20.142
-19.573
-19.054
-18.59
-18.191
-17.883
-17.669
-17.542
-17.486
-17.476
-17.489
-17.514
-17.517
-17.456
-17.311
-17.066
-16.727
-16.326
-15.851
-15.287
-14.609
-13.76
-12.719
-11.504
-10.134
-8.67
-7.207
-5.822
-4.643
-3.838
-3.492
-3.681
-4.434
-5.701
-7.488
-9.791
-12.581
-15.89
-19.732
-24.068
-28.838
-33.863
-38.841
-43.478
-47.402
-50.214
-51.55
-50.949
-48.219
-43.52
-37.183
-29.878
-22.228
-14.441
-6.926
-0.361
5.299
10.56
16.485
25.143
37.894
54.949
76.8
103.838
134.971
168.055
199.195
222.751
234.356
230.971
209.388
166.819
102.219
16.766
-85.195
-197.07
-312.934
-427.342
-534.468
-627.858
-701.383
-751.403
-777.362
-780.48
-762.491
-725.376
-671.441
-605.125
-532.567
-458.488
-386.298
-318.958
-258.285
-206.054
-164.522
-133.716
-111.58
-96.471
-86.428
-79.113
-73.501
-68.457
-62.027
-53.565
-43.49
-32.154
-20.76
-10.881
-2.954
2.755
5.714
6.024
3.976
-0.125
-5.317
-10.443
-14.886
-18.246
-20.281
-21.034
-20.468
-18.518
-15.348
-11.205
-6.31
-0.872
4.984
11.209
17.694
24.264
30.704
36.807
42.443
47.55
52.106
56.09
59.477
62.27
64.515
66.288
67.67
68.728
69.506
70.056
70.446
70.762
71.106
71.557
72.166
72.965
73.974
75.209
76.687
78.406
80.346
82.488
84.816
87.321
89.998
92.836
95.815
98.911
102.101
105.364
108.684
112.041
115.416
118.79
122.146
125.468
128.744
131.958
135.091
138.121
141.029
143.795
146.399
148.823
151.047
153.053
154.827
156.355
157.626
158.63
159.357
159.798
159.95
159.807
159.367
158.63
157.596
156.267
154.648
152.746
150.567
148.121
145.417
142.466
139.282
135.877
132.268
128.468
124.494
120.363
116.093
111.703
107.211
102.636
97.996
93.312
88.602
83.884
79.178
74.499
69.865
65.291
60.793
56.385
52.081
47.892
43.831
39.908
36.133
32.514
29.058
25.771
22.659
19.726
16.974
14.406
12.023
9.824
7.808
5.975
4.32
2.841
1.533
0.391
-0.592
-1.421
-2.104
-2.648
-3.061
-3.351
-3.528
-3.599
-3.574
-3.461
-3.27
-3.01
-2.689
-2.316
-1.9
-1.448
-0.97
-0.472
0.038
0.553
1.067
1.574
2.069
2.546
3.001
3.43
3.829
4.194
4.523
4.814
5.065
5.274
5.442
5.566
5.648
5.687
5.685
5.641
5.556
5.433
5.272
5.075
4.843
4.578
4.283
3.959
3.608
3.232
2.834
2.415
1.976
1.52
1.047
0.56
0.058
-0.456
-0.98
-1.515
-2.057
-2.606
-3.16
-3.719
-4.281
-4.846
-5.413
-5.981
-6.55
-7.119
-7.687
-8.252
-8.813
-9.369
-9.918
-10.457
-10.986
-11.501
-12.002
-12.486
-12.952
-13.398
-13.821
-14.218
-14.586
-14.921
-15.22
-15.478
-15.693
-15.86
-15.979
-16.048
-16.064
-16.027
-15.935
-15.785
-15.579
-15.315
-14.991
-14.606
-14.161
-13.656
-13.094
-12.477
-11.808
-11.09
-10.329
-9.53
-8.701
-7.846
-6.971
-6.078
-5.173
-4.26
-3.344
-2.43
-1.522
-0.623
0.257
1.113
1.933
2.711
3.443
4.127
4.761
5.345
5.874
6.35
6.78
7.161
7.491
7.76
7.948
8.046
8.059
7.996
7.874
7.724
7.57
7.446
7.399
7.453
7.626
7.924
8.328
8.833
9.445
10.171
11.047
12.106
13.339
14.732
16.24
17.756
19.183
20.397
21.233
21.579
21.351
20.484
18.979
16.866
14.18
10.971
7.259
3.013
-1.75
-6.967
-12.48
-18.0
-23.226
-27.821
-31.41
-33.579
-33.848
-31.944
-27.904
-22.054
-15.046
-7.497
0.302
7.93
14.726
20.649
26.108
32.115
40.649
53.115
69.888
91.511
118.476
149.862
183.678
216.241
242.026
256.649
256.989
239.654
201.586
141.392
59.713
-39.588
-149.971
-265.628
-381.118
-490.356
-587.003
-664.843
-719.524
-750.037
-757.768
-744.374
-712.187
-664.007
-603.405
-535.908
-466.529
-398.631
-334.849
-276.914
-225.699
-182.56
-148.571
-122.548
-103.007
-88.438
-76.614
-66.48
-57.756
-49.325
-39.968
-29.587
-18.307
-6.917
2.86
10.366
15.656
18.523
18.917
16.99
12.924
7.476
1.914
-2.993
-6.86
-9.453
-10.79
-10.814
-9.42
-6.701
-2.902
1.745
7.035
12.839
19.088
25.661
32.373
38.989
45.288
51.126
56.416
61.121
65.227
68.711
71.575
73.869
75.656
77.013
78.011
78.694
79.115
79.346
79.473
79.601
79.819
80.183
80.731
81.488
82.47
83.691
85.153
86.834
88.716
90.787
93.035
95.458
98.047
100.783
103.644
106.609
109.655
112.766
115.923
119.108
122.302
125.488
128.651
131.781
134.861
137.873
140.797
143.611
146.296
148.832
151.201
153.382
155.358
157.111
158.63
159.901
160.914
161.658
162.124
162.307
162.201
161.803
161.11
160.123
158.842
157.27
155.413
153.277
150.869
148.198
145.275
142.11
138.717
135.11
131.303
127.311
123.152
118.843
114.402
109.847
105.198
100.473
95.691
90.872
86.035
81.198
76.379
71.595
66.863
62.199
57.617
53.132
48.757
44.505
40.387
36.414
32.595
28.939
25.453
22.142
19.013
16.07
13.315
10.751
8.379
6.198
4.208
2.406
0.791
-0.642
-1.898
-2.981
-3.898
-4.656
-5.261
-5.722
-6.046
-6.243
-6.32
-6.287
-6.154
-5.929
-5.621
-5.24
-4.795
-4.295
-3.748
-3.163
-2.548
-1.912
-1.261
-0.603
0.055
0.708
1.348
1.971
2.572
3.146
3.689
4.198
4.67
5.101
5.49
5.835
6.135
6.388
6.595
6.755
6.869
6.938
6.962
6.942
6.879
6.776
6.634
6.453
6.237
5.987
5.704
5.391
5.049
4.68
4.286
3.87
3.431
2.972
2.494
1.997
1.484
0.956
0.412
-0.144
-0.713
-1.291
-1.879
-2.476
-3.079
-3.687
-4.301
-4.919
-5.54
-6.163
-6.788
-7.413
-8.036
-8.657
-9.273
-9.882
-10.483
-11.072
-11.647
-12.207
-12.748
-13.269
-13.767
-14.238
-14.68
-15.088
-15.458
-15.786
-16.068
-16.301
-16.481
-16.605
-16.673
-16.682
-16.63
-16.518
-16.343
-16.105
-15.804
-15.439
-15.01
-14.516
-13.959
-13.341
-12.666
-11.937
-11.158
-10.334
-9.47
-8.576
-7.656
-6.716
-5.762
-4.797
-3.828
-2.862
-1.903
-0.955
-0.026
0.878
1.748
2.574
3.346
4.062
4.719
5.312
5.843
6.306
6.704
7.043
7.32
7.533
7.674
7.722
7.666
7.513
7.271
6.958
6.605
6.237
5.886
5.6
5.405
5.319
5.349
5.479
5.702
6.026
6.459
7.042
7.806
8.74
9.831
11.03
12.23
13.333
14.215
14.707
14.699
14.106
12.868
10.994
8.513
5.459
1.879
-2.216
-6.843
-11.974
-17.541
-23.377
-29.18
-34.642
-39.408
-43.086
-45.275
-45.502
-43.519
-39.395
-33.455
-26.357
-18.715
-10.796
-3.032
3.899
9.976
15.613
21.795
30.477
42.996
59.627
80.898
107.289
137.854
170.618
201.914
226.261
239.36
238.192
219.477
180.275
119.291
37.236
-61.992
-171.881
-286.637
-400.847
-508.552
-603.536
-679.729
-732.934
-762.181
-768.856
-754.641
-721.854
-673.282
-612.508
-544.981
-475.625
-407.786
-344.071
-286.217
-235.142
-192.149
-158.244
-132.234
-112.626
-97.935
-86.001
-75.776
-66.961
-58.464
-49.08
-38.735
-27.579
-16.368
-6.767
0.605
5.833
8.705
9.151
7.33
3.427
-1.808
-7.121
-11.769
-15.388
-17.74
-18.833
-18.609
-16.956
-13.976
-9.917
-5.012
0.536
6.598
13.105
19.938
26.907
33.778
40.333
46.43
51.984
56.954
61.324
65.066
68.183
70.721
72.744
74.326
75.535
76.416
77.02
77.418
77.697
77.959
78.292
78.75
79.372
80.181
81.192
82.419
83.864
85.505
87.324
89.307
91.445
93.735
96.168
98.727
101.39
104.137
106.946
109.803
112.691
115.592
118.489
121.367
124.215
127.021
129.774
132.455
135.048
137.533
139.892
142.109
144.165
146.043
147.726
149.201
150.456
151.48
152.263
152.797
153.075
153.091
152.84
152.322
151.534
150.475
149.149
147.558
145.707
143.602
141.251
138.66
135.841
132.803
129.558
126.12
122.5
118.713
114.774
110.698
106.502
102.203
97.816
93.359
88.85
84.305
79.741
75.175
70.623
66.1
61.62
57.199
52.849
48.583
44.413
40.35
36.405
32.586
28.904
25.366
21.978
18.747
15.677
12.774
10.039
7.477
5.087
2.872
0.83
-1.038
-2.735
-4.263
-5.625
-6.826
-7.869
-8.76
-9.504
-10.108
-10.579
-10.922
-11.147
-11.259
-11.267
-11.179
-11.002
-10.745
-10.414
-10.019
-9.567
-9.065
-8.522
-7.944
-7.339
-6.714
-6.075
-5.429
-4.782
-4.138
-3.505
-2.885
-2.285
-1.708
-1.159
-0.64
-0.155
0.294
0.705
1.074
1.402
1.687
1.927
2.124
2.276
2.383
2.446
2.466
2.442
2.376
2.269
2.12
1.933
1.707
1.444
1.146
0.815
0.451
0.057
-0.367
-0.819
-1.298
-1.803
-2.332
-2.884
-3.458
-4.051
-4.662
-5.289
-5.931
-6.586
-7.251
-7.927
-8.611
-9.301
-9.996
-10.695
-11.396
-12.095
-12.791
-13.48
-14.161
-14.83
-15.484
-16.119
-16.734
-17.325
-17.89
-18.426
-18.928
-19.395
-19.821
-20.202
-20.534
-20.814
-21.035
-21.197
-21.294
-21.327
-21.292
-21.19
-21.017
-20.773
-20.459
-20.072
-19.614
-19.084
-18.482
-17.811
-17.073
-16.274
-15.416
-14.506
-13.55
-12.554
-11.527
-10.476
-9.409
-8.331
-7.247
-6.163
-5.085
-4.021
-2.976
-1.957
-0.971
-0.03
0.856
1.676
2.424
3.096
3.69
4.203
4.633
4.979
5.247
5.434
5.538
5.553
5.46
5.248
4.924
4.5
3.995
3.446
2.877
2.318
1.816
1.398
1.078
0.866
0.742
0.696
0.74
0.884
1.16
1.608
2.215
2.966
3.825
4.693
5.473
6.064
6.305
6.089
5.351
4.035
2.15
-0.27
-3.218
-6.649
-10.53
-14.869
-19.624
-24.75
-30.149
-35.555
-40.671
-45.181
-48.675
-50.835
-51.339
-49.745
-45.924
-40.051
-32.477
-23.935
-15.067
-6.083
2.558
10.165
16.742
22.688
29.06
37.884
50.447
66.993
87.999
113.82
143.41
174.653
203.71
225.101
234.573
229.165
205.818
161.854
96.323
10.525
-91.228
-202.469
-317.354
-430.561
-536.394
-628.495
-700.861
-749.977
-775.308
-778.037
-759.864
-722.704
-668.812
-602.588
-530.12
-456.093
-383.887
-316.469
-255.684
-203.331
-161.699
-130.851
-108.744
-93.738
-83.879
-76.816
-71.501
-66.785
-60.677
-52.495
-42.638
-31.446
-20.121
-10.245
-2.261
3.566
6.691
7.201
5.38
1.525
-3.401
-8.237
-12.366
-15.396
-17.085
-17.485
-16.563
-14.259
-10.741
-6.266
-1.058
4.671
10.797
17.272
23.988
30.772
37.41
43.697
49.503
54.767
59.469
63.587
67.096
70.003
72.353
74.222
75.694
76.834
77.686
78.3
78.745
79.104
79.478
79.944
80.551
81.332
82.306
83.489
84.898
86.531
88.368
90.392
92.587
94.943
97.457
100.118
102.907
105.803
108.781
111.824
114.915
118.036
121.168
124.294
127.396
130.462
133.478
136.43
139.297
142.062
144.704
147.205
149.545
151.707
153.672
155.423
156.946
158.229
159.26
160.031
160.531
160.754
160.694
160.349
159.716
158.794
157.585
156.09
154.316
152.267
149.953
147.381
144.561
141.505
138.225
134.736
131.051
127.186
123.157
118.981
114.676
110.26
105.752
101.169
96.532
91.857
87.165
82.474
77.8
73.161
68.573
64.051
59.611
55.266
51.028
46.911
42.924
39.078
35.382
31.844
28.471
25.268
22.241
19.393
16.726
14.242
11.942
9.825
7.89
6.136
4.558
3.152
1.915
0.841
-0.076
-0.843
-1.468
-1.957
-2.319
-2.562
-2.696
-2.727
-2.667
-2.523
-2.304
-2.021
-1.68
-1.291
-0.863
-0.404
0.08
0.579
1.087
1.597
2.103
2.599
3.079
3.538
3.973
4.378
4.752
5.089
5.389
5.65
5.868
6.044
6.176
6.265
6.309
6.31
6.268
6.184
6.061
5.899
5.7
5.468
5.203
4.908
4.585
4.238
3.868
3.478
3.07
2.646
2.21
1.763
1.308
0.846
0.38
-0.089
-0.561
-1.033
-1.505
-1.977
-2.447
-2.914
-3.379
-3.839
-4.295
-4.746
-5.192
-5.633
-6.068
-6.498
-6.923
-7.343
-7.76
-8.172
-8.579
-8.982
-9.379
-9.77
-10.155
-10.532
-10.901
-11.26
-11.61
-11.95
-12.278
-12.593
-12.892
-13.174
-13.436
-13.673
-13.884
-14.065
-14.212
-14.326
-14.402
-14.441
-14.441
-14.399
-14.316
-14.189
-14.018
-13.802
-13.539
-13.228
-12.869
-12.465
-12.017
-11.527
-10.999
-10.435
-9.84
-9.221
-8.582
-7.926
-7.256
-6.576
-5.886
-5.192
-4.498
-3.807
-3.122
-2.451
-1.8
-1.179
-0.596
-0.056
0.44
0.89
1.295
1.651
1.959
2.225
2.447
2.623
2.745
2.796
2.762
2.652
2.473
2.244
2.0
1.763
1.561
1.438
1.418
1.512
1.729
2.045
2.45
2.951
3.555
4.293
5.199
6.26
7.46
8.761
10.058
11.254
12.243
12.863
13.004
12.601
11.591
9.984
7.811
5.079
1.837
-1.879
-6.079
-10.725
-15.772
-21.125
-26.514
-31.635
-36.169
-39.698
-41.907
-42.467
-40.926
-37.158
-31.349
-23.872
-15.5
-6.901
1.719
9.902
16.969
22.967
28.35
34.242
42.763
55.255
71.974
93.398
119.841
150.145
182.038
211.519
232.988
242.086
235.816
211.118
165.297
97.546
9.441
-94.481
-207.511
-323.517
-437.117
-542.577
-633.246
-703.166
-748.958
-770.116
-768.367
-746.038
-705.113
-648.015
-579.747
-506.517
-433.338
-364.055
-300.739
-244.307
-196.443
-159.075
-131.656
-112.014
-97.772
-86.15
-75.795
-66.6
-57.622
-47.387
-35.517
-22.403
-9.12
2.401
11.267
17.635
21.461
22.653
21.297
17.55
12.107
6.274
0.955
-3.431
-6.618
-8.597
-9.322
-8.64
-6.578
-3.347
0.834
5.747
11.227
17.211
23.611
30.282
37.04
43.644
49.892
55.667
60.901
65.569
69.649
73.109
75.956
78.239
80.035
81.429
82.483
83.239
83.75
84.085
84.333
84.6
84.961
85.462
86.134
86.995
88.063
89.355
90.866
92.577
94.466
96.519
98.726
101.083
103.579
106.193
108.905
111.689
114.529
117.409
120.311
123.218
126.113
128.981
131.807
134.582
137.291
139.916
142.44
144.844
147.11
149.222
151.161
152.911
154.455
155.781
156.877
157.732
158.338
158.687
158.771
158.587
158.132
157.403
156.401
155.126
153.581
151.77
149.701
147.38
144.815
142.015
138.99
135.753
132.315
128.691
124.894
120.939
116.841
112.617
108.284
103.858
99.356
94.796
90.194
85.569
80.937
76.314
71.716
67.157
62.654
58.218
53.864
49.604
45.448
41.408
37.492
33.711
30.071
26.579
23.242
20.064
17.05
14.203
11.524
9.016
6.678
4.512
2.515
0.685
-0.978
-2.48
-3.823
-5.013
-6.054
-6.952
-7.713
-8.344
-8.852
-9.244
-9.527
-9.708
-9.797
-9.801
-9.727
-9.584
-9.379
-9.12
-8.815
-8.471
-8.096
-7.695
-7.277
-6.846
-6.41
-5.973
-5.541
-5.119
-4.711
-4.321
-3.953
-3.611
-3.297
-3.014
-2.764
-2.549
-2.371
-2.23
-2.128
-2.065
-2.041
-2.055
-2.107
-2.197
-2.323
-2.483
-2.677
-2.903
-3.158
-3.442
-3.753
-4.088
-4.446
-4.826
-5.224
-5.639
-6.07
-6.514
-6.97
-7.436
-7.913
-8.397
-8.889
-9.388
-9.891
-10.398
-10.908
-11.419
-11.929
-12.439
-12.947
-13.451
-13.952
-14.448
-14.939
-15.425
-15.905
-16.377
-16.841
-17.296
-17.74
-18.172
-18.59
-18.993
-19.378
-19.744
-20.09
-20.414
-20.713
-20.987
-21.23
-21.442
-21.618
-21.756
-21.851
-21.901
-21.904
-21.858
-21.761
-21.614
-21.415
-21.164
-20.86
-20.503
-20.094
-19.632
-19.117
-18.551
-17.933
-17.268
-16.559
-15.809
-15.022
-14.204
-13.361
-12.501
-11.63
-10.753
-9.875
-9.001
-8.135
-7.285
-6.455
-5.649
-4.872
-4.132
-3.435
-2.793
-2.212
-1.695
-1.244
-0.861
-0.546
-0.301
-0.124
-0.007
0.049
0.041
-0.036
-0.203
-0.469
-0.826
-1.266
-1.769
-2.301
-2.84
-3.348
-3.779
-4.105
-4.306
-4.374
-4.325
-4.163
-3.882
-3.469
-2.887
-2.102
-1.123
0.034
1.322
2.633
3.868
4.903
5.568
5.75
5.365
4.35
2.712
0.479
-2.318
-5.63
-9.447
-13.789
-18.626
-23.891
-29.418
-34.903
-40.038
-44.468
-47.798
-49.626
-49.475
-47.093
-42.545
-36.156
-28.582
-20.441
-12.008
-3.725
3.718
10.288
16.389
23.002
32.09
44.999
62.021
83.706
110.553
141.63
174.973
206.897
231.876
245.567
244.899
226.531
187.465
126.355
43.875
-56.064
-166.897
-282.765
-398.179
-507.087
-603.172
-680.265
-734.084
-763.622
-770.271
-755.735
-722.372
-673.03
-611.364
-542.909
-472.653
-403.986
-339.53
-281.028
-229.392
-185.906
-151.548
-125.099
-105.056
-89.934
-77.577
-66.951
-57.772
-48.961
-39.337
-28.834
-17.599
-6.38
3.169
10.438
15.521
18.218
18.471
16.45
12.34
6.894
1.369
-3.491
-7.316
-9.864
-11.145
-11.101
-9.619
-6.802
-2.899
1.853
7.249
13.154
19.5
26.165
32.958
39.647
46.011
51.909
57.257
62.016
66.168
69.691
72.587
74.905
76.711
78.082
79.089
79.779
80.206
80.442
80.575
80.711
80.937
81.309
81.866
82.631
83.621
84.85
86.318
88.004
89.891
91.963
94.21
96.629
99.21
101.935
104.781
107.726
110.747
113.828
116.95
120.095
123.243
126.379
129.486
132.555
135.57
138.511
141.36
144.095
146.697
149.147
151.426
153.514
155.394
157.049
158.467
159.636
160.545
161.185
161.547
161.626
161.416
160.915
160.122
159.036
157.659
155.995
154.049
151.829
149.342
146.597
143.604
140.377
136.929
133.272
129.422
125.395
121.208
116.876
112.42
107.856
103.203
98.48
93.705
88.898
84.077
79.261
74.465
69.708
65.004
60.37
55.82
51.367
47.024
42.803
38.715
34.769
30.975
27.341
23.872
20.574
17.453
14.51
11.75
9.173
6.78
4.57
2.543
0.695
-0.976
-2.474
-3.804
-4.971
-5.98
-6.839
-7.554
-8.133
-8.584
-8.915
-9.134
-9.25
-9.271
-9.207
-9.066
-8.857
-8.588
-8.268
-7.905
-7.507
-7.082
-6.636
-6.177
-5.712
-5.245
-4.785
-4.334
-3.898
-3.482
-3.089
-2.723
-2.387
-2.083
-1.814
-1.582
-1.388
-1.233
-1.118
-1.044
-1.01
-1.015
-1.06
-1.143
-1.264
-1.422
-1.614
-1.84
-2.099
-2.389
-2.708
-3.054
-3.427
-3.824
-4.244
-4.685
-5.147
-5.628
-6.128
-6.646
-7.18
-7.731
-8.297
-8.878
-9.471
-10.077
-10.695
-11.322
-11.959
-12.604
-13.257
-13.917
-14.582
-15.252
-15.926
-16.602
-17.278
-17.953
-18.624
-19.291
-19.95
-20.599
-21.235
-21.856
-22.46
-23.044
-23.604
-24.138
-24.641
-25.109
-25.537
-25.92
-26.255
-26.536
-26.761
-26.927
-27.032
-27.073
-27.05
-26.959
-26.801
-26.574
-26.277
-25.91
-25.474
-24.967
-24.392
-23.753
-23.053
-22.295
-21.484
-20.625
-19.724
-18.789
-17.827
-16.841
-15.838
-14.821
-13.798
-12.777
-11.764
-10.765
-9.787
-8.838
-7.929
-7.073
-6.276
-5.539
-4.866
-4.258
-3.716
-3.246
-2.845
-2.508
-2.237
-2.034
-1.912
-1.892
-1.98
-2.165
-2.432
-2.756
-3.113
-3.489
-3.852
-4.157
-4.386
-4.522
-4.568
-4.555
-4.468
-4.291
-4.001
-3.54
-2.885
-2.055
-1.068
0.015
1.1
2.11
2.919
3.365
3.366
2.85
1.791
0.24
-1.808
-4.345
-7.338
-10.816
-14.79
-19.219
-24.039
-29.069
-34.007
-38.562
-42.366
-45.029
-46.204
-45.446
-42.576
-37.758
-31.323
-23.936
-16.223
-8.397
-0.865
5.711
11.376
16.622
22.479
30.952
43.365
59.942
81.178
107.446
137.674
169.722
199.755
222.313
233.133
229.247
207.538
165.249
101.4
17.283
-82.752
-192.171
-305.022
-415.987
-519.398
-608.731
-678.026
-723.799
-745.499
-744.792
-723.94
-684.947
-630.17
-564.435
-493.796
-423.157
-356.307
-295.294
-240.985
-194.973
-159.108
-132.874
-114.205
-100.835
-90.015
-80.384
-71.818
-63.389
-53.722
-42.483
-30.034
-17.412
-6.468
1.96
8.006
11.618
12.764
11.553
8.176
3.351
-1.724
-6.24
-9.815
-12.237
-13.496
-13.539
-12.246
-9.66
-5.984
-1.437
3.782
9.528
15.702
22.194
28.832
35.398
41.701
47.591
52.969
57.797
62.061
65.735
68.819
71.342
73.346
74.903
76.089
76.952
77.557
77.973
78.281
78.588
78.981
79.519
80.244
81.181
82.344
83.747
85.396
87.274
89.369
91.666
94.153
96.827
99.677
102.685
105.829
109.082
112.421
115.826
119.279
122.758
126.245
129.719
133.165
136.568
139.911
143.174
146.335
149.371
152.258
154.977
157.506
159.824
161.909
163.746
165.318
166.612
167.618
168.322
168.717
168.795
168.551
167.981
167.085
165.861
164.312
162.442
160.258
157.767
154.978
151.903
148.553
144.943
141.086
137.001
132.702
128.209
123.54
118.714
113.754
108.679
103.512
98.272
92.983
87.665
82.34
77.028
71.749
66.521
61.363
56.292
51.323
46.473
41.756
37.183
32.768
28.521
24.451
20.566
16.874
13.38
10.088
7.002
4.124
1.454
-1.008
-3.262
-5.311
-7.158
-8.807
-10.264
-11.533
-12.622
-13.538
-14.289
-14.883
-15.328
-15.635
-15.811
-15.867
-15.813
-15.657
-15.409
-15.08
-14.678
-14.214
-13.695
-13.131
-12.531
-11.902
-11.252
-10.588
-9.917
-9.245
-8.58
-7.925
-7.288
-6.671
-6.081
-5.52
-4.992
-4.501
-4.049
-3.637
-3.269
-2.946
-2.668
-2.439
-2.258
-2.126
-2.044
-2.011
-2.029
-2.096
-2.211
-2.373
-2.581
-2.833
-3.128
-3.465
-3.841
-4.255
-4.705
-5.189
-5.704
-6.248
-6.817
-7.408
-8.019
-8.645
-9.283
-9.929
-10.578
-11.228
-11.874
-12.514
-13.142
-13.753
-14.343
-14.905
-15.435
-15.927
-16.375
-16.775
-17.122
-17.413
-17.643
-17.812
-17.915
-17.952
-17.918
-17.813
-17.636
-17.386
-17.061
-16.661
-16.188
-15.645
-15.034
-14.36
-13.627
-12.838
-12.001
-11.124
-10.213
-9.273
-8.309
-7.325
-6.33
-5.333
-4.339
-3.354
-2.385
-1.442
-0.536
0.32
1.119
1.859
2.534
3.144
3.686
4.155
4.55
4.878
5.136
5.321
5.422
5.414
5.291
5.063
4.744
4.361
3.938
3.487
3.043
2.65
2.327
2.096
1.951
1.86
1.834
1.888
2.045
2.365
2.87
3.545
4.37
5.285
6.2
7.044
7.69
7.978
7.818
7.137
5.918
4.218
2.041
-0.592
-3.652
-7.161
-11.125
-15.507
-20.239
-25.143
-29.936
-34.335
-37.981
-40.49
-41.506
-40.585
-37.563
-32.608
-26.057
-18.588
-10.805
-2.925
4.659
11.337
17.149
22.562
28.574
37.104
49.455
65.849
86.677
112.209
141.336
171.94
200.501
221.947
232.032
227.837
206.284
164.606
102.297
20.99
-75.413
-180.774
-288.988
-394.586
-491.168
-571.741
-631.606
-668.53
-682.38
-675.428
-650.615
-610.886
-560.888
-506.727
-452.992
-402.657
-357.527
-317.684
-282.894
-253.076
-226.907
-202.073
-177.162
-151.543
-125.192
-98.994
-73.725
-49.851
-28.219
-9.853
4.7
15.242
21.919
25.287
25.875
24.14
20.637
15.938
10.521
4.834
-0.714
-5.806
-10.162
-13.549
-15.827
-16.906
-16.729
-15.297
-12.662
-8.925
-4.235
1.245
7.362
13.952
20.85
27.874
34.806
41.462
47.713
53.473
58.696
63.359
67.442
70.954
73.945
76.48
78.632
80.465
82.032
83.393
84.62
85.796
87.012
88.339
89.819
91.486
93.359
95.451
97.771
100.313
103.055
105.975
109.055
112.282
115.646
119.132
122.716
126.375
130.082
133.816
137.556
141.282
144.972
148.606
152.165
155.631
158.992
162.23
165.325
168.256
171.004
173.546
175.867
177.945
179.764
181.306
182.558
183.507
184.144
184.461
184.449
184.105
183.424
182.406
181.051
179.362
177.341
174.995
172.331
169.358
166.088
162.533
158.706
154.621
150.296
145.746
140.991
136.049
130.94
125.684
120.302
114.815
109.246
103.615
97.945
92.257
86.573
80.913
75.297
69.744
64.272
58.899
53.641
48.513
43.528
38.7
34.041
29.559
25.266
21.169
17.274
13.587
10.112
6.852
3.809
0.983
-1.626
-4.019
-6.2
-8.17
-9.936
-11.502
-12.874
-14.059
-15.065
-15.899
-16.571
-17.089
-17.462
-17.701
-17.815
-17.815
-17.709
-17.509
-17.224
-16.863
-16.437
-15.954
-15.423
-14.854
-14.255
-13.632
-12.995
-12.35
-11.703
-11.062
-10.43
-9.814
-9.218
-8.646
-8.102
-7.591
-7.114
-6.674
-6.273
-5.915
-5.599
-5.328
-5.102
-4.922
-4.787
-4.698
-4.656
-4.66
-4.71
-4.806
-4.948
-5.134
-5.364
-5.637
-5.952
-6.306
-6.699
-7.128
-7.593
-8.092
-8.622
-9.183
-9.772
-10.389
-11.03
-11.693
-12.375
-13.074
-13.787
-14.51
-15.241
-15.975
-16.71
-17.441
-18.166
-18.88
-19.581
-20.263
-20.922
-21.551
-22.147
-22.704
-23.216
-23.679
-24.088
-24.441
-24.735
-24.966
-25.133
-25.233
-25.265
-25.226
-25.116
-24.934
-24.68
-24.353
-23.955
-23.488
-22.956
-22.363
-21.712
-21.009
-20.26
-19.472
-18.653
-17.807
-16.939
-16.053
-15.158
-14.262
-13.371
-12.49
-11.627
-10.791
-9.992
-9.243
-8.55
-7.916
-7.344
-6.835
-6.39
-6.015
-5.707
-5.462
-5.279
-5.162
-5.122
-5.181
-5.343
-5.599
-5.934
-6.32
-6.736
-7.169
-7.585
-7.941
-8.215
-8.39
-8.469
-8.482
-8.415
-8.252
-7.967
-7.501
-6.833
-5.979
-4.958
-3.823
-2.664
-1.555
-0.618
-0.018
0.162
-0.15
-0.98
-2.279
-4.058
-6.313
-9.019
-12.203
-15.872
-19.993
-24.509
-29.255
-33.946
-38.296
-41.947
-44.509
-45.629
-44.868
-42.036
-37.272
-30.877
-23.487
-15.706
-7.756
-0.056
6.743
12.675
18.204
24.341
33.064
45.685
62.436
83.814
110.221
140.648
173.08
203.788
227.305
239.382
237.066
217.22
177.104
115.643
33.749
-64.572
-172.828
-285.25
-396.497
-500.769
-592.065
-664.671
-714.745
-741.506
-746.432
-731.272
-698.337
-650.395
-590.958
-525.211
-457.808
-391.927
-330.019
-273.732
-223.962
-181.948
-148.666
-123.03
-103.633
-89.062
-77.266
-67.237
-58.676
-50.522
-41.58
-31.737
-21.136
-10.507
-1.453
5.423
10.212
12.711
12.838
10.741
6.606
1.171
-4.336
-9.186
-13.03
-15.637
-17.017
-17.111
-15.811
-13.217
-9.573
-5.107
-0.012
5.586
11.627
17.996
24.51
30.939
37.071
42.766
47.947
52.574
56.631
60.096
62.971
65.305
67.162
68.616
69.734
70.558
71.14
71.546
71.863
72.191
72.617
73.192
73.953
74.923
76.116
77.546
79.21
81.087
83.157
85.405
87.818
90.392
93.117
95.973
98.938
101.987
105.099
108.256
111.44
114.63
117.808
120.956
124.061
127.109
130.087
132.975
135.754
138.405
140.907
143.243
145.395
147.342
149.07
150.562
151.808
152.796
153.516
153.961
154.123
153.998
153.583
152.876
151.876
150.586
149.008
147.148
145.01
142.605
139.939
137.025
133.872
130.493
126.903
123.117
119.148
115.014
110.731
106.316
101.789
97.166
92.466
87.709
82.912
78.094
73.274
68.469
63.695
58.969
54.306
49.72
45.226
40.835
36.56
32.411
28.399
24.532
20.819
17.265
13.878
10.661
7.619
4.753
2.067
-0.439
-2.766
-4.913
-6.883
-8.678
-10.301
-11.756
-13.047
-14.18
-15.16
-15.994
-16.688
-17.25
-17.686
-18.004
-18.212
-18.317
-18.328
-18.251
-18.094
-17.866
-17.573
-17.223
-16.822
-16.379
-15.898
-15.387
-14.851
-14.296
-13.727
-13.149
-12.566
-11.982
-11.402
-10.829
-10.266
-9.717
-9.184
-8.671
-8.178
-7.709
-7.266
-6.848
-6.459
-6.099
-5.769
-5.471
-5.205
-4.973
-4.776
-4.614
-4.487
-4.397
-4.342
-4.324
-4.341
-4.394
-4.482
-4.604
-4.762
-4.953
-5.178
-5.437
-5.727
-6.049
-6.4
-6.779
-7.182
-7.609
-8.056
-8.521
-8.999
-9.488
-9.986
-10.488
-10.992
-11.494
-11.987
-12.468
-12.932
-13.371
-13.782
-14.158
-14.494
-14.787
-15.032
-15.225
-15.365
-15.446
-15.467
-15.425
-15.317
-15.141
-14.895
-14.577
-14.188
-13.729
-13.202
-12.609
-11.955
-11.243
-10.478
-9.668
-8.82
-7.939
-7.029
-6.094
-5.141
-4.176
-3.205
-2.233
-1.266
-0.314
0.614
1.506
2.352
3.146
3.883
4.559
5.172
5.716
6.192
6.604
6.95
7.228
7.427
7.527
7.514
7.395
7.178
6.882
6.541
6.177
5.824
5.528
5.316
5.209
5.211
5.302
5.47
5.722
6.071
6.557
7.22
8.052
9.042
10.151
11.278
12.329
13.192
13.701
13.739
13.231
12.122
10.427
8.192
5.446
2.227
-1.449
-5.613
-10.26
-15.324
-20.667
-26.012
-31.043
-35.432
-38.808
-40.755
-40.824
-38.743
-34.525
-28.522
-21.372
-13.634
-5.619
2.353
9.777
16.423
22.539
29.086
37.839
50.231
66.835
87.871
113.525
143.535
176.489
209.179
236.735
254.546
259.018
247.315
216.832
165.084
91.69
-0.521
-106.257
-219.512
-334.364
-445.509
-547.25
-632.425
-695.786
-735.283
-750.913
-744.412
-718.416
-674.978
-617.093
-550.756
-481.329
-412.724
-348.463
-290.138
-238.37
-194.852
-160.788
-134.793
-115.338
-100.701
-88.328
-77.336
-67.606
-58.018
-47.509
-36.065
-23.804
-11.586
-1.147
6.916
12.66
15.914
16.706
15.172
11.482
6.363
0.996
-3.84
-7.721
-10.399
-11.855
-12.02
-10.788
-8.224
-4.538
0.035
5.297
11.101
17.35
23.937
30.687
37.378
43.815
49.845
55.36
60.324
64.714
68.499
71.685
74.303
76.399
78.052
79.335
80.299
81.005
81.521
81.927
82.33
82.817
83.443
84.252
85.265
86.498
87.965
89.67
91.593
93.721
96.037
98.529
101.192
104.016
106.98
110.063
113.239
116.483
119.778
123.104
126.442
129.771
133.075
136.335
139.541
142.676
145.719
148.65
151.447
154.09
156.558
158.831
160.89
162.716
164.293
165.607
166.647
167.402
167.861
168.019
167.867
167.403
166.624
165.53
164.121
162.4
160.372
158.045
155.425
152.523
149.351
145.919
142.241
138.334
134.211
129.891
125.389
120.726
115.919
110.989
105.956
100.841
95.664
90.444
85.204
79.962
74.738
69.551
64.418
59.356
54.382
49.51
44.755
40.129
35.646
31.315
27.146
23.149
19.33
15.696
12.252
9.002
5.948
3.092
0.436
-2.022
-4.282
-6.347
-8.22
-9.906
-11.408
-12.733
-13.887
-14.877
-15.711
-16.395
-16.939
-17.351
-17.641
-17.816
-17.886
-17.86
-17.747
-17.557
-17.297
-16.977
-16.605
-16.19
-15.737
-15.256
-14.753
-14.235
-13.707
-13.177
-12.648
-12.127
-11.618
-11.124
-10.649
-10.197
-9.77
-9.37
-8.999
-8.659
-8.351
-8.076
-7.835
-7.628
-7.456
-7.319
-7.217
-7.149
-7.115
-7.114
-7.145
-7.208
-7.303
-7.429
-7.585
-7.772
-7.988
-8.233
-8.506
-8.806
-9.131
-9.482
-9.856
-10.253
-10.672
-11.111
-11.57
-12.048
-12.544
-13.056
-13.584
-14.124
-14.675
-15.235
-15.802
-16.372
-16.942
-17.51
-18.073
-18.627
-19.171
-19.701
-20.212
-20.702
-21.165
-21.596
-21.991
-22.344
-22.652
-22.909
-23.112
-23.258
-23.345
-23.371
-23.333
-23.229
-23.058
-22.818
-22.508
-22.127
-21.674
-21.15
-20.558
-19.901
-19.181
-18.404
-17.574
-16.698
-15.784
-14.838
-13.867
-12.875
-11.867
-10.849
-9.828
-8.81
-7.801
-6.808
-5.838
-4.903
-4.014
-3.18
-2.407
-1.7
-1.062
-0.493
0.001
0.421
0.771
1.049
1.251
1.369
1.385
1.287
1.083
0.783
0.406
-0.011
-0.443
-0.859
-1.211
-1.476
-1.637
-1.686
-1.642
-1.512
-1.285
-0.954
-0.485
0.159
0.968
1.925
2.992
4.059
5.025
5.781
6.164
6.066
5.423
4.174
2.332
-0.067
-3.007
-6.427
-10.29
-14.604
-19.326
-24.415
-29.756
-35.058
-40.006
-44.264
-47.406
-49.118
-49.072
-46.814
-42.246
-35.579
-27.223
-17.995
-8.567
0.86
9.848
17.745
24.594
30.84
37.586
46.9
60.101
77.408
99.208
125.729
155.726
186.804
215.061
235.086
242.435
234.116
207.074
158.549
88.188
-1.887
-107.16
-221.011
-336.933
-449.412
-552.308
-638.447
-702.738
-742.796
-758.298
-751.252
-724.517
-680.278
-621.755
-554.865
-484.858
-415.722
-351.021
-292.31
-240.197
-196.357
-161.98
-135.734
-116.121
-101.412
-89.051
-78.132
-68.514
-59.057
-48.651
-37.255
-24.988
-12.72
-2.211
5.927
11.754
15.091
15.946
14.451
10.773
5.651
0.288
-4.53
-8.381
-11.02
-12.432
-12.548
-11.261
-8.639
-4.897
-0.273
5.034
10.88
17.168
23.796
30.587
37.318
43.791
49.85
55.39
60.372
64.773
68.565
71.749
74.36
76.444
78.081
79.345
80.286
80.965
81.449
81.82
82.184
82.628
83.208
83.968
84.933
86.114
87.531
89.184
91.057
93.135
95.403
97.848
100.466
103.246
106.17
109.217
112.36
115.577
118.849
122.16
125.489
128.818
132.128
135.403
138.632
141.798
144.882
147.862
150.717
153.427
155.971
158.329
160.481
162.408
164.094
165.524
166.687
167.571
168.166
168.463
168.456
168.14
167.511
166.57
165.315
163.748
161.875
159.7
157.232
154.479
151.451
148.16
144.618
140.84
136.841
132.637
128.244
123.682
118.968
114.123
109.166
104.118
98.998
93.828
88.628
83.418
78.217
73.045
67.919
62.856
57.875
52.989
48.214
43.563
39.05
34.685
30.479
26.442
22.581
18.904
15.416
12.122
9.025
6.128
3.432
0.937
-1.357
-3.452
-5.352
-7.058
-8.577
-9.914
-11.074
-12.064
-12.893
-13.567
-14.095
-14.487
-14.75
-14.895
-14.93
-14.865
-14.71
-14.473
-14.165
-13.794
-13.369
-12.899
-12.392
-11.856
-11.298
-10.726
-10.146
-9.564
-8.986
-8.418
-7.864
-7.329
-6.816
-6.329
-5.871
-5.445
-5.053
-4.696
-4.374
-4.09
-3.843
-3.634
-3.461
-3.326
-3.226
-3.162
-3.133
-3.137
-3.174
-3.242
-3.339
-3.465
-3.618
-3.797
-4.0
-4.228
-4.479
-4.752
-5.047
-5.362
-5.698
-6.052
-6.424
-6.813
-7.218
-7.638
-8.071
-8.518
-8.977
-9.447
-9.929
-10.42
-10.921
-11.429
-11.944
-12.463
-12.984
-13.507
-14.028
-14.545
-15.055
-15.557
-16.047
-16.522
-16.981
-17.418
-17.829
-18.211
-18.559
-18.868
-19.133
-19.352
-19.52
-19.635
-19.694
-19.696
-19.638
-19.519
-19.337
-19.092
-18.782
-18.408
-17.969
-17.464
-16.897
-16.27
-15.585
-14.848
-14.061
-13.231
-12.363
-11.465
-10.544
-9.604
-8.65
-7.689
-6.727
-5.771
-4.829
-3.906
-3.007
-2.141
-1.319
-0.548
0.162
0.811
1.395
1.914
2.365
2.743
3.051
3.29
3.461
3.563
3.586
3.509
3.328
3.052
2.697
2.291
1.859
1.417
0.995
0.632
0.352
0.179
0.112
0.136
0.251
0.462
0.793
1.299
1.995
2.864
3.866
4.92
5.937
6.845
7.525
7.835
7.677
6.967
5.679
3.854
1.513
-1.296
-4.542
-8.255
-12.421
-16.995
-21.862
-26.776
-31.452
-35.61
-38.89
-40.936
-41.377
-39.744
-35.892
-30.025
-22.55
-14.239
-5.733
2.77
10.851
17.857
23.807
29.176
35.083
43.606
56.114
72.809
94.054
120.088
149.68
180.469
208.598
228.685
236.285
228.415
202.026
154.361
85.035
-3.903
-108.017
-220.774
-335.74
-447.431
-549.743
-635.557
-699.795
-740.05
-755.967
-749.496
-723.445
-679.976
-622.263
-556.143
-486.81
-418.222
-353.944
-295.546
-243.644
-199.909
-165.538
-139.247
-119.586
-104.85
-92.473
-81.529
-71.869
-62.356
-51.894
-40.424
-28.038
-15.593
-4.858
3.54
9.644
13.271
14.437
13.264
9.904
5.082
-0.005
-4.575
-8.203
-10.646
-11.891
-11.873
-10.482
-7.784
-3.989
0.666
5.982
11.815
18.07
24.645
31.366
38.012
44.39
50.345
55.776
60.643
64.927
68.6
71.664
74.154
76.114
77.624
78.759
79.567
80.111
80.459
80.692
80.917
81.22
81.659
82.278
83.101
84.141
85.417
86.931
88.667
90.611
92.748
95.067
97.564
100.229
103.043
105.986
109.032
112.158
115.347
118.58
121.838
125.103
128.356
131.583
134.769
137.901
140.959
143.921
146.766
149.473
152.023
154.396
156.571
158.53
160.255
161.734
162.953
163.901
164.568
164.945
165.025
164.804
164.278
163.445
162.305
160.861
159.115
157.074
154.745
152.136
149.257
146.119
142.734
139.116
135.28
131.241
127.016
122.62
118.074
113.394
108.601
103.714
98.752
93.735
88.683
83.615
78.55
73.506
68.501
63.551
58.673
53.881
49.191
44.615
40.166
35.856
31.694
27.69
23.852
20.187
16.701
13.399
10.284
7.36
4.627
2.087
-0.26
-2.416
-4.383
-6.162
-7.759
-9.177
-10.421
-11.498
-12.413
-13.174
-13.787
-14.262
-14.604
-14.824
-14.929
-14.928
-14.83
-14.644
-14.377
-14.039
-13.638
-13.182
-12.678
-12.136
-11.561
-10.961
-10.343
-9.712
-9.075
-8.436
-7.802
-7.176
-6.564
-5.969
-5.394
-4.844
-4.32
-3.826
-3.363
-2.934
-2.539
-2.18
-1.857
-1.571
-1.323
-1.111
-0.937
-0.8
-0.7
-0.636
-0.607
-0.614
-0.655
-0.73
-0.837
-0.977
-1.148
-1.349
-1.582
-1.844
-2.136
-2.457
-2.807
-3.184
-3.588
-4.016
-4.469
-4.945
-5.442
-5.96
-6.497
-7.052
-7.625
-8.212
-8.814
-9.428
-10.052
-10.683
-11.321
-11.96
-12.6
-13.236
-13.866
-14.485
-15.093
-15.685
-16.258
-16.807
-17.329
-17.82
-18.274
-18.686
-19.052
-19.367
-19.628
-19.831
-19.975
-20.058
-20.077
-20.031
-19.919
-19.74
-19.494
-19.179
-18.797
-18.346
-17.828
-17.247
-16.605
-15.906
-15.155
-14.357
-13.519
-12.648
-11.751
-10.835
-9.904
-8.964
-8.02
-7.081
-6.151
-5.236
-4.341
-3.474
-2.646
-1.865
-1.142
-0.478
0.122
0.656
1.124
1.521
1.85
2.117
2.32
2.457
2.52
2.49
2.357
2.127
1.808
1.421
0.997
0.56
0.146
-0.198
-0.447
-0.578
-0.585
-0.481
-0.273
0.049
0.494
1.103
1.91
2.905
4.076
5.376
6.695
7.937
8.979
9.652
9.845
9.473
8.47
6.844
4.623
1.841
-1.455
-5.255
-9.583
-14.411
-19.672
-25.195
-30.674
-35.8
-40.217
-43.534
-45.348
-45.175
-42.759
-38.17
-31.746
-24.162
-16.048
-7.666
0.556
7.935
14.463
20.572
27.277
36.598
49.906
67.491
89.892
117.538
149.409
183.428
215.795
240.936
254.496
253.399
234.342
194.384
132.24
48.82
-51.731
-162.945
-279.024
-394.609
-503.897
-600.36
-677.59
-731.567
-761.468
-768.352
-753.775
-719.605
-668.033
-603.348
-531.758
-458.171
-386.12
-318.666
-257.707
-204.983
-162.744
-131.17
-108.236
-92.303
-81.437
-73.216
-66.583
-60.479
-53.002
-43.531
-32.523
-20.31
-8.081
2.504
10.959
16.989
20.031
20.254
18.001
13.58
7.978
2.369
-2.612
-6.517
-9.064
-10.297
-10.167
-8.605
-5.776
-1.896
2.829
8.199
14.104
20.467
27.154
33.982
40.718
47.145
53.126
58.577
63.46
67.756
71.44
74.517
77.035
79.059
80.663
81.914
82.851
83.532
84.029
84.429
84.837
85.338
85.983
86.809
87.841
89.093
90.578
92.294
94.221
96.339
98.634
101.095
103.718
106.492
109.399
112.415
115.518
118.685
121.9
125.144
128.396
131.64
134.856
138.031
141.152
144.204
147.166
150.019
152.742
155.315
157.718
159.932
161.937
163.715
165.252
166.532
167.545
168.28
168.728
168.88
168.73
168.275
167.511
166.438
165.055
163.366
161.374
159.086
156.508
153.65
150.521
147.133
143.5
139.634
135.552
131.27
126.803
122.171
117.391
112.484
107.468
102.364
97.191
91.97
86.722
81.464
76.218
71.0
65.829
60.722
55.694
50.761
45.938
41.237
36.671
32.25
27.987
23.889
19.964
16.22
12.662
9.294
6.12
3.142
0.361
-2.223
-4.61
-6.803
-8.804
-10.617
-12.246
-13.698
-14.977
-16.091
-17.048
-17.854
-18.519
-19.05
-19.457
-19.748
-19.933
-20.02
-20.019
-19.938
-19.787
-19.573
-19.306
-18.993
-18.642
-18.262
-17.858
-17.438
-17.008
-16.574
-16.141
-15.713
-15.296
-14.893
-14.507
-14.142
-13.8
-13.484
-13.195
-12.934
-12.702
-12.499
-12.327
-12.183
-12.069
-11.983
-11.924
-11.893
-11.887
-11.907
-11.95
-12.017
-12.106
-12.216
-12.346
-12.495
-12.662
-12.846
-13.048
-13.265
-13.499
-13.749
-14.015
-14.298
-14.596
-14.909
-15.239
-15.583
-15.941
-16.315
-16.703
-17.105
-17.522
-17.953
-18.399
-18.859
-19.334
-19.822
-20.322
-20.833
-21.354
-21.883
-22.418
-22.955
-23.493
-24.029
-24.561
-25.085
-25.6
-26.1
-26.582
-27.041
-27.473
-27.873
-28.236
-28.557
-28.832
-29.058
-29.232
-29.353
-29.417
-29.422
-29.367
-29.249
-29.069
-28.823
-28.511
-28.133
-27.689
-27.181
-26.612
-25.984
-25.302
-24.571
-23.796
-22.985
-22.145
-21.282
-20.399
-19.504
-18.601
-17.698
-16.8
-15.912
-15.041
-14.195
-13.382
-12.615
-11.901
-11.244
-10.648
-10.116
-9.65
-9.252
-8.922
-8.654
-8.45
-8.312
-8.25
-8.283
-8.421
-8.658
-8.983
-9.379
-9.812
-10.258
-10.681
-11.033
-11.286
-11.42
-11.428
-11.326
-11.117
-10.791
-10.339
-9.719
-8.899
-7.889
-6.703
-5.388
-4.054
-2.8
-1.75
-1.073
-0.879
-1.25
-2.244
-3.851
-6.041
-8.781
-12.018
-15.742
-19.968
-24.666
-29.765
-35.096
-40.349
-45.213
-49.328
-52.3
-53.734
-53.162
-50.34
-45.343
-38.509
-30.502
-21.945
-13.113
-4.434
3.419
10.423
16.998
24.12
33.729
47.147
64.632
86.68
113.733
144.809
177.895
209.315
233.617
246.527
245.061
226.002
186.484
125.306
43.279
-55.65
-164.979
-278.92
-392.09
-498.595
-592.301
-667.272
-719.454
-747.966
-754.224
-739.938
-707.419
-659.427
-599.49
-532.94
-464.571
-397.647
-334.719
-277.489
-226.865
-184.142
-150.339
-124.327
-104.679
-89.956
-78.03
-67.866
-59.17
-50.856
-41.724
-31.676
-20.841
-9.957
-0.674
6.39
11.32
13.909
14.091
12.022
7.887
2.43
-3.102
-7.964
-11.794
-14.35
-15.643
-15.613
-14.149
-11.346
-7.451
-2.693
2.727
8.68
15.1
21.867
28.793
35.647
42.211
48.344
53.963
59.029
63.525
67.427
70.736
73.499
75.78
77.652
79.184
80.419
81.409
82.223
82.949
83.687
84.525
85.515
86.695
88.087
89.704
91.559
93.65
95.956
98.457
101.136
103.981
106.987
110.145
113.432
116.826
120.303
123.839
127.416
131.014
134.612
138.191
141.733
145.223
148.646
151.988
155.229
158.347
161.321
164.131
166.757
169.179
171.376
173.332
175.029
176.455
177.598
178.445
178.989
179.221
179.134
178.726
177.993
176.934
175.55
173.843
171.818
169.482
166.842
163.907
160.688
157.196
153.445
149.451
145.228
140.792
136.162
131.356
126.393
121.294
116.078
110.766
105.379
99.938
94.465
88.98
83.503
78.053
72.65
67.312
62.055
56.897
51.852
46.936
42.162
37.541
33.086
28.807
24.712
20.808
17.104
13.602
10.309
7.225
4.354
1.695
-0.751
-2.988
-5.016
-6.841
-8.466
-9.897
-11.141
-12.204
-13.094
-13.819
-14.389
-14.812
-15.098
-15.257
-15.299
-15.234
-15.073
-14.825
-14.5
-14.108
-13.66
-13.164
-12.63
-12.066
-11.48
-10.881
-10.277
-9.672
-9.076
-8.492
-7.927
-7.384
-6.87
-6.385
-5.935
-5.521
-5.146
-4.811
-4.518
-4.267
-4.06
-3.896
-3.776
-3.699
-3.664
-3.67
-3.716
-3.801
-3.925
-4.084
-4.28
-4.509
-4.771
-5.064
-5.388
-5.74
-6.118
-6.52
-6.945
-7.392
-7.857
-8.34
-8.839
-9.353
-9.881
-10.421
-10.972
-11.532
-12.1
-12.672
-13.246
-13.821
-14.394
-14.961
-15.52
-16.069
-16.605
-17.125
-17.627
-18.107
-18.561
-18.984
-19.373
-19.722
-20.027
-20.283
-20.485
-20.632
-20.72
-20.748
-20.713
-20.613
-20.446
-20.212
-19.909
-19.535
-19.091
-18.575
-17.988
-17.333
-16.613
-15.832
-14.994
-14.105
-13.17
-12.197
-11.195
-10.168
-9.122
-8.062
-6.993
-5.922
-4.858
-3.806
-2.772
-1.766
-0.799
0.117
0.968
1.751
2.461
3.095
3.649
4.121
4.51
4.821
5.055
5.204
5.263
5.209
5.03
4.735
4.334
3.843
3.299
2.725
2.153
1.634
1.202
0.867
0.637
0.489
0.405
0.409
0.516
0.76
1.179
1.766
2.512
3.395
4.33
5.214
5.928
6.293
6.18
5.534
4.298
2.495
0.166
-2.694
-6.045
-9.843
-14.087
-18.742
-23.782
-29.135
-34.582
-39.803
-44.427
-48.004
-50.167
-50.565
-48.798
-44.786
-38.716
-30.971
-22.296
-13.285
-4.243
4.332
12.023
19.017
25.927
33.983
44.851
59.416
77.939
100.79
127.747
157.397
187.014
212.35
228.928
233.277
222.588
194.121
145.778
77.464
-8.112
-105.881
-210.319
-316.045
-417.705
-509.355
-584.394
-638.331
-669.918
-680.059
-670.605
-644.079
-603.346
-552.658
-498.145
-444.485
-394.158
-348.535
-307.922
-272.24
-241.554
-214.834
-189.665
-164.548
-138.996
-113.006
-87.437
-63.053
-40.216
-19.68
-2.457
10.942
20.342
25.908
28.294
28.073
25.742
21.938
17.194
11.984
6.787
1.931
-2.315
-5.693
-8.053
-9.288
-9.302
-8.079
-5.635
-2.022
2.607
8.087
14.249
20.884
27.827
34.9
41.882
48.605
54.931
60.748
66.012
70.701
74.782
78.262
81.174
83.56
85.495
87.057
88.299
89.298
90.131
90.881
91.648
92.51
93.517
94.709
96.111
97.735
99.598
101.7
104.024
106.555
109.28
112.185
115.263
118.501
121.878
125.37
128.95
132.594
136.284
139.999
143.717
147.417
151.081
154.69
158.23
161.683
165.028
168.243
171.304
174.19
176.878
179.347
181.577
183.546
185.238
186.639
187.734
188.513
188.964
189.079
188.852
188.277
187.353
186.079
184.455
182.484
180.172
177.526
174.555
171.27
167.682
163.805
159.655
155.246
150.598
145.728
140.656
135.402
129.987
124.433
118.763
112.999
107.165
101.284
95.379
89.472
83.585
77.74
71.957
66.256
60.655
55.172
49.823
44.623
39.588
34.729
30.058
25.585
21.32
17.269
13.438
9.832
6.455
3.308
0.393
-2.292
-4.746
-6.974
-8.978
-10.763
-12.336
-13.701
-14.868
-15.845
-16.64
-17.262
-17.723
-18.031
-18.199
-18.237
-18.156
-17.967
-17.681
-17.31
-16.864
-16.354
-15.79
-15.182
-14.539
-13.871
-13.186
-12.491
-11.794
-11.102
-10.422
-9.758
-9.117
-8.502
-7.919
-7.37
-6.858
-6.386
-5.957
-5.57
-5.228
-4.93
-4.677
-4.469
-4.305
-4.185
-4.108
-4.072
-4.076
-4.12
-4.201
-4.318
-4.469
-4.652
-4.867
-5.111
-5.383
-5.683
-6.009
-6.361
-6.738
-7.138
-7.561
-8.005
-8.469
-8.953
-9.455
-9.974
-10.51
-11.061
-11.626
-12.205
-12.798
-13.402
-14.016
-14.639
-15.268
-15.902
-16.538
-17.173
-17.804
-18.428
-19.042
-19.643
-20.228
-20.794
-21.335
-21.848
-22.328
-22.77
-23.167
-23.516
-23.812
-24.049
-24.225
-24.337
-24.382
-24.358
-24.262
-24.094
-23.851
-23.533
-23.138
-22.666
-22.116
-21.49
-20.791
-20.022
-19.187
-18.29
-17.337
-16.335
-15.292
-14.216
-13.113
-11.99
-10.853
-9.709
-8.566
-7.431
-6.31
-5.211
-4.142
-3.114
-2.139
-1.225
-0.378
0.398
1.099
1.723
2.267
2.73
3.118
3.428
3.658
3.799
3.831
3.745
3.546
3.244
2.857
2.417
1.95
1.49
1.086
0.764
0.546
0.441
0.434
0.523
0.717
1.027
1.494
2.152
2.993
4.005
5.141
6.295
7.369
8.24
8.742
8.767
8.231
7.076
5.311
2.965
0.076
-3.304
-7.166
-11.528
-16.366
-21.612
-27.095
-32.51
-37.54
-41.829
-44.99
-46.626
-46.266
-43.676
-38.943
-32.422
-24.808
-16.731
-8.449
-0.373
6.852
13.247
19.278
25.971
35.314
48.64
66.178
88.37
115.58
146.72
179.676
210.705
234.326
246.268
243.601
223.205
182.347
120.032
37.284
-61.824
-170.731
-283.614
-395.121
-499.426
-590.505
-662.691
-712.226
-738.432
-742.886
-727.419
-694.392
-646.611
-587.611
-522.546
-455.996
-391.051
-330.08
-274.66
-225.634
-184.207
-151.321
-125.906
-106.601
-92.038
-80.211
-70.139
-61.538
-53.365
-44.444
-34.657
-24.121
-13.54
-4.489
2.439
7.333
9.996
10.35
8.54
4.742
-0.327
-5.46
-9.94
-13.424
-15.686
-16.74
-16.536
-14.971
-12.144
-8.299
-3.664
1.566
7.266
13.374
19.777
26.295
32.708
38.806
44.456
49.581
54.145
58.135
61.53
64.334
66.596
68.381
69.763
70.809
71.565
72.08
72.424
72.68
72.947
73.311
73.821
74.516
75.417
76.539
77.894
79.482
81.282
83.275
85.446
87.784
90.284
92.935
95.719
98.612
101.591
104.634
107.723
110.839
113.963
117.075
120.157
123.194
126.174
129.081
131.895
134.597
137.167
139.583
141.829
143.884
145.729
147.348
148.726
149.85
150.71
151.295
151.596
151.608
151.325
150.744
149.864
148.685
147.209
145.438
143.378
141.036
138.422
135.543
132.411
129.037
125.436
121.622
117.609
113.415
109.054
104.546
99.908
95.159
90.318
85.404
80.435
75.431
70.412
65.395
60.398
55.438
50.532
45.695
40.943
36.288
31.743
27.321
23.033
18.887
14.893
11.058
7.39
3.893
0.572
-2.57
-5.53
-8.307
-10.9
-13.309
-15.537
-17.584
-19.455
-21.152
-22.68
-24.045
-25.251
-26.305
-27.214
-27.984
-28.623
-29.139
-29.539
-29.832
-30.025
-30.127
-30.145
-30.088
-29.963
-29.778
-29.54
-29.257
-28.935
-28.581
-28.2
-27.8
-27.385
-26.96
-26.531
-26.102
-25.676
-25.259
-24.853
-24.46
-24.085
-23.729
-23.393
-23.081
-22.792
-22.528
-22.291
-22.081
-21.899
-21.745
-21.619
-21.523
-21.456
-21.418
-21.41
-21.431
-21.481
-21.561
-21.671
-21.81
-21.979
-22.179
-22.409
-22.67
-22.962
-23.283
-23.635
-24.016
-24.426
-24.864
-25.33
-25.824
-26.344
-26.891
-27.462
-28.058
-28.677
-29.318
-29.977
-30.655
-31.347
-32.052
-32.766
-33.486
-34.21
-34.932
-35.651
-36.363
-37.063
-37.748
-38.411
-39.048
-39.654
-40.224
-40.752
-41.234
-41.666
-42.044
-42.365
-42.628
-42.83
-42.968
-43.042
-43.049
-42.99
-42.865
-42.671
-42.411
-42.086
-41.698
-41.253
-40.753
-40.203
-39.608
-38.976
-38.315
-37.632
-36.933
-36.222
-35.506
-34.792
-34.088
-33.402
-32.737
-32.1
-31.501
-30.948
-30.451
-30.019
-29.652
-29.354
-29.123
-28.963
-28.875
-28.859
-28.907
-29.019
-29.194
-29.439
-29.775
-30.204
-30.713
-31.286
-31.89
-32.502
-33.103
-33.66
-34.13
-34.486
-34.702
-34.775
-34.724
-34.541
-34.218
-33.729
-33.017
-32.064
-30.888
-29.52
-28.034
-26.515
-25.027
-23.688
-22.642
-21.983
-21.794
-22.106
-22.879
-24.103
-25.744
-27.774
-30.222
-33.078
-36.292
-39.767
-43.279
-46.552
-49.324
-51.247
-51.966
-51.121
-48.252
-43.19
-36.11
-27.372
-17.697
-7.716
2.359
12.079
20.752
28.372
35.376
42.849
52.87
66.784
84.826
107.452
134.983
166.324
199.307
230.038
253.003
263.907
259.778
237.566
194.579
129.9
44.901
-56.051
-166.423
-280.266
-392.3
-496.886
-587.488
-658.097
-705.189
-728.145
-728.556
-708.589
-670.135
-615.486
-549.475
-478.274
-406.928
-339.296
-277.492
-222.465
-175.893
-139.719
-113.457
-94.933
-81.742
-71.082
-61.551
-53.018
-44.55
-34.688
-23.058
-10.058
3.229
14.865
23.941
30.594
34.771
36.38
35.506
32.294
27.419
22.159
17.387
13.508
10.78
9.206
8.833
9.813
12.121
15.557
19.912
24.977
30.59
36.688
43.182
49.931
56.758
63.431
69.76
75.632
80.983
85.792
90.035
93.683
96.74
99.25
101.284
102.921
104.224
105.231
105.997
106.589
107.092
107.611
108.22
108.962
109.87
110.959
112.246
113.748
115.463
117.37
119.451
121.692
124.082
126.62
129.293
132.081
134.962
137.912
140.912
143.945
146.994
150.038
153.061
156.045
158.976
161.842
164.627
167.313
169.88
172.307
174.576
176.669
178.567
180.251
181.704
182.913
183.864
184.547
184.952
185.07
184.895
184.421
183.646
182.567
181.185
179.501
177.517
175.24
172.676
169.833
166.721
163.351
159.733
155.883
151.813
147.54
143.079
138.448
133.664
128.746
123.714
118.586
113.383
108.125
102.831
97.521
92.216
86.933
81.692
76.509
71.401
66.384
61.473
56.683
52.025
47.513
43.156
38.966
34.95
31.116
27.471
24.019
20.765
17.712
14.863
12.217
9.774
7.535
5.495
3.654
2.006
0.546
-0.73
-1.83
-2.76
-3.528
-4.142
-4.611
-4.944
-5.149
-5.238
-5.218
-5.099
-4.892
-4.606
-4.249
-3.831
-3.361
-2.848
-2.299
-1.722
-1.125
-0.515
0.102
0.72
1.333
1.936
2.524
3.093
3.639
4.159
4.65
5.11
5.537
5.929
6.286
6.606
6.89
7.138
7.349
7.525
7.665
7.771
7.844
7.884
7.893
7.871
7.821
7.743
7.638
7.507
7.351
7.169
6.963
6.733
6.478
6.199
5.897
5.571
5.223
4.852
4.461
4.048
3.614
3.16
2.686
2.193
1.68
1.149
0.601
0.036
-0.544
-1.138
-1.743
-2.358
-2.98
-3.607
-4.237
-4.865
-5.491
-6.112
-6.722
-7.319
-7.897
-8.45
-8.975
-9.465
-9.916
-10.321
-10.677
-10.981
-11.228
-11.418
-11.546
-11.611
-11.61
-11.542
-11.405
-11.199
-10.922
-10.574
-10.157
-9.673
-9.127
-8.52
-7.858
-7.145
-6.387
-5.591
-4.765
-3.914
-3.042
-2.153
-1.256
-0.359
0.53
1.407
2.263
3.09
3.877
4.61
5.282
5.892
6.437
6.915
7.323
7.658
7.921
8.118
8.246
8.305
8.282
8.154
7.916
7.581
7.16
6.684
6.175
5.646
5.132
4.677
4.301
4.025
3.844
3.729
3.695
3.759
3.947
4.319
4.901
5.674
6.623
7.689
8.778
9.817
10.676
11.191
11.276
10.854
9.9
8.461
6.528
4.108
1.23
-2.134
-5.998
-10.326
-15.061
-20.025
-24.916
-29.438
-33.22
-35.866
-37.017
-36.206
-33.238
-28.266
-21.618
-13.988
-6.022
2.057
9.829
16.621
22.496
27.971
34.135
43.107
56.288
73.941
96.589
124.591
156.814
191.021
223.189
247.625
259.891
256.902
235.449
192.677
127.512
41.233
-61.71
-174.621
-291.421
-406.715
-514.759
-608.83
-682.664
-732.517
-757.664
-759.705
-740.835
-702.975
-648.438
-582.102
-510.264
-438.116
-369.647
-307.017
-251.192
-203.826
-166.834
-139.773
-120.464
-106.481
-95.009
-84.611
-75.154
-65.743
-54.951
-42.429
-28.618
-14.615
-2.372
7.153
14.079
18.325
19.773
18.556
14.871
9.424
3.536
-1.898
-6.463
-9.866
-12.073
-13.039
-12.607
-10.807
-7.851
-3.931
0.756
6.058
11.927
18.253
24.872
31.601
38.191
44.441
50.234
55.487
60.166
64.252
67.72
70.578
72.878
74.688
76.084
77.13
77.868
78.354
78.662
78.88
79.116
79.451
79.932
80.595
81.463
82.551
83.875
85.433
87.205
89.172
91.319
93.637
96.123
98.766
101.546
104.442
107.43
110.489
113.604
116.756
119.926
123.094
126.244
129.36
132.43
135.438
138.363
141.185
143.884
146.437
148.827
151.033
153.035
154.814
156.355
157.644
158.668
159.416
159.878
160.045
159.911
159.472
158.725
157.668
156.301
154.628
152.651
150.377
147.813
144.969
141.853
138.477
134.855
131.001
126.931
122.659
118.205
113.585
108.819
103.926
98.927
93.841
88.689
83.491
78.268
73.04
67.827
62.647
57.518
52.459
47.485
42.612
37.856
33.228
28.743
24.411
20.244
16.249
12.436
8.811
5.38
2.146
-0.886
-3.714
-6.338
-8.758
-10.974
-12.99
-14.807
-16.429
-17.862
-19.111
-20.183
-21.084
-21.822
-22.405
-22.841
-23.14
-23.31
-23.361
-23.301
-23.142
-22.891
-22.558
-22.153
-21.684
-21.161
-20.592
-19.984
-19.347
-18.686
-18.01
-17.325
-16.636
-15.95
-15.272
-14.606
-13.957
-13.329
-12.724
-12.147
-11.6
-11.085
-10.603
-10.156
-9.746
-9.372
-9.036
-8.738
-8.478
-8.256
-8.072
-7.925
-7.815
-7.742
-7.705
-7.703
-7.735
-7.8
-7.899
-8.029
-8.192
-8.387
-8.613
-8.87
-9.158
-9.475
-9.821
-10.196
-10.598
-11.026
-11.479
-11.956
-12.457
-12.98
-13.524
-14.088
-14.67
-15.269
-15.883
-16.509
-17.145
-17.788
-18.436
-19.085
-19.732
-20.374
-21.007
-21.628
-22.234
-22.821
-23.385
-23.92
-24.422
-24.885
-25.304
-25.675
-25.992
-26.253
-26.453
-26.591
-26.665
-26.672
-26.612
-26.481
-26.281
-26.009
-25.667
-25.253
-24.768
-24.215
-23.598
-22.92
-22.185
-21.4
-20.568
-19.697
-18.795
-17.87
-16.926
-15.969
-15.004
-14.039
-13.082
-12.141
-11.221
-10.328
-9.472
-8.664
-7.916
-7.233
-6.618
-6.073
-5.598
-5.195
-4.868
-4.614
-4.428
-4.31
-4.262
-4.296
-4.434
-4.679
-5.022
-5.445
-5.92
-6.424
-6.941
-7.437
-7.868
-8.211
-8.449
-8.585
-8.65
-8.63
-8.506
-8.253
-7.81
-7.156
-6.309
-5.288
-4.154
-3.005
-1.917
-1.023
-0.489
-0.403
-0.839
-1.823
-3.303
-5.285
-7.765
-10.712
-14.155
-18.104
-22.52
-27.338
-32.379
-37.336
-41.913
-45.734
-48.397
-49.542
-48.713
-45.723
-40.729
-34.058
-26.378
-18.316
-10.093
-2.127
4.906
11.042
16.766
23.112
32.104
45.069
62.217
84.043
110.922
141.784
174.502
205.205
228.349
239.633
236.05
214.432
171.979
107.589
22.423
-79.212
-190.818
-306.535
-420.977
-528.381
-622.265
-696.445
-747.241
-774.045
-778.05
-760.972
-724.773
-671.748
-606.312
-534.581
-461.287
-389.833
-323.133
-262.973
-211.065
-169.585
-138.602
-116.102
-100.453
-89.748
-81.671
-75.205
-69.265
-61.942
-52.607
-41.701
-29.583
-17.44
-6.865
1.686
7.922
11.275
11.882
10.072
6.167
1.148
-3.833
-8.172
-11.447
-13.397
-14.071
-13.429
-11.417
-8.208
-4.023
0.935
6.472
12.485
18.91
25.618
32.434
39.133
45.502
51.412
56.786
61.589
65.806
69.417
72.429
74.893
76.879
78.461
79.705
80.652
81.354
81.885
82.327
82.785
83.342
84.047
84.939
86.042
87.368
88.933
90.735
92.753
94.966
97.362
99.927
102.658
105.544
108.565
111.698
114.919
118.207
121.544
124.911
128.287
131.653
134.99
138.283
141.517
144.677
147.742
150.69
153.501
156.154
158.628
160.903
162.96
164.779
166.345
167.643
168.663
169.392
169.82
169.94
169.747
169.235
168.402
167.249
165.775
163.983
161.879
159.469
156.761
153.765
150.492
146.954
143.165
139.14
134.895
130.448
125.817
121.019
116.076
111.006
105.832
100.574
95.252
89.889
84.505
79.121
73.758
68.433
63.167
57.976
52.878
47.889
43.024
38.296
33.718
29.303
25.061
21.0
17.131
13.459
9.989
6.727
3.675
0.837
-1.789
-4.2
-6.4
-8.389
-10.172
-11.752
-13.134
-14.326
-15.332
-16.161
-16.821
-17.321
-17.669
-17.875
-17.949
-17.901
-17.74
-17.477
-17.122
-16.684
-16.175
-15.603
-14.978
-14.31
-13.606
-12.877
-12.129
-11.37
-10.608
-9.849
-9.099
-8.365
-7.65
-6.961
-6.302
-5.675
-5.085
-4.534
-4.024
-3.558
-3.135
-2.758
-2.426
-2.14
-1.9
-1.705
-1.555
-1.449
-1.387
-1.367
-1.388
-1.449
-1.548
-1.683
-1.854
-2.059
-2.296
-2.566
-2.866
-3.195
-3.553
-3.938
-4.348
-4.782
-5.239
-5.717
-6.214
-6.73
-7.262
-7.809
-8.37
-8.944
-9.529
-10.125
-10.728
-11.338
-11.951
-12.565
-13.179
-13.79
-14.394
-14.989
-15.573
-16.142
-16.694
-17.226
-17.734
-18.214
-18.66
-19.07
-19.438
-19.759
-20.03
-20.247
-20.408
-20.51
-20.552
-20.533
-20.45
-20.302
-20.09
-19.812
-19.469
-19.06
-18.586
-18.048
-17.451
-16.798
-16.093
-15.341
-14.546
-13.714
-12.855
-11.975
-11.078
-10.168
-9.251
-8.333
-7.423
-6.527
-5.649
-4.796
-3.977
-3.203
-2.484
-1.827
-1.234
-0.707
-0.245
0.148
0.471
0.724
0.916
1.046
1.111
1.101
0.993
0.783
0.483
0.107
-0.316
-0.764
-1.221
-1.654
-2.018
-2.291
-2.456
-2.518
-2.506
-2.408
-2.207
-1.878
-1.362
-0.637
0.281
1.373
2.58
3.81
4.985
5.977
6.62
6.828
6.527
5.69
4.369
2.557
0.261
-2.489
-5.722
-9.45
-13.638
-18.226
-23.039
-27.779
-32.153
-35.79
-38.293
-39.302
-38.365
-35.302
-30.275
-23.619
-16.013
-8.09
-0.075
7.612
14.301
20.041
25.349
31.301
39.957
52.689
69.738
91.604
118.703
149.962
183.211
214.55
238.34
250.158
246.948
225.497
182.973
118.419
33.043
-68.841
-180.37
-295.334
-408.152
-512.795
-602.865
-672.65
-718.485
-739.741
-738.548
-717.418
-678.904
-626.109
-563.305
-495.899
-428.869
-365.794
-308.208
-256.792
-212.289
-175.546
-146.821
-124.816
-107.373
-92.252
-78.413
-65.784
-54.255
-43.264
-31.897
-20.001
-8.423
1.419
8.665
13.337
15.786
16.309
14.769
11.145
5.984
0.309
-4.927
-9.194
-12.314
-14.312
-15.107
-14.541
-12.592
-9.396
-5.196
-0.234
5.321
11.378
17.857
24.626
31.499
38.242
44.656
50.619
56.065
60.97
65.312
69.059
72.215
74.824
76.961
78.708
80.132
81.278
82.197
82.955
83.639
84.352
85.171
86.142
87.298
88.653
90.226
92.033
94.071
96.32
98.76
101.373
104.15
107.086
110.168
113.377
116.687
120.075
123.519
127.002
130.505
134.007
137.489
140.932
144.321
147.642
150.879
154.011
157.018
159.877
162.568
165.072
167.367
169.434
171.255
172.814
174.096
175.09
175.785
176.17
176.238
175.983
175.401
174.489
173.247
171.674
169.773
167.551
165.012
162.166
159.022
155.589
151.882
147.914
143.699
139.255
134.598
129.746
124.718
119.534
114.216
108.784
103.259
97.663
92.018
86.345
80.666
75.001
69.371
63.794
58.288
52.873
47.564
42.377
37.326
32.426
27.688
23.124
18.744
14.557
10.571
6.791
3.223
-0.128
-3.262
-6.175
-8.867
-11.34
-13.594
-15.633
-17.461
-19.082
-20.502
-21.727
-22.765
-23.624
-24.312
-24.837
-25.21
-25.44
-25.537
-25.51
-25.371
-25.129
-24.794
-24.377
-23.887
-23.335
-22.729
-22.079
-21.393
-20.681
-19.949
-19.207
-18.46
-17.715
-16.979
-16.257
-15.554
-14.875
-14.225
-13.607
-13.024
-12.481
-11.978
-11.518
-11.104
-10.736
-10.415
-10.142
-9.918
-9.742
-9.616
-9.54
-9.512
-9.532
-9.6
-9.714
-9.873
-10.076
-10.319
-10.603
-10.924
-11.281
-11.671
-12.093
-12.544
-13.023
-13.526
-14.051
-14.595
-15.156
-15.729
-16.313
-16.903
-17.496
-18.089
-18.677
-19.257
-19.826
-20.38
-20.914
-21.424
-21.904
-22.349
-22.755
-23.116
-23.428
-23.687
-23.889
-24.032
-24.113
-24.131
-24.083
-23.969
-23.786
-23.535
-23.215
-22.827
-22.371
-21.848
-21.26
-20.611
-19.906
-19.147
-18.34
-17.49
-16.605
-15.691
-14.757
-13.805
-12.842
-11.875
-10.912
-9.962
-9.032
-8.127
-7.255
-6.425
-5.649
-4.935
-4.286
-3.706
-3.193
-2.751
-2.383
-2.091
-1.873
-1.725
-1.644
-1.635
-1.715
-1.896
-2.18
-2.554
-2.994
-3.483
-4.011
-4.555
-5.085
-5.566
-5.968
-6.281
-6.514
-6.669
-6.738
-6.7
-6.508
-6.118
-5.518
-4.725
-3.786
-2.758
-1.697
-0.686
0.158
0.711
0.869
0.578
-0.155
-1.325
-2.915
-4.905
-7.314
-10.177
-13.496
-17.214
-21.174
-25.155
-28.92
-32.186
-34.653
-35.913
-35.471
-33.098
-28.862
-23.064
-16.344
-9.278
-2.088
4.833
10.881
16.075
20.857
26.293
34.39
46.565
63.206
84.759
111.525
142.469
175.537
207.095
231.863
245.608
245.334
227.895
190.521
132.211
54.02
-40.16
-144.111
-252.216
-359.271
-459.262
-545.695
-612.911
-657.534
-679.262
-680.112
-662.338
-628.554
-582.451
-529.07
-474.023
-421.406
-373.275
-330.243
-292.372
-259.547
-231.314
-206.246
-182.189
-157.839
-132.861
-107.568
-82.8
-59.252
-37.399
-17.984
-1.875
10.506
19.091
24.127
26.21
25.879
23.618
20.006
15.541
10.665
5.801
1.271
-2.647
-5.704
-7.755
-8.709
-8.491
-7.095
-4.543
-0.894
3.701
9.076
15.069
21.493
28.194
35.008
41.726
48.184
54.243
59.798
64.809
69.254
73.107
76.376
79.097
81.315
83.111
84.56
85.717
86.656
87.447
88.171
88.925
89.781
90.788
91.984
93.391
95.021
96.89
98.997
101.323
103.853
106.572
109.464
112.522
115.732
119.071
122.515
126.039
129.618
133.234
136.865
140.491
144.09
147.642
151.131
154.541
157.854
161.049
164.103
166.994
169.701
172.202
174.478
176.508
178.273
179.757
180.948
181.832
182.401
182.645
182.556
182.13
181.364
180.257
178.809
177.023
174.903
172.455
169.688
166.612
163.238
159.579
155.649
151.462
147.036
142.388
137.537
132.501
127.302
121.959
116.496
110.932
105.291
99.593
93.862
88.119
82.385
76.68
71.025
65.437
59.935
54.537
49.256
44.109
39.109
34.268
29.597
25.107
20.806
16.701
12.8
9.107
5.625
2.358
-0.692
-3.526
-6.144
-8.547
-10.739
-12.722
-14.501
-16.082
-17.47
-18.672
-19.696
-20.549
-21.24
-21.778
-22.172
-22.431
-22.566
-22.584
-22.497
-22.314
-22.044
-21.697
-21.282
-20.807
-20.282
-19.714
-19.112
-18.483
-17.834
-17.173
-16.506
-15.838
-15.176
-14.524
-13.887
-13.27
-12.676
-12.109
-11.571
-11.065
-10.593
-10.158
-9.761
-9.404
-9.087
-8.811
-8.578
-8.386
-8.237
-8.129
-8.063
-8.039
-8.056
-8.115
-8.213
-8.353
-8.531
-8.749
-9.004
-9.295
-9.622
-9.981
-10.373
-10.795
-11.246
-11.723
-12.226
-12.753
-13.303
-13.872
-14.459
-15.061
-15.675
-16.298
-16.928
-17.561
-18.192
-18.819
-19.438
-20.045
-20.638
-21.212
-21.763
-22.287
-22.777
-23.231
-23.642
-24.005
-24.317
-24.572
-24.768
-24.903
-24.975
-24.981
-24.921
-24.792
-24.594
-24.327
-23.991
-23.584
-23.107
-22.563
-21.954
-21.284
-20.557
-19.779
-18.954
-18.09
-17.196
-16.278
-15.344
-14.4
-13.45
-12.502
-11.564
-10.642
-9.741
-8.867
-8.03
-7.239
-6.505
-5.835
-5.235
-4.708
-4.256
-3.88
-3.584
-3.366
-3.22
-3.147
-3.149
-3.235
-3.421
-3.719
-4.121
-4.616
-5.185
-5.793
-6.415
-7.015
-7.543
-7.971
-8.277
-8.453
-8.512
-8.457
-8.279
-7.966
-7.479
-6.781
-5.881
-4.794
-3.564
-2.303
-1.109
-0.108
0.534
0.707
0.328
-0.663
-2.256
-4.421
-7.117
-10.294
-13.937
-18.067
-22.659
-27.646
-32.854
-37.972
-42.682
-46.624
-49.41
-50.645
-49.855
-46.805
-41.584
-34.555
-26.432
-17.867
-9.135
-0.657
6.916
13.607
19.893
26.826
36.434
50.094
68.085
90.882
118.852
150.892
184.806
216.745
241.157
253.675
251.292
230.847
189.526
126.331
42.405
-58.034
-168.263
-282.232
-394.54
-499.343
-590.335
-661.747
-709.781
-733.679
-735.441
-717.414
-681.976
-632.004
-571.55
-505.959
-440.251
-378.066
-321.0
-269.793
-225.207
-188.158
-159.055
-136.666
-118.852
-103.364
-89.083
-75.907
-63.737
-52.011
-39.825
-27.053
-14.536
-3.72
4.455
9.971
13.124
14.161
12.999
9.649
4.665
-0.902
-6.101
-10.407
-13.606
-15.701
-16.615
-16.185
-14.392
-11.38
-7.363
-2.562
2.867
8.853
15.294
22.04
28.905
35.646
42.064
48.039
53.49
58.381
62.695
66.407
69.522
72.088
74.171
75.846
77.178
78.211
78.999
79.61
80.131
80.664
81.291
82.057
82.998
84.135
85.48
87.048
88.837
90.826
92.996
95.331
97.821
100.46
103.239
106.137
109.133
112.201
115.321
118.477
121.65
124.82
127.969
131.08
134.138
137.131
140.045
142.859
145.554
148.111
150.511
152.735
154.765
156.582
158.17
159.515
160.604
161.428
161.976
162.241
162.217
161.898
161.283
160.369
159.158
157.651
155.852
153.766
151.4
148.762
145.863
142.712
139.322
135.706
131.879
127.856
123.653
119.286
114.773
110.133
105.384
100.545
95.635
90.673
85.677
80.668
75.663
70.68
65.737
60.848
56.03
51.298
46.664
42.142
37.743
33.478
29.357
25.388
21.579
17.936
14.465
11.17
8.055
5.121
2.371
-0.196
-2.579
-4.781
-6.804
-8.65
-10.323
-11.829
-13.172
-14.359
-15.395
-16.287
-17.042
-17.668
-18.172
-18.563
-18.847
-19.034
-19.13
-19.144
-19.084
-18.957
-18.77
-18.531
-18.246
-17.922
-17.565
-17.182
-16.778
-16.358
-15.927
-15.49
-15.052
-14.616
-14.185
-13.763
-13.353
-12.956
-12.575
-12.212
-11.868
-11.545
-11.243
-10.963
-10.707
-10.476
-10.269
-10.088
-9.933
-9.804
-9.701
-9.624
-9.575
-9.553
-9.559
-9.594
-9.659
-9.753
-9.877
-10.033
-10.218
-10.434
-10.679
-10.955
-11.259
-11.593
-11.954
-12.344
-12.762
-13.206
-13.677
-14.173
-14.693
-15.234
-15.794
-16.37
-16.961
-17.562
-18.17
-18.782
-19.395
-20.005
-20.608
-21.201
-21.777
-22.332
-22.861
-23.357
-23.815
-24.228
-24.591
-24.901
-25.152
-25.343
-25.47
-25.531
-25.522
-25.442
-25.29
-25.064
-24.762
-24.384
-23.929
-23.4
-22.8
-22.132
-21.4
-20.61
-19.768
-18.883
-17.961
-17.01
-16.035
-15.042
-14.037
-13.028
-12.019
-11.019
-10.032
-9.069
-8.139
-7.256
-6.43
-5.668
-4.975
-4.356
-3.814
-3.353
-2.971
-2.664
-2.431
-2.277
-2.212
-2.251
-2.404
-2.668
-3.035
-3.492
-4.011
-4.557
-5.091
-5.559
-5.927
-6.178
-6.304
-6.316
-6.215
-5.995
-5.642
-5.137
-4.456
-3.59
-2.545
-1.335
-0.035
1.229
2.318
3.065
3.338
3.064
2.179
0.661
-1.488
-4.246
-7.556
-11.357
-15.623
-20.347
-25.51
-31.04
-36.711
-42.165
-47.023
-50.856
-53.316
-54.052
-52.599
-48.768
-42.677
-34.722
-25.691
-16.281
-6.754
2.476
10.764
18.174
25.188
32.879
43.304
57.801
76.622
100.208
128.833
161.271
195.172
226.536
249.759
260.482
255.721
232.387
187.79
121.113
33.9
-69.271
-181.655
-297.15
-410.405
-515.73
-606.581
-677.02
-723.638
-745.967
-745.752
-725.277
-686.503
-631.748
-565.838
-494.86
-423.76
-356.335
-294.642
-239.587
-192.827
-156.289
-129.503
-110.376
-96.583
-85.361
-75.344
-66.418
-57.661
-47.644
-35.992
-23.071
-9.934
1.495
10.319
16.675
20.515
21.766
20.518
16.913
11.632
5.957
0.772
-3.503
-6.604
-8.525
-9.217
-8.526
-6.473
-3.258
0.909
5.816
11.301
17.297
23.717
30.416
37.215
43.875
50.201
56.076
61.433
66.249
70.501
74.158
77.222
79.74
81.784
83.434
84.753
85.781
86.57
87.19
87.726
88.284
88.939
89.735
90.703
91.86
93.222
94.806
96.608
98.608
100.785
103.124
105.614
108.252
111.026
113.915
116.894
119.941
123.034
126.157
129.293
132.421
135.523
138.582
141.584
144.517
147.364
150.108
152.729
155.207
157.522
159.659
161.597
163.318
164.807
166.049
167.032
167.747
168.183
168.333
168.19
167.749
167.01
165.969
164.628
162.988
161.053
158.829
156.323
153.544
150.502
147.207
143.672
139.911
135.939
131.77
127.422
122.911
118.255
113.473
108.585
103.609
98.565
93.472
88.35
83.219
78.097
73.003
67.954
62.967
58.057
53.24
48.53
43.94
39.483
35.169
31.009
27.011
23.185
19.536
16.07
12.793
9.706
6.813
4.115
1.612
-0.696
-2.81
-4.735
-6.472
-8.026
-9.403
-10.608
-11.647
-12.527
-13.256
-13.842
-14.293
-14.618
-14.825
-14.923
-14.921
-14.828
-14.653
-14.404
-14.091
-13.722
-13.304
-12.846
-12.355
-11.839
-11.304
-10.757
-10.204
-9.649
-9.099
-8.558
-8.029
-7.518
-7.026
-6.558
-6.115
-5.699
-5.312
-4.955
-4.629
-4.334
-4.071
-3.839
-3.638
-3.468
-3.329
-3.22
-3.14
-3.089
-3.066
-3.07
-3.099
-3.154
-3.234
-3.336
-3.462
-3.61
-3.781
-3.973
-4.188
-4.424
-4.682
-4.961
-5.261
-5.58
-5.92
-6.279
-6.658
-7.055
-7.471
-7.906
-8.359
-8.829
-9.317
-9.821
-10.339
-10.871
-11.413
-11.964
-12.522
-13.082
-13.644
-14.204
-14.759
-15.306
-15.843
-16.364
-16.867
-17.346
-17.797
-18.213
-18.591
-18.925
-19.211
-19.446
-19.625
-19.747
-19.809
-19.808
-19.741
-19.608
-19.407
-19.135
-18.792
-18.377
-17.891
-17.336
-16.715
-16.031
-15.289
-14.493
-13.65
-12.768
-11.854
-10.912
-9.949
-8.97
-7.979
-6.984
-5.991
-5.006
-4.035
-3.087
-2.172
-1.301
-0.484
0.273
0.966
1.592
2.15
2.636
3.049
3.394
3.668
3.869
3.989
4.009
3.919
3.726
3.439
3.079
2.68
2.269
1.877
1.549
1.31
1.176
1.157
1.234
1.398
1.662
2.031
2.539
3.224
4.075
5.079
6.195
7.317
8.347
9.176
9.643
9.641
9.104
7.972
6.256
3.992
1.191
-2.085
-5.803
-9.972
-14.552
-19.503
-24.715
-29.904
-34.759
-38.95
-42.055
-43.762
-43.745
-41.551
-37.078
-30.533
-22.318
-13.244
-3.976
5.288
14.114
21.858
28.565
34.685
41.324
50.548
63.683
80.956
102.754
129.304
159.368
190.553
218.962
239.19
246.791
238.775
212.093
163.999
94.135
4.613
-100.07
-213.311
-328.622
-440.509
-542.867
-628.582
-692.607
-732.579
-748.192
-741.461
-715.243
-671.73
-614.133
-548.3
-479.407
-411.382
-347.732
-289.971
-238.676
-195.47
-161.493
-135.434
-115.835
-101.014
-88.472
-77.336
-67.485
-57.822
-47.291
-35.86
-23.64
-11.477
-1.091
6.923
12.625
15.85
16.624
15.082
11.392
6.281
0.928
-3.892
-7.758
-10.427
-11.88
-12.048
-10.825
-8.274
-4.604
-0.048
5.196
10.985
17.221
23.799
30.545
37.234
43.674
49.71
55.236
60.214
64.622
68.43
71.642
74.292
76.423
78.115
79.443
80.454
81.21
81.779
82.242
82.704
83.252
83.943
84.818
85.902
87.208
88.753
90.538
92.545
94.76
97.168
99.755
102.517
105.442
108.512
111.705
114.994
118.356
121.771
125.223
128.689
132.15
135.588
138.987
142.333
145.609
148.796
151.872
154.814
157.601
160.213
162.629
164.827
166.789
168.499
169.94
171.102
171.972
172.539
172.795
172.734
172.35
171.641
170.604
169.242
167.554
165.546
163.224
160.596
157.672
154.461
150.975
147.229
143.236
139.014
134.578
129.946
125.138
120.172
115.069
109.851
104.538
99.153
93.715
88.247
82.77
77.305
71.872
66.489
61.174
55.946
50.822
45.815
40.942
36.215
31.646
27.248
23.029
18.999
15.164
11.532
8.105
4.89
1.887
-0.902
-3.477
-5.838
-7.988
-9.93
-11.668
-13.207
-14.553
-15.713
-16.694
-17.505
-18.154
-18.651
-19.005
-19.227
-19.326
-19.313
-19.198
-18.992
-18.705
-18.348
-17.93
-17.461
-16.951
-16.408
-15.842
-15.26
-14.669
-14.078
-13.493
-12.919
-12.362
-11.828
-11.32
-10.841
-10.396
-9.986
-9.614
-9.281
-8.987
-8.735
-8.523
-8.352
-8.22
-8.127
-8.072
-8.052
-8.066
-8.112
-8.188
-8.29
-8.417
-8.567
-8.737
-8.926
-9.13
-9.349
-9.58
-9.822
-10.073
-10.332
-10.597
-10.869
-11.145
-11.427
-11.714
-12.006
-12.305
-12.61
-12.922
-13.242
-13.57
-13.906
-14.252
-14.608
-14.974
-15.351
-15.741
-16.143
-16.558
-16.988
-17.432
-17.89
-18.362
-18.846
-19.342
-19.848
-20.363
-20.885
-21.41
-21.938
-22.465
-22.99
-23.509
-24.018
-24.513
-24.991
-25.445
-25.87
-26.262
-26.615
-26.924
-27.186
-27.398
-27.555
-27.656
-27.697
-27.676
-27.591
-27.438
-27.217
-26.926
-26.563
-26.128
-25.625
-25.055
-24.42
-23.725
-22.974
-22.173
-21.33
-20.449
-19.538
-18.599
-17.639
-16.662
-15.675
-14.686
-13.697
-12.715
-11.75
-10.81
-9.906
-9.049
-8.242
-7.49
-6.797
-6.165
-5.598
-5.097
-4.657
-4.281
-3.971
-3.738
-3.601
-3.573
-3.647
-3.815
-4.059
-4.345
-4.652
-4.946
-5.177
-5.321
-5.359
-5.284
-5.113
-4.856
-4.504
-4.047
-3.445
-2.662
-1.704
-0.584
0.659
1.918
3.099
4.081
4.696
4.823
4.386
3.32
1.633
-0.634
-3.455
-6.789
-10.618
-14.975
-19.852
-25.188
-30.838
-36.526
-41.934
-46.712
-50.468
-52.763
-53.115
-51.256
-47.226
-41.367
-34.328
-26.711
-18.798
-10.999
-3.944
2.356
8.371
15.18
24.773
38.541
56.803
80.018
108.626
141.641
176.995
210.934
237.84
253.279
254.17
237.194
199.342
139.273
57.629
-41.744
-152.24
-268.038
-383.74
-493.317
-590.533
-669.215
-724.981
-756.784
-765.938
-753.997
-723.207
-676.265
-616.611
-549.742
-480.649
-412.679
-348.574
-290.171
-238.408
-194.74
-160.289
-133.852
-113.959
-99.106
-87.023
-76.635
-67.644
-58.898
-49.197
-38.478
-26.887
-15.238
-5.25
2.439
7.887
10.892
11.414
9.613
5.689
0.41
-4.962
-9.666
-13.32
-15.693
-16.797
-16.57
-14.907
-11.901
-7.797
-2.836
2.78
8.915
15.494
22.393
29.425
36.351
42.956
49.1
54.696
59.71
64.128
67.926
71.11
73.729
75.845
77.535
78.869
79.894
80.664
81.25
81.74
82.237
82.831
83.575
84.509
85.655
87.03
88.647
90.506
92.587
94.871
97.345
99.996
102.82
105.808
108.94
112.192
115.541
118.964
122.441
125.955
129.482
133.005
136.503
139.96
143.363
146.695
149.936
153.063
156.055
158.891
161.551
164.013
166.257
168.264
170.018
171.505
172.711
173.626
174.239
174.541
174.527
174.191
173.532
172.548
171.239
169.607
167.659
165.399
162.837
159.981
156.842
153.433
149.767
145.86
141.728
137.388
132.858
128.156
123.302
118.318
113.223
108.037
102.783
97.481
92.152
86.817
81.495
76.206
70.969
65.799
60.715
55.733
50.867
46.13
41.536
37.095
32.819
28.716
24.794
21.06
17.52
14.177
11.036
8.096
5.361
2.829
0.499
-1.631
-3.564
-5.305
-6.858
-8.229
-9.425
-10.452
-11.318
-12.031
-12.6
-13.033
-13.339
-13.527
-13.607
-13.587
-13.478
-13.287
-13.025
-12.7
-12.32
-11.894
-11.43
-10.934
-10.415
-9.878
-9.33
-8.776
-8.222
-7.673
-7.132
-6.604
-6.092
-5.599
-5.126
-4.677
-4.252
-3.852
-3.479
-3.133
-2.814
-2.523
-2.259
-2.022
-1.811
-1.626
-1.465
-1.328
-1.213
-1.12
-1.047
-0.992
-0.955
-0.936
-0.932
-0.943
-0.969
-1.009
-1.063
-1.13
-1.21
-1.303
-1.41
-1.529
-1.663
-1.812
-1.976
-2.157
-2.355
-2.572
-2.807
-3.062
-3.337
-3.631
-3.946
-4.281
-4.635
-5.01
-5.405
-5.819
-6.252
-6.705
-7.175
-7.662
-8.163
-8.678
-9.204
-9.738
-10.278
-10.82
-11.361
-11.899
-12.429
-12.949
-13.454
-13.94
-14.402
-14.836
-15.235
-15.595
-15.911
-16.177
-16.389
-16.545
-16.642
-16.677
-16.649
-16.555
-16.394
-16.166
-15.869
-15.503
-15.068
-14.564
-13.992
-13.357
-12.66
-11.907
-11.101
-10.249
-9.358
-8.435
-7.488
-6.523
-5.546
-4.563
-3.581
-2.607
-1.649
-0.711
0.201
1.076
1.906
2.681
3.392
4.036
4.608
5.108
5.533
5.881
6.154
6.356
6.488
6.546
6.522
6.399
6.166
5.831
5.403
4.901
4.361
3.805
3.272
2.808
2.44
2.189
2.065
2.054
2.154
2.373
2.723
3.245
3.974
4.9
6.01
7.254
8.517
9.697
10.667
11.259
11.362
10.888
9.775
8.033
5.689
2.785
-0.629
-4.544
-8.982
-13.917
-19.279
-24.886
-30.415
-35.539
-39.89
-43.071
-44.677
-44.222
-41.464
-36.502
-29.717
-21.837
-13.524
-5.042
3.194
10.52
16.968
23.034
29.791
39.314
52.991
71.073
94.019
122.163
154.338
188.28
220.046
243.997
255.728
252.191
230.184
186.899
121.332
34.772
-68.351
-181.395
-298.38
-413.859
-521.994
-616.275
-690.56
-741.239
-767.808
-771.578
-754.343
-718.12
-665.24
-600.104
-528.775
-455.929
-384.9
-318.549
-258.631
-206.822
-165.289
-134.138
-111.408
-95.533
-84.646
-76.438
-69.897
-63.951
-56.703
-47.512
-36.789
-24.856
-12.877
-2.458
5.934
12.009
15.201
15.653
13.689
9.617
4.415
-0.76
-5.291
-8.751
-10.873
-11.707
-11.216
-9.341
-6.253
-2.175
2.687
8.139
14.074
20.424
27.062
33.809
40.442
46.746
52.59
57.896
62.628
66.772
70.307
73.238
75.619
77.517
79.007
80.155
81.003
81.603
82.029
82.366
82.715
83.161
83.753
84.529
85.513
86.718
88.159
89.834
91.723
93.805
96.066
98.496
101.09
103.837
106.718
109.711
112.793
115.942
119.142
122.374
125.618
128.856
132.07
135.245
138.369
141.427
144.397
147.262
149.998
152.588
155.011
157.248
159.28
161.089
162.659
163.977
165.031
165.811
166.307
166.51
166.416
166.021
165.321
164.316
163.006
161.394
159.483
157.282
154.795
152.033
149.005
145.721
142.196
138.442
134.475
130.31
125.963
121.452
116.794
112.009
107.115
102.131
97.077
91.973
86.838
81.691
76.551
71.435
66.362
61.348
56.408
51.558
46.812
42.183
37.683
33.324
29.116
25.067
21.187
17.482
13.958
10.619
7.469
4.512
1.748
-0.822
-3.198
-5.38
-7.372
-9.176
-10.796
-12.236
-13.501
-14.599
-15.534
-16.314
-16.947
-17.439
-17.801
-18.039
-18.163
-18.182
-18.103
-17.937
-17.691
-17.375
-16.997
-16.565
-16.087
-15.572
-15.025
-14.455
-13.868
-13.269
-12.665
-12.062
-11.463
-10.874
-10.299
-9.74
-9.202
-8.687
-8.198
-7.735
-7.301
-6.897
-6.523
-6.181
-5.87
-5.591
-5.343
-5.126
-4.939
-4.781
-4.651
-4.549
-4.471
-4.418
-4.388
-4.38
-4.391
-4.422
-4.472
-4.538
-4.622
-4.721
-4.835
-4.964
-5.106
-5.263
-5.432
-5.615
-5.812
-6.023
-6.248
-6.489
-6.746
-7.019
-7.31
-7.617
-7.941
-8.282
-8.641
-9.017
-9.409
-9.819
-10.246
-10.689
-11.149
-11.625
-12.116
-12.621
-13.137
-13.662
-14.195
-14.733
-15.273
-15.811
-16.345
-16.872
-17.389
-17.893
-18.38
-18.845
-19.285
-19.694
-20.067
-20.399
-20.684
-20.919
-21.1
-21.223
-21.288
-21.29
-21.228
-21.101
-20.906
-20.643
-20.311
-19.908
-19.434
-18.89
-18.279
-17.602
-16.866
-16.072
-15.228
-14.339
-13.414
-12.46
-11.484
-10.489
-9.483
-8.471
-7.457
-6.45
-5.453
-4.473
-3.517
-2.596
-1.72
-0.9
-0.141
0.552
1.175
1.725
2.201
2.604
2.939
3.206
3.402
3.517
3.535
3.447
3.255
2.968
2.598
2.173
1.727
1.302
0.948
0.7
0.574
0.577
0.697
0.93
1.282
1.765
2.397
3.201
4.185
5.342
6.654
8.044
9.382
10.528
11.31
11.594
11.304
10.374
8.782
6.529
3.638
0.167
-3.825
-8.312
-13.289
-18.733
-24.574
-30.58
-36.391
-41.623
-45.843
-48.696
-49.825
-48.761
-45.314
-39.605
-32.033
-23.391
-14.374
-5.239
3.595
11.475
18.461
25.036
32.273
42.243
56.281
74.626
97.728
125.884
157.878
191.369
222.349
245.175
255.463
250.207
226.268
180.893
113.232
24.811
-79.776
-193.713
-310.814
-425.638
-532.372
-624.33
-695.482
-742.36
-764.482
-763.632
-742.171
-702.138
-645.973
-578.65
-506.357
-434.103
-365.719
-303.251
-247.584
-200.354
-163.444
-136.313
-116.826
-102.643
-91.0
-80.554
-71.21
-62.052
-51.658
-39.675
-26.481
-13.131
-1.537
7.419
13.887
17.823
19.158
17.986
14.459
9.26
3.674
-1.414
-5.586
-8.577
-10.382
-10.955
-10.145
-7.978
-4.658
-0.399
4.583
10.124
16.158
22.597
29.298
36.078
42.702
48.974
54.777
60.047
64.761
68.896
72.426
75.355
77.732
79.634
81.144
82.327
83.224
83.89
84.395
84.827
85.293
85.867
86.596
87.511
88.63
89.97
91.548
93.361
95.389
97.611
100.011
102.579
105.312
108.195
111.209
114.329
117.53
120.792
124.098
127.429
130.764
134.085
137.372
140.612
143.79
146.89
149.892
152.775
155.519
158.102
160.507
162.713
164.7
166.451
167.952
169.188
170.148
170.822
171.201
171.276
171.043
170.498
169.64
168.467
166.981
165.186
163.086
160.689
158.004
155.039
151.805
148.315
144.583
140.623
136.452
132.085
127.54
122.836
117.991
113.027
107.961
102.815
97.609
92.363
87.098
81.834
76.589
71.383
66.233
61.156
56.169
51.286
46.523
41.892
37.405
33.073
28.908
24.916
21.107
17.486
14.059
10.829
7.801
4.974
2.352
-0.068
-2.286
-4.305
-6.127
-7.758
-9.201
-10.463
-11.551
-12.47
-13.23
-13.839
-14.305
-14.637
-14.845
-14.938
-14.926
-14.819
-14.627
-14.358
-14.023
-13.63
-13.19
-12.709
-12.197
-11.661
-11.109
-10.548
-9.985
-9.424
-8.873
-8.335
-7.815
-7.317
-6.845
-6.4
-5.986
-5.604
-5.256
-4.942
-4.663
-4.42
-4.211
-4.038
-3.898
-3.79
-3.714
-3.667
-3.648
-3.655
-3.686
-3.738
-3.811
-3.902
-4.009
-4.131
-4.267
-4.415
-4.574
-4.742
-4.919
-5.103
-5.295
-5.495
-5.701
-5.915
-6.137
-6.368
-6.608
-6.859
-7.121
-7.394
-7.679
-7.977
-8.288
-8.613
-8.953
-9.309
-9.681
-10.07
-10.477
-10.902
-11.344
-11.803
-12.278
-12.767
-13.269
-13.783
-14.305
-14.834
-15.366
-15.9
-16.433
-16.962
-17.482
-17.99
-18.481
-18.949
-19.391
-19.799
-20.17
-20.498
-20.779
-21.01
-21.189
-21.311
-21.374
-21.376
-21.313
-21.184
-20.988
-20.722
-20.384
-19.976
-19.499
-18.955
-18.347
-17.68
-16.957
-16.185
-15.371
-14.522
-13.643
-12.739
-11.815
-10.876
-9.928
-8.979
-8.033
-7.096
-6.178
-5.288
-4.438
-3.637
-2.892
-2.206
-1.582
-1.023
-0.532
-0.109
0.25
0.543
0.765
0.909
0.956
0.893
0.73
0.473
0.144
-0.222
-0.599
-0.957
-1.25
-1.452
-1.548
-1.531
-1.419
-1.221
-0.925
-0.526
0.01
0.72
1.594
2.616
3.747
4.876
5.903
6.719
7.161
7.118
6.527
5.324
3.524
1.162
-1.749
-5.146
-8.997
-13.308
-18.038
-23.145
-28.518
-33.867
-38.879
-43.221
-46.467
-48.298
-48.385
-46.274
-41.86
-35.349
-27.147
-18.063
-8.772
0.513
9.347
17.07
23.714
29.724
36.213
45.257
58.205
75.318
97.017
123.57
153.762
185.191
213.922
234.493
242.385
234.525
207.779
159.313
88.714
-1.899
-107.969
-222.794
-339.77
-453.28
-557.09
-643.948
-708.707
-748.961
-764.42
-757.157
-730.108
-685.541
-626.75
-559.685
-489.606
-420.501
-355.907
-297.334
-245.345
-201.558
-167.105
-140.658
-120.742
-105.65
-92.859
-81.49
-71.425
-61.562
-50.835
-39.205
-26.771
-14.387
-3.79
4.422
10.306
13.701
14.634
13.239
9.679
4.687
-0.546
-5.236
-8.957
-11.463
-12.741
-12.721
-11.3
-8.543
-4.663
0.101
5.546
11.525
17.94
24.683
31.58
38.404
44.961
51.093
56.693
61.723
66.16
69.975
73.172
75.783
77.856
79.469
80.7
81.597
82.222
82.646
82.947
83.233
83.592
84.081
84.742
85.6
86.67
87.968
89.497
91.24
93.184
95.314
97.617
100.09
102.723
105.498
108.394
111.386
114.45
117.571
120.731
123.91
127.09
130.254
133.387
136.476
139.506
142.458
145.312
148.045
150.637
153.069
155.321
157.373
159.205
160.801
162.148
163.234
164.046
164.574
164.809
164.746
164.378
163.702
162.718
161.423
159.821
157.914
155.708
153.21
150.428
147.372
144.053
140.482
136.674
132.642
128.403
123.973
119.369
114.61
109.714
104.702
99.592
94.406
89.162
83.883
78.587
73.294
68.023
62.792
57.618
52.518
47.507
42.602
37.815
33.159
28.647
24.289
20.096
16.075
12.234
8.58
5.118
1.852
-1.215
-4.08
-6.744
-9.205
-11.464
-13.524
-15.388
-17.059
-18.542
-19.843
-20.967
-21.922
-22.715
-23.354
-23.847
-24.203
-24.43
-24.539
-24.537
-24.435
-24.241
-23.965
-23.616
-23.202
-22.731
-22.214
-21.656
-21.067
-20.452
-19.82
-19.176
-18.527
-17.878
-17.236
-16.604
-15.987
-15.39
-14.815
-14.267
-13.746
-13.257
-12.8
-12.377
-11.989
-11.636
-11.319
-11.038
-10.793
-10.584
-10.411
-10.273
-10.17
-10.101
-10.065
-10.061
-10.089
-10.147
-10.236
-10.355
-10.504
-10.681
-10.888
-11.123
-11.386
-11.676
-11.992
-12.334
-12.7
-13.09
-13.503
-13.937
-14.393
-14.869
-15.365
-15.88
-16.412
-16.961
-17.524
-18.1
-18.686
-19.281
-19.881
-20.483
-21.084
-21.681
-22.272
-22.853
-23.421
-23.971
-24.498
-24.999
-25.468
-25.9
-26.288
-26.63
-26.919
-27.154
-27.33
-27.446
-27.498
-27.485
-27.405
-27.257
-27.038
-26.748
-26.386
-25.951
-25.445
-24.87
-24.228
-23.524
-22.76
-21.943
-21.079
-20.175
-19.24
-18.278
-17.295
-16.298
-15.292
-14.284
-13.282
-12.291
-11.316
-10.367
-9.454
-8.588
-7.779
-7.03
-6.346
-5.732
-5.188
-4.718
-4.322
-3.995
-3.738
-3.554
-3.452
-3.452
-3.564
-3.782
-4.098
-4.493
-4.933
-5.395
-5.842
-6.226
-6.52
-6.701
-6.762
-6.719
-6.574
-6.32
-5.946
-5.413
-4.685
-3.769
-2.679
-1.461
-0.22
0.945
1.912
2.514
2.642
2.212
1.165
-0.49
-2.721
-5.49
-8.744
-12.471
-16.688
-21.371
-26.451
-31.761
-36.995
-41.842
-45.947
-48.925
-50.379
-49.84
-47.066
-42.134
-35.39
-27.523
-19.168
-10.6
-2.24
5.259
11.905
18.151
25.017
34.492
47.935
65.638
88.1
115.72
147.451
181.173
213.112
237.789
250.883
249.392
230.128
190.239
128.639
46.349
-52.532
-161.386
-274.252
-385.785
-490.159
-581.08
-652.734
-701.241
-725.771
-728.256
-710.979
-676.281
-627.021
-567.226
-502.247
-437.115
-375.464
-318.893
-268.143
-223.953
-187.213
-158.3
-135.96
-118.06
-102.38
-87.811
-74.262
-61.659
-49.465
-36.827
-23.65
-10.772
0.38
8.878
14.705
18.152
19.465
18.578
15.512
10.815
5.52
0.561
-3.546
-6.583
-8.549
-9.366
-8.869
-7.038
-4.01
0.012
4.812
10.239
16.223
22.661
29.405
36.271
43.02
49.454
55.457
60.946
65.888
70.266
74.058
77.268
79.945
82.154
83.967
85.452
86.652
87.623
88.435
89.175
89.947
90.832
91.878
93.121
94.583
96.276
98.216
100.401
102.808
105.421
108.222
111.2
114.349
117.659
121.107
124.669
128.318
132.033
135.792
139.576
143.362
147.129
150.856
154.526
158.124
161.632
165.027
168.289
171.392
174.316
177.038
179.538
181.794
183.787
185.499
186.917
188.027
188.817
189.279
189.402
189.182
188.615
187.697
186.429
184.811
182.848
180.545
177.909
174.949
171.676
168.102
164.241
160.108
155.718
151.09
146.243
141.194
135.965
130.576
125.05
119.408
113.672
107.866
102.01
96.13
90.245
84.377
78.547
72.776
67.08
61.48
55.991
50.631
45.413
40.352
35.46
30.748
26.227
21.905
17.79
13.887
10.202
6.739
3.499
0.484
-2.305
-4.87
-7.212
-9.336
-11.244
-12.942
-14.435
-15.731
-16.836
-17.758
-18.506
-19.089
-19.517
-19.798
-19.944
-19.964
-19.869
-19.67
-19.376
-18.998
-18.546
-18.03
-17.459
-16.842
-16.19
-15.509
-14.809
-14.097
-13.382
-12.668
-11.965
-11.277
-10.611
-9.97
-9.36
-8.785
-8.248
-7.753
-7.302
-6.899
-6.546
-6.243
-5.994
-5.798
-5.655
-5.566
-5.529
-5.544
-5.61
-5.724
-5.887
-6.094
-6.346
-6.639
-6.971
-7.34
-7.743
-8.177
-8.637
-9.121
-9.624
-10.142
-10.671
-11.206
-11.744
-12.281
-12.812
-13.334
-13.843
-14.332
-14.797
-15.233
-15.635
-15.997
-16.314
-16.583
-16.8
-16.962
-17.067
-17.113
-17.098
-17.02
-16.878
-16.671
-16.398
-16.059
-15.652
-15.18
-14.645
-14.05
-13.399
-12.696
-11.947
-11.157
-10.336
-9.49
-8.624
-7.743
-6.854
-5.961
-5.072
-4.192
-3.326
-2.481
-1.664
-0.886
-0.156
0.516
1.124
1.665
2.135
2.533
2.854
3.098
3.271
3.372
3.398
3.343
3.183
2.91
2.531
2.052
1.495
0.892
0.265
-0.349
-0.903
-1.366
-1.719
-1.953
-2.09
-2.138
-2.092
-1.941
-1.645
-1.171
-0.528
0.273
1.194
2.137
3.014
3.706
4.044
3.911
3.226
1.935
0.056
-2.363
-5.29
-8.677
-12.502
-16.781
-21.495
-26.58
-31.896
-37.183
-42.149
-46.452
-49.713
-51.5
-51.334
-48.989
-44.525
-38.305
-30.994
-23.149
-15.024
-7.034
0.223
6.716
12.814
19.624
29.125
42.445
59.778
81.393
107.42
137.136
168.913
199.138
222.557
235.416
235.006
218.68
184.226
129.873
55.709
-34.586
-135.039
-240.551
-346.116
-446.501
-536.139
-608.412
-658.848
-686.788
-693.656
-681.306
-652.297
-609.519
-557.147
-501.457
-447.204
-396.717
-351.196
-310.817
-275.39
-244.919
-218.37
-193.307
-168.226
-142.66
-116.647
-91.111
-66.863
-44.291
-24.134
-7.345
5.61
14.585
19.771
21.826
21.33
18.795
14.847
9.999
4.707
-0.566
-5.494
-9.793
-13.203
-15.576
-16.809
-16.815
-15.583
-13.13
-9.517
-4.9
0.55
6.664
13.236
20.107
27.105
34.01
40.654
46.898
52.628
57.804
62.403
66.394
69.785
72.612
74.918
76.784
78.286
79.48
80.44
81.243
81.968
82.717
83.564
84.559
85.741
87.133
88.748
90.6
92.691
95.0
97.514
100.217
103.095
106.14
109.339
112.669
116.107
119.627
123.204
126.82
130.453
134.084
137.69
141.253
144.754
148.181
151.514
154.734
157.818
160.744
163.49
166.035
168.361
170.446
172.271
173.821
175.082
176.043
176.692
177.021
177.021
176.688
176.019
175.011
173.666
171.984
169.969
167.628
164.969
162.0
158.734
155.182
151.359
147.278
142.957
138.413
133.664
128.729
123.629
118.384
113.015
107.544
101.994
96.385
90.739
85.079
79.426
73.799
68.219
62.704
57.272
51.94
46.725
41.64
36.7
31.916
27.301
22.865
18.616
14.563
10.711
7.066
3.631
0.41
-2.596
-5.387
-7.963
-10.325
-12.476
-14.42
-16.161
-17.704
-19.056
-20.222
-21.21
-22.029
-22.686
-23.19
-23.551
-23.777
-23.878
-23.864
-23.744
-23.527
-23.223
-22.841
-22.39
-21.88
-21.319
-20.715
-20.076
-19.409
-18.723
-18.023
-17.316
-16.607
-15.903
-15.208
-14.527
-13.864
-13.224
-12.609
-12.024
-11.472
-10.954
-10.473
-10.031
-9.629
-9.269
-8.952
-8.679
-8.451
-8.268
-8.132
-8.043
-8.0
-8.003
-8.053
-8.148
-8.286
-8.468
-8.692
-8.957
-9.261
-9.604
-9.983
-10.398
-10.846
-11.326
-11.835
-12.37
-12.928
-13.506
-14.102
-14.711
-15.329
-15.953
-16.578
-17.202
-17.82
-18.428
-19.02
-19.591
-20.135
-20.647
-21.12
-21.549
-21.929
-22.255
-22.523
-22.73
-22.874
-22.951
-22.959
-22.895
-22.758
-22.546
-22.259
-21.896
-21.456
-20.94
-20.353
-19.696
-18.975
-18.194
-17.356
-16.469
-15.542
-14.58
-13.591
-12.578
-11.547
-10.507
-9.466
-8.432
-7.411
-6.411
-5.441
-4.513
-3.64
-2.829
-2.084
-1.407
-0.8
-0.267
0.189
0.568
0.876
1.11
1.268
1.339
1.298
1.142
0.881
0.53
0.116
-0.337
-0.816
-1.286
-1.703
-2.046
-2.295
-2.454
-2.552
-2.576
-2.506
-2.317
-1.948
-1.377
-0.621
0.303
1.339
2.395
3.396
4.214
4.686
4.727
4.265
3.278
1.815
-0.132
-2.555
-5.425
-8.765
-12.585
-16.846
-21.49
-26.343
-31.107
-35.491
-39.127
-41.623
-42.624
-41.683
-38.618
-33.58
-26.883
-19.19
-11.127
-2.916
5.016
12.01
18.11
23.797
30.098
39.018
51.883
68.91
90.597
117.333
148.06
180.679
211.376
234.645
246.196
243.082
222.183
180.716
117.66
34.087
-65.86
-175.538
-288.967
-400.795
-505.229
-595.987
-667.302
-715.347
-739.269
-740.979
-722.772
-686.98
-636.462
-575.28
-508.8
-442.086
-378.87
-320.82
-268.724
-223.401
-185.796
-156.33
-133.767
-115.931
-100.52
-86.382
-73.392
-61.424
-49.887
-37.848
-25.167
-12.699
-1.914
6.236
11.727
14.858
15.874
14.676
11.271
6.215
0.573
-4.687
-9.039
-12.27
-14.389
-15.321
-14.902
-13.117
-10.114
-6.115
-1.345
4.039
9.965
16.336
23.003
29.781
36.426
42.739
48.601
53.932
58.698
62.882
66.462
69.445
71.88
73.835
75.388
76.606
77.532
78.22
78.74
79.177
79.635
80.194
80.902
81.792
82.885
84.195
85.737
87.507
89.485
91.65
93.987
96.484
99.136
101.932
104.851
107.87
110.965
114.115
117.301
120.505
123.706
126.886
130.026
133.11
136.125
139.057
141.884
144.587
147.145
149.539
151.749
153.758
155.545
157.095
158.393
159.427
160.185
160.659
160.84
160.722
160.3
159.571
158.536
157.193
155.545
153.596
151.352
148.821
146.01
142.931
139.595
136.014
132.203
128.177
123.952
119.545
114.973
110.256
105.412
100.461
95.423
90.318
85.164
79.984
74.795
69.619
64.472
59.373
54.338
49.384
44.526
39.779
35.156
30.668
26.328
22.145
18.129
14.288
10.628
7.155
3.874
0.788
-2.1
-4.789
-7.28
-9.571
-11.666
-13.567
-15.277
-16.8
-18.142
-19.307
-20.303
-21.137
-21.815
-22.345
-22.736
-22.996
-23.133
-23.157
-23.075
-22.898
-22.634
-22.291
-21.879
-21.405
-20.88
-20.31
-19.703
-19.067
-18.409
-17.736
-17.053
-16.368
-15.685
-15.011
-14.348
-13.703
-13.08
-12.482
-11.912
-11.373
-10.869
-10.4
-9.97
-9.579
-9.23
-8.923
-8.66
-8.442
-8.27
-8.143
-8.063
-8.03
-8.041
-8.098
-8.198
-8.341
-8.525
-8.75
-9.014
-9.315
-9.652
-10.024
-10.428
-10.861
-11.322
-11.807
-12.314
-12.839
-13.378
-13.928
-14.485
-15.046
-15.607
-16.165
-16.716
-17.255
-17.778
-18.279
-18.753
-19.195
-19.6
-19.96
-20.273
-20.534
-20.739
-20.887
-20.973
-20.994
-20.949
-20.836
-20.653
-20.398
-20.071
-19.669
-19.195
-18.651
-18.038
-17.362
-16.625
-15.834
-14.993
-14.112
-13.197
-12.254
-11.288
-10.304
-9.307
-8.305
-7.305
-6.311
-5.33
-4.372
-3.447
-2.567
-1.742
-0.979
-0.283
0.343
0.897
1.374
1.773
2.098
2.347
2.516
2.599
2.575
2.432
2.18
1.826
1.392
0.914
0.415
-0.072
-0.501
-0.845
-1.089
-1.224
-1.269
-1.232
-1.103
-0.872
-0.505
0.035
0.737
1.585
2.544
3.51
4.385
5.064
5.386
5.242
4.57
3.312
1.481
-0.887
-3.783
-7.151
-10.954
-15.198
-19.838
-24.83
-30.072
-35.286
-40.161
-44.37
-47.495
-49.222
-49.23
-47.074
-42.64
-36.124
-27.912
-18.793
-9.428
-0.014
9.008
16.982
23.964
30.391
37.367
46.967
60.456
78.016
100.028
126.69
156.797
188.077
216.586
236.856
244.699
237.285
211.763
165.673
98.361
11.464
-90.519
-201.047
-314.193
-424.789
-527.352
-615.533
-683.632
-728.429
-749.473
-748.424
-727.484
-688.523
-633.818
-568.157
-497.512
-426.719
-359.503
-297.895
-242.827
-195.979
-159.263
-132.196
-112.704
-98.502
-86.897
-76.572
-67.418
-58.51
-48.418
-36.765
-23.92
-10.922
0.35
9.027
15.262
19.01
20.193
18.898
15.274
9.997
4.34
-0.82
-5.071
-8.155
-10.063
-10.751
-10.069
-8.041
-4.867
-0.761
4.066
9.453
15.338
21.636
28.206
34.87
41.392
47.58
53.318
58.544
63.236
67.371
70.922
73.895
76.338
78.326
79.941
81.245
82.279
83.096
83.761
84.363
85.005
85.761
86.674
87.775
89.082
90.609
92.372
94.367
96.572
98.965
101.531
104.256
107.137
110.16
113.303
116.541
119.849
123.205
126.592
129.991
133.379
136.738
140.049
143.296
146.467
149.544
152.507
155.337
158.012
160.513
162.821
164.918
166.783
168.4
169.756
170.837
171.632
172.133
172.33
172.217
171.791
171.047
169.986
168.608
166.914
164.91
162.602
159.996
157.104
153.935
150.499
146.812
142.887
138.739
134.385
129.842
125.127
120.259
115.259
110.144
104.937
99.656
94.321
88.954
83.575
78.203
72.856
67.555
62.315
57.154
52.088
47.132
42.299
37.603
33.056
28.669
24.45
20.41
16.554
12.891
9.423
6.157
3.094
0.236
-2.416
-4.863
-7.104
-9.144
-10.983
-12.628
-14.081
-15.349
-16.438
-17.354
-18.104
-18.697
-19.14
-19.443
-19.613
-19.66
-19.593
-19.422
-19.155
-18.803
-18.373
-17.876
-17.319
-16.712
-16.063
-15.379
-14.67
-13.942
-13.202
-12.456
-11.71
-10.971
-10.243
-9.531
-8.839
-8.171
-7.53
-6.92
-6.344
-5.805
-5.303
-4.843
-4.424
-4.048
-3.717
-3.43
-3.188
-2.991
-2.84
-2.735
-2.675
-2.661
-2.693
-2.769
-2.888
-3.051
-3.254
-3.497
-3.779
-4.097
-4.451
-4.839
-5.259
-5.71
-6.19
-6.699
-7.234
-7.792
-8.372
-8.969
-9.583
-10.209
-10.844
-11.484
-12.126
-12.767
-13.404
-14.033
-14.651
-15.252
-15.833
-16.389
-16.914
-17.403
-17.85
-18.252
-18.605
-18.905
-19.15
-19.338
-19.466
-19.531
-19.534
-19.471
-19.342
-19.144
-18.876
-18.539
-18.134
-17.663
-17.129
-16.536
-15.888
-15.192
-14.454
-13.681
-12.878
-12.051
-11.204
-10.342
-9.471
-8.596
-7.722
-6.854
-6.001
-5.171
-4.377
-3.627
-2.929
-2.286
-1.704
-1.184
-0.728
-0.337
-0.004
0.27
0.48
0.617
0.664
0.611
0.459
0.217
-0.104
-0.478
-0.869
-1.239
-1.536
-1.728
-1.797
-1.738
-1.562
-1.275
-0.87
-0.339
0.341
1.19
2.218
3.416
4.767
6.196
7.577
8.771
9.608
9.954
9.731
8.877
7.37
5.213
2.429
-0.929
-4.804
-9.167
-14.011
-19.313
-25.005
-30.865
-36.543
-41.663
-45.796
-48.59
-49.69
-48.63
-45.218
-39.554
-32.013
-23.352
-14.249
-4.969
4.058
12.179
19.438
26.285
33.756
43.875
57.965
76.29
99.346
127.474
159.534
193.289
224.828
248.566
260.158
256.579
234.637
191.523
126.224
40.033
-62.642
-175.172
-291.588
-406.491
-514.077
-607.838
-681.669
-731.973
-758.241
-761.813
-744.511
-708.335
-655.62
-590.794
-519.907
-447.628
-377.289
-311.701
-252.577
-201.581
-160.843
-130.41
-108.294
-92.899
-82.353
-74.383
-68.0
-62.139
-54.918
-45.727
-35.007
-23.102
-11.185
-0.832
7.509
13.543
16.708
17.146
15.188
11.149
6.004
0.889
-3.593
-7.024
-9.139
-9.987
-9.529
-7.709
-4.696
-0.709
4.055
9.403
15.234
21.483
28.022
34.678
41.227
47.459
53.245
58.51
63.216
67.351
70.895
73.852
76.276
78.233
79.799
81.036
81.987
82.703
83.257
83.731
84.228
84.83
85.587
86.536
87.699
89.091
90.724
92.598
94.69
96.98
99.454
102.099
104.911
107.878
110.979
114.193
117.493
120.858
124.269
127.707
131.15
134.578
137.972
141.315
144.594
147.791
150.884
153.854
156.677
159.332
161.799
164.058
166.088
167.87
169.389
170.63
171.582
172.233
172.573
172.596
172.294
171.665
170.707
169.419
167.802
165.86
163.599
161.025
158.148
154.977
151.524
147.803
143.828
139.615
135.18
130.543
125.72
120.732
115.6
110.344
104.986
99.547
94.049
88.514
82.963
77.418
71.899
66.425
61.016
55.69
50.464
45.353
40.374
35.54
30.863
26.356
22.029
17.891
13.949
10.211
6.682
3.366
0.265
-2.619
-5.286
-7.735
-9.97
-11.992
-13.805
-15.415
-16.827
-18.047
-19.083
-19.942
-20.633
-21.165
-21.547
-21.789
-21.9
-21.891
-21.772
-21.553
-21.245
-20.857
-20.399
-19.882
-19.313
-18.703
-18.06
-17.392
-16.706
-16.011
-15.312
-14.616
-13.929
-13.256
-12.601
-11.969
-11.364
-10.788
-10.245
-9.735
-9.262
-8.826
-8.429
-8.071
-7.752
-7.473
-7.234
-7.035
-6.874
-6.752
-6.667
-6.619
-6.605
-6.626
-6.679
-6.765
-6.882
-7.03
-7.207
-7.414
-7.648
-7.91
-8.197
-8.509
-8.845
-9.204
-9.585
-9.987
-10.409
-10.85
-11.309
-11.787
-12.281
-12.791
-13.314
-13.849
-14.393
-14.944
-15.5
-16.057
-16.613
-17.164
-17.709
-18.244
-18.767
-19.273
-19.758
-20.217
-20.647
-21.041
-21.395
-21.704
-21.964
-22.171
-22.322
-22.415
-22.447
-22.415
-22.316
-22.151
-21.915
-21.609
-21.231
-20.78
-20.257
-19.663
-19.002
-18.277
-17.493
-16.653
-15.764
-14.835
-13.872
-12.881
-11.866
-10.833
-9.787
-8.735
-7.683
-6.637
-5.603
-4.59
-3.607
-2.666
-1.777
-0.946
-0.178
0.525
1.16
1.722
2.212
2.635
2.988
3.269
3.47
3.568
3.551
3.427
3.202
2.897
2.548
2.176
1.815
1.513
1.297
1.186
1.187
1.277
1.445
1.697
2.046
2.533
3.198
4.034
5.028
6.142
7.271
8.323
9.183
9.683
9.704
9.172
8.031
6.297
4.02
1.229
-2.037
-5.761
-9.976
-14.674
-19.791
-25.189
-30.591
-35.677
-40.119
-43.541
-45.523
-45.614
-43.539
-39.313
-33.294
-26.125
-18.376
-10.369
-2.434
4.914
11.436
17.39
23.749
32.315
44.55
61.064
82.109
107.902
138.206
171.592
204.806
232.913
251.223
256.05
244.482
213.848
161.613
87.423
-5.803
-112.673
-227.048
-342.862
-454.705
-556.784
-641.868
-704.735
-743.423
-758.034
-750.441
-723.408
-679.07
-620.517
-553.797
-484.271
-415.82
-351.874
-293.906
-242.46
-199.177
-165.207
-139.152
-119.462
-104.393
-91.461
-79.85
-69.491
-59.318
-48.26
-36.275
-23.487
-10.75
0.191
8.715
14.891
18.561
19.707
18.444
14.892
9.722
4.165
-0.952
-5.181
-8.235
-10.098
-10.71
-9.941
-7.836
-4.599
-0.449
4.403
9.802
15.685
21.972
28.522
35.158
41.647
47.794
53.483
58.648
63.266
67.309
70.756
73.618
75.946
77.822
79.327
80.524
81.454
82.17
82.739
83.249
83.802
84.472
85.302
86.325
87.558
89.018
90.72
92.66
94.817
97.168
99.698
102.394
105.253
108.261
111.396
114.634
117.95
121.324
124.74
128.176
131.612
135.029
138.408
141.733
144.991
148.163
151.23
154.17
156.963
159.587
162.024
164.253
166.256
168.013
169.511
170.735
171.675
172.32
172.661
172.69
172.402
171.796
170.868
169.618
168.049
166.163
163.967
161.468
158.674
155.595
152.242
148.628
144.767
140.673
136.363
131.855
127.164
122.312
117.316
112.197
106.976
101.673
96.309
90.903
85.478
80.053
74.647
69.279
63.968
58.73
53.582
48.538
43.614
38.823
34.176
29.685
25.36
21.21
17.242
13.463
9.878
6.492
3.308
0.328
-2.447
-5.017
-7.384
-9.548
-11.513
-13.283
-14.862
-16.256
-17.471
-18.514
-19.393
-20.114
-20.687
-21.121
-21.423
-21.603
-21.671
-21.635
-21.504
-21.287
-20.994
-20.632
-20.21
-19.737
-19.219
-18.665
-18.082
-17.475
-16.852
-16.219
-15.58
-14.941
-14.306
-13.681
-13.068
-12.471
-11.894
-11.338
-10.806
-10.299
-9.819
-9.367
-8.944
-8.549
-8.183
-7.846
-7.539
-7.26
-7.01
-6.789
-6.596
-6.43
-6.292
-6.181
-6.096
-6.038
-6.005
-6.0
-6.02
-6.068
-6.142
-6.243
-6.372
-6.527
-6.709
-6.917
-7.151
-7.41
-7.695
-8.004
-8.338
-8.695
-9.077
-9.481
-9.908
-10.357
-10.825
-11.312
-11.815
-12.332
-12.861
-13.399
-13.943
-14.489
-15.035
-15.578
-16.114
-16.639
-17.147
-17.635
-18.097
-18.527
-18.92
-19.271
-19.576
-19.831
-20.033
-20.18
-20.269
-20.298
-20.264
-20.166
-20.004
-19.775
-19.478
-19.112
-18.679
-18.182
-17.621
-17.001
-16.326
-15.6
-14.829
-14.021
-13.184
-12.321
-11.439
-10.543
-9.639
-8.735
-7.835
-6.946
-6.073
-5.226
-4.412
-3.643
-2.929
-2.271
-1.676
-1.144
-0.678
-0.28
0.05
0.318
0.523
0.661
0.724
0.693
0.557
0.324
0.0
-0.392
-0.822
-1.263
-1.681
-2.027
-2.275
-2.404
-2.406
-2.297
-2.081
-1.749
-1.291
-0.665
0.161
1.179
2.372
3.693
5.029
6.281
7.322
7.984
8.155
7.75
6.707
5.036
2.768
-0.064
-3.407
-7.252
-11.621
-16.481
-21.762
-27.289
-32.745
-37.818
-42.144
-45.331
-46.976
-46.601
-43.957
-39.124
-32.445
-24.601
-16.224
-7.58
0.905
8.551
15.344
21.709
28.64
38.124
51.503
69.047
91.273
118.595
149.991
183.389
215.02
239.378
252.157
250.318
230.597
190.088
127.549
43.937
-56.599
-167.622
-283.346
-398.423
-507.059
-602.746
-679.152
-732.347
-761.563
-767.903
-752.968
-718.661
-667.216
-602.944
-531.995
-459.207
-388.053
-321.519
-261.447
-209.535
-167.977
-136.911
-114.327
-98.608
-87.839
-79.645
-72.994
-66.832
-59.282
-49.736
-38.645
-26.342
-14.008
-3.277
5.374
11.644
14.973
15.523
13.627
9.589
4.384
-0.834
-5.447
-9.014
-11.262
-12.237
-11.89
-10.159
-7.203
-3.237
1.541
6.936
12.843
19.189
25.845
32.633
39.323
45.703
51.639
57.05
61.899
66.169
69.836
72.905
75.424
77.459
79.081
80.356
81.324
82.038
82.573
83.012
83.46
84.003
84.69
85.56
86.637
87.934
89.466
91.231
93.208
95.378
97.727
100.243
102.923
105.755
108.721
111.797
114.96
118.187
121.46
124.762
128.07
131.367
134.634
137.856
141.021
144.111
147.108
149.99
152.737
155.328
157.743
159.963
161.968
163.739
165.261
166.52
167.505
168.204
168.607
168.706
168.497
167.973
167.134
165.977
164.504
162.717
160.62
158.219
155.524
152.541
149.282
145.759
141.984
137.973
133.74
129.301
124.675
119.878
114.93
109.851
104.66
99.377
94.023
88.618
83.183
77.738
72.303
66.895
61.534
56.236
51.019
45.899
40.89
36.006
31.261
26.665
22.231
17.967
13.882
9.983
6.277
2.769
-0.538
-3.64
-6.536
-9.225
-11.708
-13.985
-16.059
-17.933
-19.612
-21.099
-22.402
-23.525
-24.476
-25.262
-25.891
-26.372
-26.713
-26.922
-27.01
-26.984
-26.855
-26.632
-26.323
-25.938
-25.486
-24.975
-24.413
-23.808
-23.169
-22.502
-21.815
-21.114
-20.405
-19.694
-18.987
-18.288
-17.602
-16.933
-16.284
-15.66
-15.061
-14.491
-13.952
-13.446
-12.973
-12.536
-12.136
-11.772
-11.446
-11.159
-10.91
-10.7
-10.527
-10.393
-10.297
-10.239
-10.218
-10.235
-10.29
-10.383
-10.513
-10.679
-10.882
-11.121
-11.394
-11.7
-12.039
-12.41
-12.811
-13.242
-13.701
-14.188
-14.701
-15.239
-15.8
-16.381
-16.98
-17.595
-18.221
-18.857
-19.499
-20.141
-20.782
-21.418
-22.044
-22.657
-23.252
-23.823
-24.366
-24.875
-25.344
-25.767
-26.139
-26.456
-26.713
-26.908
-27.037
-27.099
-27.089
-27.007
-26.851
-26.619
-26.311
-25.926
-25.462
-24.922
-24.308
-23.624
-22.872
-22.058
-21.187
-20.267
-19.305
-18.309
-17.286
-16.242
-15.183
-14.116
-13.05
-11.991
-10.945
-9.92
-8.925
-7.97
-7.067
-6.226
-5.451
-4.749
-4.122
-3.572
-3.105
-2.719
-2.41
-2.18
-2.031
-1.972
-2.024
-2.195
-2.481
-2.871
-3.347
-3.876
-4.432
-4.979
-5.47
-5.875
-6.173
-6.354
-6.435
-6.417
-6.294
-6.053
-5.653
-5.06
-4.282
-3.33
-2.25
-1.147
-0.117
0.717
1.192
1.197
0.651
-0.503
-2.25
-4.559
-7.388
-10.685
-14.434
-18.653
-23.314
-28.351
-33.596
-38.746
-43.494
-47.483
-50.33
-51.644
-50.954
-48.035
-42.976
-36.13
-28.195
-19.808
-11.237
-2.902
4.56
11.173
17.398
24.266
33.764
47.227
64.924
87.304
114.699
146.049
179.237
210.53
234.54
246.981
244.891
225.195
185.16
123.823
42.343
-55.277
-162.6
-273.556
-382.773
-484.415
-572.122
-640.541
-686.317
-708.586
-709.215
-690.88
-656.087
-608.138
-551.618
-491.069
-430.61
-373.761
-321.877
-275.203
-234.31
-199.264
-169.501
-144.647
-123.505
-104.091
-85.785
-68.767
-52.961
-38.589
-25.601
-13.292
-1.907
7.37
14.078
18.199
19.889
19.776
18.154
14.807
10.086
4.884
-0.11
-4.291
-7.324
-9.287
-10.146
-9.707
-7.947
-4.961
-0.893
4.001
9.533
15.623
22.145
28.96
35.898
42.717
49.221
55.291
60.841
65.837
70.265
74.1
77.35
80.062
82.299
84.139
85.651
86.882
87.892
88.749
89.535
90.354
91.282
92.368
93.65
95.147
96.873
98.842
101.052
103.483
106.116
108.936
111.93
115.093
118.412
121.868
125.436
129.091
132.811
136.576
140.366
144.159
147.934
151.671
155.352
158.962
162.483
165.893
169.168
172.286
175.224
177.96
180.472
182.739
184.74
186.459
187.88
188.989
189.775
190.228
190.337
190.097
189.503
188.553
187.244
185.579
183.559
181.19
178.478
175.433
172.065
168.385
164.407
160.145
155.616
150.838
145.828
140.607
135.195
129.614
123.886
118.034
112.08
106.048
99.962
93.844
87.718
81.606
75.529
69.507
63.562
57.711
51.973
46.365
40.901
35.598
30.467
25.522
20.772
16.228
11.897
7.787
3.902
0.247
-3.176
-6.363
-9.316
-12.034
-14.52
-16.776
-18.806
-20.615
-22.209
-23.595
-24.78
-25.773
-26.581
-27.215
-27.683
-27.997
-28.165
-28.198
-28.107
-27.902
-27.595
-27.194
-26.711
-26.155
-25.536
-24.863
-24.145
-23.391
-22.609
-21.806
-20.991
-20.169
-19.348
-18.534
-17.732
-16.947
-16.185
-15.45
-14.745
-14.073
-13.438
-12.841
-12.287
-11.775
-11.308
-10.888
-10.516
-10.192
-9.917
-9.691
-9.513
-9.382
-9.298
-9.26
-9.266
-9.316
-9.407
-9.539
-9.71
-9.919
-10.163
-10.439
-10.746
-11.081
-11.439
-11.818
-12.215
-12.624
-13.043
-13.468
-13.895
-14.322
-14.743
-15.154
-15.55
-15.928
-16.28
-16.602
-16.89
-17.136
-17.338
-17.491
-17.593
-17.641
-17.633
-17.565
-17.435
-17.243
-16.986
-16.663
-16.273
-15.816
-15.291
-14.703
-14.053
-13.345
-12.584
-11.774
-10.923
-10.038
-9.126
-8.192
-7.243
-6.283
-5.318
-4.357
-3.404
-2.465
-1.547
-0.658
0.192
0.991
1.731
2.407
3.012
3.545
4.003
4.38
4.677
4.9
5.047
5.115
5.095
4.966
4.718
4.359
3.898
3.354
2.762
2.144
1.536
0.989
0.531
0.182
-0.049
-0.186
-0.233
-0.183
-0.025
0.281
0.77
1.431
2.252
3.196
4.161
5.057
5.763
6.108
5.978
5.294
4.006
2.136
-0.274
-3.193
-6.57
-10.384
-14.651
-19.35
-24.418
-29.712
-34.963
-39.871
-44.085
-47.225
-48.861
-48.521
-45.987
-41.325
-34.888
-27.339
-19.235
-10.832
-2.547
5.012
11.815
18.226
25.329
35.087
48.607
66.072
87.769
113.864
143.686
175.617
206.02
229.603
242.557
242.155
225.777
191.178
136.52
61.849
-29.23
-130.694
-237.2
-343.761
-445.377
-536.638
-611.18
-664.418
-695.035
-704.208
-694.007
-666.698
-624.623
-571.352
-512.122
-451.775
-394.095
-341.058
-293.026
-250.453
-213.962
-183.448
-158.176
-136.722
-116.918
-97.779
-79.634
-62.596
-46.8
-32.253
-18.384
-5.478
5.152
12.938
17.91
20.225
20.546
19.253
16.124
11.508
6.297
1.131
-3.349
-6.744
-9.122
-10.415
-10.413
-9.097
-6.519
-2.789
1.837
7.17
13.115
19.513
26.236
33.125
39.936
46.492
52.654
58.311
63.428
67.982
71.941
75.312
78.128
80.432
82.306
83.824
85.035
86.009
86.809
87.513
88.228
89.032
89.976
91.1
92.426
93.964
95.732
97.73
99.939
102.345
104.929
107.679
110.587
113.643
116.824
120.108
123.469
126.882
130.33
133.792
137.248
140.678
144.064
147.387
150.635
153.791
156.835
159.746
162.501
165.079
167.462
169.629
171.56
173.237
174.645
175.77
176.6
177.126
177.338
177.229
176.794
176.029
174.934
173.507
171.752
169.671
167.272
164.561
161.549
158.245
154.663
150.815
146.717
142.385
137.835
133.086
128.157
123.067
117.836
112.486
107.039
101.515
95.937
90.325
84.701
79.087
73.502
67.966
62.496
57.112
51.829
46.664
41.63
36.741
32.01
27.448
23.064
18.868
14.866
11.064
7.468
4.08
0.904
-2.059
-4.81
-7.349
-9.678
-11.8
-13.719
-15.44
-16.968
-18.309
-19.472
-20.462
-21.289
-21.96
-22.485
-22.872
-23.132
-23.273
-23.304
-23.236
-23.078
-22.839
-22.528
-22.153
-21.724
-21.248
-20.733
-20.187
-19.615
-19.026
-18.424
-17.816
-17.207
-16.6
-16.002
-15.414
-14.84
-14.284
-13.747
-13.232
-12.74
-12.273
-11.831
-11.417
-11.03
-10.672
-10.343
-10.043
-9.772
-9.531
-9.319
-9.136
-8.982
-8.857
-8.761
-8.695
-8.658
-8.651
-8.673
-8.726
-8.809
-8.921
-9.064
-9.235
-9.436
-9.666
-9.925
-10.213
-10.53
-10.876
-11.251
-11.654
-12.084
-12.54
-13.02
-13.523
-14.046
-14.587
-15.143
-15.71
-16.287
-16.87
-17.456
-18.041
-18.622
-19.194
-19.752
-20.29
-20.804
-21.287
-21.734
-22.141
-22.503
-22.816
-23.078
-23.284
-23.433
-23.52
-23.544
-23.501
-23.391
-23.211
-22.959
-22.635
-22.242
-21.78
-21.253
-20.664
-20.018
-19.32
-18.578
-17.799
-16.988
-16.15
-15.289
-14.411
-13.523
-12.63
-11.738
-10.854
-9.986
-9.144
-8.339
-7.582
-6.879
-6.235
-5.652
-5.134
-4.684
-4.304
-3.989
-3.741
-3.565
-3.467
-3.467
-3.577
-3.79
-4.097
-4.48
-4.903
-5.344
-5.77
-6.131
-6.403
-6.567
-6.614
-6.564
-6.423
-6.18
-5.83
-5.341
-4.678
-3.853
-2.878
-1.787
-0.686
0.334
1.159
1.62
1.605
1.046
-0.123
-1.889
-4.223
-7.116
-10.504
-14.348
-18.65
-23.361
-28.449
-33.811
-39.175
-44.245
-48.669
-52.005
-53.917
-54.043
-51.949
-47.56
-41.067
-32.875
-23.787
-14.41
-5.031
3.815
11.684
18.752
25.615
33.606
44.534
59.356
78.387
102.039
130.075
161.01
191.95
218.361
235.512
239.758
228.179
198.012
147.091
75.291
-14.48
-116.84
-226.096
-336.734
-443.561
-541.07
-622.583
-683.175
-721.252
-737.245
-732.472
-709.106
-669.011
-614.826
-552.239
-486.417
-420.835
-358.645
-301.642
-250.64
-207.425
-173.391
-147.199
-127.35
-112.296
-99.596
-88.331
-78.364
-68.561
-57.841
-46.218
-33.817
-21.47
-10.912
-2.728
3.145
6.534
7.485
6.137
2.644
-2.278
-7.464
-12.148
-15.905
-18.488
-19.882
-20.012
-18.765
-16.198
-12.507
-7.926
-2.656
3.158
9.414
16.004
22.757
29.45
35.89
41.926
47.455
52.437
56.853
60.672
63.895
66.555
68.694
70.388
71.71
72.71
73.449
73.995
74.429
74.854
75.357
75.995
76.808
77.821
79.046
80.5
82.184
84.083
86.181
88.464
90.92
93.543
96.326
99.247
102.285
105.416
108.615
111.864
115.146
118.439
121.726
124.988
128.21
131.379
134.48
137.492
140.396
143.17
145.793
148.247
150.51
152.564
154.389
155.971
157.295
158.349
159.123
159.607
159.793
159.674
159.247
158.508
157.457
156.093
154.419
152.439
150.16
147.589
144.735
141.607
138.218
134.581
130.708
126.616
122.32
117.837
113.184
108.379
103.442
98.393
93.25
88.033
82.763
77.46
72.142
66.829
61.54
56.291
51.099
45.981
40.951
36.025
31.216
26.535
21.995
17.606
13.377
9.317
5.432
1.729
-1.787
-5.112
-8.244
-11.18
-13.92
-16.463
-18.811
-20.964
-22.927
-24.702
-26.294
-27.707
-28.948
-30.023
-30.939
-31.702
-32.321
-32.803
-33.157
-33.391
-33.512
-33.531
-33.454
-33.292
-33.052
-32.742
-32.371
-31.946
-31.476
-30.966
-30.426
-29.861
-29.277
-28.681
-28.079
-27.475
-26.876
-26.286
-25.708
-25.147
-24.606
-24.089
-23.597
-23.133
-22.699
-22.297
-21.927
-21.591
-21.29
-21.025
-20.795
-20.601
-20.444
-20.324
-20.239
-20.189
-20.174
-20.194
-20.248
-20.335
-20.456
-20.608
-20.793
-21.009
-21.254
-21.529
-21.831
-22.158
-22.51
-22.884
-23.28
-23.694
-24.125
-24.572
-25.032
-25.505
-25.987
-26.477
-26.971
-27.467
-27.962
-28.452
-28.934
-29.403
-29.856
-30.29
-30.702
-31.087
-31.442
-31.762
-32.044
-32.282
-32.472
-32.608
-32.686
-32.701
-32.65
-32.529
-32.337
-32.073
-31.734
-31.32
-30.829
-30.262
-29.619
-28.899
-28.104
-27.233
-26.29
-25.278
-24.201
-23.065
-21.874
-20.637
-19.36
-18.053
-16.725
-15.381
-14.03
-12.676
-11.326
-9.99
-8.674
-7.383
-6.125
-4.908
-3.743
-2.641
-1.613
-0.661
0.209
0.995
1.696
2.308
2.833
3.276
3.637
3.914
4.099
4.171
4.122
3.958
3.69
3.336
2.932
2.503
2.087
1.734
1.472
1.323
1.297
1.377
1.56
1.854
2.267
2.841
3.612
4.573
5.716
6.997
8.309
9.558
10.62
11.328
11.571
11.265
10.344
8.811
6.698
4.045
0.91
-2.686
-6.771
-11.333
-16.305
-21.524
-26.688
-31.486
-35.58
-38.599
-40.132
-39.691
-37.011
-32.142
-25.434
-17.582
-9.223
-0.631
7.794
15.429
22.27
28.755
35.92
45.774
59.717
78.07
101.283
129.701
162.258
196.832
229.671
255.284
269.343
268.861
250.645
211.827
151.269
69.871
-28.386
-136.943
-250.011
-362.409
-468.348
-561.534
-636.0
-687.584
-715.278
-720.863
-706.353
-673.866
-626.05
-566.762
-501.5
-435.532
-372.666
-314.69
-262.455
-216.768
-178.723
-148.86
-125.85
-107.455
-91.278
-76.03
-61.645
-48.088
-34.789
-20.902
-6.347
8.004
20.59
30.38
37.324
41.677
43.708
43.383
40.692
36.187
30.916
25.802
21.427
18.073
15.747
14.556
14.68
16.133
18.808
22.529
27.071
32.279
38.073
44.328
50.908
57.639
64.281
70.649
76.604
82.038
86.915
91.213
94.902
97.985
100.499
102.493
104.052
105.249
106.133
106.768
107.221
107.576
107.945
108.409
109.022
109.823
110.836
112.074
113.556
115.283
117.237
119.403
121.764
124.307
127.029
129.916
132.949
136.105
139.357
142.682
146.061
149.476
152.905
156.33
159.73
163.088
166.392
169.624
172.763
175.787
178.672
181.398
183.944
186.29
188.413
190.295
191.919
193.272
194.34
195.112
195.578
195.729
195.559
195.063
194.24
193.088
191.608
189.802
187.676
185.235
182.489
179.448
176.121
172.521
168.663
164.561
160.232
155.693
150.962
146.057
140.999
135.809
130.506
125.113
119.65
114.139
108.601
103.057
97.526
92.029
86.584
81.208
75.919
70.733
65.664
60.726
55.933
51.295
46.823
42.527
38.414
34.492
30.766
27.24
23.918
20.803
17.894
15.193
12.697
10.406
8.316
6.423
4.723
3.209
1.876
0.717
-0.276
-1.111
-1.796
-2.341
-2.754
-3.045
-3.223
-3.297
-3.278
-3.174
-2.995
-2.749
-2.445
-2.092
-1.698
-1.27
-0.816
-0.343
0.143
0.636
1.129
1.618
2.099
2.566
3.017
3.448
3.856
4.238
4.593
4.919
5.214
5.478
5.71
5.91
6.078
6.214
6.32
6.396
6.443
6.463
6.456
6.423
6.365
6.285
6.182
6.058
5.914
5.75
5.569
5.369
5.153
4.92
4.671
4.405
4.123
3.825
3.51
3.178
2.83
2.466
2.086
1.691
1.28
0.854
0.413
-0.044
-0.515
-1.002
-1.503
-2.02
-2.55
-3.093
-3.647
-4.212
-4.786
-5.365
-5.949
-6.533
-7.117
-7.697
-8.271
-8.836
-9.387
-9.921
-10.434
-10.92
-11.375
-11.794
-12.173
-12.507
-12.794
-13.031
-13.215
-13.345
-13.418
-13.433
-13.388
-13.282
-13.113
-12.881
-12.584
-12.223
-11.801
-11.319
-10.781
-10.191
-9.552
-8.87
-8.154
-7.409
-6.64
-5.853
-5.052
-4.242
-3.432
-2.625
-1.827
-1.044
-0.283
0.447
1.134
1.772
2.356
2.882
3.349
3.755
4.097
4.376
4.598
4.762
4.864
4.897
4.839
4.682
4.431
4.095
3.693
3.259
2.817
2.403
2.064
1.827
1.713
1.729
1.858
2.097
2.453
2.937
3.588
4.44
5.482
6.699
8.043
9.402
10.678
11.743
12.427
12.62
12.237
11.221
9.581
7.348
4.558
1.263
-2.525
-6.824
-11.605
-16.797
-22.227
-27.587
-32.558
-36.783
-39.865
-41.407
-40.94
-38.222
-33.337
-26.628
-18.773
-10.399
-1.771
6.686
14.307
21.083
27.444
34.375
43.826
57.109
74.461
96.35
123.185
153.952
186.617
217.497
241.15
253.327
251.081
231.243
191.001
129.213
46.737
-52.458
-161.882
-275.763
-388.745
-494.966
-588.325
-662.945
-714.829
-743.127
-749.269
-734.968
-702.539
-654.748
-595.136
-529.02
-461.168
-394.823
-332.515
-275.935
-225.98
-183.924
-150.751
-125.321
-106.197
-91.939
-80.436
-70.654
-62.295
-54.277
-45.402
-35.575
-24.923
-14.173
-4.952
2.133
7.167
9.944
10.39
8.654
4.911
-0.111
-5.187
-9.588
-12.965
-15.086
-15.967
-15.559
-13.755
-10.66
-6.522
-1.574
3.983
10.019
16.47
23.22
30.087
36.848
43.291
49.282
54.741
59.632
63.94
67.645
70.749
73.301
75.367
77.02
78.331
79.344
80.112
80.704
81.204
81.713
82.316
83.065
83.997
85.135
86.494
88.087
89.914
91.954
94.189
96.605
99.189
101.937
104.839
107.875
111.024
114.26
117.562
120.911
124.288
127.673
131.044
134.385
137.678
140.91
144.064
147.118
150.053
152.845
155.474
157.919
160.159
162.174
163.944
165.454
166.688
167.635
168.283
168.621
168.641
168.337
167.705
166.741
165.444
163.815
161.856
159.572
156.97
154.056
150.841
147.335
143.55
139.501
135.202
130.671
125.922
120.976
115.85
110.565
105.141
99.599
93.96
88.246
82.478
76.677
70.865
65.062
59.287
53.56
47.899
42.322
36.845
31.484
26.253
21.165
16.234
11.469
6.882
2.482
-1.725
-5.732
-9.533
-13.125
-16.506
-19.672
-22.624
-25.363
-27.89
-30.207
-32.319
-34.229
-35.943
-37.466
-38.807
-39.971
-40.968
-41.805
-42.492
-43.037
-43.45
-43.741
-43.919
-43.994
-43.975
-43.874
-43.698
-43.457
-43.161
-42.817
-42.435
-42.023
-41.587
-41.135
-40.674
-40.209
-39.747
-39.293
-38.85
-38.424
-38.019
-37.636
-37.279
-36.951
-36.652
-36.384
-36.15
-35.948
-35.779
-35.644
-35.543
-35.474
-35.437
-35.43
-35.454
-35.505
-35.583
-35.686
-35.813
-35.961
-36.129
-36.316
-36.52
-36.74
-36.974
-37.223
-37.485
-37.758
-38.043
-38.338
-38.644
-38.961
-39.289
-39.627
-39.978
-40.34
-40.716
-41.105
-41.507
-41.924
-42.354
-42.8
-43.26
-43.735
-44.226
-44.733
-45.256
-45.796
-46.353
-46.927
-47.517
-48.124
-48.745
-49.38
-50.027
-50.685
-51.35
-52.021
-52.695
-53.37
-54.043
-54.711
-55.37
-56.015
-56.644
-57.25
-57.828
-58.374
-58.882
-59.35
-59.772
-60.147
-60.471
-60.743
-60.958
-61.117
-61.216
-61.254
-61.229
-61.14
-60.985
-60.766
-60.482
-60.138
-59.734
-59.274
-58.763
-58.205
-57.608
-56.979
-56.32
-55.638
-54.937
-54.222
-53.5
-52.777
-52.056
-51.344
-50.649
-49.979
-49.345
-48.756
-48.216
-47.728
-47.295
-46.918
-46.601
-46.343
-46.139
-45.99
-45.899
-45.876
-45.94
-46.104
-46.36
-46.702
-47.109
-47.551
-48.002
-48.427
-48.779
-49.03
-49.161
-49.164
-49.056
-48.841
-48.513
-48.062
-47.447
-46.636
-45.637
-44.466
-43.172
-41.866
-40.649
-39.65
-39.037
-38.925
-39.399
-40.52
-42.279
-44.644
-47.575
-51.019
-54.963
-59.425
-64.381
-69.758
-75.381
-80.932
-86.089
-90.485
-93.727
-95.411
-95.053
-92.412
-87.576
-80.906
-73.117
-64.858
-56.394
-48.142
-40.759
-34.223
-28.062
-21.234
-11.712
1.864
19.732
42.341
70.04
101.714
135.181
166.604
190.427
202.314
199.306
178.271
136.414
72.713
-11.744
-112.792
-223.739
-338.59
-451.993
-558.133
-650.693
-723.805
-773.533
-798.988
-802.049
-784.952
-749.986
-699.951
-638.875
-572.201
-505.075
-441.271
-382.512
-329.632
-283.475
-245.047
-214.811
-191.501
-172.926
-156.775
-141.875
-128.11
-115.373
-103.074
-90.299
-76.938
-63.86
-52.555
-43.99
-38.183
-34.83
-33.683
-34.815
-38.209
-43.292
-48.984
-54.31
-58.732
-62.024
-64.189
-65.142
-64.714
-62.885
-59.798
-55.672
-50.733
-45.14
-38.967
-32.322
-25.358
-18.269
-11.305
-4.671
1.508
7.148
12.213
16.684
20.535
23.772
26.445
28.621
30.376
31.78
32.877
33.724
34.394
34.977
35.579
36.285
37.143
38.192
39.452
40.94
42.671
44.644
46.837
49.232
51.815
54.574
57.506
60.601
63.838
67.194
70.645
74.169
77.75
81.367
85.0
88.631
92.239
95.811
99.333
102.787
106.154
109.412
112.54
115.515
118.319
120.929
123.326
125.491
127.407
129.06
130.436
131.526
132.316
132.801
132.971
132.823
132.354
131.561
130.445
129.007
127.252
125.185
122.815
120.149
117.198
113.973
110.487
106.756
102.794
98.618
94.245
89.694
84.984
80.135
75.168
70.104
64.963
59.767
54.537
49.294
44.058
38.849
33.686
28.588
23.572
18.654
13.851
9.178
4.648
0.274
-3.933
-7.961
-11.803
-15.449
-18.893
-22.13
-25.155
-27.965
-30.557
-32.932
-35.088
-37.028
-38.754
-40.268
-41.575
-42.681
-43.59
-44.311
-44.85
-45.215
-45.416
-45.46
-45.357
-45.116
-44.749
-44.264
-43.672
-42.984
-42.208
-41.356
-40.436
-39.459
-38.434
-37.368
-36.271
-35.15
-34.014
-32.868
-31.72
-30.576
-29.44
-28.318
-27.215
-26.134
-25.078
-24.05
-23.052
-22.087
-21.155
-20.257
-19.394
-18.567
-17.774
-17.016
-16.291
-15.598
-14.936
-14.303
-13.698
-13.117
-12.56
-12.023
-11.506
-11.007
-10.522
-10.051
-9.592
-9.144
-8.705
-8.273
-7.848
-7.429
-7.014
-6.604
-6.198
-5.797
-5.401
-5.009
-4.622
-4.241
-3.865
-3.494
-3.129
-2.769
-2.415
-2.067
-1.725
-1.389
-1.06
-0.737
-0.421
-0.111
0.193
0.493
0.789
1.084
1.377
1.673
1.972
2.278
2.593
2.919
3.259
3.616
3.995
4.4
4.835
5.305
5.816
6.371
6.976
7.633
8.346
9.117
9.949
10.845
11.805
12.832
13.927
15.091
16.325
17.629
19.004
20.448
21.958
23.531
25.163
26.851
28.589
30.372
32.191
34.042
35.919
37.818
39.732
41.657
43.583
45.505
47.417
49.312
51.182
53.019
54.812
56.555
58.245
59.879
61.457
62.977
64.432
65.825
67.159
68.431
69.644
70.785
71.836
72.793
73.664
74.466
75.228
75.97
76.713
77.488
78.332
79.271
80.328
81.503
82.779
84.16
85.646
87.261
89.057
91.048
93.218
95.531
97.906
100.257
102.506
104.527
106.173
107.341
107.945
107.962
107.428
106.361
104.816
102.826
100.371
97.475
94.173
90.579
86.926
83.485
80.565
78.548
77.82
78.791
81.913
87.301
94.77
103.907
113.934
124.262
134.594
144.391
153.198
161.169
168.924
177.821
189.696
205.553
225.714
250.602
280.001
312.442
345.037
373.245
392.332
398.616
389.122
361.023
312.06
242.035
153.846
52.896
-55.108
-164.612
-270.348
-366.736
-446.975
-506.049
-542.365
-556.409
-549.603
-524.202
-482.129
-426.08
-361.776
-294.431
-227.552
-164.236
-106.157
-54.024
-9.509
26.1
54.185
76.329
94.184
110.191
125.252
139.432
153.717
169.061
185.281
202.07
218.459
232.592
243.732
251.818
256.547
257.788
255.597
250.037
241.701
231.717
220.837
209.543
198.237
187.132
176.516
166.693
157.764
149.668
142.316
135.638
