27.897
29.021
29.773
30.14
30.106
29.66
28.797
27.517
25.834
23.77
21.359
18.655
15.701
12.537
9.201
5.727
2.146
-1.518
-5.246
-9.033
-12.869
-16.746
-20.655
-24.591
-28.551
-32.537
-36.556
-40.618
-44.728
-48.887
-53.093
-57.341
-61.623
-65.93
-70.249
-74.558
-78.841
-83.08
-87.262
-91.371
-95.394
-99.312
-103.113
-106.779
-110.3
-113.662
-116.857
-119.875
-122.71
-125.355
-127.807
-130.065
-132.125
-133.986
-135.647
-137.108
-138.367
-139.428
-140.291
-140.96
-141.436
-141.726
-141.834
-141.768
-141.534
-141.14
-140.593
-139.903
-139.078
-138.128
-137.062
-135.89
-134.621
-133.265
-131.832
-130.33
-128.768
-127.156
-125.5
-123.808
-122.089
-120.348
-118.592
-116.828
-115.06
-113.293
-111.534
-109.785
-108.051
-106.336
-104.643
-102.974
-101.333
-99.722
-98.141
-96.593
-95.079
-93.6
-92.155
-90.746
-89.372
-88.033
-86.73
-85.461
-84.227
-83.027
-81.861
-80.727
-79.626
-78.557
-77.52
-76.513
-75.537
-74.591
-73.675
-72.788
-71.93
-71.101
-70.301
-69.53
-68.787
-68.073
-67.388
-66.73
-66.101
-65.499
-64.925
-64.379
-63.859
-63.367
-62.901
-62.46
-62.045
-61.654
-61.285
-60.939
-60.613
-60.305
-60.014
-59.737
-59.472
-59.218
-58.972
-58.73
-58.491
-58.253
-58.01
-57.762
-57.505
-57.234
-56.948
-56.642
-56.313
-55.958
-55.572
-55.153
-54.697
-54.202
-53.662
-53.075
-52.439
-51.75
-51.005
-50.202
-49.34
-48.418
-47.435
-46.391
-45.287
-44.124
-42.906
-41.636
-40.316
-38.95
-37.543
-36.098
-34.622
-33.119
-31.593
-30.051
-28.499
-26.944
-25.393
-23.855
-22.337
-20.845
-19.388
-17.973
-16.609
-15.302
-14.057
-12.879
-11.772
-10.743
-9.802
-8.952
-8.192
-7.52
-6.929
-6.415
-5.97
-5.579
-5.223
-4.878
-4.526
-4.151
-3.747
-3.305
-2.813
-2.254
-1.606
-0.861
-0.019
0.914
1.93
3.02
4.173
5.347
6.486
7.527
8.403
9.072
9.501
9.651
9.495
8.987
8.069
6.701
4.852
2.509
-0.315
-3.636
-7.489
-11.799
-16.376
-20.94
-25.099
-28.558
-31.147
-32.634
-32.712
-31.217
-28.243
-24.194
-19.761
-15.532
-11.768
-8.731
-6.87
-6.47
-7.15
-7.757
-6.691
-2.33
5.696
16.616
30.144
45.832
63.892
86.231
114.491
150.201
194.293
244.396
295.183
339.463
368.647
375.446
355.421
307.531
235.248
145.399
46.16
-56.303
-159.585
-264.448
-371.329
-474.144
-569.367
-656.026
-714.394
-727.72
-712.958
-688.746
-652.392
-601.998
-543.37
-481.082
-418.346
-358.112
-302.223
-251.084
-204.11
-161.172
-123.066
-90.911
-65.594
-47.401
-35.658
-28.543
-24.038
-20.449
-16.283
-10.992
-4.696
2.656
10.88
19.441
27.863
35.391
41.161
44.926
46.79
46.981
45.94
44.094
41.804
39.564
37.897
37.102
37.309
38.505
40.556
43.354
46.812
50.816
55.227
59.918
64.781
69.721
74.668
79.555
84.297
88.81
93.016
96.845
100.261
103.265
105.876
108.124
110.049
111.693
113.106
114.349
115.48
116.551
117.608
118.691
119.841
121.104
122.523
124.138
125.976
128.048
130.36
132.913
135.7
138.715
141.945
145.368
148.966
152.723
156.623
160.651
164.789
169.014
173.304
177.636
181.987
186.333
190.652
194.921
199.114
203.21
207.185
211.02
214.69
218.173
221.446
224.487
227.274
229.788
232.009
233.919
235.501
236.742
237.629
238.152
238.303
238.074
237.46
236.46
235.072
233.296
231.136
228.596
225.683
222.404
218.77
214.792
210.484
205.86
200.937
195.731
190.262
184.55
178.614
172.477
166.16
159.686
153.079
146.362
139.558
132.69
125.783
118.86
111.943
105.055
98.216
91.448
84.771
78.204
71.764
65.469
59.334
53.375
47.604
42.035
36.679
31.544
26.641
21.976
17.555
13.382
9.462
5.795
2.383
-0.775
-3.68
-6.335
-8.744
-10.912
-12.844
-14.547
-16.029
-17.298
-18.362
-19.231
-19.914
-20.423
-20.766
-20.956
-21.002
-20.917
-20.709
-20.391
-19.973
-19.466
-18.879
-18.224
-17.509
-16.745
-15.939
-15.101
-14.239
-13.36
-12.472
-11.581
-10.693
-9.814
-8.949
-8.103
-7.279
-6.483
-5.716
-4.982
-4.283
-3.622
-3.0
-2.419
-1.879
-1.382
-0.927
-0.517
-0.149
0.174
0.454
0.69
0.883
1.033
1.14
1.204
1.227
1.209
1.15
1.051
0.913
0.735
0.519
0.265
-0.026
-0.354
-0.717
-1.114
-1.545
-2.007
-2.499
-3.019
-3.565
-4.134
-4.725
-5.334
-5.959
-6.597
-7.244
-7.897
-8.553
-9.207
-9.856
-10.495
-11.12
-11.726
-12.308
-12.863
-13.384
-13.868
-14.31
-14.705
-15.047
-15.333
-15.558
-15.718
-15.807
-15.824
-15.764
-15.625
-15.406
-15.106
-14.723
-14.26
-13.719
-13.101
-12.41
-11.648
-10.82
-9.931
-8.986
-7.99
-6.95
-5.872
-4.764
-3.635
-2.494
-1.353
-0.218
0.898
1.988
3.04
4.044
4.991
5.874
6.683
7.41
8.046
8.578
9.0
9.31
9.507
9.595
9.581
9.468
9.269
9.003
8.686
8.333
7.96
7.573
7.182
6.801
6.444
6.132
5.879
5.684
5.549
5.468
5.425
5.41
5.397
5.331
5.171
4.869
4.372
3.653
2.678
1.404
-0.191
-2.149
-4.514
-7.31
-10.564
-14.29
-18.459
-23.072
-28.143
-33.571
-39.187
-44.731
-49.827
-54.188
-57.629
-59.911
-60.727
-59.905
-57.532
-54.018
-50.047
-46.2
-42.784
-40.078
-38.551
-38.588
-39.825
-41.004
-40.538
-36.829
-29.487
-19.706
-7.924
6.072
22.882
45.324
75.738
114.416
161.397
213.38
263.975
306.872
334.099
338.566
316.474
266.553
192.247
100.659
-0.187
-103.853
-207.724
-312.58
-418.646
-520.055
-613.985
-699.85
-757.347
-769.041
-752.196
-726.144
-688.298
-636.496
-576.749
-513.889
-451.012
-391.023
-335.707
-285.115
-238.335
-195.243
-156.705
-123.967
-98.136
-79.531
-67.439
-60.05
-55.338
-51.6
-47.366
-42.086
-35.855
-28.623
-20.576
-12.239
-4.088
3.14
8.601
12.056
13.621
13.528
12.226
10.146
7.655
5.247
3.443
2.542
2.668
3.807
5.822
8.602
12.059
16.074
20.504
25.219
30.105
35.064
40.021
44.906
49.629
54.106
58.258
62.015
65.344
68.249
70.747
72.872
74.664
76.167
77.43
78.516
79.481
80.379
81.257
82.154
83.112
84.176
85.389
86.788
88.4
90.236
92.298
94.587
97.097
99.82
102.742
105.843
109.105
112.512
116.048
119.7
123.448
127.272
131.15
135.06
138.98
142.887
146.761
150.579
154.318
157.957
161.475
164.852
168.068
171.099
173.926
176.528
178.885
180.98
182.793
184.311
185.518
186.401
186.952
187.16
187.02
186.525
185.674
184.464
182.897
180.974
178.699
176.078
173.118
169.829
166.221
162.306
158.099
153.615
148.869
143.88
138.666
133.246
127.642
121.872
115.959
109.925
103.792
97.581
91.314
85.014
78.702
72.399
66.125
59.901
53.745
47.675
41.709
35.863
30.152
24.591
19.191
13.966
8.925
4.078
-0.566
-5.0
-9.22
-13.219
-16.996
-20.547
-23.873
-26.973
-29.848
-32.501
-34.936
-37.156
-39.168
-40.976
-42.588
-44.01
-45.252
-46.321
-47.226
-47.977
-48.582
-49.051
-49.394
-49.621
-49.74
-49.762
-49.695
-49.549
-49.333
-49.055
-48.723
-48.345
-47.928
-47.48
-47.006
-46.512
-46.004
-45.488
-44.967
-44.445
-43.927
-43.414
-42.911
-42.417
-41.937
-41.47
-41.018
-40.582
-40.161
-39.756
-39.367
-38.993
-38.634
-38.289
-37.957
-37.638
-37.33
-37.033
-36.746
-36.467
-36.197
-35.933
-35.677
-35.426
-35.182
-34.943
-34.71
-34.482
-34.261
-34.045
-33.836
-33.634
-33.44
-33.255
-33.079
-32.914
-32.762
-32.623
-32.498
-32.39
-32.299
-32.226
-32.175
-32.145
-32.137
-32.155
-32.198
-32.268
-32.367
-32.494
-32.651
-32.839
-33.056
-33.304
-33.581
-33.887
-34.221
-34.581
-34.966
-35.373
-35.801
-36.247
-36.709
-37.182
-37.665
-38.154
-38.644
-39.131
-39.612
-40.081
-40.535
-40.967
-41.375
-41.752
-42.094
-42.395
-42.651
-42.857
-43.007
-43.097
-43.122
-43.077
-42.959
-42.765
-42.491
-42.137
-41.701
-41.183
-40.585
-39.907
-39.151
-38.32
-37.417
-36.446
-35.41
-34.316
-33.168
-31.971
-30.732
-29.46
-28.163
-26.85
-25.528
-24.206
-22.893
-21.6
-20.335
-19.109
-17.925
-16.793
-15.72
-14.716
-13.791
-12.954
-12.204
-11.542
-10.967
-10.476
-10.064
-9.721
-9.427
-9.166
-8.919
-8.676
-8.429
-8.17
-7.886
-7.564
-7.182
-6.732
-6.216
-5.636
-4.994
-4.302
-3.57
-2.834
-2.148
-1.569
-1.156
-0.961
-1.018
-1.369
-2.045
-3.087
-4.549
-6.476
-8.9
-11.844
-15.311
-19.316
-23.904
-29.032
-34.531
-40.136
-45.473
-50.21
-54.141
-57.026
-58.522
-58.419
-56.764
-53.932
-50.632
-47.504
-44.863
-42.974
-42.265
-43.065
-45.048
-47.053
-47.42
-44.462
-37.737
-27.908
-15.127
0.747
20.593
46.133
78.435
117.692
163.133
212.811
262.816
308.101
343.429
362.054
358.285
328.445
270.641
188.715
89.88
-18.362
-129.149
-241.59
-356.268
-468.926
-580.655
-691.329
-774.607
-805.154
-799.694
-781.985
-750.799
-704.995
-650.556
-588.568
-518.401
-443.111
-368.82
-301.093
-243.672
-197.456
-160.196
-130.032
-105.736
-86.76
-73.912
-66.521
-62.775
-60.727
-57.965
-53.308
-46.816
-38.69
-29.384
-19.591
-9.937
-1.273
5.39
9.661
11.644
11.62
10.09
7.553
4.439
1.301
-1.245
-2.834
-3.314
-2.677
-1.061
1.418
4.68
8.598
13.019
17.806
22.831
27.987
33.198
38.382
43.439
48.273
52.788
56.897
60.561
63.771
66.538
68.89
70.865
72.501
73.853
74.985
75.957
76.827
77.644
78.453
79.3
80.237
81.311
82.568
84.038
85.735
87.667
89.837
92.24
94.872
97.719
100.761
103.982
107.368
110.903
114.575
118.368
122.261
126.234
130.265
134.334
138.42
142.503
146.56
150.571
154.515
158.372
162.122
165.745
169.219
172.523
175.635
178.534
181.203
183.622
185.772
187.64
189.209
190.468
191.406
192.015
192.286
192.215
191.797
191.03
189.914
188.45
186.64
184.489
182.003
179.189
176.058
172.62
168.887
164.873
160.592
156.061
151.296
146.316
141.138
135.783
130.271
124.622
118.857
112.998
107.065
101.079
95.063
89.036
83.018
77.031
71.091
65.218
59.429
53.742
48.171
42.731
37.437
32.302
27.337
22.553
17.959
13.565
9.378
5.402
1.644
-1.892
-5.205
-8.294
-11.156
-13.795
-16.211
-18.407
-20.388
-22.157
-23.722
-25.088
-26.263
-27.254
-28.07
-28.72
-29.213
-29.559
-29.767
-29.848
-29.812
-29.669
-29.428
-29.101
-28.696
-28.224
-27.694
-27.115
-26.496
-25.846
-25.171
-24.48
-23.78
-23.076
-22.376
-21.685
-21.007
-20.347
-19.709
-19.097
-18.512
-17.957
-17.435
-16.946
-16.491
-16.071
-15.685
-15.333
-15.015
-14.729
-14.474
-14.248
-14.051
-13.88
-13.733
-13.608
-13.503
-13.416
-13.346
-13.289
-13.244
-13.21
-13.185
-13.166
-13.154
-13.146
-13.142
-13.141
-13.142
-13.144
-13.147
-13.151
-13.155
-13.161
-13.168
-13.178
-13.19
-13.206
-13.227
-13.253
-13.287
-13.329
-13.38
-13.443
-13.519
-13.608
-13.713
-13.835
-13.974
-14.132
-14.31
-14.507
-14.724
-14.961
-15.218
-15.493
-15.785
-16.094
-16.417
-16.753
-17.1
-17.455
-17.817
-18.181
-18.545
-18.906
-19.26
-19.603
-19.931
-20.24
-20.525
-20.782
-21.008
-21.196
-21.343
-21.445
-21.495
-21.491
-21.428
-21.302
-21.109
-20.847
-20.513
-20.106
-19.625
-19.07
-18.442
-17.742
-16.974
-16.14
-15.243
-14.288
-13.28
-12.225
-11.127
-9.991
-8.825
-7.636
-6.432
-5.221
-4.011
-2.812
-1.631
-0.478
0.637
1.706
2.721
3.677
4.567
5.388
6.129
6.783
7.344
7.812
8.19
8.481
8.689
8.821
8.889
8.915
8.921
8.926
8.941
8.973
9.029
9.12
9.267
9.488
9.792
10.181
10.647
11.188
11.799
12.47
13.164
13.82
14.371
14.761
14.95
14.917
14.634
14.062
13.14
11.811
10.029
7.763
5.016
1.762
-2.058
-6.428
-11.235
-16.233
-21.047
-25.347
-28.929
-31.558
-32.948
-32.927
-31.429
-28.729
-25.501
-22.338
-19.638
-17.761
-17.013
-17.569
-19.533
-22.166
-23.746
-22.712
-17.658
-8.112
4.888
20.809
39.792
62.412
91.061
127.502
171.368
221.377
273.253
320.942
359.266
382.347
384.924
363.823
316.828
244.866
152.991
47.635
-64.573
-179.427
-296.181
-411.09
-522.59
-637.836
-742.686
-797.471
-796.169
-771.829
-739.082
-690.538
-628.361
-561.353
-492.089
-421.804
-353.952
-290.848
-234.429
-185.682
-143.678
-108.369
-79.641
-57.068
-41.178
-31.309
-25.716
-22.718
-20.224
-16.618
-11.512
-5.026
2.598
10.844
19.13
26.917
33.445
38.0
40.423
40.901
39.759
37.509
34.632
31.545
28.769
26.808
25.914
26.167
27.522
29.823
32.948
36.8
41.233
46.089
51.227
56.517
61.86
67.182
72.388
77.378
82.054
86.321
90.13
93.467
96.342
98.782
100.824
102.509
103.891
105.036
106.006
106.858
107.646
108.414
109.211
110.088
111.094
112.278
113.672
115.292
117.148
119.242
121.571
124.131
126.908
129.884
133.043
136.371
139.854
143.481
147.235
151.097
155.047
159.065
163.13
167.223
171.323
175.408
179.459
183.454
187.372
191.195
194.902
198.469
201.876
205.099
208.116
210.909
213.455
215.737
217.737
219.437
220.826
221.889
222.615
222.996
223.023
222.691
221.994
220.931
219.499
217.7
215.536
213.012
210.133
206.907
203.343
199.452
195.246
190.739
185.945
180.881
175.564
170.013
164.246
158.284
152.147
145.857
139.435
132.902
126.282
119.596
112.865
106.112
99.358
92.622
85.925
79.286
72.723
66.255
59.898
53.667
47.579
41.645
35.88
30.294
24.898
19.702
14.712
9.936
5.38
1.046
-3.061
-6.94
-10.589
-14.011
-17.205
-20.175
-22.924
-25.457
-27.779
-29.895
-31.813
-33.539
-35.083
-36.451
-37.652
-38.696
-39.592
-40.348
-40.973
-41.478
-41.871
-42.161
-42.358
-42.469
-42.503
-42.468
-42.373
-42.224
-42.028
-41.792
-41.522
-41.224
-40.904
-40.565
-40.213
-39.852
-39.485
-39.117
-38.748
-38.384
-38.025
-37.673
-37.331
-37.0
-36.68
-36.374
-36.081
-35.804
-35.541
-35.294
-35.064
-34.849
-34.652
-34.472
-34.31
-34.165
-34.039
-33.931
-33.841
-33.771
-33.721
-33.69
-33.679
-33.689
-33.719
-33.77
-33.842
-33.935
-34.05
-34.186
-34.343
-34.521
-34.72
-34.94
-35.18
-35.439
-35.718
-36.016
-36.333
-36.667
-37.017
-37.383
-37.765
-38.16
-38.568
-38.989
-39.42
-39.86
-40.31
-40.767
-41.232
-41.702
-42.177
-42.656
-43.139
-43.624
-44.112
-44.602
-45.093
-45.586
-46.08
-46.575
-47.072
-47.57
-48.07
-48.571
-49.073
-49.577
-50.08
-50.584
-51.088
-51.59
-52.09
-52.588
-53.083
-53.573
-54.057
-54.534
-55.002
-55.46
-55.904
-56.334
-56.745
-57.137
-57.505
-57.847
-58.159
-58.439
-58.681
-58.883
-59.041
-59.15
-59.205
-59.204
-59.141
-59.013
-58.817
-58.551
-58.211
-57.797
-57.308
-56.744
-56.106
-55.395
-54.612
-53.759
-52.839
-51.854
-50.808
-49.705
-48.549
-47.345
-46.1
-44.823
-43.522
-42.205
-40.879
-39.554
-38.238
-36.941
-35.672
-34.437
-33.246
-32.108
-31.034
-30.037
-29.125
-28.302
-27.569
-26.926
-26.367
-25.885
-25.469
-25.105
-24.778
-24.479
-24.196
-23.924
-23.653
-23.372
-23.068
-22.725
-22.329
-21.878
-21.373
-20.817
-20.23
-19.635
-19.06
-18.549
-18.143
-17.876
-17.789
-17.923
-18.31
-18.991
-20.004
-21.371
-23.129
-25.317
-27.964
-31.099
-34.722
-38.789
-43.275
-48.185
-53.438
-58.88
-64.25
-69.146
-73.244
-76.352
-78.222
-78.548
-77.183
-74.198
-70.007
-65.437
-61.179
-57.622
-55.153
-54.15
-54.824
-56.795
-58.718
-58.707
-55.062
-47.231
-36.075
-22.188
-5.248
15.753
43.151
78.577
121.065
168.836
218.573
264.786
303.048
328.2
333.525
314.99
269.891
198.349
106.454
1.445
-110.069
-223.534
-338.689
-452.379
-561.974
-674.465
-777.888
-832.081
-829.714
-806.652
-778.897
-736.674
-679.418
-614.218
-543.906
-470.678
-399.106
-332.946
-274.605
-224.888
-182.348
-146.278
-116.51
-92.777
-76.048
-66.174
-61.218
-59.205
-57.86
-55.31
-51.126
-45.477
-38.467
-30.484
-22.195
-14.215
-7.368
-2.479
0.306
1.209
0.522
-1.264
-3.658
-6.25
-8.509
-9.907
-10.213
-9.367
-7.423
-4.555
-0.886
3.485
8.408
13.721
19.282
24.96
30.653
36.29
41.78
47.024
51.929
56.406
60.41
63.931
66.983
69.595
71.807
73.657
75.2
76.499
77.616
78.609
79.529
80.419
81.329
82.306
83.399
84.653
86.098
87.749
89.616
91.7
93.997
96.503
99.206
102.088
105.136
108.335
111.674
115.141
118.722
122.399
126.156
129.972
133.829
137.711
141.599
145.474
149.317
153.111
156.838
160.48
164.019
167.435
170.708
173.82
176.75
179.481
181.996
184.277
186.31
188.079
189.573
190.782
191.695
192.305
192.604
192.588
192.252
191.595
190.615
189.313
187.692
185.755
183.506
180.953
178.103
174.966
171.552
167.871
163.939
159.767
155.371
150.766
145.969
140.996
135.866
130.597
125.207
119.715
114.14
108.501
102.817
97.106
91.388
85.679
79.999
74.362
68.787
63.289
57.882
52.583
47.403
42.357
37.456
32.711
28.133
23.731
19.513
15.486
11.656
8.029
4.608
1.397
-1.604
-4.392
-6.968
-9.333
-11.489
-13.439
-15.188
-16.739
-18.098
-19.271
-20.266
-21.088
-21.747
-22.249
-22.605
-22.821
-22.908
-22.875
-22.73
-22.484
-22.146
-21.725
-21.23
-20.671
-20.057
-19.396
-18.697
-17.968
-17.217
-16.451
-15.679
-14.905
-14.138
-13.382
-12.642
-11.925
-11.234
-10.573
-9.945
-9.354
-8.802
-8.29
-7.821
-7.396
-7.016
-6.68
-6.389
-6.143
-5.942
-5.784
-5.669
-5.594
-5.56
-5.564
-5.604
-5.678
-5.784
-5.921
-6.084
-6.273
-6.484
-6.716
-6.965
-7.229
-7.506
-7.792
-8.086
-8.385
-8.687
-8.99
-9.291
-9.589
-9.882
-10.169
-10.447
-10.717
-10.975
-11.223
-11.458
-11.681
-11.89
-12.085
-12.266
-12.433
-12.587
-12.726
-12.853
-12.967
-13.069
-13.16
-13.242
-13.316
-13.382
-13.442
-13.499
-13.553
-13.606
-13.66
-13.716
-13.778
-13.846
-13.921
-14.006
-14.101
-14.208
-14.327
-14.459
-14.604
-14.763
-14.934
-15.118
-15.314
-15.522
-15.739
-15.966
-16.2
-16.439
-16.682
-16.925
-17.166
-17.402
-17.629
-17.845
-18.045
-18.226
-18.383
-18.514
-18.613
-18.676
-18.699
-18.678
-18.607
-18.484
-18.304
-18.064
-17.762
-17.396
-16.964
-16.466
-15.904
-15.277
-14.588
-13.837
-13.027
-12.162
-11.245
-10.279
-9.268
-8.216
-7.13
-6.017
-4.883
-3.736
-2.584
-1.433
-0.292
0.831
1.926
2.986
4.007
4.981
5.902
6.762
7.549
8.257
8.886
9.437
9.912
10.314
10.648
10.925
11.165
11.386
11.602
11.826
12.06
12.314
12.597
12.923
13.31
13.765
14.282
14.857
15.485
16.156
16.856
17.551
18.184
18.701
19.047
19.177
19.062
18.666
17.958
16.899
15.441
13.548
11.196
8.364
5.051
1.242
-3.1
-7.925
-13.073
-18.3
-23.258
-27.639
-31.257
-33.886
-35.221
-35.079
-33.499
-30.818
-27.726
-24.856
-22.468
-20.787
-20.198
-20.923
-22.929
-25.45
-26.654
-24.806
-18.829
-8.521
5.081
21.12
39.259
59.714
84.579
115.838
154.305
199.96
248.876
294.814
331.575
351.312
348.013
318.645
261.99
182.209
86.7
-17.254
-123.341
-230.204
-338.896
-445.677
-548.969
-654.581
-747.579
-790.662
-781.38
-753.545
-719.331
-669.654
-606.483
-538.365
-469.322
-402.293
-340.019
-283.825
-233.689
-188.617
-148.599
-114.394
-86.715
-66.502
-53.562
-46.217
-42.444
-39.967
-36.822
-32.237
-26.168
-18.77
-10.391
-1.571
7.132
14.929
20.884
24.645
26.283
26.044
24.408
21.844
18.757
15.679
13.195
11.65
11.197
11.848
13.47
15.954
19.214
23.119
27.514
32.254
37.217
42.302
47.431
52.526
57.486
62.219
66.634
70.654
74.237
77.375
80.08
82.378
84.309
85.915
87.249
88.374
89.349
90.229
91.064
91.897
92.773
93.742
94.848
96.135
97.63
99.349
101.299
103.48
105.89
108.522
111.364
114.396
117.603
120.969
124.481
128.126
131.888
135.747
139.682
143.674
147.701
151.745
155.784
159.797
163.764
167.664
171.476
175.181
178.76
182.189
185.447
188.514
191.368
193.989
196.359
198.459
200.273
201.786
202.985
203.858
204.396
204.59
204.432
203.919
203.047
201.814
200.221
198.269
195.961
193.303
190.301
186.965
183.304
179.33
175.056
170.496
165.666
160.583
155.264
149.73
143.999
138.091
132.029
125.833
119.526
113.131
106.668
100.161
93.632
87.102
80.593
74.126
67.72
61.396
55.171
49.064
43.091
37.268
31.611
26.133
20.847
15.764
10.894
6.246
1.829
-2.352
-6.292
-9.988
-13.435
-16.635
-19.585
-22.289
-24.749
-26.967
-28.949
-30.702
-32.23
-33.543
-34.647
-35.554
-36.271
-36.81
-37.181
-37.395
-37.463
-37.397
-37.208
-36.907
-36.508
-36.02
-35.455
-34.824
-34.138
-33.407
-32.641
-31.849
-31.04
-30.223
-29.405
-28.594
-27.796
-27.017
-26.262
-25.537
-24.845
-24.19
-23.575
-23.001
-22.471
-21.985
-21.545
-21.15
-20.8
-20.495
-20.232
-20.012
-19.831
-19.688
-19.581
-19.507
-19.464
-19.45
-19.46
-19.494
-19.547
-19.619
-19.706
-19.805
-19.916
-20.036
-20.163
-20.296
-20.432
-20.571
-20.712
-20.854
-20.996
-21.138
-21.28
-21.421
-21.563
-21.706
-21.85
-21.996
-22.145
-22.299
-22.458
-22.625
-22.799
-22.984
-23.181
-23.39
-23.615
-23.855
-24.113
-24.389
-24.685
-25.0
-25.334
-25.689
-26.062
-26.455
-26.866
-27.293
-27.737
-28.195
-28.665
-29.145
-29.632
-30.124
-30.618
-31.11
-31.597
-32.074
-32.538
-32.985
-33.41
-33.809
-34.178
-34.511
-34.803
-35.051
-35.248
-35.39
-35.473
-35.493
-35.446
-35.33
-35.141
-34.88
-34.545
-34.138
-33.658
-33.106
-32.485
-31.797
-31.044
-30.231
-29.36
-28.437
-27.465
-26.45
-25.401
-24.324
-23.228
-22.121
-21.009
-19.902
-18.809
-17.738
-16.698
-15.696
-14.74
-13.837
-12.996
-12.23
-11.546
-10.944
-10.427
-9.99
-9.628
-9.338
-9.109
-8.922
-8.765
-8.621
-8.479
-8.333
-8.175
-7.993
-7.777
-7.507
-7.172
-6.775
-6.316
-5.805
-5.261
-4.697
-4.139
-3.644
-3.256
-3.024
-3.005
-3.226
-3.723
-4.539
-5.695
-7.233
-9.204
-11.632
-14.548
-17.968
-21.862
-26.236
-31.111
-36.387
-41.897
-47.371
-52.419
-56.751
-60.185
-62.478
-63.326
-62.567
-60.292
-56.927
-53.192
-49.693
-46.733
-44.586
-43.695
-44.36
-46.189
-47.988
-48.145
-45.084
-38.448
-28.863
-16.399
-0.981
18.017
41.949
71.635
107.298
148.632
194.121
239.89
280.675
310.038
320.319
305.788
263.582
194.682
105.384
4.368
-101.234
-207.484
-315.337
-426.248
-534.263
-637.835
-737.178
-805.995
-820.801
-801.713
-772.437
-729.998
-672.289
-607.259
-540.263
-473.632
-409.839
-350.499
-295.718
-245.105
-198.852
-157.914
-123.637
-96.994
-78.148
-66.292
-59.472
-55.506
-52.548
-49.019
-44.308
-38.441
-31.601
-24.204
-16.501
-8.919
-1.657
5.093
10.27
13.466
14.133
11.649
7.46
2.792
-1.249
-3.157
-3.309
-2.271
-0.223
2.255
5.283
9.074
13.434
18.245
23.347
28.555
33.809
39.068
44.229
49.189
53.849
58.111
61.915
65.243
68.098
70.505
72.503
74.138
75.462
76.537
77.425
78.184
78.868
79.521
80.193
80.934
81.795
82.829
84.069
85.534
87.234
89.17
91.341
93.741
96.357
99.172
102.168
105.331
108.647
112.104
115.688
119.378
123.155
126.996
130.883
134.795
138.711
142.611
146.474
150.279
154.007
157.639
161.154
164.531
167.749
170.787
173.623
176.24
178.617
180.738
182.586
184.146
185.406
186.355
186.984
187.285
187.252
186.881
186.168
185.114
183.718
181.984
179.916
177.518
174.8
171.769
168.437
164.815
160.918
156.759
152.355
147.722
142.88
137.845
132.639
127.281
121.791
116.191
110.502
104.744
98.94
93.11
87.275
81.455
75.67
69.939
64.28
58.71
53.246
47.904
42.698
37.641
32.748
28.028
23.493
19.151
15.011
11.079
7.36
3.86
0.58
-2.478
-5.312
-7.924
-10.315
-12.488
-14.446
-16.195
-17.74
-19.087
-20.244
-21.219
-22.019
-22.655
-23.136
-23.471
-23.671
-23.745
-23.705
-23.56
-23.322
-23.0
-22.605
-22.146
-21.634
-21.078
-20.487
-19.869
-19.234
-18.588
-17.939
-17.293
-16.657
-16.037
-15.437
-14.861
-14.315
-13.8
-13.32
-12.876
-12.472
-12.107
-11.784
-11.501
-11.259
-11.057
-10.895
-10.771
-10.684
-10.632
-10.614
-10.627
-10.668
-10.737
-10.829
-10.943
-11.076
-11.226
-11.39
-11.566
-11.751
-11.943
-12.141
-12.342
-12.545
-12.748
-12.95
-13.149
-13.346
-13.538
-13.726
-13.909
-14.088
-14.261
-14.429
-14.593
-14.753
-14.91
-15.064
-15.216
-15.368
-15.521
-15.676
-15.834
-15.998
-16.167
-16.345
-16.533
-16.731
-16.943
-17.168
-17.409
-17.667
-17.943
-18.238
-18.552
-18.887
-19.242
-19.618
-20.013
-20.427
-20.86
-21.308
-21.772
-22.249
-22.738
-23.235
-23.739
-24.246
-24.753
-25.258
-25.756
-26.244
-26.717
-27.171
-27.601
-28.004
-28.375
-28.708
-29.0
-29.245
-29.438
-29.576
-29.653
-29.665
-29.608
-29.477
-29.271
-28.986
-28.621
-28.175
-27.646
-27.038
-26.35
-25.586
-24.748
-23.838
-22.862
-21.824
-20.728
-19.581
-18.387
-17.152
-15.885
-14.594
-13.287
-11.974
-10.663
-9.363
-8.083
-6.832
-5.623
-4.462
-3.356
-2.311
-1.336
-0.438
0.371
1.086
1.707
2.234
2.671
3.02
3.286
3.482
3.627
3.739
3.837
3.933
4.032
4.145
4.284
4.464
4.703
5.011
5.384
5.821
6.319
6.87
7.463
8.067
8.626
9.087
9.389
9.488
9.346
8.926
8.195
7.112
5.624
3.693
1.282
-1.633
-5.055
-9.009
-13.542
-18.599
-24.014
-29.52
-34.729
-39.31
-43.062
-45.733
-47.001
-46.69
-44.869
-41.935
-38.646
-35.67
-33.271
-31.678
-31.31
-32.361
-34.701
-37.435
-38.59
-36.359
-29.704
-18.481
-3.575
14.355
35.104
59.034
87.992
123.289
165.185
213.023
262.299
307.023
341.488
358.258
351.886
319.384
258.964
174.396
73.123
-37.902
-152.207
-267.97
-385.434
-499.097
-608.817
-715.855
-794.324
-819.114
-808.333
-784.957
-746.205
-691.099
-627.706
-560.16
-489.436
-417.976
-349.255
-285.93
-230.413
-183.711
-144.991
-113.764
-89.192
-70.668
-58.489
-51.542
-47.987
-45.965
-43.209
-38.647
-32.36
-24.524
-15.607
-6.342
2.669
10.624
16.589
20.26
21.766
21.396
19.664
17.076
14.06
11.155
8.93
7.707
7.613
8.638
10.64
13.497
17.114
21.353
26.056
31.077
36.292
41.595
46.905
52.135
57.187
61.969
66.393
70.388
73.916
76.975
79.581
81.766
83.571
85.041
86.232
87.207
88.029
88.753
89.431
90.107
90.828
91.641
92.591
93.719
95.052
96.602
98.376
100.374
102.592
105.022
107.652
110.464
113.441
116.569
119.833
123.222
126.719
130.306
133.963
137.67
141.408
145.158
148.901
152.616
156.285
159.887
163.404
166.818
170.11
173.26
176.247
179.053
181.658
184.045
186.197
188.098
189.733
191.09
192.157
192.926
193.387
193.534
193.363
192.868
192.05
190.906
189.439
187.65
185.544
183.126
180.403
177.384
174.078
170.496
166.651
162.557
158.226
153.676
148.921
143.979
138.868
133.606
128.21
122.701
117.098
111.418
105.683
99.911
94.12
88.329
82.557
76.821
71.137
65.522
59.993
54.563
49.247
44.058
39.009
34.113
29.378
24.817
20.436
16.244
12.247
8.452
4.863
1.484
-1.684
-4.639
-7.379
-9.906
-12.221
-14.327
-16.227
-17.925
-19.425
-20.734
-21.858
-22.803
-23.577
-24.188
-24.644
-24.953
-25.125
-25.168
-25.092
-24.906
-24.62
-24.243
-23.784
-23.252
-22.657
-22.008
-21.314
-20.582
-19.82
-19.038
-18.241
-17.437
-16.631
-15.831
-15.042
-14.268
-13.515
-12.786
-12.085
-11.415
-10.779
-10.179
-9.617
-9.094
-8.612
-8.17
-7.77
-7.411
-7.092
-6.813
-6.573
-6.371
-6.206
-6.075
-5.977
-5.91
-5.872
-5.861
-5.874
-5.911
-5.968
-6.043
-6.135
-6.241
-6.359
-6.488
-6.626
-6.771
-6.921
-7.076
-7.235
-7.395
-7.556
-7.718
-7.88
-8.041
-8.202
-8.362
-8.52
-8.677
-8.834
-8.99
-9.147
-9.304
-9.463
-9.625
-9.79
-9.96
-10.135
-10.318
-10.508
-10.707
-10.916
-11.136
-11.369
-11.614
-11.874
-12.148
-12.438
-12.743
-13.065
-13.402
-13.754
-14.122
-14.503
-14.898
-15.303
-15.719
-16.143
-16.573
-17.008
-17.444
-17.88
-18.312
-18.738
-19.153
-19.556
-19.941
-20.305
-20.644
-20.955
-21.233
-21.475
-21.676
-21.833
-21.941
-21.996
-21.996
-21.936
-21.812
-21.623
-21.366
-21.039
-20.642
-20.173
-19.633
-19.023
-18.347
-17.606
-16.803
-15.941
-15.026
-14.061
-13.053
-12.006
-10.925
-9.816
-8.688
-7.548
-6.405
-5.266
-4.141
-3.036
-1.961
-0.925
0.063
0.996
1.868
2.674
3.407
4.059
4.622
5.091
5.467
5.751
5.947
6.059
6.093
6.062
5.985
5.881
5.769
5.662
5.566
5.494
5.458
5.473
5.558
5.723
5.966
6.287
6.681
7.145
7.666
8.214
8.734
9.175
9.477
9.593
9.485
9.114
8.445
7.436
6.031
4.192
1.881
-0.93
-4.246
-8.092
-12.514
-17.463
-22.778
-28.198
-33.346
-37.896
-41.648
-44.354
-45.692
-45.479
-43.774
-40.956
-37.758
-34.829
-32.42
-30.749
-30.233
-31.085
-33.204
-35.715
-36.653
-34.233
-27.451
-16.268
-1.708
15.548
35.352
58.296
86.552
121.564
163.608
211.785
261.096
305.355
338.879
354.521
347.598
315.368
255.796
172.57
72.566
-37.115
-149.178
-262.258
-376.99
-488.894
-599.742
-710.728
-794.493
-823.809
-815.48
-793.009
-753.663
-696.779
-631.404
-561.861
-489.309
-416.558
-347.364
-284.577
-230.37
-185.228
-147.802
-117.324
-93.045
-74.645
-62.695
-56.191
-53.242
-51.873
-49.715
-45.669
-39.827
-32.379
-23.794
-14.801
-5.993
1.821
7.692
11.304
12.779
12.398
10.669
8.091
5.087
2.19
-0.026
-1.24
-1.324
-0.29
1.715
4.569
8.177
12.4
17.079
22.07
27.251
32.515
37.784
42.975
47.99
52.74
57.138
61.111
64.624
67.673
70.274
72.458
74.268
75.745
76.945
77.931
78.762
79.495
80.18
80.858
81.576
82.381
83.316
84.424
85.729
87.247
88.981
90.934
93.101
95.477
98.048
100.797
103.708
106.768
109.963
113.281
116.708
120.224
123.811
127.45
131.122
134.81
138.493
142.152
145.769
149.325
152.8
156.177
159.438
162.563
165.532
168.325
170.925
173.312
175.471
177.384
179.038
180.418
181.513
182.314
182.811
182.998
182.868
182.418
181.645
180.548
179.128
177.386
175.325
172.952
170.273
167.295
164.027
160.482
156.67
152.605
148.301
143.774
139.04
134.115
129.017
123.765
118.378
112.874
107.274
101.596
95.862
90.089
84.299
78.509
72.739
67.006
61.329
55.724
50.207
44.794
39.5
34.339
29.323
24.465
19.776
15.265
10.943
6.815
2.89
-0.827
-4.332
-7.621
-10.693
-13.545
-16.179
-18.596
-20.796
-22.785
-24.564
-26.14
-27.518
-28.705
-29.707
-30.532
-31.189
-31.685
-32.031
-32.235
-32.307
-32.256
-32.093
-31.827
-31.468
-31.025
-30.509
-29.929
-29.293
-28.611
-27.892
-27.143
-26.372
-25.587
-24.794
-24.0
-23.21
-22.431
-21.666
-20.92
-20.198
-19.501
-18.833
-18.197
-17.593
-17.024
-16.49
-15.991
-15.53
-15.104
-14.713
-14.358
-14.037
-13.749
-13.493
-13.267
-13.07
-12.901
-12.757
-12.637
-12.539
-12.461
-12.402
-12.36
-12.333
-12.32
-12.319
-12.328
-12.347
-12.374
-12.409
-12.45
-12.496
-12.547
-12.602
-12.661
-12.723
-12.789
-12.857
-12.929
-13.005
-13.083
-13.166
-13.253
-13.344
-13.44
-13.542
-13.649
-13.763
-13.883
-14.011
-14.148
-14.293
-14.448
-14.614
-14.79
-14.979
-15.18
-15.395
-15.623
-15.866
-16.125
-16.399
-16.69
-16.998
-17.323
-17.666
-18.027
-18.405
-18.801
-19.214
-19.644
-20.088
-20.547
-21.019
-21.502
-21.994
-22.495
-23.002
-23.514
-24.027
-24.539
-25.048
-25.55
-26.043
-26.523
-26.986
-27.43
-27.849
-28.242
-28.603
-28.929
-29.216
-29.459
-29.655
-29.798
-29.886
-29.913
-29.877
-29.774
-29.602
-29.358
-29.041
-28.65
-28.186
-27.65
-27.043
-26.367
-25.624
-24.817
-23.949
-23.024
-22.046
-21.019
-19.948
-18.839
-17.7
-16.539
-15.364
-14.182
-13.002
-11.833
-10.681
-9.558
-8.472
-7.427
-6.434
-5.498
-4.631
-3.843
-3.143
-2.531
-2.008
-1.57
-1.21
-0.925
-0.702
-0.522
-0.371
-0.233
-0.096
0.044
0.195
0.37
0.578
0.838
1.163
1.549
1.994
2.489
3.014
3.554
4.08
4.535
4.873
5.047
5.0
4.708
4.136
3.246
2.019
0.412
-1.619
-4.096
-7.05
-10.496
-14.404
-18.782
-23.645
-28.897
-34.377
-39.826
-44.851
-49.156
-52.552
-54.791
-55.575
-54.737
-52.348
-48.812
-44.877
-41.21
-38.11
-35.837
-34.841
-35.374
-37.322
-39.797
-40.868
-38.729
-32.314
-21.501
-7.238
9.771
29.183
51.34
78.397
111.958
152.655
200.019
249.012
292.996
325.585
338.958
328.362
291.933
229.005
144.149
44.547
-63.745
-175.105
-288.315
-403.635
-515.158
-622.757
-728.131
-805.13
-828.062
-815.488
-790.666
-749.731
-691.174
-623.763
-552.299
-479.15
-407.851
-341.016
-280.418
-226.89
-179.804
-139.253
-105.754
-79.463
-61.051
-50.17
-44.93
-43.225
-42.701
-41.324
-38.322
-33.668
-27.501
-20.2
-12.394
-4.707
2.026
6.874
9.533
10.13
8.954
6.516
3.329
-0.172
-3.437
-5.888
-7.231
-7.373
-6.347
-4.331
-1.457
2.168
6.395
11.053
15.993
21.084
26.215
31.31
36.269
40.988
45.367
49.312
52.772
55.733
58.206
60.224
61.826
63.058
63.977
64.645
65.128
65.484
65.77
66.032
66.323
66.693
67.193
67.872
68.763
69.883
71.241
72.839
74.673
76.738
79.023
81.51
84.184
87.031
90.037
93.193
96.482
99.887
103.389
106.968
110.606
114.284
117.983
121.683
125.365
129.009
132.597
136.109
139.527
142.829
145.994
149.0
151.829
154.46
156.874
159.054
160.982
162.644
164.026
165.116
165.904
166.38
166.538
166.37
165.874
165.047
163.887
162.394
160.572
158.423
155.954
153.17
150.08
146.695
143.024
139.082
134.88
130.435
125.763
120.879
115.802
110.55
105.142
99.598
93.938
88.182
82.351
76.464
70.544
64.609
58.679
52.774
46.913
41.115
35.396
29.774
24.264
18.884
13.646
8.565
3.654
-1.077
-5.616
-9.954
-14.082
-17.994
-21.684
-25.145
-28.376
-31.373
-34.135
-36.662
-38.954
-41.014
-42.844
-44.449
-45.832
-47.001
-47.961
-48.72
-49.286
-49.667
-49.872
-49.911
-49.794
-49.532
-49.133
-48.61
-47.973
-47.232
-46.399
-45.484
-44.498
-43.45
-42.352
-41.213
-40.042
-38.848
-37.641
-36.428
-35.217
-34.015
-32.829
-31.665
-30.528
-29.425
-28.358
-27.332
-26.35
-25.415
-24.53
-23.696
-22.914
-22.185
-21.509
-20.886
-20.316
-19.797
-19.33
-18.911
-18.539
-18.213
-17.93
-17.688
-17.483
-17.315
-17.179
-17.073
-16.994
-16.939
-16.907
-16.893
-16.897
-16.914
-16.943
-16.982
-17.028
-17.08
-17.136
-17.195
-17.254
-17.314
-17.371
-17.427
-17.481
-17.531
-17.579
-17.623
-17.665
-17.704
-17.741
-17.776
-17.811
-17.846
-17.883
-17.921
-17.963
-18.01
-18.062
-18.122
-18.189
-18.265
-18.351
-18.448
-18.554
-18.672
-18.8
-18.939
-19.087
-19.245
-19.412
-19.586
-19.767
-19.954
-20.143
-20.334
-20.525
-20.712
-20.893
-21.065
-21.224
-21.369
-21.495
-21.599
-21.678
-21.727
-21.742
-21.721
-21.658
-21.55
-21.393
-21.184
-20.92
-20.597
-20.215
-19.771
-19.266
-18.698
-18.07
-17.383
-16.639
-15.838
-14.984
-14.081
-13.132
-12.141
-11.11
-10.046
-8.954
-7.841
-6.714
-5.581
-4.449
-3.325
-2.216
-1.132
-0.081
0.93
1.896
2.812
3.67
4.463
5.179
5.815
6.369
6.844
7.241
7.565
7.822
8.023
8.188
8.334
8.48
8.634
8.803
8.993
9.216
9.484
9.815
10.214
10.679
11.204
11.785
12.413
13.074
13.734
14.337
14.829
15.152
15.264
15.131
14.717
13.995
12.924
11.459
9.564
7.213
4.384
1.079
-2.723
-7.062
-11.887
-17.039
-22.269
-27.218
-31.58
-35.164
-37.738
-38.996
-38.759
-37.077
-34.309
-31.151
-28.236
-25.824
-24.129
-23.54
-24.276
-26.268
-28.763
-29.972
-28.148
-22.218
-11.877
2.093
18.848
37.876
59.088
84.143
114.987
152.888
198.404
247.806
294.575
331.795
350.714
345.211
312.77
252.733
170.172
73.108
-31.326
-137.053
-243.444
-351.699
-458.43
-563.447
-665.492
-742.216
-771.823
-768.11
-750.726
-716.948
-665.936
-604.725
-536.728
-465.978
-397.392
-334.159
-278.398
-229.395
-185.313
-145.945
-111.726
-83.655
-63.027
-49.68
-42.009
-37.957
-35.207
-31.833
-27.063
-20.846
-13.315
-4.795
4.173
13.05
21.061
27.277
31.35
33.343
33.485
32.246
30.093
27.424
24.767
22.701
21.56
21.494
22.51
24.473
27.272
30.819
34.979
39.594
44.52
49.635
54.836
60.05
65.195
70.173
74.892
79.264
83.217
86.714
89.748
92.333
94.499
96.287
97.742
98.918
99.88
100.687
101.396
102.058
102.716
103.418
104.212
105.144
106.257
107.578
109.122
110.897
112.904
115.141
117.601
120.272
123.136
126.178
129.382
132.736
136.226
139.835
143.545
147.336
151.185
155.074
158.982
162.888
166.772
170.611
174.385
178.073
181.656
185.112
188.419
191.557
194.502
197.235
199.735
201.985
203.965
205.66
207.055
208.137
208.896
209.322
209.407
209.145
208.533
207.567
206.248
204.576
202.555
200.189
197.485
194.45
191.095
187.43
183.469
179.226
174.716
169.955
164.962
159.756
154.355
148.78
143.053
137.194
131.226
125.17
119.049
112.884
106.698
100.511
94.346
88.222
82.159
76.176
70.292
64.522
58.885
53.394
48.065
42.91
37.94
33.167
28.6
24.247
20.114
16.209
12.533
9.092
5.886
2.917
0.182
-2.318
-4.588
-6.631
-8.452
-10.057
-11.452
-12.646
-13.646
-14.462
-15.101
-15.576
-15.894
-16.068
-16.108
-16.024
-15.827
-15.528
-15.139
-14.668
-14.127
-13.526
-12.874
-12.181
-11.455
-10.705
-9.94
-9.165
-8.388
-7.616
-6.855
-6.109
-5.382
-4.681
-4.006
-3.363
-2.752
-2.177
-1.637
-1.136
-0.671
-0.245
0.143
0.495
0.81
1.09
1.338
1.553
1.739
1.896
2.028
2.136
2.223
2.29
2.339
2.374
2.395
2.404
2.404
2.397
2.382
2.363
2.34
2.314
2.286
2.256
2.226
2.196
2.165
2.134
2.102
2.069
2.035
1.998
1.959
1.916
1.869
1.815
1.755
1.686
1.608
1.519
1.418
1.303
1.172
1.025
0.86
0.676
0.471
0.245
-0.004
-0.277
-0.575
-0.897
-1.245
-1.619
-2.019
-2.445
-2.896
-3.371
-3.87
-4.39
-4.931
-5.49
-6.065
-6.654
-7.253
-7.861
-8.473
-9.088
-9.701
-10.308
-10.906
-11.491
-12.058
-12.604
-13.122
-13.61
-14.062
-14.474
-14.842
-15.161
-15.427
-15.634
-15.781
-15.861
-15.873
-15.812
-15.677
-15.465
-15.175
-14.806
-14.359
-13.835
-13.235
-12.564
-11.822
-11.015
-10.145
-9.219
-8.241
-7.216
-6.149
-5.047
-3.917
-2.766
-1.602
-0.435
0.73
1.882
3.014
4.118
5.183
6.202
7.169
8.079
8.927
9.704
10.402
11.015
11.543
11.989
12.356
12.648
12.869
13.033
13.157
13.261
13.364
13.478
13.611
13.772
13.969
14.22
14.545
14.949
15.432
15.986
16.601
17.272
17.986
18.705
19.373
19.93
20.308
20.465
20.364
19.96
19.224
18.105
16.54
14.49
11.92
8.813
5.179
0.998
-3.77
-9.054
-14.667
-20.327
-25.64
-30.303
-34.137
-36.898
-38.27
-38.079
-36.414
-33.692
-30.622
-27.796
-25.482
-23.932
-23.583
-24.717
-26.949
-29.101
-29.561
-26.768
-20.386
-11.086
0.967
15.712
33.677
56.276
84.655
119.397
160.325
205.838
251.467
291.445
319.619
328.578
313.249
271.268
202.602
112.751
9.465
-101.068
-214.033
-329.402
-447.326
-560.258
-666.31
-765.297
-831.206
-841.02
-814.956
-778.277
-729.154
-666.721
-600.374
-534.281
-469.457
-407.242
-347.765
-291.849
-240.132
-193.22
-152.731
-119.747
-94.687
-77.58
-67.397
-62.016
-59.267
-57.346
-54.706
-50.801
-45.757
-39.521
-32.314
-24.769
-17.45
-11.144
-6.706
-4.319
-3.791
-4.854
-7.025
-9.82
-12.838
-15.549
-17.411
-18.174
-17.76
-16.218
-13.718
-10.389
-6.328
-1.685
3.376
8.709
14.177
19.676
25.131
30.448
35.526
40.269
44.584
48.425
51.783
54.67
57.118
59.166
60.854
62.237
63.38
64.343
65.185
65.959
66.71
67.486
68.337
69.31
70.453
71.796
73.352
75.13
77.13
79.348
81.779
84.41
87.221
90.198
93.326
96.592
99.984
103.485
107.078
110.744
114.463
118.214
121.981
125.745
129.484
133.182
136.818
140.374
143.833
147.175
150.381
153.431
156.304
158.982
161.448
163.682
165.67
167.396
168.846
170.01
170.876
171.437
171.685
171.614
171.221
170.503
169.459
168.091
166.4
164.39
162.067
159.438
156.51
153.295
149.803
146.046
142.039
137.795
133.331
128.664
123.809
118.787
113.614
108.311
102.897
97.39
91.812
86.182
80.519
74.844
69.174
63.528
57.924
52.38
46.912
41.536
36.266
31.117
26.102
21.233
16.522
11.978
7.61
3.428
-0.563
-4.357
-7.949
-11.335
-14.513
-17.481
-20.241
-22.791
-25.135
-27.274
-29.212
-30.955
-32.506
-33.872
-35.059
-36.075
-36.928
-37.625
-38.175
-38.587
-38.869
-39.032
-39.084
-39.035
-38.893
-38.669
-38.37
-38.007
-37.586
-37.117
-36.608
-36.066
-35.499
-34.912
-34.313
-33.707
-33.1
-32.497
-31.901
-31.318
-30.75
-30.2
-29.672
-29.168
-28.688
-28.235
-27.81
-27.414
-27.046
-26.708
-26.399
-26.118
-25.866
-25.641
-25.442
-25.269
-25.121
-24.996
-24.893
-24.812
-24.75
-24.707
-24.681
-24.671
-24.677
-24.697
-24.73
-24.776
-24.833
-24.901
-24.98
-25.068
-25.166
-25.273
-25.388
-25.512
-25.644
-25.785
-25.933
-26.09
-26.254
-26.427
-26.607
-26.796
-26.992
-27.197
-27.41
-27.631
-27.861
-28.099
-28.347
-28.603
-28.869
-29.144
-29.429
-29.723
-30.027
-30.34
-30.663
-30.997
-31.339
-31.692
-32.054
-32.424
-32.803
-33.189
-33.582
-33.981
-34.384
-34.79
-35.198
-35.606
-36.013
-36.417
-36.816
-37.208
-37.591
-37.963
-38.321
-38.663
-38.987
-39.288
-39.564
-39.812
-40.029
-40.212
-40.358
-40.462
-40.523
-40.536
-40.498
-40.406
-40.256
-40.047
-39.775
-39.439
-39.037
-38.568
-38.033
-37.432
-36.767
-36.04
-35.251
-34.405
-33.504
-32.551
-31.551
-30.508
-29.425
-28.308
-27.162
-25.994
-24.812
-23.623
-22.433
-21.251
-20.083
-18.938
-17.825
-16.751
-15.72
-14.738
-13.811
-12.947
-12.156
-11.443
-10.806
-10.246
-9.758
-9.34
-8.987
-8.686
-8.418
-8.166
-7.912
-7.643
-7.355
-7.039
-6.685
-6.278
-5.802
-5.249
-4.623
-3.928
-3.17
-2.356
-1.501
-0.639
0.173
0.878
1.415
1.734
1.799
1.568
1.011
0.084
-1.266
-3.079
-5.392
-8.23
-11.597
-15.517
-20.037
-25.1
-30.536
-36.07
-41.306
-45.911
-49.679
-52.356
-53.615
-53.284
-51.439
-48.49
-45.209
-42.269
-39.935
-38.446
-38.232
-39.479
-42.037
-44.967
-46.266
-44.155
-37.615
-26.503
-11.629
6.531
27.851
52.694
82.769
119.033
161.512
209.39
258.044
301.65
334.645
349.772
341.957
308.464
247.694
163.514
63.111
-46.938
-160.449
-275.871
-393.383
-507.044
-616.863
-724.525
-803.171
-826.673
-814.244
-790.022
-750.693
-694.795
-630.579
-562.191
-490.607
-418.437
-349.291
-285.927
-230.697
-184.421
-146.16
-115.374
-91.261
-73.304
-61.79
-55.547
-52.674
-51.265
-49.065
-45.014
-39.188
-31.758
-23.189
-14.235
-5.519
2.146
7.835
11.261
12.57
12.055
10.231
7.622
4.668
1.922
-0.035
-0.912
-0.607
0.852
3.3
6.616
10.702
15.41
20.573
26.046
31.699
37.427
43.153
48.776
54.188
59.285
63.964
68.169
71.879
75.098
77.853
80.178
82.112
83.71
85.034
86.146
87.105
87.965
88.77
89.573
90.425
91.378
92.485
93.78
95.282
97.002
98.943
101.104
103.482
106.064
108.834
111.777
114.879
118.128
121.515
125.024
128.64
132.342
136.113
139.934
143.786
147.651
151.51
155.345
159.135
162.864
166.513
170.064
173.496
176.789
179.921
182.874
185.627
188.163
190.462
192.509
194.289
195.787
196.992
197.894
198.483
198.751
198.692
198.303
197.578
196.519
195.123
193.393
191.332
188.945
186.239
183.22
179.899
176.287
172.394
168.235
163.823
159.175
154.306
149.235
143.978
138.555
132.985
127.288
121.483
115.592
109.634
103.63
97.599
91.562
85.537
79.544
73.6
67.724
61.931
56.239
50.663
45.218
39.917
34.773
29.798
25.003
20.397
15.988
11.785
7.793
4.018
0.463
-2.868
-5.975
-8.856
-11.512
-13.945
-16.156
-18.15
-19.932
-21.506
-22.878
-24.055
-25.046
-25.857
-26.497
-26.975
-27.3
-27.482
-27.53
-27.455
-27.266
-26.973
-26.587
-26.117
-25.573
-24.964
-24.3
-23.59
-22.843
-22.066
-21.269
-20.458
-19.64
-18.823
-18.012
-17.214
-16.432
-15.673
-14.94
-14.237
-13.566
-12.931
-12.334
-11.777
-11.26
-10.785
-10.353
-9.963
-9.615
-9.31
-9.046
-8.822
-8.637
-8.49
-8.379
-8.303
-8.259
-8.247
-8.263
-8.306
-8.374
-8.465
-8.577
-8.707
-8.854
-9.015
-9.189
-9.374
-9.567
-9.768
-9.975
-10.187
-10.402
-10.618
-10.837
-11.055
-11.273
-11.491
-11.707
-11.921
-12.134
-12.345
-12.553
-12.761
-12.967
-13.172
-13.377
-13.581
-13.787
-13.995
-14.205
-14.418
-14.635
-14.858
-15.086
-15.321
-15.564
-15.816
-16.077
-16.349
-16.631
-16.925
-17.231
-17.548
-17.876
-18.215
-18.563
-18.921
-19.286
-19.657
-20.034
-20.414
-20.795
-21.175
-21.551
-21.922
-22.283
-22.633
-22.967
-23.283
-23.576
-23.844
-24.082
-24.287
-24.455
-24.582
-24.665
-24.698
-24.679
-24.604
-24.468
-24.27
-24.006
-23.675
-23.275
-22.805
-22.264
-21.655
-20.979
-20.238
-19.434
-18.57
-17.65
-16.679
-15.661
-14.601
-13.503
-12.373
-11.219
-10.048
-8.868
-7.688
-6.515
-5.359
-4.228
-3.129
-2.072
-1.067
-0.117
0.768
1.583
2.32
2.967
3.52
3.979
4.343
4.619
4.813
4.93
4.983
4.991
4.969
4.934
4.902
4.879
4.875
4.905
4.98
5.123
5.346
5.646
6.024
6.47
6.968
7.508
8.064
8.58
9.013
9.314
9.427
9.322
8.963
8.3
7.311
5.948
4.161
1.924
-0.798
-4.022
-7.722
-11.907
-16.599
-21.698
-27.031
-32.324
-37.178
-41.293
-44.482
-46.493
-47.005
-45.85
-43.133
-39.305
-35.116
-31.176
-27.786
-25.226
-23.974
-24.384
-26.027
-27.57
-27.295
-23.57
-16.134
-5.978
6.629
21.935
40.887
65.523
97.366
136.569
182.319
232.427
281.809
324.424
354.0
362.805
345.691
300.621
228.167
134.331
26.966
-87.307
-204.427
-323.714
-441.144
-555.256
-672.73
-776.625
-826.968
-821.726
-795.49
-760.708
-709.406
-644.726
-575.252
-504.192
-434.027
-367.551
-306.401
-251.337
-201.863
-157.986
-120.628
-90.457
-68.148
-53.496
-45.014
-40.707
-38.422
-36.334
-33.168
-28.476
-22.403
-15.158
-7.2
0.847
8.411
14.748
19.157
21.476
21.89
20.729
18.504
15.7
12.731
10.103
8.304
7.578
7.991
9.491
11.914
15.132
19.041
23.493
28.328
33.405
38.594
43.793
48.931
53.914
58.648
63.04
67.003
70.491
73.5
76.04
78.145
79.854
81.21
82.27
83.099
83.759
84.31
84.804
85.287
85.807
86.415
87.157
88.081
89.217
90.581
92.18
94.017
96.089
98.39
100.908
103.625
106.526
109.598
112.825
116.198
119.701
123.314
127.02
130.797
134.626
138.488
142.364
146.232
150.073
153.867
157.594
161.235
164.771
168.179
171.439
174.529
177.43
180.121
182.584
184.801
186.755
188.432
189.818
190.901
191.673
192.123
192.245
192.034
191.486
190.598
189.371
187.805
185.903
183.67
181.111
178.235
175.05
171.567
167.797
163.754
159.453
154.909
150.138
145.159
139.987
134.644
129.148
123.52
117.778
111.945
106.04
100.084
94.097
88.1
82.112
76.153
70.24
64.392
58.626
52.959
47.407
41.983
36.704
31.58
26.625
21.85
17.264
12.876
8.693
4.722
0.968
-2.565
-5.873
-8.956
-11.813
-14.443
-16.849
-19.033
-20.998
-22.75
-24.292
-25.631
-26.774
-27.729
-28.503
-29.104
-29.543
-29.827
-29.968
-29.974
-29.856
-29.624
-29.288
-28.858
-28.345
-27.759
-27.109
-26.405
-25.656
-24.871
-24.059
-23.228
-22.386
-21.54
-20.697
-19.862
-19.043
-18.244
-17.47
-16.725
-16.014
-15.339
-14.703
-14.109
-13.558
-13.051
-12.591
-12.177
-11.809
-11.487
-11.212
-10.982
-10.795
-10.652
-10.549
-10.487
-10.461
-10.472
-10.515
-10.59
-10.694
-10.823
-10.977
-11.153
-11.348
-11.56
-11.787
-12.026
-12.276
-12.535
-12.8
-13.07
-13.344
-13.619
-13.894
-14.168
-14.441
-14.71
-14.975
-15.236
-15.491
-15.741
-15.985
-16.222
-16.454
-16.679
-16.898
-17.112
-17.32
-17.524
-17.725
-17.922
-18.117
-18.311
-18.505
-18.7
-18.897
-19.098
-19.302
-19.513
-19.73
-19.955
-20.189
-20.433
-20.688
-20.955
-21.234
-21.526
-21.83
-22.147
-22.477
-22.818
-23.17
-23.532
-23.903
-24.283
-24.668
-25.059
-25.452
-25.846
-26.238
-26.626
-27.006
-27.376
-27.732
-28.07
-28.388
-28.682
-28.948
-29.182
-29.38
-29.539
-29.654
-29.72
-29.735
-29.695
-29.595
-29.433
-29.207
-28.914
-28.554
-28.125
-27.629
-27.066
-26.438
-25.747
-24.994
-24.183
-23.317
-22.399
-21.435
-20.427
-19.38
-18.302
-17.199
-16.08
-14.951
-13.821
-12.697
-11.587
-10.499
-9.442
-8.424
-7.451
-6.53
-5.668
-4.874
-4.159
-3.53
-2.986
-2.529
-2.154
-1.855
-1.625
-1.455
-1.324
-1.219
-1.125
-1.028
-0.923
-0.802
-0.652
-0.463
-0.214
0.106
0.496
0.958
1.481
2.048
2.647
3.251
3.804
4.266
4.589
4.716
4.623
4.275
3.631
2.673
1.354
-0.374
-2.536
-5.17
-8.292
-11.875
-15.934
-20.49
-25.452
-30.667
-35.882
-40.714
-44.877
-48.192
-50.418
-51.262
-50.555
-48.353
-45.04
-41.335
-37.868
-34.904
-32.674
-31.596
-31.912
-33.528
-35.616
-36.324
-33.922
-27.396
-16.603
-2.469
14.233
33.116
54.397
80.105
112.061
151.169
197.295
245.817
290.144
323.811
338.814
330.098
295.39
233.591
149.384
50.044
-57.746
-167.625
-279.135
-393.256
-505.35
-615.721
-723.694
-803.311
-829.815
-819.149
-793.833
-752.013
-693.186
-626.033
-554.791
-481.607
-410.364
-343.98
-284.461
-232.592
-187.266
-148.132
-115.487
-89.481
-70.976
-59.747
-53.942
-51.453
-49.909
-47.345
-43.084
-37.16
-29.783
-21.376
-12.594
-4.084
3.334
8.774
11.969
13.064
12.351
10.337
7.537
4.394
1.459
-0.696
-1.782
-1.701
-0.481
1.716
4.771
8.587
13.017
17.899
23.086
28.452
33.891
39.326
44.658
49.779
54.585
58.975
62.892
66.318
69.258
71.74
73.8
75.479
76.834
77.927
78.823
79.581
80.256
80.895
81.551
82.276
83.123
84.144
85.374
86.833
88.531
90.473
92.655
95.076
97.721
100.575
103.622
106.847
110.239
113.786
117.474
121.283
125.196
129.19
133.247
137.348
141.472
145.599
149.708
153.78
157.793
161.729
165.567
169.285
172.86
176.27
179.494
182.51
185.299
187.84
190.116
192.11
193.808
195.197
196.264
197.0
197.395
197.444
197.141
196.482
195.466
194.092
192.362
190.279
187.848
185.076
181.971
178.543
174.803
170.765
166.442
161.851
157.008
151.93
146.637
141.148
135.483
129.664
123.712
117.648
111.495
105.274
99.007
92.717
86.425
80.15
73.914
67.737
61.637
55.633
49.742
43.981
38.366
32.911
27.63
22.536
17.64
12.952
8.481
4.235
0.219
-3.562
-7.103
-10.402
-13.458
-16.272
-18.843
-21.176
-23.274
-25.14
-26.781
-28.204
-29.415
-30.422
-31.235
-31.862
-32.314
-32.6
-32.732
-32.719
-32.574
-32.306
-31.928
-31.45
-30.884
-30.241
-29.531
-28.765
-27.952
-27.103
-26.227
-25.332
-24.426
-23.519
-22.615
-21.723
-20.848
-19.995
-19.169
-18.374
-17.614
-16.891
-16.208
-15.567
-14.969
-14.415
-13.905
-13.44
-13.019
-12.641
-12.306
-12.012
-11.758
-11.543
-11.363
-11.218
-11.106
-11.023
-10.969
-10.942
-10.938
-10.957
-10.997
-11.055
-11.131
-11.223
-11.33
-11.45
-11.584
-11.729
-11.886
-12.054
-12.233
-12.424
-12.626
-12.84
-13.066
-13.305
-13.558
-13.824
-14.104
-14.4
-14.712
-15.04
-15.386
-15.749
-16.13
-16.53
-16.948
-17.384
-17.838
-18.309
-18.796
-19.297
-19.811
-20.336
-20.869
-21.41
-21.954
-22.499
-23.042
-23.58
-24.109
-24.625
-25.124
-25.602
-26.055
-26.477
-26.864
-27.213
-27.519
-27.777
-27.982
-28.132
-28.221
-28.246
-28.202
-28.088
-27.898
-27.633
-27.289
-26.865
-26.363
-25.782
-25.124
-24.392
-23.59
-22.72
-21.788
-20.798
-19.756
-18.668
-17.54
-16.378
-15.191
-13.984
-12.768
-11.552
-10.343
-9.152
-7.987
-6.858
-5.774
-4.745
-3.779
-2.88
-2.054
-1.306
-0.646
-0.081
0.384
0.749
1.015
1.185
1.263
1.254
1.174
1.043
0.884
0.715
0.547
0.388
0.245
0.133
0.068
0.064
0.129
0.262
0.458
0.721
1.045
1.413
1.79
2.112
2.313
2.343
2.158
1.727
1.027
0.014
-1.362
-3.144
-5.37
-8.059
-11.214
-14.872
-19.087
-23.829
-28.959
-34.221
-39.254
-43.737
-47.469
-50.225
-51.695
-51.701
-50.305
-47.847
-45.003
-42.445
-40.473
-39.257
-39.159
-40.372
-42.683
-45.557
-47.536
-46.61
-41.558
-31.446
-16.011
3.33
25.021
47.781
71.265
97.617
129.858
169.917
216.626
264.521
305.359
329.667
329.593
300.977
243.695
162.97
66.9
-36.624
-141.732
-248.027
-356.26
-463.156
-568.81
-671.958
-750.418
-782.391
-780.91
-765.037
-732.505
-682.959
-623.592
-557.723
-488.689
-420.664
-356.633
-299.055
-247.925
-202.183
-162.023
-127.781
-100.091
-79.869
-66.772
-59.227
-55.315
-52.787
-49.69
-45.209
-39.245
-31.928
-23.598
-14.786
-6.033
1.872
7.977
11.912
13.731
13.668
12.202
9.798
6.855
3.907
1.541
0.106
-0.239
0.519
2.245
4.829
8.185
12.18
16.659
21.477
26.511
31.66
36.85
42.001
47.016
51.802
56.27
60.346
63.99
67.194
69.972
72.352
74.373
76.079
77.524
78.772
79.881
80.908
81.903
82.908
83.971
85.139
86.459
87.972
89.708
91.679
93.893
96.35
99.048
101.978
105.128
108.478
112.01
115.71
119.563
123.553
127.664
131.874
136.163
140.507
144.884
149.275
153.656
158.004
162.298
166.516
170.634
174.634
178.491
182.185
185.69
188.986
192.049
194.86
197.399
199.646
201.585
203.199
204.477
205.405
205.975
206.178
206.007
205.459
204.53
203.22
201.53
199.463
197.025
194.22
191.059
187.551
183.709
179.544
175.074
170.313
165.279
159.991
154.47
148.735
142.808
136.712
130.468
124.102
117.635
111.091
104.495
97.869
91.236
84.619
78.041
71.521
65.081
58.74
52.517
46.429
40.493
34.723
29.135
23.74
18.551
13.578
8.829
4.313
0.035
-4.0
-7.789
-11.329
-14.62
-17.662
-20.457
-23.008
-25.319
-27.395
-29.243
-30.869
-32.281
-33.489
-34.501
-35.327
-35.979
-36.466
-36.8
-36.992
-37.054
-36.996
-36.832
-36.571
-36.224
-35.804
-35.32
-34.782
-34.2
-33.583
-32.94
-32.279
-31.608
-30.933
-30.261
-29.598
-28.948
-28.317
-27.708
-27.124
-26.569
-26.044
-25.551
-25.091
-24.665
-24.274
-23.916
-23.592
-23.3
-23.04
-22.81
-22.609
-22.434
-22.285
-22.159
-22.055
-21.97
-21.904
-21.853
-21.818
-21.795
-21.785
-21.786
-21.798
-21.819
-21.849
-21.887
-21.935
-21.992
-22.058
-22.134
-22.221
-22.32
-22.431
-22.556
-22.696
-22.853
-23.027
-23.22
-23.434
-23.669
-23.927
-24.209
-24.516
-24.849
-25.209
-25.595
-26.009
-26.449
-26.916
-27.408
-27.924
-28.463
-29.022
-29.6
-30.194
-30.802
-31.42
-32.045
-32.674
-33.302
-33.926
-34.54
-35.139
-35.72
-36.277
-36.805
-37.299
-37.755
-38.166
-38.528
-38.836
-39.085
-39.27
-39.388
-39.434
-39.405
-39.299
-39.113
-38.846
-38.498
-38.069
-37.561
-36.976
-36.315
-35.583
-34.782
-33.917
-32.993
-32.015
-30.988
-29.918
-28.812
-27.679
-26.525
-25.361
-24.193
-23.031
-21.884
-20.759
-19.668
-18.618
-17.615
-16.665
-15.775
-14.952
-14.206
-13.543
-12.964
-12.466
-12.046
-11.7
-11.422
-11.201
-11.018
-10.853
-10.687
-10.507
-10.307
-10.078
-9.81
-9.484
-9.082
-8.595
-8.022
-7.371
-6.65
-5.865
-5.028
-4.178
-3.371
-2.667
-2.134
-1.814
-1.742
-1.96
-2.497
-3.402
-4.738
-6.542
-8.851
-11.681
-15.019
-18.884
-23.315
-28.237
-33.464
-38.713
-43.592
-47.799
-51.158
-53.425
-54.283
-53.556
-51.332
-48.011
-44.285
-40.734
-37.623
-35.218
-33.972
-34.184
-35.462
-36.62
-36.067
-32.213
-24.768
-14.591
-1.901
13.048
30.729
53.269
82.214
118.705
163.177
212.844
262.437
305.37
333.845
341.201
322.997
277.284
206.368
116.21
14.772
-91.139
-198.377
-307.634
-419.587
-528.056
-630.028
-724.567
-788.23
-800.748
-781.098
-751.12
-708.486
-651.484
-586.966
-519.71
-452.376
-387.726
-327.795
-273.197
-223.587
-178.942
-139.914
-107.48
-82.448
-64.958
-54.158
-48.022
-44.299
-41.207
-37.291
-32.053
-25.687
-18.208
-9.863
-1.288
6.953
14.075
19.244
22.273
23.335
22.713
20.892
18.355
15.514
12.895
11.034
10.196
10.474
11.83
14.104
17.18
20.964
25.324
30.111
35.193
40.448
45.776
51.099
56.328
61.36
66.096
70.438
74.331
77.757
80.724
83.266
85.415
87.215
88.717
89.98
91.067
92.033
92.932
93.805
94.703
95.673
96.767
98.035
99.508
101.205
103.134
105.296
107.688
110.303
113.128
116.142
119.33
122.674
126.16
129.775
133.503
137.324
141.217
145.159
149.129
153.107
157.071
161.001
164.874
168.67
172.369
175.952
179.399
182.687
185.797
188.706
191.395
193.845
196.036
197.952
199.577
200.898
201.902
202.579
202.921
202.921
202.574
201.877
200.828
199.427
197.677
195.581
193.143
190.372
187.276
183.865
180.151
176.147
171.868
167.329
162.547
157.541
152.328
146.928
141.363
135.651
129.815
123.876
117.855
111.775
105.656
99.52
93.388
87.28
81.217
75.215
69.295
63.472
57.764
52.186
46.752
41.475
36.369
31.443
26.708
22.173
17.845
13.731
9.835
6.161
2.712
-0.511
-3.507
-6.277
-8.824
-11.149
-13.258
-15.155
-16.846
-18.337
-19.635
-20.749
-21.687
-22.458
-23.071
-23.536
-23.863
-24.061
-24.141
-24.113
-23.987
-23.772
-23.479
-23.118
-22.697
-22.226
-21.713
-21.167
-20.594
-20.003
-19.401
-18.793
-18.185
-17.583
-16.992
-16.414
-15.854
-15.315
-14.8
-14.309
-13.845
-13.41
-13.002
-12.623
-12.273
-11.95
-11.655
-11.385
-11.14
-10.919
-10.719
-10.539
-10.377
-10.231
-10.099
-9.979
-9.87
-9.769
-9.674
-9.585
-9.498
-9.413
-9.329
-9.245
-9.158
-9.07
-8.979
-8.886
-8.789
-8.69
-8.588
-8.485
-8.38
-8.275
-8.171
-8.069
-7.97
-7.876
-7.789
-7.709
-7.639
-7.581
-7.536
-7.507
-7.494
-7.5
-7.527
-7.576
-7.648
-7.746
-7.871
-8.024
-8.206
-8.418
-8.66
-8.933
-9.237
-9.571
-9.935
-10.327
-10.747
-11.191
-11.66
-12.15
-12.659
-13.184
-13.723
-14.272
-14.828
-15.387
-15.945
-16.498
-17.041
-17.571
-18.082
-18.571
-19.032
-19.46
-19.853
-20.203
-20.507
-20.761
-20.959
-21.098
-21.174
-21.184
-21.125
-20.994
-20.792
-20.516
-20.169
-19.75
-19.263
-18.709
-18.09
-17.412
-16.676
-15.89
-15.056
-14.18
-13.268
-12.326
-11.363
-10.387
-9.406
-8.427
-7.46
-6.513
-5.595
-4.716
-3.883
-3.101
-2.379
-1.722
-1.137
-0.637
-0.226
0.097
0.33
0.48
0.551
0.549
0.485
0.38
0.248
0.11
-0.023
-0.145
-0.248
-0.319
-0.346
-0.307
-0.191
0.0
0.267
0.601
0.988
1.42
1.869
2.282
2.609
2.796
2.794
2.58
2.125
1.396
0.357
-1.05
-2.875
-5.15
-7.905
-11.138
-14.856
-19.107
-23.852
-28.951
-34.176
-39.173
-43.621
-47.331
-50.061
-51.522
-51.546
-50.075
-47.385
-44.146
-40.95
-38.195
-36.267
-35.498
-36.093
-38.184
-41.035
-42.917
-42.261
-37.637
-28.55
-16.031
-0.638
17.735
39.624
67.455
103.112
146.354
196.018
247.817
295.553
333.815
356.409
357.88
335.035
285.891
211.894
118.453
12.096
-100.703
-216.197
-333.564
-448.534
-559.377
-672.462
-772.902
-822.983
-819.438
-795.067
-762.94
-715.572
-655.081
-589.285
-520.244
-449.396
-380.468
-316.186
-258.994
-210.13
-168.659
-134.376
-106.872
-85.48
-70.671
-61.76
-57.025
-54.82
-53.028
-50.022
-45.425
-39.358
-32.087
-24.161
-16.176
-8.689
-2.462
1.813
3.99
4.267
2.983
0.652
-2.244
-5.29
-7.977
-9.817
-10.574
-10.183
-8.696
-6.275
-3.044
0.893
5.391
10.289
15.45
20.742
26.065
31.344
36.485
41.39
45.967
50.127
53.823
57.047
59.81
62.143
64.082
65.671
66.963
68.024
68.913
69.69
70.407
71.108
71.841
72.658
73.604
74.726
76.054
77.602
79.38
81.389
83.624
86.081
88.747
91.604
94.636
97.829
101.171
104.649
108.248
111.949
115.734
119.581
123.472
127.389
131.311
135.218
139.091
142.911
146.657
150.312
153.855
157.267
160.525
163.609
166.498
169.175
171.62
173.815
175.745
177.395
178.752
179.806
180.546
180.965
181.056
180.813
180.235
179.319
178.065
176.475
174.552
172.3
169.726
166.839
163.646
160.16
156.391
152.355
148.064
143.536
138.786
133.832
128.692
123.386
117.933
112.352
106.666
100.894
95.056
89.174
83.268
77.357
71.462
65.602
59.794
54.057
48.408
42.863
37.437
32.145
27.001
22.017
17.205
12.575
8.137
3.899
-0.132
-3.95
-7.55
-10.929
-14.084
-17.015
-19.72
-22.2
-24.459
-26.498
-28.322
-29.936
-31.346
-32.557
-33.578
-34.416
-35.08
-35.578
-35.92
-36.116
-36.175
-36.107
-35.923
-35.632
-35.246
-34.773
-34.224
-33.609
-32.937
-32.217
-31.459
-30.67
-29.859
-29.034
-28.201
-27.367
-26.539
-25.721
-24.92
-24.139
-23.383
-22.655
-21.958
-21.294
-20.665
-20.073
-19.519
-19.003
-18.526
-18.086
-17.685
-17.32
-16.991
-16.697
-16.435
-16.205
-16.005
-15.832
-15.684
-15.56
-15.457
-15.374
-15.307
-15.256
-15.217
-15.19
-15.173
-15.163
-15.16
-15.161
-15.167
-15.175
-15.184
-15.194
-15.205
-15.215
-15.225
-15.234
-15.243
-15.251
-15.258
-15.266
-15.275
-15.284
-15.295
-15.309
-15.326
-15.347
-15.374
-15.407
-15.448
-15.497
-15.556
-15.626
-15.709
-15.805
-15.915
-16.041
-16.183
-16.342
-16.52
-16.716
-16.932
-17.168
-17.424
-17.701
-17.998
-18.314
-18.649
-19.003
-19.373
-19.759
-20.159
-20.57
-20.992
-21.423
-21.859
-22.299
-22.74
-23.179
-23.612
-24.037
-24.45
-24.846
-25.223
-25.577
-25.903
-26.197
-26.456
-26.676
-26.852
-26.98
-27.058
-27.08
-27.044
-26.946
-26.784
-26.555
-26.259
-25.894
-25.461
-24.96
-24.394
-23.764
-23.073
-22.323
-21.519
-20.665
-19.764
-18.823
-17.844
-16.834
-15.8
-14.748
-13.687
-12.625
-11.569
-10.527
-9.508
-8.521
-7.576
-6.678
-5.835
-5.051
-4.332
-3.687
-3.126
-2.653
-2.268
-1.97
-1.755
-1.62
-1.558
-1.556
-1.595
-1.655
-1.716
-1.765
-1.796
-1.798
-1.761
-1.668
-1.5
-1.25
-0.921
-0.516
-0.039
0.501
1.092
1.698
2.262
2.724
3.022
3.106
2.937
2.471
1.676
0.506
-1.095
-3.167
-5.742
-8.842
-12.464
-16.623
-21.364
-26.624
-32.22
-37.872
-43.186
-47.831
-51.607
-54.259
-55.45
-54.989
-52.954
-49.762
-46.138
-42.703
-39.747
-37.527
-36.485
-36.925
-38.468
-39.898
-39.548
-35.788
-28.266
-17.72
-4.303
12.042
32.036
57.299
88.926
127.286
171.901
220.816
269.537
312.222
342.842
354.722
343.071
305.859
242.931
158.047
57.878
-52.157
-167.675
-286.948
-409.142
-526.242
-635.077
-735.748
-803.489
-816.861
-796.355
-765.617
-722.419
-664.34
-598.132
-527.723
-455.03
-384.279
-318.826
-260.803
-211.19
-168.54
-132.188
-102.13
-78.041
-60.921
-50.705
-45.441
-43.152
-41.568
-38.779
-34.354
-28.504
-21.331
-13.202
-4.769
3.386
10.416
15.443
18.286
19.133
18.281
16.235
13.489
10.46
7.697
5.746
4.868
5.148
6.54
8.87
12.018
15.882
20.32
25.178
30.316
35.609
40.955
46.275
51.477
56.457
61.119
65.367
69.149
72.448
75.276
77.664
79.651
81.28
82.603
83.683
84.582
85.359
86.066
86.749
87.458
88.241
89.15
90.233
91.523
93.037
94.785
96.767
98.981
101.423
104.079
106.933
109.968
113.171
116.528
120.028
123.655
127.392
131.218
135.114
139.06
143.036
147.023
151.001
154.948
158.845
162.672
166.41
170.039
173.537
176.883
180.056
183.034
185.799
188.331
190.612
192.625
194.355
195.79
196.917
197.726
198.209
198.358
198.169
197.637
196.761
195.54
193.975
192.069
189.827
187.254
184.359
181.151
177.64
173.838
169.759
165.418
160.829
156.011
150.98
145.756
140.356
134.801
129.111
123.306
117.407
111.435
105.409
99.352
93.282
87.219
81.182
75.189
69.259
63.408
57.652
52.007
46.488
41.108
35.879
30.813
25.921
21.212
16.695
12.376
8.262
4.356
0.664
-2.812
-6.071
-9.113
-11.939
-14.549
-16.947
-19.137
-21.123
-22.91
-24.504
-25.912
-27.141
-28.199
-29.094
-29.835
-30.431
-30.889
-31.221
-31.434
-31.538
-31.543
-31.458
-31.292
-31.053
-30.751
-30.394
-29.989
-29.546
-29.07
-28.569
-28.05
-27.519
-26.981
-26.441
-25.904
-25.375
-24.857
-24.353
-23.866
-23.399
-22.953
-22.529
-22.13
-21.755
-21.406
-21.082
-20.783
-20.51
-20.26
-20.034
-19.831
-19.649
-19.488
-19.346
-19.221
-19.113
-19.02
-18.939
-18.871
-18.814
-18.765
-18.725
-18.69
-18.661
-18.636
-18.614
-18.594
-18.575
-18.557
-18.539
-18.52
-18.5
-18.478
-18.455
-18.43
-18.403
-18.374
-18.343
-18.311
-18.278
-18.244
-18.21
-18.176
-18.144
-18.113
-18.085
-18.061
-18.04
-18.025
-18.016
-18.014
-18.02
-18.035
-18.061
-18.099
-18.149
-18.213
-18.293
-18.388
-18.501
-18.632
-18.782
-18.952
-19.144
-19.357
-19.594
-19.854
-20.137
-20.444
-20.776
-21.13
-21.508
-21.908
-22.328
-22.768
-23.226
-23.7
-24.188
-24.688
-25.197
-25.713
-26.232
-26.752
-27.268
-27.778
-28.277
-28.76
-29.225
-29.667
-30.081
-30.463
-30.808
-31.112
-31.371
-31.58
-31.734
-31.829
-31.861
-31.826
-31.721
-31.543
-31.291
-30.962
-30.556
-30.073
-29.516
-28.886
-28.184
-27.415
-26.58
-25.685
-24.734
-23.732
-22.683
-21.593
-20.469
-19.32
-18.153
-16.977
-15.8
-14.631
-13.477
-12.349
-11.256
-10.206
-9.205
-8.259
-7.375
-6.562
-5.832
-5.19
-4.636
-4.17
-3.788
-3.487
-3.262
-3.101
-2.982
-2.889
-2.804
-2.715
-2.616
-2.499
-2.351
-2.157
-1.898
-1.566
-1.165
-0.698
-0.17
0.411
1.03
1.655
2.229
2.698
3.005
3.106
2.97
2.559
1.841
0.776
-0.684
-2.577
-4.929
-7.761
-11.076
-14.888
-19.239
-24.078
-29.245
-34.494
-39.469
-43.856
-47.462
-50.053
-51.311
-51.047
-49.297
-46.398
-43.053
-39.908
-37.231
-35.259
-34.384
-34.832
-36.565
-38.808
-39.732
-37.616
-31.394
-20.864
-6.968
9.596
28.61
50.368
76.792
109.479
148.841
194.482
242.493
287.131
322.984
343.038
341.633
315.318
261.775
183.969
88.535
-17.253
-126.394
-236.981
-349.827
-461.225
-570.047
-681.459
-778.633
-823.92
-815.72
-787.461
-751.171
-699.09
-634.122
-564.468
-493.393
-423.45
-357.351
-296.813
-242.605
-194.331
-152.235
-117.003
-89.007
-68.93
-56.46
-49.853
-47.032
-45.573
-43.325
-39.397
-33.701
-26.403
-17.889
-8.737
0.442
8.787
15.283
19.528
21.583
21.701
20.38
18.108
15.303
12.52
10.365
9.191
9.149
10.241
12.319
15.261
18.973
23.315
28.121
33.242
38.55
43.942
49.34
54.663
59.813
64.695
69.222
73.321
76.955
80.118
82.826
85.11
87.011
88.575
89.858
90.925
91.837
92.652
93.421
94.189
95.005
95.916
96.97
98.209
99.661
101.343
103.26
105.414
107.804
110.422
113.257
116.292
119.51
122.898
126.443
130.131
133.946
137.87
141.883
145.963
150.092
154.249
158.413
162.564
166.68
170.74
174.724
178.611
182.381
186.011
189.478
192.762
195.84
198.693
201.3
203.643
205.705
207.471
208.926
210.059
210.859
211.317
211.425
211.179
210.573
209.607
208.278
206.59
204.544
202.146
199.401
196.319
192.907
189.179
185.146
180.822
176.223
171.365
166.266
160.944
155.419
149.712
143.842
137.831
131.701
125.474
119.172
112.816
106.428
100.03
93.643
87.287
80.981
74.745
68.598
62.556
56.637
50.857
45.229
39.769
34.487
29.397
24.509
19.83
15.37
11.134
7.129
3.357
-0.178
-3.474
-6.531
-9.351
-11.935
-14.286
-16.409
-18.307
-19.988
-21.459
-22.725
-23.797
-24.682
-25.39
-25.931
-26.314
-26.55
-26.65
-26.624
-26.482
-26.236
-25.896
-25.473
-24.976
-24.417
-23.804
-23.148
-22.456
-21.739
-21.004
-20.258
-19.509
-18.764
-18.029
-17.309
-16.609
-15.933
-15.286
-14.671
-14.09
-13.546
-13.042
-12.577
-12.153
-11.771
-11.431
-11.133
-10.875
-10.658
-10.479
-10.339
-10.235
-10.166
-10.13
-10.125
-10.15
-10.202
-10.279
-10.38
-10.503
-10.645
-10.806
-10.982
-11.174
-11.378
-11.595
-11.822
-12.06
-12.306
-12.56
-12.822
-13.091
-13.366
-13.647
-13.935
-14.229
-14.53
-14.837
-15.151
-15.474
-15.805
-16.145
-16.494
-16.855
-17.226
-17.61
-18.006
-18.416
-18.841
-19.28
-19.735
-20.205
-20.692
-21.194
-21.712
-22.245
-22.792
-23.352
-23.924
-24.506
-25.096
-25.693
-26.294
-26.897
-27.499
-28.099
-28.691
-29.274
-29.844
-30.398
-30.931
-31.439
-31.919
-32.366
-32.777
-33.147
-33.472
-33.748
-33.971
-34.136
-34.241
-34.281
-34.253
-34.154
-33.983
-33.736
-33.415
-33.017
-32.545
-31.999
-31.382
-30.698
-29.949
-29.14
-28.274
-27.359
-26.398
-25.398
-24.364
-23.303
-22.222
-21.131
-20.037
-18.949
-17.877
-16.828
-15.812
-14.839
-13.918
-13.058
-12.265
-11.544
-10.902
-10.346
-9.888
-9.532
-9.278
-9.124
-9.066
-9.099
-9.216
-9.405
-9.643
-9.911
-10.188
-10.46
-10.72
-10.958
-11.164
-11.318
-11.401
-11.402
-11.323
-11.169
-10.948
-10.664
-10.33
-9.984
-9.682
-9.485
-9.456
-9.634
-10.05
-10.742
-11.733
-13.07
-14.806
-16.974
-19.605
-22.712
-26.281
-30.329
-34.888
-39.873
-45.096
-50.277
-55.02
-59.023
-62.113
-64.049
-64.534
-63.43
-60.835
-57.145
-53.091
-49.288
-45.967
-43.382
-41.967
-41.891
-42.994
-44.384
-44.188
-40.734
-33.045
-21.039
-5.687
11.99
31.247
52.521
78.097
110.349
150.974
198.98
248.805
292.715
322.011
328.923
309.255
262.306
191.511
103.664
6.557
-93.974
-196.077
-300.522
-408.108
-515.264
-613.278
-692.022
-742.819
-763.078
-756.401
-728.199
-684.744
-630.963
-569.849
-505.242
-440.995
-379.8
-323.468
-272.221
-225.256
-182.371
-144.274
-112.165
-87.12
-69.49
-58.569
-52.449
-49.0
-46.488
-43.432
-39.273
-34.12
-27.901
-20.779
-13.296
-5.934
0.559
5.331
8.155
9.158
8.583
6.883
4.509
1.835
-0.634
-2.365
-3.093
-2.72
-1.281
1.061
4.185
8.001
12.374
17.155
22.212
27.424
32.692
37.944
43.094
48.044
52.702
56.976
60.815
64.204
67.154
69.699
71.873
73.719
75.288
76.638
77.828
78.915
79.946
80.967
82.022
83.16
84.429
85.875
87.53
89.411
91.526
93.875
96.456
99.262
102.281
105.495
108.887
112.442
116.146
119.987
123.948
128.011
132.153
136.354
140.593
144.848
149.099
153.323
157.5
161.606
165.622
169.527
173.3
176.917
180.357
183.596
186.613
189.388
191.901
194.132
196.064
197.681
198.97
199.919
200.517
200.756
200.629
200.13
199.258
198.01
196.388
194.392
192.028
189.302
186.221
182.796
179.036
174.956
170.569
165.891
160.939
155.732
150.289
144.629
138.775
132.748
126.57
120.264
113.853
107.361
100.812
94.227
87.63
81.044
74.49
67.989
61.562
55.228
49.006
42.913
36.966
31.18
25.57
20.148
14.927
9.916
5.125
0.562
-3.767
-7.856
-11.702
-15.303
-18.657
-21.764
-24.625
-27.243
-29.622
-31.766
-33.68
-35.371
-36.847
-38.116
-39.186
-40.066
-40.767
-41.299
-41.672
-41.897
-41.984
-41.945
-41.791
-41.532
-41.179
-40.743
-40.233
-39.66
-39.033
-38.361
-37.653
-36.916
-36.159
-35.389
-34.612
-33.835
-33.062
-32.299
-31.551
-30.82
-30.111
-29.425
-28.766
-28.136
-27.535
-26.964
-26.425
-25.917
-25.44
-24.994
-24.578
-24.192
-23.834
-23.504
-23.201
-22.922
-22.668
-22.436
-22.225
-22.035
-21.863
-21.709
-21.572
-21.451
-21.345
-21.253
-21.176
-21.112
-21.061
-21.023
-20.999
-20.988
-20.99
-21.006
-21.036
-21.081
-21.141
-21.217
-21.311
-21.422
-21.551
-21.7
-21.868
-22.058
-22.269
-22.502
-22.758
-23.037
-23.339
-23.665
-24.014
-24.387
-24.783
-25.201
-25.64
-26.099
-26.577
-27.071
-27.579
-28.1
-28.631
-29.169
-29.711
-30.255
-30.797
-31.335
-31.863
-32.379
-32.878
-33.357
-33.81
-34.235
-34.626
-34.98
-35.293
-35.559
-35.776
-35.939
-36.043
-36.087
-36.065
-35.975
-35.814
-35.58
-35.272
-34.888
-34.429
-33.895
-33.287
-32.609
-31.863
-31.052
-30.18
-29.252
-28.273
-27.248
-26.182
-25.081
-23.952
-22.802
-21.639
-20.472
-19.31
-18.16
-17.031
-15.932
-14.871
-13.859
-12.902
-12.006
-11.176
-10.419
-9.741
-9.153
-8.658
-8.255
-7.942
-7.715
-7.57
-7.501
-7.495
-7.532
-7.593
-7.661
-7.722
-7.771
-7.796
-7.785
-7.724
-7.594
-7.386
-7.102
-6.744
-6.315
-5.821
-5.27
-4.695
-4.147
-3.676
-3.339
-3.178
-3.226
-3.521
-4.092
-4.977
-6.228
-7.879
-9.967
-12.514
-15.524
-19.02
-23.049
-27.56
-32.394
-37.296
-41.892
-45.867
-49.029
-51.142
-51.898
-51.133
-48.922
-45.66
-42.092
-38.883
-36.294
-34.556
-34.09
-35.095
-37.45
-40.241
-41.458
-39.287
-32.682
-21.595
-7.126
10.008
29.586
52.126
79.917
114.484
156.217
204.436
254.121
298.836
332.366
346.981
337.692
302.312
240.285
156.279
57.819
-48.499
-157.105
-266.357
-376.818
-482.955
-581.927
-680.138
-762.16
-793.081
-775.86
-744.741
-709.465
-660.681
-600.154
-535.887
-471.264
-407.766
-347.223
-290.283
-237.056
-188.527
-145.984
-110.82
-84.031
-65.328
-53.709
-47.354
-44.012
-41.807
-39.059
-34.868
-29.182
-22.074
-13.815
-5.01
3.753
11.683
17.832
21.839
23.769
23.863
22.595
20.439
17.8
15.198
13.204
12.148
12.172
13.275
15.315
18.177
21.769
25.958
30.591
35.525
40.643
45.841
51.047
56.182
61.15
65.865
70.241
74.207
77.727
80.798
83.436
85.673
87.549
89.107
90.4
91.492
92.441
93.302
94.124
94.95
95.824
96.794
97.904
99.196
100.697
102.42
104.371
106.552
108.957
111.582
114.412
117.431
120.621
123.968
127.458
131.078
134.812
138.641
142.543
146.499
150.488
154.49
158.485
162.452
166.369
170.216
173.973
177.621
181.141
184.509
187.707
190.712
193.505
196.067
198.381
200.43
202.197
203.67
204.837
205.687
206.212
206.406
206.262
205.778
204.952
203.783
202.274
200.426
198.246
195.74
192.915
189.782
186.352
182.637
178.65
174.408
169.926
165.221
160.312
155.216
149.954
144.544
139.009
133.367
127.64
121.848
116.013
110.154
104.291
98.445
92.633
86.875
81.187
75.587
70.089
64.71
59.463
54.361
49.415
44.638
40.039
35.626
31.406
27.387
23.573
19.968
16.575
13.396
10.43
7.679
5.139
2.809
0.685
-1.237
-2.962
-4.497
-5.848
-7.022
-8.026
-8.87
-9.562
-10.11
-10.524
-10.814
-10.988
-11.056
-11.028
-10.913
-10.72
-10.459
-10.139
-9.768
-9.355
-8.908
-8.434
-7.941
-7.436
-6.925
-6.415
-5.91
-5.416
-4.937
-4.477
-4.04
-3.63
-3.249
-2.899
-2.581
-2.299
-2.052
-1.842
-1.669
-1.533
-1.434
-1.371
-1.344
-1.352
-1.394
-1.469
-1.575
-1.711
-1.875
-2.066
-2.282
-2.521
-2.781
-3.061
-3.359
-3.673
-4.002
-4.344
-4.698
-5.061
-5.434
-5.815
-6.202
-6.595
-6.993
-7.396
-7.803
-8.212
-8.625
-9.041
-9.459
-9.88
-10.303
-10.73
-11.159
-11.593
-12.031
-12.475
-12.924
-13.38
-13.845
-14.317
-14.8
-15.294
-15.801
-16.32
-16.854
-17.403
-17.969
-18.552
-19.153
-19.772
-20.41
-21.068
-21.743
-22.437
-23.148
-23.875
-24.618
-25.374
-26.143
-26.922
-27.709
-28.502
-29.298
-30.095
-30.888
-31.676
-32.453
-33.216
-33.962
-34.685
-35.381
-36.046
-36.676
-37.266
-37.81
-38.306
-38.747
-39.129
-39.449
-39.701
-39.884
-39.994
-40.03
-39.988
-39.87
-39.674
-39.404
-39.059
-38.643
-38.158
-37.606
-36.993
-36.322
-35.599
-34.827
-34.013
-33.164
-32.286
-31.39
-30.482
-29.571
-28.665
-27.772
-26.902
-26.065
-25.269
-24.518
-23.82
-23.181
-22.609
-22.115
-21.703
-21.373
-21.124
-20.954
-20.859
-20.834
-20.866
-20.936
-21.027
-21.118
-21.197
-21.257
-21.287
-21.276
-21.207
-21.061
-20.83
-20.514
-20.114
-19.634
-19.079
-18.46
-17.81
-17.182
-16.63
-16.216
-15.99
-15.989
-16.258
-16.829
-17.744
-19.059
-20.817
-23.054
-25.795
-29.04
-32.806
-37.142
-42.0
-47.209
-52.494
-57.463
-61.778
-65.234
-67.583
-68.489
-67.747
-65.432
-61.965
-58.082
-54.43
-51.324
-49.027
-47.986
-48.557
-50.354
-52.029
-51.826
-48.083
-40.472
-30.218
-17.759
-2.488
16.806
42.888
77.752
120.53
169.666
221.901
271.309
313.349
343.097
354.041
342.191
304.452
239.795
153.207
51.907
-57.65
-170.12
-285.074
-402.778
-516.56
-624.41
-725.685
-795.969
-814.076
-798.607
-772.295
-733.782
-680.993
-620.026
-553.926
-483.125
-411.16
-342.564
-280.432
-227.304
-183.377
-147.1
-117.759
-94.481
-76.917
-65.546
-59.217
-56.096
-54.374
-51.871
-47.627
-41.757
-34.417
-26.066
-17.431
-9.108
-1.876
3.393
6.441
7.416
6.612
4.531
1.664
-1.565
-4.635
-7.003
-8.365
-8.609
-7.752
-5.935
-3.278
0.124
4.142
8.624
13.43
18.442
23.555
28.689
33.763
38.681
43.353
47.696
51.639
55.147
58.219
60.873
63.141
65.063
66.683
68.055
69.242
70.302
71.291
72.258
73.245
74.297
75.458
76.772
78.279
80.002
81.954
84.138
86.553
89.194
92.052
95.115
98.362
101.775
105.34
109.041
112.864
116.793
120.807
124.886
129.009
133.155
137.304
141.437
145.531
149.566
153.522
157.378
161.116
164.716
168.156
171.417
174.478
177.319
179.923
182.272
184.35
186.141
187.634
188.816
189.679
190.214
190.416
190.279
189.8
188.978
187.814
186.308
184.466
182.29
179.789
176.97
173.843
170.419
166.71
162.73
158.494
154.017
149.316
144.409
139.314
134.05
128.637
123.095
117.443
111.703
105.894
100.037
94.153
88.26
82.378
76.526
70.722
64.983
59.326
53.766
48.319
42.997
37.816
32.785
27.917
23.222
18.708
14.383
10.253
6.325
2.602
-0.913
-4.216
-7.308
-10.188
-12.858
-15.32
-17.576
-19.631
-21.49
-23.158
-24.641
-25.947
-27.084
-28.058
-28.879
-29.555
-30.095
-30.509
-30.805
-30.993
-31.083
-31.083
-31.002
-30.85
-30.635
-30.366
-30.05
-29.695
-29.309
-28.898
-28.469
-28.028
-27.581
-27.131
-26.685
-26.245
-25.816
-25.4
-25.001
-24.619
-24.257
-23.916
-23.597
-23.3
-23.025
-22.772
-22.541
-22.33
-22.14
-21.969
-21.816
-21.679
-21.558
-21.45
-21.356
-21.272
-21.199
-21.135
-21.078
-21.027
-20.982
-20.942
-20.905
-20.872
-20.841
-20.813
-20.787
-20.762
-20.74
-20.72
-20.702
-20.686
-20.675
-20.667
-20.663
-20.665
-20.673
-20.688
-20.711
-20.743
-20.785
-20.838
-20.902
-20.979
-21.069
-21.173
-21.292
-21.427
-21.577
-21.744
-21.927
-22.128
-22.346
-22.582
-22.835
-23.107
-23.397
-23.705
-24.03
-24.374
-24.734
-25.111
-25.505
-25.915
-26.341
-26.781
-27.235
-27.701
-28.179
-28.666
-29.162
-29.665
-30.172
-30.681
-31.19
-31.697
-32.199
-32.694
-33.18
-33.654
-34.112
-34.553
-34.972
-35.367
-35.734
-36.069
-36.37
-36.633
-36.853
-37.029
-37.155
-37.228
-37.245
-37.201
-37.094
-36.92
-36.676
-36.357
-35.963
-35.492
-34.941
-34.31
-33.6
-32.81
-31.944
-31.003
-29.989
-28.906
-27.757
-26.546
-25.278
-23.956
-22.586
-21.174
-19.725
-18.248
-16.751
-15.243
-13.731
-12.225
-10.733
-9.264
-7.828
-6.433
-5.086
-3.795
-2.566
-1.41
-0.337
0.645
1.535
2.334
3.044
3.671
4.219
4.698
5.128
5.522
5.897
6.266
6.633
7.01
7.409
7.843
8.331
8.883
9.496
10.167
10.893
11.659
12.452
13.245
13.986
14.631
15.134
15.441
15.516
15.318
14.797
13.927
12.668
10.973
8.814
6.16
2.986
-0.687
-4.864
-9.572
-14.728
-20.17
-25.633
-30.727
-35.125
-38.613
-40.93
-41.742
-40.865
-38.389
-34.753
-30.709
-26.92
-23.727
-21.432
-20.523
-21.332
-23.434
-25.54
-25.897
-22.789
-15.838
-5.799
7.225
23.436
43.683
69.75
102.738
142.684
188.827
239.041
288.659
332.14
363.642
375.931
363.948
325.18
259.176
171.024
68.35
-42.652
-156.932
-273.832
-393.364
-508.473
-616.491
-716.515
-784.874
-801.309
-784.655
-757.539
-718.144
-663.842
-600.631
-531.621
-458.474
-386.096
-318.577
-258.579
-207.422
-163.646
-126.424
-95.814
-71.692
-54.907
-45.261
-40.795
-39.38
-38.679
-36.776
-33.066
-27.618
-20.632
-12.555
-4.084
4.101
11.169
16.272
19.185
20.074
19.243
17.199
14.453
11.448
8.723
6.817
5.988
6.315
7.753
10.138
13.342
17.266
21.763
26.674
31.859
37.194
42.574
47.922
53.143
58.134
62.795
67.033
70.798
74.073
76.867
79.211
81.14
82.699
83.939
84.925
85.716
86.373
86.949
87.489
88.045
88.667
89.405
90.309
91.413
92.734
94.283
96.063
98.072
100.308
102.758
105.407
108.24
111.246
114.411
117.727
121.178
124.749
128.421
132.176
135.994
139.858
143.75
147.649
151.538
155.396
159.204
162.944
166.597
170.141
173.555
176.818
179.909
182.808
185.496
187.955
190.166
192.115
193.787
195.17
196.252
197.025
197.479
197.609
197.409
196.876
196.008
194.805
193.269
191.402
189.21
186.698
183.874
180.748
177.33
173.632
169.668
165.453
161.001
156.33
151.456
146.399
141.176
135.808
130.315
124.716
119.032
113.283
107.491
101.674
95.852
90.045
84.271
78.549
72.895
67.327
61.859
56.508
51.287
46.21
41.289
36.535
31.958
27.567
23.369
19.372
15.58
11.999
8.631
5.478
2.541
-0.181
-2.687
-4.982
-7.068
-8.949
-10.63
-12.119
-13.42
-14.541
-15.491
-16.277
-16.908
-17.393
-17.741
-17.962
-18.066
-18.062
-17.959
-17.767
-17.496
-17.155
-16.753
-16.298
-15.799
-15.265
-14.702
-14.119
-13.521
-12.916
-12.308
-11.705
-11.11
-10.528
-9.963
-9.419
-8.898
-8.402
-7.935
-7.497
-7.09
-6.715
-6.371
-6.061
-5.782
-5.535
-5.32
-5.135
-4.98
-4.854
-4.755
-4.683
-4.635
-4.611
-4.608
-4.627
-4.664
-4.72
-4.792
-4.879
-4.979
-5.093
-5.218
-5.353
-5.498
-5.651
-5.813
-5.981
-6.156
-6.337
-6.523
-6.715
-6.911
-7.111
-7.316
-7.525
-7.738
-7.956
-8.177
-8.403
-8.633
-8.867
-9.106
-9.349
-9.598
-9.852
-10.11
-10.375
-10.645
-10.922
-11.206
-11.496
-11.795
-12.101
-12.415
-12.739
-13.072
-13.415
-13.768
-14.131
-14.506
-14.892
-15.29
-15.7
-16.123
-16.557
-17.004
-17.463
-17.932
-18.412
-18.902
-19.4
-19.905
-20.416
-20.932
-21.45
-21.97
-22.489
-23.005
-23.516
-24.019
-24.511
-24.99
-25.451
-25.892
-26.31
-26.701
-27.061
-27.387
-27.675
-27.921
-28.122
-28.274
-28.372
-28.414
-28.397
-28.316
-28.171
-27.959
-27.679
-27.33
-26.914
-26.431
-25.884
-25.274
-24.604
-23.875
-23.092
-22.259
-21.379
-20.457
-19.498
-18.508
-17.494
-16.465
-15.429
-14.394
-13.367
-12.357
-11.373
-10.423
-9.517
-8.658
-7.856
-7.117
-6.449
-5.865
-5.371
-4.966
-4.65
-4.42
-4.269
-4.192
-4.179
-4.21
-4.269
-4.343
-4.42
-4.494
-4.556
-4.595
-4.597
-4.544
-4.427
-4.246
-4.006
-3.71
-3.37
-3.0
-2.625
-2.295
-2.049
-1.93
-1.983
-2.238
-2.728
-3.496
-4.565
-5.972
-7.758
-9.946
-12.57
-15.652
-19.179
-23.164
-27.631
-32.506
-37.645
-42.809
-47.637
-51.829
-55.196
-57.497
-58.435
-57.846
-55.797
-52.673
-49.202
-46.028
-43.418
-41.585
-40.932
-41.68
-43.725
-46.234
-47.297
-45.095
-38.598
-27.688
-13.359
3.501
22.56
44.202
70.486
103.249
143.219
190.004
239.131
284.297
319.456
337.057
331.806
300.755
242.031
159.364
59.943
-48.753
-159.506
-270.458
-382.714
-492.267
-597.597
-704.519
-796.954
-836.574
-822.085
-789.733
-752.878
-702.317
-639.526
-572.059
-501.875
-430.701
-362.224
-299.13
-243.834
-197.306
-158.598
-127.257
-102.528
-83.867
-71.663
-64.881
-61.678
-60.138
-57.918
-53.871
-48.037
-40.584
-31.962
-22.877
-13.919
-5.898
0.218
4.083
5.799
5.637
4.101
1.686
-1.185
-3.978
-6.11
-7.249
-7.262
-6.155
-4.074
-1.139
2.555
6.87
11.646
16.737
22.02
27.39
32.77
38.075
43.208
48.077
52.596
56.692
60.329
63.503
66.229
68.538
70.473
72.078
73.407
74.524
75.491
76.363
77.191
78.02
78.896
79.867
80.979
82.273
83.776
85.503
87.461
89.651
92.069
94.711
97.563
100.609
103.834
107.222
110.763
114.442
118.246
122.156
126.151
130.214
134.324
138.463
142.61
146.747
150.852
154.905
158.888
162.78
166.562
170.212
173.709
177.032
180.161
183.075
185.757
188.187
190.35
192.23
193.813
195.089
196.046
196.676
196.971
196.926
196.536
195.799
194.714
193.283
191.506
189.389
186.937
184.157
181.059
177.652
173.948
169.96
165.703
161.192
156.444
151.475
146.305
140.952
135.436
129.778
123.998
118.117
112.156
106.137
100.081
94.009
87.94
81.895
75.894
69.955
64.097
58.336
52.691
47.177
41.808
36.599
31.563
26.711
22.054
17.601
13.361
9.342
5.547
1.984
-1.346
-4.44
-7.298
-9.919
-12.305
-14.458
-16.382
-18.082
-19.563
-20.832
-21.895
-22.761
-23.439
-23.937
-24.264
-24.432
-24.451
-24.331
-24.082
-23.717
-23.246
-22.68
-22.03
-21.306
-20.52
-19.681
-18.799
-17.883
-16.944
-15.989
-15.027
-14.065
-13.111
-12.17
-11.249
-10.353
-9.487
-8.654
-7.858
-7.103
-6.391
-5.723
-5.101
-4.526
-3.998
-3.518
-3.084
-2.696
-2.353
-2.053
-1.795
-1.577
-1.397
-1.253
-1.142
-1.062
-1.011
-0.986
-0.986
-1.007
-1.047
-1.104
-1.177
-1.263
-1.361
-1.47
-1.587
-1.712
-1.845
-1.984
-2.129
-2.28
-2.437
-2.599
-2.768
-2.943
-3.125
-3.315
-3.514
-3.723
-3.943
-4.176
-4.422
-4.684
-4.961
-5.256
-5.571
-5.906
-6.262
-6.641
-7.044
-7.472
-7.925
-8.405
-8.91
-9.441
-9.998
-10.58
-11.186
-11.814
-12.462
-13.13
-13.814
-14.512
-15.221
-15.94
-16.663
-17.388
-18.112
-18.83
-19.537
-20.231
-20.906
-21.558
-22.183
-22.775
-23.331
-23.845
-24.314
-24.732
-25.097
-25.403
-25.646
-25.825
-25.934
-25.972
-25.938
-25.83
-25.648
-25.392
-25.063
-24.666
-24.201
-23.674
-23.087
-22.445
-21.754
-21.019
-20.247
-19.442
-18.611
-17.763
-16.904
-16.045
-15.193
-14.358
-13.547
-12.769
-12.033
-11.349
-10.726
-10.167
-9.679
-9.267
-8.938
-8.702
-8.563
-8.519
-8.569
-8.707
-8.93
-9.231
-9.599
-10.015
-10.457
-10.908
-11.353
-11.785
-12.194
-12.567
-12.887
-13.132
-13.295
-13.381
-13.393
-13.337
-13.216
-13.039
-12.837
-12.666
-12.578
-12.631
-12.864
-13.308
-14.004
-14.987
-16.3
-17.999
-20.115
-22.669
-25.684
-29.156
-33.102
-37.579
-42.5
-47.677
-52.859
-57.649
-61.735
-64.969
-67.066
-67.684
-66.786
-64.483
-61.185
-57.79
-54.865
-52.572
-51.315
-51.453
-52.872
-55.386
-57.911
-58.144
-54.526
-46.065
-32.428
-14.991
4.773
26.001
48.768
75.065
107.66
148.283
195.865
245.237
288.006
314.636
316.616
289.19
233.177
153.991
60.39
-38.539
-138.272
-238.036
-339.686
-444.106
-543.828
-634.566
-715.651
-766.97
-772.281
-750.175
-720.191
-679.567
-625.857
-564.754
-501.133
-438.165
-378.638
-324.163
-274.554
-228.734
-186.548
-148.903
-117.148
-92.413
-74.942
-63.904
-57.392
-53.394
-50.31
-46.783
-42.308
-36.952
-30.645
-23.567
-16.262
-9.219
-3.122
1.267
3.778
4.579
3.91
2.207
-0.089
-2.616
-4.889
-6.404
-6.92
-6.362
-4.764
-2.281
0.971
4.91
9.399
14.285
19.436
24.724
30.054
35.36
40.557
45.551
50.253
54.574
58.469
61.93
64.967
67.61
69.896
71.861
73.559
75.05
76.391
77.639
78.842
80.041
81.282
82.611
84.074
85.717
87.569
89.643
91.948
94.484
97.248
100.233
103.426
106.808
110.363
114.076
117.933
121.92
126.021
130.217
134.487
138.809
143.163
147.527
151.882
156.206
160.476
164.673
168.775
172.763
176.616
180.312
183.829
187.144
190.237
193.087
195.676
197.984
199.995
201.693
203.065
204.1
204.788
205.119
205.086
204.685
203.913
202.767
201.248
199.357
197.098
194.477
191.5
188.177
184.518
180.534
176.24
171.65
166.78
161.648
156.272
150.672
144.867
138.88
132.731
126.443
120.039
113.541
106.972
100.356
93.714
87.069
80.442
73.856
67.329
60.883
54.536
48.305
42.209
36.264
30.483
24.882
19.474
14.269
9.278
4.51
-0.027
-4.327
-8.385
-12.196
-15.76
-19.073
-22.138
-24.954
-27.524
-29.851
-31.942
-33.8
-35.433
-36.847
-38.052
-39.055
-39.867
-40.496
-40.953
-41.249
-41.394
-41.398
-41.274
-41.031
-40.681
-40.234
-39.701
-39.093
-38.418
-37.688
-36.91
-36.094
-35.249
-34.381
-33.5
-32.61
-31.719
-30.833
-29.956
-29.094
-28.25
-27.427
-26.63
-25.86
-25.119
-24.41
-23.733
-23.09
-22.48
-21.905
-21.364
-20.857
-20.385
-19.945
-19.539
-19.165
-18.822
-18.511
-18.229
-17.977
-17.754
-17.558
-17.39
-17.249
-17.135
-17.046
-16.984
-16.947
-16.936
-16.95
-16.991
-17.057
-17.149
-17.268
-17.413
-17.585
-17.785
-18.011
-18.266
-18.548
-18.857
-19.194
-19.557
-19.945
-20.358
-20.795
-21.252
-21.73
-22.224
-22.734
-23.256
-23.789
-24.327
-24.87
-25.412
-25.951
-26.482
-27.001
-27.505
-27.987
-28.445
-28.873
-29.267
-29.622
-29.934
-30.198
-30.409
-30.563
-30.655
-30.683
-30.642
-30.529
-30.341
-30.076
-29.734
-29.313
-28.815
-28.24
-27.59
-26.869
-26.079
-25.225
-24.31
-23.34
-22.321
-21.257
-20.155
-19.021
-17.862
-16.687
-15.504
-14.323
-13.151
-11.997
-10.87
-9.779
-8.735
-7.744
-6.815
-5.951
-5.16
-4.448
-3.827
-3.301
-2.87
-2.531
-2.282
-2.117
-2.03
-2.009
-2.035
-2.088
-2.147
-2.2
-2.241
-2.259
-2.245
-2.18
-2.046
-1.833
-1.543
-1.183
-0.76
-0.28
0.244
0.776
1.26
1.636
1.842
1.836
1.585
1.051
0.207
-0.991
-2.602
-4.659
-7.194
-10.22
-13.725
-17.724
-22.254
-27.242
-32.504
-37.76
-42.625
-46.794
-50.09
-52.277
-53.044
-52.223
-49.911
-46.518
-42.745
-39.192
-36.148
-33.888
-32.856
-33.361
-35.017
-36.594
-36.504
-33.188
-26.287
-16.809
-5.029
9.239
26.617
49.656
80.201
118.285
163.583
212.535
259.172
298.222
323.025
327.772
309.0
264.229
195.227
107.708
9.013
-94.201
-198.879
-305.739
-415.099
-520.524
-618.806
-709.216
-769.464
-780.357
-760.755
-731.775
-690.671
-635.474
-572.859
-507.758
-442.975
-381.152
-323.928
-271.469
-223.251
-179.292
-140.466
-108.015
-82.828
-65.08
-53.973
-47.544
-43.677
-40.675
-37.075
-32.34
-26.592
-19.778
-12.089
-4.1
3.676
10.477
15.456
18.395
19.437
18.834
17.05
14.544
11.705
9.051
7.117
6.175
6.324
7.531
9.637
12.527
16.11
20.257
24.822
29.672
34.689
39.774
44.855
49.845
54.643
59.152
63.277
66.961
70.187
72.965
75.325
77.301
78.934
80.274
81.38
82.311
83.123
83.865
84.579
85.312
86.112
87.028
88.11
89.389
90.883
92.6
94.542
96.704
99.081
101.661
104.423
107.351
110.431
113.647
116.989
120.441
123.983
127.596
131.259
134.951
138.653
142.346
146.008
149.62
153.163
156.616
159.963
163.185
166.26
169.169
171.892
174.41
176.704
178.758
180.554
182.077
183.314
184.255
184.889
185.208
185.205
184.876
184.217
183.226
181.904
180.252
178.273
175.972
173.356
170.431
167.208
163.697
159.911
155.863
151.568
147.041
142.3
137.361
132.244
126.966
121.549
116.012
110.374
104.658
98.883
93.07
87.239
81.411
75.605
69.84
64.135
58.507
52.973
47.549
42.25
37.09
32.083
27.241
22.575
18.095
13.81
9.729
5.857
2.199
-1.239
-4.454
-7.446
-10.213
-12.755
-15.073
-17.171
-19.052
-20.72
-22.18
-23.438
-24.502
-25.379
-26.077
-26.604
-26.971
-27.186
-27.26
-27.202
-27.022
-26.732
-26.341
-25.859
-25.297
-24.664
-23.97
-23.226
-22.438
-21.618
-20.772
-19.909
-19.035
-18.159
-17.285
-16.42
-15.57
-14.738
-13.929
-13.146
-12.392
-11.671
-10.983
-10.33
-9.713
-9.133
-8.589
-8.082
-7.61
-7.173
-6.769
-6.398
-6.056
-5.743
-5.456
-5.193
-4.952
-4.732
-4.529
-4.342
-4.169
-4.008
-3.858
-3.717
-3.583
-3.455
-3.333
-3.216
-3.102
-2.993
-2.887
-2.785
-2.688
-2.595
-2.508
-2.428
-2.355
-2.292
-2.24
-2.2
-2.174
-2.163
-2.171
-2.198
-2.246
-2.317
-2.414
-2.537
-2.688
-2.869
-3.079
-3.32
-3.592
-3.896
-4.229
-4.593
-4.987
-5.408
-5.856
-6.328
-6.824
-7.339
-7.871
-8.417
-8.974
-9.537
-10.102
-10.665
-11.221
-11.766
-12.296
-12.804
-13.286
-13.737
-14.151
-14.523
-14.849
-15.122
-15.339
-15.495
-15.587
-15.611
-15.565
-15.447
-15.257
-14.996
-14.663
-14.26
-13.789
-13.252
-12.653
-11.994
-11.281
-10.517
-9.708
-8.859
-7.979
-7.075
-6.154
-5.225
-4.296
-3.374
-2.469
-1.591
-0.747
0.058
0.816
1.52
2.162
2.731
3.22
3.63
3.961
4.214
4.393
4.502
4.551
4.56
4.545
4.522
4.503
4.493
4.5
4.537
4.618
4.762
4.976
5.259
5.607
6.017
6.48
6.985
7.5
7.969
8.342
8.563
8.584
8.374
7.893
7.108
5.979
4.454
2.492
0.06
-2.864
-6.287
-10.226
-14.724
-19.737
-25.111
-30.601
-35.848
-40.535
-44.464
-47.402
-49.027
-49.145
-47.784
-45.277
-42.333
-39.602
-37.351
-35.818
-35.408
-36.358
-38.641
-41.43
-42.792
-40.956
-34.861
-24.458
-10.917
5.089
23.537
45.134
72.298
106.588
148.045
195.659
244.815
289.707
325.22
344.711
342.922
316.249
262.022
183.078
85.958
-21.82
-132.846
-245.161
-359.27
-470.928
-579.307
-689.86
-784.969
-826.975
-816.136
-787.366
-752.672
-703.843
-643.251
-578.078
-509.633
-439.244
-370.394
-305.854
-248.4
-199.576
-158.93
-126.177
-100.512
-81.185
-68.43
-61.24
-57.865
-56.413
-54.489
-50.847
-45.433
-38.38
-30.109
-21.276
-12.455
-4.479
1.628
5.46
7.088
6.777
5.031
2.345
-0.861
-4.034
-6.561
-8.083
-8.447
-7.651
-5.84
-3.136
0.366
4.526
9.178
14.169
19.372
24.678
30.008
35.278
40.385
45.235
49.736
53.816
57.434
60.586
63.284
65.558
67.45
69.004
70.276
71.33
72.227
73.024
73.772
74.517
75.307
76.189
77.21
78.413
79.824
81.459
83.323
85.418
87.741
90.285
93.038
95.982
99.101
102.382
105.812
109.376
113.06
116.845
120.712
124.64
128.611
132.605
136.603
140.585
144.53
148.42
152.234
155.955
159.562
163.035
166.353
169.495
172.443
175.177
177.679
179.933
181.923
183.634
185.055
186.176
186.986
187.479
187.648
187.489
186.999
186.177
185.023
183.54
181.73
179.6
177.156
174.406
171.361
168.03
164.427
160.566
156.46
152.126
147.581
142.842
137.926
132.854
127.643
122.314
116.887
111.381
105.817
100.214
94.591
88.969
83.365
77.797
72.283
66.839
61.482
56.227
51.088
46.078
41.21
36.496
31.946
27.57
23.375
19.369
15.559
11.948
8.542
5.342
2.35
-0.433
-3.007
-5.375
-7.538
-9.5
-11.265
-12.839
-14.226
-15.434
-16.469
-17.34
-18.053
-18.618
-19.043
-19.336
-19.508
-19.567
-19.523
-19.385
-19.162
-18.863
-18.498
-18.074
-17.602
-17.089
-16.543
-15.971
-15.382
-14.78
-14.174
-13.568
-12.969
-12.381
-11.808
-11.255
-10.726
-10.222
-9.748
-9.304
-8.893
-8.517
-8.175
-7.869
-7.6
-7.366
-7.168
-7.006
-6.878
-6.784
-6.722
-6.692
-6.691
-6.719
-6.773
-6.852
-6.955
-7.079
-7.222
-7.384
-7.563
-7.756
-7.962
-8.18
-8.409
-8.646
-8.892
-9.144
-9.403
-9.667
-9.935
-10.206
-10.481
-10.759
-11.039
-11.322
-11.606
-11.893
-12.181
-12.472
-12.766
-13.063
-13.363
-13.667
-13.975
-14.288
-14.607
-14.931
-15.263
-15.602
-15.948
-16.303
-16.667
-17.04
-17.422
-17.813
-18.213
-18.622
-19.038
-19.461
-19.889
-20.322
-20.758
-21.195
-21.633
-22.068
-22.499
-22.924
-23.341
-23.746
-24.137
-24.51
-24.863
-25.193
-25.495
-25.766
-26.004
-26.205
-26.364
-26.478
-26.545
-26.559
-26.519
-26.42
-26.26
-26.037
-25.748
-25.393
-24.971
-24.483
-23.929
-23.311
-22.633
-21.896
-21.104
-20.26
-19.368
-18.434
-17.462
-16.456
-15.422
-14.367
-13.299
-12.226
-11.156
-10.095
-9.053
-8.036
-7.055
-6.117
-5.23
-4.399
-3.629
-2.927
-2.299
-1.756
-1.302
-0.936
-0.655
-0.456
-0.335
-0.286
-0.297
-0.348
-0.42
-0.496
-0.562
-0.613
-0.639
-0.627
-0.564
-0.431
-0.22
0.066
0.426
0.856
1.349
1.895
2.461
2.995
3.443
3.749
3.862
3.749
3.366
2.683
1.659
0.241
-1.614
-3.938
-6.755
-10.069
-13.898
-18.295
-23.217
-28.498
-33.874
-38.964
-43.438
-47.096
-49.69
-50.883
-50.477
-48.545
-45.505
-42.093
-38.964
-36.438
-34.783
-34.451
-35.769
-38.353
-40.969
-41.893
-39.399
-33.085
-23.719
-11.461
3.819
22.958
47.794
79.549
118.463
163.958
214.081
264.245
308.777
341.736
355.784
345.763
309.146
245.211
158.622
56.848
-53.719
-167.56
-283.441
-401.455
-515.758
-624.825
-728.588
-803.288
-826.613
-815.581
-791.539
-752.377
-697.31
-633.35
-564.155
-491.207
-417.693
-347.792
-284.665
-230.513
-185.655
-148.682
-118.745
-95.03
-77.249
-65.884
-59.818
-57.145
-55.905
-53.798
-49.804
-44.025
-36.642
-28.134
-19.246
-10.6
-3.017
2.586
5.924
7.135
6.514
4.574
1.814
-1.331
-4.328
-6.62
-7.899
-8.049
-7.092
-5.177
-2.426
1.062
5.152
9.687
14.526
19.549
24.65
29.748
34.763
39.597
44.16
48.368
52.153
55.48
58.35
60.781
62.806
64.469
65.813
66.896
67.78
68.527
69.192
69.828
70.477
71.186
72.002
72.968
74.125
75.5
77.104
78.942
81.015
83.319
85.847
88.585
91.516
94.622
97.89
101.306
104.857
108.526
112.294
116.143
120.051
123.998
127.966
131.935
135.883
139.791
143.638
147.404
151.071
154.618
158.024
161.269
164.332
167.193
169.833
172.236
174.382
176.258
177.849
179.144
180.132
180.804
181.154
181.175
180.863
180.217
179.236
177.921
176.273
174.297
171.999
169.386
166.467
163.252
159.752
155.981
151.951
147.68
143.182
138.474
133.575
128.503
123.277
117.917
112.442
106.873
101.23
95.534
89.803
84.059
78.32
72.605
66.933
61.32
55.784
50.341
45.005
39.791
34.712
29.781
25.009
20.407
15.983
11.746
7.702
3.858
0.218
-3.214
-6.436
-9.447
-12.246
-14.834
-17.213
-19.386
-21.356
-23.128
-24.707
-26.1
-27.313
-28.354
-29.23
-29.95
-30.522
-30.956
-31.26
-31.444
-31.517
-31.489
-31.368
-31.164
-30.886
-30.542
-30.141
-29.691
-29.201
-28.676
-28.126
-27.555
-26.97
-26.377
-25.782
-25.187
-24.599
-24.019
-23.453
-22.901
-22.367
-21.852
-21.358
-20.885
-20.434
-20.005
-19.598
-19.213
-18.848
-18.503
-18.178
-17.869
-17.577
-17.299
-17.034
-16.78
-16.536
-16.301
-16.072
-15.848
-15.629
-15.412
-15.197
-14.983
-14.768
-14.553
-14.337
-14.119
-13.9
-13.679
-13.457
-13.235
-13.012
-12.79
-12.57
-12.351
-12.137
-11.927
-11.723
-11.527
-11.34
-11.164
-11.0
-10.852
-10.719
-10.605
-10.511
-10.438
-10.389
-10.365
-10.367
-10.398
-10.458
-10.549
-10.672
-10.828
-11.017
-11.24
-11.497
-11.788
-12.111
-12.467
-12.854
-13.27
-13.713
-14.183
-14.676
-15.19
-15.722
-16.27
-16.83
-17.398
-17.971
-18.544
-19.114
-19.675
-20.224
-20.755
-21.264
-21.745
-22.195
-22.608
-22.979
-23.303
-23.575
-23.791
-23.946
-24.036
-24.057
-24.007
-23.882
-23.682
-23.406
-23.053
-22.626
-22.125
-21.553
-20.911
-20.204
-19.434
-18.607
-17.726
-16.796
-15.822
-14.812
-13.773
-12.714
-11.643
-10.568
-9.497
-8.439
-7.403
-6.398
-5.432
-4.511
-3.644
-2.837
-2.1
-1.443
-0.874
-0.393
0.001
0.31
0.541
0.699
0.794
0.846
0.871
0.884
0.899
0.922
0.964
1.036
1.155
1.338
1.596
1.927
2.325
2.785
3.293
3.833
4.375
4.863
5.247
5.481
5.51
5.299
4.801
3.973
2.784
1.195
-0.834
-3.327
-6.308
-9.799
-13.778
-18.241
-23.21
-28.572
-34.138
-39.649
-44.697
-48.956
-52.241
-54.266
-54.678
-53.428
-50.653
-46.798
-42.752
-39.07
-35.977
-33.929
-33.347
-34.282
-36.293
-37.912
-37.061
-32.312
-23.4
-11.189
3.567
20.583
40.442
65.565
97.75
137.438
184.179
233.802
279.967
316.956
337.985
337.432
312.51
261.34
185.714
91.511
-14.808
-126.939
-241.644
-358.414
-472.192
-581.306
-693.124
-790.648
-833.495
-821.377
-791.242
-755.472
-704.653
-640.839
-572.017
-500.283
-427.336
-357.039
-292.307
-235.548
-187.841
-148.312
-116.448
-91.51
-72.883
-60.866
-54.378
-51.526
-50.334
-48.404
-44.556
-38.813
-31.368
-22.707
-13.546
-4.505
3.572
9.69
13.484
15.053
14.686
12.901
10.207
7.039
3.95
1.534
0.136
-0.104
0.808
2.728
5.532
9.125
13.368
18.099
23.168
28.449
33.835
39.244
44.59
49.773
54.696
59.271
63.425
67.118
70.347
73.125
75.483
77.462
79.106
80.47
81.619
82.614
83.511
84.362
85.211
86.108
87.099
88.232
89.547
91.071
92.818
94.795
97.001
99.435
102.088
104.949
108.0
111.224
114.608
118.138
121.802
125.584
129.464
133.424
137.444
141.503
145.583
149.665
153.728
157.751
161.715
165.6
169.386
173.055
176.583
179.95
183.136
186.118
188.879
191.399
193.66
195.646
197.342
198.736
199.815
200.57
200.992
201.074
200.812
200.202
199.241
197.931
196.272
194.267
191.921
189.242
186.236
182.914
179.286
175.365
171.166
166.702
161.991
157.05
151.896
146.55
141.03
135.358
129.553
123.638
117.634
111.562
105.444
99.302
93.156
87.026
80.934
74.897
68.935
63.066
57.307
51.673
46.181
40.845
35.677
30.69
25.895
21.301
16.917
12.751
8.807
5.092
1.607
-1.644
-4.661
-7.443
-9.993
-12.314
-14.408
-16.28
-17.936
-19.383
-20.628
-21.68
-22.546
-23.237
-23.761
-24.13
-24.354
-24.443
-24.409
-24.262
-24.013
-23.673
-23.253
-22.763
-22.213
-21.614
-20.976
-20.306
-19.614
-18.908
-18.195
-17.483
-16.778
-16.086
-15.412
-14.76
-14.135
-13.54
-12.978
-12.451
-11.96
-11.508
-11.093
-10.717
-10.38
-10.08
-9.816
-9.588
-9.394
-9.231
-9.098
-8.993
-8.913
-8.856
-8.821
-8.804
-8.803
-8.816
-8.842
-8.878
-8.923
-8.975
-9.032
-9.095
-9.161
-9.231
-9.303
-9.377
-9.454
-9.533
-9.616
-9.703
-9.794
-9.891
-9.995
-10.108
-10.231
-10.365
-10.512
-10.675
-10.854
-11.051
-11.269
-11.509
-11.772
-12.061
-12.375
-12.716
-13.085
-13.481
-13.905
-14.356
-14.834
-15.337
-15.864
-16.414
-16.985
-17.575
-18.18
-18.799
-19.428
-20.063
-20.701
-21.338
-21.969
-22.59
-23.196
-23.783
-24.346
-24.879
-25.378
-25.838
-26.253
-26.618
-26.929
-27.18
-27.367
-27.486
-27.534
-27.507
-27.404
-27.223
-26.964
-26.629
-26.218
-25.732
-25.175
-24.548
-23.856
-23.101
-22.289
-21.423
-20.51
-19.554
-18.565
-17.552
-16.522
-15.484
-14.447
-13.42
-12.412
-11.432
-10.488
-9.587
-8.738
-7.949
-7.23
-6.594
-6.047
-5.592
-5.229
-4.955
-4.763
-4.649
-4.6
-4.598
-4.63
-4.682
-4.743
-4.808
-4.866
-4.904
-4.908
-4.857
-4.741
-4.559
-4.313
-4.008
-3.658
-3.28
-2.901
-2.57
-2.327
-2.204
-2.238
-2.464
-2.916
-3.641
-4.677
-6.048
-7.785
-9.911
-12.449
-15.421
-18.831
-22.647
-26.841
-31.406
-36.249
-41.207
-46.043
-50.393
-53.953
-56.55
-57.927
-57.765
-56.023
-52.835
-48.612
-44.188
-40.092
-36.54
-33.978
-32.831
-33.148
-34.533
-35.594
-34.305
-29.262
-20.163
-7.939
6.383
22.207
39.85
61.862
90.682
127.616
173.135
223.261
271.182
310.072
331.379
328.765
299.631
243.289
164.333
70.367
-31.528
-135.467
-240.386
-347.272
-452.449
-553.454
-654.619
-742.568
-782.84
-773.509
-747.777
-717.264
-672.605
-614.279
-548.942
-481.11
-414.427
-352.14
-296.503
-247.106
-202.6
-163.01
-128.78
-100.775
-80.055
-66.352
-58.145
-53.538
-50.348
-46.697
-41.809
-35.592
-28.166
-19.845
-11.126
-2.521
5.214
11.155
14.94
16.622
16.427
14.821
12.259
9.135
5.975
3.365
1.662
1.03
1.493
2.925
5.222
8.305
12.046
16.292
20.901
25.752
30.745
35.806
40.857
45.8
50.539
54.983
59.053
62.704
65.926
68.726
71.132
73.18
74.911
76.377
77.642
78.763
79.793
80.783
81.772
82.808
83.936
85.205
86.656
88.317
90.204
92.323
94.675
97.257
100.06
103.072
106.273
109.646
113.174
116.844
120.641
124.548
128.545
132.612
136.725
140.866
145.013
149.145
153.24
157.279
161.239
165.102
168.847
172.454
175.902
179.169
182.234
185.077
187.68
190.022
192.087
193.859
195.323
196.467
197.281
197.755
197.882
197.655
197.072
196.129
194.825
193.163
191.143
188.772
186.055
183.0
179.615
175.913
171.906
167.606
163.03
158.194
153.114
147.81
142.301
136.607
130.748
124.746
118.623
112.401
106.102
99.748
93.362
86.965
80.578
74.223
67.92
61.688
55.546
49.513
43.605
37.838
32.227
26.788
21.531
16.47
11.615
6.975
2.557
-1.63
-5.583
-9.296
-12.768
-15.996
-18.98
-21.721
-24.222
-26.485
-28.515
-30.318
-31.899
-33.266
-34.426
-35.389
-36.163
-36.759
-37.186
-37.455
-37.576
-37.562
-37.421
-37.167
-36.809
-36.359
-35.826
-35.223
-34.558
-33.841
-33.082
-32.29
-31.473
-30.639
-29.796
-28.949
-28.106
-27.272
-26.452
-25.651
-24.872
-24.118
-23.393
-22.698
-22.036
-21.407
-20.812
-20.252
-19.728
-19.238
-18.783
-18.362
-17.975
-17.619
-17.296
-17.003
-16.739
-16.503
-16.295
-16.113
-15.957
-15.825
-15.718
-15.634
-15.573
-15.535
-15.52
-15.528
-15.558
-15.611
-15.688
-15.789
-15.914
-16.065
-16.242
-16.445
-16.676
-16.934
-17.22
-17.533
-17.875
-18.244
-18.639
-19.06
-19.506
-19.974
-20.465
-20.975
-21.502
-22.045
-22.599
-23.162
-23.73
-24.3
-24.867
-25.427
-25.977
-26.51
-27.023
-27.51
-27.968
-28.39
-28.772
-29.108
-29.394
-29.623
-29.792
-29.897
-29.932
-29.896
-29.785
-29.598
-29.333
-28.991
-28.572
-28.078
-27.511
-26.872
-26.166
-25.396
-24.567
-23.683
-22.749
-21.771
-20.757
-19.713
-18.648
-17.571
-16.49
-15.413
-14.349
-13.307
-12.297
-11.327
-10.404
-9.534
-8.725
-7.985
-7.326
-6.755
-6.271
-5.873
-5.56
-5.325
-5.165
-5.067
-5.012
-4.981
-4.956
-4.925
-4.883
-4.821
-4.729
-4.591
-4.386
-4.105
-3.75
-3.326
-2.843
-2.308
-1.735
-1.16
-0.64
-0.232
-0.001
0.017
-0.207
-0.707
-1.506
-2.647
-4.183
-6.145
-8.565
-11.455
-14.805
-18.633
-22.975
-27.763
-32.827
-37.901
-42.61
-46.665
-49.891
-52.058
-52.881
-52.193
-50.055
-46.838
-43.233
-39.86
-36.972
-34.78
-33.671
-33.85
-35.222
-37.03
-37.529
-35.029
-28.517
-17.753
-3.507
13.398
32.474
53.731
78.824
109.478
146.651
190.393
236.658
279.252
311.881
326.715
318.517
284.934
225.132
143.815
48.345
-54.543
-158.784
-263.767
-370.488
-475.119
-577.869
-678.129
-753.156
-780.964
-775.099
-754.437
-716.891
-662.749
-600.35
-534.973
-469.977
-407.844
-350.003
-296.513
-246.372
-199.879
-158.179
-122.81
-95.357
-75.894
-63.49
-56.347
-52.133
-49.004
-45.413
-40.546
-34.403
-27.073
-18.804
-10.171
-1.727
5.793
11.496
15.049
16.53
16.178
14.46
11.845
8.736
5.647
3.143
1.557
1.038
1.6
3.114
5.473
8.592
12.345
16.581
21.161
25.966
30.893
35.868
40.811
45.623
50.214
54.493
58.386
61.853
64.885
67.497
69.717
71.583
73.138
74.434
75.535
76.498
77.378
78.224
79.078
79.986
80.995
82.15
83.493
85.051
86.837
88.858
91.114
93.599
96.307
99.224
102.329
105.606
109.037
112.61
116.308
120.116
124.011
127.974
131.982
136.014
140.049
144.066
148.044
151.962
155.797
159.53
163.142
166.612
169.918
173.04
175.957
178.649
181.097
183.284
185.193
186.807
188.115
189.105
189.768
190.094
190.078
189.716
189.003
187.94
186.527
184.766
182.662
180.219
177.446
174.352
170.947
167.243
163.254
158.994
154.481
149.73
144.761
139.591
134.242
128.733
123.085
117.32
111.459
105.523
99.535
93.516
87.487
81.469
75.482
69.546
63.679
57.899
52.223
46.668
41.249
35.979
30.872
25.94
21.193
16.642
12.293
8.156
4.234
0.533
-2.943
-6.194
-9.217
-12.014
-14.585
-16.934
-19.063
-20.978
-22.683
-24.186
-25.493
-26.612
-27.551
-28.319
-28.925
-29.379
-29.692
-29.872
-29.93
-29.876
-29.72
-29.473
-29.144
-28.744
-28.28
-27.763
-27.201
-26.603
-25.977
-25.329
-24.667
-23.997
-23.325
-22.656
-21.995
-21.347
-20.714
-20.1
-19.508
-18.939
-18.395
-17.877
-17.386
-16.921
-16.484
-16.074
-15.69
-15.331
-14.997
-14.686
-14.397
-14.129
-13.88
-13.649
-13.435
-13.235
-13.05
-12.878
-12.718
-12.568
-12.428
-12.299
-12.178
-12.066
-11.963
-11.869
-11.784
-11.708
-11.643
-11.588
-11.545
-11.516
-11.5
-11.5
-11.518
-11.553
-11.609
-11.687
-11.788
-11.913
-12.064
-12.242
-12.449
-12.685
-12.952
-13.25
-13.579
-13.94
-14.332
-14.755
-15.209
-15.691
-16.202
-16.737
-17.296
-17.877
-18.475
-19.089
-19.715
-20.349
-20.989
-21.629
-22.266
-22.895
-23.512
-24.111
-24.687
-25.235
-25.75
-26.227
-26.661
-27.048
-27.381
-27.656
-27.869
-28.014
-28.089
-28.088
-28.009
-27.849
-27.606
-27.28
-26.868
-26.373
-25.796
-25.139
-24.405
-23.598
-22.721
-21.781
-20.782
-19.73
-18.631
-17.492
-16.319
-15.12
-13.903
-12.678
-11.453
-10.237
-9.04
-7.869
-6.736
-5.649
-4.617
-3.643
-2.735
-1.897
-1.138
-0.466
0.113
0.6
0.996
1.303
1.524
1.666
1.741
1.774
1.784
1.79
1.804
1.832
1.884
1.971
2.11
2.316
2.598
2.953
3.38
3.88
4.448
5.067
5.7
6.283
6.749
7.043
7.119
6.942
6.487
5.711
4.562
2.994
0.961
-1.561
-4.576
-8.122
-12.253
-16.945
-22.063
-27.346
-32.411
-36.932
-40.702
-43.486
-44.977
-44.981
-43.545
-41.029
-38.143
-35.542
-33.485
-32.177
-32.02
-33.228
-35.715
-38.645
-40.077
-38.192
-31.932
-21.195
-7.014
9.864
29.215
51.505
78.949
113.262
155.085
204.016
255.27
302.285
338.733
356.713
351.094
319.467
260.494
178.475
80.717
-25.792
-134.353
-243.923
-355.389
-464.661
-572.953
-680.935
-762.604
-791.929
-785.741
-767.44
-733.487
-682.461
-622.065
-555.213
-484.039
-412.203
-343.79
-282.383
-229.404
-184.778
-147.417
-116.474
-91.621
-72.863
-60.587
-53.82
-50.699
-49.213
-47.074
-43.184
-37.566
-30.383
-22.073
-13.305
-4.643
3.112
8.998
12.668
14.206
13.873
12.164
9.563
6.479
3.448
1.052
-0.372
-0.682
0.122
1.901
4.539
7.942
11.977
16.484
21.319
26.359
31.502
36.67
41.783
46.744
51.461
55.848
59.831
63.372
66.464
69.122
71.374
73.259
74.819
76.109
77.19
78.121
78.957
79.747
80.534
81.363
82.28
83.33
84.554
85.979
87.619
89.479
91.56
93.859
96.369
99.078
101.968
105.022
108.227
111.57
115.037
118.613
122.28
126.018
129.808
133.631
137.468
141.301
145.108
148.871
152.57
156.187
159.704
163.102
166.36
169.459
172.378
175.1
177.605
179.876
181.898
183.654
185.133
186.321
187.209
187.789
188.054
187.997
187.614
186.905
185.867
184.501
182.811
180.798
178.47
175.833
172.896
169.668
166.159
162.384
158.355
154.087
149.596
144.898
140.01
134.952
129.741
124.397
118.939
113.387
107.762
102.082
96.369
90.641
84.917
79.217
73.559
67.959
62.435
57.003
51.678
46.474
41.405
36.484
31.722
27.13
22.716
18.491
14.46
10.63
7.006
3.592
0.391
-2.596
-5.369
-7.927
-10.273
-12.409
-14.339
-16.067
-17.598
-18.939
-20.096
-21.076
-21.888
-22.54
-23.04
-23.398
-23.624
-23.725
-23.713
-23.596
-23.384
-23.088
-22.715
-22.275
-21.778
-21.231
-20.643
-20.023
-19.376
-18.712
-18.035
-17.352
-16.669
-15.991
-15.322
-14.666
-14.026
-13.406
-12.808
-12.234
-11.685
-11.162
-10.666
-10.196
-9.754
-9.338
-8.948
-8.582
-8.239
-7.919
-7.619
-7.338
-7.074
-6.825
-6.591
-6.369
-6.157
-5.954
-5.758
-5.569
-5.385
-5.204
-5.027
-4.852
-4.68
-4.51
-4.342
-4.176
-4.013
-3.853
-3.697
-3.546
-3.401
-3.264
-3.136
-3.019
-2.914
-2.823
-2.749
-2.692
-2.656
-2.641
-2.65
-2.685
-2.747
-2.839
-2.961
-3.116
-3.305
-3.529
-3.788
-4.084
-4.417
-4.785
-5.19
-5.629
-6.102
-6.606
-7.141
-7.704
-8.293
-8.905
-9.536
-10.184
-10.845
-11.515
-12.189
-12.863
-13.533
-14.193
-14.839
-15.465
-16.067
-16.639
-17.176
-17.672
-18.123
-18.522
-18.865
-19.146
-19.36
-19.505
-19.575
-19.569
-19.482
-19.315
-19.067
-18.738
-18.33
-17.844
-17.281
-16.645
-15.94
-15.168
-14.335
-13.444
-12.501
-11.513
-10.488
-9.434
-8.36
-7.274
-6.185
-5.102
-4.034
-2.99
-1.981
-1.011
-0.09
0.775
1.574
2.294
2.927
3.473
3.93
4.302
4.594
4.809
4.958
5.059
5.128
5.178
5.221
5.263
5.313
5.382
5.486
5.642
5.863
6.145
6.487
6.884
7.323
7.789
8.256
8.672
8.996
9.184
9.189
8.979
8.52
7.77
6.701
5.276
3.453
1.206
-1.495
-4.671
-8.311
-12.42
-17.02
-22.037
-27.322
-32.64
-37.628
-41.974
-45.477
-47.89
-48.899
-48.323
-46.21
-42.933
-39.23
-35.778
-32.884
-30.813
-30.002
-30.709
-32.859
-35.563
-36.85
-34.902
-28.628
-17.931
-3.85
13.036
32.685
55.704
84.283
119.766
162.083
209.999
258.755
302.366
335.615
352.624
348.855
321.542
268.698
191.774
96.501
-11.166
-127.623
-245.503
-355.512
-463.904
-584.926
-706.102
-788.546
-814.806
-807.973
-788.233
-752.085
-699.388
-637.274
-568.292
-494.169
-418.639
-346.763
-283.032
-229.334
-185.485
-149.636
-120.228
-96.549
-78.533
-66.791
-60.461
-57.687
-56.446
-54.374
-50.396
-44.598
-37.195
-28.697
-19.831
-11.197
-3.606
2.009
5.341
6.513
5.816
3.764
0.858
-2.476
-5.702
-8.245
-9.783
-10.187
-9.463
-7.756
-5.186
-1.848
2.121
6.562
11.329
16.298
21.362
26.44
31.448
36.289
40.867
45.099
48.911
52.266
55.16
57.609
59.643
61.302
62.632
63.687
64.532
65.226
65.828
66.388
66.951
67.565
68.276
69.131
70.17
71.422
72.9
74.611
76.555
78.731
81.131
83.743
86.551
89.537
92.69
95.994
99.438
103.006
106.678
110.436
114.259
118.128
122.024
125.925
129.813
133.665
137.462
141.184
144.811
148.322
151.697
154.912
157.948
160.783
163.397
165.772
167.89
169.734
171.289
172.542
173.481
174.098
174.382
174.327
173.929
173.184
172.089
170.646
168.856
166.721
164.249
161.444
158.316
154.875
151.131
147.099
142.791
138.225
133.415
128.381
123.14
117.712
112.117
106.376
100.509
94.539
88.486
82.372
76.218
70.047
63.879
57.733
51.631
45.591
39.631
33.769
28.022
22.406
16.935
11.624
6.484
1.529
-3.233
-7.792
-12.139
-16.269
-20.177
-23.857
-27.308
-30.527
-33.515
-36.272
-38.8
-41.103
-43.184
-45.049
-46.703
-48.154
-49.409
-50.476
-51.364
-52.082
-52.64
-53.049
-53.318
-53.459
-53.481
-53.396
-53.214
-52.945
-52.601
-52.191
-51.726
-51.214
-50.665
-50.089
-49.492
-48.883
-48.269
-47.656
-47.052
-46.46
-45.887
-45.337
-44.813
-44.319
-43.857
-43.429
-43.038
-42.685
-42.369
-42.092
-41.853
-41.652
-41.489
-41.362
-41.27
-41.211
-41.185
-41.188
-41.219
-41.275
-41.355
-41.457
-41.576
-41.713
-41.863
-42.025
-42.196
-42.375
-42.56
-42.747
-42.937
-43.126
-43.314
-43.499
-43.68
-43.856
-44.025
-44.187
-44.341
-44.487
-44.625
-44.753
-44.872
-44.982
-45.082
-45.173
-45.255
-45.328
-45.392
-45.448
-45.497
-45.538
-45.574
-45.605
-45.631
-45.654
-45.676
-45.696
-45.717
-45.739
-45.765
-45.794
-45.83
-45.872
-45.923
-45.983
-46.054
-46.137
-46.233
-46.341
-46.464
-46.601
-46.752
-46.917
-47.096
-47.288
-47.492
-47.708
-47.935
-48.171
-48.415
-48.666
-48.921
-49.178
-49.434
-49.687
-49.933
-50.17
-50.393
-50.6
-50.787
-50.949
-51.083
-51.185
-51.249
-51.271
-51.248
-51.174
-51.045
-50.859
-50.61
-50.298
-49.918
-49.471
-48.955
-48.371
-47.719
-47.001
-46.218
-45.371
-44.463
-43.497
-42.477
-41.405
-40.285
-39.123
-37.926
-36.701
-35.455
-34.197
-32.933
-31.671
-30.42
-29.186
-27.979
-26.803
-25.666
-24.577
-23.544
-22.578
-21.687
-20.872
-20.134
-19.469
-18.871
-18.332
-17.84
-17.378
-16.93
-16.484
-16.029
-15.558
-15.061
-14.524
-13.934
-13.272
-12.527
-11.697
-10.781
-9.784
-8.722
-7.615
-6.492
-5.402
-4.385
-3.477
-2.717
-2.146
-1.801
-1.73
-1.969
-2.541
-3.48
-4.818
-6.586
-8.817
-11.512
-14.632
-18.149
-22.054
-26.268
-30.637
-34.905
-38.685
-41.651
-43.597
-44.286
-43.421
-40.877
-36.751
-31.434
-25.729
-20.314
-15.566
-11.908
-9.76
-9.334
-10.243
-11.191
-10.332
-5.966
2.442
13.986
28.017
44.459
63.975
89.378
122.864
164.621
214.043
266.89
316.422
356.443
379.656
379.973
354.719
302.874
227.137
133.781
28.998
-81.657
-195.979
-313.47
-429.602
-544.481
-658.368
-746.216
-782.47
-781.905
-765.76
-731.681
-679.683
-617.375
-547.793
-473.057
-396.842
-324.026
-258.952
-203.429
-157.444
-119.404
-87.959
-62.565
-43.195
-30.47
-23.561
-20.566
-19.339
-17.38
-13.483
-7.666
-0.136
8.622
17.907
27.115
35.398
41.735
45.741
47.495
47.267
45.565
42.89
39.671
36.466
33.888
32.293
31.832
32.51
34.185
36.738
40.079
44.069
48.545
53.358
58.384
63.519
68.687
73.804
78.77
83.49
87.872
91.84
95.354
98.404
101.004
103.181
104.976
106.432
107.606
108.562
109.361
110.059
110.71
111.357
112.049
112.835
113.762
114.874
116.199
117.754
119.544
121.574
123.838
126.332
129.043
131.953
135.045
138.306
141.722
145.28
148.963
152.754
156.631
160.574
164.563
168.579
172.602
176.61
180.582
184.499
188.34
192.087
195.717
199.21
202.544
205.698
208.65
211.381
213.873
216.106
218.065
219.733
221.099
222.151
222.878
223.271
223.325
223.034
222.395
221.406
220.066
218.378
216.344
213.97
211.262
208.228
204.878
201.223
197.276
193.049
188.559
183.821
178.852
173.671
168.296
162.747
157.044
151.207
145.258
139.216
133.105
126.944
120.755
114.558
108.373
102.22
96.118
90.085
84.138
78.295
72.57
66.98
61.537
56.255
51.146
46.22
41.487
36.955
32.633
28.524
24.635
20.969
17.529
14.315
11.328
8.567
6.03
3.714
1.613
-0.275
-1.958
-3.443
-4.736
-5.846
-6.781
-7.551
-8.165
-8.634
-8.966
-9.173
-9.265
-9.252
-9.145
-8.954
-8.689
-8.361
-7.978
-7.551
-7.089
-6.6
-6.092
-5.573
-5.051
-4.533
-4.024
-3.53
-3.057
-2.609
-2.189
-1.803
-1.452
-1.138
-0.865
-0.632
-0.441
-0.292
-0.185
-0.119
-0.094
-0.108
-0.161
-0.25
-0.373
-0.529
-0.714
-0.928
-1.167
-1.429
-1.712
-2.013
-2.33
-2.66
-3.001
-3.351
-3.707
-4.069
-4.434
-4.8
-5.167
-5.533
-5.896
-6.257
-6.614
-6.968
-7.317
-7.662
-8.004
-8.341
-8.676
-9.008
-9.339
-9.669
-10.0
-10.333
-10.668
-11.008
-11.354
-11.706
-12.066
-12.435
-12.815
-13.207
-13.611
-14.028
-14.459
-14.906
-15.367
-15.844
-16.336
-16.843
-17.364
-17.899
-18.445
-19.001
-19.566
-20.138
-20.714
-21.292
-21.869
-22.443
-23.01
-23.566
-24.109
-24.634
-25.138
-25.616
-26.064
-26.479
-26.856
-27.191
-27.481
-27.72
-27.906
-28.035
-28.104
-28.108
-28.046
-27.915
-27.712
-27.437
-27.09
-26.669
-26.177
-25.615
-24.985
-24.291
-23.537
-22.725
-21.863
-20.954
-20.004
-19.02
-18.006
-16.97
-15.919
-14.862
-13.805
-12.759
-11.732
-10.73
-9.764
-8.842
-7.973
-7.164
-6.421
-5.75
-5.154
-4.641
-4.22
-3.895
-3.666
-3.529
-3.481
-3.516
-3.628
-3.805
-4.026
-4.271
-4.518
-4.754
-4.97
-5.156
-5.3
-5.382
-5.383
-5.293
-5.112
-4.844
-4.497
-4.073
-3.583
-3.065
-2.574
-2.169
-1.913
-1.849
-2.014
-2.451
-3.192
-4.288
-5.796
-7.755
-10.196
-13.137
-16.568
-20.503
-24.979
-29.916
-35.128
-40.341
-45.174
-49.336
-52.662
-54.912
-55.774
-55.086
-52.932
-49.703
-46.068
-42.558
-39.394
-36.814
-35.246
-35.001
-35.721
-36.237
-34.982
-30.419
-22.307
-11.682
0.949
15.192
31.469
52.1
79.214
114.491
158.752
209.448
260.95
305.663
334.742
340.699
318.98
268.864
194.43
102.704
1.72
-102.44
-208.309
-316.57
-427.304
-536.488
-634.662
-711.221
-757.891
-772.894
-760.766
-727.688
-680.398
-623.659
-560.249
-494.089
-428.926
-367.36
-311.152
-260.239
-213.643
-171.291
-133.964
-102.906
-79.209
-63.002
-53.32
-48.097
-45.137
-42.75
-39.59
-35.201
-29.726
-23.17
-15.782
-8.187
-0.946
5.219
9.548
11.895
12.455
11.487
9.447
6.795
3.915
1.304
-0.537
-1.375
-1.142
0.122
2.263
5.166
8.747
12.868
17.381
22.153
27.059
32.007
36.932
41.748
46.363
50.687
54.631
58.152
61.241
63.908
66.186
68.109
69.717
71.062
72.207
73.211
74.13
75.015
75.905
76.85
77.895
79.086
80.472
82.079
83.924
86.013
88.348
90.924
93.736
96.768
100.003
103.422
107.01
110.751
114.633
118.636
122.741
126.925
131.167
135.444
139.734
144.015
148.265
152.462
156.582
160.605
164.51
168.275
171.877
175.294
178.503
181.483
184.213
186.674
188.847
190.715
192.265
193.482
194.356
194.877
195.037
194.831
194.253
193.302
191.978
190.281
188.215
185.785
182.998
179.861
176.386
172.585
168.469
164.056
159.359
154.398
149.191
143.757
138.117
132.291
126.302
120.172
113.924
107.58
101.163
94.697
88.204
81.706
75.225
68.782
62.397
56.091
49.881
43.786
37.823
32.007
26.353
20.875
15.586
10.496
5.615
0.952
-3.486
-7.693
-11.664
-15.396
-18.887
-22.137
-25.144
-27.912
-30.443
-32.741
-34.81
-36.657
-38.288
-39.71
-40.932
-41.962
-42.81
-43.486
-43.998
-44.358
-44.577
-44.664
-44.631
-44.489
-44.247
-43.917
-43.508
-43.031
-42.495
-41.91
-41.285
-40.627
-39.945
-39.246
-38.537
-37.824
-37.113
-36.409
-35.717
-35.04
-34.383
-33.748
-33.137
-32.553
-31.998
-31.471
-30.974
-30.508
-30.071
-29.665
-29.289
-28.942
-28.623
-28.332
-28.067
-27.827
-27.612
-27.42
-27.25
-27.1
-26.97
-26.859
-26.766
-26.69
-26.631
-26.588
-26.562
-26.551
-26.557
-26.58
-26.62
-26.677
-26.752
-26.846
-26.959
-27.094
-27.25
-27.428
-27.63
-27.856
-28.107
-28.382
-28.683
-29.009
-29.36
-29.735
-30.133
-30.554
-30.996
-31.457
-31.937
-32.433
-32.942
-33.462
-33.991
-34.525
-35.061
-35.595
-36.123
-36.641
-37.145
-37.63
-38.092
-38.527
-38.928
-39.292
-39.613
-39.888
-40.11
-40.275
-40.38
-40.42
-40.392
-40.294
-40.124
-39.88
-39.564
-39.175
-38.715
-38.187
-37.591
-36.931
-36.211
-35.435
-34.606
-33.729
-32.81
-31.854
-30.869
-29.864
-28.846
-27.823
-26.804
-25.796
-24.809
-23.851
-22.932
-22.056
-21.232
-20.467
-19.769
-19.151
-18.618
-18.172
-17.811
-17.534
-17.336
-17.211
-17.148
-17.128
-17.137
-17.157
-17.177
-17.189
-17.183
-17.148
-17.067
-16.924
-16.709
-16.423
-16.071
-15.658
-15.196
-14.701
-14.203
-13.756
-13.408
-13.205
-13.2
-13.429
-13.938
-14.767
-15.946
-17.509
-19.494
-21.927
-24.83
-28.225
-32.091
-36.418
-41.223
-46.395
-51.754
-57.047
-61.884
-65.952
-69.07
-70.971
-71.327
-70.103
-67.435
-63.728
-59.814
-56.207
-53.109
-50.97
-50.193
-50.803
-52.391
-53.578
-52.374
-47.443
-38.513
-26.298
-11.562
5.268
24.575
48.506
78.803
116.382
161.477
210.051
255.757
292.142
310.885
306.184
275.71
218.593
139.319
45.469
-56.059
-159.052
-262.3
-366.786
-469.454
-571.051
-671.646
-748.965
-780.306
-779.097
-764.524
-733.206
-684.384
-625.587
-560.47
-492.771
-426.751
-365.1
-309.821
-260.558
-216.067
-176.52
-142.417
-114.579
-94.045
-80.576
-72.655
-68.353
-65.448
-62.027
-57.292
-51.172
-43.804
-35.51
-26.799
-18.184
-10.419
-4.431
-0.58
1.187
1.098
-0.378
-2.787
-5.737
-8.702
-11.103
-12.591
-13.006
-12.329
-10.686
-8.182
-4.901
-0.972
3.451
8.225
13.228
18.361
23.549
28.713
33.756
38.582
43.103
47.243
50.961
54.247
57.112
59.583
61.696
63.495
65.032
66.37
67.565
68.672
69.739
70.809
71.928
73.141
74.495
76.03
77.773
79.739
81.933
84.355
87.0
89.861
92.924
96.169
99.579
103.136
106.827
110.636
114.546
118.536
122.585
126.67
130.771
134.866
138.934
142.955
146.905
150.765
154.513
158.132
161.6
164.897
168.0
170.89
173.547
175.953
178.09
179.941
181.493
182.731
183.646
184.228
184.469
184.364
183.909
183.102
181.942
180.431
178.571
176.368
173.829
170.96
167.773
164.279
160.49
156.42
152.086
147.503
142.69
137.665
132.448
127.058
121.517
115.845
110.065
104.197
98.265
92.288
86.289
80.29
74.31
68.37
62.489
56.685
50.977
45.381
39.913
34.588
29.419
24.42
19.601
14.973
10.545
6.325
2.32
-1.465
-5.025
-8.358
-11.462
-14.337
-16.982
-19.4
-21.593
-23.564
-25.319
-26.863
-28.202
-29.343
-30.294
-31.064
-31.66
-32.092
-32.37
-32.504
-32.503
-32.378
-32.139
-31.796
-31.359
-30.838
-30.243
-29.583
-28.868
-28.106
-27.306
-26.476
-25.624
-24.757
-23.881
-23.002
-22.127
-21.26
-20.405
-19.567
-18.75
-17.955
-17.186
-16.444
-15.731
-15.049
-14.397
-13.777
-13.187
-12.629
-12.101
-11.603
-11.133
-10.691
-10.275
-9.883
-9.516
-9.17
-8.844
-8.538
-8.248
-7.975
-7.717
-7.472
-7.24
-7.02
-6.811
-6.612
-6.424
-6.245
-6.077
-5.918
-5.77
-5.633
-5.508
-5.394
-5.295
-5.209
-5.139
-5.086
-5.051
-5.035
-5.039
-5.065
-5.113
-5.186
-5.283
-5.406
-5.556
-5.733
-5.938
-6.171
-6.431
-6.719
-7.033
-7.373
-7.736
-8.122
-8.528
-8.952
-9.392
-9.844
-10.306
-10.774
-11.244
-11.713
-12.177
-12.63
-13.069
-13.489
-13.884
-14.25
-14.582
-14.875
-15.124
-15.324
-15.471
-15.559
-15.585
-15.544
-15.433
-15.247
-14.985
-14.644
-14.223
-13.72
-13.137
-12.474
-11.733
-10.918
-10.031
-9.076
-8.059
-6.983
-5.855
-4.681
-3.465
-2.216
-0.941
0.352
1.655
2.958
4.252
5.53
6.781
7.996
9.165
10.28
11.336
12.328
13.248
14.091
14.846
15.51
16.082
16.565
16.959
17.269
17.5
17.665
17.785
17.881
17.971
18.067
18.176
18.307
18.472
18.689
18.976
19.34
19.779
20.29
20.87
21.518
22.223
22.949
23.634
24.214
24.634
24.853
24.845
24.58
24.012
23.081
21.732
19.923
17.633
14.857
11.561
7.681
3.226
-1.672
-6.754
-11.648
-16.028
-19.703
-22.459
-23.974
-24.042
-22.686
-20.233
-17.405
-14.864
-12.875
-11.646
-11.529
-12.696
-15.061
-17.817
-19.074
-17.065
-10.696
0.249
14.788
32.21
52.304
75.387
103.4
137.854
179.012
226.303
275.69
321.49
358.494
379.951
380.393
356.295
305.044
229.223
135.101
29.94
-79.034
-189.466
-301.733
-412.39
-519.501
-627.366
-722.47
-769.72
-764.477
-738.628
-706.22
-659.477
-599.813
-534.758
-467.045
-398.853
-332.916
-271.352
-215.754
-166.478
-124.08
-89.182
-61.79
-42.163
-29.864
-23.248
-20.365
-18.881
-16.639
-12.675
-6.857
0.627
9.385
18.834
28.333
36.993
43.76
48.182
50.314
50.417
48.989
46.525
43.449
40.325
37.782
36.198
35.734
36.402
38.062
40.593
43.917
47.904
52.396
57.253
62.344
67.563
72.834
78.073
83.178
88.053
92.599
96.735
100.421
103.647
106.426
108.786
110.762
112.397
113.742
114.86
115.813
116.655
117.438
118.205
119.005
119.886
120.897
122.083
123.472
125.078
126.91
128.968
131.249
133.749
136.454
139.346
142.41
145.63
148.995
152.492
156.105
159.814
163.602
167.446
171.329
175.23
179.131
183.011
186.85
190.629
194.329
197.93
201.415
204.762
207.951
210.962
213.774
216.371
218.733
220.845
222.69
224.255
225.529
226.502
227.164
227.508
227.53
227.225
226.591
225.627
224.335
222.716
220.775
218.518
215.952
213.085
209.928
206.492
202.79
198.835
194.642
190.228
185.609
180.801
175.824
170.696
165.437
160.065
154.6
149.062
143.47
137.845
132.206
126.57
120.956
115.383
109.866
104.422
99.067
93.814
88.679
83.673
78.809
74.097
69.548
65.17
60.972
56.959
53.138
49.513
46.089
42.866
39.847
37.032
34.42
32.011
29.801
27.788
25.966
24.332
22.88
21.603
20.494
19.547
18.753
18.104
17.591
17.206
16.941
16.785
16.73
16.766
16.885
17.078
17.336
17.65
18.012
18.414
18.848
19.307
19.784
20.272
20.764
21.255
21.74
22.214
22.672
23.11
23.525
23.913
24.272
24.599
24.894
25.154
25.379
25.567
25.72
25.837
25.918
25.964
25.977
25.957
25.906
25.826
25.717
25.583
25.425
25.244
25.044
24.825
24.59
24.341
24.08
23.807
23.526
23.238
22.944
22.645
22.342
22.037
21.73
21.422
21.114
20.806
20.498
20.19
19.881
19.572
19.262
18.95
18.634
18.315
17.99
17.659
17.319
16.97
16.61
16.237
15.85
15.447
15.026
14.586
14.126
13.644
13.14
12.612
12.06
11.484
10.884
10.261
9.614
8.946
8.257
7.548
6.822
6.08
5.325
4.559
3.785
3.007
2.228
1.453
0.685
-0.071
-0.81
-1.529
-2.221
-2.884
-3.51
-4.096
-4.635
-5.124
-5.557
-5.929
-6.236
-6.474
-6.641
-6.732
-6.746
-6.683
-6.542
-6.324
-6.031
-5.663
-5.224
-4.717
-4.146
-3.514
-2.827
-2.089
-1.307
-0.487
0.362
1.231
2.113
2.997
3.877
4.741
5.581
6.386
7.147
7.858
8.512
9.101
9.616
10.043
10.378
10.62
10.768
10.825
10.794
10.679
10.491
10.25
9.971
9.674
9.367
9.056
8.749
8.46
8.201
7.991
7.84
7.745
7.702
7.71
7.759
7.837
7.915
7.935
7.848
7.597
7.138
6.44
5.466
4.188
2.567
0.553
-1.893
-4.804
-8.201
-12.091
-16.492
-21.451
-26.924
-32.751
-38.679
-44.337
-49.398
-53.663
-56.894
-58.767
-59.092
-57.913
-55.592
-52.878
-50.453
-48.605
-47.577
-47.767
-49.395
-52.392
-55.896
-57.95
-56.738
-51.141
-40.979
-27.237
-10.541
8.99
31.759
59.743
94.373
135.735
182.974
231.831
276.342
311.185
330.108
327.938
301.678
249.189
172.134
76.244
-31.891
-145.817
-262.277
-380.806
-496.646
-608.023
-721.136
-819.001
-863.411
-854.279
-826.035
-790.453
-739.613
-676.058
-607.552
-536.399
-464.527
-395.869
-333.288
-278.895
-233.388
-195.649
-165.088
-141.078
-123.233
-111.977
-106.256
-104.162
-103.676
-102.389
-99.146
-93.979
-87.074
-78.9
-70.153
-61.427
-53.543
-47.487
-43.629
-41.882
-41.991
-43.469
-45.845
-48.731
-51.629
-53.989
-55.505
-56.063
-55.68
-54.51
-52.676
-50.267
-47.415
-44.259
-40.908
-37.438
-33.893
-30.292
-26.667
-23.054
-19.475
-15.958
-12.532
-9.205
-5.974
-2.826
0.256
