100.984
102.859
104.571
106.12
107.505
108.729
109.79
110.693
111.438
112.029
112.47
112.764
112.917
112.932
112.814
112.57
112.205
111.724
111.135
110.442
109.653
108.774
107.81
106.769
105.656
104.477
103.237
101.943
100.599
99.21
97.781
96.316
94.819
93.294
91.744
90.173
88.584
86.98
85.362
83.735
82.1
80.46
78.815
77.169
75.522
73.876
72.233
70.592
68.955
67.323
65.695
64.074
62.458
60.849
59.247
57.651
56.063
54.483
52.911
51.346
49.79
48.243
46.704
45.175
43.654
42.144
40.642
39.151
37.669
36.198
34.736
33.284
31.841
30.407
28.983
27.568
26.163
24.768
23.383
22.011
20.652
19.308
17.979
16.667
15.375
14.105
12.856
11.63
10.43
9.255
8.109
6.993
5.906
4.852
3.833
2.854
1.916
1.024
0.178
-0.62
-1.367
-2.06
-2.697
-3.278
-3.804
-4.276
-4.688
-5.038
-5.321
-5.541
-5.71
-5.836
-5.925
-5.987
-6.029
-6.064
-6.111
-6.175
-6.254
-6.344
-6.441
-6.549
-6.687
-6.867
-7.104
-7.403
-7.755
-8.16
-8.631
-9.162
-9.745
-10.368
-11.006
-11.665
-12.384
-13.192
-14.115
-15.161
-16.322
-17.594
-18.974
-20.456
-22.035
-23.693
-25.403
-27.163
-28.986
-30.885
-32.886
-34.968
-37.068
-39.141
-41.153
-43.08
-44.919
-46.661
-48.3
-49.858
-51.391
-52.966
-54.652
-56.491
-58.49
-60.654
-62.996
-65.57
-68.466
-71.759
-75.503
-79.726
-84.479
-89.852
-95.845
-102.346
-109.075
-115.608
-121.582
-126.746
-130.805
-133.408
-134.318
-133.412
-130.993
-127.792
-124.381
-121.198
-118.62
-116.96
-116.607
-117.77
-119.82
-121.427
-121.263
-117.908
-110.201
-97.071
-76.939
-48.563
-11.861
32.331
82.433
136.122
190.997
243.962
290.593
326.441
347.467
350.148
332.084
291.536
228.502
145.854
47.565
-61.643
-179.512
-307.208
-442.034
-577.142
-699.614
-791.321
-842.519
-852.873
-830.69
-791.669
-745.896
-697.467
-646.711
-590.124
-527.969
-463.277
-399.287
-340.587
-289.732
-247.141
-213.128
-186.961
-167.294
-153.469
-144.527
-138.736
-134.698
-131.046
-126.381
-120.334
-113.112
-104.766
-95.665
-86.482
-77.728
-70.124
-64.45
-60.832
-59.087
-58.953
-59.955
-61.651
-63.673
-65.528
-66.709
-66.945
-66.124
-64.262
-61.495
-57.927
-53.649
-48.786
-43.486
-37.89
-32.114
-26.258
-20.398
-14.608
-8.979
-3.596
1.457
6.107
10.313
14.07
17.389
20.296
22.827
25.02
26.923
28.599
30.102
31.484
32.791
34.061
35.334
36.656
38.07
39.617
41.325
43.209
45.277
47.533
49.976
52.601
55.399
58.352
61.445
64.667
68.005
71.448
74.982
78.589
82.252
85.951
89.668
93.384
97.08
100.736
104.333
107.852
111.275
114.583
117.759
120.782
123.633
126.292
128.74
130.961
132.936
134.649
136.085
137.231
138.075
138.607
138.82
138.705
138.258
137.476
136.356
134.899
133.107
130.982
128.531
125.759
122.676
119.292
115.618
111.667
107.453
102.992
98.3
93.396
88.297
83.022
77.593
72.03
66.353
60.585
54.746
48.859
42.946
37.027
31.125
25.26
19.453
13.724
8.09
2.571
-2.817
-8.057
-13.134
-18.034
-22.744
-27.253
-31.55
-35.627
-39.474
-43.086
-46.458
-49.584
-52.464
-55.095
-57.477
-59.612
-61.501
-63.147
-64.557
-65.733
-66.684
-67.417
-67.939
-68.259
-68.388
-68.335
-68.111
-67.727
-67.195
-66.526
-65.732
-64.826
-63.818
-62.721
-61.546
-60.305
-59.009
-57.667
-56.291
-54.89
-53.474
-52.051
-50.629
-49.217
-47.821
-46.447
-45.102
-43.791
-42.519
-41.288
-40.104
-38.968
-37.882
-36.849
-35.87
-34.944
-34.073
-33.255
-32.491
-31.777
-31.115
-30.5
-29.931
-29.406
-28.923
-28.478
-28.069
-27.694
-27.349
-27.031
-26.74
-26.47
-26.221
-25.989
-25.773
-25.57
-25.378
-25.195
-25.02
-24.851
-24.686
-24.526
-24.369
-24.214
-24.062
-23.912
-23.764
-23.62
-23.478
-23.341
-23.209
-23.083
-22.965
-22.856
-22.757
-22.671
-22.598
-22.541
-22.5
-22.477
-22.474
-22.491
-22.529
-22.589
-22.672
-22.777
-22.904
-23.055
-23.227
-23.421
-23.636
-23.87
-24.123
-24.391
-24.673
-24.966
-25.268
-25.574
-25.883
-26.188
-26.487
-26.776
-27.049
-27.302
-27.529
-27.726
-27.887
-28.007
-28.081
-28.104
-28.072
-27.98
-27.826
-27.606
-27.319
-26.963
-26.539
-26.046
-25.486
-24.859
-24.168
-23.415
-22.605
-21.74
-20.825
-19.863
-18.863
-17.829
-16.772
-15.698
-14.615
-13.532
-12.459
-11.406
-10.383
-9.4
-8.464
-7.583
-6.767
-6.024
-5.369
-4.808
-4.345
-3.98
-3.714
-3.542
-3.463
-3.465
-3.529
-3.636
-3.766
-3.902
-4.039
-4.161
-4.256
-4.307
-4.289
-4.188
-4.002
-3.73
-3.375
-2.949
-2.461
-1.944
-1.457
-1.065
-0.837
-0.838
-1.111
-1.697
-2.636
-3.977
-5.79
-8.134
-11.05
-14.576
-18.719
-23.501
-28.992
-35.147
-41.764
-48.533
-54.993
-60.709
-65.411
-68.769
-70.315
-69.789
-67.244
-63.094
-58.234
-53.538
-49.464
-46.48
-45.261
-46.145
-48.895
-52.605
-55.439
-55.311
-50.83
-40.619
-22.676
4.435
41.212
87.467
140.499
196.726
254.412
310.316
361.606
405.864
436.067
446.647
432.718
389.263
319.452
228.854
123.357
10.847
-108.083
-236.219
-371.199
-507.642
-632.192
-726.101
-779.835
-792.643
-772.404
-734.598
-689.034
-639.83
-587.765
-529.76
-466.2
-400.158
-335.074
-275.701
-224.908
-183.449
-151.356
-127.517
-110.472
-99.372
-92.959
-89.331
-86.678
-83.214
-77.903
-70.777
-62.171
-52.386
-41.956
-31.612
-22.216
-14.823
-9.936
-7.414
-6.957
-8.095
-10.334
-13.267
-16.348
-18.934
-20.631
-21.26
-20.769
-19.276
-16.879
-13.632
-9.663
-5.12
-0.137
5.144
10.624
16.223
21.846
27.4
32.792
37.925
42.722
47.121
51.081
54.6
57.689
60.373
62.689
64.679
66.392
67.892
69.234
70.471
71.65
72.812
74.0
75.26
76.631
78.154
79.852
81.739
83.821
86.102
88.577
91.242
94.086
97.09
100.238
103.519
106.917
110.422
114.017
117.685
121.407
125.163
128.935
132.704
136.451
140.157
143.801
147.365
150.831
154.181
157.397
160.458
163.347
166.044
168.532
170.792
172.808
174.565
176.049
177.247
178.149
178.746
179.03
178.995
178.637
177.953
176.941
175.602
173.939
171.953
169.65
167.036
164.119
160.908
157.414
153.647
149.621
145.349
140.846
136.128
131.211
126.111
120.847
115.436
109.898
104.251
98.515
92.709
86.851
80.963
75.061
69.165
63.294
57.463
51.691
45.993
40.386
34.883
29.499
24.247
19.139
14.187
9.401
4.791
0.365
-3.869
-7.904
-11.736
-15.359
-18.769
-21.965
-24.944
-27.706
-30.251
-32.581
-34.699
-36.607
-38.309
-39.812
-41.121
-42.242
-43.182
-43.951
-44.555
-45.004
-45.307
-45.473
-45.511
-45.433
-45.246
-44.963
-44.591
-44.141
-43.624
-43.048
-42.422
-41.757
-41.061
-40.343
-39.612
-38.874
-38.139
-37.413
-36.703
-36.016
-35.356
-34.73
-34.141
-33.594
-33.092
-32.637
-32.232
-31.878
-31.576
-31.326
-31.13
-30.985
-30.892
-30.849
-30.855
-30.907
-31.005
-31.144
-31.324
-31.541
-31.792
-32.076
-32.388
-32.727
-33.088
-33.47
-33.868
-34.28
-34.703
-35.134
-35.57
-36.01
-36.449
-36.887
-37.321
-37.751
-38.174
-38.59
-38.998
-39.399
-39.791
-40.176
-40.553
-40.923
-41.288
-41.647
-42.003
-42.356
-42.707
-43.059
-43.41
-43.764
-44.121
-44.482
-44.847
-45.216
-45.591
-45.971
-46.356
-46.745
-47.138
-47.533
-47.929
-48.326
-48.721
-49.112
-49.497
-49.872
-50.235
-50.581
-50.907
-51.208
-51.479
-51.717
-51.915
-52.069
-52.175
-52.225
-52.216
-52.143
-51.999
-51.782
-51.486
-51.107
-50.643
-50.09
-49.447
-48.712
-47.885
-46.968
-45.961
-44.868
-43.692
-42.437
-41.108
-39.711
-38.25
-36.734
-35.167
-33.557
-31.913
-30.242
-28.554
-26.859
-25.167
-23.487
-21.831
-20.21
-18.635
-17.113
-15.651
-14.254
-12.929
-11.684
-10.528
-9.469
-8.507
-7.647
-6.888
-6.227
-5.66
-5.17
-4.732
-4.32
-3.913
-3.493
-3.05
-2.569
-2.032
-1.421
-0.714
0.102
1.032
2.085
3.269
4.579
5.998
7.479
8.937
10.295
11.482
12.437
13.122
13.478
13.432
12.914
11.855
10.204
7.941
5.012
1.319
-3.148
-8.28
-13.814
-19.307
-24.35
-28.644
-31.849
-33.519
-33.333
-31.261
-27.643
-23.269
-18.93
-15.048
-12.016
-10.437
-10.692
-12.615
-15.402
-17.334
-16.511
-11.792
-1.854
15.25
40.898
75.962
119.707
168.792
220.855
274.875
329.876
385.735
437.912
477.561
496.463
486.252
444.581
376.83
289.815
191.784
88.072
-22.899
-144.19
-275.24
-410.395
-535.927
-634.077
-694.827
-716.36
-705.598
-676.493
-637.835
-593.877
-545.699
-490.511
-429.144
-364.717
-300.24
-240.275
-187.676
-143.126
-107.164
-79.161
-57.627
-41.856
-31.035
-23.571
-18.11
-13.24
-7.408
-0.138
8.309
17.849
28.136
38.527
48.537
57.396
64.182
68.655
70.964
71.342
70.289
68.279
65.679
63.027
60.888
59.579
59.284
60.042
61.735
64.28
67.605
71.584
76.092
81.005
86.202
91.591
97.085
102.592
108.024
113.29
118.299
122.978
127.259
131.106
134.522
137.52
140.129
142.388
144.333
146.013
147.488
148.81
150.028
151.189
152.327
153.482
154.699
156.013
157.463
159.07
160.844
162.79
164.907
167.19
169.634
172.223
174.941
177.771
180.698
183.711
186.796
189.939
193.122
196.327
199.534
202.725
205.883
208.99
212.026
214.973
217.813
220.53
223.108
225.529
227.776
229.832
231.68
233.304
234.69
235.823
236.69
237.28
237.582
237.59
237.295
236.694
235.781
234.555
233.014
231.16
228.994
226.52
223.742
220.667
217.301
213.655
209.737
205.559
201.133
196.474
191.594
186.511
181.238
175.794
170.196
164.46
158.606
152.652
146.616
140.516
134.372
128.201
122.022
115.853
109.71
103.611
97.572
91.607
85.733
79.963
74.311
68.789
63.408
58.181
53.116
48.222
43.509
38.982
34.648
30.511
26.577
22.847
19.324
16.009
12.901
10.001
7.306
4.812
2.518
0.418
-1.493
-3.219
-4.769
-6.148
-7.363
-8.423
-9.336
-10.11
-10.753
-11.275
-11.685
-11.991
-12.203
-12.331
-12.382
-12.365
-12.29
-12.164
-11.996
-11.794
-11.564
-11.314
-11.052
-10.781
-10.51
-10.242
-9.983
-9.736
-9.506
-9.295
-9.106
-8.941
-8.803
-8.692
-8.61
-8.557
-8.532
-8.537
-8.57
-8.63
-8.716
-8.827
-8.96
-9.115
-9.289
-9.479
-9.685
-9.903
-10.132
-10.37
-10.614
-10.863
-11.114
-11.366
-11.618
-11.868
-12.116
-12.36
-12.601
-12.838
-13.071
-13.3
-13.527
-13.752
-13.976
-14.2
-14.426
-14.655
-14.889
-15.13
-15.381
-15.644
-15.921
-16.214
-16.528
-16.862
-17.222
-17.607
-18.022
-18.468
-18.947
-19.46
-20.01
-20.598
-21.223
-21.887
-22.589
-23.328
-24.104
-24.914
-25.757
-26.628
-27.526
-28.446
-29.384
-30.337
-31.298
-32.264
-33.228
-34.184
-35.127
-36.049
-36.944
-37.806
-38.626
-39.399
-40.117
-40.773
-41.361
-41.875
-42.307
-42.651
-42.903
-43.057
-43.108
-43.052
-42.887
-42.611
-42.222
-41.721
-41.11
-40.39
-39.566
-38.642
-37.624
-36.519
-35.334
-34.079
-32.761
-31.39
-29.976
-28.53
-27.062
-25.584
-24.107
-22.645
-21.209
-19.813
-18.468
-17.188
-15.984
-14.865
-13.839
-12.912
-12.093
-11.388
-10.807
-10.357
-10.037
-9.85
-9.796
-9.87
-10.064
-10.363
-10.741
-11.174
-11.644
-12.131
-12.626
-13.116
-13.582
-14.005
-14.363
-14.637
-14.817
-14.894
-14.852
-14.694
-14.431
-14.097
-13.767
-13.505
-13.365
-13.392
-13.606
-14.044
-14.767
-15.838
-17.319
-19.269
-21.706
-24.686
-28.322
-32.618
-37.495
-42.724
-47.875
-52.587
-56.616
-59.653
-61.354
-61.5
-59.977
-57.118
-53.698
-50.312
-47.425
-45.428
-44.608
-45.327
-47.707
-51.0
-53.819
-54.781
-52.429
-45.623
-33.262
-13.737
14.04
50.01
93.253
142.058
194.188
247.427
298.653
343.455
377.685
397.517
399.654
382.018
342.842
281.861
201.801
106.522
-0.435
-117.5
-244.831
-379.49
-512.43
-628.936
-714.457
-761.621
-772.762
-758.766
-730.583
-694.185
-651.38
-599.941
-539.203
-472.232
-402.812
-335.353
-273.651
-219.552
-173.877
-137.088
-108.73
-87.629
-73.04
-63.995
-58.814
-56.041
-54.151
-51.53
-47.615
-42.529
-36.255
-29.094
-21.67
-14.467
-8.255
-3.914
-1.633
-1.239
-2.461
-4.796
-7.755
-10.939
-13.805
-15.786
-16.608
-16.171
-14.508
-11.791
-8.142
-3.663
1.494
7.161
13.184
19.427
25.778
32.152
38.447
44.55
50.355
55.761
60.708
65.175
69.163
72.697
75.807
78.529
80.911
83.011
84.883
86.582
88.153
89.638
91.083
92.532
94.032
95.626
97.343
99.197
101.195
103.337
105.618
108.032
110.566
113.202
115.927
118.725
121.587
124.502
127.457
130.437
133.425
136.406
139.364
142.285
145.153
147.954
150.673
153.295
155.808
158.198
160.452
162.554
164.489
166.242
167.8
169.148
170.273
171.164
171.81
172.2
172.326
172.183
171.763
171.063
170.078
168.807
167.249
165.404
163.275
160.862
158.172
155.208
151.979
148.49
144.752
140.774
136.567
132.143
127.515
122.696
117.702
112.547
107.246
101.816
96.274
90.636
84.92
79.143
73.322
67.475
61.618
55.769
49.945
44.16
38.431
32.773
27.201
21.728
16.368
11.134
6.038
1.09
-3.698
-8.319
-12.762
-17.02
-21.088
-24.959
-28.628
-32.092
-35.348
-38.394
-41.229
-43.855
-46.271
-48.479
-50.483
-52.286
-53.892
-55.307
-56.536
-57.585
-58.462
-59.175
-59.73
-60.137
-60.404
-60.54
-60.554
-60.456
-60.255
-59.961
-59.583
-59.13
-58.612
-58.038
-57.416
-56.755
-56.063
-55.348
-54.619
-53.881
-53.141
-52.406
-51.682
-50.973
-50.286
-49.624
-48.99
-48.39
-47.825
-47.298
-46.812
-46.367
-45.965
-45.607
-45.293
-45.022
-44.796
-44.612
-44.47
-44.369
-44.307
-44.281
-44.292
-44.336
-44.411
-44.516
-44.648
-44.805
-44.985
-45.187
-45.408
-45.647
-45.901
-46.17
-46.452
-46.745
-47.048
-47.36
-47.681
-48.008
-48.343
-48.683
-49.03
-49.382
-49.74
-50.103
-50.473
-50.849
-51.231
-51.62
-52.016
-52.421
-52.833
-53.255
-53.685
-54.125
-54.573
-55.03
-55.495
-55.968
-56.446
-56.928
-57.413
-57.897
-58.38
-58.857
-59.327
-59.785
-60.23
-60.656
-61.06
-61.438
-61.786
-62.098
-62.371
-62.598
-62.776
-62.9
-62.965
-62.966
-62.898
-62.757
-62.539
-62.239
-61.855
-61.382
-60.818
-60.161
-59.409
-58.564
-57.624
-56.593
-55.472
-54.266
-52.979
-51.618
-50.189
-48.698
-47.155
-45.567
-43.944
-42.293
-40.625
-38.95
-37.278
-35.62
-33.988
-32.394
-30.848
-29.364
-27.953
-26.625
-25.391
-24.256
-23.226
-22.306
-21.505
-20.832
-20.291
-19.884
-19.613
-19.476
-19.471
-19.588
-19.813
-20.117
-20.475
-20.864
-21.266
-21.67
-22.06
-22.418
-22.724
-22.958
-23.101
-23.146
-23.083
-22.898
-22.591
-22.173
-21.687
-21.21
-20.811
-20.555
-20.492
-20.649
-21.075
-21.833
-22.986
-24.601
-26.725
-29.38
-32.621
-36.559
-41.209
-46.468
-52.072
-57.567
-62.545
-66.725
-69.785
-71.299
-70.983
-68.851
-65.308
-61.227
-57.447
-54.394
-52.439
-52.146
-53.834
-57.274
-61.556
-64.826
-65.108
-61.238
-51.917
-35.267
-9.948
24.893
68.439
117.302
169.128
222.876
277.732
333.676
386.05
426.157
445.733
436.368
396.071
330.13
245.27
149.852
48.837
-59.714
-179.222
-309.777
-446.178
-574.357
-675.655
-739.109
-762.003
-751.362
-722.373
-684.778
-643.035
-597.838
-545.247
-485.166
-420.888
-355.801
-294.716
-240.758
-194.739
-157.28
-128.12
-106.147
-90.48
-80.15
-73.551
-69.189
-65.625
-61.244
-55.303
-47.849
-39.006
-29.141
-18.909
-8.855
0.267
7.492
12.47
15.275
16.107
15.442
13.746
11.379
8.863
6.78
5.471
5.131
5.819
7.422
9.862
13.076
16.943
21.341
26.151
31.257
36.574
42.031
47.541
53.027
58.401
63.573
68.47
73.019
77.18
80.948
84.334
87.362
90.067
92.483
94.655
96.64
98.489
100.248
101.961
103.659
105.381
107.17
109.064
111.101
113.307
115.69
118.257
121.007
123.935
127.033
130.288
133.678
137.185
140.794
144.49
148.26
152.088
155.953
159.836
163.715
167.57
171.382
175.131
178.796
182.358
185.797
189.096
192.237
195.202
197.974
200.533
202.861
204.943
206.761
208.301
209.549
210.492
211.12
211.424
211.399
211.038
210.339
209.298
207.916
206.194
204.136
201.745
199.029
195.993
192.648
189.003
185.072
180.866
176.4
171.69
166.751
161.602
156.26
150.743
145.071
139.265
133.343
127.326
121.235
115.091
108.913
102.723
96.539
90.382
84.27
78.221
72.253
66.381
60.621
54.989
49.497
44.158
38.984
33.986
29.172
24.551
20.129
15.914
11.908
8.117
4.542
1.185
-1.954
-4.875
-7.581
-10.074
-12.357
-14.435
-16.314
-18.0
-19.499
-20.818
-21.965
-22.949
-23.778
-24.46
-25.005
-25.422
-25.72
-25.907
-25.994
-25.989
-25.901
-25.738
-25.508
-25.22
-24.88
-24.497
-24.075
-23.622
-23.143
-22.644
-22.129
-21.602
-21.068
-20.53
-19.992
-19.455
-18.922
-18.395
-17.876
-17.366
-16.865
-16.376
-15.898
-15.433
-14.981
-14.543
-14.119
-13.709
-13.315
-12.937
-12.575
-12.23
-11.903
-11.595
-11.307
-11.04
-10.797
-10.578
-10.386
-10.222
-10.089
-9.988
-9.922
-9.893
-9.904
-9.955
-10.05
-10.191
-10.38
-10.618
-10.907
-11.249
-11.643
-12.092
-12.593
-13.148
-13.755
-14.412
-15.117
-15.868
-16.662
-17.496
-18.365
-19.266
-20.194
-21.143
-22.108
-23.082
-24.059
-25.031
-25.992
-26.933
-27.846
-28.725
-29.562
-30.347
-31.074
-31.734
-32.32
-32.824
-33.239
-33.557
-33.772
-33.879
-33.874
-33.753
-33.513
-33.153
-32.673
-32.076
-31.362
-30.535
-29.599
-28.558
-27.42
-26.19
-24.877
-23.488
-22.033
-20.521
-18.966
-17.381
-15.777
-14.168
-12.567
-10.987
-9.444
-7.953
-6.526
-5.174
-3.909
-2.743
-1.689
-0.764
0.024
0.669
1.169
1.523
1.733
1.8
1.735
1.558
1.289
0.947
0.547
0.097
-0.389
-0.893
-1.395
-1.872
-2.307
-2.696
-3.034
-3.313
-3.535
-3.703
-3.843
-4.004
-4.24
-4.606
-5.152
-5.917
-6.937
-8.247
-9.89
-11.919
-14.384
-17.323
-20.768
-24.735
-29.254
-34.393
-40.12
-46.269
-52.566
-58.601
-63.99
-68.484
-71.802
-73.533
-73.419
-71.492
-68.103
-64.044
-60.11
-56.655
-53.961
-52.54
-52.683
-54.201
-56.372
-57.584
-55.914
-50.245
-39.725
-22.822
1.809
34.76
76.147
123.743
173.469
223.598
272.838
319.636
364.343
402.357
425.373
426.601
398.267
338.923
255.494
156.399
50.921
-55.894
-166.266
-282.95
-404.628
-523.551
-625.292
-696.48
-731.267
-732.682
-711.309
-677.63
-637.809
-593.726
-543.491
-486.747
-425.827
-363.901
-305.334
-253.238
-208.744
-172.489
-144.18
-122.743
-107.249
-96.732
-89.693
-84.727
-80.474
-75.416
-68.86
-60.866
-51.593
-41.405
-30.917
-20.653
-11.325
-3.855
1.412
4.557
5.776
5.516
4.219
2.232
0.058
-1.727
-2.78
-2.905
-2.036
-0.271
2.32
5.685
9.71
14.271
19.25
24.528
30.019
35.656
41.355
47.035
52.607
57.977
63.071
67.815
72.165
76.112
79.66
82.831
85.656
88.17
90.416
92.451
94.323
96.078
97.758
99.397
101.031
102.705
104.456
106.322
108.328
110.487
112.803
115.28
117.911
120.692
123.609
126.642
129.775
132.994
136.284
139.634
143.028
146.447
149.872
153.283
156.66
159.986
163.24
166.403
169.456
172.381
175.16
177.778
180.217
182.46
184.489
186.288
187.841
189.134
190.153
190.886
191.321
191.45
191.265
190.761
189.935
188.782
187.304
185.5
183.373
180.926
178.165
175.097
171.73
168.074
164.14
159.941
155.49
150.803
145.895
140.784
135.487
130.023
124.411
118.671
112.822
106.885
100.879
94.826
88.745
82.657
76.58
70.534
64.538
58.609
52.764
47.02
41.392
35.894
30.54
25.343
20.313
15.462
10.798
6.331
2.066
-1.989
-5.831
-9.455
-12.86
-16.045
-19.008
-21.752
-24.278
-26.589
-28.69
-30.584
-32.278
-33.778
-35.092
-36.226
-37.189
-37.991
-38.639
-39.143
-39.513
-39.759
-39.89
-39.916
-39.847
-39.693
-39.463
-39.166
-38.812
-38.409
-37.965
-37.489
-36.989
-36.471
-35.942
-35.408
-34.874
-34.346
-33.828
-33.324
-32.837
-32.371
-31.928
-31.51
-31.118
-30.755
-30.421
-30.117
-29.842
-29.596
-29.38
-29.193
-29.034
-28.902
-28.797
-28.717
-28.663
-28.633
-28.627
-28.643
-28.681
-28.741
-28.822
-28.924
-29.045
-29.186
-29.346
-29.527
-29.727
-29.948
-30.19
-30.454
-30.739
-31.048
-31.379
-31.735
-32.115
-32.519
-32.949
-33.404
-33.886
-34.394
-34.927
-35.487
-36.072
-36.681
-37.314
-37.967
-38.639
-39.326
-40.027
-40.737
-41.453
-42.169
-42.883
-43.59
-44.287
-44.968
-45.629
-46.265
-46.871
-47.442
-47.972
-48.454
-48.882
-49.248
-49.547
-49.773
-49.921
-49.985
-49.961
-49.844
-49.63
-49.32
-48.91
-48.396
-47.77
-47.029
-46.174
-45.215
-44.162
-43.019
-41.796
-40.501
-39.147
-37.752
-36.326
-34.867
-33.372
-31.838
-30.272
-28.694
-27.12
-25.567
-24.043
-22.54
-21.063
-19.624
-18.227
-16.869
-15.538
-14.213
-12.9
-11.64
-10.466
-9.412
-8.49
-7.695
-7.027
-6.493
-6.098
-5.849
-5.734
-5.726
-5.818
-6.018
-6.345
-6.824
-7.442
-8.138
-8.859
-9.564
-10.228
-10.847
-11.401
-11.871
-12.251
-12.559
-12.855
-13.213
-13.686
-14.307
-15.09
-16.037
-17.197
-18.665
-20.527
-22.861
-25.722
-29.137
-33.175
-37.945
-43.453
-49.559
-55.963
-62.209
-67.892
-72.725
-76.392
-78.464
-78.663
-77.033
-73.978
-70.34
-66.956
-64.267
-62.666
-62.736
-64.749
-68.365
-72.63
-75.735
-75.656
-71.021
-60.485
-42.284
-15.164
21.311
66.665
118.916
175.327
233.444
290.101
340.963
381.811
408.478
417.297
406.223
373.712
319.347
245.376
155.279
53.215
-58.39
-180.186
-310.437
-443.716
-568.362
-667.324
-730.117
-754.088
-745.484
-718.727
-683.324
-643.685
-600.62
-550.399
-492.943
-431.391
-368.89
-309.999
-257.678
-212.699
-175.718
-146.537
-124.124
-107.688
-96.377
-88.742
-83.433
-79.115
-74.231
-68.048
-60.59
-51.945
-42.423
-32.593
-22.925
-14.108
-7.061
-2.123
0.788
1.868
1.571
0.342
-1.482
-3.404
-4.855
-5.506
-5.175
-3.812
-1.534
1.57
5.436
9.934
14.932
20.3
25.916
31.686
37.538
43.384
49.145
54.735
60.069
65.081
69.707
73.916
77.708
81.095
84.107
86.783
89.158
91.283
93.215
95.005
96.701
98.348
99.979
101.633
103.351
105.169
107.124
109.238
111.52
113.977
116.608
119.409
122.374
125.49
128.738
132.103
135.57
139.125
142.756
146.446
150.178
153.932
157.688
161.426
165.128
168.774
172.343
175.817
179.175
182.4
185.474
188.378
191.095
193.605
195.89
197.934
199.719
201.232
202.458
203.384
204.0
204.296
204.267
203.906
203.208
202.173
200.798
199.085
197.036
194.656
191.949
188.923
185.587
181.95
178.024
173.822
169.358
164.647
159.704
154.547
149.194
143.663
137.973
132.144
126.196
120.148
114.022
107.838
101.615
95.375
89.137
82.921
76.745
70.628
64.588
58.64
52.802
47.088
41.513
36.09
30.832
25.749
20.853
16.152
11.654
7.367
3.297
-0.552
-4.177
-7.573
-10.741
-13.679
-16.389
-18.871
-21.129
-23.165
-24.985
-26.593
-27.996
-29.2
-30.213
-31.042
-31.695
-32.183
-32.512
-32.694
-32.738
-32.654
-32.451
-32.14
-31.731
-31.234
-30.658
-30.014
-29.311
-28.558
-27.764
-26.937
-26.087
-25.22
-24.345
-23.468
-22.595
-21.733
-20.888
-20.064
-19.266
-18.499
-17.765
-17.069
-16.413
-15.799
-15.231
-14.708
-14.234
-13.808
-13.432
-13.106
-12.829
-12.603
-12.426
-12.299
-12.219
-12.188
-12.203
-12.263
-12.369
-12.517
-12.708
-12.94
-13.211
-13.521
-13.868
-14.252
-14.671
-15.124
-15.61
-16.129
-16.68
-17.262
-17.874
-18.515
-19.185
-19.883
-20.607
-21.356
-22.131
-22.929
-23.749
-24.59
-25.452
-26.332
-27.228
-28.139
-29.063
-29.997
-30.939
-31.886
-32.835
-33.783
-34.726
-35.662
-36.585
-37.493
-38.381
-39.245
-40.079
-40.88
-41.642
-42.36
-43.028
-43.642
-44.197
-44.686
-45.105
-45.45
-45.715
-45.896
-45.988
-45.989
-45.893
-45.698
-45.4
-44.998
-44.49
-43.876
-43.155
-42.329
-41.399
-40.368
-39.24
-38.021
-36.714
-35.327
-33.867
-32.34
-30.756
-29.123
-27.449
-25.743
-24.017
-22.28
-20.545
-18.821
-17.12
-15.454
-13.835
-12.274
-10.782
-9.368
-8.037
-6.797
-5.653
-4.613
-3.688
-2.882
-2.198
-1.636
-1.195
-0.871
-0.657
-0.54
-0.491
-0.487
-0.509
-0.539
-0.569
-0.586
-0.571
-0.505
-0.365
-0.131
0.202
0.643
1.2
1.872
2.647
3.483
4.302
5.032
5.607
5.978
6.12
5.988
5.515
4.635
3.275
1.373
-1.088
-4.162
-7.948
-12.457
-17.606
-23.162
-28.694
-33.795
-38.155
-41.419
-43.188
-43.201
-41.38
-38.035
-33.902
-29.732
-26.121
-23.635
-22.848
-24.108
-27.354
-31.818
-35.987
-38.067
-36.339
-29.127
-14.565
8.911
42.193
85.16
136.354
193.395
253.489
313.243
368.144
413.49
444.806
458.038
450.572
420.854
367.858
292.97
200.536
95.099
-18.73
-138.547
-264.537
-393.058
-515.49
-619.081
-691.101
-726.199
-728.213
-707.925
-675.804
-637.672
-595.024
-545.7
-488.972
-427.333
-363.922
-302.555
-246.691
-197.8
-156.524
-123.288
-97.59
-78.505
-65.468
-57.505
-52.938
-50.344
-48.276
-45.29
-40.958
-35.372
-28.516
-20.734
-12.663
-4.841
1.976
7.004
10.083
11.368
11.11
9.76
7.753
5.462
3.373
1.98
1.546
2.169
3.823
6.37
9.697
13.716
18.303
23.314
28.619
34.106
39.678
45.264
50.793
56.177
61.334
66.185
70.659
74.717
78.358
81.594
84.45
86.96
89.16
91.093
92.818
94.386
95.843
97.232
98.586
99.942
101.34
102.82
104.419
106.16
108.056
110.109
112.321
114.689
117.205
119.858
122.63
125.505
128.469
131.51
134.617
137.775
140.968
144.178
147.386
150.574
153.727
156.826
159.854
162.793
165.625
168.334
170.906
173.324
175.57
177.629
179.483
181.116
182.513
183.661
184.546
185.155
185.479
185.509
185.237
184.657
183.766
182.56
181.037
179.198
177.044
174.577
171.802
168.725
165.352
161.692
157.754
153.549
149.089
144.386
139.456
134.312
128.971
123.45
117.764
111.932
105.973
99.904
93.744
87.514
81.231
74.915
68.586
62.262
55.962
49.704
43.505
37.383
31.355
25.435
19.64
13.983
8.478
3.138
-2.026
-7.002
-11.781
-16.354
-20.713
-24.851
-28.763
-32.445
-35.893
-39.103
-42.076
-44.811
-47.308
-49.569
-51.597
-53.395
-54.969
-56.323
-57.463
-58.397
-59.133
-59.678
-60.042
-60.234
-60.263
-60.142
-59.878
-59.485
-58.972
-58.351
-57.633
-56.83
-55.951
-55.009
-54.014
-52.977
-51.907
-50.815
-49.71
-48.601
-47.497
-46.406
-45.335
-44.291
-43.281
-42.311
-41.386
-40.511
-39.689
-38.925
-38.221
-37.58
-37.003
-36.491
-36.045
-35.666
-35.352
-35.102
-34.917
-34.793
-34.729
-34.722
-34.769
-34.869
-35.017
-35.211
-35.446
-35.72
-36.03
-36.371
-36.74
-37.134
-37.55
-37.985
-38.434
-38.896
-39.368
-39.847
-40.331
-40.818
-41.307
-41.795
-42.281
-42.765
-43.245
-43.721
-44.194
-44.662
-45.126
-45.586
-46.042
-46.496
-46.948
-47.398
-47.848
-48.297
-48.747
-49.197
-49.648
-50.099
-50.551
-51.002
-51.452
-51.9
-52.345
-52.784
-53.218
-53.642
-54.055
-54.454
-54.836
-55.197
-55.533
-55.841
-56.116
-56.354
-56.549
-56.696
-56.791
-56.828
-56.802
-56.708
-56.539
-56.291
-55.958
-55.537
-55.023
-54.413
-53.704
-52.894
-51.982
-50.968
-49.855
-48.643
-47.335
-45.935
-44.446
-42.874
-41.226
-39.506
-37.722
-35.881
-33.993
-32.066
-30.111
-28.14
-26.162
-24.19
-22.234
-20.309
-18.428
-16.599
-14.833
-13.139
-11.527
-10.008
-8.596
-7.3
-6.123
-5.069
-4.14
-3.334
-2.649
-2.074
-1.59
-1.176
-0.816
-0.496
-0.211
0.052
0.306
0.569
0.864
1.204
1.592
2.035
2.535
3.091
3.691
4.305
4.871
5.324
5.606
5.666
5.472
4.997
4.196
3.012
1.383
-0.749
-3.42
-6.649
-10.484
-15.0
-20.19
-25.946
-32.005
-37.963
-43.45
-48.183
-51.838
-54.031
-54.502
-53.167
-50.324
-46.695
-42.985
-39.752
-37.515
-36.785
-37.909
-40.909
-45.099
-49.046
-51.072
-49.498
-42.747
-29.216
-7.425
23.546
63.637
111.711
165.724
223.021
280.523
334.319
380.024
413.465
430.812
428.935
405.731
359.907
292.228
206.245
106.2
-3.937
-122.448
-249.261
-380.997
-509.04
-619.5
-698.59
-739.621
-745.333
-726.692
-694.892
-656.521
-613.507
-563.589
-506.009
-443.207
-378.472
-316.206
-259.954
-211.266
-170.913
-138.782
-113.96
-95.439
-82.455
-73.838
-67.949
-63.186
-57.935
-51.291
-43.288
-34.184
-24.219
-13.854
-3.724
5.396
12.54
17.263
19.722
20.216
19.196
17.132
14.432
11.627
9.357
8.025
7.794
8.7
10.627
13.47
17.178
21.633
26.679
32.175
37.977
43.974
50.085
56.214
62.248
68.076
73.586
78.678
83.303
87.434
91.072
94.236
96.951
99.253
101.191
102.825
104.213
105.411
106.467
107.426
108.336
109.25
110.218
111.289
112.495
113.855
115.379
117.072
118.935
120.964
123.149
125.474
127.926
130.492
133.162
135.927
138.773
141.684
144.643
147.632
150.634
153.633
156.612
159.553
162.44
165.254
167.98
170.602
173.103
175.464
177.667
179.695
181.528
183.15
184.546
185.699
186.595
187.222
187.568
187.626
187.387
186.843
185.991
184.826
183.347
181.552
179.443
177.022
174.294
171.262
167.935
164.32
160.427
156.267
151.853
147.197
142.313
137.218
131.927
126.459
120.829
115.058
109.165
103.168
97.088
90.945
84.76
78.551
72.34
66.145
59.986
53.882
47.85
41.908
36.072
30.36
24.785
19.362
14.104
9.025
4.135
-0.555
-5.036
-9.3
-13.339
-17.148
-20.722
-24.058
-27.153
-30.005
-32.615
-34.984
-37.113
-39.006
-40.668
-42.104
-43.319
-44.321
-45.119
-45.719
-46.133
-46.37
-46.439
-46.353
-46.121
-45.756
-45.268
-44.67
-43.973
-43.188
-42.328
-41.402
-40.423
-39.4
-38.345
-37.267
-36.175
-35.079
-33.987
-32.907
-31.846
-30.811
-29.808
-28.842
-27.918
-27.04
-26.211
-25.435
-24.712
-24.044
-23.433
-22.877
-22.378
-21.934
-21.543
-21.204
-20.916
-20.674
-20.478
-20.324
-20.21
-20.131
-20.085
-20.069
-20.08
-20.115
-20.17
-20.243
-20.331
-20.431
-20.542
-20.661
-20.785
-20.914
-21.046
-21.179
-21.313
-21.448
-21.583
-21.718
-21.855
-21.993
-22.133
-22.278
-22.427
-22.583
-22.748
-22.922
-23.109
-23.31
-23.526
-23.761
-24.015
-24.291
-24.589
-24.91
-25.255
-25.626
-26.02
-26.44
-26.882
-27.348
-27.835
-28.342
-28.868
-29.41
-29.966
-30.532
-31.106
-31.683
-32.259
-32.829
-33.389
-33.934
-34.458
-34.955
-35.42
-35.847
-36.23
-36.562
-36.839
-37.053
-37.199
-37.27
-37.263
-37.172
-36.993
-36.724
-36.362
-35.906
-35.356
-34.713
-33.978
-33.154
-32.242
-31.246
-30.171
-29.022
-27.803
-26.521
-25.181
-23.793
-22.366
-20.911
-19.438
-17.956
-16.478
-15.013
-13.573
-12.172
-10.82
-9.524
-8.295
-7.142
-6.075
-5.11
-4.254
-3.508
-2.874
-2.349
-1.93
-1.611
-1.383
-1.225
-1.12
-1.052
-1.006
-0.98
-0.963
-0.943
-0.904
-0.827
-0.7
-0.524
-0.299
-0.025
0.289
0.634
0.983
1.286
1.495
1.559
1.433
1.085
0.486
-0.392
-1.58
-3.124
-5.067
-7.443
-10.286
-13.605
-17.423
-21.801
-26.721
-32.059
-37.581
-42.896
-47.603
-51.405
-53.967
-54.9
-53.953
-51.062
-46.545
-41.211
-35.962
-31.538
-28.597
-27.761
-29.428
-33.627
-39.648
-45.903
-50.329
-50.936
-46.024
-33.683
-12.137
19.589
61.688
112.3
167.487
224.564
281.347
335.817
387.72
432.151
460.597
465.386
438.048
377.383
290.822
187.18
76.079
-37.439
-155.897
-281.644
-412.127
-538.803
-646.457
-720.801
-756.405
-756.717
-732.354
-694.715
-650.205
-600.48
-544.057
-480.777
-413.301
-345.521
-282.204
-226.493
-179.489
-141.663
-112.499
-90.816
-75.536
-65.457
-58.864
-54.218
-50.096
-45.02
-38.388
-30.308
-21.007
-10.933
-0.772
8.879
17.287
23.572
27.452
29.077
28.726
26.913
24.144
20.835
17.523
14.802
13.027
12.356
12.821
14.3
16.691
19.927
23.885
28.42
33.397
38.685
44.179
49.797
55.447
61.021
66.412
71.512
76.23
80.513
84.34
87.715
90.66
93.205
95.389
97.262
98.882
100.309
101.595
102.788
103.93
105.068
106.247
107.518
108.924
110.495
112.247
114.187
116.317
118.631
121.125
123.785
126.59
129.525
132.573
135.722
138.959
142.269
145.634
149.033
152.446
155.855
159.24
162.583
165.864
169.064
172.164
175.146
177.993
180.688
183.211
185.543
187.666
189.563
191.216
192.61
193.731
194.565
195.101
195.331
195.246
194.841
194.111
193.054
191.668
189.954
187.914
185.551
182.871
179.878
176.582
172.992
169.118
164.973
160.569
155.922
151.046
145.958
140.676
135.218
129.602
123.848
117.975
112.005
105.956
99.85
93.707
87.548
81.391
75.256
69.163
63.128
57.169
51.303
45.544
39.908
34.407
29.055
23.864
18.844
14.004
9.354
4.901
0.652
-3.389
-7.217
-10.828
-14.221
-17.395
-20.35
-23.087
-25.607
-27.914
-30.011
-31.904
-33.598
-35.1
-36.416
-37.554
-38.521
-39.328
-39.982
-40.492
-40.868
-41.118
-41.253
-41.282
-41.213
-41.057
-40.821
-40.516
-40.148
-39.727
-39.259
-38.753
-38.216
-37.654
-37.073
-36.479
-35.879
-35.275
-34.675
-34.081
-33.497
-32.927
-32.372
-31.837
-31.322
-30.83
-30.36
-29.914
-29.493
-29.097
-28.725
-28.377
-28.052
-27.751
-27.471
-27.213
-26.974
-26.754
-26.552
-26.367
-26.197
-26.042
-25.902
-25.775
-25.661
-25.56
-25.471
-25.393
-25.326
-25.271
-25.226
-25.192
-25.168
-25.155
-25.153
-25.162
-25.183
-25.215
-25.26
-25.318
-25.39
-25.476
-25.578
-25.697
-25.833
-25.988
-26.162
-26.359
-26.578
-26.82
-27.088
-27.382
-27.703
-28.051
-28.427
-28.831
-29.265
-29.727
-30.217
-30.736
-31.282
-31.856
-32.456
-33.082
-33.731
-34.402
-35.094
-35.803
-36.528
-37.265
-38.013
-38.766
-39.523
-40.279
-41.031
-41.773
-42.502
-43.212
-43.899
-44.556
-45.178
-45.759
-46.294
-46.776
-47.202
-47.564
-47.857
-48.077
-48.218
-48.277
-48.248
-48.128
-47.913
-47.602
-47.191
-46.68
-46.068
-45.356
-44.546
-43.639
-42.64
-41.553
-40.381
-39.132
-37.811
-36.424
-34.98
-33.485
-31.948
-30.378
-28.786
-27.18
-25.574
-23.977
-22.401
-20.859
-19.363
-17.922
-16.548
-15.246
-14.025
-12.891
-11.852
-10.92
-10.101
-9.397
-8.81
-8.339
-7.982
-7.735
-7.584
-7.506
-7.478
-7.485
-7.511
-7.55
-7.593
-7.624
-7.625
-7.573
-7.455
-7.267
-7.006
-6.666
-6.249
-5.761
-5.242
-4.767
-4.401
-4.202
-4.211
-4.441
-4.936
-5.759
-6.978
-8.668
-10.878
-13.623
-16.952
-20.956
-25.656
-30.996
-36.756
-42.525
-47.922
-52.66
-56.43
-58.888
-59.766
-58.93
-56.622
-53.537
-50.418
-47.867
-46.382
-46.42
-48.309
-52.116
-57.256
-62.359
-65.646
-65.374
-60.098
-48.174
-27.929
1.712
41.13
88.868
141.466
196.528
252.243
306.869
360.064
407.054
439.388
449.328
428.484
375.135
295.8
198.534
92.391
-17.641
-133.861
-258.591
-389.588
-518.36
-629.217
-707.476
-747.13
-751.485
-731.872
-699.796
-661.378
-618.118
-567.895
-509.904
-446.592
-381.339
-318.409
-261.315
-211.739
-170.597
-137.945
-113.012
-94.868
-82.784
-75.569
-71.478
-68.715
-65.41
-60.442
-53.71
-45.387
-35.68
-25.069
-14.236
-4.068
4.304
10.313
14.022
15.657
15.647
14.449
12.445
10.183
8.316
7.247
7.17
8.14
10.042
12.785
16.318
20.519
25.249
30.38
35.785
41.37
47.068
52.791
58.451
63.959
69.219
74.155
78.701
82.815
86.491
89.742
92.587
95.064
97.207
99.064
100.696
102.156
103.493
104.754
105.976
107.204
108.482
109.854
111.358
113.023
114.861
116.881
119.086
121.474
124.04
126.774
129.657
132.676
135.816
139.065
142.413
145.842
149.336
152.876
156.441
160.014
163.574
167.103
170.581
173.986
177.299
180.502
183.577
186.503
189.261
191.83
194.191
196.324
198.213
199.839
201.185
202.239
202.986
203.416
203.519
203.288
202.717
201.801
200.538
198.926
196.967
194.663
192.019
189.039
185.732
182.106
178.173
173.944
169.432
164.653
159.622
154.357
148.875
143.197
137.341
131.329
125.182
118.92
112.567
106.142
99.67
93.171
86.667
80.179
73.727
67.332
61.013
54.789
48.675
42.69
36.848
31.164
25.652
20.323
15.188
10.258
5.541
1.044
-3.226
-7.266
-11.071
-14.639
-17.97
-21.063
-23.921
-26.546
-28.941
-31.112
-33.064
-34.803
-36.337
-37.675
-38.824
-39.794
-40.594
-41.236
-41.729
-42.085
-42.312
-42.424
-42.429
-42.34
-42.165
-41.916
-41.602
-41.233
-40.818
-40.364
-39.882
-39.377
-38.857
-38.329
-37.798
-37.27
-36.749
-36.24
-35.745
-35.268
-34.811
-34.377
-33.966
-33.579
-33.218
-32.883
-32.572
-32.287
-32.026
-31.788
-31.572
-31.378
-31.204
-31.049
-30.911
-30.789
-30.683
-30.592
-30.514
-30.45
-30.398
-30.359
-30.333
-30.321
-30.322
-30.338
-30.37
-30.418
-30.485
-30.573
-30.682
-30.816
-30.975
-31.162
-31.38
-31.629
-31.913
-32.232
-32.589
-32.985
-33.422
-33.902
-34.424
-34.991
-35.601
-36.257
-36.956
-37.698
-38.482
-39.306
-40.167
-41.063
-41.989
-42.943
-43.919
-44.913
-45.92
-46.934
-47.949
-48.959
-49.957
-50.936
-51.889
-52.809
-53.688
-54.519
-55.294
-56.007
-56.65
-57.216
-57.698
-58.091
-58.388
-58.582
-58.671
-58.647
-58.509
-58.251
-57.874
-57.375
-56.755
-56.015
-55.157
-54.185
-53.105
-51.922
-50.641
-49.271
-47.82
-46.297
-44.711
-43.073
-41.392
-39.681
-37.951
-36.217
-34.491
-32.784
-31.112
-29.485
-27.92
-26.428
-25.021
-23.707
-22.495
-21.394
-20.414
-19.567
-18.858
-18.29
-17.863
-17.576
-17.427
-17.411
-17.514
-17.714
-17.987
-18.314
-18.676
-19.063
-19.46
-19.848
-20.208
-20.516
-20.757
-20.928
-21.021
-21.027
-20.946
-20.785
-20.57
-20.363
-20.226
-20.214
-20.382
-20.767
-21.399
-22.329
-23.611
-25.3
-27.447
-30.081
-33.225
-36.93
-41.275
-46.268
-51.788
-57.562
-63.192
-68.286
-72.538
-75.627
-77.109
-76.67
-74.335
-70.475
-65.885
-61.442
-57.679
-55.064
-54.29
-55.773
-59.286
-63.992
-68.164
-69.697
-67.088
-58.885
-43.148
-18.406
15.968
59.7
110.909
166.774
224.761
281.673
332.995
374.272
401.316
410.385
399.396
367.211
312.808
237.695
146.343
43.301
-66.906
-182.222
-303.136
-426.221
-543.045
-641.041
-707.527
-737.265
-734.206
-709.022
-672.593
-631.275
-586.502
-536.071
-479.282
-418.218
-356.035
-297.022
-244.207
-198.692
-161.157
-131.447
-108.672
-92.071
-80.794
-73.394
-68.47
-64.607
-60.196
-54.443
-47.304
-38.845
-29.38
-19.49
-9.694
-0.726
6.463
11.501
14.443
15.477
15.057
13.634
11.564
9.358
7.591
6.599
6.569
7.553
9.436
12.135
15.584
19.66
24.233
29.183
34.392
39.773
45.253
50.747
56.175
61.453
66.494
71.232
75.602
79.571
83.139
86.32
89.141
91.64
93.853
95.827
97.62
99.281
100.859
102.397
103.93
105.495
107.134
108.884
110.781
112.846
115.09
117.517
120.126
122.912
125.868
128.979
132.228
135.595
139.066
142.627
146.262
149.957
153.69
157.442
161.19
164.916
168.598
172.217
175.75
179.177
182.479
185.635
188.628
191.44
194.05
196.44
198.591
200.487
202.11
203.445
204.48
205.2
205.595
205.658
205.381
204.759
203.79
202.47
200.8
198.782
196.419
193.716
190.679
187.316
183.638
179.654
175.378
170.824
166.006
160.941
155.646
150.139
144.44
138.568
132.543
126.386
120.117
113.759
107.332
100.857
94.356
87.85
81.358
74.901
68.499
62.169
55.928
49.795
43.784
37.911
32.19
26.632
21.251
16.057
11.06
6.268
1.688
-2.672
-6.809
-10.718
-14.396
-17.843
-21.057
-24.039
-26.79
-29.314
-31.614
-33.694
-35.559
-37.216
-38.671
-39.931
-41.005
-41.9
-42.626
-43.192
-43.606
-43.879
-44.02
-44.038
-43.943
-43.745
-43.453
-43.076
-42.623
-42.103
-41.526
-40.898
-40.227
-39.522
-38.79
-38.036
-37.268
-36.491
-35.71
-34.931
-34.158
-33.395
-32.646
-31.914
-31.203
-30.514
-29.85
-29.213
-28.604
-28.025
-27.476
-26.958
-26.472
-26.019
-25.599
-25.212
-24.859
-24.54
-24.255
-24.004
-23.787
-23.605
-23.456
-23.341
-23.261
-23.214
-23.203
-23.225
-23.282
-23.374
-23.501
-23.662
-23.858
-24.088
-24.352
-24.651
-24.983
-25.349
-25.749
-26.181
-26.644
-27.138
-27.661
-28.211
-28.787
-29.386
-30.004
-30.64
-31.289
-31.949
-32.616
-33.286
-33.955
-34.618
-35.272
-35.91
-36.529
-37.123
-37.686
-38.214
-38.701
-39.141
-39.53
-39.863
-40.133
-40.337
-40.468
-40.523
-40.497
-40.385
-40.185
-39.892
-39.504
-39.02
-38.439
-37.761
-36.989
-36.123
-35.169
-34.129
-33.007
-31.81
-30.542
-29.212
-27.825
-26.388
-24.91
-23.399
-21.866
-20.322
-18.777
-17.24
-15.723
-14.236
-12.79
-11.398
-10.07
-8.813
-7.635
-6.545
-5.552
-4.669
-3.905
-3.26
-2.734
-2.326
-2.033
-1.85
-1.765
-1.758
-1.807
-1.893
-1.997
-2.111
-2.222
-2.314
-2.37
-2.365
-2.285
-2.128
-1.892
-1.58
-1.199
-0.758
-0.287
0.155
0.507
0.701
0.678
0.398
-0.181
-1.091
-2.373
-4.089
-6.284
-8.993
-12.248
-16.047
-20.41
-25.404
-30.972
-36.919
-42.945
-48.576
-53.381
-57.091
-59.361
-59.773
-58.163
-54.617
-49.578
-44.038
-38.899
-34.711
-32.071
-31.517
-33.128
-36.565
-40.833
-43.932
-43.827
-38.868
-27.289
-7.564
21.137
59.009
105.249
157.587
213.171
268.887
320.716
364.446
396.178
412.157
409.342
385.908
340.778
274.829
191.643
95.318
-10.345
-123.614
-244.373
-369.462
-490.784
-595.274
-670.014
-708.621
-713.559
-695.11
-663.718
-625.645
-582.87
-533.342
-476.474
-414.686
-351.178
-290.288
-235.565
-188.591
-150.138
-120.076
-97.461
-81.243
-70.582
-64.212
-60.399
-57.473
-53.822
-48.557
-41.709
-33.557
-24.363
-14.62
-5.018
3.642
10.412
14.858
17.131
17.534
16.505
14.504
11.941
9.332
7.276
6.149
6.091
7.121
9.12
11.982
15.65
20.01
24.918
30.243
35.855
41.654
47.565
53.5
59.356
65.03
70.422
75.441
80.042
84.203
87.927
91.237
94.156
96.72
98.975
100.974
102.774
104.424
105.97
107.451
108.912
110.397
111.954
113.624
115.436
117.405
119.538
121.836
124.299
126.921
129.689
132.586
135.597
138.709
141.908
145.185
148.523
151.906
155.316
158.732
162.138
165.516
168.847
172.113
175.297
178.379
181.344
184.175
186.855
189.366
191.69
193.81
195.709
197.372
198.783
199.929
200.797
201.377
201.661
201.64
201.308
200.663
199.7
198.418
196.817
194.9
192.67
190.131
187.288
184.151
180.727
177.027
173.063
168.846
164.391
159.713
154.827
149.75
144.498
139.09
133.544
127.879
122.112
116.264
110.354
104.4
98.421
92.435
86.461
80.516
74.616
68.779
63.019
57.35
51.787
46.343
41.03
35.859
30.84
25.982
21.295
16.784
12.458
8.32
4.375
0.627
-2.922
-6.271
-9.418
-12.366
-15.115
-17.667
-20.026
-22.195
-24.179
-25.982
-27.612
-29.073
-30.373
-31.519
-32.518
-33.378
-34.106
-34.712
-35.202
-35.585
-35.869
-36.062
-36.172
-36.207
-36.174
-36.08
-35.933
-35.739
-35.505
-35.237
-34.94
-34.621
-34.284
-33.934
-33.575
-33.212
-32.847
-32.485
-32.127
-31.776
-31.435
-31.104
-30.787
-30.483
-30.195
-29.922
-29.666
-29.426
-29.204
-28.999
-28.811
-28.641
-28.489
-28.355
-28.238
-28.14
-28.061
-28.001
-27.96
-27.938
-27.937
-27.956
-27.997
-28.059
-28.145
-28.253
-28.387
-28.546
-28.731
-28.944
-29.186
-29.458
-29.76
-30.094
-30.461
-30.861
-31.295
-31.765
-32.269
-32.809
-33.385
-33.995
-34.641
-35.32
-36.03
-36.772
-37.54
-38.335
-39.151
-39.986
-40.836
-41.699
-42.568
-43.44
-44.31
-45.174
-46.025
-46.858
-47.668
-48.447
-49.191
-49.892
-50.545
-51.143
-51.681
-52.151
-52.548
-52.867
-53.1
-53.243
-53.291
-53.239
-53.083
-52.82
-52.448
-51.966
-51.373
-50.671
-49.861
-48.948
-47.933
-46.823
-45.621
-44.336
-42.973
-41.54
-40.044
-38.493
-36.898
-35.27
-33.62
-31.96
-30.301
-28.655
-27.034
-25.452
-23.923
-22.458
-21.065
-19.756
-18.541
-17.43
-16.438
-15.572
-14.836
-14.23
-13.753
-13.404
-13.179
-13.066
-13.047
-13.1
-13.205
-13.345
-13.511
-13.688
-13.857
-13.999
-14.089
-14.112
-14.067
-13.953
-13.766
-13.513
-13.2
-12.854
-12.532
-12.291
-12.193
-12.294
-12.639
-13.273
-14.238
-15.588
-17.382
-19.673
-22.497
-25.886
-29.858
-34.444
-39.71
-45.62
-51.988
-58.507
-64.739
-70.255
-74.739
-77.832
-79.048
-78.1
-75.061
-70.38
-64.96
-59.735
-55.267
-52.089
-50.933
-52.18
-55.519
-59.954
-63.596
-64.245
-60.26
-50.05
-31.617
-3.495
34.8
82.783
138.48
198.899
261.059
321.336
374.973
417.105
443.185
449.294
432.737
392.676
330.227
247.79
149.258
37.595
-87.272
-224.151
-368.096
-508.969
-629.652
-714.447
-756.822
-759.471
-734.754
-697.285
-655.181
-611.598
-565.197
-512.882
-455.647
-396.237
-337.735
-284.166
-237.398
-197.611
-165.01
-138.863
-118.022
-102.055
-90.296
-81.373
-74.203
-67.687
-60.587
-52.59
-43.902
-34.534
-24.772
-15.195
-6.215
1.536
7.301
10.941
12.62
12.556
11.213
9.041
6.383
3.738
1.621
0.318
-0.004
0.699
2.322
4.794
8.048
11.965
16.424
21.306
26.49
31.885
37.4
42.942
48.422
53.747
58.828
63.592
67.97
71.926
75.463
78.591
81.34
83.745
85.843
87.679
89.313
90.795
92.173
93.492
94.787
96.097
97.464
98.927
100.52
102.268
104.179
106.257
108.503
110.911
113.475
116.182
119.013
121.954
124.99
128.11
131.301
134.55
137.839
141.149
144.464
147.764
151.033
154.252
157.404
160.469
163.432
166.274
168.98
171.533
173.915
176.109
178.098
179.866
181.396
182.676
183.69
184.428
184.879
185.033
184.884
184.427
183.656
182.568
181.163
179.439
177.399
175.044
172.38
169.411
166.145
162.59
158.756
154.654
150.296
145.696
140.867
135.826
130.589
125.172
119.595
113.875
108.031
102.083
96.05
89.953
83.81
77.643
71.47
65.312
59.186
53.111
47.106
41.186
35.37
29.672
24.107
18.691
13.435
8.352
3.454
-1.25
-5.75
-10.039
-14.11
-17.957
-21.576
-24.963
-28.116
-31.035
-33.72
-36.171
-38.392
-40.386
-42.158
-43.712
-45.056
-46.196
-47.141
-47.9
-48.48
-48.893
-49.149
-49.257
-49.229
-49.076
-48.809
-48.439
-47.979
-47.438
-46.827
-46.158
-45.44
-44.684
-43.898
-43.093
-42.276
-41.456
-40.64
-39.835
-39.049
-38.286
-37.552
-36.851
-36.188
-35.565
-34.986
-34.451
-33.962
-33.521
-33.127
-32.78
-32.481
-32.227
-32.017
-31.848
-31.72
-31.629
-31.572
-31.547
-31.551
-31.58
-31.633
-31.706
-31.798
-31.906
-32.027
-32.161
-32.304
-32.456
-32.614
-32.776
-32.942
-33.11
-33.279
-33.45
-33.621
-33.794
-33.968
-34.144
-34.323
-34.506
-34.693
-34.886
-35.086
-35.294
-35.513
-35.743
-35.988
-36.248
-36.526
-36.824
-37.141
-37.479
-37.839
-38.218
-38.616
-39.033
-39.465
-39.911
-40.367
-40.833
-41.305
-41.783
-42.263
-42.743
-43.221
-43.693
-44.155
-44.604
-45.033
-45.434
-45.8
-46.126
-46.406
-46.634
-46.804
-46.91
-46.947
-46.913
-46.804
-46.614
-46.336
-45.956
-45.469
-44.878
-44.187
-43.409
-42.554
-41.629
-40.647
-39.627
-38.58
-37.513
-36.422
-35.288
-34.105
-32.875
-31.607
-30.326
-29.04
-27.745
-26.438
-25.111
-23.756
-22.371
-20.936
-19.414
-17.79
-16.071
-14.29
-12.513
-10.782
-9.115
-7.528
-6.019
-4.599
-3.29
-2.101
-1.026
-0.067
0.773
1.466
1.95
2.206
2.246
2.112
1.892
1.64
1.381
1.145
0.953
0.822
0.774
0.791
0.811
0.778
0.65
0.404
0.065
-0.37
-0.952
-1.758
-2.899
-4.465
-6.511
-9.081
-12.256
-16.149
-20.779
-26.015
-31.545
-36.921
-41.743
-45.737
-48.616
-49.951
-49.464
-47.211
-43.611
-39.538
-35.861
-33.022
-31.393
-31.556
-33.8
-37.806
-42.627
-46.413
-47.08
-43.24
-33.568
-16.303
9.87
45.509
90.271
142.238
198.694
257.232
314.753
366.955
409.539
438.1
448.658
438.917
407.13
352.733
277.855
185.778
80.605
-35.155
-161.936
-297.403
-435.518
-564.089
-665.638
-729.788
-754.146
-745.129
-717.292
-679.983
-637.466
-590.718
-536.328
-474.661
-409.236
-343.369
-281.672
-227.14
-180.552
-142.548
-112.879
-90.403
-74.223
-63.413
-56.447
-51.925
-48.47
-44.494
-39.271
-32.834
-25.282
-16.936
-8.372
-0.065
7.296
12.792
16.106
17.354
16.778
14.879
12.143
8.95
5.827
3.374
1.944
1.699
2.662
4.691
7.669
11.518
16.098
21.255
26.842
32.723
38.787
44.948
51.108
57.16
62.999
68.522
73.643
78.314
82.518
86.264
89.579
92.495
95.053
97.3
99.293
101.089
102.739
104.288
105.777
107.25
108.75
110.324
112.011
113.838
115.82
117.96
120.259
122.712
125.314
128.051
130.906
133.863
136.908
140.031
143.22
146.46
149.737
153.033
156.328
159.607
162.854
166.051
169.181
172.227
175.173
178.002
180.7
183.25
185.637
187.842
189.849
191.642
193.206
194.527
195.591
196.385
196.899
197.124
197.052
196.677
195.993
194.999
193.691
192.069
190.135
187.89
185.339
182.486
179.339
175.906
172.195
168.219
163.988
159.516
154.818
149.908
144.802
139.517
134.071
128.481
122.766
116.944
111.034
105.056
99.029
92.973
86.905
80.846
74.814
68.826
62.899
57.051
51.298
45.654
40.134
34.751
29.518
24.448
19.549
14.833
10.308
5.982
1.86
-2.052
-5.75
-9.23
-12.492
-15.533
-18.354
-20.956
-23.342
-25.514
-27.475
-29.232
-30.788
-32.151
-33.328
-34.326
-35.153
-35.818
-36.331
-36.7
-36.935
-37.047
-37.045
-36.939
-36.739
-36.456
-36.099
-35.679
-35.204
-34.684
-34.128
-33.545
-32.942
-32.328
-31.709
-31.091
-30.482
-29.888
-29.312
-28.76
-28.236
-27.744
-27.287
-26.867
-26.487
-26.149
-25.853
-25.602
-25.394
-25.23
-25.11
-25.033
-24.998
-25.004
-25.049
-25.131
-25.25
-25.402
-25.585
-25.798
-26.039
-26.304
-26.591
-26.899
-27.225
-27.568
-27.925
-28.295
-28.676
-29.067
-29.467
-29.874
-30.288
-30.708
-31.132
-31.561
-31.994
-32.431
-32.871
-33.316
-33.764
-34.217
-34.674
-35.135
-35.603
-36.076
-36.556
-37.042
-37.536
-38.037
-38.547
-39.065
-39.592
-40.127
-40.672
-41.226
-41.787
-42.357
-42.932
-43.513
-44.098
-44.685
-45.271
-45.853
-46.43
-46.997
-47.552
-48.091
-48.611
-49.107
-49.576
-50.013
-50.414
-50.774
-51.088
-51.353
-51.563
-51.713
-51.8
-51.82
-51.767
-51.639
-51.431
-51.14
-50.764
-50.299
-49.743
-49.095
-48.354
-47.518
-46.59
-45.571
-44.463
-43.27
-41.997
-40.649
-39.232
-37.754
-36.223
-34.647
-33.035
-31.396
-29.739
-28.074
-26.411
-24.76
-23.133
-21.54
-19.992
-18.501
-17.079
-15.736
-14.482
-13.328
-12.276
-11.332
-10.502
-9.791
-9.208
-8.759
-8.442
-8.259
-8.208
-8.286
-8.484
-8.786
-9.163
-9.588
-10.037
-10.49
-10.935
-11.357
-11.736
-12.053
-12.284
-12.416
-12.44
-12.347
-12.125
-11.777
-11.315
-10.783
-10.264
-9.831
-9.556
-9.494
-9.678
-10.162
-11.012
-12.294
-14.075
-16.405
-19.305
-22.83
-27.085
-32.087
-37.729
-43.742
-49.668
-55.075
-59.653
-63.059
-64.846
-64.71
-62.661
-59.099
-54.902
-50.957
-47.744
-45.69
-45.408
-47.244
-50.958
-55.623
-59.356
-60.085
-56.543
-47.321
-30.427
-4.467
31.39
76.335
126.925
180.626
236.259
292.717
349.718
402.661
442.751
461.752
451.359
409.355
341.166
253.763
155.47
51.406
-60.324
-183.006
-316.008
-453.42
-580.97
-680.512
-742.213
-764.443
-754.472
-726.7
-689.803
-647.425
-600.109
-544.538
-481.251
-413.952
-346.25
-282.925
-227.152
-179.887
-141.819
-112.736
-91.499
-77.106
-68.432
-63.678
-61.141
-59.214
-56.202
-51.34
-44.658
-36.306
-26.704
-16.573
-6.562
2.498
9.633
14.497
17.189
17.948
17.272
15.654
13.503
11.359
9.803
9.171
9.606
11.117
13.563
16.828
20.833
25.445
30.523
35.936
41.566
47.317
53.116
58.879
64.51
69.916
75.0
79.68
83.911
87.678
90.99
93.876
96.367
98.503
100.331
101.908
103.289
104.527
105.667
106.749
107.816
108.913
110.088
111.385
112.832
114.447
116.238
118.207
120.352
122.67
125.149
127.772
130.526
133.396
136.371
139.442
142.595
145.813
149.079
152.374
155.68
158.979
162.253
165.484
168.652
171.74
174.731
177.607
180.352
182.947
185.373
187.613
189.648
191.463
193.04
194.366
195.426
196.208
196.703
196.901
196.795
196.381
195.652
194.608
193.247
191.569
189.577
187.273
184.663
181.752
178.549
175.062
171.303
167.283
163.015
158.513
153.791
148.867
143.756
138.476
133.044
127.479
121.799
116.023
110.17
104.259
98.31
92.341
86.37
80.417
74.498
68.63
62.831
57.114
51.496
45.99
40.609
35.366
30.272
25.338
20.573
15.986
11.584
7.373
3.36
-0.453
-4.062
-7.465
-10.66
-13.648
-16.429
-19.006
-21.38
-23.554
-25.534
-27.323
-28.928
-30.355
-31.611
-32.702
-33.638
-34.425
-35.073
-35.59
-35.985
-36.267
-36.444
-36.527
-36.522
-36.441
-36.29
-36.079
-35.816
-35.508
-35.162
-34.787
-34.387
-33.969
-33.54
-33.104
-32.665
-32.23
-31.8
-31.381
-30.974
-30.584
-30.211
-29.858
-29.526
-29.216
-28.928
-28.664
-28.422
-28.203
-28.006
-27.83
-27.675
-27.538
-27.419
-27.317
-27.23
-27.156
-27.094
-27.044
-27.003
-26.971
-26.946
-26.929
-26.918
-26.913
-26.914
-26.92
-26.932
-26.951
-26.975
-27.007
-27.047
-27.095
-27.153
-27.221
-27.301
-27.395
-27.504
-27.629
-27.773
-27.937
-28.122
-28.332
-28.566
-28.829
-29.12
-29.442
-29.796
-30.184
-30.607
-31.064
-31.558
-32.088
-32.654
-33.256
-33.892
-34.561
-35.262
-35.992
-36.748
-37.528
-38.328
-39.144
-39.972
-40.807
-41.645
-42.481
-43.309
-44.124
-44.919
-45.689
-46.427
-47.128
-47.784
-48.388
-48.934
-49.416
-49.827
-50.16
-50.411
-50.571
-50.638
-50.604
-50.467
-50.222
-49.866
-49.397
-48.814
-48.115
-47.303
-46.379
-45.345
-44.206
-42.968
-41.637
-40.219
-38.722
-37.157
-35.531
-33.854
-32.136
-30.388
-28.621
-26.846
-25.077
-23.325
-21.603
-19.926
-18.305
-16.755
-15.287
-13.913
-12.64
-11.476
-10.427
-9.503
-8.713
-8.064
-7.557
-7.194
-6.974
-6.894
-6.945
-7.113
-7.372
-7.698
-8.07
-8.471
-8.89
-9.315
-9.728
-10.108
-10.43
-10.677
-10.841
-10.914
-10.886
-10.756
-10.532
-10.25
-9.985
-9.8
-9.754
-9.883
-10.203
-10.751
-11.589
-12.781
-14.4
-16.502
-19.104
-22.261
-26.079
-30.571
-35.669
-41.134
-46.53
-51.482
-55.719
-58.926
-60.765
-60.99
-59.48
-56.585
-53.098
-49.68
-46.876
-45.127
-44.771
-46.187
-49.475
-53.82
-57.705
-59.56
-57.747
-50.955
-37.952
-17.062
12.83
51.602
98.128
150.462
206.112
262.644
316.825
364.129
400.269
421.391
424.361
407.304
368.518
307.71
227.507
131.728
24.883
-90.579
-215.681
-348.389
-482.301
-605.147
-699.745
-756.151
-773.102
-757.846
-724.706
-682.981
-637.097
-587.866
-532.164
-470.555
-405.986
-341.521
-281.861
-229.818
-185.942
-150.698
-123.426
-102.723
-87.989
-78.36
-72.135
-67.896
-64.208
-59.558
-53.499
-46.223
-37.754
-28.421
-18.874
-9.629
-1.466
4.74
8.789
10.845
11.166
10.229
8.488
6.318
4.239
2.796
2.298
2.87
4.504
7.064
10.441
14.555
19.286
24.488
30.028
35.783
41.648
47.548
53.403
59.12
64.605
69.768
74.527
78.841
82.705
86.128
89.138
91.766
94.049
96.035
97.783
99.35
100.786
102.139
103.445
104.747
106.092
107.523
109.082
110.797
112.681
114.74
116.977
119.388
121.97
124.708
127.585
130.586
133.697
136.906
140.201
143.566
146.985
150.439
153.909
157.376
160.823
164.232
167.582
170.857
174.039
177.109
180.053
182.853
185.491
187.948
190.208
192.253
194.068
195.636
196.945
197.98
198.73
199.188
199.343
199.19
198.724
197.942
196.84
195.42
193.681
191.627
189.26
186.586
183.613
180.346
176.797
172.974
168.89
164.558
159.991
155.203
150.21
145.027
139.673
134.164
128.517
122.752
116.887
110.94
104.931
98.879
92.802
86.719
80.649
74.609
68.617
62.689
56.842
51.09
45.45
39.935
34.558
29.332
24.269
19.38
14.674
10.16
5.847
1.741
-2.152
-5.826
-9.278
-12.506
-15.507
-18.28
-20.826
-23.147
-25.244
-27.121
-28.783
-30.234
-31.48
-32.528
-33.386
-34.062
-34.563
-34.901
-35.083
-35.12
-35.023
-34.802
-34.468
-34.031
-33.503
-32.895
-32.217
-31.48
-30.696
-29.874
-29.025
-28.159
-27.285
-26.411
-25.548
-24.702
-23.881
-23.091
-22.339
-21.629
-20.968
-20.358
-19.804
-19.308
-18.873
-18.499
-18.188
-17.94
-17.755
-17.631
-17.568
-17.564
-17.617
-17.723
-17.882
-18.089
-18.34
-18.633
-18.962
-19.325
-19.716
-20.131
-20.566
-21.017
-21.479
-21.948
-22.421
-22.895
-23.366
-23.832
-24.29
-24.738
-25.175
-25.597
-26.005
-26.396
-26.771
-27.129
-27.472
-27.798
-28.111
-28.41
-28.697
-28.974
-29.243
-29.505
-29.761
-30.015
-30.267
-30.522
-30.781
-31.047
-31.322
-31.608
-31.909
-32.225
-32.558
-32.907
-33.274
-33.658
-34.058
-34.472
-34.899
-35.336
-35.782
-36.236
-36.694
-37.154
-37.613
-38.066
-38.511
-38.943
-39.356
-39.742
-40.095
-40.407
-40.674
-40.888
-41.045
-41.138
-41.162
-41.112
-40.986
-40.78
-40.489
-40.104
-39.614
-39.017
-38.318
-37.526
-36.651
-35.7
-34.679
-33.601
-32.485
-31.343
-30.176
-28.977
-27.734
-26.447
-25.126
-23.79
-22.46
-21.144
-19.839
-18.539
-17.247
-15.967
-14.697
-13.418
-12.103
-10.745
-9.365
-8.011
-6.736
-5.565
-4.508
-3.561
-2.728
-2.019
-1.453
-1.032
-0.742
-0.57
-0.521
-0.623
-0.918
-1.417
-2.085
-2.852
-3.649
-4.438
-5.202
-5.931
-6.598
-7.18
-7.668
-8.084
-8.494
-8.958
-9.509
-10.161
-10.901
-11.742
-12.75
-14.022
-15.65
-17.706
-20.232
-23.26
-26.867
-31.159
-36.141
-41.667
-47.427
-52.989
-57.959
-62.06
-64.985
-66.285
-65.66
-63.151
-59.17
-54.573
-50.247
-46.697
-44.382
-43.984
-45.856
-49.696
-54.567
-58.627
-59.742
-56.395
-47.05
-29.73
-3.044
33.519
79.488
132.813
190.663
250.394
308.506
360.327
401.369
427.246
434.281
420.47
384.202
325.236
246.173
150.737
43.477
-72.8
-198.552
-331.509
-465.417
-588.39
-683.765
-741.812
-761.173
-748.834
-718.723
-679.825
-636.386
-589.212
-535.328
-475.378
-412.244
-348.783
-289.442
-236.998
-192.182
-155.697
-127.094
-105.06
-89.056
-78.392
-71.548
-67.174
-63.775
-59.639
-54.139
-47.401
-39.405
-30.419
-21.038
-11.728
-3.297
3.253
7.611
9.868
10.224
9.163
7.151
4.543
1.881
-0.251
-1.527
-1.758
-0.906
0.899
3.565
7.016
11.123
15.759
20.802
26.134
31.665
37.315
42.994
48.62
54.104
59.36
64.317
68.907
73.094
76.883
80.287
83.334
86.062
88.501
90.697
92.706
94.576
96.353
98.077
99.78
101.498
103.27
105.131
107.114
109.241
111.517
113.944
116.521
119.241
122.096
125.072
128.149
131.309
134.539
137.824
141.154
144.512
147.881
151.243
154.581
157.876
161.113
164.274
167.342
170.299
173.131
175.821
178.357
180.724
182.905
184.888
186.657
188.199
189.502
190.553
191.341
191.858
192.094
192.045
191.705
191.07
190.138
188.908
187.381
185.557
183.441
181.035
178.344
175.375
172.136
168.634
164.879
160.881
156.653
152.206
147.554
142.711
137.691
132.509
127.18
121.722
116.149
110.479
104.727
98.912
93.049
87.156
81.249
75.344
69.458
63.606
57.803
52.063
46.402
40.832
35.365
30.015
24.793
19.71
14.776
10.0
5.392
0.959
-3.292
-7.354
-11.223
-14.894
-18.363
-21.627
-24.686
-27.537
-30.181
-32.619
-34.851
-36.881
-38.712
-40.347
-41.791
-43.049
-44.127
-45.031
-45.769
-46.347
-46.772
-47.054
-47.198
-47.215
-47.113
-46.899
-46.583
-46.173
-45.679
-45.108
-44.469
-43.771
-43.022
-42.231
-41.404
-40.55
-39.676
-38.789
-37.896
-37.003
-36.117
-35.244
-34.388
-33.555
-32.749
-31.973
-31.233
-30.53
-29.868
-29.25
-28.676
-28.151
-27.674
-27.248
-26.873
-26.55
-26.28
-26.063
-25.9
-25.791
-25.734
-25.732
-25.782
-25.884
-26.038
-26.243
-26.499
-26.803
-27.154
-27.551
-27.993
-28.477
-29.002
-29.565
-30.164
-30.798
-31.464
-32.16
-32.882
-33.629
-34.397
-35.184
-35.986
-36.799
-37.62
-38.445
-39.27
-40.091
-40.903
-41.703
-42.485
-43.245
-43.977
-44.678
-45.341
-45.961
-46.533
-47.052
-47.513
-47.911
-48.242
-48.502
-48.685
-48.789
-48.809
-48.743
-48.587
-48.339
-47.997
-47.559
-47.025
-46.396
-45.671
-44.853
-43.945
-42.95
-41.873
-40.719
-39.494
-38.204
-36.856
-35.459
-34.021
-32.549
-31.053
-29.544
-28.03
-26.523
-25.033
-23.571
-22.146
-20.769
-19.452
-18.206
-17.037
-15.954
-14.961
-14.065
-13.274
-12.597
-12.039
-11.599
-11.279
-11.075
-10.985
-11.004
-11.12
-11.309
-11.55
-11.819
-12.101
-12.385
-12.657
-12.9
-13.093
-13.211
-13.24
-13.173
-13.007
-12.736
-12.36
-11.888
-11.352
-10.816
-10.355
-10.035
-9.91
-10.02
-10.394
-11.08
-12.148
-13.664
-15.689
-18.267
-21.408
-25.157
-29.609
-34.747
-40.42
-46.328
-51.983
-56.957
-60.973
-63.7
-64.721
-63.844
-61.119
-56.984
-52.432
-48.334
-45.212
-43.619
-44.057
-46.627
-51.012
-56.161
-59.988
-60.504
-56.152
-45.064
-25.66
2.959
41.339
87.886
139.501
194.308
249.466
302.96
352.898
392.607
416.409
418.625
393.939
344.383
273.382
186.215
89.765
-13.629
-123.67
-241.66
-366.416
-491.067
-603.505
-688.151
-736.109
-746.977
-728.149
-693.287
-651.44
-606.556
-559.105
-506.061
-447.708
-386.725
-325.995
-269.73
-220.346
-178.351
-144.205
-117.352
-96.624
-81.495
-71.157
-64.063
-58.918
-54.392
-49.069
-42.511
-34.883
-26.206
-16.801
-7.285
1.876
9.98
16.222
20.431
22.744
23.381
22.789
21.392
19.522
17.662
16.308
15.733
16.093
17.41
19.575
22.516
26.154
30.375
35.051
40.062
45.3
50.679
56.127
61.571
66.938
72.151
77.137
81.835
86.178
90.139
93.716
96.919
99.776
102.322
104.588
106.624
108.482
110.212
111.857
113.458
115.043
116.648
118.31
120.063
121.943
123.971
126.156
128.502
131.01
133.673
136.486
139.435
142.5
145.663
148.911
152.229
155.604
159.021
162.462
165.906
169.336
172.73
176.072
179.343
182.522
185.591
188.532
191.329
193.964
196.422
198.685
200.735
202.556
204.132
205.448
206.49
207.245
207.701
207.849
207.681
207.19
206.372
205.223
203.742
201.928
199.782
197.309
194.51
191.394
187.966
184.236
180.213
175.909
171.337
166.51
161.444
156.154
150.658
144.972
139.116
133.107
126.967
120.713
114.368
107.95
101.482
94.981
88.471
81.969
75.496
69.07
62.71
56.434
50.257
44.197
38.269
32.486
26.861
21.408
16.138
11.06
6.185
1.518
-2.931
-7.159
-11.16
-14.931
-18.471
-21.777
-24.851
-27.694
-30.307
-32.693
-34.858
-36.806
-38.542
-40.073
-41.407
-42.551
-43.514
-44.304
-44.93
-45.402
-45.73
-45.923
-45.992
-45.945
-45.794
-45.547
-45.214
-44.806
-44.331
-43.798
-43.215
-42.592
-41.935
-41.253
-40.552
-39.839
-39.12
-38.401
-37.686
-36.982
-36.292
-35.62
-34.969
-34.344
-33.747
-33.181
-32.648
-32.15
-31.689
-31.266
-30.883
-30.542
-30.242
-29.985
-29.771
-29.602
-29.478
-29.399
-29.365
-29.377
-29.436
-29.541
-29.692
-29.89
-30.134
-30.424
-30.761
-31.143
-31.571
-32.045
-32.562
-33.124
-33.728
-34.373
-35.058
-35.781
-36.538
-37.328
-38.148
-38.993
-39.86
-40.745
-41.644
-42.553
-43.466
-44.378
-45.284
-46.179
-47.055
-47.909
-48.732
-49.52
-50.264
-50.96
-51.601
-52.181
-52.694
-53.133
-53.494
-53.77
-53.956
-54.048
-54.042
-53.933
-53.719
-53.397
-52.967
-52.428
-51.78
-51.026
-50.17
-49.215
-48.165
-47.027
-45.807
-44.511
-43.149
-41.727
-40.254
-38.74
-37.195
-35.629
-34.053
-32.48
-30.921
-29.387
-27.89
-26.444
-25.06
-23.749
-22.518
-21.374
-20.325
-19.381
-18.553
-17.847
-17.263
-16.803
-16.464
-16.245
-16.14
-16.136
-16.207
-16.331
-16.486
-16.654
-16.825
-16.987
-17.12
-17.205
-17.218
-17.148
-16.992
-16.746
-16.405
-15.969
-15.449
-14.878
-14.324
-13.858
-13.54
-13.428
-13.557
-13.964
-14.702
-15.832
-17.416
-19.506
-22.131
-25.31
-29.093
-33.562
-38.707
-44.386
-50.299
-56.018
-61.148
-65.395
-68.441
-69.85
-69.34
-66.961
-63.117
-58.629
-54.339
-50.718
-48.181
-47.356
-48.561
-51.499
-55.285
-58.181
-58.191
-53.962
-44.169
-27.033
-1.306
33.457
76.829
126.861
180.852
236.433
290.553
338.897
377.232
401.564
408.396
395.795
362.476
307.262
231.427
139.072
34.734
-76.979
-194.038
-316.652
-441.165
-559.221
-658.127
-725.164
-755.143
-751.633
-724.801
-685.197
-639.486
-589.79
-534.755
-474.546
-411.192
-347.586
-288.152
-235.85
-191.624
-156.037
-128.39
-107.199
-91.796
-81.408
-74.506
-69.804
-65.891
-61.161
-55.106
-47.919
-39.605
-30.438
-20.979
-11.652
-3.21
3.382
7.845
10.297
10.945
10.261
8.686
6.565
4.42
2.84
2.163
2.551
4.018
6.421
9.651
13.633
18.24
23.331
28.772
34.442
40.243
46.101
51.933
57.644
63.138
68.317
73.096
77.429
81.3
84.721
87.718
90.326
92.582
94.534
96.239
97.753
99.126
100.405
101.629
102.839
104.083
105.407
106.856
108.459
110.233
112.186
114.32
116.634
119.123
121.778
124.58
127.515
130.569
133.732
136.993
140.337
143.748
147.206
150.692
154.188
157.675
161.134
164.545
167.889
171.146
174.297
177.325
180.211
182.936
185.478
187.82
189.94
191.823
193.45
194.805
195.874
196.642
197.099
197.236
197.043
196.515
195.646
194.434
192.878
190.977
188.734
186.151
183.236
179.994
176.435
172.568
168.406
163.961
159.248
154.284
149.085
143.668
138.054
132.261
126.311
120.223
114.02
107.722
101.352
94.932
88.484
82.028
75.587
69.181
62.83
56.553
50.37
44.297
38.352
32.551
26.908
21.437
16.151
11.062
6.18
1.514
-2.929
-7.142
-11.119
-14.856
-18.352
-21.605
-24.613
-27.38
-29.906
-32.195
-34.252
-36.081
-37.689
-39.083
-40.272
-41.263
-42.065
-42.689
-43.145
-43.442
-43.592
-43.604
-43.492
-43.264
-42.933
-42.51
-42.005
-41.429
-40.793
-40.107
-39.381
-38.623
-37.843
-37.049
-36.249
-35.451
-34.661
-33.886
-33.132
-32.403
-31.705
-31.04
-30.412
-29.825
-29.279
-28.778
-28.322
-27.913
-27.551
-27.238
-26.973
-26.756
-26.588
-26.467
-26.394
-26.368
-26.386
-26.448
-26.552
-26.696
-26.88
-27.101
-27.358
-27.65
-27.975
-28.332
-28.719
-29.134
-29.576
-30.043
-30.534
-31.046
-31.58
-32.134
-32.706
-33.296
-33.902
-34.523
-35.157
-35.802
-36.454
-37.112
-37.771
-38.428
-39.079
-39.72
-40.347
-40.955
-41.542
-42.105
-42.64
-43.143
-43.612
-44.042
-44.432
-44.775
-45.067
-45.301
-45.47
-45.571
-45.597
-45.546
-45.414
-45.196
-44.889
-44.495
-44.011
-43.435
-42.763
-41.984
-41.098
-40.108
-39.025
-37.864
-36.638
-35.356
-34.037
-32.701
-31.362
-30.031
-28.704
-27.365
-26.01
-24.645
-23.281
-21.943
-20.642
-19.375
-18.14
-16.929
-15.735
-14.552
-13.357
-12.112
-10.803
-9.436
-8.048
-6.697
-5.422
-4.238
-3.156
-2.171
-1.287
-0.516
0.145
0.702
1.151
1.483
1.662
1.629
1.366
0.888
0.244
-0.485
-1.25
-2.023
-2.776
-3.494
-4.164
-4.784
-5.4
-6.071
-6.835
-7.716
-8.701
-9.747
-10.862
-12.096
-13.521
-15.236
-17.308
-19.764
-22.678
-26.153
-30.209
-34.767
-39.577
-44.227
-48.35
-51.685
-53.938
-54.767
-53.94
-51.382
-47.412
-42.792
-38.281
-34.499
-32.0
-31.307
-32.781
-36.451
-41.612
-46.784
-50.187
-49.998
-44.506
-31.992
-10.882
19.825
60.111
108.834
163.885
222.467
281.302
336.253
382.754
416.454
433.38
430.372
405.345
357.119
286.759
198.143
95.649
-16.45
-136.096
-262.989
-393.131
-517.797
-623.755
-697.865
-734.532
-737.202
-716.526
-683.479
-644.315
-600.696
-550.695
-493.676
-431.963
-368.715
-307.974
-252.994
-205.209
-165.354
-133.381
-108.495
-89.85
-76.816
-68.323
-62.817
-58.717
-54.372
-48.837
-42.066
-34.22
-25.462
-16.191
-7.001
1.331
7.811
11.97
13.929
13.961
12.501
10.002
6.861
3.613
0.904
-0.854
-1.496
-0.986
0.556
3.021
6.357
10.446
15.135
20.285
25.757
31.447
37.277
43.159
48.984
54.644
60.031
65.049
69.649
73.808
77.529
80.835
83.753
86.318
88.58
90.597
92.425
94.118
95.722
97.278
98.83
100.427
102.117
103.945
105.941
108.119
110.488
113.048
115.795
118.723
121.819
125.061
128.432
131.917
135.5
139.169
142.906
146.691
150.503
154.321
158.123
161.89
165.6
169.234
172.77
176.189
179.472
182.601
185.558
188.323
190.876
193.2
195.276
197.088
198.621
199.86
200.791
201.405
201.692
201.645
201.259
200.529
199.454
198.033
196.267
194.159
191.715
188.939
185.841
182.429
178.714
174.71
170.428
165.885
161.097
156.08
150.853
145.434
139.842
134.098
128.222
122.235
116.156
110.006
103.807
97.578
91.339
85.111
78.912
72.76
66.673
60.668
54.761
48.967
43.299
37.771
32.395
27.182
22.142
17.283
12.614
8.14
3.867
-0.2
-4.059
-7.707
-11.143
-14.367
-17.381
-20.185
-22.783
-25.178
-27.374
-29.376
-31.19
-32.821
-34.276
-35.563
-36.688
-37.66
-38.487
-39.177
-39.738
-40.178
-40.508
-40.733
-40.864
-40.909
-40.875
-40.771
-40.604
-40.381
-40.109
-39.796
-39.446
-39.067
-38.662
-38.238
-37.799
-37.348
-36.891
-36.43
-35.968
-35.509
-35.056
-34.609
-34.172
-33.745
-33.331
-32.931
-32.545
-32.173
-31.818
-31.479
-31.157
-30.851
-30.562
-30.29
-30.036
-29.798
-29.578
-29.375
-29.189
-29.021
-28.871
-28.739
-28.626
-28.533
-28.461
-28.41
-28.381
-28.376
-28.396
-28.44
-28.511
-28.608
-28.734
-28.889
-29.072
-29.286
-29.53
-29.806
-30.112
-30.449
-30.816
-31.213
-31.638
-32.091
-32.569
-33.071
-33.594
-34.135
-34.694
-35.265
-35.846
-36.434
-37.024
-37.612
-38.194
-38.764
-39.318
-39.849
-40.353
-40.824
-41.256
-41.644
-41.983
-42.267
-42.49
-42.649
-42.737
-42.75
-42.684
-42.535
-42.301
-41.978
-41.565
-41.062
-40.47
-39.789
-39.023
-38.175
-37.249
-36.25
-35.182
-34.054
-32.87
-31.638
-30.366
-29.062
-27.735
-26.394
-25.052
-23.718
-22.402
-21.116
-19.872
-18.681
-17.554
-16.502
-15.531
-14.647
-13.859
-13.175
-12.606
-12.157
-11.829
-11.622
-11.533
-11.56
-11.697
-11.928
-12.23
-12.577
-12.947
-13.323
-13.694
-14.047
-14.363
-14.623
-14.804
-14.893
-14.889
-14.787
-14.58
-14.269
-13.862
-13.392
-12.927
-12.537
-12.282
-12.218
-12.38
-12.802
-13.536
-14.641
-16.174
-18.186
-20.705
-23.749
-27.37
-31.651
-36.589
-42.043
-47.716
-53.178
-58.034
-61.992
-64.736
-65.835
-65.01
-62.314
-58.158
-53.377
-48.825
-44.979
-42.254
-41.255
-42.294
-45.078
-48.723
-51.501
-51.431
-47.16
-37.368
-20.326
5.212
39.724
82.838
132.705
186.744
242.636
297.328
346.617
386.369
412.396
420.977
409.966
377.554
323.191
249.116
158.617
55.786
-57.137
-181.311
-314.917
-451.734
-579.112
-678.816
-739.903
-760.573
-748.224
-718.066
-679.924
-638.097
-593.09
-541.284
-482.992
-421.181
-358.82
-300.465
-248.898
-204.783
-168.76
-140.328
-118.155
-101.691
-90.279
-82.49
-77.069
-72.585
-67.37
-60.805
-53.021
-44.016
-34.052
-23.703
-13.423
-4.001
3.551
8.898
12.118
13.376
13.116
11.779
9.703
7.413
5.5
4.291
3.969
4.61
6.118
8.428
11.495
15.199
19.413
24.031
28.943
34.069
39.341
44.671
49.972
55.171
60.187
64.958
69.429
73.544
77.286
80.658
83.676
86.374
88.786
90.947
92.905
94.713
96.418
98.067
99.698
101.343
103.038
104.817
106.71
108.751
110.955
113.329
115.877
118.595
121.477
124.515
127.693
130.991
134.392
137.879
141.439
145.055
148.711
152.388
156.064
159.72
163.335
166.89
170.363
173.735
176.986
180.096
183.047
185.823
188.406
190.777
192.92
194.817
196.451
197.81
198.879
199.644
200.097
200.227
200.028
199.495
198.624
197.413
195.861
193.97
191.743
189.183
186.298
183.093
179.579
175.765
171.663
167.286
162.649
157.767
152.656
147.334
141.82
136.131
130.289
124.311
118.22
112.035
105.778
99.468
93.128
86.776
80.434
74.122
67.858
61.661
55.548
49.537
43.643
37.881
32.267
26.812
21.529
16.429
11.522
6.818
2.323
-1.955
-6.011
-9.841
-13.442
-16.811
-19.949
-22.856
-25.532
-27.981
-30.205
-32.209
-33.997
-35.577
-36.955
-38.138
-39.134
-39.952
-40.6
-41.089
-41.426
-41.623
-41.689
-41.634
-41.468
-41.201
-40.843
-40.404
-39.894
-39.322
-38.697
-38.028
-37.324
-36.592
-35.841
-35.077
-34.308
-33.539
-32.776
-32.025
-31.291
-30.577
-29.889
-29.228
-28.598
-28.001
-27.439
-26.915
-26.428
-25.981
-25.573
-25.206
-24.879
-24.593
-24.347
-24.141
-23.975
-23.847
-23.757
-23.704
-23.688
-23.707
-23.76
-23.847
-23.967
-24.118
-24.3
-24.513
-24.754
-25.024
-25.323
-25.648
-26.001
-26.38
-26.785
-27.217
-27.674
-28.157
-28.665
-29.199
-29.757
-30.341
-30.948
-31.579
-32.234
-32.911
-33.609
-34.328
-35.066
-35.822
-36.593
-37.379
-38.176
-38.982
-39.793
-40.608
-41.422
-42.232
-43.035
-43.826
-44.602
-45.359
-46.092
-46.796
-47.467
-48.1
-48.689
-49.23
-49.717
-50.146
-50.511
-50.807
-51.03
-51.175
-51.238
-51.215
-51.101
-50.894
-50.591
-50.189
-49.688
-49.086
-48.383
-47.582
-46.685
-45.694
-44.615
-43.451
-42.209
-40.896
-39.517
-38.081
-36.596
-35.07
-33.511
-31.93
-30.338
-28.744
-27.161
-25.599
-24.068
-22.582
-21.152
-19.791
-18.507
-17.308
-16.201
-15.194
-14.296
-13.516
-12.861
-12.331
-11.927
-11.649
-11.494
-11.459
-11.531
-11.687
-11.903
-12.16
-12.439
-12.729
-13.017
-13.284
-13.511
-13.673
-13.758
-13.762
-13.677
-13.495
-13.215
-12.845
-12.412
-11.983
-11.626
-11.403
-11.375
-11.581
-12.055
-12.856
-14.045
-15.689
-17.851
-20.569
-23.866
-27.801
-32.466
-37.863
-43.852
-50.123
-56.207
-61.677
-66.22
-69.496
-71.041
-70.554
-68.083
-64.083
-59.498
-55.271
-51.919
-49.917
-49.954
-52.372
-56.866
-62.406
-66.937
-68.236
-64.9
-55.313
-37.292
-9.418
29.045
77.046
130.884
187.853
246.477
305.249
363.433
416.08
454.461
470.648
456.687
410.581
337.805
245.562
142.569
34.442
-80.133
-204.355
-337.747
-474.354
-600.089
-696.843
-754.59
-772.005
-756.832
-723.828
-682.318
-636.757
-587.972
-532.717
-471.47
-407.08
-342.448
-282.173
-229.088
-183.871
-147.202
-118.618
-96.849
-81.45
-71.739
-66.146
-63.286
-61.583
-59.23
-55.534
-50.525
-44.076
-36.395
-28.032
-19.45
-11.496
-5.222
-0.973
1.334
1.896
1.168
-0.42
-2.522
-4.603
-6.056
-6.536
-5.901
-4.161
-1.477
2.027
6.268
11.115
16.411
22.011
27.79
33.643
39.502
45.297
50.933
56.324
61.38
66.024
70.218
73.96
77.264
80.158
82.677
84.856
86.746
88.404
89.885
91.24
92.514
93.743
94.968
96.234
97.585
99.062
100.692
102.487
104.457
106.602
108.921
111.411
114.061
116.854
119.777
122.818
125.965
129.21
132.539
135.935
139.381
142.859
146.351
149.84
153.307
156.735
160.105
163.397
166.595
169.682
172.638
175.446
178.085
180.538
182.785
184.81
186.595
188.125
189.385
190.362
191.045
191.425
191.493
191.243
190.669
189.766
188.534
186.972
185.079
182.859
180.315
177.453
174.28
170.804
167.036
162.986
158.668
154.094
149.281
144.244
139.0
133.567
127.963
122.208
116.322
110.324
104.235
98.076
91.866
85.628
79.38
73.143
66.936
60.778
54.688
48.682
42.779
36.994
31.342
25.84
20.499
15.334
10.355
5.573
0.999
-3.361
-7.499
-11.408
-15.085
-18.525
-21.727
-24.689
-27.412
-29.897
-32.147
-34.165
-35.956
-37.525
-38.878
-40.024
-40.969
-41.723
-42.294
-42.693
-42.928
-43.011
-42.953
-42.763
-42.454
-42.036
-41.521
-40.92
-40.244
-39.503
-38.709
-37.872
-37.001
-36.106
-35.196
-34.28
-33.365
-32.459
-31.568
-30.699
-29.857
-29.046
-28.271
-27.535
-26.841
-26.191
-25.587
-25.03
-24.521
-24.06
-23.646
-23.28
-22.961
-22.687
-22.457
-22.269
-22.122
-22.013
-21.941
-21.902
-21.895
-21.918
-21.967
-22.041
-22.138
-22.256
-22.393
-22.546
-22.716
-22.9
-23.098
-23.309
-23.531
-23.766
-24.012
-24.271
-24.541
-24.823
-25.119
-25.427
-25.749
-26.085
-26.435
-26.8
-27.179
-27.572
-27.979
-28.399
-28.831
-29.274
-29.726
-30.187
-30.654
-31.124
-31.597
-32.067
-32.534
-32.992
-33.439
-33.87
-34.281
-34.668
-35.024
-35.345
-35.627
-35.863
-36.047
-36.176
-36.242
-36.24
-36.165
-36.013
-35.777
-35.454
-35.041
-34.534
-33.931
-33.232
-32.435
-31.543
-30.556
-29.478
-28.312
-27.061
-25.731
-24.328
-22.858
-21.329
-19.746
-18.12
-16.459
-14.774
-13.077
-11.379
-9.69
-8.023
-6.39
-4.803
-3.276
-1.819
-0.442
0.845
2.033
3.11
4.065
4.888
5.579
6.135
6.558
6.853
7.022
7.078
7.039
6.925
6.755
6.546
6.306
6.05
5.793
5.553
5.358
5.224
5.157
5.163
5.242
5.388
5.597
5.845
6.08
6.25
6.294
6.156
5.804
5.205
4.327
3.128
1.541
-0.49
-3.009
-6.054
-9.635
-13.778
-18.56
-23.948
-29.755
-35.689
-41.304
-46.185
-50.08
-52.678
-53.54
-52.424
-49.401
-44.891
-39.785
-34.969
-30.907
-28.07
-27.123
-28.357
-31.483
-35.566
-38.749
-38.944
-34.772
-24.827
-7.092
19.742
56.057
101.541
153.361
208.014
263.934
317.924
367.261
409.855
438.954
449.386
436.737
395.945
329.918
244.012
143.84
36.887
-76.24
-198.224
-327.203
-458.033
-578.105
-670.172
-725.174
-742.079
-728.065
-696.964
-657.428
-613.535
-566.146
-512.474
-453.183
-391.102
-329.072
-271.44
-220.818
-177.749
-142.708
-115.112
-93.681
-77.915
-67.097
-59.709
-54.464
-50.011
-44.877
-38.614
-31.39
-23.199
-14.314
-5.308
3.36
10.949
16.603
20.117
21.653
21.463
20.015
17.755
15.053
12.428
10.44
9.413
9.488
10.669
12.827
15.86
19.695
24.211
29.264
34.717
40.442
46.334
52.312
58.294
64.181
69.874
75.275
80.298
84.897
89.06
92.796
96.126
99.082
101.697
104.018
106.105
108.011
109.788
111.478
113.12
114.755
116.429
118.184
120.064
122.094
124.288
126.65
129.184
131.884
134.744
137.752
140.889
144.137
147.484
150.916
154.421
157.984
161.587
165.211
168.837
172.446
176.021
179.542
182.991
186.348
189.597
192.721
195.702
198.524
201.169
203.618
205.855
207.862
209.623
211.124
212.35
213.287
213.926
214.257
214.271
213.963
213.328
212.362
211.063
209.431
207.467
205.174
202.555
199.616
196.364
192.808
188.957
184.822
180.417
175.753
170.846
165.713
160.368
154.829
149.114
143.242
137.231
131.101
124.872
118.563
112.193
105.784
99.355
92.924
86.511
80.134
73.811
67.559
61.395
55.334
49.391
43.581
37.916
32.41
27.074
21.918
16.952
12.185
7.623
3.272
-0.861
-4.773
-8.461
-11.923
-15.158
-18.166
-20.949
-23.508
-25.847
-27.969
-29.878
-31.581
-33.083
-34.391
-35.512
-36.454
-37.225
-37.833
-38.287
-38.596
-38.77
-38.818
-38.749
-38.573
-38.3
-37.939
-37.499
-36.989
-36.42
-35.799
-35.135
-34.437
-33.713
-32.969
-32.214
-31.455
-30.697
-29.946
-29.21
-28.492
-27.797
-27.132
-26.499
-25.902
-25.346
-24.834
-24.369
-23.954
-23.59
-23.281
-23.028
-22.833
-22.696
-22.62
-22.604
-22.651
-22.76
-22.931
-23.165
-23.461
-23.819
-24.237
-24.716
-25.253
-25.848
-26.498
-27.202
-27.958
-28.763
-29.616
-30.513
-31.452
-32.429
-33.439
-34.479
-35.544
-36.629
-37.728
-38.836
-39.945
-41.052
-42.149
-43.232
-44.293
-45.326
-46.324
-47.282
-48.192
-49.048
-49.841
-50.565
-51.213
-51.778
-52.256
-52.641
-52.927
-53.11
-53.186
-53.151
-53.006
-52.745
-52.365
-51.864
-51.238
-50.492
-49.634
-48.668
-47.6
-46.438
-45.189
-43.867
-42.487
-41.052
-39.569
-38.041
-36.473
-34.879
-33.276
-31.675
-30.095
-28.54
-27.013
-25.528
-24.097
-22.725
-21.42
-20.179
-18.995
-17.89
-16.884
-15.993
-15.239
-14.627
-14.158
-13.837
-13.667
-13.653
-13.803
-14.106
-14.543
-15.102
-15.767
-16.536
-17.411
-18.362
-19.352
-20.352
-21.323
-22.242
-23.095
-23.861
-24.517
-25.047
-25.441
-25.713
-25.906
-26.079
-26.284
-26.567
-26.952
-27.482
-28.219
-29.233
-30.602
-32.393
-34.652
-37.41
-40.736
-44.735
-49.419
-54.68
-60.253
-65.709
-70.669
-74.888
-78.077
-79.82
-79.84
-78.149
-75.122
-71.592
-68.339
-65.722
-64.07
-63.928
-65.595
-68.86
-72.87
-75.846
-75.917
-72.024
-62.901
-46.692
-22.118
11.633
53.703
100.66
150.222
201.472
253.695
306.959
356.603
393.997
411.04
399.365
357.33
289.826
202.924
106.007
4.529
-101.186
-211.496
-328.388
-448.471
-561.585
-655.054
-717.244
-744.097
-740.344
-716.229
-681.539
-642.05
-599.42
-552.126
-499.755
-443.963
-386.986
-331.999
-281.757
-237.227
-198.812
-166.581
-139.876
-118.362
-102.021
-90.261
-81.921
-75.871
-70.828
-65.624
-59.956
-53.692
-46.62
-38.895
-30.912
-23.118
-16.218
-10.918
-7.375
-5.486
-5.047
-5.669
-6.987
-8.656
-10.209
-11.16
-11.23
-10.315
-8.434
-5.716
-2.265
1.839
6.485
11.534
16.86
22.352
27.914
33.478
38.978
44.329
49.448
54.256
58.68
62.685
66.272
69.453
72.259
74.721
76.876
78.769
80.459
81.995
83.427
84.797
86.138
87.49
88.893
90.39
92.019
93.807
95.763
97.895
100.202
102.682
105.328
108.128
111.064
114.119
117.28
120.533
123.866
127.264
130.708
134.18
137.658
141.124
144.559
147.942
151.256
154.478
157.592
160.577
163.418
166.095
168.59
170.884
172.958
174.794
176.376
177.688
178.715
179.444
179.863
179.964
179.738
179.179
178.282
177.045
175.466
173.546
171.287
168.693
165.769
162.521
158.959
155.093
150.933
146.492
141.785
136.827
131.635
126.225
120.616
114.827
108.877
102.788
96.579
90.273
83.89
77.452
70.98
64.496
58.021
51.576
45.181
38.855
32.616
26.483
20.473
14.602
8.885
3.335
-2.033
-7.209
-12.181
-16.94
-21.477
-25.785
-29.858
-33.691
-37.281
-40.625
-43.722
-46.572
-49.176
-51.537
-53.656
-55.54
-57.192
-58.619
-59.827
-60.825
-61.621
-62.223
-62.642
-62.886
-62.967
-62.895
-62.681
-62.336
-61.869
-61.294
-60.619
-59.856
-59.015
-58.106
-57.14
-56.126
-55.074
-53.992
-52.888
-51.772
-50.65
-49.529
-48.416
-47.316
-46.236
-45.18
-44.153
-43.159
-42.203
-41.286
-40.413
-39.586
-38.807
-38.077
-37.397
-36.769
-36.191
-35.664
-35.188
-34.764
-34.389
-34.065
-33.79
-33.564
-33.387
-33.256
-33.172
-33.132
-33.136
-33.183
-33.271
-33.399
-33.566
-33.771
-34.013
-34.29
-34.601
-34.943
-35.314
-35.712
-36.133
-36.573
-37.029
-37.497
-37.972
-38.45
-38.929
-39.406
-39.877
-40.341
-40.793
-41.232
-41.654
-42.054
-42.427
-42.767
-43.064
-43.315
-43.512
-43.65
-43.724
-43.73
-43.662
-43.52
-43.301
-43.001
-42.614
-42.13
-41.542
-40.853
-40.066
-39.191
-38.244
-37.24
-36.191
-35.119
-34.04
-32.961
-31.884
-30.797
-29.687
-28.55
-27.391
-26.227
-25.072
-23.927
-22.789
-21.653
-20.503
-19.325
-18.1
-16.789
-15.37
-13.843
-12.228
-10.577
-8.95
-7.383
-5.897
-4.505
-3.209
-2.026
-0.971
-0.04
0.753
1.394
1.858
2.084
2.033
1.707
1.131
0.376
-0.474
-1.374
-2.286
-3.179
-4.045
-4.864
-5.637
-6.41
-7.222
-8.108
-9.088
-10.137
-11.24
-12.42
-13.723
-15.241
-17.079
-19.304
-21.974
-25.129
-28.808
-33.093
-37.961
-43.228
-48.607
-53.696
-58.117
-61.634
-63.955
-64.64
-63.418
-60.327
-55.735
-50.434
-45.255
-40.686
-37.23
-35.615
-36.231
-38.856
-42.629
-45.837
-46.481
-43.081
-34.086
-17.495
8.085
43.12
87.104
138.018
193.094
249.719
304.414
352.442
389.305
410.975
414.126
396.977
358.368
297.484
216.258
119.463
12.048
-101.123
-217.925
-338.379
-458.365
-569.68
-660.655
-719.704
-742.879
-734.403
-704.047
-662.178
-615.379
-565.611
-511.687
-453.59
-392.99
-332.609
-276.561
-227.454
-185.919
-152.258
-125.733
-105.058
-89.74
-79.052
-71.501
-65.884
-60.957
-55.371
-48.767
-41.328
-33.048
-24.201
-15.34
-6.883
0.495
6.007
9.489
11.112
11.126
9.988
8.127
5.89
3.759
2.258
1.681
2.154
3.674
6.11
9.357
13.339
17.936
23.006
28.415
34.038
39.767
45.526
51.234
56.797
62.125
67.13
71.733
75.897
79.618
82.907
85.793
88.309
90.493
92.394
94.072
95.583
96.979
98.305
99.601
100.91
102.275
103.742
105.35
107.125
109.081
111.225
113.557
116.076
118.775
121.642
124.661
127.815
131.091
134.476
137.958
141.52
145.146
148.815
152.507
156.202
159.882
163.526
167.115
170.627
174.043
177.344
180.513
183.529
186.372
189.024
191.464
193.674
195.637
197.336
198.756
199.882
200.702
201.206
201.385
201.232
200.742
199.91
198.735
197.217
195.356
193.155
190.619
187.755
184.569
181.072
177.275
173.189
168.828
164.208
159.344
154.254
148.955
143.467
137.808
131.999
126.061
120.014
113.879
107.677
101.429
95.157
88.882
82.622
76.399
70.231
64.137
58.134
52.239
46.468
40.836
35.357
30.043
24.907
19.959
15.209
10.665
6.335
2.224
-1.662
-5.32
-8.747
-11.942
-14.904
-17.635
-20.135
-22.409
-24.459
-26.29
-27.908
-29.318
-30.529
-31.547
-32.38
-33.038
-33.53
-33.865
-34.052
-34.103
-34.027
-33.834
-33.534
-33.138
-32.656
-32.097
-31.472
-30.789
-30.058
-29.288
-28.487
-27.662
-26.823
-25.976
-25.127
-24.284
-23.452
-22.636
-21.842
-21.074
-20.336
-19.632
-18.966
-18.34
-17.757
-17.22
-16.729
-16.286
-15.892
-15.549
-15.256
-15.013
-14.821
-14.679
-14.588
-14.545
-14.552
-14.607
-14.709
-14.858
-15.051
-15.288
-15.568
-15.89
-16.251
-16.65
-17.086
-17.557
-18.061
-18.597
-19.161
-19.751
-20.365
-21.0
-21.653
-22.32
-22.998
-23.683
-24.371
-25.057
-25.739
-26.411
-27.069
-27.709
-28.326
-28.916
-29.472
-29.991
-30.467
-30.894
-31.269
-31.586
-31.84
-32.026
-32.14
-32.177
-32.133
-32.005
-31.788
-31.479
-31.076
-30.576
-29.978
-29.282
-28.487
-27.595
-26.608
-25.53
-24.364
-23.116
-21.792
-20.398
-18.941
-17.43
-15.873
-14.279
-12.655
-11.013
-9.363
-7.715
-6.081
-4.473
-2.902
-1.379
0.083
1.472
2.777
3.987
5.095
6.095
6.98
7.74
8.365
8.849
9.194
9.398
9.464
9.395
9.197
8.886
8.487
8.026
7.524
7.002
6.47
5.945
5.448
4.999
4.624
4.338
4.147
4.058
4.081
4.215
4.452
4.761
5.076
5.327
5.452
5.391
5.106
4.561
3.701
2.463
0.782
-1.401
-4.118
-7.39
-11.269
-15.838
-21.091
-26.892
-32.938
-38.787
-44.038
-48.409
-51.585
-53.128
-52.744
-50.455
-46.656
-42.196
-37.904
-34.192
-31.439
-30.249
-30.952
-33.334
-36.526
-38.698
-37.897
-32.988
-22.665
-5.019
21.258
56.94
101.176
150.51
202.466
255.962
310.058
364.503
414.694
452.186
469.042
457.16
414.839
346.714
258.758
160.271
56.714
-51.655
-165.469
-287.034
-413.212
-533.527
-634.415
-703.016
-734.114
-732.062
-707.53
-671.193
-629.291
-583.228
-530.96
-471.953
-408.506
-344.052
-283.104
-228.886
-182.6
-144.902
-115.579
-93.64
-78.201
-68.261
-62.198
-58.452
-55.513
-51.743
-46.37
-39.399
-30.956
-21.428
-11.482
-1.709
7.111
14.019
18.662
21.116
21.598
20.591
18.576
15.938
13.208
10.965
9.545
9.136
9.789
11.392
13.864
17.136
21.085
25.584
30.514
35.756
41.221
46.832
52.5
58.14
63.66
68.971
73.998
78.669
82.944
86.819
90.302
93.417
96.199
98.678
100.901
102.923
104.792
106.556
108.255
109.923
111.597
113.32
115.127
117.054
119.125
121.347
123.726
126.26
128.944
131.77
134.725
137.788
140.943
144.176
147.472
150.819
154.203
157.605
161.006
164.389
167.733
171.023
174.24
177.366
180.383
183.273
186.021
188.611
191.028
193.255
195.274
197.071
198.63
199.936
200.977
201.739
202.212
202.387
202.255
201.812
201.052
199.973
198.572
196.85
194.808
192.449
189.775
186.794
183.51
179.933
176.072
171.937
167.541
162.895
158.015
152.916
147.613
142.123
136.464
130.653
124.709
118.65
112.497
106.268
99.983
93.662
87.323
80.987
74.671
68.394
62.174
56.026
49.969
44.017
38.184
32.486
26.935
21.543
16.323
11.283
6.433
1.783
-2.662
-6.894
-10.91
-14.705
-18.277
-21.624
-24.745
-27.641
-30.314
-32.766
-35.0
-37.021
-38.834
-40.445
-41.861
-43.088
-44.136
-45.011
-45.723
-46.281
-46.693
-46.97
-47.121
-47.155
-47.082
-46.912
-46.654
-46.319
-45.914
-45.45
-44.935
-44.378
-43.786
-43.167
-42.528
-41.877
-41.219
-40.56
-39.906
-39.262
-38.631
-38.018
-37.426
-36.858
-36.317
-35.806
-35.325
-34.877
-34.464
-34.086
-33.744
-33.439
-33.173
-32.945
-32.755
-32.605
-32.494
-32.423
-32.39
-32.397
-32.443
-32.528
-32.652
-32.814
-33.015
-33.254
-33.531
-33.847
-34.201
-34.593
-35.022
-35.49
-35.996
-36.539
-37.119
-37.736
-38.389
-39.078
-39.8
-40.555
-41.341
-42.155
-42.996
-43.86
-44.743
-45.643
-46.555
-47.474
-48.397
-49.318
-50.233
-51.136
-52.023
-52.887
-53.723
-54.525
-55.287
-56.004
-56.668
-57.273
-57.815
-58.285
-58.68
-58.993
-59.219
-59.352
-59.387
-59.321
-59.149
-58.868
-58.476
-57.971
-57.352
-56.619
-55.774
-54.82
-53.76
-52.599
-51.343
-49.999
-48.573
-47.074
-45.511
-43.894
-42.233
-40.536
-38.814
-37.08
-35.345
-33.62
-31.919
-30.254
-28.636
-27.081
-25.6
-24.205
-22.907
-21.711
-20.626
-19.658
-18.816
-18.108
-17.54
-17.113
-16.826
-16.682
-16.674
-16.796
-17.032
-17.357
-17.747
-18.184
-18.65
-19.135
-19.625
-20.101
-20.544
-20.934
-21.253
-21.493
-21.64
-21.679
-21.609
-21.434
-21.186
-20.93
-20.724
-20.616
-20.65
-20.844
-21.236
-21.89
-22.861
-24.215
-26.011
-28.266
-31.049
-34.475
-38.566
-43.273
-48.393
-53.521
-58.314
-62.517
-65.805
-67.842
-68.373
-67.243
-64.765
-61.686
-58.641
-56.179
-54.719
-54.548
-56.034
-59.326
-63.685
-67.688
-69.785
-68.282
-61.917
-49.583
-29.657
-0.936
36.668
82.315
134.2
189.795
246.787
302.269
351.85
391.163
416.297
423.758
411.394
377.841
321.842
244.705
150.852
44.837
-68.806
-188.013
-313.106
-440.328
-560.97
-662.133
-730.907
-761.991
-759.188
-733.154
-694.869
-650.855
-602.87
-549.006
-488.823
-424.618
-359.674
-298.433
-244.007
-197.477
-159.475
-129.737
-107.237
-91.162
-80.604
-74.031
-70.006
-67.086
-63.621
-58.838
-52.699
-45.243
-36.769
-27.856
-19.007
-10.967
-4.715
-0.615
1.401
1.54
0.273
-1.934
-4.708
-7.519
-9.755
-11.056
-11.254
-10.322
-8.401
-5.601
-1.996
2.285
7.093
12.293
17.757
23.387
29.108
34.836
40.47
45.912
51.06
55.828
60.169
64.066
67.528
70.58
73.254
75.59
77.635
79.446
81.078
82.582
84.004
85.384
86.764
88.19
89.709
91.366
93.189
95.193
97.386
99.768
102.338
105.088
108.007
111.076
114.28
117.603
121.034
124.561
128.169
131.841
135.557
139.299
143.046
146.781
150.485
154.138
157.721
161.214
164.601
167.864
170.984
173.942
176.719
179.296
181.655
183.777
185.647
187.249
188.568
189.593
190.312
190.716
190.799
190.554
189.976
189.063
187.815
186.232
184.315
182.068
179.497
176.607
173.407
169.907
166.117
162.05
157.72
153.141
148.329
143.301
138.076
132.67
127.105
121.398
115.571
109.645
103.638
97.574
91.471
85.351
79.234
73.139
67.086
61.092
55.176
49.354
43.642
38.054
32.606
27.309
22.177
17.219
12.448
7.87
3.494
-0.674
-4.627
-8.363
-11.878
-15.171
-18.24
-21.087
-23.713
-26.121
-28.315
-30.299
-32.079
-33.662
-35.054
-36.263
-37.298
-38.168
-38.881
-39.449
-39.88
-40.184
-40.372
-40.453
-40.437
-40.334
-40.154
-39.905
-39.598
-39.241
-38.842
-38.41
-37.952
-37.476
-36.987
-36.493
-35.999
-35.509
-35.029
-34.562
-34.111
-33.679
-33.269
-32.881
-32.519
-32.181
-31.869
-31.583
-31.321
-31.085
-30.872
-30.682
-30.513
-30.365
-30.235
-30.124
-30.029
-29.949
-29.883
-29.83
-29.789
-29.759
-29.738
-29.726
-29.723
-29.729
-29.742
-29.764
-29.794
-29.832
-29.88
-29.937
-30.005
-30.084
-30.176
-30.281
-30.402
-30.539
-30.694
-30.868
-31.063
-31.281
-31.522
-31.788
-32.08
-32.399
-32.744
-33.118
-33.519
-33.948
-34.404
-34.888
-35.397
-35.93
-36.486
-37.063
-37.657
-38.267
-38.888
-39.518
-40.152
-40.787
-41.419
-42.043
-42.655
-43.25
-43.823
-44.369
-44.882
-45.357
-45.788
-46.169
-46.496
-46.763
-46.964
-47.094
-47.149
-47.124
-47.015
-46.817
-46.527
-46.141
-45.658
-45.076
-44.394
-43.612
-42.73
-41.752
-40.68
-39.518
-38.272
-36.946
-35.547
-34.081
-32.557
-30.983
-29.366
-27.716
-26.041
-24.352
-22.661
-20.978
-19.315
-17.683
-16.092
-14.556
-13.087
-11.696
-10.392
-9.183
-8.075
-7.075
-6.193
-5.438
-4.814
-4.322
-3.96
-3.727
-3.62
-3.633
-3.751
-3.951
-4.209
-4.506
-4.825
-5.158
-5.491
-5.807
-6.089
-6.315
-6.471
-6.555
-6.558
-6.473
-6.297
-6.036
-5.717
-5.401
-5.15
-5.021
-5.064
-5.309
-5.78
-6.525
-7.595
-9.051
-10.949
-13.323
-16.193
-19.622
-23.706
-28.457
-33.748
-39.283
-44.614
-49.337
-53.173
-55.821
-56.852
-55.988
-53.288
-49.209
-44.702
-40.693
-37.651
-35.979
-36.29
-38.904
-43.548
-49.237
-53.945
-55.492
-52.587
-43.806
-27.133
-1.174
34.903
80.208
131.117
184.992
240.638
297.083
354.078
406.804
446.539
465.058
454.018
411.798
343.197
254.3
154.575
49.55
-60.446
-175.862
-298.827
-426.104
-547.171
-648.436
-717.117
-748.006
-745.405
-720.072
-682.735
-639.742
-592.716
-539.709
-480.242
-416.586
-352.016
-290.903
-236.354
-189.493
-150.983
-120.628
-97.473
-80.734
-69.551
-62.45
-58.015
-54.796
-51.125
-46.189
-39.926
-32.368
-23.799
-14.772
-5.779
2.438
8.896
13.216
15.467
15.854
14.853
12.928
10.45
7.951
6.045
5.093
5.259
6.568
8.876
12.067
16.066
20.736
25.92
31.477
37.272
43.201
49.185
55.134
60.944
66.514
71.744
76.551
80.889
84.744
88.126
91.061
93.584
95.735
97.563
99.129
100.488
101.694
102.795
103.832
104.851
105.9
107.026
108.273
109.67
111.233
112.97
114.884
116.974
119.236
121.66
124.23
126.934
129.759
132.697
135.737
138.867
142.072
145.336
148.641
151.97
155.307
158.636
161.938
165.195
168.39
171.505
174.524
177.428
180.2
182.818
185.265
187.522
189.572
191.397
192.981
194.309
195.369
196.149
196.638
196.828
196.711
196.281
195.535
194.467
193.078
191.367
189.335
186.984
184.32
181.346
178.072
174.504
170.654
166.532
162.152
157.526
152.669
147.599
142.331
136.883
131.273
125.521
119.645
113.667
107.605
101.479
95.31
89.118
82.922
76.741
70.593
64.496
58.468
52.526
46.685
40.96
35.367
29.918
24.627
19.505
14.564
9.812
5.259
0.913
-3.221
-7.137
-10.831
-14.299
-17.54
-20.554
-23.34
-25.901
-28.239
-30.358
-32.263
-33.959
-35.453
-36.752
-37.864
-38.797
-39.56
-40.163
-40.614
-40.924
-41.102
-41.159
-41.105
-40.95
-40.704
-40.377
-39.978
-39.518
-39.006
-38.451
-37.861
-37.245
-36.611
-35.965
-35.316
-34.67
-34.032
-33.407
-32.802
-32.219
-31.662
-31.134
-30.638
-30.176
-29.747
-29.355
-28.998
-28.676
-28.39
-28.139
-27.921
-27.737
-27.584
-27.461
-27.366
-27.299
-27.256
-27.236
-27.238
-27.259
-27.298
-27.354
-27.425
-27.51
-27.608
-27.717
-27.837
-27.967
-28.106
-28.254
-28.411
-28.574
-28.746
-28.925
-29.112
-29.309
-29.516
-29.733
-29.962
-30.203
-30.459
-30.731
-31.018
-31.322
-31.643
-31.984
-32.344
-32.725
-33.126
-33.55
-33.994
-34.46
-34.947
-35.454
-35.979
-36.52
-37.074
-37.64
-38.214
-38.793
-39.374
-39.953
-40.529
-41.099
-41.658
-42.204
-42.732
-43.24
-43.723
-44.176
-44.591
-44.963
-45.285
-45.551
-45.758
-45.901
-45.974
-45.973
-45.895
-45.74
-45.506
-45.188
-44.78
-44.273
-43.666
-42.965
-42.184
-41.33
-40.412
-39.439
-38.425
-37.388
-36.339
-35.282
-34.207
-33.104
-31.971
-30.817
-29.661
-28.521
-27.405
-26.308
-25.223
-24.151
-23.093
-22.044
-20.98
-19.872
-18.71
-17.514
-16.332
-15.21
-14.168
-13.216
-12.351
-11.572
-10.89
-10.313
-9.834
-9.44
-9.124
-8.895
-8.79
-8.852
-9.084
-9.453
-9.889
-10.333
-10.758
-11.142
-11.47
-11.723
-11.886
-11.975
-12.058
-12.196
-12.438
-12.806
-13.277
-13.854
-14.59
-15.562
-16.885
-18.647
-20.881
-23.662
-27.112
-31.275
-36.112
-41.418
-46.76
-51.747
-56.108
-59.515
-61.625
-62.206
-61.142
-58.731
-55.731
-52.898
-50.827
-50.03
-50.947
-53.851
-58.697
-64.702
-70.294
-73.59
-72.844
-66.555
-52.989
-30.61
1.386
43.134
92.632
146.893
204.267
262.114
318.424
371.037
413.352
439.801
444.773
422.925
375.717
306.025
218.985
121.509
15.034
-101.049
-227.588
-362.999
-497.351
-614.884
-701.246
-748.84
-760.138
-746.52
-719.005
-683.702
-642.634
-593.471
-535.349
-471.202
-404.689
-340.205
-281.566
-230.477
-187.52
-152.905
-125.993
-105.576
-90.913
-81.034
-74.28
-69.271
-64.645
-59.015
-52.041
-43.977
-34.912
-25.22
-15.549
-6.406
1.468
7.267
10.843
12.395
12.213
10.785
8.574
5.964
3.467
1.618
0.72
0.9
2.156
4.361
7.413
11.237
15.714
20.707
26.08
31.711
37.491
43.341
49.178
54.904
60.424
65.641
70.468
74.861
78.809
82.321
85.419
88.136
90.506
92.577
94.41
96.06
97.581
99.017
100.407
101.795
103.227
104.748
106.401
108.216
110.206
112.379
114.737
117.278
119.997
122.882
125.914
129.077
132.357
135.743
139.223
142.782
146.401
150.062
153.746
157.432
161.104
164.741
168.325
171.835
175.255
178.565
181.749
184.789
187.665
190.36
192.854
195.13
197.17
198.959
200.481
201.722
202.67
203.315
203.647
203.661
203.349
202.708
201.735
200.428
198.789
196.818
194.521
191.901
188.965
185.722
182.181
178.352
174.249
169.883
165.271
160.427
155.368
150.111
144.674
139.076
133.334
127.47
121.502
115.45
109.335
103.176
96.993
90.805
84.632
78.491
72.401
66.379
60.441
54.604
48.882
43.29
37.84
32.545
27.416
22.464
17.697
13.124
8.752
4.587
0.634
-3.104
-6.623
-9.923
-13.002
-15.861
-18.501
-20.924
-23.134
-25.135
-26.93
-28.527
-29.93
-31.148
-32.186
-33.054
-33.759
-34.309
-34.715
-34.985
-35.128
-35.153
-35.071
-34.89
-34.62
-34.269
-33.848
-33.364
-32.826
-32.243
-31.622
-30.971
-30.297
-29.608
-28.908
-28.206
-27.505
-26.812
-26.131
-25.466
-24.823
-24.203
-23.612
-23.05
-22.522
-22.029
-21.573
-21.155
-20.776
-20.439
-20.142
-19.887
-19.675
-19.505
-19.377
-19.291
-19.247
-19.245
-19.284
-19.363
-19.484
-19.644
-19.844
-20.084
-20.362
-20.679
-21.034
-21.427
-21.857
-22.324
-22.827
-23.365
-23.937
-24.544
-25.183
-25.854
-26.556
-27.288
-28.047
-28.832
-29.642
-30.473
-31.324
-32.192
-33.074
-33.966
-34.865
-35.768
-36.671
-37.571
-38.462
-39.34
-40.2
-41.038
-41.849
-42.626
-43.364
-44.058
-44.703
-45.291
-45.819
-46.279
-46.668
-46.98
-47.209
-47.351
-47.401
-47.355
-47.21
-46.962
-46.609
-46.15
-45.584
-44.912
-44.134
-43.255
-42.276
-41.201
-40.036
-38.786
-37.456
-36.055
-34.588
-33.064
-31.491
-29.878
-28.236
-26.576
-24.909
-23.245
-21.596
-19.975
-18.394
-16.865
-15.4
-14.005
-12.69
-11.464
-10.338
-9.324
-8.429
-7.657
-7.01
-6.49
-6.096
-5.824
-5.663
-5.59
-5.585
-5.629
-5.707
-5.81
-5.924
-6.032
-6.116
-6.153
-6.129
-6.041
-5.88
-5.638
-5.316
-4.923
-4.49
-4.081
-3.764
-3.597
-3.638
-3.923
-4.484
-5.377
-6.66
-8.397
-10.641
-13.425
-16.77
-20.727
-25.379
-30.721
-36.626
-42.817
-48.887
-54.47
-59.319
-63.157
-65.58
-66.311
-65.335
-62.959
-59.93
-56.968
-54.382
-52.428
-51.559
-52.047
-53.75
-56.003
-57.284
-55.842
-50.66
-40.845
-24.955
-1.82
29.112
67.958
112.547
159.907
209.116
258.072
305.255
349.218
383.551
402.932
402.117
375.792
325.656
254.865
168.523
73.559
-28.487
-138.137
-255.947
-380.358
-502.399
-607.855
-683.891
-723.7
-729.736
-712.655
-682.811
-646.43
-605.564
-557.93
-502.71
-442.307
-379.842
-319.38
-264.296
-215.967
-175.011
-141.718
-115.584
-95.691
-81.427
-71.887
-65.566
-61.199
-57.478
-53.04
-47.468
-40.878
-33.262
-24.923
-16.442
-8.27
-1.095
4.313
7.793
9.493
9.641
8.674
7.008
4.987
3.084
1.801
1.409
2.025
3.637
6.117
9.367
13.306
17.816
22.757
27.998
33.428
38.952
44.501
50.004
55.372
60.52
65.369
69.845
73.911
77.561
80.806
83.672
86.194
88.407
90.358
92.105
93.702
95.195
96.63
98.04
99.467
100.953
102.538
104.263
106.152
108.218
110.467
112.9
115.514
118.303
121.254
124.348
127.57
130.905
134.34
137.862
141.457
145.104
148.786
152.482
156.172
159.838
163.461
167.019
170.494
173.867
177.118
180.231
183.187
185.966
188.55
190.92
193.057
194.946
196.569
197.913
198.963
199.707
200.137
200.243
200.019
199.46
198.562
197.324
195.746
193.828
191.574
188.989
186.077
182.848
179.309
175.472
171.347
166.948
162.29
157.386
152.254
146.91
141.373
135.66
129.792
123.787
117.665
111.447
105.154
98.804
92.42
86.02
79.626
73.255
66.926
60.658
54.468
48.373
42.388
36.528
30.808
25.24
19.837
14.61
9.569
4.723
0.081
-4.35
-8.565
-12.558
-16.326
-19.865
-23.175
-26.254
-29.103
-31.722
-34.115
-36.283
-38.231
-39.964
-41.486
-42.805
-43.926
-44.858
-45.607
-46.183
-46.593
-46.848
-46.955
-46.924
-46.765
-46.487
-46.099
-45.612
-45.034
-44.375
-43.645
-42.851
-42.002
-41.108
-40.176
-39.215
-38.232
-37.233
-36.228
-35.221
-34.219
-33.228
-32.254
-31.303
-30.378
-29.485
-28.627
-27.809
-27.034
-26.304
-25.623
-24.993
-24.416
-23.894
-23.428
-23.019
-22.669
-22.378
-22.147
-21.975
-21.864
-21.813
-21.821
-21.888
-22.014
-22.198
-22.438
-22.733
-23.083
-23.485
-23.937
-24.436
-24.981
-25.568
-26.194
-26.855
-27.547
-28.265
-29.006
-29.764
-30.535
-31.314
-32.095
-32.872
-33.642
-34.397
-35.131
-35.84
-36.517
-37.157
-37.752
-38.297
-38.787
-39.216
-39.578
-39.868
-40.08
-40.209
-40.252
-40.202
-40.057
-39.813
-39.468
-39.02
-38.468
-37.812
-37.053
-36.195
-35.24
-34.194
-33.06
-31.845
-30.555
-29.199
-27.785
-26.319
-24.812
-23.272
-21.71
-20.137
-18.565
-17.005
-15.468
-13.967
-12.513
-11.118
-9.797
-8.557
-7.407
-6.355
-5.409
-4.578
-3.875
-3.306
-2.871
-2.572
-2.408
-2.375
-2.467
-2.672
-2.967
-3.328
-3.735
-4.173
-4.634
-5.103
-5.565
-6.0
-6.384
-6.704
-6.954
-7.13
-7.226
-7.244
-7.19
-7.096
-7.02
-7.03
-7.179
-7.517
-8.072
-8.868
-9.948
-11.366
-13.18
-15.44
-18.183
-21.416
-25.183
-29.561
-34.541
-40.012
-45.715
-51.238
-56.205
-60.354
-63.38
-64.915
-64.734
-62.775
-59.347
-55.215
-51.124
-47.611
-45.174
-44.297
-45.256
-48.033
-51.946
-55.521
-57.032
-54.943
-47.831
-34.041
-12.209
18.41
57.919
104.306
154.731
207.646
260.298
310.767
357.193
392.981
412.83
411.332
383.03
330.022
255.932
166.243
68.336
-36.004
-147.27
-265.894
-390.265
-511.619
-615.836
-690.211
-728.084
-732.004
-712.906
-681.418
-644.009
-602.821
-555.366
-500.597
-440.694
-378.611
-318.394
-263.411
-215.008
-173.819
-140.169
-113.619
-93.352
-78.84
-69.217
-62.996
-58.903
-55.592
-51.656
-46.63
-40.576
-33.449
-25.531
-17.392
-9.487
-2.517
2.731
6.082
7.672
7.729
6.689
4.971
2.919
1.008
-0.263
-0.62
0.048
1.726
4.281
7.608
11.624
16.209
21.222
26.533
32.032
37.623
43.237
48.804
54.239
59.46
64.389
68.954
73.119
76.879
80.249
83.252
85.925
88.301
90.426
92.356
94.142
95.832
97.465
99.076
100.702
102.382
104.157
106.063
108.124
110.351
112.75
115.318
118.053
120.948
123.988
127.156
130.434
133.808
137.264
140.79
144.37
147.985
151.617
155.246
158.852
162.417
165.922
169.349
172.677
175.89
178.969
181.9
184.664
187.244
189.622
191.781
193.705
195.378
196.786
197.915
198.752
199.287
199.512
199.42
199.004
198.26
197.186
195.781
194.044
191.979
189.588
186.876
183.849
180.516
176.885
172.968
168.775
164.321
159.618
154.682
149.53
144.177
138.64
132.939
127.092
121.117
115.034
108.863
102.624
96.336
90.019
83.693
77.377
71.089
64.849
58.672
52.578
46.581
40.697
34.941
29.327
23.867
18.574
13.459
8.531
3.799
-0.728
-5.045
-9.146
-13.027
-16.684
-20.115
-23.318
-26.294
-29.043
-31.568
-33.871
-35.957
-37.829
-39.493
-40.957
-42.226
-43.308
-44.211
-44.944
-45.516
-45.935
-46.212
-46.355
-46.375
-46.282
-46.086
-45.797
-45.424
-44.977
-44.465
-43.898
-43.284
-42.632
-41.949
-41.243
-40.521
-39.79
-39.056
-38.326
-37.604
-36.894
-36.202
-35.531
-34.884
-34.263
-33.672
-33.111
-32.582
-32.087
-31.627
-31.203
-30.815
-30.463
-30.149
-29.871
-29.63
-29.425
-29.256
-29.121
-29.021
-28.954
-28.919
-28.918
-28.948
-29.01
-29.103
-29.227
-29.381
-29.566
-29.779
-30.022
-30.293
-30.593
-30.922
-31.28
-31.666
-32.081
-32.524
-32.995
-33.494
-34.018
-34.565
-35.135
-35.723
-36.328
-36.947
-37.575
-38.21
-38.848
-39.487
-40.123
-40.753
-41.372
-41.977
-42.565
-43.13
-43.668
-44.171
-44.632
-45.045
-45.405
-45.706
-45.945
-46.114
-46.209
-46.227
-46.165
-46.021
-45.791
-45.467
-45.038
-44.505
-43.872
-43.151
-42.351
-41.48
-40.545
-39.561
-38.545
-37.509
-36.457
-35.378
-34.264
-33.113
-31.936
-30.753
-29.582
-28.43
-27.295
-26.17
-25.057
-23.959
-22.871
-21.77
-20.631
-19.445
-18.234
-17.049
-15.936
-14.918
-14.003
-13.19
-12.477
-11.876
-11.395
-11.029
-10.762
-10.587
-10.509
-10.564
-10.789
-11.189
-11.729
-12.336
-12.949
-13.538
-14.081
-14.562
-14.966
-15.276
-15.507
-15.716
-15.973
-16.331
-16.831
-17.469
-18.236
-19.168
-20.339
-21.85
-23.793
-26.222
-29.172
-32.708
-36.934
-41.868
-47.39
-53.204
-58.868
-63.991
-68.305
-71.534
-73.274
-73.238
-71.427
-68.188
-64.321
-60.626
-57.477
-55.17
-54.237
-54.994
-57.253
-60.225
-62.172
-61.162
-56.099
-45.872
-28.743
-3.293
31.376
74.464
122.695
172.895
223.527
275.144
328.551
381.15
426.096
452.143
448.534
410.824
340.93
248.285
145.103
38.799
-67.965
-178.044
-295.739
-418.909
-538.625
-640.715
-711.778
-746.271
-747.7
-726.518
-693.05
-653.353
-609.089
-558.283
-500.534
-438.173
-374.416
-313.663
-259.132
-212.101
-173.373
-142.826
-119.5
-102.518
-90.957
-83.341
-78.223
-74.149
-69.472
-63.38
-55.863
-47.048
-37.282
-27.166
-17.228
-8.211
-1.089
3.755
6.389
7.021
6.123
4.163
1.509
-1.309
-3.689
-5.27
-5.849
-5.361
-3.913
-1.586
1.562
5.406
9.815
14.661
19.82
25.2
30.725
36.305
41.852
47.273
52.474
57.377
61.913
66.038
69.748
73.051
75.971
78.545
80.808
82.809
84.605
86.249
87.788
89.269
90.726
92.201
93.737
95.373
97.147
99.083
101.193
103.483
105.951
108.595
111.407
114.373
117.474
120.693
124.016
127.428
130.917
134.468
138.061
141.676
145.296
148.899
152.469
155.986
159.431
162.784
166.028
169.145
172.118
174.93
177.564
180.001
182.223
184.214
185.959
187.442
188.651
189.572
190.195
190.511
190.513
190.197
189.556
188.59
187.297
185.678
183.735
181.472
178.893
176.006
172.818
169.338
165.577
161.547
157.261
152.733
147.978
143.012
137.852
132.515
127.02
121.384
115.627
109.769
103.828
97.825
91.778
85.709
79.635
73.577
67.553
61.58
55.677
49.859
44.142
38.541
33.07
27.743
22.572
17.567
12.739
8.098
3.651
-0.595
-4.634
-8.46
-12.07
-15.462
-18.634
-21.584
-24.314
-26.825
-29.118
-31.197
-33.066
-34.73
-36.194
-37.465
-38.55
-39.455
-40.19
-40.763
-41.182
-41.457
-41.597
-41.612
-41.511
-41.303
-40.999
-40.606
-40.135
-39.594
-38.992
-38.337
-37.638
-36.9
-36.132
-35.341
-34.532
-33.712
-32.886
-32.059
-31.236
-30.422
-29.62
-28.834
-28.067
-27.321
-26.6
-25.905
-25.239
-24.601
-23.995
-23.42
-22.877
-22.368
-21.891
-21.449
-21.04
-20.665
-20.324
-20.017
-19.745
-19.506
-19.303
-19.134
-19.001
-18.904
-18.844
-18.821
-18.836
-18.889
-18.981
-19.112
-19.283
-19.494
-19.746
-20.038
-20.37
-20.742
-21.154
-21.605
-22.093
-22.618
-23.177
-23.769
-24.392
-25.042
-25.717
-26.414
-27.129
-27.859
-28.599
-29.346
-30.093
-30.838
-31.573
-32.294
-32.994
-33.669
-34.31
-34.913
-35.471
-35.977
-36.427
-36.814
-37.131
-37.374
-37.538
-37.617
-37.608
-37.506
-37.308
-37.013
-36.62
-36.127
-35.535
-34.846
-34.063
-33.19
-32.231
-31.19
-30.075
-28.892
-27.649
-26.353
-25.013
-23.638
-22.237
-20.821
-19.401
-17.99
-16.597
-15.235
-13.915
-12.651
-11.454
-10.334
-9.299
-8.357
-7.513
-6.778
-6.163
-5.671
-5.305
-5.065
-4.949
-4.957
-5.083
-5.315
-5.628
-6.0
-6.409
-6.838
-7.276
-7.707
-8.113
-8.473
-8.763
-8.968
-9.085
-9.106
-9.023
-8.833
-8.543
-8.183
-7.817
-7.515
-7.337
-7.342
-7.568
-8.054
-8.858
-10.047
-11.687
-13.839
-16.542
-19.817
-23.725
-28.356
-33.706
-39.633
-45.838
-51.873
-57.328
-61.908
-65.288
-67.012
-66.791
-64.665
-61.036
-56.768
-52.741
-49.412
-47.2
-46.749
-48.371
-51.785
-56.103
-59.49
-59.829
-55.784
-46.015
-28.527
-1.96
34.189
79.779
132.084
187.637
244.938
300.88
352.77
398.428
430.85
444.51
434.713
396.17
331.608
246.244
145.476
36.67
-79.666
-206.34
-341.235
-478.699
-605.268
-702.537
-760.895
-779.337
-765.47
-733.9
-693.557
-648.403
-599.203
-543.082
-480.919
-415.922
-351.196
-291.283
-238.92
-194.696
-159.096
-131.482
-110.433
-95.319
-85.322
-78.818
-74.438
-70.751
-66.211
-60.348
-53.363
-45.279
-36.405
-27.353
-18.607
-10.936
-5.233
-1.709
-0.194
-0.42
-1.901
-4.173
-6.857
-9.424
-11.303
-12.171
-11.894
-10.475
-8.055
-4.746
-0.63
4.163
9.482
15.182
21.13
27.213
33.351
39.457
45.428
51.164
56.57
61.56
66.092
70.157
73.765
76.941
79.718
82.133
84.235
86.085
87.74
89.252
90.668
92.028
93.376
94.759
96.221
97.806
99.54
101.437
103.506
105.748
108.162
110.743
113.48
116.356
119.358
122.474
125.692
129.003
132.392
135.843
139.34
142.864
146.397
149.924
153.427
156.887
160.287
163.608
166.835
169.95
172.935
175.773
178.444
180.93
183.213
185.275
187.1
188.673
189.978
191.002
191.735
192.167
192.289
192.095
191.578
190.734
189.562
188.061
186.23
184.073
181.593
178.795
175.686
172.275
168.571
164.584
160.329
155.817
151.064
146.085
140.897
135.517
129.963
124.254
118.411
112.451
106.396
100.266
94.082
87.864
81.632
75.406
69.207
63.052
56.96
50.95
45.038
39.241
33.575
28.053
22.69
17.498
12.49
7.675
3.062
-1.339
-5.521
-9.48
-13.209
-16.706
-19.968
-22.994
-25.783
-28.336
-30.656
-32.746
-34.61
-36.253
-37.682
-38.902
-39.922
-40.75
-41.395
-41.866
-42.174
-42.328
-42.339
-42.218
-41.977
-41.625
-41.174
-40.635
-40.019
-39.336
-38.596
-37.81
-36.987
-36.136
-35.267
-34.386
-33.504
-32.626
-31.759
-30.911
-30.087
-29.291
-28.53
-27.806
-27.123
-26.485
-25.893
-25.351
-24.858
-24.417
-24.029
-23.692
-23.409
-23.177
-22.996
-22.866
-22.785
-22.751
-22.764
-22.822
-22.922
-23.064
-23.246
-23.465
-23.72
-24.009
-24.331
-24.685
-25.067
-25.477
-25.914
-26.374
-26.858
-27.364
-27.889
-28.433
-28.994
-29.571
-30.161
-30.763
-31.375
-31.995
-32.62
-33.249
-33.877
-34.503
-35.124
-35.735
-36.334
-36.918
-37.483
-38.025
-38.54
-39.024
-39.472
-39.88
-40.243
-40.558
-40.817
-41.018
-41.155
-41.223
-41.217
-41.135
-40.97
-40.718
-40.377
-39.942
-39.411
-38.78
-38.048
-37.214
-36.277
-35.239
-34.1
-32.862
-31.531
-30.109
-28.604
-27.019
-25.363
-23.643
-21.868
-20.046
-18.187
-16.3
-14.396
-12.485
-10.58
-8.692
-6.834
-5.017
-3.255
-1.559
0.056
1.579
2.999
4.308
5.498
6.561
7.489
8.271
8.9
9.378
9.703
9.875
9.898
9.778
9.528
9.173
8.736
8.239
7.7
7.131
6.549
5.973
5.426
4.931
4.506
4.157
3.896
3.735
3.676
3.717
3.829
3.953
4.024
3.982
3.773
3.36
2.709
1.766
0.467
-1.252
-3.451
-6.169
-9.432
-13.301
-17.868
-23.135
-28.966
-35.069
-41.014
-46.412
-50.987
-54.432
-56.312
-56.342
-54.557
-51.346
-47.525
-43.883
-40.807
-38.631
-37.908
-38.942
-41.478
-44.67
-46.819
-46.024
-41.052
-30.724
-13.398
12.21
46.708
89.872
139.97
194.494
251.239
307.322
358.628
400.96
429.955
441.594
433.467
403.702
351.546
278.948
189.163
86.277
-27.301
-152.28
-286.903
-425.587
-556.022
-660.011
-726.131
-751.187
-741.582
-712.589
-674.349
-631.584
-585.177
-531.148
-469.413
-403.366
-336.452
-273.619
-218.132
-170.901
-132.622
-103.05
-81.023
-65.585
-55.7
-49.697
-45.997
-43.079
-39.275
-33.807
-26.716
-18.148
-8.492
1.574
11.463
20.392
27.383
32.083
34.579
35.091
34.11
32.123
29.513
26.817
24.623
23.27
22.94
23.68
25.37
27.92
31.26
35.259
39.786
44.714
49.924
55.324
60.837
66.372
71.844
77.162
82.238
86.999
91.381
95.346
98.896
102.043
104.815
107.251
109.386
111.268
112.954
114.496
115.942
117.335
118.71
120.107
121.566
123.124
124.816
126.666
128.682
130.866
133.22
135.736
138.408
141.221
144.158
147.2
150.334
153.545
156.822
160.149
163.508
166.879
170.245
173.586
176.885
180.124
183.283
186.345
189.292
192.107
194.775
197.28
199.603
201.729
203.64
205.321
206.759
207.938
208.847
209.473
209.808
209.842
209.57
208.986
208.086
206.869
205.333
203.48
201.311
198.829
196.041
192.951
189.568
185.9
181.958
177.753
173.298
168.607
163.693
158.573
153.262
147.778
142.137
136.357
130.457
124.455
118.369
112.219
106.022
99.798
93.565
87.341
81.144
74.992
68.901
62.886
56.965
51.151
45.458
39.899
34.487
29.233
24.148
19.24
14.519
9.991
5.663
1.539
-2.376
-6.08
-9.57
-12.847
-15.91
-18.76
-21.401
-23.834
-26.063
-28.094
-29.932
-31.582
-33.052
-34.349
-35.481
-36.455
-37.282
-37.97
-38.528
-38.966
-39.293
-39.52
-39.656
-39.71
-39.693
-39.613
-39.48
-39.302
-39.088
-38.846
-38.583
-38.305
-38.021
-37.734
-37.451
-37.177
-36.916
-36.672
-36.448
-36.247
-36.071
-35.923
-35.804
-35.716
-35.659
-35.635
-35.644
-35.685
-35.76
-35.867
-36.006
-36.176
-36.377
-36.607
-36.866
-37.152
-37.465
-37.803
-38.165
-38.551
-38.959
-39.389
-39.841
-40.314
-40.808
-41.323
-41.859
-42.417
-42.996
-43.598
-44.222
-44.869
-45.54
-46.234
-46.951
-47.692
-48.456
-49.242
-50.05
-50.876
-51.721
-52.582
-53.456
-54.341
-55.234
-56.133
-57.034
-57.933
-58.827
-59.711
-60.581
-61.432
-62.259
-63.057
-63.821
-64.543
-65.22
-65.844
-66.411
-66.913
-67.345
-67.701
-67.975
-68.161
-68.255
-68.251
-68.146
-67.936
-67.62
-67.195
-66.661
-66.02
-65.274
-64.425
-63.477
-62.435
-61.303
-60.088
-58.796
-57.435
-56.012
-54.535
-53.013
-51.459
-49.883
-48.296
-46.711
-45.138
-43.59
-42.08
-40.621
-39.226
-37.902
-36.66
-35.51
-34.464
-33.535
-32.731
-32.055
-31.508
-31.089
-30.795
-30.623
-30.561
-30.589
-30.688
-30.837
-31.02
-31.23
-31.45
-31.664
-31.85
-31.985
-32.053
-32.053
-31.98
-31.83
-31.608
-31.317
-30.985
-30.661
-30.4
-30.258
-30.286
-30.522
-31.005
-31.775
-32.883
-34.387
-36.337
-38.772
-41.718
-45.193
-49.23
-53.896
-59.164
-64.864
-70.723
-76.342
-81.349
-85.483
-88.434
-89.762
-89.173
-86.689
-82.677
-77.917
-73.201
-68.951
-65.564
-63.658
-63.628
-65.311
-67.932
-69.872
-69.249
-64.78
-55.214
-38.841
-14.316
19.023
60.99
109.912
163.327
218.994
273.946
324.022
365.007
392.533
402.667
393.068
361.814
308.275
234.572
143.937
40.555
-73.081
-197.73
-331.292
-467.567
-594.126
-693.091
-753.722
-774.102
-761.409
-730.627
-691.495
-648.487
-602.324
-549.551
-490.563
-428.277
-365.558
-306.879
-254.964
-210.441
-173.959
-145.035
-122.343
-105.362
-93.481
-85.311
-79.644
-75.09
-69.975
-63.677
-56.324
-47.871
-38.544
-28.878
-19.271
-10.486
-3.531
1.268
3.99
4.811
4.195
2.583
0.306
-2.103
-4.044
-5.175
-5.296
-4.359
-2.49
0.224
3.715
7.854
12.512
17.562
22.881
28.381
33.983
39.599
45.146
50.534
55.674
60.494
64.926
68.937
72.529
75.717
78.53
81.007
83.183
85.107
86.838
88.426
89.92
91.363
92.792
94.244
95.764
97.388
99.155
101.087
103.194
105.48
107.947
110.588
113.398
116.363
119.465
122.687
126.016
129.437
132.938
136.504
140.115
143.752
147.395
151.025
154.622
158.167
161.639
165.019
168.288
171.427
174.418
177.244
179.887
182.326
184.544
186.524
188.25
189.707
190.88
191.756
192.326
192.579
192.508
192.109
191.376
190.307
188.901
187.16
185.085
182.68
179.951
176.906
173.552
169.9
165.963
161.753
157.284
152.572
147.634
142.487
137.149
131.64
125.979
120.186
114.282
108.288
102.223
96.11
89.969
83.82
77.684
71.58
65.528
59.545
53.65
47.859
42.188
36.651
31.264
26.039
20.987
16.119
11.446
6.975
2.714
-1.331
-5.156
-8.757
-12.131
-15.278
-18.197
-20.889
-23.356
-25.601
-27.628
-29.442
-31.049
-32.454
-33.665
-34.69
-35.536
-36.213
-36.729
-37.094
-37.318
-37.41
-37.379
-37.236
-36.991
-36.653
-36.231
-35.735
-35.175
-34.558
-33.894
-33.19
-32.454
-31.694
-30.917
-30.128
-29.333
-28.539
-27.75
-26.97
-26.204
-25.457
-24.73
-24.028
-23.353
-22.707
-22.092
-21.51
-20.963
-20.452
-19.977
-19.54
-19.142
-18.783
-18.464
-18.184
-17.945
-17.748
-17.591
-17.475
-17.401
-17.368
-17.376
-17.426
-17.517
-17.649
-17.822
-18.036
-18.29
-18.584
-18.917
-19.287
-19.695
-20.138
-20.614
-21.122
-21.659
-22.223
-22.809
-23.417
-24.041
-24.678
-25.325
-25.978
-26.63
-27.278
-27.917
-28.541
-29.144
-29.722
-30.267
-30.775
-31.24
-31.656
-32.017
-32.318
-32.552
-32.716
-32.804
-32.812
-32.735
-32.57
-32.313
-31.964
-31.521
-30.983
-30.351
-29.627
-28.814
-27.915
-26.936
-25.88
-24.754
-23.564
-22.319
-21.026
-19.693
-18.329
-16.944
-15.549
-14.155
-12.774
-11.416
-10.093
-8.817
-7.599
-6.453
-5.387
-4.41
-3.527
-2.748
-2.08
-1.535
-1.117
-0.825
-0.662
-0.624
-0.709
-0.912
-1.22
-1.61
-2.061
-2.553
-3.072
-3.607
-4.144
-4.666
-5.153
-5.583
-5.941
-6.225
-6.426
-6.536
-6.552
-6.48
-6.345
-6.204
-6.117
-6.132
-6.3
-6.65
-7.211
-8.033
-9.171
-10.682
-12.618
-15.009
-17.876
-21.269
-25.273
-29.891
-35.01
-40.362
-45.552
-50.219
-54.099
-56.916
-58.266
-57.86
-55.705
-52.155
-47.996
-44.047
-40.741
-38.423
-37.671
-38.85
-41.798
-45.767
-49.074
-49.77
-46.678
-38.611
-23.779
-0.733
31.427
72.012
117.957
166.138
214.947
264.672
315.751
365.732
408.178
432.396
428.247
391.135
322.515
231.539
130.027
25.406
-79.253
-186.768
-301.336
-420.147
-534.169
-629.455
-692.686
-719.504
-714.358
-687.563
-649.704
-607.01
-561.047
-510.444
-455.148
-396.959
-338.691
-284.393
-236.65
-196.165
-163.258
-137.189
-116.605
-100.927
-89.479
-80.919
-74.173
-68.096
-61.372
-53.655
-45.187
-36.015
-26.416
-16.908
-7.856
0.106
6.171
10.143
12.177
12.498
11.554
9.769
7.473
5.152
3.348
2.386
2.422
3.484
5.455
8.244
11.789
15.977
20.676
25.759
31.104
36.615
42.217
47.827
53.352
58.694
63.755
68.447
72.72
76.558
79.966
82.967
85.592
87.875
89.864
91.616
93.186
94.624
95.976
97.279
98.575
99.909
101.328
102.877
104.584
106.467
108.533
110.786
113.223
115.841
118.627
121.564
124.636
127.829
131.132
134.532
138.016
141.565
145.16
148.781
152.408
156.024
159.608
163.14
166.6
169.969
173.228
176.359
179.344
182.164
184.797
187.226
189.432
191.396
193.104
194.538
195.684
196.53
197.065
197.281
197.169
196.724
195.941
194.818
193.354
191.549
189.406
186.928
184.12
180.99
177.545
173.797
169.756
165.435
160.849
156.012
150.942
145.655
140.17
134.505
128.68
122.716
116.632
110.45
104.189
97.872
91.518
85.149
78.784
72.444
66.147
59.912
53.755
47.696
41.748
35.928
30.25
24.728
19.373
14.198
9.212
4.426
-0.154
-4.519
-8.665
-12.586
-16.279
-19.742
-22.973
-25.972
-28.739
-31.278
-33.59
-35.679
-37.55
-39.208
-40.66
-41.911
-42.971
-43.845
-44.544
-45.075
-45.448
-45.671
-45.755
-45.708
-45.54
-45.262
-44.882
-44.41
-43.856
-43.23
-42.539
-41.794
-41.003
-40.174
-39.315
-38.434
-37.539
-36.636
-35.732
-34.833
-33.944
-33.073
-32.222
-31.397
-30.602
-29.841
-29.117
-28.433
-27.792
-27.196
-26.647
-26.147
-25.697
-25.299
-24.955
-24.664
-24.428
-24.246
-24.121
-24.05
-24.035
-24.075
-24.17
-24.32
-24.522
-24.778
-25.084
-25.441
-25.846
-26.297
-26.794
-27.332
-27.91
-28.525
-29.172
-29.85
-30.554
-31.279
-32.023
-32.781
-33.548
-34.32
-35.091
-35.858
-36.615
-37.356
-38.076
-38.769
-39.43
-40.052
-40.629
-41.156
-41.628
-42.038
-42.382
-42.652
-42.846
-42.957
-42.981
-42.915
-42.754
-42.496
-42.139
-41.683
-41.126
-40.471
-39.718
-38.872
-37.936
-36.914
-35.811
-34.633
-33.388
-32.082
-30.723
-29.317
-27.875
-26.405
-24.917
-23.424
-21.935
-20.461
-19.014
-17.605
-16.246
-14.949
-13.724
-12.579
-11.52
-10.555
-9.695
-8.948
-8.323
-7.818
-7.434
-7.171
-7.025
-6.991
-7.056
-7.198
-7.394
-7.626
-7.878
-8.143
-8.407
-8.655
-8.869
-9.028
-9.121
-9.146
-9.099
-8.973
-8.768
-8.493
-8.177
-7.882
-7.67
-7.594
-7.706
-8.035
-8.609
-9.474
-10.681
-12.285
-14.336
-16.861
-19.876
-23.436
-27.622
-32.437
-37.759
-43.303
-48.657
-53.445
-57.385
-60.172
-61.386
-60.739
-58.275
-54.413
-50.001
-45.89
-42.576
-40.493
-40.28
-42.308
-46.336
-51.434
-55.772
-57.358
-54.842
-46.714
-31.098
-6.643
27.454
70.045
118.432
170.837
225.056
279.856
333.123
377.983
408.718
419.29
404.325
365.848
305.547
226.653
136.4
37.252
-68.497
-179.322
-296.864
-417.43
-532.171
-629.012
-695.596
-726.258
-724.31
-699.895
-663.313
-621.176
-575.483
-524.144
-466.672
-405.215
-342.886
-284.208
-232.345
-188.325
-152.681
-125.033
-104.267
-89.461
-79.59
-73.053
-68.401
-64.304
-59.358
-52.985
-45.287
-36.449
-26.88
-17.229
-8.051
-0.029
6.021
9.843
11.578
11.485
10.048
7.743
4.964
2.215
0.043
-1.228
-1.448
-0.59
1.23
3.918
7.406
11.577
16.298
21.441
26.885
32.533
38.303
44.106
49.84
55.403
60.693
65.623
70.143
74.231
77.892
81.147
84.024
86.558
88.795
90.789
92.596
94.264
95.838
97.358
98.867
100.41
102.032
103.777
105.672
107.732
109.963
112.367
114.94
117.677
120.563
123.581
126.714
129.949
133.273
136.673
140.136
143.643
147.176
150.715
154.241
157.737
161.184
164.564
167.858
171.047
174.115
177.046
179.821
182.423
184.833
187.033
189.007
190.738
192.211
193.412
194.329
194.949
195.265
195.269
194.955
194.317
193.355
192.065
190.448
188.507
186.243
183.662
180.77
177.574
174.084
170.309
166.262
161.956
157.404
152.622
147.626
142.433
137.062
131.53
125.858
120.064
114.168
108.191
102.153
96.074
89.975
83.874
77.791
71.745
65.753
59.834
54.004
48.279
42.673
37.201
31.875
26.709
21.714
16.899
12.274
7.847
3.626
-0.385
-4.179
-7.754
-11.106
-14.234
-17.138
-19.819
-22.278
-24.518
-26.542
-28.356
-29.964
-31.372
-32.587
-33.618
-34.471
-35.154
-35.678
-36.051
-36.282
-36.381
-36.358
-36.222
-35.983
-35.652
-35.237
-34.747
-34.193
-33.584
-32.928
-32.233
-31.508
-30.761
-29.999
-29.23
-28.459
-27.693
-26.937
-26.197
-25.477
-24.782
-24.115
-23.479
-22.878
-22.315
-21.791
-21.308
-20.868
-20.471
-20.119
-19.812
-19.551
-19.335
-19.163
-19.037
-18.955
-18.917
-18.921
-18.969
-19.057
-19.187
-19.356
-19.565
-19.81
-20.093
-20.412
-20.765
-21.151
-21.571
-22.022
-22.503
-23.013
-23.551
-24.114
-24.702
-25.312
-25.941
-26.587
-27.248
-27.92
-28.601
-29.288
-29.978
-30.667
-31.353
-32.031
-32.699
-33.351
-33.985
-34.595
-35.178
-35.729
-36.242
-36.715
-37.143
-37.52
-37.843
-38.106
-38.305
-38.436
-38.494
-38.474
-38.374
-38.191
-37.922
-37.565
-37.119
-36.585
-35.965
-35.26
-34.473
-33.608
-32.669
-31.659
-30.584
-29.451
-28.265
-27.033
-25.76
-24.456
-23.131
-21.795
-20.458
-19.13
-17.822
-16.543
-15.306
-14.121
-12.999
-11.947
-10.974
-10.088
-9.3
-8.623
-8.064
-7.624
-7.303
-7.099
-7.006
-7.02
-7.127
-7.307
-7.541
-7.809
-8.097
-8.399
-8.702
-8.993
-9.256
-9.467
-9.615
-9.699
-9.717
-9.668
-9.562
-9.409
-9.236
-9.097
-9.04
-9.122
-9.391
-9.883
-10.632
-11.667
-13.022
-14.747
-16.885
-19.472
-22.541
-26.102
-30.18
-34.834
-40.039
-45.662
-51.458
-57.032
-61.988
-66.02
-68.77
-69.831
-68.94
-66.043
-61.487
-56.061
-50.617
-45.884
-42.557
-41.32
-42.622
-46.472
-52.086
-57.874
-61.87
-62.097
-56.652
-43.518
-20.999
11.89
55.044
106.988
165.243
226.757
287.85
343.932
390.271
422.189
435.562
427.729
396.813
342.66
267.607
175.06
69.321
-46.803
-173.125
-306.974
-442.425
-568.227
-668.433
-733.411
-760.821
-756.33
-732.955
-699.136
-658.787
-612.915
-558.723
-496.921
-431.149
-364.885
-302.735
-247.847
-201.271
-163.762
-135.138
-114.232
-99.931
-91.061
-85.862
-82.661
-79.906
-75.972
-70.123
-62.454
-53.211
-42.873
-32.195
-21.839
-12.609
-5.444
-0.676
1.808
2.257
1.174
-0.935
-3.662
-6.468
-8.782
-10.278
-10.775
-10.225
-8.738
-6.392
-3.255
0.549
4.896
9.665
14.739
20.029
25.457
30.93
36.363
41.662
46.738
51.516
55.928
59.932
63.526
66.717
69.531
72.005
74.173
76.083
77.793
79.355
80.818
82.226
83.616
85.029
86.506
88.087
89.809
91.695
93.758
96.001
98.426
101.028
103.801
106.732
109.801
112.993
116.293
119.688
123.165
126.709
130.302
133.924
137.557
141.181
144.779
148.332
151.819
155.223
158.524
161.706
164.752
167.643
170.363
172.892
175.213
177.309
179.165
180.764
182.092
183.138
183.889
184.337
184.474
184.294
183.791
182.964
181.809
180.328
178.521
176.392
173.944
171.184
168.118
164.755
161.105
157.179
152.99
148.551
143.876
138.981
133.882
128.596
123.141
117.534
111.794
105.942
99.995
93.973
87.897
81.785
75.658
69.535
63.434
57.374
51.373
45.447
39.614
33.889
28.288
22.823
17.509
12.358
7.381
2.589
-2.009
-6.405
-10.591
-14.562
-18.311
-21.837
-25.134
-28.202
-31.039
-33.646
-36.024
-38.174
-40.101
-41.808
-43.3
-44.583
-45.664
-46.55
-47.248
-47.768
-48.119
-48.309
-48.35
-48.252
-48.024
-47.678
-47.224
-46.672
-46.035
-45.321
-44.541
-43.706
-42.824
-41.906
-40.96
-39.996
-39.021
-38.043
-37.07
-36.11
-35.167
-34.249
-33.361
-32.508
-31.695
-30.924
-30.2
-29.526
-28.904
-28.334
-27.82
-27.361
-26.959
-26.612
-26.32
-26.084
-25.901
-25.77
-25.69
-25.659
-25.676
-25.738
-25.843
-25.991
-26.179
-26.404
-26.667
-26.963
-27.293
-27.654
-28.044
-28.463
-28.907
-29.377
-29.87
-30.384
-30.92
-31.474
-32.047
-32.636
-33.24
-33.859
-34.49
-35.132
-35.784
-36.444
-37.109
-37.779
-38.451
-39.123
-39.793
-40.458
-41.116
-41.763
-42.397
-43.014
-43.611
-44.183
-44.727
-45.238
-45.711
-46.143
-46.529
-46.864
-47.144
-47.365
-47.522
-47.61
-47.626
-47.566
-47.426
-47.203
-46.895
-46.5
-46.016
-45.443
-44.782
-44.034
-43.201
-42.287
-41.295
-40.229
-39.095
-37.899
-36.647
-35.346
-34.003
-32.626
-31.224
-29.806
-28.383
-26.964
-25.558
-24.178
-22.835
-21.538
-20.3
-19.129
-18.03
-17.011
-16.079
-15.242
-14.51
-13.888
-13.38
-12.987
-12.709
-12.543
-12.485
-12.521
-12.627
-12.781
-12.965
-13.164
-13.37
-13.574
-13.758
-13.907
-13.999
-14.017
-13.956
-13.811
-13.572
-13.242
-12.832
-12.379
-11.961
-11.645
-11.494
-11.554
-11.844
-12.404
-13.293
-14.571
-16.309
-18.563
-21.35
-24.724
-28.786
-33.555
-38.959
-44.771
-50.556
-55.903
-60.496
-63.981
-65.971
-66.214
-64.627
-61.539
-57.739
-54.03
-51.074
-49.465
-49.729
-52.191
-56.795
-62.726
-68.42
-72.016
-71.638
-65.548
-52.008
-29.472
2.962
45.162
95.882
152.918
213.426
274.121
330.854
379.063
414.447
433.057
431.673
408.091
360.995
291.382
203.161
100.799
-11.686
-132.975
-263.493
-399.607
-531.988
-645.505
-724.814
-762.862
-763.002
-737.354
-698.897
-655.305
-608.41
-555.493
-495.51
-430.775
-365.06
-303.456
-249.226
-203.393
-166.451
-137.885
-116.556
-101.465
-91.489
-85.008
-80.562
-76.742
-72.009
-65.678
-57.805
-48.579
-38.413
-27.96
-17.787
-8.63
-1.421
3.497
6.226
6.994
6.273
4.539
2.162
-0.339
-2.38
-3.615
-3.861
-3.061
-1.325
1.263
4.646
8.699
13.285
18.277
23.549
29.007
34.578
40.172
45.703
51.082
56.219
61.042
65.487
69.515
73.123
76.321
79.135
81.602
83.762
85.663
87.364
88.918
90.375
91.778
93.164
94.572
96.046
97.621
99.337
101.216
103.269
105.504
107.92
110.514
113.28
116.206
119.272
122.464
125.767
129.168
132.654
136.21
139.818
143.459
147.113
150.761
154.385
157.964
161.48
164.911
168.24
171.447
174.516
177.429
180.167
182.712
185.045
187.15
189.012
190.614
191.944
192.988
193.737
194.181
194.314
194.129
193.623
192.792
191.635
190.153
188.347
186.222
183.781
181.031
177.98
174.636
171.011
167.116
162.964
158.57
153.948
149.114
144.086
138.881
133.518
128.014
122.388
116.661
110.851
104.977
99.059
93.116
87.166
81.227
75.318
69.456
63.656
57.935
52.308
46.789
41.391
36.128
31.012
26.052
21.261
16.645
12.215
7.976
3.935
0.097
-3.535
-6.958
-10.169
-13.167
-15.954
-18.53
-20.897
-23.057
-25.015
-26.775
-28.341
-29.72
-30.918
-31.942
-32.799
-33.496
-34.041
-34.443
-34.71
-34.849
-34.871
-34.784
-34.596
-34.317
-33.955
-33.519
-33.017
-32.458
-31.849
-31.198
-30.513
-29.801
-29.068
-28.321
-27.566
-26.808
-26.053
-25.304
-24.567
-23.845
-23.141
-22.459
-21.801
-21.169
-20.566
-19.992
-19.449
-18.939
-18.461
-18.017
-17.607
-17.231
-16.888
-16.579
-16.303
-16.06
-15.848
-15.667
-15.516
-15.395
-15.303
-15.239
-15.202
-15.192
-15.208
-15.249
-15.315
-15.405
-15.52
-15.658
-15.82
-16.007
-16.217
-16.451
-16.71
-16.993
-17.3
-17.633
-17.99
-18.373
-18.781
-19.215
-19.674
-20.159
-20.67
-21.205
-21.766
-22.352
-22.962
-23.595
-24.25
-24.926
-25.621
-26.334
-27.062
-27.803
-28.554
-29.313
-30.076
-30.838
-31.597
-32.347
-33.084
-33.802
-34.497
-35.161
-35.79
-36.377
-36.916
-37.401
-37.824
-38.181
-38.463
-38.664
-38.778
-38.798
-38.718
-38.531
-38.23
-37.811
-37.268
-36.595
-35.788
-34.842
-33.754
-32.52
-31.137
-29.604
-27.919
-26.082
-24.091
-21.949
-19.657
-17.218
-14.635
-11.912
-9.054
-6.067
-2.958
0.268
3.601
7.033
10.557
14.162
17.838
21.576
25.364
29.191
33.046
36.918
40.794
44.664
48.514
52.334
56.113
59.838
63.498
67.083
70.582
