-41.628
-43.449
-45.172
-46.802
-48.355
-49.841
-51.267
-52.636
-53.938
-55.183
-56.398
-57.607
-58.846
-60.118
-61.395
-62.66
-63.899
-65.102
-66.273
-67.404
-68.479
-69.491
-70.447
-71.35
-72.21
-73.025
-73.781
-74.465
-75.063
-75.573
-76.005
-76.366
-76.658
-76.881
-77.036
-77.125
-77.156
-77.128
-77.034
-76.867
-76.621
-76.293
-75.886
-75.401
-74.838
-74.197
-73.475
-72.672
-71.789
-70.826
-69.784
-68.663
-67.463
-66.188
-64.843
-63.434
-61.968
-60.452
-58.892
-57.297
-55.676
-54.039
-52.396
-50.757
-49.133
-47.535
-45.977
-44.472
-43.031
-41.667
-40.393
-39.223
-38.167
-37.237
-36.446
-35.803
-35.319
-35.004
-34.867
-34.916
-35.158
-35.602
-36.252
-37.114
-38.191
-39.487
-41.003
-42.74
-44.696
-46.87
-49.257
-51.854
-54.653
-57.648
-60.829
-64.187
-67.709
-71.384
-75.198
-79.136
-83.184
-87.325
-91.543
-95.822
-100.144
-104.491
-108.848
-113.195
-117.517
-121.795
-126.012
-130.151
-134.196
-138.131
-141.939
-145.606
-149.117
-152.459
-155.62
-158.586
-161.349
-163.898
-166.225
-168.323
-170.187
-171.813
-173.197
-174.339
-175.238
-175.896
-176.315
-176.499
-176.453
-176.183
-175.695
-174.997
-174.097
-173.004
-171.728
-170.279
-168.667
-166.903
-165.0
-162.97
-160.823
-158.574
-156.235
-153.818
-151.336
-148.803
-146.231
-143.632
-141.018
-138.401
-135.791
-133.199
-130.635
-128.107
-125.625
-123.195
-120.824
-118.518
-116.282
-114.121
-112.038
-110.037
-108.12
-106.289
-104.545
-102.89
-101.323
-99.845
-98.456
-97.154
-95.938
-94.805
-93.754
-92.781
-91.883
-91.057
-90.296
-89.598
-88.957
-88.367
-87.824
-87.322
-86.856
-86.421
-86.011
-85.621
-85.246
-84.881
-84.521
-84.162
-83.799
-83.427
-83.044
-82.645
-82.226
-81.784
-81.316
-80.818
-80.288
-79.723
-79.121
-78.479
-77.796
-77.071
-76.304
-75.495
-74.644
-73.752
-72.823
-71.858
-70.863
-69.84
-68.795
-67.731
-66.655
-65.572
-64.488
-63.405
-62.328
-61.262
-60.212
-59.182
-58.178
-57.204
-56.266
-55.369
-54.518
-53.717
-52.968
-52.268
-51.616
-51.013
-50.459
-49.958
-49.513
-49.123
-48.79
-48.515
-48.294
-48.121
-47.981
-47.85
-47.71
-47.546
-47.348
-47.113
-46.833
-46.502
-46.116
-45.667
-45.149
-44.561
-43.893
-43.144
-42.326
-41.469
-40.633
-39.891
-39.31
-38.947
-38.845
-39.045
-39.608
-40.593
-42.051
-44.038
-46.578
-49.728
-53.61
-58.222
-63.444
-69.046
-74.595
-79.691
-84.109
-87.508
-89.462
-89.917
-89.032
-87.301
-85.8
-85.31
-86.196
-89.049
-94.353
-101.941
-111.334
-121.263
-129.476
-134.374
-134.68
-128.596
-114.716
-92.102
-61.021
-24.013
15.807
55.931
95.956
137.304
178.643
215.85
240.222
239.224
205.863
139.398
46.648
-58.738
-167.01
-274.833
-384.458
-499.463
-617.393
-727.851
-815.676
-870.523
-890.001
-879.888
-851.82
-813.339
-768.237
-717.694
-659.944
-596.298
-529.837
-463.728
-402.5
-349.324
-305.447
-271.307
-246.036
-228.1
-216.565
-210.18
-207.015
-205.085
-202.343
-197.492
-190.366
-181.272
-170.52
-158.639
-146.378
-134.654
-124.646
-117.002
-111.703
-108.535
-107.083
-106.89
-107.569
-108.6
-109.333
-109.383
-108.596
-106.905
-104.423
-101.254
-97.448
-93.164
-88.595
-83.89
-79.192
-74.596
-70.142
-65.904
-61.959
-58.351
-55.131
-52.307
-49.852
-47.765
-46.027
-44.583
-43.378
-42.311
-41.251
-40.091
-38.732
-37.085
-35.099
-32.724
-29.911
-26.653
-22.951
-18.834
-14.364
-9.574
-4.489
0.851
6.407
12.117
17.894
23.67
29.398
35.027
40.531
45.882
51.049
56.029
60.839
65.502
70.065
74.551
78.962
83.307
87.588
91.811
95.994
100.139
104.233
108.267
112.229
116.106
119.893
123.569
127.102
130.459
133.601
136.501
139.141
141.508
143.587
145.372
146.853
148.032
148.915
149.509
149.817
149.845
149.595
149.077
148.301
147.282
146.033
144.568
142.898
141.037
139.0
136.799
134.448
131.958
129.34
126.607
123.772
120.85
117.855
114.803
111.705
108.578
105.434
102.288
99.15
96.032
92.944
89.894
86.892
83.945
81.059
78.242
75.499
72.835
70.255
67.764
65.365
63.062
60.858
58.755
56.755
54.86
53.072
51.391
49.819
48.355
47.001
45.755
44.616
43.584
42.656
41.831
41.108
40.482
39.953
39.518
39.174
38.92
38.753
38.673
38.677
38.763
38.929
39.175
39.498
39.896
40.368
40.911
41.524
42.204
42.948
43.755
44.622
45.545
46.522
47.549
48.624
49.743
50.902
52.098
53.327
54.586
55.872
57.18
58.508
59.85
61.203
62.563
63.926
65.286
66.641
67.984
69.313
70.623
71.909
73.168
74.397
75.591
76.747
77.863
78.935
79.96
80.937
81.863
82.737
83.559
84.327
85.041
85.702
86.31
86.866
87.371
87.826
88.233
88.594
88.912
89.188
89.426
89.63
89.804
89.95
90.074
90.178
90.266
90.342
90.409
90.469
90.524
90.575
90.623
90.669
90.714
90.758
90.803
90.846
90.888
90.928
90.966
90.997
91.019
91.026
91.015
90.98
90.918
90.823
90.691
90.516
90.296
90.026
89.703
89.32
88.872
88.35
87.75
87.073
86.323
85.504
84.628
83.705
82.749
81.782
80.819
79.873
78.959
78.084
77.258
76.496
75.811
75.22
74.738
74.366
74.103
73.947
73.874
73.861
73.878
73.878
73.817
73.662
73.369
72.895
72.205
71.257
70.012
68.451
66.534
64.226
61.494
58.303
54.65
50.571
46.08
41.159
35.885
30.413
25.013
20.12
16.102
13.197
11.7
11.969
14.142
18.116
23.444
29.168
34.41
38.635
41.268
41.776
40.021
36.283
31.526
27.624
26.377
29.262
37.97
53.94
78.349
111.351
150.999
194.399
238.694
282.387
326.329
370.543
411.839
443.255
453.228
430.924
372.351
281.015
168.259
47.907
-72.078
-190.507
-310.085
-432.426
-551.778
-655.001
-728.551
-764.691
-764.43
-737.368
-695.231
-645.752
-592.634
-535.594
-473.187
-406.868
-339.519
-274.973
-217.48
-169.183
-130.872
-102.511
-82.795
-70.396
-64.16
-62.267
-62.894
-64.346
-64.85
-63.534
-60.375
-55.52
-49.382
-42.678
-36.052
-30.309
-26.39
-24.61
-24.848
-26.83
-30.043
-33.974
-38.197
-42.166
-45.293
-47.282
-48.022
-47.534
-45.986
-43.503
-40.185
-36.186
-31.681
-26.821
-21.741
-16.541
-11.297
-6.105
-1.069
3.709
8.134
12.152
15.746
18.915
21.684
24.083
26.15
27.937
29.502
30.903
32.193
33.421
34.627
35.857
37.156
38.567
40.134
41.883
43.828
45.974
48.319
50.856
53.576
56.463
59.497
62.659
65.931
69.298
72.745
76.254
79.804
83.376
86.948
90.499
94.01
97.461
100.833
104.107
107.263
110.285
113.156
115.859
118.376
120.689
122.782
124.639
126.244
127.584
128.647
129.421
129.898
130.071
129.934
129.482
128.715
127.63
126.229
124.515
122.49
120.16
117.533
114.616
111.419
107.953
104.229
100.261
96.063
91.65
87.036
82.24
77.277
72.164
66.92
61.561
56.107
50.574
44.981
39.346
33.685
28.017
22.358
16.724
11.131
5.594
0.126
-5.259
-10.548
-15.73
-20.794
-25.73
-30.529
-35.183
-39.683
-44.025
-48.201
-52.208
-56.041
-59.697
-63.174
-66.47
-69.583
-72.514
-75.262
-77.828
-80.212
-82.416
-84.443
-86.294
-87.972
-89.48
-90.821
-91.999
-93.018
-93.883
-94.596
-95.163
-95.589
-95.877
-96.032
-96.058
-95.96
-95.741
-95.405
-94.957
-94.399
-93.734
-92.967
-92.099
-91.133
-90.071
-88.917
-87.672
-86.338
-84.917
-83.412
-81.825
-80.158
-78.413
-76.593
-74.7
-72.738
-70.709
-68.616
-66.461
-64.247
-61.977
-59.654
-57.278
-54.854
-52.384
-49.87
-47.316
-44.725
-42.1
-39.446
-36.766
-34.064
-31.346
-28.615
-25.877
-23.137
-20.399
-17.669
-14.952
-12.254
-9.581
-6.936
-4.326
-1.753
0.777
3.262
5.699
8.086
10.421
12.704
14.933
17.105
19.22
21.276
23.271
25.2
27.062
28.854
30.577
32.23
33.817
35.339
36.8
38.205
39.559
40.866
42.13
43.352
44.534
45.679
46.79
47.873
48.937
49.986
51.023
52.05
53.063
54.056
55.018
55.928
56.766
57.518
58.177
58.74
59.217
59.615
59.943
60.216
60.434
60.604
60.734
60.828
60.894
60.955
61.037
61.182
61.443
61.847
62.416
63.16
64.061
65.105
66.264
67.496
68.781
70.1
71.431
72.767
74.096
75.384
76.602
77.698
78.608
79.293
79.724
79.876
79.763
79.389
78.773
77.964
76.975
75.805
74.463
72.925
71.164
69.182
66.973
64.54
61.923
59.124
56.134
52.951
49.537
45.876
41.974
37.776
33.236
28.407
23.415
18.519
14.109
10.487
7.878
6.564
6.839
8.874
12.574
17.5
22.897
28.04
32.49
35.854
37.665
37.717
36.167
33.766
32.005
32.319
36.249
45.393
60.541
82.597
110.933
143.173
178.357
215.166
253.342
295.073
339.611
383.482
421.118
441.985
435.195
395.756
324.118
227.807
119.581
6.564
-110.667
-233.876
-364.686
-496.216
-612.37
-697.178
-741.508
-745.951
-721.051
-679.767
-629.689
-574.165
-512.743
-443.879
-369.777
-294.396
-222.317
-158.276
-104.833
-62.732
-31.708
-10.295
3.256
10.413
13.153
13.526
13.4
14.607
18.017
23.569
30.93
39.572
48.715
57.611
65.387
71.026
74.141
74.87
73.528
70.661
66.806
62.411
58.035
54.296
51.561
49.975
49.548
50.133
51.608
53.893
56.857
60.345
64.221
68.353
72.637
76.997
81.348
85.591
89.627
93.359
96.702
99.614
102.085
104.122
105.754
107.014
107.94
108.584
109.006
109.263
109.41
109.493
109.552
109.63
109.772
110.024
110.426
111.001
111.761
112.71
113.843
115.156
116.638
118.272
120.037
121.913
123.882
125.929
128.04
130.196
132.379
134.567
136.74
138.878
140.964
142.979
144.905
146.723
148.417
149.972
151.372
152.602
153.647
154.491
155.119
155.517
155.674
155.577
155.215
154.582
153.671
152.476
150.996
149.23
147.179
144.844
142.231
139.344
136.19
132.778
129.118
125.219
121.094
116.757
112.22
107.5
102.612
97.571
92.397
87.105
81.715
76.243
70.709
65.13
59.525
53.913
48.312
42.74
37.213
31.749
26.364
21.073
15.892
10.832
5.907
1.127
-3.497
-7.956
-12.243
-16.35
-20.271
-24.002
-27.539
-30.878
-34.019
-36.959
-39.7
-42.243
-44.588
-46.74
-48.7
-50.474
-52.066
-53.482
-54.727
-55.81
-56.736
-57.514
-58.152
-58.659
-59.044
-59.315
-59.482
-59.554
-59.539
-59.447
-59.287
-59.066
-58.792
-58.473
-58.117
-57.729
-57.317
-56.886
-56.442
-55.99
-55.533
-55.076
-54.623
-54.176
-53.737
-53.309
-52.893
-52.49
-52.101
-51.725
-51.364
-51.015
-50.677
-50.35
-50.03
-49.716
-49.406
-49.096
-48.784
-48.467
-48.143
-47.808
-47.461
-47.1
-46.721
-46.323
-45.905
-45.464
-45.0
-44.512
-44.001
-43.464
-42.904
-42.32
-41.714
-41.088
-40.442
-39.778
-39.099
-38.407
-37.706
-36.997
-36.284
-35.572
-34.863
-34.163
-33.474
-32.801
-32.149
-31.521
-30.922
-30.354
-29.822
-29.328
-28.875
-28.465
-28.101
-27.784
-27.515
-27.295
-27.125
-27.004
-26.93
-26.904
-26.923
-26.984
-27.085
-27.222
-27.393
-27.594
-27.82
-28.067
-28.331
-28.606
-28.887
-29.168
-29.445
-29.711
-29.96
-30.189
-30.391
-30.562
-30.699
-30.798
-30.857
-30.873
-30.847
-30.777
-30.662
-30.505
-30.305
-30.065
-29.786
-29.472
-29.124
-28.746
-28.342
-27.919
-27.481
-27.033
-26.582
-26.133
-25.693
-25.27
-24.868
-24.491
-24.141
-23.824
-23.545
-23.313
-23.133
-23.005
-22.929
-22.904
-22.927
-22.993
-23.089
-23.194
-23.284
-23.34
-23.349
-23.307
-23.203
-23.025
-22.759
-22.384
-21.894
-21.294
-20.584
-19.765
-18.847
-17.852
-16.825
-15.848
-15.002
-14.354
-13.969
-13.889
-14.156
-14.827
-15.963
-17.62
-19.843
-22.666
-26.094
-30.153
-34.895
-40.241
-46.005
-51.887
-57.45
-62.313
-66.249
-68.967
-70.104
-69.593
-67.539
-64.287
-60.677
-57.323
-54.422
-52.307
-51.346
-51.512
-52.629
-54.021
-53.545
-49.027
-39.265
-23.372
-2.729
19.865
43.195
66.998
93.932
128.339
172.163
224.808
280.378
329.405
361.895
366.958
338.007
274.853
182.994
74.035
-40.199
-154.498
-269.712
-388.195
-509.949
-625.887
-719.986
-780.969
-803.946
-793.556
-762.766
-720.316
-670.844
-615.828
-552.616
-481.929
-407.493
-333.343
-264.831
-205.787
-157.667
-120.872
-94.659
-77.57
-68.149
-64.593
-64.527
-65.521
-65.406
-62.901
-57.7
-50.019
-40.345
-29.39
-18.109
-7.641
0.827
6.697
9.997
11.007
10.237
8.219
5.448
2.549
0.198
-1.19
-1.457
-0.591
1.266
3.99
7.509
11.688
16.367
21.408
26.681
32.088
37.556
42.997
48.302
53.371
58.102
62.408
66.248
69.605
72.486
74.916
76.929
78.563
79.87
80.91
81.742
82.422
83.0
83.522
84.037
84.595
85.247
86.038
86.999
88.145
89.487
91.027
92.763
94.692
96.801
99.074
101.497
104.057
106.741
109.54
112.438
115.42
118.468
121.564
124.69
127.831
130.97
134.089
137.171
140.2
143.161
146.037
148.814
151.474
154.0
156.375
158.584
160.611
162.443
164.066
165.469
166.64
167.572
168.259
168.694
168.875
168.798
168.464
167.872
167.025
165.927
164.581
162.994
161.174
159.127
156.864
154.395
151.731
148.885
145.869
142.697
139.384
135.943
132.391
128.741
125.011
121.215
117.37
113.491
109.593
105.693
101.805
97.943
94.122
90.353
86.65
83.023
79.483
76.041
72.704
69.482
66.381
63.408
60.569
57.869
55.312
52.901
50.639
48.529
46.57
44.764
43.111
41.609
40.258
39.054
37.996
37.08
36.302
35.659
35.144
34.754
34.482
34.324
34.273
34.323
34.468
34.702
35.019
35.414
35.88
36.412
37.004
37.651
38.347
39.087
39.867
40.682
41.526
42.396
43.287
44.194
45.115
46.044
46.978
47.915
48.849
49.778
50.699
51.608
52.504
53.383
54.243
55.08
55.894
56.681
57.44
58.167
58.86
59.516
60.134
60.71
61.242
61.727
62.162
62.544
62.871
63.139
63.346
63.489
63.566
63.574
63.51
63.374
63.163
62.875
62.509
62.064
61.54
60.935
60.25
59.486
58.642
57.72
56.722
55.649
54.504
53.29
52.011
50.67
49.273
47.823
46.326
44.788
43.215
41.613
39.989
38.35
36.703
35.056
33.416
31.792
30.19
28.617
27.082
25.591
24.151
22.768
21.448
20.196
19.018
17.918
16.9
15.965
15.117
14.355
13.681
13.092
12.586
12.16
11.809
11.528
11.311
11.153
11.045
10.98
10.95
10.948
10.965
10.992
11.019
11.035
11.033
11.0
10.927
10.804
10.619
10.365
10.038
9.632
9.144
8.567
7.891
7.112
6.229
5.243
4.152
2.96
1.673
0.305
-1.118
-2.57
-4.033
-5.49
-6.935
-8.355
-9.732
-11.052
-12.294
-13.45
-14.521
-15.499
-16.376
-17.159
-17.863
-18.536
-19.261
-20.106
-21.128
-22.376
-23.873
-25.663
-27.811
-30.369
-33.387
-36.909
-40.931
-45.498
-50.713
-56.542
-62.847
-69.367
-75.64
-81.282
-86.076
-89.681
-91.689
-92.004
-90.714
-88.246
-85.551
-83.297
-81.792
-81.568
-83.097
-86.327
-90.924
-95.811
-99.023
-99.188
-95.264
-85.676
-69.118
-44.625
-12.073
26.414
67.743
109.619
151.11
193.164
235.972
276.472
307.776
319.103
300.643
248.641
166.567
65.062
-43.433
-151.993
-259.978
-369.907
-482.73
-592.208
-685.525
-750.564
-780.992
-778.419
-751.94
-711.591
-663.597
-611.078
-553.953
-491.525
-425.823
-360.078
-298.14
-244.057
-199.854
-165.791
-141.311
-124.965
-115.183
-110.441
-108.759
-108.04
-106.46
-102.941
-97.247
-89.632
-80.603
-70.823
-61.112
-52.44
-45.804
-41.669
-39.953
-40.362
-42.396
-45.524
-49.274
-53.047
-56.203
-58.374
-59.423
-59.333
-58.233
-56.227
-53.372
-49.806
-45.689
-41.161
-36.364
-31.399
-26.34
-21.299
-16.395
-11.748
-7.482
-3.665
-0.325
2.521
4.884
6.788
8.257
9.339
10.094
10.577
10.846
10.953
10.942
10.867
10.786
10.752
10.822
11.035
11.412
11.97
12.716
13.654
14.782
16.092
17.57
19.205
20.987
22.906
24.956
27.124
29.396
31.756
34.187
36.675
39.203
41.757
44.319
46.875
49.408
51.902
54.344
56.718
59.005
61.189
63.252
65.177
66.947
68.546
69.96
71.175
72.178
72.957
73.505
73.813
73.874
73.683
73.236
72.531
71.566
70.342
68.862
67.129
65.148
62.924
60.467
57.785
54.888
51.789
48.5
45.035
41.408
37.635
33.733
29.717
25.605
21.415
17.164
12.869
8.549
4.222
-0.096
-4.387
-8.634
-12.821
-16.933
-20.955
-24.873
-28.673
-32.344
-35.872
-39.247
-42.459
-45.499
-48.358
-51.028
-53.504
-55.779
-57.848
-59.71
-61.359
-62.796
-64.018
-65.026
-65.821
-66.404
-66.777
-66.944
-66.907
-66.671
-66.24
-65.619
-64.815
-63.831
-62.676
-61.355
-59.874
-58.241
-56.462
-54.546
-52.498
-50.326
-48.038
-45.641
-43.143
-40.551
-37.872
-35.115
-32.287
-29.395
-26.447
-23.45
-20.411
-17.339
-14.239
-11.119
-7.986
-4.848
-1.71
1.42
4.536
7.63
10.696
13.727
16.717
19.658
22.544
25.369
28.126
30.809
33.412
35.928
38.351
40.675
42.896
45.006
47.002
48.878
50.63
52.253
53.745
55.102
56.32
57.398
58.335
59.128
59.777
60.282
60.643
60.862
60.94
60.881
60.686
60.36
59.907
59.333
58.643
57.844
56.941
55.944
54.858
53.693
52.458
51.161
49.812
48.421
46.999
45.555
44.1
42.644
41.199
39.774
38.38
37.025
35.721
34.477
33.3
32.198
31.181
30.254
29.423
28.694
28.069
27.553
27.146
26.849
26.662
26.582
26.607
26.736
26.963
27.284
27.693
28.185
28.753
29.39
30.088
30.837
31.627
32.449
33.292
34.146
35.002
35.849
36.676
37.473
38.234
38.952
39.621
40.232
40.777
41.249
41.651
41.985
42.257
42.47
42.631
42.749
42.844
42.935
43.037
43.165
43.323
43.518
43.764
44.076
44.474
44.968
45.553
46.224
46.98
47.816
48.727
49.686
50.644
51.552
52.357
53.023
53.525
53.831
53.915
53.739
53.248
52.403
51.175
49.531
47.466
44.94
41.863
38.296
34.423
30.508
26.99
24.223
22.388
21.814
22.914
25.737
30.122
35.553
40.947
45.546
48.988
50.65
50.0
47.115
42.387
37.053
33.347
32.856
36.841
47.108
65.053
91.606
126.731
168.075
212.418
257.289
301.474
345.36
388.226
426.468
453.235
458.472
433.86
376.733
290.894
186.633
75.343
-36.621
-148.374
-261.821
-377.124
-487.883
-581.933
-647.83
-679.614
-678.869
-654.089
-614.754
-566.952
-513.758
-455.264
-391.135
-323.526
-255.508
-190.883
-133.633
-85.803
-48.262
-20.985
-2.655
8.113
12.604
12.761
10.507
7.622
5.927
6.307
8.779
13.177
19.047
25.632
32.253
38.067
42.131
44.131
44.178
42.542
39.738
36.265
32.546
29.12
26.514
24.983
24.605
25.323
26.962
29.393
32.505
36.14
40.134
44.338
48.634
52.932
57.153
61.205
64.985
68.392
71.359
73.86
75.89
77.469
78.631
79.41
79.86
80.041
80.013
79.833
79.557
79.229
78.903
78.631
78.466
78.461
78.655
79.072
79.729
80.633
81.786
83.185
84.825
86.69
88.769
91.052
93.527
96.188
99.021
102.011
105.142
108.395
111.754
115.2
118.716
122.283
125.881
129.492
133.096
136.674
140.207
143.673
147.049
150.312
153.441
156.413
159.208
161.804
164.184
166.328
168.221
169.848
171.196
172.253
173.009
173.454
173.583
173.389
172.868
172.019
170.84
169.334
167.502
165.348
162.88
160.104
157.029
153.666
150.027
146.123
141.971
137.585
132.982
128.179
123.196
118.05
112.763
107.354
101.843
96.252
90.6
84.909
79.198
73.488
67.796
62.142
56.545
51.02
45.586
40.258
35.051
29.98
25.057
20.296
15.708
11.303
7.09
3.077
-0.727
-4.317
-7.689
-10.839
-13.764
-16.462
-18.935
-21.183
-23.209
-25.015
-26.607
-27.989
-29.168
-30.151
-30.946
-31.56
-32.004
-32.285
-32.414
-32.402
-32.257
-31.991
-31.614
-31.138
-30.573
-29.929
-29.219
-28.452
-27.639
-26.79
-25.915
-25.026
-24.13
-23.237
-22.356
-21.495
-20.662
-19.864
-19.107
-18.398
-17.742
-17.143
-16.606
-16.134
-15.731
-15.398
-15.138
-14.953
-14.843
-14.809
-14.852
-14.971
-15.166
-15.436
-15.781
-16.199
-16.688
-17.246
-17.872
-18.563
-19.316
-20.13
-21.001
-21.927
-22.904
-23.93
-25.003
-26.118
-27.273
-28.466
-29.694
-30.954
-32.243
-33.56
-34.901
-36.266
-37.651
-39.054
-40.474
-41.907
-43.353
-44.807
-46.269
-47.734
-49.202
-50.667
-52.129
-53.584
-55.028
-56.46
-57.877
-59.276
-60.653
-62.005
-63.331
-64.625
-65.886
-67.11
-68.294
-69.433
-70.525
-71.567
-72.555
-73.485
-74.355
-75.161
-75.899
-76.567
-77.162
-77.681
-78.122
-78.484
-78.766
-78.968
-79.09
-79.134
-79.103
-79.0
-78.827
-78.59
-78.292
-77.938
-77.535
-77.088
-76.603
-76.086
-75.543
-74.983
-74.412
-73.84
-73.274
-72.723
-72.194
-71.697
-71.24
-70.833
-70.482
-70.191
-69.965
-69.809
-69.73
-69.735
-69.829
-70.009
-70.273
-70.62
-71.045
-71.542
-72.097
-72.688
-73.293
-73.894
-74.478
-75.039
-75.57
-76.057
-76.486
-76.841
-77.114
-77.306
-77.42
-77.451
-77.403
-77.29
-77.145
-77.031
-77.02
-77.162
-77.506
-78.084
-78.919
-80.056
-81.55
-83.447
-85.797
-88.631
-91.955
-95.812
-100.27
-105.304
-110.769
-116.384
-121.73
-126.428
-130.24
-132.918
-134.136
-133.7
-131.697
-128.547
-125.059
-122.08
-120.023
-119.09
-119.714
-122.189
-126.308
-131.385
-135.458
-135.789
-130.728
-119.579
-103.095
-83.261
-61.145
-36.406
-6.269
32.483
81.327
139.645
201.486
258.39
301.826
321.44
309.932
264.681
187.133
86.476
-25.242
-139.63
-253.299
-369.61
-491.779
-616.276
-731.988
-822.32
-875.951
-890.408
-872.11
-834.058
-785.104
-730.09
-670.507
-604.163
-532.352
-458.315
-385.354
-318.558
-261.12
-213.84
-177.247
-150.538
-132.016
-120.752
-115.49
-114.046
-114.574
-115.35
-114.686
-112.068
-107.701
-101.645
-94.321
-86.538
-78.953
-72.415
-67.796
-65.233
-64.496
-65.282
-67.072
-69.357
-71.722
-73.632
-74.588
-74.394
-73.015
-70.538
-67.157
-63.009
-58.211
-52.925
-47.316
-41.533
-35.702
-29.912
-24.241
-18.778
-13.619
-8.854
-4.542
-0.699
2.682
5.634
8.198
10.417
12.347
14.053
15.597
17.042
18.445
19.851
21.312
22.88
24.603
26.528
28.692
31.11
33.795
36.746
39.96
43.431
47.144
51.081
55.223
59.554
64.057
68.716
73.513
78.425
83.429
88.502
93.618
98.755
103.889
108.996
114.052
119.033
123.916
128.679
133.299
137.751
142.013
146.061
149.873
153.428
156.707
159.691
162.363
164.708
166.715
168.372
169.671
170.604
171.167
171.356
171.172
170.616
169.691
168.402
166.757
164.764
162.436
159.784
156.822
153.566
150.034
146.243
142.212
137.962
133.513
128.888
124.107
119.193
114.169
109.056
103.878
98.655
93.411
88.166
82.941
77.755
72.629
67.581
62.628
57.787
53.072
48.499
44.08
39.827
35.75
31.858
28.16
24.662
21.369
18.285
15.412
12.753
10.308
8.075
6.052
4.237
2.625
1.211
-0.009
-1.043
-1.897
-2.579
-3.097
-3.459
-3.674
-3.751
-3.699
-3.528
-3.248
-2.867
-2.397
-1.847
-1.225
-0.542
0.194
0.974
1.791
2.637
3.504
4.385
5.276
6.17
7.063
7.95
8.829
9.697
10.551
11.39
12.213
13.021
13.812
14.587
15.348
16.095
16.83
17.555
18.271
18.98
19.685
20.389
21.094
21.802
22.517
23.241
23.977
24.727
25.494
26.28
27.088
27.919
28.776
29.658
30.568
31.506
32.472
33.465
34.485
35.53
36.597
37.685
38.791
39.91
41.039
42.175
43.313
44.449
45.578
46.695
47.795
48.875
49.928
50.951
51.939
52.887
53.791
54.648
55.455
56.207
56.903
57.54
58.115
58.626
59.073
59.455
59.77
60.018
60.202
60.323
60.382
60.382
60.329
60.226
60.078
59.892
59.672
59.427
59.163
58.888
58.609
58.336
58.076
57.838
57.629
57.459
57.333
57.26
57.245
57.294
57.411
57.601
57.866
58.208
58.63
59.132
59.716
60.38
61.124
61.946
62.844
63.816
64.855
65.956
67.111
68.314
69.555
70.826
72.117
73.416
74.712
75.995
77.256
78.485
79.671
80.802
81.863
82.842
83.736
84.54
85.252
85.872
86.398
86.841
87.216
87.537
87.821
88.074
88.3
88.504
88.694
88.882
89.087
89.314
89.562
89.828
90.109
90.395
90.674
90.909
91.043
91.015
90.759
90.227
89.384
88.191
86.617
84.617
82.13
79.113
75.528
71.345
66.564
61.16
55.091
48.432
41.377
34.204
27.321
21.065
15.624
11.241
8.236
6.777
6.822
8.039
9.73
11.269
12.46
13.226
13.25
12.344
10.608
8.401
7.425
10.064
17.396
30.328
48.238
68.09
88.99
110.389
133.129
162.543
200.963
249.393
307.127
365.245
414.785
445.193
443.577
405.96
333.611
234.337
123.163
9.767
-103.049
-218.465
-341.436
-469.695
-591.375
-688.596
-748.424
-767.216
-751.452
-715.06
-667.631
-614.208
-556.188
-491.03
-419.758
-345.745
-272.761
-206.308
-150.007
-104.939
-71.254
-47.659
-32.221
-23.721
-20.545
-20.315
-20.803
-19.953
-16.558
-10.633
-2.644
6.986
17.59
28.248
37.954
45.552
50.476
52.852
53.015
51.474
48.754
45.307
41.703
38.588
36.361
35.197
35.119
35.982
37.659
40.052
43.004
46.348
49.916
53.555
57.169
60.691
64.067
67.262
70.218
72.871
75.166
77.048
78.505
79.564
80.263
80.663
80.837
80.866
80.864
80.943
81.17
81.592
82.214
83.01
83.98
85.136
86.483
88.042
89.81
91.77
93.919
96.239
98.702
101.267
103.866
106.435
108.94
111.369
113.733
116.063
118.373
120.668
122.958
125.239
127.508
129.76
131.973
134.124
136.201
138.199
140.123
141.981
143.765
145.456
147.032
148.458
149.708
150.758
151.58
152.154
152.464
152.5
152.258
151.743
150.954
149.887
148.541
146.911
144.998
142.807
140.341
137.609
134.621
131.385
127.915
124.225
120.327
116.234
111.958
107.509
102.902
98.151
93.269
88.272
83.176
77.998
72.754
67.462
62.138
56.8
51.463
46.143
40.856
35.615
30.434
25.328
20.309
15.389
10.58
5.892
1.336
-3.079
-7.344
-11.451
-15.392
-19.162
-22.755
-26.167
-29.395
-32.434
-35.285
-37.945
-40.414
-42.693
-44.784
-46.687
-48.407
-49.947
-51.311
-52.504
-53.533
-54.403
-55.12
-55.692
-56.126
-56.429
-56.609
-56.673
-56.629
-56.486
-56.252
-55.934
-55.541
-55.081
-54.561
-53.99
-53.375
-52.724
-52.043
-51.34
-50.62
-49.89
-49.156
-48.422
-47.694
-46.976
-46.273
-45.588
-44.924
-44.284
-43.672
-43.088
-42.535
-42.015
-41.528
-41.075
-40.658
-40.275
-39.929
-39.618
-39.342
-39.102
-38.896
-38.725
-38.588
-38.484
-38.412
-38.371
-38.361
-38.38
-38.427
-38.503
-38.605
-38.733
-38.887
-39.066
-39.269
-39.495
-39.745
-40.018
-40.313
-40.631
-40.972
-41.334
-41.719
-42.127
-42.558
-43.013
-43.49
-43.991
-44.516
-45.064
-45.635
-46.229
-46.846
-47.483
-48.142
-48.82
-49.517
-50.231
-50.962
-51.708
-52.468
-53.24
-54.021
-54.811
-55.606
-56.405
-57.205
-58.003
-58.796
-59.581
-60.356
-61.117
-61.861
-62.583
-63.28
-63.947
-64.581
-65.177
-65.732
-66.241
-66.701
-67.109
-67.462
-67.758
-67.996
-68.176
-68.297
-68.359
-68.363
-68.309
-68.198
-68.031
-67.81
-67.536
-67.209
-66.835
-66.416
-65.959
-65.468
-64.949
-64.407
-63.85
-63.282
-62.71
-62.139
-61.575
-61.022
-60.49
-59.987
-59.524
-59.109
-58.743
-58.428
-58.161
-57.934
-57.739
-57.563
-57.385
-57.189
-56.961
-56.691
-56.373
-55.997
-55.545
-55.005
-54.357
-53.591
-52.706
-51.709
-50.603
-49.412
-48.163
-46.896
-45.671
-44.539
-43.544
-42.728
-42.132
-41.811
-41.82
-42.221
-43.058
-44.355
-46.134
-48.419
-51.234
-54.586
-58.467
-62.808
-67.546
-72.675
-78.084
-83.581
-88.886
-93.529
-97.093
-99.342
-99.949
-98.521
-95.036
-89.646
-82.799
-75.557
-68.718
-62.624
-57.878
-55.111
-54.246
-54.915
-56.236
-55.656
-51.267
-42.694
-28.419
-8.531
16.125
47.263
83.812
124.553
169.631
215.644
261.052
303.915
338.677
360.096
359.554
328.653
265.264
172.704
60.924
-58.107
-177.808
-297.573
-419.639
-544.034
-663.656
-764.723
-833.744
-863.733
-856.212
-820.626
-768.45
-707.388
-641.363
-570.691
-494.669
-415.362
-336.358
-262.273
-197.751
-144.938
-104.338
-75.423
-56.445
-45.705
-41.512
-41.384
-42.985
-44.384
-43.901
-40.914
-35.62
-28.34
-19.693
-10.66
-2.133
4.981
9.826
12.242
12.495
10.963
8.214
4.828
1.298
-1.811
-3.959
-4.908
-4.612
-3.134
-0.654
2.692
6.797
11.5
16.633
22.046
27.607
33.21
38.78
44.216
49.416
54.28
58.716
62.678
66.155
69.157
71.713
73.86
75.638
77.103
78.319
79.349
80.251
81.08
81.881
82.704
83.599
84.615
85.799
87.18
88.771
90.582
92.613
94.859
97.315
99.967
102.797
105.788
108.927
112.2
115.595
119.095
122.685
126.343
130.052
133.793
137.549
141.302
145.034
148.726
152.363
155.926
159.399
162.766
166.007
169.104
172.038
174.791
177.347
179.688
181.8
183.669
185.282
186.628
187.699
188.487
188.985
189.188
189.095
188.702
188.011
187.022
185.738
184.164
182.305
180.169
177.765
175.101
172.189
169.04
165.667
162.084
158.304
154.344
150.219
145.945
141.54
137.021
132.405
127.711
122.957
118.16
113.34
108.514
103.698
98.91
94.167
89.483
84.874
80.354
75.936
71.634
67.459
63.422
59.532
55.799
52.231
48.834
45.615
42.578
39.728
37.068
34.6
32.325
30.244
28.356
26.66
25.154
23.833
22.695
21.735
20.946
20.323
19.859
19.547
19.378
19.345
19.438
19.65
19.97
20.389
20.898
21.488
22.149
22.871
23.647
24.468
25.324
26.208
27.112
28.028
28.95
29.871
30.784
31.683
32.564
33.421
34.25
35.046
35.807
36.529
37.21
37.848
38.441
38.988
39.488
39.941
40.347
40.705
41.018
41.285
41.509
41.691
41.834
41.937
42.005
42.039
42.04
42.012
41.956
41.873
41.767
41.638
41.489
41.321
41.137
40.936
40.72
40.491
40.249
39.994
39.727
39.449
39.16
38.86
38.551
38.232
37.903
37.567
37.223
36.872
36.515
36.152
35.783
35.411
35.035
34.657
34.278
33.9
33.524
33.152
32.787
32.43
32.085
31.753
31.437
31.14
30.866
30.617
30.398
30.213
30.065
29.959
29.898
29.888
29.931
30.029
30.187
30.406
30.687
31.032
31.439
31.909
32.44
33.033
33.685
34.394
35.157
35.972
36.836
37.744
38.692
39.674
40.681
41.708
42.746
43.789
44.83
45.86
46.872
47.858
48.812
49.724
50.587
51.392
52.125
52.779
53.351
53.84
54.25
54.586
54.855
55.069
55.243
55.392
55.527
55.659
55.792
55.936
56.103
56.302
56.555
56.873
57.254
57.7
58.197
58.723
59.262
59.778
60.217
60.535
60.69
60.634
60.334
59.753
58.846
57.585
55.937
53.875
51.373
48.405
44.958
41.04
36.682
31.911
26.742
21.281
15.725
10.363
5.606
1.813
-0.799
-1.93
-1.203
1.417
5.753
11.334
17.146
22.438
26.826
29.675
30.435
29.191
26.284
22.743
20.574
21.189
25.737
35.95
53.054
77.779
109.992
147.423
187.04
226.47
264.572
302.129
339.092
372.367
395.245
396.739
367.537
305.356
214.672
107.023
-6.088
-120.814
-237.318
-356.48
-475.226
-581.023
-659.32
-701.751
-707.489
-685.708
-649.201
-605.547
-558.592
-508.01
-451.233
-389.304
-324.856
-261.174
-202.809
-152.485
-111.061
-78.718
-54.488
-37.087
-25.886
-19.811
-17.088
-15.937
-14.522
-11.715
-7.408
-1.783
5.002
12.55
20.24
27.251
32.509
35.474
36.222
35.011
32.294
28.533
24.125
19.609
15.629
12.589
10.655
9.852
10.038
11.09
12.943
15.47
18.522
21.966
25.675
29.549
33.513
37.479
41.347
45.019
48.394
51.391
53.966
56.103
57.816
59.133
60.088
60.721
61.079
61.219
61.196
61.062
60.864
60.643
60.441
60.304
60.277
60.403
60.707
61.202
61.894
62.782
63.862
65.126
66.562
68.152
69.879
71.73
73.692
75.755
77.902
80.119
82.386
84.685
87.001
89.315
91.613
93.877
96.091
98.238
100.304
102.276
104.137
105.872
107.466
108.904
110.17
111.252
112.137
112.812
113.267
113.492
113.48
113.225
112.722
111.966
110.956
109.691
108.17
106.396
104.371
102.1
99.587
96.839
93.864
90.672
87.272
83.675
79.893
75.94
71.828
67.573
63.188
58.69
54.093
49.413
44.668
39.872
35.042
30.195
25.346
20.511
15.707
10.948
6.248
1.622
-2.917
-7.355
-11.682
-15.886
-19.956
-23.882
-27.655
-31.268
-34.714
-37.985
-41.078
-43.988
-46.711
-49.247
-51.593
-53.75
-55.718
-57.499
-59.096
-60.511
-61.75
-62.816
-63.715
-64.453
-65.038
-65.475
-65.774
-65.941
-65.986
-65.917
-65.742
-65.472
-65.115
-64.679
-64.175
-63.61
-62.995
-62.336
-61.643
-60.923
-60.184
-59.433
-58.677
-57.922
-57.173
-56.436
-55.715
-55.014
-54.337
-53.686
-53.065
-52.475
-51.917
-51.394
-50.904
-50.45
-50.03
-49.644
-49.292
-48.972
-48.683
-48.423
-48.191
-47.984
-47.802
-47.642
-47.501
-47.379
-47.274
-47.183
-47.105
-47.038
-46.981
-46.932
-46.891
-46.857
-46.828
-46.805
-46.788
-46.775
-46.768
-46.765
-46.768
-46.776
-46.79
-46.809
-46.833
-46.862
-46.896
-46.936
-46.98
-47.028
-47.082
-47.14
-47.201
-47.265
-47.331
-47.398
-47.465
-47.529
-47.59
-47.645
-47.693
-47.731
-47.757
-47.768
-47.761
-47.733
-47.682
-47.603
-47.494
-47.352
-47.173
-46.956
-46.697
-46.397
-46.054
-45.668
-45.24
-44.772
-44.264
-43.718
-43.137
-42.522
-41.877
-41.205
-40.507
-39.787
-39.051
-38.304
-37.55
-36.798
-36.052
-35.318
-34.601
-33.91
-33.249
-32.626
-32.045
-31.512
-31.03
-30.609
-30.257
-29.979
-29.778
-29.649
-29.587
-29.587
-29.642
-29.74
-29.863
-29.991
-30.108
-30.199
-30.258
-30.275
-30.241
-30.139
-29.952
-29.67
-29.297
-28.845
-28.327
-27.758
-27.156
-26.56
-26.029
-25.622
-25.401
-25.417
-25.708
-26.326
-27.311
-28.706
-30.555
-32.895
-35.751
-39.134
-43.057
-47.505
-52.467
-57.94
-63.79
-69.806
-75.705
-81.085
-85.585
-88.98
-90.978
-91.224
-89.696
-86.56
-82.24
-77.68
-73.597
-70.323
-68.331
-68.064
-69.51
-72.456
-76.099
-78.196
-76.485
-69.393
-55.723
-36.666
-14.808
8.062
30.986
56.366
88.166
128.813
178.651
231.881
278.839
308.566
308.6
271.833
198.752
96.523
-21.309
-141.935
-260.174
-377.586
-496.826
-617.199
-729.093
-816.493
-868.807
-882.753
-864.116
-825.876
-776.638
-721.109
-660.865
-593.847
-521.303
-446.533
-373.148
-306.358
-249.583
-203.929
-169.621
-145.489
-129.801
-121.46
-118.893
-119.756
-121.804
-122.911
-121.78
-118.301
-112.775
-105.493
-97.039
-88.256
-80.139
-73.844
-69.931
-68.288
-68.594
-70.36
-73.072
-76.271
-79.372
-81.713
-82.927
-82.904
-81.673
-79.418
-76.284
-72.366
-67.822
-62.835
-57.561
-52.137
-46.661
-41.202
-35.852
-30.716
-25.894
-21.485
-17.543
-14.083
-11.106
-8.583
-6.479
-4.755
-3.354
-2.214
-1.274
-0.474
0.239
0.911
1.592
2.333
3.182
4.191
5.392
6.801
8.432
10.285
12.358
14.647
17.14
19.818
22.667
25.673
28.822
32.103
35.501
38.998
42.575
46.213
49.892
53.596
57.306
61.002
64.667
68.282
71.829
75.292
78.652
81.89
84.986
87.923
90.681
93.243
95.592
97.713
99.592
101.217
102.576
103.661
104.465
104.981
105.205
105.134
104.766
104.102
103.143
101.893
100.355
98.536
96.442
94.084
91.469
88.61
85.519
82.207
78.69
74.982
71.099
67.057
62.873
58.564
54.148
49.643
45.068
40.44
35.777
31.098
26.42
21.759
17.132
12.554
8.041
3.606
-0.736
-4.974
-9.094
-13.086
-16.938
-20.643
-24.19
-27.572
-30.782
-33.814
-36.663
-39.325
-41.797
-44.075
-46.159
-48.048
-49.742
-51.242
-52.552
-53.672
-54.609
-55.365
-55.947
-56.359
-56.609
-56.704
-56.649
-56.454
-56.125
-55.67
-55.097
-54.415
-53.631
-52.755
-51.794
-50.756
-49.651
-48.486
-47.269
-46.009
-44.711
-43.385
-42.037
-40.674
-39.303
-37.929
-36.559
-35.198
-33.851
-32.523
-31.218
-29.94
-28.691
-27.474
-26.293
-25.147
-24.04
-22.972
-21.945
-20.959
-20.015
-19.113
-18.255
-17.44
-16.668
-15.939
-15.252
-14.607
-14.003
-13.439
-12.914
-12.426
-11.974
-11.558
-11.177
-10.829
-10.514
-10.231
-9.98
-9.758
-9.566
-9.402
-9.265
-9.156
-9.072
-9.013
-8.979
-8.969
-8.982
-9.017
-9.073
-9.148
-9.24
-9.347
-9.465
-9.591
-9.722
-9.854
-9.985
-10.111
-10.23
-10.341
-10.442
-10.533
-10.61
-10.671
-10.711
-10.725
-10.706
-10.648
-10.544
-10.387
-10.17
-9.89
-9.542
-9.127
-8.64
-8.078
-7.439
-6.712
-5.896
-4.99
-3.994
-2.913
-1.757
-0.537
0.723
2.0
3.277
4.542
5.789
7.024
8.249
9.469
10.691
11.913
13.134
14.36
15.589
16.823
18.077
19.366
20.724
22.2
23.819
25.597
27.539
29.628
31.846
34.173
36.571
39.014
41.482
43.945
46.39
48.807
51.165
53.433
55.566
57.488
59.154
60.533
61.595
62.341
62.765
62.863
62.659
62.169
61.395
60.346
59.009
57.351
55.37
53.066
50.441
47.547
44.397
40.987
37.324
33.395
29.198
24.776
20.128
15.205
10.065
4.85
-0.194
-4.654
-8.184
-10.576
-11.584
-10.874
-8.261
-3.83
2.015
8.462
14.661
20.199
24.828
27.927
28.991
28.215
26.212
24.879
27.075
33.769
45.146
61.21
80.35
103.244
131.909
167.399
211.669
263.859
320.799
378.599
430.229
468.351
484.262
468.685
417.768
333.323
224.427
104.271
-17.735
-138.875
-263.082
-393.173
-525.266
-646.888
-739.11
-789.901
-797.372
-769.148
-720.887
-663.488
-601.732
-536.575
-465.362
-388.806
-310.655
-235.446
-168.318
-112.198
-67.975
-35.457
-13.187
0.517
7.184
8.993
8.189
6.877
7.134
9.973
15.425
23.237
32.872
43.483
54.228
64.077
71.878
77.173
80.053
80.813
79.994
78.12
75.624
73.078
71.099
70.027
69.991
70.945
72.687
75.062
77.963
81.256
84.796
88.451
92.111
95.703
99.2
102.594
105.857
108.944
111.816
114.446
116.841
119.069
121.206
123.319
125.472
127.703
130.056
132.587
135.334
138.307
141.49
144.832
148.299
151.885
155.582
159.382
163.258
167.145
170.993
174.769
178.444
182.001
185.423
188.68
191.766
194.698
197.509
200.252
202.96
205.643
208.31
210.969
213.628
216.31
219.018
221.743
224.475
227.204
229.918
232.614
235.274
237.866
240.354
242.698
244.866
246.836
248.588
250.103
251.364
252.355
253.069
253.504
253.658
253.526
253.105
252.388
251.376
250.073
248.485
246.618
244.476
242.067
239.397
236.473
233.304
229.898
226.261
222.402
218.33
214.056
209.594
204.956
200.158
195.214
190.14
184.951
179.665
174.297
168.864
163.38
157.862
152.326
146.787
141.261
135.763
130.309
124.911
119.586
114.346
109.205
104.175
99.268
94.496
89.868
85.395
81.086
76.949
72.991
69.22
65.64
62.257
59.074
56.094
53.318
50.746
48.379
46.216
44.254
42.491
40.923
39.546
38.357
37.349
36.517
35.853
35.352
35.006
34.806
34.745
34.814
35.004
35.306
35.712
36.212
36.797
37.458
38.187
38.975
39.813
40.694
41.609
42.552
43.514
44.49
45.473
46.458
47.439
48.409
49.366
50.302
51.216
52.102
52.957
53.777
54.559
55.301
56.002
56.658
57.269
57.833
58.348
58.815
59.233
59.601
59.918
60.185
60.401
60.567
60.683
60.749
60.766
60.733
60.651
60.521
60.342
60.117
59.846
59.53
59.172
58.773
58.337
57.866
57.362
56.831
56.276
55.702
55.113
54.512
53.902
53.289
52.677
52.071
51.475
50.893
50.332
49.801
49.306
48.856
48.457
48.115
47.836
47.629
47.5
47.454
47.494
47.623
47.848
48.178
48.623
49.187
49.864
50.646
51.527
52.501
53.562
54.699
55.897
57.147
58.448
59.81
61.242
62.746
64.313
65.924
67.563
69.221
70.904
72.616
74.358
76.13
77.935
79.792
81.722
83.725
85.779
87.841
89.868
91.839
93.749
95.602
97.404
99.156
100.849
102.478
104.045
105.539
106.943
108.223
109.337
110.277
111.067
111.749
112.362
112.923
113.428
113.866
114.223
114.467
114.57
114.494
114.19
113.634
112.815
111.734
110.42
108.86
107.01
104.82
102.236
99.225
95.797
91.936
87.597
82.839
77.806
72.753
68.072
64.091
61.018
59.097
58.631
59.795
62.528
66.426
70.719
74.661
77.843
79.96
80.558
79.364
76.568
72.9
69.856
69.107
71.637
78.341
90.533
109.272
135.355
168.254
205.241
243.555
281.168
318.053
356.171
394.924
430.691
455.141
455.997
425.651
362.38
272.381
169.105
62.505
-42.902
-148.756
-260.429
-377.012
-490.422
-586.916
-652.291
-680.687
-674.636
-643.277
-597.926
-545.885
-490.567
-432.337
-370.325
-305.608
-240.976
-180.346
-127.811
-85.426
-53.403
-30.764
-15.745
-7.159
-3.749
-3.546
-4.491
-4.534
-2.421
1.944
8.229
16.111
25.052
34.298
42.898
49.657
53.941
55.781
55.418
53.3
49.896
45.6
40.957
36.624
33.013
30.321
28.608
27.753
27.659
28.273
29.474
31.13
33.122
35.334
37.684
40.115
42.548
44.909
47.115
49.08
50.733
52.01
52.871
53.314
53.352
53.011
52.328
51.34
50.095
48.652
47.066
45.386
43.656
41.914
40.201
38.561
37.036
35.666
34.479
33.487
32.7
32.121
31.749
31.58
31.604
31.803
32.164
32.675
33.324
34.1
34.992
35.983
37.057
38.196
39.383
40.604
41.841
43.077
44.296
45.481
46.617
47.691
48.687
49.589
50.381
51.049
51.577
51.951
52.159
52.188
52.028
51.668
51.1
50.32
49.321
48.099
46.652
44.979
43.081
40.957
38.612
36.048
33.271
30.286
27.1
23.721
20.159
16.423
12.523
8.471
4.28
-0.039
-4.472
-9.005
-13.626
-18.319
-23.07
-27.866
-32.693
-37.535
-42.38
-47.214
-52.024
-56.797
-61.521
-66.184
-70.777
-75.288
-79.708
-84.029
-88.242
-92.34
-96.317
-100.165
-103.881
-107.459
-110.895
-114.187
-117.331
-120.327
-123.173
-125.869
-128.416
-130.814
-133.065
-135.171
-137.136
-138.963
-140.656
-142.219
-143.657
-144.975
-146.179
-147.272
-148.263
-149.155
-149.955
-150.669
-151.303
-151.861
-152.351
-152.777
-153.145
-153.46
-153.727
-153.95
-154.135
-154.286
-154.407
-154.502
-154.575
-154.631
-154.673
-154.705
-154.73
-154.75
-154.768
-154.788
-154.811
-154.839
-154.873
-154.915
-154.967
-155.029
-155.103
-155.19
-155.29
-155.406
-155.538
-155.687
-155.853
-156.038
-156.243
-156.467
-156.713
-156.981
-157.271
-157.586
-157.924
-158.288
-158.676
-159.089
-159.525
-159.984
-160.463
-160.961
-161.475
-162.003
-162.54
-163.085
-163.634
-164.184
-164.733
-165.278
-165.816
-166.344
-166.858
-167.355
-167.829
-168.274
-168.683
-169.048
-169.362
-169.619
-169.813
-169.939
-169.988
-169.955
-169.839
-169.634
-169.335
-168.935
-168.421
-167.787
-167.036
-166.174
-165.21
-164.155
-163.016
-161.804
-160.538
-159.226
-157.874
-156.476
-155.015
-153.483
-151.881
-150.219
-148.519
-146.789
-145.024
-143.222
-141.374
-139.471
-137.508
-135.464
-133.302
-131.014
-128.611
-126.126
-123.617
-121.121
-118.659
-116.241
-113.868
-111.542
-109.275
-107.071
-104.929
-102.865
-100.896
-99.063
-97.426
-96.006
-94.793
-93.757
-92.844
-92.022
-91.279
-90.604
-89.997
-89.48
-89.089
-88.873
-88.901
-89.208
-89.815
-90.729
-91.927
-93.422
-95.261
-97.495
-100.183
-103.377
-107.084
-111.341
-116.229
-121.679
-127.498
-133.409
-138.967
-143.806
-147.728
-150.412
-151.464
-150.81
-148.568
-145.166
-141.546
-138.373
-135.942
-134.789
-135.422
-137.815
-141.695
-146.055
-148.969
-149.093
-145.43
-136.435
-120.776
-97.483
-66.588
-30.272
8.52
47.517
86.584
127.293
168.808
207.488
234.808
238.414
211.037
151.112
64.625
-35.3
-139.126
-243.295
-349.651
-462.34
-580.06
-693.081
-786.399
-848.501
-874.865
-869.89
-844.811
-807.392
-761.71
-708.935
-646.867
-576.621
-502.028
-426.932
-356.39
-294.128
-241.733
-200.271
-169.647
-148.564
-135.65
-129.368
-127.537
-128.052
-128.986
-128.459
-125.56
-120.296
-112.906
-103.923
-94.212
-84.565
-75.894
-69.183
-64.772
-62.54
-62.193
-63.209
-65.053
-67.271
-69.313
-70.605
-70.864
-69.998
-68.041
-65.164
-61.488
-57.111
-52.174
-46.831
-41.215
-35.44
-29.598
-23.753
-17.992
-12.412
-7.107
-2.168
2.354
6.442
10.104
13.368
16.266
18.837
21.131
23.206
25.118
26.922
28.666
30.389
32.137
33.957
35.894
37.995
40.29
42.794
45.515
48.45
51.597
54.947
58.488
62.199
66.064
70.066
74.191
78.428
82.76
87.17
91.637
96.141
100.663
105.184
109.686
114.15
118.558
122.89
127.131
131.264
135.272
139.138
142.844
146.372
149.706
152.831
155.732
158.395
160.809
162.963
164.849
166.46
167.79
168.835
169.592
170.061
170.242
170.137
169.747
169.079
168.136
166.927
165.459
163.742
161.786
159.603
157.205
154.607
151.821
148.864
145.75
142.495
139.116
135.629
132.05
128.397
124.686
120.934
117.157
113.372
109.594
105.838
102.118
98.45
94.844
91.315
87.873
84.53
81.296
78.18
75.191
72.338
69.626
67.062
64.651
62.397
60.303
58.373
56.607
55.007
53.572
52.301
51.193
50.246
49.456
48.82
48.334
47.992
47.789
47.72
47.777
47.956
48.247
48.646
49.144
49.734
50.408
51.159
51.979
52.861
53.796
54.777
55.797
56.848
57.924
59.017
60.12
61.229
62.335
63.434
64.52
65.588
66.633
67.649
68.633
69.581
70.488
71.353
72.171
72.94
73.658
74.322
74.93
75.481
75.973
76.405
76.775
77.084
77.331
77.515
77.635
77.693
77.688
77.621
77.491
77.3
77.047
76.734
76.361
75.93
75.442
74.899
74.303
73.656
72.96
72.218
71.433
70.608
69.745
68.849
67.923
66.97
65.996
65.002
63.995
62.979
61.958
60.937
59.922
58.917
57.927
56.958
56.014
55.102
54.225
53.391
52.604
51.87
51.195
50.584
50.041
49.571
49.178
48.865
48.635
48.488
48.425
48.446
48.55
48.737
49.005
49.351
49.774
50.27
50.836
51.469
52.163
52.912
53.706
54.537
55.398
56.28
57.173
58.068
58.955
59.827
60.677
61.497
62.275
62.999
63.655
64.231
64.724
65.131
65.452
65.69
65.854
65.959
66.023
66.064
66.09
66.108
66.118
66.129
66.151
66.202
66.299
66.451
66.66
66.927
67.249
67.613
67.987
68.326
68.578
68.698
68.654
68.42
67.976
67.288
66.315
65.016
63.345
61.279
58.808
55.915
52.578
48.792
44.588
40.014
35.157
30.061
24.694
19.134
13.568
8.26
3.609
-0.017
-2.396
-3.193
-1.948
1.393
6.589
13.152
20.096
26.531
31.83
35.187
35.735
33.855
31.01
28.173
26.657
26.604
26.535
28.719
37.707
57.368
91.539
137.944
189.531
240.631
287.076
328.779
366.315
396.667
412.574
402.841
361.008
287.601
189.393
78.961
-36.444
-156.535
-282.574
-415.472
-547.987
-664.198
-749.489
-795.863
-804.386
-785.512
-750.534
-705.465
-653.145
-592.89
-523.415
-447.578
-369.283
-292.527
-222.424
-162.037
-112.417
-74.434
-47.477
-29.749
-20.129
-17.296
-18.882
-22.976
-27.844
-31.298
-32.424
-31.414
-28.284
-23.335
-17.393
-10.871
-4.322
0.961
4.423
6.21
6.443
5.548
4.057
2.092
-0.135
-1.865
-2.655
-2.395
-0.999
1.33
4.377
8.176
12.708
17.692
22.906
28.176
33.312
38.281
43.044
47.473
51.46
54.965
57.969
60.498
62.605
64.313
65.65
66.669
67.425
67.983
68.41
68.758
69.075
69.411
69.813
70.33
71.012
71.891
72.987
74.313
75.87
77.656
79.668
81.895
84.322
86.933
89.713
92.646
95.72
98.92
102.229
105.627
109.094
112.61
116.158
119.717
123.268
126.793
130.27
133.682
137.011
140.238
143.342
146.305
149.106
151.726
154.148
156.355
158.331
160.06
161.53
162.73
163.65
164.283
164.622
164.662
164.4
163.835
162.968
161.8
160.335
158.579
156.538
154.22
151.636
148.796
145.713
142.4
138.873
135.145
131.234
127.158
122.932
118.577
114.11
109.55
104.916
100.229
95.506
90.766
86.03
81.314
76.636
72.015
67.465
63.003
58.645
54.403
50.291
46.322
42.506
38.854
35.374
32.074
28.962
26.041
23.318
20.794
18.472
16.352
14.435
12.72
11.204
9.885
8.758
7.819
7.062
6.481
6.069
5.819
5.721
5.769
5.952
6.261
6.686
7.219
7.848
8.563
9.354
10.211
11.124
12.082
13.076
14.097
15.135
16.183
17.232
18.275
19.305
20.316
21.303
22.259
23.18
24.062
24.901
25.694
26.438
27.131
27.772
28.36
28.892
29.371
29.794
30.162
30.476
30.736
30.944
31.101
31.209
31.268
31.282
31.254
31.185
31.078
30.937
30.763
30.558
30.326
30.067
29.785
29.48
29.154
28.809
28.446
28.068
27.676
27.27
26.853
26.427
25.991
25.549
25.102
24.65
24.195
23.739
23.285
22.834
22.39
21.955
21.531
21.122
20.731
20.36
20.011
19.686
19.386
19.114
18.872
18.662
18.486
18.349
18.256
18.213
18.225
18.295
18.427
18.624
18.888
19.222
19.627
20.1
20.64
21.247
21.928
22.689
23.528
24.44
25.41
26.43
27.493
28.59
29.706
30.823
31.926
33.013
34.09
35.169
36.25
37.324
38.374
39.382
40.345
41.268
42.16
43.018
43.837
44.623
45.399
46.2
47.043
47.917
48.792
49.639
50.455
51.245
52.021
52.788
53.533
54.242
54.91
55.543
56.144
56.698
57.16
57.478
57.625
57.603
57.437
57.133
56.67
56.027
55.177
54.115
52.837
51.316
49.524
47.427
44.998
42.252
39.209
35.879
32.258
28.317
24.028
19.414
14.494
9.234
3.686
-2.013
-7.627
-12.759
-17.054
-20.281
-22.186
-22.439
-20.883
-17.66
-13.237
-8.438
-4.083
-0.659
1.496
1.882
0.1
-3.568
-8.181
-12.346
-13.782
-10.728
-2.756
11.55
32.276
57.997
89.204
124.872
164.228
208.832
257.638
308.172
355.794
391.795
406.369
390.722
340.648
258.638
153.852
38.252
-79.491
-196.743
-316.788
-441.751
-567.835
-683.829
-772.809
-823.855
-834.919
-812.28
-769.506
-716.218
-656.97
-593.234
-523.294
-448.371
-372.217
-299.129
-233.952
-179.529
-136.792
-105.621
-84.58
-71.921
-66.068
-64.882
-66.193
-68.01
-68.38
-66.337
-61.864
-55.249
-47.042
-38.085
-29.187
-21.288
-15.435
-12.01
-10.889
-11.765
-14.089
-17.302
-20.933
-24.388
-27.039
-28.56
-28.842
-27.905
-25.927
-23.041
-19.344
-14.998
-10.179
-5.044
0.273
5.672
11.079
16.394
21.506
26.307
30.691
34.601
38.013
40.926
43.362
45.351
46.929
48.152
49.081
49.777
50.297
50.693
51.011
51.302
51.619
52.013
52.538
53.227
54.102
55.175
56.452
57.932
59.613
61.486
63.534
65.744
68.106
70.608
73.242
75.995
78.852
81.795
84.809
87.875
90.979
94.103
97.232
100.348
103.435
106.477
109.46
112.366
115.178
117.878
120.446
122.865
125.118
127.187
129.056
130.708
132.131
133.312
134.239
134.902
135.292
135.403
135.228
134.762
134.004
132.951
131.603
129.962
128.032
125.816
123.322
120.557
117.529
114.249
110.729
106.979
103.014
98.848
94.495
89.971
85.294
80.479
75.545
70.51
65.392
60.21
54.983
49.73
44.47
39.22
33.999
28.825
23.714
18.684
13.75
8.928
4.232
-0.324
-4.729
-8.969
-13.035
-16.917
-20.607
-24.098
-27.384
-30.459
-33.321
-35.966
-38.392
-40.599
-42.587
-44.357
-45.912
-47.255
-48.391
-49.324
-50.062
-50.611
-50.979
-51.174
-51.206
-51.083
-50.816
-50.416
-49.892
-49.257
-48.521
-47.695
-46.79
-45.818
-44.789
-43.714
-42.603
-41.465
-40.31
-39.146
-37.983
-36.828
-35.688
-34.57
-33.481
-32.427
-31.412
-30.442
-29.52
-28.65
-27.834
-27.075
-26.374
-25.733
-25.151
-24.629
-24.166
-23.762
-23.414
-23.12
-22.878
-22.686
-22.54
-22.438
-22.376
-22.35
-22.357
-22.394
-22.458
-22.544
-22.65
-22.772
-22.908
-23.054
-23.207
-23.364
-23.524
-23.683
-23.839
-23.99
-24.134
-24.269
-24.392
-24.502
-24.598
-24.677
-24.737
-24.778
-24.799
-24.798
-24.774
-24.727
-24.656
-24.56
-24.439
-24.293
-24.119
-23.918
-23.688
-23.429
-23.14
-22.82
-22.468
-22.082
-21.661
-21.205
-20.711
-20.178
-19.605
-18.991
-18.333
-17.632
-16.886
-16.096
-15.263
-14.386
-13.469
-12.513
-11.522
-10.498
-9.444
-8.363
-7.259
-6.135
-4.996
-3.844
-2.684
-1.522
-0.365
0.781
1.907
3.007
4.075
5.102
6.082
7.006
7.868
8.664
9.386
10.027
10.578
11.029
11.373
11.611
11.743
11.774
11.711
11.562
11.34
11.066
10.753
10.418
10.07
9.717
9.369
9.041
8.747
8.506
8.329
8.216
8.166
8.173
8.219
8.288
8.347
8.345
8.238
7.989
7.553
6.891
5.961
4.714
3.112
1.128
-1.271
-4.111
-7.419
-11.223
-15.531
-20.319
-25.57
-31.288
-37.372
-43.643
-49.827
-55.501
-60.3
-63.996
-66.266
-66.718
-65.297
-62.148
-57.708
-52.955
-48.577
-44.888
-42.484
-41.904
-43.107
-45.833
-49.114
-50.948
-49.963
-45.263
-35.296
-18.804
4.951
36.738
75.173
116.71
158.902
199.163
236.302
272.094
304.992
330.646
341.397
324.815
274.168
190.603
81.972
-37.299
-157.987
-279.383
-403.516
-531.565
-656.555
-762.101
-832.27
-859.193
-845.319
-802.891
-746.199
-684.272
-620.923
-555.534
-486.381
-414.574
-343.169
-276.618
-219.276
-172.879
-137.61
-112.491
-95.44
-85.122
-80.262
-78.692
-78.529
-78.087
-75.803
-71.293
-64.906
-56.826
-47.547
-37.935
-28.682
-20.652
-14.709
-10.994
-9.279
-9.259
-10.423
-12.261
-14.359
-16.189
-17.222
-17.235
-16.176
-14.101
-11.188
-7.571
-3.351
1.316
6.264
11.377
16.552
21.708
26.794
31.724
36.404
40.751
44.679
48.148
51.157
53.715
55.853
57.623
59.075
60.279
61.317
62.229
63.052
63.825
64.572
65.338
66.172
67.108
68.186
69.431
70.855
72.469
74.279
76.266
78.416
80.702
83.088
85.57
88.151
90.822
93.581
96.415
99.305
102.241
105.215
108.204
111.189
114.15
117.061
119.913
122.693
125.39
127.996
130.487
132.839
135.034
137.051
138.872
140.481
141.859
142.986
143.854
144.454
144.779
144.825
144.585
144.052
143.224
142.099
140.678
138.965
136.963
134.676
132.112
129.28
126.189
122.851
119.277
115.478
111.468
107.261
102.873
98.319
93.617
88.782
83.833
78.788
73.665
68.482
63.259
58.013
52.762
47.524
42.316
37.155
32.056
27.035
22.106
17.282
12.578
8.004
3.572
-0.708
-4.826
-8.775
-12.546
-16.134
-19.533
-22.739
-25.749
-28.559
-31.169
-33.579
-35.788
-37.798
-39.61
-41.229
-42.657
-43.9
-44.963
-45.851
-46.571
-47.131
-47.537
-47.798
-47.921
-47.915
-47.789
-47.55
-47.207
-46.77
-46.246
-45.644
-44.973
-44.24
-43.454
-42.622
-41.752
-40.85
-39.922
-38.976
-38.016
-37.048
-36.077
-35.107
-34.143
-33.189
-32.247
-31.322
-30.415
-29.528
-28.663
-27.821
-27.004
-26.212
-25.446
-24.707
-23.996
-23.312
-22.656
-22.029
-21.431
-20.861
-20.32
-19.806
-19.32
-18.862
-18.431
-18.027
-17.651
-17.303
-16.984
-16.695
-16.436
-16.209
-16.015
-15.854
-15.727
-15.636
-15.582
-15.565
-15.587
-15.649
-15.752
-15.896
-16.083
-16.312
-16.583
-16.895
-17.248
-17.637
-18.061
-18.517
-19.003
-19.515
-20.052
-20.61
-21.188
-21.783
-22.395
-23.021
-23.656
-24.295
-24.932
-25.559
-26.17
-26.755
-27.307
-27.817
-28.278
-28.686
-29.038
-29.328
-29.551
-29.7
-29.764
-29.74
-29.625
-29.417
-29.118
-28.736
-28.282
-27.776
-27.24
-26.689
-26.133
-25.576
-25.013
-24.44
-23.853
-23.243
-22.613
-21.962
-21.287
-20.59
-19.869
-19.11
-18.293
-17.383
-16.339
-15.138
-13.767
-12.221
-10.522
-8.689
-6.751
-4.754
-2.721
-0.675
1.359
3.37
5.339
7.234
9.021
10.65
12.06
13.207
14.06
14.593
14.812
14.725
14.349
13.723
12.861
11.772
10.465
8.935
7.178
5.185
2.95
0.479
-2.204
-5.072
-8.113
-11.333
-14.752
-18.397
-22.287
-26.427
-30.836
-35.565
-40.584
-45.758
-50.841
-55.451
-59.259
-62.05
-63.571
-63.512
-61.711
-58.276
-53.657
-48.67
-44.065
-40.24
-37.55
-36.408
-36.967
-39.049
-41.87
-43.855
-43.535
-39.427
-30.09
-14.874
7.045
34.973
66.838
101.976
138.821
177.064
218.264
260.703
302.345
339.771
364.814
369.326
345.623
288.099
199.146
87.182
-38.225
-168.773
-300.937
-434.249
-564.251
-681.258
-772.83
-827.906
-843.834
-826.974
-787.771
-736.681
-680.001
-619.211
-553.863
-483.956
-411.179
-338.695
-270.699
-210.816
-160.691
-120.979
-91.131
-69.548
-55.307
-47.401
-43.888
-43.006
-42.983
-41.975
-39.321
-35.123
-29.35
-22.331
-14.793
-7.346
-0.878
3.648
6.02
6.429
5.154
2.729
-0.326
-3.573
-6.421
-8.303
-8.969
-8.35
-6.516
-3.66
0.083
4.594
9.703
15.227
21.004
26.895
32.796
38.618
44.251
49.58
54.487
58.897
62.778
66.128
68.968
71.334
73.263
74.81
76.041
77.018
77.804
78.457
79.024
79.562
80.127
80.775
81.561
82.527
83.695
85.081
86.689
88.519
90.568
92.826
95.276
97.903
100.696
103.642
106.733
109.956
113.292
116.725
120.237
123.808
127.422
131.061
134.707
138.341
141.947
145.505
149.001
152.414
155.726
158.917
161.966
164.853
167.559
170.066
172.357
174.414
176.224
177.772
179.048
180.041
180.742
181.144
181.241
181.029
180.505
179.67
178.522
177.065
175.304
173.242
170.888
168.251
165.339
162.166
158.742
155.082
151.202
147.115
142.84
138.393
133.793
129.058
124.208
119.262
114.239
109.159
104.043
98.909
93.776
88.663
83.589
78.57
73.624
68.767
64.013
59.379
54.877
50.52
46.32
42.287
38.431
34.76
31.283
28.004
24.93
22.065
19.411
16.97
14.745
12.734
10.936
9.351
7.974
6.803
5.833
5.059
4.475
4.074
3.85
3.795
3.902
4.162
4.566
5.107
5.775
6.562
7.458
8.454
9.543
10.715
11.962
13.275
14.648
16.072
17.539
19.043
20.578
22.136
23.711
25.299
26.893
28.49
30.083
31.669
33.244
34.805
36.347
37.868
39.364
40.834
42.274
43.683
45.059
46.4
47.704
48.97
50.197
51.383
52.527
53.628
54.684
55.695
56.659
57.575
58.443
59.26
60.027
60.742
61.404
62.012
62.567
63.066
63.509
63.896
64.227
64.501
64.719
64.881
64.988
65.042
65.043
64.994
64.896
64.751
64.562
64.331
64.061
63.755
63.416
63.049
62.657
62.245
61.818
61.38
60.937
60.493
60.054
59.625
59.211
58.818
58.451
58.117
57.819
57.563
57.354
57.197
57.095
57.052
57.07
57.151
57.295
57.503
57.774
58.107
58.501
58.952
59.458
60.017
60.623
61.276
61.969
62.699
63.458
64.242
65.041
65.851
66.663
67.468
68.259
69.027
69.763
70.465
71.127
71.743
72.305
72.804
73.232
73.59
73.873
74.083
74.22
74.29
74.305
74.287
74.259
74.24
74.244
74.279
74.352
74.477
74.666
74.935
75.288
75.724
76.24
76.837
77.507
78.224
78.946
79.595
80.092
80.366
80.355
80.009
79.292
78.15
76.525
74.369
71.642
68.309
64.369
59.778
54.474
48.521
42.093
35.489
29.14
23.404
18.508
14.783
12.635
12.199
13.388
15.786
18.597
21.278
23.652
25.366
25.927
25.277
23.709
22.117
22.126
24.876
30.887
41.103
56.808
78.778
107.566
142.1
179.375
217.383
254.541
290.388
326.157
360.547
389.805
406.794
400.871
365.119
298.509
207.576
104.854
-0.403
-105.399
-213.704
-329.165
-448.527
-559.94
-646.013
-695.135
-705.185
-683.494
-644.249
-596.99
-546.392
-493.273
-434.498
-370.377
-303.64
-237.625
-177.383
-126.09
-84.606
-53.059
-30.411
-15.243
-6.775
-3.719
-4.01
-5.63
-6.624
-5.784
-2.959
1.671
7.928
15.335
23.132
30.378
35.939
39.244
40.375
39.599
37.343
34.071
30.195
26.272
22.959
20.629
19.395
19.244
20.006
21.552
23.815
26.659
29.923
33.474
37.182
40.955
44.738
48.444
51.972
55.224
58.095
60.525
62.5
64.02
65.111
65.805
66.135
66.151
65.914
65.479
64.904
64.24
63.527
62.817
62.161
61.611
61.221
61.027
61.049
61.303
61.791
62.516
63.476
64.661
66.055
67.645
69.419
71.365
73.475
75.733
78.123
80.626
83.222
85.891
88.617
91.378
94.155
96.929
99.679
102.386
105.033
107.598
110.062
112.403
114.6
116.632
118.48
120.125
121.548
122.733
123.666
124.332
124.72
124.821
124.627
124.129
123.325
122.21
120.784
119.047
117.0
114.648
111.997
109.053
105.826
102.325
98.563
94.551
90.306
85.842
81.175
76.323
71.304
66.136
60.839
55.432
49.936
44.37
38.754
33.109
27.455
21.81
16.194
10.624
5.119
-0.306
-5.634
-10.852
-15.944
-20.899
-25.704
-30.35
-34.826
-39.125
-43.239
-47.162
-50.89
-54.42
-57.748
-60.874
-63.797
-66.519
-69.041
-71.366
-73.497
-75.44
-77.2
-78.782
-80.193
-81.441
-82.533
-83.478
-84.283
-84.959
-85.513
-85.954
-86.292
-86.535
-86.693
-86.774
-86.786
-86.739
-86.64
-86.496
-86.315
-86.105
-85.87
-85.618
-85.354
-85.084
-84.811
-84.541
-84.278
-84.024
-83.784
-83.559
-83.353
-83.167
-83.003
-82.862
-82.746
-82.656
-82.592
-82.556
-82.546
-82.566
-82.613
-82.689
-82.794
-82.928
-83.09
-83.282
-83.503
-83.752
-84.03
-84.336
-84.67
-85.033
-85.423
-85.839
-86.282
-86.75
-87.241
-87.755
-88.29
-88.843
-89.413
-89.997
-90.593
-91.198
-91.809
-92.424
-93.038
-93.648
-94.249
-94.837
-95.408
-95.955
-96.474
-96.96
-97.407
-97.81
-98.162
-98.459
-98.695
-98.864
-98.96
-98.979
-98.916
-98.766
-98.527
-98.193
-97.765
-97.24
-96.617
-95.898
-95.084
-94.177
-93.18
-92.097
-90.931
-89.687
-88.371
-86.99
-85.548
-84.054
-82.516
-80.944
-79.347
-77.736
-76.12
-74.511
-72.918
-71.353
-69.827
-68.352
-66.933
-65.58
-64.301
-63.106
-62.005
-61.007
-60.113
-59.322
-58.634
-58.046
-57.555
-57.15
-56.814
-56.53
-56.282
-56.054
-55.843
-55.642
-55.437
-55.214
-54.956
-54.65
-54.301
-53.911
-53.479
-53.012
-52.521
-52.036
-51.612
-51.306
-51.176
-51.271
-51.631
-52.291
-53.279
-54.635
-56.408
-58.64
-61.359
-64.596
-68.347
-72.628
-77.503
-82.888
-88.582
-94.305
-99.602
-104.088
-107.575
-109.742
-110.176
-108.844
-105.89
-101.739
-97.424
-93.68
-90.75
-89.192
-89.633
-91.966
-95.782
-100.234
-102.817
-101.549
-95.988
-84.49
-66.743
-44.143
-15.895
17.425
54.88
98.809
149.116
202.447
253.813
292.897
308.132
293.462
246.862
173.011
83.33
-13.574
-112.348
-212.517
-320.169
-436.965
-558.184
-672.508
-762.3
-816.264
-831.81
-814.912
-778.998
-733.599
-683.875
-631.148
-572.588
-508.656
-442.035
-375.795
-314.834
-262.095
-218.17
-183.447
-157.096
-137.563
-124.126
-115.794
-110.78
-107.658
-105.052
-101.536
-96.723
-90.842
-83.938
-76.35
-68.734
-61.567
-55.546
-51.457
-49.428
-49.253
-50.648
-53.122
-56.205
-59.521
-62.568
-64.823
-66.031
-66.099
-65.061
-63.076
-60.258
-56.694
-52.514
-47.869
-42.894
-37.71
-32.42
-27.098
-21.834
-16.73
-11.883
-7.391
-3.307
0.347
3.581
6.42
8.898
11.053
12.933
14.597
16.102
17.501
18.843
20.167
21.52
22.946
24.492
26.205
28.114
30.235
32.576
35.136
37.911
40.894
44.073
47.428
50.943
54.602
58.392
62.301
66.314
70.411
74.575
78.784
83.021
87.266
91.502
95.708
99.868
103.962
107.973
111.884
115.679
119.337
122.84
126.169
129.307
132.236
134.94
137.404
139.613
141.555
143.22
144.598
145.681
146.464
146.941
147.111
146.971
146.522
145.765
144.704
143.343
141.689
139.749
137.533
135.052
132.316
129.338
126.133
122.717
119.103
115.311
111.357
107.259
103.036
98.708
94.294
89.814
85.289
80.738
76.18
71.637
67.126
62.666
58.275
53.971
49.768
45.684
41.732
37.926
34.279
30.801
27.504
24.397
21.487
18.783
16.289
14.01
11.95
10.112
8.495
7.101
5.928
4.974
4.236
3.709
3.387
3.265
3.334
3.587
4.015
4.608
5.356
6.248
7.272
8.418
9.674
11.028
12.467
13.982
15.559
17.187
18.856
20.553
22.27
23.995
25.719
27.433
29.128
30.796
32.428
34.018
35.56
37.047
38.474
39.836
41.13
42.351
43.498
44.568
45.559
46.472
47.306
48.061
48.737
49.338
49.863
50.316
50.698
51.012
51.26
51.446
51.572
51.642
51.657
51.622
51.539
51.411
51.241
51.032
50.786
50.505
50.194
49.854
49.487
49.098
48.687
48.257
47.812
47.352
46.881
46.401
45.913
45.419
44.922
44.421
43.92
43.42
42.922
42.428
41.94
41.46
40.989
40.53
40.085
39.656
39.246
38.857
38.491
38.152
37.842
37.563
37.319
37.112
36.943
36.815
36.73
36.688
36.69
36.736
36.824
36.955
37.126
37.336
37.582
37.861
38.173
38.513
38.88
39.272
39.685
40.118
40.565
41.023
41.487
41.952
42.412
42.861
43.294
43.708
44.101
44.472
44.82
45.139
45.424
45.669
45.875
46.039
46.161
46.244
46.292
46.32
46.355
46.418
46.528
46.7
46.938
47.252
47.653
48.153
48.765
49.495
50.343
51.31
52.402
53.607
54.904
56.237
57.516
58.659
59.593
60.256
60.61
60.595
60.136
59.159
57.594
55.387
52.52
48.936
44.528
39.299
33.374
27.028
20.717
14.831
9.609
5.335
2.387
0.98
1.077
2.299
3.852
5.06
5.684
5.549
4.333
1.941
-1.336
-4.687
-6.528
-5.282
-0.143
9.658
25.286
47.619
77.345
114.041
155.047
197.527
239.49
280.066
320.443
360.994
398.743
427.087
435.282
412.916
355.787
267.23
158.038
41.271
-75.69
-192.183
-310.878
-432.816
-551.439
-653.078
-724.548
-758.763
-757.351
-730.139
-688.193
-638.524
-584.395
-525.368
-460.372
-391.26
-321.104
-253.881
-193.832
-143.09
-102.492
-72.006
-50.319
-36.082
-28.096
-24.473
-23.317
-22.87
-21.332
-17.859
-12.471
-5.359
3.023
11.923
20.652
28.35
34.04
37.382
38.481
37.611
35.284
32.0
28.192
24.412
21.254
19.064
17.99
18.037
19.069
20.974
23.666
27.013
30.861
35.067
39.514
44.104
48.764
53.417
57.967
62.319
66.381
70.072
73.346
76.191
78.615
80.641
82.304
83.644
84.709
85.562
86.259
86.853
87.39
87.91
88.456
89.076
89.815
90.715
91.805
93.1
94.605
96.323
98.249
100.376
102.691
105.175
107.81
110.581
113.474
116.476
119.572
122.743
125.968
129.228
132.504
135.778
139.031
142.244
145.398
148.477
151.463
154.341
157.094
159.703
162.152
164.424
166.5
168.368
170.011
171.416
172.572
173.467
174.094
174.445
174.515
174.3
173.798
173.007
171.93
170.567
168.922
167.001
164.811
162.358
159.653
156.705
153.526
150.128
146.524
142.73
138.759
134.628
130.352
125.948
121.433
116.825
112.141
107.398
102.614
97.807
92.993
88.19
83.414
78.681
74.007
69.406
64.891
60.477
56.175
51.996
47.951
44.051
40.302
36.714
33.293
30.046
26.976
24.087
21.384
18.867
16.538
14.397
12.444
10.676
9.091
7.686
6.458
5.402
4.512
3.783
3.209
2.781
2.494
2.339
2.308
2.393
2.584
2.873
3.251
3.709
4.239
4.83
5.474
6.164
6.889
7.641
8.413
9.197
9.986
10.771
11.548
12.309
13.049
13.764
14.447
15.095
15.704
16.27
16.79
17.26
17.68
18.047
18.358
18.614
18.814
18.958
19.044
19.075
19.05
18.971
18.838
18.652
18.416
18.131
17.798
17.421
17.001
16.54
16.042
15.507
14.94
14.341
13.713
13.058
12.378
11.675
10.952
10.21
9.451
8.679
7.895
7.102
6.303
5.5
4.695
3.892
3.092
2.298
1.512
0.738
-0.022
-0.765
-1.487
-2.188
-2.862
-3.508
-4.122
-4.702
-5.245
-5.748
-6.209
-6.625
-6.992
-7.309
-7.571
-7.776
-7.922
-8.007
-8.029
-7.986
-7.879
-7.707
-7.471
-7.173
-6.815
-6.4
-5.931
-5.41
-4.843
-4.233
-3.587
-2.908
-2.203
-1.477
-0.738
0.007
0.75
1.483
2.199
2.89
3.547
4.162
4.728
5.236
5.683
6.065
6.375
6.607
6.752
6.806
6.769
6.644
6.435
6.146
5.783
5.359
4.893
4.408
3.918
3.435
2.962
2.503
2.067
1.671
1.334
1.063
0.86
0.719
0.635
0.607
0.623
0.648
0.624
0.483
0.17
-0.349
-1.094
-2.08
-3.34
-4.931
-6.908
-9.321
-12.209
-15.576
-19.455
-23.923
-28.977
-34.501
-40.248
-45.822
-50.853
-55.102
-58.32
-60.193
-60.527
-59.283
-56.775
-53.735
-50.914
-48.901
-48.104
-48.885
-51.6
-56.276
-62.221
-68.161
-71.902
-71.388
-65.868
-53.987
-35.629
-11.167
20.771
58.862
102.275
150.758
201.49
253.918
304.873
347.695
375.084
376.199
344.703
280.785
190.168
85.345
-24.223
-134.52
-246.383
-364.188
-486.996
-606.529
-709.246
-781.835
-818.219
-820.933
-799.415
-763.64
-719.393
-669.143
-612.266
-547.863
-478.073
-405.845
-334.804
-269.596
-213.027
-166.442
-130.396
-103.916
-85.658
-74.773
-69.829
-68.689
-69.255
-69.418
-67.87
-64.475
-59.442
-52.999
-45.674
-38.201
-31.497
-26.662
-24.202
-23.989
-25.685
-28.778
-32.744
-37.115
-41.304
-44.642
-46.756
-47.524
-46.969
-45.268
-42.566
-38.962
-34.618
-29.725
-24.452
-18.949
-13.33
-7.679
-2.104
3.279
8.36
13.032
17.237
20.953
24.18
26.945
29.28
31.226
32.835
34.172
35.295
36.265
37.134
37.948
38.758
39.614
40.564
41.659
42.927
44.386
46.044
47.9
49.95
52.188
54.6
57.169
59.878
62.713
65.661
68.711
71.849
75.056
78.316
81.609
84.918
88.227
91.519
94.777
97.986
101.129
104.191
107.158
110.016
112.747
115.337
117.768
120.025
122.095
123.964
125.62
127.05
128.246
129.199
129.902
130.349
130.536
130.46
130.118
129.511
128.638
127.501
126.105
124.454
122.553
120.41
118.033
115.433
112.619
109.603
106.398
103.017
99.474
95.783
91.96
88.019
83.977
79.849
75.652
71.401
67.113
62.803
58.488
54.182
49.899
45.656
41.464
37.337
33.289
29.33
25.473
21.728
18.105
14.614
11.262
8.057
5.007
2.116
-0.611
-3.17
-5.557
-7.77
-9.809
-11.672
-13.361
-14.876
-16.219
-17.393
-18.402
-19.249
-19.939
-20.478
-20.871
-21.125
-21.245
-21.239
-21.114
-20.878
-20.538
-20.103
-19.579
-18.976
-18.302
-17.564
-16.77
-15.93
-15.05
-14.138
-13.201
-12.247
-11.283
-10.314
-9.347
-8.389
-7.443
-6.517
-5.613
-4.737
-3.893
-3.085
-2.314
-1.585
-0.9
-0.26
0.333
0.877
1.371
1.815
2.207
2.548
2.837
3.075
3.262
3.399
3.487
3.525
3.516
3.461
3.36
3.214
3.025
2.794
2.521
2.209
1.857
1.469
1.044
0.584
0.091
-0.434
-0.99
-1.576
-2.19
-2.831
-3.497
-4.188
-4.901
-5.635
-6.388
-7.158
-7.944
-8.742
-9.551
-10.368
-11.19
-12.016
-12.842
-13.665
-14.481
-15.289
-16.083
-16.861
-17.617
-18.349
-19.051
-19.719
-20.349
-20.938
-21.48
-21.972
-22.41
-22.79
-23.107
-23.359
-23.541
-23.65
-23.683
-23.638
-23.514
-23.309
-23.022
-22.655
-22.208
-21.683
-21.084
-20.412
-19.672
-18.868
-18.005
-17.089
-16.125
-15.118
-14.077
-13.008
-11.92
-10.821
-9.721
-8.628
-7.552
-6.501
-5.487
-4.518
-3.602
-2.745
-1.952
-1.229
-0.586
-0.031
0.431
0.799
1.072
1.253
1.343
1.349
1.282
1.164
1.018
0.861
0.706
0.56
0.431
0.331
0.277
0.287
0.37
0.525
0.753
1.054
1.425
1.849
2.289
2.676
2.934
3.002
2.828
2.376
1.62
0.513
-1.003
-2.983
-5.477
-8.517
-12.108
-16.299
-21.162
-26.676
-32.693
-38.913
-44.899
-50.276
-54.796
-58.177
-60.047
-60.178
-58.613
-55.752
-52.391
-49.28
-46.782
-45.18
-44.947
-46.327
-49.113
-52.559
-55.102
-55.057
-51.45
-43.314
-29.206
-8.032
20.99
57.455
98.661
141.76
184.734
226.612
268.313
309.641
347.08
373.725
378.835
352.55
291.671
200.442
89.758
-27.804
-146.451
-267.098
-391.311
-518.338
-638.477
-735.046
-797.02
-820.156
-809.619
-778.804
-736.382
-686.693
-630.975
-566.448
-494.083
-417.904
-341.875
-271.287
-209.806
-158.708
-118.811
-89.793
-70.228
-58.77
-53.858
-53.219
-54.744
-56.548
-56.816
-54.748
-50.418
-44.064
-36.236
-27.832
-19.642
-12.562
-7.543
-4.856
-4.333
-5.648
-8.248
-11.577
-15.176
-18.489
-20.952
-22.297
-22.444
-21.44
-19.466
-16.653
-13.107
-8.979
-4.431
0.395
5.373
10.401
15.405
20.291
24.957
29.31
33.256
36.747
39.769
42.33
44.461
46.197
47.581
48.663
49.505
50.166
50.703
51.167
51.602
52.056
52.575
53.207
53.998
54.978
56.163
57.559
59.166
60.98
62.994
65.195
67.566
70.088
72.748
75.531
78.426
81.419
84.489
87.62
90.79
93.982
97.177
100.357
103.503
106.598
109.622
112.559
115.392
118.106
120.681
123.099
125.343
127.395
129.241
130.865
132.254
133.394
134.275
134.889
135.228
135.287
135.061
134.547
133.744
132.652
131.273
129.61
127.667
125.45
122.966
120.224
117.234
114.006
110.553
106.888
103.025
98.978
94.764
90.398
85.896
81.277
76.556
71.753
66.884
61.968
57.021
52.062
47.106
42.171
37.273
32.425
27.644
22.943
18.334
13.831
9.444
5.185
1.062
-2.914
-6.735
-10.395
-13.887
-17.206
-20.347
-23.306
-26.081
-28.67
-31.071
-33.286
-35.314
-37.157
-38.817
-40.297
-41.601
-42.733
-43.699
-44.503
-45.153
-45.653
-46.011
-46.233
-46.327
-46.3
-46.16
-45.913
-45.568
-45.131
-44.611
-44.015
-43.349
-42.622
-41.839
-41.008
-40.136
-39.227
-38.29
-37.33
-36.352
-35.362
-34.365
-33.365
-32.367
-31.376
-30.394
-29.425
-28.471
-27.537
-26.623
-25.732
-24.866
-24.026
-23.212
-22.427
-21.671
-20.944
-20.246
-19.579
-18.942
-18.335
-17.759
-17.213
-16.699
-16.215
-15.762
-15.34
-14.949
-14.587
-14.255
-13.952
-13.677
-13.429
-13.209
-13.014
-12.846
-12.703
-12.584
-12.49
-12.42
-12.374
-12.352
-12.351
-12.373
-12.418
-12.483
-12.571
-12.678
-12.806
-12.953
-13.119
-13.301
-13.499
-13.71
-13.932
-14.163
-14.4
-14.64
-14.879
-15.116
-15.347
-15.572
-15.789
-15.995
-16.189
-16.37
-16.536
-16.683
-16.808
-16.904
-16.967
-16.993
-16.978
-16.918
-16.811
-16.652
-16.442
-16.18
-15.865
-15.498
-15.072
-14.581
-14.023
-13.4
-12.722
-12.002
-11.251
-10.479
-9.698
-8.927
-8.176
-7.453
-6.755
-6.063
-5.372
-4.68
-3.996
-3.341
-2.722
-2.135
-1.572
-1.019
-0.461
0.107
0.708
1.376
2.126
2.96
3.857
4.765
5.651
6.503
7.322
8.128
8.929
9.717
10.484
11.218
11.905
12.533
13.072
13.471
13.703
13.76
13.661
13.465
13.206
12.89
12.503
11.999
11.338
10.482
9.394
8.037
6.385
4.426
2.156
-0.416
-3.297
-6.515
-10.109
-14.125
-18.619
-23.66
-29.224
-35.158
-41.198
-46.943
-52.016
-56.157
-59.064
-60.357
-59.807
-57.489
-53.825
-49.649
-45.787
-42.691
-40.748
-40.534
-42.388
-46.14
-51.011
-55.361
-57.328
-55.748
-49.429
-36.677
-16.211
12.896
50.174
92.669
137.311
181.819
225.23
268.873
312.686
352.952
382.017
387.627
358.832
292.373
193.529
75.2
-48.309
-170.458
-292.497
-416.851
-543.037
-661.182
-754.091
-810.219
-825.679
-806.374
-766.371
-715.188
-658.073
-596.731
-528.658
-454.85
-378.631
-303.708
-235.538
-177.668
-131.134
-96.076
-71.242
-54.804
-45.608
-42.039
-41.699
-42.321
-41.808
-38.926
-33.633
-26.32
-17.35
-7.358
2.735
11.881
18.893
23.185
24.891
24.371
22.143
18.747
14.676
10.535
7.018
4.558
3.306
3.267
4.293
6.252
9.073
12.628
16.756
21.316
26.174
31.222
36.386
41.578
46.692
51.624
56.268
60.533
64.375
67.778
70.75
73.318
75.514
77.374
78.949
80.301
81.489
82.568
83.586
84.583
85.608
86.707
87.928
89.315
90.894
92.678
94.673
96.876
99.285
101.89
104.677
107.625
110.716
113.934
117.265
120.696
124.211
127.79
131.414
135.063
138.718
142.361
145.973
149.537
153.034
156.447
159.758
162.954
166.016
168.929
171.675
174.237
176.599
178.747
180.667
182.345
183.771
184.933
185.825
186.439
186.77
186.815
186.571
186.038
185.216
184.107
182.714
181.042
179.098
176.888
174.422
171.71
168.762
165.591
162.21
158.635
154.88
150.96
146.894
142.697
138.387
133.981
129.499
124.958
120.377
115.772
111.164
106.569
102.004
97.486
93.032
88.657
84.375
80.2
76.146
72.224
68.447
64.824
61.365
58.08
54.975
52.057
49.331
46.802
44.473
42.345
40.42
38.697
37.176
35.854
34.727
33.793
33.045
32.479
32.087
31.862
31.796
31.881
32.109
32.468
32.95
33.546
34.244
35.036
35.91
36.856
37.865
38.926
40.03
41.166
42.325
43.499
44.679
45.857
47.025
48.177
49.307
50.408
51.477
52.507
53.496
54.439
55.335
56.182
56.978
57.723
58.416
59.058
59.649
60.191
60.685
61.131
61.533
61.892
62.21
62.489
62.732
62.94
63.118
63.268
63.392
63.494
63.576
63.642
63.691
63.728
63.753
63.768
63.774
63.771
63.762
63.746
63.724
63.696
63.661
63.618
63.567
63.507
63.435
63.351
63.254
63.142
63.015
62.873
62.716
62.544
62.357
62.159
61.948
61.726
61.494
61.251
60.998
60.735
60.462
60.181
59.892
59.599
59.304
59.013
58.732
58.466
58.22
57.998
57.805
57.647
57.526
57.446
57.41
57.422
57.489
57.623
57.831
58.112
58.466
58.883
59.351
59.86
60.397
60.945
61.491
62.031
62.566
63.111
63.68
64.279
64.906
65.548
66.193
66.845
67.508
68.189
68.906
69.674
70.515
71.469
72.558
73.78
75.115
76.517
77.93
79.322
80.67
81.961
83.189
84.34
85.408
86.39
87.273
88.035
88.641
89.032
89.167
89.048
88.699
88.169
87.522
86.793
86.011
85.2
84.365
83.494
82.552
81.486
80.242
78.795
77.138
75.283
73.245
70.992
68.461
65.59
62.297
58.525
54.249
49.411
43.935
37.904
31.518
25.077
19.026
13.695
9.251
5.987
4.263
4.162
5.553
7.975
10.589
12.859
14.642
15.612
15.315
13.718
11.152
8.594
7.729
9.763
15.278
25.231
40.916
63.152
92.437
127.502
165.103
202.967
239.335
274.025
308.739
342.03
369.631
383.482
371.956
328.615
253.983
156.117
48.686
-58.706
-163.596
-269.361
-379.092
-489.492
-589.76
-664.675
-704.989
-710.209
-687.445
-649.083
-603.257
-553.353
-499.808
-440.452
-375.997
-309.237
-243.526
-183.387
-131.686
-89.534
-57.277
-34.072
-18.745
-10.498
-7.95
-9.012
-11.591
-13.642
-13.906
-12.165
-8.529
-3.178
3.388
10.396
16.87
21.693
24.319
24.817
23.454
20.665
16.913
12.629
8.376
4.793
2.233
0.805
0.482
1.094
2.513
4.654
7.379
10.521
13.941
17.515
21.157
24.805
28.377
31.775
34.902
37.664
40.011
41.924
43.408
44.489
45.199
45.575
45.665
45.528
45.218
44.791
44.293
43.766
43.255
42.81
42.476
42.303
42.323
42.551
43.0
43.67
44.561
45.667
46.978
48.476
50.148
51.981
53.962
56.082
58.326
60.679
63.123
65.64
68.212
70.822
73.453
76.088
78.71
81.301
83.845
86.327
88.73
91.035
93.226
95.283
97.189
98.929
100.486
101.844
102.991
103.913
104.601
105.044
105.235
105.166
104.833
104.232
103.361
102.218
100.804
99.121
97.172
94.962
92.497
89.784
86.831
83.65
80.25
76.643
72.843
68.864
64.72
60.427
56.002
51.461
46.821
42.1
37.317
32.489
27.634
22.771
17.918
13.091
8.309
3.588
-1.056
-5.609
-10.054
-14.379
-18.57
-22.616
-26.505
-30.226
-33.772
-37.132
-40.301
-43.271
-46.039
-48.6
-50.951
-53.091
-55.018
-56.734
-58.241
-59.54
-60.635
-61.531
-62.234
-62.751
-63.087
-63.252
-63.253
-63.102
-62.806
-62.377
-61.825
-61.161
-60.396
-59.542
-58.608
-57.607
-56.55
-55.446
-54.307
-53.143
-51.963
-50.777
-49.593
-48.421
-47.268
-46.141
-45.048
-43.994
-42.986
-42.027
-41.123
-40.277
-39.492
-38.771
-38.116
-37.528
-37.008
-36.556
-36.172
-35.855
-35.603
-35.416
-35.291
-35.226
-35.218
-35.266
-35.365
-35.512
-35.706
-35.943
-36.22
-36.534
-36.882
-37.261
-37.668
-38.101
-38.558
-39.034
-39.53
-40.041
-40.565
-41.101
-41.647
-42.2
-42.758
-43.32
-43.883
-44.445
-45.005
-45.559
-46.107
-46.645
-47.171
-47.683
-48.18
-48.659
-49.117
-49.553
-49.963
-50.345
-50.696
-51.014
-51.295
-51.536
-51.733
-51.885
-51.987
-52.036
-52.03
-51.964
-51.837
-51.645
-51.387
-51.059
-50.661
-50.189
-49.645
-49.028
-48.339
-47.578
-46.748
-45.851
-44.893
-43.876
-42.805
-41.686
-40.525
-39.326
-38.097
-36.842
-35.57
-34.286
-32.997
-31.712
-30.439
-29.185
-27.96
-26.773
-25.631
-24.544
-23.518
-22.556
-21.662
-20.84
-20.094
-19.434
-18.862
-18.377
-17.981
-17.673
-17.448
-17.301
-17.219
-17.177
-17.153
-17.13
-17.093
-17.038
-16.957
-16.833
-16.654
-16.404
-16.075
-15.67
-15.189
-14.624
-13.978
-13.269
-12.542
-11.874
-11.334
-10.973
-10.836
-10.95
-11.357
-12.125
-13.314
-14.977
-17.157
-19.858
-23.125
-27.055
-31.655
-36.819
-42.302
-47.699
-52.65
-56.932
-60.285
-62.354
-62.909
-61.965
-59.875
-57.381
-55.198
-53.682
-53.098
-53.862
-56.2
-59.917
-64.295
-67.863
-68.994
-66.709
-60.101
-47.863
-28.914
-2.472
31.011
69.02
108.92
148.711
188.014
227.931
267.244
302.2
325.071
325.039
295.606
235.325
149.727
50.612
-53.48
-158.984
-267.683
-383.902
-505.825
-624.112
-723.949
-791.559
-821.419
-816.871
-788.151
-746.016
-696.64
-642.344
-582.37
-516.047
-445.719
-374.988
-308.25
-249.754
-201.512
-164.212
-137.626
-120.281
-110.642
-107.213
-107.816
-110.353
-113.009
-114.072
-112.782
-109.223
-103.664
-96.67
-89.131
-81.845
-75.679
-71.502
-69.545
-69.638
-71.461
-74.47
-78.122
-81.945
-85.388
-87.947
-89.398
-89.682
-88.864
-87.109
-84.542
-81.277
-77.469
-73.278
-68.845
-64.286
-59.695
-55.16
-50.784
-46.676
-42.946
-39.663
-36.859
-34.541
-32.694
-31.287
-30.287
-29.645
-29.301
-29.199
-29.283
-29.499
-29.804
-30.145
-30.469
-30.723
-30.854
-30.825
-30.613
-30.202
-29.587
-28.768
-27.749
-26.538
-25.152
-23.602
-21.9
-20.059
-18.085
-15.992
-13.796
-11.512
-9.158
-6.753
-4.31
-1.849
0.616
3.066
5.485
7.856
10.164
12.392
14.522
16.535
18.412
20.134
21.686
23.049
24.209
25.149
25.857
26.322
26.534
26.483
26.164
25.57
24.697
23.543
22.107
20.389
18.392
16.12
13.578
10.773
7.713
4.408
0.87
-2.891
-6.859
-11.02
-15.359
-19.86
-24.504
-29.274
-34.152
-39.118
-44.152
-49.235
-54.348
-59.469
-64.58
-69.661
-74.693
-79.658
-84.538
-89.315
-93.973
-98.497
-102.872
-107.084
-111.119
-114.968
-118.617
-122.058
-125.282
-128.281
-131.049
-133.581
-135.873
-137.922
-139.725
-141.282
-142.593
-143.66
-144.484
-145.068
-145.418
-145.538
-145.433
-145.11
-144.578
-143.843
-142.913
-141.799
-140.51
-139.054
-137.443
-135.685
-133.792
-131.773
-129.64
-127.402
-125.069
-122.651
-120.159
-117.601
-114.986
-112.324
-109.623
-106.891
-104.134
-101.362
-98.579
-95.794
-93.011
-90.235
-87.473
-84.728
-82.004
-79.305
-76.634
-73.994
-71.386
-68.814
-66.277
-63.778
-61.317
-58.895
-56.511
-54.166
-51.86
-49.593
-47.362
-45.169
-43.011
-40.888
-38.798
-36.742
-34.716
-32.722
-30.757
-28.82
-26.911
-25.03
-23.174
-21.344
-19.538
-17.756
-15.998
-14.263
-12.551
-10.861
-9.195
-7.551
-5.93
-4.331
-2.755
-1.202
0.329
1.838
3.324
4.789
6.232
7.655
9.056
10.436
11.796
13.136
14.456
15.757
17.04
18.304
19.552
20.785
22.003
23.208
24.401
25.584
26.758
27.926
29.089
30.249
31.408
32.57
33.736
34.909
36.09
37.283
38.487
39.704
40.935
42.179
43.436
44.705
45.983
47.269
48.562
49.86
51.159
52.456
53.751
55.04
56.319
57.586
58.834
60.059
61.254
62.416
63.538
64.616
65.643
66.615
67.524
68.368
69.142
69.841
70.46
70.989
71.425
71.768
72.022
72.193
72.291
72.324
72.303
72.251
72.183
72.118
72.071
72.049
72.061
72.119
72.234
72.428
72.712
73.082
73.534
74.055
74.622
75.218
75.815
76.355
76.788
77.061
77.115
76.916
76.43
75.613
74.443
72.878
70.867
68.385
65.404
61.908
57.93
53.462
48.465
43.032
37.338
31.663
26.463
22.107
18.83
16.945
16.822
18.628
22.282
27.331
32.804
37.811
41.797
44.22
44.56
42.616
38.633
33.542
29.187
27.47
29.956
38.257
53.836
77.918
110.704
150.537
194.758
240.417
285.917
332.173
379.262
424.216
460.322
475.701
458.945
405.824
319.599
211.045
93.681
-25.252
-145.436
-268.84
-395.819
-519.209
-624.234
-697.084
-730.754
-727.019
-696.13
-649.895
-595.595
-536.455
-472.174
-401.89
-327.801
-253.577
-183.635
-122.179
-71.169
-31.17
-1.804
18.44
31.102
37.663
40.224
40.775
41.05
42.694
46.393
52.029
59.309
67.688
76.334
84.51
91.395
96.13
98.492
98.682
97.048
94.146
90.528
86.654
83.07
80.332
78.709
78.289
79.035
80.777
83.387
86.758
90.738
95.158
99.87
104.742
109.669
114.57
119.349
123.902
128.131
131.943
135.29
138.156
140.549
142.499
144.042
145.221
146.092
146.72
147.166
147.492
147.749
147.985
148.248
148.589
149.055
149.694
150.535
151.595
152.883
154.399
156.142
158.105
160.276
162.637
165.174
167.87
170.713
173.692
176.791
179.992
183.278
186.627
190.022
193.446
196.879
200.304
203.702
207.056
210.347
213.561
216.68
219.685
222.559
225.285
227.844
230.221
232.402
234.371
236.117
237.627
238.892
239.904
240.657
241.144
241.361
241.307
240.981
240.382
239.513
238.378
236.981
235.328
233.427
231.286
228.916
226.328
223.533
220.544
217.374
214.039
210.552
206.929
203.186
199.337
195.4
191.39
187.324
183.216
179.084
174.941
170.805
166.688
162.604
158.568
154.592
150.688
146.868
143.141
139.517
136.006
132.615
129.352
126.222
123.23
120.381
117.677
115.123
112.717
110.462
108.357
106.401
104.592
102.927
101.403
100.016
98.762
97.634
96.628
95.737
94.955
94.274
93.687
93.187
92.766
92.416
92.128
91.895
91.708
91.559
91.44
91.343
91.261
91.185
91.11
91.028
90.933
90.82
90.682
90.516
90.315
90.077
89.798
89.474
89.104
88.685
88.216
87.696
87.123
86.499
85.822
85.094
84.315
83.486
82.61
81.689
80.723
79.717
78.672
77.591
76.479
75.337
74.169
72.978
71.768
70.541
69.301
68.05
66.793
65.532
64.268
63.005
61.745
60.49
59.241
58.0
56.767
55.545
54.333
53.132
51.942
50.763
49.596
48.439
47.292
46.154
45.025
43.904
42.789
41.679
40.575
39.473
38.374
37.277
36.182
35.086
33.992
32.897
31.802
30.706
29.61
28.514
27.419
26.326
25.234
24.147
23.065
21.991
20.926
19.874
18.835
17.813
16.811
15.831
14.877
13.952
13.058
12.198
11.376
10.595
9.857
9.165
8.519
7.921
7.371
6.869
6.415
6.006
5.641
5.317
5.032
4.784
4.568
4.381
4.22
4.082
3.96
3.851
3.749
3.646
3.538
3.418
3.281
3.119
2.926
2.695
2.426
2.115
1.759
1.353
0.889
0.363
-0.222
-0.863
-1.56
-2.305
-3.094
-3.914
-4.739
-5.547
-6.321
-7.047
-7.72
-8.335
-8.875
-9.326
-9.674
-9.91
-10.044
-10.084
-10.027
-9.883
-9.676
-9.446
-9.272
-9.233
-9.381
-9.771
-10.444
-11.433
-12.797
-14.596
-16.877
-19.688
-23.048
-26.956
-31.449
-36.569
-42.26
-48.361
-54.584
-60.517
-65.811
-70.226
-73.497
-75.293
-75.407
-73.9
-71.136
-67.82
-64.706
-62.178
-60.441
-59.978
-61.181
-63.93
-67.686
-70.686
-70.338
-65.147
-54.512
-39.298
-21.53
-2.125
19.378
46.167
81.845
127.85
183.754
243.407
297.441
336.631
349.938
329.767
275.144
189.893
83.948
-30.593
-147.259
-265.893
-389.016
-517.53
-644.753
-755.453
-833.869
-871.444
-869.142
-837.604
-790.579
-736.656
-679.497
-618.528
-551.643
-480.188
-407.521
-337.946
-275.983
-223.923
-182.53
-151.659
-129.985
-116.112
-108.765
-106.019
-105.938
-106.717
-106.503
-104.384
-100.302
-94.406
-87.139
-79.256
-71.468
-64.648
-59.769
-57.154
-56.674
-58.032
-60.676
-64.059
-67.705
-71.019
-73.418
-74.613
-74.508
-73.15
-70.712
-67.326
-63.106
-58.222
-52.854
-47.169
-41.303
-35.365
-29.454
-23.689
-18.196
-13.102
-8.491
-4.403
-0.854
2.17
4.696
6.754
8.395
9.682
10.673
11.428
12.002
12.444
12.81
13.159
13.546
14.031
14.656
15.444
16.412
17.569
18.915
20.446
22.155
24.025
26.046
28.205
30.495
32.907
35.431
38.052
40.756
43.528
46.352
49.214
52.101
54.997
57.889
60.762
63.601
66.394
69.125
71.778
74.335
76.779
79.092
81.259
83.261
85.085
86.714
88.136
89.34
90.313
91.049
91.537
91.773
91.749
91.462
90.91
90.091
89.005
87.654
86.04
84.167
82.041
79.667
77.054
74.21
71.145
67.871
64.398
60.741
56.913
52.927
48.801
44.549
40.187
35.734
31.205
26.617
21.989
17.338
12.68
8.032
3.411
-1.169
-5.691
-10.141
-14.506
-18.771
-22.924
-26.953
-30.848
-34.597
-38.192
-41.624
-44.884
-47.967
-50.865
-53.574
-56.089
-58.408
-60.527
-62.446
-64.163
-65.68
-66.997
-68.116
-69.041
-69.776
-70.325
-70.693
-70.888
-70.915
-70.782
-70.496
-70.067
-69.501
-68.809
-67.999
-67.08
-66.062
-64.953
-63.764
-62.503
-61.179
-59.803
-58.381
-56.924
-55.44
-53.937
-52.424
-50.908
-49.396
-47.897
-46.416
-44.96
-43.535
-42.146
-40.799
-39.497
-38.245
-37.046
-35.903
-34.818
-33.793
-32.829
-31.928
-31.089
-30.312
-29.597
-28.943
-28.349
-27.814
-27.337
-26.914
-26.545
-26.227
-25.957
-25.734
-25.554
-25.414
-25.313
-25.245
-25.21
-25.203
-25.221
-25.262
-25.322
-25.399
-25.489
-25.589
-25.698
-25.812
-25.929
-26.047
-26.164
-26.277
-26.385
-26.488
-26.582
-26.668
-26.743
-26.807
-26.858
-26.895
-26.917
-26.924
-26.912
-26.882
-26.833
-26.763
-26.672
-26.557
-26.42
-26.257
-26.069
-25.854
-25.611
-25.339
-25.036
-24.702
-24.335
-23.934
-23.499
-23.027
-22.518
-21.971
-21.385
-20.759
-20.092
-19.384
-18.634
-17.842
-17.01
-16.138
-15.229
-14.284
-13.307
-12.302
-11.272
-10.222
-9.157
-8.082
-7.001
-5.921
-4.845
-3.779
-2.729
-1.701
-0.7
0.265
1.189
2.065
2.887
3.647
4.338
4.954
5.494
5.954
6.333
6.626
6.824
6.925
6.932
6.847
6.671
6.41
6.072
5.672
5.235
4.787
4.35
3.941
3.569
3.243
2.98
2.796
2.708
2.726
2.845
3.062
3.381
3.795
4.28
4.791
5.249
5.571
5.694
5.559
5.117
4.334
3.151
1.502
-0.658
-3.376
-6.689
-10.594
-15.134
-20.376
-26.237
-32.526
-38.934
-45.006
-50.371
-54.827
-58.068
-59.694
-59.597
-57.903
-55.049
-51.878
-49.012
-46.594
-44.82
-44.217
-44.962
-46.704
-48.612
-48.69
-44.672
-36.041
-22.698
-4.761
15.937
39.573
67.426
99.938
139.261
185.261
235.311
286.037
330.88
362.618
373.113
353.933
302.313
221.149
118.72
6.966
-107.919
-226.112
-348.478
-475.098
-597.69
-700.312
-771.362
-805.155
-805.104
-783.178
-747.809
-703.336
-651.002
-588.275
-516.16
-438.784
-360.377
-286.408
-220.784
-165.31
-121.302
-88.791
-66.584
-53.25
-47.136
-45.976
-47.537
-49.694
-50.367
-48.509
-44.055
-37.273
-28.746
-19.364
-9.991
-1.638
4.608
8.329
9.617
8.783
6.387
2.988
-0.919
-4.738
-7.852
-9.911
-10.779
-10.468
-9.128
-6.887
-3.844
-0.138
4.071
8.641
13.452
18.405
23.422
28.419
33.295
37.954
42.304
46.271
49.814
52.923
55.612
57.905
59.84
61.456
62.804
63.944
64.932
65.82
66.656
67.48
68.338
69.275
70.335
71.556
72.964
74.57
76.377
78.385
80.588
82.978
85.539
88.254
91.105
94.077
97.157
100.331
103.583
106.897
110.252
113.629
117.012
120.382
123.722
127.015
130.242
133.388
136.437
139.373
142.18
144.842
147.341
149.662
151.789
153.708
155.405
156.867
158.083
159.043
159.74
160.166
160.318
160.19
159.781
159.091
158.118
156.867
155.339
153.54
151.476
149.154
146.582
143.771
140.732
137.476
134.016
130.367
126.543
122.559
118.431
114.176
109.81
105.351
100.815
96.221
91.586
86.926
82.261
77.605
72.977
68.391
63.863
59.407
55.038
50.768
46.611
42.577
38.677
34.921
31.318
27.876
24.601
21.5
18.577
15.837
13.282
10.914
8.733
6.741
4.936
3.315
1.877
0.618
-0.467
-1.382
-2.134
-2.728
-3.172
-3.472
-3.638
-3.676
-3.594
-3.403
-3.11
-2.723
-2.253
-1.707
-1.094
-0.422
0.299
1.064
1.863
2.689
3.536
4.396
5.264
6.135
7.002
7.862
8.709
9.54
10.352
11.141
11.906
12.644
13.354
14.034
14.684
15.303
15.891
16.448
16.975
17.472
17.94
18.381
18.794
19.182
19.545
19.885
20.204
20.501
20.779
21.039
21.28
21.504
21.711
21.903
22.079
22.239
22.383
22.513
22.627
22.725
22.806
22.871
22.918
22.946
22.955
22.944
22.911
22.855
22.777
22.674
22.546
22.392
22.212
22.004
21.768
21.504
21.213
20.893
20.547
20.175
19.779
19.36
18.92
18.462
17.987
17.5
17.003
16.5
15.993
15.485
14.98
14.482
13.995
13.521
13.063
12.627
12.217
11.839
11.499
11.202
10.95
10.748
10.6
10.51
10.481
10.514
10.608
10.764
10.986
11.277
11.64
12.073
12.563
13.104
13.688
14.309
14.957
15.622
16.288
16.948
17.604
18.258
18.913
19.565
20.196
20.792
21.34
21.832
22.279
22.679
23.026
23.323
23.574
23.79
23.989
24.166
24.29
24.34
24.295
24.149
23.918
23.612
23.247
22.832
22.363
21.848
21.297
20.709
20.074
19.381
18.609
17.77
16.902
16.035
15.193
14.379
13.579
12.773
11.925
11.001
9.964
8.764
7.359
5.718
3.819
1.658
-0.777
-3.532
-6.663
-10.226
-14.262
-18.766
-23.751
-29.253
-35.201
-41.441
-47.714
-53.627
-58.846
-63.146
-66.25
-67.805
-67.6
-65.656
-62.311
-58.258
-54.148
-50.319
-47.079
-44.936
-44.235
-44.874
-46.229
-46.949
-45.552
-41.187
-32.973
-19.533
0.281
27.343
61.192
99.313
139.244
179.046
218.38
258.422
297.719
332.244
353.96
351.432
317.772
251.52
158.535
51.353
-60.882
-174.38
-291.244
-416.102
-546.631
-672.51
-776.988
-844.353
-868.674
-853.695
-811.283
-754.679
-691.778
-625.908
-556.956
-484.068
-409.22
-336.353
-269.856
-213.704
-169.558
-137.026
-114.581
-100.061
-91.663
-87.461
-85.386
-83.52
-80.073
-74.218
-66.105
-56.239
-45.262
-34.012
-23.297
-13.998
-7.11
-3.001
-1.492
-2.216
-4.571
-7.959
-11.884
-15.749
-18.921
-21.022
-21.888
-21.494
-19.976
-17.451
-14.001
-9.767
-4.901
0.456
6.167
12.119
18.219
24.359
30.423
36.296
41.866
47.039
51.763
56.014
59.798
63.141
66.076
68.646
70.904
72.911
74.73
76.416
78.024
79.599
81.192
82.852
84.628
86.564
88.69
91.019
93.557
96.303
99.252
102.395
105.717
109.198
112.819
116.564
120.419
124.369
128.398
132.486
136.613
140.759
144.905
149.032
153.122
157.157
161.117
164.986
168.746
172.383
175.878
179.214
182.373
185.339
188.095
190.626
192.916
194.954
196.726
198.223
199.435
200.356
200.981
201.306
201.327
201.044
200.457
199.57
198.385
196.907
195.143
193.099
190.786
188.214
185.392
182.335
179.053
175.563
171.877
168.012
163.983
159.806
155.497
151.074
146.552
141.95
137.284
132.57
127.826
123.068
118.311
113.572
108.865
104.203
99.601
95.071
90.625
86.273
82.027
77.895
73.885
70.006
66.263
62.663
59.209
55.907
52.757
49.764
46.928
44.25
41.729
39.365
37.156
35.1
33.195
31.436
29.82
28.343
26.999
25.783
24.689
23.712
22.844
22.08
21.412
20.834
20.338
19.919
19.569
19.281
19.049
18.867
18.728
18.627
18.558
18.515
18.495
18.491
18.501
18.52
18.543
18.569
18.593
18.613
18.625
18.628
18.619
18.596
18.557
18.502
18.428
18.334
18.221
18.086
17.931
17.754
17.555
17.335
17.094
16.831
16.547
16.242
15.917
15.571
15.204
14.818
14.41
13.983
13.534
13.064
12.573
12.059
11.524
10.966
10.385
9.781
9.155
8.507
7.836
7.145
6.433
5.702
4.954
4.188
3.407
2.613
1.806
0.99
0.165
-0.666
-1.501
-2.337
-3.171
-4.0
-4.822
-5.633
-6.43
-7.209
-7.966
-8.697
-9.398
-10.065
-10.693
-11.278
-11.816
-12.302
-12.734
-13.107
-13.419
-13.667
-13.852
-13.971
-14.026
-14.017
-13.947
-13.816
-13.628
-13.383
-13.087
-12.741
-12.348
-11.914
-11.442
-10.939
-10.412
-9.869
-9.316
-8.762
-8.215
-7.681
-7.17
-6.69
-6.246
-5.846
-5.499
-5.215
-5.005
-4.878
-4.838
-4.884
-5.014
-5.223
-5.505
-5.845
-6.225
-6.628
-7.039
-7.446
-7.842
-8.213
-8.546
-8.824
-9.028
-9.145
-9.177
-9.125
-8.997
-8.813
-8.592
-8.376
-8.222
-8.183
-8.305
-8.638
-9.228
-10.126
-11.389
-13.064
-15.184
-17.781
-20.875
-24.488
-28.631
-33.3
-38.454
-44.051
-50.066
-56.382
-62.808
-69.073
-74.764
-79.486
-82.957
-84.798
-84.57
-82.194
-77.81
-71.826
-65.197
-58.689
-52.798
-48.373
-46.175
-46.232
-48.206
-51.114
-53.058
-52.526
-48.159
-37.87
-19.802
6.352
39.515
77.823
118.542
161.521
208.722
258.46
306.74
345.016
360.058
344.33
295.762
218.526
124.992
24.873
-76.637
-178.509
-286.331
-402.659
-522.961
-637.392
-729.961
-787.268
-805.068
-786.765
-743.219
-686.909
-625.48
-562.351
-497.595
-430.159
-361.545
-295.354
-235.6
-185.789
-147.276
-119.514
-100.998
-89.827
-84.387
-82.816
-83.167
-83.667
-82.663
-79.415
-74.037
-66.886
-58.501
-49.663
-41.11
-33.663
-28.221
-25.075
-24.048
-24.822
-26.862
-29.637
-32.701
-35.508
-37.518
-38.467
-38.276
-36.986
-34.759
-31.716
-27.957
-23.632
-18.904
-13.914
-8.79
-3.627
1.493
6.465
11.177
15.516
19.402
22.802
25.705
28.126
30.09
31.631
32.797
33.648
34.245
34.646
34.907
35.076
35.207
35.355
35.576
35.927
36.449
37.168
38.102
39.259
40.641
42.249
44.074
46.103
48.324
50.725
53.297
56.032
58.916
61.934
65.069
68.302
71.615
74.991
78.412
81.857
85.309
88.747
92.154
95.512
98.799
101.995
105.078
108.026
110.818
113.432
115.85
118.051
120.019
121.736
123.188
124.362
125.248
125.834
126.113
126.077
125.722
125.045
124.043
122.718
121.07
119.105
116.827
114.243
111.362
108.195
104.752
101.047
97.095
92.912
88.513
83.917
79.144
74.212
69.142
63.956
58.673
53.316
47.907
42.465
37.013
31.571
26.159
20.797
15.503
10.296
5.192
0.209
-4.638
-9.335
-13.869
-18.227
-22.397
-26.372
-30.14
-33.695
-37.031
-40.142
-43.025
-45.676
-48.094
-50.279
-52.233
-53.957
-55.455
-56.732
-57.793
-58.644
-59.293
-59.747
-60.016
-60.108
-60.034
-59.802
-59.425
-58.912
-58.274
-57.522
-56.668
-55.721
-54.693
-53.594
-52.434
-51.223
-49.972
-48.688
-47.382
-46.061
-44.735
-43.41
-42.094
-40.793
-39.514
-38.261
-37.04
-35.855
-34.709
-33.605
-32.546
-31.535
-30.572
-29.659
-28.797
-27.986
-27.226
-26.516
-25.857
-25.248
-24.687
-24.173
-23.706
-23.285
-22.907
-22.573
-22.281
-22.03
-21.818
-21.645
-21.508
-21.408
-21.342
-21.309
-21.309
-21.339
-21.4
-21.49
-21.608
-21.752
-21.923
-22.118
-22.337
-22.577
-22.838
-23.117
-23.413
-23.724
-24.048
-24.385
-24.73
-25.082
-25.439
-25.798
-26.156
-26.509
-26.854
-27.187
-27.506
-27.805
-28.082
-28.332
-28.551
-28.735
-28.882
-28.986
-29.044
-29.052
-29.007
-28.907
-28.748
-28.529
-28.248
-27.904
-27.499
-27.033
-26.507
-25.924
-25.286
-24.596
-23.856
-23.071
-22.245
-21.38
-20.481
-19.553
-18.603
-17.636
-16.661
-15.684
-14.709
-13.746
-12.801
-11.882
-10.997
-10.149
-9.343
-8.583
-7.877
-7.233
-6.66
-6.154
-5.713
-5.336
-5.015
-4.746
-4.517
-4.304
-4.085
-3.841
-3.554
-3.217
-2.822
-2.351
-1.789
-1.117
-0.322
0.585
1.594
2.703
3.895
5.146
6.412
7.616
8.683
9.545
10.134
10.394
10.277
9.73
8.704
7.143
4.998
2.251
-1.108
-5.058
-9.587
-14.717
-20.346
-26.245
-32.092
-37.445
-41.938
-45.369
-47.411
-47.626
-45.909
-42.361
-37.407
-31.976
-26.63
-21.615
-17.639
-15.448
-15.211
-16.265
-16.773
-14.423
-8.211
0.628
10.612
22.072
36.625
58.325
91.453
135.93
190.248
251.064
310.831
362.589
397.72
405.298
380.198
321.783
235.38
133.78
26.536
-80.879
-188.219
-301.557
-421.274
-541.612
-651.174
-733.026
-777.965
-785.474
-761.799
-719.857
-668.534
-611.72
-550.633
-483.681
-411.933
-338.859
-268.539
-205.501
-152.388
-110.142
-78.713
-56.829
-42.987
-35.809
-33.322
-33.495
-34.42
-34.179
-31.803
-27.227
-20.656
-12.559
-3.703
5.16
13.12
19.145
22.845
24.32
23.849
21.949
19.147
15.895
12.77
10.396
9.098
8.992
10.063
12.143
15.107
18.863
23.256
28.118
33.297
38.665
44.126
49.611
55.027
60.267
65.227
69.804
73.94
77.614
80.821
83.585
85.934
87.903
89.544
90.916
92.077
93.082
93.98
94.812
95.627
96.471
97.395
98.446
99.657
101.043
102.617
104.378
106.326
108.454
110.75
113.196
115.776
118.477
121.286
124.193
127.182
130.238
133.341
136.474
139.618
142.758
145.876
148.955
151.978
154.929
157.792
160.553
163.195
165.702
168.057
170.243
172.243
174.043
175.628
176.985
178.1
178.963
179.564
179.897
179.954
179.73
179.222
178.426
177.343
175.971
174.314
172.374
170.157
167.668
164.914
161.905
158.65
155.159
151.446
147.522
143.402
139.101
134.633
130.015
125.264
120.396
115.429
110.381
105.269
100.111
94.926
89.731
84.544
79.381
74.259
69.194
64.202
59.299
54.497
49.811
45.253
40.836
36.57
32.465
28.531
24.776
21.206
17.827
14.646
11.664
8.886
6.314
3.948
1.788
-0.166
-1.917
-3.468
-4.823
-5.985
-6.96
-7.755
-8.376
-8.83
-9.124
-9.268
-9.27
-9.138
-8.883
-8.513
-8.038
-7.469
-6.815
-6.085
-5.29
-4.438
-3.539
-2.601
-1.634
-0.644
0.36
1.371
2.382
3.387
4.381
5.357
6.311
7.238
8.136
8.999
9.826
10.614
11.361
12.065
12.724
13.338
13.906
14.428
14.903
15.333
15.717
16.055
16.35
16.602
16.811
16.979
17.107
17.197
17.248
17.263
17.242
17.187
17.097
16.973
16.817
16.629
16.409
16.158
15.875
15.563
15.221
14.85
14.451
14.025
13.573
13.096
12.596
12.074
11.531
10.97
10.392
9.799
9.195
8.58
7.959
7.335
6.71
6.089
5.474
4.87
4.281
3.711
3.163
2.643
2.156
1.705
1.296
0.934
0.622
0.364
0.165
0.026
-0.048
-0.056
0.001
0.125
0.315
0.57
0.889
1.271
1.711
2.209
2.759
3.359
4.005
4.69
5.407
6.149
6.909
7.679
8.451
9.216
9.967
10.694
11.388
12.043
12.65
13.203
13.691
14.103
14.432
14.675
14.833
14.909
14.908
14.834
14.699
14.519
14.311
14.091
13.874
13.665
13.476
13.32
13.21
13.168
13.207
13.325
13.518
13.777
14.087
14.431
14.784
15.087
15.288
15.335
15.166
14.744
14.026
12.964
11.527
9.669
7.335
4.502
1.142
-2.772
-7.214
-12.197
-17.77
-23.819
-30.141
-36.45
-42.281
-47.269
-51.21
-53.749
-54.455
-53.239
-50.213
-45.86
-41.203
-36.942
-33.384
-31.057
-30.485
-31.674
-34.316
-37.325
-38.674
-36.909
-31.015
-19.581
-1.308
24.755
58.545
98.039
140.332
182.958
225.607
269.771
314.523
356.455
387.385
394.898
371.467
314.86
230.151
129.85
23.194
-85.727
-198.402
-319.915
-449.388
-577.902
-690.087
-769.833
-809.162
-810.523
-784.502
-743.025
-693.726
-638.256
-574.366
-502.548
-425.883
-349.919
-281.756
-223.472
-175.281
-136.564
-104.87
-80.4
-63.295
-52.554
-47.226
-44.86
-43.024
-40.168
-35.421
-28.895
-21.009
-12.163
-3.047
5.604
12.963
18.114
20.758
21.072
19.393
16.261
12.225
7.762
3.458
-0.061
-2.46
-3.617
-3.536
-2.369
-0.235
2.786
6.55
10.888
15.653
20.702
25.919
31.223
36.502
41.635
46.504
50.988
55.018
58.569
61.636
64.241
66.414
68.192
69.625
70.78
71.717
72.496
73.173
73.793
74.41
75.078
75.851
76.784
77.911
79.253
80.818
82.608
84.619
86.846
89.274
91.882
94.651
97.567
100.614
103.78
107.049
110.4
113.813
117.267
120.741
124.215
127.671
131.088
134.447
137.727
140.912
143.985
146.926
149.715
152.334
154.763
156.983
158.977
160.728
162.22
163.439
164.373
165.011
165.345
165.369
165.075
164.461
163.525
162.265
160.683
158.783
156.567
154.041
151.214
148.094
144.691
141.018
137.086
132.911
128.507
123.892
119.083
114.096
108.952
103.67
98.269
92.768
87.19
81.553
75.878
70.185
64.494
58.824
53.195
47.624
42.128
36.723
31.426
26.251
21.211
16.319
11.587
7.025
2.643
-1.55
-5.548
-9.344
-12.933
-16.312
-19.477
-22.427
-25.162
-27.682
-29.988
-32.084
-33.972
-35.658
-37.145
-38.442
-39.553
-40.487
-41.251
-41.853
-42.304
-42.611
-42.785
-42.834
-42.769
-42.599
-42.333
-41.982
-41.553
-41.057
-40.501
-39.895
-39.246
-38.562
-37.851
-37.119
-36.373
-35.618
-34.861
-34.106
-33.357
-32.618
-31.894
-31.186
-30.497
-29.829
-29.184
-28.564
-27.968
-27.398
-26.853
-26.333
-25.838
-25.368
-24.92
-24.494
-24.09
-23.705
-23.34
-22.993
-22.663
-22.35
-22.053
-21.771
-21.505
-21.254
-21.019
-20.798
-20.593
-20.405
-20.233
-20.08
-19.945
-19.831
-19.739
-19.67
-19.625
-19.605
-19.612
-19.647
-19.711
-19.804
-19.928
-20.082
-20.269
-20.488
-20.739
-21.023
-21.339
-21.687
-22.064
-22.47
-22.902
-23.359
-23.837
-24.333
-24.843
-25.365
-25.893
-26.423
-26.951
-27.471
-27.977
-28.463
-28.924
-29.354
-29.746
-30.095
-30.397
-30.645
-30.837
-30.967
-31.034
-31.036
-30.97
-30.836
-30.632
-30.358
-30.014
-29.602
-29.122
-28.575
-27.965
-27.295
-26.57
-25.795
-24.978
-24.124
-23.239
-22.331
-21.407
-20.477
-19.549
-18.63
-17.727
-16.848
-16.005
-15.211
-14.473
-13.797
-13.183
-12.633
-12.145
-11.715
-11.334
-10.987
-10.658
-10.332
-9.997
-9.645
-9.266
-8.85
-8.381
-7.843
-7.222
-6.52
-5.741
-4.892
-3.987
-3.046
-2.105
-1.225
-0.465
0.11
0.429
0.442
0.091
-0.68
-1.913
-3.659
-5.972
-8.887
-12.436
-16.654
-21.519
-27.019
-33.173
-39.843
-46.808
-53.776
-60.284
-65.93
-70.488
-73.637
-74.971
-74.42
-72.088
-68.33
-64.044
-59.889
-56.06
-52.917
-50.956
-50.254
-50.571
-51.178
-49.866
-44.297
-33.871
-18.125
2.401
25.341
51.192
81.287
116.124
158.328
207.077
258.583
309.315
352.252
379.947
384.996
359.231
299.998
211.072
101.538
-16.654
-136.943
-259.783
-387.424
-519.502
-647.064
-753.261
-823.654
-851.918
-841.792
-805.843
-756.203
-699.537
-638.304
-571.211
-497.307
-419.244
-341.224
-268.224
-204.98
-153.739
-114.766
-87.334
-69.79
-60.378
-57.236
-57.9
-59.755
-60.502
-58.797
-54.321
-47.324
-38.351
-28.155
-17.732
-8.281
-1.037
3.399
5.08
4.34
1.753
-2.089
-6.638
-11.217
-15.102
-17.851
-19.296
-19.424
-18.386
-16.315
-13.293
-9.47
-5.021
-0.098
5.152
10.619
16.214
21.832
27.352
32.661
37.645
42.216
46.328
49.963
53.129
55.853
58.17
60.123
61.767
63.163
64.374
65.456
66.464
67.445
68.448
69.524
70.723
72.087
73.644
75.406
77.379
79.561
81.947
84.528
87.29
90.214
93.282
96.478
99.788
103.2
106.696
110.257
113.864
117.498
121.139
124.769
128.37
131.923
135.411
138.814
142.115
145.299
148.347
151.241
153.964
156.497
158.824
160.928
162.797
164.414
165.767
166.847
167.643
168.149
168.358
168.265
167.867
167.162
166.15
164.833
163.213
161.295
159.083
156.584
153.808
150.764
147.463
143.917
140.139
136.144
131.946
127.561
123.007
118.299
113.457
108.497
103.438
98.298
93.097
87.851
82.58
77.302
72.034
66.793
61.596
56.459
51.397
46.425
41.556
36.804
32.18
27.697
23.364
19.191
15.187
11.358
7.712
4.255
0.989
-2.08
-4.95
-7.62
-10.089
-12.357
-14.426
-16.297
-17.975
-19.461
-20.762
-21.881
-22.825
-23.599
-24.212
-24.669
-24.979
-25.149
-25.188
-25.104
-24.906
-24.602
-24.201
-23.711
-23.141
-22.5
-21.795
-21.035
-20.226
-19.377
-18.495
-17.587
-16.659
-15.717
-14.768
-13.817
-12.869
-11.928
-11.001
-10.089
-9.197
-8.329
-7.486
-6.673
-5.891
-5.142
-4.428
-3.751
-3.112
-2.511
-1.949
-1.428
-0.947
-0.506
-0.107
0.25
0.566
0.84
1.07
1.259
1.404
1.506
1.566
1.582
1.554
1.484
1.371
1.215
1.017
0.777
0.495
0.173
-0.187
-0.586
-1.02
-1.489
-1.989
-2.519
-3.076
-3.658
-4.261
-4.884
-5.522
-6.172
-6.831
-7.494
-8.158
-8.816
-9.466
-10.101
-10.716
-11.307
-11.867
-12.391
-12.875
-13.312
-13.697
-14.024
-14.289
-14.487
-14.613
-14.664
-14.636
-14.526
-14.334
-14.058
-13.699
-13.258
-12.737
-12.138
-11.464
-10.718
-9.904
-9.027
-8.092
-7.103
-6.067
-4.991
-3.883
-2.752
-1.607
-0.457
0.69
1.823
2.933
4.007
5.038
6.019
6.942
7.799
8.582
9.279
9.882
10.392
10.808
11.133
11.369
11.52
11.598
11.622
11.61
11.582
11.548
11.515
11.491
11.489
11.522
11.608
11.756
11.963
12.229
12.55
12.921
13.332
13.751
14.126
14.403
14.522
14.436
14.113
13.517
12.625
11.401
9.793
7.765
5.283
2.323
-1.117
-5.063
-9.576
-14.606
-19.982
-25.426
-30.524
-34.923
-38.411
-40.72
-41.5
-40.57
-38.01
-34.246
-30.092
-26.288
-23.192
-21.112
-20.5
-21.577
-24.108
-27.294
-29.582
-29.344
-25.608
-17.422
-3.43
17.409
45.792
81.105
120.747
162.124
203.129
243.17
283.239
322.13
356.344
378.465
377.45
346.234
283.19
194.149
91.509
-15.335
-123.072
-234.454
-353.143
-476.257
-592.214
-683.683
-738.636
-754.187
-736.961
-700.626
-654.42
-602.957
-547.336
-484.955
-416.722
-345.896
-276.154
-212.782
-159.2
-116.411
-84.55
-62.404
-48.189
-40.794
-38.686
-39.578
-41.314
-41.871
-40.023
-35.7
-29.255
-21.013
-11.581
-1.831
7.242
14.475
19.283
21.765
22.214
21.099
18.933
16.159
13.354
11.178
9.997
9.927
10.957
12.916
15.67
19.148
23.211
27.702
32.492
37.459
42.515
47.603
52.629
57.492
62.09
66.316
70.111
73.456
76.342
78.797
80.852
82.541
83.914
85.03
85.943
86.709
87.377
87.989
88.595
89.243
89.984
90.871
91.938
93.205
94.685
96.381
98.29
100.411
102.731
105.232
107.901
110.723
113.684
116.774
119.978
123.278
126.656
130.091
133.563
137.053
140.543
144.012
147.44
150.807
154.095
157.286
160.359
163.295
166.072
168.671
171.07
173.253
175.2
176.895
178.321
179.466
180.317
180.866
181.102
181.021
180.616
179.885
178.827
177.442
175.733
173.702
171.355
168.698
165.74
162.491
158.962
155.166
151.115
146.826
142.314
137.596
132.691
127.616
122.392
117.038
111.575
106.023
100.404
94.737
89.044
83.345
77.66
72.009
66.409
60.879
55.436
50.094
44.87
39.776
34.826
30.031
25.401
20.946
16.674
12.593
8.708
5.024
1.545
-1.727
-4.789
-7.642
-10.285
-12.721
-14.952
-16.982
-18.814
-20.455
-21.91
-23.186
-24.291
-25.232
-26.018
-26.658
-27.161
-27.537
-27.794
-27.941
-27.989
-27.945
-27.819
-27.619
-27.354
-27.03
-26.655
-26.237
-25.782
-25.296
-24.786
-24.256
-23.711
-23.156
-22.596
-22.034
-21.473
-20.917
-20.369
-19.83
-19.303
-18.79
-18.292
-17.811
-17.346
-16.899
-16.47
-16.06
-15.668
-15.294
-14.94
-14.604
-14.287
-13.989
-13.711
-13.454
-13.218
-13.004
-12.813
-12.646
-12.505
-12.39
-12.304
-12.247
-12.221
-12.228
-12.268
-12.344
-12.456
-12.604
-12.79
-13.013
-13.273
-13.571
-13.904
-14.273
-14.675
-15.11
-15.575
-16.069
-16.589
-17.133
-17.697
-18.279
-18.873
-19.477
-20.086
-20.694
-21.298
-21.892
-22.47
-23.027
-23.557
-24.054
-24.513
-24.926
-25.289
-25.596
-25.84
-26.016
-26.12
-26.148
-26.097
-25.964
-25.747
-25.447
-25.064
-24.6
-24.056
-23.434
-22.738
-21.97
-21.136
-20.24
-19.287
-18.282
-17.232
-16.147
-15.036
-13.907
-12.771
-11.636
-10.513
-9.41
-8.34
-7.31
-6.328
-5.405
-4.549
-3.772
-3.087
-2.502
-2.02
-1.64
-1.36
-1.175
-1.078
-1.056
-1.093
-1.174
-1.285
-1.415
-1.557
-1.699
-1.827
-1.926
-1.975
-1.963
-1.891
-1.759
-1.573
-1.351
-1.107
-0.873
-0.696
-0.617
-0.671
-0.897
-1.331
-2.015
-2.995
-4.306
-5.972
-8.017
-10.462
-13.329
-16.638
-20.393
-24.563
-29.126
-34.087
-39.35
-44.738
-49.976
-54.644
-58.376
-60.95
-62.06
-61.33
-58.727
-54.435
-48.938
-43.239
-38.061
-33.739
-30.859
-29.938
-30.898
-33.384
-36.338
-37.789
-36.419
-31.24
-20.681
-3.568
20.882
52.675
89.72
129.275
169.39
209.222
249.474
289.623
326.005
351.891
357.085
333.165
278.213
195.86
95.688
-12.513
-126.293
-246.546
-373.603
-503.529
-621.921
-711.284
-761.426
-770.702
-748.818
-710.763
-665.441
-617.032
-565.12
-506.305
-441.493
-373.88
-307.25
-246.75
-195.401
-153.935
-122.334
-99.34
-83.261
-73.107
-67.54
-64.577
-62.394
-59.284
-54.268
-47.406
-39.115
-29.743
-19.851
-10.219
-1.696
4.726
8.572
10.002
9.35
7.097
3.748
-0.248
-4.342
-7.902
-10.526
-12.059
-12.468
-11.87
-10.37
-8.023
-4.945
-1.278
2.85
7.309
12.0
16.844
21.751
26.611
31.321
35.772
39.871
43.569
46.842
49.692
52.142
54.221
55.964
57.419
58.643
59.693
60.624
61.481
62.307
63.146
64.047
65.057
66.219
67.562
69.098
70.835
72.771
74.903
77.222
79.713
82.356
85.132
88.027
91.024
94.112
97.273
100.489
103.74
107.006
110.268
113.509
116.71
119.854
122.921
125.896
128.762
131.504
134.107
136.553
138.825
140.908
142.787
144.447
145.874
147.058
147.986
148.65
149.043
149.16
148.996
148.549
147.817
146.801
145.502
143.924
142.07
139.947
137.56
134.918
132.03
128.905
125.556
121.994
118.232
114.285
110.166
105.891
101.476
96.937
92.29
87.553
82.743
77.876
72.97
68.043
63.11
58.189
53.296
48.445
43.653
38.932
34.297
29.76
25.333
21.028
16.854
12.822
8.94
5.216
1.657
-1.73
-4.94
-7.969
-10.813
-13.469
-15.936
-18.212
-20.298
-22.195
-23.904
-25.429
-26.773
-27.94
-28.936
-29.766
-30.438
-30.957
-31.332
-31.571
-31.682
-31.673
-31.555
-31.334
-31.022
-30.627
-30.159
-29.627
-29.039
-28.406
-27.735
-27.035
-26.315
-25.581
-24.843
-24.107
-23.379
-22.667
-21.975
-21.31
-20.676
-20.077
-19.516
-18.997
-18.521
-18.089
-17.703
-17.364
-17.072
-16.826
-16.625
-16.47
-16.357
-16.287
-16.255
-16.261
-16.302
-16.374
-16.474
-16.6
-16.748
-16.916
-17.101
-17.299
-17.51
-17.731
-17.96
-18.194
-18.433
-18.674
-18.916
-19.16
-19.403
-19.647
-19.892
-20.137
-20.385
-20.637
-20.893
-21.153
-21.42
-21.693
-21.973
-22.26
-22.554
-22.855
-23.162
-23.478
-23.802
-24.135
-24.48
-24.836
-25.208
-25.595
-25.996
-26.41
-26.835
-27.266
-27.7
-28.13
-28.553
-28.962
-29.353
-29.721
-30.066
-30.383
-30.666
-30.909
-31.1
-31.232
-31.305
-31.316
-31.265
-31.16
-31.009
-30.832
-30.651
-30.476
-30.314
-30.166
-30.019
-29.869
-29.706
-29.52
-29.309
-29.071
-28.797
-28.489
-28.143
-27.742
-27.263
-26.662
-25.89
-24.923
-23.751
-22.38
-20.836
-19.145
-17.341
-15.479
-13.592
-11.711
-9.857
-8.033
-6.246
-4.527
-2.912
-1.46
-0.243
0.701
1.351
1.7
1.769
1.577
1.165
0.599
-0.076
-0.837
-1.676
-2.623
-3.703
-4.914
-6.264
-7.748
-9.347
-11.068
-12.916
-14.881
-16.991
-19.284
-21.818
-24.678
-27.929
-31.573
-35.623
-40.108
-44.944
-49.971
-54.922
-59.356
-62.902
-65.339
-66.353
-65.557
-62.919
-58.624
-53.181
-47.657
-42.837
-39.114
-37.146
-37.517
-40.141
-44.575
-49.584
-52.93
-53.033
-48.666
-38.023
-19.676
7.284
42.627
83.91
128.089
172.788
217.396
262.508
306.097
343.74
367.329
366.175
334.695
272.134
184.119
82.51
-24.194
-132.055
-242.576
-360.896
-485.965
-609.228
-715.423
-787.83
-818.63
-809.898
-772.224
-719.788
-662.018
-602.974
-542.4
-478.138
-410.581
-342.335
-277.597
-220.858
-174.146
-137.911
-111.42
-92.777
-80.838
-74.564
-72.006
-71.394
-71.028
-69.23
-65.493
-60.068
-53.061
-44.883
-36.3
-27.944
-20.689
-15.456
-12.44
-11.45
-12.195
-14.158
-16.837
-19.814
-22.535
-24.437
-25.253
-24.888
-23.381
-20.903
-17.569
-13.477
-8.77
-3.606
1.874
7.547
13.314
19.098
24.805
30.332
35.578
40.445
44.879
48.858
52.387
55.491
58.201
60.554
62.601
64.398
66.002
67.469
68.846
70.177
71.508
72.887
74.362
75.98
77.771
79.752
81.933
84.313
86.892
89.663
92.614
95.728
98.989
102.384
105.9
109.527
113.25
117.051
120.913
124.817
128.744
132.677
136.599
140.49
144.332
148.107
151.797
155.387
158.856
162.187
165.361
168.357
171.158
173.746
176.104
178.216
180.068
181.646
182.94
183.939
184.636
185.023
185.096
184.85
184.285
183.4
182.195
180.674
178.841
176.7
174.26
171.528
168.516
165.233
161.694
157.911
153.9
149.677
145.258
140.661
135.905
131.007
125.988
120.866
115.662
110.394
105.084
99.75
94.412
89.089
83.798
78.558
73.385
68.295
63.304
58.426
53.674
49.061
44.599
40.298
36.168
32.218
28.455
24.884
21.512
18.343
15.378
12.62
10.068
7.724
5.584
3.647
1.91
0.367
-0.987
-2.156
-3.148
-3.97
-4.63
-5.136
-5.496
-5.72
-5.816
-5.794
-5.664
-5.434
-5.114
-4.713
-4.241
-3.707
-3.119
-2.486
-1.816
-1.116
-0.396
0.34
1.084
1.829
2.572
3.306
4.028
4.732
5.417
6.079
6.715
7.323
7.901
8.448
8.964
9.446
9.895
10.311
10.694
11.043
11.359
11.643
11.895
12.116
12.307
12.468
12.6
12.703
12.778
12.826
12.847
12.841
12.808
12.75
12.664
12.552
12.413
12.245
12.05
11.825
11.569
11.283
10.965
10.614
10.23
9.812
9.36
8.874
8.354
7.8
7.213
6.595
5.945
5.266
4.559
3.826
3.07
2.292
1.497
0.687
-0.135
-0.963
-1.795
-2.625
-3.449
-4.263
-5.062
-5.839
-6.591
-7.31
-7.993
-8.632
-9.222
-9.758
-10.234
-10.646
-10.989
-11.26
-11.456
-11.573
-11.613
-11.574
-11.456
-11.261
-10.989
-10.643
-10.225
-9.738
-9.187
-8.575
-7.907
-7.19
-6.429
-5.634
-4.812
-3.971
-3.119
-2.264
-1.414
-0.58
0.232
1.013
1.758
2.458
3.104
3.685
4.193
4.627
4.988
5.279
5.503
5.666
5.779
5.86
5.925
5.989
6.066
6.163
6.292
6.464
6.697
7.007
7.407
7.898
8.474
9.131
9.857
10.635
11.435
12.202
12.885
13.431
13.782
13.896
13.724
13.216
12.339
11.052
9.309
7.082
4.342
1.056
-2.761
-7.104
-12.002
-17.339
-22.917
-28.471
-33.56
-37.792
-40.945
-42.709
-42.686
-40.824
-37.262
-32.405
-27.23
-22.491
-18.473
-15.614
-14.477
-15.144
-17.312
-20.124
-21.201
-18.039
-9.818
4.147
23.588
46.39
72.695
103.304
138.503
180.575
229.596
282.706
334.906
378.013
402.337
398.719
362.753
295.172
202.877
97.653
-12.222
-123.048
-236.213
-355.728
-479.647
-599.179
-700.412
-769.867
-801.855
-798.916
-770.218
-726.28
-673.593
-615.224
-551.301
-481.385
-407.749
-333.823
-263.773
-201.905
-150.335
-109.764
-79.967
-59.424
-46.584
-40.012
-37.611
-37.344
-37.439
-36.217
-32.955
-27.784
-21.002
-13.151
-5.075
2.483
8.706
12.74
14.373
13.824
11.46
7.857
3.586
-0.872
-4.96
-8.12
-10.079
-10.749
-10.166
-8.497
-5.869
-2.391
1.784
6.485
11.561
16.875
22.313
27.785
33.181
38.389
43.302
47.825
51.905
55.523
58.684
61.416
63.756
65.745
67.438
68.898
70.185
71.358
72.47
73.57
74.706
75.929
77.285
78.819
80.558
82.515
84.695
87.095
89.708
92.523
95.524
98.689
102.0
105.439
108.989
112.636
116.361
120.143
123.961
127.794
131.62
135.421
139.176
142.866
146.471
149.972
153.35
156.589
159.669
162.572
165.279
167.771
170.031
172.042
173.79
175.261
176.442
177.322
177.894
178.15
178.086
177.697
176.982
175.94
174.574
172.885
170.878
168.56
165.938
163.02
159.818
156.342
152.606
148.623
144.409
139.979
135.35
130.54
125.566
120.447
115.202
109.85
104.411
98.905
93.35
87.766
82.172
76.587
71.028
65.514
60.06
54.682
49.396
44.215
39.154
34.223
29.436
24.8
20.328
16.025
11.9
7.96
4.208
0.65
-2.712
-5.875
-8.839
-11.602
-14.167
-16.533
-18.704
-20.682
-22.472
-24.078
-25.505
-26.759
-27.846
-28.773
-29.548
-30.178
-30.67
-31.033
-31.275
-31.404
-31.429
-31.358
-31.2
-30.961
-30.652
-30.278
-29.848
-29.369
-28.849
-28.292
-27.706
-27.096
-26.468
-25.827
-25.178
-24.524
-23.87
-23.219
-22.574
-21.939
-21.315
-20.706
-20.113
-19.538
-18.983
-18.448
-17.935
-17.445
-16.979
-16.536
-16.118
-15.725
-15.356
-15.011
-14.691
-14.395
-14.123
-13.874
-13.649
-13.447
-13.27
-13.116
-12.986
-12.88
-12.799
-12.744
-12.714
-12.711
-12.735
-12.787
-12.868
-12.978
-13.118
-13.288
-13.489
-13.721
-13.983
-14.275
-14.596
-14.945
-15.321
-15.722
-16.147
-16.595
-17.063
-17.549
-18.052
-18.568
-19.096
-19.633
-20.174
-20.718
-21.259
-21.795
-22.32
-22.831
-23.324
-23.792
-24.232
-24.639
-25.007
-25.331
-25.606
-25.827
-25.988
-26.086
-26.115
-26.074
-25.959
-25.768
-25.499
-25.154
-24.732
-24.235
-23.666
-23.025
-22.315
-21.54
-20.703
-19.807
-18.857
-17.856
-16.812
-15.73
-14.62
-13.489
-12.346
-11.199
-10.058
-8.93
-7.827
-6.756
-5.724
-4.741
-3.816
-2.959
-2.183
-1.498
-0.905
-0.406
0.003
0.328
0.576
0.761
0.902
1.017
1.123
1.233
1.354
1.501
1.689
1.932
2.254
2.667
3.169
3.76
4.432
5.166
5.942
6.723
7.449
8.067
8.529
8.779
8.77
8.45
7.756
6.64
5.064
2.991
0.393
-2.759
-6.489
-10.804
-15.666
-21.034
-26.885
-33.093
-39.452
-45.67
-51.297
-55.915
-59.279
-61.07
-60.88
-58.649
-54.517
-48.89
-42.747
-36.858
-31.532
-27.249
-24.614
-23.722
-24.291
-25.49
-25.017
-20.46
-10.963
4.184
24.796
48.844
76.247
107.613
143.149
185.132
234.089
287.74
341.315
386.326
412.052
407.877
368.338
294.243
193.613
79.662
-38.355
-156.845
-278.256
-407.034
-540.376
-667.823
-772.931
-840.726
-866.015
-852.554
-811.497
-755.221
-691.08
-622.581
-550.342
-474.138
-396.258
-320.687
-251.699
-193.327
-147.431
-113.76
-90.857
-76.563
-69.052
-66.345
-66.278
-66.736
-65.642
-61.957
-55.713
-47.332
-37.417
-26.795
-16.288
-6.879
0.259
4.631
6.344
5.715
3.343
-0.183
-4.374
-8.611
-12.201
-14.735
-16.033
-16.069
-15.0
-12.955
-10.016
-6.329
-2.055
2.663
7.69
12.921
18.271
23.644
28.926
34.01
38.785
43.161
47.088
50.545
53.544
56.112
58.288
60.115
61.648
62.95
64.084
65.108
66.076
67.033
68.03
69.117
70.345
71.76
73.392
75.255
77.355
79.692
82.261
85.053
88.054
91.242
94.599
98.109
101.755
105.524
109.399
113.359
117.384
121.45
125.538
129.627
133.697
137.727
141.696
145.584
149.37
153.037
156.564
159.931
163.118
166.103
168.867
171.392
173.661
175.657
177.366
178.774
179.872
180.65
181.101
181.218
180.999
180.441
179.544
178.307
176.735
174.83
172.6
170.05
167.19
164.031
160.583
156.859
152.875
148.645
144.185
139.513
134.648
129.607
124.41
119.078
113.63
108.088
102.473
96.804
91.104
85.393
79.69
74.016
68.389
62.828
57.349
51.969
46.704
41.569
36.577
31.741
27.073
22.584
18.284
14.181
10.282
6.595
3.123
-0.129
-3.159
-5.964
-8.545
-10.901
-13.036
-14.95
-16.648
-18.136
-19.417
-20.5
-21.392
-22.1
-22.633
-23.001
-23.214
-23.281
-23.213
-23.021
-22.715
-22.306
-21.804
-21.221
-20.566
-19.851
-19.085
-18.278
-17.439
-16.579
-15.705
-14.825
-13.948
-13.081
-12.23
-11.401
-10.6
-9.831
-9.099
-8.408
-7.76
-7.159
-6.606
-6.102
-5.649
-5.246
-4.893
-4.59
-4.336
-4.128
-3.966
-3.848
-3.771
-3.733
-3.732
-3.766
-3.833
-3.929
-4.054
-4.203
-4.375
-4.567
-4.778
-5.004
-5.243
-5.495
-5.758
-6.031
-6.313
-6.603
-6.901
-7.208
-7.522
-7.844
-8.174
-8.514
-8.862
-9.221
-9.591
-9.973
-10.369
-10.778
-11.203
-11.643
-12.099
-12.57
-13.058
-13.56
-14.075
-14.603
-15.142
-15.691
-16.248
-16.813
-17.386
-17.965
-18.549
-19.138
-19.73
-20.321
-20.908
-21.484
-22.043
-22.578
-23.085
-23.557
-23.99
-24.379
-24.72
-25.011
-25.25
-25.432
-25.553
-25.603
-25.576
-25.471
-25.291
-25.045
-24.745
-24.402
-24.028
-23.64
-23.25
-22.862
-22.477
-22.083
-21.663
-21.214
-20.737
-20.244
-19.748
-19.246
-18.731
-18.193
-17.612
-16.972
-16.255
-15.427
-14.464
-13.364
-12.134
-10.816
-9.456
-8.08
-6.698
-5.307
-3.9
-2.49
-1.096
0.267
1.575
2.807
3.934
4.902
5.67
6.222
6.564
6.736
6.789
6.74
6.586
6.306
5.881
5.303
4.57
3.662
2.551
1.219
-0.345
-2.119
-4.074
-6.216
-8.576
-11.214
-14.193
-17.539
-21.223
-25.215
-29.538
-34.135
-38.865
-43.483
-47.58
-50.782
-52.873
-53.638
-52.771
-50.166
-45.925
-40.383
-34.4
-28.823
-24.085
-20.583
-18.832
-19.073
-21.095
-24.265
-26.554
-25.261
-19.258
-7.898
8.634
28.468
52.025
80.715
115.165
157.324
206.245
258.517
310.543
355.197
384.593
390.373
363.889
302.987
212.252
101.543
-16.69
-136.03
-257.432
-383.405
-513.637
-639.118
-742.708
-809.857
-834.454
-820.845
-782.436
-731.969
-676.421
-617.894
-554.355
-484.445
-410.452
-336.148
-266.311
-205.251
-154.773
-115.399
-86.757
-67.341
-55.702
-50.369
-49.121
-49.847
-50.714
-50.01
-47.006
-41.802
-34.649
-26.104
-17.082
-8.392
-0.924
4.423
7.416
8.244
7.239
4.953
1.946
-1.313
-4.269
-6.375
-7.376
-7.199
-5.893
-3.633
-0.546
3.26
7.636
12.422
17.475
22.673
27.914
33.122
38.2
43.047
47.568
51.672
55.309
58.466
61.151
63.395
65.234
66.711
67.878
68.796
69.527
70.127
70.65
71.14
71.644
72.212
72.891
73.729
74.754
75.984
77.426
79.08
80.942
83.007
85.262
87.688
90.27
92.993
95.843
98.81
101.878
105.03
108.246
111.506
114.793
118.088
121.372
124.627
127.834
130.973
134.028
136.981
139.814
142.509
145.046
147.405
149.57
151.522
153.247
154.727
155.95
156.903
157.575
157.958
158.044
157.826
157.3
156.464
155.315
153.854
152.082
150.002
147.618
144.936
141.964
138.71
135.185
131.4
127.368
123.103
118.619
113.932
109.059
104.017
98.824
93.499
88.06
82.527
76.92
71.257
65.559
59.845
54.133
48.443
42.792
37.198
31.679
26.25
20.926
15.723
10.655
5.733
0.971
-3.62
-8.031
-12.253
-16.278
-20.099
-23.71
-27.108
-30.288
-33.25
-35.99
-38.511
-40.812
-42.895
-44.765
-46.424
-47.878
-49.132
-50.193
-51.067
-51.763
-52.288
-52.651
-52.862
-52.929
-52.863
-52.673
-52.369
-51.96
-51.457
-50.869
-50.207
-49.478
-48.692
-47.858
-46.985
-46.079
-45.149
-44.202
-43.244
-42.281
-41.32
-40.364
-39.419
-38.49
-37.579
-36.69
-35.826
-34.989
-34.182
-33.406
-32.664
-31.955
-31.281
-30.643
-30.04
-29.474
-28.943
-28.449
-27.99
-27.567
-27.179
-26.827
-26.51
-26.228
-25.982
-25.771
-25.595
-25.455
-25.35
-25.282
-25.249
-25.253
-25.294
-25.372
-25.487
-25.639
-25.828
-26.054
-26.316
-26.613
-26.944
-27.307
-27.701
-28.124
-28.574
-29.047
-29.543
-30.058
-30.59
-31.134
-31.687
-32.245
-32.805
-33.362
-33.91
-34.445
-34.963
-35.458
-35.925
-36.359
-36.754
-37.106
-37.41
-37.66
-37.853
-37.983
-38.047
-38.041
-37.965
-37.815
-37.59
-37.292
-36.921
-36.479
-35.969
-35.394
-34.757
-34.064
-33.318
-32.526
-31.693
-30.825
-29.928
-29.01
-28.077
-27.14
-26.207
-25.285
-24.383
-23.509
-22.674
-21.885
-21.152
-20.477
-19.864
-19.319
-18.849
-18.461
-18.161
-17.945
-17.81
-17.753
-17.77
-17.855
-17.997
-18.169
-18.352
-18.527
-18.681
-18.813
-18.915
-18.973
-18.972
-18.894
-18.731
-18.491
-18.181
-17.797
-17.342
-16.833
-16.303
-15.818
-15.45
-15.246
-15.247
-15.477
-15.954
-16.722
-17.835
-19.342
-21.286
-23.686
-26.535
-29.874
-33.785
-38.242
-43.106
-48.088
-52.747
-56.716
-59.763
-61.608
-61.881
-60.406
-57.257
-52.854
-48.135
-43.972
-40.88
-39.404
-40.086
-43.109
-48.226
-54.505
-60.067
-63.067
-61.979
-55.022
-40.551
-17.186
15.086
54.136
97.2
141.557
186.86
234.716
283.488
328.515
360.277
365.564
337.512
275.242
185.202
81.643
-25.781
-131.847
-236.159
-344.827
-457.964
-569.632
-669.555
-742.691
-781.117
-785.119
-760.69
-719.213
-668.622
-612.523
-552.2
-486.626
-417.105
-346.855
-279.634
-219.703
-169.462
-129.731
-100.419
-80.173
-67.522
-61.152
-59.12
-59.478
-60.418
-60.117
-57.694
-53.151
-46.688
-38.765
-30.137
-21.492
-13.686
-7.704
-3.895
-2.159
-2.229
-3.605
-5.791
-8.376
-10.824
-12.556
-13.274
-12.873
-11.378
-8.961
-5.745
-1.824
2.655
7.532
12.664
17.929
23.236
28.521
33.699
38.676
43.356
47.648
51.5
54.895
57.836
60.35
62.468
64.228
65.682
66.888
67.904
68.786
69.582
70.334
71.088
71.893
72.795
73.843
75.069
76.49
78.118
79.956
82.001
84.251
86.694
89.312
92.093
95.022
98.087
101.276
104.577
107.97
111.437
114.959
118.517
122.093
125.668
129.223
132.737
136.194
139.573
142.859
146.031
149.07
151.956
154.67
157.192
159.505
161.591
163.434
165.019
166.333
167.365
168.105
168.546
168.681
168.506
168.016
167.212
166.094
164.664
162.927
160.887
158.553
155.933
153.037
149.876
146.464
142.815
138.944
134.868
130.603
126.169
121.583
116.865
112.036
107.116
102.124
97.082
92.009
86.926
81.852
76.807
71.809
66.875
62.023
57.269
52.627
48.112
43.736
39.511
35.446
31.553
27.838
24.309
20.971
17.83
14.889
12.15
9.616
7.286
5.161
3.239
1.516
-0.009
-1.343
-2.489
-3.454
-4.244
-4.867
-5.328
-5.636
-5.799
-5.826
-5.724
-5.501
-5.167
-4.729
-4.197
-3.576
-2.876
-2.102
-1.262
-0.362
0.592
1.595
2.642
3.727
4.846
5.993
7.164
8.355
9.561
10.778
12.001
13.228
14.455
15.68
16.901
18.113
19.315
20.503
21.677
22.833
23.966
25.072
26.147
27.185
28.185
29.143
30.053
30.912
31.714
32.455
33.134
33.745
34.279
34.728
35.08
35.331
35.485
35.544
35.503
35.364
35.125
34.791
34.369
33.859
33.249
32.528
31.683
30.71
29.618
28.414
27.105
25.689
24.15
22.485
20.696
18.779
16.725
14.522
12.144
9.598
6.92
4.139
1.289
-1.61
-4.559
-7.549
-10.565
-13.59
