-92.604
-97.492
-100.944
-103.722
-106.085
-108.03
-109.534
-110.585
-111.332
-111.958
-112.549
-113.156
-113.818
-114.554
-115.369
-116.237
-117.102
-117.906
-118.592
-119.133
-119.515
-119.724
-119.75
-119.58
-119.195
-118.589
-117.772
-116.747
-115.523
-114.109
-112.511
-110.75
-108.857
-106.869
-104.825
-102.754
-100.678
-98.618
-96.592
-94.616
-92.706
-90.87
-89.111
-87.436
-85.852
-84.366
-82.986
-81.719
-80.567
-79.535
-78.626
-77.836
-77.16
-76.593
-76.12
-75.732
-75.412
-75.14
-74.899
-74.673
-74.448
-74.213
-73.957
-73.663
-73.314
-72.895
-72.387
-71.789
-71.104
-70.338
-69.514
-68.662
-67.814
-67.026
-66.352
-65.832
-65.516
-65.453
-65.678
-66.236
-67.172
-68.507
-70.285
-72.54
-75.297
-78.584
-82.392
-86.675
-91.413
-96.594
-102.132
-107.869
-113.534
-118.745
-123.192
-126.66
-128.893
-129.565
-128.467
-125.676
-121.626
-117.052
-112.658
-108.851
-105.981
-104.595
-105.095
-107.101
-109.413
-110.398
-108.324
-102.767
-94.331
-82.818
-67.912
-48.67
-23.391
8.575
47.078
91.099
138.288
184.651
225.231
254.953
267.922
258.712
223.568
160.55
71.516
-36.701
-157.327
-287.45
-418.63
-537.734
-653.167
-784.973
-909.537
-973.573
-968.424
-929.688
-885.852
-842.028
-788.996
-723.878
-657.548
-595.463
-534.029
-471.905
-410.538
-352.137
-299.125
-253.908
-218.02
-190.82
-171.35
-158.403
-149.631
-143.217
-137.629
-131.175
-123.311
-114.209
-103.843
-92.538
-80.988
-69.789
-59.813
-51.954
-46.447
-43.162
-41.707
-41.773
-43.134
-45.046
-46.861
-47.484
-45.62
-41.726
-36.694
-31.599
-28.303
-26.622
-25.022
-22.519
-17.473
-9.598
-0.683
8.202
15.973
21.858
26.765
31.237
35.405
39.605
43.518
46.89
49.838
52.356
54.506
56.403
58.066
59.526
60.852
62.097
63.3
64.503
65.757
67.105
68.591
70.258
72.126
74.2
76.488
78.988
81.694
84.601
87.693
90.95
94.356
97.896
101.554
105.319
109.171
113.092
117.06
121.056
125.058
129.046
133.0
136.898
140.719
144.442
148.047
151.516
154.829
157.965
160.904
163.628
166.116
168.352
170.321
172.005
173.391
174.469
175.227
175.657
175.753
175.51
174.923
173.992
172.715
171.094
169.133
166.835
164.207
161.257
157.994
154.429
150.573
146.441
142.046
137.406
132.536
127.454
122.179
116.729
111.126
105.388
99.536
93.592
87.576
81.51
75.413
69.307
63.212
57.147
51.132
45.184
39.322
33.563
27.922
22.414
17.055
11.856
6.83
1.988
-2.661
-7.108
-11.345
-15.367
-19.17
-22.749
-26.102
-29.23
-32.131
-34.808
-37.264
-39.502
-41.528
-43.347
-44.966
-46.394
-47.638
-48.709
-49.616
-50.368
-50.979
-51.457
-51.815
-52.065
-52.217
-52.284
-52.276
-52.205
-52.082
-51.916
-51.718
-51.497
-51.261
-51.021
-50.782
-50.551
-50.336
-50.14
-49.969
-49.827
-49.716
-49.638
-49.595
-49.586
-49.613
-49.673
-49.766
-49.888
-50.039
-50.214
-50.41
-50.622
-50.847
-51.08
-51.316
-51.549
-51.776
-51.992
-52.192
-52.373
-52.531
-52.662
-52.764
-52.835
-52.87
-52.87
-52.832
-52.755
-52.639
-52.485
-52.292
-52.063
-51.8
-51.506
-51.184
-50.837
-50.47
-50.086
-49.691
-49.288
-48.883
-48.481
-48.086
-47.703
-47.338
-46.997
-46.685
-46.405
-46.161
-45.958
-45.797
-45.68
-45.608
-45.579
-45.594
-45.652
-45.752
-45.894
-46.076
-46.296
-46.552
-46.845
-47.168
-47.517
-47.884
-48.262
-48.642
-49.014
-49.37
-49.698
-49.989
-50.234
-50.428
-50.566
-50.642
-50.645
-50.562
-50.387
-50.114
-49.744
-49.273
-48.702
-48.037
-47.29
-46.485
-45.646
-44.788
-43.918
-43.034
-42.136
-41.226
-40.306
-39.378
-38.427
-37.441
-36.411
-35.337
-34.223
-33.06
-31.812
-30.428
-28.862
-27.086
-25.092
-22.881
-20.442
-17.779
-14.908
-11.866
-8.72
-5.529
-2.331
0.853
4.005
7.089
10.03
12.735
15.13
17.153
18.758
19.897
20.498
20.514
19.937
18.791
17.14
15.031
12.476
9.474
6.016
2.113
-2.193
-6.837
-11.774
-16.95
-22.326
-27.842
-33.394
-38.907
-44.313
-49.59
-54.8
-59.889
-64.688
-68.962
-72.354
-74.554
-75.431
-74.761
-72.212
-67.801
-61.741
-54.48
-46.951
-39.837
-33.461
-28.408
-25.263
-23.849
-23.453
-22.865
-20.11
-14.415
-6.447
3.398
14.822
28.352
46.087
70.609
103.535
145.139
193.912
244.547
289.802
322.582
335.157
322.413
283.012
217.667
130.788
29.207
-81.823
-199.258
-321.134
-442.265
-559.156
-678.16
-784.875
-836.349
-827.548
-798.939
-766.719
-719.456
-658.672
-593.575
-526.544
-459.342
-394.07
-331.607
-273.685
-221.18
-174.649
-135.543
-104.526
-81.675
-66.892
-59.074
-56.052
-55.625
-55.924
-55.333
-53.295
-49.955
-45.286
-39.56
-33.462
-27.589
-22.741
-19.756
-18.776
-19.58
-21.87
-25.127
-28.843
-32.593
-35.834
-38.063
-39.066
-38.795
-37.326
-34.842
-31.477
-27.349
-22.62
-17.462
-12.03
-6.461
-0.86
4.681
10.057
15.161
19.89
24.178
27.999
31.357
34.28
36.805
38.973
40.838
42.464
43.91
45.239
46.507
47.763
49.057
50.444
51.973
53.693
55.638
57.825
60.263
62.951
65.885
69.054
72.446
76.039
79.816
83.759
87.854
92.084
96.433
100.878
105.398
109.969
114.571
119.18
123.775
128.334
132.833
137.252
141.567
145.758
149.803
153.677
157.357
160.819
164.041
167.001
169.679
172.053
174.106
175.822
177.187
178.187
178.812
179.052
178.9
178.351
177.4
176.046
174.289
172.131
169.576
166.629
163.299
159.594
155.527
151.109
146.357
141.285
135.912
130.256
124.339
118.181
111.804
105.233
98.491
91.604
84.596
77.493
70.321
63.107
55.875
48.652
41.463
34.332
27.283
20.342
13.529
6.868
0.381
-5.914
-11.995
-17.844
-23.445
-28.78
-33.836
-38.597
-43.053
-47.192
-51.004
-54.482
-57.617
-60.405
-62.84
-64.922
-66.647
-68.015
-69.028
-69.688
-69.998
-69.963
-69.588
-68.879
-67.845
-66.494
-64.833
-62.875
-60.628
-58.106
-55.318
-52.279
-49.0
-45.496
-41.78
-37.866
-33.769
-29.503
-25.082
-20.521
-15.836
-11.039
-6.146
-1.172
3.87
8.965
14.1
19.261
24.436
29.61
34.772
39.909
45.009
50.062
55.056
59.98
64.824
69.579
74.235
78.783
83.215
87.523
91.701
95.741
99.638
103.387
106.982
110.419
113.695
116.807
119.752
122.527
125.132
127.565
129.826
131.914
133.831
135.578
137.155
138.564
139.808
140.889
141.81
142.575
143.187
143.651
143.97
144.15
144.196
144.113
143.908
143.585
143.151
142.611
141.973
141.243
140.425
139.528
138.556
137.517
136.415
135.257
134.049
132.796
131.504
130.179
128.825
127.447
126.051
124.64
123.22
121.795
120.369
118.946
117.531
116.127
114.738
113.367
112.018
110.694
109.397
108.13
106.896
105.695
104.531
103.404
102.316
101.268
100.261
99.297
98.375
97.498
96.666
95.879
95.137
94.44
93.79
93.187
92.629
92.118
91.652
91.232
90.857
90.525
90.236
89.986
89.775
89.598
89.453
89.334
89.24
89.164
89.103
89.053
89.008
88.965
88.919
88.868
88.807
88.732
88.639
88.525
88.383
88.212
88.007
87.764
87.481
87.152
86.775
86.353
85.885
85.373
84.814
84.206
83.548
82.848
82.112
81.345
80.556
79.754
78.956
78.188
77.475
76.838
76.291
75.84
75.493
75.265
75.17
75.221
75.426
75.774
76.256
76.872
77.612
78.452
79.351
80.232
81.015
81.645
82.069
82.248
82.153
81.726
80.903
79.635
77.866
75.577
72.771
69.401
65.406
60.833
55.83
50.688
45.825
41.551
38.056
35.582
34.425
34.745
36.457
39.145
42.052
44.527
46.322
47.226
46.862
45.096
42.133
38.856
37.095
38.519
44.082
54.047
67.807
84.743
104.48
126.945
153.38
184.953
221.965
263.792
306.346
343.766
370.589
380.661
369.386
334.646
275.254
193.227
94.253
-16.496
-134.175
-255.423
-378.427
-495.525
-603.563
-703.503
-772.638
-789.747
-773.412
-744.363
-699.326
-637.883
-568.037
-495.701
-424.796
-357.56
-295.402
-238.675
-186.66
-139.8
-99.296
-66.284
-41.655
-25.387
-16.38
-12.409
-11.007
-10.175
-8.292
-4.775
0.184
6.549
14.038
21.945
29.63
36.228
40.819
43.191
43.532
42.123
39.466
36.067
32.356
28.894
26.246
24.68
24.281
25.005
26.68
29.182
32.417
36.234
40.471
44.986
49.647
54.355
59.039
63.607
67.958
71.992
75.615
78.776
81.465
83.69
85.483
86.882
87.927
88.675
89.191
89.536
89.771
89.95
90.116
90.321
90.614
91.047
91.669
92.511
93.589
94.912
96.481
98.293
100.342
102.615
105.091
107.754
110.588
113.58
116.717
119.981
123.354
126.814
130.341
133.913
137.511
141.115
144.702
148.254
151.748
155.165
158.487
161.692
164.758
167.665
170.39
172.912
175.212
177.27
179.067
180.588
181.816
182.737
183.341
183.616
183.552
183.144
182.384
181.268
179.794
177.961
175.769
173.22
170.319
167.07
163.481
159.56
155.317
150.764
145.914
140.781
135.381
129.73
123.845
117.746
111.452
104.983
98.36
91.606
84.741
77.788
70.769
63.706
56.623
49.54
42.48
35.463
28.512
21.645
14.883
8.244
1.748
-4.59
-10.751
-16.721
-22.486
-28.031
-33.345
-38.417
-43.237
-47.796
-52.087
-56.106
-59.846
-63.306
-66.483
-69.378
-71.991
-74.324
-76.38
-78.166
-79.685
-80.945
-81.953
-82.718
-83.249
-83.557
-83.652
-83.546
-83.25
-82.778
-82.141
-81.353
-80.427
-79.375
-78.213
-76.952
-75.606
-74.188
-72.711
-71.187
-69.628
-68.047
-66.454
-64.86
-63.275
-61.709
-60.17
-58.668
-57.209
-55.801
-54.45
-53.162
-51.942
-50.795
-49.725
-48.735
-47.829
-47.007
-46.274
-45.628
-45.072
-44.607
-44.231
-43.944
-43.747
-43.638
-43.615
-43.678
-43.825
-44.052
-44.359
-44.743
-45.2
-45.73
-46.328
-46.991
-47.718
-48.504
-49.347
-50.243
-51.189
-52.182
-53.219
-54.295
-55.408
-56.554
-57.729
-58.93
-60.154
-61.395
-62.652
-63.92
-65.196
-66.475
-67.754
-69.03
-70.298
-71.556
-72.8
-74.026
-75.231
-76.412
-77.566
-78.689
-79.78
-80.836
-81.853
-82.831
-83.767
-84.659
-85.507
-86.308
-87.063
-87.771
-88.43
-89.042
-89.605
-90.12
-90.589
-91.012
-91.39
-91.725
-92.019
-92.274
-92.493
-92.678
-92.832
-92.957
-93.055
-93.13
-93.184
-93.219
-93.239
-93.245
-93.239
-93.224
-93.203
-93.176
-93.144
-93.109
-93.071
-93.031
-92.988
-92.941
-92.889
-92.83
-92.766
-92.693
-92.611
-92.518
-92.411
-92.288
-92.146
-91.982
-91.791
-91.566
-91.303
-90.994
-90.638
-90.229
-89.763
-89.236
-88.644
-87.987
-87.265
-86.479
-85.622
-84.69
-83.679
-82.589
-81.43
-80.207
-78.924
-77.585
-76.199
-74.776
-73.333
-71.878
-70.407
-68.918
-67.406
-65.875
-64.341
-62.818
-61.315
-59.838
-58.381
-56.945
-55.547
-54.188
-52.859
-51.547
-50.224
-48.883
-47.548
-46.232
-44.941
-43.674
-42.413
-41.154
-39.9
-38.653
-37.42
-36.197
-34.965
-33.728
-32.512
-31.349
-30.287
-29.348
-28.523
-27.822
-27.279
-26.922
-26.795
-26.923
-27.319
-28.018
-29.057
-30.478
-32.323
-34.598
-37.289
-40.393
-43.9
-47.803
-52.119
-56.799
-61.793
-67.114
-72.669
-78.287
-83.731
-88.588
-92.508
-95.299
-96.681
-96.316
-94.19
-90.476
-85.655
-80.679
-76.161
-72.38
-69.852
-69.008
-69.837
-71.808
-73.385
-72.461
-67.612
-58.612
-46.204
-30.827
-12.55
9.386
37.22
71.967
113.345
160.241
208.173
251.401
285.04
303.28
301.452
277.049
227.954
155.406
64.453
-39.122
-149.192
-262.606
-378.306
-491.783
-603.551
-714.476
-800.287
-836.078
-835.338
-817.646
-781.438
-727.628
-664.867
-597.611
-527.214
-456.103
-387.773
-324.934
-269.591
-222.482
-182.683
-149.664
-122.927
-102.208
-88.022
-79.47
-74.74
-71.835
-68.338
-63.053
-55.986
-47.304
-37.42
-26.967
-16.508
-6.877
0.877
6.32
9.512
10.695
10.351
8.947
6.848
4.573
2.712
1.61
1.424
2.152
3.609
5.648
8.169
11.039
14.128
17.318
20.501
23.603
26.591
29.445
32.141
34.641
36.891
38.854
40.515
41.914
43.141
44.281
45.408
46.579
47.839
49.248
50.856
52.692
54.751
56.998
59.404
61.968
64.701
67.615
70.707
73.942
77.262
80.628
84.011
87.387
90.74
94.043
97.277
100.448
103.588
106.743
109.943
113.199
116.509
119.866
123.269
126.722
130.231
133.785
137.369
140.967
144.565
148.152
151.709
155.203
158.592
161.828
164.871
167.691
170.265
172.568
174.579
176.278
177.65
178.689
179.387
179.736
179.729
179.358
178.618
177.511
176.042
174.218
172.045
169.529
166.681
163.509
160.025
156.24
152.166
147.816
143.203
138.343
133.256
127.962
122.479
116.83
111.037
105.123
99.11
93.022
86.88
80.708
74.527
68.36
62.227
56.149
50.146
44.237
38.441
32.775
27.254
21.896
16.712
11.717
6.922
2.337
-2.029
-6.168
-10.074
-13.743
-17.169
-20.352
-23.289
-25.982
-28.433
-30.644
-32.619
-34.365
-35.888
-37.195
-38.295
-39.197
-39.91
-40.445
-40.813
-41.024
-41.089
-41.02
-40.829
-40.527
-40.127
-39.638
-39.073
-38.442
-37.756
-37.025
-36.259
-35.467
-34.657
-33.837
-33.015
-32.197
-31.39
-30.598
-29.827
-29.081
-28.362
-27.673
-27.016
-26.393
-25.804
-25.25
-24.729
-24.242
-23.787
-23.362
-22.967
-22.599
-22.256
-21.935
-21.634
-21.35
-21.081
-20.823
-20.575
-20.333
-20.096
-19.861
-19.625
-19.387
-19.144
-18.896
-18.64
-18.376
-18.101
-17.817
-17.521
-17.214
-16.895
-16.564
-16.223
-15.871
-15.51
-15.139
-14.761
-14.376
-13.985
-13.589
-13.19
-12.79
-12.388
-11.987
-11.588
-11.192
-10.8
-10.413
-10.033
-9.66
-9.296
-8.94
-8.594
-8.258
-7.933
-7.62
-7.318
-7.028
-6.751
-6.486
-6.234
-5.995
-5.769
-5.555
-5.354
-5.165
-4.988
-4.822
-4.667
-4.523
-4.389
-4.264
-4.15
-4.044
-3.946
-3.857
-3.776
-3.702
-3.636
-3.577
-3.525
-3.481
-3.444
-3.414
-3.391
-3.376
-3.369
-3.368
-3.375
-3.388
-3.407
-3.432
-3.461
-3.494
-3.529
-3.566
-3.604
-3.641
-3.677
-3.709
-3.738
-3.76
-3.776
-3.782
-3.777
-3.759
-3.726
-3.676
-3.606
-3.515
-3.399
-3.257
-3.084
-2.878
-2.636
-2.356
-2.033
-1.665
-1.25
-0.784
-0.267
0.303
0.926
1.603
2.333
3.114
3.945
4.825
5.751
6.722
7.734
8.786
9.875
10.998
12.151
13.331
14.53
15.743
16.966
18.192
19.416
20.632
21.832
23.011
24.164
25.286
26.371
27.412
28.399
29.325
30.189
30.993
31.741
32.439
33.093
33.716
34.327
34.944
35.583
36.259
36.977
37.745
38.573
39.473
40.462
41.549
42.727
43.989
45.319
46.691
48.086
49.466
50.763
51.919
52.875
53.563
53.952
53.995
53.641
52.859
51.6
49.814
47.481
44.575
41.091
37.065
32.501
27.398
21.87
16.1
10.358
5.027
0.396
-3.34
-5.927
-7.051
-6.522
-4.404
-1.091
2.75
6.536
9.966
12.769
14.475
14.706
13.761
12.739
13.182
16.64
23.425
32.754
44.324
58.062
74.662
95.838
123.034
156.987
197.39
242.338
287.281
326.387
353.796
363.009
349.329
310.511
246.131
159.843
58.2
-52.921
-169.252
-288.659
-407.346
-522.416
-639.928
-747.76
-805.877
-807.398
-787.523
-760.151
-715.431
-654.549
-585.802
-513.908
-442.188
-373.715
-310.564
-253.125
-200.902
-153.993
-113.264
-79.986
-55.067
-38.498
-29.227
-24.984
-23.231
-21.951
-19.585
-15.46
-9.852
-3.326
3.899
11.607
19.866
29.527
40.14
49.831
56.745
58.176
52.988
43.836
34.263
28.027
28.07
33.26
40.718
48.206
53.709
57.405
60.956
65.105
70.32
76.566
83.089
89.594
96.055
102.341
108.44
114.284
119.694
124.589
128.962
132.803
136.134
138.995
141.431
143.499
145.273
146.815
148.175
149.402
150.539
151.632
152.728
153.875
155.117
156.483
157.99
159.645
161.451
163.405
165.501
167.728
170.069
172.51
175.038
177.643
180.316
183.042
185.808
188.597
191.393
194.18
196.944
199.67
202.343
204.948
207.471
209.898
212.216
214.412
216.469
218.374
220.111
221.665
223.023
224.171
225.098
225.792
226.244
226.445
226.388
226.067
225.479
224.619
223.486
222.079
220.398
218.445
216.223
213.735
210.988
207.988
204.741
201.258
197.546
193.617
189.481
185.151
180.64
175.959
171.124
166.148
161.046
155.833
150.523
145.132
139.676
134.169
128.626
123.063
117.493
111.931
106.39
100.883
95.422
90.02
84.687
79.433
74.269
69.204
64.245
59.401
54.677
50.08
45.615
41.286
37.096
33.049
29.145
25.387
21.775
18.309
14.987
11.81
8.774
5.877
3.117
0.49
-2.008
-4.381
-6.634
-8.77
-10.795
-12.714
-14.532
-16.253
-17.884
-19.428
-20.891
-22.277
-23.592
-24.838
-26.022
-27.145
-28.212
-29.226
-30.19
-31.106
-31.977
-32.805
-33.592
-34.339
-35.048
-35.719
-36.355
-36.955
-37.52
-38.052
-38.549
-39.014
-39.446
-39.845
-40.213
-40.549
-40.853
-41.127
-41.371
-41.585
-41.77
-41.927
-42.057
-42.161
-42.24
-42.296
-42.329
-42.342
-42.338
-42.316
-42.281
-42.234
-42.178
-42.115
-42.047
-41.977
-41.908
-41.842
-41.781
-41.728
-41.685
-41.654
-41.637
-41.635
-41.65
-41.684
-41.737
-41.81
-41.904
-42.019
-42.157
-42.316
-42.497
-42.699
-42.924
-43.169
-43.434
-43.719
-44.023
-44.343
-44.68
-45.031
-45.396
-45.772
-46.159
-46.555
-46.958
-47.368
-47.783
-48.201
-48.622
-49.045
-49.469
-49.893
-50.317
-50.74
-51.164
-51.588
-52.013
-52.439
-52.866
-53.296
-53.728
-54.163
-54.603
-55.046
-55.493
-55.944
-56.399
-56.858
-57.322
-57.789
-58.259
-58.733
-59.208
-59.685
-60.161
-60.636
-61.106
-61.571
-62.028
-62.475
-62.908
-63.325
-63.723
-64.096
-64.443
-64.757
-65.034
-65.27
-65.459
-65.598
-65.68
-65.702
-65.661
-65.552
-65.374
-65.124
-64.803
-64.408
-63.941
-63.401
-62.788
-62.105
-61.353
-60.534
-59.649
-58.703
-57.698
-56.64
-55.537
-54.393
-53.217
-52.015
-50.795
-49.564
-48.332
-47.106
-45.893
-44.702
-43.543
-42.427
-41.367
-40.374
-39.452
-38.605
-37.832
-37.128
-36.49
-35.906
-35.359
-34.835
-34.32
-33.804
-33.279
-32.736
-32.162
-31.547
-30.87
-30.12
-29.297
-28.402
-27.448
-26.458
-25.454
-24.475
-23.582
-22.828
-22.267
-21.954
-21.932
-22.243
-22.944
-24.07
-25.66
-27.747
-30.356
-33.509
-37.212
-41.446
-46.165
-51.314
-56.84
-62.617
-68.438
-74.015
-78.974
-82.993
-85.864
-87.326
-87.037
-84.938
-81.154
-76.057
-70.441
-64.837
-59.498
-54.944
-51.654
-49.709
-48.695
-47.261
-43.562
-36.365
-25.605
-12.291
2.892
19.685
38.824
63.112
94.382
133.398
179.988
229.47
275.32
310.371
325.812
315.613
277.288
212.239
127.09
30.451
-70.495
-173.224
-278.08
-383.614
-491.535
-601.351
-690.622
-735.783
-747.282
-742.576
-719.313
-677.589
-625.232
-565.993
-503.007
-440.167
-379.992
-323.94
-271.821
-223.009
-177.801
-137.375
-103.314
-76.621
-57.482
-45.202
-37.976
-33.83
-30.998
-27.839
-23.654
-18.377
-12.119
-5.236
2.096
9.508
16.814
23.788
29.307
32.913
34.005
31.923
28.091
23.716
19.904
18.18
18.179
19.347
21.517
24.119
27.283
31.235
35.784
40.818
46.181
51.69
57.294
62.958
68.583
74.065
79.306
84.207
88.706
92.781
96.429
99.67
102.537
105.071
107.317
109.335
111.179
112.903
114.553
116.172
117.803
119.493
121.29
123.242
125.38
127.719
130.268
133.026
135.989
139.148
142.489
145.992
149.638
153.41
157.294
161.275
165.337
169.46
173.621
177.799
181.972
186.122
190.226
194.263
198.214
202.059
205.778
209.353
212.765
215.995
219.022
221.826
224.389
226.694
228.723
230.462
231.895
233.012
233.801
234.255
234.367
234.132
233.546
232.608
231.318
229.678
227.691
225.363
222.7
219.71
216.404
212.793
208.89
204.709
200.264
195.574
190.654
185.523
180.2
174.705
169.057
163.276
157.384
151.4
145.345
139.24
133.105
126.958
120.82
114.709
108.641
102.634
96.702
90.86
85.122
79.5
74.005
68.647
63.435
58.376
53.476
48.74
44.172
39.773
35.546
31.49
27.603
23.884
20.329
16.933
13.692
10.6
7.65
4.834
2.146
-0.423
-2.88
-5.236
-7.498
-9.675
-11.776
-13.809
-15.783
-17.705
-19.582
-21.423
-23.233
-25.019
-26.785
-28.537
-30.278
-32.012
-33.741
-35.466
-37.188
-38.908
-40.624
-42.334
-44.037
-45.73
-47.409
-49.069
-50.707
-52.318
-53.895
-55.435
-56.93
-58.376
-59.767
-61.096
-62.359
-63.55
-64.664
-65.696
-66.642
-67.497
-68.258
-68.922
-69.486
-69.947
-70.305
-70.559
-70.708
-70.752
-70.694
-70.534
-70.276
-69.922
-69.477
-68.944
-68.33
-67.639
-66.879
-66.055
-65.175
-64.246
-63.276
-62.273
-61.244
-60.197
-59.141
-58.083
-57.03
-55.99
-54.971
-53.979
-53.02
-52.103
-51.231
-50.412
-49.65
-48.95
-48.316
-47.752
-47.261
-46.847
-46.511
-46.254
-46.079
-45.985
-45.971
-46.038
-46.184
-46.405
-46.699
-47.063
-47.491
-47.98
-48.523
-49.116
-49.752
-50.425
-51.129
-51.856
-52.6
-53.354
-54.11
-54.861
-55.599
-56.317
-57.007
-57.661
-58.273
-58.835
-59.339
-59.779
-60.147
-60.438
-60.642
-60.756
-60.771
-60.684
-60.488
-60.179
-59.755
-59.212
-58.548
-57.764
-56.86
-55.837
-54.699
-53.447
-52.086
-50.619
-49.051
-47.387
-45.634
-43.796
-41.881
-39.896
-37.85
-35.754
-33.617
-31.449
-29.26
-27.06
-24.859
-22.669
-20.497
-18.354
-16.25
-14.194
-12.199
-10.279
-8.443
-6.696
-5.041
-3.475
-1.993
-0.59
0.745
2.03
3.276
4.497
5.701
6.892
8.08
9.273
10.482
11.727
13.015
14.347
15.719
17.12
18.525
19.915
21.254
22.486
23.568
24.456
25.106
25.488
25.568
25.303
24.666
23.627
22.16
20.243
17.852
14.979
11.631
7.842
3.645
-0.94
-5.814
-10.801
-15.644
-19.993
-23.547
-26.129
-27.491
-27.301
-25.519
-22.301
-18.066
-13.675
-9.694
-6.38
-4.245
-3.77
-5.013
-7.54
-9.941
-10.215
-7.003
-0.033
10.074
22.918
38.409
57.151
81.202
111.668
148.827
192.53
238.911
282.449
317.424
335.852
331.58
301.25
243.257
161.819
64.827
-39.873
-145.721
-250.854
-356.418
-462.324
-564.156
-653.035
-719.868
-758.092
-767.564
-753.341
-720.455
-674.547
-619.609
-558.284
-494.875
-432.467
-372.964
-317.252
-264.654
-215.457
-170.592
-131.569
-100.346
-77.163
-61.498
-52.246
-47.045
-44.076
-41.901
-39.073
-35.179
-30.159
-24.135
-17.667
-11.031
-4.649
1.317
7.123
12.0
15.231
16.14
13.416
7.801
1.337
-4.378
-7.09
-6.165
-3.226
0.703
4.469
7.256
9.958
13.049
16.559
20.757
25.218
29.583
33.884
37.988
41.825
45.383
48.542
51.221
53.427
55.169
56.47
57.374
57.93
58.194
58.236
58.124
57.913
57.65
57.383
57.157
57.019
57.018
57.197
57.587
58.206
59.063
60.16
61.497
63.067
64.859
66.857
69.045
71.408
73.934
76.611
79.423
82.351
85.377
88.479
91.638
94.835
98.049
101.26
104.449
107.595
110.679
113.683
116.589
119.375
122.022
124.511
126.823
128.941
130.848
132.529
133.969
135.157
136.083
136.738
137.115
137.209
137.015
136.533
135.762
134.703
133.358
131.734
129.834
127.668
125.244
122.572
119.663
116.532
113.191
109.655
105.941
102.064
98.042
93.892
89.632
85.28
80.854
76.372
71.853
67.314
62.773
58.247
53.751
49.302
44.915
40.603
36.38
32.258
28.249
24.361
20.606
16.991
13.523
10.209
7.055
4.064
1.24
-1.416
-3.901
-6.216
-8.362
-10.34
-12.152
-13.802
-15.293
-16.631
-17.821
-18.868
-19.778
-20.558
-21.215
-21.757
-22.19
-22.522
-22.761
-22.914
-22.989
-22.994
-22.934
-22.818
-22.651
-22.442
-22.195
-21.916
-21.612
-21.287
-20.947
-20.595
-20.235
-19.872
-19.508
-19.146
-18.788
-18.436
-18.091
-17.756
-17.43
-17.115
-16.81
-16.515
-16.231
-15.956
-15.691
-15.435
-15.186
-14.943
-14.707
-14.476
-14.249
-14.024
-13.802
-13.582
-13.361
-13.141
-12.92
-12.698
-12.474
-12.247
-12.018
-11.786
-11.551
-11.313
-11.071
-10.827
-10.58
-10.33
-10.078
-9.824
-9.569
-9.312
-9.054
-8.796
-8.537
-8.279
-8.021
-7.764
-7.507
-7.252
-6.997
-6.743
-6.489
-6.236
-5.982
-5.728
-5.473
-5.217
-4.959
-4.698
-4.434
-4.167
-3.895
-3.619
-3.338
-3.051
-2.76
-2.462
-2.158
-1.849
-1.534
-1.214
-0.888
-0.559
-0.226
0.11
0.448
0.787
1.125
1.46
1.792
2.119
2.438
2.748
3.047
3.334
3.605
3.86
4.097
4.313
4.509
4.681
4.829
4.952
5.049
5.117
5.158
5.171
5.156
5.112
5.041
4.944
4.821
4.674
4.506
4.317
4.11
3.889
3.655
3.412
3.165
2.916
2.67
2.431
2.203
1.989
1.794
1.62
1.472
1.351
1.259
1.198
1.169
1.174
1.212
1.285
1.391
1.531
1.704
1.91
2.148
2.415
2.708
3.024
3.359
3.71
4.073
4.444
4.816
5.186
5.547
5.897
6.233
6.552
6.847
7.109
7.335
7.525
7.681
7.808
7.91
7.991
8.065
8.151
8.266
8.431
8.658
8.951
9.317
9.763
10.305
10.959
11.732
12.621
13.614
14.698
15.863
17.09
18.335
19.537
20.624
21.522
22.18
22.557
22.611
22.312
21.609
20.439
18.758
16.528
13.733
10.386
6.47
1.939
-3.129
-8.542
-13.995
-19.066
-23.429
-26.901
-29.234
-30.108
-29.347
-27.05
-23.659
-19.926
-16.484
-13.616
-11.578
-10.801
-11.561
-13.439
-15.188
-15.113
-11.579
-4.247
6.139
19.411
35.603
55.37
80.291
111.453
149.121
192.79
240.573
287.926
329.283
358.733
369.01
355.028
314.331
246.701
157.39
54.186
-56.654
-170.294
-285.948
-403.399
-515.723
-619.775
-714.705
-778.998
-794.015
-778.576
-754.406
-718.472
-668.082
-608.208
-541.313
-470.4
-399.563
-332.347
-271.504
-217.276
-169.682
-129.4
-96.939
-73.122
-57.892
-50.05
-47.502
-47.718
-48.57
-48.336
-46.169
-42.023
-35.984
-28.397
-19.993
-11.503
-3.814
2.121
5.976
7.853
8.019
6.965
5.19
3.128
1.31
0.284
0.317
1.482
3.726
6.866
10.76
15.301
20.338
25.709
31.275
36.914
42.526
48.043
53.377
58.434
63.124
67.361
71.1
74.332
77.068
79.345
81.2
82.677
83.829
84.717
85.401
85.938
86.38
86.772
87.163
87.601
88.135
88.815
89.671
90.725
91.986
93.458
95.142
97.037
99.132
101.416
103.877
106.503
109.286
112.219
115.289
118.481
121.782
125.172
128.636
132.159
135.723
139.311
142.905
146.488
150.041
153.548
156.992
160.351
163.606
166.738
169.726
172.552
175.197
177.644
179.875
181.876
183.631
185.131
186.361
187.314
187.98
188.352
188.425
188.195
187.659
186.816
185.667
184.214
182.46
180.41
178.071
175.451
172.559
169.407
166.005
162.367
158.507
154.439
150.179
145.745
141.152
136.42
131.565
126.606
121.563
116.453
111.295
106.109
100.912
95.721
90.555
85.429
80.361
75.364
70.455
65.647
60.953
56.384
51.952
47.668
43.538
39.573
35.777
32.157
28.717
25.459
22.387
19.501
16.802
14.286
11.954
9.801
7.824
6.017
4.374
2.89
1.557
0.368
-0.687
-1.615
-2.425
-3.127
-3.731
-4.245
-4.679
-5.043
-5.345
-5.596
-5.804
-5.976
-6.122
-6.249
-6.363
-6.473
-6.582
-6.698
-6.825
-6.968
-7.129
-7.313
-7.522
-7.757
-8.021
-8.314
-8.637
-8.989
-9.371
-9.781
-10.218
-10.681
-11.168
-11.675
-12.202
-12.746
-13.303
-13.872
-14.449
-15.032
-15.618
-16.205
-16.79
-17.371
-17.946
-18.513
-19.07
-19.617
-20.151
-20.672
-21.179
-21.672
-22.151
-22.616
-23.068
-23.505
-23.93
-24.343
-24.744
-25.136
-25.519
-25.894
-26.263
-26.627
-26.987
-27.345
-27.702
-28.059
-28.418
-28.779
-29.144
-29.514
-29.889
-30.271
-30.66
-31.057
-31.462
-31.876
-32.297
-32.728
-33.166
-33.612
-34.066
-34.526
-34.993
-35.466
-35.943
-36.425
-36.91
-37.397
-37.886
-38.375
-38.864
-39.351
-39.835
-40.316
-40.793
-41.264
-41.729
-42.187
-42.637
-43.077
-43.507
-43.924
-44.328
-44.716
-45.087
-45.439
-45.77
-46.077
-46.36
-46.616
-46.843
-47.037
-47.198
-47.321
-47.405
-47.446
-47.441
-47.387
-47.281
-47.119
-46.899
-46.617
-46.269
-45.853
-45.364
-44.8
-44.158
-43.432
-42.622
-41.725
-40.738
-39.66
-38.491
-37.231
-35.88
-34.442
-32.917
-31.31
-29.622
-27.859
-26.024
-24.122
-22.16
-20.141
-18.072
-15.961
-13.815
-11.644
-9.456
-7.262
-5.068
-2.887
-0.727
1.399
3.484
5.52
7.498
9.411
11.248
12.995
14.646
16.197
17.647
18.997
20.248
21.403
22.473
23.477
24.431
25.353
26.254
27.137
28.011
28.887
29.775
30.695
31.653
32.642
33.661
34.702
35.753
36.799
37.802
38.702
39.439
39.95
40.183
40.101
39.664
38.839
37.587
35.858
33.615
30.827
27.471
23.548
19.045
13.925
8.248
2.192
-3.973
-9.857
-15.116
-19.536
-22.862
-24.767
-25.066
-23.822
-21.415
-18.584
-16.003
-13.954
-12.679
-12.601
-13.939
-16.583
-19.662
-21.238
-19.465
-13.225
-2.289
12.508
30.457
51.218
75.003
103.657
138.743
180.805
229.342
279.704
325.218
359.632
375.822
368.959
337.326
280.091
199.912
102.924
-5.498
-120.281
-238.134
-357.812
-473.171
-582.062
-685.362
-760.782
-786.443
-778.535
-756.898
-718.933
-664.312
-600.865
-533.167
-463.695
-395.723
-331.672
-273.176
-221.206
-175.46
-136.19
-103.978
-78.878
-61.288
-50.738
-45.347
-43.042
-41.591
-39.079
-34.787
-28.748
-21.178
-12.514
-3.432
5.417
13.209
19.055
22.677
24.208
23.932
22.354
19.979
17.244
14.694
12.895
12.13
12.501
13.985
16.425
19.705
23.73
28.352
33.407
38.75
44.253
49.817
55.364
60.798
66.013
70.905
75.376
79.37
82.868
85.87
88.403
90.497
92.191
93.54
94.606
95.45
96.131
96.701
97.206
97.699
98.232
98.856
99.624
100.571
101.716
103.073
104.646
106.436
108.439
110.647
113.043
115.613
118.346
121.23
124.256
127.411
130.678
134.04
137.478
140.975
144.513
148.075
151.642
155.195
158.716
162.188
165.592
168.911
172.124
175.209
178.148
180.918
183.502
185.88
188.032
189.944
191.598
192.981
194.081
194.887
195.388
195.577
195.446
194.991
194.208
193.095
191.651
189.876
187.773
185.346
182.599
179.54
176.177
172.518
168.574
164.357
159.88
155.156
150.201
145.03
139.66
134.108
128.392
122.531
116.543
110.449
104.266
98.016
91.717
85.387
79.046
72.711
66.402
60.134
53.925
47.791
41.747
35.809
29.991
24.305
18.765
13.383
8.169
3.134
-1.714
-6.367
-10.816
-15.055
-19.08
-22.886
-26.47
-29.829
-32.963
-35.872
-38.555
-41.015
-43.255
-45.279
-47.09
-48.694
-50.096
-51.303
-52.321
-53.159
-53.824
-54.323
-54.666
-54.861
-54.917
-54.844
-54.65
-54.345
-53.939
-53.441
-52.861
-52.208
-51.492
-50.721
-49.906
-49.056
-48.178
-47.282
-46.376
-45.467
-44.563
-43.67
-42.795
-41.944
-41.123
-40.335
-39.586
-38.879
-38.217
-37.605
-37.043
-36.534
-36.08
-35.682
-35.341
-35.056
-34.828
-34.658
-34.543
-34.483
-34.477
-34.523
-34.619
-34.762
-34.951
-35.181
-35.451
-35.757
-36.095
-36.461
-36.853
-37.265
-37.696
-38.14
-38.594
-39.055
-39.52
-39.984
-40.445
-40.9
-41.346
-41.781
-42.203
-42.609
-42.997
-43.367
-43.715
-44.042
-44.347
-44.627
-44.884
-45.117
-45.326
-45.511
-45.672
-45.812
-45.93
-46.029
-46.109
-46.173
-46.223
-46.26
-46.287
-46.306
-46.321
-46.334
-46.347
-46.363
-46.386
-46.416
-46.458
-46.512
-46.582
-46.67
-46.777
-46.905
-47.056
-47.23
-47.43
-47.656
-47.908
-48.187
-48.492
-48.823
-49.179
-49.559
-49.961
-50.383
-50.824
-51.281
-51.752
-52.233
-52.722
-53.215
-53.709
-54.199
-54.681
-55.151
-55.605
-56.036
-56.441
-56.816
-57.154
-57.453
-57.706
-57.91
-58.06
-58.151
-58.18
-58.143
-58.037
-57.858
-57.605
-57.276
-56.871
-56.389
-55.831
-55.198
-54.494
-53.719
-52.876
-51.97
-51.004
-49.983
-48.91
-47.79
-46.628
-45.431
-44.204
-42.956
-41.693
-40.422
-39.15
-37.884
-36.635
-35.408
-34.21
-33.045
-31.917
-30.831
-29.792
-28.808
-27.883
-27.016
-26.204
-25.447
-24.742
-24.083
-23.46
-22.852
-22.24
-21.611
-20.954
-20.266
-19.543
-18.774
-17.951
-17.063
-16.105
-15.085
-14.006
-12.87
-11.681
-10.458
-9.234
-8.071
-7.038
-6.185
-5.561
-5.2
-5.124
-5.377
-6.01
-7.069
-8.6
-10.632
-13.168
-16.256
-19.963
-24.272
-29.055
-34.046
-38.846
-43.123
-46.671
-49.25
-50.552
-50.409
-48.901
-46.45
-43.845
-41.8
-40.612
-40.507
-41.873
-44.855
-49.248
-54.118
-57.484
-57.478
-52.991
-43.726
-30.337
-13.416
6.774
30.35
58.717
93.031
133.514
179.54
226.977
269.847
302.514
318.341
312.223
281.798
225.661
145.978
48.935
-59.735
-174.715
-292.502
-411.818
-526.589
-634.37
-735.589
-808.244
-831.052
-820.108
-795.144
-754.239
-697.327
-631.369
-560.281
-485.856
-411.138
-340.145
-275.888
-220.52
-174.518
-136.588
-105.955
-81.81
-63.754
-52.188
-45.955
-43.107
-41.683
-39.391
-35.184
-29.158
-21.498
-12.685
-3.479
5.484
13.382
19.298
22.953
24.501
24.245
22.699
20.383
17.738
15.308
13.661
13.078
13.647
15.33
17.957
21.399
25.555
30.277
35.4
40.779
46.287
51.819
57.296
62.623
67.695
72.413
76.685
80.458
83.719
86.478
88.768
90.626
92.098
93.242
94.121
94.8
95.342
95.801
96.227
96.674
97.192
97.837
98.657
99.688
100.949
102.452
104.2
106.192
108.426
110.89
113.569
116.449
119.517
122.763
126.175
129.741
133.441
137.26
141.176
145.172
149.228
153.326
157.445
161.566
165.667
169.729
173.733
177.657
181.478
185.175
188.724
192.102
195.289
198.264
201.006
203.496
205.716
207.651
209.288
210.612
211.612
212.279
212.604
212.581
212.206
211.475
210.387
208.941
207.141
204.989
202.492
199.657
196.493
193.011
189.223
185.142
180.784
176.164
171.302
166.214
160.921
155.443
149.801
144.017
138.113
132.112
126.036
119.909
113.751
107.586
101.435
95.319
89.26
83.276
77.387
71.611
65.967
60.469
55.135
49.978
45.011
40.245
35.693
31.361
27.259
23.393
19.767
16.385
13.249
10.36
7.717
5.318
3.159
1.237
-0.455
-1.923
-3.176
-4.221
-5.069
-5.73
-6.213
-6.532
-6.697
-6.721
-6.615
-6.393
-6.066
-5.648
-5.15
-4.584
-3.963
-3.298
-2.6
-1.879
-1.147
-0.411
0.318
1.033
1.727
2.392
3.022
3.613
4.159
4.658
5.106
5.501
5.842
6.127
6.356
6.531
6.651
6.719
6.736
6.705
6.628
6.508
6.348
6.152
5.924
5.666
5.384
5.08
4.758
4.423
4.078
3.726
3.371
3.015
2.663
2.316
1.978
1.65
1.334
1.033
0.746
0.477
0.225
-0.009
-0.225
-0.423
-0.602
-0.765
-0.911
-1.041
-1.156
-1.258
-1.347
-1.426
-1.496
-1.559
-1.616
-1.67
-1.723
-1.777
-1.833
-1.895
-1.964
-2.043
-2.134
-2.238
-2.358
-2.496
-2.654
-2.833
-3.036
-3.265
-3.52
-3.804
-4.117
-4.462
-4.84
-5.251
-5.696
-6.177
-6.695
-7.249
-7.842
-8.473
-9.142
-9.851
-10.598
-11.384
-12.207
-13.067
-13.962
-14.891
-15.85
-16.839
-17.854
-18.893
-19.952
-21.029
-22.119
-23.219
-24.324
-25.431
-26.534
-27.629
-28.71
-29.773
-30.812
-31.821
-32.795
-33.729
-34.616
-35.45
-36.225
-36.935
-37.574
-38.135
-38.611
-38.998
-39.289
-39.48
-39.567
-39.546
-39.415
-39.172
-38.817
-38.35
-37.772
-37.083
-36.285
-35.381
-34.374
-33.267
-32.064
-30.769
-29.389
-27.931
-26.404
-24.818
-23.181
-21.503
-19.794
-18.065
-16.327
-14.59
-12.862
-11.155
-9.48
-7.854
-6.29
-4.802
-3.396
-2.075
-0.844
0.302
1.367
2.362
3.303
4.201
5.066
5.902
6.711
7.5
8.279
9.059
9.856
10.672
11.51
12.368
13.238
14.106
14.942
15.705
16.345
16.826
17.111
17.175
16.99
16.512
15.712
14.557
13.016
11.086
8.747
5.97
2.738
-0.961
-5.109
-9.637
-14.504
-19.713
-25.19
-30.787
-36.253
-41.194
-45.3
-48.391
-50.237
-50.556
-49.207
-46.292
-42.253
-37.905
-33.978
-30.808
-28.702
-28.118
-29.254
-31.936
-35.184
-36.971
-35.465
-29.597
-19.205
-5.201
11.75
31.363
53.868
81.187
114.799
155.118
201.519
249.209
291.562
322.23
333.957
321.886
284.287
220.984
135.679
35.082
-75.521
-191.779
-311.729
-434.32
-551.159
-659.17
-759.222
-826.35
-838.669
-817.61
-787.278
-744.497
-686.233
-619.437
-548.532
-475.917
-405.975
-341.878
-285.258
-236.555
-194.157
-157.493
-126.809
-102.078
-84.367
-73.582
-67.745
-64.85
-62.682
-59.389
-54.554
-48.384
-40.959
-32.623
-24.008
-15.679
-8.463
-3.227
-0.15
0.953
0.37
-1.398
-3.864
-6.612
-9.102
-10.786
-11.402
-10.865
-9.217
-6.629
-3.221
0.906
5.613
10.744
16.161
21.739
27.375
32.991
38.494
43.781
48.753
53.315
57.414
61.033
64.182
66.895
69.208
71.165
72.819
74.233
75.467
76.58
77.626
78.648
79.696
80.819
82.068
83.49
85.117
86.967
89.049
91.361
93.901
96.663
99.632
102.789
106.119
109.603
113.229
116.984
120.852
124.812
128.844
132.927
137.04
141.163
145.275
149.355
153.382
157.336
161.196
164.944
168.559
172.019
175.304
178.393
181.263
183.898
186.277
188.384
190.202
191.718
192.918
193.793
194.333
194.532
194.383
193.882
193.028
191.819
190.258
188.346
186.088
183.49
180.56
177.306
173.74
169.874
165.72
161.294
156.612
151.689
146.545
141.197
135.665
129.969
124.129
118.167
112.103
105.959
99.756
93.516
87.26
81.009
74.781
68.598
62.478
56.438
50.497
44.671
38.976
33.426
28.036
22.818
17.784
12.945
8.311
3.889
-0.311
-4.286
-8.028
-11.535
-14.803
-17.831
-20.618
-23.165
-25.473
-27.545
-29.385
-30.998
-32.388
-33.563
-34.529
-35.295
-35.869
-36.26
-36.477
-36.53
-36.43
-36.187
-35.811
-35.313
-34.705
-33.996
-33.199
-32.323
-31.379
-30.377
-29.328
-28.241
-27.126
-25.991
-24.846
-23.698
-22.556
-21.427
-20.317
-19.233
-18.181
-17.165
-16.19
-15.261
-14.379
-13.549
-12.772
-12.05
-11.384
-10.775
-10.223
-9.727
-9.288
-8.904
-8.574
-8.296
-8.068
-7.888
-7.753
-7.662
-7.612
-7.6
-7.623
-7.679
-7.764
-7.877
-8.013
-8.171
-8.347
-8.539
-8.745
-8.961
-9.187
-9.419
-9.657
-9.899
-10.143
-10.389
-10.636
-10.882
-11.129
-11.376
-11.622
-11.869
-12.117
-12.367
-12.62
-12.876
-13.138
-13.405
-13.678
-13.96
-14.249
-14.547
-14.855
-15.172
-15.499
-15.835
-16.182
-16.538
-16.904
-17.279
-17.661
-18.051
-18.446
-18.845
-19.246
-19.646
-20.044
-20.437
-20.822
-21.195
-21.553
-21.893
-22.21
-22.501
-22.761
-22.986
-23.17
-23.31
-23.402
-23.441
-23.426
-23.352
-23.218
-23.022
-22.764
-22.445
-22.063
-21.62
-21.117
-20.554
-19.934
-19.259
-18.531
-17.753
-16.929
-16.066
-15.168
-14.244
-13.298
-12.338
-11.371
-10.404
-9.444
-8.498
-7.573
-6.674
-5.81
-4.989
-4.224
-3.522
-2.884
-2.31
-1.798
-1.342
-0.936
-0.568
-0.219
0.123
0.473
0.84
1.231
1.654
2.122
2.647
3.244
3.924
4.686
5.525
6.437
7.402
8.398
9.392
10.333
11.172
11.873
12.389
12.678
12.704
12.417
11.78
10.773
9.359
7.51
5.2
2.394
-0.908
-4.671
-8.877
-13.503
-18.459
-23.585
-28.616
-33.165
-36.919
-39.668
-41.174
-41.153
-39.464
-36.224
-31.851
-27.101
-22.648
-18.783
-15.807
-14.212
-14.203
-15.611
-17.508
-17.97
-15.326
-8.637
2.263
16.569
33.711
53.446
75.979
103.061
135.948
174.894
219.022
263.465
301.974
328.458
336.16
321.098
281.587
217.743
133.281
33.253
-77.641
-196.308
-321.027
-446.112
-567.16
-687.825
-793.984
-848.979
-848.161
-824.446
-791.652
-741.714
-677.219
-607.133
-535.025
-463.493
-394.952
-330.485
-271.255
-217.516
-169.539
-128.547
-95.393
-70.579
-54.12
-44.857
-40.445
-38.421
-36.813
-34.075
-29.732
-24.015
-16.973
-8.916
-0.585
7.359
14.08
18.734
21.183
21.667
20.499
18.197
15.282
12.188
9.463
7.642
6.964
7.49
9.162
11.802
15.278
19.485
24.268
29.46
34.913
40.488
46.078
51.602
56.962
62.056
66.787
71.063
74.837
78.102
80.873
83.184
85.075
86.592
87.791
88.74
89.503
90.144
90.718
91.272
91.86
92.533
93.341
94.333
95.541
96.98
98.659
100.581
102.742
105.137
107.755
110.578
113.59
116.778
120.13
123.634
127.273
131.032
134.889
138.825
142.822
146.859
150.918
154.978
159.019
163.021
166.963
170.827
174.591
178.233
181.732
185.066
188.212
191.151
193.863
196.329
198.531
200.452
202.08
203.401
204.404
205.079
205.418
205.415
205.065
204.365
203.312
201.908
200.155
198.055
195.614
192.839
189.738
186.322
182.602
178.591
174.303
169.754
164.96
159.939
154.709
149.29
143.702
137.965
132.1
126.129
120.072
113.951
107.788
101.602
95.416
89.248
83.118
77.046
71.048
65.142
59.345
53.673
48.139
42.759
37.543
32.505
27.654
22.999
18.549
14.31
10.288
6.488
2.911
-0.438
-3.561
-6.456
-9.126
-11.573
-13.8
-15.812
-17.613
-19.211
-20.611
-21.821
-22.849
-23.704
-24.393
-24.928
-25.316
-25.567
-25.691
-25.698
-25.598
-25.4
-25.114
-24.749
-24.315
-23.82
-23.275
-22.686
-22.062
-21.41
-20.739
-20.055
-19.365
-18.675
-17.99
-17.316
-16.658
-16.021
-15.407
-14.821
-14.266
-13.745
-13.259
-12.812
-12.404
-12.038
-11.714
-11.434
-11.198
-11.008
-10.863
-10.764
-10.711
-10.704
-10.743
-10.828
-10.958
-11.133
-11.353
-11.617
-11.924
-12.274
-12.664
-13.095
-13.563
-14.068
-14.608
-15.179
-15.78
-16.409
-17.062
-17.737
-18.431
-19.14
-19.863
-20.595
-21.333
-22.074
-22.812
-23.545
-24.269
-24.978
-25.669
-26.338
-26.979
-27.589
-28.164
-28.697
-29.186
-29.625
-30.009
-30.335
-30.599
-30.796
-30.926
-30.984
-30.969
-30.881
-30.719
-30.485
-30.179
-29.805
-29.362
-28.854
-28.285
-27.656
-26.973
-26.239
-25.457
-24.633
-23.775
-22.888
-21.979
-21.056
-20.125
-19.193
-18.267
-17.355
-16.464
-15.599
-14.766
-13.969
-13.218
-12.521
-11.885
-11.309
-10.792
-10.328
-9.912
-9.537
-9.189
-8.85
-8.502
-8.129
-7.717
-7.261
-6.749
-6.172
-5.517
-4.766
-3.911
-2.956
-1.905
-0.768
0.436
1.69
2.956
4.176
5.299
6.27
7.03
7.542
7.759
7.635
7.148
6.25
4.9
3.072
0.733
-2.129
-5.488
-9.346
-13.713
-18.494
-23.517
-28.517
-33.119
-37.019
-40.009
-41.84
-42.186
-40.864
-37.987
-33.948
-29.404
-25.02
-21.159
-18.143
-16.595
-16.686
-17.75
-18.825
-18.461
-15.82
-11.51
-5.763
2.079
13.884
32.23
58.562
93.225
134.291
179.08
225.274
268.432
304.489
328.887
335.086
318.504
276.261
207.967
118.025
13.2
-100.567
-219.588
-342.213
-464.387
-583.18
-703.606
-811.46
-867.676
-867.883
-846.625
-816.88
-769.712
-706.237
-633.79
-556.148
-476.737
-400.915
-332.733
-273.872
-224.242
-181.81
-145.595
-115.61
-91.899
-75.396
-65.673
-60.813
-58.855
-57.513
-55.024
-50.962
-45.466
-38.755
-31.342
-23.808
-16.682
-10.749
-6.751
-4.843
-4.828
-6.359
-8.881
-11.883
-14.927
-17.466
-19.009
-19.329
-18.37
-16.211
-13.035
-8.984
-4.188
1.182
6.948
12.95
19.047
25.127
31.093
36.832
42.231
47.178
51.602
55.473
58.794
61.589
63.896
65.759
67.236
68.394
69.3
70.02
70.614
71.134
71.64
72.189
72.839
73.645
74.649
75.873
77.333
79.034
80.977
83.157
85.567
88.188
91.009
94.017
97.202
100.552
104.056
107.696
111.453
115.31
119.246
123.244
127.284
131.346
135.41
139.456
143.464
147.414
151.284
155.051
158.691
162.18
165.496
168.614
171.512
174.169
176.564
178.678
180.494
181.996
183.169
184.002
184.483
184.602
184.352
183.727
182.723
181.338
179.571
177.425
174.904
172.012
168.758
165.151
161.202
156.925
152.333
147.444
142.275
136.845
131.174
125.283
119.195
112.932
106.519
99.978
93.336
86.617
79.845
73.045
66.241
59.456
52.715
46.038
39.449
32.967
26.613
20.406
14.364
8.502
2.838
-2.616
-7.847
-12.843
-17.596
-22.096
-26.338
-30.316
-34.028
-37.47
-40.643
-43.546
-46.183
-48.557
-50.672
-52.535
-54.152
-55.532
-56.683
-57.614
-58.337
-58.862
-59.2
-59.363
-59.363
-59.211
-58.919
-58.501
-57.967
-57.33
-56.602
-55.793
-54.914
-53.976
-52.989
-51.961
-50.902
-49.82
-48.722
-47.615
-46.505
-45.398
-44.298
-43.21
-42.137
-41.082
-40.049
-39.038
-38.051
-37.09
-36.154
-35.245
-34.363
-33.507
-32.679
-31.876
-31.099
-30.348
-29.623
-28.922
-28.245
-27.593
-26.965
-26.362
-25.783
-25.229
-24.702
-24.2
-23.725
-23.279
-22.861
-22.473
-22.115
-21.788
-21.494
-21.232
-21.005
-20.812
-20.655
-20.534
-20.45
-20.403
-20.392
-20.417
-20.478
-20.573
-20.701
-20.86
-21.048
-21.262
-21.5
-21.758
-22.033
-22.321
-22.617
-22.917
-23.215
-23.506
-23.786
-24.048
-24.289
-24.503
-24.687
-24.835
-24.946
-25.018
-25.047
-25.032
-24.971
-24.862
-24.705
-24.499
-24.245
-23.942
-23.591
-23.193
-22.754
-22.276
-21.764
-21.224
-20.658
-20.073
-19.475
-18.871
-18.266
-17.666
-17.076
-16.502
-15.953
-15.439
-14.969
-14.543
-14.16
-13.818
-13.514
-13.242
-12.993
-12.749
-12.495
-12.218
-11.907
-11.558
-11.163
-10.713
-10.196
-9.596
-8.905
-8.128
-7.27
-6.339
-5.353
-4.33
-3.3
-2.319
-1.438
-0.705
-0.177
0.11
0.113
-0.212
-0.895
-1.98
-3.514
-5.524
-8.043
-11.094
-14.661
-18.753
-23.395
-28.505
-33.926
-39.403
-44.549
-49.044
-52.687
-55.218
-56.317
-55.807
-53.729
-50.462
-46.77
-43.315
-40.38
-38.209
-37.188
-37.517
-39.111
-41.136
-41.663
-38.927
-31.925
-20.459
-5.392
12.578
33.526
57.924
87.08
122.199
162.843
207.515
253.028
294.217
326.516
344.93
343.899
319.781
270.206
195.977
101.869
-6.112
-122.379
-244.553
-370.451
-493.81
-614.421
-732.744
-822.047
-854.871
-847.801
-824.029
-780.303
-716.579
-643.606
-567.587
-491.542
-418.749
-351.133
-289.447
-233.675
-183.34
-139.036
-101.952
-72.898
-52.533
-40.313
-34.199
-31.867
-30.869
-29.098
-25.665
-20.488
-13.704
-5.68
2.944
11.517
19.156
24.837
28.184
29.299
28.458
26.192
23.041
19.459
16.038
13.416
11.922
11.677
12.662
14.698
17.651
21.422
25.85
30.752
35.972
41.367
46.827
52.271
57.595
62.684
67.428
71.724
75.516
78.784
81.533
83.796
85.61
87.021
88.089
88.881
89.465
89.905
90.259
90.579
90.919
91.338
91.89
92.63
93.594
94.804
96.27
97.998
99.985
102.227
104.713
107.426
110.349
113.469
116.773
120.25
123.884
127.656
131.547
135.535
139.601
143.724
147.885
152.061
156.232
160.376
164.472
168.5
172.439
176.264
179.953
183.481
186.825
189.964
192.877
195.541
197.938
200.051
201.864
203.363
204.535
205.369
205.856
205.989
205.762
205.171
204.214
202.891
201.203
199.153
196.747
193.991
190.895
187.467
183.721
179.67
175.328
170.712
165.839
160.728
155.398
149.87
144.164
138.304
132.31
126.207
120.017
113.763
107.468
101.154
94.845
88.561
82.324
76.154
70.072
64.095
58.242
52.531
46.977
41.595
36.399
31.402
26.616
22.049
17.711
13.61
9.752
6.14
2.778
-0.331
-3.187
-5.791
-8.144
-10.251
-12.116
-13.743
-15.14
-16.315
-17.275
-18.03
-18.59
-18.966
-19.168
-19.209
-19.1
-18.853
-18.481
-17.996
-17.411
-16.738
-15.989
-15.177
-14.314
-13.41
-12.478
-11.528
-10.57
-9.613
-8.666
-7.739
-6.838
-5.972
-5.145
-4.365
-3.636
-2.962
-2.347
-1.794
-1.306
-0.883
-0.527
-0.24
-0.02
0.133
0.218
0.239
0.195
0.09
-0.075
-0.296
-0.571
-0.896
-1.27
-1.688
-2.147
-2.645
-3.177
-3.742
-4.335
-4.955
-5.597
-6.26
-6.942
-7.639
-8.35
-9.074
-9.809
-10.552
-11.304
-12.063
-12.828
-13.597
-14.37
-15.145
-15.922
-16.698
-17.473
-18.246
-19.015
-19.78
-20.539
-21.291
-22.036
-22.771
-23.495
-24.207
-24.904
-25.585
-26.248
-26.89
-27.509
-28.102
-28.667
-29.2
-29.699
-30.16
-30.579
-30.952
-31.276
-31.546
-31.759
-31.912
-32.002
-32.025
-31.981
-31.867
-31.684
-31.431
-31.111
-30.722
-30.266
-29.745
-29.161
-28.517
-27.814
-27.056
-26.245
-25.385
-24.483
-23.545
-22.576
-21.584
-20.573
-19.551
-18.526
-17.504
-16.494
-15.501
-14.531
-13.592
-12.692
-11.844
-11.054
-10.325
-9.656
-9.043
-8.481
-7.966
-7.484
-7.018
-6.55
-6.065
-5.549
-4.998
-4.404
-3.754
-3.04
-2.242
-1.349
-0.367
0.701
1.841
3.03
4.251
5.469
6.62
7.651
8.505
9.116
9.454
9.478
9.143
8.424
7.272
5.634
3.49
0.803
-2.439
-6.202
-10.493
-15.327
-20.59
-26.102
-31.583
-36.621
-40.91
-44.263
-46.425
-47.09
-46.093
-43.508
-39.746
-35.555
-31.581
-28.081
-25.272
-23.56
-23.169
-23.942
-25.036
-24.679
-21.156
-13.455
-1.365
14.626
33.836
55.367
78.911
105.273
135.619
171.82
214.516
260.691
304.917
339.505
356.069
348.787
314.647
254.081
171.078
71.353
-39.733
-158.455
-283.411
-412.099
-535.87
-651.711
-759.817
-834.257
-850.035
-828.083
-794.44
-745.564
-680.485
-609.261
-536.423
-464.175
-395.215
-330.615
-272.121
-220.572
-175.182
-136.45
-104.588
-79.299
-61.489
-50.807
-45.207
-42.672
-40.881
-37.895
-33.274
-27.24
-19.884
-11.572
-2.973
5.318
12.423
17.43
20.153
20.789
19.646
17.25
14.118
10.686
7.526
5.21
4.012
4.024
5.202
7.374
10.413
14.219
18.643
23.524
28.717
34.09
39.536
44.969
50.289
55.387
60.156
64.497
68.354
71.705
74.562
76.957
78.926
80.515
81.779
82.781
83.585
84.254
84.841
85.395
85.968
86.612
87.381
88.325
89.478
90.86
92.479
94.337
96.432
98.758
101.303
104.049
106.981
110.084
113.344
116.752
120.291
123.944
127.692
131.513
135.389
139.301
143.229
147.153
151.053
154.909
158.701
162.411
166.019
169.502
172.839
176.009
178.99
181.763
184.308
186.607
188.642
190.398
191.863
193.023
193.869
194.391
194.583
194.438
193.953
193.126
191.956
190.444
188.593
186.407
183.891
181.055
177.906
174.455
170.715
166.698
162.421
157.898
153.146
148.184
143.03
137.703
132.224
126.614
120.892
115.081
109.201
103.274
97.32
91.36
85.413
79.498
73.635
67.841
62.134
56.529
51.041
45.685
40.475
35.422
30.537
25.832
21.314
16.991
12.869
8.955
5.251
1.761
-1.514
-4.574
-7.418
-10.05
-12.471
-14.685
-16.698
-18.514
-20.142
-21.586
-22.856
-23.96
-24.905
-25.702
-26.36
-26.888
-27.296
-27.593
-27.79
-27.895
-27.918
-27.869
-27.756
-27.587
-27.372
-27.118
-26.832
-26.521
-26.193
-25.852
-25.505
-25.157
-24.811
-24.473
-24.145
-23.831
-23.533
-23.253
-22.992
-22.752
-22.534
-22.338
-22.163
-22.011
-21.88
-21.77
-21.679
-21.608
-21.554
-21.517
-21.496
-21.49
-21.497
-21.516
-21.547
-21.589
-21.641
-21.702
-21.773
-21.851
-21.938
-22.033
-22.136
-22.247
-22.367
-22.496
-22.634
-22.782
-22.942
-23.112
-23.296
-23.493
-23.704
-23.93
-24.173
-24.433
-24.711
-25.009
-25.326
-25.665
-26.024
-26.405
-26.807
-27.231
-27.675
-28.14
-28.623
-29.124
-29.642
-30.174
-30.719
-31.275
-31.84
-32.412
-32.987
-33.563
-34.137
-34.706
-35.267
-35.815
-36.348
-36.861
-37.351
-37.815
-38.249
-38.648
-39.008
-39.327
-39.6
-39.823
-39.992
-40.105
-40.157
-40.148
-40.075
-39.937
-39.733
-39.463
-39.13
-38.734
-38.277
-37.762
-37.191
-36.567
-35.893
-35.172
-34.409
-33.607
-32.772
-31.91
-31.027
-30.132
-29.231
-28.331
-27.439
-26.562
-25.707
-24.88
-24.086
-23.332
-22.624
-21.97
-21.38
-20.859
-20.408
-20.025
-19.707
-19.444
-19.228
-19.045
-18.877
-18.706
-18.52
-18.306
-18.057
-17.763
-17.41
-16.985
-16.471
-15.856
-15.139
-14.324
-13.416
-12.434
-11.399
-10.345
-9.322
-8.375
-7.543
-6.868
-6.393
-6.155
-6.204
-6.578
-7.303
-8.415
-9.946
-11.928
-14.394
-17.343
-20.739
-24.553
-28.774
-33.319
-38.032
-42.653
-46.796
-50.14
-52.483
-53.591
-53.17
-51.096
-47.462
-42.672
-37.526
-32.683
-28.498
-25.37
-23.707
-23.707
-24.987
-26.278
-25.746
-21.769
-13.947
-2.958
10.715
27.011
46.867
72.1
103.913
142.482
186.69
234.017
280.004
318.868
344.398
349.604
329.407
282.154
209.229
115.815
8.886
-105.969
-225.974
-349.31
-470.47
-586.966
-703.858
-804.165
-849.684
-840.511
-811.646
-774.397
-720.674
-653.856
-582.213
-509.01
-436.937
-368.794
-306.34
-250.402
-200.624
-157.24
-120.937
-92.081
-71.276
-58.128
-50.811
-47.166
-44.73
-41.371
-36.236
-29.285
-20.765
-11.113
-0.961
9.023
17.945
24.78
29.12
31.065
30.91
29.187
26.424
23.072
19.711
16.977
15.247
14.679
15.287
16.927
19.479
22.859
26.935
31.544
36.543
41.794
47.183
52.627
58.033
63.292
68.302
72.96
77.18
80.92
84.173
86.95
89.284
91.214
92.781
94.045
95.072
95.926
96.668
97.352
98.026
98.74
99.549
100.502
101.648
103.013
104.615
106.46
108.549
110.879
113.443
116.227
119.211
122.378
125.712
129.199
132.825
136.572
140.419
144.344
148.326
152.341
156.37
160.39
164.379
168.313
172.17
175.929
179.569
183.067
186.399
189.542
192.473
195.169
197.608
199.771
201.637
203.189
204.411
205.289
205.81
205.965
205.745
205.142
204.153
202.774
201.004
198.844
196.297
193.367
190.06
186.387
182.355
177.978
173.27
168.245
162.92
157.315
151.447
145.339
139.011
132.486
125.789
118.942
111.972
104.902
97.758
90.566
83.351
76.136
68.948
61.809
54.742
47.77
40.914
34.194
27.629
21.237
15.036
9.04
3.265
-2.276
-7.573
-12.616
-17.395
-21.904
-26.137
-30.089
-33.76
-37.147
-40.25
-43.072
-45.615
-47.884
-49.885
-51.624
-53.108
-54.348
-55.351
-56.13
-56.694
-57.056
-57.227
-57.219
-57.046
-56.72
-56.253
-55.659
-54.95
-54.138
-53.236
-52.254
-51.205
-50.099
-48.947
-47.758
-46.542
-45.307
-44.061
-42.811
-41.565
-40.327
-39.104
-37.9
-36.718
-35.563
-34.437
-33.343
-32.282
-31.255
-30.263
-29.306
-28.386
-27.5
-26.65
-25.833
-25.05
-24.3
-23.582
-22.894
-22.236
-21.607
-21.006
-20.433
-19.886
-19.366
-18.872
-18.403
-17.961
-17.544
-17.154
-16.791
-16.456
-16.149
-15.871
-15.623
-15.407
-15.224
-15.074
-14.959
-14.881
-14.84
-14.837
-14.874
-14.951
-15.07
-15.229
-15.43
-15.672
-15.955
-16.277
-16.637
-17.033
-17.464
-17.927
-18.418
-18.936
-19.477
-20.038
-20.613
-21.2
-21.794
-22.39
-22.982
-23.566
-24.136
-24.687
-25.213
-25.708
-26.167
-26.584
-26.953
-27.268
-27.525
-27.717
-27.838
-27.885
-27.853
-27.737
-27.536
-27.245
-26.864
-26.392
-25.828
-25.175
-24.435
-23.608
-22.698
-21.708
-20.642
-19.504
-18.3
-17.034
-15.711
-14.339
-12.926
-11.48
-10.009
-8.523
-7.029
-5.536
-4.054
-2.59
-1.155
0.245
1.603
2.911
4.16
5.339
6.44
7.463
8.407
9.276
10.074
10.805
11.48
12.115
12.726
13.327
13.929
14.54
15.166
15.819
16.513
17.262
18.076
18.952
19.884
20.866
21.885
22.925
23.954
24.921
25.778
26.476
26.96
27.192
27.127
26.721
25.945
24.762
23.131
21.024
18.418
15.291
11.66
7.529
2.871
-2.209
-7.525
-12.816
-17.68
-21.79
-24.96
-26.91
-27.289
-26.055
-23.358
-19.633
-15.77
-12.329
-9.531
-7.863
-7.759
-9.245
-11.879
-14.183
-14.035
-9.969
-1.663
10.113
24.562
41.202
60.436
84.735
116.17
155.896
204.302
256.9
306.534
346.015
366.282
361.279
329.123
269.54
187.464
90.607
-15.04
-124.423
-236.29
-350.758
-462.087
-567.849
-667.191
-738.216
-760.774
-750.653
-726.948
-687.46
-632.109
-568.63
-502.861
-438.532
-378.075
-322.496
-270.87
-221.721
-175.298
-132.986
-96.832
-68.564
-48.236
-34.909
-26.718
-21.416
-17.296
-12.862
-7.328
-0.704
6.956
15.43
24.159
32.633
40.141
45.785
49.229
50.529
49.896
47.797
44.699
40.979
37.143
33.737
31.068
29.29
28.415
28.293
28.815
29.889
31.399
33.235
35.301
37.532
39.87
42.265
44.656
46.981
49.175
51.181
52.969
54.518
55.852
57.041
58.147
59.238
60.359
61.532
62.773
64.083
65.469
66.945
68.523
70.22
72.055
74.053
76.227
78.588
81.119
83.777
86.526
89.332
92.177
95.064
98.002
101.01
104.108
107.31
110.622
114.043
117.564
121.169
124.838
128.55
132.293
136.063
139.853
143.655
147.451
151.216
154.916
158.513
161.969
165.244
168.306
171.126
173.682
175.954
177.927
179.591
180.934
181.943
182.605
182.909
182.847
182.414
181.608
180.431
178.885
176.976
174.712
172.099
169.145
165.86
162.252
158.331
154.108
149.596
144.809
139.766
134.484
128.982
123.281
117.401
111.365
105.195
98.912
92.538
86.095
79.605
73.09
66.571
60.069
53.606
47.2
40.87
34.636
28.515
22.524
16.678
10.992
5.479
0.153
-4.975
-9.895
-14.597
-19.074
-23.319
-27.325
-31.089
-34.606
-37.876
-40.897
-43.669
-46.196
-48.479
-50.523
-52.332
-53.912
-55.27
-56.413
-57.348
-58.085
-58.633
-59.0
-59.197
-59.235
-59.124
-58.875
-58.498
-58.005
-57.406
-56.713
-55.936
-55.085
-54.172
-53.206
-52.197
-51.154
-50.087
-49.005
-47.914
-46.824
-45.74
-44.671
-43.622
-42.598
-41.606
-40.649
-39.732
-38.858
-38.031
-37.253
-36.527
-35.855
-35.237
-34.676
-34.172
-33.725
-33.335
-33.004
-32.729
-32.511
-32.35
-32.243
-32.191
-32.193
-32.245
-32.349
-32.502
-32.702
-32.949
-33.24
-33.575
-33.952
-34.369
-34.824
-35.316
-35.843
-36.402
-36.991
-37.608
-38.25
-38.915
-39.6
-40.302
-41.019
-41.746
-42.482
-43.223
-43.966
-44.707
-45.442
-46.168
-46.882
-47.578
-48.254
-48.905
-49.527
-50.116
-50.669
-51.18
-51.646
-52.062
-52.425
-52.73
-52.973
-53.151
-53.261
-53.3
-53.266
-53.157
-52.973
-52.715
-52.383
-51.979
-51.504
-50.961
-50.352
-49.682
-48.954
-48.171
-47.338
-46.46
-45.543
-44.594
-43.621
-42.631
-41.631
-40.629
-39.634
-38.652
-37.693
-36.765
-35.873
-35.026
-34.229
-33.491
-32.824
-32.234
-31.722
-31.288
-30.928
-30.636
-30.408
-30.231
-30.089
-29.965
-29.844
-29.712
-29.564
-29.389
-29.176
-28.914
-28.582
-28.169
-27.678
-27.11
-26.474
-25.79
-25.072
-24.348
-23.676
-23.101
-22.675
-22.456
-22.472
-22.761
-23.366
-24.311
-25.64
-27.404
-29.622
-32.331
-35.542
-39.228
-43.395
-48.058
-53.109
-58.381
-63.607
-68.393
-72.442
-75.562
-77.498
-77.95
-76.768
-74.037
-70.169
-65.901
-61.882
-58.401
-55.741
-54.361
-54.48
-55.931
-57.809
-58.26
-55.594
-48.774
-37.526
-22.54
-4.424
16.327
39.611
67.062
100.067
139.325
184.641
231.407
273.235
303.61
314.539
301.068
261.32
195.446
108.975
9.492
-97.198
-206.536
-318.295
-432.537
-541.732
-643.269
-736.979
-799.334
-810.377
-789.757
-759.557
-716.955
-659.703
-594.772
-527.422
-460.665
-397.395
-339.349
-286.499
-238.047
-193.841
-154.731
-122.071
-96.877
-79.331
-68.549
-62.433
-58.746
-55.744
-51.968
-46.908
-40.726
-33.4
-25.153
-16.603
-8.292
-0.998
4.428
7.781
9.21
8.974
7.546
5.391
2.904
0.603
-0.979
-1.578
-1.102
0.411
2.798
5.941
9.748
14.084
18.802
23.768
28.863
33.988
39.074
44.032
48.765
53.177
57.176
60.709
63.761
66.342
68.487
70.231
71.617
72.698
73.537
74.194
74.728
75.192
75.631
76.093
76.629
77.29
78.128
79.177
80.456
81.978
83.745
85.757
88.011
90.496
93.196
96.097
99.184
102.447
105.875
109.454
113.166
116.992
120.913
124.908
128.959
133.046
137.148
141.245
145.315
149.34
153.3
157.175
160.941
164.577
168.061
171.37
174.485
177.386
180.051
182.464
184.609
186.47
188.034
189.291
190.229
190.841
191.12
191.062
190.662
189.92
188.835
187.41
185.648
183.554
181.137
178.404
175.366
172.034
168.422
164.545
160.419
156.059
151.485
146.715
141.769
136.667
131.431
126.082
120.641
115.13
109.572
103.988
98.4
92.828
87.292
81.813
76.41
71.102
65.904
60.835
55.909
51.141
46.544
42.131
37.912
33.898
30.096
26.513
23.156
20.029
17.135
14.475
12.051
9.862
7.905
6.178
4.676
3.394
2.325
1.463
0.798
0.322
0.025
-0.104
-0.074
0.102
0.414
0.849
1.395
2.041
2.774
3.584
4.457
5.383
6.35
7.349
8.368
9.397
10.428
11.452
12.46
13.444
14.399
15.316
16.191
17.018
17.793
18.512
19.172
19.77
20.304
20.774
21.178
21.515
21.787
21.994
22.137
22.217
22.237
22.198
22.102
21.954
21.754
21.506
21.213
20.878
20.503
20.092
19.648
19.172
18.669
18.14
17.588
17.015
16.423
15.815
15.193
14.557
13.911
13.255
12.591
11.92
11.243
10.561
9.875
9.186
8.495
7.803
7.111
6.419
5.728
5.041
4.358
3.679
3.007
2.343
1.688
1.043
0.41
-0.208
-0.81
-1.394
-1.957
-2.496
-3.01
-3.494
-3.946
-4.363
-4.743
-5.082
-5.376
-5.624
-5.82
-5.963
-6.049
-6.075
-6.038
-5.937
-5.768
-5.532
-5.226
-4.851
-4.408
-3.897
-3.322
-2.682
-1.981
-1.222
-0.407
0.458
1.37
2.327
3.322
4.35
5.404
6.477
7.563
8.654
9.743
10.823
11.885
12.921
13.923
14.887
15.807
16.676
17.488
18.231
18.9
19.496
20.019
20.471
20.855
21.176
21.445
21.681
21.9
22.12
22.353
22.603
22.879
23.19
23.549
23.973
24.466
25.026
25.647
26.323
27.043
27.795
28.541
29.224
29.787
30.167
30.312
30.183
29.739
28.947
27.765
26.141
24.035
21.412
18.247
14.539
10.265
5.38
-0.061
-5.891
-11.842
-17.525
-22.606
-26.88
-30.095
-31.93
-32.208
-30.994
-28.68
-26.011
-23.644
-21.841
-20.819
-20.973
-22.484
-25.214
-28.289
-29.81
-28.014
-21.884
-11.223
3.241
20.913
41.577
65.474
94.091
128.567
169.079
214.814
261.508
303.352
334.982
350.175
344.315
314.808
259.697
180.932
84.381
-23.463
-136.051
-250.156
-365.531
-477.017
-582.891
-689.878
-780.42
-816.287
-799.661
-766.607
-727.946
-674.856
-609.958
-540.911
-469.966
-399.111
-331.841
-270.408
-216.598
-170.865
-132.152
-100.14
-74.344
-54.481
-40.995
-32.82
-28.131
-25.074
-21.433
-16.182
-9.413
-1.296
7.732
16.99
25.929
33.787
39.648
43.211
44.599
44.089
42.187
39.388
36.108
32.881
30.283
28.648
28.116
28.69
30.232
32.63
35.793
39.59
43.863
48.467
53.278
58.189
63.121
67.987
72.688
77.128
81.219
84.883
88.081
90.808
93.077
94.92
96.379
97.496
98.329
98.943
99.4
99.757
100.065
100.37
100.719
101.161
101.744
102.508
103.484
104.686
106.119
107.785
109.68
111.799
114.127
116.646
119.34
122.193
125.193
128.326
131.576
134.924
138.351
141.835
145.358
148.899
152.441
155.961
159.441
162.86
166.199
169.441
172.565
175.552
178.382
181.034
183.49
185.731
187.741
189.502
191.001
192.224
193.161
193.801
194.136
194.16
193.867
193.255
192.321
191.065
189.488
187.593
185.384
182.867
180.05
176.941
173.55
169.889
165.97
161.807
157.415
152.81
148.007
143.024
137.88
132.592
127.179
121.661
116.056
110.384
104.665
98.916
93.157
87.406
81.681
76.0
70.377
64.831
59.375
54.023
48.791
43.689
38.731
33.926
29.285
24.816
20.528
16.427
12.519
8.809
5.3
1.994
-1.106
-4.001
-6.69
-9.176
-11.46
-13.546
-15.438
-17.14
-18.659
-20.0
-21.17
-22.176
-23.027
-23.73
-24.293
-24.725
-25.035
-25.232
-25.324
-25.321
-25.232
-25.065
-24.83
-24.534
-24.186
-23.794
-23.366
-22.909
-22.43
-21.935
-21.431
-20.924
-20.418
-19.919
-19.43
-18.956
-18.499
-18.063
-17.65
-17.262
-16.901
-16.567
-16.262
-15.985
-15.738
-15.519
-15.329
-15.166
-15.03
-14.921
-14.835
-14.774
-14.735
-14.717
-14.719
-14.739
-14.776
-14.83
-14.899
-14.981
-15.076
-15.183
-15.302
-15.431
-15.571
-15.721
-15.882
-16.053
-16.234
-16.428
-16.633
-16.851
-17.083
-17.33
-17.594
-17.874
-18.173
-18.493
-18.834
-19.197
-19.585
-19.997
-20.436
-20.901
-21.392
-21.911
-22.456
-23.027
-23.625
-24.247
-24.893
-25.561
-26.25
-26.959
-27.684
-28.423
-29.175
-29.935
-30.7
-31.466
-32.23
-32.988
-33.734
-34.465
-35.176
-35.863
-36.519
-37.139
-37.719
-38.254
-38.737
-39.165
-39.533
-39.838
-40.074
-40.241
-40.336
-40.357
-40.305
-40.181
-39.984
-39.716
-39.379
-38.974
-38.505
-37.974
-37.385
-36.74
-36.046
-35.309
-34.534
-33.73
-32.903
-32.06
-31.208
-30.356
-29.511
-28.682
-27.874
-27.095
-26.351
-25.65
-25.004
-24.42
-23.898
-23.439
-23.038
-22.689
-22.388
-22.123
-21.877
-21.636
-21.383
-21.103
-20.792
-20.442
-20.041
-19.578
-19.033
-18.395
-17.667
-16.856
-15.972
-15.039
-14.071
-13.098
-12.177
-11.359
-10.696
-10.248
-10.049
-10.138
-10.565
-11.358
-12.566
-14.241
-16.413
-19.108
-22.343
-26.083
-30.325
-35.096
-40.298
-45.757
-51.207
-56.233
-60.508
-63.834
-65.942
-66.501
-65.358
-62.583
-58.585
-54.195
-50.101
-46.699
-44.405
-43.633
-44.631
-47.0
-49.373
-49.889
-46.798
-39.594
-29.258
-16.254
-0.363
19.423
46.095
81.468
125.037
175.431
228.068
276.662
315.933
339.674
342.238
320.313
271.611
197.216
102.526
-5.836
-121.147
-239.438
-359.804
-477.715
-591.92
-708.792
-810.875
-859.49
-853.841
-827.093
-790.852
-738.314
-672.756
-602.294
-529.392
-455.874
-385.775
-322.033
-266.722
-220.537
-182.13
-150.707
-125.644
-106.587
-94.1
-87.239
-84.065
-82.498
-80.091
-75.697
-69.351
-61.258
-51.951
-42.151
-32.49
-23.916
-17.198
-12.481
-9.982
-9.503
-11.14
-15.113
-20.165
-25.193
-28.77
-29.427
-28.005
-25.337
-22.139
-19.479
-16.766
-13.447
-9.531
-4.742
0.544
5.903
11.314
16.648
21.819
26.794
31.432
35.619
39.326
42.549
45.295
47.596
49.49
51.021
52.251
53.249
54.074
54.781
55.423
56.044
56.693
57.42
58.272
59.291
60.506
61.929
63.569
65.426
67.497
69.774
72.246
74.892
77.698
80.649
83.732
86.933
90.237
93.625
97.078
100.575
104.096
107.624
111.138
114.62
118.048
121.403
124.668
127.824
130.852
133.731
136.443
138.966
141.283
143.376
145.227
146.821
148.143
149.18
149.921
150.357
150.481
150.284
149.764
148.915
147.738
146.232
144.397
142.238
139.759
136.965
133.865
130.466
126.78
122.819
118.594
114.119
109.411
104.483
99.354
94.04
88.559
82.931
77.173
71.305
65.347
59.318
53.239
47.127
41.003
34.885
28.791
22.739
16.747
10.83
5.004
-0.715
-6.314
-11.778
-17.095
-22.254
-27.243
-32.052
-36.674
-41.098
-45.32
-49.332
-53.129
-56.709
-60.067
-63.203
-66.114
-68.801
-71.265
-73.507
-75.531
-77.34
-78.937
-80.329
-81.52
-82.516
-83.326
-83.955
-84.412
-84.704
-84.839
-84.827
-84.676
-84.395
-83.993
-83.479
-82.863
-82.152
-81.357
-80.486
-79.549
-78.552
-77.506
-76.418
-75.295
-74.147
-72.978
-71.798
-70.611
-69.425
-68.244
-67.074
-65.92
-64.786
-63.676
-62.594
-61.542
-60.523
-59.539
-58.593
-57.685
-56.817
-55.989
-55.201
-54.455
-53.749
-53.083
-52.457
-51.868
-51.316
-50.8
-50.318
-49.867
-49.447
-49.054
-48.687
-48.344
-48.021
-47.717
-47.43
-47.156
-46.894
-46.641
-46.394
-46.153
-45.915
-45.678
-45.441
-45.201
-44.957
-44.709
-44.454
-44.192
-43.922
-43.644
-43.357
-43.061
-42.756
-42.443
-42.122
-41.793
-41.458
-41.116
-40.77
-40.42
-40.068
-39.714
-39.362
-39.012
-38.665
-38.324
-37.99
-37.663
-37.346
-37.039
-36.743
-36.459
-36.186
-35.925
-35.676
-35.439
-35.213
-34.997
-34.792
-34.594
-34.402
-34.216
-34.031
-33.846
-33.657
-33.461
-33.255
-33.036
-32.798
-32.539
-32.254
-31.938
-31.585
-31.193
-30.755
-30.266
-29.723
-29.121
-28.455
-27.723
-26.922
-26.049
-25.104
-24.086
-22.994
-21.83
-20.593
-19.285
-17.909
-16.466
-14.961
-13.394
-11.772
-10.098
-8.379
-6.622
-4.833
-3.02
-1.191
0.647
2.486
4.314
6.124
7.911
9.666
11.382
13.051
14.659
16.2
17.672
19.074
20.405
21.671
22.871
24.016
25.124
26.209
27.287
28.37
29.458
30.56
31.685
32.84
34.046
35.311
36.627
37.996
39.407
40.844
42.297
43.735
45.097
46.329
47.371
48.168
48.694
48.915
48.8
48.313
47.391
45.988
44.071
41.603
38.587
35.01
30.816
26.059
20.902
15.59
10.506
5.98
2.187
-0.628
-2.173
-2.306
-0.97
1.523
4.465
7.333
9.779
11.558
12.498
12.359
11.047
9.108
7.92
9.137
14.138
23.822
38.137
56.062
76.838
99.711
124.459
153.217
187.724
228.466
274.738
321.346
361.503
389.175
397.752
382.918
343.179
278.418
191.929
89.896
-22.815
-142.282
-265.935
-391.734
-511.17
-618.801
-712.721
-772.819
-782.918
-760.331
-724.732
-675.783
-612.516
-540.854
-465.243
-388.613
-315.766
-250.403
-193.939
-146.383
-105.81
-71.223
-42.605
-19.905
-3.933
5.786
11.106
13.877
16.249
19.814
24.897
31.32
38.815
46.852
54.853
62.293
68.423
72.558
74.561
74.631
73.11
70.521
67.35
64.012
61.024
58.88
57.822
57.924
59.133
61.287
64.258
67.94
72.188
76.839
81.752
86.795
91.865
96.885
101.76
106.391
110.683
114.543
117.925
120.819
123.234
125.203
126.763
127.957
128.842
129.482
129.939
130.273
130.537
130.776
131.039
131.376
131.834
132.462
133.288
134.329
135.595
137.084
138.796
140.724
142.855
145.172
147.66
150.304
153.092
156.012
159.051
162.188
165.408
168.689
172.014
175.365
178.724
182.072
185.389
188.658
191.861
194.98
197.997
200.892
203.645
206.237
208.649
210.862
212.86
214.625
216.142
217.397
218.379
219.076
219.48
219.583
219.378
218.861
218.028
216.878
215.41
213.626
211.528
209.121
206.411
203.404
200.11
196.538
192.699
188.607
184.273
179.714
174.944
169.98
164.839
159.538
154.097
148.533
142.867
137.118
131.304
125.446
119.563
113.673
107.797
101.95
96.152
90.419
84.768
79.213
73.771
68.454
63.277
58.25
53.386
48.694
44.183
39.862
35.737
31.815
28.1
24.596
21.305
18.228
15.366
12.718
10.282
8.055
6.034
4.214
2.589
1.153
-0.1
-1.18
-2.093
-2.848
-3.455
-3.922
-4.26
-4.478
-4.586
-4.593
-4.51
-4.346
-4.111
-3.815
-3.465
-3.072
-2.643
-2.187
-1.711
-1.223
-0.729
-0.235
0.252
0.728
1.187
1.626
2.041
2.429
2.787
3.114
3.407
3.666
3.889
4.078
4.231
4.349
4.433
4.483
4.502
4.491
4.45
4.383
4.29
4.173
4.035
3.877
3.701
3.51
3.304
3.085
2.856
2.617
2.37
2.116
1.857
1.594
1.327
1.057
0.785
0.511
0.236
-0.04
-0.317
-0.595
-0.874
-1.154
-1.435
-1.718
-2.003
-2.291
-2.582
-2.877
-3.176
-3.48
-3.789
-4.104
-4.427
-4.756
-5.094
-5.439
-5.793
-6.157
-6.529
-6.912
-7.304
-7.707
-8.12
-8.545
-8.98
-9.427
-9.885
-10.355
-10.836
-11.329
-11.834
-12.351
-12.879
-13.42
-13.973
-14.538
-15.114
-15.702
-16.3
-16.909
-17.527
-18.154
-18.787
-19.426
-20.07
-20.717
-21.365
-22.012
-22.658
-23.3
-23.936
-24.564
-25.181
-25.785
-26.374
-26.944
-27.493
-28.019
-28.517
-28.986
-29.422
-29.822
-30.182
-30.501
-30.773
-30.996
-31.166
-31.282
-31.339
-31.337
-31.273
-31.146
-30.957
-30.706
-30.393
-30.022
-29.594
-29.111
-28.575
-27.99
-27.36
-26.689
-25.979
-25.235
-24.463
-23.669
-22.859
-22.042
-21.223
-20.409
-19.606
-18.823
-18.066
-17.343
-16.657
-16.015
-15.423
-14.888
-14.42
-14.026
-13.706
-13.457
-13.276
-13.157
-13.093
-13.072
-13.075
-13.086
-13.087
-13.065
-13.015
-12.926
-12.786
-12.585
-12.301
-11.926
-11.462
-10.913
-10.291
-9.611
-8.893
-8.172
-7.505
-6.942
-6.538
-6.351
-6.418
-6.786
-7.498
-8.581
-10.08
-12.037
-14.482
-17.445
-20.939
-24.936
-29.424
-34.414
-39.805
-45.425
-51.003
-56.133
-60.487
-63.855
-65.983
-66.559
-65.45
-62.743
-58.838
-54.541
-50.514
-47.135
-44.82
-43.981
-44.828
-46.989
-49.213
-49.694
-46.78
-39.968
-29.766
-16.498
-0.186
19.962
45.517
77.488
115.943
159.905
207.152
253.303
292.722
319.104
324.703
304.178
255.494
179.809
83.712
-24.942
-139.844
-257.294
-376.674
-493.767
-605.981
-718.682
-816.418
-861.69
-853.248
-825.417
-790.303
-740.137
-676.294
-604.927
-529.259
-451.649
-376.64
-309.578
-252.841
-207.193
-171.79
-144.012
-122.281
-105.836
-94.329
-87.554
-84.24
-82.42
-80.056
-75.781
-69.39
-61.215
-51.781
-41.889
-32.252
-23.677
-17.093
-12.836
-10.785
-10.64
-11.878
-13.993
-16.548
-19.005
-20.796
-21.594
-21.271
-19.838
-17.442
-14.204
-10.223
-5.638
-0.608
4.72
10.223
15.795
21.356
26.823
32.097
37.085
41.7
45.872
49.561
52.761
55.487
57.768
59.645
61.161
62.372
63.341
64.131
64.797
65.392
65.96
66.55
67.21
67.986
68.921
70.044
71.371
72.909
74.663
76.63
78.808
81.186
83.749
86.483
89.376
92.418
95.598
98.902
102.315
105.819
109.396
113.029
116.701
120.395
124.091
127.771
131.417
135.01
138.533
141.967
145.292
148.488
151.534
154.411
157.101
159.585
161.845
163.865
165.631
167.13
168.349
169.279
169.91
170.235
170.248
169.945
169.322
168.379
167.115
165.532
163.633
161.424
158.911
156.102
153.004
149.631
145.992
142.102
137.974
133.624
129.068
124.323
119.406
114.336
109.132
103.813
98.398
92.908
87.361
81.778
76.178
70.58
65.001
59.461
53.976
48.564
43.24
38.02
32.917
27.946
23.119
18.448
13.942
9.613
5.468
1.514
-2.243
-5.798
-9.146
-12.286
-15.217
-17.937
-20.448
-22.751
-24.849
-26.747
-28.449
-29.96
-31.287
-32.437
-33.418
-34.238
-34.906
-35.431
-35.821
-36.088
-36.24
-36.287
-36.24
-36.108
-35.901
-35.628
-35.299
-34.923
-34.509
-34.065
-33.599
-33.119
-32.632
-32.145
-31.663
-31.192
-30.738
-30.305
-29.896
-29.516
-29.166
-28.851
-28.57
-28.326
-28.119
-27.95
-27.819
-27.726
-27.669
-27.649
-27.663
-27.711
-27.791
-27.9
-28.037
-28.2
-28.386
-28.594
-28.821
-29.065
-29.324
-29.595
-29.877
-30.166
-30.463
-30.763
-31.066
-31.369
-31.672
-31.972
-32.269
-32.561
-32.846
-33.125
-33.396
-33.659
-33.913
-34.158
-34.392
-34.617
-34.832
-35.036
-35.23
-35.415
-35.59
-35.756
-35.913
-36.062
-36.204
-36.338
-36.466
-36.588
-36.706
-36.82
-36.93
-37.038
-37.145
-37.252
-37.361
-37.472
-37.586
-37.705
-37.831
-37.964
-38.106
-38.258
-38.422
-38.6
-38.792
-39.0
-39.226
-39.472
-39.737
-40.023
-40.33
-40.66
-41.012
-41.387
-41.783
-42.201
-42.641
-43.1
-43.58
-44.078
-44.593
-45.124
-45.667
-46.222
-46.785
-47.354
-47.925
-48.495
-49.061
-49.618
-50.164
-50.693
-51.202
-51.685
-52.138
-52.556
-52.934
-53.266
-53.547
-53.773
-53.939
-54.041
-54.076
-54.041
-53.934
-53.755
-53.504
-53.179
-52.781
-52.31
-51.768
-51.156
-50.476
-49.73
-48.921
-48.054
-47.135
-46.17
-45.167
-44.133
-43.077
-42.006
-40.928
-39.853
-38.789
-37.741
-36.719
-35.733
-34.794
-33.917
-33.112
-32.383
-31.733
-31.162
-30.667
-30.241
-29.871
-29.541
-29.237
-28.949
-28.671
-28.401
-28.13
-27.847
-27.54
-27.191
-26.796
-26.351
-25.854
-25.311
-24.73
-24.139
-23.576
-23.088
-22.709
-22.472
-22.4
-22.519
-22.871
-23.487
-24.395
-25.627
-27.187
-29.096
-31.385
-34.074
-37.179
-40.681
-44.517
-48.645
-53.07
-57.725
-62.473
-67.074
-71.15
-74.401
-76.646
-77.658
-77.158
-74.979
-71.19
-66.188
-60.738
-55.546
-50.952
-47.253
-44.914
-44.188
-44.972
-46.361
-46.373
-43.168
-35.65
-23.729
-8.483
9.345
29.482
52.369
80.396
115.407
158.056
207.807
259.512
306.08
340.774
355.999
346.995
312.325
251.951
169.689
72.215
-35.144
-147.902
-264.014
-382.728
-496.795
-603.838
-704.956
-775.34
-791.62
-773.137
-742.474
-696.495
-634.403
-564.77
-492.969
-421.765
-354.013
-291.568
-235.509
-186.133
-142.618
-105.008
-73.648
-48.431
-30.165
-18.616
-11.894
-8.104
-5.105
-1.097
4.321
10.969
18.8
27.447
36.295
44.81
52.094
57.533
61.189
62.924
62.931
61.107
57.219
52.486
47.991
45.08
45.115
47.22
50.534
54.332
57.567
60.806
64.582
68.888
73.994
79.534
85.095
90.653
96.07
101.26
106.181
110.694
114.711
118.221
121.237
123.782
125.894
127.616
129.004
130.123
131.044
131.821
132.506
133.146
133.791
134.491
135.299
136.264
137.417
138.778
140.358
142.157
144.175
146.407
148.842
151.463
154.255
157.205
160.301
163.534
166.888
170.348
173.894
177.508
181.171
184.866
188.575
192.277
195.954
199.586
203.156
206.645
210.033
213.3
216.424
219.384
222.16
224.733
227.082
229.19
231.039
232.614
233.901
234.888
235.563
235.917
235.942
235.632
234.98
233.985
232.644
230.957
228.925
226.553
223.843
220.804
217.443
213.769
209.793
205.529
200.99
196.191
191.148
185.879
180.402
174.736
168.901
162.918
156.807
150.589
144.288
137.923
131.517
125.09
118.664
112.259
105.895
99.592
93.368
87.241
81.228
75.345
69.608
64.032
58.629
53.411
48.39
43.575
38.975
34.596
30.446
26.527
22.845
19.4
16.193
13.224
10.49
7.989
5.717
3.669
1.837
0.216
-1.204
-2.43
-3.472
-4.34
-5.045
-5.597
-6.008
-6.288
-6.451
-6.506
-6.467
-6.344
-6.15
-5.894
-5.59
-5.246
-4.874
-4.484
-4.084
-3.685
-3.294
-2.92
-2.569
-2.248
-1.962
-1.718
-1.519
-1.37
-1.273
-1.232
-1.247
-1.32
-1.452
-1.643
-1.893
-2.2
-2.563
-2.98
-3.45
-3.969
-4.536
-5.146
-5.798
-6.487
-7.211
-7.965
-8.747
-9.552
-10.377
-11.219
-12.074
-12.939
-13.811
-14.686
-15.562
-16.437
-17.307
-18.172
-19.028
-19.875
-20.71
-21.533
-22.343
-23.139
-23.921
-24.688
-25.442
-26.182
-26.909
-27.625
-28.329
-29.023
-29.709
-30.388
-31.06
-31.729
-32.394
-33.059
-33.724
-34.391
-35.061
-35.736
-36.416
-37.103
-37.796
-38.496
-39.203
-39.915
-40.634
-41.356
-42.082
-42.811
-43.539
-44.266
-44.988
-45.703
-46.408
-47.1
-47.774
-48.426
-49.052
-49.648
-50.208
-50.729
-51.206
-51.632
-52.003
-52.313
-52.558
-52.731
-52.827
-52.842
-52.771
-52.609
-52.354
-52.003
-51.553
-51.005
-50.358
-49.614
-48.773
-47.837
-46.808
-45.69
-44.485
-43.198
-41.831
-40.391
-38.884
-37.318
-35.701
-34.043
-32.352
-30.638
-28.911
-27.181
-25.458
-23.753
-22.074
-20.43
-18.833
-17.295
-15.831
-14.451
-13.161
-11.961
-10.853
-9.831
-8.893
-8.029
-7.219
-6.449
-5.706
-4.981
-4.269
-3.561
-2.846
-2.11
-1.334
-0.511
0.356
1.26
2.193
3.136
4.069
4.956
5.738
6.362
6.787
6.967
6.864
6.44
5.646
4.441
2.8
0.698
-1.882
-4.949
-8.519
-12.59
-17.122
-22.085
-27.441
-33.065
-38.776
-44.315
-49.318
-53.484
-56.624
-58.464
-58.683
-57.228
-54.257
-50.205
-45.843
-41.678
-37.833
-34.666
-32.717
-32.071
-32.543
-33.109
-31.714
-27.001
-18.314
-5.659
9.772
26.784
44.655
63.8
86.671
116.236
154.5
200.346
248.017
289.435
315.695
319.337
296.357
246.045
172.076
81.042
-19.521
-123.622
-229.739
-338.376
-449.335
-558.303
-655.539
-730.558
-775.423
-788.734
-775.321
-741.273
-693.179
-635.778
-571.989
-506.07
-441.82
-381.625
-326.829
-276.814
-230.4
-187.583
-149.34
-117.229
-92.473
-75.193
-64.406
-58.068
-54.079
-50.793
-46.894
-41.933
-35.931
-29.108
-21.935
-14.681
-7.791
-1.351
4.638
9.193
11.943
12.313
9.612
5.309
0.645
-3.292
-5.025
-5.005
-3.859
-1.774
0.671
3.616
7.3
11.529
16.194
21.143
26.188
31.278
36.381
41.397
46.227
50.781
54.962
58.718
62.035
64.915
67.381
69.466
71.213
72.671
73.903
74.967
75.92
76.811
77.683
78.583
79.559
80.661
81.937
83.42
85.125
87.063
89.235
91.638
94.268
97.111
100.148
103.362
106.739
110.264
113.925
117.706
121.587
125.548
129.566
133.621
137.693
141.761
145.803
149.798
153.727
157.568
161.303
164.911
168.371
171.662
174.761
177.65
180.307
182.714
184.853
186.708
188.264
189.508
190.43
191.019
191.269
191.172
190.724
189.923
188.767
187.257
185.396
183.187
180.637
177.752
174.542
171.017
167.189
163.072
158.681
154.03
149.137
144.02
138.698
133.189
127.514
121.694
115.749
109.702
103.572
97.383
91.154
84.908
78.665
72.444
66.265
60.147
54.109
48.166
42.336
36.634
31.074
25.67
20.434
15.378
10.511
5.843
1.38
-2.869
-6.901
-10.711
-14.295
-17.652
-20.782
-23.684
-26.36
-28.813
-31.046
-33.063
-34.869
-36.471
-37.875
-39.088
-40.119
-40.976
-41.667
-42.202
-42.59
-42.841
-42.964
-42.969
-42.867
-42.666
-42.376
-42.007
-41.568
-41.068
-40.516
-39.919
-39.287
-38.627
-37.945
-37.249
-36.545
-35.838
-35.135
-34.441
-33.759
-33.094
-32.449
-31.828
-31.234
-30.668
-30.132
-29.629
-29.159
-28.724
-28.323
-27.957
-27.627
-27.331
-27.071
-26.845
-26.654
-26.495
-26.369
-26.274
-26.21
-26.176
-26.17
-26.192
-26.24
-26.313
-26.411
-26.532
-26.675
-26.839
-27.022
-27.225
-27.446
-27.684
-27.937
-28.207
-28.49
-28.788
-29.098
-29.422
-29.756
-30.102
-30.458
-30.824
-31.198
-31.581
-31.972
-32.369
-32.772
-33.18
-33.594
-34.011
-34.432
-34.855
-35.28
-35.707
-36.134
-36.561
-36.988
-37.413
-37.838
-38.26
-38.679
-39.096
-39.509
-39.917
-40.32
-40.716
-41.105
-41.484
-41.853
-42.21
-42.553
-42.88
-43.192
-43.484
-43.756
-44.007
-44.233
-44.432
-44.604
-44.744
-44.852
-44.924
-44.958
-44.952
-44.904
-44.81
-44.668
-44.475
-44.229
-43.926
-43.563
-43.138
-42.649
-42.092
-41.466
-40.77
-40.004
-39.166
-38.258
-37.282
-36.24
-35.134
-33.966
-32.74
-31.459
-30.129
-28.752
-27.332
-25.876
-24.388
-22.877
-21.349
-19.814
-18.278
-16.749
-15.235
-13.744
-12.287
-10.87
-9.501
-8.185
-6.933
-5.751
-4.654
-3.649
-2.737
-1.919
-1.193
-0.554
0.001
0.482
0.909
1.296
1.659
2.01
2.353
2.699
3.06
3.449
3.883
4.373
4.916
5.508
6.146
6.813
7.494
8.16
8.755
9.233
9.546
9.641
9.481
9.027
8.234
7.076
5.515
3.51
1.036
-1.939
-5.438
-9.444
-13.959
-19.001
-24.483
-30.247
-36.039
-41.478
-46.239
-50.116
-52.852
-54.137
-53.796
-51.891
-48.811
-45.291
-41.988
-39.18
-37.115
-36.225
-36.742
-38.555
-40.757
-41.396
-38.726
-31.747
-20.346
-5.378
12.716
33.902
58.551
88.364
124.388
166.664
214.5
263.623
308.065
342.132
358.959
353.42
323.341
267.706
189.137
93.952
-12.416
-125.201
-241.54
-360.43
-475.435
-584.196
-687.518
-762.102
-785.41
-774.954
-751.916
-713.454
-658.749
-595.678
-528.849
-460.65
-394.268
-331.88
-274.677
-223.306
-177.45
-137.512
-104.349
-78.223
-59.55
-47.856
-41.274
-37.777
-35.227
-31.751
-26.648
-19.951
-11.852
-2.765
6.668
15.835
23.934
30.069
33.943
35.662
35.497
33.94
31.473
28.516
25.598
23.279
21.882
21.548
22.28
23.951
26.453
29.701
33.567
37.902
42.567
47.445
52.436
57.465
62.453
67.302
71.921
76.221
80.124
83.586
86.599
89.173
91.334
93.118
94.565
95.726
96.664
97.437
98.097
98.693
99.267
99.862
100.527
101.306
102.243
103.365
104.687
106.218
107.958
109.906
112.054
114.393
116.902
119.567
122.374
125.311
128.366
131.525
134.769
138.082
141.444
144.837
148.245
151.648
155.03
158.371
161.655
164.865
167.984
170.996
173.882
176.625
179.205
181.607
183.813
185.807
187.575
189.103
190.378
191.39
192.131
192.592
192.766
192.649
192.237
191.527
190.52
189.215
187.614
185.72
183.539
181.075
178.337
175.332
172.07
168.562
164.819
160.854
156.681
152.313
147.767
143.056
138.198
133.21
128.108
122.909
117.631
112.292
106.909
101.5
96.081
90.669
85.28
79.931
74.636
69.41
64.268
59.222
54.285
49.469
44.786
40.246
35.859
31.632
27.574
23.692
19.991
16.476
13.152
10.021
7.085
4.346
1.804
-0.542
-2.694
-4.653
-6.423
-8.007
-9.41
-10.637
-11.694
-12.587
-13.323
-13.91
-14.353
-14.662
-14.845
-14.909
-14.862
-14.715
-14.474
-14.149
-13.747
-13.278
-12.749
-12.168
-11.544
-10.884
-10.195
-9.484
-8.758
-8.024
-7.287
-6.553
-5.827
-5.115
-4.42
-3.747
-3.101
-2.483
-1.897
-1.347
-0.833
-0.359
0.075
0.467
0.817
1.122
1.384
1.602
1.776
1.907
1.994
2.04
2.044
2.008
1.934
1.822
1.674
1.493
1.279
1.035
0.763
0.465
0.143
-0.201
-0.564
-0.945
-1.341
-1.749
-2.168
-2.594
-3.027
-3.463
-3.9
-4.336
-4.769
-5.198
-5.62
-6.033
-6.437
-6.829
-7.209
-7.574
-7.924
-8.259
-8.577
-8.877
-9.16
-9.426
-9.674
-9.906
-10.121
-10.321
-10.506
-10.678
-10.838
-10.987
-11.127
-11.261
-11.39
-11.517
-11.643
-11.771
-11.904
-12.044
-12.193
-12.353
-12.526
-12.714
-12.917
-13.138
-13.378
-13.636
-13.915
-14.213
-14.533
-14.872
-15.231
-15.609
-16.004
-16.415
-16.84
-17.275
-17.719
-18.168
-18.619
-19.068
-19.511
-19.943
-20.361
-20.758
-21.13
-21.471
-21.776
-22.038
-22.254
-22.417
-22.524
-22.57
-22.551
-22.465
-22.311
-22.086
-21.791
-21.425
-20.989
-20.482
-19.907
-19.265
-18.559
-17.791
-16.965
-16.086
-15.161
-14.197
-13.201
-12.182
-11.147
-10.105
-9.065
-8.036
-7.026
-6.043
-5.095
-4.194
-3.349
-2.574
-1.879
-1.266
-0.737
-0.291
0.078
0.375
0.61
0.802
0.963
1.102
1.228
1.347
1.464
1.593
1.744
1.932
2.168
2.454
2.787
3.165
3.569
3.974
4.354
4.663
4.858
4.91
4.781
4.432
3.835
2.956
1.76
0.233
-1.658
-3.946
-6.655
-9.819
-13.434
-17.459
-21.88
-26.694
-31.827
-37.133
-42.348
-47.094
-51.068
-54.076
-55.883
-56.186
-54.797
-51.816
-47.692
-43.171
-38.942
-35.386
-32.826
-31.776
-32.624
-34.947
-37.387
-38.213
-35.717
-29.504
-20.621
-9.236
5.335
24.224
49.961
84.191
125.916
173.611
224.112
271.693
311.973
340.055
349.446
336.15
296.807
230.33
141.912
38.789
-72.054
-185.483
-300.99
-415.975
-528.532
-645.205
-752.359
-810.338
-813.212
-794.578
-768.033
-725.123
-667.088
-601.522
-531.719
-459.886
-390.055
-325.375
-267.813
-218.281
-175.578
-139.21
-109.233
-85.331
-68.382
-58.237
-52.947
-50.558
-48.869
-46.024
-41.604
-35.809
-28.729
-20.731
-12.468
-4.528
2.242
6.984
9.524
10.055
8.874
6.487
3.389
0.005
-3.117
-5.431
-6.673
-6.759
-5.731
-3.755
-0.949
2.589
6.722
11.3
16.187
21.261
26.42
31.587
36.668
41.561
46.164
50.381
54.156
57.469
60.331
62.773
64.828
66.54
67.958
69.142
70.154
71.049
71.879
72.686
73.518
74.424
75.452
76.651
78.051
79.67
81.515
83.586
85.878
88.385
91.093
93.983
97.036
100.239
103.576
107.036
110.603
114.258
117.982
121.754
125.555
129.366
133.167
136.94
140.666
144.324
147.899
151.372
154.726
157.941
160.998
163.879
166.564
169.037
171.281
173.281
175.022
176.493
177.681
178.578
179.176
179.469
179.452
179.12
178.473
177.509
176.23
174.638
172.736
170.53
168.025
165.231
162.156
158.811
155.207
151.356
147.273
142.972
138.469
133.778
128.918
123.905
118.757
113.491
108.127
102.682
97.174
91.623
86.045
80.458
74.88
69.328
63.816
58.362
52.98
47.684
42.488
37.405
32.446
27.623
22.946
18.425
14.068
9.883
5.875
2.051
-1.585
-5.031
-8.282
-11.338
-14.199
-16.864
-19.335
-21.614
-23.703
-25.608
-27.332
-28.88
-30.257
-31.471
-32.528
-33.434
-34.198
-34.828
-35.33
-35.714
-35.988
-36.161
-36.24
-36.235
-36.153
-36.003
-35.794
-35.532
-35.226
-34.883
-34.509
-34.112
-33.698
-33.271
-32.838
-32.404
-31.973
-31.549
-31.135
-30.735
-30.352
-29.988
-29.645
-29.324
-29.027
-28.754
-28.507
-28.285
-28.088
-27.916
-27.768
-27.643
-27.541
-27.46
-27.399
-27.356
-27.329
-27.317
-27.319
-27.331
-27.353
-27.382
-27.417
-27.456
-27.497
-27.54
-27.581
-27.62
-27.655
-27.685
-27.709
-27.725
-27.733
-27.731
-27.72
-27.697
-27.662
-27.615
-27.555
-27.481
-27.394
-27.294
-27.179
-27.051
-26.908
-26.753
-26.584
-26.402
-26.209
-26.004
-25.79
-25.565
-25.333
-25.093
-24.847
-24.596
-24.342
-24.085
-23.828
-23.571
-23.316
-23.065
-22.82
-22.582
-22.353
-22.135
-21.93
-21.738
-21.563
-21.406
-21.268
-21.151
-21.057
-20.988
-20.945
-20.928
-20.939
-20.979
-21.048
-21.146
-21.273
-21.428
-21.612
-21.821
-22.057
-22.316
-22.597
-22.9
-23.22
-23.556
-23.905
-24.263
-24.629
-24.997
-25.365
-25.728
-26.082
-26.423
-26.748
-27.051
-27.328
-27.574
-27.785
-27.956
-28.084
-28.163
-28.189
-28.16
-28.072
-27.923
-27.711
-27.435
-27.095
-26.693
-26.229
-25.705
-25.123
-24.487
-23.8
-23.064
-22.286
-21.467
-20.613
-19.73
-18.824
-17.902
-16.971
-16.039
-15.112
-14.197
-13.303
-12.438
-11.611
-10.824
-10.084
-9.394
-8.764
-8.202
-7.714
-7.3
-6.957
-6.68
-6.465
-6.307
-6.194
-6.106
-6.02
-5.918
-5.785
-5.615
-5.399
-5.126
-4.778
-4.336
-3.79
-3.145
-2.411
-1.599
-0.719
0.217
1.168
2.071
2.861
3.467
3.84
3.941
3.726
3.157
2.185
0.746
-1.204
-3.692
-6.735
-10.315
-14.441
-19.16
-24.396
-29.956
-35.552
-40.758
-45.228
-48.763
-51.099
-51.895
-50.996
-48.471
-44.718
-40.563
-36.686
-33.454
-31.258
-30.469
-31.277
-33.299
-35.237
-35.274
-31.709
-23.969
-12.843
1.242
18.397
39.336
66.583
101.751
144.433
193.579
245.087
292.857
331.509
354.661
356.501
333.943
285.195
211.686
118.853
12.888
-100.324
-217.304
-336.959
-454.391
-566.928
-679.548
-776.867
-823.084
-818.04
-794.966
-764.768
-719.163
-659.103
-590.592
-516.896
-441.255
-368.716
-303.469
-247.23
-200.11
-160.786
-128.225
-102.039
-82.139
-68.99
-61.704
-58.365
-56.832
-54.629
-50.524
-44.499
-36.763
-27.783
-18.233
-8.726
-0.123
6.521
10.774
12.716
12.627
11.021
8.407
5.216
2.008
-0.582
-2.176
-2.621
-1.906
-0.178
2.437
5.856
9.944
14.54
19.5
24.688
29.995
35.342
40.645
45.801
50.713
55.286
59.437
63.127
66.351
69.12
71.465
73.425
75.041
76.369
77.472
78.414
79.25
80.033
80.807
81.618
82.518
83.552
84.765
86.185
87.825
89.692
91.786
94.105
96.642
99.383
102.309
105.406
108.657
112.049
115.57
119.203
122.931
126.732
130.588
134.478
138.385
142.289
146.169
150.007
153.784
157.481
161.08
164.563
167.91
171.102
174.118
176.942
179.554
181.94
184.082
185.967
187.581
188.915
189.959
190.705
191.147
191.28
191.101
190.608
189.801
188.68
187.25
185.513
183.476
181.145
178.528
175.636
172.479
169.068
165.418
161.54
157.451
153.166
148.7
144.071
139.296
134.392
129.376
124.268
119.085
113.845
108.566
103.265
97.96
92.666
87.4
82.178
77.014
71.922
66.915
62.007
57.208
52.531
47.984
43.578
39.32
35.218
31.279
27.508
23.909
20.487
17.243
14.181
11.3
8.601
6.083
3.744
1.581
-0.407
-2.226
-3.88
-5.375
-6.714
-7.906
-8.956
-9.871
-10.658
-11.325
-11.879
-12.328
-12.68
-12.942
-13.121
-13.226
-13.264
-13.242
-13.168
-13.047
-12.887
-12.694
-12.475
-12.234
-11.977
-11.709
-11.434
-11.158
-10.883
-10.613
-10.352
-10.101
-9.863
-9.639
-9.432
-9.243
-9.071
-8.918
-8.784
-8.669
-8.573
-8.494
-8.433
-8.388
-8.358
-8.343
-8.34
-8.349
-8.368
-8.397
-8.432
-8.474
-8.521
-8.57
-8.622
-8.675
-8.727
-8.778
-8.826
-8.871
-8.911
-8.947
-8.977
-9.0
-9.018
-9.028
-9.032
-9.03
-9.02
-9.005
-8.984
-8.957
-8.926
-8.89
-8.852
-8.812
-8.771
-8.731
-8.692
-8.656
-8.625
-8.599
-8.581
-8.571
-8.572
-8.585
-8.61
-8.651
-8.708
-8.783
-8.878
-8.994
-9.132
-9.294
-9.482
-9.695
-9.937
-10.207
-10.507
-10.838
-11.201
-11.595
-12.022
-12.482
-12.975
-13.5
-14.057
-14.645
-15.264
-15.91
-16.584
-17.281
-18.001
-18.74
-19.496
-20.266
-21.047
-21.835
-22.627
-23.418
-24.205
-24.983
-25.748
-26.495
-27.219
-27.915
-28.579
-29.206
-29.79
-30.326
-30.81
-31.237
-31.6
-31.896
-32.119
-32.266
-32.333
-32.316
-32.213
-32.022
-31.742
-31.374
-30.918
-30.376
-29.75
-29.041
-28.254
-27.391
-26.457
-25.457
-24.394
-23.274
-22.104
-20.892
-19.647
-18.378
-17.092
-15.801
-14.512
-13.236
-11.981
-10.758
-9.574
-8.437
-7.358
-6.347
-5.416
-4.575
-3.826
-3.17
-2.605
-2.125
-1.724
-1.391
-1.108
-0.859
-0.634
-0.421
-0.211
0.004
0.237
0.503
0.818
1.194
1.635
2.136
2.697
3.297
3.912
4.516
5.059
5.497
5.794
5.907
5.791
5.413
4.731
3.704
2.312
0.517
-1.718
-4.417
-7.615
-11.308
-15.454
-20.036
-25.042
-30.383
-35.893
-41.296
-46.202
-50.3
-53.394
-55.239
-55.532
-54.107
-51.076
-46.885
-42.269
-37.875
-34.031
-31.037
-29.375
-29.369
-30.603
-31.786
-31.242
-27.39
-19.837
-9.514
3.322
19.126
38.665
64.033
96.875
136.498
181.759
229.847
275.043
312.876
338.479
345.478
330.148
289.34
221.95
132.928
29.105
-82.963
-198.309
-316.141
-433.321
-547.062
-663.134
-768.477
-824.569
-825.255
-803.639
-773.849
-727.624
-665.79
-595.913
-521.83
-446.377
-374.297
-309.295
-252.881
-205.197
-164.636
-130.372
-102.405
-80.624
-65.644
-56.853
-52.333
-50.176
-48.231
-44.908
-39.86
-33.266
-25.407
-16.838
-8.182
-0.016
6.874
11.779
14.546
15.358
14.551
12.637
10.101
7.362
4.938
3.32
2.749
3.296
4.911
7.435
10.745
14.741
19.281
24.213
29.402
34.725
40.085
45.413
50.619
55.607
60.282
64.552
68.369
71.721
74.618
77.087
79.166
80.894
82.326
83.523
84.548
85.456
86.3
87.121
87.968
88.889
89.932
91.145
92.559
94.189
96.045
98.127
100.432
102.955
105.682
108.594
111.675
114.909
118.283
121.784
125.397
129.102
132.88
136.709
140.569
144.443
148.309
152.147
155.938
159.662
163.3
166.835
170.248
173.518
176.625
179.55
182.274
184.778
187.046
189.062
190.81
192.278
193.455
194.332
194.9
195.153
195.087
194.698
193.986
192.949
191.59
189.911
187.918
185.617
183.015
180.121
176.946
173.5
169.798
165.853
161.679
157.291
152.708
147.944
143.019
137.949
132.754
127.451
122.061
116.602
111.091
105.549
99.993
94.441
88.909
83.415
77.973
72.6
67.309
62.114
57.027
52.06
47.225
42.531
37.988
33.602
29.383
25.335
21.464
17.774
14.268
10.949
7.819
4.877
2.124
-0.442
-2.823
-5.021
-7.039
-8.882
-10.554
-12.06
-13.407
-14.599
-15.644
-16.548
-17.319
-17.962
-18.486
-18.897
-19.204
-19.413
-19.531
-19.567
-19.527
-19.418
-19.246
-19.019
-18.743
-18.424
-18.067
-17.678
-17.262
-16.825
-16.371
-15.905
-15.43
-14.95
-14.469
-13.99
-13.517
-13.05
-12.594
-12.15
-11.72
-11.305
-10.908
-10.529
-10.169
-9.829
-9.511
-9.214
-8.939
-8.686
-8.456
-8.248
-8.062
-7.899
-7.759
-7.64
-7.543
-7.468
-7.413
-7.379
-7.366
-7.372
-7.396
-7.439
-7.5
-7.577
-7.67
-7.779
-7.903
-8.04
-8.19
-8.352
-8.525
-8.708
-8.901
-9.103
-9.312
-9.528
-9.751
-9.98
-10.214
-10.453
-10.696
-10.944
-11.196
-11.452
-11.711
-11.975
-12.242
-12.513
-12.788
-13.069
-13.354
-13.646
-13.945
-14.251
-14.565
-14.888
-15.222
-15.566
-15.923
-16.293
-16.678
-17.078
-17.495
-17.931
-18.384
-18.857
-19.351
-19.864
-20.397
-20.95
-21.522
-22.112
-22.719
-23.342
-23.98
-24.63
-25.292
-25.961
-26.637
-27.316
-27.994
-28.67
-29.338
-29.996
-30.638
-31.262
-31.863
-32.437
-32.979
-33.485
-33.949
-34.368
-34.735
-35.048
-35.3
-35.488
-35.608
-35.657
-35.632
-35.532
-35.354
-35.1
-34.769
-34.364
-33.885
-33.335
-32.716
-32.032
-31.287
-30.485
-29.629
-28.725
-27.78
-26.8
-25.794
-24.77
-23.736
-22.7
-21.671
-20.656
-19.666
-18.709
-17.79
-16.919
-16.101
-15.347
-14.668
-14.07
-13.555
-13.123
-12.769
-12.487
-12.272
-12.114
-11.992
-11.892
-11.799
-11.7
-11.591
-11.462
-11.304
-11.106
-10.846
-10.516
-10.119
-9.659
-9.146
-8.601
-8.035
-7.478
-6.988
-6.607
-6.385
-6.374
-6.597
-7.088
-7.888
-9.016
-10.516
-12.43
-14.775
-17.584
-20.868
-24.598
-28.782
-33.435
-38.456
-43.681
-48.852
-53.577
-57.559
-60.606
-62.465
-62.838
-61.567
-58.741
-54.793
-50.493
-46.534
-43.238
-40.902
-40.012
-40.826
-43.198
-46.155
-47.701
-46.02
-40.015
-29.53
-15.465
1.608
21.362
44.042
71.77
106.035
147.369
195.158
244.062
287.055
317.32
327.242
312.544
272.187
206.851
121.188
21.793
-86.203
-199.397
-316.201
-432.96
-546.727
-662.396
-766.749
-821.803
-822.65
-802.369
-773.34
-727.226
-665.729
-596.611
-523.939
-450.612
-380.719
-317.071
-260.888
-212.366
-170.085
-133.67
-103.571
-79.872
-63.473
-54.088
-49.582
-47.868
-46.792
-44.562
-40.769
-35.603
-29.117
-21.668
-13.919
-6.456
-0.081
4.397
6.852
7.501
6.627
4.733
2.31
-0.227
-2.339
-3.534
-3.605
-2.507
-0.314
2.8
6.708
11.302
16.422
21.908
27.61
33.403
39.191
44.887
50.394
55.605
60.414
64.754
68.598
71.947
74.828
77.277
79.33
81.043
82.479
83.699
84.765
85.732
86.649
87.567
88.54
89.623
90.867
92.312
93.978
95.879
98.019
100.395
103.005
105.836
108.871
112.094
115.491
119.049
122.756
126.597
130.553
134.604
138.729
142.908
147.121
151.347
155.565
159.755
163.895
167.965
171.947
175.818
179.556
183.139
186.545
189.751
192.737
195.481
197.965
200.171
202.081
203.683
204.962
205.908
206.511
206.764
206.658
206.192
205.36
204.164
202.603
200.68
198.399
195.767
192.791
189.48
185.846
181.902
177.66
173.136
168.347
163.31
158.044
152.568
146.902
141.067
135.085
128.977
122.766
116.473
110.12
103.73
97.325
90.924
84.55
78.221
71.957
65.776
59.697
53.735
47.906
42.227
36.709
31.366
26.209
21.249
16.494
11.953
7.632
3.537
-0.33
-3.963
-7.363
-10.529
-13.46
-16.16
-18.631
-20.876
-22.901
-24.711
-26.314
-27.716
-28.925
-29.95
-30.8
-31.483
-32.011
-32.393
-32.639
-32.758
-32.763
-32.662
-32.465
-32.184
-31.827
-31.405
-30.926
-30.399
-29.834
-29.237
-28.617
-27.981
-27.335
-26.685
-26.037
-25.396
-24.766
-24.152
-23.556
-22.981
-22.43
-21.905
-21.406
-20.935
-20.492
-20.077
-19.691
-19.332
-18.999
-18.693
-18.411
-18.153
-17.917
-17.701
-17.503
-17.323
-17.159
-17.008
-16.869
-16.741
-16.622
-16.51
-16.405
-16.306
-16.211
-16.121
-16.033
-15.948
-15.865
-15.785
-15.707
-15.631
-15.558
-15.489
-15.424
-15.364
-15.309
-15.262
-15.223
-15.194
-15.175
-15.168
-15.174
-15.195
-15.232
-15.286
-15.358
-15.45
-15.562
-15.696
-15.851
-16.03
-16.231
-16.454
-16.7
-16.967
-17.255
-17.562
-17.887
-18.228
-18.584
-18.952
-19.33
-19.716
-20.106
-20.497
-20.887
-21.271
-21.645
-22.006
-22.349
-22.67
-22.964
-23.228
-23.457
-23.646
-23.79
-23.886
-23.928
-23.912
-23.834
-23.69
-23.477
-23.193
-22.834
-22.401
-21.892
-21.308
-20.651
-19.922
-19.122
-18.255
-17.324
-16.333
-15.286
-14.187
-13.041
-11.853
-10.631
-9.38
-8.11
-6.828
-5.542
-4.26
-2.99
-1.742
-0.526
0.652
1.785
2.866
3.888
4.843
5.72
6.511
7.216
7.836
8.375
8.836
9.224
9.551
9.836
10.097
10.353
10.613
10.881
11.166
11.475
11.824
12.23
12.701
13.235
13.822
14.452
15.116
15.801
16.466
17.056
17.508
17.761
17.774
17.519
16.961
16.077
14.822
13.145
11.013
8.397
5.286
1.691
-2.403
-7.033
-12.125
-17.509
-22.917
-27.971
-32.378
-35.967
-38.506
-39.706
-39.406
-37.665
-34.856
-31.678
-28.75
-26.324
-24.627
-24.047
-24.788
-26.766
-29.201
-30.324
-28.451
-22.537
-12.332
1.288
17.428
35.532
55.559
79.355
108.917
145.501
189.421
236.727
280.925
314.666
329.206
318.378
279.7
214.361
128.424
30.42
-72.56
-177.201
-283.236
-391.798
-501.192
-603.866
-690.295
-751.511
-782.17
-783.947
-761.405
-720.179
-666.557
-604.668
-538.681
-473.038
-410.187
-351.791
-298.139
-248.246
-202.35
-161.434
-126.85
-100.051
-81.112
-69.089
-62.14
-57.945
-54.687
-50.877
-45.784
-39.438
-31.934
-23.536
-14.83
-6.381
1.082
6.711
10.216
11.7
11.419
9.844
7.442
4.621
1.884
-0.226
-1.396
-1.493
-0.52
1.393
4.132
7.607
11.691
16.234
21.095
26.155
31.309
36.48
41.586
46.53
51.22
55.57
59.509
63.0
66.039
68.642
70.839
72.672
74.183
75.426
76.466
77.361
78.165
78.93
79.697
80.514
81.427
82.481
83.717
85.162
86.829
88.724
90.849
93.199
95.768
98.544
101.508
104.643
107.937
111.375
114.945
118.63
122.411
126.269
130.182
134.132
138.098
142.061
146.0
149.894
153.723
157.467
161.108
164.624
167.995
171.2
174.218
177.029
179.614
181.956
184.036
185.84
187.354
188.565
189.463
190.039
190.286
190.197
189.769
189.0
187.888
186.435
184.643
182.517
180.062
177.287
174.199
170.81
167.132
163.178
158.963
154.502
149.812
144.911
139.817
134.55
129.129
123.575
117.908
112.15
106.321
100.442
94.533
88.616
82.71
76.835
71.008
65.249
59.574
54.0
48.541
43.214
38.03
33.003
28.145
23.464
18.971
14.673
10.577
6.689
3.012
-0.449
-3.694
-6.722
-9.532
-12.127
-14.509
-16.681
-18.649
-20.418
-21.994
-23.383
-24.595
-25.637
-26.518
-27.246
-27.833
-28.287
-28.618
-28.836
-28.952
-28.975
-28.916
-28.783
-28.587
-28.337
-28.042
-27.71
-27.349
-26.968
-26.573
-26.172
-25.771
-25.374
-24.989
-24.618
-24.267
-23.938
-23.635
-23.36
-23.114
-22.898
-22.714
-22.562
-22.441
-22.351
-22.291
-22.259
-22.255
-22.276
-22.321
-22.388
-22.474
-22.577
-22.695
-22.825
-22.966
-23.115
-23.269
-23.427
-23.587
-23.746
-23.903
-24.057
-24.205
-24.348
-24.482
-24.609
-24.727
-24.835
-24.934
-25.023
-25.104
-25.175
-25.239
-25.296
-25.347
-25.394
-25.438
-25.479
-25.521
-25.564
-25.611
-25.662
-25.719
-25.785
-25.86
-25.946
-26.045
-26.156
-26.282
-26.423
-26.578
-26.749
-26.935
-27.135
-27.349
-27.575
-27.814
-28.064
-28.323
-28.589
-28.859
-29.133
-29.406
-29.676
-29.94
-30.193
-30.433
-30.654
-30.854
-31.028
-31.172
-31.281
-31.352
-31.378
-31.357
-31.284
-31.154
-30.965
-30.712
-30.393
-30.006
-29.549
-29.022
-28.425
-27.76
-27.027
-26.228
-25.365
-24.443
-23.463
-22.431
-21.349
-20.223
-19.057
-17.857
-16.632
-15.389
-14.136
-12.882
-11.633
-10.4
-9.191
-8.016
-6.882
-5.796
-4.766
-3.801
-2.907
-2.099
-1.382
-0.757
-0.225
0.218
0.579
0.863
1.081
1.252
1.392
1.518
1.644
1.773
1.917
2.087
2.294
2.56
2.896
3.299
3.767
4.29
4.848
5.43
6.003
6.51
6.904
7.134
7.143
6.902
6.375
5.517
4.306
2.697
0.64
-1.887
-4.915
-8.454
-12.473
-16.976
-21.974
-27.364
-32.97
-38.524
-43.637
-48.019
-51.485
-53.788
-54.622
-53.815
-51.455
-47.96
-44.036
-40.284
-37.005
-34.471
-33.147
-33.363
-34.751
-36.139
-35.9
-32.435
-25.375
-15.42
-2.82
12.356
30.65
53.572
82.485
118.043
160.088
206.954
253.863
294.816
323.548
332.688
317.601
276.393
209.251
121.599
20.72
-87.806
-199.481
-313.98
-431.122
-543.242
-647.175
-741.996
-805.026
-817.464
-797.866
-767.229
-723.632
-665.577
-599.911
-531.807
-464.127
-399.557
-339.862
-285.257
-235.292
-190.083
-150.527
-117.848
-92.876
-75.672
-65.302
-59.652
-56.465
-53.95
-50.61
-45.918
-40.046
-32.984
-24.971
-16.642
-8.558
-1.514
3.626
6.661
7.753
7.179
5.425
2.972
0.226
-2.286
-4.023
-4.718
-4.281
-2.756
-0.309
2.936
6.882
11.391
16.31
21.502
26.846
32.237
37.603
42.852
47.884
52.603
56.914
60.764
64.135
67.041
69.512
71.587
73.307
74.725
75.901
76.896
77.767
78.566
79.335
80.123
80.976
81.945
83.077
84.405
85.945
87.707
89.689
91.891
94.305
96.92
99.716
102.678
105.791
109.041
112.419
115.908
119.49
123.147
126.858
130.604
134.367
138.128
141.868
145.566
149.205
152.767
156.233
159.586
162.806
165.874
168.771
171.478
173.978
176.254
178.289
180.071
181.584
182.82
183.767
184.418
184.766
184.806
184.533
183.946
183.045
181.829
180.302
178.466
176.327
173.891
171.167
168.163
164.891
161.362
157.589
153.586
149.369
144.952
140.352
135.587
130.675
125.632
120.478
115.232
109.912
104.536
99.125
93.695
88.265
82.853
77.475
72.148
66.888
61.71
56.628
51.655
46.805
42.089
37.519
33.105
28.855
24.777
20.88
17.169
13.648
10.322
7.194
4.265
1.536
-0.993
-3.324
-5.458
-7.399
-9.15
-10.717
-12.105
-13.32
-14.369
-15.259
-15.998
-16.594
-17.055
-17.392
-17.611
-17.723
-17.736
-17.661
-17.505
-17.279
-16.99
-16.648
-16.262
-15.839
-15.388
-14.916
-14.43
-13.937
-13.443
-12.954
-12.476
-12.012
-11.567
-11.145
-10.749
-10.381
-10.044
-9.738
-9.466
-9.228
-9.023
-8.853
-8.715
-8.61
-8.535
-8.49
-8.472
-8.481
-8.513
-8.566
-8.639
-8.728
-8.832
-8.947
-9.071
-9.202
-9.337
-9.475
-9.612
-9.748
-9.88
-10.006
-10.126
-10.239
-10.342
-10.436
-10.52
-10.594
-10.657
-10.711
-10.755
-10.791
-10.819
-10.841
-10.857
-10.871
-10.883
-10.895
-10.909
-10.928
-10.953
-10.986
-11.031
-11.089
-11.162
-11.253
-11.364
-11.496
-11.65
-11.83
-12.034
-12.265
-12.523
-12.807
-13.117
-13.455
-13.817
-14.205
-14.617
-15.05
-15.504
-15.975
-16.461
-16.959
-17.465
-17.976
-18.488
-18.996
-19.497
-19.985
-20.455
-20.904
-21.324
-21.712
-22.062
-22.367
-22.624
-22.825
-22.968
-23.047
-23.06
-23.002
-22.871
-22.666
-22.387
-22.034
-21.606
-21.104
-20.529
-19.883
-19.169
-18.39
-17.549
-16.648
-15.695
-14.695
-13.656
-12.586
-11.491
-10.38
-9.259
-8.138
-7.026
-5.93
-4.857
-3.815
-2.81
-1.853
-0.957
-0.128
0.633
1.324
1.948
2.511
3.016
3.472
3.898
4.307
4.71
5.12
5.538
5.971
6.432
6.931
7.486
8.105
8.786
9.525
10.315
11.144
11.995
12.843
13.637
14.336
14.901
15.286
15.462
15.396
15.049
14.395
13.401
12.025
10.24
8.017
5.331
2.193
-1.408
-5.498
-10.017
-14.827
-19.702
-24.291
-28.285
-31.484
-33.651
-34.473
-33.765
-31.571
-28.26
-24.579
-21.225
-18.525
-16.755
-16.346
-17.562
-20.327
-23.76
-25.889
-24.863
-19.527
-9.681
3.76
20.292
39.89
63.01
91.59
126.864
168.751
216.309
265.269
309.785
344.641
363.611
361.574
335.628
283.703
207.635
113.16
6.612
-105.738
-221.215
-339.093
-454.602
-568.454
-681.781
-768.91
-803.751
-801.551
-783.793
-748.291
-695.087
-632.872
-565.848
-495.048
-422.939
-353.106
-288.502
-231.562
-183.4
-143.364
-111.009
-85.661
-66.76
-54.554
-47.957
-45.07
-43.876
-41.951
-38.081
-32.252
-24.646
-15.73
-6.208
3.296
11.919
18.629
23.026
25.184
25.373
24.098
21.859
19.086
16.334
14.213
13.076
13.072
14.2
16.318
19.303
23.063
27.459
32.327
37.518
42.907
48.39
53.89
59.325
64.594
69.602
74.259
78.491
82.256
85.547
88.376
90.771
92.772
94.422
95.777
96.9
97.851
98.688
99.46
100.214
100.995
101.854
102.836
103.984
105.327
106.881
108.652
110.642
112.848
115.265
117.88
120.675
123.635
126.745
129.992
133.363
136.842
140.411
144.05
147.739
151.457
155.186
158.907
162.598
166.239
169.811
173.294
176.669
179.916
183.016
185.946
188.687
191.218
193.521
195.578
197.372
198.887
200.111
201.03
201.635
201.918
201.87
201.486
200.764
199.7
198.295
196.55
194.467
192.052
189.311
186.251
182.883
179.217
175.265
171.04
166.559
161.837
156.89
151.737
146.396
140.886
135.228
129.442
123.549
117.569
111.523
105.432
99.318
93.2
87.098
81.031
75.019
69.078
63.226
57.48
51.854
46.362
41.019
35.836
30.825
25.995
21.356
16.914
12.677
8.65
4.837
1.239
-2.14
-5.301
-8.243
-10.97
-13.483
-15.787
-17.886
-19.785
-21.491
-23.012
-24.354
-25.527
-26.538
-27.398
-28.116
-28.701
-29.164
-29.514
-29.763
-29.918
-29.992
-29.993
-29.931
-29.816
-29.655
-29.458
-29.233
-28.987
-28.727
-28.46
-28.192
-27.928
-27.674
-27.433
-27.209
-27.006
-26.826
-26.672
-26.544
-26.445
-26.374
-26.332
-26.319
-26.334
-26.376
-26.444
-26.538
-26.653
-26.79
-26.946
-27.118
-27.305
-27.503
-27.711
-27.926
-28.147
-28.369
-28.593
-28.815
-29.033
-29.247
-29.455
-29.655
-29.847
-30.029
-30.202
-30.364
-30.515
-30.656
-30.788
-30.909
-31.022
-31.126
-31.223
-31.313
-31.399
-31.482
-31.562
-31.642
-31.724
-31.809
-31.899
-31.997
-32.104
-32.223
-32.355
-32.502
-32.667
-32.852
-33.058
-33.286
-33.539
-33.819
-34.125
-34.459
-34.822
-35.214
-35.634
-36.084
-36.561
-37.066
-37.597
-38.152
-38.731
-39.331
-39.95
-40.586
-41.237
-41.899
-42.569
-43.244
-43.921
-44.595
-45.263
-45.919
-46.561
-47.183
-47.78
-48.349
-48.883
-49.379
-49.831
-50.235
-50.585
-50.879
-51.111
-51.279
-51.38
-51.412
-51.372
-51.262
-51.081
-50.831
-50.512
-50.126
-49.675
-49.162
-48.591
-47.964
-47.285
-46.558
-45.79
-44.986
-44.153
-43.299
-42.431
-41.556
-40.681
-39.815
-38.966
-38.142
-37.349
-36.594
-35.884
-35.227
-34.634
-34.112
-33.66
-33.278
-32.963
-32.707
-32.507
-32.353
-32.226
-32.112
-31.996
-31.863
-31.71
-31.525
-31.298
-31.014
-30.656
-30.211
-29.685
-29.085
-28.419
-27.706
-26.959
-26.204
-25.497
-24.887
-24.419
-24.151
-24.115
-24.352
-24.91
-25.82
-27.127
-28.882
-31.107
-33.827
-37.068
-40.803
-45.041
-49.823
-55.041
-60.509
-65.964
-70.979
-75.23
-78.544
-80.618
-81.089
-79.9
-77.177
-73.408
-69.539
-66.157
-63.508
-62.024
-62.083
-63.698
-66.394
-68.618
-68.198
-63.683
-54.763
-42.153
-26.467
-7.606
15.306
44.032
79.548
121.107
167.036
213.884
256.559
290.797
311.796
314.136
294.338
249.847
180.812
91.64
-11.683
-123.417
-240.222
-360.363
-478.432
-592.16
-707.766
-808.718
-855.079
-845.77
-816.997
-781.265
-729.95
-665.626
-596.493
-524.852
-452.423
-382.938
-319.05
-262.814
-215.059
-174.834
-141.696
-115.163
-94.876
-81.271
-73.36
-69.249
-66.899
-63.885
-59.023
-52.325
-43.994
-34.489
-24.48
-14.579
-5.637
1.306
5.833
8.035
8.191
6.811
4.399
1.383
-1.678
-4.153
-5.66
-6.043
-5.286
-3.529
-0.892
2.548
6.664
11.299
16.314
21.577
26.98
32.449
37.898
43.227
48.338
53.132
57.524
61.47
64.962
68.011
70.647
72.905
74.826
76.465
77.884
79.146
80.306
81.416
82.518
83.66
84.89
86.258
87.809
89.57
91.556
93.774
96.223
98.902
101.801
104.908
108.201
111.664
115.281
119.036
122.918
126.908
130.986
135.131
139.322
143.538
147.759
151.964
156.132
160.242
164.273
168.206
172.022
175.702
179.224
182.568
185.713
188.64
191.33
193.765
195.929
197.806
199.382
200.647
201.591
202.204
202.48
202.414
202.001
201.241
200.133
198.678
196.88
194.741
192.27
189.473
186.36
182.941
179.228
175.235
170.975
166.465
161.721
156.761
151.601
146.263
140.763
135.124
129.364
123.505
117.566
111.568
105.532
99.478
93.425
87.393
81.399
75.463
69.6
63.828
58.162
52.617
47.207
41.943
36.84
31.906
27.152
22.587
18.218
14.052
10.093
6.345
2.813
-0.503
-3.602
-6.483
-9.148
-11.6
-13.841
-15.876
-17.71
-19.347
-20.795
-22.061
-23.151
-24.074
-24.839
-25.453
-25.927
-26.268
-26.486
-26.59
-26.59
-26.495
-26.314
-26.055
-25.728
-25.342
-24.903
-24.42
-23.901
-23.352
-22.78
-22.191
-21.592
-20.987
-20.38
-19.778
-19.183
-18.598
-18.027
-17.473
-16.937
-16.421
-15.926
-15.453
-15.003
-14.576
-14.173
-13.792
-13.434
-13.098
-12.784
-12.49
-12.216
-11.96
-11.722
-11.5
-11.293
-11.1
-10.921
-10.753
-10.595
-10.448
-10.31
-10.179
-10.056
-9.94
-9.829
-9.724
-9.624
-9.529
-9.439
-9.353
-9.271
-9.195
-9.124
-9.058
-8.998
-8.944
-8.896
-8.856
-8.823
-8.798
-8.782
-8.775
-8.778
-8.792
-8.817
-8.853
-8.903
-8.965
-9.041
-9.131
-9.236
-9.356
-9.491
-9.643
-9.811
-9.995
-10.197
-10.415
-10.65
-10.901
-11.167
-11.449
-11.744
-12.051
-12.369
-12.696
-13.03
-13.37
-13.712
-14.056
-14.399
-14.737
-15.068
-15.389
-15.697
-15.989
-16.261
-16.51
-16.732
-16.924
-17.082
-17.202
-17.281
-17.315
-17.301
-17.234
-17.112
-16.93
-16.686
-16.377
-16.002
-15.558
-15.045
-14.464
-13.814
-13.098
-12.318
-11.477
-10.577
-9.621
-8.615
-7.562
-6.467
-5.334
-4.168
-2.977
-1.766
-0.544
0.683
1.907
3.122
4.319
5.491
6.63
7.727
8.779
9.781
10.727
11.609
12.418
13.148
13.801
14.378
14.881
15.316
15.687
16.006
16.295
16.571
16.854
17.158
17.487
17.852
18.264
18.739
19.293
19.935
20.656
21.453
22.32
23.245
24.211
25.178
26.085
26.867
27.461
27.811
27.875
27.608
26.974
25.928
24.419
22.406
19.868
16.781
13.148
8.964
4.183
-1.11
-6.713
-12.348
-17.604
-22.143
-25.781
-28.232
-29.128
-28.394
-26.151
-22.829
-19.304
-16.114
-13.462
-11.789
-11.513
-12.7
-14.911
-16.644
-15.853
-11.168
-2.466
9.188
23.095
39.153
58.249
83.134
115.576
155.899
203.43
253.589
299.906
336.357
356.019
354.052
328.351
278.023
205.655
115.823
13.517
-96.572
-213.127
-334.362
-454.313
-572.582
-688.896
-777.368
-811.74
-807.561
-787.143
-748.299
-691.194
-624.961
-554.143
-480.206
-405.989
-335.368
-271.266
-215.699
-169.222
-130.601
-99.133
-74.219
-55.495
-43.404
-36.889
-33.995
-32.704
-30.638
-26.664
-20.85
-13.421
-4.871
4.065
12.763
20.402
26.019
29.288
30.34
29.473
27.213
24.089
20.548
17.155
14.52
12.963
12.598
13.414
15.249
17.984
21.528
25.73
30.421
35.452
40.689
46.027
51.39
56.676
61.774
66.576
70.976
74.917
78.376
81.355
83.878
85.979
87.698
89.091
90.222
91.155
91.952
92.666
93.345
94.043
94.813
95.71
96.786
98.075
99.598
101.366
103.382
105.644
108.146
110.877
113.815
116.947
120.255
123.726
127.348
131.103
134.973
138.936
142.971
147.056
151.172
155.298
159.411
163.492
167.519
171.471
175.329
179.073
182.679
186.125
189.389
192.45
195.285
197.876
200.204
202.249
203.998
205.435
206.549
207.328
207.765
207.85
207.579
206.947
205.953
204.595
202.876
200.799
198.367
195.588
192.47
189.022
185.256
181.184
176.821
172.182
167.283
162.141
156.777
151.208
145.455
139.539
133.481
127.302
121.026
114.672
108.265
101.825
95.373
88.931
82.519
76.157
69.863
63.656
57.553
51.57
45.724
40.029
34.497
29.143
23.976
19.006
14.244
9.695
5.368
1.266
-2.607
-6.247
-9.652
-12.824
-15.761
-18.467
-20.944
-23.195
-25.226
-27.043
-28.652
-30.06
-31.276
-32.308
-33.165
-33.856
-34.393
-34.783
-35.039
-35.17
-35.186
-35.099
-34.918
-34.654
-34.317
-33.916
-33.461
-32.962
-32.426
-31.863
-31.279
-30.684
-30.082
-29.482
-28.889
-28.307
-27.744
-27.202
-26.685
-26.197
-25.741
-25.318
-24.931
-24.581
-24.268
-23.994
-23.758
-23.56
-23.4
-23.276
-23.188
-23.135
-23.114
-23.125
-23.165
-23.233
-23.326
-23.444
-23.585
-23.746
-23.926
-24.123
-24.336
-24.564
-24.804
-25.056
-25.319
-25.591
-25.871
-26.16
-26.456
-26.758
-27.067
-27.383
-27.705
-28.034
-28.37
-28.714
-29.066
-29.426
-29.796
-30.176
-30.567
-30.97
-31.386
-31.815
-32.259
-32.718
-33.193
-33.683
-34.189
-34.711
-35.248
-35.8
-36.366
-36.944
-37.534
-38.134
-38.742
-39.358
-39.979
-40.602
-41.225
-41.845
-42.46
-43.066
-43.659
-44.237
-44.795
-45.329
-45.836
-46.312
-46.753
-47.154
-47.512
-47.821
-48.079
-48.28
-48.422
-48.502
-48.517
-48.464
-48.343
-48.152
-47.892
-47.565
-47.171
-46.713
-46.192
-45.611
-44.975
-44.286
-43.55
-42.769
-41.949
-41.097
-40.218
-39.322
-38.414
-37.502
-36.594
-35.698
-34.822
-33.975
-33.164
-32.395
-31.672
-31.003
-30.396
-29.861
-29.402
-29.021
-28.715
-28.484
-28.322
-28.225
-28.182
-28.174
-28.184
-28.195
-28.196
-28.181
-28.143
-28.069
-27.947
-27.759
-27.497
-27.166
-26.768
-26.308
-25.793
-25.237
-24.671
-24.151
-23.729
-23.461
-23.392
-23.556
-23.992
-24.731
-25.813
-27.29
-29.197
-31.564
-34.413
-37.744
-41.578
-45.952
-50.81
-55.997
-61.264
-66.255
-70.668
-74.314
-76.958
-78.3
-78.159
-76.582
-73.92
-70.855
-68.001
-65.607
-63.886
-63.246
-63.917
-65.859
-68.277
-69.297
-67.173
-60.845
-50.209
-36.431
-20.458
-2.703
17.172
41.64
73.003
112.539
160.39
211.988
260.257
297.494
314.651
305.646
268.32
203.943
118.705
21.206
-81.673
-186.359
-292.947
-402.374
-510.187
-613.484
-710.964
-781.63
-805.489
-797.632
-776.267
-738.517
-684.184
-620.574
-553.168
-486.376
-423.296
-365.665
-313.443
-265.086
-220.402
-180.292
-146.232
-119.882
-101.391
-89.746
-82.977
-78.652
-74.951
-70.469
-64.556
-57.321
-48.914
-39.645
-30.157
-21.043
-13.031
-6.94
-3.028
-1.177
-1.126
-2.403
-4.534
-7.111
-9.631
-11.566
-12.611
-12.634
-11.628
-9.715
-6.996
-3.556
0.485
4.985
9.811
14.85
20.006
25.204
30.367
35.403
40.223
44.742
48.888
52.621
55.936
58.845
61.378
63.575
65.477
67.138
68.621
69.985
71.286
72.573
73.887
75.273
76.78
78.452
80.332
82.446
84.809
87.428
90.302
93.427
96.797
100.396
104.204
108.202
112.374
116.704
121.175
125.769
130.463
135.235
140.06
144.914
149.775
154.619
159.42
164.155
168.8
173.332
177.728
181.964
186.016
189.861
193.475
196.833
199.917
202.703
205.174
207.311
209.099
210.524
211.574
212.24
212.514
212.389
211.862
210.93
209.595
207.857
205.721
203.192
200.279
196.992
193.341
189.34
185.004
180.35
175.396
170.16
164.664
158.928
152.975
146.828
140.512
134.05
127.467
120.789
114.04
107.245
100.429
93.617
86.832
80.096
73.433
66.864
60.408
54.086
47.915
41.912
36.094
30.474
25.066
19.881
14.929
10.22
5.76
1.554
-2.391
-6.075
-9.495
-12.652
-15.546
-18.181
-20.56
-22.688
-24.572
-26.219
-27.636
-28.834
-29.821
-30.608
-31.206
-31.626
-31.881
-31.982
-31.942
-31.772
-31.486
-31.096
-30.613
-30.05
-29.417
-28.727
-27.99
-27.215
-26.413
-25.592
-24.761
-23.927
-23.097
-22.278
-21.475
-20.692
-19.936
-19.208
-18.512
-17.849
-17.223
-16.634
-16.083
-15.569
-15.094
-14.656
-14.254
-13.887
-13.553
-13.252
-12.98
-12.736
-12.517
-12.321
-12.147
-11.991
-11.852
-11.728
-11.617
-11.518
-11.428
-11.347
-11.274
-11.208
-11.148
-11.095
-11.047
-11.005
-10.969
-10.94
-10.918
-10.903
-10.897
-10.899
-10.909
-10.929
-10.957
-10.994
-11.039
-11.092
-11.153
-11.221
-11.295
-11.375
-11.458
-11.543
-11.629
-11.713
-11.794
-11.869
-11.934
-11.988
-12.026
-12.046
-12.043
-12.015
-11.958
-11.866
-11.737
-11.566
-11.349
-11.082
-10.761
-10.384
-9.947
-9.449
-8.888
-8.264
-7.577
-6.829
-6.021
-5.155
-4.234
-3.262
-2.242
-1.178
-0.076
1.06
2.225
3.412
4.613
5.819
7.024
8.219
9.395
10.544
11.658
12.727
13.741
14.696
15.586
16.402
17.137
17.78
18.324
18.768
19.115
19.368
19.531
19.61
19.617
19.573
19.496
19.406
19.315
19.228
19.156
19.107
19.1
19.155
19.28
19.478
19.74
20.06
20.43
20.839
21.248
21.603
21.842
21.903
21.747
21.343
20.658
19.67
18.331
16.589
14.409
11.758
8.621
5.013
0.913
-3.716
-8.798
-14.157
-19.519
-24.488
-28.766
-32.178
-34.488
-35.404
-34.763
-32.632
-29.396
-25.775
-22.396
-19.506
-17.325
-16.254
-16.492
-17.926
-19.706
-19.99
-17.088
-10.016
1.334
16.003
33.222
52.564
74.248
100.323
132.459
171.413
216.857
263.943
306.118
336.931
348.648
336.689
299.41
236.698
153.471
56.799
-47.522
-154.51
-263.42
-374.643
-482.528
-585.577
-683.705
-754.151
-775.722
-764.249
-738.84
-696.937
-638.902
-573.185
-506.046
-441.365
-380.902
-325.368
-274.311
-226.467
-182.159
-142.691
-109.45
-83.62
-65.404
-53.947
-47.35
-43.435
-40.411
-36.781
-31.992
-26.163
-19.23
-11.403
-3.241
4.767
11.757
17.085
20.751
22.554
22.64
20.856
16.928
12.073
7.376
4.222
4.019
5.888
8.968
12.525
15.495
18.471
22.005
26.096
31.022
36.416
41.862
47.347
52.734
57.939
62.921
67.536
71.692
75.377
78.597
81.375
83.742
85.74
87.422
88.854
90.102
91.22
92.255
93.252
94.259
95.325
96.502
97.839
99.367
101.106
103.066
105.248
107.649
110.265
113.081
116.079
119.242
122.556
126.006
129.58
133.262
137.033
140.872
144.759
148.672
152.593
156.5
160.374
164.193
167.939
171.59
175.129
178.536
181.79
184.871
187.756
190.426
192.863
195.048
196.964
198.595
199.927
200.948
201.647
202.016
202.048
201.737
201.079
200.072
198.716
197.012
194.963
192.574
189.851
186.803
183.439
179.771
175.811
171.573
167.072
162.326
157.351
152.167
146.792
141.247
135.553
129.731
123.803
117.79
111.716
105.601
99.468
93.339
87.235
81.175
75.181
69.27
63.462
57.774
52.222
46.822
41.589
36.535
31.674
27.016
22.571
18.347
14.353
10.593
7.074
3.797
0.766
-2.019
-4.558
-6.852
-8.905
-10.72
-12.303
-13.658
-14.794
-15.717
-16.436
-16.961
-17.301
-17.468
-17.471
-17.322
-17.032
-16.614
-16.079
-15.439
-14.706
-13.891
-13.007
-12.065
-11.075
-10.048
-8.996
-7.927
-6.851
-5.777
-4.713
-3.667
-2.645
-1.655
-0.702
0.21
1.075
1.89
2.653
3.36
4.01
4.601
5.134
5.608
6.023
6.381
6.682
6.929
7.123
7.267
7.364
7.416
7.426
7.397
7.333
7.236
7.11
6.958
6.782
6.587
6.374
6.147
5.908
5.659
5.403
5.142
4.876
4.608
4.338
4.068
3.797
3.526
3.255
2.984
2.711
2.438
2.162
1.883
1.599
1.309
1.012
0.707
0.392
0.066
-0.272
-0.623
-0.988
-1.367
-1.76
-2.168
-2.59
-3.027
-3.477
-3.94
-4.415
-4.901
-5.395
-5.896
-6.402
-6.91
-7.417
-7.92
-8.415
-8.898
-9.366
-9.814
-10.239
-10.635
-10.997
-11.322
-11.604
-11.838
-12.02
-12.146
-12.212
-12.213
-12.149
-12.015
-11.811
-11.536
-11.19
-10.775
-10.291
-9.739
-9.122
-8.444
-7.707
-6.915
-6.071
-5.181
-4.249
-3.284
-2.293
-1.282
-0.259
0.767
1.789
2.799
3.785
4.741
5.661
6.537
7.363
8.13
8.828
9.451
9.997
10.469
10.868
11.199
11.466
11.678
11.855
12.012
12.166
12.33
12.506
12.704
12.934
13.211
13.554
13.973
14.462
15.019
15.636
16.302
17.008
17.726
18.401
18.982
19.416
19.655
19.673
19.44
18.919
18.069
16.832
15.161
13.027
10.407
7.297
3.68
-0.498
-5.204
-10.277
-15.469
-20.42
-24.808
-28.448
-31.121
-32.494
-32.369
-30.786
-28.088
-25.016
-22.246
-20.055
-18.685
-18.52
-19.755
-22.304
-25.315
-26.854
-25.106
-18.925
-8.069
6.512
24.113
44.451
67.803
96.155
131.031
172.772
220.76
270.567
316.155
351.996
371.201
368.74
341.692
287.999
210.712
116.076
10.899
-98.01
-208.923
-322.386
-433.951
-542.684
-654.432
-751.512
-795.357
-785.99
-758.921
-725.922
-678.162
-618.293
-553.92
-487.255
-420.401
-355.996
-296.046
-242.112
-194.386
-153.28
-119.361
-92.591
-73.289
-61.065
-54.276
-51.022
-49.04
-46.26
-41.814
-35.624
-27.888
-19.009
-9.57
-0.197
8.25
14.766
18.942
20.855
20.772
19.188
16.594
13.411
10.193
7.556
5.871
5.295
5.844
7.382
9.795
13.007
16.891
21.295
26.078
31.112
36.288
41.531
46.756
51.861
56.745
61.311
65.471
69.181
72.432
75.231
77.605
79.588
81.218
82.547
83.638
84.549
85.337
86.049
86.728
87.423
88.181
89.052
90.08
91.294
92.708
94.331
96.164
98.204
100.446
102.877
105.477
108.23
111.124
114.144
117.278
120.511
123.824
127.197
130.61
134.044
137.48
140.899
144.28
147.604
150.852
154.005
157.046
159.955
162.713
165.3
167.696
169.882
171.84
173.553
175.005
176.18
177.067
177.653
177.93
177.889
177.524
176.829
175.802
174.441
172.745
170.717
168.359
165.676
162.675
159.362
155.749
151.844
147.661
143.213
138.514
133.58
128.427
123.073
117.536
111.835
105.989
100.018
93.943
87.783
81.559
75.291
69.001
62.707
56.428
50.185
43.994
37.874
31.84
25.91
20.097
14.417
8.881
3.503
-1.707
-6.738
-11.582
-16.231
-20.678
-24.918
-28.947
-32.761
-36.359
-39.739
-42.902
-45.849
-48.583
-51.106
-53.423
-55.539
-57.459
-59.19
-60.74
-62.117
-63.328
-64.383
-65.291
-66.061
-66.702
-67.226
-67.64
-67.956
-68.183
-68.331
-68.409
-68.427
-68.393
-68.316
-68.204
-68.066
-67.909
-67.739
-67.563
-67.387
-67.217
-67.057
-66.913
-66.787
-66.683
-66.604
-66.553
-66.531
-66.539
-66.579
-66.651
-66.754
-66.89
-67.056
-67.254
-67.48
-67.734
-68.015
-68.32
-68.648
-68.997
-69.366
-69.752
-70.153
-70.568
-70.996
-71.433
-71.88
-72.334
-72.796
-73.262
-73.734
-74.21
-74.689
-75.172
-75.659
-76.148
-76.641
-77.138
-77.64
-78.148
-78.662
-79.183
-79.713
-80.252
-80.803
-81.366
-81.943
-82.535
-83.143
-83.769
-84.414
-85.08
-85.766
-86.474
-87.204
-87.957
-88.731
-89.528
-90.345
-91.181
-92.035
-92.905
-93.789
-94.685
-95.59
-96.501
-97.415
-98.328
-99.237
-100.136
-101.023
-101.892
-102.739
-103.558
-104.344
-105.093
-105.8
-106.459
-107.064
-107.611
-108.095
-108.511
-108.852
-109.116
-109.297
-109.393
-109.399
-109.315
-109.138
-108.868
-108.506
-108.053
-107.511
-106.884
-106.173
-105.384
-104.519
-103.585
-102.587
-101.53
-100.42
-99.265
-98.075
-96.857
-95.621
-94.377
-93.132
-91.897
-90.681
-89.493
-88.344
-87.238
-86.186
-85.194
-84.272
-83.431
-82.677
-82.013
-81.436
-80.945
-80.532
-80.193
-79.915
-79.678
-79.467
-79.263
-79.052
-78.825
-78.569
-78.27
-77.912
-77.475
-76.947
-76.327
-75.616
-74.819
-73.947
-73.015
-72.052
-71.11
-70.238
-69.486
-68.908
-68.546
-68.446
-68.652
-69.19
-70.098
-71.414
-73.168
-75.383
-78.081
-81.237
-84.847
-88.933
-93.387
-98.01
-102.521
-106.488
-109.556
-111.519
-112.08
-110.872
-107.851
-103.179
-97.317
-91.207
-85.454
-80.317
-76.318
-73.907
-73.091
-73.345
-73.101
-70.213
-63.279
-52.139
-37.508
-19.717
1.32
26.59
58.338
97.325
143.213
194.811
247.258
294.642
331.356
350.657
348.067
321.575
270.297
196.904
106.505
4.029
-106.058
-221.615
-340.76
-456.609
-567.009
-672.102
-747.6
-769.635
-755.939
-729.131
-686.476
-627.221
-559.852
-488.786
-415.931
-344.502
-276.937
-214.943
-159.737
-111.075
-69.178
-34.622
-7.416
12.0
24.025
30.507
33.529
35.416
38.194
42.662
48.831
56.505
65.269
74.462
83.43
91.33
97.217
100.778
102.132
101.56
99.57
96.679
93.328
90.079
87.525
85.966
85.511
86.141
87.693
90.049
93.117
96.748
100.78
105.069
109.488
113.938
118.345
122.615
126.642
130.324
133.564
136.306
138.535
140.255
141.495
142.293
142.69
142.744
142.519
142.079
141.486
140.794
140.051
139.311
138.626
138.052
137.64
137.427
137.434
137.674
138.151
138.864
139.811
140.982
142.359
143.929
145.679
147.596
149.671
151.889
154.233
156.685
159.223
161.83
164.486
167.173
169.87
172.558
175.216
177.825
180.367
182.821
185.166
187.38
189.44
191.327
193.019
194.496
195.74
196.731
197.455
197.897
198.043
197.883
197.405
196.602
195.467
193.995
192.182
190.027
187.529
184.69
181.513
178.004
174.17
170.018
165.558
160.802
155.762
150.453
144.889
139.088
133.066
126.842
120.435
113.864
107.151
100.315
93.378
86.362
79.287
72.176
65.049
57.926
50.828
43.774
36.784
29.876
23.068
16.375
9.815
3.401
-2.852
-8.931
-14.825
-20.523
-26.015
-31.295
-36.354
-41.188
-45.792
-50.162
-54.297
-58.195
-61.858
-65.286
-68.482
-71.45
-74.194
-76.72
-79.033
-81.141
-83.051
-84.771
-86.311
-87.678
-88.884
-89.937
-90.848
-91.625
-92.281
-92.824
-93.264
-93.611
-93.875
-94.066
-94.191
-94.259
-94.279
-94.257
-94.202
-94.119
-94.016
-93.896
-93.765
-93.627
-93.487
-93.347
-93.21
-93.078
-92.953
-92.836
-92.726
-92.626
-92.533
-92.448
-92.369
-92.296
-92.227
-92.16
-92.093
-92.023
-91.95
-91.871
-91.783
-91.684
-91.573
-91.446
-91.302
-91.14
-90.958
-90.754
-90.528
-90.278
-90.003
-89.704
-89.38
-89.031
-88.658
-88.26
-87.84
-87.397
-86.933
-86.449
-85.948
-85.431
-84.9
-84.357
-83.806
-83.247
-82.684
-82.119
-81.554
-80.993
-80.439
-79.892
-79.357
-78.835
-78.329
-77.84
-77.37
-76.921
-76.493
-76.088
-75.704
-75.343
-75.004
-74.686
-74.387
-74.107
-73.843
-73.594
-73.357
-73.129
-72.907
-72.688
-72.467
-72.242
-72.006
-71.756
-71.487
-71.195
-70.874
-70.519
-70.125
-69.687
-69.2
-68.658
-68.057
-67.391
-66.656
-65.847
-64.962
-63.997
-62.95
-61.821
-60.608
-59.314
-57.94
-56.488
-54.96
-53.36
-51.692
-49.96
-48.169
-46.325
-44.434
-42.503
-40.542
-38.561
-36.57
-34.58
-32.602
-30.645
-28.722
-26.843
-25.018
-23.255
-21.566
-19.962
-18.455
-17.06
-15.788
-14.643
-13.627
-12.741
-11.979
-11.335
-10.799
-10.351
-9.978
-9.67
-9.417
-9.216
-9.056
-8.92
-8.793
-8.654
-8.49
-8.296
-8.071
-7.813
-7.537
-7.259
-7.009
-6.834
-6.766
-6.834
-7.063
-7.477
-8.115
-9.022
-10.238
-11.802
-13.73
-16.039
-18.759
-21.915
-25.514
-29.552
-33.972
-38.723
-43.819
-49.177
-54.631
-59.932
-64.674
-68.519
-71.285
-72.699
-72.414
-70.389
-66.77
-62.01
-57.036
-52.442
-48.489
-45.674
-44.431
-44.783
-46.233
-47.228
-45.646
-40.059
-30.282
-17.27
-1.717
16.221
37.359
64.293
98.638
140.566
189.176
239.773
286.009
322.14
341.634
339.87
314.55
264.374
191.573
100.567
-3.485
-115.508
-233.992
-356.793
-477.236
-595.015
-710.253
-796.181
-826.16
-817.881
-795.825
-757.467
-701.868
-637.778
-569.108
-496.666
-423.379
-353.331
-289.632
-234.532
-188.453
-149.923
-118.08
-92.182
-71.933
-57.968
-49.38
-44.358
-40.95
-36.776
-30.719
-22.852
-13.373
-2.762
8.288
19.194
29.147
37.186
42.971
46.605
48.357
48.722
48.186
47.16
46.179
45.826
46.432
48.133
50.925
54.665
59.232
64.533
70.425
76.744
83.337
90.076
96.854
103.59
110.2
116.581
122.637
128.277
133.427
138.045
142.123
145.673
148.721
151.308
153.477
155.282
156.789
158.059
159.149
160.111
160.99
161.836
162.7
163.63
164.671
165.856
167.201
168.72
170.418
172.298
174.359
176.594
178.991
181.542
184.237
187.071
190.035
193.121
196.314
199.601
202.964
206.387
209.854
213.347
216.848
220.34
223.804
227.223
230.58
233.858
237.037
240.097
243.017
245.775
248.348
250.714
252.851
254.737
256.35
257.67
258.678
259.36
259.701
259.69
259.311
258.547
257.383
255.81
253.826
251.427
248.61
245.371
241.713
237.655
233.228
228.469
223.395
218.022
212.382
206.507
200.433
194.192
187.755
181.073
174.132
166.867
159.145
150.847
141.914
132.375
122.429
112.146
101.01
88.573
75.054
61.148
49.684
43.576
39.878
38.48
44.643
42.358
51.714
