-127.428
-123.226
-120.521
-119.258
-119.354
-120.292
-121.27
-122.019
-122.333
-121.827
-120.44
-118.236
-115.27
-111.894
-108.522
-105.292
-102.255
-99.421
-96.676
-93.974
-91.287
-88.484
-85.419
-81.963
-78.018
-73.563
-68.617
-63.188
-57.271
-50.864
-43.971
-36.634
-28.907
-20.842
-12.483
-3.864
4.972
13.97
23.068
32.202
41.32
50.39
59.383
68.271
77.026
85.622
94.036
102.261
110.286
118.098
125.68
133.017
140.096
146.908
153.446
159.703
165.672
171.341
176.703
181.753
186.483
190.889
194.964
198.702
202.1
205.159
207.879
210.263
212.315
214.038
215.441
216.529
217.311
217.793
217.984
217.892
217.524
216.891
215.998
214.855
213.47
211.851
210.008
207.949
205.683
203.218
200.564
197.729
194.723
191.552
188.223
184.739
181.106
177.329
173.411
169.355
165.164
160.84
156.386
151.808
147.109
142.288
137.34
132.26
127.043
121.695
116.22
110.627
104.927
99.135
93.274
87.375
81.467
75.571
69.705
63.881
58.112
52.423
46.842
41.399
36.118
31.01
26.079
21.329
16.744
12.296
7.945
3.621
-0.746
-5.212
-9.828
-14.641
-19.689
-25.031
-30.749
-36.911
-43.582
-50.802
-58.566
-66.887
-75.753
-85.131
-94.985
-105.229
-115.708
-126.303
-136.917
-147.365
-157.433
-166.779
-174.859
-181.174
-185.329
-187.019
-186.079
-182.583
-176.765
-169.145
-160.626
-152.234
-144.993
-139.598
-136.277
-134.746
-134.314
-134.062
-132.625
-128.123
-118.426
-101.865
-77.588
-45.882
-7.909
34.822
79.865
123.319
160.337
185.938
195.486
185.533
153.464
97.016
16.812
-83.006
-197.483
-321.814
-454.678
-597.537
-746.665
-891.157
-1013.404
-1095.376
-1129.061
-1118.833
-1078.812
-1023.66
-961.967
-895.914
-822.674
-741.451
-655.424
-569.774
-491.324
-424.897
-372.343
-333.904
-308.362
-293.894
-288.686
-290.42
-296.159
-302.998
-308.39
-310.83
-309.948
-305.913
-299.193
-290.517
-280.864
-271.403
-263.284
-256.983
-252.306
-248.786
-245.78
-242.652
-238.807
-233.514
-226.012
-215.891
-203.061
-187.632
-169.895
-150.13
-128.61
-105.713
-81.891
-57.561
-33.107
-8.863
14.906
37.91
59.848
80.434
99.396
116.54
131.738
144.911
156.025
165.094
172.18
177.415
180.982
183.065
183.856
183.542
182.302
180.338
177.842
174.991
171.959
168.884
165.876
163.033
160.43
158.111
156.102
154.389
152.934
151.705
150.656
149.742
148.914
148.102
147.252
146.327
145.295
144.135
142.834
141.378
139.761
137.99
136.075
134.029
131.872
129.617
127.283
124.895
122.477
120.062
117.675
115.327
113.024
110.767
108.549
106.365
104.21
102.075
99.957
97.862
95.799
93.784
91.833
89.952
88.144
86.402
84.714
83.066
81.444
79.842
78.267
76.724
75.218
73.753
72.329
70.934
69.549
68.147
66.699
65.188
63.613
61.993
60.371
58.803
57.357
56.093
55.054
54.271
53.777
53.597
53.759
54.298
55.248
56.651
58.562
61.018
64.036
67.612
71.701
76.244
81.161
86.38
91.85
97.542
103.438
109.533
115.834
122.34
129.056
135.982
143.087
150.351
157.754
165.285
172.962
180.814
188.874
197.165
205.681
214.373
223.166
231.953
240.596
248.961
256.903
264.285
271.006
276.975
282.113
286.359
289.636
291.868
292.988
292.933
291.686
289.28
285.788
281.334
276.088
270.22
263.921
257.373
250.718
244.089
237.595
231.323
225.369
219.829
214.797
210.373
206.622
203.562
201.187
199.436
198.209
197.405
196.894
196.564
196.334
196.138
195.93
195.685
195.369
194.943
194.365
193.576
192.53
191.206
189.592
187.71
185.601
183.319
180.937
178.516
176.095
173.694
171.317
168.953
166.6
164.258
161.926
159.624
157.374
155.195
153.11
151.126
149.234
147.411
145.614
143.802
141.943
140.017
138.018
135.944
133.793
131.558
129.238
126.818
124.27
121.552
118.613
115.418
111.95
108.21
104.223
100.014
95.624
91.09
86.444
81.726
76.969
72.206
67.472
62.812
58.295
54.008
50.049
46.489
43.385
40.768
38.659
37.08
36.024
35.471
35.391
35.746
36.51
37.656
39.153
40.942
42.938
45.039
47.143
49.176
51.076
52.791
54.269
55.445
56.285
56.779
56.926
56.73
56.175
55.24
53.915
52.228
50.23
47.976
45.504
42.815
39.911
36.794
33.478
30.003
26.374
22.568
18.562
14.339
9.911
5.323
0.579
-4.394
-9.613
-14.981
-20.274
-25.102
-29.098
-32.004
-33.508
-33.189
-30.761
-26.265
-20.114
-13.163
-6.335
-0.222
4.612
7.366
7.516
5.19
1.15
-2.971
-5.172
-4.023
1.981
14.953
36.555
67.668
108.323
156.959
211.151
268.572
325.761
377.804
419.822
446.716
453.671
437.481
395.524
327.162
235.434
124.774
-0.872
-140.279
-293.984
-458.471
-622.223
-765.415
-868.246
-920.473
-924.795
-896.095
-850.068
-795.822
-736.175
-667.942
-590.029
-505.893
-420.46
-340.275
-269.847
-210.866
-164.024
-128.665
-103.287
-86.353
-76.308
-71.081
-68.669
-67.161
-64.594
-60.009
-53.409
-45.061
-35.454
-25.375
-15.563
-6.928
-0.597
3.017
4.085
2.951
0.226
-3.469
-7.625
-11.582
-14.599
-16.281
-16.485
-15.214
-12.662
-8.975
-4.252
1.323
7.544
14.229
21.198
28.316
35.485
42.574
49.441
55.951
61.97
67.421
72.278
76.535
80.215
83.352
85.986
88.177
89.998
91.515
92.797
93.904
94.889
95.811
96.73
97.706
98.795
100.035
101.445
103.039
104.817
106.779
108.917
111.221
113.67
116.249
118.945
121.746
124.641
127.616
130.654
133.738
136.849
139.969
143.084
146.175
149.226
152.221
155.143
157.977
160.708
163.32
165.795
168.117
170.267
172.229
173.988
175.529
176.839
177.904
178.714
179.261
179.537
179.536
179.253
178.684
177.828
176.684
175.254
173.538
171.542
169.269
166.726
163.92
160.861
157.558
154.023
150.267
146.305
142.15
137.816
133.32
128.677
123.904
119.018
114.036
108.975
103.851
98.683
93.487
88.28
83.077
77.894
72.744
67.643
62.604
57.638
52.757
47.974
43.297
38.737
34.302
30.0
25.838
21.822
17.958
14.25
10.702
7.316
4.094
1.038
-1.853
-4.578
-7.14
-9.541
-11.782
-13.869
-15.804
-17.593
-19.24
-20.751
-22.131
-23.386
-24.521
-25.544
-26.459
-27.272
-27.991
-28.619
-29.165
-29.632
-30.027
-30.356
-30.622
-30.833
-30.991
-31.103
-31.173
-31.204
-31.202
-31.171
-31.113
-31.033
-30.934
-30.818
-30.688
-30.545
-30.393
-30.232
-30.063
-29.889
-29.709
-29.527
-29.341
-29.154
-28.968
-28.782
-28.599
-28.42
-28.247
-28.08
-27.921
-27.772
-27.636
-27.514
-27.408
-27.322
-27.256
-27.214
-27.198
-27.208
-27.248
-27.318
-27.42
-27.556
-27.726
-27.932
-28.174
-28.454
-28.773
-29.131
-29.529
-29.968
-30.445
-30.961
-31.515
-32.106
-32.731
-33.387
-34.072
-34.783
-35.519
-36.275
-37.047
-37.832
-38.624
-39.419
-40.212
-40.995
-41.759
-42.498
-43.204
-43.871
-44.494
-45.067
-45.585
-46.042
-46.437
-46.768
-47.034
-47.23
-47.348
-47.382
-47.332
-47.207
-47.012
-46.75
-46.426
-46.044
-45.614
-45.154
-44.669
-44.155
-43.61
-43.025
-42.404
-41.765
-41.121
-40.489
-39.87
-39.254
-38.641
-38.043
-37.463
-36.896
-36.327
-35.724
-35.082
-34.43
-33.785
-33.163
-32.56
-31.952
-31.327
-30.683
-30.027
-29.371
-28.718
-28.049
-27.362
-26.675
-26.019
-25.44
-24.95
-24.521
-24.14
-23.812
-23.563
-23.436
-23.456
-23.636
-23.995
-24.559
-25.358
-26.429
-27.786
-29.431
-31.376
-33.624
-36.205
-39.17
-42.516
-46.261
-50.449
-55.029
-59.891
-64.819
-69.438
-73.443
-76.645
-78.762
-79.453
-78.51
-75.825
-71.731
-66.996
-62.161
-57.627
-53.781
-50.966
-49.649
-50.155
-51.916
-53.656
-54.134
-51.976
-46.052
-35.274
-17.875
7.673
41.774
83.935
132.805
186.136
241.57
295.923
344.347
381.851
403.828
405.938
385.381
340.665
270.712
177.804
66.59
-59.162
-193.283
-331.542
-470.673
-600.381
-712.134
-797.524
-848.361
-868.321
-862.339
-834.791
-792.602
-736.5
-667.601
-589.957
-506.657
-422.416
-341.464
-266.695
-200.725
-145.056
-100.563
-67.086
-43.307
-28.153
-20.308
-17.593
-17.967
-19.284
-19.355
-17.3
-13.084
-6.653
1.62
10.939
20.574
29.467
36.466
41.247
43.95
44.843
44.476
43.391
42.043
41.06
41.048
42.265
44.762
48.44
53.064
58.465
64.504
70.983
77.7
84.479
91.171
97.667
103.878
109.697
115.007
119.696
123.691
126.964
129.521
131.392
132.621
133.254
133.353
132.994
132.248
131.188
129.882
128.388
126.771
125.098
123.435
121.85
120.394
119.103
118.001
117.111
116.445
116.017
115.83
115.881
116.168
116.69
117.448
118.441
119.665
121.11
122.765
124.624
126.682
128.938
131.385
134.006
136.779
139.684
142.701
145.807
148.971
152.159
155.337
158.482
161.583
164.629
167.605
170.484
173.232
175.813
178.2
180.377
182.336
184.065
185.557
186.81
187.844
188.688
189.363
189.87
190.183
190.266
190.091
189.635
188.892
187.848
186.482
184.766
182.664
180.149
177.195
173.773
169.826
165.283
160.083
154.184
147.595
140.346
132.475
124.025
115.04
105.577
95.718
85.554
75.188
64.711
54.204
43.748
33.447
23.426
13.808
4.71
-3.803
-11.69
-18.926
-25.499
-31.405
-36.668
-41.336
-45.482
-49.189
-52.523
-55.534
-58.267
-60.777
-63.133
-65.417
-67.705
-70.046
-72.472
-75.006
-77.661
-80.449
-83.356
-86.348
-89.369
-92.358
-95.27
-98.078
-100.765
-103.315
-105.706
-107.913
-109.912
-111.697
-113.264
-114.609
-115.733
-116.633
-117.322
-117.821
-118.166
-118.393
-118.529
-118.592
-118.593
-118.543
-118.45
-118.322
-118.161
-117.967
-117.739
-117.48
-117.192
-116.882
-116.551
-116.197
-115.817
-115.408
-114.967
-114.497
-113.998
-113.474
-112.926
-112.361
-111.784
-111.204
-110.625
-110.053
-109.491
-108.942
-108.41
-107.898
-107.409
-106.945
-106.508
-106.103
-105.731
-105.396
-105.1
-104.847
-104.638
-104.475
-104.36
-104.295
-104.282
-104.322
-104.417
-104.564
-104.766
-105.02
-105.323
-105.674
-106.067
-106.496
-106.956
-107.441
-107.945
-108.462
-108.985
-109.508
-110.028
-110.538
-111.033
-111.505
-111.946
-112.347
-112.698
-112.992
-113.218
-113.366
-113.431
-113.405
-113.284
-113.069
-112.756
-112.342
-111.819
-111.18
-110.418
-109.535
-108.531
-107.409
-106.182
-104.863
-103.481
-102.066
-100.638
-99.211
-97.794
-96.379
-94.966
-93.553
-92.132
-90.708
-89.282
-87.852
-86.426
-85.007
-83.581
-82.122
-80.581
-78.893
-77.02
-74.938
-72.631
-70.105
-67.374
-64.463
-61.421
-58.286
-55.086
-51.848
-48.578
-45.285
-42.001
-38.783
-35.712
-32.888
-30.394
-28.296
-26.659
-25.532
-24.947
-24.911
-25.397
-26.391
-27.896
-29.924
-32.504
-35.65
-39.355
-43.61
-48.381
-53.621
-59.277
-65.273
-71.545
-78.071
-84.764
-91.461
-97.923
-103.757
-108.564
-112.063
-113.917
-113.688
-111.146
-106.384
-99.837
-92.411
-85.079
-78.411
-72.941
-69.462
-68.418
-69.626
-72.319
-74.787
-74.887
-71.219
-62.589
-46.966
-22.585
11.298
54.925
105.897
159.286
212.819
264.846
313.57
360.078
399.022
419.392
411.906
366.179
280.738
166.542
35.083
-102.627
-238.942
-375.333
-511.526
-639.007
-749.476
-831.48
-875.637
-886.044
-867.748
-826.638
-771.493
-703.831
-625.732
-542.196
-456.351
-373.25
-297.584
-231.411
-176.015
-131.6
-97.566
-72.667
-55.225
-43.821
-36.853
-32.684
-30.148
-28.19
-25.804
-22.948
-20.036
-16.98
-13.961
-11.434
-9.599
-8.752
-9.363
-11.122
-13.348
-16.037
-19.008
-21.834
-24.339
-26.19
-26.943
-26.751
-25.976
-24.463
-22.202
-19.313
-15.75
-11.713
-7.455
-2.941
1.876
6.799
11.679
16.371
20.675
24.573
28.093
31.216
33.986
36.518
38.934
41.367
43.945
46.739
49.787
53.119
56.734
60.613
64.753
69.159
73.837
78.799
84.045
89.547
95.268
101.155
107.133
113.139
119.117
125.016
130.818
136.515
142.123
147.676
153.203
158.713
164.206
169.673
175.097
180.469
185.779
191.011
196.164
201.231
206.204
211.078
215.833
220.441
224.866
229.062
232.985
236.599
239.876
242.795
245.34
247.497
249.256
250.616
251.572
252.119
252.253
251.97
251.267
250.15
248.623
246.698
244.387
241.703
238.66
235.272
231.554
227.523
223.194
218.582
213.705
208.581
203.231
197.677
191.943
186.052
180.027
173.893
167.676
161.399
155.085
148.757
142.438
136.148
129.909
123.741
117.662
111.692
105.847
100.144
94.599
89.226
84.038
79.047
74.264
69.698
65.357
61.247
57.374
53.741
50.351
47.206
44.305
41.647
39.23
37.049
35.099
33.374
31.865
30.564
29.462
28.548
27.811
27.241
26.825
26.553
26.41
26.386
26.468
26.643
26.899
27.223
27.603
28.027
28.483
28.959
29.445
29.931
30.405
30.86
31.285
31.674
32.017
32.31
32.544
32.716
32.82
32.853
32.811
32.693
32.496
32.22
31.864
31.429
30.915
30.322
29.653
28.909
28.092
27.204
26.248
25.226
24.14
22.994
21.791
20.533
19.224
17.865
16.462
15.015
13.529
12.005
10.446
8.856
7.237
5.591
3.921
2.228
0.517
-1.213
-2.957
-4.715
-6.483
-8.261
-10.046
-11.834
-13.624
-15.413
-17.198
-18.976
-20.742
-22.494
-24.228
-25.938
-27.622
-29.274
-30.89
-32.465
-33.994
-35.471
-36.891
-38.248
-39.537
-40.752
-41.887
-42.937
-43.896
-44.76
-45.524
-46.182
-46.73
-47.165
-47.483
-47.681
-47.756
-47.709
-47.537
-47.241
-46.823
-46.284
-45.628
-44.859
-43.983
-43.006
-41.936
-40.779
-39.545
-38.242
-36.88
-35.468
-34.016
-32.534
-31.032
-29.523
-28.018
-26.528
-25.067
-23.645
-22.273
-20.961
-19.718
-18.549
-17.458
-16.451
-15.532
-14.711
-13.993
-13.378
-12.87
-12.466
-12.162
-11.949
-11.81
-11.72
-11.659
-11.609
-11.554
-11.488
-11.399
-11.271
-11.092
-10.836
-10.488
-10.041
-9.478
-8.791
-7.986
-7.08
-6.125
-5.193
-4.345
-3.629
-3.079
-2.728
-2.637
-2.874
-3.507
-4.604
-6.2
-8.354
-11.188
-14.735
-18.932
-23.58
-28.289
-32.698
-36.567
-39.598
-41.437
-41.869
-40.782
-38.496
-35.779
-33.215
-31.233
-30.187
-30.324
-31.958
-35.217
-39.355
-42.979
-44.745
-43.25
-37.46
-26.433
-8.598
17.206
51.052
92.233
139.227
189.949
242.504
294.149
340.47
377.102
400.082
405.586
390.929
354.186
293.484
210.153
109.518
-4.552
-128.303
-259.003
-397.572
-536.517
-661.834
-761.056
-820.293
-837.573
-823.25
-786.202
-736.894
-681.023
-616.507
-544.338
-466.855
-386.924
-310.46
-241.961
-183.653
-136.721
-100.698
-74.131
-55.517
-43.711
-37.132
-33.644
-31.237
-27.98
-22.802
-15.793
-7.324
2.293
12.469
22.406
31.175
37.632
41.246
42.198
40.849
37.748
33.468
28.507
23.502
19.188
16.022
14.188
13.719
14.473
16.322
19.2
22.97
27.465
32.535
38.029
43.829
49.841
55.948
62.021
67.932
73.553
78.779
83.554
87.851
91.676
95.057
98.026
100.625
102.907
104.935
106.771
108.473
110.094
111.68
113.284
114.957
116.752
118.713
120.868
123.228
125.796
128.566
131.528
134.67
137.97
141.403
144.947
148.582
152.287
156.046
159.838
163.639
167.425
171.172
174.857
178.46
181.958
185.33
188.556
191.615
194.489
197.161
199.611
201.82
203.771
205.445
206.825
207.897
208.647
209.063
209.134
208.853
208.213
207.211
205.846
204.116
202.024
199.574
196.77
193.62
190.133
186.319
182.189
177.756
173.036
168.043
162.795
157.309
151.605
145.702
139.621
133.384
127.011
120.525
113.947
107.301
100.607
93.889
87.167
80.463
73.798
67.191
60.661
54.226
47.904
41.709
35.657
29.762
24.034
18.486
13.128
7.967
3.012
-1.732
-6.259
-10.565
-14.648
-18.504
-22.135
-25.54
-28.721
-31.679
-34.418
-36.942
-39.256
-41.365
-43.275
-44.994
-46.528
-47.886
-49.075
-50.105
-50.984
-51.721
-52.326
-52.808
-53.175
-53.436
-53.602
-53.678
-53.676
-53.6
-53.461
-53.263
-53.015
-52.722
-52.391
-52.027
-51.634
-51.218
-50.784
-50.335
-49.874
-49.405
-48.932
-48.456
-47.981
-47.508
-47.039
-46.576
-46.119
-45.671
-45.232
-44.802
-44.381
-43.971
-43.57
-43.179
-42.799
-42.428
-42.068
-41.718
-41.38
-41.053
-40.738
-40.436
-40.148
-39.874
-39.616
-39.373
-39.148
-38.94
-38.751
-38.582
-38.431
-38.301
-38.191
-38.1
-38.028
-37.975
-37.939
-37.919
-37.913
-37.921
-37.941
-37.971
-38.009
-38.054
-38.102
-38.152
-38.2
-38.243
-38.278
-38.301
-38.306
-38.29
-38.248
-38.175
-38.066
-37.915
-37.719
-37.471
-37.167
-36.803
-36.374
-35.876
-35.305
-34.66
-33.939
-33.14
-32.264
-31.31
-30.279
-29.175
-28.001
-26.76
-25.455
-24.093
-22.677
-21.213
-19.707
-18.165
-16.593
-14.998
-13.388
-11.771
-10.157
-8.555
-6.977
-5.432
-3.93
-2.48
-1.09
0.238
1.498
2.686
3.799
4.825
5.761
6.603
7.348
7.994
8.546
9.007
9.395
9.73
10.029
10.307
10.572
10.825
11.072
11.321
11.579
11.863
12.185
12.551
12.979
13.479
14.053
14.687
15.332
15.924
16.411
16.751
16.927
16.915
16.657
16.096
15.16
13.783
11.934
9.536
6.443
2.608
-1.92
-6.934
-12.007
-16.77
-21.005
-24.423
-26.708
-27.701
-27.363
-26.15
-25.01
-24.651
-25.535
-27.975
-32.11
-38.072
-45.757
-54.132
-61.431
-65.995
-66.253
-61.118
-49.694
-30.583
-2.785
33.598
77.552
127.33
180.739
235.81
289.861
338.607
377.679
403.082
411.172
399.372
365.57
307.863
227.613
129.985
20.127
-97.241
-221.124
-353.466
-489.972
-619.643
-725.737
-791.287
-810.491
-789.709
-743.815
-688.325
-632.089
-576.703
-518.891
-456.702
-391.357
-326.228
-266.294
-214.617
-171.724
-137.184
-109.626
-87.709
-71.01
-58.682
-49.109
-40.655
-31.641
-21.171
-9.52
2.814
15.621
28.436
40.439
50.412
56.777
58.886
57.331
53.131
47.211
40.401
33.526
27.853
25.007
25.84
30.114
36.933
45.427
55.039
65.349
75.704
85.138
93.001
99.301
104.578
109.322
113.714
117.76
121.451
124.967
128.501
132.002
135.191
137.825
139.802
141.136
141.942
142.272
142.128
141.572
140.698
139.6
138.368
137.048
135.636
134.135
132.532
130.798
128.938
126.955
124.852
122.663
120.414
118.142
115.91
113.767
111.752
109.906
108.252
106.808
105.618
104.73
104.205
104.122
104.522
105.425
106.843
108.748
111.101
113.842
116.872
120.104
123.47
126.905
130.362
133.802
137.161
140.378
143.384
146.093
148.438
150.369
151.835
152.819
153.316
153.343
152.946
152.166
151.027
149.547
147.734
145.588
143.122
140.348
137.273
133.923
130.32
126.483
122.439
118.201
113.777
109.166
104.358
99.344
94.128
88.716
83.124
77.372
71.479
65.471
59.378
53.226
47.039
40.84
34.65
28.491
22.387
16.365
10.451
4.672
-0.949
-6.388
-11.627
-16.648
-21.436
-25.98
-30.27
-34.301
-38.065
-41.556
-44.771
-47.706
-50.359
-52.73
-54.82
-56.633
-58.172
-59.444
-60.456
-61.22
-61.743
-62.038
-62.117
-61.993
-61.679
-61.189
-60.539
-59.743
-58.816
-57.774
-56.632
-55.406
-54.111
-52.763
-51.374
-49.96
-48.533
-47.106
-45.69
-44.294
-42.93
-41.605
-40.327
-39.104
-37.943
-36.847
-35.823
-34.874
-34.003
-33.211
-32.5
-31.87
-31.321
-30.852
-30.462
-30.15
-29.912
-29.747
-29.653
-29.627
-29.664
-29.762
-29.918
-30.126
-30.385
-30.689
-31.036
-31.421
-31.842
-32.296
-32.779
-33.289
-33.824
-34.381
-34.959
-35.556
-36.171
-36.802
-37.448
-38.11
-38.786
-39.477
-40.181
-40.9
-41.631
-42.376
-43.132
-43.899
-44.675
-45.459
-46.248
-47.042
-47.836
-48.63
-49.421
-50.205
-50.981
-51.745
-52.493
-53.224
-53.933
-54.616
-55.27
-55.891
-56.475
-57.019
-57.519
-57.97
-58.37
-58.714
-58.998
-59.219
-59.373
-59.458
-59.471
-59.409
-59.272
-59.059
-58.771
-58.409
-57.975
-57.474
-56.908
-56.284
-55.607
-54.882
-54.118
-53.32
-52.496
-51.652
-50.795
-49.932
-49.07
-48.219
-47.385
-46.576
-45.8
-45.065
-44.381
-43.754
-43.189
-42.689
-42.255
-41.889
-41.595
-41.379
-41.245
-41.192
-41.219
-41.325
-41.502
-41.742
-42.027
-42.326
-42.611
-42.858
-43.044
-43.163
-43.201
-43.141
-42.971
-42.672
-42.229
-41.639
-40.896
-39.993
-38.94
-37.758
-36.499
-35.258
-34.118
-33.153
-32.429
-31.976
-31.841
-32.097
-32.801
-34.015
-35.804
-38.181
-41.213
-45.021
-49.573
-54.712
-60.142
-65.354
-69.912
-73.566
-75.926
-76.528
-75.259
-72.283
-68.157
-63.905
-60.248
-57.442
-55.936
-56.327
-58.598
-62.218
-65.931
-67.649
-65.813
-59.589
-47.739
-28.632
-1.412
34.087
76.92
124.674
175.26
226.941
276.712
320.313
353.641
372.808
374.547
356.948
318.144
256.365
173.003
73.135
-39.318
-160.711
-288.384
-423.241
-558.301
-680.01
-776.298
-833.682
-849.61
-833.864
-795.225
-744.027
-686.301
-620.126
-546.52
-468.093
-387.999
-312.292
-245.034
-187.69
-140.973
-104.588
-77.51
-58.49
-46.191
-38.911
-35.016
-33.521
-33.49
-33.755
-33.545
-32.344
-29.94
-26.629
-22.683
-17.932
-12.241
-5.948
0.38
5.989
10.491
13.986
16.594
18.212
18.599
17.809
16.33
14.94
14.188
14.226
15.067
16.726
19.362
23.067
27.662
32.755
37.984
43.157
48.2
53.097
57.767
62.087
65.985
69.472
72.601
75.418
77.948
80.192
82.157
83.889
85.452
86.914
88.331
89.746
91.192
92.707
94.332
96.108
98.075
100.257
102.665
105.303
108.172
111.27
114.595
118.133
121.862
125.758
129.801
133.972
138.256
142.635
147.085
151.583
156.105
160.629
165.131
169.59
173.98
178.278
182.46
186.503
190.387
194.09
197.59
200.864
203.891
206.649
209.119
211.283
213.122
214.621
215.765
216.544
216.947
216.967
216.598
215.836
214.679
213.127
211.183
208.849
206.132
203.039
199.58
195.766
191.61
187.126
182.331
177.241
171.876
166.254
160.398
154.328
148.067
141.638
135.067
128.376
121.59
114.735
107.836
100.917
94.004
87.119
80.288
73.533
66.876
60.339
53.941
47.702
41.64
35.772
30.113
24.678
19.481
14.532
9.841
5.418
1.27
-2.598
-6.181
-9.476
-12.483
-15.201
-17.631
-19.776
-21.64
-23.228
-24.546
-25.601
-26.403
-26.961
-27.285
-27.386
-27.276
-26.968
-26.474
-25.808
-24.984
-24.014
-22.913
-21.696
-20.375
-18.965
-17.479
-15.93
-14.332
-12.696
-11.035
-9.36
-7.681
-6.008
-4.35
-2.717
-1.115
0.447
1.963
3.428
4.836
6.184
7.467
8.683
9.83
10.906
11.913
12.848
13.713
14.51
15.239
15.902
16.502
17.042
17.525
17.955
18.334
18.667
18.958
19.21
19.427
19.613
19.771
19.904
20.015
20.106
20.18
20.239
20.286
20.322
20.349
20.37
20.384
20.392
20.395
20.392
20.381
20.362
20.334
20.293
20.239
20.169
20.082
19.975
19.846
19.692
19.511
19.3
19.057
18.779
18.465
18.112
17.72
17.288
16.816
16.305
15.757
15.173
14.555
13.904
13.222
12.509
11.768
10.998
10.201
9.381
8.541
7.687
6.825
5.966
5.116
4.285
3.48
2.709
1.977
1.291
0.653
0.066
-0.464
-0.932
-1.326
-1.641
-1.873
-2.023
-2.096
-2.101
-2.053
-1.969
-1.869
-1.769
-1.679
-1.602
-1.53
-1.455
-1.367
-1.265
-1.156
-1.046
-0.935
-0.823
-0.708
-0.576
-0.412
-0.186
0.145
0.608
1.219
1.978
2.865
3.856
4.921
6.036
7.186
8.357
9.531
10.697
11.843
12.948
13.986
14.909
15.649
16.156
16.389
16.325
15.952
15.264
14.261
12.95
11.327
9.389
7.123
4.497
1.487
-1.92
-5.737
-9.933
-14.473
-19.345
-24.533
-30.026
-35.807
-41.821
-48.051
-54.542
-61.24
-67.988
-74.515
-80.349
-85.066
-88.373
-89.895
-89.192
-86.086
-80.674
-73.422
-65.415
-57.719
-51.094
-46.398
-44.428
-45.476
-49.314
-54.941
-60.195
-62.73
-60.493
-51.154
-32.634
-3.584
36.57
86.979
145.059
207.451
270.239
328.334
376.411
409.227
421.928
411.327
375.846
314.977
229.88
123.877
1.614
-130.692
-265.969
-398.039
-520.904
-628.664
-716.778
-782.143
-822.937
-839.722
-834.426
-808.68
-765.187
-707.56
-639.231
-564.188
-486.508
-408.714
-332.916
-261.851
-197.371
-141.006
-94.344
-57.473
-29.661
-10.682
0.218
4.427
2.942
-2.431
-9.239
-16.041
-21.801
-25.558
-27.093
-26.202
-22.317
-15.912
-8.172
-0.02
7.485
13.711
18.727
22.322
24.016
23.948
22.603
20.618
18.964
18.15
18.2
19.266
21.533
25.002
29.607
35.063
40.839
46.615
52.251
57.618
62.645
67.241
71.298
74.811
77.858
80.504
82.802
84.782
86.452
87.856
89.056
90.116
91.104
92.072
93.068
94.143
95.351
96.744
98.363
100.231
102.362
104.759
107.42
110.343
113.52
116.935
120.569
124.403
128.416
132.59
136.905
141.339
145.868
150.467
155.11
159.774
164.436
169.069
173.649
178.153
182.553
186.829
190.956
194.908
198.661
202.191
205.474
208.487
211.208
213.617
215.695
217.426
218.795
219.791
220.404
220.625
220.448
219.871
218.891
217.509
215.728
213.553
210.991
208.05
204.74
201.074
197.066
192.73
188.085
183.147
177.937
172.474
166.781
160.878
154.79
148.54
142.153
135.653
129.064
122.412
115.721
109.015
102.318
95.652
89.041
82.504
76.062
69.734
63.538
57.49
51.606
45.899
40.382
35.067
29.964
25.081
20.425
16.003
11.819
7.877
4.179
0.727
-2.48
-5.442
-8.162
-10.644
-12.891
-14.91
-16.707
-18.29
-19.665
-20.843
-21.832
-22.642
-23.283
-23.766
-24.101
-24.3
-24.372
-24.33
-24.182
-23.941
-23.616
-23.216
-22.752
-22.232
-21.665
-21.059
-20.423
-19.763
-19.088
-18.403
-17.716
-17.031
-16.356
-15.694
-15.051
-14.431
-13.837
-13.273
-12.741
-12.245
-11.786
-11.367
-10.989
-10.652
-10.359
-10.11
-9.904
-9.742
-9.623
-9.547
-9.515
-9.525
-9.578
-9.672
-9.808
-9.985
-10.202
-10.46
-10.757
-11.094
-11.468
-11.881
-12.331
-12.818
-13.342
-13.901
-14.496
-15.125
-15.787
-16.483
-17.209
-17.965
-18.75
-19.561
-20.398
-21.26
-22.145
-23.052
-23.981
-24.93
-25.899
-26.887
-27.892
-28.913
-29.949
-30.999
-32.06
-33.131
-34.21
-35.295
-36.384
-37.475
-38.564
-39.65
-40.728
-41.796
-42.849
-43.885
-44.899
-45.888
-46.846
-47.772
-48.664
-49.52
-50.336
-51.111
-51.842
-52.528
-53.166
-53.751
-54.278
-54.741
-55.135
-55.455
-55.699
-55.863
-55.945
-55.94
-55.847
-55.67
-55.408
-55.06
-54.621
-54.087
-53.456
-52.739
-51.948
-51.096
-50.191
-49.244
-48.268
-47.283
-46.302
-45.327
-44.352
-43.363
-42.36
-41.35
-40.351
-39.382
-38.449
-37.545
-36.657
-35.784
-34.925
-34.073
-33.21
-32.305
-31.342
-30.334
-29.32
-28.335
-27.398
-26.505
-25.634
-24.775
-23.928
-23.102
-22.312
-21.555
-20.831
-20.151
-19.547
-19.061
-18.719
-18.508
-18.379
-18.301
-18.264
-18.276
-18.377
-18.589
-18.931
-19.435
-20.131
-21.05
-22.218
-23.628
-25.275
-27.163
-29.312
-31.774
-34.624
-37.885
-41.602
-45.865
-50.637
-55.771
-60.992
-65.841
-69.91
-72.951
-74.672
-74.661
-72.727
-69.027
-64.118
-59.04
-54.757
-51.761
-50.479
-51.527
-55.176
-61.036
-67.994
-73.983
-76.774
-74.889
-66.915
-51.016
-25.832
9.226
53.79
105.871
162.771
222.103
280.656
333.954
377.493
406.546
416.8
405.503
370.177
309.994
227.419
126.146
10.857
-116.395
-257.678
-410.942
-568.896
-715.907
-828.694
-893.375
-907.078
-878.488
-827.535
-767.668
-705.155
-641.406
-571.971
-496.829
-419.945
-345.889
-280.37
-226.455
-184.335
-153.291
-131.475
-116.806
-107.742
-102.306
-98.494
-94.626
-89.139
-81.408
-71.688
-60.483
-48.43
-36.389
-25.154
-15.548
-8.5
-4.301
-2.718
-3.383
-5.694
-9.048
-12.948
-16.793
-19.938
-22.006
-22.834
-22.389
-20.802
-18.186
-14.617
-10.241
-5.225
0.279
6.12
12.176
18.35
24.53
30.591
36.414
41.88
46.894
51.402
55.38
58.835
61.792
64.286
66.366
68.089
69.524
70.739
71.798
72.757
73.67
74.591
75.577
76.682
77.957
79.436
81.138
83.075
85.25
87.663
90.309
93.176
96.247
99.506
102.939
106.533
110.275
114.148
118.134
122.211
126.358
130.553
134.777
139.007
143.222
147.398
151.514
155.549
159.482
163.292
166.953
170.445
173.744
176.827
179.673
182.264
184.578
186.599
188.31
189.697
190.748
191.452
191.8
191.784
191.4
190.644
189.514
188.012
186.138
183.898
181.298
178.346
175.052
171.429
167.488
163.247
158.72
153.926
148.883
143.611
138.13
132.463
126.631
120.655
114.56
108.367
102.1
95.78
89.431
83.074
76.73
70.422
64.167
57.987
51.9
45.922
40.071
34.363
28.81
23.428
18.226
13.217
8.409
3.81
-0.574
-4.738
-8.677
-12.39
-15.875
-19.131
-22.161
-24.967
-27.552
-29.919
-32.076
-34.027
-35.779
-37.339
-38.717
-39.919
-40.955
-41.833
-42.564
-43.156
-43.619
-43.963
-44.197
-44.33
-44.373
-44.334
-44.222
-44.045
-43.812
-43.529
-43.204
-42.844
-42.454
-42.04
-41.607
-41.159
-40.701
-40.236
-39.766
-39.294
-38.823
-38.352
-37.885
-37.42
-36.958
-36.499
-36.043
-35.59
-35.14
-34.691
-34.243
-33.796
-33.349
-32.901
-32.452
-32.001
-31.548
-31.092
-30.632
-30.17
-29.704
-29.236
-28.765
-28.294
-27.821
-27.349
-26.879
-26.41
-25.945
-25.485
-25.032
-24.586
-24.151
-23.728
-23.32
-22.929
-22.557
-22.208
-21.884
-21.587
-21.318
-21.08
-20.873
-20.699
-20.56
-20.457
-20.39
-20.362
-20.372
-20.422
-20.512
-20.643
-20.812
-21.021
-21.267
-21.55
-21.868
-22.219
-22.602
-23.015
-23.457
-23.926
-24.418
-24.932
-25.462
-26.007
-26.56
-27.116
-27.669
-28.213
-28.744
-29.255
-29.742
-30.202
-30.628
-31.02
-31.373
-31.684
-31.948
-32.158
-32.308
-32.39
-32.397
-32.323
-32.161
-31.906
-31.554
-31.103
-30.554
-29.908
-29.163
-28.316
-27.36
-26.293
-25.118
-23.836
-22.456
-20.988
-19.449
-17.865
-16.267
-14.677
-13.11
-11.575
-10.067
-8.587
-7.133
-5.698
-4.287
-2.899
-1.531
-0.191
1.118
2.404
3.687
5.01
6.431
7.98
9.682
11.55
13.575
15.752
18.059
20.45
22.891
25.351
27.805
30.247
32.673
35.058
37.366
39.535
41.483
43.155
44.498
45.456
45.991
46.068
45.681
44.861
43.631
41.997
39.943
37.443
34.469
31.01
27.081
22.696
17.878
12.645
7.021
1.061
-5.156
-11.58
-18.236
-25.092
-32.022
-38.776
-44.913
-50.015
-53.772
-55.803
-55.658
-53.097
-48.162
-41.26
-33.378
-25.551
-18.552
-13.215
-10.34
-10.275
-12.841
-17.158
-21.269
-22.912
-20.129
-10.802
7.057
34.75
72.84
120.759
176.262
236.171
296.886
353.853
402.064
436.587
452.719
446.73
416.417
360.857
280.538
177.823
56.679
-77.466
-218.115
-358.464
-491.665
-611.175
-711.422
-788.071
-838.428
-861.836
-859.036
-832.001
-784.114
-719.628
-643.339
-560.538
-476.07
-393.801
-317.345
-249.582
-192.343
-146.737
-112.606
-88.545
-72.885
-63.931
-59.478
-57.398
-55.704
-52.479
-46.892
-39.05
-29.293
-18.215
-6.684
4.459
14.219
21.506
25.938
27.676
27.078
24.743
21.266
17.169
13.098
9.738
7.499
6.548
6.899
8.411
10.961
14.467
18.79
23.762
29.231
35.053
41.108
47.306
53.545
59.703
65.661
71.299
76.513
81.248
85.484
89.227
92.501
95.338
97.781
99.885
101.717
103.343
104.824
106.214
107.56
108.915
110.336
111.878
113.591
115.509
117.648
120.017
122.618
125.449
128.501
131.761
135.207
138.82
142.584
146.486
150.511
154.642
158.857
163.136
167.456
171.794
176.132
180.448
184.72
188.928
193.049
197.065
200.957
204.705
208.286
211.679
214.863
217.817
220.522
222.958
225.107
226.954
228.483
229.683
230.542
231.052
231.206
230.998
230.424
229.482
228.173
226.499
224.462
222.069
219.325
216.241
212.826
209.092
205.053
200.722
196.116
191.252
186.148
180.822
175.295
169.586
163.718
157.71
151.586
145.368
139.077
132.737
126.368
119.994
113.634
107.31
101.041
94.846
88.742
82.747
76.876
71.144
65.565
60.149
54.909
49.853
44.991
40.33
35.874
31.63
27.599
23.785
20.187
16.806
13.641
10.688
7.944
5.405
3.065
0.918
-1.045
-2.83
-4.448
-5.906
-7.216
-8.388
-9.431
-10.358
-11.178
-11.903
-12.543
-13.109
-13.61
-14.057
-14.457
-14.821
-15.157
-15.471
-15.773
-16.067
-16.36
-16.657
-16.964
-17.285
-17.623
-17.981
-18.362
-18.768
-19.2
-19.66
-20.147
-20.661
-21.202
-21.768
-22.357
-22.967
-23.597
-24.242
-24.9
-25.567
-26.24
-26.916
-27.591
-28.262
-28.925
-29.578
-30.218
-30.841
-31.446
-32.03
-32.591
-33.127
-33.637
-34.12
-34.575
-35.0
-35.397
-35.764
-36.102
-36.412
-36.693
-36.947
-37.174
-37.377
-37.557
-37.716
-37.857
-37.981
-38.092
-38.194
-38.289
-38.38
-38.473
-38.569
-38.674
-38.79
-38.922
-39.074
-39.249
-39.451
-39.684
-39.95
-40.253
-40.595
-40.98
-41.408
-41.882
-42.402
-42.97
-43.586
-44.249
-44.96
-45.718
-46.521
-47.369
-48.26
-49.192
-50.161
-51.164
-52.198
-53.259
-54.341
-55.441
-56.551
-57.667
-58.782
-59.89
-60.983
-62.055
-63.097
-64.101
-65.061
-65.967
-66.812
-67.59
-68.293
-68.915
-69.45
-69.894
-70.244
-70.498
-70.654
-70.71
-70.665
-70.52
-70.277
-69.936
-69.5
-68.97
-68.349
-67.642
-66.855
-65.994
-65.067
-64.079
-63.04
-61.958
-60.842
-59.703
-58.55
-57.39
-56.233
-55.086
-53.961
-52.871
-51.826
-50.83
-49.884
-48.988
-48.138
-47.333
-46.564
-45.812
-45.061
-44.293
-43.497
-42.67
-41.807
-40.902
-39.946
-38.922
-37.824
-36.663
-35.447
-34.194
-32.926
-31.659
-30.43
-29.307
-28.353
-27.637
-27.22
-27.134
-27.409
-28.076
-29.167
-30.737
-32.827
-35.461
-38.662
-42.419
-46.741
-51.688
-57.224
-63.182
-69.288
-75.107
-80.225
-84.363
-87.182
-88.276
-87.4
-84.517
-80.015
-74.753
-69.629
-65.377
-62.675
-62.197
-64.393
-69.315
-76.22
-83.509
-89.213
-91.364
-88.092
-77.379
-57.455
-27.207
13.479
63.29
119.848
180.206
240.752
296.728
342.981
374.519
386.844
376.692
342.065
282.06
197.147
91.42
-29.478
-160.88
-296.228
-431.812
-564.258
-683.22
-781.088
-850.44
-884.233
-887.54
-865.877
-824.158
-770.523
-706.236
-632.667
-554.052
-472.706
-392.871
-318.961
-253.216
-197.302
-152.07
-117.292
-92.037
-75.111
-65.144
-60.36
-58.965
-59.29
-59.584
-58.552
-55.751
-51.203
-45.191
-38.212
-30.815
-23.539
-17.072
-12.204
-9.241
-7.989
-8.105
-9.165
-10.728
-12.536
-14.286
-15.346
-15.326
-14.161
-11.847
-8.538
-4.407
0.552
6.31
12.582
19.128
25.772
32.323
38.721
44.906
50.731
56.071
60.885
65.156
68.911
72.21
75.071
77.523
79.62
81.417
82.983
84.387
85.684
86.921
88.15
89.423
90.79
92.304
93.998
95.89
97.988
100.293
102.802
105.509
108.404
111.471
114.69
118.047
121.526
125.117
128.802
132.566
136.388
140.248
144.127
148.006
151.867
155.691
159.457
163.147
166.742
170.225
173.575
176.773
179.8
182.634
185.257
187.65
189.796
191.678
193.282
194.593
195.601
196.295
196.668
196.712
196.423
195.797
194.833
193.53
191.89
189.917
187.615
184.992
182.054
178.813
175.279
171.465
167.385
163.054
158.489
153.708
148.728
143.569
138.252
132.796
127.222
121.553
115.81
110.014
104.187
98.351
92.526
86.735
80.996
75.329
69.753
64.287
58.947
53.75
48.711
43.845
39.164
34.681
30.407
26.352
22.524
18.931
15.578
12.471
9.612
7.005
4.649
2.544
0.689
-0.919
-2.284
-3.41
-4.303
-4.971
-5.419
-5.658
-5.695
-5.541
-5.206
-4.7
-4.036
-3.223
-2.274
-1.201
-0.017
1.269
2.642
4.091
5.605
7.172
8.781
10.421
12.081
13.752
15.425
17.09
18.739
20.365
21.96
23.518
25.034
26.501
27.914
29.271
30.567
31.798
32.963
34.059
35.085
36.039
36.921
37.73
38.467
39.131
39.724
40.246
40.699
41.084
41.402
41.656
41.847
41.978
42.051
42.068
42.03
41.94
41.8
41.613
41.379
41.1
40.78
40.418
40.018
39.58
39.106
38.598
38.057
37.483
36.88
36.247
35.586
34.899
34.186
33.448
32.688
31.906
31.103
30.28
29.439
28.58
27.704
26.813
25.907
24.989
24.06
23.122
22.176
21.225
20.272
19.318
18.367
17.422
16.484
15.558
14.646
13.752
12.879
12.03
11.209
10.419
9.665
8.951
8.279
7.654
7.079
6.558
6.095
5.693
5.358
5.091
4.898
4.781
4.746
4.795
4.93
5.154
5.468
5.874
6.371
6.958
7.633
8.394
9.238
10.16
11.158
12.226
13.36
14.554
15.805
17.106
18.45
19.828
21.229
22.645
24.064
25.477
26.873
28.239
29.564
30.839
32.058
33.211
34.287
35.27
36.142
36.892
37.515
38.008
38.37
38.605
38.721
38.735
38.67
38.545
38.373
38.161
37.909
37.624
37.317
37.01
36.726
36.477
36.271
36.111
35.994
35.914
35.841
35.726
35.513
35.151
34.601
33.841
32.855
31.615
30.092
28.237
25.996
23.332
20.214
16.635
12.594
8.083
3.132
-2.215
-7.9
-13.826
-19.942
-26.25
-32.638
-38.916
-44.776
-49.688
-53.183
-54.912
-54.44
-51.499
-46.138
-38.594
-29.669
-20.628
-12.539
-6.446
-3.294
-3.351
-6.355
-11.562
-17.123
-20.748
-20.242
-13.011
3.02
28.845
64.692
109.549
160.978
215.928
270.418
319.14
357.118
379.826
383.02
364.11
321.583
254.48
165.405
59.054
-61.306
-190.071
-323.767
-459.806
-587.525
-698.03
-782.506
-832.241
-850.809
-842.755
-812.33
-766.678
-706.685
-634.01
-553.372
-468.11
-383.575
-304.949
-235.161
-176.681
-130.615
-96.542
-73.182
-58.661
-51.071
-48.154
-47.629
-47.367
-45.333
-40.567
-33.172
-23.588
-12.493
-0.815
10.579
20.692
28.396
33.252
35.387
35.142
33.118
29.913
26.012
22.021
18.589
16.088
14.708
14.482
15.275
16.982
19.521
22.752
26.533
30.732
35.22
39.895
44.676
49.471
54.188
58.735
63.022
66.973
70.522
73.637
76.319
78.586
80.471
82.017
83.268
84.282
85.125
85.86
86.542
87.223
87.944
88.75
89.687
90.798
92.121
93.68
95.483
97.537
99.839
102.384
105.161
108.155
111.343
114.705
118.224
121.883
125.665
129.551
133.519
137.546
141.61
145.687
149.757
153.795
157.78
161.687
165.496
169.185
172.733
176.119
179.32
182.315
185.082
187.602
189.853
191.819
193.481
194.825
195.835
196.501
196.813
196.762
196.342
195.548
194.378
192.831
190.909
188.613
185.948
182.921
179.54
175.815
171.757
167.378
162.694
157.721
152.476
146.977
141.244
135.298
129.16
122.853
116.399
109.821
103.144
96.391
89.587
82.755
75.92
69.105
62.334
55.629
49.011
42.502
36.122
29.89
23.823
17.939
12.252
6.776
1.526
-3.488
-8.256
-12.77
-17.022
-21.008
-24.722
-28.164
-31.333
-34.229
-36.855
-39.214
-41.311
-43.153
-44.747
-46.102
-47.227
-48.133
-48.831
-49.335
-49.655
-49.807
-49.804
-49.66
-49.39
-49.007
-48.527
-47.962
-47.328
-46.637
-45.903
-45.138
-44.354
-43.563
-42.774
-41.999
-41.244
-40.52
-39.831
-39.185
-38.587
-38.04
-37.547
-37.112
-36.735
-36.417
-36.157
-35.955
-35.808
-35.715
-35.672
-35.675
-35.721
-35.805
-35.922
-36.069
-36.239
-36.429
-36.633
-36.846
-37.063
-37.281
-37.495
-37.701
-37.895
-38.075
-38.238
-38.382
-38.505
-38.606
-38.684
-38.74
-38.773
-38.786
-38.778
-38.753
-38.713
-38.66
-38.598
-38.531
-38.461
-38.395
-38.334
-38.285
-38.25
-38.234
-38.241
-38.274
-38.336
-38.429
-38.556
-38.719
-38.917
-39.153
-39.425
-39.734
-40.078
-40.456
-40.864
-41.3
-41.76
-42.239
-42.733
-43.236
-43.742
-44.246
-44.74
-45.218
-45.672
-46.095
-46.479
-46.815
-47.095
-47.312
-47.457
-47.523
-47.503
-47.39
-47.179
-46.866
-46.449
-45.927
-45.297
-44.562
-43.722
-42.78
-41.739
-40.601
-39.37
-38.049
-36.643
-35.161
-33.61
-31.999
-30.338
-28.639
-26.913
-25.174
-23.432
-21.697
-19.978
-18.286
-16.637
-15.052
-13.549
-12.146
-10.859
-9.705
-8.696
-7.84
-7.132
-6.554
-6.092
-5.729
-5.451
-5.256
-5.131
-5.065
-5.048
-5.06
-5.092
-5.148
-5.227
-5.335
-5.503
-5.774
-6.237
-7.014
-8.217
-9.955
-12.321
-15.4
-19.3
-24.13
-29.978
-36.938
-45.046
-54.332
-64.882
-76.65
-89.451
-103.001
-116.789
-130.279
-143.094
-154.733
-164.613
-172.554
-178.536
-182.811
-186.242
-189.456
-192.799
-197.004
-202.635
-209.53
-217.304
-224.873
-230.134
-231.518
-227.568
-216.111
-195.585
-165.315
-125.175
-76.542
-22.163
35.265
92.178
143.611
184.808
211.181
218.655
204.801
168.184
108.142
25.932
-75.098
-190.369
-314.023
-439.793
-561.713
-673.315
-768.553
-842.733
-892.723
-917.338
-917.04
-893.284
-848.54
-786.847
-713.01
-632.209
-549.46
-468.608
-392.992
-325.512
-268.238
-222.273
-187.475
-162.45
-145.347
-134.56
-128.137
-124.06
-120.409
-115.24
-107.621
-97.647
-85.703
-72.334
-58.321
-44.41
-31.518
-20.795
-12.737
-7.279
-4.175
-2.889
-2.886
-3.746
-4.9
-5.705
-5.781
-4.926
-3.081
-0.378
3.088
7.249
11.974
17.139
22.63
28.336
34.178
40.088
45.985
51.789
57.418
62.786
67.823
72.463
76.668
80.444
83.809
86.796
89.448
91.804
93.914
95.84
97.638
99.36
101.054
102.755
104.507
106.354
108.338
110.5
112.864
115.442
118.237
121.249
124.473
127.901
131.517
135.3
139.23
143.292
147.468
151.744
156.102
160.519
164.972
169.439
173.897
178.323
182.694
186.986
191.177
195.244
199.167
202.924
206.496
209.86
212.994
215.878
218.492
220.817
222.835
224.53
225.886
226.891
227.536
227.811
227.71
227.228
226.364
225.115
223.483
221.471
219.084
216.328
213.212
209.745
205.941
201.813
197.377
192.648
187.645
182.388
176.896
171.191
165.294
159.228
153.016
146.682
140.25
133.744
127.188
120.606
114.023
107.461
100.943
94.492
88.127
81.87
75.74
69.753
63.928
58.28
52.822
47.569
42.531
37.718
33.14
28.803
24.713
20.874
17.289
13.959
10.885
8.063
5.493
3.171
1.091
-0.752
-2.365
-3.756
-4.934
-5.908
-6.688
-7.286
-7.711
-7.977
-8.093
-8.073
-7.929
-7.671
-7.312
-6.863
-6.335
-5.74
-5.087
-4.387
-3.649
-2.882
-2.092
-1.289
-0.477
0.336
1.146
1.949
2.74
3.517
4.276
5.017
5.737
6.435
7.111
7.764
8.396
9.005
9.593
10.162
10.711
11.242
11.757
12.257
12.744
13.217
13.679
14.13
14.57
15.002
15.423
15.835
16.237
16.628
17.007
17.373
17.722
18.054
18.365
18.653
18.914
19.145
19.344
19.505
19.627
19.705
19.738
19.722
19.654
19.533
19.357
19.124
18.834
18.486
18.08
17.615
17.094
16.518
15.888
15.206
14.477
13.702
12.888
12.037
11.155
10.247
9.32
8.379
7.432
6.486
5.548
4.627
3.73
2.866
2.043
1.271
0.554
-0.098
-0.679
-1.184
-1.608
-1.947
-2.198
-2.361
-2.434
-2.416
-2.307
-2.11
-1.825
-1.457
-1.008
-0.482
0.115
0.774
1.487
2.244
3.036
3.854
4.688
5.526
6.359
7.175
7.966
8.722
9.43
10.077
10.649
11.134
11.527
11.828
12.036
12.158
12.201
12.177
12.105
11.999
11.871
11.731
11.585
11.441
11.313
11.216
11.165
11.175
11.247
11.381
11.575
11.807
12.05
12.275
12.433
12.479
12.384
12.108
11.612
10.872
9.854
8.53
6.892
4.912
2.559
-0.181
-3.341
-6.911
-10.848
-15.145
-19.815
-24.788
-29.91
-34.9
-39.331
-42.848
-45.203
-46.091
-45.126
-42.082
-37.07
-30.599
-23.6
-17.034
-11.486
-7.488
-5.802
-6.846
-10.347
-15.387
-20.162
-22.547
-21.083
-14.328
-0.282
22.446
54.382
95.225
143.063
195.23
249.395
302.315
349.328
385.993
408.15
411.91
394.924
355.683
292.729
207.765
106.221
-7.937
-130.903
-259.965
-396.199
-532.599
-655.673
-753.457
-812.381
-830.302
-817.464
-782.496
-735.474
-681.993
-619.652
-549.108
-472.787
-393.532
-317.052
-247.908
-188.332
-139.539
-101.702
-73.887
-54.612
-42.806
-37.058
-35.203
-35.422
-35.93
-34.977
-32.061
-27.392
-21.039
-13.453
-5.432
2.396
9.125
13.794
16.207
16.566
15.188
12.623
9.402
5.952
2.844
0.667
-0.302
0.022
1.584
4.189
7.699
12.008
16.963
22.398
28.164
34.132
40.191
46.264
52.257
58.064
63.583
68.714
73.401
77.626
81.401
84.759
87.737
90.378
92.736
94.872
96.848
98.72
100.542
102.354
104.204
106.14
108.209
110.458
112.919
115.605
118.524
121.672
125.043
128.629
132.414
136.377
140.497
144.757
149.14
153.633
158.216
162.87
167.571
172.296
177.023
181.73
186.395
190.994
195.506
199.907
204.177
208.294
212.237
215.982
219.508
222.792
225.811
228.547
230.98
233.091
234.864
236.285
237.341
238.022
238.32
238.227
237.74
236.854
235.569
233.886
231.809
229.34
226.487
223.258
219.663
215.714
211.424
206.809
201.884
196.668
191.18
185.44
179.47
173.293
166.931
160.407
153.747
146.975
140.116
133.194
126.233
119.26
112.296
105.366
98.492
91.695
84.997
78.417
71.975
65.687
59.57
53.64
47.911
42.395
37.104
32.049
27.237
22.677
18.374
14.332
10.556
7.045
3.801
0.823
-1.893
-4.35
-6.552
-8.507
-10.222
-11.704
-12.962
-14.007
-14.85
-15.5
-15.97
-16.272
-16.418
-16.422
-16.295
-16.052
-15.703
-15.264
-14.746
-14.161
-13.522
-12.841
-12.128
-11.396
-10.654
-9.912
-9.181
-8.468
-7.781
-7.129
-6.518
-5.953
-5.44
-4.984
-4.588
-4.256
-3.99
-3.791
-3.662
-3.603
-3.615
-3.698
-3.851
-4.073
-4.363
-4.719
-5.139
-5.621
-6.163
-6.761
-7.413
-8.116
-8.867
-9.664
-10.503
-11.381
-12.296
-13.244
-14.224
-15.231
-16.264
-17.321
-18.398
-19.495
-20.609
-21.74
-22.885
-24.043
-25.213
-26.394
-27.584
-28.781
-29.984
-31.192
-32.403
-33.614
-34.824
-36.03
-37.233
-38.428
-39.614
-40.79
-41.952
-43.098
-44.226
-45.332
-46.415
-47.47
-48.494
-49.484
-50.437
-51.349
-52.216
-53.035
-53.801
-54.511
-55.16
-55.743
-56.258
-56.699
-57.062
-57.346
-57.547
-57.663
-57.694
-57.637
-57.495
-57.268
-56.959
-56.568
-56.099
-55.554
-54.937
-54.253
-53.505
-52.697
-51.833
-50.921
-49.967
-48.978
-47.962
-46.925
-45.875
-44.821
-43.77
-42.734
-41.719
-40.729
-39.773
-38.855
-37.984
-37.171
-36.423
-35.739
-35.118
-34.559
-34.057
-33.608
-33.199
-32.808
-32.413
-31.994
-31.534
-31.029
-30.465
-29.832
-29.114
-28.291
-27.358
-26.32
-25.18
-23.947
-22.63
-21.244
-19.833
-18.464
-17.206
-16.137
-15.32
-14.804
-14.645
-14.884
-15.573
-16.778
-18.54
-20.896
-23.874
-27.478
-31.738
-36.712
-42.337
-48.411
-54.626
-60.536
-65.743
-69.984
-72.921
-74.108
-73.295
-70.543
-66.271
-61.312
-56.448
-52.085
-48.636
-46.76
-46.856
-48.766
-51.723
-54.16
-54.306
-50.97
-42.922
-28.358
-5.826
25.376
65.164
112.017
163.537
217.43
270.545
318.21
355.627
378.288
381.79
363.043
320.411
252.647
161.566
52.905
-68.913
-199.581
-335.545
-476.521
-614.822
-737.216
-831.641
-885.078
-896.296
-875.185
-831.071
-775.221
-713.127
-643.091
-566.605
-485.896
-404.355
-328.457
-262.175
-207.158
-164.387
-133.027
-111.388
-97.925
-90.843
-87.782
-86.592
-85.368
-82.298
-76.633
-68.539
-58.402
-46.884
-34.954
-23.485
-13.43
-5.81
-0.96
1.289
1.278
-0.417
-3.211
-6.619
-10.061
-12.945
-14.964
-16.011
-16.096
-15.362
-13.915
-11.822
-9.198
-6.162
-2.805
0.802
4.604
8.561
12.61
16.672
20.685
24.604
28.416
32.14
35.802
39.431
43.058
46.716
50.43
54.215
58.07
61.97
65.904
69.869
73.872
77.933
82.059
86.243
90.471
94.711
98.935
103.122
107.249
111.295
115.252
119.12
122.921
126.699
130.484
134.289
138.121
141.971
145.833
149.709
153.594
157.483
161.368
165.239
169.083
172.893
176.649
180.324
183.882
187.273
190.457
193.403
196.084
198.478
200.567
202.331
203.757
204.837
205.564
205.93
205.928
205.549
204.79
203.652
202.139
200.26
198.022
195.434
192.503
189.241
185.657
181.763
177.569
173.085
168.325
163.303
158.036
152.541
146.839
140.948
134.889
128.682
122.351
115.914
109.395
102.813
96.189
89.544
82.898
76.271
69.683
63.15
56.692
50.325
44.064
37.926
31.925
26.072
20.382
14.864
9.53
4.388
-0.552
-5.284
-9.801
-14.098
-18.171
-22.016
-25.63
-29.014
-32.168
-35.091
-37.787
-40.259
-42.51
-44.545
-46.371
-47.992
-49.417
-50.652
-51.706
-52.586
-53.302
-53.863
-54.278
-54.557
-54.71
-54.746
-54.676
-54.509
-54.256
-53.926
-53.529
-53.074
-52.571
-52.029
-51.457
-50.862
-50.254
-49.64
-49.028
-48.424
-47.835
-47.268
-46.728
-46.22
-45.748
-45.317
-44.93
-44.591
-44.301
-44.063
-43.879
-43.749
-43.675
-43.656
-43.693
-43.785
-43.93
-44.128
-44.378
-44.676
-45.022
-45.412
-45.845
-46.317
-46.825
-47.367
-47.939
-48.538
-49.161
-49.804
-50.464
-51.137
-51.82
-52.51
-53.203
-53.897
-54.588
-55.275
-55.953
-56.62
-57.275
-57.914
-58.537
-59.14
-59.723
-60.284
-60.82
-61.332
-61.817
-62.275
-62.704
-63.104
-63.472
-63.809
-64.114
-64.386
-64.623
-64.827
-64.995
-65.127
-65.224
-65.283
-65.305
-65.287
-65.231
-65.134
-64.995
-64.813
-64.587
-64.316
-63.999
-63.634
-63.219
-62.753
-62.235
-61.663
-61.035
-60.351
-59.611
-58.813
-57.959
-57.048
-56.082
-55.065
-53.999
-52.887
-51.73
-50.533
-49.301
-48.037
-46.744
-45.428
-44.093
-42.744
-41.389
-40.036
-38.691
-37.361
-36.055
-34.779
-33.541
-32.352
-31.216
-30.141
-29.133
-28.2
-27.349
-26.592
-25.936
-25.381
-24.927
-24.568
-24.301
-24.117
-24.005
-23.942
-23.91
-23.889
-23.863
-23.822
-23.751
-23.636
-23.46
-23.202
-22.846
-22.395
-21.849
-21.215
-20.513
-19.756
-18.98
-18.251
-17.627
-17.169
-16.952
-17.02
-17.423
-18.218
-19.438
-21.134
-23.364
-26.152
-29.533
-33.537
-38.14
-43.362
-49.24
-55.641
-62.345
-69.036
-75.237
-80.577
-84.818
-87.573
-88.384
-87.113
-83.898
-79.252
-74.102
-69.111
-64.551
-60.911
-58.879
-58.606
-59.723
-61.166
-61.069
-57.979
-51.115
-39.274
-20.801
5.209
38.994
79.744
125.2
173.368
222.551
269.754
310.737
341.476
358.137
357.471
337.589
296.628
232.874
147.924
46.884
-66.499
-188.54
-316.824
-452.29
-587.488
-709.102
-805.089
-862.034
-878.123
-862.831
-824.546
-773.411
-714.687
-646.558
-570.437
-488.876
-405.269
-326.018
-255.465
-195.773
-148.319
-112.644
-87.264
-70.647
-61.181
-56.718
-55.126
-54.352
-52.302
-47.935
-41.237
-32.487
-22.2
-11.18
-0.202
9.769
17.561
22.688
25.253
25.566
24.195
21.711
18.585
15.434
12.955
11.563
11.427
12.559
14.797
18.003
22.09
26.912
32.296
38.088
44.144
50.347
56.62
62.869
68.984
74.856
80.377
85.455
90.046
94.135
97.735
100.875
103.592
105.928
107.942
109.701
111.267
112.701
114.056
115.379
116.721
118.135
119.673
121.384
123.3
125.434
127.798
130.392
133.213
136.257
139.508
142.948
146.56
150.328
154.239
158.28
162.433
166.679
170.996
175.364
179.761
184.167
188.561
192.921
197.226
201.454
205.585
209.599
213.475
217.191
220.724
224.053
227.155
230.011
232.6
234.904
236.906
238.59
239.943
240.953
241.611
241.907
241.836
241.393
240.575
239.381
237.812
235.87
233.561
230.89
227.866
224.498
220.798
216.78
212.457
207.846
202.965
197.832
192.467
186.89
181.124
175.189
169.111
162.911
156.613
150.242
143.822
137.376
130.928
124.501
118.118
111.8
105.568
99.442
93.442
87.585
81.889
76.37
71.043
65.92
61.014
56.336
51.894
47.698
43.752
40.062
36.63
33.459
30.549
27.898
25.505
23.365
21.472
19.821
18.403
17.211
16.233
15.459
14.877
14.476
14.243
14.164
14.225
14.414
14.716
15.117
15.603
16.161
16.777
17.437
18.129
18.841
19.559
20.274
20.974
21.651
22.294
22.896
23.45
23.948
24.387
24.76
25.065
25.299
25.459
25.546
25.557
25.495
25.36
25.155
24.882
24.545
24.148
23.694
23.189
22.637
22.043
21.412
20.751
20.064
19.357
18.637
17.907
17.176
16.446
15.724
15.014
14.321
13.647
12.997
12.373
11.777
11.211
10.676
10.174
9.705
9.268
8.865
8.493
8.153
7.841
7.557
7.298
7.06
6.841
6.637
6.445
6.261
6.081
5.903
5.721
5.531
5.33
5.113
4.876
4.615
4.324
4.002
3.644
3.249
2.815
2.339
1.823
1.267
0.672
0.038
-0.632
-1.339
-2.08
-2.853
-3.659
-4.496
-5.362
-6.255
-7.171
-8.101
-9.042
-9.986
-10.925
-11.851
-12.755
-13.631
-14.472
-15.274
-16.033
-16.741
-17.388
-17.961
-18.453
-18.861
-19.185
-19.423
-19.58
-19.666
-19.698
-19.704
-19.704
-19.705
-19.71
-19.709
-19.696
-19.669
-19.624
-19.553
-19.45
-19.303
-19.105
-18.857
-18.545
-18.145
-17.613
-16.887
-15.93
-14.732
-13.301
-11.66
-9.835
-7.852
-5.756
-3.603
-1.436
0.71
2.822
4.903
6.931
8.866
10.649
12.203
13.483
14.48
15.202
15.663
15.886
15.899
15.753
15.519
15.232
14.887
14.438
13.825
13.001
11.943
10.633
9.042
7.123
4.81
2.045
-1.197
-4.951
-9.26
-14.183
-19.785
-26.076
-32.965
-40.313
-47.995
-55.818
-63.519
-70.731
-76.91
-81.493
-84.021
-84.157
-81.631
-76.387
-68.65
-58.871
-47.91
-36.863
-26.668
-17.93
-11.007
-5.723
-1.28
3.331
9.743
20.21
36.667
60.498
92.532
132.35
178.435
228.855
280.373
328.332
367.923
394.221
402.648
390.204
354.859
295.267
212.156
108.373
-11.886
-142.714
-277.552
-410.336
-534.546
-643.685
-732.671
-797.717
-836.7
-849.737
-837.917
-803.036
-748.607
-679.047
-599.109
-514.059
-428.479
-345.913
-269.943
-203.526
-148.363
-105.436
-74.467
-53.896
-42.11
-37.4
-37.358
-39.72
-42.43
-43.51
-42.117
-38.319
-32.321
-24.669
-16.271
-7.954
-0.705
4.448
7.214
7.768
6.453
3.864
0.587
-2.873
-5.901
-7.916
-8.654
-8.051
-6.19
-3.273
0.549
5.142
10.33
15.925
21.763
27.707
33.649
39.49
45.12
50.42
55.274
59.609
63.394
66.626
69.331
71.549
73.321
74.707
75.776
76.593
77.224
77.731
78.166
78.591
79.066
79.648
80.396
81.353
82.542
83.982
85.678
87.627
89.827
92.269
94.934
97.808
100.88
104.135
107.563
111.151
114.879
118.729
122.679
126.711
130.804
134.938
139.092
143.246
147.378
151.468
155.494
159.435
163.268
166.968
170.512
173.875
177.036
179.971
182.661
185.084
187.224
189.063
190.588
191.786
192.644
193.154
193.308
193.1
192.526
191.584
190.274
188.596
186.554
184.154
181.402
178.306
174.878
171.128
167.071
162.72
158.094
153.208
148.082
142.735
137.188
131.461
125.578
119.56
113.431
107.212
100.927
94.6
88.251
81.904
75.579
69.298
63.08
56.944
50.909
44.993
39.211
33.58
28.113
22.824
17.724
12.825
8.136
3.666
-0.58
-4.595
-8.374
-11.916
-15.217
-18.279
-21.102
-23.687
-26.04
-28.164
-30.065
-31.75
-33.228
-34.506
-35.594
-36.503
-37.243
-37.825
-38.262
-38.565
-38.747
-38.819
-38.793
-38.683
-38.501
-38.258
-37.966
-37.637
-37.283
-36.914
-36.54
-36.173
-35.82
-35.491
-35.195
-34.939
-34.73
-34.574
-34.477
-34.444
-34.478
-34.583
-34.761
-35.013
-35.34
-35.742
-36.218
-36.766
-37.385
-38.071
-38.822
-39.633
-40.501
-41.421
-42.389
-43.399
-44.446
-45.526
-46.631
-47.758
-48.901
-50.053
-51.21
-52.366
-53.515
-54.653
-55.773
-56.872
-57.944
-58.985
-59.992
-60.959
-61.885
-62.766
-63.6
-64.386
-65.122
-65.808
-66.443
-67.029
-67.565
-68.054
-68.497
-68.897
-69.257
-69.578
-69.865
-70.12
-70.347
-70.549
-70.731
-70.896
-71.046
-71.187
-71.321
-71.452
-71.583
-71.717
-71.856
-72.004
-72.162
-72.332
-72.516
-72.715
-72.928
-73.158
-73.403
-73.662
-73.934
-74.217
-74.508
-74.804
-75.1
-75.394
-75.679
-75.949
-76.201
-76.427
-76.621
-76.778
-76.891
-76.952
-76.957
-76.898
-76.771
-76.57
-76.289
-75.924
-75.472
-74.929
-74.294
-73.564
-72.738
-71.818
-70.805
-69.701
-68.509
-67.232
-65.876
-64.446
-62.947
-61.386
-59.769
-58.105
-56.4
-54.666
-52.912
-51.147
-49.382
-47.63
-45.901
-44.208
-42.56
-40.962
-39.42
-37.94
-36.53
-35.199
-33.955
-32.798
-31.73
-30.753
-29.866
-29.066
-28.341
-27.665
-27.016
-26.376
-25.731
-25.079
-24.413
-23.719
-22.983
-22.188
-21.327
-20.405
-19.422
-18.368
-17.245
-16.069
-14.888
-13.792
-12.86
-12.151
-11.712
-11.563
-11.744
-12.328
-13.381
-14.97
-17.145
-19.913
-23.332
-27.531
-32.529
-38.197
-44.223
-50.081
-55.283
-59.511
-62.42
-63.552
-62.653
-59.84
-55.666
-51.208
-47.561
-45.358
-45.131
-47.559
-52.882
-60.613
-69.557
-77.543
-82.127
-81.564
-74.123
-57.685
-30.857
6.801
54.738
110.726
171.78
235.112
296.885
352.062
395.915
423.69
431.139
415.707
375.298
309.761
222.39
117.306
-1.725
-133.397
-278.268
-432.14
-583.758
-715.243
-808.518
-855.527
-859.837
-834.536
-793.773
-745.053
-690.202
-626.953
-554.711
-476.986
-398.684
-325.49
-261.242
-207.397
-164.382
-131.515
-107.375
-90.42
-79.199
-71.882
-66.746
-62.211
-56.646
-49.333
-40.413
-30.252
-19.375
-8.518
1.67
10.43
16.796
20.427
21.509
20.371
17.598
13.773
9.364
4.963
1.239
-1.408
-2.797
-2.886
-1.809
0.315
3.413
7.339
11.927
17.021
22.47
28.153
33.974
39.82
45.569
51.099
56.294
61.054
65.327
69.09
72.35
75.136
77.483
79.442
81.069
82.432
83.599
84.633
85.589
86.52
87.478
88.518
89.694
91.055
92.633
94.445
96.5
98.797
101.333
104.101
107.084
110.263
113.618
117.133
120.793
124.582
128.484
132.478
136.542
140.654
144.792
148.938
153.069
157.165
161.203
165.164
169.027
172.773
176.381
179.831
183.1
186.167
189.012
191.617
193.963
196.033
197.811
199.285
200.442
201.275
201.774
201.936
201.755
201.231
200.363
199.152
197.603
195.721
193.512
190.984
188.147
185.013
181.593
177.902
173.955
169.768
165.359
160.744
155.944
150.977
145.864
140.625
135.281
129.853
124.363
118.831
113.278
107.725
102.193
96.7
91.266
85.907
80.642
75.485
70.452
65.556
60.81
56.225
51.813
47.583
43.542
39.699
36.059
32.628
29.41
26.407
23.621
21.052
18.702
16.568
14.647
12.938
11.435
10.133
9.028
8.112
7.377
6.816
6.421
6.181
6.088
6.131
6.301
6.586
6.976
7.461
8.03
8.672
9.378
10.137
10.939
11.774
12.632
13.505
14.384
15.26
16.124
16.97
17.79
18.577
19.325
20.028
20.681
21.279
21.816
22.291
22.698
23.035
23.299
23.489
23.602
23.639
23.598
23.479
23.284
23.012
22.665
22.246
21.754
21.194
20.568
19.878
19.127
18.319
17.458
16.546
15.587
14.586
13.545
12.469
11.36
10.223
9.061
7.878
6.677
5.461
4.234
3.0
1.762
0.524
-0.712
-1.941
-3.16
-4.366
-5.556
-6.728
-7.879
-9.008
-10.111
-11.189
-12.239
-13.261
-14.254
-15.217
-16.151
-17.055
-17.929
-18.773
-19.587
-20.371
-21.126
-21.85
-22.543
-23.205
-23.835
-24.432
-24.995
-25.524
-26.017
-26.473
-26.89
-27.269
-27.609
-27.911
-28.174
-28.398
-28.583
-28.729
-28.836
-28.904
-28.928
-28.907
-28.837
-28.715
-28.54
-28.308
-28.017
-27.664
-27.247
-26.764
-26.219
-25.61
-24.934
-24.188
-23.369
-22.478
-21.53
-20.531
-19.487
-18.406
-17.296
-16.167
-15.034
-13.905
-12.774
-11.639
-10.494
-9.34
-8.194
-7.07
-5.979
-4.927
-3.9
-2.894
-1.917
-0.969
-0.047
0.858
1.768
2.683
3.57
4.406
5.169
5.857
6.492
7.092
7.668
8.22
8.737
9.213
9.666
10.095
10.489
10.837
11.103
11.287
11.435
11.57
11.706
11.834
11.908
11.89
11.764
11.507
11.102
10.526
9.726
8.681
7.382
5.817
4.009
1.935
-0.471
-3.253
-6.435
-10.016
-13.936
-18.172
-22.761
-27.64
-32.645
-37.523
-41.873
-45.376
-47.831
-48.948
-48.346
-45.82
-41.434
-35.599
-29.117
-22.744
-16.936
-12.203
-9.26
-8.547
-9.93
-12.654
-15.232
-15.973
-13.609
-6.746
6.492
27.608
57.325
95.48
140.63
190.477
242.499
293.196
337.914
371.978
390.697
389.794
366.523
319.107
247.991
157.018
49.692
-70.509
-200.364
-339.077
-479.33
-608.209
-713.777
-782.851
-812.527
-811.169
-786.531
-748.163
-701.168
-643.556
-576.174
-501.405
-422.691
-345.978
-275.623
-213.912
-162.357
-121.426
-90.729
-69.261
-55.693
-48.467
-45.562
-45.092
-45.246
-44.203
-41.129
-35.994
-28.956
-20.503
-11.412
-2.376
5.715
11.849
15.694
17.361
17.127
15.515
13.05
10.168
7.441
5.484
4.605
4.911
6.377
8.824
12.123
16.177
20.833
25.919
31.284
36.798
42.365
47.919
53.369
58.613
63.551
68.083
72.156
75.754
78.881
81.565
83.842
85.751
87.348
88.696
89.858
90.892
91.85
92.774
93.715
94.722
95.844
97.132
98.62
100.324
102.255
104.413
106.796
109.396
112.201
115.188
118.341
121.643
125.077
128.63
132.285
136.021
139.815
143.645
147.488
151.322
155.126
158.876
162.551
166.128
169.587
172.907
176.069
179.05
181.828
184.382
186.691
188.735
190.497
191.959
193.106
193.923
194.4
194.527
194.297
193.703
192.742
191.412
189.711
187.642
185.209
182.415
179.268
175.778
171.953
167.806
163.352
158.605
153.581
148.298
142.775
137.032
131.089
124.967
118.689
112.277
105.753
99.141
92.465
85.747
79.01
72.277
65.571
58.912
52.322
45.82
39.425
33.155
27.028
21.059
15.263
9.655
4.246
-0.951
-5.927
-10.673
-15.181
-19.446
-23.463
-27.228
-30.74
-33.996
-36.998
-39.747
-42.245
-44.496
-46.504
-48.276
-49.818
-51.136
-52.24
-53.138
-53.838
-54.352
-54.688
-54.857
-54.869
-54.736
-54.469
-54.077
-53.572
-52.965
-52.266
-51.484
-50.631
-49.715
-48.746
-47.731
-46.68
-45.598
-44.494
-43.374
-42.243
-41.106
-39.968
-38.834
-37.707
-36.591
-35.487
-34.398
-33.327
-32.274
-31.241
-30.23
-29.239
-28.271
-27.326
-26.403
-25.503
-24.625
-23.77
-22.936
-22.125
-21.335
-20.567
-19.82
-19.095
-18.392
-17.712
-17.054
-16.42
-15.811
-15.229
-14.674
-14.149
-13.655
-13.195
-12.769
-12.381
-12.033
-11.726
-11.462
-11.244
-11.073
-10.95
-10.876
-10.854
-10.882
-10.962
-11.094
-11.277
-11.511
-11.794
-12.125
-12.502
-12.923
-13.385
-13.885
-14.421
-14.987
-15.58
-16.195
-16.828
-17.472
-18.122
-18.772
-19.416
-20.046
-20.657
-21.24
-21.791
-22.3
-22.762
-23.171
-23.519
-23.801
-24.011
-24.144
-24.196
-24.162
-24.041
-23.829
-23.525
-23.129
-22.643
-22.069
-21.408
-20.664
-19.841
-18.943
-17.976
-16.945
-15.857
-14.718
-13.536
-12.319
-11.079
-9.824
-8.564
-7.309
-6.069
-4.856
-3.68
-2.553
-1.481
-0.471
0.469
1.33
2.099
2.771
3.344
3.82
4.202
4.494
4.699
4.829
4.906
4.95
4.98
5.014
5.059
5.127
5.233
5.398
5.643
5.98
6.404
6.909
7.49
8.137
8.841
9.562
10.237
10.802
11.188
11.342
11.223
10.781
9.972
8.743
7.032
4.802
2.031
-1.308
-5.212
-9.708
-14.863
-20.588
-26.669
-32.813
-38.554
-43.48
-47.329
-49.679
-50.02
-48.234
-44.431
-39.079
-33.269
-27.847
-23.325
-20.547
-20.261
-22.518
-27.026
-32.63
-37.01
-38.281
-34.809
-24.35
-5.106
23.87
62.929
110.822
164.698
221.765
278.558
330.207
371.881
398.824
406.705
393.025
356.515
296.439
213.862
112.063
-4.35
-129.202
-255.892
-378.728
-491.745
-589.129
-666.519
-721.125
-752.114
-760.899
-749.598
-720.187
-675.965
-620.84
-558.635
-493.337
-427.809
-363.563
-302.201
-245.78
-195.58
-152.475
-116.928
-88.298
-66.116
-50.313
-40.203
-34.414
-31.541
-30.003
-28.349
-26.092
-22.971
-18.666
-13.301
-7.304
-1.216
4.152
7.994
10.105
10.593
9.656
7.714
5.186
2.47
0.104
-1.396
-1.79
-1.025
0.828
3.596
7.146
11.371
16.113
21.199
26.487
31.859
37.223
42.51
47.63
52.478
56.955
60.994
64.566
67.676
70.352
72.628
74.547
76.16
77.53
78.716
79.777
80.763
81.717
82.685
83.717
84.864
86.176
87.689
89.424
91.391
93.592
96.022
98.675
101.535
104.581
107.793
111.154
114.648
118.26
121.971
125.762
129.608
133.486
137.374
141.248
145.087
148.867
152.568
156.166
159.642
162.976
166.149
169.138
171.922
174.48
176.792
178.84
180.606
182.073
183.227
184.055
184.547
184.695
184.492
183.934
183.018
181.743
180.111
178.124
175.788
173.109
170.095
166.756
163.104
159.153
154.916
150.409
145.65
140.655
135.445
130.039
124.457
118.721
112.851
106.869
100.797
94.658
88.473
82.264
76.053
69.86
63.705
57.609
51.59
45.666
39.853
34.168
28.624
23.237
18.018
12.979
8.13
3.48
-0.962
-5.191
-9.2
-12.986
-16.545
-19.876
-22.979
-25.852
-28.499
-30.921
-33.121
-35.103
-36.873
-38.435
-39.797
-40.966
-41.948
-42.752
-43.386
-43.86
-44.182
-44.361
-44.407
-44.33
-44.14
-43.845
-43.457
-42.986
-42.44
-41.829
-41.163
-40.451
-39.701
-38.921
-38.12
-37.304
-36.481
-35.656
-34.835
-34.024
-33.227
-32.449
-31.693
-30.963
-30.261
-29.591
-28.955
-28.355
-27.792
-27.268
-26.785
-26.342
-25.941
-25.582
-25.265
-24.991
-24.758
-24.565
-24.413
-24.3
-24.224
-24.185
-24.18
-24.209
-24.269
-24.359
-24.478
-24.625
-24.799
-24.999
-25.226
-25.478
-25.756
-26.06
-26.391
-26.749
-27.134
-27.547
-27.989
-28.46
-28.96
-29.491
-30.052
-30.644
-31.267
-31.921
-32.607
-33.322
-34.069
-34.844
-35.65
-36.483
-37.344
-38.232
-39.144
-40.08
-41.038
-42.016
-43.012
-44.023
-45.045
-46.075
-47.108
-48.141
-49.168
-50.184
-51.183
-52.16
-53.109
-54.024
-54.899
-55.729
-56.506
-57.227
-57.884
-58.474
-58.991
-59.431
-59.79
-60.066
-60.256
-60.359
-60.373
-60.299
-60.138
-59.893
-59.564
-59.157
-58.674
-58.12
-57.5
-56.821
-56.087
-55.304
-54.481
-53.622
-52.739
-51.839
-50.932
-50.028
-49.137
-48.268
-47.431
-46.632
-45.875
-45.165
-44.506
-43.904
-43.368
-42.906
-42.519
-42.211
-41.982
-41.826
-41.736
-41.695
-41.678
-41.664
-41.633
-41.571
-41.476
-41.34
-41.149
-40.894
-40.551
-40.107
-39.556
-38.89
-38.102
-37.205
-36.22
-35.209
-34.256
-33.435
-32.803
-32.395
-32.243
-32.402
-32.937
-33.914
-35.405
-37.44
-40.08
-43.445
-47.562
-52.367
-57.639
-62.952
-67.899
-72.196
-75.507
-77.463
-77.852
-76.599
-74.091
-71.197
-68.598
-66.816
-66.279
-67.279
-70.119
-74.833
-80.515
-85.562
-88.407
-87.442
-81.421
-69.251
-49.325
-20.549
16.947
62.13
113.112
167.376
222.542
275.528
321.85
357.107
377.328
379.145
360.632
320.585
258.172
174.347
72.145
-44.301
-169.568
-297.81
-423.714
-541.45
-645.102
-730.053
-792.932
-831.814
-846.733
-838.494
-808.42
-759.434
-695.408
-620.648
-539.982
-457.668
-376.96
-301.211
-233.541
-176.173
-130.63
-97.014
-74.102
-60.614
-55.387
-56.673
-62.302
-69.638
-75.889
-79.618
-80.481
-78.298
-72.932
-64.391
-53.162
-40.737
-29.143
-19.479
-12.062
-6.92
-3.984
-3.433
-5.206
-8.468
-11.918
-14.67
-16.321
-16.782
-16.126
-14.189
-10.838
-6.279
-0.95
4.746
10.558
16.391
22.243
28.015
33.557
38.766
43.578
47.991
52.015
55.645
58.868
61.688
64.135
66.263
68.145
69.845
71.418
72.912
74.37
75.839
77.37
79.018
80.833
82.848
85.083
87.548
90.249
93.188
96.36
99.749
103.332
107.087
110.995
115.04
119.208
123.481
127.835
132.249
136.697
141.157
145.606
150.021
154.377
158.651
162.819
166.86
170.753
174.479
178.014
181.336
184.424
187.256
189.816
192.084
194.043
195.679
196.979
197.933
198.531
198.768
198.637
198.137
197.266
196.024
194.414
192.441
190.11
187.43
184.411
181.063
177.399
173.436
169.187
164.672
159.908
154.915
149.713
144.324
138.77
133.072
127.254
121.337
115.345
109.299
103.221
97.134
91.057
85.012
79.018
73.093
67.255
61.522
55.909
50.431
45.103
39.937
34.945
30.138
25.526
21.116
16.917
12.933
9.17
5.63
2.316
-0.774
-3.638
-6.279
-8.701
-10.906
-12.901
-14.691
-16.283
-17.683
-18.899
-19.939
-20.811
-21.524
-22.086
-22.505
-22.792
-22.954
-23.001
-22.941
-22.784
-22.539
-22.214
-21.819
-21.363
-20.852
-20.297
-19.705
-19.083
-18.438
-17.777
-17.105
-16.428
-15.75
-15.075
-14.406
-13.745
-13.094
-12.455
-11.828
-11.213
-10.612
-10.023
-9.448
-8.886
-8.336
-7.8
-7.277
-6.766
-6.268
-5.782
-5.309
-4.849
-4.4
-3.964
-3.539
-3.125
-2.721
-2.327
-1.941
-1.563
-1.193
-0.828
-0.47
-0.118
0.227
0.566
0.896
1.215
1.524
1.818
2.097
2.358
2.598
2.815
3.008
3.173
3.31
3.416
3.49
3.533
3.543
3.52
3.466
3.381
3.266
3.123
2.953
2.759
2.541
2.302
2.043
1.766
1.473
1.166
0.847
0.519
0.185
-0.152
-0.487
-0.817
-1.137
-1.442
-1.727
-1.987
-2.217
-2.411
-2.563
-2.667
-2.718
-2.712
-2.644
-2.509
-2.306
-2.033
-1.688
-1.271
-0.784
-0.229
0.391
1.074
1.816
2.613
3.461
4.354
5.289
6.261
7.265
8.294
9.343
10.404
11.47
12.534
13.587
14.621
15.624
16.587
17.504
18.367
19.17
19.905
20.564
21.135
21.612
21.995
22.28
22.468
22.56
22.564
22.495
22.378
22.238
22.098
21.973
21.874
21.814
21.808
21.872
22.026
22.276
22.624
23.073
23.626
24.28
25.018
25.798
26.547
27.185
27.643
27.859
27.792
27.407
26.65
25.463
23.785
21.569
18.781
15.406
11.388
6.634
1.155
-4.907
-11.249
-17.428
-23.083
-27.99
-31.894
-34.418
-35.317
-34.577
-32.575
-30.132
-27.867
-25.984
-24.555
-23.75
-23.79
-24.601
-25.452
-24.874
-21.457
-14.379
-3.229
12.518
33.883
61.623
95.72
135.193
178.341
223.656
269.867
314.932
355.416
387.383
406.994
411.167
397.779
364.681
310.151
233.752
138.325
29.785
-87.137
-208.444
-332.16
-458.724
-580.949
-687.053
-766.392
-807.108
-809.102
-782.545
-736.038
-680.36
-620.565
-554.159
-481.909
-405.41
-327.12
-252.56
-185.325
-126.61
-77.452
-38.142
-8.029
13.552
27.348
34.821
37.262
35.397
30.692
24.976
19.37
14.858
12.111
11.024
11.807
15.087
20.554
27.364
34.738
41.637
47.508
52.443
56.21
58.316
58.823
58.084
56.673
55.534
55.166
55.613
57.039
59.623
63.385
68.278
74.034
80.127
86.237
92.218
97.939
103.337
108.325
112.8
116.757
120.275
123.415
126.226
128.736
130.944
132.884
134.614
136.187
137.666
139.097
140.52
141.98
143.522
145.191
147.019
149.026
151.217
153.593
156.147
158.876
161.771
164.814
167.987
171.271
174.646
178.095
181.6
185.141
188.698
192.248
195.772
199.248
202.658
205.982
209.2
212.293
215.242
218.029
220.637
223.047
225.243
227.206
228.92
230.369
231.539
232.416
232.986
233.241
233.172
232.771
232.035
230.959
229.541
227.783
225.686
223.253
220.489
217.4
213.994
210.28
206.27
201.976
197.41
192.588
187.526
182.24
176.748
171.067
165.217
159.217
153.086
146.843
140.508
134.102
127.644
121.155
114.653
108.16
101.693
95.272
88.914
82.636
76.455
70.386
64.444
58.642
52.994
47.51
42.203
37.08
32.151
27.422
22.9
18.589
14.492
10.612
6.948
3.502
0.272
-2.743
-5.546
-8.142
-10.533
-12.725
-14.724
-16.537
-18.17
-19.632
-20.93
-22.075
-23.075
-23.941
-24.681
-25.307
-25.829
-26.258
-26.602
-26.874
-27.083
-27.239
-27.352
-27.429
-27.481
-27.514
-27.535
-27.551
-27.568
-27.591
-27.623
-27.669
-27.732
-27.814
-27.918
-28.046
-28.199
-28.378
-28.583
-28.814
-29.07
-29.351
-29.654
-29.977
-30.318
-30.674
-31.042
-31.42
-31.802
-32.187
-32.57
-32.948
-33.317
-33.674
-34.017
-34.342
-34.646
-34.929
-35.188
-35.422
-35.632
-35.817
-35.977
-36.113
-36.227
-36.318
-36.39
-36.444
-36.482
-36.506
-36.52
-36.525
-36.526
-36.527
-36.53
-36.541
-36.564
-36.604
-36.664
-36.749
-36.864
-37.012
-37.197
-37.422
-37.69
-38.004
-38.365
-38.775
-39.235
-39.745
-40.306
-40.916
-41.573
-42.276
-43.022
-43.807
-44.629
-45.484
-46.365
-47.27
-48.193
-49.129
-50.07
-51.012
-51.946
-52.865
-53.762
-54.628
-55.455
-56.233
-56.954
-57.612
-58.197
-58.705
-59.127
-59.461
-59.702
-59.849
-59.897
-59.847
-59.698
-59.449
-59.102
-58.657
-58.118
-57.486
-56.767
-55.967
-55.095
-54.16
-53.17
-52.137
-51.07
-49.98
-48.878
-47.775
-46.679
-45.603
-44.558
-43.562
-42.637
-41.795
-41.044
-40.393
-39.843
-39.392
-39.037
-38.764
-38.551
-38.383
-38.252
-38.152
-38.088
-38.054
-38.038
-38.03
-38.012
-37.976
-37.929
-37.871
-37.804
-37.749
-37.729
-37.792
-38.01
-38.42
-39.049
-39.92
-41.035
-42.415
-44.103
-46.115
-48.471
-51.181
-54.218
-57.593
-61.324
-65.403
-69.819
-74.521
-79.402
-84.441
-89.684
-95.081
-100.504
-105.688
-110.198
-113.691
-115.955
-116.705
-115.58
-112.382
-107.242
-100.71
-93.781
-87.448
-82.324
-78.932
-77.971
-79.807
-84.13
-89.98
-95.539
-98.727
-98.121
-92.317
-79.413
-58.047
-27.634
11.599
57.932
108.973
162.577
215.613
263.655
302.417
327.393
334.272
320.205
282.701
221.012
137.772
36.781
-78.677
-207.88
-351.636
-506.537
-661.444
-797.289
-894.843
-944.135
-947.416
-918.207
-871.093
-814.548
-751.249
-678.674
-596.432
-508.491
-420.326
-338.872
-268.896
-212.196
-169.336
-139.356
-120.31
-110.172
-106.808
-107.546
-109.944
-111.894
-111.474
-107.903
-101.379
-92.373
-81.617
-70.158
-58.93
-48.931
-41.23
-36.158
-33.528
-32.995
-33.968
-35.854
-38.161
-40.28
-41.578
-41.747
-40.692
-38.448
-35.204
-31.092
-26.214
-20.736
-14.836
-8.669
-2.367
3.971
10.277
16.455
22.398
27.999
33.154
37.808
41.942
45.554
48.671
51.325
53.557
55.425
56.996
58.336
59.507
60.566
61.56
62.544
63.573
64.701
65.983
67.457
69.144
71.059
73.209
75.594
78.214
81.058
84.111
87.358
90.788
94.388
98.149
102.055
106.091
110.237
114.473
118.779
123.137
127.526
131.926
136.316
140.676
144.983
149.22
153.365
157.394
161.286
165.016
168.563
171.905
175.02
177.889
180.492
182.813
184.837
186.55
187.939
188.995
189.709
190.073
190.083
189.735
189.029
187.964
186.543
184.77
182.652
180.195
177.411
174.31
170.904
167.209
163.239
159.011
154.544
149.856
144.968
139.9
134.674
129.312
123.837
118.272
112.638
106.96
101.261
95.561
89.883
84.249
78.679
73.192
67.809
62.546
57.421
52.45
47.646
43.025
38.597
34.374
30.365
26.577
23.018
19.692
16.604
13.756
11.148
8.782
6.654
4.763
3.104
1.671
0.459
-0.541
-1.337
-1.939
-2.356
-2.6
-2.682
-2.614
-2.41
-2.082
-1.643
-1.107
-0.487
0.205
0.954
1.748
2.576
3.424
4.282
5.138
5.984
6.808
7.602
8.359
9.07
9.729
10.331
10.87
11.342
11.745
12.074
12.33
12.51
12.615
12.645
12.602
12.487
12.304
12.055
11.745
11.377
10.957
10.489
9.979
9.431
8.853
8.248
7.625
6.987
6.341
5.693
5.047
4.409
3.783
3.174
2.586
2.022
1.485
0.979
0.504
0.063
-0.342
-0.71
-1.04
-1.333
-1.587
-1.803
-1.984
-2.129
-2.241
-2.322
-2.375
-2.402
-2.408
-2.393
-2.363
-2.321
-2.269
-2.211
-2.152
-2.093
-2.04
-1.995
-1.96
-1.939
-1.933
-1.944
-1.973
-2.019
-2.082
-2.161
-2.255
-2.361
-2.479
-2.607
-2.744
-2.888
-3.039
-3.196
-3.355
-3.513
-3.664
-3.803
-3.922
-4.014
-4.07
-4.083
-4.047
-3.956
-3.806
-3.595
-3.317
-2.969
-2.544
-2.032
-1.429
-0.731
0.061
0.939
1.894
2.908
3.962
5.038
6.119
7.196
8.266
9.338
10.419
11.521
12.646
13.785
14.931
16.081
17.237
18.407
19.608
20.864
22.204
23.665
25.27
27.034
28.95
30.989
33.115
35.279
37.453
39.627
41.791
43.936
46.044
48.092
50.054
51.898
53.581
55.048
56.254
57.165
57.776
58.107
58.189
58.064
57.746
57.23
56.512
55.579
54.423
53.036
51.39
49.474
47.286
44.842
42.172
39.29
36.168
32.777
29.077
25.024
20.638
15.915
10.807
5.4
-0.123
-5.485
-10.241
-14.03
-16.658
-17.799
-17.059
-14.381
-9.958
-4.338
1.521
6.932
11.607
15.043
16.601
16.232
14.388
12.2
11.545
13.85
19.909
30.931
48.484
73.322
105.543
144.221
187.101
232.246
277.916
321.043
357.475
383.418
395.165
389.636
365.31
320.44
253.495
166.726
64.198
-51.235
-174.314
-302.289
-433.193
-556.582
-663.679
-746.088
-795.367
-815.137
-810.006
-783.552
-742.147
-686.623
-618.491
-542.107
-460.628
-378.765
-301.061
-230.822
-170.976
-122.902
-86.626
-61.181
-44.931
-36.535
-34.267
-35.665
-38.308
-39.913
-39.127
-35.84
-30.328
-22.898
-14.17
-5.026
3.451
10.01
14.055
15.691
15.243
13.223
10.169
6.568
3.054
0.341
-1.179
-1.387
-0.315
1.844
4.94
8.875
13.483
18.573
23.981
29.565
35.224
40.886
46.452
51.809
56.845
61.447
65.555
69.146
72.217
74.796
76.916
78.615
79.949
80.984
81.782
82.403
82.904
83.328
83.729
84.161
84.679
85.339
86.177
87.215
88.466
89.935
91.621
93.521
95.624
97.911
100.367
102.976
105.725
108.602
111.592
114.675
117.833
121.045
124.295
127.564
130.834
134.088
137.307
140.473
143.565
146.563
149.447
152.193
154.781
157.188
159.394
161.379
163.126
164.618
165.84
166.776
167.41
167.721
167.693
167.319
166.597
165.529
164.126
162.397
160.354
158.016
155.396
152.502
149.337
145.89
142.149
138.116
133.799
129.219
124.397
119.339
114.05
108.533
102.778
96.781
90.532
84.005
77.188
70.098
62.766
55.258
47.65
40.0
32.351
24.738
17.189
9.748
2.458
-4.645
-11.511
-18.09
-24.324
-30.128
-35.436
-40.225
-44.492
-48.278
-51.643
-54.629
-57.265
-59.581
-61.597
-63.337
-64.83
-66.087
-67.128
-67.985
-68.697
-69.332
-69.948
-70.568
-71.201
-71.828
-72.408
-72.922
-73.355
-73.688
-73.915
-74.033
-74.039
-73.949
-73.78
-73.538
-73.221
-72.815
-72.307
-71.699
-71.001
-70.233
-69.425
-68.596
-67.768
-66.964
-66.199
-65.487
-64.836
-64.244
-63.708
-63.226
-62.801
-62.438
-62.142
-61.913
-61.753
-61.658
-61.625
-61.65
-61.728
-61.853
-62.018
-62.218
-62.449
-62.71
-62.999
-63.313
-63.651
-64.01
-64.386
-64.775
-65.174
-65.58
-65.986
-66.39
-66.788
-67.177
-67.554
-67.916
-68.262
-68.589
-68.895
-69.18
-69.443
-69.682
-69.897
-70.088
-70.255
-70.399
-70.519
-70.617
-70.694
-70.752
-70.791
-70.815
-70.824
-70.821
-70.807
-70.785
-70.757
-70.724
-70.687
-70.648
-70.609
-70.571
-70.534
-70.5
-70.47
-70.444
-70.423
-70.407
-70.397
-70.39
-70.388
-70.389
-70.391
-70.393
-70.394
-70.389
-70.379
-70.358
-70.325
-70.277
-70.208
-70.117
-69.998
-69.848
-69.662
-69.434
-69.161
-68.838
-68.462
-68.027
-67.532
-66.973
-66.349
-65.658
-64.902
-64.079
-63.192
-62.241
-61.228
-60.154
-59.022
-57.835
-56.594
-55.304
-53.968
-52.594
-51.188
-49.759
-48.313
-46.859
-45.406
-43.963
-42.538
-41.139
-39.772
-38.445
-37.17
-35.959
-34.827
-33.785
-32.837
-31.986
-31.233
-30.572
-29.992
-29.48
-29.011
-28.566
-28.13
-27.691
-27.243
-26.776
-26.267
-25.697
-25.045
-24.289
-23.424
-22.448
-21.358
-20.176
-18.936
-17.677
-16.468
-15.373
-14.436
-13.71
-13.239
-13.064
-13.251
-13.868
-14.972
-16.621
-18.837
-21.637
-25.055
-29.077
-33.673
-38.801
-44.335
-50.181
-56.292
-62.503
-68.588
-74.234
-78.957
-82.35
-84.098
-83.769
-81.041
-75.858
-68.327
-59.081
-49.062
-38.96
-29.562
-21.723
-15.868
-12.134
-10.179
-8.548
-5.639
-0.204
9.783
26.299
50.466
83.323
123.674
167.508
212.91
258.492
302.82
347.382
386.952
410.544
408.735
370.449
293.723
189.171
67.614
-60.526
-188.091
-317.428
-449.31
-575.557
-687.924
-775.261
-827.975
-849.653
-844.964
-818.268
-776.262
-719.674
-650.111
-572.11
-489.017
-405.628
-326.479
-254.857
-193.773
-144.773
-108.014
-82.575
-66.763
-59.172
-58.016
-60.741
-64.776
-67.632
-67.773
-64.993
-59.558
-51.795
-42.365
-32.216
-22.515
-14.644
-9.317
-6.458
-5.749
-6.658
-8.609
-11.104
-13.502
-15.059
-15.379
-14.358
-12.041
-8.652
-4.372
0.69
6.345
12.389
18.656
24.977
31.218
37.27
42.972
48.175
52.762
56.617
59.699
62.015
63.592
64.502
64.845
64.711
64.203
63.423
62.45
61.383
60.334
59.414
58.77
58.519
58.742
59.514
60.874
62.826
65.357
68.416
71.913
75.775
79.938
84.342
88.956
93.731
98.603
103.508
108.363
113.099
117.671
122.034
126.15
130.005
133.592
136.931
140.073
143.05
145.876
148.559
151.086
153.452
155.661
157.71
159.599
161.325
162.878
164.252
165.444
166.441
167.227
167.771
168.034
167.984
167.605
166.883
165.812
164.391
162.615
160.487
158.019
155.219
152.097
148.662
144.92
140.883
136.567
131.992
127.178
122.147
116.918
111.514
105.953
100.257
94.447
88.541
82.556
76.511
70.426
64.322
58.219
52.138
46.099
40.121
34.224
28.428
22.749
17.203
11.807
6.574
1.518
-3.348
-8.014
-12.469
-16.705
-20.713
-24.487
-28.021
-31.31
-34.351
-37.142
-39.682
-41.97
-44.008
-45.798
-47.343
-48.648
-49.717
-50.557
-51.173
-51.575
-51.77
-51.767
-51.577
-51.208
-50.674
-49.983
-49.15
-48.184
-47.099
-45.904
-44.613
-43.236
-41.784
-40.269
-38.7
-37.088
-35.443
-33.773
-32.087
-30.395
-28.703
-27.018
-25.348
-23.698
-22.073
-20.479
-18.918
-17.395
-15.911
-14.468
-13.068
-11.712
-10.399
-9.129
-7.902
-6.714
-5.565
-4.451
-3.371
-2.32
-1.295
-0.293
0.69
1.657
2.612
3.558
4.499
5.438
6.378
7.322
8.272
9.23
10.199
11.181
12.177
13.188
14.215
15.259
16.32
17.397
18.49
19.597
20.718
21.851
22.994
24.144
25.299
26.457
27.613
28.764
29.908
31.04
32.156
33.252
34.325
35.372
36.388
37.37
38.317
39.225
40.093
40.919
41.702
42.441
43.137
43.788
44.397
44.963
45.487
45.973
46.422
46.837
47.221
47.578
47.912
48.226
48.527
48.818
49.105
49.394
49.69
50.0
50.33
50.686
51.076
51.507
51.983
52.513
53.102
53.754
54.474
55.266
56.133
57.076
58.095
59.191
60.362
61.609
62.928
64.317
65.773
67.291
68.867
70.498
72.175
73.892
75.639
77.409
79.194
80.983
82.77
84.544
86.295
88.014
89.693
91.322
92.894
94.398
95.82
97.153
98.394
99.544
100.604
101.58
102.477
103.305
104.082
104.824
105.546
106.262
106.982
107.714
108.471
109.267
110.122
111.049
112.045
113.103
114.215
115.36
116.521
117.671
118.748
119.703
120.479
121.011
121.259
121.177
120.719
119.858
118.552
116.75
114.424
111.548
108.088
104.069
99.473
94.235
88.469
82.387
76.298
70.733
66.135
62.766
61.048
61.459
64.043
68.61
74.566
80.642
85.884
89.751
91.407
90.182
86.191
79.944
72.86
67.582
66.194
70.376
82.386
103.94
135.788
178.086
229.296
286.182
345.74
404.473
457.484
500.036
527.517
535.58
521.809
485.186
425.0
342.217
239.905
122.188
-5.213
-135.819
-263.942
-383.709
-489.169
-575.691
-639.879
-679.738
-695.48
-688.334
-659.961
-613.481
-552.826
-482.166
-406.241
-329.301
-254.492
-184.906
-123.2
-70.964
-29.225
2.064
24.226
38.73
47.013
51.053
52.719
53.727
55.803
59.714
65.358
72.471
80.551
88.827
96.643
103.203
107.61
109.612
109.397
107.306
103.91
99.77
95.351
91.219
87.969
85.9
85.123
85.613
87.202
89.759
93.174
97.285
101.908
106.876
112.046
117.3
122.548
127.682
132.585
137.148
141.268
144.892
147.999
150.593
152.703
154.365
155.625
156.542
157.187
157.625
157.923
158.137
158.321
158.531
158.821
159.246
159.859
160.693
161.768
163.096
164.68
166.518
168.606
170.931
173.475
176.222
179.159
182.27
185.544
188.963
192.507
196.156
199.886
203.676
207.506
211.351
215.19
219.0
222.757
226.44
230.026
233.493
236.816
239.972
242.935
245.683
248.193
250.445
252.417
254.092
255.452
256.484
257.174
257.512
257.487
257.093
256.323
255.174
253.645
251.734
249.445
246.781
243.748
240.356
236.613
232.531
228.125
223.41
218.402
213.12
207.583
201.812
195.828
189.653
183.311
176.825
170.219
163.517
156.742
149.92
143.073
136.224
129.397
122.613
115.893
109.258
102.727
96.32
90.055
83.948
78.015
72.271
66.73
61.404
56.304
51.439
46.817
42.445
38.327
34.467
30.868
27.529
24.451
21.631
19.066
16.752
14.684
12.854
11.256
9.88
8.719
7.762
6.999
6.42
6.013
5.766
5.668
5.706
5.868
6.141
6.512
6.967
7.494
8.079
8.71
9.374
10.059
10.752
11.444
12.124
12.781
13.407
13.992
14.53
15.012
15.432
15.786
16.067
16.273
16.399
16.443
16.403
16.278
16.066
15.767
15.381
14.909
14.353
13.713
12.991
12.192
11.318
10.372
9.36
8.286
7.154
5.971
4.74
3.468
2.159
0.82
-0.546
-1.932
-3.334
-4.747
-6.167
-7.589
-9.01
-10.426
-11.834
-13.23
-14.613
-15.98
-17.329
-18.658
-19.966
-21.25
-22.511
-23.746
-24.955
-26.137
-27.291
-28.419
-29.519
-30.591
-31.636
-32.654
-33.646
-34.61
-35.549
-36.461
-37.346
-38.205
-39.036
-39.841
-40.616
-41.363
-42.08
-42.764
-43.416
-44.032
-44.612
-45.151
-45.649
-46.103
-46.51
-46.868
-47.175
-47.427
-47.623
-47.76
-47.838
-47.853
-47.806
-47.696
-47.522
-47.285
-46.986
-46.626
-46.211
-45.742
-45.224
-44.661
-44.058
-43.423
-42.76
-42.076
-41.377
-40.673
-39.971
-39.281
-38.615
-37.983
-37.394
-36.86
-36.389
-35.993
-35.682
-35.465
-35.349
-35.341
-35.451
-35.684
-36.054
-36.563
-37.212
-37.997
-38.91
-39.946
-41.095
-42.346
-43.679
-45.078
-46.528
-48.014
-49.53
-51.063
-52.599
-54.119
-55.6
-57.028
-58.402
-59.724
-60.998
-62.236
-63.445
-64.644
-65.879
-67.184
-68.592
-70.145
-71.862
-73.774
-75.918
-78.32
-81.015
-84.05
-87.442
-91.216
-95.406
-99.997
-105.015
-110.527
-116.441
-122.589
-128.729
-134.427
-139.318
-143.176
-145.617
-146.197
-144.861
-141.767
-137.435
-132.983
-129.251
-126.737
-126.227
-128.386
-133.181
-140.193
-148.16
-154.708
-157.954
-156.376
-147.895
-130.853
-104.45
-68.428
-24.091
25.659
78.15
130.279
177.598
215.713
240.287
247.157
233.978
199.802
143.854
66.821
-28.525
-138.413
-257.474
-379.442
-499.071
-611.187
-710.301
-792.106
-853.613
-892.96
-910.609
-908.314
-887.456
-850.354
-800.224
-740.219
-674.033
-605.327
-536.264
-468.522
-404.468
-346.055
-295.045
-253.076
-220.228
-195.836
-179.783
-171.798
-170.856
-175.47
-183.202
-191.198
-198.005
-202.999
-205.476
-204.876
-200.789
-193.377
-184.056
-174.878
-166.989
-160.804
-156.5
-154.139
-154.047
-156.279
-160.018
-163.979
-167.277
-169.516
-170.627
-170.686
-169.527
-167.017
-163.38
-159.081
-154.541
-150.013
-145.584
-141.254
-137.117
-133.322
-129.972
-127.091
-124.655
-122.629
-120.998
-119.768
-118.932
-118.444
-118.241
-118.252
-118.414
-118.676
-119.0
-119.336
-119.636
-119.844
-119.905
-119.78
-119.443
-118.88
-118.083
-117.045
-115.766
-114.251
-112.518
-110.585
-108.468
-106.179
-103.729
-101.13
-98.4
-95.556
-92.619
-89.609
-86.543
-83.439
-80.319
-77.202
-74.11
-71.06
-68.071
-65.162
-62.353
-59.665
-57.119
-54.736
-52.535
-50.534
-48.752
-47.205
-45.908
-44.876
-44.118
-43.646
-43.467
-43.589
-44.017
-44.755
-45.805
-47.166
-48.838
-50.817
-53.101
-55.681
-58.552
-61.703
-65.124
-68.804
-72.729
-76.885
-81.256
-85.824
-90.574
-95.485
-100.539
-105.717
-110.997
-116.359
-121.782
-127.246
-132.729
-138.211
-143.671
-149.089
-154.446
-159.724
-164.905
-169.972
-174.907
-179.697
-184.326
-188.781
-193.049
-197.118
-200.978
-204.619
-208.033
-211.213
-214.152
-216.847
-219.294
-221.49
-223.435
-225.129
-226.573
-227.77
-228.724
-229.44
-229.923
-230.18
-230.22
-230.05
-229.681
-229.122
-228.382
-227.475
-226.409
-225.197
-223.85
-222.38
-220.799
-219.118
-217.35
-215.506
-213.598
-211.636
-209.633
-207.599
-205.544
-203.478
-201.41
-199.35
-197.306
-195.285
-193.294
-191.341
-189.43
-187.567
-185.756
-184.0
-182.303
-180.666
-179.091
-177.578
-176.13
-174.744
-173.42
-172.158
-170.956
-169.811
-168.722
-167.686
-166.699
-165.759
-164.862
-164.004
-163.181
-162.388
-161.623
-160.879
-160.153
-159.441
-158.736
-158.036
-157.335
-156.629
-155.915
-155.187
-154.442
-153.678
-152.89
-152.076
-151.233
-150.357
-149.447
-148.499
-147.511
-146.48
-145.405
-144.282
-143.11
-141.887
-140.613
-139.286
-137.904
-136.467
-134.975
-133.425
-131.819
-130.155
-128.432
-126.651
-124.811
-122.913
-120.956
-118.94
-116.865
-114.731
-112.537
-110.282
-107.962
-105.577
-103.124
-100.602
-98.008
-95.343
-92.605
-89.795
-86.914
-83.964
-80.946
-77.859
-74.702
-71.473
-68.17
-64.791
-61.333
-57.791
-54.162
-50.444
-46.639
-42.748
-38.77
-34.705
-30.547
-26.295
-21.953
-17.527
-13.026
-8.459
-3.838
0.817
5.477
10.114
14.7
19.218
23.665
28.034
32.319
36.516
40.615
44.623
48.562
52.447
56.291
60.109
63.913
67.737
71.632
75.643
79.811
84.154
88.665
93.341
98.179
103.168
108.29
113.504
118.734
123.923
129.025
133.997
138.804
143.385
147.654
151.537
154.972
157.92
160.371
162.301
163.683
164.504
164.756
164.472
163.718
162.538
160.954
158.973
156.594
153.842
150.772
147.438
143.871
140.077
136.045
131.785
127.328
122.72
117.983
113.055
107.931
102.729
97.69
93.211
89.659
87.251
86.235
86.967
89.635
94.156
100.1
106.605
112.836
118.344
122.738
125.508
126.417
125.71
124.21
123.504
125.318
130.81
141.008
157.224
180.486
211.232
249.202
292.952
340.328
389.339
437.531
481.462
517.355
541.334
549.689
539.708
509.554
457.787
384.281
290.688
180.094
57.141
-72.485
-202.807
-327.541
-440.28
-535.453
-608.647
-656.93
-679.406
-676.523
-649.931
-602.754
-539.11
-463.733
-381.893
-298.474
-217.387
-142.3
-76.142
-20.741
22.816
54.732
76.498
89.859
96.583
98.928
99.017
98.785
100.105
103.764
109.628
117.349
126.324
135.693
144.68
152.371
157.761
160.531
160.841
159.037
155.704
151.407
146.629
141.966
138.042
135.217
133.639
133.311
134.084
135.838
138.476
141.854
145.805
150.173
154.829
159.663
164.592
169.526
174.36
178.991
183.32
187.266
190.78
193.852
196.491
198.723
200.587
202.127
203.398
204.467
205.395
206.239
207.05
207.872
208.752
209.738
210.875
212.207
213.759
215.544
217.568
219.827
222.318
225.028
227.944
231.042
234.304
237.712
241.251
244.905
248.658
252.49
256.381
260.309
264.257
268.205
272.135
276.028
279.865
283.63
287.305
290.874
294.321
297.627
300.775
303.748
306.528
309.101
311.452
313.568
315.435
317.044
318.385
319.452
320.238
320.738
320.949
320.868
320.495
319.831
318.876
317.635
316.109
314.305
312.228
309.884
307.282
304.43
301.337
298.013
294.47
290.719
286.771
282.641
278.34
273.883
269.283
264.554
259.711
254.767
249.737
244.635
239.474
234.269
229.033
223.777
218.515
213.258
208.017
202.804
197.628
192.5
187.429
182.424
177.494
172.647
167.889
163.229
158.671
154.223
149.888
145.672
141.579
137.61
133.77
130.059
126.479
123.03
119.714
116.528
113.473
110.547
107.747
105.072
102.518
100.083
97.764
95.556
93.457
91.463
89.569
87.773
86.068
84.452
82.92
81.467
80.089
78.783
77.542
76.364
75.244
74.178
73.162
72.192
71.266
70.378
69.528
68.71
67.923
67.164
66.43
65.719
65.03
64.361
63.709
63.074
62.455
61.849
61.257
60.678
60.109
59.552
59.005
58.467
57.939
57.42
56.91
56.409
55.917
55.432
54.957
54.489
54.03
53.578
53.134
52.698
52.269
51.847
51.432
51.025
50.623
50.229
49.84
49.458
49.081
48.709
48.342
47.979
47.62
47.265
46.913
46.564
46.218
45.873
45.53
45.187
44.844
44.499
44.154
43.806
43.455
43.101
42.743
42.381
42.014
41.644
41.269
40.89
40.507
40.121
39.731
39.339
38.946
38.552
38.159
37.769
37.383
37.004
36.633
36.272
35.924
35.591
35.276
34.982
34.711
34.467
34.253
34.073
33.931
33.83
33.775
33.768
33.814
33.915
34.075
34.298
34.585
34.94
35.363
35.857
36.424
37.062
37.773
38.555
39.407
40.327
41.311
42.355
43.455
44.605
45.797
47.025
48.281
49.557
50.843
52.132
53.414
54.679
55.919
57.124
58.283
59.385
60.421
61.378
62.245
63.015
63.678
64.228
64.661
64.974
65.164
65.228
65.158
64.949
64.603
64.116
63.489
62.729
61.844
60.852
59.779
58.645
57.469
56.267
55.046
53.818
52.601
51.41
50.269
49.197
48.204
47.308
46.521
45.844
45.256
44.708
44.125
43.444
42.621
41.626
40.425
38.954
37.141
34.908
32.183
28.932
25.086
20.515
15.183
9.161
2.681
-3.82
-9.93
-15.387
-19.881
-23.038
-24.667
-24.745
-23.662
-22.302
-21.43
-21.535
-23.048
-26.33
-31.522
-38.487
-46.326
-53.348
-57.807
-58.059
-52.61
-40.034
-18.976
11.473
51.246
99.189
153.312
210.991
269.194
324.124
371.285
406.057
424.108
421.935
397.229
348.735
276.404
182.061
69.253
-56.903
-190.036
-323.567
-451.013
-565.917
-662.672
-737.107
-786.494
-810.33
-809.906
-787.105
-744.878
-687.306
-618.631
-543.383
-466.098
-389.885
-317.116
-250.432
-191.621
-141.721
-101.511
-70.514
-47.453
-31.589
-21.958
-16.829
-14.699
-13.924
-12.705
-10.375
-6.932
-2.227
3.528
9.761
16.012
21.504
25.296
27.174
27.322
26.011
23.763
21.089
18.391
16.205
15.083
15.268
16.804
19.618
23.494
28.262
33.788
39.875
46.315
52.926
59.55
66.053
72.328
78.254
83.701
88.58
92.839
96.457
99.452
101.857
103.714
105.081
106.026
106.617
106.923
107.008
106.932
106.758
106.55
106.373
106.288
106.342
106.568
106.988
107.613
108.448
109.492
110.737
112.171
113.782
115.562
117.501
119.593
121.826
124.185
126.654
129.215
131.85
134.544
137.275
140.027
142.779
145.512
148.207
150.844
153.402
155.857
158.186
160.364
162.367
164.172
165.756
167.094
168.167
168.954
169.436
169.598
169.422
168.895
168.003
166.738
165.088
163.048
160.611
157.776
154.54
150.904
146.873
142.451
137.645
132.466
126.924
121.034
114.811
108.271
101.433
94.317
86.944
79.337
71.519
63.515
55.349
47.046
38.634
30.139
21.586
13.002
4.414
-4.154
-12.676
-21.127
-29.482
-37.72
-45.816
-53.75
-61.502
-69.051
-76.38
-83.473
-90.314
-96.889
-103.187
-109.197
-114.909
-120.318
-125.416
-130.199
-134.665
-138.812
-142.639
-146.15
-149.345
-152.229
-154.806
-157.084
-159.068
-160.767
-162.19
-163.346
-164.246
-164.9
-165.319
-165.517
-165.505
-165.295
-164.901
-164.334
-163.609
-162.736
-161.73
-160.602
-159.363
-158.026
-156.602
-155.101
-153.533
-151.908
-150.235
-148.523
-146.781
-145.015
-143.232
-141.44
-139.645
-137.851
-136.063
-134.288
-132.527
-130.786
-129.067
-127.373
-125.706
-124.067
-122.458
-120.878
-119.329
-117.81
-116.321
-114.86
-113.429
-112.025
-110.647
-109.296
-107.969
-106.665
-105.384
-104.123
-102.881
-101.658
-100.45
-99.258
-98.08
-96.914
-95.76
-94.616
-93.482
-92.355
-91.235
-90.121
-89.011
-87.904
-86.801
-85.7
-84.602
-83.506
-82.415
-81.329
-80.249
-79.178
-78.117
-77.067
-76.03
-75.008
-74.002
-73.014
-72.046
-71.101
-70.18
-69.285
-68.42
-67.586
-66.787
-66.023
-65.297
-64.611
-63.965
-63.361
-62.802
-62.287
-61.819
-61.397
-61.024
-60.699
-60.423
-60.193
-60.01
-59.87
-59.768
-59.702
-59.665
-59.653
-59.661
-59.682
-59.712
-59.746
-59.78
-59.811
-59.832
-59.838
-59.824
-59.78
-59.698
-59.569
-59.383
-59.131
-58.804
-58.396
-57.902
-57.316
-56.636
-55.86
-54.985
-54.004
-52.91
-51.697
-50.365
-48.917
-47.36
-45.709
-43.98
-42.196
-40.381
-38.555
-36.734
-34.924
-33.123
-31.327
-29.531
-27.737
-25.959
-24.207
-22.484
-20.795
-19.139
-17.507
-15.886
-14.249
-12.555
-10.777
-8.9
-6.929
-4.885
-2.797
-0.695
1.393
3.452
5.461
7.398
9.246
10.992
12.615
14.088
15.363
16.367
17.049
17.377
17.333
16.919
16.135
14.983
13.477
11.637
9.475
7.009
4.234
1.126
-2.316
-6.093
-10.18
-14.511
-19.056
-23.807
-28.753
-33.894
-39.213
-44.655
-50.224
-55.995
-61.939
-67.937
-73.741
-78.905
-83.038
-85.87
-87.065
-86.22
-83.148
-77.936
-71.052
-63.553
-56.516
-50.713
-46.962
-46.047
-48.297
-53.489
-60.647
-67.636
-72.071
-71.921
-64.91
-48.924
-22.528
14.962
62.818
118.507
178.719
239.742
296.754
344.623
378.227
392.687
384.789
352.992
296.725
216.857
116.171
-1.268
-129.784
-262.726
-394.157
-518.253
-629.153
-722.004
-792.945
-839.374
-860.974
-858.709
-833.797
-788.67
-726.776
-652.129
-569.761
-484.574
-400.184
-319.938
-247.027
-183.936
-132.731
-94.234
-67.371
-50.537
-42.32
-40.987
-44.78
-51.505
-58.234
-62.837
-64.64
-63.515
-59.564
-52.931
-43.523
-32.012
-20.144
-9.468
-0.717
5.926
10.667
13.578
14.369
13.22
11.065
8.991
7.747
7.635
8.6
10.608
13.862
18.441
24.107
30.412
36.944
43.469
49.915
56.254
62.37
68.105
73.346
78.073
82.317
86.104
89.451
92.346
94.796
96.846
98.562
100.017
101.274
102.385
103.392
104.344
105.294
106.298
107.412
108.673
110.102
111.715
113.518
115.515
117.709
120.093
122.647
125.355
128.2
131.169
134.255
137.444
140.72
144.064
147.458
150.884
154.324
157.761
161.175
164.546
167.854
171.08
174.206
177.213
180.081
182.788
185.314
187.637
189.739
191.6
193.203
194.53
195.567
196.3
196.719
196.813
196.574
195.995
195.071
193.797
192.173
190.197
187.869
185.193
182.172
178.81
175.116
171.097
166.764
162.128
157.203
152.002
146.541
140.838
134.911
128.777
122.458
115.973
109.343
102.59
95.735
88.799
81.805
74.773
67.724
60.679
53.657
46.678
39.76
32.922
26.18
19.551
13.051
6.696
0.498
-5.527
-11.368
-17.012
-22.45
-27.672
-32.67
-37.436
-41.966
-46.254
-50.298
-54.095
-57.645
-60.947
-64.004
-66.818
-69.391
-71.729
-73.837
-75.72
-77.385
-78.84
-80.09
-81.145
-82.013
-82.702
-83.221
-83.579
-83.785
-83.849
-83.781
-83.589
-83.285
-82.877
-82.377
-81.793
-81.135
-80.413
-79.636
-78.812
-77.952
-77.061
-76.149
-75.222
-74.287
-73.351
-72.419
-71.497
-70.59
-69.702
-68.838
-68.001
-67.194
-66.421
-65.685
-64.987
-64.33
-63.717
-63.149
-62.627
-62.152
-61.725
-61.347
-61.018
-60.737
-60.504
-60.318
-60.178
-60.083
-60.031
-60.02
-60.05
-60.118
-60.221
-60.359
-60.528
-60.727
-60.952
-61.203
-61.477
-61.771
-62.083
-62.411
-62.753
-63.107
-63.469
-63.838
-64.21
-64.584
-64.958
-65.327
-65.692
-66.049
-66.398
-66.736
-67.063
-67.379
-67.681
-67.971
-68.247
-68.509
-68.758
-68.992
-69.213
-69.42
-69.614
-69.797
-69.968
-70.13
-70.284
-70.43
-70.57
-70.706
-70.839
-70.971
-71.103
-71.236
-71.374
-71.517
-71.668
-71.829
-72.001
-72.185
-72.382
-72.592
-72.816
-73.051
-73.296
-73.548
-73.806
-74.067
-74.328
-74.587
-74.842
-75.092
-75.335
-75.57
-75.793
-76.002
-76.191
-76.355
-76.487
-76.579
-76.625
-76.618
-76.551
-76.421
-76.222
-75.952
-75.608
-75.184
-74.674
-74.069
-73.364
-72.556
-71.647
-70.642
-69.553
-68.397
-67.192
-65.958
-64.709
-63.457
-62.202
-60.94
-59.664
-58.362
-57.034
-55.69
-54.335
-52.974
-51.604
-50.218
-48.799
-47.326
-45.77
-44.097
-42.285
-40.322
-38.218
-36.001
-33.703
-31.372
-29.033
-26.691
-24.355
-22.031
-19.728
-17.467
-15.269
-13.158
-11.175
-9.37
-7.776
-6.424
-5.32
-4.44
-3.767
-3.271
-2.938
-2.797
-2.875
-3.2
-3.808
-4.733
-6.009
-7.676
-9.761
-12.26
-15.164
-18.462
-22.162
-26.294
-30.872
-35.916
-41.395
-47.254
-53.487
-59.972
-66.479
-72.677
-78.044
-82.054
-84.328
-84.408
-81.786
-76.415
-68.505
-58.61
-48.012
-37.825
-28.861
-22.295
-19.088
-19.239
-22.3
-26.958
-30.544
-30.776
-25.608
-12.242
11.479
46.426
92.703
148.727
210.973
275.812
338.924
394.435
436.659
460.512
461.475
436.824
385.688
308.171
206.173
83.998
-52.732
-197.415
-342.755
-481.634
-607.249
-713.304
-794.726
-848.318
-872.717
-868.052
-835.972
-779.64
-703.692
-613.8
-516.179
-416.794
-320.932
-233.509
-158.624
-98.976
-55.449
-27.206
-12.151
-7.588
-10.556
-17.66
-25.426
-30.829
-32.108
-28.853
-21.461
-10.833
1.907
15.409
28.079
38.335
45.362
49.131
49.997
48.636
45.74
41.946
38.042
34.854
32.879
32.304
33.129
35.172
38.28
42.356
47.236
52.728
58.671
64.915
71.349
77.893
84.439
90.863
97.045
102.864
108.223
113.075
117.398
121.194
124.492
127.325
129.735
131.781
133.529
135.045
136.392
137.628
138.807
139.985
141.221
142.574
144.093
145.811
147.748
149.915
152.313
154.942
157.798
160.866
164.129
167.573
171.182
174.944
178.845
182.869
186.997
191.208
195.481
199.796
204.132
208.469
212.784
217.056
221.263
225.384
229.396
233.279
237.008
240.558
243.907
247.032
249.909
252.519
254.84
256.854
258.544
259.896
260.897
261.536
261.803
261.691
261.196
260.314
259.043
257.384
255.34
252.915
250.115
246.948
243.424
239.554
235.351
230.829
226.006
220.897
215.522
209.899
204.05
197.996
191.758
185.358
178.82
172.167
165.421
158.606
151.745
144.861
137.976
131.11
124.286
117.521
110.836
104.248
97.774
91.428
85.226
79.181
73.304
67.606
62.097
56.785
51.677
46.779
42.096
37.631
33.385
29.362
25.559
21.977
18.614
15.467
12.532
9.804
7.278
4.948
2.806
0.844
-0.945
-2.57
-4.041
-5.366
-6.556
-7.62
-8.568
-9.408
-10.151
-10.804
-11.378
-11.879
-12.317
-12.699
-13.032
-13.323
-13.579
-13.805
-14.008
-14.193
-14.365
-14.528
-14.688
-14.848
-15.012
-15.184
-15.366
-15.562
-15.773
-16.002
-16.25
-16.517
-16.805
-17.114
-17.443
-17.793
-18.163
-18.553
-18.961
-19.387
-19.831
-20.292
-20.768
-21.26
-21.767
-22.289
-22.825
-23.375
-23.939
-24.517
-25.108
-25.713
-26.332
-26.963
-27.606
-28.261
-28.928
-29.605
-30.292
-30.988
-31.693
-32.406
-33.126
-33.852
-34.585
-35.324
-36.068
-36.818
-37.572
-38.332
-39.095
-39.863
-40.634
-41.408
-42.184
-42.961
-43.739
-44.516
-45.291
-46.063
-46.829
-47.59
-48.341
-49.083
-49.811
-50.526
-51.224
-51.902
-52.559
-53.192
-53.799
-54.376
-54.921
-55.432
-55.905
-56.338
-56.728
-57.072
-57.366
-57.608
-57.793
-57.92
-57.984
-57.982
-57.912
-57.771
-57.555
-57.263
-56.891
-56.438
-55.901
-55.279
-54.57
-53.773
-52.888
-51.916
-50.857
-49.712
-48.485
-47.18
-45.8
-44.351
-42.838
-41.267
-39.645
-37.978
-36.274
-34.541
-32.784
-31.013
-29.236
-27.464
-25.706
-23.973
-22.274
-20.62
-19.019
-17.482
-16.017
-14.636
-13.345
-12.15
-11.059
-10.081
-9.225
-8.498
-7.899
-7.426
-7.074
-6.835
-6.7
-6.654
-6.675
-6.741
-6.828
-6.917
-6.992
-7.036
-7.032
-6.96
-6.795
-6.526
-6.149
-5.672
-5.098
-4.444
-3.73
-2.993
-2.297
-1.7
-1.269
-1.075
-1.175
-1.634
-2.507
-3.827
-5.634
-7.968
-10.854
-14.318
-18.387
-23.031
-28.239
-34.036
-40.28
-46.738
-53.069
-58.714
-63.171
-66.106
-67.082
-65.645
-61.791
-55.753
-48.132
-40.205
-32.994
-27.155
-23.611
-23.026
-25.195
-29.523
-34.626
-37.924
-37.285
-30.915
-16.443
7.799
42.273
86.81
139.757
197.767
257.507
315.044
365.089
402.646
423.304
423.157
399.928
352.896
282.112
189.419
78.838
-44.405
-174.089
-303.67
-426.991
-538.048
-631.399
-703.012
-750.492
-773.454
-773.164
-751.473
-711.133
-656.018
-590.282
-518.342
-444.565
-371.958
-302.824
-239.734
-184.446
-137.914
-100.763
-72.399
-51.465
-37.168
-28.506
-23.739
-21.38
-19.873
-17.591
-14.019
-9.26
-3.25
3.748
11.137
18.428
24.832
29.432
32.014
32.741
31.868
29.879
27.233
24.297
21.596
19.703
18.893
19.257
20.745
23.168
26.391
30.316
34.796
39.665
44.776
50.0
55.235
60.414
65.453
70.259
74.74
78.807
82.408
85.534
88.202
90.45
92.317
93.849
95.102
96.139
97.022
97.811
98.557
99.301
100.091
100.972
101.992
103.198
104.621
106.276
108.172
110.307
112.675
115.272
118.081
121.084
124.261
127.597
131.075
134.682
138.402
142.213
146.096
150.026
153.982
157.944
161.888
165.793
169.637
173.396
177.05
180.578
183.959
187.17
190.19
192.995
195.566
197.882
199.925
201.676
203.121
204.244
205.035
205.484
205.583
205.325
204.707
203.726
202.381
200.675
198.61
196.19
193.423
190.316
186.88
183.126
179.067
174.717
170.092
165.211
160.09
154.75
149.21
143.492
137.618
131.61
125.491
119.283
113.01
106.694
100.358
94.025
87.717
81.454
75.256
69.144
63.134
57.245
51.493
45.893
40.459
35.203
30.138
25.274
20.62
16.185
11.975
7.995
4.249
0.741
-2.529
-5.56
-8.353
-10.91
-13.235
-15.332
-17.207
-18.865
-20.315
-21.565
-22.623
-23.5
-24.204
-24.747
-25.14
-25.394
-25.519
-25.528
-25.43
-25.238
-24.962
-24.613
-24.202
-23.738
-23.231
-22.692
-22.128
-21.548
-20.96
-20.372
-19.79
-19.221
-18.67
-18.144
-17.646
-17.18
-16.751
-16.36
-16.011
-15.705
-15.443
-15.225
-15.052
-14.923
-14.838
-14.795
-14.794
-14.832
-14.907
-15.017
-15.16
-15.333
-15.534
-15.759
-16.006
-16.274
-16.558
-16.857
-17.169
-17.49
-17.82
-18.155
-18.493
-18.833
-19.171
-19.506
-19.835
-20.158
-20.472
-20.777
-21.07
-21.352
-21.622
-21.879
-22.123
-22.353
-22.568
-22.77
-22.956
-23.129
-23.29
-23.438
-23.575
-23.703
-23.823
-23.936
-24.044
-24.148
-24.248
-24.345
-24.44
-24.533
-24.626
-24.718
-24.813
-24.91
-25.01
-25.115
-25.225
-25.341
-25.463
-25.589
-25.719
-25.851
-25.985
-26.118
-26.25
-26.381
-26.51
-26.638
-26.764
-26.888
-27.007
-27.12
-27.223
-27.309
-27.373
-27.408
-27.409
-27.371
-27.289
-27.161
-26.985
-26.761
-26.489
-26.168
-25.793
-25.356
-24.851
-24.279
-23.64
-22.94
-22.191
-21.407
-20.609
-19.817
-19.049
-18.315
-17.615
-16.943
-16.288
-15.639
-14.993
-14.355
-13.727
-13.11
-12.502
-11.899
-11.29
-10.65
-9.939
-9.111
-8.128
-6.968
-5.629
-4.123
-2.468
-0.699
1.154
3.071
5.023
6.991
8.961
10.921
12.853
14.719
16.455
17.986
19.255
20.21
20.826
21.087
20.977
20.516
19.733
18.657
17.323
15.749
13.927
11.84
9.483
6.856
4.001
0.984
-2.158
-5.394
-8.712
-12.101
-15.533
-18.993
-22.517
-26.21
-30.081
-34.016
-37.751
-40.814
-42.764
-43.302
-42.095
-38.743
-33.142
-25.513
-16.468
-7.318
0.639
6.499
9.3
8.267
3.298
-5.134
-15.712
-25.827
-32.738
-33.984
-26.813
-9.053
20.533
62.316
115.1
175.991
241.317
306.552
366.001
414.213
446.008
456.558
442.81
403.007
336.387
245.781
136.067
11.044
-123.078
-262.199
-403.091
-534.901
-648.78
-736.332
-789.361
-811.584
-807.863
-782.336
-741.819
-687.574
-621.416
-547.774
-469.823
-392.175
-319.075
-253.409
-197.698
-152.869
-118.601
-93.762
-76.538
-65.516
-59.085
-54.991
-51.152
-45.734
-37.752
-27.381
-15.19
-1.712
12.309
25.913
38.094
47.774
54.451
58.307
59.702
59.135
57.132
54.167
50.804
47.652
45.071
43.178
41.982
41.389
41.315
41.723
42.522
43.588
44.816
46.124
47.458
48.801
50.139
51.435
52.648
53.754
54.738
55.621
56.45
57.253
58.068
58.934
59.879
60.944
62.179
63.606
65.237
67.062
69.04
71.148
73.383
75.729
78.176
80.693
83.229
85.753
88.25
90.7
93.099
95.433
97.682
99.851
101.961
104.042
106.147
108.306
110.53
112.833
115.222
117.704
120.298
123.004
125.805
128.686
131.63
134.618
137.638
140.663
143.651
146.56
149.342
151.955
154.37
156.558
158.491
160.145
161.496
162.528
163.234
163.603
163.625
163.291
162.591
161.519
160.078
158.27
156.098
153.566
150.68
147.444
143.867
139.958
135.724
131.176
126.323
121.177
115.754
110.072
104.15
98.006
91.662
85.139
78.462
71.652
64.734
57.73
50.664
43.559
36.44
29.329
22.25
15.224
8.274
1.421
-5.314
-11.913
-18.357
-24.628
-30.71
-36.586
-42.244
-47.669
-52.849
-57.774
-62.434
-66.821
-70.928
-74.749
-78.282
-81.525
-84.475
-87.134
-89.504
-91.588
-93.391
-94.918
-96.177
-97.175
-97.921
-98.425
-98.698
-98.75
-98.593
-98.241
-97.706
-97.0
-96.138
-95.132
-93.997
-92.746
-91.392
-89.948
-88.427
-86.843
-85.206
-83.529
-81.824
-80.101
-78.37
-76.642
-74.925
-73.228
-71.56
-69.926
-68.335
-66.791
-65.301
-63.867
-62.495
-61.186
-59.944
-58.769
-57.662
-56.623
-55.651
-54.745
-53.904
-53.125
-52.406
-51.743
-51.133
-50.575
-50.063
-49.594
-49.166
-48.775
-48.417
-48.09
-47.79
-47.513
-47.258
-47.021
-46.8
-46.59
-46.39
-46.198
-46.009
-45.823
-45.638
-45.451
-45.261
-45.067
-44.869
-44.666
-44.458
-44.246
-44.031
-43.814
-43.596
-43.38
-43.167
-42.959
-42.759
-42.569
-42.39
-42.224
-42.073
-41.937
-41.817
-41.713
-41.626
-41.554
-41.498
-41.456
-41.428
-41.413
-41.409
-41.415
-41.429
-41.449
-41.473
-41.498
-41.521
-41.539
-41.547
-41.543
-41.52
-41.475
-41.402
-41.295
-41.149
-40.956
-40.711
-40.406
-40.036
-39.595
-39.076
-38.476
-37.789
-37.012
-36.143
-35.181
-34.127
-32.98
-31.741
-30.413
-28.997
-27.497
-25.915
-24.256
-22.522
-20.718
-18.85
-16.925
-14.95
-12.933
-10.882
-8.806
-6.715
-4.617
-2.523
-0.441
1.618
3.644
5.628
7.556
9.413
11.19
12.88
14.481
15.992
17.418
18.764
20.041
21.27
22.468
23.652
24.837
26.036
27.263
28.538
29.877
31.307
32.844
34.489
36.244
38.099
40.034
42.03
44.048
46.018
47.879
49.569
51.018
52.173
52.969
53.329
53.191
52.501
51.203
49.269
46.668
43.374
39.389
34.74
29.461
23.621
17.391
10.999
4.768
-0.878
-5.572
-8.978
-10.656
-10.24
-7.674
-3.094
3.083
10.15
17.663
25.214
32.046
37.665
42.085
45.64
49.298
54.363
61.606
72.007
87.238
108.433
136.2
170.577
210.32
253.837
299.714
345.312
386.487
419.172
439.259
442.741
426.815
389.027
327.15
242.418
139.864
23.144
-103.976
-238.639
-381.26
-523.595
-651.342
-751.703
-810.615
-825.893
-807.111
-763.017
-704.431
-637.486
-561.083
-477.166
-388.734
-299.945
-217.988
-147.777
-91.648
-50.217
-22.041
-4.997
3.072
4.61
2.501
-0.316
-1.272
1.075
6.976
16.025
27.435
40.252
53.33
65.303
74.796
81.114
84.266
84.586
82.691
79.213
74.718
69.933
65.637
62.312
60.194
59.342
59.633
60.966
63.276
66.421
70.238
74.582
79.307
84.31
89.512
94.805
100.081
105.226
110.124
114.681
118.82
122.491
125.679
128.391
130.651
132.497
133.975
135.14
136.063
136.806
137.428
137.988
138.534
139.118
139.795
140.613
141.617
142.836
144.284
145.971
147.898
150.06
152.45
155.054
157.849
160.818
163.945
167.212
170.606
174.106
177.692
181.342
185.033
188.743
192.451
196.135
199.771
203.338
206.814
210.175
213.402
216.472
219.362
222.048
224.507
226.717
228.658
230.309
231.652
232.668
233.345
233.667
233.625
233.21
232.413
231.229
229.655
227.69
225.334
222.588
219.457
215.947
212.065
207.821
203.225
198.289
193.029
187.458
181.594
175.455
169.061
162.431
155.587
148.551
141.346
133.995
126.521
118.949
111.302
103.604
95.878
88.149
80.438
72.767
65.157
57.629
50.201
42.892
35.719
28.698
21.843
15.169
8.688
2.411
-3.652
-9.493
-15.103
-20.478
-25.611
-30.499
-35.14
-39.534
-43.68
-47.579
-51.235
-54.651
-57.833
-60.785
-63.514
-66.029
-68.336
-70.446
-72.366
-74.108
-75.681
-77.096
-78.363
-79.493
-80.497
-81.385
-82.167
-82.854
-83.456
-83.981
-84.44
-84.842
-85.193
-85.504
-85.781
-86.031
-86.26
-86.476
-86.683
-86.886
-87.089
-87.298
-87.513
-87.74
-87.979
-88.232
-88.501
-88.788
-89.091
-89.412
-89.75
-90.105
-90.476
-90.862
-91.262
-91.675
-92.1
-92.534
-92.978
-93.429
-93.886
-94.349
-94.815
-95.285
-95.756
-96.228
-96.7
-97.172
-97.642
-98.11
-98.576
-99.039
-99.499
-99.957
-100.41
-100.861
-101.308
-101.752
-102.192
-102.629
-103.063
-103.495
-103.923
-104.35
-104.774
-105.196
-105.616
-106.034
-106.45
-106.865
-107.277
-107.686
-108.093
-108.497
-108.898
-109.294
-109.686
-110.072
-110.452
-110.825
-111.19
-111.545
-111.889
-112.22
-112.537
-112.838
-113.122
-113.385
-113.627
-113.846
-114.038
-114.202
-114.336
-114.437
-114.503
-114.53
-114.517
-114.46
-114.357
-114.205
-114.001
-113.743
-113.428
-113.053
-112.615
-112.111
-111.538
-110.893
-110.174
-109.379
-108.504
-107.55
-106.514
-105.396
-104.196
-102.916
-101.556
-100.119
-98.606
-97.021
-95.366
-93.646
-91.865
-90.027
-88.136
-86.196
-84.215
-82.199
-80.156
-78.093
-76.016
-73.934
-71.854
-69.785
-67.737
-65.717
-63.729
-61.781
-59.878
-58.03
-56.247
-54.537
-52.899
-51.335
-49.84
-48.411
-47.045
-45.728
-44.439
-43.159
-41.867
-40.551
-39.207
-37.826
-36.398
-34.912
-33.343
-31.682
-29.934
-28.098
-26.183
-24.205
-22.174
-20.126
-18.13
-16.248
-14.554
-13.107
-11.936
-11.076
-10.559
-10.426
-10.749
-11.586
-12.971
-14.944
-17.5
-20.66
-24.503
-28.973
-33.886
-38.955
-43.738
-47.89
-51.249
-53.549
-54.442
-53.735
-51.327
-47.558
-43.214
-38.804
-34.627
-30.968
-28.053
-26.216
-25.725
-26.003
-25.81
-24.081
-19.704
-11.809
0.409
18.387
43.42
75.79
115.003
159.992
208.979
260.018
310.336
355.658
391.497
413.433
417.171
399.385
357.594
291.555
204.248
99.587
-18.793
-150.079
-295.044
-449.013
-600.467
-731.148
-822.215
-865.369
-864.332
-832.23
-783.672
-726.695
-662.946
-590.099
-507.722
-419.584
-331.645
-250.865
-182.034
-127.161
-86.532
-58.978
-42.681
-35.596
-35.24
-38.643
-42.852
-45.29
-44.452
-39.996
-32.216
-21.825
-9.801
2.655
14.145
23.276
29.361
32.432
32.829
31.166
28.1
24.232
20.317
17.154
15.194
14.596
15.36
17.31
20.31
24.28
29.053
34.434
40.258
46.366
52.642
59.006
65.333
71.483
77.322
82.71
87.57
91.872
95.601
98.77
101.407
103.544
105.235
106.551
107.556
108.318
108.899
109.354
109.749
110.152
110.628
111.242
112.041
113.049
114.289
115.769
117.492
119.459
121.662
124.085
126.717
129.546
132.563
135.757
139.116
142.62
146.253
149.992
153.819
157.713
161.656
165.624
169.597
173.553
177.47
181.326
185.099
188.763
192.292
195.661
198.844
201.816
204.554
207.034
209.235
211.137
212.722
213.974
214.879
215.423
215.597
215.39
214.797
213.812
212.432
210.657
208.489
205.931
202.988
199.669
195.984
191.944
187.564
182.86
177.848
172.549
166.981
161.169
155.133
148.898
142.488
135.929
129.246
122.464
115.609
108.707
101.784
94.863
87.97
81.127
74.358
67.685
61.129
54.709
48.445
42.353
36.452
30.755
25.276
20.028
15.021
10.263
5.763
1.525
-2.447
-6.149
-9.582
-12.745
-15.642
-18.275
-20.649
-22.77
-24.644
-26.28
-27.686
-28.871
-29.846
-30.62
-31.204
-31.611
-31.852
-31.939
-31.884
-31.7
-31.399
-30.994
-30.496
-29.918
-29.272
-28.57
-27.821
-27.037
-26.227
-25.401
-24.566
-23.732
-22.904
-22.089
-21.292
-20.518
-19.77
-19.052
-18.366
-17.715
-17.099
-16.519
-15.977
-15.473
-15.006
-14.575
-14.181
-13.822
-13.496
-13.201
-12.936
-12.699
-12.486
-12.295
-12.123
-11.967
-11.825
-11.693
-11.568
-11.447
-11.328
-11.209
-11.086
-10.957
-10.822
-10.678
-10.525
-10.362
-10.189
-10.005
-9.81
-9.605
-9.39
-9.167
-8.935
-8.695
-8.449
-8.197
-7.941
-7.682
-7.421
-7.159
-6.9
-6.643
-6.392
-6.148
-5.914
-5.692
-5.484
-5.293
-5.122
-4.973
-4.848
-4.751
-4.684
-4.648
-4.647
-4.682
-4.754
-4.865
-5.014
-5.204
-5.433
-5.702
-6.009
-6.354
-6.737
-7.155
-7.608
-8.093
-8.609
-9.153
-9.724
-10.318
-10.932
-11.563
-12.207
-12.86
-13.519
-14.178
-14.834
-15.481
-16.114
-16.729
-17.319
-17.878
-18.401
-18.883
-19.317
-19.699
-20.025
-20.289
-20.489
-20.622
-20.686
-20.68
-20.605
-20.461
-20.248
-19.968
-19.623
-19.215
-18.748
-18.224
-17.646
-17.018
-16.346
-15.636
-14.896
-14.131
-13.35
-12.559
-11.766
-10.979
-10.207
-9.457
-8.736
-8.051
-7.409
-6.819
-6.293
-5.838
-5.454
-5.141
-4.894
-4.705
-4.57
-4.474
-4.395
-4.317
-4.22
-4.089
-3.916
-3.691
-3.399
-3.026
-2.55
-1.956
-1.247
-0.425
0.501
1.508
2.582
3.691
4.766
5.756
6.6
7.232
7.618
7.713
7.466
6.85
5.813
4.3
2.285
-0.27
-3.386
-7.037
-11.241
-16.025
-21.273
-26.784
-32.251
-37.215
-41.309
-44.277
-45.77
-45.375
-42.886
-38.407
-32.418
-25.791
-19.337
-13.54
-8.899
-6.114
-5.578
-7.04
-9.614
-11.675
-11.378
-7.363
1.785
17.923
42.455
75.911
117.925
166.839
220.109
275.017
327.964
374.269
409.174
427.936
426.536
402.378
353.697
281.337
187.993
76.005
-49.686
-185.539
-327.972
-466.179
-590.95
-692.596
-761.386
-799.4
-810.062
-796.932
-766.659
-719.631
-656.999
-583.025
-501.156
-417.236
-336.371
-261.612
-195.682
-140.169
-96.021
-63.426
-41.143
-27.565
-21.215
-20.347
-23.41
-28.572
-33.419
-36.323
-36.826
-34.868
-30.606
-24.207
-15.565
-5.23
5.298
14.681
22.281
27.947
31.866
34.082
34.298
32.625
29.874
27.073
24.944
23.785
23.577
24.298
26.144
29.223
33.337
38.07
43.039
48.02
52.941
57.8
62.506
66.926
70.973
74.615
77.865
80.751
83.279
85.442
87.247
88.73
89.946
90.973
91.877
92.712
93.526
94.361
95.261
96.276
97.454
98.842
100.467
102.346
104.488
106.898
109.578
112.524
115.72
119.141
122.765
126.572
130.546
134.67
138.925
143.287
147.732
152.233
156.767
161.31
165.835
170.314
174.722
179.03
183.215
187.252
191.116
194.781
198.22
201.408
204.32
206.933
209.225
211.175
212.764
213.976
214.797
215.215
215.222
214.809
213.972
212.709
211.018
208.901
206.362
203.406
200.04
196.274
192.12
187.59
182.701
177.467
171.909
166.046
159.9
153.492
146.848
139.99
132.946
125.741
118.401
110.955
103.429
95.851
88.248
80.647
73.074
65.555
58.113
50.774
43.559
36.489
29.585
22.865
16.348
10.048
3.983
-1.836
-7.396
-12.687
-17.7
-22.427
-26.863
-31.003
-34.846
-38.39
-41.635
-44.584
-47.241
-49.609
-51.695
-53.506
-55.052
-56.341
-57.385
-58.195
-58.783
-59.162
-59.347
-59.35
-59.185
-58.868
-58.411
-57.83
-57.139
-56.351
-55.481
-54.542
-53.547
-52.509
-51.439
-50.349
-49.25
-48.152
-47.063
-45.993
-44.949
-43.938
-42.966
-42.038
-41.159
-40.332
-39.561
-38.846
-38.19
-37.593
-37.056
-36.577
-36.155
-35.789
-35.476
-35.215
-35.001
-34.834
-34.708
-34.621
-34.569
-34.55
-34.559
-34.593
-34.648
-34.723
-34.814
-34.918
-35.032
-35.156
-35.286
-35.422
-35.561
-35.704
-35.85
-35.998
-36.149
-36.303
-36.46
-36.622
-36.79
-36.965
-37.147
-37.34
-37.544
-37.761
-37.994
-38.243
-38.511
-38.799
-39.108
-39.44
-39.795
-40.174
-40.577
-41.004
-41.454
-41.926
-42.418
-42.93
-43.457
-43.998
-44.55
-45.109
-45.672
-46.233
-46.789
-47.334
-47.864
-48.372
-48.853
-49.301
-49.71
-50.073
-50.386
-50.641
-50.834
-50.956
-51.004
-50.97
-50.851
-50.641
-50.337
-49.933
-49.429
-48.822
-48.11
-47.294
-46.376
-45.356
-44.24
-43.03
-41.732
-40.352
-38.895
-37.37
-35.784
-34.146
-32.463
-30.745
-29.002
-27.246
-25.487
-23.737
-22.009
-20.313
-18.661
-17.065
-15.538
-14.092
-12.734
-11.472
-10.314
-9.271
-8.354
-7.571
-6.922
-6.406
-6.019
-5.757
-5.615
-5.579
-5.628
-5.736
-5.882
-6.049
-6.227
-6.403
-6.559
-6.671
-6.713
-6.671
-6.544
-6.335
-6.045
-5.677
-5.24
-4.771
-4.334
-3.993
-3.816
-3.855
-4.146
-4.737
-5.672
-7.01
-8.818
-11.144
-14.014
-17.458
-21.474
-26.091
-31.376
-37.229
-43.422
-49.654
-55.47
-60.502
-64.545
-67.222
-68.054
-66.933
-63.941
-59.481
-54.513
-49.676
-45.252
-41.874
-40.148
-40.107
-41.562
-43.58
-44.215
-42.057
-35.956
-24.123
-5.096
21.981
57.624
100.958
149.761
201.944
254.629
303.587
344.659
373.338
385.016
376.538
345.518
291.254
216.256
124.144
18.062
-101.064
-233.893
-377.37
-521.278
-648.132
-740.44
-789.289
-797.385
-778.03
-744.802
-704.964
-660.229
-607.276
-544.606
-475.078
-402.71
-332.691
-269.247
-214.474
-169.475
-134.317
-108.13
-89.701
-78.098
-71.987
-69.407
-68.306
-66.529
-62.733
-56.741
-48.77
-39.07
-28.172
-16.825
-6.019
2.951
9.392
13.315
14.935
14.707
13.116
10.568
7.654
5.096
3.342
2.616
2.991
4.343
6.577
9.644
13.419
17.758
22.536
27.626
32.94
38.415
43.963
49.502
54.941
60.181
65.144
69.757
73.976
77.795
81.224
84.288
87.021
89.461
91.655
93.664
95.545
97.346
99.115
100.89
102.712
104.629
106.684
108.918
111.356
114.011
116.889
119.991
123.31
126.84
130.565
134.463
138.514
142.702
147.009
151.42
155.917
160.477
165.076
169.69
174.297
178.872
183.393
187.834
192.171
196.383
200.445
204.337
208.036
211.52
214.764
217.747
220.448
222.846
224.921
226.657
228.037
229.049
229.679
229.921
229.765
229.207
228.243
226.872
225.095
222.912
220.33
217.354
213.991
210.253
206.151
201.698
196.909
191.803
186.396
180.709
174.763
168.579
162.181
155.593
148.838
141.943
134.933
127.833
120.67
113.468
106.254
99.052
91.887
84.78
77.756
70.834
64.036
57.379
50.883
44.564
38.437
32.516
26.815
21.345
16.115
11.135
6.412
1.95
-2.245
-6.172
-9.829
-13.217
-16.337
-19.193
-21.789
-24.131
-26.225
-28.079
-29.703
-31.106
-32.299
-33.292
-34.099
-34.729
-35.197
-35.513
-35.692
-35.744
-35.683
-35.521
-35.27
-34.942
-34.548
-34.1
-33.61
-33.086
-32.54
-31.981
-31.418
-30.858
-30.311
-29.782
-29.278
-28.806
-28.368
-27.971
-27.618
-27.311
-27.052
-26.843
-26.686
-26.58
-26.525
-26.52
-26.565
-26.659
-26.799
-26.983
-27.21
-27.478
-27.783
-28.125
-28.498
-28.902
-29.334
-29.789
-30.266
-30.762
-31.274
-31.798
-32.332
-32.873
-33.419
-33.968
-34.516
-35.062
-35.604
-36.139
-36.666
-37.184
-37.691
-38.186
-38.669
-39.138
-39.594
-40.036
-40.465
-40.881
-41.284
-41.674
-42.052
-42.418
-42.774
-43.12
-43.457
-43.785
-44.106
-44.419
-44.727
-45.03
-45.329
-45.623
-45.914
-46.202
-46.486
-46.766
-47.042
-47.314
-47.58
-47.84
-48.092
-48.337
-48.572
-48.795
-49.005
-49.199
-49.375
-49.529
-49.659
-49.761
-49.831
-49.865
-49.86
-49.811
-49.714
-49.565
-49.36
-49.094
-48.763
-48.363
-47.891
-47.343
-46.716
-46.01
-45.222
-44.352
-43.401
-42.371
-41.263
-40.081
-38.826
-37.504
-36.119
-34.675
-33.177
-31.631
-30.043
-28.42
-26.769
-25.1
-23.421
-21.741
-20.068
-18.413
-16.788
-15.202
-13.665
-12.183
-10.761
-9.406
-8.127
-6.934
-5.832
-4.822
-3.905
-3.08
-2.347
-1.702
-1.134
-0.621
-0.141
0.325
0.789
1.258
1.737
2.239
2.776
3.363
4.008
4.706
5.459
6.268
7.134
8.046
8.973
9.849
10.602
11.174
11.508
11.577
11.359
10.814
9.888
8.524
6.665
4.273
1.328
-2.236
-6.529
-11.555
-17.164
-23.027
-28.642
-33.558
-37.479
-40.086
-40.949
-39.871
-37.035
-33.045
-29.006
-25.96
-24.447
-24.901
-27.898
-33.542
-41.233
-49.663
-56.554
-59.49
-56.878
-47.259
-28.843
-0.534
37.837
85.475
139.915
197.955
256.885
313.453
363.264
402.099
425.913
431.152
416.115
379.961
321.87
242.49
144.359
31.036
-92.405
-220.12
-346.967
-467.402
-575.42
-666.027
-735.272
-780.474
-801.133
-797.886
-771.865
-725.815
-663.665
-589.853
-509.583
-427.715
-347.985
-274.025
-208.989
-154.82
-112.649
-82.319
-62.232
-50.559
-45.502
-44.69
-45.874
-47.035
-46.25
-42.722
-36.618
-28.305
-18.413
-7.858
2.531
11.786
18.872
23.453
25.666
25.83
24.5
22.212
19.431
16.73
14.707
13.694
13.819
15.066
17.281
20.339
24.14
28.543
33.385
38.523
43.836
49.23
54.634
59.974
65.157
70.094
74.699
78.899
82.654
85.956
88.82
91.272
93.353
95.106
96.584
97.852
98.971
99.994
100.973
101.947
102.962
104.065
105.301
106.713
108.331
110.168
112.232
114.524
117.042
119.779
122.723
125.853
129.152
132.603
136.192
139.904
143.72
147.62
151.582
155.581
159.594
163.6
167.576
171.498
175.341
179.085
182.705
186.183
189.495
192.62
195.534
198.217
200.648
202.806
204.674
206.234
207.47
208.369
208.918
209.108
208.931
208.38
207.45
206.139
204.445
202.372
199.92
197.097
193.908
190.363
186.472
182.248
177.705
172.859
167.726
162.326
156.678
150.802
144.719
138.452
132.022
125.453
118.767
111.988
105.138
98.241
91.32
84.396
77.492
70.628
63.826
57.105
50.483
43.98
37.612
31.395
25.345
19.474
13.795
8.32
3.059
-1.981
-6.791
-11.366
-15.701
-19.793
-23.641
-27.243
-30.602
-33.717
-36.593
-39.233
-41.643
-43.827
-45.792
-47.545
-49.093
-50.445
-51.61
-52.595
-53.41
-54.065
-54.57
-54.934
-55.167
-55.279
-55.281
-55.182
-54.991
-54.72
-54.375
-53.968
-53.505
-52.996
-52.447
-51.866
-51.261
-50.636
-49.997
-49.349
-48.698
-48.045
-47.395
-46.751
-46.114
-45.487
-44.871
-44.269
-43.68
-43.106
-42.547
-42.005
-41.478
-40.968
-40.474
-39.996
-39.532
-39.083
-38.648
-38.226
-37.816
-37.418
-37.029
-36.651
-36.28
-35.918
-35.562
-35.212
-34.868
-34.53
-34.196
-33.868
-33.545
-33.229
-32.919
-32.617
-32.324
-32.04
-31.767
-31.505
-31.256
-31.021
-30.8
-30.596
-30.408
-30.238
-30.087
-29.956
-29.847
-29.76
-29.697
-29.658
-29.646
-29.66
-29.703
-29.774
-29.875
-30.007
-30.169
-30.362
-30.586
-30.839
-31.121
-31.43
-31.765
-32.124
-32.503
-32.901
-33.315
-33.742
-34.178
-34.619
-35.063
-35.506
-35.942
-36.368
-36.78
-37.173
-37.542
-37.883
-38.191
-38.46
-38.685
-38.86
-38.981
-39.041
-39.036
-38.96
-38.809
-38.579
-38.267
-37.87
-37.387
-36.819
-36.165
-35.427
-34.607
-33.706
-32.727
-31.676
-30.555
-29.369
-28.122
-26.822
-25.475
-24.091
-22.68
-21.248
-19.806
-18.363
-16.93
-15.518
-14.137
-12.797
-11.505
-10.272
-9.109
-8.031
-7.048
-6.164
-5.38
-4.695
-4.104
-3.605
-3.187
-2.832
-2.52
-2.235
-1.961
-1.692
-1.421
-1.133
-0.815
-0.452
-0.032
0.441
0.958
1.514
2.094
2.68
3.245
3.732
4.087
4.26
4.192
3.843
3.174
2.149
0.746
-1.064
-3.323
-6.058
-9.297
-13.069
-17.355
-22.169
-27.569
-33.473
-39.716
-46.004
-51.859
-56.899
-60.894
-63.54
-64.487
-63.56
-60.74
-56.512
-51.857
-47.504
-43.937
-41.539
-40.588
-41.405
-44.066
-47.689
-50.632
-51.359
-48.399
-40.639
-27.092
-6.226
23.134
60.984
106.384
157.688
212.571
268.649
322.777
370.256
406.3
426.587
427.042
404.9
358.658
287.292
193.086
80.78
-45.823
-180.653
-319.332
-458.19
-586.705
-696.271
-778.402
-825.194
-840.559
-829.478
-797.06
-751.212
-693.208
-624.631
-549.804
-471.503
-394.398
-322.784
-258.654
-203.533
-158.098
-122.33
-95.599
-76.647
-64.207
-56.798
-52.831
-50.971
-49.724
-47.675
-44.291
-39.573
-33.636
-26.946
-20.053
-13.421
-7.79
-3.933
-2.042
-1.967
-3.403
-5.82
-8.741
-11.76
-14.335
-15.948
-16.351
-15.477
-13.401
-10.313
-6.356
-1.655
3.618
9.278
15.16
21.127
27.077
32.927
38.577
43.917
48.838
53.27
57.187
60.592
63.512
65.986
68.055
69.779
71.227
72.465
73.558
74.564
75.531
76.512
77.564
78.739
80.092
81.662
83.471
85.533
87.85
90.42
93.239
96.292
99.559
103.024
106.669
110.48
114.441
118.537
122.745
127.043
131.408
135.816
140.246
144.674
149.076
153.43
157.711
161.898
165.968
169.897
173.663
177.238
180.6
183.724
186.588
189.169
191.447
193.404
195.022
196.287
197.187
197.712
197.853
197.602
196.957
195.915
194.476
192.641
190.415
187.803
184.813
181.454
177.737
173.676
169.285
164.58
159.579
154.299
148.76
142.985
136.994
130.81
124.457
117.958
111.34
104.625
97.84
91.008
84.154
77.301
70.473
63.692
56.978
50.351
43.831
37.435
31.18
25.081
19.152
13.406
7.855
2.508
-2.625
-7.536
-12.22
-16.672
-20.886
-24.862
-28.597
-32.091
-35.346
-38.363
-41.147
-43.701
-46.032
-48.147
-50.053
-51.758
-53.273
-54.605
-55.767
-56.768
-57.618
-58.329
-58.91
-59.373
-59.728
-59.984
-60.152
-60.241
-60.26
-60.218
-60.122
-59.982
-59.803
-59.594
-59.36
-59.108
-58.844
-58.572
-58.298
-58.026
-57.759
-57.501
-57.254
-57.02
-56.8
-56.596
-56.408
-56.235
-56.077
-55.934
-55.804
-55.685
-55.578
-55.479
-55.388
-55.302
-55.221
-55.144
-55.069
-54.994
-54.92
-54.846
-54.771
-54.695
-54.617
-54.538
-54.457
-54.374
-54.29
-54.204
-54.117
-54.029
-53.94
-53.851
-53.762
-53.675
-53.59
-53.509
-53.433
-53.363
-53.301
-53.249
-53.209
-53.182
-53.171
-53.177
-53.202
-53.248
-53.316
-53.408
-53.525
-53.668
-53.837
-54.035
-54.26
-54.513
-54.796
-55.107
-55.447
-55.815
-56.212
-56.637
-57.089
-57.568
-58.073
-58.603
-59.156
-59.731
-60.326
-60.938
-61.566
-62.206
-62.857
-63.515
-64.176
-64.837
-65.494
-66.143
-66.78
-67.4
-68.0
-68.573
-69.117
-69.626
-70.097
-70.524
-70.904
-71.232
-71.504
-71.716
-71.865
-71.946
-71.956
-71.893
-71.754
-71.538
-71.244
-70.87
-70.419
-69.891
-69.29
-68.616
-67.875
-67.068
-66.202
-65.28
-64.307
-63.289
-62.231
-61.139
-60.023
-58.889
-57.748
-56.608
-55.477
-54.363
-53.276
-52.224
-51.218
-50.262
-49.363
-48.527
-47.763
-47.083
-46.493
-45.996
-45.589
-45.268
-45.027
-44.86
-44.753
-44.683
-44.629
-44.567
-44.478
-44.348
-44.162
-43.901
-43.542
-43.059
-42.432
-41.661
-40.748
-39.699
-38.527
-37.253
-35.916
-34.587
-33.336
-32.237
-31.37
-30.801
-30.604
-30.855
-31.611
-32.934
-34.892
-37.52
-40.854
-44.923
-49.695
-55.164
-61.338
-68.062
-75.102
-82.111
-88.544
-93.923
-97.892
-99.97
-99.675
-96.87
-91.596
-84.364
-76.276
-68.227
-60.943
-55.292
-51.908
-50.886
-51.928
-53.756
-54.116
-50.934
-42.032
-25.21
1.13
37.875
84.923
140.591
201.829
264.89
324.794
376.175
413.914
432.811
428.732
399.218
342.836
261.128
159.488
42.051
-87.163
-224.555
-370.202
-516.703
-650.228
-758.447
-827.515
-854.641
-849.64
-821.433
-780.141
-730.978
-671.384
-601.687
-524.073
-442.039
-361.719
-287.609
-222.266
-167.35
-123.381
-90.079
-66.412
-51.02
-42.369
-38.374
-37.043
-36.473
-34.734
-30.931
-25.046
-17.245
-8.039
1.744
11.369
19.898
26.276
30.165
31.698
31.178
29.178
26.267
22.93
19.791
17.505
16.403
16.607
18.091
20.675
24.23
28.652
33.774
39.41
45.394
51.581
57.86
64.146
70.331
76.295
81.919
87.093
91.76
95.897
99.507
102.619
105.265
107.49
109.354
110.924
112.268
113.446
114.518
115.534
116.557
117.647
118.862
120.258
121.872
123.728
125.844
128.225
130.868
133.769
136.917
140.302
143.923
147.776
151.849
156.13
160.595
165.22
169.984
174.855
179.797
184.77
189.731
194.647
199.491
204.231
208.831
213.244
217.41
221.29
224.858
228.095
231.006
233.589
235.846
237.789
239.429
240.795
241.94
242.919
243.797
244.631
245.418
246.205
247.093
248.077
249.109
249.983
250.261
249.703
248.291
245.989
242.864
239.033
234.501
229.738
225.675
222.746
221.013
220.157
219.18
217.236
213.759
207.467
196.7
180.4
157.802
129.116
95.932
59.689
21.737
