64.84
73.316
78.413
80.239
79.302
76.761
73.745
71.134
69.509
69.105
69.909
71.628
73.903
76.41
78.733
80.424
81.221
80.998
79.724
77.494
74.367
70.346
65.494
59.918
53.707
46.966
39.808
32.309
24.575
16.738
8.893
1.119
-6.521
-14.003
-21.295
-28.356
-35.144
-41.604
-47.693
-53.396
-58.705
-63.624
-68.18
-72.401
-76.326
-80.022
-83.53
-86.876
-90.076
-93.125
-96.017
-98.758
-101.353
-103.809
-106.135
-108.332
-110.399
-112.34
-114.148
-115.812
-117.316
-118.63
-119.732
-120.616
-121.275
-121.716
-121.944
-121.962
-121.78
-121.41
-120.863
-120.148
-119.274
-118.248
-117.08
-115.781
-114.366
-112.853
-111.259
-109.596
-107.88
-106.123
-104.337
-102.534
-100.724
-98.915
-97.116
-95.335
-93.582
-91.869
-90.204
-88.596
-87.054
-85.586
-84.2
-82.903
-81.701
-80.596
-79.595
-78.699
-77.912
-77.236
-76.672
-76.221
-75.884
-75.66
-75.549
-75.55
-75.66
-75.877
-76.198
-76.619
-77.138
-77.75
-78.45
-79.235
-80.1
-81.04
-82.051
-83.126
-84.26
-85.447
-86.681
-87.955
-89.261
-90.593
-91.944
-93.307
-94.675
-96.042
-97.401
-98.745
-100.068
-101.365
-102.627
-103.851
-105.028
-106.154
-107.222
-108.228
-109.166
-110.031
-110.818
-111.523
-112.141
-112.667
-113.099
-113.431
-113.66
-113.783
-113.797
-113.701
-113.495
-113.176
-112.746
-112.208
-111.563
-110.815
-109.968
-109.025
-107.992
-106.873
-105.674
-104.401
-103.058
-101.653
-100.193
-98.688
-97.146
-95.578
-93.994
-92.404
-90.818
-89.245
-87.697
-86.182
-84.705
-83.277
-81.907
-80.607
-79.393
-78.271
-77.247
-76.32
-75.49
-74.75
-74.091
-73.497
-72.947
-72.423
-71.914
-71.411
-70.91
-70.402
-69.872
-69.301
-68.67
-67.968
-67.191
-66.335
-65.403
-64.403
-63.365
-62.328
-61.342
-60.445
-59.667
-59.03
-58.55
-58.264
-58.206
-58.413
-58.926
-59.767
-60.947
-62.484
-64.4
-66.698
-69.364
-72.359
-75.61
-79.087
-82.811
-86.702
-90.601
-94.253
-97.267
-99.308
-100.169
-99.547
-97.064
-92.682
-86.565
-79.173
-71.5
-64.285
-57.934
-53.132
-50.471
-49.919
-51.192
-53.349
-54.472
-53.179
-48.383
-38.355
-21.776
1.997
33.308
71.187
113.422
158.104
202.709
243.283
276.006
297.098
302.605
289.907
257.407
203.503
129.248
39.041
-63.809
-175.81
-294.03
-418.754
-543.557
-656.432
-746.681
-802.337
-821.155
-811.659
-781.256
-738.564
-688.558
-629.584
-562.628
-490.254
-415.257
-342.67
-276.504
-218.796
-170.709
-132.493
-103.357
-81.933
-67.24
-58.055
-52.508
-49.02
-46.011
-41.903
-36.244
-29.244
-20.981
-11.857
-2.576
6.314
14.008
19.637
23.027
24.373
23.971
22.338
19.97
17.273
14.788
13.072
12.396
12.857
14.416
16.905
20.205
24.221
28.815
33.833
39.136
44.601
50.127
55.643
61.058
66.273
71.191
75.719
79.806
83.436
86.622
89.4
91.809
93.893
95.708
97.32
98.791
100.181
101.544
102.924
104.369
105.93
107.653
109.587
111.762
114.192
116.884
119.835
123.036
126.478
130.143
134.006
138.045
142.238
146.566
151.009
155.545
160.149
164.794
169.451
174.095
178.699
183.237
187.682
192.008
196.189
200.2
204.02
207.624
210.987
214.085
216.896
219.397
221.569
223.394
224.854
225.934
226.622
226.908
226.785
226.247
225.292
223.917
222.125
219.92
217.306
214.291
210.886
207.101
202.951
198.45
193.616
188.466
183.022
177.303
171.333
165.134
158.732
152.15
145.414
138.55
131.583
124.539
117.444
110.324
103.203
96.105
89.055
82.076
75.188
68.412
61.768
55.274
48.947
42.801
36.851
31.109
25.587
20.294
15.239
10.427
5.865
1.557
-2.496
-6.291
-9.83
-13.113
-16.143
-18.924
-21.461
-23.76
-25.828
-27.672
-29.302
-30.726
-31.955
-32.999
-33.868
-34.574
-35.129
-35.543
-35.83
-35.999
-36.064
-36.035
-35.923
-35.74
-35.496
-35.202
-34.866
-34.498
-34.108
-33.704
-33.293
-32.882
-32.479
-32.09
-31.719
-31.373
-31.054
-30.768
-30.517
-30.304
-30.131
-30.0
-29.913
-29.869
-29.871
-29.917
-30.008
-30.142
-30.319
-30.538
-30.798
-31.096
-31.431
-31.801
-32.204
-32.638
-33.1
-33.588
-34.099
-34.63
-35.178
-35.74
-36.313
-36.893
-37.478
-38.065
-38.649
-39.229
-39.801
-40.362
-40.908
-41.436
-41.943
-42.426
-42.881
-43.305
-43.695
-44.046
-44.357
-44.624
-44.843
-45.011
-45.126
-45.184
-45.183
-45.12
-44.992
-44.798
-44.537
-44.208
-43.81
-43.345
-42.812
-42.216
-41.557
-40.839
-40.065
-39.238
-38.363
-37.443
-36.483
-35.487
-34.46
-33.408
-32.337
-31.254
-30.165
-29.079
-28.002
-26.94
-25.903
-24.897
-23.93
-23.006
-22.13
-21.306
-20.542
-19.845
-19.222
-18.671
-18.19
-17.775
-17.421
-17.124
-16.87
-16.641
-16.416
-16.177
-15.911
-15.612
-15.272
-14.882
-14.426
-13.885
-13.255
-12.541
-11.75
-10.894
-9.977
-9.017
-8.052
-7.142
-6.349
-5.738
-5.352
-5.227
-5.406
-5.92
-6.815
-8.144
-9.94
-12.229
-15.027
-18.33
-22.164
-26.571
-31.48
-36.706
-41.976
-46.903
-51.16
-54.53
-56.713
-57.335
-56.2
-53.39
-49.304
-44.685
-40.235
-36.354
-33.463
-32.177
-32.844
-35.281
-38.747
-41.833
-42.926
-40.857
-34.423
-21.985
-2.304
25.096
59.907
100.621
144.944
190.552
234.43
272.457
300.439
314.488
311.262
288.696
245.798
182.388
99.823
1.35
-108.505
-224.325
-340.238
-450.514
-549.666
-632.761
-695.932
-736.886
-755.077
-751.215
-727.066
-685.368
-629.576
-563.686
-492.119
-418.946
-347.338
-280.178
-219.812
-167.858
-125.451
-92.679
-68.501
-51.621
-40.777
-34.31
-30.592
-27.993
-24.753
-20.003
-13.709
-6.037
2.628
11.684
20.584
28.564
34.664
38.514
40.196
39.967
38.326
35.754
32.649
29.543
27.035
25.485
25.052
25.755
27.455
30.039
33.424
37.475
42.033
46.95
52.101
57.38
62.714
68.02
73.2
78.16
82.811
87.08
90.929
94.35
97.356
99.977
102.252
104.225
105.949
107.488
108.9
110.238
111.553
112.885
114.279
115.78
117.431
119.268
121.316
123.584
126.074
128.782
131.7
134.815
138.109
141.559
145.144
148.844
152.639
156.511
160.438
164.396
168.361
172.306
176.209
180.045
183.791
187.422
190.916
194.249
197.4
200.348
203.073
205.552
207.765
209.691
211.312
212.61
213.571
214.179
214.422
214.291
213.778
212.877
211.586
209.903
207.828
205.363
202.515
199.288
195.692
191.738
187.436
182.802
177.85
172.598
167.065
161.27
155.234
148.98
142.53
135.908
129.139
122.246
115.256
108.194
101.085
93.953
86.825
79.724
72.675
65.7
58.822
52.062
45.441
38.977
32.688
26.591
20.7
15.031
9.595
4.403
-0.535
-5.21
-9.617
-13.749
-17.603
-21.176
-24.468
-27.478
-30.21
-32.665
-34.848
-36.764
-38.421
-39.824
-40.985
-41.91
-42.613
-43.102
-43.39
-43.49
-43.414
-43.174
-42.786
-42.261
-41.614
-40.857
-40.005
-39.071
-38.068
-37.008
-35.904
-34.768
-33.612
-32.447
-31.283
-30.13
-28.997
-27.893
-26.826
-25.803
-24.831
-23.916
-23.063
-22.276
-21.56
-20.917
-20.349
-19.859
-19.448
-19.115
-18.861
-18.685
-18.586
-18.563
-18.612
-18.732
-18.921
-19.175
-19.491
-19.866
-20.296
-20.777
-21.306
-21.879
-22.493
-23.142
-23.824
-24.535
-25.272
-26.03
-26.806
-27.597
-28.4
-29.209
-30.024
-30.839
-31.652
-32.46
-33.26
-34.049
-34.826
-35.588
-36.333
-37.058
-37.763
-38.445
-39.103
-39.734
-40.338
-40.912
-41.455
-41.966
-42.443
-42.884
-43.289
-43.656
-43.982
-44.267
-44.508
-44.705
-44.857
-44.961
-45.019
-45.029
-44.992
-44.908
-44.78
-44.609
-44.397
-44.147
-43.86
-43.541
-43.191
-42.813
-42.412
-41.987
-41.544
-41.086
-40.617
-40.142
-39.665
-39.191
-38.724
-38.268
-37.829
-37.411
-37.02
-36.656
-36.322
-36.02
-35.754
-35.532
-35.356
-35.223
-35.128
-35.066
-35.029
-35.011
-34.997
-34.966
-34.898
-34.772
-34.575
-34.301
-33.941
-33.486
-32.92
-32.225
-31.395
-30.434
-29.353
-28.164
-26.876
-25.508
-24.1
-22.717
-21.422
-20.288
-19.362
-18.683
-18.297
-18.236
-18.551
-19.301
-20.524
-22.253
-24.508
-27.287
-30.621
-34.56
-39.043
-43.892
-48.83
-53.458
-57.438
-60.536
-62.443
-62.77
-61.286
-58.056
-53.475
-48.308
-43.316
-38.951
-35.663
-34.114
-34.703
-37.273
-41.097
-44.711
-46.378
-44.836
-38.792
-26.475
-6.552
21.552
57.631
100.143
146.708
194.994
241.892
283.065
314.249
331.408
330.741
309.987
268.029
204.068
120.203
20.498
-91.888
-211.701
-335.199
-459.381
-575.101
-674.743
-750.651
-795.456
-812.171
-804.811
-777.482
-736.781
-683.633
-619.438
-548.24
-472.963
-398.222
-328.286
-265.437
-211.487
-167.351
-133.153
-108.258
-91.289
-80.822
-75.22
-72.724
-71.835
-71.012
-68.907
-65.079
-59.649
-52.865
-45.3
-37.606
-30.337
-24.241
-20.013
-17.794
-17.395
-18.476
-20.506
-22.999
-25.541
-27.615
-28.762
-28.768
-27.586
-25.292
-22.057
-18.014
-13.281
-8.017
-2.388
3.46
9.398
15.331
21.172
26.824
32.179
37.137
41.629
45.63
49.141
52.186
54.799
57.018
58.897
60.498
61.883
63.11
64.234
65.301
66.363
67.47
68.675
70.028
71.565
73.306
75.263
77.438
79.828
82.429
85.229
88.208
91.35
94.64
98.066
101.613
105.267
109.007
112.814
116.666
120.542
124.424
128.289
132.117
135.887
139.578
143.171
146.647
149.984
153.161
156.157
158.95
161.519
163.844
165.907
167.69
169.175
170.35
171.201
171.718
171.892
171.716
171.185
170.295
169.044
167.433
165.465
163.142
160.472
157.462
154.121
150.46
146.493
142.234
137.697
132.901
127.863
122.603
117.142
111.499
105.698
99.76
93.709
87.568
81.361
75.109
68.838
62.571
56.329
50.135
44.011
37.976
32.051
26.253
20.602
15.113
9.802
4.684
-0.23
-4.927
-9.397
-13.63
-17.619
-21.358
-24.841
-28.065
-31.027
-33.727
-36.165
-38.342
-40.26
-41.924
-43.338
-44.509
-45.443
-46.147
-46.631
-46.904
-46.975
-46.855
-46.554
-46.085
-45.458
-44.686
-43.779
-42.75
-41.611
-40.373
-39.048
-37.646
-36.179
-34.658
-33.091
-31.49
-29.863
-28.219
-26.566
-24.912
-23.263
-21.627
-20.009
-18.414
-16.847
-15.312
-13.813
-12.352
-10.933
-9.557
-8.226
-6.942
-5.704
-4.514
-3.371
-2.275
-1.227
-0.224
0.733
1.646
2.516
3.343
4.128
4.873
5.578
6.244
6.872
7.464
8.018
8.537
9.02
9.467
9.878
10.255
10.595
10.899
11.166
11.398
11.592
11.749
11.869
11.952
11.998
12.007
11.98
11.917
11.818
11.683
11.515
11.313
11.08
10.817
10.526
10.21
9.871
9.512
9.137
8.749
8.353
7.952
7.551
7.156
6.77
6.4
6.05
5.728
5.438
5.187
4.979
4.82
4.714
4.667
4.681
4.76
4.906
5.12
5.404
5.761
6.19
6.691
7.264
7.909
8.624
9.408
10.258
11.169
12.138
13.159
14.228
15.338
16.483
17.656
18.848
20.053
21.266
22.481
23.69
24.886
26.056
27.194
28.298
29.365
30.395
31.387
32.344
33.273
34.188
35.104
36.035
36.991
37.972
38.984
40.034
41.131
42.286
43.504
44.777
46.098
47.458
48.845
50.243
51.612
52.895
54.029
54.946
55.589
55.914
55.876
55.444
54.572
53.204
51.299
48.821
45.74
42.055
37.738
32.732
27.086
20.977
14.685
8.626
3.166
-1.452
-4.929
-6.874
-7.066
-5.575
-2.801
0.474
3.503
5.898
7.287
7.094
5.025
1.315
-3.254
-7.147
-8.664
-6.69
-0.086
12.779
33.064
61.245
97.072
138.931
184.599
232.13
278.762
320.437
353.193
373.239
376.98
362.137
327.196
270.743
193.998
101.494
-3.242
-116.698
-235.934
-361.052
-485.642
-597.853
-687.01
-741.39
-758.701
-746.947
-713.472
-666.987
-612.525
-548.91
-477.677
-401.57
-323.803
-250.131
-184.571
-129.136
-85.097
-52.057
-28.597
-13.17
-4.198
0.328
2.4
3.893
6.679
11.676
18.837
27.814
38.072
48.835
59.354
68.749
75.968
80.583
82.713
82.668
80.988
78.217
74.804
71.323
68.416
66.47
65.649
65.973
67.306
69.529
72.571
76.302
80.568
85.23
90.157
95.243
100.415
105.586
110.654
115.519
120.08
124.251
127.991
131.288
134.15
136.605
138.69
140.445
141.926
143.197
144.319
145.349
146.339
147.333
148.379
149.525
150.819
152.306
154.012
155.95
158.126
160.537
163.178
166.039
169.103
172.347
175.751
179.294
182.959
186.727
190.579
194.488
198.43
202.38
206.312
210.203
214.027
217.76
221.378
224.855
228.17
231.3
234.223
236.916
239.356
241.521
243.39
244.944
246.165
247.037
247.546
247.678
247.425
246.779
245.735
244.289
242.44
240.189
237.539
234.496
231.066
227.259
223.086
218.56
213.697
208.512
203.024
197.252
191.218
184.944
178.453
171.768
164.915
157.919
150.806
143.6
136.329
129.019
121.694
114.38
107.102
99.884
92.749
85.72
78.816
72.059
65.467
59.057
52.845
46.845
41.07
35.532
30.241
25.205
20.431
15.925
11.689
7.727
4.038
0.623
-2.521
-5.397
-8.01
-10.366
-12.472
-14.335
-15.965
-17.371
-18.564
-19.554
-20.354
-20.976
-21.431
-21.733
-21.895
-21.929
-21.847
-21.664
-21.39
-21.039
-20.622
-20.15
-19.633
-19.084
-18.51
-17.92
-17.324
-16.729
-16.141
-15.567
-15.011
-14.479
-13.973
-13.499
-13.056
-12.649
-12.277
-11.941
-11.641
-11.377
-11.149
-10.953
-10.79
-10.657
-10.552
-10.472
-10.415
-10.379
-10.361
-10.358
-10.369
-10.389
-10.418
-10.452
-10.49
-10.53
-10.57
-10.61
-10.648
-10.685
-10.719
-10.751
-10.782
-10.812
-10.843
-10.876
-10.912
-10.954
-11.004
-11.064
-11.137
-11.225
-11.33
-11.455
-11.604
-11.777
-11.977
-12.206
-12.466
-12.758
-13.082
-13.44
-13.832
-14.258
-14.719
-15.213
-15.739
-16.297
-16.885
-17.5
-18.14
-18.802
-19.482
-20.177
-20.882
-21.593
-22.305
-23.013
-23.711
-24.394
-25.057
-25.692
-26.295
-26.86
-27.38
-27.849
-28.265
-28.62
-28.912
-29.137
-29.293
-29.378
-29.392
-29.334
-29.205
-29.005
-28.736
-28.4
-28.001
-27.54
-27.021
-26.449
-25.828
-25.165
-24.468
-23.743
-22.998
-22.239
-21.477
-20.719
-19.975
-19.252
-18.558
-17.898
-17.28
-16.713
-16.209
-15.775
-15.411
-15.118
-14.894
-14.738
-14.645
-14.605
-14.6
-14.612
-14.626
-14.631
-14.623
-14.592
-14.529
-14.42
-14.247
-14.005
-13.697
-13.327
-12.901
-12.428
-11.923
-11.42
-10.976
-10.649
-10.498
-10.572
-10.907
-11.542
-12.51
-13.853
-15.623
-17.857
-20.584
-23.826
-27.589
-31.899
-36.806
-42.267
-48.117
-54.102
-59.853
-65.041
-69.444
-72.781
-74.676
-74.886
-73.441
-70.686
-67.311
-63.998
-61.103
-58.949
-58.089
-58.894
-61.26
-64.573
-67.485
-68.421
-66.372
-60.382
-48.963
-30.907
-5.569
27.112
65.822
108.509
153.466
198.326
239.4
272.916
295.095
302.078
291.345
261.346
210.406
139.309
52.175
-47.953
-157.941
-274.872
-399.126
-524.857
-640.109
-734.225
-795.245
-819.957
-816.249
-791.312
-753.314
-706.975
-650.483
-584.481
-511.411
-434.644
-359.819
-291.286
-231.545
-182.132
-143.425
-114.93
-95.451
-83.523
-77.488
-75.187
-74.643
-74.101
-71.937
-67.524
-61.003
-52.664
-43.1
-33.175
-23.636
-15.331
-9.128
-5.259
-3.557
-3.7
-5.158
-7.412
-10.023
-12.47
-14.228
-15.012
-14.718
-13.368
-11.105
-8.044
-4.279
0.062
4.838
9.918
15.192
20.565
25.964
31.313
36.525
41.517
46.211
50.538
54.464
57.989
61.128
63.912
66.381
68.573
70.54
72.341
74.032
75.664
77.283
78.926
80.631
82.439
84.39
86.518
88.844
91.376
94.114
97.052
100.181
103.49
106.959
110.565
114.284
118.097
121.983
125.925
129.902
133.888
137.86
141.792
145.66
149.441
153.111
156.646
160.023
163.219
166.213
168.985
171.516
173.783
175.768
177.452
178.816
179.845
180.525
180.843
180.787
180.349
179.524
178.307
176.696
174.691
172.295
169.51
166.345
162.805
158.902
154.647
150.052
145.133
139.906
134.39
128.603
122.565
116.299
109.828
103.174
96.362
89.417
82.364
75.227
68.033
60.807
53.573
46.358
39.184
32.075
25.055
18.146
11.367
4.739
-1.72
-7.993
-14.064
-19.92
-25.546
-30.933
-36.07
-40.948
-45.56
-49.902
-53.969
-57.758
-61.269
-64.502
-67.459
-70.143
-72.559
-74.713
-76.612
-78.264
-79.679
-80.868
-81.84
-82.61
-83.188
-83.59
-83.828
-83.917
-83.872
-83.707
-83.437
-83.077
-82.642
-82.145
-81.601
-81.024
-80.426
-79.82
-79.218
-78.631
-78.07
-77.546
-77.066
-76.639
-76.274
-75.975
-75.75
-75.602
-75.536
-75.554
-75.658
-75.85
-76.129
-76.496
-76.948
-77.483
-78.099
-78.791
-79.556
-80.388
-81.283
-82.235
-83.237
-84.284
-85.368
-86.484
-87.624
-88.782
-89.952
-91.126
-92.298
-93.463
-94.614
-95.745
-96.853
-97.931
-98.975
-99.982
-100.948
-101.87
-102.745
-103.572
-104.349
-105.076
-105.752
-106.377
-106.953
-107.48
-107.961
-108.398
-108.794
-109.152
-109.476
-109.769
-110.036
-110.281
-110.509
-110.724
-110.931
-111.135
-111.341
-111.553
-111.775
-112.011
-112.266
-112.542
-112.843
-113.17
-113.527
-113.915
-114.336
-114.789
-115.277
-115.798
-116.352
-116.938
-117.553
-118.197
-118.864
-119.553
-120.26
-120.978
-121.705
-122.435
-123.162
-123.88
-124.583
-125.265
-125.919
-126.538
-127.116
-127.645
-128.119
-128.532
-128.879
-129.154
-129.352
-129.471
-129.507
-129.46
-129.328
-129.11
-128.807
-128.419
-127.948
-127.395
-126.765
-126.058
-125.28
-124.436
-123.532
-122.577
-121.578
-120.543
-119.481
-118.4
-117.309
-116.22
-115.142
-114.082
-113.049
-112.051
-111.101
-110.211
-109.39
-108.643
-107.97
-107.371
-106.844
-106.385
-105.985
-105.624
-105.288
-104.96
-104.625
-104.276
-103.902
-103.487
-103.017
-102.471
-101.836
-101.11
-100.292
-99.381
-98.39
-97.331
-96.232
-95.146
-94.122
-93.211
-92.474
-91.954
-91.696
-91.748
-92.137
-92.903
-94.096
-95.746
-97.89
-100.555
-103.724
-107.408
-111.635
-116.32
-121.283
-126.245
-130.787
-134.553
-137.307
-138.747
-138.494
-136.336
-132.327
-126.86
-120.676
-114.458
-108.546
-103.256
-99.12
-96.444
-95.029
-94.152
-92.386
-88.159
-80.493
-68.452
-50.594
-25.814
6.363
45.783
90.959
139.738
190.286
240.101
285.421
322.319
346.926
355.68
346.232
317.049
266.93
195.912
107.314
5.678
-105.321
-220.32
-336.586
-451.412
-555.308
-641.194
-702.028
-730.991
-732.368
-710.724
-670.207
-618.197
-555.917
-484.837
-409.132
-331.182
-255.277
-185.996
-125.677
-75.844
-37.022
-8.437
11.348
23.802
30.636
34.112
36.245
38.757
43.2
50.089
59.166
70.1
82.255
94.695
106.644
117.247
125.653
131.658
135.431
137.266
137.676
137.161
136.131
135.084
134.505
134.641
135.616
137.429
139.96
143.121
146.827
150.96
155.403
160.047
164.8
169.588
174.348
179.015
183.529
187.826
191.849
195.547
198.868
201.793
204.333
206.506
208.35
209.908
211.218
212.334
213.318
214.223
215.1
215.991
216.928
217.951
219.097
220.402
221.9
223.613
225.549
227.713
230.102
232.711
235.53
238.543
241.725
245.057
248.518
252.09
255.754
259.489
263.271
267.072
270.868
274.631
278.337
281.958
285.468
288.84
292.049
295.07
297.882
300.459
302.778
304.817
306.553
307.966
309.036
309.747
310.08
310.024
309.566
308.698
307.413
305.707
303.578
301.025
298.052
294.663
290.864
286.666
282.078
277.114
271.789
266.12
260.125
253.824
247.24
240.395
233.313
226.019
218.54
210.901
203.131
195.255
187.303
179.301
171.278
163.26
155.274
147.346
139.502
131.766
124.161
116.71
109.433
102.349
95.477
88.833
82.432
76.287
70.409
64.81
59.497
54.477
49.754
45.333
41.215
37.399
33.885
30.669
27.747
25.112
22.759
20.677
18.858
17.291
15.964
14.866
13.982
13.3
12.805
12.481
12.315
12.292
12.395
12.611
12.924
13.319
13.782
14.299
14.856
15.441
16.04
16.642
17.236
17.812
18.359
18.869
19.335
19.748
20.103
20.394
20.617
20.767
20.842
20.839
20.758
20.597
20.356
20.037
19.64
19.167
18.62
18.003
17.318
16.569
15.76
14.895
13.978
13.014
12.008
10.963
9.885
8.778
7.647
6.497
5.333
4.158
2.977
1.794
0.614
-0.561
-1.726
-2.878
-4.014
-5.132
-6.227
-7.299
-8.345
-9.364
-10.353
-11.311
-12.238
-13.132
-13.994
-14.822
-15.616
-16.378
-17.105
-17.8
-18.463
-19.093
-19.693
-20.262
-20.802
-21.315
-21.8
-22.261
-22.697
-23.112
-23.506
-23.883
-24.242
-24.588
-24.922
-25.246
-25.562
-25.873
-26.182
-26.49
-26.8
-27.114
-27.433
-27.76
-28.096
-28.442
-28.799
-29.168
-29.55
-29.944
-30.351
-30.772
-31.205
-31.651
-32.108
-32.576
-33.053
-33.539
-34.03
-34.524
-35.02
-35.515
-36.004
-36.486
-36.957
-37.412
-37.847
-38.259
-38.641
-38.99
-39.3
-39.566
-39.783
-39.948
-40.055
-40.101
-40.083
-39.998
-39.844
-39.622
-39.33
-38.968
-38.537
-38.037
-37.47
-36.837
-36.141
-35.383
-34.566
-33.695
-32.775
-31.813
-30.816
-29.79
-28.742
-27.681
-26.613
-25.548
-24.494
-23.457
-22.445
-21.469
-20.538
-19.664
-18.858
-18.121
-17.456
-16.862
-16.332
-15.862
-15.442
-15.055
-14.688
-14.329
-13.971
-13.606
-13.229
-12.828
-12.39
-11.903
-11.354
-10.744
-10.079
-9.366
-8.626
-7.886
-7.175
-6.543
-6.039
-5.7
-5.568
-5.688
-6.089
-6.815
-7.906
-9.385
-11.289
-13.648
-16.48
-19.812
-23.64
-27.929
-32.668
-37.853
-43.394
-49.134
-54.811
-60.047
-64.518
-67.99
-70.161
-70.663
-69.296
-66.15
-61.641
-56.531
-51.567
-47.195
-43.872
-42.28
-42.802
-45.23
-48.807
-52.069
-53.341
-51.463
-45.217
-32.876
-13.153
14.446
49.66
90.957
136.039
182.703
227.962
267.529
297.156
313.016
311.504
290.165
247.801
183.614
99.477
0.676
-108.7
-224.884
-344.826
-468.321
-588.855
-695.013
-776.438
-821.956
-830.472
-810.605
-770.439
-719.756
-663.425
-599.942
-530.592
-457.322
-383.028
-313.411
-252.05
-200.459
-159.629
-128.937
-106.952
-92.414
-83.838
-79.19
-76.613
-74.408
-70.898
-65.369
-57.92
-48.821
-38.59
-28.014
-17.801
-8.778
-1.877
2.588
4.773
4.99
3.767
1.627
-0.997
-3.566
-5.497
-6.453
-6.3
-5.034
-2.796
0.3
4.171
8.691
13.709
19.088
24.7
30.436
36.22
41.968
47.578
52.959
58.016
62.671
66.886
70.653
73.987
76.917
79.479
81.714
83.675
85.427
87.028
88.534
89.995
91.454
92.955
94.545
96.269
98.169
100.267
102.576
105.1
107.836
110.779
113.919
117.24
120.72
124.34
128.081
131.928
135.863
139.868
143.921
147.997
152.075
156.13
160.143
164.089
167.946
171.692
175.305
178.764
182.05
185.142
188.019
190.66
193.045
195.155
196.974
198.485
199.674
200.527
201.034
201.187
200.98
200.407
199.466
198.156
196.478
194.435
192.032
189.275
186.173
182.735
178.973
174.9
170.531
165.882
160.97
155.815
150.436
144.853
139.088
133.164
127.102
120.926
114.659
108.325
101.947
95.548
89.151
82.778
76.451
70.19
64.017
57.949
52.006
46.203
40.556
35.081
29.791
24.697
19.812
15.144
10.702
6.494
2.524
-1.202
-4.681
-7.913
-10.895
-13.63
-16.118
-18.364
-20.372
-22.146
-23.694
-25.023
-26.142
-27.058
-27.783
-28.327
-28.7
-28.913
-28.979
-28.909
-28.716
-28.41
-28.004
-27.511
-26.942
-26.308
-25.621
-24.892
-24.131
-23.35
-22.557
-21.763
-20.975
-20.202
-19.451
-18.731
-18.045
-17.402
-16.805
-16.258
-15.765
-15.329
-14.952
-14.636
-14.381
-14.187
-14.054
-13.982
-13.969
-14.013
-14.112
-14.263
-14.464
-14.712
-15.003
-15.334
-15.701
-16.101
-16.529
-16.981
-17.454
-17.945
-18.448
-18.96
-19.479
-19.999
-20.519
-21.034
-21.542
-22.041
-22.527
-22.999
-23.456
-23.895
-24.316
-24.718
-25.099
-25.46
-25.802
-26.123
-26.424
-26.706
-26.971
-27.218
-27.45
-27.667
-27.872
-28.065
-28.248
-28.423
-28.592
-28.756
-28.918
-29.079
-29.24
-29.404
-29.573
-29.747
-29.929
-30.12
-30.321
-30.533
-30.757
-30.994
-31.244
-31.508
-31.786
-32.078
-32.383
-32.702
-33.034
-33.378
-33.734
-34.101
-34.478
-34.863
-35.256
-35.654
-36.058
-36.464
-36.873
-37.282
-37.69
-38.095
-38.495
-38.887
-39.271
-39.643
-40.001
-40.342
-40.665
-40.967
-41.247
-41.501
-41.728
-41.926
-42.093
-42.227
-42.326
-42.388
-42.412
-42.395
-42.337
-42.236
-42.089
-41.897
-41.657
-41.369
-41.031
-40.642
-40.2
-39.706
-39.157
-38.553
-37.895
-37.183
-36.417
-35.598
-34.73
-33.814
-32.856
-31.857
-30.823
-29.757
-28.663
-27.546
-26.411
-25.263
-24.106
-22.944
-21.784
-20.633
-19.498
-18.385
-17.3
-16.251
-15.242
-14.28
-13.373
-12.526
-11.742
-11.026
-10.383
-9.819
-9.341
-8.954
-8.657
-8.444
-8.31
-8.248
-8.25
-8.302
-8.383
-8.475
-8.561
-8.627
-8.664
-8.662
-8.608
-8.488
-8.284
-7.989
-7.603
-7.135
-6.591
-5.984
-5.333
-4.668
-4.045
-3.514
-3.124
-2.93
-2.97
-3.29
-3.929
-4.917
-6.285
-8.071
-10.296
-12.981
-16.15
-19.792
-23.913
-28.55
-33.6
-38.877
-44.119
-48.909
-52.891
-55.84
-57.419
-57.228
-55.217
-51.545
-46.665
-41.555
-36.919
-33.11
-30.773
-30.502
-32.283
-35.82
-40.11
-43.158
-43.502
-40.058
-31.121
-15.278
8.197
39.719
78.311
121.591
167.498
213.572
255.996
290.847
314.212
322.181
312.14
282.718
232.782
162.255
74.303
-26.796
-137.461
-252.234
-368.334
-483.226
-587.712
-674.857
-737.737
-769.555
-774.415
-756.867
-720.913
-673.536
-615.799
-549.023
-477.232
-402.82
-329.92
-262.845
-203.866
-154.602
-115.766
-86.842
-66.614
-53.734
-46.666
-43.383
-42.008
-40.85
-38.296
-33.676
-27.096
-18.793
-9.285
0.611
10.19
18.629
25.055
29.223
31.29
31.552
30.521
28.71
26.553
24.582
23.34
23.093
23.93
25.82
28.605
32.168
36.419
41.215
46.404
51.85
57.434
63.064
68.67
74.161
79.44
84.411
88.981
93.099
96.749
99.937
102.691
105.045
107.038
108.723
110.163
111.416
112.54
113.587
114.599
115.626
116.717
117.92
119.285
120.842
122.609
124.596
126.803
129.227
131.862
134.694
137.704
140.874
144.188
147.63
151.187
154.84
158.568
162.349
166.161
169.98
173.785
177.554
181.263
184.891
188.414
191.812
195.064
198.149
201.044
203.728
206.179
208.376
210.3
211.933
213.258
214.259
214.924
215.241
215.202
214.8
214.03
212.888
211.373
209.486
207.23
204.609
201.629
198.299
194.629
190.63
186.317
181.703
176.805
171.641
166.23
160.592
154.748
148.72
142.529
136.2
129.755
123.218
116.613
109.963
103.292
96.622
89.978
83.379
76.849
70.407
64.071
57.862
51.794
45.886
40.152
34.604
29.257
24.12
19.205
14.518
10.069
5.862
1.902
-1.808
-5.265
-8.469
-11.421
-14.122
-16.575
-18.784
-20.754
-22.491
-24.001
-25.292
-26.373
-27.253
-27.94
-28.446
-28.781
-28.954
-28.979
-28.865
-28.623
-28.266
-27.805
-27.25
-26.612
-25.903
-25.133
-24.313
-23.451
-22.559
-21.645
-20.717
-19.785
-18.855
-17.936
-17.033
-16.154
-15.304
-14.488
-13.711
-12.977
-12.29
-11.653
-11.069
-10.541
-10.069
-9.656
-9.302
-9.009
-8.776
-8.604
-8.492
-8.441
-8.448
-8.513
-8.635
-8.813
-9.045
-9.328
-9.662
-10.043
-10.471
-10.942
-11.455
-12.006
-12.594
-13.216
-13.87
-14.552
-15.261
-15.993
-16.747
-17.519
-18.307
-19.108
-19.921
-20.741
-21.568
-22.398
-23.228
-24.058
-24.883
-25.702
-26.513
-27.313
-28.1
-28.872
-29.628
-30.365
-31.082
-31.777
-32.448
-33.095
-33.716
-34.31
-34.876
-35.413
-35.922
-36.401
-36.85
-37.269
-37.659
-38.019
-38.351
-38.653
-38.927
-39.175
-39.396
-39.591
-39.763
-39.913
-40.042
-40.151
-40.243
-40.319
-40.381
-40.432
-40.473
-40.507
-40.535
-40.559
-40.582
-40.607
-40.633
-40.665
-40.703
-40.748
-40.802
-40.866
-40.94
-41.024
-41.12
-41.226
-41.343
-41.47
-41.606
-41.751
-41.904
-42.063
-42.226
-42.392
-42.559
-42.723
-42.882
-43.033
-43.174
-43.3
-43.409
-43.496
-43.559
-43.593
-43.594
-43.558
-43.48
-43.358
-43.186
-42.961
-42.681
-42.343
-41.944
-41.483
-40.96
-40.375
-39.729
-39.022
-38.255
-37.431
-36.552
-35.62
-34.637
-33.607
-32.533
-31.419
-30.271
-29.095
-27.897
-26.682
-25.456
-24.227
-23.001
-21.787
-20.59
-19.415
-18.267
-17.151
-16.077
-15.053
-14.085
-13.173
-12.318
-11.516
-10.765
-10.06
-9.389
-8.735
-8.079
-7.404
-6.698
-5.956
-5.171
-4.332
-3.426
-2.439
-1.365
-0.209
1.023
2.322
3.677
5.072
6.466
7.801
9.014
10.039
10.822
11.321
11.491
11.296
10.693
9.629
8.066
5.976
3.337
0.146
-3.617
-8.003
-12.966
-18.34
-23.869
-29.175
-33.913
-37.848
-40.687
-42.045
-41.676
-39.603
-36.17
-32.081
-28.05
-24.478
-21.727
-20.375
-20.815
-22.947
-26.149
-29.066
-30.074
-28.078
-22.053
-10.457
7.978
33.899
67.326
106.927
150.56
196.355
241.832
283.218
316.529
337.823
343.426
330.918
298.816
245.959
172.364
81.332
-22.619
-135.807
-252.805
-370.892
-487.455
-593.084
-680.754
-743.435
-774.278
-777.58
-757.952
-719.55
-669.706
-609.588
-540.608
-466.929
-390.942
-316.936
-249.469
-190.851
-142.616
-105.334
-78.288
-60.119
-49.413
-44.503
-43.187
-43.499
-43.731
-42.333
-38.742
-33.133
-25.773
-17.229
-8.368
0.067
7.253
12.368
15.226
16.032
15.118
13.015
10.25
7.27
4.595
2.743
1.956
2.299
3.724
6.065
9.199
13.025
17.403
22.18
27.221
32.41
37.648
42.864
47.969
52.867
57.466
61.681
65.466
68.811
71.726
74.243
76.398
78.236
79.809
81.178
82.404
83.544
84.648
85.762
86.931
88.202
89.621
91.233
93.064
95.129
97.434
99.977
102.751
105.747
108.951
112.34
115.895
119.597
123.428
127.373
131.41
135.518
139.671
143.846
148.018
152.164
156.259
160.279
164.2
167.998
171.65
175.134
178.426
181.505
184.345
186.925
189.224
191.222
192.899
194.24
195.227
195.849
196.095
195.956
195.425
194.498
193.173
191.449
189.328
186.814
183.914
180.634
176.985
172.979
168.629
163.951
158.961
153.678
148.123
142.315
136.279
130.035
123.61
117.028
110.313
103.491
96.588
89.631
82.643
75.652
68.682
61.757
54.901
48.137
41.486
34.968
28.603
22.409
16.403
10.599
5.012
-0.347
-5.465
-10.335
-14.948
-19.297
-23.379
-27.189
-30.727
-33.992
-36.986
-39.71
-42.17
-44.369
-46.315
-48.016
-49.478
-50.713
-51.73
-52.541
-53.156
-53.589
-53.851
-53.957
-53.918
-53.749
-53.462
-53.072
-52.589
-52.029
-51.402
-50.721
-49.998
-49.243
-48.467
-47.68
-46.89
-46.107
-45.338
-44.589
-43.868
-43.178
-42.525
-41.913
-41.344
-40.821
-40.345
-39.918
-39.539
-39.209
-38.926
-38.689
-38.497
-38.347
-38.236
-38.162
-38.122
-38.112
-38.129
-38.169
-38.229
-38.305
-38.393
-38.492
-38.596
-38.704
-38.811
-38.916
-39.016
-39.109
-39.192
-39.265
-39.326
-39.374
-39.409
-39.429
-39.436
-39.429
-39.409
-39.377
-39.332
-39.278
-39.213
-39.141
-39.062
-38.978
-38.891
-38.801
-38.711
-38.622
-38.536
-38.454
-38.376
-38.305
-38.241
-38.185
-38.138
-38.101
-38.073
-38.055
-38.048
-38.05
-38.063
-38.085
-38.117
-38.157
-38.204
-38.257
-38.316
-38.378
-38.443
-38.509
-38.574
-38.638
-38.699
-38.756
-38.807
-38.852
-38.888
-38.917
-38.935
-38.944
-38.943
-38.931
-38.909
-38.877
-38.836
-38.786
-38.727
-38.661
-38.588
-38.508
-38.423
-38.334
-38.24
-38.142
-38.041
-37.939
-37.835
-37.731
-37.627
-37.524
-37.422
-37.321
-37.222
-37.125
-37.029
-36.933
-36.837
-36.74
-36.641
-36.538
-36.43
-36.314
-36.188
-36.049
-35.893
-35.719
-35.521
-35.296
-35.041
-34.753
-34.429
-34.066
-33.662
-33.216
-32.728
-32.196
-31.621
-31.002
-30.34
-29.634
-28.886
-28.096
-27.264
-26.393
-25.485
-24.544
-23.575
-22.584
-21.575
-20.554
-19.527
-18.499
-17.477
-16.467
-15.473
-14.501
-13.559
-12.657
-11.806
-11.015
-10.284
-9.615
-9.005
-8.449
-7.937
-7.459
-6.995
-6.532
-6.057
-5.564
-5.051
-4.507
-3.919
-3.275
-2.558
-1.757
-0.875
0.084
1.115
2.198
3.307
4.406
5.44
6.366
7.149
7.756
8.154
8.301
8.147
7.645
6.756
5.459
3.739
1.572
-1.067
-4.178
-7.758
-11.756
-16.125
-20.877
-25.927
-31.1
-36.146
-40.652
-44.245
-46.693
-47.664
-46.759
-43.937
-39.361
-33.467
-27.249
-21.442
-16.44
-12.962
-11.629
-12.404
-14.983
-18.362
-20.54
-20.056
-15.785
-5.946
10.887
35.406
67.965
107.52
151.643
198.202
244.581
286.792
320.798
342.63
348.403
335.534
302.647
248.701
173.834
81.467
-23.87
-138.422
-256.651
-375.684
-492.846
-598.859
-686.823
-749.904
-781.441
-785.703
-767.32
-730.409
-682.13
-623.604
-556.158
-483.788
-408.781
-335.208
-267.371
-207.504
-157.183
-117.12
-86.817
-65.101
-50.722
-42.227
-37.653
-35.192
-33.194
-30.054
-25.101
-18.433
-10.249
-1.034
8.43
17.485
25.339
31.13
34.628
36.006
35.576
33.866
31.409
28.645
26.118
24.389
23.735
24.255
25.921
28.573
32.09
36.377
41.287
46.655
52.337
58.203
64.149
70.096
75.942
81.581
86.908
91.825
96.276
100.242
103.728
106.761
109.375
111.613
113.529
115.185
116.644
117.965
119.202
120.4
121.612
122.887
124.278
125.833
127.586
129.553
131.745
134.161
136.797
139.648
142.699
145.929
149.321
152.858
156.524
160.307
164.186
168.143
172.154
176.196
180.248
184.287
188.292
192.24
196.109
199.876
203.521
207.024
210.362
213.514
216.457
219.169
221.629
223.818
225.717
227.307
228.574
229.503
230.083
230.304
230.158
229.639
228.744
227.469
225.815
223.784
221.379
218.606
215.472
211.986
208.161
204.007
199.541
194.778
189.735
184.431
178.886
173.121
167.158
161.019
154.729
148.31
141.787
135.184
128.527
121.839
115.144
108.467
101.831
95.258
88.77
82.387
76.129
70.014
64.061
58.284
52.7
47.322
42.161
37.23
32.538
28.092
23.9
19.966
16.295
12.889
9.748
6.873
4.261
1.911
-0.184
-2.026
-3.624
-4.984
-6.115
-7.027
-7.728
-8.23
-8.544
-8.682
-8.655
-8.477
-8.159
-7.713
-7.153
-6.491
-5.739
-4.909
-4.012
-3.061
-2.065
-1.036
0.017
1.084
2.157
3.226
4.286
5.328
6.346
7.336
8.29
9.207
10.081
10.909
11.689
12.42
13.099
13.726
14.301
14.823
15.294
15.714
16.085
16.408
16.684
16.916
17.106
17.255
17.367
17.444
17.487
17.5
17.484
17.442
17.376
17.288
17.18
17.053
16.91
16.752
16.58
16.396
16.2
15.995
15.78
15.557
15.326
15.088
14.842
14.59
14.332
14.067
13.795
13.516
13.231
12.938
12.638
12.33
12.014
11.689
11.355
11.012
10.659
10.297
9.924
9.54
9.146
8.742
8.326
7.898
7.459
7.009
6.547
6.072
5.586
5.087
4.576
4.053
3.516
2.967
2.405
1.83
1.242
0.642
0.03
-0.593
-1.228
-1.872
-2.525
-3.185
-3.851
-4.521
-5.193
-5.866
-6.538
-7.206
-7.869
-8.523
-9.166
-9.796
-10.409
-11.002
-11.573
-12.117
-12.63
-13.111
-13.553
-13.955
-14.312
-14.619
-14.873
-15.07
-15.205
-15.275
-15.277
-15.207
-15.062
-14.841
-14.542
-14.164
-13.708
-13.174
-12.564
-11.879
-11.121
-10.294
-9.401
-8.445
-7.43
-6.359
-5.238
-4.073
-2.87
-1.637
-0.381
0.89
2.169
3.447
4.717
5.969
7.196
8.39
9.543
10.649
11.699
12.68
13.585
14.414
15.165
15.841
16.446
16.984
17.463
17.899
18.307
18.7
19.09
19.481
19.884
20.307
20.763
21.27
21.838
22.462
23.137
23.854
24.594
25.345
26.08
26.744
27.291
27.67
27.828
27.73
27.338
26.606
25.505
23.99
22.012
19.551
16.584
13.083
9.07
4.527
-0.593
-6.184
-12.066
-17.989
-23.541
-28.4
-32.376
-35.132
-36.269
-35.709
-33.55
-30.219
-26.632
-23.416
-20.873
-19.54
-19.925
-22.042
-25.626
-29.732
-32.518
-32.575
-28.879
-20.02
-4.76
17.572
47.303
83.667
124.562
167.971
211.63
252.258
286.315
310.16
320.068
313.28
288.219
243.687
179.588
97.491
0.174
-108.148
-222.199
-336.564
-445.767
-544.269
-627.295
-691.101
-733.215
-753.025
-751.176
-729.25
-689.936
-636.679
-573.382
-504.388
-433.73
-364.528
-299.621
-241.322
-191.173
-150.232
-118.536
-95.042
-78.464
-67.561
-60.719
-56.349
-52.89
-48.686
-42.94
-35.69
-27.165
-17.783
-8.166
1.119
9.32
15.503
19.304
20.825
20.334
18.329
15.301
11.64
7.869
4.576
2.116
0.679
0.317
0.92
2.402
4.699
7.694
11.253
15.252
19.569
24.105
28.783
33.517
38.22
42.804
47.182
51.281
55.042
58.436
61.465
64.145
66.507
68.589
70.432
72.089
73.619
75.076
76.51
77.966
79.478
81.088
82.836
84.756
86.879
89.222
91.789
94.58
97.586
100.797
104.197
107.766
111.477
115.308
119.237
123.241
127.301
131.393
135.491
139.569
143.601
147.562
151.428
155.173
158.773
162.205
165.445
168.474
171.27
173.813
176.083
178.06
179.726
181.064
182.058
182.696
182.965
182.855
182.36
181.473
180.193
178.518
176.449
173.99
171.146
167.924
164.333
160.384
156.089
151.463
146.522
141.284
135.766
129.99
123.975
117.746
111.323
104.732
97.995
91.139
84.187
77.164
70.096
63.007
55.92
48.861
41.852
34.915
28.072
21.344
14.75
8.307
2.034
-4.055
-9.946
-15.625
-21.082
-26.305
-31.288
-36.022
-40.501
-44.722
-48.682
-52.378
-55.811
-58.983
-61.895
-64.551
-66.956
-69.115
-71.036
-72.726
-74.193
-75.448
-76.499
-77.358
-78.035
-78.542
-78.891
-79.093
-79.161
-79.106
-78.94
-78.675
-78.323
-77.895
-77.401
-76.853
-76.259
-75.631
-74.977
-74.306
-73.625
-72.942
-72.264
-71.596
-70.945
-70.315
-69.709
-69.132
-68.587
-68.075
-67.599
-67.16
-66.758
-66.393
-66.066
-65.776
-65.521
-65.301
-65.113
-64.957
-64.829
-64.728
-64.652
-64.599
-64.565
-64.55
-64.551
-64.566
-64.592
-64.629
-64.673
-64.725
-64.781
-64.841
-64.904
-64.97
-65.036
-65.104
-65.173
-65.242
-65.313
-65.386
-65.461
-65.539
-65.621
-65.709
-65.803
-65.905
-66.017
-66.139
-66.274
-66.422
-66.585
-66.763
-66.959
-67.171
-67.401
-67.649
-67.914
-68.196
-68.493
-68.806
-69.132
-69.47
-69.818
-70.175
-70.537
-70.902
-71.267
-71.628
-71.982
-72.324
-72.651
-72.959
-73.241
-73.494
-73.713
-73.892
-74.026
-74.108
-74.135
-74.1
-73.997
-73.821
-73.568
-73.234
-72.814
-72.305
-71.706
-71.015
-70.231
-69.355
-68.388
-67.329
-66.182
-64.949
-63.632
-62.234
-60.758
-59.209
-57.591
-55.912
-54.179
-52.399
-50.579
-48.728
-46.854
-44.966
-43.074
-41.187
-39.312
-37.459
-35.635
-33.852
-32.124
-30.459
-28.861
-27.331
-25.869
-24.471
-23.136
-21.854
-20.607
-19.38
-18.159
-16.931
-15.692
-14.434
-13.146
-11.816
-10.426
-8.968
-7.449
-5.879
-4.267
-2.634
-0.998
0.607
2.112
3.462
4.602
5.47
6.031
6.242
6.05
5.423
4.318
2.691
0.532
-2.176
-5.45
-9.267
-13.637
-18.577
-23.96
-29.584
-35.185
-40.368
-44.82
-48.336
-50.566
-51.097
-49.805
-46.804
-42.537
-37.805
-33.176
-28.907
-25.467
-23.506
-23.243
-24.441
-26.212
-26.971
-25.445
-20.839
-12.029
2.487
23.711
52.034
86.87
126.401
168.758
212.079
253.512
289.219
315.229
327.704
323.636
301.309
259.422
197.458
116.658
19.995
-88.088
-202.134
-316.63
-426.25
-525.442
-609.205
-673.743
-716.648
-737.5
-737.218
-717.174
-679.65
-627.976
-565.978
-497.848
-427.624
-358.175
-292.014
-231.844
-179.688
-136.82
-103.563
-79.046
-61.971
-51.359
-45.859
-43.564
-42.561
-40.966
-37.688
-32.659
-26.105
-18.259
-9.589
-0.782
7.281
13.544
17.496
19.243
19.088
17.486
14.898
11.735
8.53
5.913
4.277
3.765
4.383
5.988
8.457
11.719
15.655
20.113
24.955
30.055
35.308
40.647
45.994
51.253
56.334
61.144
65.605
69.681
73.365
76.669
79.626
82.268
84.634
86.773
88.745
90.606
92.41
94.201
96.018
97.903
99.899
102.05
104.393
106.952
109.735
112.744
115.975
119.419
123.066
126.898
130.89
135.021
139.271
143.622
148.057
152.552
157.085
161.631
166.166
170.663
175.102
179.458
183.706
187.825
191.792
195.585
199.184
202.568
205.717
208.609
211.225
213.547
215.557
217.24
218.581
219.569
220.193
220.444
220.319
219.812
218.921
217.647
215.991
213.958
211.552
208.782
205.657
202.187
198.385
194.266
189.844
185.137
180.164
174.942
169.494
163.839
158.0
152.0
145.86
139.605
133.258
126.842
120.381
113.897
107.413
100.952
94.534
88.182
81.914
75.749
69.705
63.799
58.047
52.462
47.057
41.846
36.837
32.04
27.464
23.115
18.999
15.119
11.479
8.079
4.921
2.004
-0.674
-3.117
-5.328
-7.313
-9.076
-10.626
-11.969
-13.114
-14.07
-14.845
-15.45
-15.895
-16.191
-16.347
-16.375
-16.286
-16.089
-15.797
-15.419
-14.966
-14.447
-13.873
-13.253
-12.595
-11.909
-11.203
-10.484
-9.759
-9.035
-8.318
-7.614
-6.928
-6.265
-5.628
-5.021
-4.448
-3.911
-3.412
-2.952
-2.534
-2.157
-1.823
-1.531
-1.281
-1.074
-0.907
-0.782
-0.695
-0.647
-0.635
-0.66
-0.718
-0.809
-0.931
-1.082
-1.262
-1.469
-1.701
-1.958
-2.239
-2.541
-2.865
-3.21
-3.574
-3.957
-4.358
-4.777
-5.213
-5.667
-6.136
-6.622
-7.125
-7.643
-8.178
-8.73
-9.298
-9.883
-10.485
-11.104
-11.741
-12.396
-13.07
-13.762
-14.472
-15.202
-15.951
-16.718
-17.504
-18.308
-19.128
-19.965
-20.817
-21.681
-22.558
-23.444
-24.338
-25.239
-26.144
-27.049
-27.955
-28.856
-29.751
-30.637
-31.51
-32.366
-33.204
-34.018
-34.805
-35.561
-36.282
-36.964
-37.602
-38.193
-38.731
-39.213
-39.634
-39.988
-40.274
-40.486
-40.622
-40.68
-40.656
-40.55
-40.362
-40.091
-39.74
-39.308
-38.798
-38.21
-37.549
-36.816
-36.016
-35.15
-34.222
-33.238
-32.204
-31.127
-30.015
-28.873
-27.711
-26.535
-25.354
-24.176
-23.009
-21.86
-20.737
-19.648
-18.604
-17.616
-16.693
-15.838
-15.052
-14.335
-13.679
-13.08
-12.525
-12.0
-11.49
-10.984
-10.471
-9.946
-9.399
-8.82
-8.196
-7.513
-6.759
-5.931
-5.035
-4.077
-3.08
-2.072
-1.084
-0.164
0.639
1.285
1.728
1.922
1.83
1.41
0.618
-0.572
-2.2
-4.306
-6.913
-10.046
-13.705
-17.847
-22.458
-27.538
-33.0
-38.683
-44.333
-49.544
-53.971
-57.374
-59.437
-59.787
-58.258
-54.91
-50.118
-44.736
-39.567
-35.132
-32.022
-30.818
-31.728
-34.564
-38.549
-42.002
-43.137
-40.495
-32.48
-17.625
5.015
35.861
74.413
118.81
166.539
214.759
259.828
297.752
324.543
336.303
329.887
303.36
255.783
187.428
100.186
-2.718
-116.777
-236.524
-356.16
-469.78
-571.679
-656.981
-721.896
-764.016
-782.694
-778.496
-753.052
-709.257
-650.799
-581.865
-507.107
-430.831
-356.475
-287.275
-225.854
-173.892
-132.444
-101.428
-79.587
-65.412
-57.377
-53.493
-51.854
-50.679
-48.215
-43.679
-37.142
-28.887
-19.433
-9.542
0.084
8.598
15.052
19.118
20.916
20.744
19.126
16.569
13.511
10.491
8.086
6.631
6.266
6.993
8.676
11.201
14.481
18.383
22.758
27.466
32.389
37.43
42.518
47.575
52.507
57.226
61.645
65.69
69.319
72.526
75.323
77.736
79.805
81.571
83.086
84.414
85.612
86.735
87.831
88.94
90.105
91.372
92.783
94.38
96.186
98.214
100.468
102.946
105.642
108.544
111.638
114.901
118.312
121.852
125.504
129.25
133.073
136.947
140.851
144.76
148.651
152.502
156.29
159.993
163.588
167.053
170.369
173.515
176.473
179.221
181.74
184.01
186.013
187.734
189.156
190.265
191.051
191.501
191.61
191.371
190.781
189.837
188.54
186.89
184.893
182.553
179.877
176.875
173.556
169.933
166.02
161.831
157.382
152.692
147.779
142.662
137.361
131.897
126.292
120.567
114.744
108.846
102.895
96.913
90.921
84.941
78.994
73.1
67.278
61.547
55.924
50.426
45.067
39.863
34.826
29.967
25.298
20.827
16.563
12.512
8.681
5.072
1.69
-1.465
-4.391
-7.089
-9.56
-11.809
-13.837
-15.651
-17.255
-18.656
-19.861
-20.878
-21.715
-22.382
-22.887
-23.242
-23.454
-23.536
-23.497
-23.347
-23.097
-22.757
-22.337
-21.847
-21.296
-20.693
-20.047
-19.366
-18.659
-17.932
-17.193
-16.448
-15.702
-14.961
-14.229
-13.512
-12.811
-12.13
-11.473
-10.84
-10.234
-9.655
-9.105
-8.583
-8.089
-7.624
-7.186
-6.774
-6.387
-6.024
-5.683
-5.363
-5.062
-4.778
-4.509
-4.254
-4.011
-3.778
-3.553
-3.336
-3.125
-2.918
-2.715
-2.515
-2.318
-2.122
-1.927
-1.734
-1.543
-1.354
-1.167
-0.983
-0.802
-0.626
-0.456
-0.292
-0.135
0.013
0.15
0.276
0.388
0.486
0.569
0.633
0.679
0.705
0.71
0.691
0.649
0.581
0.487
0.366
0.216
0.038
-0.169
-0.406
-0.672
-0.968
-1.291
-1.643
-2.02
-2.423
-2.85
-3.298
-3.766
-4.253
-4.755
-5.271
-5.798
-6.332
-6.872
-7.414
-7.955
-8.49
-9.018
-9.533
-10.033
-10.514
-10.972
-11.402
-11.802
-12.166
-12.492
-12.774
-13.01
-13.196
-13.329
-13.407
-13.426
-13.387
-13.289
-13.13
-12.913
-12.639
-12.309
-11.925
-11.49
-11.006
-10.477
-9.906
-9.296
-8.65
-7.975
-7.275
-6.556
-5.824
-5.085
-4.346
-3.613
-2.892
-2.191
-1.518
-0.875
-0.267
0.302
0.824
1.29
1.695
2.04
2.327
2.561
2.745
2.885
2.994
3.092
3.198
3.331
3.505
3.724
3.996
4.33
4.741
5.246
5.851
6.552
7.335
8.191
9.109
10.07
11.033
11.934
12.706
13.279
13.606
13.649
13.363
12.719
11.667
10.153
8.142
5.604
2.525
-1.09
-5.265
-10.047
-15.366
-21.033
-26.769
-32.169
-36.894
-40.716
-43.335
-44.368
-43.603
-41.109
-37.285
-32.892
-28.663
-25.012
-22.353
-21.301
-22.215
-24.929
-28.725
-32.171
-33.613
-31.893
-25.823
-13.75
5.565
32.666
67.363
108.176
152.864
199.257
244.421
284.216
314.545
331.462
331.19
311.42
270.915
208.739
126.834
29.087
-81.525
-199.9
-322.393
-446.009
-561.509
-661.15
-737.097
-781.842
-798.302
-790.285
-761.798
-719.437
-664.128
-597.505
-523.918
-446.395
-369.74
-298.62
-235.516
-182.437
-140.418
-109.104
-87.354
-73.6
-66.119
-62.852
-61.827
-61.184
-59.117
-54.803
-48.304
-39.949
-30.317
-20.21
-10.376
-1.698
4.834
8.858
10.51
10.115
8.219
5.359
1.991
-1.33
-3.999
-5.665
-6.189
-5.567
-3.943
-1.435
1.872
5.848
10.339
15.205
20.318
25.569
30.882
36.168
41.327
46.263
50.883
55.107
58.899
62.253
65.18
67.712
69.884
71.74
73.333
74.727
75.981
77.154
78.294
79.445
80.655
81.97
83.435
85.091
86.962
89.058
91.384
93.938
96.712
99.697
102.876
106.227
109.731
113.37
117.125
120.98
124.915
128.908
132.934
136.97
140.993
144.981
148.909
152.756
156.499
160.115
163.582
166.882
169.991
172.89
175.555
177.968
180.107
181.957
183.5
184.72
185.606
186.145
186.328
186.151
185.606
184.692
183.408
181.755
179.736
177.356
174.623
171.544
168.13
164.395
160.351
156.014
151.402
146.532
141.423
136.097
130.575
124.879
119.033
113.058
106.981
100.823
94.61
88.366
82.114
75.877
69.68
63.543
57.489
51.538
45.708
40.019
34.488
29.129
23.959
18.989
14.232
9.697
5.395
1.332
-2.485
-6.052
-9.365
-12.423
-15.225
-17.772
-20.066
-22.111
-23.911
-25.472
-26.8
-27.904
-28.792
-29.474
-29.96
-30.26
-30.387
-30.351
-30.166
-29.844
-29.397
-28.838
-28.18
-27.435
-26.616
-25.734
-24.802
-23.831
-22.831
-21.814
-20.788
-19.763
-18.749
-17.751
-16.779
-15.837
-14.933
-14.072
-13.256
-12.491
-11.779
-11.123
-10.523
-9.981
-9.497
-9.07
-8.701
-8.386
-8.126
-7.917
-7.756
-7.641
-7.569
-7.536
-7.538
-7.571
-7.632
-7.717
-7.82
-7.94
-8.07
-8.209
-8.351
-8.494
-8.634
-8.767
-8.892
-9.005
-9.105
-9.188
-9.254
-9.301
-9.327
-9.333
-9.318
-9.282
-9.224
-9.146
-9.048
-8.932
-8.797
-8.646
-8.481
-8.304
-8.115
-7.919
-7.717
-7.511
-7.305
-7.1
-6.901
-6.708
-6.526
-6.356
-6.202
-6.067
-5.952
-5.86
-5.793
-5.753
-5.743
-5.762
-5.813
-5.896
-6.011
-6.158
-6.338
-6.548
-6.789
-7.059
-7.357
-7.681
-8.029
-8.398
-8.786
-9.189
-9.604
-10.028
-10.457
-10.887
-11.313
-11.731
-12.137
-12.526
-12.893
-13.234
-13.543
-13.816
-14.048
-14.234
-14.37
-14.452
-14.478
-14.443
-14.346
-14.185
-13.961
-13.673
-13.323
-12.91
-12.437
-11.906
-11.319
-10.681
-9.994
-9.261
-8.487
-7.678
-6.839
-5.976
-5.097
-4.207
-3.313
-2.421
-1.54
-0.676
0.163
0.972
1.748
2.484
3.175
3.811
4.387
4.905
5.366
5.775
6.136
6.453
6.738
7.008
7.282
7.576
7.901
8.264
8.671
9.129
9.655
10.266
10.969
11.761
12.634
13.577
14.584
15.642
16.714
17.746
18.68
19.45
20.015
20.342
20.394
20.146
19.551
18.549
17.104
15.177
12.747
9.817
6.353
2.292
-2.31
-7.284
-12.354
-17.115
-21.237
-24.506
-26.637
-27.257
-26.155
-23.41
-19.44
-15.033
-10.955
-7.629
-5.461
-5.067
-6.78
-10.377
-15.083
-19.373
-21.5
-20.29
-14.509
-2.427
17.154
44.699
79.924
121.172
166.186
212.923
258.449
298.547
329.197
346.63
347.38
329.294
290.92
231.023
151.114
55.966
-50.7
-165.239
-284.738
-409.212
-532.189
-642.111
-728.688
-780.68
-796.217
-783.281
-749.118
-702.391
-648.091
-585.135
-515.043
-440.376
-364.182
-292.036
-227.827
-173.481
-130.195
-97.549
-74.165
-58.6
-49.381
-44.564
-42.223
-40.534
-37.669
-32.744
-25.804
-17.157
-7.305
3.002
13.047
21.971
28.745
32.957
34.729
34.367
32.408
29.387
25.752
22.071
18.98
16.865
15.888
16.071
17.276
19.388
22.331
25.975
30.166
34.765
39.639
44.679
49.808
54.939
59.965
64.785
69.295
73.404
77.068
80.272
83.025
85.352
87.287
88.871
90.155
91.205
92.079
92.834
93.52
94.18
94.862
95.615
96.487
97.523
98.75
100.182
101.825
103.679
105.739
107.998
110.438
113.04
115.785
118.656
121.637
124.714
127.87
131.083
134.332
137.595
140.85
144.079
147.261
150.374
153.398
156.314
159.103
161.747
164.229
166.528
168.625
170.502
172.141
173.526
174.642
175.474
176.01
176.24
176.155
175.749
175.017
173.956
172.563
170.841
168.789
166.414
163.718
160.711
157.4
153.796
149.909
145.754
141.345
136.696
131.825
126.75
121.489
116.061
110.485
104.783
98.975
93.082
87.125
81.125
75.103
69.08
63.076
57.111
51.205
45.376
39.641
34.016
28.518
23.162
17.96
12.924
8.067
3.398
-1.073
-5.34
-9.396
-13.235
-16.854
-20.25
-23.421
-26.368
-29.091
-31.592
-33.873
-35.94
-37.796
-39.448
-40.902
-42.166
-43.247
-44.155
-44.899
-45.489
-45.934
-46.245
-46.433
-46.508
-46.482
-46.365
-46.167
-45.9
-45.573
-45.197
-44.782
-44.336
-43.869
-43.388
-42.903
-42.42
-41.946
-41.488
-41.05
-40.638
-40.257
-39.91
-39.601
-39.333
-39.107
-38.925
-38.789
-38.7
-38.656
-38.659
-38.707
-38.8
-38.936
-39.113
-39.33
-39.584
-39.872
-40.193
-40.543
-40.92
-41.321
-41.742
-42.182
-42.636
-43.103
-43.58
-44.063
-44.552
-45.044
-45.537
-46.03
-46.519
-47.006
-47.487
-47.962
-48.43
-48.89
-49.342
-49.786
-50.22
-50.646
-51.063
-51.472
-51.873
-52.267
-52.654
-53.035
-53.411
-53.784
-54.154
-54.524
-54.894
-55.265
-55.641
-56.021
-56.408
-56.802
-57.205
-57.617
-58.039
-58.472
-58.916
-59.37
-59.834
-60.309
-60.794
-61.289
-61.792
-62.303
-62.82
-63.343
-63.871
-64.4
-64.931
-65.459
-65.985
-66.504
-67.016
-67.517
-68.004
-68.475
-68.926
-69.353
-69.754
-70.124
-70.458
-70.754
-71.008
-71.217
-71.377
-71.487
-71.545
-71.55
-71.502
-71.402
-71.249
-71.045
-70.789
-70.483
-70.128
-69.727
-69.28
-68.79
-68.259
-67.692
-67.096
-66.475
-65.834
-65.179
-64.516
-63.851
-63.189
-62.535
-61.894
-61.269
-60.669
-60.102
-59.579
-59.106
-58.683
-58.311
-57.985
-57.697
-57.436
-57.187
-56.929
-56.646
-56.324
-55.956
-55.537
-55.058
-54.507
-53.869
-53.128
-52.277
-51.312
-50.236
-49.054
-47.78
-46.444
-45.086
-43.755
-42.488
-41.317
-40.266
-39.357
-38.631
-38.117
-37.844
-37.845
-38.128
-38.713
-39.628
-40.89
-42.507
-44.464
-46.705
-49.198
-51.967
-54.968
-58.082
-61.095
-63.661
-65.483
-66.363
-66.045
-64.196
-60.609
-55.341
-48.782
-41.688
-34.835
-28.703
-23.714
-20.476
-19.393
-20.331
-22.627
-24.893
-25.44
-23.137
-16.947
-5.318
13.011
38.667
71.669
110.686
153.587
198.556
243.183
283.758
316.348
337.031
342.118
329.173
296.667
243.367
169.201
77.424
-27.465
-141.792
-260.078
-379.586
-497.69
-604.801
-693.734
-757.282
-788.428
-791.542
-771.344
-732.076
-681.185
-619.826
-549.42
-474.186
-396.538
-320.795
-251.53
-191.044
-140.898
-101.702
-72.766
-52.749
-40.269
-33.708
-30.92
-29.985
-29.208
-27.002
-22.774
-16.68
-8.96
-0.15
8.917
17.538
24.9
30.16
33.116
33.97
33.055
30.912
28.072
24.985
22.184
20.212
19.33
19.617
21.028
23.394
26.587
30.505
35.001
39.914
45.1
50.433
55.808
61.146
66.352
71.321
75.954
80.159
83.883
87.111
89.853
92.141
94.011
95.508
96.686
97.609
98.34
98.939
99.46
99.949
100.457
101.035
101.731
102.595
103.659
104.939
106.446
108.18
110.137
112.311
114.69
117.255
119.99
122.878
125.906
129.06
132.325
135.681
139.107
142.582
146.085
149.596
153.095
156.56
159.97
163.305
166.545
169.67
172.66
175.494
178.15
180.608
182.847
184.849
186.596
188.071
189.258
190.145
190.72
190.974
190.898
190.488
189.738
188.647
187.213
185.439
183.328
180.885
178.116
175.03
171.637
167.95
163.981
159.745
155.258
150.537
145.602
140.47
135.164
129.702
124.108
118.403
112.608
106.747
100.842
94.915
88.988
83.083
77.221
71.422
65.705
60.09
54.593
49.232
44.021
38.976
34.109
29.432
24.956
20.69
16.642
12.818
9.224
5.864
2.74
-0.146
-2.794
-5.206
-7.383
-9.329
-11.05
-12.549
-13.834
-14.913
-15.793
-16.483
-16.993
-17.334
-17.514
-17.546
-17.44
-17.207
-16.86
-16.409
-15.866
-15.242
-14.547
-13.793
-12.99
-12.147
-11.275
-10.381
-9.476
-8.566
-7.659
-6.763
-5.882
-5.023
-4.19
-3.389
-2.623
-1.894
-1.206
-0.56
0.041
0.598
1.109
1.574
1.993
2.368
2.699
2.987
3.235
3.443
3.614
3.749
3.85
3.92
3.961
3.974
3.962
3.927
3.87
3.794
3.7
3.589
3.464
3.325
3.173
3.01
2.836
2.651
2.457
2.252
2.037
1.812
1.577
1.331
1.073
0.803
0.52
0.223
-0.09
-0.418
-0.763
-1.125
-1.506
-1.905
-2.322
-2.758
-3.212
-3.683
-4.171
-4.676
-5.196
-5.73
-6.276
-6.834
-7.402
-7.976
-8.556
-9.138
-9.719
-10.297
-10.868
-11.428
-11.975
-12.504
-13.012
-13.493
-13.945
-14.361
-14.738
-15.069
-15.351
-15.577
-15.745
-15.851
-15.889
-15.858
-15.756
-15.58
-15.33
-15.008
-14.611
-14.141
-13.599
-12.985
-12.302
-11.552
-10.737
-9.86
-8.925
-7.937
-6.904
-5.832
-4.727
-3.597
-2.448
-1.288
-0.125
1.033
2.181
3.31
4.412
5.476
6.489
7.441
8.331
9.155
9.914
10.615
11.262
11.867
12.446
13.013
13.579
14.153
14.74
15.345
15.981
16.658
17.389
18.184
19.043
19.961
20.933
21.936
22.942
23.919
24.815
25.581
26.18
26.568
26.699
26.543
26.061
25.216
23.992
22.354
20.27
17.722
14.683
11.161
7.195
2.798
-2.029
-7.214
-12.614
-17.984
-22.958
-27.23
-30.582
-32.742
-33.363
-32.217
-29.34
-25.1
-20.202
-15.377
-11.055
-7.619
-5.681
-5.649
-7.413
-10.357
-13.146
-14.163
-12.351
-6.702
4.332
21.969
46.839
78.984
117.095
159.128
203.362
247.371
287.402
319.659
340.351
345.65
333.065
301.026
247.899
174.603
85.382
-16.585
-128.009
-245.908
-370.561
-495.973
-610.253
-702.876
-762.064
-784.87
-779.258
-752.436
-712.662
-664.741
-606.986
-540.118
-466.56
-389.592
-314.752
-246.314
-186.657
-137.187
-98.201
-69.161
-48.897
-36.031
-28.97
-25.626
-24.117
-22.788
-20.099
-15.465
-9.018
-1.006
8.025
17.25
25.967
33.375
38.655
41.619
42.467
41.536
39.364
36.486
33.354
30.505
28.479
27.537
27.761
29.113
31.432
34.596
38.509
43.028
47.995
53.271
58.732
64.273
69.816
75.264
80.51
85.455
90.001
94.093
97.715
100.872
103.593
105.912
107.87
109.518
110.919
112.131
113.213
114.215
115.18
116.155
117.19
118.33
119.623
121.097
122.768
124.64
126.711
128.976
131.426
134.044
136.809
139.702
142.704
145.8
148.975
152.211
155.487
158.781
162.072
165.338
168.559
171.716
174.786
177.751
180.591
183.287
185.823
188.18
190.339
192.282
193.991
195.449
196.641
197.552
198.169
198.481
198.477
198.152
197.5
196.516
195.198
193.546
191.562
189.249
186.611
183.654
180.387
176.818
172.959
168.821
164.419
159.766
154.88
149.777
144.475
138.993
133.35
127.566
121.663
115.659
109.578
103.438
97.263
91.072
84.886
78.725
72.609
66.556
60.585
54.713
48.956
43.328
37.845
32.519
27.362
22.386
17.599
13.011
8.629
4.459
0.506
-3.225
-6.732
-10.013
-13.069
-15.899
-18.506
-20.891
-23.06
-25.016
-26.765
-28.313
-29.668
-30.837
-31.829
-32.652
-33.316
-33.83
-34.205
-34.45
-34.576
-34.592
-34.51
-34.338
-34.088
-33.768
-33.389
-32.959
-32.487
-31.981
-31.45
-30.901
-30.341
-29.776
-29.213
-28.657
-28.112
-27.584
-27.075
-26.59
-26.131
-25.7
-25.299
-24.93
-24.593
-24.289
-24.017
-23.779
-23.573
-23.398
-23.254
-23.139
-23.051
-22.991
-22.955
-22.943
-22.953
-22.983
-23.032
-23.099
-23.182
-23.281
-23.393
-23.519
-23.657
-23.806
-23.967
-24.139
-24.321
-24.515
-24.718
-24.932
-25.157
-25.391
-25.636
-25.891
-26.154
-26.427
-26.708
-26.997
-27.293
-27.596
-27.904
-28.217
-28.533
-28.85
-29.167
-29.482
-29.792
-30.095
-30.389
-30.67
-30.936
-31.183
-31.409
-31.609
-31.78
-31.917
-32.017
-32.076
-32.089
-32.052
-31.963
-31.817
-31.612
-31.346
-31.017
-30.624
-30.169
-29.65
-29.069
-28.427
-27.726
-26.967
-26.154
-25.289
-24.374
-23.414
-22.412
-21.377
-20.313
-19.228
-18.129
-17.023
-15.916
-14.817
-13.733
-12.671
-11.637
-10.639
-9.684
-8.782
-7.945
-7.18
-6.489
-5.874
-5.33
-4.853
-4.435
-4.065
-3.723
-3.397
-3.072
-2.735
-2.38
-1.996
-1.571
-1.094
-0.541
0.097
0.821
1.631
2.516
3.453
4.425
5.396
6.31
7.119
7.776
8.229
8.44
8.367
7.961
7.186
6.008
4.39
2.311
-0.255
-3.319
-6.874
-10.888
-15.338
-20.2
-25.364
-30.64
-35.753
-40.32
-44.001
-46.564
-47.692
-46.998
-44.416
-40.085
-34.404
-28.273
-22.372
-17.07
-13.026
-10.852
-10.562
-11.928
-14.102
-15.273
-14.084
-9.453
0.301
16.483
39.747
70.422
107.577
149.038
192.789
236.223
275.503
306.826
326.29
330.162
316.166
282.846
229.183
155.801
65.127
-39.166
-151.895
-267.417
-380.505
-485.37
-576.42
-649.292
-700.781
-729.622
-736.482
-722.579
-689.844
-641.738
-582.197
-515.482
-446.155
-377.439
-311.667
-251.452
-198.717
-154.43
-119.184
-92.378
-72.502
-58.63
-49.762
-44.22
-40.591
-37.451
-33.345
-27.883
-21.311
-13.698
-5.383
3.02
11.029
17.904
22.83
25.635
26.489
25.663
23.635
20.851
17.683
14.628
12.206
10.704
10.244
10.81
12.267
14.511
17.454
20.978
24.946
29.226
33.707
38.292
42.906
47.476
51.912
56.129
60.049
63.601
66.751
69.501
71.87
73.888
75.597
77.038
78.263
79.333
80.305
81.232
82.159
83.126
84.174
85.346
86.682
88.219
89.981
91.975
94.205
96.666
99.351
102.25
105.344
108.612
112.033
115.588
119.259
123.029
126.876
130.778
134.71
138.648
142.567
146.446
150.26
153.985
157.598
161.076
164.397
167.542
170.488
173.214
175.699
177.923
179.868
181.516
182.851
183.86
184.528
184.847
184.807
184.405
183.634
182.493
180.982
179.104
176.861
174.26
171.308
168.015
164.392
160.451
156.207
151.676
146.875
141.822
136.538
131.042
125.357
119.505
113.507
107.388
101.171
94.879
88.536
82.166
75.79
69.433
63.116
56.86
50.687
44.615
38.663
32.849
27.19
21.699
16.391
11.278
6.372
1.682
-2.783
-7.016
-11.01
-14.762
-18.268
-21.526
-24.536
-27.297
-29.813
-32.086
-34.119
-35.918
-37.489
-38.839
-39.975
-40.906
-41.641
-42.19
-42.561
-42.767
-42.818
-42.725
-42.499
-42.152
-41.695
-41.139
-40.495
-39.774
-38.987
-38.144
-37.255
-36.329
-35.377
-34.406
-33.425
-32.442
-31.464
-30.498
-29.55
-28.627
-27.733
-26.873
-26.052
-25.272
-24.538
-23.852
-23.217
-22.633
-22.104
-21.629
-21.21
-20.847
-20.541
-20.291
-20.096
-19.957
-19.873
-19.842
-19.864
-19.937
-20.061
-20.234
-20.455
-20.722
-21.034
-21.389
-21.785
-22.22
-22.691
-23.196
-23.733
-24.299
-24.892
-25.507
-26.143
-26.796
-27.464
-28.144
-28.831
-29.523
-30.215
-30.906
-31.589
-32.263
-32.922
-33.562
-34.181
-34.772
-35.333
-35.859
-36.345
-36.786
-37.179
-37.519
-37.801
-38.022
-38.177
-38.264
-38.28
-38.223
-38.091
-37.884
-37.604
-37.249
-36.823
-36.325
-35.759
-35.127
-34.432
-33.676
-32.864
-31.999
-31.085
-30.131
-29.141
-28.124
-27.085
-26.033
-24.975
-23.919
-22.873
-21.845
-20.841
-19.869
-18.936
-18.05
-17.223
-16.463
-15.772
-15.149
-14.592
-14.095
-13.655
-13.26
-12.894
-12.54
-12.185
-11.815
-11.428
-11.015
-10.568
-10.077
-9.524
-8.9
-8.213
-7.469
-6.68
-5.871
-5.056
-4.269
-3.571
-3.011
-2.643
-2.523
-2.679
-3.146
-3.967
-5.163
-6.777
-8.85
-11.396
-14.437
-17.98
-21.996
-26.492
-31.482
-36.865
-42.472
-48.047
-53.216
-57.68
-61.233
-63.588
-64.405
-63.492
-60.921
-57.079
-52.681
-48.417
-44.695
-41.922
-40.7
-41.385
-43.816
-47.316
-50.546
-51.961
-50.486
-44.989
-33.895
-16.087
8.899
40.826
78.23
119.082
161.424
202.444
238.256
265.052
279.08
277.17
257.513
218.728
160.063
82.627
-10.751
-116.035
-227.962
-341.196
-450.715
-550.773
-636.062
-702.695
-747.988
-771.196
-773.222
-755.221
-719.159
-668.596
-607.418
-539.712
-469.743
-400.439
-334.053
-273.284
-220.092
-175.431
-139.876
-112.868
-93.046
-79.583
-71.45
-66.874
-64.317
-62.296
-59.358
-55.08
-49.624
-43.013
-35.564
-27.915
-20.603
-14.37
-9.997
-7.618
-7.024
-7.94
-9.897
-12.433
-15.169
-17.609
-19.248
-19.854
-19.363
-17.82
-15.389
-12.187
-8.305
-3.882
0.929
5.996
11.192
16.423
21.62
26.696
31.56
36.123
40.299
44.046
47.356
50.24
52.731
54.864
56.678
58.224
59.563
60.751
61.844
62.889
63.927
65.002
66.157
67.438
68.885
70.524
72.366
74.417
76.673
79.129
81.775
84.595
87.569
90.678
93.906
97.234
100.65
104.134
107.667
111.226
114.789
118.336
121.846
125.3
128.675
131.953
135.113
138.138
141.01
143.71
146.221
148.523
150.599
152.433
154.009
155.314
156.334
157.058
157.478
157.587
157.38
156.852
156.003
154.833
153.342
151.535
149.417
146.994
144.274
141.268
137.986
134.44
130.646
126.616
122.368
117.919
113.285
108.487
103.542
98.47
93.292
88.027
82.695
77.318
71.913
66.503
61.105
55.738
50.422
45.173
40.007
34.941
29.99
25.166
20.482
15.95
11.581
7.383
3.365
-0.465
-4.102
-7.542
-10.779
-13.811
-16.637
-19.256
-21.668
-23.874
-25.877
-27.68
-29.286
-30.701
-31.929
-32.978
-33.852
-34.56
-35.11
-35.508
-35.764
-35.886
-35.883
-35.763
-35.536
-35.21
-34.795
-34.298
-33.728
-33.095
-32.405
-31.667
-30.888
-30.077
-29.238
-28.38
-27.509
-26.631
-25.751
-24.874
-24.006
-23.152
-22.315
-21.5
-20.709
-19.948
-19.217
-18.52
-17.859
-17.237
-16.654
-16.113
-15.614
-15.16
-14.751
-14.388
-14.072
-13.804
-13.584
-13.413
-13.29
-13.218
-13.195
-13.223
-13.301
-13.43
-13.61
-13.84
-14.121
-14.452
-14.833
-15.262
-15.738
-16.261
-16.828
-17.438
-18.088
-18.777
-19.502
-20.261
-21.051
-21.869
-22.712
-23.577
-24.46
-25.358
-26.265
-27.178
-28.093
-29.004
-29.907
-30.798
-31.671
-32.521
-33.343
-34.13
-34.878
-35.582
-36.235
-36.832
-37.37
-37.843
-38.249
-38.584
-38.846
-39.034
-39.148
-39.189
-39.155
-39.049
-38.871
-38.624
-38.31
-37.933
-37.494
-36.998
-36.449
-35.854
-35.221
-34.554
-33.863
-33.153
-32.432
-31.708
-30.989
-30.284
-29.597
-28.937
-28.312
-27.729
-27.203
-26.739
-26.341
-26.007
-25.736
-25.521
-25.358
-25.236
-25.136
-25.046
-24.949
-24.834
-24.698
-24.532
-24.326
-24.071
-23.748
-23.347
-22.873
-22.327
-21.721
-21.078
-20.412
-19.756
-19.167
-18.692
-18.38
-18.29
-18.448
-18.888
-19.651
-20.753
-22.236
-24.145
-26.498
-29.323
-32.633
-36.4
-40.638
-45.373
-50.521
-55.93
-61.348
-66.397
-70.771
-74.256
-76.571
-77.364
-76.413
-73.764
-69.796
-65.234
-60.806
-56.949
-54.048
-52.701
-53.314
-55.753
-59.355
-62.751
-64.27
-62.787
-57.246
-46.073
-28.033
-2.553
30.304
69.141
111.784
156.341
200.289
239.847
271.112
290.257
293.779
279.43
245.818
191.889
117.804
26.886
-76.386
-188.315
-303.599
-419.528
-533.469
-636.381
-721.55
-782.292
-812.138
-815.211
-795.923
-758.238
-709.147
-649.791
-581.554
-508.448
-432.814
-358.768
-290.715
-230.969
-181.134
-141.934
-112.831
-92.614
-79.996
-73.429
-70.824
-70.264
-70.017
-68.452
-64.904
-59.465
-52.34
-44.039
-35.37
-27.047
-19.899
-14.786
-11.939
-11.179
-12.183
-14.421
-17.362
-20.559
-23.474
-25.566
-26.57
-26.406
-25.115
-22.865
-19.78
-15.962
-11.551
-6.706
-1.563
3.755
9.147
14.537
19.831
24.929
29.734
34.156
38.143
41.681
44.782
47.474
49.796
51.788
53.504
55.004
56.348
57.593
58.791
59.984
61.22
62.547
64.011
65.657
67.514
69.596
71.908
74.448
77.209
80.183
83.353
86.698
90.199
93.837
97.595
101.459
105.409
109.423
113.48
117.556
121.629
125.677
129.679
133.613
137.457
141.19
144.793
148.246
151.53
154.625
157.51
160.166
162.574
164.718
166.582
168.152
169.415
170.36
170.979
171.265
171.215
170.826
170.096
169.026
167.62
165.883
163.821
161.441
158.755
155.773
152.508
148.975
145.19
141.169
136.93
132.493
127.878
123.104
118.193
113.167
108.047
102.855
97.614
92.344
87.068
81.808
76.582
71.413
66.318
61.317
56.426
51.662
47.039
42.572
38.273
34.153
30.222
26.489
22.962
19.647
16.548
13.669
11.012
8.579
6.369
4.382
2.614
1.061
-0.279
-1.413
-2.347
-3.089
-3.645
-4.025
-4.237
-4.291
-4.197
-3.966
-3.607
-3.131
-2.55
-1.873
-1.112
-0.277
0.623
1.577
2.577
3.612
4.676
5.758
6.853
7.954
9.053
10.145
11.225
12.289
13.332
14.35
15.341
16.303
17.233
18.13
18.993
19.822
20.616
21.376
22.103
22.797
23.459
24.091
24.694
25.27
25.822
26.351
26.859
27.348
27.819
28.276
28.718
29.149
29.568
29.977
30.378
30.77
31.155
31.532
31.903
32.267
32.623
32.973
33.315
33.649
33.974
34.291
34.597
34.894
35.181
35.457
35.722
35.977
36.222
36.456
36.68
36.895
37.101
37.298
37.487
37.671
37.849
38.025
38.199
38.374
38.553
38.739
38.933
39.14
39.362
39.603
39.866
40.155
40.473
40.825
41.214
41.643
42.116
42.635
43.203
43.822
44.492
45.216
45.992
46.819
47.697
48.624
49.599
50.617
51.678
52.777
53.912
55.079
56.274
57.493
58.729
59.978
61.232
62.487
63.737
64.974
66.191
67.382
68.542
69.667
70.755
71.8
72.797
73.738
74.621
75.447
76.219
76.938
77.609
78.238
78.837
79.428
80.03
80.659
81.325
82.034
82.79
83.605
84.493
85.465
86.528
87.674
88.899
90.203
91.578
93.006
94.45
95.845
97.126
98.238
99.138
99.793
100.178
100.249
99.953
99.241
98.074
96.424
94.283
91.601
88.304
84.396
79.999
75.364
70.858
66.806
63.429
60.979
59.82
60.197
62.091
65.158
68.677
71.922
74.502
76.104
76.22
74.496
71.041
66.483
62.214
59.891
60.653
65.509
75.844
92.896
117.34
149.214
187.359
229.772
274.603
319.575
361.339
396.09
420.056
429.632
421.929
395.105
347.794
279.476
192.746
91.61
-20.816
-139.434
-261.065
-382.812
-495.136
-590.493
-661.347
-700.349
-711.007
-697.446
-663.836
-617.322
-559.029
-490.569
-416.242
-338.776
-262.805
-193.033
-131.849
-80.99
-41.24
-12.025
7.921
20.082
26.17
28.329
28.524
28.529
30.024
33.703
39.45
46.977
55.714
64.824
73.576
81.126
86.569
89.645
90.523
89.528
87.202
84.085
80.625
77.375
74.903
73.496
73.251
74.139
75.998
78.704
82.163
86.226
90.732
95.535
100.507
105.547
110.578
115.505
120.221
124.623
128.613
132.134
135.167
137.715
139.802
141.462
142.732
143.667
144.328
144.775
145.068
145.256
145.387
145.508
145.671
145.926
146.322
146.891
147.649
148.608
149.768
151.126
152.675
154.403
156.289
158.317
160.471
162.737
165.101
167.546
170.054
172.603
175.173
177.742
180.292
182.801
185.25
187.618
189.886
192.035
194.048
195.905
197.587
199.075
200.348
201.389
202.18
202.707
202.952
202.904
202.551
201.884
200.895
199.579
197.931
195.95
193.636
190.988
188.012
184.712
181.093
177.165
172.938
168.422
163.631
158.58
153.282
147.757
142.02
136.091
129.989
123.736
117.351
110.855
104.271
97.62
90.923
84.204
77.482
70.779
64.117
57.514
50.99
44.563
38.251
32.07
26.035
20.16
14.459
8.942
3.622
-1.493
-6.394
-11.076
-15.531
-19.755
-23.746
-27.502
-31.021
-34.305
-37.355
-40.173
-42.763
-45.131
-47.281
-49.22
-50.956
-52.496
-53.849
-55.025
-56.032
-56.882
-57.584
-58.149
-58.588
-58.911
-59.13
-59.255
-59.297
-59.265
-59.171
-59.023
-58.83
-58.603
-58.349
-58.075
-57.79
-57.499
-57.21
-56.928
-56.657
-56.403
-56.169
-55.958
-55.774
-55.618
-55.492
-55.397
-55.335
-55.305
-55.307
-55.341
-55.406
-55.501
-55.624
-55.775
-55.951
-56.151
-56.372
-56.613
-56.872
-57.146
-57.435
-57.735
-58.045
-58.364
-58.69
-59.022
-59.359
-59.701
-60.047
-60.396
-60.748
-61.104
-61.463
-61.827
-62.195
-62.568
-62.947
-63.334
-63.729
-64.133
-64.547
-64.972
-65.408
-65.857
-66.318
-66.792
-67.279
-67.779
-68.29
-68.814
-69.348
-69.892
-70.445
-71.005
-71.57
-72.137
-72.705
-73.271
-73.831
-74.382
-74.92
-75.442
-75.943
-76.42
-76.867
-77.28
-77.654
-77.985
-78.268
-78.497
-78.668
-78.778
-78.822
-78.796
-78.698
-78.527
-78.279
-77.956
-77.557
-77.083
-76.535
-75.915
-75.225
-74.469
-73.649
-72.769
-71.833
-70.845
-69.811
-68.738
-67.632
-66.501
-65.351
-64.19
-63.026
-61.866
-60.72
-59.595
-58.496
-57.43
-56.402
-55.421
-54.497
-53.636
-52.838
-52.102
-51.424
-50.801
-50.227
-49.691
-49.175
-48.66
-48.129
-47.572
-46.982
-46.354
-45.679
-44.94
-44.12
-43.212
-42.217
-41.148
-40.014
-38.825
-37.595
-36.365
-35.191
-34.136
-33.265
-32.62
-32.234
-32.147
-32.383
-32.991
-34.029
-35.53
-37.528
-40.036
-43.05
-46.597
-50.729
-55.391
-60.415
-65.534
-70.357
-74.559
-77.915
-80.132
-80.829
-79.756
-76.95
-72.782
-67.982
-63.307
-59.203
-56.088
-54.611
-55.194
-57.716
-61.519
-65.19
-67.007
-65.786
-60.316
-48.844
-30.061
-3.351
31.204
72.123
117.204
164.481
211.14
253.018
286.042
306.303
310.063
294.936
259.35
201.843
123.693
29.594
-76.871
-192.121
-313.221
-440.441
-567.206
-681.306
-771.754
-826.361
-842.855
-829.78
-794.905
-747.407
-692.494
-628.635
-557.091
-480.542
-402.191
-327.733
-261.151
-204.276
-158.181
-122.774
-96.977
-79.308
-68.321
-62.228
-59.113
-57.397
-55.506
-52.116
-46.873
-40.007
-31.831
-22.993
-14.222
-6.11
0.564
5.089
7.337
7.527
6.024
3.378
0.099
-3.384
-6.545
-8.879
-10.138
-10.248
-9.257
-7.328
-4.584
-1.127
2.898
7.336
12.047
16.903
21.806
26.682
31.44
35.979
40.203
44.021
47.384
50.279
52.718
54.728
56.348
57.62
58.597
59.346
59.927
60.399
60.813
61.213
61.646
62.161
62.805
63.623
64.644
65.883
67.345
69.03
70.932
73.044
75.348
77.825
80.455
83.222
86.109
89.101
92.182
95.329
98.521
101.737
104.954
108.152
111.311
114.409
117.426
120.34
123.135
125.79
128.287
130.607
132.729
134.635
136.307
137.728
138.882
139.756
140.336
140.612
140.575
140.219
139.538
138.53
137.192
135.525
133.531
131.214
128.578
125.632
122.383
118.841
115.019
110.93
106.587
102.006
97.205
92.201
87.012
81.659
76.161
70.54
64.815
59.009
53.143
47.239
41.317
35.399
29.505
23.656
17.872
12.171
6.57
1.088
-4.261
-9.46
-14.497
-19.359
-24.033
-28.51
-32.78
-36.835
-40.668
-44.274
-47.648
-50.787
-53.69
-56.355
-58.783
-60.975
-62.936
-64.667
-66.175
-67.464
-68.542
-69.415
-70.093
-70.583
-70.896
-71.04
-71.027
-70.867
-70.571
-70.15
-69.614
-68.976
-68.245
-67.433
-66.55
-65.606
-64.613
-63.578
-62.512
-61.423
-60.32
-59.21
-58.101
-57.0
-55.912
-54.843
-53.797
-52.78
-51.794
-50.843
-49.929
-49.054
-48.22
-47.426
-46.674
-45.964
-45.293
-44.663
-44.072
-43.517
-42.997
-42.511
-42.056
-41.629
-41.229
-40.854
-40.5
-40.166
-39.849
-39.548
-39.26
-38.984
-38.718
-38.461
-38.211
-37.967
-37.728
-37.494
-37.265
-37.039
-36.819
-36.603
-36.393
-36.189
-35.993
-35.805
-35.628
-35.462
-35.309
-35.172
-35.052
-34.95
-34.869
-34.81
-34.776
-34.767
-34.784
-34.828
-34.901
-35.002
-35.131
-35.287
-35.471
-35.681
-35.915
-36.174
-36.453
-36.753
-37.069
-37.399
-37.741
-38.09
-38.442
-38.794
-39.14
-39.477
-39.8
-40.103
-40.381
-40.629
-40.841
-41.012
-41.135
-41.206
-41.218
-41.167
-41.047
-40.856
-40.588
-40.241
-39.813
-39.304
-38.713
-38.04
-37.286
-36.454
-35.544
-34.561
-33.506
-32.385
-31.199
-29.955
-28.658
-27.314
-25.932
-24.52
-23.085
-21.637
-20.182
-18.732
-17.296
-15.882
-14.499
-13.156
-11.859
-10.62
-9.451
-8.361
-7.353
-6.427
-5.583
-4.816
-4.122
-3.493
-2.911
-2.361
-1.827
-1.297
-0.766
-0.226
0.335
0.926
1.567
2.268
3.022
3.825
4.663
5.516
6.37
7.191
7.917
8.496
8.873
8.985
8.8
8.276
7.365
6.038
4.249
1.951
-0.875
-4.256
-8.208
-12.703
-17.753
-23.377
-29.463
-35.823
-42.178
-48.117
-53.311
-57.532
-60.465
-61.732
-61.146
-58.8
-55.122
-50.883
-46.79
-43.23
-40.615
-39.568
-40.431
-42.985
-46.45
-49.376
-50.16
-47.731
-40.964
-28.234
-8.346
19.123
53.862
94.333
138.302
183.649
227.475
265.58
293.82
308.453
305.918
283.771
240.746
175.956
91.199
-8.323
-118.605
-235.925
-357.226
-482.241
-604.328
-711.956
-794.663
-841.168
-850.26
-830.402
-789.554
-737.451
-679.007
-612.889
-540.597
-464.311
-387.142
-314.987
-251.608
-198.644
-157.157
-126.527
-105.227
-91.874
-84.853
-81.973
-81.247
-80.875
-79.095
-75.16
-69.178
-61.439
-52.503
-43.207
-34.287
-26.594
-21.063
-17.991
-17.217
-18.413
-21.025
-24.508
-28.406
-32.16
-35.187
-37.154
-37.927
-37.509
-36.044
-33.652
-30.425
-26.503
-22.044
-17.195
-12.081
-6.809
-1.462
3.874
9.097
14.11
18.825
23.164
27.087
30.589
33.68
36.391
38.759
40.828
42.651
44.292
45.809
47.257
48.686
50.138
51.658
53.29
55.078
57.059
59.257
61.682
64.337
67.22
70.321
73.632
77.136
80.812
84.639
88.601
92.681
96.864
101.131
105.461
109.833
114.225
118.616
122.987
127.316
131.584
135.769
139.852
143.815
147.638
151.303
154.79
158.081
161.156
163.999
166.592
168.92
170.97
172.728
174.185
175.331
176.16
176.666
176.846
176.697
176.22
175.414
174.284
172.834
171.069
168.998
166.628
163.971
161.038
157.842
154.397
150.719
146.825
142.731
138.455
134.017
129.436
124.731
119.923
115.032
110.078
105.082
100.063
95.042
90.038
85.069
80.154
75.309
70.552
65.898
61.36
56.954
52.691
48.583
44.641
40.873
37.288
33.894
30.696
27.699
24.907
22.323
19.947
17.779
15.82
14.066
12.515
11.163
10.004
9.033
8.243
7.627
7.177
6.884
6.738
6.731
6.852
7.092
7.439
7.884
8.417
9.027
9.704
10.438
11.219
12.038
12.886
13.754
14.634
15.519
16.4
17.27
18.125
18.957
19.762
20.535
21.272
21.969
22.625
23.237
23.802
24.321
24.792
25.215
25.591
25.921
26.206
26.448
26.647
26.807
26.93
27.018
27.074
27.101
27.1
27.076
27.031
26.967
26.888
26.794
26.69
26.576
26.456
26.331
26.201
26.07
25.939
25.807
25.677
25.549
25.422
25.298
25.177
25.057
24.938
24.82
24.701
24.581
24.458
24.331
24.198
24.058
23.909
23.75
23.579
23.395
23.195
22.98
22.747
22.495
22.225
21.936
21.628
21.3
20.954
20.59
20.209
19.812
19.401
18.978
18.543
18.099
17.649
17.195
16.739
16.286
15.838
15.399
14.972
14.562
14.172
13.807
13.469
13.165
12.898
12.671
12.49
12.359
12.28
12.259
12.296
12.396
12.559
12.787
13.079
13.436
13.856
14.336
14.876
15.471
16.119
16.817
17.559
18.343
19.163
20.015
20.894
21.792
22.703
23.62
24.536
25.444
26.336
27.206
28.045
28.846
29.604
30.316
30.975
31.576
32.109
32.57
32.96
33.282
33.54
33.739
33.886
33.992
34.077
34.162
34.266
34.402
34.575
34.793
35.067
35.413
35.847
36.377
36.998
37.7
38.475
39.315
40.206
41.109
41.965
42.712
43.285
43.639
43.74
43.547
43.032
42.149
40.842
39.076
36.82
34.056
30.787
26.981
22.583
17.66
12.395
7.071
2.098
-2.187
-5.569
-7.749
-8.349
-7.174
-4.321
-0.224
4.314
8.543
12.065
14.476
15.174
13.835
10.688
6.53
2.881
1.436
3.345
9.779
22.395
42.416
70.305
105.775
147.256
192.448
239.189
284.575
324.395
354.477
371.03
370.432
350.238
309.193
246.356
163.424
65.516
-43.41
-159.657
-280.156
-404.733
-526.879
-635.004
-718.585
-766.223
-776.513
-757.955
-718.512
-667.798
-610.693
-545.744
-474.347
-398.699
-321.87
-249.702
-185.978
-132.404
-90.145
-58.689
-36.585
-22.46
-14.733
-11.268
-10.091
-9.372
-7.288
-3.011
3.401
11.674
21.268
31.362
41.219
49.968
56.629
60.858
62.78
62.697
61.146
58.656
55.675
52.76
50.505
49.25
49.133
50.155
52.17
55.059
58.73
63.042
67.834
72.96
78.294
83.734
89.202
94.614
99.87
104.875
109.539
113.788
117.581
120.909
123.783
126.23
128.289
130.002
131.422
132.613
133.633
134.536
135.372
136.185
137.018
137.917
138.928
140.089
141.426
142.951
144.669
146.579
148.676
150.951
153.39
155.973
158.682
161.501
164.415
167.409
170.468
173.57
176.696
179.825
182.938
186.016
189.04
191.991
194.848
197.595
200.214
202.688
205.0
207.132
209.067
210.786
212.276
213.52
214.505
215.219
215.65
215.79
215.631
215.169
214.399
213.32
211.931
210.233
208.23
205.925
203.324
200.435
197.267
193.828
190.132
186.19
182.016
177.624
173.029
168.249
163.299
158.197
152.96
147.608
142.157
136.626
131.035
125.4
119.741
114.075
108.419
102.79
97.204
91.677
86.223
80.856
75.588
70.431
65.397
60.494
55.733
51.12
46.664
42.369
38.242
34.286
30.505
26.901
23.475
20.228
17.16
14.27
11.557
9.017
6.648
4.447
2.41
0.531
-1.195
-2.772
-4.207
-5.507
-6.676
-7.723
-8.655
-9.477
-10.196
-10.821
-11.357
-11.812
-12.192
-12.504
-12.755
-12.95
-13.096
-13.199
-13.264
-13.296
-13.302
-13.285
-13.25
-13.203
-13.146
-13.084
-13.021
-12.959
-12.904
-12.856
-12.82
-12.797
-12.79
-12.801
-12.833
-12.886
-12.962
-13.063
-13.19
-13.343
-13.524
-13.734
-13.973
-14.241
-14.539
-14.867
-15.225
-15.613
-16.032
-16.48
-16.958
-17.466
-18.002
-18.567
-19.159
-19.779
-20.426
-21.098
-21.796
-22.518
-23.263
-24.031
-24.82
-25.629
-26.458
-27.305
-28.169
-29.049
-29.943
-30.85
-31.769
-32.698
-33.635
-34.578
-35.525
-36.474
-37.423
-38.369
-39.31
-40.243
-41.166
-42.077
-42.973
-43.851
-44.709
-45.543
-46.351
-47.13
-47.877
-48.588
-49.262
-49.893
-50.481
-51.021
-51.51
-51.946
-52.324
-52.643
-52.898
-53.087
-53.208
-53.257
-53.234
-53.136
-52.962
-52.712
-52.387
-51.988
-51.516
-50.975
-50.365
-49.69
-48.954
-48.159
-47.311
-46.412
-45.467
-44.481
-43.46
-42.409
-41.338
-40.251
-39.157
-38.063
-36.976
-35.904
-34.854
-33.835
-32.851
-31.909
-31.016
-30.179
-29.408
-28.709
-28.083
-27.528
-27.04
-26.613
-26.243
-25.918
-25.62
-25.336
-25.051
-24.752
-24.436
-24.094
-23.717
-23.296
-22.812
-22.257
-21.637
-20.956
-20.225
-19.464
-18.684
-17.914
-17.209
-16.611
-16.168
-15.932
-15.928
-16.188
-16.753
-17.641
-18.893
-20.548
-22.625
-25.149
-28.138
-31.569
-35.46
-39.842
-44.625
-49.652
-54.675
-59.317
-63.279
-66.358
-68.274
-68.686
-67.418
-64.562
-60.533
-56.087
-51.931
-48.467
-46.093
-45.394
-46.703
-49.816
-53.99
-57.8
-59.636
-58.377
-52.877
-41.559
-23.24
2.582
35.689
74.641
117.281
161.511
204.493
242.256
270.873
286.581
285.789
266.286
226.924
166.898
88.239
-5.149
-110.333
-222.363
-337.806
-453.86
-561.603
-653.712
-722.82
-761.909
-774.283
-764.0
-735.221
-694.595
-642.918
-581.518
-514.277
-443.621
-373.758
-308.826
-250.832
-201.459
-161.628
-131.032
-108.743
-93.566
-84.163
-78.87
-76.096
-74.238
-71.6
-67.369
-61.521
-54.219
-45.866
-37.075
-28.407
-20.634
-14.718
-11.038
-9.508
-9.876
-11.657
-14.383
-17.668
-20.995
-23.767
-25.623
-26.408
-26.104
-24.845
-22.743
-19.867
-16.337
-12.3
-7.889
-3.225
1.59
6.49
11.4
16.224
20.875
25.261
29.302
32.962
36.233
39.127
41.671
43.9
45.851
47.575
49.129
50.57
51.946
53.303
54.677
56.109
57.641
59.315
61.167
63.219
65.481
67.952
70.629
73.503
76.561
79.785
83.151
86.636
90.222
93.889
97.62
101.393
105.185
108.973
112.731
116.437
120.068
123.603
127.018
130.293
133.405
136.337
139.069
141.584
143.862
145.885
147.636
149.098
150.258
151.102
151.619
151.799
151.634
151.12
150.253
149.032
147.458
145.532
143.26
140.647
137.701
134.432
130.85
126.97
122.804
118.368
113.679
108.755
103.615
98.279
92.767
87.101
81.302
75.394
69.398
63.337
57.234
51.111
44.99
38.893
32.842
26.856
20.957
15.162
9.489
3.956
-1.422
-6.631
-11.658
-16.49
-21.117
-25.531
-29.721
-33.683
-37.411
-40.9
-44.147
-47.151
-49.911
-52.428
-54.704
-56.741
-58.544
-60.118
-61.468
-62.601
-63.526
-64.249
-64.779
-65.128
-65.303
-65.315
-65.176
-64.895
-64.484
-63.953
-63.314
-62.576
-61.752
-60.85
-59.881
-58.855
-57.78
-56.666
-55.52
-54.35
-53.164
-51.968
-50.768
-49.57
-48.379
-47.199
-46.033
-44.886
-43.76
-42.657
-41.579
-40.528
-39.503
-38.506
-37.537
-36.596
-35.682
-34.795
-33.934
-33.099
-32.287
-31.498
-30.73
-29.984
-29.256
-28.548
-27.857
-27.184
-26.527
-25.888
-25.265
-24.659
-24.07
-23.5
-22.948
-22.417
-21.907
-21.42
-20.958
-20.523
-20.116
-19.739
-19.395
-19.086
-18.813
-18.578
-18.383
-18.228
-18.116
-18.046
-18.02
-18.037
-18.097
-18.201
-18.347
-18.535
-18.763
-19.029
-19.331
-19.667
-20.033
-20.426
-20.841
-21.275
-21.722
-22.178
-22.638
-23.096
-23.545
-23.98
-24.395
-24.783
-25.137
-25.45
-25.718
-25.933
-26.09
-26.185
-26.213
-26.171
-26.056
-25.868
-25.604
-25.265
-24.85
-24.36
-23.796
-23.161
-22.455
-21.682
-20.844
-19.947
-18.997
-18.001
-16.965
-15.897
-14.803
-13.692
-12.572
-11.451
-10.339
-9.242
-8.167
-7.122
-6.119
-5.169
-4.28
-3.456
-2.695
-1.998
-1.361
-0.779
-0.242
0.265
0.758
1.252
1.757
2.278
2.822
3.4
4.025
4.714
5.474
6.302
7.189
8.129
9.105
10.098
11.075
11.978
12.755
13.355
13.722
13.82
13.605
13.035
12.082
10.71
8.879
6.57
3.762
0.43
-3.405
-7.749
-12.636
-17.952
-23.513
-29.061
-34.182
-38.534
-41.904
-43.952
-44.277
-42.805
-39.657
-35.262
-30.552
-26.189
-22.509
-20.117
-19.592
-20.969
-23.994
-27.72
-30.259
-30.175
-26.41
-17.416
-1.83
21.068
51.644
89.102
131.266
176.086
221.218
263.165
298.153
322.494
332.488
325.196
298.971
252.644
185.891
101.471
3.382
-105.245
-219.322
-335.735
-451.752
-558.305
-648.347
-714.887
-751.081
-760.563
-747.544
-716.125
-673.143
-619.503
-556.467
-487.849
-415.949
-344.863
-278.779
-219.795
-169.562
-128.992
-97.781
-74.976
-59.423
-49.78
-44.285
-41.27
-39.094
-36.052
-31.357
-25.0
-17.142
-8.218
1.102
10.217
18.332
24.507
28.403
30.111
29.892
28.24
25.636
22.49
19.332
16.747
15.082
14.491
14.988
16.444
18.751
21.829
25.553
29.773
34.349
39.166
44.126
49.159
54.19
59.123
63.867
68.332
72.439
76.146
79.442
82.337
84.856
87.034
88.911
90.537
91.974
93.277
94.498
95.683
96.87
98.101
99.42
100.871
102.491
104.307
106.33
108.562
111.002
113.641
116.47
119.47
122.619
125.895
129.279
132.753
136.301
139.902
143.533
147.173
150.795
154.38
157.904
161.346
164.685
167.9
170.97
173.877
176.604
179.133
181.445
183.523
185.35
186.91
188.189
189.175
189.855
190.22
190.264
189.98
189.365
188.419
187.141
185.534
183.601
181.349
178.785
175.917
172.757
169.315
165.607
161.645
157.447
153.029
148.408
143.603
138.634
133.521
128.282
122.94
117.515
112.026
106.496
100.944
95.39
89.854
84.354
78.91
73.538
68.255
63.077
58.018
53.091
48.309
43.683
39.221
34.934
30.827
26.909
23.182
19.652
16.321
13.191
10.263
7.535
5.006
2.674
0.536
-1.413
-3.178
-4.765
-6.179
-7.428
-8.52
-9.462
-10.262
-10.93
-11.474
-11.902
-12.226
-12.452
-12.591
-12.651
-12.642
-12.571
-12.447
-12.277
-12.07
-11.831
-11.569
-11.288
-10.996
-10.697
-10.396
-10.097
-9.805
-9.521
-9.25
-8.994
-8.755
-8.533
-8.33
-8.147
-7.984
-7.841
-7.717
-7.612
-7.525
-7.455
-7.399
-7.357
-7.328
-7.308
-7.297
-7.293
-7.294
-7.298
-7.304
-7.31
-7.315
-7.317
-7.316
-7.31
-7.299
-7.281
-7.258
-7.227
-7.19
-7.147
-7.098
-7.043
-6.984
-6.922
-6.857
-6.791
-6.726
-6.663
-6.604
-6.551
-6.505
-6.469
-6.445
-6.435
-6.44
-6.462
-6.504
-6.565
-6.649
-6.754
-6.883
-7.036
-7.212
-7.411
-7.633
-7.878
-8.145
-8.432
-8.738
-9.061
-9.399
-9.75
-10.11
-10.477
-10.847
-11.217
-11.582
-11.939
-12.284
-12.612
-12.917
-13.196
-13.443
-13.653
-13.821
-13.941
-14.009
-14.02
-13.97
-13.855
-13.673
-13.421
-13.097
-12.701
-12.234
-11.695
-11.084
-10.404
-9.655
-8.84
-7.963
-7.024
-6.029
-4.982
-3.888
-2.754
-1.588
-0.395
0.818
2.043
3.273
4.499
5.713
6.909
8.08
9.218
10.313
11.353
12.331
13.245
14.092
14.875
15.596
16.259
16.873
17.453
18.015
18.572
19.135
19.712
20.309
20.937
21.61
22.343
23.144
24.011
24.936
25.909
26.916
27.934
28.93
29.845
30.625
31.213
31.546
31.582
31.27
30.561
29.426
27.822
25.704
23.044
19.819
16.0
11.606
6.634
1.049
-5.03
-11.411
-17.816
-23.803
-29.0
-33.176
-35.973
-36.977
-36.121
-33.53
-29.647
-25.442
-21.608
-18.503
-16.752
-16.92
-18.991
-22.655
-26.906
-29.781
-29.786
-25.81
-16.25
0.241
24.303
56.202
95.027
138.48
184.42
230.398
272.796
307.787
331.688
340.829
332.31
304.506
256.236
187.186
100.153
-0.85
-112.692
-230.28
-350.462
-470.378
-580.735
-674.243
-743.646
-781.847
-792.293
-779.022
-746.07
-700.386
-643.08
-575.719
-502.499
-426.083
-350.961
-281.708
-220.687
-169.643
-129.424
-99.551
-78.833
-65.865
-59.022
-56.243
-55.621
-55.399
-53.868
-50.289
-44.74
-37.468
-29.006
-20.148
-11.588
-4.159
1.226
4.287
5.182
4.227
1.957
-1.091
-4.475
-7.642
-10.013
-11.293
-11.379
-10.293
-8.199
-5.22
-1.449
2.965
7.858
13.083
18.512
24.042
29.597
35.08
40.384
45.405
50.043
54.24
57.976
61.25
64.088
66.52
68.584
70.332
71.824
73.118
74.272
75.334
76.349
77.363
78.425
79.584
80.886
82.362
84.028
85.893
87.954
90.209
92.649
95.259
98.02
100.913
103.921
107.03
110.226
113.491
116.806
120.151
123.504
126.844
130.152
133.409
136.594
139.689
142.673
145.53
148.242
150.792
153.161
155.329
157.28
158.995
160.459
161.657
162.575
163.201
163.524
163.537
163.232
162.605
161.652
160.373
158.766
156.835
154.582
152.013
149.135
145.955
142.485
138.735
134.717
130.447
125.939
121.21
116.277
111.158
105.874
100.442
94.884
89.22
83.471
77.659
71.804
65.927
60.049
54.191
48.372
42.612
36.93
31.342
25.866
20.517
15.311
10.26
5.378
0.677
-3.835
-8.147
-12.252
-16.142
-19.812
-23.258
-26.477
-29.467
-32.228
-34.759
-37.063
-39.142
-41.0
-42.642
-44.073
-45.3
-46.331
-47.173
-47.836
-48.328
-48.659
-48.839
-48.879
-48.789
-48.58
-48.263
-47.849
-47.348
-46.772
-46.129
-45.431
-44.687
-43.907
-43.099
-42.272
-41.435
-40.594
-39.757
-38.929
-38.117
-37.326
-36.561
-35.824
-35.12
-34.451
-33.818
-33.225
-32.67
-32.156
-31.682
-31.247
-30.851
-30.492
-30.169
-29.881
-29.624
-29.398
-29.199
-29.026
-28.875
-28.744
-28.632
-28.534
-28.45
-28.376
-28.311
-28.252
-28.198
-28.147
-28.098
-28.05
-28.001
-27.95
-27.899
-27.845
-27.79
-27.734
-27.677
-27.62
-27.564
-27.511
-27.462
-27.418
-27.381
-27.353
-27.336
-27.331
-27.34
-27.365
-27.408
-27.471
-27.555
-27.66
-27.79
-27.944
-28.122
-28.326
-28.555
-28.809
-29.088
-29.39
-29.714
-30.059
-30.424
-30.806
-31.203
-31.613
-32.032
-32.458
-32.887
-33.314
-33.737
-34.151
-34.55
-34.931
-35.29
-35.62
-35.917
-36.177
-36.393
-36.562
-36.678
-36.736
-36.733
-36.664
-36.526
-36.317
-36.034
-35.675
-35.242
-34.733
-34.151
-33.496
-32.769
-31.974
-31.114
-30.192
-29.212
-28.177
-27.093
-25.965
-24.8
-23.606
-22.39
-21.159
-19.921
-18.684
-17.458
-16.251
-15.071
-13.924
-12.818
-11.758
-10.754
-9.815
-8.949
-8.156
-7.437
-6.789
-6.208
-5.69
-5.226
-4.798
-4.391
-3.989
-3.581
-3.163
-2.728
-2.267
-1.771
-1.219
-0.601
0.076
0.811
1.594
2.41
3.249
4.081
4.853
5.512
6.003
6.274
6.3
6.053
5.502
4.61
3.32
1.581
-0.636
-3.361
-6.594
-10.351
-14.69
-19.582
-24.882
-30.36
-35.653
-40.43
-44.481
-47.534
-49.243
-49.399
-47.94
-45.146
-41.693
-38.226
-35.239
-33.203
-32.58
-33.693
-36.613
-40.768
-44.926
-47.66
-47.524
-43.181
-33.27
-16.484
8.02
40.301
79.501
123.945
171.407
219.273
264.142
302.031
329.089
341.713
336.693
311.903
266.195
199.186
113.486
13.195
-98.665
-217.069
-338.724
-460.673
-573.464
-669.552
-741.337
-781.385
-793.026
-780.261
-747.183
-700.818
-642.19
-572.881
-497.23
-418.089
-340.236
-268.482
-205.339
-152.7
-111.464
-81.138
-60.473
-47.917
-41.706
-39.65
-39.712
-40.033
-38.842
-35.367
-29.692
-22.115
-13.216
-3.838
5.269
13.235
19.126
22.654
23.981
23.438
21.578
18.951
16.016
13.33
11.471
10.725
11.189
12.83
15.479
19.005
23.306
28.228
33.603
39.28
45.128
51.042
56.942
62.73
68.298
73.546
78.377
82.74
86.615
90.006
92.94
95.449
97.573
99.365
100.887
102.199
103.358
104.417
105.42
106.417
107.457
108.588
109.857
111.293
112.911
114.721
116.722
118.91
121.279
123.814
126.498
129.314
132.248
135.284
138.412
141.614
144.873
148.17
151.483
154.796
158.089
161.344
164.542
167.664
170.693
173.611
176.402
179.047
181.528
183.827
185.925
187.805
189.451
190.848
191.982
192.84
193.411
193.687
193.66
193.326
192.679
191.718
190.442
188.852
186.951
184.743
182.234
179.431
176.342
172.979
169.353
165.476
161.362
157.028
152.488
147.761
142.864
137.815
132.634
127.34
121.953
116.494
110.981
105.436
99.879
94.328
88.803
83.322
77.904
72.565
67.322
62.189
57.18
52.309
47.589
43.029
38.64
34.431
30.41
26.583
22.956
19.533
16.317
13.311
10.516
7.931
5.555
3.387
1.424
-0.339
-1.907
-3.284
-4.478
-5.495
-6.343
-7.031
-7.567
-7.959
-8.218
-8.353
-8.374
-8.29
-8.111
-7.846
-7.506
-7.099
-6.635
-6.121
-5.567
-4.981
-4.369
-3.741
-3.101
-2.457
-1.815
-1.179
-0.556
0.052
0.639
1.203
1.741
2.25
2.728
3.175
3.588
3.967
4.313
4.625
4.903
5.15
5.365
5.551
5.709
5.84
5.947
6.032
6.096
6.141
6.17
6.185
6.188
6.18
6.164
6.141
6.114
6.083
6.051
6.019
5.988
5.959
5.933
5.911
5.894
5.882
5.875
5.874
5.879
5.89
5.907
5.928
5.954
5.983
6.016
6.05
6.086
6.12
6.154
6.184
6.21
6.231
6.244
6.249
6.244
6.228
6.199
6.155
6.096
6.02
5.926
5.814
5.682
5.531
5.359
5.167
4.954
4.722
4.471
4.2
3.912
3.606
3.284
2.948
2.599
2.239
1.87
1.496
1.118
0.74
0.365
-0.004
-0.364
-0.712
-1.042
-1.352
-1.637
-1.893
-2.117
-2.304
-2.45
-2.552
-2.608
-2.613
-2.566
-2.466
-2.312
-2.103
-1.841
-1.524
-1.155
-0.734
-0.264
0.254
0.816
1.422
2.067
2.748
3.459
4.197
4.955
5.728
6.511
7.298
8.083
8.859
9.618
10.359
11.075
11.764
12.417
13.028
13.59
14.104
14.572
14.996
15.38
15.729
16.052
16.367
16.692
17.045
17.436
17.871
18.357
18.901
19.517
20.221
21.019
21.907
22.874
23.912
25.009
26.153
27.303
28.4
29.38
30.172
30.726
31.005
30.964
30.576
29.79
28.546
26.804
24.525
21.685
18.286
14.295
9.652
4.423
-1.203
-6.933
-12.339
-17.07
-20.909
-23.553
-24.624
-23.931
-21.576
-18.003
-14.032
-10.407
-7.514
-5.741
-5.67
-7.586
-11.219
-15.73
-19.56
-21.005
-18.918
-12.129
1.006
21.667
50.248
86.379
128.411
173.993
220.931
266.281
305.818
335.384
351.231
349.832
328.856
287.115
223.738
140.406
42.117
-67.151
-183.666
-304.266
-428.559
-550.205
-658.003
-741.793
-790.625
-802.975
-786.804
-749.595
-700.417
-644.04
-579.285
-507.728
-431.788
-354.619
-281.996
-217.769
-163.774
-121.284
-89.899
-68.194
-54.75
-47.953
-45.638
-45.773
-46.454
-45.784
-42.875
-37.758
-30.713
-22.288
-13.305
-4.514
3.196
8.819
11.992
12.84
11.676
9.051
5.508
1.508
-2.379
-5.547
-7.647
-8.537
-8.218
-6.84
-4.523
-1.364
2.494
6.888
11.668
16.706
21.895
27.156
32.402
37.528
42.437
47.039
51.259
55.057
58.425
61.374
63.93
66.133
68.026
69.66
71.097
72.396
73.61
74.788
75.971
77.203
78.53
79.993
81.628
83.459
85.495
87.738
90.186
92.829
95.657
98.654
101.799
105.072
108.455
111.932
115.486
119.1
122.752
126.42
130.083
133.721
137.313
140.839
144.279
147.612
150.82
153.884
156.787
159.509
162.033
164.34
166.411
168.231
169.783
171.055
172.031
172.702
173.058
173.091
172.795
172.166
171.202
169.901
168.266
166.297
163.999
161.379
158.442
155.199
151.658
147.832
143.734
139.377
134.777
129.95
124.913
119.684
114.283
108.728
103.038
97.235
91.338
85.367
79.343
73.287
67.217
61.154
55.116
49.123
43.192
37.339
31.581
25.934
20.411
15.026
9.791
4.719
-0.182
-4.901
-9.431
-13.763
-17.891
-21.812
-25.52
-29.012
-32.288
-35.346
-38.185
-40.808
-43.217
-45.414
-47.403
-49.189
-50.776
-52.172
-53.383
-54.415
-55.277
-55.976
-56.521
-56.921
-57.184
-57.319
-57.337
-57.245
-57.053
-56.771
-56.407
-55.97
-55.469
-54.914
-54.311
-53.669
-52.997
-52.301
-51.588
-50.865
-50.138
-49.414
-48.697
-47.992
-47.304
-46.637
-45.995
-45.379
-44.794
-44.241
-43.723
-43.24
-42.793
-42.384
-42.012
-41.677
-41.379
-41.118
-40.891
-40.698
-40.538
-40.409
-40.31
-40.237
-40.19
-40.165
-40.161
-40.176
-40.206
-40.251
-40.306
-40.371
-40.442
-40.518
-40.596
-40.676
-40.754
-40.829
-40.9
-40.964
-41.022
-41.071
-41.111
-41.141
-41.161
-41.17
-41.169
-41.157
-41.135
-41.104
-41.063
-41.015
-40.96
-40.899
-40.833
-40.764
-40.694
-40.624
-40.555
-40.49
-40.43
-40.376
-40.33
-40.293
-40.266
-40.251
-40.246
-40.254
-40.274
-40.307
-40.352
-40.411
-40.481
-40.563
-40.656
-40.758
-40.869
-40.985
-41.106
-41.228
-41.349
-41.467
-41.579
-41.68
-41.769
-41.841
-41.892
-41.919
-41.918
-41.884
-41.813
-41.702
-41.547
-41.345
-41.094
-40.791
-40.434
-40.024
-39.561
-39.044
-38.474
-37.853
-37.181
-36.461
-35.695
-34.886
-34.036
-33.148
-32.227
-31.279
-30.308
-29.321
-28.323
-27.32
-26.318
-25.324
-24.346
-23.389
-22.457
-21.555
-20.689
-19.865
-19.092
-18.376
-17.715
-17.108
-16.552
-16.042
-15.575
-15.138
-14.711
-14.279
-13.824
-13.334
-12.805
-12.228
-11.593
-10.888
-10.094
-9.206
-8.228
-7.165
-6.024
-4.814
-3.549
-2.263
-1.014
0.142
1.144
1.943
2.501
2.781
2.749
2.363
1.569
0.326
-1.396
-3.621
-6.356
-9.63
-13.503
-17.94
-22.782
-27.773
-32.543
-36.761
-40.215
-42.637
-43.659
-43.049
-40.838
-37.383
-33.415
-29.64
-26.427
-24.086
-23.116
-23.849
-26.173
-29.447
-32.303
-33.155
-30.938
-24.707
-13.134
4.93
30.083
62.322
100.486
142.649
187.042
231.4
272.377
306.214
329.188
337.76
329.07
301.197
252.731
183.22
95.395
-6.584
-119.543
-238.392
-360.004
-481.421
-592.904
-686.857
-755.714
-792.165
-800.013
-783.564
-747.206
-698.463
-638.574
-569.202
-494.671
-417.554
-342.468
-274.151
-214.872
-166.165
-128.56
-101.242
-82.816
-71.782
-66.378
-64.392
-63.874
-63.143
-60.684
-55.994
-49.298
-40.934
-31.523
-21.947
-12.954
-5.361
0.016
2.993
3.775
2.707
0.332
-2.817
-6.292
-9.57
-12.129
-13.689
-14.145
-13.515
-11.936
-9.52
-6.359
-2.581
1.67
6.259
11.073
16.009
20.988
25.929
30.736
35.32
39.596
43.495
46.979
50.044
52.703
54.986
56.932
58.582
59.989
61.214
62.315
63.346
64.356
65.384
66.474
67.67
69.013
70.541
72.277
74.232
76.407
78.801
81.407
84.213
87.206
90.362
93.661
97.087
100.621
104.249
107.951
111.704
115.488
119.279
123.056
126.796
130.48
134.084
137.588
140.97
144.211
147.291
150.193
152.894
155.377
157.622
159.611
161.328
162.759
163.889
164.707
165.203
165.369
165.2
164.691
163.842
162.65
161.119
159.252
157.054
154.531
151.693
148.549
145.111
141.392
137.408
133.173
128.705
124.022
119.143
114.089
108.879
103.536
98.08
92.533
86.918
81.256
75.57
69.881
64.212
58.582
53.011
47.52
42.127
36.85
31.704
26.705
21.867
17.204
12.726
8.445
4.371
0.51
-3.13
-6.543
-9.725
-12.674
-15.387
-17.863
-20.104
-22.111
-23.886
-25.434
-26.759
-27.868
-28.766
-29.461
-29.961
-30.275
-30.413
-30.383
-30.197
-29.864
-29.396
-28.804
-28.098
-27.29
-26.39
-25.409
-24.358
-23.248
-22.087
-20.886
-19.654
-18.4
-17.132
-15.859
-14.588
-13.327
-12.081
-10.856
-9.659
-8.495
-7.367
-6.28
-5.237
-4.242
-3.297
-2.403
-1.563
-0.777
-0.047
0.628
1.247
1.81
2.319
2.774
3.176
3.527
3.829
4.083
4.291
4.456
4.579
4.662
4.709
4.721
4.701
4.651
4.574
4.472
4.347
4.203
4.04
3.863
3.672
3.47
3.259
3.042
2.819
2.594
2.367
2.141
1.917
1.696
1.48
1.269
1.066
0.869
0.681
0.5
0.328
0.165
0.009
-0.138
-0.278
-0.412
-0.539
-0.662
-0.781
-0.898
-1.013
-1.13
-1.248
-1.37
-1.496
-1.629
-1.77
-1.919
-2.077
-2.247
-2.428
-2.622
-2.829
-3.05
-3.285
-3.536
-3.801
-4.08
-4.373
-4.678
-4.996
-5.323
-5.659
-6.001
-6.346
-6.694
-7.039
-7.38
-7.712
-8.032
-8.335
-8.617
-8.875
-9.103
-9.298
-9.455
-9.572
-9.645
-9.672
-9.651
-9.581
-9.462
-9.292
-9.07
-8.797
-8.472
-8.098
-7.674
-7.202
-6.682
-6.118
-5.514
-4.875
-4.205
-3.509
-2.791
-2.056
-1.312
-0.564
0.182
0.922
1.65
2.359
3.043
3.691
4.297
4.86
5.381
5.863
6.309
6.724
7.118
7.509
7.91
8.335
8.795
9.295
9.843
10.447
11.12
11.876
12.722
13.653
14.662
15.737
16.863
18.02
19.175
20.269
21.251
22.065
22.654
22.978
22.99
22.646
21.914
20.756
19.131
17.014
14.386
11.22
7.532
3.316
-1.465
-6.7
-12.197
-17.693
-22.765
-27.062
-30.366
-32.335
-32.564
-30.987
-27.74
-23.263
-18.506
-14.146
-10.517
-8.226
-7.839
-9.352
-12.491
-16.295
-18.856
-18.738
-14.876
-5.699
10.12
33.245
64.011
101.584
143.78
188.559
233.52
275.094
309.492
333.035
342.067
333.693
306.235
258.509
190.265
104.407
5.084
-104.538
-219.389
-336.445
-452.962
-559.606
-649.173
-714.49
-748.557
-755.238
-738.867
-703.713
-656.989
-599.69
-533.184
-461.46
-386.847
-313.637
-246.257
-186.869
-137.085
-97.677
-68.152
-47.404
-34.179
-26.973
-23.831
-22.944
-22.61
-21.142
-17.792
-12.586
-5.694
2.418
11.002
19.4
26.797
32.274
35.54
36.729
36.121
34.224
31.548
28.511
25.644
23.517
22.412
22.427
23.536
25.57
28.406
31.954
36.07
40.593
45.385
50.323
55.31
60.28
65.143
69.801
74.159
78.124
81.648
84.717
87.336
89.535
91.35
92.821
94.002
94.954
95.737
96.409
97.02
97.612
98.235
98.936
99.762
100.761
101.963
103.385
105.035
106.912
109.014
111.333
113.855
116.561
119.434
122.456
125.613
128.89
132.271
135.735
139.261
142.825
146.408
149.988
153.543
157.053
160.495
163.849
167.095
170.212
173.182
175.983
178.593
180.993
183.163
185.084
186.739
188.112
189.187
189.952
190.397
190.511
190.289
189.724
188.812
187.552
185.942
183.986
181.685
179.045
176.072
172.775
169.164
165.249
161.043
156.562
151.819
146.833
141.619
136.197
130.587
124.807
118.879
112.823
106.661
100.414
94.104
87.752
81.38
75.008
68.657
62.347
56.097
49.926
43.85
37.888
32.054
26.363
20.83
15.467
10.286
5.297
0.509
-4.068
-8.428
-12.565
-16.474
-20.152
-23.597
-26.807
-29.782
-32.524
-35.034
-37.315
-39.372
-41.208
-42.831
-44.246
-45.46
-46.483
-47.321
-47.983
-48.48
-48.821
-49.014
-49.072
-49.003
-48.819
-48.528
-48.142
-47.671
-47.124
-46.511
-45.842
-45.126
-44.37
-43.585
-42.777
-41.954
-41.123
-40.291
-39.463
-38.645
-37.841
-37.056
-36.294
-35.558
-34.851
-34.175
-33.532
-32.924
-32.351
-31.813
-31.312
-30.847
-30.418
-30.024
-29.663
-29.336
-29.04
-28.774
-28.536
-28.326
-28.14
-27.977
-27.836
-27.714
-27.611
-27.524
-27.451
-27.392
-27.344
-27.308
-27.28
-27.262
-27.251
-27.248
-27.252
-27.262
-27.28
-27.305
-27.336
-27.376
-27.422
-27.478
-27.542
-27.615
-27.699
-27.793
-27.899
-28.017
-28.147
-28.289
-28.445
-28.613
-28.793
-28.985
-29.189
-29.403
-29.626
-29.858
-30.098
-30.344
-30.595
-30.848
-31.102
-31.354
-31.603
-31.844
-32.074
-32.292
-32.493
-32.675
-32.833
-32.965
-33.066
-33.134
-33.163
-33.151
-33.094
-32.989
-32.832
-32.621
-32.353
-32.028
-31.644
-31.2
-30.698
-30.138
-29.523
-28.854
-28.134
-27.365
-26.55
-25.693
-24.798
-23.869
-22.908
-21.923
-20.918
-19.901
-18.877
-17.853
-16.834
-15.828
-14.841
-13.882
-12.956
-12.068
-11.221
-10.42
-9.673
-8.987
-8.368
-7.813
-7.321
-6.889
-6.511
-6.182
-5.892
-5.618
-5.342
-5.046
-4.716
-4.346
-3.93
-3.454
-2.906
-2.27
-1.539
-0.719
0.183
1.163
2.208
3.302
4.407
5.462
6.405
7.171
7.706
7.972
7.928
7.543
6.779
5.583
3.918
1.76
-0.92
-4.122
-7.867
-12.216
-17.088
-22.287
-27.538
-32.413
-36.557
-39.771
-41.74
-42.078
-40.729
-37.826
-33.81
-29.627
-25.939
-23.042
-21.477
-21.724
-23.724
-27.179
-31.127
-33.69
-33.457
-29.395
-20.052
-4.23
18.665
48.899
85.623
126.691
170.069
213.413
253.37
286.411
308.932
317.302
308.873
282.094
235.82
170.098
86.632
-11.686
-120.567
-234.75
-348.833
-457.263
-554.476
-635.757
-697.483
-737.345
-754.862
-750.722
-726.557
-685.185
-630.156
-565.432
-495.372
-423.947
-354.244
-289.152
-231.013
-181.347
-141.176
-110.492
-88.209
-73.051
-63.742
-58.564
-55.855
-53.989
-51.277
-46.921
-40.922
-33.459
-24.943
-16.01
-7.244
0.578
6.536
10.295
11.952
11.773
10.253
7.87
5.028
2.252
0.112
-1.055
-1.105
-0.03
2.034
4.977
8.712
13.108
18.011
23.279
28.788
34.438
40.152
45.849
51.431
56.804
61.881
66.589
70.888
74.77
78.247
81.342
84.094
86.542
88.736
90.735
92.594
94.364
96.09
97.812
99.572
101.412
103.374
105.491
107.789
110.274
112.95
115.812
118.853
122.062
125.422
128.91
132.508
136.196
139.959
143.778
147.636
151.51
155.379
159.219
163.011
166.732
170.364
173.884
177.273
180.511
183.58
186.462
189.141
191.596
193.811
195.768
197.451
198.846
199.939
200.719
201.175
201.299
201.085
200.529
199.629
198.383
196.794
194.862
192.595
189.997
187.076
183.844
180.309
176.486
172.388
168.03
163.43
158.603
153.569
148.348
142.958
137.421
131.757
125.988
120.135
114.22
108.264
102.289
96.314
90.361
84.45
78.599
72.828
67.153
61.591
56.157
50.865
45.728
40.759
35.968
31.363
26.954
22.747
18.748
14.961
11.39
8.035
4.899
1.98
-0.723
-3.213
-5.493
-7.567
-9.441
-11.121
-12.614
-13.927
-15.068
-16.047
-16.871
-17.551
-18.097
-18.518
-18.823
-19.024
-19.13
-19.151
-19.097
-18.978
-18.802
-18.578
-18.316
-18.023
-17.707
-17.375
-17.034
-16.691
-16.351
-16.019
-15.7
-15.398
-15.116
-14.859
-14.628
-14.427
-14.256
-14.117
-14.011
-13.939
-13.901
-13.896
-13.926
-13.989
-14.084
-14.211
-14.368
-14.555
-14.769
-15.01
-15.277
-15.567
-15.879
-16.211
-16.563
-16.932
-17.318
-17.718
-18.132
-18.559
-18.997
-19.446
-19.904
-20.372
-20.848
-21.332
-21.823
-22.321
-22.825
-23.336
-23.852
-24.375
-24.902
-25.436
-25.974
-26.519
-27.068
-27.623
-28.182
-28.747
-29.317
-29.892
-30.471
-31.056
-31.646
-32.24
-32.839
-33.443
-34.05
-34.661
-35.275
-35.89
-36.507
-37.123
-37.737
-38.349
-38.956
-39.557
-40.151
-40.735
-41.307
-41.866
-42.409
-42.934
-43.438
-43.919
-44.374
-44.8
-45.194
-45.554
-45.877
-46.159
-46.397
-46.589
-46.73
-46.817
-46.848
-46.819
-46.726
-46.569
-46.344
-46.049
-45.684
-45.248
-44.742
-44.167
-43.523
-42.814
-42.04
-41.204
-40.31
-39.361
-38.36
-37.31
-36.216
-35.083
-33.916
-32.724
-31.513
-30.289
-29.06
-27.832
-26.613
-25.41
-24.232
-23.083
-21.97
-20.9
-19.879
-18.92
-18.028
-17.204
-16.449
-15.757
-15.122
-14.54
-13.999
-13.481
-12.973
-12.457
-11.921
-11.36
-10.765
-10.127
-9.434
-8.667
-7.813
-6.878
-5.867
-4.792
-3.675
-2.531
-1.389
-0.308
0.663
1.473
2.063
2.403
2.455
2.176
1.538
0.497
-0.998
-2.971
-5.446
-8.442
-11.929
-15.914
-20.43
-25.38
-30.594
-35.814
-40.625
-44.695
-47.807
-49.65
-49.862
-48.29
-44.993
-40.359
-35.245
-30.416
-26.341
-23.542
-22.532
-23.5
-26.26
-30.034
-33.183
-33.981
-31.066
-22.988
-8.386
13.635
43.49
80.739
123.615
169.737
216.48
260.468
297.912
324.979
337.829
333.265
309.288
264.816
199.846
115.946
16.058
-95.565
-213.579
-332.209
-445.602
-548.014
-634.41
-700.808
-744.589
-764.92
-762.293
-738.316
-695.809
-638.442
-570.44
-496.505
-421.024
-347.496
-279.139
-218.542
-167.386
-126.71
-96.415
-75.23
-61.611
-54.018
-50.49
-49.148
-48.236
-46.019
-41.723
-35.421
-27.406
-18.197
-8.544
0.86
9.179
15.473
19.414
21.12
20.886
19.228
16.649
13.579
10.558
8.156
6.704
6.341
7.068
8.751
11.278
14.56
18.466
22.843
27.55
32.47
37.505
42.581
47.619
52.524
57.204
61.572
65.556
69.116
72.242
74.945
77.251
79.198
80.827
82.189
83.345
84.354
85.267
86.133
86.992
87.888
88.865
89.966
91.23
92.683
94.334
96.19
98.247
100.502
102.943
105.556
108.321
111.218
114.23
117.34
120.533
123.792
127.094
130.419
133.744
137.048
140.312
143.514
146.634
149.652
152.548
155.304
157.902
160.326
162.556
164.575
166.364
167.91
169.196
170.211
170.941
171.377
171.51
171.335
170.848
170.046
168.928
167.496
165.752
163.701
161.349
158.704
155.776
152.574
149.111
145.401
141.459
137.299
132.939
128.396
123.689
118.836
113.857
108.772
103.6
98.361
93.076
87.764
82.444
77.135
71.856
66.624
61.457
56.369
51.377
46.493
41.732
37.105
32.622
28.293
24.127
20.13
16.309
12.668
9.213
5.945
2.866
-0.022
-2.721
-5.231
-7.554
-9.694
-11.654
-13.439
-15.053
-16.503
-17.795
-18.936
-19.932
-20.792
-21.522
-22.13
-22.625
-23.013
-23.304
-23.504
-23.621
-23.662
-23.635
-23.546
-23.401
-23.207
-22.97
-22.694
-22.385
-22.047
-21.686
-21.304
-20.905
-20.492
-20.069
-19.637
-19.199
-18.756
-18.31
-17.863
-17.415
-16.967
-16.52
-16.074
-15.63
-15.188
-14.748
-14.311
-13.877
-13.446
-13.018
-12.594
-12.175
-11.76
-11.352
-10.949
-10.554
-10.167
-9.789
-9.422
-9.066
-8.723
-8.395
-8.082
-7.785
-7.508
-7.25
-7.014
-6.8
-6.61
-6.446
-6.308
-6.199
-6.119
-6.069
-6.051
-6.064
-6.11
-6.188
-6.3
-6.445
-6.622
-6.832
-7.075
-7.349
-7.654
-7.988
-8.352
-8.744
-9.162
-9.605
-10.072
-10.561
-11.071
-11.6
-12.147
-12.71
-13.287
-13.878
-14.48
-15.091
-15.71
-16.334
-16.962
-17.591
-18.22
-18.845
-19.466
-20.08
-20.685
-21.279
-21.86
-22.426
-22.975
-23.505
-24.015
-24.502
-24.963
-25.397
-25.802
-26.175
-26.514
-26.816
-27.08
-27.302
-27.48
-27.61
-27.691
-27.718
-27.69
-27.603
-27.456
-27.246
-26.972
-26.633
-26.228
-25.758
-25.223
-24.625
-23.965
-23.245
-22.466
-21.631
-20.743
-19.804
-18.817
-17.784
-16.711
-15.602
-14.465
-13.306
-12.129
-10.942
-9.752
-8.564
-7.387
-6.227
-5.088
-3.979
-2.907
-1.88
-0.911
-0.004
0.838
1.615
2.33
2.99
3.601
4.173
4.721
5.26
5.798
6.347
6.909
7.494
8.113
8.778
9.504
10.3
11.167
12.098
13.083
14.102
15.132
16.141
17.086
17.921
18.611
19.115
19.392
19.407
19.116
18.477
17.462
16.037
14.165
11.826
8.999
5.672
1.877
-2.384
-7.137
-12.288
-17.671
-23.036
-27.972
-32.134
-35.316
-37.169
-37.284
-35.599
-32.249
-27.701
-22.948
-18.71
-15.36
-13.531
-13.802
-16.145
-20.22
-24.967
-28.354
-28.829
-25.235
-15.962
0.354
24.369
56.351
95.385
139.149
185.484
231.944
274.932
310.627
335.343
345.405
337.904
311.221
264.177
196.437
110.787
11.231
-99.125
-215.209
-333.905
-452.402
-561.446
-653.787
-722.213
-759.661
-769.603
-756.094
-723.178
-677.814
-621.107
-554.592
-482.424
-407.215
-333.418
-265.578
-205.999
-156.344
-117.367
-88.509
-68.53
-56.007
-49.299
-46.338
-45.253
-44.349
-42.015
-37.619
-31.305
-23.367
-14.378
-5.14
3.657
11.204
16.647
19.742
20.658
19.719
17.462
14.403
10.979
7.714
5.149
3.587
3.15
3.829
5.487
8.012
11.311
15.253
19.69
24.481
29.508
34.668
39.883
45.068
50.13
54.976
59.523
63.698
67.463
70.813
73.76
76.333
78.567
80.506
82.198
83.707
85.087
86.391
87.666
88.951
90.289
91.722
93.291
95.03
96.963
99.099
101.438
103.978
106.711
109.626
112.706
115.929
119.276
122.728
126.269
129.881
133.547
137.244
140.95
144.644
148.303
151.907
155.436
158.868
162.182
165.359
168.379
171.225
173.878
176.319
178.529
180.492
182.19
183.608
184.732
185.55
186.05
186.225
186.068
185.574
184.74
183.564
182.047
180.192
178.003
175.485
172.646
169.494
166.041
162.298
158.279
153.998
149.472
144.718
139.754
134.598
129.272
123.795
118.189
112.475
106.674
100.809
94.902
88.973
83.045
77.138
71.273
65.47
59.747
54.122
48.612
43.234
38.001
32.928
28.027
23.31
18.785
14.463
10.35
6.452
2.776
-0.676
-3.901
-6.898
-9.667
-12.209
-14.527
-16.623
-18.503
-20.172
-21.637
-22.904
-23.982
-24.879
-25.606
-26.172
-26.587
-26.863
-27.009
-27.038
-26.959
-26.786
-26.528
-26.196
-25.801
-25.354
-24.864
-24.341
-23.794
-23.231
-22.661
-22.092
-21.529
-20.98
-20.45
-19.944
-19.466
-19.021
-18.611
-18.239
-17.906
-17.614
-17.362
-17.151
-16.981
-16.849
-16.755
-16.697
-16.672
-16.677
-16.709
-16.766
-16.843
-16.938
-17.046
-17.165
-17.291
-17.419
-17.548
-17.673
-17.791
-17.899
-17.996
-18.077
-18.142
-18.187
-18.211
-18.213
-18.192
-18.146
-18.076
-17.981
-17.862
-17.718
-17.552
-17.364
-17.155
-16.928
-16.685
-16.428
-16.159
-15.881
-15.598
-15.312
-15.026
-14.744
-14.469
-14.204
-13.953
-13.719
-13.504
-13.313
-13.148
-13.011
-12.907
-12.838
-12.806
-12.813
-12.863
-12.956
-13.095
-13.28
-13.515
-13.799
-14.132
-14.517
-14.953
-15.439
-15.975
-16.56
-17.193
-17.871
-18.593
-19.356
-20.156
-20.991
-21.857
-22.75
-23.666
-24.601
-25.551
-26.51
-27.474
-28.438
-29.396
-30.344
-31.277
-32.187
-33.071
-33.921
-34.734
-35.504
-36.224
-36.89
-37.497
-38.038
-38.51
-38.907
-39.226
-39.461
-39.611
-39.672
-39.643
-39.522
-39.31
-39.007
-38.616
-38.138
-37.576
-36.934
-36.216
-35.425
-34.568
-33.649
-32.673
-31.647
-30.577
-29.472
-28.338
-27.186
-26.023
-24.856
-23.694
-22.547
-21.423
-20.33
-19.276
-18.265
-17.303
-16.4
-15.566
-14.806
-14.121
-13.509
-12.966
-12.488
-12.07
-11.702
-11.363
-11.037
-10.704
-10.353
-9.98
-9.577
-9.136
-8.642
-8.075
-7.429
-6.705
-5.912
-5.06
-4.159
-3.22
-2.283
-1.402
-0.639
-0.06
0.294
0.391
0.197
-0.309
-1.172
-2.448
-4.175
-6.387
-9.102
-12.313
-16.051
-20.375
-25.226
-30.427
-35.693
-40.61
-44.842
-48.173
-50.316
-50.899
-49.713
-46.841
-42.712
-38.128
-33.873
-30.378
-28.056
-27.53
-29.131
-32.626
-37.226
-41.381
-43.318
-41.838
-35.687
-23.117
-2.924
25.351
61.406
103.562
149.531
197.245
243.737
284.758
316.27
334.491
335.952
318.505
280.703
221.314
141.893
47.226
-58.984
-173.055
-292.102
-416.126
-538.534
-647.809
-733.675
-784.918
-799.84
-786.401
-751.819
-704.788
-650.204
-587.024
-516.819
-442.136
-366.078
-294.23
-230.459
-176.691
-134.09
-102.204
-79.643
-64.946
-56.607
-52.649
-51.112
-50.153
-47.944
-43.606
-37.184
-28.989
-19.528
-9.562
0.178
8.829
15.37
19.398
21.037
20.595
18.607
15.607
12.04
8.467
5.511
3.542
2.712
3.034
4.368
6.592
9.628
13.345
17.589
22.221
27.11
32.151
37.266
42.371
47.362
52.145
56.619
60.704
64.358
67.572
70.357
72.739
74.756
76.447
77.866
79.075
80.135
81.1
82.02
82.937
83.897
84.947
86.133
87.496
89.062
90.84
92.837
95.05
97.472
100.095
102.901
105.87
108.981
112.217
115.561
118.998
122.507
126.067
129.655
133.249
136.827
140.367
143.847
147.247
150.545
153.719
156.751
159.621
162.311
164.8
167.068
169.098
170.871
172.371
173.584
174.495
175.093
175.367
175.312
174.921
174.19
173.117
171.703
169.949
167.859
165.438
162.694
159.634
156.269
152.611
148.673
144.47
140.018
135.333
130.434
125.34
120.07
114.645
109.085
103.412
97.647
91.812
85.929
80.019
74.103
68.202
62.336
56.525
50.787
45.14
39.601
34.185
28.908
23.781
18.819
14.031
9.428
5.018
0.808
-3.194
-6.985
-10.559
-13.915
-17.051
-19.966
-22.661
-25.138
-27.399
-29.447
-31.288
-32.926
-34.367
-35.619
-36.687
-37.582
-38.31
-38.88
-39.302
-39.585
-39.739
-39.773
-39.696
-39.519
-39.25
-38.899
-38.475
-37.987
-37.443
-36.851
-36.219
-35.555
-34.865
-34.156
-33.434
-32.705
-31.974
-31.246
-30.525
-29.815
-29.12
-28.443
-27.787
-27.153
-26.544
-25.961
-25.405
-24.878
-24.379
-23.908
-23.466
-23.053
-22.667
-22.309
-21.976
-21.669
-21.385
-21.125
-20.886
-20.667
-20.467
-20.284
-20.118
-19.966
-19.827
-19.701
-19.585
-19.478
-19.379
-19.287
-19.199
-19.115
-19.034
-18.953
-18.873
-18.791
-18.707
-18.619
-18.526
-18.428
-18.322
-18.209
-18.087
-17.955
-17.814
-17.661
-17.497
-17.321
-17.132
-16.931
-16.717
-16.489
-16.248
-15.993
-15.725
-15.443
-15.148
-14.839
-14.519
-14.187
-13.844
-13.491
-13.129
-12.76
-12.384
-12.003
-11.619
-11.234
-10.849
-10.467
-10.088
-9.716
-9.351
-8.998
-8.656
-8.328
-8.015
-7.72
-7.442
-7.184
-6.946
-6.729
-6.532
-6.357
-6.204
-6.072
-5.962
-5.872
-5.803
-5.752
-5.718
-5.699
-5.694
-5.699
-5.713
-5.731
-5.752
-5.771
-5.784
-5.789
-5.779
-5.752
-5.702
-5.625
-5.516
-5.37
-5.185
-4.955
-4.678
-4.35
-3.97
-3.537
-3.049
-2.508
-1.911
-1.26
-0.556
0.199
1.005
1.859
2.759
3.703
4.687
5.706
6.757
7.832
8.929
10.04
11.162
12.286
13.405
14.514
15.608
16.684
17.734
18.753
19.731
20.661
21.544
22.381
23.173
23.923
24.635
25.318
25.991
26.672
27.376
28.116
28.896
29.721
30.602
31.55
32.578
33.693
34.883
36.141
37.458
38.819
40.204
41.573
42.859
43.998
44.918
45.565
45.891
45.853
45.415
44.533
43.154
41.24
38.767
35.703
32.05
27.786
22.851
17.329
11.423
5.413
-0.263
-5.234
-9.281
-12.061
-13.158
-12.497
-10.211
-6.743
-3.06
0.15
2.568
3.608
2.719
-0.069
-4.455
-9.444
-13.084
-13.91
-10.868
-2.428
12.75
35.336
65.616
102.727
144.433
188.661
233.105
274.328
308.531
331.984
341.124
333.104
306.055
258.67
190.47
103.786
3.628
-106.041
-221.547
-340.238
-461.918
-579.95
-683.23
-761.775
-804.606
-810.727
-788.568
-745.964
-692.754
-634.017
-568.477
-497.573
-423.305
-348.588
-279.209
-218.8
-168.752
-129.896
-101.431
-81.752
-69.539
-63.207
-60.552
-59.641
-58.782
-56.371
-51.814
-45.294
-37.103
-27.814
-18.276
-9.211
-1.429
4.213
7.489
8.588
7.842
5.795
2.973
-0.184
-3.153
-5.398
-6.624
-6.716
-5.692
-3.694
-0.842
2.768
7.005
11.716
16.76
22.018
27.385
32.78
38.12
43.311
48.264
52.896
57.137
60.952
64.338
67.312
69.905
72.155
74.106
75.812
77.334
78.732
80.059
81.364
82.689
84.076
85.569
87.21
89.033
91.063
93.309
95.772
98.45
101.336
104.418
107.681
111.104
114.665
118.348
122.134
126.008
129.95
133.938
137.949
141.961
145.952
149.899
153.781
157.576
161.262
164.818
168.223
171.459
174.505
177.341
179.947
182.304
184.394
186.201
187.708
188.902
189.771
190.305
190.494
190.334
189.82
188.948
187.718
186.131
184.191
181.9
179.266
176.297
173.001
169.39
165.477
161.275
156.799
152.066
147.095
141.902
136.508
130.933
125.198
119.324
113.332
107.245
101.084
94.871
88.628
82.377
76.137
69.93
63.776
57.693
51.699
45.812
40.048
34.422
28.949
23.64
18.509
13.566
8.82
4.281
-0.044
-4.15
-8.031
-11.683
-15.104
-18.293
-21.249
-23.973
-26.467
-28.733
-30.777
-32.602
-34.213
-35.618
-36.824
-37.838
-38.668
-39.324
-39.814
-40.148
-40.337
-40.389
-40.315
-40.126
-39.831
-39.44
-38.965
-38.413
-37.796
-37.122
-36.401
-35.642
-34.852
-34.041
-33.215
-32.381
-31.547
-30.718
-29.899
-29.097
-28.315
-27.558
-26.828
-26.13
-25.466
-24.836
-24.245
-23.691
-23.176
-22.701
-22.266
-21.869
-21.511
-21.191
-20.907
-20.659
-20.445
-20.263
-20.111
-19.989
-19.893
-19.822
-19.775
-19.749
-19.741
-19.752
-19.778
-19.818
-19.87
-19.934
-20.007
-20.09
-20.179
-20.276
-20.378
-20.486
-20.599
-20.716
-20.839
-20.965
-21.097
-21.234
-21.377
-21.525
-21.68
-21.842
-22.011
-22.188
-22.374
-22.569
-22.774
-22.989
-23.216
-23.456
-23.708
-23.973
-24.253
-24.547
-24.855
-25.179
-25.518
-25.872
-26.242
-26.628
-27.028
-27.444
-27.873
-28.316
-28.771
-29.238
-29.714
-30.198
-30.687
-31.181
-31.676
-32.17
-32.662
-33.148
-33.626
-34.094
-34.548
-34.986
-35.404
-35.8
-36.17
-36.512
-36.821
-37.096
-37.331
-37.526
-37.676
-37.778
-37.829
-37.827
-37.769
-37.651
-37.471
-37.228
-36.919
-36.543
-36.1
-35.59
-35.013
-34.372
-33.668
-32.905
-32.086
-31.213
-30.289
-29.32
-28.31
-27.262
-26.182
-25.073
-23.943
-22.797
-21.644
-20.49
-19.341
-18.206
-17.089
-15.999
-14.942
-13.926
-12.954
-12.032
-11.165
-10.36
-9.626
-8.968
-8.384
-7.873
-7.428
-7.044
-6.715
-6.427
-6.162
-5.904
-5.636
-5.346
-5.026
-4.666
-4.255
-3.778
-3.221
-2.573
-1.837
-1.021
-0.13
0.822
1.817
2.826
3.794
4.674
5.415
5.964
6.283
6.326
6.052
5.433
4.433
3.016
1.157
-1.164
-3.975
-7.263
-11.04
-15.342
-20.071
-25.047
-30.014
-34.561
-38.335
-41.11
-42.548
-42.245
-40.147
-36.404
-31.458
-26.277
-21.567
-17.696
-15.327
-15.06
-16.89
-20.521
-24.953
-28.19
-28.745
-25.485
-16.661
-0.833
22.733
54.429
93.261
136.83
183.021
229.293
271.77
306.494
329.567
337.149
326.698
296.913
246.781
176.375
88.966
-11.09
-120.161
-232.836
-346.353
-458.218
-559.504
-643.565
-703.812
-733.811
-737.77
-720.291
-685.404
-639.99
-585.032
-521.684
-453.684
-383.132
-313.822
-249.749
-192.956
-144.941
-106.434
-77.032
-55.687
-41.273
-32.498
-27.591
-24.907
-22.888
-19.954
-15.418
-9.336
-1.865
6.563
15.252
23.608
30.877
36.194
39.28
40.249
39.361
37.106
33.972
30.373
26.831
23.888
21.843
20.823
20.833
21.735
23.414
25.771
28.655
31.924
35.476
39.222
43.09
47.023
50.937
54.742
58.358
61.712
64.749
67.44
69.776
71.785
73.519
75.045
76.443
77.766
79.04
80.294
81.554
82.853
84.233
85.728
87.363
89.169
91.176
93.405
95.872
98.57
101.47
104.539
107.734
111.034
114.441
117.953
121.564
125.265
129.038
132.868
136.752
140.67
144.594
148.496
152.346
156.123
159.816
163.415
166.911
170.284
173.502
176.539
179.37
181.97
184.32
186.396
188.172
189.631
190.765
191.565
192.028
192.146
191.91
191.315
190.359
189.043
187.37
185.346
182.976
180.268
177.234
173.887
170.24
166.308
162.106
157.648
152.95
148.033
142.914
137.615
132.155
126.555
120.837
115.025
109.14
103.205
97.241
91.269
85.311
79.388
73.518
67.722
62.017
56.42
50.947
45.613
40.432
35.416
30.577
25.925
21.469
17.216
13.173
9.346
5.738
2.352
-0.81
-3.747
-6.461
-8.953
-11.225
-13.282
-15.127
-16.766
-18.205
-19.452
-20.515
-21.401
-22.121
-22.682
-23.095
-23.37
-23.516
-23.545
-23.466
-23.29
-23.027
-22.687
-22.279
-21.813
-21.299
-20.745
-20.159
-19.55
-18.925
-18.291
-17.655
-17.021
-16.397
-15.787
-15.194
-14.624
-14.079
-13.562
-13.076
-12.622
-12.201
-11.815
-11.464
-11.148
-10.866
-10.619
-10.404
-10.221
-10.069
-9.946
-9.85
-9.778
-9.73
-9.703
-9.695
-9.705
-9.729
-9.768
-9.818
-9.879
-9.948
-10.026
-10.11
-10.2
-10.295
-10.394
-10.498
-10.605
-10.717
-10.832
-10.953
-11.078
-11.21
-11.348
-11.493
-11.648
-11.812
-11.987
-12.174
-12.375
-12.59
-12.822
-13.071
-13.339
-13.627
-13.935
-14.264
-14.615
-14.988
-15.382
-15.796
-16.232
-16.686
-17.159
-17.648
-18.153
-18.672
-19.202
-19.741
-20.286
-20.835
-21.385
-21.932
-22.473
-23.004
-23.522
-24.022
-24.502
-24.957
-25.383
-25.775
-26.131
-26.445
-26.714
-26.934
-27.103
-27.216
-27.272
-27.268
-27.205
-27.08
-26.895
-26.651
-26.349
-25.99
-25.579
-25.117
-24.608
-24.056
-23.464
-22.837
-22.178
-21.492
-20.786
-20.065
-19.336
-18.604
-17.876
-17.157
-16.456
-15.78
-15.134
-14.521
-13.944
-13.408
-12.918
-12.482
-12.105
-11.783
-11.515
-11.3
-11.131
-11.003
-10.904
-10.812
-10.703
-10.561
-10.374
-10.138
-9.848
-9.49
-9.051
-8.518
-7.88
-7.147
-6.33
-5.426
-4.445
-3.411
-2.36
-1.367
-0.511
0.157
0.59
0.756
0.637
0.184
-0.66
-1.94
-3.702
-5.963
-8.715
-12.003
-15.895
-20.351
-25.224
-30.225
-34.937
-39.036
-42.311
-44.498
-45.26
-44.402
-41.996
-38.447
-34.506
-30.891
-27.982
-26.118
-25.816
-27.332
-30.427
-34.372
-37.751
-38.959
-36.918
-30.533
-18.297
0.827
27.237
60.648
99.514
141.73
185.347
227.645
264.85
293.224
309.064
309.203
291.885
255.813
200.169
125.826
35.347
-67.476
-177.552
-289.611
-398.774
-499.516
-586.569
-655.891
-704.552
-731.513
-737.493
-723.583
-691.568
-644.736
-586.794
-521.772
-454.011
-386.549
-321.638
-261.885
-209.256
-164.802
-129.227
-102.057
-81.909
-67.95
-59.226
-54.084
-51.082
-48.74
-45.541
-41.003
-35.287
-28.411
-20.669
-12.659
-4.874
1.929
6.908
9.866
10.962
10.456
8.815
6.492
3.862
1.433
-0.263
-0.961
-0.568
0.884
3.237
6.376
10.213
14.618
19.443
24.558
29.845
35.208
40.578
45.869
50.984
55.83
60.316
64.388
68.031
71.253
74.082
76.553
78.704
80.585
82.251
83.76
85.165
86.512
87.842
89.199
90.626
92.169
93.873
95.765
97.859
100.163
102.672
105.383
108.286
111.366
114.602
117.975
121.468
125.064
128.75
132.506
136.312
140.146
143.985
147.806
151.59
155.314
158.957
162.497
165.913
169.187
172.299
175.229
177.958
180.466
182.732
184.74
186.472
187.913
189.047
189.862
190.347
190.493
190.294
189.744
188.84
187.581
185.966
183.999
181.683
179.023
176.028
172.705
169.066
165.123
160.889
156.38
151.611
146.6
141.366
135.929
130.308
124.524
118.599
112.554
106.413
100.196
93.926
87.625
81.315
75.017
68.753
62.541
56.403
50.356
44.418
38.604
32.932
27.414
22.065
16.896
11.918
7.14
2.572
-1.78
-5.91
-9.812
-13.485
-16.925
-20.132
-23.105
-25.847
-28.359
-30.644
-32.707
-34.554
-36.189
-37.621
-38.856
-39.903
-40.77
-41.466
-42.001
-42.384
-42.626
-42.736
-42.724
-42.601
-42.377
-42.06
-41.662
-41.192
-40.658
-40.069
-39.435
-38.763
-38.061
-37.336
-36.594
-35.843
-35.089
-34.335
-33.588
-32.852
-32.13
-31.427
-30.744
-30.084
-29.451
-28.844
-28.266
-27.718
-27.2
-26.713
-26.257
-25.832
-25.438
-25.074
-24.74
-24.435
-24.159
-23.91
-23.689
-23.494
-23.324
-23.179
-23.058
-22.96
-22.885
-22.832
-22.8
-22.789
-22.799
-22.829
-22.879
-22.949
-23.039
-23.149
-23.279
-23.428
-23.598
-23.789
-24.0
-24.231
-24.484
-24.758
-25.053
-25.369
-25.707
-26.068
-26.45
-26.854
-27.28
-27.728
-28.198
-28.69
-29.203
-29.737
-30.292
-30.867
-31.461
-32.075
-32.707
-33.356
-34.021
-34.701
-35.394
-36.1
-36.815
-37.539
-38.268
-39.001
-39.736
-40.47
-41.2
-41.925
-42.641
-43.347
-44.038
-44.713
-45.367
-46.0
-46.606
-47.182
-47.727
-48.235
-48.705
-49.133
-49.515
-49.849
-50.131
-50.359
-50.53
-50.641
-50.69
-50.674
-50.593
-50.446
-50.232
-49.951
-49.605
-49.196
-48.726
-48.196
-47.611
-46.974
-46.288
-45.557
-44.786
-43.977
-43.136
-42.269
-41.379
-40.475
-39.563
-38.648
-37.737
-36.837
-35.955
-35.097
-34.273
-33.484
-32.735
-32.031
-31.377
-30.781
-30.25
-29.78
-29.371
-29.019
-28.719
-28.468
-28.256
-28.064
-27.872
-27.663
-27.422
-27.143
-26.818
-26.437
-25.984
-25.443
-24.807
-24.083
-23.279
-22.403
-21.465
-20.475
-19.472
-18.513
-17.663
-16.988
-16.54
-16.361
-16.496
-16.984
-17.874
-19.224
-21.075
-23.452
-26.385
-29.873
-33.945
-38.673
-43.973
-49.65
-55.429
-60.876
-65.633
-69.496
-72.116
-73.072
-72.291
-69.892
-66.302
-62.481
-59.094
-56.448
-55.14
-55.701
-58.082
-61.992
-66.429
-69.423
-69.539
-65.694
-56.234
-39.804
-15.714
16.397
55.543
99.353
145.765
192.321
235.212
270.516
294.335
302.781
293.229
264.309
214.884
144.855
57.405
-43.174
-153.316
-267.539
-383.069
-497.417
-601.432
-688.251
-751.048
-783.101
-788.601
-772.2
-737.933
-692.755
-637.634
-573.724
-504.878
-433.312
-362.955
-297.936
-240.393
-191.89
-153.191
-123.877
-102.846
-88.894
-80.658
-76.288
-74.068
-72.389
-69.626
-65.095
-58.87
-51.137
-42.362
-33.267
-24.468
-16.746
-10.982
-7.448
-6.021
-6.423
-8.15
-10.722
-13.729
-16.656
-18.959
-20.324
-20.622
-19.854
-18.155
-15.633
-12.377
-8.512
-4.185
0.468
5.333
10.31
15.328
20.31
25.164
29.802
34.142
38.112
41.674
44.822
47.571
49.947
51.988
53.734
55.234
56.548
57.733
58.838
59.91
60.987
62.109
63.32
64.661
66.169
67.868
69.767
71.87
74.173
76.671
79.353
82.204
85.202
88.329
91.566
94.898
98.309
101.781
105.294
108.826
112.355
115.86
119.321
122.718
126.03
129.238
132.321
135.263
138.045
140.651
143.061
145.259
147.226
148.947
150.408
151.595
152.495
153.098
153.395
153.38
153.049
152.398
151.426
150.132
148.52
146.593
144.357
141.817
138.984
135.865
132.474
128.822
124.923
120.792
116.446
111.901
107.176
102.288
97.257
92.103
86.845
81.503
76.098
70.65
65.178
59.703
54.243
48.817
43.444
38.141
32.924
27.809
22.811
17.942
13.217
8.645
4.237
0.003
-4.049
-7.914
-11.584
-15.055
-18.324
-21.388
-24.246
-26.899
-29.346
-31.59
-33.633
-35.48
-37.134
-38.602
-39.889
-41.002
-41.949
-42.737
-43.375
-43.872
-44.235
-44.476
-44.602
-44.624
-44.55
-44.39
-44.153
-43.848
-43.483
-43.068
-42.61
-42.116
-41.594
-41.051
-40.494
-39.927
-39.358
-38.789
-38.227
-37.675
-37.137
-36.614
-36.111
-35.628
-35.166
-34.728
-34.314
-33.923
-33.555
-33.211
-32.888
-32.586
-32.304
-32.039
-31.791
-31.556
-31.334
-31.122
-30.917
-30.719
-30.524
-30.331
-30.137
-29.941
-29.741
-29.534
-29.32
-29.097
-28.863
-28.618
-28.36
-28.087
-27.801
-27.499
-27.182
-26.849
-26.501
-26.137
-25.758
-25.364
-24.956
-24.535
-24.101
-23.657
-23.202
-22.738
-22.267
-21.79
-21.309
-20.824
-20.339
-19.854
-19.371
-18.891
-18.417
-17.95
-17.491
-17.042
-16.605
-16.18
-15.769
-15.373
-14.993
-14.63
-14.286
-13.961
-13.655
-13.369
-13.102
-12.856
-12.628
-12.419
-12.228
-12.052
-11.892
-11.744
-11.608
-11.48
-11.359
-11.241
-11.124
-11.003
-10.877
-10.74
-10.589
-10.419
-10.227
-10.009
-9.76
-9.475
-9.152
-8.784
-8.368
-7.901
-7.378
-6.795
-6.149
-5.438
-4.657
-3.806
-2.883
-1.885
-0.814
0.331
1.548
2.835
4.189
5.609
7.089
8.627
10.216
11.855
13.538
15.261
17.017
18.8
20.601
22.413
24.228
26.035
27.826
29.589
31.318
33.008
34.652
36.243
37.77
39.218
40.576
41.84
43.001
44.054
44.995
45.825
46.556
47.211
47.808
48.359
48.872
49.346
49.789
50.218
50.652
51.114
51.613
52.148
52.729
53.368
54.063
54.791
55.495
56.095
56.532
56.776
56.811
56.626
56.186
55.438
54.329
52.823
50.917
48.61
45.864
42.684
39.168
35.534
32.135
29.342
27.424
26.566
26.907
28.409
30.903
34.041
37.247
39.957
41.662
42.072
41.261
39.745
38.332
38.11
40.354
46.177
57.151
74.755
99.406
130.946
167.623
205.893
243.82
280.287
314.765
349.187
381.293
405.482
414.905
399.901
358.0
293.293
215.851
142.495
