-38.152
-42.78
-47.905
-53.452
-59.32
-65.423
-71.698
-78.097
-84.573
-91.064
-97.493
-103.768
-109.822
-115.606
-121.082
-126.222
-131.0
-135.406
-139.452
-143.177
-146.634
-149.86
-152.873
-155.682
-158.292
-160.717
-162.978
-165.095
-167.076
-168.927
-170.653
-172.26
-173.757
-175.144
-176.411
-177.536
-178.495
-179.273
-179.867
-180.277
-180.507
-180.561
-180.444
-180.166
-179.744
-179.191
-178.52
-177.741
-176.862
-175.897
-174.86
-173.769
-172.64
-171.49
-170.329
-169.173
-168.03
-166.913
-165.83
-164.787
-163.79
-162.842
-161.951
-161.121
-160.36
-159.672
-159.06
-158.529
-158.081
-157.719
-157.445
-157.258
-157.157
-157.143
-157.212
-157.364
-157.595
-157.903
-158.283
-158.733
-159.247
-159.82
-160.447
-161.122
-161.839
-162.591
-163.372
-164.175
-164.993
-165.82
-166.65
-167.476
-168.292
-169.091
-169.866
-170.612
-171.321
-171.986
-172.603
-173.163
-173.661
-174.092
-174.449
-174.726
-174.919
-175.022
-175.03
-174.938
-174.741
-174.435
-174.016
-173.482
-172.83
-172.059
-171.167
-170.155
-169.026
-167.782
-166.424
-164.955
-163.379
-161.699
-159.919
-158.043
-156.076
-154.023
-151.889
-149.683
-147.413
-145.089
-142.718
-140.309
-137.871
-135.412
-132.943
-130.473
-128.007
-125.555
-123.126
-120.732
-118.385
-116.097
-113.869
-111.703
-109.596
-107.543
-105.537
-103.566
-101.611
-99.656
-97.69
-95.702
-93.689
-91.643
-89.556
-87.413
-85.201
-82.909
-80.542
-78.106
-75.61
-73.075
-70.527
-68.001
-65.55
-63.22
-61.049
-59.074
-57.331
-55.854
-54.678
-53.838
-53.353
-53.248
-53.546
-54.264
-55.423
-57.016
-59.015
-61.405
-64.19
-67.317
-70.649
-73.948
-76.863
-79.073
-80.361
-80.466
-79.037
-75.851
-70.956
-64.743
-57.978
-51.435
-45.554
-40.694
-37.413
-36.096
-36.635
-38.36
-39.84
-39.391
-35.878
-28.351
-15.475
3.975
30.665
64.611
104.644
148.772
195.182
241.701
285.095
321.538
347.157
358.396
352.386
327.018
280.773
213.01
125.927
24.613
-86.83
-204.59
-325.857
-450.258
-570.819
-676.105
-755.792
-798.619
-803.611
-779.26
-733.493
-676.285
-612.747
-541.725
-464.885
-384.459
-303.642
-228.449
-162.716
-108.051
-65.438
-34.166
-12.635
0.556
7.102
9.33
9.358
9.072
10.264
13.697
19.273
26.724
35.492
44.678
53.491
61.042
66.386
69.255
69.842
68.502
65.813
62.363
58.64
55.226
52.718
51.407
51.39
52.629
54.95
58.217
62.325
67.118
72.423
78.089
83.979
89.981
96.008
101.954
107.704
113.15
118.191
122.771
126.87
130.492
133.666
136.426
138.814
140.885
142.7
144.32
145.804
147.205
148.571
149.95
151.394
152.951
154.667
156.571
158.679
160.996
163.519
166.244
169.16
172.252
175.5
178.886
182.392
186.003
189.706
193.483
197.316
201.182
205.063
208.937
212.786
216.59
220.33
223.987
227.541
230.975
234.271
237.411
240.374
243.143
245.696
248.017
250.089
251.894
253.419
254.649
255.573
256.18
256.463
256.414
256.029
255.303
254.235
252.824
251.071
248.98
246.554
243.799
240.723
237.334
233.643
229.663
225.405
220.884
216.116
211.118
205.907
200.502
194.921
189.185
183.314
177.329
171.25
165.099
158.895
152.661
146.417
140.181
133.974
127.815
121.72
115.708
109.794
103.993
98.319
92.787
87.408
82.193
77.152
72.295
67.628
63.159
58.893
54.833
50.983
47.345
43.918
40.702
37.695
34.893
32.294
29.892
27.681
25.654
23.805
22.125
20.606
19.239
18.014
16.922
15.954
15.099
14.349
13.692
13.121
12.625
12.195
11.823
11.5
11.218
10.969
10.746
10.542
10.352
10.168
9.987
9.802
9.611
9.409
9.194
8.963
8.715
8.449
8.162
7.856
7.529
7.183
6.818
6.435
6.034
5.617
5.186
4.741
4.285
3.817
3.341
2.856
2.365
1.869
1.368
0.865
0.358
-0.149
-0.656
-1.162
-1.665
-2.165
-2.661
-3.15
-3.632
-4.106
-4.571
-5.026
-5.47
-5.901
-6.318
-6.721
-7.107
-7.475
-7.823
-8.15
-8.452
-8.728
-8.976
-9.193
-9.376
-9.521
-9.626
-9.688
-9.703
-9.668
-9.579
-9.433
-9.228
-8.962
-8.631
-8.236
-7.775
-7.249
-6.658
-6.003
-5.286
-4.51
-3.675
-2.786
-1.846
-0.857
0.177
1.251
2.361
3.503
4.668
5.852
7.048
8.251
9.451
10.643
11.817
12.966
14.089
15.179
16.233
17.243
18.199
19.098
19.939
20.724
21.451
22.125
22.746
23.326
23.885
24.441
25.009
25.597
26.206
26.837
27.502
28.211
28.972
29.79
30.65
31.541
32.463
33.406
34.346
35.245
36.03
36.625
36.98
37.05
36.8
36.213
35.237
33.818
31.914
29.479
26.5
22.981
18.874
14.106
8.713
2.844
-3.21
-9.024
-14.259
-18.686
-22.019
-23.892
-24.089
-22.696
-20.144
-17.242
-14.778
-13.179
-12.833
-14.337
-17.995
-23.55
-30.212
-36.426
-40.423
-41.036
-37.049
-26.741
-8.913
16.925
50.531
90.285
133.978
179.642
224.41
264.086
294.638
312.236
313.262
295.379
256.959
196.562
115.662
19.227
-89.047
-205.595
-327.614
-455.505
-582.385
-695.668
-784.125
-835.369
-847.427
-829.253
-788.972
-736.301
-676.677
-608.652
-533.628
-454.1
-373.208
-296.969
-229.466
-172.59
-127.478
-93.556
-69.285
-53.17
-43.661
-38.691
-36.281
-34.588
-31.763
-26.943
-20.197
-11.826
-2.345
7.465
16.903
25.13
31.144
34.589
35.606
34.523
31.913
28.338
24.264
20.274
17.0
14.814
13.875
14.196
15.63
18.054
21.374
25.445
30.101
35.184
40.561
46.118
51.765
57.409
62.938
68.248
73.242
77.837
81.991
85.692
88.954
91.804
94.285
96.44
98.326
100.007
101.544
102.996
104.412
105.839
107.321
108.907
110.641
112.56
114.69
117.039
119.608
122.393
125.385
128.57
131.932
135.445
139.088
142.843
146.69
150.613
154.591
158.601
162.622
166.628
170.599
174.513
178.35
182.086
185.703
189.178
192.493
195.63
198.569
201.29
203.774
206.002
207.957
209.622
210.982
212.022
212.732
213.099
213.117
212.778
212.079
211.015
209.585
207.79
205.632
203.114
200.243
197.024
193.468
189.583
185.382
180.878
176.085
171.02
165.7
160.142
154.366
148.393
142.242
135.935
129.495
122.942
116.301
109.592
102.839
96.065
89.29
82.538
75.829
69.183
62.62
56.159
49.817
43.611
37.558
31.671
25.964
20.451
15.141
10.045
5.172
0.529
-3.879
-8.045
-11.968
-15.645
-19.076
-22.261
-25.203
-27.904
-30.37
-32.604
-34.615
-36.409
-37.994
-39.38
-40.576
-41.593
-42.441
-43.133
-43.679
-44.092
-44.383
-44.565
-44.649
-44.649
-44.574
-44.438
-44.251
-44.025
-43.769
-43.495
-43.211
-42.928
-42.652
-42.392
-42.154
-41.946
-41.772
-41.637
-41.546
-41.501
-41.506
-41.563
-41.674
-41.839
-42.058
-42.333
-42.662
-43.044
-43.479
-43.964
-44.497
-45.077
-45.701
-46.366
-47.071
-47.811
-48.585
-49.388
-50.218
-51.072
-51.944
-52.833
-53.735
-54.645
-55.561
-56.48
-57.398
-58.312
-59.22
-60.118
-61.005
-61.877
-62.732
-63.568
-64.381
-65.169
-65.929
-66.659
-67.356
-68.019
-68.643
-69.227
-69.766
-70.259
-70.702
-71.093
-71.428
-71.706
-71.923
-72.079
-72.171
-72.198
-72.162
-72.061
-71.896
-71.67
-71.382
-71.035
-70.631
-70.17
-69.657
-69.093
-68.479
-67.82
-67.117
-66.375
-65.598
-64.792
-63.96
-63.106
-62.236
-61.355
-60.47
-59.586
-58.703
-57.823
-56.952
-56.092
-55.254
-54.439
-53.645
-52.87
-52.111
-51.365
-50.626
-49.884
-49.118
-48.308
-47.441
-46.51
-45.515
-44.455
-43.321
-42.103
-40.794
-39.391
-37.909
-36.363
-34.755
-33.096
-31.411
-29.741
-28.158
-26.736
-25.521
-24.558
-23.874
-23.489
-23.448
-23.805
-24.596
-25.863
-27.617
-29.853
-32.62
-35.989
-39.932
-44.312
-48.855
-53.161
-56.908
-59.871
-61.773
-62.253
-61.078
-58.317
-54.384
-50.066
-46.164
-43.148
-41.435
-41.657
-44.189
-48.832
-54.845
-60.709
-64.605
-65.275
-61.441
-51.313
-33.598
-7.727
26.137
66.413
110.828
157.339
203.031
243.69
275.266
293.909
296.034
279.455
242.699
184.442
106.211
12.728
-92.344
-205.218
-323.055
-446.043
-567.579
-676.095
-761.419
-812.222
-826.88
-813.698
-779.662
-733.121
-678.894
-615.625
-544.531
-468.232
-389.603
-313.721
-244.815
-185.166
-136.037
-97.722
-69.392
-49.632
-37.362
-31.145
-28.811
-28.497
-28.428
-26.942
-23.556
-18.454
-11.73
-3.857
4.369
12.288
19.051
23.836
26.51
27.309
26.556
24.788
22.53
20.223
18.407
17.568
17.909
19.463
22.145
25.769
30.188
35.276
40.864
46.775
52.864
59.005
65.095
71.048
76.764
82.138
87.075
91.515
95.433
98.833
101.743
104.203
106.258
107.964
109.39
110.598
111.653
112.613
113.528
114.456
115.449
116.563
117.849
119.342
121.066
123.033
125.247
127.706
130.405
133.333
136.474
139.811
143.331
147.019
150.864
154.847
158.951
163.153
167.433
171.768
176.136
180.516
184.885
189.22
193.498
197.696
201.791
205.76
209.577
213.218
216.656
219.867
222.827
225.513
227.904
229.979
231.719
233.108
234.132
234.778
235.034
234.893
234.346
233.39
232.021
230.24
228.048
225.449
222.448
219.055
215.279
211.132
206.629
201.785
196.619
191.149
185.397
179.385
173.136
166.675
160.028
153.22
146.28
139.233
132.108
124.932
117.733
110.538
103.374
96.266
89.24
82.32
75.53
68.891
62.425
56.151
50.088
44.252
38.66
33.323
28.256
23.468
18.967
14.762
10.858
7.257
3.963
0.975
-1.709
-4.091
-6.175
-7.969
-9.48
-10.716
-11.687
-12.406
-12.883
-13.133
-13.169
-13.007
-12.662
-12.149
-11.485
-10.687
-9.77
-8.753
-7.65
-6.479
-5.256
-3.996
-2.716
-1.429
-0.152
1.104
2.323
3.494
4.605
5.646
6.605
7.474
8.244
8.908
9.459
9.891
10.2
10.382
10.434
10.353
10.14
9.793
9.314
8.704
7.967
7.105
6.123
5.025
3.818
2.506
1.096
-0.405
-1.99
-3.651
-5.379
-7.167
-9.005
-10.884
-12.796
-14.731
-16.68
-18.633
-20.581
-22.514
-24.424
-26.3
-28.133
-29.915
-31.636
-33.288
-34.863
-36.355
-37.755
-39.06
-40.264
-41.362
-42.354
-43.236
-44.009
-44.671
-45.223
-45.666
-46.002
-46.232
-46.36
-46.389
-46.322
-46.166
-45.926
-45.61
-45.225
-44.778
-44.278
-43.732
-43.149
-42.537
-41.907
-41.265
-40.62
-39.98
-39.355
-38.758
-38.197
-37.677
-37.197
-36.755
-36.349
-35.974
-35.621
-35.275
-34.921
-34.544
-34.134
-33.687
-33.196
-32.655
-32.049
-31.362
-30.587
-29.725
-28.789
-27.795
-26.756
-25.695
-24.648
-23.675
-22.834
-22.186
-21.779
-21.651
-21.843
-22.39
-23.327
-24.692
-26.523
-28.846
-31.672
-35.014
-38.856
-43.198
-48.056
-53.312
-58.757
-64.111
-68.974
-73.012
-76.018
-77.679
-77.608
-75.751
-72.256
-67.548
-62.556
-57.943
-54.019
-51.384
-50.599
-51.662
-54.333
-57.712
-59.923
-59.59
-55.683
-46.589
-31.025
-8.307
21.95
58.821
100.065
143.664
187.119
226.718
258.732
279.279
284.512
272.08
240.661
189.224
118.247
30.001
-72.163
-183.323
-297.786
-410.376
-515.679
-608.244
-683.789
-739.15
-772.524
-784.124
-775.137
-747.198
-703.179
-646.627
-581.303
-511.391
-440.566
-371.503
-306.799
-248.718
-198.706
-157.791
-126.065
-102.519
-86.056
-75.595
-69.542
-66.313
-64.324
-61.849
-58.022
-52.774
-46.169
-38.515
-30.4
-22.351
-15.118
-9.64
-6.257
-4.878
-5.255
-6.906
-9.343
-12.173
-14.865
-16.826
-17.747
-17.507
-16.117
-13.743
-10.507
-6.502
-1.874
3.207
8.593
14.151
19.776
25.393
30.904
36.202
41.187
45.76
49.866
53.489
56.632
59.322
61.595
63.491
65.063
66.373
67.48
68.44
69.307
70.123
70.939
71.805
72.769
73.88
75.168
76.651
78.337
80.227
82.316
84.598
87.059
89.68
92.446
95.34
98.348
101.457
104.651
107.911
111.217
114.547
117.881
121.2
124.484
127.713
130.867
133.926
136.872
139.687
142.351
144.845
147.148
149.241
151.106
152.724
154.08
155.157
155.942
156.422
156.588
156.432
155.946
155.126
153.968
152.471
150.636
148.464
145.959
143.127
139.974
136.51
132.745
128.69
124.36
119.768
114.93
109.864
104.587
99.12
93.48
87.689
81.768
75.738
69.621
63.439
57.212
50.964
44.715
38.486
32.298
26.17
20.121
14.168
8.33
2.622
-2.941
-8.346
-13.578
-18.627
-23.482
-28.134
-32.574
-36.797
-40.795
-44.565
-48.104
-51.409
-54.48
-57.316
-59.921
-62.295
-64.442
-66.367
-68.076
-69.573
-70.867
-71.965
-72.875
-73.605
-74.165
-74.564
-74.811
-74.918
-74.892
-74.746
-74.487
-74.127
-73.675
-73.14
-72.532
-71.859
-71.13
-70.354
-69.537
-68.689
-67.815
-66.922
-66.017
-65.105
-64.192
-63.284
-62.383
-61.495
-60.622
-59.768
-58.936
-58.128
-57.346
-56.592
-55.867
-55.172
-54.508
-53.874
-53.272
-52.701
-52.161
-51.65
-51.169
-50.715
-50.288
-49.887
-49.51
-49.156
-48.825
-48.513
-48.221
-47.946
-47.685
-47.439
-47.203
-46.977
-46.758
-46.543
-46.33
-46.117
-45.902
-45.68
-45.451
-45.21
-44.956
-44.685
-44.394
-44.08
-43.742
-43.377
-42.984
-42.56
-42.106
-41.62
-41.104
-40.558
-39.982
-39.377
-38.743
-38.082
-37.395
-36.684
-35.947
-35.189
-34.41
-33.613
-32.804
-31.985
-31.16
-30.332
-29.506
-28.686
-27.875
-27.08
-26.302
-25.543
-24.807
-24.1
-23.429
-22.798
-22.207
-21.65
-21.122
-20.617
-20.126
-19.638
-19.133
-18.593
-18.001
-17.346
-16.62
-15.816
-14.928
-13.939
-12.834
-11.608
-10.263
-8.816
-7.281
-5.674
-4.019
-2.356
-0.749
0.74
2.051
3.128
3.932
4.411
4.523
4.227
3.481
2.247
0.497
-1.782
-4.607
-7.959
-11.836
-16.246
-21.063
-26.084
-31.031
-35.498
-39.14
-41.728
-42.932
-42.361
-39.969
-35.902
-30.576
-24.928
-19.638
-15.078
-11.916
-10.74
-11.513
-13.956
-17.157
-19.233
-18.787
-14.684
-5.167
11.073
34.591
65.582
102.981
144.487
188.004
230.841
269.0
298.596
315.937
317.605
301.376
265.898
210.309
135.044
43.632
-59.235
-169.744
-282.8
-395.72
-505.64
-603.708
-683.362
-738.147
-762.358
-760.351
-736.35
-694.332
-641.408
-579.019
-509.043
-435.66
-360.688
-287.964
-221.886
-164.721
-118.086
-82.278
-56.059
-37.922
-26.765
-21.034
-18.592
-17.345
-15.238
-11.047
-4.711
3.448
13.132
23.786
34.627
44.713
52.896
58.593
61.901
63.133
62.77
61.31
59.193
56.978
55.328
54.659
55.121
56.722
59.313
62.762
66.995
71.883
77.266
83.002
88.958
95.027
101.136
107.201
113.12
118.796
124.129
129.035
133.475
137.437
140.932
143.992
146.647
148.94
150.922
152.654
154.197
155.607
156.935
158.222
159.519
160.872
162.332
163.943
165.732
167.715
169.899
172.286
174.872
177.652
180.614
183.739
187.012
190.418
193.944
197.578
201.303
205.1
208.95
212.832
216.727
220.614
224.475
228.289
232.035
235.693
239.243
242.668
245.947
249.059
251.982
254.698
257.185
259.425
261.4
263.093
264.488
265.572
266.334
266.763
266.851
266.591
265.978
265.009
263.682
261.997
259.957
257.564
254.826
251.747
248.338
244.609
240.572
236.24
231.628
226.753
221.632
216.284
210.728
204.984
199.075
193.022
186.847
180.573
174.223
167.82
161.386
154.946
148.52
142.13
135.798
129.545
123.388
117.348
111.442
105.686
100.096
94.687
89.473
84.464
79.673
75.109
70.78
66.694
62.855
59.268
55.935
52.859
50.04
47.475
45.163
43.099
41.28
39.698
38.346
37.217
36.301
35.588
35.067
34.728
34.559
34.548
34.682
34.948
35.333
35.826
36.412
37.078
37.812
38.601
39.433
40.295
41.177
42.066
42.951
43.823
44.671
45.487
46.261
46.985
47.653
48.257
48.792
49.252
49.633
49.931
50.144
50.268
50.302
50.246
50.099
49.861
49.532
49.115
48.611
48.023
47.354
46.606
45.784
44.892
43.936
42.919
41.847
40.726
39.561
38.358
37.122
35.86
34.579
33.285
31.984
30.684
29.39
28.11
26.851
25.619
24.419
23.26
22.147
21.085
20.082
19.142
18.271
17.474
16.755
16.119
15.568
15.107
14.736
14.458
14.272
14.178
14.175
14.262
14.437
14.696
15.039
15.461
15.958
16.529
17.167
17.87
18.629
19.44
20.293
21.183
22.103
23.045
24.0
24.96
25.917
26.865
27.8
28.716
29.604
30.453
31.257
32.015
32.728
33.399
34.029
34.622
35.191
35.752
36.325
36.927
37.568
38.251
38.981
39.766
40.618
41.551
42.567
43.655
44.801
45.992
47.213
48.443
49.637
50.725
51.64
52.309
52.683
52.721
52.375
51.611
50.376
48.618
46.305
43.413
39.93
35.861
31.184
25.862
19.97
13.7
7.328
1.248
-4.206
-8.797
-12.21
-14.055
-14.111
-12.447
-9.452
-5.866
-2.414
0.482
2.382
2.63
0.83
-2.863
-7.735
-12.374
-15.135
-14.853
-10.314
0.197
17.982
43.56
76.697
115.898
158.878
203.425
246.571
284.049
311.645
325.581
322.293
299.379
255.684
190.435
105.469
5.971
-104.013
-220.737
-341.112
-464.841
-585.518
-691.919
-773.871
-820.394
-830.245
-811.696
-772.498
-722.059
-665.163
-600.465
-529.403
-454.156
-377.765
-305.98
-242.545
-189.154
-146.956
-115.461
-93.244
-78.964
-71.06
-67.412
-66.061
-65.208
-63.07
-58.852
-52.626
-44.672
-35.536
-26.039
-16.909
-8.997
-3.248
0.023
0.96
-0.113
-2.645
-6.094
-10.001
-13.806
-16.922
-19.01
-19.93
-19.682
-18.407
-16.223
-13.223
-9.545
-5.348
-0.777
4.042
9.001
14.019
19.009
23.869
28.502
32.819
36.743
40.234
43.285
45.91
48.137
50.007
51.564
52.863
53.969
54.942
55.838
56.708
57.596
58.548
59.61
60.826
62.235
63.863
65.719
67.807
70.122
72.659
75.405
78.343
81.451
84.707
88.093
91.59
95.182
98.847
102.564
106.307
110.053
113.778
117.461
121.078
124.607
128.024
131.307
134.437
137.392
140.152
142.696
145.003
147.052
148.825
150.305
151.476
152.322
152.83
152.991
152.795
152.236
151.309
150.012
148.343
146.303
143.895
141.124
137.996
134.519
130.702
126.557
122.097
117.336
112.29
106.976
101.411
95.616
89.609
83.412
77.046
70.534
63.896
57.157
50.338
43.461
36.55
29.627
22.712
15.827
8.993
2.228
-4.45
-11.022
-17.473
-23.787
-29.951
-35.951
-41.775
-47.414
-52.856
-58.095
-63.124
-67.935
-72.526
-76.893
-81.033
-84.946
-88.631
-92.091
-95.327
-98.344
-101.144
-103.734
-106.119
-108.306
-110.303
-112.118
-113.76
-115.237
-116.559
-117.735
-118.776
-119.691
-120.49
-121.183
-121.78
-122.29
-122.722
-123.087
-123.393
-123.648
-123.861
-124.039
-124.191
-124.322
-124.441
-124.552
-124.663
-124.778
-124.901
-125.038
-125.192
-125.367
-125.565
-125.788
-126.04
-126.321
-126.633
-126.977
-127.353
-127.763
-128.206
-128.683
-129.193
-129.736
-130.312
-130.92
-131.56
-132.232
-132.935
-133.669
-134.433
-135.226
-136.047
-136.896
-137.772
-138.674
-139.6
-140.55
-141.521
-142.512
-143.522
-144.549
-145.592
-146.648
-147.717
-148.795
-149.882
-150.974
-152.071
-153.168
-154.263
-155.355
-156.438
-157.511
-158.569
-159.61
-160.629
-161.623
-162.587
-163.517
-164.408
-165.256
-166.056
-166.805
-167.497
-168.131
-168.702
-169.207
-169.646
-170.017
-170.319
-170.552
-170.717
-170.813
-170.841
-170.804
-170.701
-170.536
-170.31
-170.024
-169.684
-169.291
-168.853
-168.373
-167.856
-167.309
-166.735
-166.142
-165.537
-164.926
-164.313
-163.702
-163.098
-162.51
-161.945
-161.411
-160.907
-160.431
-159.979
-159.549
-159.134
-158.726
-158.303
-157.849
-157.346
-156.784
-156.158
-155.464
-154.696
-153.838
-152.876
-151.807
-150.636
-149.378
-148.046
-146.654
-145.22
-143.788
-142.421
-141.185
-140.151
-139.365
-138.864
-138.687
-138.864
-139.442
-140.476
-142.0
-144.045
-146.622
-149.725
-153.379
-157.631
-162.417
-167.557
-172.772
-177.66
-181.888
-185.23
-187.393
-188.004
-186.84
-183.968
-179.786
-175.054
-170.526
-166.628
-163.765
-162.555
-163.358
-165.992
-169.74
-173.155
-174.551
-172.801
-166.747
-154.719
-135.529
-108.681
-74.379
-34.168
9.785
55.568
100.424
140.287
171.235
189.539
191.654
175.308
138.958
81.179
3.292
-89.99
-195.135
-308.721
-428.016
-553.447
-678.482
-790.896
-879.675
-932.63
-947.553
-932.961
-896.583
-847.598
-791.139
-725.72
-652.708
-574.682
-494.813
-419.03
-351.452
-294.128
-248.385
-213.836
-189.076
-172.621
-162.923
-157.95
-155.675
-154.152
-151.406
-146.445
-139.254
-130.115
-119.525
-108.243
-97.007
-86.717
-78.466
-72.711
-69.35
-68.087
-68.38
-69.69
-71.571
-73.452
-74.69
-74.903
-73.94
-71.795
-68.626
-64.565
-59.7
-54.173
-48.148
-41.773
-35.184
-28.491
-21.77
-15.109
-8.608
-2.364
3.528
8.99
13.987
18.514
22.587
26.239
29.509
32.444
35.1
37.544
39.837
42.04
44.205
46.378
48.607
50.943
53.433
56.121
59.032
62.182
65.577
69.216
73.096
77.21
81.545
86.081
90.801
95.69
100.734
105.917
111.222
116.629
122.115
127.659
133.238
138.832
144.418
149.973
155.474
160.9
166.228
171.436
176.504
181.406
186.121
190.625
194.898
198.917
202.665
206.121
209.269
212.094
214.583
216.724
218.509
219.929
220.979
221.653
221.951
221.872
221.418
220.592
219.398
217.846
215.943
213.701
211.132
208.249
205.069
201.609
197.886
193.92
189.732
185.342
180.772
176.045
171.184
166.212
161.153
156.03
150.866
145.684
140.507
135.356
130.254
125.219
120.273
115.432
110.716
106.14
101.72
97.469
93.402
89.529
85.861
82.406
79.173
76.166
73.391
70.851
68.548
66.482
64.652
63.056
61.691
60.552
59.634
58.929
58.431
58.13
58.018
58.085
58.321
58.714
59.254
59.929
60.728
61.639
62.65
63.751
64.929
66.173
67.473
68.818
70.199
71.605
73.027
74.458
75.889
77.313
78.723
80.114
81.48
82.817
84.122
85.389
86.618
87.806
88.951
90.053
91.112
92.127
93.1
94.03
94.921
95.772
96.586
97.364
98.109
98.822
99.505
100.162
100.793
101.401
101.988
102.555
103.105
103.638
104.156
104.661
105.152
105.632
106.1
106.557
107.004
107.441
107.869
108.288
108.698
109.099
109.492
109.877
110.254
110.622
110.981
111.333
111.677
112.014
112.344
112.669
112.99
113.307
113.623
113.938
114.255
114.575
114.901
115.236
115.582
115.941
116.318
116.714
117.134
117.579
118.052
118.557
119.093
119.664
120.268
120.907
121.579
122.285
123.023
123.793
124.593
125.422
126.278
127.159
128.064
128.989
129.929
130.879
131.836
132.793
133.746
134.69
135.618
136.526
137.405
138.254
139.067
139.84
140.565
141.233
141.838
142.381
142.863
143.288
143.661
143.989
144.281
144.558
144.835
145.129
145.454
145.815
146.223
146.689
147.225
147.848
148.564
149.369
150.254
151.209
152.219
153.261
154.299
155.272
156.125
156.797
157.226
157.365
157.157
156.554
155.52
154.012
151.99
149.428
146.303
142.591
138.31
133.457
128.007
122.078
115.866
109.652
103.875
98.908
94.998
92.508
91.853
93.1
96.114
100.46
105.181
109.59
113.325
115.717
116.174
114.705
111.589
107.791
105.232
105.308
109.098
118.338
134.409
157.997
189.477
227.864
270.854
316.469
362.178
403.987
438.003
460.397
467.068
455.302
423.621
370.419
296.645
206.696
103.709
-9.063
-128.581
-255.194
-382.836
-499.365
-594.008
-654.671
-678.316
-673.071
-646.311
-606.444
-558.257
-499.917
-432.093
-357.226
-278.708
-202.222
-132.16
-71.038
-20.411
19.286
48.496
68.365
80.286
85.876
87.294
86.535
85.426
85.704
88.104
92.576
98.918
106.604
114.807
122.793
129.687
134.565
137.166
137.653
136.353
133.808
130.559
127.063
123.872
121.556
120.393
120.465
121.728
124.006
127.166
131.106
135.681
140.728
146.106
151.691
157.376
163.086
168.726
174.191
179.381
184.202
188.598
192.554
196.075
199.192
201.936
204.347
206.472
208.369
210.093
211.697
213.226
214.72
216.221
217.773
219.417
221.195
223.131
225.235
227.509
229.945
232.534
235.263
238.114
241.062
244.087
247.167
250.285
253.425
256.567
259.689
262.77
265.786
268.716
271.54
274.238
276.789
279.174
281.374
283.372
285.151
286.695
287.985
289.005
289.739
290.17
290.285
290.072
289.518
288.613
287.349
285.722
283.725
281.358
278.619
275.509
272.03
268.187
263.986
259.433
254.539
249.312
243.765
237.912
231.765
225.343
218.66
211.735
204.587
197.236
189.702
182.007
174.17
166.215
158.164
150.038
141.86
133.652
125.437
117.235
109.068
100.957
92.921
84.979
77.151
69.452
61.899
54.507
47.291
40.263
33.436
26.82
20.425
14.259
8.328
2.64
-2.802
-7.995
-12.937
-17.627
-22.066
-26.255
-30.198
-33.898
-37.361
-40.593
-43.601
-46.394
-48.978
-51.366
-53.565
-55.587
-57.444
-59.146
-60.705
-62.133
-63.442
-64.644
-65.751
-66.773
-67.724
-68.613
-69.451
-70.249
-71.016
-71.762
-72.494
-73.222
-73.951
-74.689
-75.441
-76.212
-77.006
-77.826
-78.675
-79.555
-80.467
-81.411
-82.387
-83.394
-84.43
-85.493
-86.58
-87.688
-88.814
-89.953
-91.101
-92.255
-93.409
-94.558
-95.7
-96.828
-97.939
-99.028
-100.093
-101.128
-102.13
-103.098
-104.027
-104.916
-105.763
-106.566
-107.325
-108.039
-108.708
-109.332
-109.913
-110.45
-110.946
-111.401
-111.819
-112.2
-112.548
-112.864
-113.151
-113.414
-113.653
-113.873
-114.077
-114.267
-114.446
-114.617
-114.781
-114.941
-115.097
-115.251
-115.404
-115.556
-115.707
-115.857
-116.004
-116.147
-116.284
-116.413
-116.531
-116.636
-116.724
-116.792
-116.838
-116.858
-116.849
-116.809
-116.735
-116.627
-116.481
-116.296
-116.071
-115.804
-115.494
-115.139
-114.739
-114.291
-113.795
-113.251
-112.659
-112.022
-111.34
-110.616
-109.851
-109.05
-108.215
-107.351
-106.463
-105.549
-104.611
-103.652
-102.676
-101.692
-100.704
-99.709
-98.706
-97.696
-96.676
-95.642
-94.586
-93.487
-92.328
-91.099
-89.791
-88.408
-86.952
-85.415
-83.792
-82.077
-80.27
-78.391
-76.456
-74.47
-72.449
-70.422
-68.433
-66.562
-64.888
-63.465
-62.342
-61.556
-61.13
-61.117
-61.573
-62.54
-64.063
-66.155
-68.81
-72.076
-76.016
-80.592
-85.654
-90.917
-95.973
-100.496
-104.264
-106.994
-108.325
-108.039
-106.209
-103.235
-99.877
-96.88
-94.653
-93.585
-94.28
-97.066
-101.73
-107.544
-113.046
-116.556
-116.948
-113.009
-103.016
-85.757
-60.713
-28.095
10.555
53.117
97.655
141.291
179.849
209.33
225.966
226.249
207.92
169.4
109.365
29.442
-65.372
-171.383
-285.0
-403.545
-527.397
-649.703
-758.364
-842.614
-890.606
-900.823
-882.039
-842.122
-790.541
-732.417
-666.322
-593.59
-516.501
-438.054
-364.02
-298.324
-242.837
-198.687
-165.372
-141.488
-125.666
-116.465
-111.917
-110.088
-109.149
-107.257
-103.503
-97.886
-90.64
-82.215
-73.354
-64.743
-57.212
-51.76
-48.744
-48.027
-49.297
-51.999
-55.573
-59.554
-63.354
-66.338
-68.168
-68.712
-67.978
-66.132
-63.3
-59.578
-55.122
-50.105
-44.683
-38.995
-33.151
-27.234
-21.352
-15.621
-10.152
-5.053
-0.385
3.83
7.592
10.927
13.867
16.453
18.743
20.798
22.681
24.452
26.166
27.868
29.612
31.45
33.433
35.61
38.012
40.656
43.549
46.69
50.071
53.683
57.511
61.531
65.724
70.071
74.555
79.161
83.868
88.655
93.499
98.375
103.26
108.134
112.973
117.756
122.459
127.063
131.544
135.885
140.062
144.054
147.839
151.393
154.697
157.729
160.472
162.905
165.014
166.783
168.2
169.254
169.936
170.238
170.156
169.684
168.821
167.568
165.926
163.898
161.492
158.712
155.57
152.075
148.241
144.08
139.609
134.843
129.803
124.505
118.971
113.222
107.28
101.167
94.907
88.523
82.04
75.482
68.872
62.235
55.594
48.973
42.395
35.881
29.452
23.13
16.933
10.88
4.988
-0.726
-6.248
-11.563
-16.659
-21.525
-26.151
-30.528
-34.65
-38.51
-42.106
-45.432
-48.489
-51.275
-53.792
-56.042
-58.029
-59.757
-61.232
-62.461
-63.452
-64.213
-64.754
-65.086
-65.218
-65.163
-64.932
-64.538
-63.992
-63.308
-62.499
-61.577
-60.554
-59.444
-58.259
-57.011
-55.712
-54.374
-53.006
-51.621
-50.228
-48.837
-47.456
-46.094
-44.758
-43.457
-42.195
-40.98
-39.816
-38.708
-37.66
-36.675
-35.756
-34.906
-34.125
-33.416
-32.779
-32.214
-31.72
-31.299
-30.948
-30.666
-30.451
-30.303
-30.218
-30.194
-30.229
-30.318
-30.459
-30.648
-30.881
-31.154
-31.464
-31.805
-32.174
-32.567
-32.979
-33.406
-33.844
-34.288
-34.733
-35.176
-35.612
-36.037
-36.445
-36.834
-37.198
-37.533
-37.835
-38.1
-38.324
-38.502
-38.629
-38.704
-38.72
-38.675
-38.566
-38.391
-38.147
-37.833
-37.449
-36.994
-36.47
-35.878
-35.221
-34.501
-33.72
-32.883
-31.991
-31.05
-30.061
-29.03
-27.962
-26.863
-25.741
-24.604
-23.459
-22.313
-21.176
-20.055
-18.958
-17.892
-16.863
-15.88
-14.951
-14.086
-13.298
-12.594
-11.978
-11.449
-11.007
-10.644
-10.351
-10.116
-9.918
-9.743
-9.578
-9.413
-9.243
-9.059
-8.847
-8.592
-8.278
-7.892
-7.436
-6.912
-6.325
-5.702
-5.072
-4.467
-3.947
-3.557
-3.334
-3.318
-3.538
-4.031
-4.84
-6.012
-7.581
-9.572
-11.997
-14.869
-18.201
-21.98
-26.183
-30.753
-35.625
-40.781
-46.124
-51.478
-56.6
-61.111
-64.652
-66.977
-67.765
-66.635
-63.556
-58.686
-52.445
-45.794
-39.505
-34.074
-30.291
-28.807
-29.605
-32.393
-36.238
-39.229
-39.863
-36.829
-28.223
-12.651
10.501
41.411
78.98
120.896
164.9
208.017
246.08
275.124
291.285
291.091
272.495
234.208
175.588
97.82
3.876
-102.156
-214.972
-329.092
-439.374
-540.036
-625.731
-692.54
-737.841
-760.921
-762.632
-744.148
-707.45
-656.096
-594.161
-525.924
-455.618
-386.157
-319.949
-259.735
-207.605
-164.677
-131.16
-106.124
-88.171
-76.374
-69.51
-65.756
-63.297
-60.346
-55.867
-49.838
-42.526
-34.15
-25.141
-16.135
-7.95
-1.605
2.402
4.193
4.073
2.502
-0.053
-3.186
-6.365
-8.961
-10.575
-11.054
-10.382
-8.695
-6.112
-2.699
1.421
6.097
11.19
16.568
22.123
27.78
33.454
39.042
44.448
49.573
54.333
58.69
62.633
66.175
69.345
72.178
74.712
77.001
79.105
81.084
82.992
84.879
86.786
88.76
90.847
93.094
95.543
98.218
101.131
104.286
107.679
111.306
115.156
119.211
123.449
127.851
132.397
137.069
141.85
146.718
151.65
156.62
161.604
166.575
171.51
176.384
181.171
185.848
190.388
194.769
198.968
202.962
206.726
210.237
213.471
216.407
219.024
221.303
223.227
224.779
225.946
226.717
227.083
227.036
226.573
225.689
224.384
222.66
220.519
217.968
215.014
211.667
207.938
203.841
199.391
194.605
189.502
184.102
178.426
172.497
166.34
159.977
153.434
146.737
139.913
132.986
125.985
118.934
111.86
104.787
97.742
90.747
83.826
77.001
70.292
63.719
57.3
51.053
44.993
39.133
33.487
28.067
22.881
17.939
13.246
8.807
4.628
0.708
-2.95
-6.348
-9.488
-12.373
-15.008
-17.4
-19.554
-21.479
-23.183
-24.677
-25.97
-27.073
-27.997
-28.753
-29.354
-29.81
-30.135
-30.339
-30.434
-30.432
-30.344
-30.181
-29.954
-29.671
-29.344
-28.981
-28.591
-28.182
-27.761
-27.335
-26.91
-26.492
-26.087
-25.697
-25.327
-24.98
-24.658
-24.363
-24.096
-23.859
-23.652
-23.475
-23.327
-23.208
-23.118
-23.055
-23.019
-23.008
-23.022
-23.058
-23.116
-23.195
-23.293
-23.409
-23.541
-23.69
-23.853
-24.03
-24.219
-24.419
-24.629
-24.848
-25.074
-25.307
-25.544
-25.784
-26.027
-26.271
-26.514
-26.757
-26.998
-27.234
-27.466
-27.692
-27.91
-28.118
-28.315
-28.498
-28.664
-28.812
-28.938
-29.04
-29.115
-29.16
-29.17
-29.144
-29.077
-28.966
-28.808
-28.6
-28.34
-28.025
-27.655
-27.229
-26.746
-26.207
-25.613
-24.966
-24.266
-23.517
-22.719
-21.876
-20.991
-20.064
-19.1
-18.102
-17.076
-16.026
-14.958
-13.877
-12.788
-11.699
-10.616
-9.546
-8.496
-7.471
-6.473
-5.509
-4.586
-3.711
-2.892
-2.127
-1.414
-0.752
-0.138
0.433
0.972
1.498
2.031
2.588
3.182
3.817
4.5
5.241
6.052
6.948
7.931
8.993
10.125
11.317
12.562
13.842
15.114
16.316
17.382
18.242
18.849
19.163
19.137
18.738
17.922
16.633
14.841
12.524
9.654
6.231
2.22
-2.44
-7.659
-13.226
-18.855
-24.126
-28.71
-32.423
-34.935
-35.832
-35.017
-32.642
-29.192
-25.543
-22.282
-19.615
-17.963
-17.912
-19.57
-22.623
-26.084
-28.239
-27.779
-23.932
-15.565
-1.2
20.085
48.62
83.718
123.454
165.94
209.312
250.654
286.028
311.528
323.44
318.601
295.208
251.982
188.091
105.735
8.92
-99.155
-213.393
-330.474
-447.662
-555.98
-648.134
-716.881
-755.332
-766.914
-755.725
-725.81
-683.743
-630.351
-566.966
-497.496
-424.416
-351.924
-284.223
-223.489
-171.53
-129.408
-96.941
-73.222
-57.047
-47.05
-41.475
-38.619
-36.777
-34.144
-29.836
-23.797
-16.178
-7.403
1.873
11.051
19.32
25.701
29.82
31.753
31.758
30.337
27.975
25.085
22.205
19.933
18.623
18.428
19.359
21.275
24.062
27.633
31.853
36.564
41.62
46.899
52.3
57.749
63.167
68.459
73.531
78.296
82.681
86.648
90.189
93.318
96.063
98.464
100.564
102.417
104.084
105.626
107.095
108.54
110.004
111.531
113.167
114.955
116.935
119.132
121.558
124.217
127.106
130.22
133.548
137.074
140.777
144.635
148.632
152.749
156.969
161.272
165.636
170.036
174.448
178.848
183.215
187.524
191.752
195.875
199.871
203.718
207.395
210.881
214.153
217.189
219.969
222.471
224.678
226.57
228.133
229.352
230.213
230.708
230.827
230.565
229.917
228.881
227.456
225.643
223.447
220.873
217.928
214.62
210.962
206.966
202.646
198.017
193.097
187.905
182.46
176.783
170.895
164.818
158.576
152.192
145.69
139.094
132.427
125.715
118.981
112.248
105.54
98.878
92.286
85.782
79.387
73.119
66.995
61.033
55.246
49.648
44.252
39.069
34.108
29.378
24.884
20.634
16.63
12.874
9.369
6.113
3.106
0.345
-2.174
-4.457
-6.508
-8.336
-9.948
-11.352
-12.559
-13.578
-14.421
-15.098
-15.622
-16.003
-16.255
-16.39
-16.419
-16.354
-16.207
-15.991
-15.716
-15.394
-15.034
-14.647
-14.243
-13.831
-13.418
-13.013
-12.623
-12.255
-11.913
-11.604
-11.331
-11.099
-10.911
-10.769
-10.676
-10.633
-10.641
-10.699
-10.809
-10.968
-11.177
-11.434
-11.735
-12.081
-12.467
-12.892
-13.353
-13.846
-14.37
-14.92
-15.495
-16.091
-16.705
-17.334
-17.977
-18.629
-19.289
-19.955
-20.625
-21.296
-21.967
-22.636
-23.303
-23.965
-24.621
-25.271
-25.912
-26.543
-27.164
-27.773
-28.369
-28.952
-29.519
-30.072
-30.607
-31.126
-31.626
-32.107
-32.567
-33.006
-33.422
-33.815
-34.181
-34.52
-34.831
-35.111
-35.358
-35.572
-35.749
-35.887
-35.985
-36.04
-36.05
-36.013
-35.926
-35.789
-35.599
-35.357
-35.062
-34.714
-34.314
-33.864
-33.367
-32.822
-32.234
-31.604
-30.937
-30.234
-29.499
-28.735
-27.946
-27.136
-26.309
-25.472
-24.629
-23.785
-22.946
-22.116
-21.302
-20.51
-19.746
-19.011
-18.31
-17.647
-17.025
-16.453
-15.936
-15.47
-15.054
-14.685
-14.356
-14.063
-13.793
-13.525
-13.241
-12.919
-12.546
-12.114
-11.616
-11.039
-10.372
-9.6
-8.714
-7.724
-6.638
-5.461
-4.209
-2.902
-1.579
-0.309
0.84
1.794
2.492
2.882
2.92
2.566
1.776
0.498
-1.31
-3.674
-6.623
-10.159
-14.301
-19.103
-24.483
-30.228
-36.047
-41.492
-46.172
-49.849
-52.176
-52.731
-51.453
-48.491
-44.284
-39.82
-35.809
-32.593
-30.82
-31.052
-33.224
-37.029
-41.461
-44.512
-44.712
-40.945
-31.463
-14.878
9.463
41.895
81.365
125.43
171.963
218.376
260.714
294.983
317.272
323.737
311.828
280.198
227.781
154.623
64.081
-39.393
-152.182
-268.828
-386.604
-502.991
-608.634
-696.53
-759.687
-791.232
-795.458
-777.042
-740.11
-691.88
-633.395
-565.937
-493.534
-418.499
-344.995
-277.407
-217.995
-168.35
-129.157
-99.86
-79.239
-65.981
-58.564
-54.964
-53.322
-51.966
-49.299
-44.674
-38.209
-30.127
-20.943
-11.463
-2.376
5.514
11.35
14.907
16.362
16.026
14.424
12.083
9.441
7.035
5.411
4.839
5.407
7.083
9.708
13.162
17.351
22.13
27.341
32.845
38.518
44.26
49.997
55.635
61.071
66.208
70.951
75.247
79.081
82.457
85.404
87.956
90.154
92.051
93.708
95.185
96.54
97.825
99.082
100.361
101.709
103.174
104.805
106.632
108.67
110.928
113.406
116.099
119.001
122.097
125.367
128.794
132.36
136.051
139.853
143.749
147.717
151.738
155.789
159.848
163.895
167.909
171.868
175.751
179.537
183.206
186.738
190.115
193.314
196.314
199.096
201.638
203.923
205.933
207.652
209.064
210.156
210.917
211.339
211.412
211.132
210.493
209.494
208.133
206.411
204.331
201.897
199.116
195.993
192.54
188.766
184.685
180.308
175.652
170.732
165.566
160.173
154.57
148.778
142.818
136.71
130.475
124.136
117.714
111.23
104.707
98.164
91.624
85.107
78.632
72.217
65.881
59.642
53.516
47.517
41.66
35.959
30.426
25.071
19.905
14.937
10.173
5.62
1.284
-2.833
-6.728
-10.399
-13.846
-17.071
-20.075
-22.862
-25.435
-27.8
-29.963
-31.93
-33.708
-35.306
-36.732
-37.995
-39.106
-40.073
-40.906
-41.617
-42.214
-42.709
-43.111
-43.431
-43.678
-43.862
-43.993
-44.078
-44.127
-44.148
-44.148
-44.134
-44.112
-44.088
-44.067
-44.055
-44.054
-44.068
-44.1
-44.153
-44.227
-44.324
-44.445
-44.589
-44.757
-44.947
-45.159
-45.391
-45.642
-45.91
-46.192
-46.486
-46.79
-47.101
-47.418
-47.736
-48.054
-48.37
-48.681
-48.984
-49.279
-49.564
-49.837
-50.098
-50.345
-50.578
-50.798
-51.004
-51.196
-51.376
-51.545
-51.704
-51.855
-52.0
-52.14
-52.278
-52.417
-52.559
-52.705
-52.86
-53.024
-53.2
-53.39
-53.596
-53.821
-54.065
-54.33
-54.618
-54.929
-55.265
-55.627
-56.013
-56.425
-56.861
-57.32
-57.801
-58.302
-58.82
-59.353
-59.899
-60.453
-61.012
-61.572
-62.128
-62.675
-63.208
-63.722
-64.211
-64.67
-65.094
-65.478
-65.818
-66.109
-66.348
-66.533
-66.662
-66.732
-66.743
-66.693
-66.581
-66.408
-66.173
-65.876
-65.518
-65.1
-64.626
-64.098
-63.523
-62.903
-62.246
-61.555
-60.837
-60.098
-59.344
-58.58
-57.813
-57.049
-56.295
-55.559
-54.855
-54.188
-53.559
-52.972
-52.419
-51.896
-51.396
-50.906
-50.408
-49.89
-49.337
-48.74
-48.093
-47.386
-46.609
-45.752
-44.795
-43.728
-42.554
-41.274
-39.904
-38.468
-36.987
-35.499
-34.063
-32.728
-31.544
-30.565
-29.828
-29.377
-29.266
-29.527
-30.199
-31.315
-32.903
-34.99
-37.592
-40.704
-44.297
-48.348
-52.843
-57.671
-62.635
-67.443
-71.683
-74.986
-77.108
-77.711
-76.382
-73.075
-67.952
-61.461
-54.609
-48.15
-42.506
-38.418
-36.537
-36.822
-38.97
-41.988
-43.846
-43.038
-38.32
-27.773
-9.974
15.711
49.527
90.341
135.724
183.49
230.761
273.229
306.842
327.74
332.047
317.251
281.907
224.71
147.015
53.537
-52.168
-166.546
-286.584
-412.342
-537.371
-649.861
-739.208
-793.764
-811.342
-799.984
-767.051
-721.273
-667.645
-604.957
-534.706
-459.58
-382.775
-310.027
-245.349
-190.75
-147.466
-115.078
-92.152
-77.106
-68.36
-63.899
-61.718
-59.955
-56.768
-51.264
-43.516
-33.905
-22.996
-11.597
-0.481
9.471
17.216
22.334
24.942
25.343
24.094
21.756
18.793
15.788
13.371
11.921
11.603
12.445
14.312
17.087
20.694
24.999
29.856
35.133
40.703
46.466
52.342
58.235
64.039
69.65
74.963
79.891
84.385
88.425
92.021
95.2
97.997
100.456
102.629
104.577
106.362
108.04
109.663
111.276
112.929
114.672
116.553
118.619
120.899
123.41
126.156
129.139
132.353
135.791
139.437
143.271
147.273
151.425
155.712
160.118
164.624
169.208
173.846
178.514
183.188
187.847
192.467
197.023
201.493
205.853
210.08
214.153
218.05
221.746
225.22
228.447
231.406
234.077
236.441
238.478
240.174
241.513
242.483
243.076
243.282
243.095
242.512
241.53
240.149
238.371
236.201
233.643
230.706
227.399
223.733
219.723
215.383
210.728
205.777
200.55
195.066
189.347
183.414
177.291
171.002
164.57
158.02
151.375
144.662
137.903
131.123
124.346
117.594
110.89
104.254
97.707
91.267
84.954
78.783
72.771
66.93
61.275
55.816
50.564
45.528
40.714
36.129
31.777
27.661
23.783
20.142
16.739
13.571
10.634
7.924
5.436
3.163
1.098
-0.767
-2.442
-3.935
-5.257
-6.418
-7.428
-8.3
-9.043
-9.669
-10.189
-10.614
-10.954
-11.221
-11.423
-11.571
-11.673
-11.74
-11.777
-11.794
-11.797
-11.793
-11.788
-11.786
-11.792
-11.811
-11.844
-11.896
-11.968
-12.061
-12.177
-12.317
-12.479
-12.664
-12.87
-13.098
-13.344
-13.608
-13.887
-14.179
-14.481
-14.791
-15.106
-15.425
-15.743
-16.06
-16.372
-16.678
-16.975
-17.262
-17.537
-17.799
-18.046
-18.277
-18.492
-18.69
-18.871
-19.036
-19.183
-19.315
-19.432
-19.536
-19.626
-19.706
-19.776
-19.838
-19.895
-19.948
-20.0
-20.053
-20.11
-20.173
-20.244
-20.327
-20.423
-20.534
-20.663
-20.811
-20.98
-21.17
-21.384
-21.621
-21.883
-22.17
-22.482
-22.82
-23.183
-23.57
-23.981
-24.414
-24.868
-25.341
-25.83
-26.333
-26.847
-27.37
-27.898
-28.428
-28.956
-29.479
-29.992
-30.491
-30.972
-31.43
-31.861
-32.261
-32.627
-32.955
-33.242
-33.487
-33.687
-33.843
-33.953
-34.016
-34.034
-34.005
-33.93
-33.811
-33.647
-33.44
-33.191
-32.902
-32.577
-32.22
-31.834
-31.423
-30.992
-30.544
-30.085
-29.621
-29.157
-28.694
-28.236
-27.787
-27.351
-26.939
-26.554
-26.194
-25.859
-25.544
-25.246
-24.959
-24.672
-24.363
-24.013
-23.605
-23.123
-22.565
-21.925
-21.193
-20.36
-19.412
-18.343
-17.167
-15.895
-14.534
-13.103
-11.627
-10.149
-8.742
-7.481
-6.441
-5.686
-5.27
-5.238
-5.628
-6.486
-7.861
-9.792
-12.305
-15.422
-19.143
-23.482
-28.488
-34.069
-40.008
-45.999
-51.578
-56.341
-60.037
-62.312
-62.741
-61.268
-58.05
-53.545
-48.771
-44.479
-41.05
-39.156
-39.365
-41.583
-45.469
-49.993
-53.101
-53.277
-49.331
-39.452
-22.273
2.787
35.953
76.088
120.704
167.605
214.077
256.038
289.445
310.399
315.196
301.408
267.64
212.865
137.24
44.235
-61.429
-175.945
-293.935
-412.699
-529.457
-634.69
-721.2
-781.826
-810.089
-810.592
-787.957
-746.447
-693.654
-630.988
-560.346
-486.183
-410.442
-337.187
-270.953
-213.961
-167.749
-132.482
-106.743
-88.838
-77.551
-71.288
-67.915
-65.422
-61.867
-56.133
-48.277
-38.741
-27.901
-16.359
-4.923
5.49
13.766
19.354
22.387
23.197
22.296
20.213
17.408
14.46
12.046
10.593
10.272
11.111
12.976
15.744
19.351
23.667
28.539
33.829
39.401
45.152
51.0
56.853
62.601
68.136
73.347
78.143
82.471
86.312
89.672
92.58
95.069
97.182
98.971
100.5
101.833
103.028
104.139
105.213
106.301
107.456
108.731
110.175
111.819
113.684
115.777
118.1
120.653
123.43
126.416
129.595
132.947
136.459
140.115
143.902
147.804
151.8
155.868
159.986
164.132
168.286
172.424
176.526
180.568
184.529
188.386
192.12
195.708
199.127
202.354
205.366
208.142
210.66
212.901
214.845
216.476
217.777
218.735
219.34
219.581
219.45
218.942
218.051
216.777
215.118
213.076
210.655
207.859
204.696
201.175
197.307
193.104
188.58
183.751
178.633
173.244
167.605
161.736
155.656
149.39
142.959
136.387
129.697
122.914
116.06
109.16
102.237
95.315
88.416
81.561
74.773
68.07
61.473
55.0
48.668
42.493
36.489
30.672
25.053
19.644
14.455
9.493
4.767
0.282
-3.957
-7.947
-11.687
-15.176
-18.415
-21.405
-24.151
-26.655
-28.924
-30.964
-32.782
-34.385
-35.783
-36.985
-38.001
-38.841
-39.516
-40.036
-40.413
-40.658
-40.783
-40.797
-40.713
-40.542
-40.293
-39.977
-39.605
-39.186
-38.73
-38.244
-37.738
-37.218
-36.693
-36.168
-35.65
-35.143
-34.654
-34.185
-33.741
-33.324
-32.937
-32.582
-32.26
-31.972
-31.719
-31.501
-31.318
-31.169
-31.054
-30.971
-30.921
-30.901
-30.91
-30.947
-31.01
-31.098
-31.21
-31.343
-31.497
-31.67
-31.861
-32.069
-32.294
-32.533
-32.787
-33.055
-33.337
-33.632
-33.94
-34.262
-34.598
-34.948
-35.313
-35.693
-36.089
-36.502
-36.931
-37.377
-37.84
-38.321
-38.819
-39.333
-39.863
-40.408
-40.967
-41.538
-42.121
-42.714
-43.314
-43.919
-44.526
-45.134
-45.737
-46.334
-46.921
-47.493
-48.046
-48.577
-49.082
-49.555
-49.991
-50.387
-50.736
-51.035
-51.277
-51.459
-51.576
-51.623
-51.597
-51.495
-51.315
-51.054
-50.713
-50.29
-49.788
-49.206
-48.546
-47.81
-47.001
-46.122
-45.176
-44.167
-43.099
-41.977
-40.809
-39.601
-38.361
-37.097
-35.815
-34.523
-33.229
-31.942
-30.671
-29.422
-28.202
-27.017
-25.878
-24.796
-23.778
-22.827
-21.94
-21.116
-20.35
-19.637
-18.969
-18.328
-17.699
-17.067
-16.422
-15.758
-15.068
-14.344
-13.571
-12.733
-11.822
-10.837
-9.792
-8.7
-7.573
-6.431
-5.31
-4.266
-3.354
-2.631
-2.146
-1.934
-2.039
-2.496
-3.339
-4.607
-6.338
-8.558
-11.281
-14.521
-18.26
-22.5
-27.255
-32.407
-37.754
-43.013
-47.774
-51.694
-54.552
-56.029
-55.737
-53.635
-49.88
-44.91
-39.69
-34.922
-30.979
-28.51
-28.075
-29.621
-32.84
-36.778
-39.492
-39.52
-35.686
-26.239
-9.888
13.941
45.453
83.569
125.963
170.471
214.328
253.565
284.35
302.853
305.503
290.187
255.597
200.889
126.875
36.15
-67.524
-179.022
-292.861
-403.962
-506.66
-595.497
-666.235
-715.829
-743.136
-748.723
-733.64
-699.651
-650.06
-588.855
-520.409
-449.223
-378.499
-310.819
-249.011
-195.325
-151.066
-116.566
-90.906
-72.551
-60.454
-53.335
-49.348
-46.64
-43.345
-38.362
-31.661
-23.57
-14.373
-4.546
5.242
14.142
21.069
25.472
27.439
27.255
25.401
22.367
18.577
14.593
11.082
8.475
6.958
6.576
7.206
8.736
11.111
14.214
17.904
22.052
26.534
31.252
36.135
41.095
46.028
50.83
55.394
59.626
63.476
66.923
69.974
72.657
75.004
77.055
78.861
80.481
81.975
83.397
84.798
86.219
87.708
89.314
91.087
93.073
95.3
97.784
100.53
103.535
106.794
110.295
114.022
117.949
122.056
126.321
130.725
135.252
139.879
144.581
149.332
154.105
158.874
163.615
168.302
172.909
177.411
181.782
186.0
190.042
193.883
197.502
200.872
203.973
206.781
209.276
211.44
213.255
214.704
215.776
216.458
216.743
216.624
216.095
215.156
213.806
212.047
209.882
207.319
204.366
201.031
197.328
193.271
188.874
184.156
179.135
173.831
168.266
162.463
156.446
150.238
143.864
137.351
130.723
124.008
117.23
110.417
103.591
96.78
90.007
83.296
76.668
70.146
63.748
57.495
51.402
45.486
39.762
34.242
28.938
23.86
19.016
14.414
10.059
5.954
2.102
-1.496
-4.841
-7.935
-10.781
-13.384
-15.75
-17.885
-19.797
-21.495
-22.987
-24.286
-25.4
-26.342
-27.123
-27.755
-28.25
-28.619
-28.876
-29.031
-29.097
-29.084
-29.003
-28.865
-28.68
-28.457
-28.205
-27.932
-27.645
-27.352
-27.058
-26.77
-26.491
-26.226
-25.978
-25.751
-25.546
-25.365
-25.208
-25.078
-24.972
-24.893
-24.838
-24.806
-24.797
-24.808
-24.839
-24.886
-24.949
-25.024
-25.111
-25.208
-25.312
-25.423
-25.538
-25.657
-25.779
-25.902
-26.027
-26.153
-26.279
-26.407
-26.536
-26.667
-26.801
-26.939
-27.081
-27.23
-27.386
-27.55
-27.724
-27.908
-28.104
-28.311
-28.531
-28.764
-29.011
-29.271
-29.545
-29.833
-30.134
-30.447
-30.772
-31.106
-31.449
-31.799
-32.153
-32.508
-32.861
-33.211
-33.552
-33.883
-34.198
-34.494
-34.767
-35.012
-35.225
-35.402
-35.538
-35.63
-35.674
-35.667
-35.606
-35.491
-35.32
-35.094
-34.812
-34.474
-34.083
-33.638
-33.143
-32.599
-32.009
-31.374
-30.698
-29.985
-29.241
-28.47
-27.68
-26.876
-26.064
-25.25
-24.441
-23.645
-22.868
-22.116
-21.394
-20.708
-20.066
-19.478
-18.951
-18.486
-18.08
-17.73
-17.43
-17.173
-16.948
-16.736
-16.518
-16.278
-16.001
-15.682
-15.312
-14.882
-14.375
-13.775
-13.073
-12.271
-11.383
-10.423
-9.407
-8.358
-7.316
-6.346
-5.509
-4.869
-4.478
-4.379
-4.62
-5.243
-6.286
-7.791
-9.795
-12.322
-15.38
-18.981
-23.103
-27.739
-32.892
-38.43
-44.144
-49.748
-54.834
-59.052
-62.166
-63.84
-63.675
-61.615
-57.798
-52.64
-47.075
-41.794
-37.186
-33.927
-32.62
-33.268
-35.619
-38.781
-40.887
-40.515
-36.499
-27.078
-10.918
12.614
43.774
81.544
123.655
167.968
211.715
250.89
281.59
299.904
302.178
286.237
250.716
194.734
119.101
26.438
-79.425
-193.238
-309.384
-422.684
-527.37
-617.911
-690.037
-740.624
-768.489
-774.33
-759.303
-725.265
-675.64
-614.309
-545.509
-473.823
-402.483
-333.877
-270.756
-215.202
-168.348
-130.942
-102.486
-81.511
-67.121
-58.298
-53.289
-50.557
-48.523
-45.577
-41.205
-35.578
-28.72
-20.947
-12.892
-5.077
1.697
6.547
9.266
10.027
9.113
7.025
4.243
1.167
-1.668
-3.71
-4.684
-4.493
-3.176
-0.899
2.214
6.068
10.526
15.434
20.652
26.057
31.545
37.037
42.44
47.651
52.572
57.11
61.211
64.858
68.064
70.86
73.283
75.376
77.191
78.787
80.226
81.562
82.849
84.131
85.456
86.872
88.428
90.17
92.128
94.319
96.748
99.415
102.315
105.439
108.774
112.3
115.999
119.853
123.849
127.973
132.206
136.529
140.919
145.354
149.813
154.274
158.716
163.116
167.453
171.705
175.85
179.868
183.738
187.436
190.941
194.229
197.28
200.073
202.588
204.807
206.713
208.291
209.528
210.412
210.935
211.087
210.863
210.259
209.271
207.9
206.146
204.012
201.502
198.624
195.385
191.794
187.865
183.608
179.04
174.177
169.034
163.632
157.988
152.124
146.062
139.822
133.427
126.901
120.266
113.547
106.767
99.948
93.115
86.289
79.493
72.749
66.076
59.495
53.025
46.684
40.489
34.457
28.602
22.939
17.48
12.236
7.218
2.435
-2.107
-6.399
-10.439
-14.221
-17.745
-21.008
-24.011
-26.755
-29.244
-31.479
-33.468
-35.214
-36.726
-38.009
-39.074
-39.928
-40.582
-41.044
-41.327
-41.441
-41.396
-41.205
-40.877
-40.426
-39.863
-39.198
-38.443
-37.608
-36.706
-35.745
-34.736
-33.689
-32.612
-31.514
-30.404
-29.289
-28.177
-27.073
-25.984
-24.916
-23.874
-22.861
-21.883
-20.942
-20.042
-19.184
-18.37
-17.603
-16.883
-16.211
-15.588
-15.013
-14.487
-14.009
-13.579
-13.197
-12.861
-12.571
-12.326
-12.124
-11.966
-11.851
-11.776
-11.743
-11.749
-11.795
-11.879
-12.001
-12.16
-12.355
-12.586
-12.85
-13.147
-13.476
-13.834
-14.222
-14.637
-15.078
-15.544
-16.033
-16.544
-17.074
-17.621
-18.184
-18.76
-19.346
-19.939
-20.537
-21.137
-21.734
-22.327
-22.91
-23.479
-24.032
-24.563
-25.067
-25.539
-25.976
-26.371
-26.721
-27.022
-27.27
-27.461
-27.594
-27.665
-27.676
-27.624
-27.51
-27.332
-27.092
-26.789
-26.425
-26.001
-25.518
-24.977
-24.383
-23.739
-23.052
-22.328
-21.572
-20.791
-19.992
-19.18
-18.365
-17.551
-16.745
-15.952
-15.183
-14.448
-13.758
-13.123
-12.545
-12.026
-11.563
-11.15
-10.781
-10.444
-10.119
-9.795
-9.459
-9.106
-8.734
-8.334
-7.896
-7.406
-6.85
-6.217
-5.51
-4.733
-3.892
-3.009
-2.108
-1.225
-0.416
0.279
0.826
1.192
1.352
1.263
0.883
0.167
-0.92
-2.394
-4.272
-6.578
-9.331
-12.532
-16.176
-20.212
-24.596
-29.344
-34.374
-39.518
-44.536
-49.025
-52.635
-55.156
-56.271
-55.599
-53.095
-48.914
-43.498
-37.816
-32.573
-28.131
-25.132
-24.142
-25.122
-27.776
-31.13
-33.273
-32.789
-28.638
-19.271
-3.404
19.563
49.919
86.798
128.004
171.518
214.993
254.945
287.682
309.627
317.21
307.605
279.194
230.813
162.168
76.023
-23.658
-133.82
-249.507
-367.699
-485.645
-594.154
-686.015
-754.008
-791.043
-800.551
-786.512
-752.887
-706.531
-648.456
-580.162
-505.803
-428.045
-351.413
-280.516
-217.784
-165.05
-123.235
-91.923
-69.966
-55.953
-48.243
-44.751
-43.52
-42.732
-40.625
-36.404
-30.113
-21.993
-12.571
-2.659
7.021
15.616
22.185
26.427
28.487
28.673
27.516
25.551
23.224
21.079
19.693
19.352
20.149
22.056
24.902
28.557
32.926
37.857
43.185
48.768
54.478
60.215
65.909
71.464
76.781
81.763
86.317
90.397
93.988
97.098
99.759
102.009
103.893
105.469
106.801
107.955
108.991
109.966
110.927
111.927
113.018
114.252
115.677
117.328
119.222
121.369
123.772
126.426
129.325
132.457
135.801
139.34
143.056
146.933
150.956
155.106
159.361
163.697
168.089
172.514
176.946
181.363
185.738
190.048
194.268
198.373
202.341
206.148
209.768
213.177
216.35
219.265
221.898
224.23
226.241
227.913
229.23
230.18
230.751
230.935
230.723
230.112
229.097
227.679
225.859
223.639
221.026
218.027
214.651
210.909
206.816
202.385
197.633
192.578
187.24
181.639
175.797
169.736
163.48
157.052
150.477
143.781
136.987
130.121
123.208
116.272
109.337
102.428
95.565
88.772
82.068
75.474
69.008
62.687
56.528
50.545
44.753
39.163
33.786
28.633
23.71
19.025
14.582
10.387
6.44
2.744
-0.702
-3.899
-6.849
-9.557
-12.027
-14.266
-16.279
-18.075
-19.662
-21.049
-22.246
-23.264
-24.112
-24.803
-25.347
-25.756
-26.041
-26.214
-26.286
-26.268
-26.172
-26.008
-25.787
-25.519
-25.213
-24.88
-24.528
-24.165
-23.799
-23.437
-23.088
-22.755
-22.446
-22.165
-21.916
-21.704
-21.532
-21.403
-21.32
-21.283
-21.294
-21.354
-21.464
-21.622
-21.83
-22.086
-22.388
-22.737
-23.129
-23.564
-24.039
-24.552
-25.102
-25.685
-26.301
-26.946
-27.618
-28.315
-29.034
-29.774
-30.531
-31.304
-32.09
-32.887
-33.693
-34.505
-35.321
-36.139
-36.956
-37.771
-38.58
-39.381
-40.171
-40.949
-41.711
-42.456
-43.182
-43.885
-44.564
-45.216
-45.84
-46.433
-46.992
-47.516
-48.0
-48.444
-48.845
-49.199
-49.506
-49.761
-49.964
-50.111
-50.2
-50.229
-50.196
-50.1
-49.938
-49.71
-49.416
-49.055
-48.628
-48.136
-47.581
-46.966
-46.295
-45.57
-44.796
-43.976
-43.115
-42.217
-41.287
-40.329
-39.348
-38.348
-37.334
-36.314
-35.292
-34.276
-33.27
-32.281
-31.316
-30.383
-29.487
-28.63
-27.814
-27.043
-26.32
-25.655
-25.05
-24.503
-24.012
-23.575
-23.188
-22.844
-22.529
-22.218
-21.887
-21.516
-21.089
-20.601
-20.045
-19.408
-18.676
-17.837
-16.886
-15.833
-14.687
-13.446
-12.122
-10.743
-9.355
-8.038
-6.879
-5.941
-5.281
-4.949
-4.976
-5.418
-6.338
-7.78
-9.785
-12.382
-15.568
-19.396
-23.94
-29.131
-34.788
-40.603
-46.129
-51.018
-55.056
-57.901
-59.141
-58.652
-56.565
-53.355
-49.882
-46.762
-44.231
-42.708
-42.776
-44.521
-47.586
-50.999
-53.051
-52.406
-48.305
-39.612
-24.835
-3.141
25.727
61.032
100.74
143.018
186.16
227.318
262.647
288.362
300.684
296.727
274.992
233.839
172.259
91.194
-6.691
-117.341
-235.445
-355.589
-472.555
-580.199
-672.713
-745.547
-795.461
-821.236
-823.222
-802.535
-761.317
-703.275
-632.881
-555.112
-474.912
-396.07
-321.929
-255.503
-198.972
-153.615
-119.501
-95.377
-79.495
-70.284
-65.805
-64.044
-63.074
-60.97
-56.776
-50.521
-42.537
-33.331
-23.636
-14.154
-5.761
0.505
4.234
5.532
4.706
2.307
-1.129
-5.142
-9.151
-12.52
-14.865
-16.019
-15.961
-14.833
-12.75
-9.803
-6.132
-1.898
2.749
7.682
12.796
18.012
23.246
28.394
33.354
38.031
42.342
46.242
49.718
52.78
55.455
57.784
59.81
61.589
63.185
64.661
66.072
67.471
68.9
70.408
72.042
73.849
75.871
78.135
80.655
83.433
86.467
89.751
93.273
97.016
100.956
105.071
109.342
113.751
118.278
122.905
127.605
132.355
137.13
141.905
146.658
151.363
155.998
160.539
164.964
169.25
173.377
177.325
181.07
184.591
187.868
190.879
193.607
196.034
198.145
199.924
201.359
202.442
203.163
203.516
203.497
203.102
202.333
201.188
199.672
197.79
195.547
192.952
190.015
186.747
183.162
179.273
175.097
170.65
165.95
161.016
155.868
150.526
145.011
139.344
133.546
127.64
121.647
115.588
109.486
103.361
97.234
91.126
85.055
79.04
73.099
67.249
61.505
55.883
50.396
45.057
39.878
34.87
30.041
25.401
20.957
16.714
12.677
8.851
5.237
1.837
-1.349
-4.321
-7.081
-9.631
-11.975
-14.117
-16.061
-17.814
-19.382
-20.772
-21.992
-23.048
-23.95
-24.705
-25.324
-25.815
-26.186
-26.448
-26.61
-26.681
-26.669
-26.584
-26.435
-26.231
-25.98
-25.69
-25.37
-25.026
-24.666
-24.298
-23.927
-23.561
-23.203
-22.861
-22.538
-22.24
-21.97
-21.732
-21.53
-21.365
-21.242
-21.161
-21.123
-21.131
-21.184
-21.283
-21.427
-21.616
-21.847
-22.12
-22.434
-22.786
-23.173
-23.594
-24.046
-24.526
-25.03
-25.555
-26.098
-26.653
-27.219
-27.789
-28.36
-28.928
-29.488
-30.036
-30.568
-31.078
-31.563
-32.019
-32.44
-32.824
-33.165
-33.462
-33.711
-33.91
-34.058
-34.154
-34.197
-34.19
-34.133
-34.028
-33.877
-33.681
-33.444
-33.168
-32.857
-32.514
-32.142
-31.746
-31.332
-30.907
-30.477
-30.047
-29.624
-29.215
-28.824
-28.46
-28.128
-27.833
-27.579
-27.37
-27.215
-27.12
-27.09
-27.124
-27.218
-27.368
-27.565
-27.803
-28.068
-28.341
-28.604
-28.84
-29.033
-29.177
-29.259
-29.269
-29.19
-29.005
-28.707
-28.297
-27.784
-27.175
-26.483
-25.726
-24.938
-24.173
-23.484
-22.923
-22.548
-22.399
-22.53
-22.987
-23.802
-25.016
-26.666
-28.779
-31.377
-34.488
-38.097
-42.212
-46.865
-51.948
-57.274
-62.572
-67.408
-71.415
-74.351
-75.858
-75.524
-73.291
-69.311
-64.037
-58.455
-53.277
-48.879
-45.937
-45.055
-46.214
-49.098
-52.697
-55.02
-54.616
-50.377
-40.545
-23.708
0.83
33.4
72.958
117.125
163.853
210.6
253.377
288.233
311.266
318.495
307.363
276.275
223.615
150.358
60.585
-41.548
-151.836
-268.602
-392.663
-520.416
-642.499
-744.616
-812.226
-838.879
-828.333
-792.111
-742.195
-685.879
-625.176
-558.035
-484.181
-406.43
-328.899
-257.062
-194.699
-143.08
-102.703
-72.943
-52.345
-39.609
-33.172
-30.774
-30.389
-30.256
-28.731
-25.154
-19.627
-12.374
-3.927
4.843
13.175
20.238
25.179
27.803
28.337
27.115
24.682
21.591
18.304
15.373
13.352
12.498
12.879
14.449
17.037
20.516
24.785
29.69
35.064
40.756
46.633
52.591
58.555
64.426
70.102
75.485
80.481
85.044
89.165
92.852
96.135
99.05
101.637
103.952
106.058
108.017
109.886
111.718
113.554
115.443
117.433
119.568
121.891
124.428
127.188
130.177
133.388
136.815
140.445
144.26
148.237
152.354
156.592
160.932
165.356
169.844
174.371
178.915
183.45
187.953
192.401
196.771
201.039
205.184
209.182
213.013
216.656
220.09
223.293
226.244
228.923
231.309
233.385
235.135
236.542
237.593
238.277
238.585
238.51
238.047
237.191
235.942
234.299
232.266
229.847
227.047
223.874
220.339
216.452
212.226
207.676
202.819
197.671
192.251
186.579
180.677
174.565
168.266
161.803
155.201
148.482
141.671
134.792
127.869
120.926
113.986
107.072
100.206
93.409
86.702
80.104
73.633
67.307
61.141
55.151
49.35
43.75
38.363
33.198
28.264
23.568
19.116
14.912
10.958
7.257
3.809
0.613
-2.332
-5.032
-7.488
-9.708
-11.698
-13.465
-15.018
-16.365
-17.516
-18.482
-19.274
-19.903
-20.38
-20.718
-20.928
-21.023
-21.014
-20.914
-20.735
-20.489
-20.186
-19.84
-19.46
-19.057
-18.642
-18.224
-17.813
-17.417
-17.044
-16.702
-16.398
-16.139
-15.93
-15.776
-15.682
-15.651
-15.686
-15.79
-15.964
-16.209
-16.525
-16.912
-17.367
-17.89
-18.479
-19.13
-19.842
-20.609
-21.428
-22.296
-23.206
-24.154
-25.134
-26.142
-27.169
-28.212
-29.262
-30.314
-31.361
-32.397
-33.414
-34.407
-35.367
-36.288
-37.163
-37.987
-38.752
-39.453
-40.086
-40.644
-41.125
-41.526
-41.843
-42.078
-42.228
-42.293
-42.274
-42.172
-41.988
-41.724
-41.382
-40.965
-40.474
-39.916
-39.295
-38.617
-37.889
-37.117
-36.307
-35.468
-34.605
-33.729
-32.846
-31.962
-31.085
-30.221
-29.38
-28.574
-27.811
-27.093
-26.42
-25.791
-25.203
-24.651
-24.126
-23.611
-23.089
-22.546
-21.969
-21.355
-20.695
-19.979
-19.196
-18.33
-17.376
-16.34
-15.234
-14.071
-12.869
-11.652
-10.46
-9.357
-8.405
-7.665
-7.201
-7.059
-7.291
-7.949
-9.069
-10.692
-12.86
-15.592
-18.904
-22.819
-27.314
-32.389
-38.066
-44.218
-50.638
-57.049
-63.018
-68.184
-72.308
-75.029
-75.925
-74.912
-72.118
-67.977
-63.43
-59.141
-55.442
-52.955
-52.279
-53.461
-56.261
-59.748
-62.056
-61.803
-57.97
-49.004
-33.557
-10.893
19.377
56.465
98.272
142.852
187.857
229.709
264.62
288.838
298.491
290.55
262.988
214.027
144.247
57.167
-43.324
-153.413
-271.644
-398.21
-529.224
-655.35
-762.1
-834.882
-866.943
-861.34
-829.093
-782.162
-727.901
-668.471
-602.055
-528.46
-450.564
-372.577
-299.99
-236.507
-183.442
-141.399
-109.82
-87.343
-72.736
-64.504
-60.518
-58.849
-57.745
-55.495
-51.363
-45.399
-37.804
-29.076
-20.028
-11.371
-3.938
1.36
4.264
4.957
3.773
1.272
-1.983
-5.528
-8.797
-11.201
-12.446
-12.431
-11.188
-8.889
-5.666
-1.618
3.101
8.323
13.895
19.684
25.576
31.487
37.314
42.944
48.273
53.2
57.671
61.668
65.199
68.294
70.991
73.334
75.378
77.188
78.826
80.354
81.824
83.286
84.789
86.383
88.12
90.045
92.189
94.566
97.182
100.033
103.114
106.412
109.911
113.589
117.425
121.399
125.494
129.694
133.978
138.323
142.707
147.103
151.49
155.845
160.144
164.365
168.486
172.482
176.335
180.022
183.524
186.817
189.881
192.693
195.234
197.485
199.429
201.048
202.33
203.261
203.832
204.035
203.863
203.313
202.382
201.071
199.379
197.312
194.875
192.075
188.92
185.421
181.591
177.445
172.996
168.263
163.264
158.017
152.544
146.865
141.003
134.979
128.818
122.543
116.176
109.742
103.265
96.767
90.27
83.799
77.373
71.014
64.741
58.573
52.526
46.618
40.864
35.278
29.871
24.657
19.644
14.843
10.26
5.903
1.775
-2.12
-5.778
-9.198
-12.381
-15.328
-18.041
-20.523
-22.778
-24.812
-26.631
-28.24
-29.649
-30.864
-31.896
-32.752
-33.442
-33.977
-34.366
-34.618
-34.745
-34.756
-34.661
-34.471
-34.194
-33.841
-33.42
-32.94
-32.411
-31.839
-31.234
-30.602
-29.951
-29.288
-28.619
-27.95
-27.287
-26.634
-25.998
-25.383
-24.792
-24.23
-23.7
-23.205
-22.749
-22.333
-21.961
-21.634
-21.353
-21.122
-20.939
-20.807
-20.726
-20.697
-20.718
-20.79
-20.912
-21.084
-21.304
-21.572
-21.886
-22.244
-22.644
-23.085
-23.564
-24.078
-24.623
-25.196
-25.794
-26.411
-27.044
-27.689
-28.339
-28.99
-29.636
-30.271
-30.89
-31.486
-32.052
-32.582
-33.07
-33.51
-33.895
-34.222
-34.483
-34.677
-34.798
-34.844
-34.814
-34.705
-34.515
-34.243
-33.888
-33.451
-32.93
-32.327
-31.642
-30.879
-30.041
-29.133
-28.162
-27.133
-26.052
-24.925
-23.761
-22.566
-21.349
-20.115
-18.874
-17.633
-16.403
-15.197
-14.025
-12.891
-11.797
-10.743
-9.725
-8.739
-7.776
-6.822
-5.865
-4.896
-3.908
-2.899
-1.863
-0.794
0.317
1.483
2.708
3.99
5.32
6.688
8.069
9.438
10.757
11.971
13.031
13.895
14.514
14.845
14.847
14.472
13.682
12.454
10.755
8.559
5.839
2.572
-1.24
-5.562
-10.372
-15.663
-21.35
-27.265
-33.141
-38.57
-43.19
-46.749
-48.945
-49.409
-47.994
-44.799
-40.221
-35.138
-30.369
-26.413
-23.862
-23.312
-24.957
-28.597
-33.445
-37.804
-39.937
-38.466
-31.794
-18.435
2.572
31.695
68.464
111.093
157.242
204.2
248.324
285.616
312.174
324.077
317.953
291.455
243.052
173.473
86.224
-14.625
-125.28
-244.339
-371.806
-503.842
-631.29
-739.581
-814.031
-847.619
-843.08
-811.461
-764.791
-710.576
-651.113
-584.512
-510.57
-432.21
-353.715
-280.732
-217.079
-164.125
-122.49
-91.581
-69.98
-56.37
-49.165
-46.152
-45.324
-44.878
-43.084
-39.202
-33.296
-25.603
-16.655
-7.31
1.681
9.459
15.097
18.333
19.345
18.468
16.263
13.295
10.033
7.043
4.91
3.921
4.168
5.617
8.093
11.463
15.626
20.429
25.703
31.3
37.087
42.954
48.818
54.577
60.119
65.339
70.138
74.461
78.29
81.63
84.513
86.974
89.056
90.815
92.313
93.613
94.775
95.853
96.895
97.951
99.073
100.312
101.715
103.316
105.129
107.164
109.419
111.89
114.57
117.443
120.491
123.695
127.039
130.509
134.091
137.768
141.52
145.327
149.166
153.018
156.862
160.678
164.445
168.143
171.751
175.25
178.621
181.844
184.897
187.761
190.414
192.837
195.011
196.919
198.544
199.87
200.885
201.578
201.939
201.961
201.638
200.965
199.941
198.564
196.836
194.76
192.34
189.581
186.493
183.083
179.365
175.349
171.05
166.483
161.664
156.613
151.346
145.885
140.248
134.458
128.535
122.502
116.38
110.193
103.962
97.709
91.456
85.224
79.035
72.907
66.859
60.911
55.078
49.378
43.825
38.434
33.217
28.187
23.355
18.729
14.319
10.13
6.17
2.443
-1.049
-4.303
-7.319
-10.096
-12.638
-14.946
-17.025
-18.88
-20.515
-21.939
-23.159
-24.183
-25.021
-25.681
-26.175
-26.513
-26.704
-26.762
-26.696
-26.517
-26.237
-25.868
-25.419
-24.902
-24.328
-23.707
-23.049
-22.363
-21.66
-20.947
-20.234
-19.528
-18.837
-18.166
-17.523
-16.913
-16.34
-15.81
-15.327
-14.893
-14.512
-14.187
-13.917
-13.706
-13.554
-13.46
-13.426
-13.452
-13.535
-13.676
-13.873
-14.125
-14.431
-14.788
-15.194
-15.646
-16.143
-16.681
-17.257
-17.867
-18.509
-19.179
-19.874
-20.589
-21.322
-22.069
-22.826
-23.589
-24.356
-25.121
-25.881
-26.633
-27.372
-28.094
-28.796
-29.474
-30.123
-30.741
-31.322
-31.865
-32.363
-32.815
-33.216
-33.563
-33.852
-34.081
-34.249
-34.351
-34.389
-34.361
-34.267
-34.108
-33.886
-33.601
-33.256
-32.853
-32.394
-31.884
-31.324
-30.718
-30.07
-29.383
-28.663
-27.915
-27.145
-26.358
-25.56
-24.758
-23.958
-23.168
-22.392
-21.633
-20.895
-20.182
-19.501
-18.859
-18.261
-17.705
-17.192
-16.721
-16.287
-15.887
-15.509
-15.132
-14.736
-14.306
-13.831
-13.308
-12.731
-12.091
-11.375
-10.572
-9.677
-8.696
-7.636
-6.498
-5.292
-4.039
-2.78
-1.584
-0.526
0.334
0.944
1.264
1.266
0.901
0.112
-1.151
-2.933
-5.26
-8.141
-11.622
-15.774
-20.577
-25.898
-31.464
-36.891
-41.842
-46.09
-49.361
-51.287
-51.623
-50.395
-47.95
-44.983
-42.17
-39.849
-38.304
-38.05
-39.42
-42.277
-46.007
-49.256
-50.453
-48.618
-42.811
-31.56
-13.672
11.507
44.057
82.674
125.326
170.332
215.33
256.631
290.438
312.923
320.182
309.655
279.768
228.824
157.609
70.269
-30.132
-140.417
-257.639
-382.19
-508.172
-623.568
-717.652
-778.38
-802.601
-798.332
-772.902
-734.601
-688.12
-631.557
-565.488
-492.279
-415.262
-340.019
-270.781
-209.977
-159.14
-118.696
-88.253
-66.714
-52.711
-44.717
-40.74
-38.935
-37.623
-35.183
-30.929
-24.951
-17.482
-9.039
-0.408
7.748
14.638
19.404
21.82
22.071
20.49
17.625
14.02
10.127
6.492
3.684
1.986
1.499
2.196
3.916
6.539
9.969
14.062
18.656
23.607
28.786
34.087
39.428
44.71
49.825
54.67
59.147
63.202
66.815
69.993
72.767
75.171
77.249
79.054
80.649
82.096
83.453
84.775
86.106
87.495
88.992
90.646
92.504
94.595
96.935
99.529
102.374
105.464
108.787
112.327
116.061
119.968
124.028
128.222
132.535
136.945
141.43
145.964
150.524
155.085
159.624
164.117
168.54
172.87
177.084
181.159
185.073
188.806
192.333
195.632
198.68
201.456
203.94
206.113
207.957
209.457
210.598
211.37
211.763
211.77
211.385
210.603
209.425
207.849
205.879
203.518
200.773
197.651
194.162
190.319
186.133
181.62
176.796
171.679
166.287
160.643
154.766
148.679
142.406
135.97
129.395
122.706
115.928
109.087
102.206
95.312
88.427
81.576
74.782
68.067
61.452
54.957
48.6
42.4
36.374
30.536
24.901
19.481
14.287
9.33
4.618
0.158
-4.044
-7.984
-11.66
-15.07
-18.215
-21.095
-23.713
-26.074
-28.183
-30.046
-31.671
-33.066
-34.24
-35.205
-35.97
-36.548
-36.95
-37.19
-37.28
-37.233
-37.062
-36.781
-36.403
-35.94
-35.407
-34.814
-34.174
-33.499
-32.8
-32.089
-31.375
-30.668
-29.977
-29.312
-28.679
-28.087
-27.541
-27.048
-26.612
-26.238
-25.929
-25.688
-25.519
-25.421
-25.396
-25.445
-25.566
-25.759
-26.022
-26.353
-26.748
-27.205
-27.72
-28.288
-28.905
-29.566
-30.265
-30.998
-31.76
-32.543
-33.344
-34.155
-34.971
-35.787
-36.595
-37.39
-38.165
-38.916
-39.635
-40.318
-40.958
-41.551
-42.09
-42.572
-42.991
-43.342
-43.621
-43.826
-43.951
-43.994
-43.953
-43.828
-43.616
-43.319
-42.937
-42.472
-41.928
-41.306
-40.61
-39.844
-39.013
-38.121
-37.174
-36.175
-35.131
-34.048
-32.933
-31.794
-30.638
-29.472
-28.305
-27.145
-25.998
-24.876
-23.785
-22.732
-21.72
-20.757
-19.85
-19.009
-18.238
-17.538
-16.909
-16.347
-15.85
-15.414
-15.027
-14.671
-14.328
-13.98
-13.614
-13.225
-12.805
-12.343
-11.826
-11.238
-10.576
-9.848
-9.06
-8.22
-7.338
-6.427
-5.529
-4.701
-4.006
-3.506
-3.249
-3.272
-3.62
-4.323
-5.423
-6.969
-8.987
-11.496
-14.519
-18.056
-22.138
-26.82
-32.019
-37.534
-43.092
-48.291
-52.801
-56.42
-58.812
-59.564
-58.571
-55.984
-52.285
-48.339
-44.776
-41.872
-40.106
-40.111
-42.031
-45.546
-49.659
-52.64
-53.094
-50.113
-42.458
-28.57
-7.444
21.255
56.807
97.268
140.635
184.873
226.986
263.023
288.934
300.935
296.118
272.806
229.846
166.955
85.521
-11.279
-118.877
-231.881
-344.681
-451.747
-547.611
-627.448
-687.559
-725.827
-741.931
-736.697
-711.92
-670.423
-615.714
-551.756
-482.863
-412.898
-344.853
-281.501
-225.042
-176.893
-137.985
-108.246
-86.58
-71.724
-62.416
-56.982
-53.827
-51.411
-48.148
-43.317
-36.956
-29.257
-20.63
-11.705
-3.049
4.595
10.358
13.936
15.438
15.128
13.486
10.976
7.995
5.051
2.698
1.263
0.891
1.593
3.242
5.738
8.998
12.9
17.296
22.05
27.046
32.185
37.397
42.605
47.713
52.632
57.276
61.573
65.484
69.0
72.131
74.904
77.354
79.522
81.457
83.22
84.864
86.441
87.998
89.571
91.205
92.941
94.821
96.882
99.147
101.626
104.323
107.234
110.351
113.666
117.16
120.812
124.602
128.51
132.52
136.615
140.773
144.973
149.192
153.404
157.589
161.722
165.783
169.746
173.592
177.297
180.84
184.203
187.364
190.304
193.0
195.434
197.587
199.442
200.982
202.194
203.063
203.581
203.738
203.527
202.944
201.987
200.653
198.945
196.865
194.418
191.61
188.451
184.95
181.12
176.973
172.525
167.792
162.792
157.544
152.068
146.385
140.517
134.487
128.316
122.028
115.648
109.198
102.703
96.185
89.668
83.174
76.727
70.346
64.053
57.867
51.807
45.889
40.131
34.546
29.15
23.954
18.969
14.205
9.671
5.373
1.317
-2.493
-6.054
-9.364
-12.425
-15.236
-17.801
-20.122
-22.205
-24.056
-25.68
-27.087
-28.284
-29.28
-30.087
-30.713
-31.17
-31.47
-31.625
-31.645
-31.545
-31.335
-31.028
-30.636
-30.171
-29.645
-29.069
-28.454
-27.811
-27.15
-26.48
-25.81
-25.15
-24.506
-23.886
-23.296
-22.743
-22.231
-21.766
-21.351
-20.99
-20.685
-20.439
-20.253
-20.128
-20.066
-20.065
-20.125
-20.246
-20.426
-20.663
-20.955
-21.3
-21.694
-22.134
-22.616
-23.137
-23.691
-24.275
-24.883
-25.512
-26.156
-26.812
-27.473
-28.137
-28.797
-29.449
-30.088
-30.711
-31.312
-31.886
-32.43
-32.939
-33.409
-33.836
-34.216
-34.545
-34.819
-35.036
-35.191
-35.281
-35.305
-35.258
-35.141
-34.951
-34.689
-34.354
-33.946
-33.469
-32.923
-32.313
-31.641
-30.91
-30.126
-29.292
-28.412
-27.493
-26.537
-25.551
-24.539
-23.508
-22.465
-21.417
-20.369
-19.33
-18.306
-17.304
-16.333
-15.399
-14.506
-13.657
-12.856
-12.111
-11.43
-10.82
-10.276
-9.799
-9.386
-9.032
-8.733
-8.475
-8.234
-7.99
-7.725
-7.427
-7.093
-6.72
-6.293
-5.8
-5.225
-4.561
-3.819
-3.009
-2.132
-1.199
-0.236
0.716
1.58
2.275
2.747
2.951
2.853
2.434
1.644
0.424
-1.267
-3.474
-6.21
-9.464
-13.277
-17.71
-22.716
-28.145
-33.704
-38.982
-43.654
-47.501
-50.25
-51.555
-51.201
-49.24
-46.049
-42.347
-38.835
-35.901
-33.898
-33.368
-34.615
-37.447
-41.193
-44.497
-45.782
-43.966
-37.942
-26.166
-7.54
18.407
51.47
90.182
132.478
176.425
219.296
257.274
286.556
303.345
304.356
287.711
252.017
196.378
121.633
30.355
-73.625
-185.138
-298.792
-409.566
-511.756
-599.921
-669.901
-718.679
-745.164
-750.047
-734.412
-700.102
-650.553
-589.655
-521.612
-450.92
-380.748
-313.5
-251.954
-198.175
-153.214
-117.696
-91.033
-71.735
-58.866
-51.331
-47.3
-45.186
-43.434
-40.527
-36.029
-30.139
-22.917
-14.72
-6.225
1.997
9.141
14.365
17.491
18.695
18.256
16.654
14.356
11.757
9.373
7.725
7.064
7.475
8.912
11.217
14.274
17.994
22.247
26.891
31.802
36.868
41.995
47.115
52.145
56.992
61.562
65.769
69.56
72.921
75.864
78.419
80.622
82.511
84.137
85.556
86.826
88.0
89.126
90.245
91.401
92.639
94.006
95.546
97.289
99.249
101.434
103.84
106.464
109.297
112.325
115.527
118.884
122.379
125.996
129.72
133.533
137.415
141.343
145.294
149.246
153.178
157.068
160.892
164.631
168.262
171.764
175.12
178.308
181.307
184.097
186.657
188.968
191.013
192.775
194.237
195.385
196.209
196.698
196.844
196.641
196.085
195.174
193.906
192.285
190.312
187.992
185.333
182.343
179.031
175.41
171.492
167.293
162.827
158.113
153.168
148.013
142.666
137.149
131.484
125.692
119.796
113.818
107.78
101.705
95.615
89.531
83.477
77.471
71.534
65.686
59.943
54.323
48.843
43.516
38.357
33.377
28.589
24.002
19.625
15.465
11.529
7.821
4.345
1.104
-1.902
-4.672
-7.209
-9.513
-11.59
-13.443
-15.078
-16.502
-17.721
-18.743
-19.578
-20.234
-20.721
-21.05
-21.23
-21.274
-21.19
-20.992
-20.689
-20.293
-19.814
-19.264
-18.652
-17.99
-17.287
-16.553
-15.797
-15.028
-14.254
-13.483
-12.723
-11.98
-11.26
-10.571
-9.916
-9.301
-8.73
-8.207
-7.735
-7.317
-6.955
-6.652
-6.408
-6.226
-6.105
-6.046
-6.05
-6.115
-6.242
-6.429
-6.675
-6.978
-7.337
-7.75
-8.213
-8.724
-9.281
-9.879
-10.517
-11.189
-11.894
-12.627
-13.384
-14.162
-14.957
-15.765
-16.58
-17.4
-18.219
-19.034
-19.839
-20.631
-21.404
-22.154
-22.877
-23.568
-24.222
-24.834
-25.4
-25.916
-26.377
-26.781
-27.124
-27.403
-27.616
-27.762
-27.842
-27.855
-27.803
-27.687
-27.507
-27.268
-26.97
-26.618
-26.215
-25.763
-25.267
-24.732
-24.164
-23.57
-22.956
-22.331
-21.7
-21.07
-20.451
-19.849
-19.272
-18.726
-18.218
-17.755
-17.344
-16.997
-16.72
-16.514
-16.38
-16.313
-16.307
-16.356
-16.451
-16.571
-16.703
-16.83
-16.939
-17.027
-17.084
-17.101
-17.068
-16.964
-16.78
-16.521
-16.19
-15.8
-15.371
-14.917
-14.471
-14.09
-13.823
-13.721
-13.841
-14.209
-14.863
-15.844
-17.172
-18.892
-21.05
-23.665
-26.765
-30.364
-34.436
-38.993
-44.061
-49.544
-55.275
-60.995
-66.316
-70.93
-74.623
-77.102
-78.008
-77.136
-74.557
-70.668
-66.209
-61.899
-58.156
-55.393
-54.247
-55.093
-57.747
-61.498
-64.928
-66.404
-64.832
-59.051
-47.378
-28.632
-2.339
31.264
70.627
113.615
158.303
201.868
240.219
269.451
285.881
286.1
267.956
229.973
170.9
92.23
-1.331
-106.172
-218.744
-336.267
-458.854
-580.043
-688.359
-773.562
-824.432
-839.184
-825.789
-791.446
-744.802
-690.743
-628.117
-558.39
-484.053
-408.147
-336.255
-272.278
-218.178
-175.177
-142.885
-119.963
-104.999
-96.527
-92.592
-91.235
-90.594
-88.808
-84.962
-79.065
-71.4
-62.457
-52.984
-43.708
-35.5
-29.392
-25.795
-24.596
-25.489
-27.936
-31.398
-35.422
-39.44
-42.823
-45.195
-46.401
-46.426
-45.412
-43.477
-40.7
-37.213
-33.168
-28.706
-23.954
-19.022
-13.985
-8.933
-3.97
0.807
5.298
9.42
13.134
16.431
19.32
21.831
23.999
25.866
27.483
28.912
30.212
31.437
32.637
33.853
35.131
36.516
38.053
39.781
41.723
43.889
46.279
48.889
51.711
54.732
57.934
61.293
64.788
68.4
72.11
75.901
79.754
83.646
87.554
91.454
95.327
99.151
102.905
106.571
110.127
113.556
116.84
119.964
122.91
125.664
128.208
130.528
132.61
134.444
136.017
137.322
138.351
139.101
139.568
139.753
139.656
139.281
138.633
137.717
136.542
135.116
133.452
131.559
129.452
127.144
124.65
121.986
119.169
116.215
113.142
109.968
106.711
103.389
100.02
96.621
93.21
89.803
86.418
83.069
79.772
76.54
73.386
70.323
67.361
64.509
61.775
59.166
56.688
54.345
52.141
50.077
48.155
46.375
44.737
43.237
41.875
40.646
39.547
38.574
37.72
36.981
36.35
35.82
35.385
35.038
34.772
34.579
34.451
34.382
34.364
34.39
34.452
34.544
34.66
34.793
34.938
35.09
35.243
35.395
35.54
35.676
35.801
35.911
36.005
36.082
36.141
36.18
36.2
36.2
36.182
36.144
36.088
36.015
35.926
35.822
35.703
35.572
35.429
35.276
35.114
34.944
34.768
34.587
34.401
34.213
34.022
33.829
33.635
33.44
33.243
33.045
32.844
32.64
32.433
32.22
32.002
31.775
31.538
31.291
31.03
30.754
30.461
30.148
29.815
29.46
29.08
28.675
28.243
27.784
27.297
26.782
26.238
25.666
25.066
24.437
23.781
23.098
22.391
21.659
20.906
20.134
19.345
18.541
17.727
16.906
16.081
15.255
14.434
13.622
12.822
12.041
11.283
10.553
9.855
9.195
8.577
8.005
7.481
7.01
6.594
6.233
5.928
5.679
5.487
5.351
5.269
5.241
5.264
5.337
5.457
5.622
5.827
6.069
6.343
6.642
6.961
7.295
7.639
7.985
8.326
8.656
8.97
9.264
9.534
9.772
9.968
10.116
10.216
10.272
10.285
10.26
10.203
10.124
10.044
9.982
9.957
9.981
10.059
10.198
10.407
10.7
11.096
11.599
12.205
12.901
13.673
14.511
15.394
16.28
17.103
17.795
18.283
18.517
18.459
18.064
17.303
16.126
14.475
12.317
9.618
6.367
2.574
-1.786
-6.757
-12.267
-18.131
-24.059
-29.634
-34.508
-38.438
-41.112
-42.143
-41.301
-38.657
-34.615
-29.95
-25.447
-21.571
-18.773
-17.718
-18.78
-21.758
-25.905
-29.728
-31.476
-29.937
-23.825
-11.35
8.712
36.822
72.678
114.621
160.365
207.812
253.926
294.376
325.087
342.283
342.508
323.596
284.081
222.752
141.266
44.589
-63.507
-179.361
-300.146
-425.961
-550.063
-660.647
-747.198
-798.237
-812.053
-796.838
-760.024
-710.634
-653.788
-588.426
-516.156
-439.543
-361.779
-288.673
-224.206
-170.263
-127.875
-96.416
-74.349
-60.12
-52.106
-48.191
-46.328
-44.682
-41.524
-36.104
-28.567
-19.299
-8.883
1.837
12.071
20.952
27.517
31.427
32.856
32.147
29.861
26.556
22.708
18.886
15.699
13.509
12.464
12.58
13.725
15.787
18.69
22.308
26.495
31.115
36.043
41.17
46.416
51.692
56.894
61.918
66.663
71.037
74.995
78.521
81.623
84.327
86.665
88.675
90.411
91.934
93.305
94.579
95.805
97.026
98.288
99.638
101.125
102.791
104.663
106.753
109.066
111.6
114.35
117.305
120.448
123.757
127.212
130.794
134.486
138.274
142.137
146.055
150.003
153.961
157.904
161.813
165.666
169.44
173.116
176.671
180.087
183.345
186.426
189.31
191.975
194.405
196.579
198.48
200.094
201.405
202.399
203.066
203.397
203.385
203.025
202.311
201.243
199.82
198.043
195.916
193.443
190.631
187.486
184.02
180.242
176.165
171.803
167.171
162.286
157.163
151.823
146.283
140.564
134.687
128.672
122.541
116.315
110.017
103.668
97.291
90.906
84.535
78.198
71.915
65.706
59.588
53.579
47.696
41.954
36.367
30.95
25.714
20.67
15.829
11.2
6.791
2.607
-1.345
-5.063
-8.542
-11.782
-14.782
-17.543
-20.066
-22.355
-24.415
-26.249
-27.864
-29.268
-30.467
-31.47
-32.288
-32.928
-33.403
-33.721
-33.895
-33.935
-33.853
-33.66
-33.368
-32.988
-32.531
-32.008
-31.431
-30.809
-30.153
-29.472
-28.777
-28.074
-27.374
-26.683
-26.009
-25.358
-24.736
-24.148
-23.599
-23.093
-22.632
-22.221
-21.86
-21.551
-21.295
-21.092
-20.941
-20.843
-20.795
-20.797
-20.845
-20.939
-21.075
-21.251
-21.463
-21.708
-21.984
-22.286
-22.611
-22.955
-23.317
-23.691
-24.076
-24.468
-24.865
-25.264
-25.663
-26.06
-26.453
-26.84
-27.22
-27.592
-27.955
-28.31
-28.655
-28.991
-29.318
-29.637
-29.947
-30.249
-30.544
-30.832
-31.114
-31.39
-31.661
-31.928
-32.191
-32.45
-32.708
-32.963
-33.217
-33.469
-33.72
-33.968
-34.215
-34.458
-34.697
-34.931
-35.158
-35.377
-35.586
-35.782
-35.963
-36.126
-36.269
-36.388
-36.479
-36.541
-36.569
-36.561
-36.516
-36.43
-36.303
-36.133
-35.922
-35.669
-35.375
-35.04
-34.665
-34.251
-33.8
-33.314
-32.794
-32.241
-31.658
-31.049
-30.419
-29.772
-29.112
-28.443
-27.77
-27.099
-26.436
-25.787
-25.153
-24.538
-23.948
-23.387
-22.865
-22.389
-21.957
-21.568
-21.217
-20.899
-20.609
-20.336
-20.057
-19.754
-19.405
-19.0
-18.532
-17.998
-17.386
-16.685
-15.877
-14.959
-13.938
-12.827
-11.64
-10.393
-9.112
-7.842
-6.655
-5.624
-4.825
-4.316
-4.144
-4.35
-4.969
-6.048
-7.638
-9.779
-12.497
-15.807
-19.699
-24.179
-29.286
-34.942
-40.946
-47.006
-52.679
-57.574
-61.43
-63.925
-64.664
-63.475
-60.433
-55.924
-50.84
-46.016
-41.971
-39.303
-38.61
-40.105
-43.604
-48.327
-52.546
-54.438
-52.539
-45.191
-30.821
-8.419
22.467
61.345
106.325
154.877
204.187
250.539
289.691
317.535
330.264
324.539
298.06
249.751
179.429
89.677
-14.105
-127.72
-247.234
-369.586
-494.119
-613.949
-718.005
-796.321
-838.091
-842.555
-818.081
-772.591
-716.125
-653.802
-584.58
-510.129
-432.531
-354.892
-283.139
-220.936
-169.677
-130.109
-101.32
-81.605
-69.555
-63.467
-60.99
-60.079
-58.985
-56.116
-50.93
-43.663
-34.657
-24.543
-14.246
-4.554
3.685
9.612
13.026
14.134
13.292
11.063
7.997
4.557
1.284
-1.281
-2.842
-3.286
-2.629
-1.01
1.456
4.673
8.513
12.829
17.485
22.365
27.364
32.403
37.4
42.26
46.891
51.208
55.138
58.641
61.714
64.373
66.648
68.579
70.209
71.592
72.793
73.872
74.886
75.884
76.91
78.007
79.224
80.603
82.184
83.994
86.043
88.335
90.868
93.637
96.631
99.834
103.224
106.781
110.487
114.324
118.276
122.322
126.441
130.609
134.801
138.995
143.168
147.297
151.357
155.326
159.181
162.901
166.464
169.848
173.031
175.992
178.708
181.16
183.327
185.194
186.742
187.958
188.829
189.344
189.495
189.277
188.683
187.713
186.364
184.64
182.542
180.076
177.249
174.07
170.55
166.7
162.534
158.067
153.317
148.302
143.039
137.55
131.856
125.979
119.94
113.763
107.471
101.089
94.639
88.144
81.629
75.117
68.629
62.188
55.815
49.529
43.349
37.294
31.381
25.625
20.04
14.64
9.436
4.439
-0.341
-4.896
-9.221
-13.31
-17.159
-20.765
-24.128
-27.246
-30.123
-32.759
-35.159
-37.326
-39.267
-40.989
-42.497
-43.802
-44.911
-45.834
-46.58
-47.162
-47.588
-47.87
-48.02
-48.048
-47.965
-47.784
-47.514
-47.166
-46.75
-46.278
-45.757
-45.199
-44.61
-44.0
-43.376
-42.746
-42.115
-41.491
-40.877
-40.28
-39.704
-39.151
-38.625
-38.13
-37.665
-37.234
-36.837
-36.474
-36.146
-35.851
-35.59
-35.36
-35.162
-34.992
-34.849
-34.73
-34.634
-34.558
-34.499
-34.455
-34.423
-34.401
-34.387
-34.378
-34.371
-34.365
-34.358
-34.347
-34.331
-34.309
-34.278
-34.238
-34.187
-34.126
-34.052
-33.967
-33.869
-33.758
-33.635
-33.501
-33.355
-33.198
-33.032
-32.857
-32.674
-32.486
-32.293
-32.096
-31.898
-31.7
-31.503
-31.308
-31.117
-30.931
-30.751
-30.576
-30.409
-30.249
-30.097
-29.953
-29.817
-29.689
-29.568
-29.455
-29.348
-29.246
-29.149
-29.054
-28.959
-28.864
-28.765
-28.661
-28.549
-28.426
-28.29
-28.137
-27.963
-27.766
-27.543
-27.288
-27.0
-26.674
-26.31
-25.903
-25.453
-24.958
-24.418
-23.833
-23.205
-22.532
-21.817
-21.06
-20.264
-19.431
-18.562
-17.66
-16.727
-15.767
-14.786
-13.788
-12.779
-11.764
-10.749
-9.739
-8.74
-7.759
-6.803
-5.877
-4.984
-4.13
-3.324
-2.574
-1.888
-1.266
-0.705
-0.2
0.253
0.661
1.037
1.398
1.763
2.147
2.563
3.017
3.515
4.066
4.685
5.389
6.185
7.069
8.029
9.049
10.113
11.199
12.266
13.253
14.098
14.741
15.131
15.228
14.988
14.374
13.352
11.882
9.928
7.469
4.495
0.994
-3.011
-7.517
-12.53
-17.92
-23.48
-28.921
-33.83
-37.863
-40.797
-42.312
-42.019
-39.878
-36.043
-30.95
-25.553
-20.539
-16.262
-13.361
-12.402
-13.348
-15.915
-19.183
-21.254
-20.733
-16.532
-6.958
9.274
32.726
63.641
100.995
142.521
186.184
229.414
268.333
299.111
318.048
321.636
307.552
274.385
221.149
148.09
58.588
-42.784
-152.27
-264.699
-377.386
-487.518
-586.132
-666.574
-722.23
-747.188
-745.961
-722.982
-682.389
-631.467
-571.499
-504.135
-433.552
-361.515
-291.612
-228.033
-172.72
-126.951
-91.256
-64.702
-45.805
-33.611
-26.854
-23.578
-22.131
-20.903
-18.352
-14.068
-8.292
-1.115
7.043
15.443
23.487
30.354
35.201
37.871
38.563
37.576
35.416
32.571
29.451
26.581
24.483
23.408
23.434
24.516
26.49
29.239
32.668
36.648
41.034
45.7
50.531
55.431
60.33
65.142
69.769
74.121
78.108
81.678
84.818
87.539
89.874
91.859
93.535
94.953
96.172
97.249
98.24
99.194
100.153
101.162
102.267
103.516
104.952
106.606
108.492
110.616
112.976
115.568
118.382
121.404
124.612
127.989
131.516
135.177
138.957
142.839
146.8
150.818
154.869
158.931
162.982
167.0
170.961
174.843
178.624
182.282
185.797
189.148
192.312
195.269
197.996
200.472
202.681
204.602
206.219
207.517
208.483
209.105
209.376
209.287
208.833
208.011
206.818
205.256
203.327
201.034
198.383
195.382
192.04
188.368
184.379
180.087
175.507
170.658
165.556
160.222
154.676
148.939
143.032
136.978
130.8
124.522
118.165
111.755
105.313
98.862
92.426
86.026
79.683
73.418
67.25
61.197
55.277
49.506
43.9
38.472
33.235
28.201
23.38
18.781
14.412
10.278
6.386
2.738
-0.663
-3.816
-6.722
-9.381
-11.796
-13.972
-15.912
-17.622
-19.109
-20.381
-21.445
-22.311
-22.989
-23.487
-23.817
-23.99
-24.016
-23.907
-23.675
-23.33
-22.885
-22.349
-21.736
-21.054
-20.316
-19.531
-18.709
-17.86
-16.994
-16.118
-15.242
-14.372
-13.517
-12.682
-11.874
-11.099
-10.36
-9.664
-9.014
-8.413
-7.865
-7.372
-6.935
-6.556
-6.237
-5.978
-5.779
-5.64
-5.561
-5.541
-5.58
-5.676
-5.828
-6.034
-6.294
-6.604
-6.963
-7.369
-7.82
-8.313
-8.845
-9.415
-10.019
-10.656
-11.321
-12.013
-12.729
-13.466
-14.219
-14.988
-15.767
-16.554
-17.345
-18.136
-18.926
-19.709
-20.483
-21.244
-21.99
-22.716
-23.419
-24.096
-24.744
-25.358
-25.936
-26.473
-26.967
-27.415
-27.814
-28.161
-28.452
-28.686
-28.861
-28.973
-29.022
-29.007
-28.925
-28.776
-28.561
-28.28
-27.935
-27.527
-27.059
-26.535
-25.959
-25.334
-24.666
-23.959
-23.219
-22.451
-21.661
-20.854
-20.035
-19.211
-18.389
-17.576
-16.779
-16.005
-15.26
-14.552
-13.887
-13.275
-12.719
-12.223
-11.787
-11.415
-11.112
-10.885
-10.736
-10.66
-10.655
-10.718
-10.841
-11.018
-11.235
-11.467
-11.692
-11.891
-12.051
-12.168
-12.234
-12.234
-12.154
-11.981
-11.706
-11.338
-10.885
-10.344
-9.724
-9.045
-8.346
-7.697
-7.172
-6.818
-6.682
-6.797
-7.184
-7.896
-8.986
-10.496
-12.468
-14.918
-17.839
-21.276
-25.29
-29.837
-34.772
-39.817
-44.578
-48.741
-52.092
-54.357
-55.193
-54.398
-52.042
-48.516
-44.544
-40.83
-37.772
-35.75
-35.34
-36.841
-40.037
-44.219
-48.001
-49.793
-48.489
-42.91
-31.444
-12.993
12.856
45.79
84.25
126.127
169.387
211.131
247.406
274.386
288.369
286.298
266.484
227.649
169.146
92.161
-0.429
-104.575
-215.105
-326.824
-434.832
-533.493
-617.586
-683.254
-727.873
-750.728
-752.583
-734.46
-698.198
-647.231
-585.533
-517.341
-446.892
-377.124
-310.507
-249.873
-197.398
-154.274
-120.764
-95.948
-78.408
-67.185
-61.01
-58.004
-56.296
-54.044
-50.172
-44.639
-37.713
-29.619
-20.797
-11.895
-3.745
2.613
6.665
8.518
8.474
6.987
4.52
1.47
-1.639
-4.185
-5.775
-6.263
-5.639
-4.045
-1.606
1.607
5.473
9.838
14.567
19.531
24.624
29.775
34.904
39.914
44.714
49.21
53.323
57.015
60.281
63.133
65.603
67.725
69.538
71.095
72.454
73.673
74.808
75.906
77.007
78.156
79.398
80.779
82.341
84.107
86.09
88.294
90.718
93.357
96.203
99.24
102.448
105.809
109.307
112.925
116.648
120.459
124.335
128.255
132.196
136.137
140.055
143.93
147.739
151.46
155.071
158.552
161.884
165.046
168.017
170.775
173.301
175.574
177.577
179.292
180.703
181.797
182.56
182.984
183.059
182.779
182.139
181.137
179.772
178.044
175.957
173.515
170.724
167.593
164.133
160.354
156.269
151.895
147.247
142.342
137.201
131.842
126.286
120.556
114.672
108.659
102.539
96.336
90.073
83.774
77.462
71.161
64.893
58.679
52.543
46.502
40.578
34.787
29.147
23.675
18.384
13.289
8.4
3.731
-0.712
-4.918
-8.882
-12.599
-16.065
-19.278
-22.236
-24.941
-27.395
-29.6
-31.56
-33.282
-34.771
-36.035
-37.083
-37.923
-38.567
-39.024
-39.306
-39.425
-39.392
-39.221
-38.923
-38.512
-37.999
-37.398
-36.72
-35.977
-35.182
-34.344
-33.476
-32.588
-31.688
-30.787
-29.893
-29.014
-28.156
-27.326
-26.53
-25.773
-25.059
-24.391
-23.773
-23.206
-22.693
-22.233
-21.829
-21.478
-21.181
-20.936
-20.742
-20.597
-20.498
-20.443
-20.429
-20.454
-20.514
-20.605
-20.725
-20.871
-21.038
-21.224
-21.427
-21.642
-21.867
-22.1
-22.338
-22.58
-22.823
-23.065
-23.307
-23.545
-23.781
-24.012
-24.239
-24.461
-24.679
-24.892
-25.1
-25.305
-25.507
-25.705
-25.9
-26.094
-26.285
-26.475
-26.663
-26.849
-27.033
-27.215
-27.396
-27.574
-27.75
-27.923
-28.091
-28.254
-28.411
-28.559
-28.698
-28.825
-28.937
-29.034
-29.112
-29.169
-29.202
-29.208
-29.184
-29.129
-29.038
-28.909
-28.74
-28.527
-28.27
-27.967
-27.617
-27.22
-26.775
-26.286
-25.752
-25.177
-24.561
-23.909
-23.222
-22.504
-21.759
-20.989
-20.197
-19.388
-18.566
-17.738
-16.91
-16.085
-15.27
-14.472
-13.697
-12.951
-12.242
-11.569
-10.936
-10.346
-9.805
-9.322
-8.9
-8.537
-8.231
-7.979
-7.778
-7.622
-7.496
-7.377
-7.241
-7.07
-6.853
-6.585
-6.261
-5.867
-5.39
-4.817
-4.14
-3.373
-2.525
-1.597
-0.6
0.439
1.476
2.431
3.221
3.792
4.091
4.078
3.728
2.985
1.791
0.102
-2.127
-4.907
-8.228
-12.133
-16.678
-21.81
-27.369
-33.06
-38.466
-43.256
-47.205
-50.022
-51.349
-50.969
-48.938
-45.641
-41.801
-38.114
-34.964
-32.717
-31.942
-32.948
-35.54
-39.03
-42.056
-43.053
-40.96
-34.656
-22.565
-3.59
22.713
56.087
95.016
137.419
181.321
223.897
261.208
289.379
304.581
303.554
284.444
245.816
186.819
108.449
13.465
-94.114
-208.994
-325.747
-439.257
-543.618
-633.227
-703.839
-752.421
-777.943
-781.012
-762.545
-724.315
-669.815
-603.226
-529.133
-452.252
-375.952
-303.067
-236.82
-179.732
-133.236
-97.722
-72.194
-54.999
-44.945
-40.511
-39.525
-39.852
-39.433
-37.024
-32.544
-26.302
-18.59
-9.954
-1.155
6.875
13.025
16.764
18.203
17.67
15.663
12.701
9.244
5.876
3.259
1.764
1.514
2.495
4.534
7.498
11.293
15.765
20.735
26.045
31.559
37.168
42.799
48.348
53.704
58.758
63.408
67.596
71.303
74.527
77.294
79.639
81.599
83.232
84.6
85.764
86.785
87.715
88.604
89.504
90.467
91.545
92.788
94.228
95.883
97.763
99.869
102.196
104.738
107.481
110.406
113.496
116.735
120.107
123.6
127.196
130.874
134.613
138.393
142.191
145.987
149.763
153.496
157.167
160.754
164.24
167.604
170.828
173.891
176.771
179.448
181.903
184.117
186.073
187.754
189.147
190.238
191.016
191.472
191.6
191.393
190.848
189.962
188.735
187.169
185.267
183.033
180.474
177.598
174.415
170.937
167.175
163.144
158.858
154.335
149.591
144.644
139.514
134.22
128.782
123.221
117.558
111.815
106.011
100.168
94.308
88.449
82.613
76.818
71.082
65.424
59.859
54.404
49.073
43.88
38.837
33.957
29.25
24.725
20.39
16.253
12.319
8.593
5.08
1.781
-1.302
-4.168
-6.819
-9.255
-11.479
-13.495
-15.307
-16.92
-18.34
-19.574
-20.629
-21.512
-22.233
-22.798
-23.218
-23.501
-23.656
-23.694
-23.622
-23.451
-23.189
-22.845
-22.43
-21.95
-21.415
-20.833
-20.211
-19.556
-18.877
-18.179
-17.469
-16.753
-16.036
-15.323
-14.619
-13.928
-13.254
-12.6
-11.968
-11.362
-10.783
-10.233
-9.713
-9.225
-8.768
-8.344
-7.953
-7.595
-7.269
-6.975
-6.712
-6.481
-6.28
-6.11
-5.968
-5.854
-5.768
-5.708
-5.675
-5.666
-5.682
-5.722
-5.785
-5.871
-5.979
-6.11
-6.262
-6.436
-6.631
-6.848
-7.087
-7.347
-7.63
-7.935
-8.262
-8.613
-8.986
-9.383
-9.804
-10.248
-10.715
-11.205
-11.718
-12.253
-12.808
-13.384
-13.978
-14.59
-15.217
-15.859
-16.513
-17.178
-17.85
-18.528
-19.21
-19.891
-20.57
-21.242
-21.904
-22.553
-23.184
-23.795
-24.381
-24.937
-25.459
-25.944
-26.387
-26.783
-27.128
-27.42
-27.653
-27.826
-27.936
-27.98
-27.958
-27.869
-27.714
-27.493
-27.208
-26.859
-26.448
-25.979
-25.454
-24.876
-24.247
-23.571
-22.854
-22.098
-21.312
-20.501
-19.67
-18.825
-17.974
-17.124
-16.281
-15.453
-14.645
-13.859
-13.103
-12.382
-11.707
-11.081
-10.506
-9.98
-9.499
-9.061
-8.66
-8.286
-7.921
-7.546
-7.143
-6.7
-6.213
-5.674
-5.076
-4.404
-3.64
-2.781
-1.831
-0.801
0.3
1.462
2.668
3.879
5.033
6.065
6.907
7.511
7.839
7.846
7.5
6.751
5.54
3.83
1.588
-1.207
-4.551
-8.472
-13.023
-18.133
-23.615
-29.189
-34.448
-39.058
-42.802
-45.378
-46.407
-45.684
-43.288
-39.625
-35.453
-31.481
-28.083
-25.649
-24.776
-25.798
-28.516
-32.181
-35.355
-36.422
-34.286
-27.81
-15.367
4.261
31.549
66.242
106.839
151.114
196.954
241.496
280.58
310.061
326.171
325.32
305.056
264.106
201.549
119.019
21.522
-86.958
-202.715
-322.558
-446.054
-566.833
-673.57
-756.031
-803.23
-813.626
-795.329
-756.027
-705.04
-647.351
-581.829
-510.04
-434.33
-357.793
-286.201
-223.303
-170.746
-129.595
-99.26
-78.216
-65.03
-58.064
-55.147
-54.299
-53.738
-51.735
-47.533
-41.231
-33.132
-23.79
-14.044
-4.638
3.591
9.716
13.447
14.95
14.544
12.77
10.172
7.204
4.428
2.43
1.51
1.773
3.201
5.631
8.944
13.046
17.785
22.995
28.526
34.248
40.06
45.886
51.627
57.175
62.425
67.274
71.667
75.582
79.017
81.997
84.552
86.721
88.557
90.123
91.48
92.686
93.794
94.849
95.902
97.003
98.203
99.551
101.081
102.808
104.746
106.894
109.25
111.808
114.556
117.474
120.545
123.755
127.089
130.534
134.074
137.69
141.362
145.068
148.789
152.504
156.194
159.839
163.418
166.913
170.303
173.571
176.698
179.664
182.448
185.03
187.391
189.514
191.381
192.976
194.284
195.294
195.993
196.374
196.428
196.15
195.537
194.584
193.293
191.664
189.701
187.407
184.788
181.853
178.611
175.073
171.251
167.158
162.809
158.221
153.41
148.395
143.194
137.826
132.312
126.672
120.927
115.097
109.204
103.269
97.312
91.355
85.416
79.516
73.672
67.904
62.226
56.657
51.21
45.9
40.741
35.743
30.918
26.276
21.825
17.573
13.526
9.689
6.067
2.661
-0.526
-3.494
-6.243
-8.775
-11.092
-13.199
-15.098
-16.796
-18.299
-19.613
-20.746
-21.705
-22.499
-23.137
-23.628
-23.982
-24.207
-24.314
-24.313
-24.212
-24.021
-23.751
-23.41
-23.007
-22.551
-22.05
-21.512
-20.945
-20.356
-19.752
-19.139
-18.523
-17.91
-17.303
-16.708
-16.129
-15.569
-15.031
-14.518
-14.031
-13.574
-13.146
-12.75
-12.385
-12.052
-11.751
-11.482
-11.245
-11.038
-10.862
-10.715
-10.597
-10.506
-10.441
-10.401
-10.386
-10.394
-10.424
-10.475
-10.548
-10.639
-10.75
-10.879
-11.025
-11.189
-11.37
-11.566
-11.779
-12.008
-12.253
-12.514
-12.791
-13.083
-13.392
-13.717
-14.059
-14.417
-14.791
-15.182
-15.591
-16.016
-16.458
-16.917
-17.392
-17.883
-18.389
-18.908
-19.44
-19.984
-20.536
-21.096
-21.662
-22.232
-22.803
-23.373
-23.941
-24.502
-25.056
-25.598
-26.125
-26.636
-27.126
-27.592
-28.031
-28.44
-28.816
-29.155
-29.454
-29.71
-29.919
-30.079
-30.186
-30.238
-30.231
-30.165
-30.038
-29.848
-29.596
-29.282
-28.908
-28.475
-27.987
-27.445
-26.853
-26.215
-25.534
-24.814
-24.061
-23.277
-22.468
-21.639
-20.795
-19.944
-19.092
-18.245
-17.409
-16.592
-15.798
-15.037
-14.315
-13.633
-12.997
-12.41
-11.879
-11.411
-11.011
-10.675
-10.402
-10.189
-10.028
-9.914
-9.834
-9.764
-9.685
-9.576
-9.425
-9.224
-8.965
-8.636
-8.226
-7.719
-7.111
-6.411
-5.624
-4.756
-3.818
-2.832
-1.839
-0.905
-0.096
0.522
0.893
0.975
0.723
0.109
-0.907
-2.372
-4.316
-6.764
-9.745
-13.265
-17.351
-22.059
-27.299
-32.859
-38.444
-43.627
-48.055
-51.515
-53.68
-54.142
-52.814
-49.883
-45.859
-41.653
-37.903
-34.848
-32.938
-32.799
-34.537
-37.792
-41.538
-43.99
-43.785
-40.152
-31.934
-17.591
3.824
32.611
68.036
108.103
150.875
194.545
236.26
272.015
297.813
310.02
305.513
282.258
238.835
174.215
90.145
-8.29
-117.078
-232.578
-352.019
-475.457
-596.298
-702.874
-784.614
-830.047
-837.903
-816.832
-774.873
-721.844
-662.756
-596.158
-523.446
-446.751
-369.117
-296.464
-232.591
-179.112
-137.072
-105.84
-83.891
-69.861
-62.144
-58.559
-57.129
-56.078
-53.685
-49.206
-42.747
-34.588
-25.275
-15.652
-6.455
1.479
7.231
10.528
11.55
10.627
8.317
5.177
1.674
-1.625
-4.122
-5.513
-5.688
-4.665
-2.608
0.363
4.153
8.612
13.57
18.879
24.405
30.041
35.706
41.299
46.707
51.821
56.533
60.786
64.557
67.844
70.674
73.077
75.095
76.78
78.198
79.41
80.476
81.451
82.38
83.316
84.31
85.416
86.684
88.147
89.824
91.724
93.848
96.192
98.751
101.51
104.448
107.548
110.794
114.169
117.662
121.256
124.928
128.66
132.428
136.213
139.994
143.75
147.461
151.107
154.667
158.122
161.455
164.646
167.674
170.519
173.16
175.579
177.758
179.678
181.325
182.682
183.738
184.482
184.905
184.999
184.76
184.183
183.266
182.008
180.412
178.48
176.217
173.629
170.725
167.513
164.006
160.215
156.155
151.841
147.289
142.516
137.541
132.382
127.06
121.595
116.008
110.32
104.551
98.724
92.859
86.978
81.102
75.249
69.441
63.695
58.03
52.462
47.008
41.682
36.499
31.471
26.612
21.93
17.436
13.14
9.047
5.163
1.495
-1.955
-5.184
-8.191
-10.976
-13.539
-15.883
-18.01
-19.926
-21.634
-23.14
-24.452
-25.577
-26.522
-27.297
-27.91
-28.371
-28.689
-28.876
-28.94
-28.891
-28.742
-28.5
-28.177
-27.783
-27.326
-26.818
-26.266
-25.68
-25.068
-24.439
-23.8
-23.157
-22.519
-21.89
-21.277
-20.685
-20.117
-19.579
-19.073
-18.603
-18.171
-17.778
-17.426
-17.115
-16.847
-16.62
-16.434
-16.29
-16.185
-16.118
-16.088
-16.092
-16.13
-16.199
-16.296
-16.419
-16.567
-16.736
-16.925
-17.131
-17.353
-17.587
-17.831
-18.084
-18.344
-18.608
-18.875
-19.144
-19.413
-19.68
-19.946
-20.209
-20.468
-20.724
-20.976
-21.225
-21.471
-21.714
-21.955
-22.195
-22.435
-22.677
-22.921
-23.169
-23.422
-23.681
-23.948
-24.223
-24.508
-24.803
-25.109
-25.426
-25.755
-26.094
-26.446
-26.809
-27.183
-27.569
-27.964
-28.369
-28.781
-29.201
-29.626
-30.054
-30.483
-30.91
-31.333
-31.749
-32.154
-32.546
-32.92
-33.273
-33.6
-33.898
-34.161
-34.385
-34.565
-34.699
-34.783
-34.812
-34.786
-34.701
-34.556
-34.352
-34.089
-33.766
-33.384
-32.943
-32.445
-31.893
-31.287
-30.629
-29.923
-29.171
-28.378
-27.551
-26.695
-25.814
-24.915
-24.004
-23.086
-22.171
-21.263
-20.369
-19.493
-18.641
-17.824
-17.051
-16.328
-15.657
-15.035
-14.461
-13.93
-13.438
-12.973
-12.515
-12.05
-11.562
-11.039
-10.477
-9.867
-9.199
-8.461
-7.639
-6.727
-5.732
-4.664
-3.533
-2.355
-1.149
0.046
1.167
2.157
2.962
3.523
3.801
3.748
3.315
2.476
1.193
-0.566
-2.817
-5.578
-8.872
-12.687
-17.033
-21.931
-27.263
-32.828
-38.348
-43.42
-47.71
-50.99
-52.922
-53.095
-51.412
-48.051
-43.504
-38.639
-34.081
-30.101
-27.194
-26.046
-26.833
-29.242
-32.3
-34.29
-33.875
-30.272
-22.285
-8.325
12.611
40.875
75.778
115.376
157.752
201.056
242.382
277.7
302.989
314.62
309.533
285.749
241.925
177.2
93.406
-4.416
-112.159
-226.084
-343.304
-463.524
-580.309
-682.638
-760.575
-803.477
-810.306
-789.167
-747.644
-695.052
-636.216
-570.02
-498.007
-422.334
-345.989
-274.621
-211.871
-159.322
-118.006
-87.347
-65.891
-52.32
-45.07
-41.998
-41.143
-40.729
-39.029
-35.27
-29.521
-22.022
-13.287
-4.15
4.653
12.275
17.785
20.895
21.768
20.718
18.281
15.01
11.365
7.91
5.24
3.656
3.263
4.042
5.83
8.509
11.987
16.118
20.74
25.709
30.897
36.203
41.553
46.847
51.978
56.838
61.326
65.384
68.993
72.152
74.889
77.235
79.23
80.927
82.39
83.679
84.852
85.961
87.051
88.172
89.375
90.709
92.224
93.952
95.908
98.102
100.532
103.193
106.077
109.17
112.448
115.893
119.487
123.214
127.059
131.004
135.026
139.104
143.214
147.335
151.444
155.52
159.542
163.488
167.336
171.066
174.659
178.096
181.353
184.411
187.248
189.845
192.183
194.245
196.013
197.474
198.614
199.423
199.891
200.012
199.781
199.192
198.245
196.94
195.279
193.264
190.901
188.197
185.16
181.801
178.131
174.163
169.912
165.393
160.624
155.622
150.407
144.997
139.415
133.68
127.815
121.841
115.78
109.656
103.489
97.303
91.118
84.956
78.837
72.781
66.807
60.933
55.176
49.552
44.076
38.762
33.623
28.671
23.916
19.368
15.034
10.922
7.037
3.384
-0.035
-3.217
-6.163
-8.872
-11.346
-13.589
-15.604
-17.396
-18.97
-20.335
-21.497
-22.464
-23.247
-23.854
-24.295
-24.581
-24.723
-24.731
-24.618
-24.393
-24.068
-23.654
-23.162
-22.602
-21.986
-21.323
-20.622
-19.894
-19.147
-18.39
-17.63
-16.875
-16.132
-15.406
-14.703
-14.029
-13.388
-12.783
-12.218
-11.695
-11.217
-10.785
-10.4
-10.062
-9.773
-9.531
-9.336
-9.187
-9.082
-9.021
-9.001
-9.02
-9.078
-9.171
-9.298
-9.457
-9.645
-9.862
-10.105
-10.372
-10.661
-10.972
-11.302
-11.65
-12.015
-12.396
-12.793
-13.203
-13.628
-14.065
-14.514
-14.974
-15.446
-15.927
-16.418
-16.917
-17.424
-17.937
-18.456
-18.98
-19.507
-20.037
-20.567
-21.097
-21.624
-22.147
-22.663
-23.17
-23.664
-24.143
-24.605
-25.045
-25.462
-25.851
-26.208
-26.53
-26.813
-27.053
-27.247
-27.391
-27.481
-27.515
-27.49
-27.404
-27.257
-27.047
-26.774
-26.439
-26.042
-25.587
-25.074
-24.506
-23.885
-23.216
-22.502
-21.746
-20.952
-20.126
-19.272
-18.398
-17.51
-16.613
-15.716
-14.825
-13.947
-13.092
-12.266
-11.472
-10.716
-10.003
-9.34
-8.737
-8.2
-7.727
-7.318
-6.972
-6.685
-6.452
-6.262
-6.094
-5.926
-5.744
-5.536
-5.301
-5.035
-4.725
-4.359
-3.922
-3.407
-2.823
-2.18
-1.478
-0.728
0.048
0.812
1.489
2.003
2.303
2.346
2.104
1.561
0.671
-0.622
-2.358
-4.581
-7.303
-10.512
-14.251
-18.583
-23.471
-28.772
-34.205
-39.366
-43.942
-47.725
-50.461
-51.816
-51.573
-49.775
-46.787
-43.319
-40.057
-37.374
-35.582
-35.184
-36.484
-39.32
-43.055
-46.369
-47.704
-46.015
-40.284
-29.053
-11.228
13.72
45.692
83.318
124.585
167.668
210.051
248.127
278.204
296.486
299.592
285.579
253.048
200.988
129.957
42.204
-58.705
-167.744
-279.547
-389.18
-491.117
-579.964
-651.42
-702.226
-731.04
-738.408
-725.383
-693.677
-646.484
-587.525
-520.958
-451.351
-381.986
-315.274
-253.913
-199.968
-154.588
-118.512
-91.239
-71.27
-57.644
-49.323
-44.588
-41.945
-39.87
-36.817
-32.311
-26.56
-19.631
-11.854
-3.858
3.846
10.487
15.214
17.835
18.526
17.563
15.433
12.604
9.465
6.536
4.359
3.203
3.168
4.222
6.209
9.016
12.556
16.697
21.293
26.21
31.331
36.56
41.823
47.034
52.092
56.901
61.37
65.445
69.107
72.365
75.248
77.787
80.024
82.008
83.794
85.44
87.0
88.521
90.042
91.609
93.265
95.056
97.025
99.2
101.594
104.212
107.051
110.103
113.359
116.804
120.413
124.169
128.051
132.043
136.13
140.291
144.506
148.75
153.002
157.236
161.433
165.57
169.624
173.574
177.398
181.076
184.589
187.916
191.037
193.932
196.581
198.965
201.068
202.872
204.363
205.528
206.356
206.837
206.966
206.735
206.143
205.187
203.867
202.185
200.146
197.756
195.02
191.948
188.552
184.842
180.834
176.542
171.983
167.175
162.136
156.888
151.45
145.843
140.09
134.214
128.236
122.179
116.066
109.92
103.764
97.618
91.505
85.446
79.46
73.566
67.783
62.128
56.616
51.263
46.082
41.086
36.286
31.692
27.313
23.156
19.227
15.531
12.071
8.85
5.868
3.126
0.62
-1.651
-3.692
-5.506
-7.101
-8.481
-9.656
-10.633
-11.42
-12.027
-12.464
-12.741
-12.868
-12.856
-12.716
-12.458
-12.094
-11.633
-11.088
-10.468
-9.783
-9.044
-8.259
-7.438
-6.59
-5.723
-4.845
-3.963
-3.084
-2.213
-1.358
-0.522
0.289
1.072
1.823
2.539
3.218
3.856
4.453
5.006
5.516
5.98
6.398
6.77
7.096
7.375
7.608
7.795
7.937
8.034
8.087
8.095
8.061
7.984
7.866
7.708
7.51
7.273
7.0
6.69
6.346
5.969
5.562
5.125
4.66
4.171
3.658
3.124
2.572
2.003
1.421
0.829
0.23
-0.374
-0.977
-1.577
-2.169
-2.749
-3.312
-3.855
-4.371
-4.858
-5.308
-5.718
-6.083
-6.397
-6.656
-6.854
-6.989
-7.057
-7.053
-6.977
-6.825
-6.597
-6.294
-5.916
-5.463
-4.937
-4.341
-3.675
-2.944
-2.151
-1.298
-0.389
0.569
1.572
2.612
3.682
4.775
5.884
7.001
8.116
9.22
10.306
11.366
12.394
13.384
14.327
15.209
16.026
16.774
17.455
18.069
18.617
19.103
19.538
19.941
20.33
20.721
21.125
21.547
21.994
22.474
23.002
23.592
24.246
24.957
25.714
26.509
27.331
28.165
28.965
29.669
30.212
30.53
30.577
30.318
29.707
28.709
27.284
25.38
22.978
20.062
16.614
12.638
8.106
2.971
-2.675
-8.626
-14.614
-20.248
-25.211
-29.312
-32.215
-33.505
-33.059
-30.995
-27.757
-24.157
-20.767
-17.825
-15.776
-15.235
-16.388
-19.005
-22.196
-24.357
-24.216
-20.979
-13.536
-0.417
19.372
46.255
79.681
117.866
158.99
201.24
241.837
277.02
302.859
315.523
311.962
290.415
249.507
188.621
108.901
13.222
-94.057
-207.522
-321.648
-431.08
-530.189
-613.849
-678.175
-720.666
-740.808
-739.482
-718.029
-678.74
-625.039
-560.883
-490.592
-418.343
-347.125
-279.527
-218.338
-165.598
-122.508
-89.323
-65.058
-48.297
-37.97
-32.653
-30.377
-29.246
-27.457
-23.971
-18.783
-12.17
-4.402
4.004
12.338
19.741
25.226
28.355
29.279
28.324
25.96
22.677
18.916
15.233
12.252
10.325
9.571
9.98
11.398
13.71
16.836
20.642
24.96
29.647
34.572
39.634
44.764
49.864
54.824
59.537
63.896
67.84
71.347
74.412
77.059
79.319
81.225
82.829
84.192
85.372
86.425
87.403
88.347
89.308
90.335
91.478
92.788
94.296
96.018
97.964
100.134
102.521
105.119
107.91
110.874
113.99
117.241
120.61
124.082
127.637
131.255
134.912
138.585
142.251
145.889
149.478
152.996
156.423
159.737
162.92
165.953
168.817
171.492
173.958
176.196
178.188
179.916
181.364
182.517
183.362
183.889
184.087
183.95
183.473
182.652
181.485
179.972
178.114
175.916
173.383
170.521
167.34
163.849
160.059
155.985
151.64
147.04
142.202
137.143
131.882
126.439
120.832
115.084
109.213
103.243
97.193
91.085
84.941
78.781
72.627
66.498
60.413
54.392
48.452
42.611
36.883
31.284
25.828
20.527
15.393
10.435
5.664
1.087
-3.288
-7.458
-11.416
-15.16
-18.688
-21.999
-25.093
-27.971
-30.635
-33.089
-35.337
-37.382
-39.232
-40.892
-42.369
-43.672
-44.808
-45.786
-46.615
-47.305
-47.866
-48.306
-48.636
-48.866
-49.004
-49.062
-49.047
-48.97
-48.84
-48.664
-48.451
-48.209
-47.946
-47.667
-47.381
-47.093
-46.808
-46.532
-46.271
-46.027
-45.806
-45.61
-45.443
-45.307
-45.205
-45.138
-45.108
-45.116
-45.162
-45.249
-45.375
-45.541
-45.747
-45.993
-46.278
-46.602
-46.965
-47.365
-47.803
-48.277
-48.787
-49.333
-49.914
-50.529
-51.178
-51.86
-52.574
-53.32
-54.096
-54.902
-55.736
-56.597
-57.483
-58.394
-59.327
-60.282
-61.257
-62.249
-63.259
-64.282
-65.317
-66.363
-67.415
-68.472
-69.531
-70.588
-71.642
-72.688
-73.722
-74.743
-75.745
-76.725
-77.678
-78.601
-79.489
-80.339
-81.146
-81.907
-82.62
-83.281
-83.889
-84.443
-84.942
-85.387
-85.777
-86.113
-86.396
-86.626
-86.806
-86.938
-87.021
-87.06
-87.058
-87.019
-86.949
-86.852
-86.734
-86.599
-86.453
-86.303
-86.155
-86.015
-85.887
-85.777
-85.689
-85.632
-85.616
-85.646
-85.723
-85.846
-86.011
-86.215
-86.451
-86.708
-86.971
-87.221
-87.446
-87.633
-87.775
-87.866
-87.896
-87.852
-87.72
-87.493
-87.177
-86.779
-86.312
-85.791
-85.237
-84.686
-84.197
-83.825
-83.626
-83.659
-83.966
-84.597
-85.597
-86.997
-88.835
-91.149
-93.962
-97.296
-101.173
-105.577
-110.514
-116.011
-121.959
-128.168
-134.373
-140.157
-145.166
-149.17
-151.829
-152.735
-151.824
-149.234
-145.387
-141.215
-137.386
-134.231
-132.379
-132.426
-134.382
-137.989
-142.303
-145.415
-145.935
-142.85
-134.511
-119.533
-97.179
-67.012
-29.955
11.674
55.892
100.346
141.325
174.979
197.438
204.797
194.447
165.035
115.391
45.332
-42.105
-142.778
-253.203
-367.956
-484.318
-599.862
-705.438
-794.072
-858.749
-892.523
-899.372
-883.801
-849.699
-803.867
-747.252
-681.112
-609.477
-534.841
-461.372
-393.362
-333.139
-282.445
-242.141
-211.859
-190.455
-176.593
-168.788
-165.095
-163.676
-162.824
-160.846
-156.978
-151.277
-143.957
-135.503
-126.686
-118.171
-110.77
-105.392
-102.32
-101.406
-102.353
-104.639
-107.733
-111.198
-114.482
-117.005
-118.47
-118.768
-117.917
-116.074
-113.356
-109.853
-105.706
-101.076
-96.105
-90.917
-85.611
-80.26
-74.961
-69.818
-64.935
-60.413
-56.307
-52.638
-49.403
-46.575
-44.122
-42.005
-40.17
-38.557
-37.103
-35.754
-34.456
-33.168
-31.839
-30.42
-28.863
-27.117
-25.152
-22.951
-20.507
-17.819
-14.894
-11.739
-8.37
-4.808
-1.073
2.817
6.847
11.0
15.259
19.602
24.006
28.448
32.905
37.357
41.781
46.155
50.458
54.669
58.767
62.734
66.551
70.197
73.651
76.894
79.906
82.672
85.174
87.398
89.331
90.961
92.281
93.283
93.963
94.317
94.345
94.047
93.425
92.486
91.234
89.677
87.826
85.692
83.288
80.628
77.728
74.606
71.28
67.768
64.092
60.273
56.332
52.29
48.171
43.996
39.79
35.573
31.368
27.198
23.083
19.044
15.1
11.272
7.575
4.027
0.643
-2.563
-5.578
-8.39
-10.99
-13.37
-15.52
-17.436
-19.112
-20.546
-21.736
-22.68
-23.381
-23.839
-24.059
-24.044
-23.801
-23.335
-22.655
-21.768
-20.684
-19.413
-17.965
-16.351
-14.584
-12.675
-10.636
-8.48
-6.219
-3.866
-1.433
1.068
3.625
6.226
8.86
11.516
14.183
16.853
19.514
22.159
24.779
27.367
29.916
32.419
34.871
37.267
39.602
41.874
44.078
46.213
48.276
50.266
52.181
54.023
55.789
57.482
59.102
60.65
62.127
63.537
64.88
66.159
67.376
68.534
69.636
70.684
71.681
72.629
73.531
74.39
75.209
75.989
76.734
77.445
78.125
78.775
79.397
79.994
80.567
81.117
81.646
82.156
82.649
83.127
83.591
84.044
84.486
84.92
85.347
85.77
86.189
86.606
87.023
87.443
87.866
88.295
88.731
89.178
89.638
90.112
90.603
91.112
91.643
92.198
92.78
93.39
94.032
94.708
95.421
96.173
96.965
97.799
98.677
99.598
100.563
101.57
102.618
103.705
104.828
105.986
107.175
108.393
109.636
110.9
112.182
113.48
114.786
116.098
117.409
118.712
120.004
121.279
122.53
123.753
124.939
126.084
127.184
128.237
129.238
130.18
131.057
131.862
132.6
133.27
133.878
134.428
134.927
135.386
135.826
136.267
136.728
137.225
137.762
138.348
138.997
139.72
140.536
141.45
142.455
143.543
144.708
145.937
147.209
148.484
149.696
150.777
151.657
152.279
152.594
152.557
152.127
151.258
149.9
148.014
145.581
142.574
138.989
134.809
129.981
124.589
118.838
113.009
107.525
102.759
98.944
96.435
95.667
96.735
99.522
103.609
108.064
112.211
115.714
117.946
118.319
116.806
113.649
109.78
107.078
106.959
110.499
119.301
134.746
157.567
188.136
225.64
267.946
313.067
358.602
400.937
436.267
460.867
470.942
463.557
436.767
388.873
320.474
235.073
136.565
28.684
-87.239
-211.506
-340.476
-465.015
-570.72
-643.089
-675.25
-670.069
-638.492
-592.393
-539.191
-481.156
-416.453
-344.882
-269.296
-193.914
-124.297
-64.131
-14.608
23.86
52.03
71.405
83.332
89.427
91.914
92.735
93.546
95.85
100.197
106.407
114.178
122.931
131.784
139.99
146.753
151.273
153.383
153.313
151.417
148.252
144.375
140.253
136.427
133.438
131.546
130.833
131.269
132.696
134.998
138.079
141.8
146.003
150.551
155.318
160.2
165.117
169.97
174.652
179.062
183.102
186.72
189.896
192.636
194.969
196.93
198.56
199.912
201.05
202.036
202.928
203.779
204.634
205.543
206.556
207.722
209.087
210.681
212.519
214.609
216.947
219.527
222.34
225.37
228.594
231.991
235.542
239.229
243.036
246.942
250.925
254.961
259.023
263.089
267.136
271.139
275.075
278.92
282.651
286.247
289.685
292.944
296.001
298.833
301.418
303.735
305.764
307.488
308.889
309.951
310.662
311.01
310.988
310.587
309.803
308.632
307.074
305.129
302.801
300.093
297.013
293.568
289.769
285.627
281.156
276.37
271.287
265.923
260.297
254.431
248.343
242.057
235.595
228.978
222.232
215.379
208.443
201.447
194.416
187.371
180.336
173.333
166.382
159.504
152.719
146.043
139.494
133.088
126.841
120.764
114.871
109.172
103.678
98.396
93.335
88.499
83.893
79.52
75.383
71.482
67.816
64.384
61.184
58.211
55.461
52.927
50.604
48.483
46.558
44.818
43.255
41.858
40.618
39.525
38.566
37.733
37.013
36.397
35.873
35.432
35.062
34.754
34.498
34.284
34.105
33.95
33.812
33.684
33.558
33.427
33.285
33.126
32.945
32.738
32.5
32.227
31.915
31.563
31.168
30.726
30.238
29.702
29.116
28.481
27.796
27.061
26.276
25.441
24.558
23.627
22.648
21.623
20.553
19.438
18.28
17.079
15.836
14.553
13.229
11.867
10.465
9.026
7.55
6.038
4.489
2.906
1.287
-0.365
-2.051
-3.769
-5.519
-7.299
-9.109
-10.946
-12.811
-14.7
-16.612
-18.545
-20.497
-22.466
-24.45
-26.446
-28.453
-30.466
-32.484
-34.502
-36.518
-38.529
-40.529
-42.517
-44.486
-46.434
-48.356
-50.248
-52.105
-53.923
-55.698
-57.426
-59.101
-60.721
-62.28
-63.777
-65.207
-66.57
-67.863
-69.085
-70.236
-71.318
-72.331
-73.276
-74.156
-74.973
-75.729
-76.427
-77.071
-77.664
-78.208
-78.71
-79.175
-79.608
-80.017
-80.405
-80.78
-81.148
-81.516
-81.891
-82.279
-82.684
-83.11
-83.563
-84.047
-84.572
-85.143
-85.758
-86.415
-87.113
-87.846
-88.61
-89.395
-90.18
-90.948
-91.681
-92.366
-92.998
-93.571
-94.072
-94.49
-94.812
-95.03
-95.153
-95.187
-95.137
-95.016
-94.84
-94.647
-94.499
-94.461
-94.598
-94.967
-95.617
-96.588
-97.918
-99.651
-101.835
-104.511
-107.706
-111.446
-115.736
-120.599
-126.093
-132.14
-138.537
-144.999
-151.087
-156.416
-160.753
-163.742
-164.954
-164.317
-161.975
-158.37
-154.496
-151.067
-148.447
-147.308
-148.249
-151.229
-155.94
-161.369
-165.49
-166.821
-164.19
-155.759
-140.081
-116.434
-84.482
-45.289
-1.236
45.588
92.515
135.433
170.285
193.071
199.846
188.078
156.069
102.225
27.667
-63.365
-166.466
-277.239
-394.147
-518.129
-645.226
-765.849
-865.518
-929.502
-952.033
-937.514
-897.575
-844.5
-785.817
-723.621
-656.304
-583.76
-508.293
-433.859
-365.925
-308.162
-261.789
-226.789
-201.769
-184.918
-175.095
-170.713
-169.454
-169.13
-167.691
-163.944
-157.874
-149.856
-140.24
-129.635
-118.914
-109.085
-101.31
-96.166
-93.521
-93.028
-94.185
-96.468
-99.41
-102.423
-104.827
-106.198
-106.388
-105.391
-103.357
-100.417
-96.643
-92.165
-87.145
-81.725
-76.043
-70.206
-64.291
-58.384
-52.591
-47.014
-41.756
-36.903
-32.496
-28.547
-25.045
-21.962
-19.265
-16.914
-14.856
-13.029
-11.372
-9.829
-8.349
-6.89
-5.403
-3.84
-2.154
-0.301
1.744
3.994
6.453
9.121
11.993
15.059
18.304
21.708
25.251
28.917
32.69
36.553
40.488
44.474
48.489
52.51
56.515
60.484
64.395
68.226
71.956
75.564
79.031
82.335
85.459
88.381
91.08
93.537
95.732
97.65
99.273
100.586
101.576
102.232
102.545
102.508
102.115
101.364
100.252
98.781
96.952
94.771
92.242
89.375
86.178
82.664
78.845
74.736
70.352
65.712
60.833
55.736
50.441
44.97
39.344
33.588
27.723
21.774
15.764
9.717
3.656
-2.396
-8.415
-14.381
-20.27
-26.064
-31.741
-37.285
-42.677
-47.902
-52.943
-57.789
-62.427
-66.846
-71.036
-74.989
-78.7
-82.162
-85.371
-88.326
-91.026
-93.47
-95.66
-97.6
-99.292
-100.743
-101.958
-102.946
-103.713
-104.269
-104.624
-104.788
-104.771
-104.586
-104.244
-103.757
-103.138
-102.398
-101.55
-100.606
-99.579
-98.48
-97.32
-96.111
-94.864
-93.587
-92.292
-90.987
-89.681
-88.381
-87.094
-85.827
-84.585
-83.374
-82.197
-81.059
-79.962
-78.908
-77.899
-76.937
-76.021
-75.152
-74.328
-73.55
-72.816
-72.123
-71.471
-70.856
-70.276
-69.728
-69.21
-68.719
-68.251
-67.804
-67.375
-66.96
-66.558
-66.165
-65.779
-65.398
-65.02
-64.644
-64.267
-63.889
-63.509
-63.126
-62.741
-62.352
-61.962
-61.57
-61.176
-60.784
-60.392
-60.004
-59.62
-59.242
-58.873
-58.513
-58.164
-57.828
-57.506
-57.2
-56.91
-56.637
-56.382
-56.146
-55.93
-55.732
-55.554
-55.395
-55.254
-55.132
-55.026
-54.935
-54.857
-54.791
-54.733
-54.681
-54.633
-54.584
-54.532
-54.472
-54.401
-54.313
-54.206
-54.075
-53.915
-53.721
-53.491
-53.221
-52.906
-52.546
-52.137
-51.679
-51.171
-50.614
-50.007
-49.35
-48.647
-47.897
-47.102
-46.265
-45.388
-44.473
-43.523
-42.544
-41.539
-40.514
-39.475
-38.426
-37.373
-36.323
-35.282
-34.259
-33.255
-32.275
-31.325
-30.41
-29.54
-28.719
-27.947
-27.222
-26.543
-25.906
-25.307
-24.735
-24.172
-23.6
-23.002
-22.365
-21.685
-20.955
-20.165
-19.303
-18.355
-17.319
-16.204
-15.019
-13.774
-12.479
-11.149
-9.826
-8.571
-7.447
-6.519
-5.834
-5.431
-5.358
-5.648
-6.346
-7.502
-9.14
-11.281
-13.949
-17.145
-20.902
-25.277
-30.185
-35.428
-40.733
-45.704
-50.011
-53.452
-55.683
-56.281
-55.133
-52.386
-48.515
-44.382
-40.607
-37.454
-35.406
-35.114
-36.739
-39.973
-43.829
-46.572
-46.829
-43.746
-36.107
-22.317
-1.361
27.105
62.386
102.53
145.589
189.679
231.879
268.16
294.52
307.363
303.659
281.487
239.559
177.038
95.809
0.893
-103.668
-214.158
-327.786
-444.371
-557.591
-656.668
-731.906
-772.88
-778.763
-757.701
-717.246
-666.635
-610.504
-547.577
-479.201
-407.276
-334.559
-266.452
-206.375
-155.774
-115.618
-85.341
-63.568
-49.106
-40.532
-35.871
-33.336
-31.293
-28.123
-23.118
-16.351
-8.045
1.32
10.98
20.268
28.398
34.492
38.279
39.914
39.691
38.125
35.732
32.944
30.302
28.381
27.477
27.702
29.045
31.357
34.527
38.471
43.05
48.106
53.498
59.102
64.819
70.579
76.286
81.834
87.119
92.039
96.538
100.593
104.203
107.393
110.192
112.637
114.78
116.684
118.406
120.004
121.53
123.025
124.54
126.124
127.827
129.698
131.769
134.057
136.571
139.312
142.274
145.451
148.827
152.381
156.094
159.949
163.929
168.019
172.2
176.45
180.747
185.067
189.386
193.683
197.934
202.117
206.209
210.188
214.032
217.721
221.233
224.547
227.639
230.488
233.073
235.374
237.373
239.053
240.398
241.394
242.031
242.299
242.19
241.7
240.823
239.56
237.909
235.874
233.458
230.667
227.509
223.994
220.133
215.939
211.427
206.613
201.516
196.153
190.545
184.713
178.68
172.468
166.1
159.602
152.997
146.309
139.564
132.786
125.999
119.227
112.492
105.818
99.226
92.736
86.368
80.141
74.07
68.174
62.466
56.959
51.667
46.599
41.766
37.175
32.833
28.744
24.913
21.342
18.031
14.981
12.188
9.651
7.365
5.324
3.522
1.952
0.604
-0.529
-1.46
-2.197
-2.752
-3.137
-3.364
-3.444
-3.391
-3.216
-2.932
-2.551
-2.085
-1.546
-0.945
-0.294
0.397
1.118
1.858
2.61
3.363
4.111
4.847
5.563
6.253
6.913
7.538
8.124
8.668
9.167
9.619
10.022
10.377
10.681
10.937
11.142
11.3
11.411
11.476
11.497
11.476
11.415
11.315
11.181
11.013
10.814
10.586
10.333
10.055
9.756
9.436
9.099
8.744
8.375
7.992
7.597
7.19
6.772
6.344
5.908
5.462
5.007
4.544
4.072
3.592
3.104
2.608
2.104
1.593
1.075
0.552
0.024
-0.508
-1.042
-1.577
-2.111
-2.644
-3.173
-3.696
-4.211
-4.716
-5.207
-5.684
-6.141
-6.577
-6.989
-7.372
-7.724
-8.041
-8.321
-8.559
-8.752
-8.898
-8.992
-9.031
-9.013
-8.935
-8.795
-8.591
-8.322
-7.989
-7.591
-7.131
-6.61
-6.032
-5.399
-4.714
-3.982
-3.206
-2.392
-1.544
-0.668
0.233
1.151
2.079
3.011
3.938
4.854
5.753
6.626
7.467
8.267
9.021
9.724
10.372
10.96
11.483
11.931
12.302
12.597
12.818
12.97
13.058
13.089
13.075
13.037
12.993
12.962
12.959
12.989
13.06
13.184
13.375
13.647
14.009
14.455
14.978
15.577
16.241
16.955
17.684
18.372
18.958
19.385
19.602
19.571
19.257
18.63
17.657
16.293
14.507
12.277
9.581
6.412
2.75
-1.463
-6.158
-11.148
-16.171
-20.829
-24.774
-27.798
-29.591
-29.766
-28.261
-25.22
-21.062
-16.707
-12.816
-9.698
-7.934
-8.056
-10.044
-13.637
-17.91
-20.996
-21.522
-18.483
-10.314
4.281
26.013
55.312
91.284
131.701
174.616
217.724
257.524
290.412
312.579
320.156
310.79
283.236
236.37
170.354
87.078
-10.492
-117.75
-229.153
-339.71
-444.247
-537.33
-614.473
-672.187
-708.237
-722.469
-715.864
-689.851
-647.124
-591.25
-526.136
-456.214
-385.514
-317.011
-253.463
-197.222
-149.703
-111.737
-83.188
-62.788
-49.133
-40.892
-36.317
-33.765
-31.745
-28.765
-24.17
-18.082
-10.75
-2.616
5.635
13.425
20.056
24.726
27.205
27.659
26.384
23.879
20.643
17.087
13.723
11.097
9.488
9.005
9.639
11.245
13.718
16.974
20.875
25.267
30.009
34.979
40.076
45.227
50.334
55.295
60.006
64.371
68.336
71.881
75.006
77.735
80.098
82.133
83.894
85.438
86.825
88.109
89.341
90.562
91.821
93.163
94.637
96.286
98.141
100.214
102.513
105.036
107.776
110.725
113.866
117.177
120.637
124.229
127.935
131.739
135.62
139.558
143.528
147.506
151.47
155.397
159.266
163.052
166.736
170.293
173.704
176.95
180.01
182.862
185.486
187.861
189.969
191.791
193.312
194.516
195.389
195.921
196.102
195.925
195.385
194.478
193.202
191.559
189.549
187.177
184.449
181.372
177.956
174.211
170.151
165.789
161.141
156.223
151.054
145.654
140.041
134.237
128.264
122.144
115.899
109.554
103.129
96.65
90.138
83.615
77.105
70.629
64.207
57.859
51.605
45.462
39.447
33.576
27.865
22.325
16.97
11.81
6.855
2.114
-2.407
-6.7
-10.762
-14.589
-18.179
-21.531
-24.644
-27.522
-30.165
-32.578
-34.765
-36.731
-38.482
-40.026
-41.371
-42.524
-43.494
-44.29
-44.923
-45.401
-45.735
-45.935
-46.01
-45.972
-45.83
-45.594
-45.274
-44.878
-44.416
-43.896
-43.328
-42.718
-42.075
-41.406
-40.717
-40.015
-39.305
-38.593
-37.884
-37.181
-36.489
-35.811
-35.15
-34.507
-33.886
-33.288
-32.714
-32.165
-31.642
-31.145
-30.675
-30.23
-29.812
-29.419
-29.051
-28.707
-28.387
-28.09
-27.815
-27.561
-27.329
-27.116
-26.923
-26.748
-26.592
-26.453
-26.332
-26.227
-26.139
-26.068
-26.012
-25.973
-25.951
-25.945
-25.955
-25.983
-26.029
-26.093
-26.176
-26.278
-26.401
-26.544
-26.709
-26.897
-27.108
-27.342
-27.602
-27.886
-28.197
-28.533
-28.897
-29.288
-29.705
-30.149
-30.62
-31.116
-31.638
-32.183
-32.751
-33.34
-33.949
-34.576
-35.218
-35.874
-36.541
-37.216
-37.897
-38.58
-39.262
-39.939
-40.608
-41.264
-41.904
-42.522
-43.116
-43.68
-44.21
-44.7
-45.147
-45.546
-45.891
-46.18
-46.406
-46.568
-46.66
-46.681
-46.628
-46.5
-46.296
-46.016
-45.661
-45.232
-44.729
-44.155
-43.513
-42.805
-42.034
-41.204
-40.318
-39.382
-38.402
-37.382
-36.331
-35.255
-34.16
-33.053
-31.943
-30.838
-29.746
-28.673
-27.623
-26.603
-25.622
-24.69
-23.813
-22.993
-22.228
-21.519
-20.863
-20.257
-19.691
-19.147
-18.609
-18.058
-17.484
-16.882
-16.244
-15.56
-14.818
-14.001
-13.104
-12.132
-11.093
-9.994
-8.844
-7.659
-6.478
-5.364
-4.38
-3.596
-3.061
-2.817
-2.908
-3.368
-4.242
-5.589
-7.441
-9.826
-12.774
-16.286
-20.398
-25.171
-30.519
-36.236
-42.035
-47.493
-52.27
-56.166
-58.835
-59.849
-59.092
-56.701
-53.153
-49.314
-45.79
-42.815
-40.841
-40.49
-41.894
-44.72
-47.961
-49.87
-49.077
-44.766
-35.764
-20.514
1.951
31.918
68.649
110.129
154.378
199.544
242.742
279.964
307.235
320.963
318.127
296.859
255.856
194.184
113.551
18.822
-86.016
-197.306
-312.227
-430.671
-546.516
-648.88
-727.953
-773.129
-783.112
-765.905
-728.901
-681.024
-626.94
-565.34
-497.569
-425.754
-352.712
-283.873
-222.809
-171.137
-130.012
-99.033
-76.871
-62.275
-53.81
-49.527
-47.615
-46.379
-44.095
-39.944
-33.951
-26.341
-17.588
-8.436
0.451
8.271
14.096
17.608
18.939
18.376
16.436
13.64
10.422
7.339
4.991
3.694
3.571
4.618
6.682
9.651
13.439
17.901
22.87
28.2
33.759
39.449
45.198
50.909
56.474
61.783
66.734
71.268
75.362
79.012
82.241
85.076
87.555
89.731
91.667
93.422
95.055
96.616
98.151
99.71
101.344
103.105
105.042
107.188
109.562
112.174
115.026
118.114
121.433
124.968
128.699
132.609
136.68
140.896
145.244
149.704
154.256
158.878
163.545
168.236
172.928
177.598
182.225
186.785
191.256
195.617
199.848
203.926
207.829
211.534
215.018
218.261
221.242
223.941
226.342
228.426
230.18
231.592
232.651
233.35
233.682
233.642
233.227
232.438
231.276
229.745
227.849
225.597
222.998
220.064
216.806
213.24
209.382
205.249
200.861
196.237
191.398
186.367
181.165
175.818
170.347
164.777
159.134
153.44
147.719
141.997
136.295
130.637
125.044
119.538
114.137
108.86
103.725
98.748
93.944
89.327
84.908
80.697
76.705
72.939
69.406
66.109
63.052
60.238
57.666
55.336
53.245
51.391
49.769
48.372
47.196
46.231
45.47
44.904
44.523
44.316
44.273
44.382
44.633
45.013
45.511
46.115
46.814
47.597
48.453
49.371
50.34
51.351
52.395
53.462
54.545
55.636
56.728
57.814
58.889
59.948
60.986
62.0
62.985
63.939
64.86
65.746
66.596
67.409
68.184
68.921
69.621
70.283
70.909
71.5
72.056
72.578
73.068
73.528
73.957
74.358
74.731
75.078
75.4
75.697
75.971
76.222
76.45
76.656
76.839
77.001
77.141
77.258
77.352
77.422
77.468
77.49
77.486
77.456
77.398
77.312
77.196
77.05
76.873
76.663
76.42
76.143
75.83
75.481
75.096
74.674
74.214
73.716
73.181
72.607
71.995
71.344
70.654
69.926
69.16
68.356
67.514
66.635
65.718
64.765
63.775
62.75
61.689
60.594
59.464
58.3
57.104
55.875
54.616
53.327
52.011
50.668
49.3
47.91
46.5
45.07
43.625
42.164
40.692
39.209
37.72
36.226
34.731
33.238
31.749
30.269
28.8
27.347
25.912
24.5
23.115
21.761
20.442
19.162
17.926
16.739
15.604
14.525
13.507
12.552
11.663
10.842
10.09
9.408
8.795
8.25
7.772
7.36
7.012
6.725
6.498
6.326
6.207
6.136
6.109
6.12
6.16
6.222
6.3
6.386
6.472
6.551
6.613
6.652
6.66
6.63
6.553
6.42
6.217
5.937
5.577
5.137
4.619
4.027
3.368
2.653
1.899
1.118
0.323
-0.475
-1.272
-2.057
-2.819
-3.545
-4.219
-4.831
-5.383
-5.876
-6.32
-6.733
-7.133
-7.554
-8.047
-8.658
-9.425
-10.395
-11.61
-13.111
-14.948
-17.158
-19.764
-22.795
-26.276
-30.231
-34.684
-39.642
-45.077
-50.972
-57.332
-64.054
-70.954
-77.755
-84.027
-89.396
-93.625
-96.377
-97.249
-96.201
-93.404
-89.319
-84.953
-81.04
-77.953
-76.38
-76.921
-79.515
-83.821
-88.79
-92.364
-93.055
-89.706
-80.506
-64.069
-39.742
-7.208
32.428
76.733
123.623
170.44
213.114
247.736
270.474
277.348
265.773
234.271
181.31
107.914
18.48
-83.712
-195.318
-313.497
-438.736
-564.866
-679.753
-772.523
-830.925
-852.308
-845.195
-816.967
-776.165
-727.825
-670.151
-604.087
-532.347
-457.85
-385.876
-320.705
-264.576
-218.799
-183.645
-158.24
-141.058
-130.929
-126.433
-125.485
-126.303
-127.16
-126.41
-123.596
-118.985
-112.727
-105.308
-97.531
-90.022
-83.642
-79.28
-77.102
-76.903
-78.369
-80.968
-84.19
-87.625
-90.736
-92.991
-94.142
-94.111
-92.949
-90.833
-87.885
-84.206
-79.934
-75.219
-70.193
-64.975
-59.66
-54.321
-49.045
-43.925
-39.051
-34.508
-30.344
-26.573
-23.181
-20.137
-17.404
-14.94
-12.697
-10.618
-8.645
-6.726
-4.814
-2.868
-0.846
1.294
3.593
6.092
8.815
11.775
14.971
18.4
22.051
25.912
29.967
34.19
38.56
43.056
47.658
52.35
57.109
61.912
66.735
71.551
76.337
81.069
85.724
90.277
94.705
98.986
103.097
107.018
110.728
114.206
117.429
120.379
123.035
125.381
127.401
129.08
130.406
131.369
131.96
132.175
132.01
131.463
130.536
129.231
127.553
125.509
123.109
120.363
117.283
113.883
110.179
106.187
101.926
97.415
92.674
87.723
82.587
77.287
71.848
66.292
60.645
54.932
49.176
43.402
37.633
31.893
26.203
20.586
15.062
9.651
4.37
-0.764
-5.734
-10.528
-15.132
-19.536
-23.731
-27.709
-31.464
-34.991
-38.286
-41.346
-44.17
-46.756
-49.106
-51.217
-53.093
-54.735
-56.149
-57.34
-58.313
-59.077
-59.641
-60.015
-60.211
-60.24
-60.111
-59.833
-59.415
-58.867
-58.197
-57.414
-56.525
-55.538
-54.461
-53.307
-52.086
-50.805
-49.468
-48.076
-46.635
-45.151
-43.637
-42.102
-40.559
-39.021
-37.513
-36.066
-34.709
-33.462
-32.334
-31.323
-30.432
-29.66
-29.01
-28.482
-28.065
-27.742
-27.502
-27.337
-27.237
-27.183
-27.136
-27.036
-26.837
-26.516
-26.069
-25.512
-24.861
-24.139
-23.377
-22.622
-21.944
-21.405
