129.172
126.613
122.428
117.561
112.048
106.208
100.175
93.96
87.814
81.944
76.455
71.478
67.142
63.529
60.679
58.595
57.277
56.713
56.866
57.661
58.953
60.573
62.382
64.259
66.095
67.805
69.296
70.474
71.275
71.651
71.559
70.97
69.838
68.112
65.796
62.933
59.606
55.934
52.008
47.911
43.74
39.563
35.433
31.393
27.434
23.538
19.701
15.901
12.139
8.428
4.751
1.083
-2.618
-6.435
-10.436
-14.693
-19.296
-24.285
-29.698
-35.605
-41.949
-48.575
-55.234
-61.505
-66.979
-71.379
-74.36
-75.521
-74.678
-71.888
-67.543
-62.555
-57.829
-53.994
-51.705
-51.571
-53.797
-58.111
-63.594
-68.377
-70.405
-67.95
-59.213
-42.565
-16.987
17.851
61.282
111.216
164.818
218.99
269.856
313.232
345.124
361.65
359.632
337.158
293.1
228.12
145.313
48.214
-58.88
-173.204
-294.392
-418.84
-540.541
-649.169
-730.095
-775.419
-783.665
-760.566
-719.905
-670.389
-615.795
-556.908
-489.364
-415.199
-342.258
-278.0
-231.374
-204.231
-190.883
-186.105
-183.742
-180.441
-177.214
-173.69
-169.077
-162.729
-153.089
-139.889
-124.057
-106.7
-89.228
-73.061
-59.311
-48.541
-40.869
-36.075
-33.658
-33.117
-33.976
-35.652
-37.569
-39.355
-40.804
-41.856
-42.565
-42.943
-42.971
-42.652
-42.012
-41.087
-39.897
-38.448
-36.734
-34.779
-32.643
-30.397
-28.106
-25.803
-23.518
-21.274
-19.062
-16.839
-14.564
-12.208
-9.762
-7.266
-4.742
-2.145
0.444
2.812
4.924
6.857
8.611
10.419
11.897
11.818
10.454
8.927
9.085
14.416
24.688
36.395
46.055
48.73
44.16
37.071
31.109
30.198
35.01
42.028
49.086
54.689
58.361
61.504
64.754
68.055
71.457
74.734
77.815
80.865
83.911
86.902
89.827
92.682
95.445
98.096
100.615
102.991
105.251
107.441
109.574
111.634
113.595
115.43
117.107
118.597
119.857
120.824
121.444
121.683
121.518
120.934
119.907
118.39
116.314
113.629
110.304
106.337
101.742
96.533
90.743
84.417
77.614
70.417
62.891
55.067
46.965
38.592
29.954
21.094
12.072
2.94
-6.251
-15.467
-24.683
-33.86
-42.97
-51.992
-60.908
-69.715
-78.391
-86.862
-95.046
-102.844
-110.147
-116.889
-123.027
-128.519
-133.345
-137.478
-140.893
-143.589
-145.577
-146.861
-147.459
-147.382
-146.655
-145.365
-143.614
-141.527
-139.242
-136.851
-134.432
-132.053
-129.768
-127.625
-125.678
-123.954
-122.469
-121.243
-120.294
-119.649
-119.33
-119.309
-119.536
-119.937
-120.441
-121.003
-121.597
-122.198
-122.789
-123.353
-123.878
-124.366
-124.827
-125.256
-125.645
-125.971
-126.208
-126.36
-126.451
-126.517
-126.591
-126.686
-126.807
-126.961
-127.153
-127.384
-127.65
-127.933
-128.217
-128.493
-128.764
-129.036
-129.322
-129.618
-129.915
-130.197
-130.45
-130.669
-130.849
-130.984
-131.066
-131.091
-131.063
-130.991
-130.881
-130.739
-130.565
-130.36
-130.122
-129.857
-129.567
-129.26
-128.939
-128.611
-128.281
-127.957
-127.645
-127.351
-127.081
-126.835
-126.617
-126.43
-126.275
-126.157
-126.077
-126.035
-126.033
-126.07
-126.148
-126.265
-126.419
-126.609
-126.832
-127.086
-127.367
-127.674
-128.003
-128.35
-128.714
-129.09
-129.475
-129.867
-130.262
-130.659
-131.053
-131.444
-131.829
-132.206
-132.574
-132.931
-133.276
-133.606
-133.921
-134.217
-134.493
-134.748
-134.98
-135.188
-135.373
-135.535
-135.675
-135.795
-135.897
-135.985
-136.062
-136.128
-136.185
-136.232
-136.272
-136.302
-136.325
-136.337
-136.337
-136.326
-136.305
-136.274
-136.235
-136.183
-136.113
-136.02
-135.907
-135.776
-135.632
-135.482
-135.334
-135.203
-135.114
-135.088
-135.146
-135.299
-135.543
-135.877
-136.302
-136.814
-137.416
-138.1
-138.841
-139.623
-140.432
-141.251
-142.063
-142.833
-143.505
-144.03
-144.37
-144.507
-144.45
-144.212
-143.804
-143.254
-142.591
-141.868
-141.159
-140.517
-139.976
-139.569
-139.317
-139.267
-139.498
-140.067
-141.02
-142.376
-144.12
-146.236
-148.704
-151.475
-154.491
-157.667
-160.893
-164.1
-167.252
-170.329
-173.351
-176.314
-179.188
-181.964
-184.632
-187.212
-189.765
-192.345
-195.016
-197.862
-200.948
-204.394
-208.372
-212.938
-218.064
-223.594
-229.19
-234.576
-239.583
-243.95
-247.385
-249.678
-250.65
-250.49
-249.762
-248.876
-248.113
-247.649
-247.541
-247.964
-249.076
-250.386
-250.856
-249.377
-244.791
-236.428
-223.694
-205.359
-180.272
-147.906
-109.087
-66.141
-21.309
24.362
71.446
120.527
169.36
211.898
238.353
239.209
209.547
150.963
71.876
-18.603
-114.494
-215.266
-325.862
-446.869
-572.563
-690.472
-782.694
-839.452
-859.82
-850.241
-823.784
-788.275
-747.047
-701.326
-649.026
-591.42
-532.156
-474.546
-422.992
-380.172
-346.111
-320.161
-300.933
-286.521
-275.629
-266.982
-258.678
-249.127
-237.625
-224.05
-208.934
-193.21
-177.567
-162.673
-149.526
-139.025
-131.607
-127.33
-125.845
-126.576
-129.039
-132.759
-137.149
-141.62
-145.718
-149.142
-151.734
-153.434
-154.193
-153.98
-152.812
-150.757
-147.893
-144.297
-140.056
-135.254
-129.989
-124.382
-118.546
-112.589
-106.618
-100.73
-95.015
-89.558
-84.416
-79.608
-75.14
-70.996
-67.148
-63.563
-60.195
-56.986
-53.885
-50.84
-47.806
-44.743
-41.609
-38.363
-34.969
-31.388
-27.597
-23.585
-19.346
-14.884
-10.205
-5.32
-0.244
4.998
10.389
15.908
21.538
27.264
33.065
38.922
44.812
50.714
56.605
62.465
68.274
74.009
79.65
85.176
90.568
95.807
100.873
105.746
110.404
114.827
118.995
122.889
126.492
129.785
132.752
135.38
137.657
139.571
141.114
142.279
143.062
143.458
143.467
143.089
142.326
141.182
139.663
137.774
135.526
132.928
129.992
126.731
123.16
119.295
115.155
110.757
106.121
101.267
96.217
90.994
85.62
80.118
74.513
68.829
63.093
57.33
51.567
45.828
40.138
34.523
29.004
23.603
18.342
13.237
8.307
3.567
-0.966
-5.279
-9.359
-13.193
-16.77
-20.081
-23.117
-25.871
-28.339
-30.521
-32.415
-34.024
-35.351
-36.399
-37.175
-37.687
-37.941
-37.941
-37.697
-37.219
-36.521
-35.621
-34.538
-33.285
-31.877
-30.328
-28.647
-26.844
-24.92
-22.866
-20.677
-18.346
-15.876
-13.282
-10.576
-7.771
-4.883
-1.924
1.085
4.115
7.146
10.161
13.131
16.032
18.819
21.427
23.798
25.877
27.621
29.012
30.045
30.727
31.088
31.167
31.024
30.739
30.377
29.999
29.675
29.465
29.45
29.738
30.43
31.622
33.414
35.863
39.006
42.855
47.375
52.51
58.175
64.25
70.625
77.193
83.848
90.502
97.067
103.429
109.484
115.123
120.227
124.709
128.513
131.6
133.979
135.684
136.777
137.356
137.527
137.399
137.065
136.594
136.046
135.484
134.972
134.576
134.373
134.421
134.763
135.43
136.433
137.767
139.408
141.306
143.395
145.606
147.886
150.2
152.527
154.848
157.145
159.4
161.59
163.705
165.734
167.665
169.49
171.205
172.813
174.328
175.776
177.183
178.569
179.945
181.316
182.683
184.046
185.407
186.761
188.101
189.424
190.729
192.017
193.29
194.55
195.794
197.017
198.216
199.388
200.531
201.645
202.729
203.783
204.81
205.813
206.798
207.769
208.73
209.684
210.634
211.583
212.537
213.497
214.466
215.449
216.45
217.472
218.519
219.597
220.707
221.854
223.04
224.267
225.537
226.848
228.202
229.597
231.03
232.5
234.001
235.532
237.086
238.66
240.248
241.844
243.443
245.038
246.623
248.191
249.735
251.247
252.719
254.143
255.51
256.811
258.037
259.179
260.229
261.182
262.034
262.779
263.41
263.919
264.299
264.55
264.668
264.652
264.501
264.218
263.815
263.313
262.733
262.093
261.408
260.687
259.94
259.184
258.436
257.71
257.017
256.357
255.732
255.151
254.609
254.092
253.557
252.928
252.129
251.088
249.748
248.065
245.982
243.425
240.315
236.59
232.214
227.186
221.481
214.999
207.717
199.739
191.325
182.903
174.863
167.457
161.003
155.978
152.704
151.214
151.148
151.677
152.115
152.025
150.777
147.608
142.021
134.796
128.042
124.057
124.309
127.632
131.822
137.296
146.761
165.817
200.65
252.781
320.14
396.661
472.707
538.608
584.191
601.979
589.425
548.017
484.496
406.509
318.964
224.49
121.711
7.259
-118.461
-249.819
-376.254
-481.942
-553.617
-587.244
-584.896
-555.492
-510.174
-453.642
-389.916
-323.184
-255.86
-194.291
-142.233
-98.571
-62.937
-32.583
-6.228
14.114
28.485
37.052
40.638
42.144
43.472
45.666
49.572
54.62
59.754
64.559
68.801
72.389
75.254
77.061
77.53
77.139
76.869
77.387
78.837
80.888
83.264
86.009
89.259
92.838
96.186
98.882
100.936
102.749
104.683
106.832
109.119
111.474
114.007
116.802
119.749
122.556
124.915
126.656
127.723
128.131
127.887
127.003
125.54
123.635
121.464
119.185
116.946
114.856
112.997
111.457
110.317
109.645
109.504
109.932
110.944
112.55
114.736
117.468
120.697
124.343
128.293
132.441
136.677
140.906
145.064
149.09
152.933
156.551
159.911
162.993
165.796
168.316
170.55
172.509
174.212
175.693
177.007
178.2
179.309
180.362
181.372
182.347
183.295
184.209
185.078
185.885
186.608
187.229
187.736
188.108
188.322
188.351
188.162
187.727
187.029
186.054
184.793
183.239
181.389
179.244
176.813
174.101
171.113
167.854
164.326
160.536
156.492
152.206
147.692
142.963
138.033
132.915
127.624
122.173
116.572
110.827
104.941
98.929
92.809
86.603
80.34
74.047
67.751
61.483
55.274
49.143
43.107
37.165
31.316
25.564
19.925
14.421
9.079
3.91
-1.087
-5.912
-10.579
-15.102
-19.503
-23.825
-28.11
-32.377
-36.622
-40.809
-44.882
-48.804
-52.55
-56.102
-59.45
-62.558
-65.388
-67.911
-70.093
-71.897
-73.27
-74.119
-74.351
-73.914
-72.797
-71.04
-68.719
-65.892
-62.614
-58.953
-54.976
-50.781
-46.46
-42.073
-37.678
-33.34
-29.145
-25.22
-21.703
-18.685
-16.216
-14.302
-12.916
-12.041
-11.649
-11.687
-12.084
-12.75
-13.608
-14.618
-15.754
-16.983
-18.253
-19.487
-20.597
-21.53
-22.252
-22.752
-23.03
-23.084
-22.926
-22.591
-22.134
-21.618
-21.092
-20.574
-20.074
-19.602
-19.174
-18.815
-18.551
-18.391
-18.343
-18.41
-18.598
-18.912
-19.35
-19.895
-20.523
-21.204
-21.919
-22.66
-23.422
-24.201
-24.995
-25.798
-26.611
-27.439
-28.283
-29.142
-30.011
-30.886
-31.764
-32.647
-33.537
-34.436
-35.346
-36.267
-37.199
-38.142
-39.096
-40.058
-41.026
-41.995
-42.962
-43.927
-44.886
-45.84
-46.786
-47.725
-48.654
-49.574
-50.484
-51.384
-52.272
-53.147
-54.009
-54.857
-55.69
-56.51
-57.318
-58.114
-58.9
-59.679
-60.454
-61.227
-62.0
-62.778
-63.56
-64.351
-65.149
-65.958
-66.776
-67.603
-68.438
-69.279
-70.127
-70.978
-71.832
-72.685
-73.537
-74.386
-75.23
-76.069
-76.899
-77.715
-78.514
-79.289
-80.036
-80.749
-81.42
-82.041
-82.607
-83.112
-83.551
-83.919
-84.21
-84.413
-84.519
-84.518
-84.409
-84.189
-83.858
-83.42
-82.883
-82.263
-81.585
-80.866
-80.118
-79.344
-78.542
-77.709
-76.847
-75.955
-75.033
-74.08
-73.09
-72.062
-71.005
-69.91
-68.766
-67.544
-66.197
-64.697
-63.038
-61.228
-59.289
-57.256
-55.157
-53.038
-50.953
-48.948
-47.064
-45.326
-43.738
-42.316
-41.093
-40.116
-39.457
-39.164
-39.254
-39.727
-40.57
-41.749
-43.226
-44.947
-46.828
-48.808
-50.846
-52.926
-55.064
-57.277
-59.558
-61.893
-64.25
-66.617
-69.012
-71.457
-73.983
-76.626
-79.417
-82.407
-85.677
-89.296
-93.297
-97.685
-102.407
-107.412
-112.706
-118.231
-123.853
-129.344
-134.316
-138.381
-141.245
-142.583
-142.017
-139.37
-134.684
-128.275
-120.978
-113.682
-107.07
-101.91
-98.881
-98.206
-99.689
-102.552
-105.111
-105.538
-102.193
-93.173
-76.866
-52.28
-19.036
22.123
69.226
119.746
170.601
217.824
257.405
285.208
297.281
290.862
263.774
215.495
148.141
64.744
-31.067
-136.957
-253.884
-380.891
-512.203
-636.828
-737.506
-800.084
-820.135
-801.779
-757.898
-702.346
-642.792
-582.46
-520.827
-456.357
-390.815
-327.973
-271.762
-225.749
-191.15
-167.135
-152.027
-143.679
-140.244
-139.8
-140.405
-140.316
-137.995
-132.835
-125.082
-115.269
-104.095
-92.454
-81.172
-71.102
-63.146
-57.614
-54.367
-53.147
-53.493
-54.93
-57.077
-59.466
-61.626
-63.34
-64.527
-65.174
-65.354
-65.098
-64.423
-63.415
-62.161
-60.724
-59.14
-57.399
-55.501
-53.484
-51.383
-49.224
-47.003
-44.679
-42.222
-39.63
-36.912
-34.086
-31.151
-28.087
-24.894
-21.585
-18.191
-14.758
-11.306
-7.833
-4.344
-0.846
2.633
6.044
9.356
12.564
15.671
18.69
21.628
24.481
27.263
30.004
32.742
35.52
38.361
41.261
44.214
47.219
50.279
53.411
56.621
59.893
63.213
66.568
69.941
73.328
76.723
80.106
83.462
86.785
90.08
93.371
96.694
100.063
103.488
106.965
110.486
114.055
117.667
121.299
124.925
128.512
132.013
135.393
138.602
141.554
144.163
146.329
147.938
148.911
149.181
148.688
147.384
145.224
142.181
138.258
133.472
127.836
121.377
114.114
106.091
97.406
88.167
78.492
68.508
58.323
48.041
37.777
27.646
17.747
8.16
-1.063
-9.881
-18.237
-26.074
-33.324
-39.949
-45.957
-51.37
-56.213
-60.515
-64.305
-67.626
-70.543
-73.133
-75.452
-77.537
-79.408
-81.082
-82.595
-83.991
-85.321
-86.614
-87.877
-89.114
-90.328
-91.525
-92.705
-93.849
-94.92
-95.873
-96.682
-97.336
-97.835
-98.181
-98.365
-98.379
-98.214
-97.876
-97.373
-96.714
-95.907
-94.956
-93.874
-92.683
-91.416
-90.105
-88.777
-87.448
-86.13
-84.836
-83.577
-82.363
-81.2
-80.088
-79.029
-78.026
-77.082
-76.203
-75.388
-74.636
-73.941
-73.299
-72.705
-72.155
-71.647
-71.177
-70.742
-70.342
-69.974
-69.64
-69.338
-69.068
-68.824
-68.604
-68.403
-68.219
-68.046
-67.882
-67.722
-67.564
-67.406
-67.249
-67.093
-66.937
-66.78
-66.623
-66.465
-66.307
-66.147
-65.985
-65.82
-65.651
-65.482
-65.315
-65.153
-65.0
-64.859
-64.734
-64.629
-64.548
-64.493
-64.461
-64.452
-64.468
-64.511
-64.591
-64.711
-64.872
-65.075
-65.314
-65.586
-65.889
-66.207
-66.516
-66.795
-67.018
-67.175
-67.274
-67.31
-67.268
-67.143
-66.919
-66.604
-66.239
-65.834
-65.378
-64.903
-64.472
-64.158
-64.063
-64.244
-64.691
-65.422
-66.501
-67.871
-69.317
-70.758
-72.221
-73.619
-75.1
-76.192
-75.512
-73.249
-70.562
-69.349
-73.267
-82.04
-91.76
-98.551
-96.99
-86.614
-72.496
-58.612
-49.259
-45.321
-43.098
-40.325
-35.497
-28.216
-20.156
-12.168
-4.356
3.082
10.251
17.072
23.231
28.582
33.092
36.743
39.547
41.543
42.792
43.364
43.332
42.779
41.786
40.436
38.841
37.099
35.3
33.548
31.928
30.509
29.358
28.51
27.975
27.773
27.915
28.415
29.303
30.573
32.193
34.131
36.35
38.815
41.501
44.369
47.371
50.465
53.611
56.775
59.923
63.008
65.965
68.717
71.186
73.32
75.094
76.486
77.481
78.061
78.209
77.923
77.218
76.113
74.627
72.781
70.61
68.17
65.54
62.819
60.088
57.411
54.832
52.387
50.103
47.999
46.068
44.281
42.601
40.983
39.398
37.823
36.202
34.463
32.505
30.221
27.533
24.388
20.714
16.417
11.471
5.969
0.154
-5.604
-10.953
-15.627
-19.337
-21.688
-22.399
-21.503
-19.367
-16.711
-14.27
-12.463
-11.653
-12.414
-15.082
-19.379
-24.396
-28.552
-30.145
-27.894
-20.463
-6.213
16.251
46.98
84.337
126.733
172.768
221.982
275.024
327.927
373.339
404.051
411.789
394.227
354.853
296.93
226.165
146.316
57.363
-40.608
-149.106
-266.753
-387.201
-499.765
-590.109
-649.148
-674.393
-670.435
-648.432
-615.868
-576.561
-531.829
-479.447
-420.282
-357.805
-295.326
-237.275
-186.6
-144.108
-110.268
-84.652
-65.985
-53.167
-45.045
-39.951
-36.426
-33.228
-29.101
-23.564
-16.797
-9.061
-0.783
7.378
14.886
21.152
25.498
27.741
28.053
26.823
24.639
21.907
19.011
16.452
14.513
14.117
15.997
19.25
23.465
26.884
27.45
27.232
27.54
30.416
38.72
49.703
61.054
71.151
77.355
81.376
84.943
88.392
92.809
97.527
101.716
105.547
108.93
111.949
114.817
117.47
119.856
122.027
123.991
125.73
127.258
128.616
129.851
131.021
132.183
133.359
134.582
135.904
137.364
138.992
140.804
142.799
144.998
147.434
150.158
153.235
156.704
160.574
164.843
169.497
174.503
179.82
185.382
191.094
196.88
202.672
208.418
214.081
219.609
224.935
229.991
234.696
238.985
242.812
246.136
248.924
251.163
252.848
254.002
254.671
254.888
254.671
254.035
252.981
251.519
249.666
247.438
244.853
241.928
238.678
235.118
231.269
227.141
222.742
218.069
213.111
207.866
202.342
196.551
190.51
184.241
177.763
171.099
164.278
157.328
150.273
143.137
135.942
128.71
121.468
114.241
107.056
99.938
92.909
85.991
79.201
72.558
66.078
59.773
53.653
47.73
42.014
36.514
31.239
26.198
21.397
16.841
12.536
8.484
4.688
1.147
-2.139
-5.174
-7.961
-10.504
-12.808
-14.881
-16.729
-18.359
-19.781
-21.002
-22.031
-22.879
-23.554
-24.066
-24.425
-24.641
-24.722
-24.679
-24.52
-24.255
-23.891
-23.438
-22.903
-22.296
-21.625
-20.897
-20.12
-19.302
-18.45
-17.57
-16.67
-15.754
-14.827
-13.896
-12.962
-12.032
-11.107
-10.19
-9.286
-8.394
-7.519
-6.66
-5.82
-4.999
-4.198
-3.418
-2.66
-1.924
-1.21
-0.52
0.147
0.79
1.409
2.004
2.575
3.122
3.645
4.145
4.621
5.073
5.502
5.908
6.289
6.647
6.979
7.286
7.567
7.821
8.047
8.244
8.412
8.548
8.653
8.724
8.761
8.762
8.727
8.655
8.544
8.394
8.205
7.976
7.706
7.394
7.041
6.646
6.208
5.727
5.202
4.632
4.018
3.361
2.66
1.916
1.132
0.307
-0.555
-1.454
-2.386
-3.35
-4.343
-5.363
-6.409
-7.476
-8.562
-9.666
-10.783
-11.913
-13.051
-14.197
-15.346
-16.498
-17.649
-18.798
-19.942
-21.077
-22.2
-23.309
-24.399
-25.466
-26.505
-27.512
-28.482
-29.414
-30.302
-31.146
-31.942
-32.69
-33.389
-34.039
-34.638
-35.183
-35.672
-36.101
-36.468
-36.769
-36.999
-37.154
-37.23
-37.226
-37.142
-36.974
-36.719
-36.369
-35.922
-35.379
-34.744
-34.021
-33.219
-32.343
-31.409
-30.441
-29.459
-28.483
-27.525
-26.586
-25.668
-24.777
-23.917
-23.094
-22.304
-21.528
-20.755
-19.975
-19.175
-18.342
-17.447
-16.443
-15.296
-13.983
-12.494
-10.841
-9.032
-7.075
-4.988
-2.792
-0.522
1.769
4.041
6.265
8.402
10.414
12.246
13.823
15.089
16.013
16.569
16.753
16.565
15.998
15.066
13.79
12.194
10.31
8.162
5.762
3.13
0.293
-2.726
-5.893
-9.188
-12.611
-16.152
-19.792
-23.533
-27.377
-31.34
-35.45
-39.71
-44.094
-48.598
-53.258
-58.033
-62.809
-67.365
-71.321
-74.319
-76.105
-76.391
-74.841
-71.35
-66.052
-59.37
-52.245
-45.608
-40.127
-36.526
-35.415
-36.896
-40.626
-45.674
-50.166
-52.156
-49.959
-41.653
-25.675
-1.192
31.988
72.949
119.521
169.048
218.376
263.485
300.422
325.262
334.383
325.329
296.192
246.859
179.771
97.92
4.916
-97.718
-211.772
-335.337
-461.814
-578.727
-668.45
-720.758
-735.358
-720.363
-689.513
-651.676
-608.976
-559.823
-502.998
-440.468
-377.466
-319.946
-269.843
-227.565
-192.015
-161.071
-135.667
-116.045
-101.879
-93.39
-88.463
-85.159
-82.478
-79.021
-74.485
-69.262
-63.277
-56.727
-50.182
-43.987
-38.706
-35.039
-33.085
-32.651
-33.5
-35.188
-37.281
-39.44
-41.209
-42.126
-41.98
-40.702
-38.335
-35.03
-30.895
-26.032
-20.587
-14.718
-8.573
-2.268
4.105
10.46
16.697
22.701
28.362
33.61
38.41
42.749
46.63
50.057
53.04
55.609
57.802
59.658
61.202
62.438
63.374
64.028
64.436
64.653
64.732
64.706
64.605
64.455
64.297
64.194
64.192
64.325
64.618
65.099
65.824
66.868
68.298
70.167
72.51
75.34
78.681
82.558
86.978
91.943
97.414
103.317
109.597
116.204
123.086
130.19
137.428
144.691
151.879
158.896
165.649
172.051
177.987
183.347
188.043
191.994
195.161
197.536
199.099
199.837
199.743
198.818
197.09
194.607
191.406
187.538
183.06
178.046
172.602
166.831
160.816
154.645
148.375
142.049
135.714
129.409
123.162
117.0
110.934
104.971
99.126
93.404
87.8
82.297
76.856
71.444
66.041
60.627
55.195
49.744
44.272
38.787
33.308
27.85
22.432
17.075
11.789
6.591
1.504
-3.45
-8.238
-12.837
-17.227
-21.392
-25.32
-29.003
-32.434
-35.612
-38.545
-41.237
-43.693
-45.919
-47.919
-49.698
-51.266
-52.629
-53.797
-54.78
-55.585
-56.22
-56.694
-57.013
-57.188
-57.223
-57.126
-56.903
-56.562
-56.112
-55.56
-54.915
-54.186
-53.381
-52.508
-51.575
-50.591
-49.563
-48.496
-47.397
-46.273
-45.129
-43.97
-42.801
-41.626
-40.449
-39.273
-38.103
-36.941
-35.79
-34.653
-33.533
-32.432
-31.353
-30.297
-29.267
-28.265
-27.291
-26.349
-25.438
-24.559
-23.714
-22.903
-22.127
-21.386
-20.68
-20.009
-19.374
-18.774
-18.21
-17.682
-17.19
-16.733
-16.314
-15.93
-15.583
-15.271
-14.996
-14.756
-14.551
-14.38
-14.243
-14.139
-14.066
-14.023
-14.009
-14.022
-14.059
-14.121
-14.204
-14.307
-14.428
-14.566
-14.718
-14.884
-15.061
-15.247
-15.441
-15.641
-15.846
-16.053
-16.262
-16.47
-16.676
-16.88
-17.078
-17.271
-17.457
-17.634
-17.803
-17.962
-18.111
-18.25
-18.378
-18.495
-18.604
-18.703
-18.795
-18.881
-18.962
-19.039
-19.115
-19.189
-19.265
-19.342
-19.422
-19.506
-19.595
-19.69
-19.793
-19.905
-20.027
-20.16
-20.304
-20.461
-20.629
-20.81
-21.004
-21.21
-21.429
-21.66
-21.903
-22.157
-22.422
-22.696
-22.976
-23.26
-23.546
-23.829
-24.107
-24.373
-24.623
-24.853
-25.06
-25.238
-25.384
-25.494
-25.567
-25.599
-25.588
-25.529
-25.419
-25.252
-25.023
-24.726
-24.357
-23.909
-23.381
-22.766
-22.065
-21.279
-20.405
-19.443
-18.391
-17.242
-15.996
-14.657
-13.229
-11.718
-10.138
-8.503
-6.839
-5.17
-3.516
-1.888
-0.293
1.271
2.802
4.302
5.773
7.21
8.608
9.969
11.284
12.554
13.789
15.011
16.252
17.557
18.944
20.419
21.978
23.6
25.258
26.92
28.538
30.083
31.536
32.888
34.143
35.297
36.329
37.207
37.887
38.314
38.459
38.316
37.882
37.177
36.235
35.105
33.851
32.515
31.104
29.583
27.914
26.057
23.993
21.731
19.266
16.584
13.667
10.469
6.954
3.105
-1.152
-5.948
-11.336
-17.297
-23.658
-30.042
-36.129
-41.697
-46.443
-50.052
-52.297
-53.025
-52.505
-51.414
-50.285
-49.526
-49.461
-50.306
-52.353
-55.747
-59.854
-63.398
-65.049
-63.476
-57.685
-46.583
-28.67
-2.829
31.304
72.421
118.482
168.267
219.904
272.178
322.97
366.052
396.098
407.684
395.441
360.568
305.646
233.659
149.972
54.917
-53.844
-175.607
-306.798
-436.958
-549.033
-628.818
-670.249
-675.438
-655.216
-622.032
-582.467
-539.444
-492.302
-439.02
-381.28
-322.384
-266.093
-216.495
-175.664
-143.931
-120.906
-105.27
-95.477
-90.266
-87.959
-86.765
-85.093
-81.504
-75.337
-66.712
-56.027
-43.861
-31.054
-18.463
-6.987
2.451
9.469
14.125
16.64
17.415
16.9
15.498
13.691
11.964
10.563
9.586
9.046
8.887
9.103
9.709
10.674
11.957
13.54
15.4
17.521
19.889
22.452
25.152
27.936
30.772
33.654
36.592
39.603
42.687
45.831
49.018
52.231
55.441
58.617
61.738
64.793
67.788
70.747
73.69
76.636
79.594
82.56
85.524
88.463
91.364
94.225
97.053
99.866
102.692
105.572
108.537
111.611
114.804
118.114
121.535
125.058
128.673
132.369
136.138
139.979
143.889
147.861
151.881
155.926
159.965
163.963
167.885
171.697
175.369
178.875
182.194
185.304
188.187
190.829
193.213
195.319
197.131
198.631
199.807
200.649
201.147
201.293
201.077
200.496
199.549
198.238
196.565
194.539
192.171
189.481
186.492
183.222
179.684
175.89
171.842
167.547
163.011
158.239
153.245
148.041
142.637
137.048
131.287
125.355
119.25
112.951
106.432
99.69
92.729
85.568
78.244
70.798
63.28
55.754
48.272
40.881
33.625
26.534
19.639
12.988
6.629
0.628
-4.939
-10.022
-14.589
-18.614
-22.108
-25.088
-27.59
-29.679
-31.41
-32.824
-33.962
-34.847
-35.499
-35.957
-36.258
-36.448
-36.587
-36.721
-36.881
-37.103
-37.394
-37.753
-38.166
-38.593
-38.999
-39.366
-39.68
-39.938
-40.141
-40.286
-40.369
-40.39
-40.338
-40.207
-39.992
-39.686
-39.289
-38.811
-38.265
-37.675
-37.064
-36.446
-35.831
-35.224
-34.627
-34.041
-33.465
-32.893
-32.323
-31.752
-31.181
-30.612
-30.044
-29.476
-28.905
-28.326
-27.735
-27.13
-26.509
-25.87
-25.213
-24.54
-23.851
-23.15
-22.44
-21.723
-21.002
-20.278
-19.552
-18.824
-18.098
-17.374
-16.653
-15.937
-15.229
-14.532
-13.847
-13.177
-12.526
-11.897
-11.291
-10.711
-10.16
-9.641
-9.153
-8.7
-8.282
-7.9
-7.555
-7.247
-6.975
-6.74
-6.541
-6.378
-6.25
-6.156
-6.094
-6.064
-6.064
-6.094
-6.151
-6.235
-6.344
-6.478
-6.635
-6.813
-7.012
-7.23
-7.465
-7.715
-7.978
-8.253
-8.536
-8.828
-9.125
-9.427
-9.732
-10.04
-10.349
-10.66
-10.973
-11.286
-11.601
-11.918
-12.236
-12.556
-12.88
-13.206
-13.537
-13.872
-14.212
-14.558
-14.91
-15.269
-15.636
-16.009
-16.391
-16.781
-17.18
-17.589
-18.007
-18.436
-18.875
-19.326
-19.789
-20.263
-20.749
-21.246
-21.754
-22.269
-22.792
-23.318
-23.847
-24.374
-24.897
-25.412
-25.916
-26.406
-26.876
-27.323
-27.743
-28.131
-28.484
-28.796
-29.064
-29.284
-29.45
-29.56
-29.61
-29.594
-29.511
-29.355
-29.124
-28.813
-28.42
-27.942
-27.376
-26.72
-25.974
-25.137
-24.21
-23.196
-22.098
-20.919
-19.665
-18.343
-16.957
-15.518
-14.032
-12.508
-10.956
-9.384
-7.801
-6.219
-4.646
-3.094
-1.573
-0.094
1.332
2.694
3.981
5.183
6.29
7.298
8.199
8.986
9.652
10.187
10.584
10.84
10.954
10.923
10.751
10.442
10.01
9.479
8.87
8.205
7.498
6.759
5.999
5.236
4.486
3.771
3.105
2.493
1.941
1.459
1.044
0.683
0.338
-0.065
-0.594
-1.307
-2.255
-3.461
-4.966
-6.828
-9.104
-11.858
-15.139
-18.958
-23.356
-28.421
-34.154
-40.469
-47.143
-53.762
-59.938
-65.385
-69.772
-72.733
-74.042
-73.639
-71.826
-69.323
-66.852
-64.961
-64.156
-64.939
-67.586
-72.027
-77.559
-82.748
-85.894
-85.488
-80.108
-68.021
-47.857
-18.842
19.176
64.31
113.862
166.155
218.37
268.217
313.426
347.604
365.47
362.085
333.07
281.355
210.601
124.814
28.269
-81.076
-203.915
-336.201
-469.649
-588.217
-676.861
-729.173
-746.122
-736.923
-712.924
-679.558
-638.678
-589.657
-530.901
-464.662
-395.235
-326.996
-264.803
-211.936
-169.776
-138.647
-117.733
-105.485
-100.317
-100.353
-103.201
-106.444
-107.936
-106.413
-101.638
-93.91
-83.795
-72.079
-59.743
-47.932
-37.83
-30.032
-24.538
-21.129
-19.384
-18.874
-19.213
-19.87
-20.262
-20.059
-19.145
-17.519
-15.296
-12.534
-9.26
-5.579
-1.632
2.438
6.524
10.576
14.585
18.538
22.403
26.134
29.691
33.053
36.215
39.179
41.941
44.488
46.831
49.001
51.06
53.1
55.184
57.349
59.612
61.961
64.399
66.943
69.6
72.376
75.271
78.282
81.416
84.695
88.124
91.691
95.367
99.097
102.85
106.615
110.391
114.2
118.051
121.941
125.871
129.844
133.859
137.909
141.979
146.038
150.064
154.043
157.967
161.841
165.655
169.392
173.026
176.526
179.864
183.016
185.957
188.66
191.1
193.261
195.128
196.699
197.966
198.92
199.553
199.853
199.814
199.434
198.713
197.651
196.251
194.518
192.456
190.077
187.387
184.395
181.11
177.539
173.693
169.583
165.221
160.622
155.798
150.766
145.542
140.144
134.588
128.893
123.076
117.155
111.149
105.075
98.951
92.797
86.629
80.465
74.322
68.217
62.166
56.184
50.288
44.49
38.805
33.246
27.826
22.556
17.448
12.513
7.76
3.197
-1.165
-5.321
-9.263
-12.986
-16.483
-19.752
-22.789
-25.592
-28.159
-30.491
-32.587
-34.449
-36.08
-37.483
-38.661
-39.62
-40.364
-40.901
-41.235
-41.376
-41.329
-41.105
-40.71
-40.154
-39.446
-38.595
-37.613
-36.507
-35.29
-33.971
-32.561
-31.071
-29.511
-27.891
-26.224
-24.519
-22.788
-21.04
-19.287
-17.537
-15.801
-14.089
-12.408
-10.766
-9.172
-7.632
-6.152
-4.739
-3.397
-2.132
-0.947
0.153
1.166
2.09
2.921
3.659
4.303
4.851
5.305
5.663
5.927
6.099
6.179
6.169
6.073
5.892
5.63
5.292
4.88
4.4
3.857
3.254
2.598
1.894
1.146
0.36
-0.459
-1.306
-2.176
-3.064
-3.966
-4.877
-5.792
-6.707
-7.617
-8.519
-9.409
-10.284
-11.138
-11.97
-12.775
-13.551
-14.295
-15.003
-15.673
-16.303
-16.89
-17.433
-17.93
-18.379
-18.78
-19.133
-19.436
-19.69
-19.896
-20.053
-20.163
-20.226
-20.244
-20.217
-20.147
-20.036
-19.885
-19.696
-19.472
-19.213
-18.922
-18.603
-18.255
-17.884
-17.49
-17.077
-16.647
-16.203
-15.749
-15.287
-14.821
-14.354
-13.889
-13.43
-12.979
-12.54
-12.116
-11.709
-11.322
-10.957
-10.616
-10.3
-10.012
-9.752
-9.521
-9.32
-9.149
-9.008
-8.898
-8.817
-8.764
-8.739
-8.74
-8.764
-8.811
-8.877
-8.96
-9.056
-9.163
-9.277
-9.393
-9.509
-9.619
-9.719
-9.805
-9.871
-9.912
-9.923
-9.9
-9.837
-9.729
-9.572
-9.361
-9.094
-8.765
-8.372
-7.912
-7.383
-6.782
-6.109
-5.363
-4.543
-3.651
-2.688
-1.655
-0.557
0.604
1.823
3.095
4.413
5.77
7.159
8.572
10.002
11.437
12.871
14.294
15.697
17.073
18.412
19.703
20.936
22.101
23.188
24.19
25.097
25.903
26.601
27.19
27.668
28.032
28.281
28.406
28.403
28.27
28.005
27.612
27.098
26.473
25.754
24.962
24.116
23.236
22.338
21.432
20.529
19.641
18.786
17.988
17.273
16.659
16.161
15.789
15.534
15.371
15.262
15.148
14.978
14.718
14.319
13.731
12.899
11.754
10.235
8.297
5.857
2.801
-0.911
-5.25
-10.063
-15.036
-19.899
-24.469
-28.505
-31.745
-34.035
-35.297
-35.78
-36.125
-36.805
-38.006
-39.861
-42.33
-45.332
-48.902
-52.473
-54.811
-54.858
-51.776
-44.938
-34.208
-19.204
1.118
26.95
57.61
92.442
129.546
167.145
204.982
241.109
273.855
302.015
320.471
325.148
311.825
276.158
220.888
149.589
66.329
-25.682
-129.839
-246.469
-371.062
-493.019
-594.247
-662.712
-694.984
-695.786
-677.86
-649.734
-614.367
-572.046
-519.803
-458.181
-391.275
-323.251
-259.114
-202.404
-154.716
-117.038
-89.283
-70.385
-59.012
-53.806
-52.95
-54.573
-56.874
-58.002
-56.964
-53.66
-48.288
-41.269
-33.29
-25.032
-17.326
-11.169
-6.974
-4.674
-4.032
-4.575
-5.819
-7.358
-8.671
-9.221
-8.746
-7.173
-4.549
-1.051
3.19
8.061
13.393
19.014
24.778
30.555
36.244
41.74
46.907
51.604
55.715
59.17
61.951
64.064
65.54
66.434
66.813
66.782
66.452
65.915
65.255
64.55
63.884
63.367
63.13
63.283
63.911
65.072
66.789
69.082
71.948
75.359
79.26
83.568
88.206
93.118
98.265
103.607
109.095
114.662
120.226
125.727
131.117
136.358
141.42
146.271
150.892
155.283
159.466
163.476
167.336
171.05
174.61
178.007
181.235
184.297
187.192
189.909
192.433
194.75
196.848
198.719
200.347
201.708
202.77
203.497
203.863
203.852
203.455
202.664
201.473
199.878
197.881
195.492
192.72
189.572
186.057
182.183
177.963
173.413
168.554
163.405
157.989
152.326
146.435
140.341
134.064
127.628
121.051
114.356
107.563
100.697
93.779
86.835
79.886
72.957
66.068
59.243
52.501
45.864
39.349
32.973
26.754
20.707
14.846
9.186
3.737
-1.487
-6.479
-11.228
-15.729
-19.973
-23.958
-27.68
-31.137
-34.328
-37.253
-39.914
-42.314
-44.457
-46.348
-47.994
-49.4
-50.577
-51.533
-52.277
-52.822
-53.177
-53.354
-53.365
-53.221
-52.936
-52.52
-51.985
-51.343
-50.606
-49.786
-48.894
-47.94
-46.936
-45.892
-44.817
-43.722
-42.614
-41.502
-40.393
-39.296
-38.215
-37.157
-36.127
-35.13
-34.169
-33.248
-32.369
-31.533
-30.742
-29.996
-29.295
-28.638
-28.026
-27.456
-26.929
-26.441
-25.993
-25.581
-25.206
-24.864
-24.555
-24.275
-24.024
-23.8
-23.6
-23.423
-23.268
-23.133
-23.016
-22.917
-22.835
-22.767
-22.714
-22.673
-22.644
-22.627
-22.62
-22.623
-22.636
-22.658
-22.689
-22.73
-22.779
-22.838
-22.906
-22.982
-23.067
-23.16
-23.26
-23.367
-23.479
-23.597
-23.718
-23.842
-23.967
-24.092
-24.216
-24.337
-24.454
-24.565
-24.668
-24.762
-24.845
-24.917
-24.976
-25.022
-25.054
-25.071
-25.074
-25.062
-25.035
-24.995
-24.94
-24.873
-24.793
-24.703
-24.603
-24.496
-24.383
-24.267
-24.149
-24.033
-23.922
-23.818
-23.724
-23.644
-23.581
-23.538
-23.519
-23.527
-23.565
-23.637
-23.746
-23.896
-24.088
-24.326
-24.612
-24.947
-25.334
-25.773
-26.265
-26.81
-27.409
-28.061
-28.765
-29.52
-30.324
-31.175
-32.071
-33.009
-33.984
-34.994
-36.034
-37.1
-38.186
-39.287
-40.398
-41.513
-42.625
-43.73
-44.819
-45.888
-46.928
-47.934
-48.898
-49.815
-50.676
-51.476
-52.208
-52.865
-53.443
-53.934
-54.333
-54.636
-54.838
-54.933
-54.919
-54.791
-54.547
-54.184
-53.701
-53.096
-52.368
-51.519
-50.55
-49.462
-48.259
-46.944
-45.522
-43.999
-42.381
-40.674
-38.886
-37.025
-35.1
-33.12
-31.094
-29.032
-26.944
-24.841
-22.734
-20.634
-18.552
-16.499
-14.486
-12.525
-10.627
-8.804
-7.064
-5.415
-3.863
-2.416
-1.081
0.133
1.22
2.18
3.013
3.719
4.299
4.758
5.102
5.352
5.524
5.636
5.7
5.722
5.711
5.682
5.65
5.634
5.645
5.685
5.755
5.858
5.996
6.162
6.33
6.447
6.449
6.281
5.895
5.259
4.347
3.117
1.509
-0.541
-3.079
-6.135
-9.716
-13.859
-18.657
-24.113
-30.086
-36.297
-42.336
-47.819
-52.487
-56.037
-58.037
-58.266
-56.813
-54.126
-51.047
-48.343
-46.66
-46.646
-48.878
-53.722
-60.201
-66.635
-71.908
-74.372
-73.827
-70.024
-59.13
-38.541
-6.276
38.337
90.595
146.527
203.021
256.718
304.827
341.297
359.153
351.921
316.732
257.328
179.758
91.237
-3.12
-104.107
-214.534
-334.292
-458.698
-575.473
-667.66
-724.759
-743.924
-731.162
-700.108
-660.002
-615.736
-568.607
-515.549
-456.935
-395.532
-334.309
-278.034
-229.694
-189.96
-159.245
-136.745
-120.835
-110.67
-105.23
-102.72
-101.645
-100.55
-97.954
-93.453
-87.332
-79.713
-70.989
-61.846
-52.797
-44.59
-38.051
-33.359
-30.375
-28.888
-28.479
-28.762
-29.444
-30.083
-30.223
-29.632
-28.192
-25.917
-22.943
-19.375
-15.325
-10.944
-6.392
-1.81
2.691
7.044
11.211
15.164
18.892
22.367
25.559
28.442
30.985
33.19
35.085
36.715
38.149
39.47
40.771
42.138
43.653
45.361
47.286
49.423
51.747
54.241
56.906
59.742
62.764
65.976
69.373
72.942
76.666
80.509
84.423
88.362
92.284
96.171
100.025
103.868
107.737
111.655
115.637
119.685
123.79
127.931
132.087
136.228
140.329
144.377
148.375
152.331
156.257
160.153
164.006
167.786
171.458
174.993
178.366
181.561
184.574
187.414
190.101
192.662
195.119
197.475
199.717
201.81
203.708
205.363
206.737
207.805
208.549
208.953
209.003
208.685
207.973
206.837
205.237
203.12
200.45
197.209
193.404
189.071
184.26
179.043
173.482
167.628
161.53
155.227
148.757
142.154
135.459
128.713
121.968
115.292
108.739
102.355
96.165
90.175
84.375
78.742
73.255
67.898
62.663
57.547
52.553
47.686
42.953
38.36
33.907
29.582
25.376
21.281
17.297
13.432
9.699
6.117
2.704
-0.526
-3.56
-6.393
-9.023
-11.453
-13.687
-15.734
-17.599
-19.285
-20.794
-22.129
-23.294
-24.292
-25.133
-25.822
-26.371
-26.786
-27.078
-27.254
-27.321
-27.285
-27.149
-26.919
-26.596
-26.187
-25.694
-25.124
-24.481
-23.771
-22.999
-22.172
-21.293
-20.37
-19.406
-18.405
-17.374
-16.315
-15.235
-14.137
-13.027
-11.908
-10.786
-9.665
-8.55
-7.444
-6.353
-5.28
-4.23
-3.206
-2.211
-1.251
-0.327
0.557
1.397
2.192
2.938
3.632
4.272
4.856
5.383
5.85
6.257
6.603
6.888
7.112
7.274
7.377
7.42
7.406
7.336
7.213
7.038
6.816
6.547
6.237
5.888
5.504
5.089
4.646
4.179
3.692
3.19
2.675
2.151
1.623
1.092
0.563
0.039
-0.478
-0.985
-1.479
-1.957
-2.416
-2.856
-3.272
-3.665
-4.032
-4.373
-4.688
-4.976
-5.24
-5.478
-5.694
-5.888
-6.063
-6.22
-6.362
-6.49
-6.609
-6.72
-6.826
-6.931
-7.037
-7.148
-7.268
-7.399
-7.543
-7.704
-7.883
-8.083
-8.307
-8.557
-8.834
-9.142
-9.481
-9.856
-10.266
-10.713
-11.198
-11.721
-12.28
-12.875
-13.502
-14.158
-14.84
-15.543
-16.265
-17.001
-17.748
-18.5
-19.255
-20.01
-20.759
-21.498
-22.221
-22.919
-23.587
-24.216
-24.798
-25.326
-25.792
-26.187
-26.507
-26.747
-26.904
-26.971
-26.939
-26.798
-26.542
-26.167
-25.674
-25.063
-24.338
-23.508
-22.591
-21.613
-20.591
-19.538
-18.46
-17.353
-16.219
-15.058
-13.868
-12.649
-11.399
-10.112
-8.788
-7.432
-6.038
-4.591
-3.061
-1.404
0.408
2.381
4.516
6.793
9.186
11.667
14.188
16.691
19.131
21.465
23.662
25.706
27.567
29.208
30.587
31.643
32.335
32.649
32.57
32.105
31.282
30.141
28.749
27.192
25.529
23.807
22.064
20.315
18.577
16.863
15.161
13.462
11.753
10.009
8.214
6.351
4.371
2.199
-0.259
-3.109
-6.424
-10.239
-14.61
-19.62
-25.267
-31.431
-37.856
-44.136
-49.897
-54.876
-58.757
-61.13
-61.756
-60.655
-58.186
-55.171
-52.404
-50.418
-49.785
-51.105
-54.638
-60.145
-66.704
-72.572
-75.977
-75.248
-68.473
-53.987
-30.439
2.1
41.62
86.49
135.232
186.841
241.459
294.549
337.824
363.211
361.678
330.623
275.26
201.891
117.827
27.325
-72.189
-184.463
-308.519
-438.377
-560.383
-656.514
-716.826
-739.431
-730.58
-703.935
-668.163
-626.815
-580.621
-526.596
-465.187
-400.067
-335.184
-275.449
-224.06
-182.034
-149.487
-125.583
-109.038
-98.606
-92.804
-89.731
-87.415
-84.068
-78.671
-71.07
-61.55
-50.618
-38.91
-27.212
-16.494
-7.797
-1.668
1.901
3.157
2.553
0.579
-2.325
-5.609
-8.649
-11.05
-12.616
-13.252
-13.016
-11.971
-10.144
-7.633
-4.565
-1.035
2.857
7.022
11.403
15.904
20.427
24.892
29.208
33.305
37.126
40.614
43.74
46.511
48.941
51.063
52.917
54.543
55.992
57.322
58.589
59.844
61.137
62.506
63.994
65.644
67.489
69.567
71.898
74.493
77.359
80.495
83.898
87.561
91.472
95.614
99.97
104.525
109.266
114.176
119.238
124.433
129.737
135.13
140.587
146.086
151.603
157.112
162.588
168.005
173.339
178.565
183.656
188.587
193.331
197.863
202.156
206.186
209.931
213.368
216.476
219.236
221.63
223.644
225.263
226.475
227.271
227.64
227.578
227.079
226.14
224.76
222.94
220.683
217.995
214.882
211.354
207.422
203.1
198.401
193.343
187.944
182.223
176.202
169.902
163.347
156.562
149.57
142.399
135.073
127.619
120.065
112.436
104.759
97.06
89.365
81.699
74.088
66.556
59.126
51.821
44.663
37.673
30.872
24.278
17.91
11.782
5.911
0.309
-5.011
-10.04
-14.769
-19.191
-23.301
-27.094
-30.569
-33.725
-36.563
-39.085
-41.296
-43.2
-44.805
-46.117
-47.147
-47.903
-48.395
-48.637
-48.639
-48.415
-47.979
-47.344
-46.525
-45.538
-44.397
-43.118
-41.718
-40.211
-38.614
-36.941
-35.208
-33.43
-31.621
-29.795
-27.965
-26.143
-24.341
-22.571
-20.842
-19.165
-17.546
-15.995
-14.517
-13.118
-11.803
-10.575
-9.44
-8.398
-7.451
-6.601
-5.847
-5.19
-4.627
-4.158
-3.779
-3.488
-3.279
-3.15
-3.095
-3.109
-3.187
-3.323
-3.51
-3.743
-4.016
-4.321
-4.653
-5.005
-5.372
-5.747
-6.125
-6.5
-6.869
-7.225
-7.566
-7.886
-8.184
-8.455
-8.696
-8.906
-9.082
-9.223
-9.326
-9.392
-9.419
-9.408
-9.36
-9.274
-9.153
-8.999
-8.812
-8.596
-8.354
-8.088
-7.803
-7.501
-7.186
-6.863
-6.536
-6.207
-5.882
-5.565
-5.258
-4.965
-4.69
-4.435
-4.204
-4.0
-3.825
-3.682
-3.573
-3.499
-3.464
-3.467
-3.511
-3.596
-3.724
-3.893
-4.104
-4.356
-4.648
-4.978
-5.344
-5.744
-6.173
-6.629
-7.107
-7.602
-8.11
-8.625
-9.141
-9.654
-10.158
-10.647
-11.115
-11.556
-11.965
-12.337
-12.665
-12.943
-13.167
-13.33
-13.427
-13.454
-13.405
-13.275
-13.061
-12.757
-12.36
-11.867
-11.275
-10.582
-9.786
-8.887
-7.886
-6.783
-5.583
-4.288
-2.902
-1.433
0.113
1.73
3.41
5.143
6.922
8.736
10.577
12.434
14.298
16.157
18.001
19.818
21.598
23.329
25.002
26.606
28.128
29.558
30.887
32.108
33.216
34.202
35.059
35.778
36.355
36.791
37.085
37.239
37.259
37.147
36.916
36.587
36.179
35.713
35.201
34.652
34.076
33.486
32.9
32.339
31.815
31.33
30.887
30.491
30.143
29.836
29.545
29.214
28.782
28.192
27.404
26.391
25.137
23.606
21.744
19.496
16.816
13.669
10.048
5.905
1.142
-4.24
-10.106
-16.179
-22.021
-27.236
-31.57
-34.718
-36.268
-36.035
-34.118
-30.972
-27.562
-24.795
-23.228
-23.453
-26.077
-31.249
-38.567
-47.014
-54.682
-59.504
-59.669
-53.185
-38.115
-13.814
18.847
58.475
103.465
153.884
210.82
272.443
332.597
380.46
404.62
398.316
361.516
301.524
227.375
145.092
57.284
-38.947
-148.028
-268.987
-396.227
-517.444
-615.661
-680.549
-708.864
-705.316
-682.431
-649.017
-609.505
-565.278
-513.608
-454.821
-392.28
-329.798
-272.383
-223.286
-183.55
-153.288
-131.583
-117.069
-108.406
-103.997
-101.87
-100.054
-96.803
-91.141
-82.943
-72.513
-60.407
-47.328
-34.135
-21.844
-11.486
-3.59
1.853
5.086
6.526
6.617
5.761
4.477
3.334
2.667
2.601
3.159
4.247
5.794
7.781
10.106
12.631
15.252
17.862
20.386
22.784
24.979
26.888
28.456
29.633
30.414
30.827
30.904
30.701
30.3
29.777
29.242
28.803
28.543
28.551
28.904
29.667
30.909
32.687
35.024
37.934
41.413
45.426
49.935
54.872
60.139
65.65
71.307
77.025
82.745
88.408
93.961
99.363
104.575
109.568
114.335
118.867
123.157
127.215
131.056
134.713
138.24
141.681
145.071
148.434
151.777
155.105
158.418
161.705
164.945
168.117
171.191
174.14
176.946
179.581
182.016
184.214
186.13
187.723
188.964
189.833
190.315
190.402
190.092
189.39
188.315
186.89
185.136
183.074
180.718
178.079
175.169
171.999
168.583
164.935
161.058
156.948
152.596
147.987
143.104
137.93
132.436
126.584
120.343
113.694
106.628
99.15
91.277
83.035
74.459
65.587
56.478
47.209
37.865
28.544
19.339
10.34
1.644
-6.639
-14.411
-21.592
-28.115
-33.939
-39.036
-43.394
-47.014
-49.912
-52.129
-53.726
-54.781
-55.385
-55.624
-55.573
-55.315
-54.938
-54.522
-54.135
-53.83
-53.641
-53.594
-53.709
-53.996
-54.452
-55.06
-55.788
-56.593
-57.424
-58.24
-59.01
-59.703
-60.288
-60.741
-61.046
-61.194
-61.191
-61.039
-60.742
-60.307
-59.744
-59.072
-58.311
-57.487
-56.628
-55.757
-54.887
-54.034
-53.208
-52.416
-51.663
-50.95
-50.27
-49.622
-49.006
-48.421
-47.865
-47.338
-46.836
-46.355
-45.892
-45.444
-45.009
-44.587
-44.176
-43.777
-43.39
-43.016
-42.657
-42.316
-41.991
-41.682
-41.389
-41.111
-40.846
-40.593
-40.352
-40.12
-39.897
-39.682
-39.477
-39.279
-39.09
-38.908
-38.734
-38.568
-38.409
-38.257
-38.111
-37.972
-37.838
-37.709
-37.586
-37.467
-37.353
-37.243
-37.137
-37.034
-36.935
-36.839
-36.746
-36.655
-36.568
-36.485
-36.405
-36.331
-36.264
-36.204
-36.154
-36.114
-36.086
-36.071
-36.07
-36.083
-36.113
-36.158
-36.221
-36.301
-36.4
-36.519
-36.658
-36.82
-37.003
-37.209
-37.439
-37.692
-37.968
-38.268
-38.591
-38.938
-39.307
-39.699
-40.113
-40.548
-41.003
-41.476
-41.965
-42.467
-42.978
-43.494
-44.01
-44.522
-45.026
-45.517
-45.99
-46.443
-46.871
-47.271
-47.642
-47.979
-48.277
-48.533
-48.739
-48.89
-48.981
-49.005
-48.954
-48.823
-48.606
-48.3
-47.902
-47.41
-46.82
-46.125
-45.318
-44.395
-43.357
-42.206
-40.944
-39.58
-38.126
-36.6
-35.03
-33.437
-31.832
-30.222
-28.608
-26.988
-25.366
-23.741
-22.114
-20.485
-18.85
-17.209
-15.57
-13.926
-12.263
-10.557
-8.761
-6.851
-4.819
-2.67
-0.423
1.893
4.249
6.601
8.898
11.099
13.165
15.075
16.817
18.373
19.718
20.81
21.589
22.015
22.07
21.748
21.062
20.042
18.728
17.182
15.477
13.672
11.813
9.923
8.008
6.074
4.113
2.133
0.149
-1.841
-3.847
-5.884
-7.98
-10.163
-12.478
-14.997
-17.797
-20.947
-24.494
-28.448
-32.82
-37.647
-42.882
-48.391
-53.948
-59.201
-63.814
-67.536
-70.074
-71.036
-70.162
-67.481
-63.357
-58.507
-53.716
-49.498
-46.321
-44.903
-45.742
-48.687
-52.971
-57.133
-59.417
-58.454
-52.893
-40.832
-20.503
8.269
44.073
84.876
127.982
173.082
221.945
272.717
320.921
357.836
370.546
351.338
299.26
220.294
126.125
26.649
-75.842
-183.188
-291.642
-410.626
-551.025
-668.485
-716.388
-724.139
-729.663
-723.539
-697.593
-662.383
-620.647
-568.829
-508.823
-444.652
-380.161
-319.744
-266.19
-220.837
-184.611
-157.417
-138.225
-125.806
-118.884
-115.756
-114.75
-114.258
-112.611
-108.993
-103.417
-96.134
-87.595
-78.469
-69.394
-61.147
-54.662
-50.307
-47.991
-47.465
-48.257
-49.899
-52.007
-54.085
-55.587
-56.195
-55.78
-54.337
-52.003
-48.892
-45.081
-40.699
-35.885
-30.767
-25.463
-20.063
-14.637
-9.264
-4.034
0.967
5.655
9.96
13.848
17.306
20.348
23.001
25.301
27.287
29.009
30.524
31.888
33.153
34.368
35.574
36.816
38.139
39.591
41.212
43.032
45.07
47.336
49.837
52.575
55.549
58.753
62.175
65.806
69.635
73.654
77.855
82.227
86.754
91.42
96.209
101.102
106.082
111.131
116.228
121.354
126.487
131.607
136.693
141.723
146.674
151.521
156.241
160.809
165.203
169.399
173.374
177.107
180.578
183.767
186.657
189.231
191.474
193.372
194.912
196.085
196.882
197.295
197.32
196.952
196.19
195.035
193.489
191.556
189.241
186.553
183.5
180.095
176.349
172.278
167.897
163.222
158.274
153.071
147.634
141.984
136.143
130.135
123.983
117.711
111.343
104.902
98.414
91.902
85.391
78.903
72.463
66.092
59.812
53.646
47.612
41.731
36.019
30.495
25.174
20.07
15.197
10.565
6.186
2.067
-1.785
-5.364
-8.666
-11.691
-14.436
-16.903
-19.095
-21.014
-22.665
-24.056
-25.192
-26.082
-26.735
-27.162
-27.374
-27.382
-27.199
-26.839
-26.314
-25.639
-24.827
-23.892
-22.849
-21.711
-20.493
-19.208
-17.87
-16.491
-15.084
-13.661
-12.232
-10.808
-9.398
-8.01
-6.653
-5.333
-4.054
-2.824
-1.644
-0.519
0.549
1.559
2.509
3.399
4.23
5.002
5.718
6.38
6.99
7.552
8.069
8.544
8.982
9.388
9.764
10.116
10.448
10.765
11.071
11.371
11.669
11.969
12.275
12.591
12.918
13.261
13.619
13.996
14.392
14.808
15.245
15.701
16.178
16.674
17.188
17.719
18.266
18.827
19.399
19.982
20.572
21.168
21.767
22.366
22.964
23.558
24.145
24.723
25.29
25.843
26.38
26.898
27.395
27.868
28.316
28.736
29.128
29.488
29.818
30.114
30.379
30.609
30.807
30.972
31.103
31.202
31.268
31.303
31.305
31.277
31.218
31.129
31.01
30.864
30.69
30.49
30.263
30.012
29.735
29.436
29.112
28.766
28.398
28.009
27.6
27.172
26.726
26.264
25.788
25.297
24.795
24.282
23.76
23.23
22.693
22.152
21.608
21.064
20.522
19.985
19.457
18.941
18.442
17.963
17.507
17.078
16.678
16.311
15.979
15.684
15.43
15.219
15.057
14.95
14.903
14.923
15.015
15.184
15.436
15.773
16.198
16.709
17.307
17.992
18.765
19.633
20.595
21.648
22.789
24.011
25.302
26.65
28.032
29.422
30.804
32.162
33.49
34.791
36.063
37.306
38.525
39.712
40.863
41.982
43.063
44.104
45.114
46.102
47.099
48.148
49.272
50.483
51.788
53.169
54.612
56.106
57.619
59.133
60.633
62.097
63.519
64.897
66.211
67.439
68.54
69.444
70.107
70.502
70.593
70.375
69.831
68.937
67.695
66.099
64.115
61.724
58.891
55.576
51.779
47.488
42.688
37.402
31.633
25.381
18.692
11.575
4.006
-3.937
-12.101
-20.229
-27.919
-34.811
-40.65
-45.132
-47.859
-48.588
-47.351
-44.526
-40.841
-36.989
-33.345
-30.252
-28.305
-27.914
-28.922
-30.592
-31.538
-30.231
-25.588
-16.535
-1.439
21.277
51.782
88.761
130.32
174.052
219.871
269.707
321.836
371.807
411.04
426.626
410.962
363.058
288.238
197.576
99.357
-4.604
-117.625
-242.328
-375.387
-504.642
-611.511
-683.463
-717.112
-718.652
-702.289
-677.206
-646.588
-610.376
-564.875
-510.089
-449.824
-387.646
-327.548
-272.575
-223.913
-182.33
-148.417
-121.828
-101.617
-87.207
-77.813
-72.028
-68.621
-66.195
-63.164
-58.948
-53.604
-47.074
-39.596
-31.683
-23.711
-16.373
-10.542
-6.46
-4.032
-3.076
-3.169
-3.921
-5.055
-6.142
-6.703
-6.514
-5.485
-3.647
-1.191
1.74
5.034
8.536
12.091
15.564
18.834
21.807
24.429
26.656
28.463
29.842
30.796
31.362
31.603
31.616
31.534
31.48
31.561
31.873
32.497
33.516
35.008
37.035
39.634
42.814
46.57
50.886
55.734
61.063
66.792
72.812
79.002
85.263
91.517
97.698
103.749
109.615
115.25
120.624
125.733
130.576
135.154
139.467
143.52
147.334
150.942
154.389
157.709
160.926
164.055
167.107
170.095
173.028
175.907
178.724
181.453
184.075
186.575
188.938
191.146
193.19
195.056
196.741
198.255
199.601
200.775
201.77
202.562
203.127
203.443
203.48
203.226
202.673
201.807
200.624
199.119
197.267
195.042
192.402
189.292
185.676
181.523
176.807
171.53
165.698
159.333
152.477
145.15
137.369
129.157
120.528
111.51
102.152
92.514
82.666
72.699
62.701
52.767
42.998
33.485
24.302
15.507
7.141
-0.74
-8.077
-14.822
-20.929
-26.371
-31.139
-35.235
-38.668
-41.47
-43.69
-45.392
-46.658
-47.575
-48.216
-48.641
-48.905
-49.07
-49.196
-49.335
-49.531
-49.812
-50.197
-50.707
-51.353
-52.139
-53.05
-54.06
-55.13
-56.214
-57.277
-58.291
-59.231
-60.074
-60.799
-61.392
-61.847
-62.169
-62.36
-62.424
-62.362
-62.18
-61.89
-61.51
-61.06
-60.563
-60.037
-59.494
-58.948
-58.405
-57.873
-57.353
-56.844
-56.34
-55.836
-55.329
-54.817
-54.297
-53.767
-53.222
-52.659
-52.074
-51.465
-50.83
-50.169
-49.483
-48.772
-48.038
-47.283
-46.513
-45.729
-44.934
-44.131
-43.321
-42.506
-41.688
-40.869
-40.049
-39.23
-38.414
-37.603
-36.798
-36.002
-35.218
-34.447
-33.693
-32.958
-32.245
-31.556
-30.895
-30.264
-29.665
-29.099
-28.57
-28.077
-27.622
-27.207
-26.83
-26.492
-26.193
-25.932
-25.708
-25.522
-25.371
-25.255
-25.173
-25.125
-25.108
-25.124
-25.17
-25.247
-25.354
-25.49
-25.655
-25.848
-26.069
-26.315
-26.587
-26.882
-27.2
-27.538
-27.895
-28.268
-28.657
-29.058
-29.471
-29.893
-30.323
-30.76
-31.203
-31.651
-32.103
-32.56
-33.023
-33.49
-33.963
-34.441
-34.926
-35.417
-35.915
-36.419
-36.93
-37.446
-37.966
-38.49
-39.015
-39.54
-40.06
-40.575
-41.082
-41.579
-42.063
-42.533
-42.987
-43.426
-43.847
-44.25
-44.634
-44.996
-45.332
-45.641
-45.916
-46.153
-46.346
-46.488
-46.572
-46.594
-46.546
-46.422
-46.215
-45.912
-45.508
-45.0
-44.387
-43.672
-42.856
-41.948
-40.958
-39.902
-38.796
-37.652
-36.48
-35.289
-34.082
-32.866
-31.647
-30.432
-29.222
-28.006
-26.77
-25.496
-24.162
-22.745
-21.214
-19.53
-17.66
-15.584
-13.293
-10.788
-8.071
-5.152
-2.046
1.234
4.657
8.183
11.771
15.36
18.89
22.302
25.52
28.462
31.063
33.274
35.065
36.421
37.328
37.781
37.79
37.358
36.508
35.261
33.631
31.661
29.397
26.885
24.188
21.365
18.458
15.492
12.472
9.386
6.224
2.975
-0.373
-3.828
-7.404
-11.106
-14.916
-18.84
-22.869
-27.011
-31.327
-35.777
-40.23
-44.469
-48.125
-50.833
-52.342
-52.295
-50.265
-46.16
-40.096
-32.493
-24.318
-16.342
-9.056
-3.259
0.341
1.672
0.967
-0.81
-1.742
-0.408
4.481
14.949
32.63
58.493
92.358
132.062
174.843
218.913
263.99
309.748
353.334
388.653
406.127
396.486
356.017
287.334
198.558
99.144
-6.088
-118.143
-239.697
-369.661
-499.929
-615.009
-699.251
-745.096
-753.36
-733.231
-696.874
-651.261
-599.823
-542.857
-479.057
-410.519
-340.914
-274.341
-215.306
-166.272
-127.84
-99.702
-80.367
-68.049
-61.337
-58.364
-57.18
-56.071
-53.404
-48.439
-41.345
-32.549
-22.622
-12.37
-2.543
6.036
12.426
16.286
17.756
17.117
14.887
11.565
7.545
3.346
-0.474
-3.59
-5.812
-7.077
-7.47
-7.033
-5.802
-3.879
-1.359
1.652
5.049
8.774
12.776
17.007
21.44
26.015
30.661
35.32
39.909
44.366
48.652
52.712
56.519
60.07
63.369
66.445
69.344
72.089
74.704
77.202
79.574
81.832
83.999
86.095
88.163
90.248
92.388
94.638
97.043
99.623
102.389
105.337
108.445
111.698
115.081
118.581
122.197
125.929
129.769
133.712
137.741
141.83
145.954
150.091
154.218
158.327
162.418
166.492
170.568
174.672
178.82
183.025
187.282
191.573
195.877
200.166
204.412
208.586
212.649
216.55
220.239
223.661
226.751
229.447
231.668
233.32
234.32
234.604
234.118
232.829
230.715
227.76
223.964
219.346
213.932
207.758
200.866
193.292
185.09
176.329
167.092
157.485
147.61
137.562
127.438
117.333
107.328
97.501
87.91
78.591
69.583
60.928
52.668
44.855
37.525
30.69
24.355
18.508
13.126
8.183
3.636
-0.575
-4.498
-8.168
-11.61
-14.83
-17.844
-20.676
-23.355
-25.916
-28.388
-30.784
-33.119
-35.403
-37.633
-39.8
-41.877
-43.822
-45.604
-47.209
-48.627
-49.866
-50.926
-51.806
-52.504
-53.023
-53.365
-53.536
-53.543
-53.388
-53.084
-52.65
-52.11
-51.502
-50.854
-50.183
-49.506
-48.834
-48.176
-47.541
-46.933
-46.354
-45.804
-45.286
-44.802
-44.355
-43.946
-43.572
-43.229
-42.909
-42.608
-42.322
-42.045
-41.774
-41.506
-41.238
-40.968
-40.697
-40.424
-40.146
-39.863
-39.571
-39.269
-38.955
-38.627
-38.285
-37.928
-37.556
-37.169
-36.769
-36.358
-35.937
-35.51
-35.078
-34.645
-34.214
-33.79
-33.375
-32.973
-32.589
-32.226
-31.888
-31.579
-31.301
-31.057
-30.849
-30.681
-30.552
-30.466
-30.421
-30.42
-30.462
-30.546
-30.672
-30.84
-31.046
-31.291
-31.57
-31.883
-32.226
-32.597
-32.99
-33.405
-33.835
-34.278
-34.729
-35.185
-35.641
-36.093
-36.538
-36.971
-37.39
-37.792
-38.174
-38.534
-38.87
-39.182
-39.468
-39.729
-39.965
-40.176
-40.363
-40.528
-40.673
-40.801
-40.913
-41.014
-41.106
-41.193
-41.279
-41.367
-41.46
-41.564
-41.68
-41.812
-41.964
-42.138
-42.337
-42.563
-42.819
-43.106
-43.425
-43.777
-44.161
-44.577
-45.023
-45.498
-45.998
-46.521
-47.063
-47.619
-48.187
-48.759
-49.332
-49.898
-50.452
-50.986
-51.494
-51.967
-52.399
-52.782
-53.109
-53.372
-53.564
-53.678
-53.708
-53.648
-53.493
-53.237
-52.875
-52.405
-51.823
-51.127
-50.318
-49.394
-48.358
-47.213
-45.964
-44.613
-43.169
-41.636
-40.023
-38.336
-36.582
-34.771
-32.91
-31.01
-29.081
-27.135
-25.183
-23.237
-21.311
-19.417
-17.568
-15.774
-14.044
-12.386
-10.809
-9.322
-7.939
-6.668
-5.516
-4.486
-3.584
-2.809
-2.158
-1.619
-1.167
-0.782
-0.444
-0.136
0.151
0.431
0.722
1.041
1.408
1.838
2.332
2.897
3.541
4.256
5.026
5.803
6.506
7.061
7.402
7.467
7.215
6.58
5.476
3.83
1.568
-1.366
-4.987
-9.346
-14.521
-20.489
-27.159
-34.305
-41.534
-48.529
-55.053
-60.804
-65.492
-68.893
-70.81
-71.421
-71.232
-70.605
-69.869
-69.204
-68.56
-68.121
-68.159
-68.33
-67.876
-65.403
-58.829
-47.025
-29.873
-8.752
13.942
36.743
59.873
87.348
123.906
172.947
235.309
303.562
367.299
414.952
433.761
419.359
372.161
297.129
206.456
108.344
6.751
-98.939
-216.534
-348.465
-488.342
-622.091
-728.262
-792.143
-810.175
-788.081
-740.266
-678.393
-610.107
-541.007
-472.472
-407.484
-348.13
-293.507
-244.099
-199.266
-159.277
-126.903
-102.786
-86.594
-77.322
-71.901
-68.035
-64.292
-59.203
-52.42
-44.203
-34.746
-24.508
-14.23
-4.539
3.869
10.136
13.983
15.587
15.225
13.415
10.696
7.489
4.315
1.758
0.159
-0.334
0.316
1.986
4.568
7.996
12.135
16.837
21.963
27.376
32.967
38.651
44.333
49.903
55.26
60.3
64.939
69.133
72.862
76.134
78.974
81.415
83.5
85.28
86.815
88.167
89.392
90.541
91.661
92.803
94.016
95.353
96.861
98.574
100.514
102.693
105.117
107.789
110.71
113.875
117.276
120.906
124.752
128.802
133.046
137.463
142.032
146.722
151.497
156.323
161.17
166.01
170.819
175.571
180.236
184.786
189.197
193.449
197.533
201.444
205.178
208.742
212.15
215.424
218.599
221.707
224.762
227.779
230.762
233.717
236.661
239.6
242.527
245.419
248.234
250.914
253.404
255.626
257.489
258.899
259.741
259.912
259.336
257.941
255.661
252.432
248.177
242.832
236.372
228.801
220.15
210.483
199.87
188.408
176.228
163.468
150.286
136.839
123.258
109.679
96.251
83.128
70.489
58.501
47.287
36.941
27.528
19.082
11.627
5.161
-0.359
-4.986
-8.785
-11.827
-14.169
-15.879
-17.051
-17.794
-18.242
-18.527
-18.747
-18.978
-19.281
-19.7
-20.271
-21.014
-21.919
-22.972
-24.155
-25.451
-26.852
-28.34
-29.88
-31.425
-32.912
-34.284
-35.507
-36.553
-37.404
-38.052
-38.488
-38.719
-38.765
-38.646
-38.383
-37.99
-37.479
-36.866
-36.174
-35.43
-34.665
-33.904
-33.166
-32.465
-31.811
-31.214
-30.679
-30.205
-29.788
-29.422
-29.103
-28.83
-28.603
-28.419
-28.273
-28.162
-28.08
-28.023
-27.988
-27.973
-27.974
-27.987
-28.013
-28.048
-28.093
-28.147
-28.208
-28.272
-28.338
-28.401
-28.459
-28.509
-28.548
-28.573
-28.583
-28.574
-28.547
-28.5
-28.433
-28.344
-28.235
-28.103
-27.952
-27.78
-27.589
-27.381
-27.158
-26.92
-26.671
-26.412
-26.145
-25.873
-25.598
-25.322
-25.047
-24.776
-24.511
-24.254
-24.009
-23.777
-23.562
-23.367
-23.195
-23.048
-22.93
-22.842
-22.787
-22.765
-22.78
-22.831
-22.919
-23.045
-23.209
-23.411
-23.652
-23.931
-24.246
-24.597
-24.982
-25.398
-25.842
-26.313
-26.807
-27.32
-27.85
-28.394
-28.949
-29.511
-30.076
-30.642
-31.204
-31.757
-32.298
-32.821
-33.32
-33.79
-34.227
-34.626
-34.984
-35.295
-35.559
-35.772
-35.934
-36.041
-36.09
-36.078
-36.0
-35.853
-35.632
-35.333
-34.954
-34.491
-33.945
-33.316
-32.609
-31.826
-30.969
-30.037
-29.029
-27.945
-26.79
-25.569
-24.291
-22.968
-21.615
-20.257
-18.919
-17.621
-16.376
-15.191
-14.063
-12.99
-11.971
-11.0
-10.084
-9.222
-8.409
-7.649
-6.937
-6.26
-5.603
-4.928
-4.185
-3.344
-2.387
-1.305
-0.116
1.169
2.533
3.945
5.385
6.837
8.274
9.69
11.078
12.416
13.681
14.828
15.785
16.508
16.966
17.137
17.023
16.627
15.946
15.001
13.792
12.315
10.572
8.548
6.238
3.63
0.697
-2.573
-6.18
-10.125
-14.398
-19.02
-24.07
-29.551
-35.378
-41.359
-47.129
-52.356
-56.816
-60.212
-62.2
-62.582
-61.329
-58.835
-55.964
-53.521
-52.071
-52.126
-54.125
-58.267
-64.402
-71.578
-78.01
-81.826
-81.421
-75.197
-61.491
-39.066
-7.123
33.518
80.008
130.29
182.854
236.498
291.248
343.065
384.263
407.667
405.282
374.591
320.425
248.602
166.19
77.703
-19.068
-127.705
-248.264
-376.376
-499.47
-600.091
-667.589
-698.726
-699.184
-682.646
-657.997
-628.895
-595.661
-554.448
-504.761
-449.659
-392.289
-336.866
-286.624
-242.863
-206.382
-177.214
-154.575
-137.545
-125.365
-116.892
-110.509
-104.61
-97.634
-88.677
-77.744
-65.14
-51.195
-36.478
-21.752
-7.907
4.052
13.605
20.785
25.799
28.986
30.722
31.338
31.251
30.928
30.623
30.415
30.312
30.236
30.156
30.091
30.025
29.933
29.801
29.62
29.398
29.159
28.908
28.66
28.457
28.366
28.477
28.871
29.61
30.739
32.29
34.281
36.72
39.594
42.884
46.573
50.643
55.086
59.879
64.979
70.32
75.808
81.347
86.858
92.279
97.564
102.678
107.594
112.302
116.815
121.157
125.346
129.394
133.306
137.092
140.777
144.396
147.992
151.595
155.219
158.873
162.558
166.273
170.007
173.734
177.419
181.024
184.524
187.905
191.162
194.286
197.269
200.114
202.831
205.451
208.001
210.5
212.969
215.422
217.884
220.381
222.926
225.512
228.112
230.685
233.181
235.543
237.69
239.517
240.907
241.727
241.861
241.212
239.675
237.158
233.563
228.814
222.879
215.756
207.475
198.08
187.64
176.245
164.033
151.177
137.857
124.267
110.586
96.994
83.688
70.854
58.678
47.311
36.86
27.402
18.993
11.669
5.444
0.294
-3.848
-7.076
-9.484
-11.182
-12.274
-12.882
-13.151
-13.217
-13.206
-13.218
-13.324
-13.584
-14.048
-14.753
-15.716
-16.935
-18.382
-20.021
-21.823
-23.75
-25.759
-27.797
-29.793
-31.69
-33.442
-35.02
-36.405
-37.583
-38.541
-39.277
-39.801
-40.127
-40.275
-40.264
-40.107
-39.821
-39.43
-38.958
-38.439
-37.894
-37.34
-36.787
-36.244
-35.715
-35.207
-34.72
-34.247
-33.786
-33.332
-32.886
-32.447
-32.014
-31.584
-31.152
-30.716
-30.271
-29.818
-29.356
-28.884
-28.401
-27.908
-27.407
-26.901
-26.392
-25.881
-25.369
-24.857
-24.346
-23.839
-23.337
-22.84
-22.35
-21.869
-21.399
-20.942
-20.5
-20.075
-19.668
-19.282
-18.917
-18.575
-18.257
-17.965
-17.698
-17.458
-17.245
-17.061
-16.906
-16.779
-16.682
-16.613
-16.574
-16.565
-16.583
-16.629
-16.702
-16.8
-16.923
-17.067
-17.232
-17.416
-17.616
-17.831
-18.058
-18.296
-18.543
-18.795
-19.053
-19.313
-19.574
-19.834
-20.092
-20.347
-20.598
-20.842
-21.08
-21.31
-21.532
-21.743
-21.945
-22.134
-22.312
-22.478
-22.63
-22.77
-22.897
-23.011
-23.115
-23.209
-23.294
-23.373
-23.448
-23.52
-23.592
-23.665
-23.743
-23.825
-23.915
-24.013
-24.12
-24.236
-24.361
-24.493
-24.633
-24.78
-24.931
-25.087
-25.246
-25.407
-25.571
-25.737
-25.904
-26.072
-26.237
-26.397
-26.549
-26.688
-26.811
-26.91
-26.979
-27.011
-27.002
-26.944
-26.829
-26.649
-26.389
-26.044
-25.609
-25.082
-24.466
-23.764
-22.983
-22.136
-21.244
-20.321
-19.383
-18.44
-17.495
-16.56
-15.641
-14.746
-13.884
-13.054
-12.244
-11.442
-10.627
-9.768
-8.833
-7.776
-6.543
-5.095
-3.407
-1.464
0.736
3.198
5.922
8.892
12.091
15.491
19.049
22.719
26.447
30.145
33.73
37.107
40.171
42.85
45.087
46.84
48.082
48.789
48.946
48.558
47.637
46.193
44.245
41.808
38.915
35.637
32.036
28.174
24.109
19.869
15.469
10.922
6.242
1.428
-3.53
-8.657
-13.981
-19.508
-25.207
-31.061
-37.101
-43.323
-49.642
-55.871
-61.662
-66.666
-70.644
-73.309
-74.274
-73.288
-70.333
-65.7
-60.123
-54.413
-48.994
-44.281
-41.056
-39.78
-40.338
-42.275
-43.483
-41.622
-36.376
-26.644
-12.052
6.942
33.278
67.739
109.556
159.382
213.385
268.244
322.021
367.591
398.504
408.844
390.734
343.78
273.453
185.167
87.022
-17.461
-132.265
-258.77
-394.088
-529.31
-646.543
-729.194
-770.19
-771.152
-743.087
-700.231
-650.842
-598.303
-542.175
-480.394
-414.456
-348.075
-285.672
-231.538
-187.581
-153.953
-129.893
-113.677
-103.564
-98.041
-95.146
-93.088
-90.432
-85.888
-79.049
-70.258
-60.018
-48.978
-37.984
-27.76
-19.01
-12.494
-8.413
-6.553
-6.605
-8.057
-10.383
-13.184
-16.002
-18.358
-20.007
-20.836
-20.794
-19.986
-18.514
-16.441
-13.882
-10.931
-7.64
-4.083
-0.328
3.564
7.503
11.416
15.254
18.961
22.493
25.818
28.897
31.749
34.433
36.991
39.458
41.847
44.137
46.342
48.495
50.629
52.777
54.966
57.205
59.518
61.937
64.484
67.175
70.0
72.922
75.924
79.002
82.162
85.436
88.83
92.333
95.936
99.622
103.373
107.177
111.007
114.835
118.644
122.421
126.162
129.873
133.555
137.209
140.838
144.429
147.979
151.491
154.969
158.439
161.922
165.428
168.969
172.54
176.12
179.689
183.218
186.664
189.976
193.081
195.898
198.365
200.421
202.006
203.06
203.496
203.238
202.235
200.446
197.859
194.477
190.304
185.359
179.688
173.356
166.452
159.082
151.329
143.271
134.988
126.557
118.079
109.645
101.322
93.166
85.218
77.51
70.076
62.94
56.099
49.54
43.233
37.137
31.231
25.5
19.929
14.507
9.212
4.029
-1.045
-6.004
-10.842
-15.555
-20.14
-24.593
-28.897
-33.032
-36.975
-40.702
-44.196
-47.45
-50.456
-53.21
-55.711
-57.96
-59.965
-61.739
-63.292
-64.633
-65.771
-66.716
-67.478
-68.074
-68.517
-68.82
-68.998
-69.063
-69.027
-68.901
-68.696
-68.421
-68.084
-67.693
-67.255
-66.78
-66.276
-65.751
-65.214
-64.672
-64.133
-63.604
-63.092
-62.6
-62.134
-61.696
-61.29
-60.918
-60.582
-60.281
-60.018
-59.791
-59.6
-59.444
-59.321
-59.23
-59.168
-59.131
-59.118
-59.125
-59.149
-59.187
-59.235
-59.29
-59.35
-59.411
-59.469
-59.522
-59.567
-59.6
-59.62
-59.622
-59.604
-59.565
-59.502
-59.415
-59.301
-59.16
-58.993
-58.798
-58.576
-58.329
-58.057
-57.761
-57.444
-57.108
-56.755
-56.388
-56.011
-55.626
-55.237
-54.847
-54.461
-54.082
-53.712
-53.356
-53.017
-52.698
-52.401
-52.13
-51.887
-51.675
-51.495
-51.35
-51.24
-51.167
-51.132
-51.135
-51.176
-51.256
-51.374
-51.531
-51.726
-51.958
-52.227
-52.532
-52.869
-53.238
-53.636
-54.061
-54.51
-54.979
-55.466
-55.967
-56.48
-57.003
-57.531
-58.063
-58.594
-59.123
-59.648
-60.165
-60.672
-61.168
-61.65
-62.118
-62.57
-63.006
-63.424
-63.823
-64.201
-64.558
-64.891
-65.198
-65.475
-65.719
-65.928
-66.1
-66.232
-66.322
-66.368
-66.37
-66.328
-66.241
-66.108
-65.924
-65.688
-65.396
-65.043
-64.626
-64.139
-63.578
-62.938
-62.217
-61.416
-60.531
-59.56
-58.498
-57.335
-56.068
-54.699
-53.226
-51.651
-49.982
-48.226
-46.403
-44.539
-42.653
-40.757
-38.859
-36.959
-35.057
-33.156
-31.258
-29.362
-27.466
-25.566
-23.66
-21.754
-19.842
-17.91
-15.93
-13.857
-11.662
-9.343
-6.904
-4.362
-1.744
0.925
3.606
6.246
8.797
11.216
13.467
15.534
17.385
18.976
20.254
21.146
21.608
21.63
21.218
20.39
19.18
17.624
15.78
13.739
11.578
9.36
7.144
4.966
2.864
0.899
-0.87
-2.382
-3.604
-4.55
-5.257
-5.762
-6.106
-6.33
-6.497
-6.716
-7.088
-7.702
-8.638
-9.935
-11.66
-13.929
-16.802
-20.252
-24.13
-28.114
-31.863
-35.118
-37.568
-38.851
-38.73
-37.104
-34.229
-30.776
-27.433
-24.788
-23.392
-23.734
-26.112
-30.507
-36.203
-41.815
-45.729
-46.255
-41.803
-30.83
-11.931
15.765
52.192
96.319
146.293
199.584
253.23
303.669
346.925
378.976
396.115
395.362
374.416
332.571
271.248
192.757
100.293
-3.782
-119.605
-245.466
-375.913
-501.333
-606.85
-679.648
-714.812
-714.705
-689.082
-649.362
-602.031
-549.922
-492.865
-429.943
-363.302
-296.509
-233.612
-178.463
-132.831
-97.123
-70.894
-52.688
-41.03
-34.582
-31.486
-29.993
-28.564
-25.696
-20.797
-14.022
-5.661
3.792
13.612
23.143
31.616
38.169
42.534
44.869
45.466
44.81
43.376
41.561
39.866
38.833
38.767
39.779
41.852
44.841
48.623
53.111
58.178
63.67
69.446
75.38
81.364
87.31
93.12
98.664
103.809
108.448
112.497
115.919
118.729
120.96
122.668
123.936
124.841
125.462
125.891
126.201
126.463
126.761
127.175
127.805
128.765
130.142
132.003
134.395
137.323
140.775
144.723
149.102
153.857
158.939
164.3
169.909
175.74
181.75
187.896
194.128
200.372
206.578
212.698
218.691
224.537
230.227
235.763
241.175
246.485
251.7
256.822
261.838
266.726
271.475
276.068
280.485
284.717
288.751
292.57
296.166
299.523
302.614
305.41
307.864
309.94
311.613
312.865
313.686
314.073
314.021
313.54
312.653
311.377
309.73
307.724
305.357
302.632
299.562
296.157
292.435
288.405
284.061
279.404
274.44
269.17
263.601
257.72
251.496
244.911
237.958
230.645
223.006
215.072
206.874
198.454
189.86
181.16
172.442
163.78
155.23
146.853
138.703
130.857
123.414
116.451
110.027
104.181
98.925
94.268
90.219
86.76
83.853
81.441
79.438
77.78
76.425
75.323
74.433
73.695
73.026
72.363
71.658
70.872
69.982
68.968
67.808
66.508
65.098
63.619
62.129
60.663
59.236
57.856
56.524
55.238
54.002
52.825
51.708
50.652
49.658
48.711
47.792
46.883
45.946
44.906
43.682
42.219
40.473
38.461
36.232
33.798
31.167
28.463
25.823
23.208
20.647
18.18
15.605
13.564
12.697
12.209
11.909
10.286
5.508
-0.354
-5.942
-9.244
-7.502
-3.252
1.357
4.846
4.805
2.919
0.902
-0.886
-1.414
-1.331
-1.475
-1.735
-2.243
-2.959
-3.716
-4.595
-5.643
-6.8
-8.033
-9.33
-10.678
-12.061
-13.473
-14.895
-16.31
-17.714
-19.1
-20.447
-21.743
-22.981
-24.162
-25.298
-26.406
-27.5
-28.591
-29.689
-30.798
-31.919
-33.052
-34.191
-35.328
-36.459
-37.583
-38.7
-39.81
-40.914
-42.01
-43.094
-44.164
-45.216
-46.246
-47.251
-48.228
-49.176
-50.096
-50.99
-51.859
-52.706
-53.534
-54.343
-55.137
-55.915
-56.679
-57.431
-58.171
-58.901
-59.621
-60.334
-61.041
-61.744
-62.445
-63.145
-63.846
-64.549
-65.256
-65.969
-66.688
-67.414
-68.148
-68.89
-69.639
-70.397
-71.163
-71.935
-72.713
-73.497
-74.286
-75.079
-75.873
-76.666
-77.456
-78.242
-79.018
-79.783
-80.531
-81.259
-81.963
-82.639
-83.284
-83.895
-84.468
-85.001
-85.492
-85.94
-86.341
-86.691
-86.985
-87.218
-87.385
-87.481
-87.5
-87.436
-87.281
-87.033
-86.692
-86.256
-85.721
-85.084
-84.337
-83.479
-82.511
-81.438
-80.263
-78.995
-77.642
-76.223
-74.765
-73.29
-71.818
-70.355
-68.902
-67.463
-66.04
-64.639
-63.262
-61.903
-60.55
-59.197
-57.841
-56.475
-55.084
-53.639
-52.092
-50.411
-48.579
-46.592
-44.463
-42.204
-39.83
-37.362
-34.83
-32.278
-29.75
-27.28
-24.893
-22.624
-20.511
-18.609
-16.991
-15.708
-14.795
-14.272
-14.14
-14.396
-15.037
-16.044
-17.392
-19.052
-20.988
-23.172
-25.592
-28.224
-31.052
-34.062
-37.215
-40.49
-43.876
-47.349
-50.912
-54.585
-58.381
-62.322
-66.424
-70.666
-75.069
-79.704
-84.543
-89.469
-94.255
-98.502
-101.85
-104.048
-104.771
-103.626
-100.459
-95.393
-88.89
-81.956
-75.593
-70.541
-67.612
-67.533
-70.488
-76.076
-83.255
-90.068
-94.348
-94.043
-86.796
-70.511
-44.557
-9.842
32.058
79.29
131.686
189.683
250.471
307.631
350.431
367.846
354.087
309.263
240.484
157.28
66.163
-29.539
-132.016
-245.692
-369.299
-496.187
-612.947
-702.571
-756.74
-774.902
-763.649
-734.411
-692.329
-640.069
-580.448
-516.249
-454.507
-400.831
-355.724
-316.355
-278.431
-239.411
-200.657
-166.211
-138.644
-118.644
-105.375
-96.304
-89.673
-84.702
-80.398
-76.039
-71.33
-65.895
-59.647
-52.936
-46.047
-39.335
-33.407
-28.813
-25.752
-24.187
-23.896
-24.495
-25.659
-27.083
-28.374
-29.128
-29.092
-28.192
-26.48
-24.114
-21.258
-18.028
-14.547
-10.953
-7.352
-3.834
-0.466
2.731
5.752
8.566
11.147
13.457
15.449
17.133
18.558
19.795
20.952
22.117
23.35
24.719
26.284
28.084
30.149
32.475
35.021
37.771
40.719
43.871
47.25
50.851
54.648
58.603
62.666
66.796
70.968
75.152
79.318
83.452
87.553
91.639
95.755
99.926
104.161
108.461
112.812
117.206
121.644
126.121
130.632
135.17
139.718
144.264
148.796
153.292
157.723
162.049
166.218
170.187
173.922
177.394
180.581
183.463
186.013
188.213
190.045
191.494
192.548
193.198
193.432
193.246
192.645
191.642
190.263
188.525
186.439
184.01
181.235
178.114
174.651
170.844
166.693
162.199
157.359
152.179
146.673
140.843
134.684
128.179
121.293
114.011
106.344
98.308
89.938
81.279
72.373
63.284
54.086
44.85
35.64
26.511
17.502
8.667
0.075
-8.196
-16.045
-23.399
-30.212
-36.449
-42.092
-47.14
-51.603
-55.519
-58.953
-61.958
-64.575
-66.835
-68.752
-70.356
-71.69
-72.803
-73.759
-74.605
-75.373
-76.093
-76.789
-77.468
-78.131
-78.753
-79.289
-79.708
-79.994
-80.142
-80.158
-80.045
-79.798
-79.416
-78.899
-78.247
-77.465
-76.559
-75.53
-74.39
-73.155
-71.853
-70.522
-69.189
-67.873
-66.591
-65.35
-64.159
-63.025
-61.952
-60.937
-59.981
-59.082
-58.242
-57.465
-56.748
-56.09
-55.483
-54.92
-54.393
-53.898
-53.427
-52.975
-52.538
-52.11
-51.689
-51.273
-50.86
-50.447
-50.029
-49.603
-49.165
-48.711
-48.24
-47.746
-47.228
-46.683
-46.112
-45.513
-44.888
-44.235
-43.557
-42.854
-42.128
-41.381
-40.614
-39.831
-39.034
-38.226
-37.41
-36.59
-35.769
-34.951
-34.139
-33.338
-32.551
-31.782
-31.034
-30.309
-29.611
-28.943
-28.306
-27.704
-27.138
-26.611
-26.123
-25.677
-25.274
-24.913
-24.596
-24.321
-24.089
-23.899
-23.75
-23.64
-23.568
-23.532
-23.531
-23.564
-23.627
-23.718
-23.836
-23.976
-24.137
-24.315
-24.508
-24.712
-24.924
-25.142
-25.362
-25.582
-25.8
-26.012
-26.216
-26.41
-26.592
-26.76
-26.912
-27.046
-27.162
-27.257
-27.331
-27.383
-27.412
-27.416
-27.396
-27.351
-27.278
-27.177
-27.048
-26.887
-26.695
-26.471
-26.213
-25.92
-25.592
-25.227
-24.824
-24.383
-23.903
-23.381
-22.817
-22.21
-21.558
-20.86
-20.115
-19.321
-18.476
-17.58
-16.63
-15.626
-14.564
-13.445
-12.265
-11.025
-9.722
-8.358
-6.932
-5.444
-3.896
-2.292
-0.634
1.074
2.827
4.622
6.453
8.315
10.201
12.107
14.027
15.953
17.879
19.796
21.694
23.564
25.397
27.183
28.913
30.578
32.167
33.671
35.084
36.397
37.599
38.681
39.63
40.438
41.101
41.617
41.986
42.217
42.316
42.297
42.177
41.974
41.702
41.377
41.008
40.609
40.196
39.784
39.395
39.047
38.746
38.499
38.304
38.144
37.997
37.835
37.608
37.27
36.78
36.09
35.152
33.928
32.369
30.432
28.087
25.293
22.012
18.214
13.876
9.013
3.689
-2.054
-8.2
-14.661
-21.276
-27.774
-33.767
-38.939
-43.085
-45.918
-47.029
-46.169
-43.333
-38.854
-33.476
-27.804
-22.239
-17.441
-14.218
-13.115
-13.609
-13.984
-12.251
-7.249
-0.125
7.232
15.022
25.519
43.804
75.333
121.786
181.922
250.624
319.353
378.821
418.585
430.694
411.96
364.674
297.145
217.232
130.036
35.487
-71.885
-193.329
-324.453
-453.45
-562.05
-638.573
-679.5
-689.382
-680.46
-660.575
-632.212
-595.674
-548.211
-490.342
-426.351
-360.184
-295.973
-237.117
-185.302
-141.492
-106.324
-79.36
-59.315
-45.343
-36.477
-31.104
-27.834
-25.195
-21.622
-16.644
-10.488
-3.239
4.746
12.849
20.604
27.254
31.94
34.461
34.967
33.717
31.194
27.844
24.041
20.304
17.172
14.956
13.798
13.703
14.549
16.241
18.7
21.806
25.42
29.407
33.654
38.066
42.567
47.082
51.518
55.785
59.799
63.487
66.805
69.747
72.325
74.562
76.494
78.16
79.609
80.903
82.099
83.251
84.409
85.618
86.924
88.376
90.022
91.902
94.046
96.466
99.167
102.153
105.421
108.97
112.787
116.853
121.15
125.658
130.356
135.218
140.21
145.293
150.436
155.609
160.792
165.97
171.125
176.242
181.308
186.3
191.2
195.992
200.653
205.165
209.52
213.717
217.766
221.685
225.473
229.124
232.624
235.94
239.043
241.897
244.45
246.678
248.558
250.066
251.194
251.921
252.208
252.019
251.302
249.994
248.054
245.443
242.127
238.108
233.394
228.01
222.005
215.398
208.201
200.439
192.128
183.306
174.035
164.376
154.403
144.218
133.915
123.605
113.406
103.395
93.64
84.196
75.095
66.404
58.19
50.499
43.379
36.854
30.927
25.604
20.883
16.723
13.074
9.867
7.008
4.443
2.123
0.005
-1.944
-3.781
-5.559
-7.316
-9.079
-10.869
-12.695
-14.575
-16.522
-18.52
-20.546
-22.561
-24.514
-26.377
-28.13
-29.755
-31.237
-32.558
-33.7
-34.661
-35.448
-36.064
-36.516
-36.808
-36.943
-36.937
-36.812
-36.594
-36.311
-35.983
-35.625
-35.251
-34.874
-34.503
-34.148
-33.809
-33.485
-33.174
-32.88
-32.603
-32.345
-32.107
-31.884
-31.675
-31.478
-31.292
-31.116
-30.949
-30.791
-30.644
-30.509
-30.387
-30.282
-30.195
-30.126
-30.077
-30.047
-30.035
-30.042
-30.067
-30.109
-30.167
-30.24
-30.329
-30.433
-30.551
-30.682
-30.828
-30.986
-31.156
-31.338
-31.53
-31.731
-31.941
-32.157
-32.379
-32.605
-32.833
-33.061
-33.287
-33.51
-33.727
-33.935
-34.134
-34.322
-34.498
-34.66
-34.808
-34.941
-35.06
-35.162
-35.25
-35.322
-35.379
-35.421
-35.448
-35.461
-35.46
-35.447
-35.423
-35.39
-35.348
-35.299
-35.247
-35.193
-35.14
-35.09
-35.045
-35.01
-34.986
-34.977
-34.986
-35.015
-35.066
-35.142
-35.243
-35.371
-35.524
-35.702
-35.904
-36.128
-36.373
-36.638
-36.921
-37.221
-37.537
-37.867
-38.211
-38.564
-38.922
-39.28
-39.632
-39.971
-40.291
-40.583
-40.839
-41.051
-41.215
-41.325
-41.375
-41.355
-41.254
-41.063
-40.78
-40.403
-39.934
-39.373
-38.724
-38.0
-37.22
-36.402
-35.562
-34.71
-33.841
-32.958
-32.065
-31.165
-30.264
-29.356
-28.423
-27.457
-26.449
-25.389
-24.264
-23.048
-21.693
-20.169
-18.458
-16.556
-14.478
-12.238
-9.844
-7.324
-4.71
-2.045
0.611
3.211
5.722
8.097
10.282
12.218
13.821
15.033
15.826
16.175
16.074
15.524
14.523
13.095
11.289
9.148
6.721
4.06
1.192
-1.83
-4.933
-8.062
-11.151
-14.151
-17.052
-19.846
-22.516
-25.068
-27.507
-29.839
-32.111
-34.358
-36.601
-38.886
-41.236
-43.675
-46.285
-49.143
-52.25
-55.523
-58.755
-61.62
-63.836
-65.195
-65.428
-64.203
-61.33
-56.918
-51.415
-45.604
-40.274
-35.903
-32.913
-31.907
-33.204
-36.521
-41.03
-45.191
-47.254
-46.009
-40.185
-28.078
-8.445
19.278
54.38
94.501
137.135
179.919
221.448
260.985
296.162
323.995
338.997
333.312
302.07
243.007
158.219
54.724
-61.841
-188.025
-319.978
-452.224
-574.605
-672.417
-734.324
-756.265
-741.702
-701.426
-645.676
-582.327
-517.66
-454.284
-395.452
-342.681
-294.537
-250.955
-210.962
-174.965
-145.862
-124.343
-110.17
-102.349
-97.887
-94.608
-91.174
-86.206
-79.41
-71.085
-61.453
-50.97
-40.335
-30.125
-21.013
-13.82
-8.822
-5.868
-4.719
-4.919
-6.006
-7.633
-9.339
-10.6
-11.116
-10.731
-9.401
-7.23
-4.294
-0.659
3.541
8.146
12.986
17.904
22.8
27.598
32.223
36.61
40.693
44.42
47.774
50.739
53.315
55.529
57.401
58.988
60.367
61.635
62.914
64.316
65.916
67.783
69.965
72.488
75.374
78.62
82.191
86.068
90.231
94.659
99.347
104.269
109.383
114.64
119.976
125.335
130.68
135.979
141.205
146.348
151.402
156.384
161.329
166.26
171.183
176.098
180.989
185.845
190.663
195.433
200.147
204.794
209.359
213.825
218.177
222.392
226.439
230.283
233.873
237.169
240.141
242.764
245.017
246.884
248.347
249.395
250.023
250.224
249.994
249.327
248.219
246.667
244.675
242.25
239.403
236.144
232.484
228.438
224.021
219.246
214.133
208.697
202.955
196.928
190.635
184.101
177.35
170.406
163.296
156.045
148.681
141.23
133.718
126.172
118.616
111.074
103.571
96.128
88.769
81.514
74.384
67.398
60.575
53.93
47.48
41.239
35.22
29.433
23.889
18.595
13.558
8.783
4.273
0.03
-3.944
-7.651
-11.092
-14.272
-17.195
-19.866
-22.294
-24.486
-26.451
-28.198
-29.739
-31.082
-32.239
-33.221
-34.038
-34.701
-35.222
-35.611
-35.879
-36.037
-36.095
-36.064
-35.952
-35.769
-35.524
-35.225
-34.879
-34.495
-34.077
-33.632
-33.165
-32.681
-32.184
-31.677
-31.164
-30.647
-30.127
-29.607
-29.088
-28.569
-28.052
-27.536
-27.022
-26.509
-25.996
-25.485
-24.975
-24.466
-23.959
-23.453
-22.949
-22.448
-21.95
-21.456
-20.967
-20.484
-20.009
-19.544
-19.088
-18.646
-18.218
-17.806
-17.412
-17.038
-16.686
-16.358
-16.056
-15.781
-15.536
-15.322
-15.142
-14.996
-14.887
-14.816
-14.785
-14.793
-14.842
-14.932
-15.063
-15.235
-15.446
-15.695
-15.982
-16.304
-16.659
-17.046
-17.462
-17.904
-18.369
-18.854
-19.356
-19.873
-20.401
-20.937
-21.479
-22.024
-22.57
-23.115
-23.657
-24.195
-24.726
-25.25
-25.764
-26.268
-26.761
-27.242
-27.709
-28.164
-28.607
-29.037
-29.456
-29.864
-30.263
-30.654
-31.039
-31.42
-31.799
-32.179
-32.562
-32.95
-33.346
-33.754
-34.176
-34.613
-35.067
-35.541
-36.036
-36.55
-37.086
-37.641
-38.216
-38.808
-39.417
-40.04
-40.675
-41.32
-41.971
-42.624
-43.277
-43.924
-44.562
-45.185
-45.789
-46.367
-46.914
-47.425
-47.893
-48.312
-48.676
-48.979
-49.213
-49.371
-49.449
-49.438
-49.333
-49.13
-48.823
-48.409
-47.886
-47.251
-46.506
-45.65
-44.687
-43.617
-42.445
-41.175
-39.812
-38.364
-36.837
-35.236
-33.571
-31.85
-30.084
-28.283
-26.458
-24.619
-22.777
-20.947
-19.139
-17.368
-15.645
-13.98
-12.383
-10.866
-9.44
-8.119
-6.914
-5.83
-4.872
-4.044
-3.35
-2.788
-2.352
-2.026
-1.792
-1.635
-1.541
-1.503
-1.509
-1.547
-1.598
-1.645
-1.674
-1.681
-1.663
-1.613
-1.53
-1.424
-1.317
-1.263
-1.326
-1.561
-2.023
-2.753
-3.779
-5.15
-6.928
-9.17
-11.939
-15.282
-19.215
-23.797
-29.109
-35.157
-41.857
-48.972
-56.097
-62.854
-68.94
-74.009
-77.688
-79.72
-80.005
-78.851
-76.99
-75.161
-73.973
-73.925
-75.44
-78.765
-83.807
-89.756
-95.084
-97.999
-96.73
-89.788
-75.761
-53.36
-21.904
18.391
66.292
119.63
175.794
232.075
285.067
330.868
365.866
386.535
389.984
374.517
338.633
282.374
208.452
119.918
20.235
-88.879
-208.615
-336.63
-466.393
-586.047
-679.419
-737.492
-759.099
-750.492
-724.331
-688.279
-645.393
-596.361
-538.779
-473.771
-405.356
-337.593
-275.436
-222.243
-179.134
-146.304
-122.944
-107.619
-98.957
-95.293
-94.449
-94.243
-92.758
-88.902
-82.528
-73.956
-63.707
-52.471
-41.107
-30.627
-22.087
-15.999
-12.298
-10.69
-10.682
-11.781
-13.559
-15.48
-16.952
-17.623
-17.346
-16.096
-13.997
-11.162
-7.667
-3.66
0.689
5.211
9.75
14.179
18.407
22.346
25.917
29.058
31.711
33.844
35.453
36.554
37.202
37.462
37.407
37.129
36.729
36.335
36.077
36.067
36.398
37.138
38.335
40.028
42.249
45.002
48.274
52.029
56.206
60.755
65.631
70.779
76.141
81.64
87.199
92.76
98.278
103.721
109.069
114.296
119.385
124.338
129.168
133.896
138.556
143.163
147.721
152.236
156.708
161.145
165.55
169.911
174.209
178.422
182.526
186.5
190.322
193.958
197.369
200.517
203.359
205.862
208.002
209.756
211.104
212.031
212.525
212.58
212.198
211.378
210.123
208.434
206.313
203.77
200.815
197.462
193.726
189.623
185.169
180.384
175.285
169.893
164.229
158.313
152.165
145.81
139.272
132.576
125.748
118.814
111.802
104.739
97.651
90.564
83.505
76.496
69.562
62.724
56.004
49.423
42.998
36.749
30.69
24.839
19.208
13.81
8.656
3.755
-0.886
-5.26
-9.363
-13.192
-16.746
-20.024
-23.028
-25.761
-28.226
-30.431
-32.381
-34.084
-35.55
-36.788
-37.81
-38.627
-39.253
-39.698
-39.977
-40.102
-40.086
-39.942
-39.683
-39.322
-38.87
-38.34
-37.743
-37.091
-36.393
-35.66
-34.901
-34.124
-33.338
-32.55
-31.765
-30.99
-30.229
-29.487
-28.768
-28.073
-27.406
-26.767
-26.159
-25.581
-25.034
-24.516
-24.028
-23.566
-23.131
-22.72
-22.331
-21.962
-21.612
-21.279
-20.961
-20.657
-20.364
-20.083
-19.812
-19.551
-19.298
-19.053
-18.817
-18.59
-18.373
-18.165
-17.968
-17.783
-17.612
-17.455
-17.314
-17.19
-17.085
-17.0
-16.937
-16.897
-16.881
-16.89
-16.926
-16.989
-17.081
-17.2
-17.349
-17.526
-17.731
-17.963
-18.222
-18.506
-18.814
-19.143
-19.491
-19.857
-20.237
-20.629
-21.03
-21.438
-21.848
-22.258
-22.665
-23.067
-23.46
-23.842
-24.211
-24.564
-24.9
-25.217
-25.514
-25.79
-26.045
-26.278
-26.489
-26.678
-26.847
-26.996
-27.126
-27.239
-27.338
-27.424
-27.5
-27.568
-27.631
-27.693
-27.756
-27.823
-27.898
-27.983
-28.081
-28.196
-28.329
-28.483
-28.66
-28.86
-29.086
-29.338
-29.615
-29.918
-30.244
-30.593
-30.961
-31.347
-31.746
-32.156
-32.571
-32.987
-33.4
-33.804
-34.193
-34.562
-34.903
-35.211
-35.48
-35.702
-35.871
-35.98
-36.024
-35.995
-35.889
-35.698
-35.418
-35.044
-34.572
-33.997
-33.317
-32.53
-31.635
-30.631
-29.519
-28.302
-26.982
-25.564
-24.054
-22.457
-20.782
-19.037
-17.231
-15.374
-13.475
-11.545
-9.593
-7.632
-5.673
-3.726
-1.804
0.081
1.917
3.691
5.391
7.004
8.522
9.936
11.24
12.427
13.489
14.417
15.203
15.845
16.339
16.682
16.877
16.927
16.846
16.659
16.387
16.052
15.675
15.265
14.839
14.412
14.004
13.634
13.32
13.07
12.896
12.808
12.804
12.875
12.978
13.039
12.985
12.745
12.261
11.501
10.411
8.927
6.981
4.498
1.426
-2.261
-6.62
-11.751
-17.668
-24.267
-31.286
-38.276
-44.821
-50.623
-55.36
-58.62
-60.133
-59.924
-58.376
-56.318
-54.563
-53.513
-53.511
-55.06
-58.395
-63.218
-68.625
-72.84
-73.96
-70.862
-62.308
-46.542
-22.38
10.87
52.464
99.322
149.187
200.967
253.658
306.996
356.711
394.743
413.551
405.199
367.919
307.249
228.757
139.476
41.996
-68.466
-193.679
-330.682
-469.458
-590.67
-677.385
-722.6
-728.538
-707.3
-672.845
-632.191
-587.806
-538.42
-481.745
-419.686
-356.016
-294.889
-240.552
-195.177
-159.251
-132.466
-113.468
-100.621
-92.689
-88.121
-85.293
-82.729
-78.9
-73.062
-65.351
-56.165
-45.997
-35.514
-25.31
-16.076
-8.706
-3.551
-0.476
0.793
0.743
-0.149
-1.542
-2.979
-3.923
-4.069
-3.26
-1.456
1.209
4.625
8.716
13.344
18.362
23.624
28.963
34.234
39.324
44.126
48.56
52.558
56.054
59.005
61.384
63.201
64.516
65.399
65.918
66.143
66.145
66.019
65.89
65.895
66.145
66.727
67.696
69.095
70.967
73.338
76.21
79.555
83.311
87.424
91.856
96.576
101.553
106.739
112.064
117.449
122.836
128.18
133.449
138.621
143.672
148.593
153.389
158.082
162.702
167.269
171.781
176.227
180.59
184.853
189.012
193.072
197.032
200.891
204.638
208.256
211.725
215.014
218.092
220.925
223.474
225.709
227.615
229.188
230.446
231.411
232.086
232.461
232.514
232.215
231.545
230.486
229.019
227.134
224.821
222.073
218.903
215.316
211.308
206.859
201.931
196.48
190.491
183.971
176.942
169.445
161.522
153.23
144.647
135.844
126.883
117.816
108.671
99.484
90.309
81.208
72.253
63.53
55.097
47.003
39.302
32.016
25.154
18.702
12.612
6.842
1.374
-3.806
-8.693
-13.286
-17.6
-21.649
-25.446
-29.016
-32.377
-35.557
-38.596
-41.515
-44.314
-46.979
-49.469
-51.754
-53.822
-55.665
-57.283
-58.679
-59.851
-60.81
-61.572
-62.151
-62.554
-62.78
-62.818
-62.67
-62.347
-61.87
-61.268
-60.566
-59.783
-58.938
-58.051
-57.138
-56.212
-55.28
-54.342
-53.4
-52.459
-51.528
-50.619
-49.738
-48.89
-48.077
-47.301
-46.562
-45.861
-45.198
-44.567
-43.966
-43.395
-42.852
-42.337
-41.851
-41.392
-40.958
-40.548
-40.159
-39.789
-39.436
-39.095
-38.765
-38.441
-38.123
-37.807
-37.493
-37.179
-36.862
-36.543
-36.219
-35.891
-35.556
-35.214
-34.864
-34.505
-34.137
-33.759
-33.371
-32.973
-32.565
-32.148
-31.723
-31.29
-30.85
-30.404
-29.952
-29.495
-29.034
-28.569
-28.101
-27.631
-27.159
-26.686
-26.213
-25.741
-25.27
-24.801
-24.335
-23.872
-23.414
-22.96
-22.511
-22.069
-21.634
-21.208
-20.791
-20.387
-19.995
-19.619
-19.259
-18.917
-18.597
-18.298
-18.024
-17.776
-17.557
-17.369
-17.214
-17.094
-17.011
-16.969
-16.968
-17.011
-17.101
-17.238
-17.424
-17.661
-17.95
-18.291
-18.685
-19.133
-19.633
-20.185
-20.788
-21.44
-22.139
-22.882
-23.665
-24.483
-25.334
-26.21
-27.107
-28.018
-28.937
-29.857
-30.771
-31.672
-32.551
-33.401
-34.213
-34.979
-35.69
-36.339
-36.915
-37.411
-37.82
-38.132
-38.342
-38.441
-38.423
-38.282
-38.013
-37.611
-37.072
-36.393
-35.573
-34.61
-33.506
-32.261
-30.879
-29.365
-27.724
-25.964
-24.091
-22.116
-20.048
-17.898
-15.679
-13.401
-11.077
-8.72
-6.343
-3.961
-1.589
0.759
3.069
5.324
7.51
9.613
11.617
13.511
15.286
16.932
18.439
19.798
20.996
22.026
22.885
23.568
24.075
24.408
24.573
24.585
24.467
24.243
23.931
23.552
23.116
22.64
22.143
21.647
21.177
20.753
20.386
20.087
19.868
19.728
19.657
19.619
19.544
19.369
19.034
18.489
17.704
16.632
15.207
13.364
11.035
8.158
4.72
0.689
-4.014
-9.375
-15.314
-21.631
-27.929
-33.842
-39.129
-43.521
-46.692
-48.43
-48.61
-47.405
-45.434
-43.31
-41.381
-39.853
-39.086
-39.455
-41.03
-43.446
-45.017
-43.077
-36.663
-25.69
-10.676
5.866
25.166
50.673
84.016
129.285
185.807
247.479
310.276
365.526
404.732
424.487
419.182
387.856
334.935
264.041
181.216
90.765
-8.486
-119.513
-243.503
-376.232
-506.29
-616.084
-690.601
-724.873
-721.847
-692.564
-649.559
-597.652
-540.125
-479.123
-415.424
-354.965
-301.113
-253.186
-211.436
-173.404
-138.522
-109.689
-87.635
-72.641
-64.086
-58.939
-55.118
-51.429
-46.584
-40.377
-33.053
-24.652
-15.54
-6.397
2.223
9.672
15.183
18.544
19.911
19.516
17.818
15.293
12.317
9.371
6.978
5.437
4.883
5.337
6.686
8.837
11.727
15.244
19.258
23.649
28.3
33.118
38.03
42.951
47.787
52.444
56.829
60.863
64.505
67.739
70.575
73.04
75.166
76.992
78.569
79.955
81.209
82.382
83.525
84.68
85.893
87.213
88.687
90.362
92.268
94.424
96.842
99.525
102.476
105.692
109.164
112.878
116.82
120.979
125.345
129.906
134.65
139.557
144.61
149.787
155.067
160.431
165.855
171.316
176.79
182.253
187.681
193.051
198.337
203.514
208.555
213.434
218.124
222.6
226.837
230.81
234.496
237.873
240.92
243.619
245.953
247.905
249.462
250.611
251.342
251.644
251.511
250.936
249.915
248.448
246.535
244.178
241.384
238.16
234.517
230.467
226.025
221.207
216.029
210.511
204.672
198.531
192.111
185.432
178.516
171.388
164.074
156.601
148.996
141.288
133.503
125.672
117.822
109.981
102.173
94.423
86.753
79.19
71.758
64.488
57.403
50.521
43.859
37.434
31.253
25.324
19.641
14.192
8.969
3.972
-0.794
-5.317
-9.588
-13.601
-17.349
-20.826
-24.025
-26.935
-29.553
-31.881
-33.911
-35.628
-37.001
-37.984
-38.55
-38.698
-38.435
-37.786
-36.783
-35.461
-33.872
-32.079
-30.141
-28.113
-26.038
-23.945
-21.879
-19.898
-18.071
-16.489
-15.217
-14.289
-13.732
-13.553
-13.742
-14.281
-15.124
-16.199
-17.448
-18.825
-20.294
-21.839
-23.43
-25.021
-26.562
-27.994
-29.269
-30.359
-31.241
-31.897
-32.327
-32.54
-32.567
-32.466
-32.274
-32.019
-31.717
-31.373
-30.996
-30.604
-30.211
-29.832
-29.479
-29.161
-28.886
-28.666
-28.501
-28.388
-28.313
-28.25
-28.183
-28.106
-28.013
-27.907
-27.789
-27.661
-27.526
-27.393
-27.27
-27.159
-27.065
-26.987
-26.929
-26.895
-26.894
-26.931
-27.014
-27.147
-27.334
-27.577
-27.877
-28.235
-28.649
-29.116
-29.635
-30.202
-30.817
-31.478
-32.186
-32.937
-33.731
-34.564
-35.432
-36.332
-37.259
-38.206
-39.167
-40.134
-41.101
-42.061
-43.01
-43.943
-44.858
-45.747
-46.599
-47.41
-48.173
-48.88
-49.525
-50.098
-50.588
-50.993
-51.311
-51.539
-51.678
-51.717
-51.649
-51.465
-51.156
-50.722
-50.161
-49.467
-48.64
-47.687
-46.616
-45.447
-44.203
-42.883
-41.496
-40.049
-38.543
-36.996
-35.419
-33.816
-32.193
-30.55
-28.89
-27.219
-25.534
-23.81
-22.025
-20.144
-18.129
-15.973
-13.657
-11.16
-8.48
-5.608
-2.545
0.682
4.048
7.534
11.114
14.76
18.432
22.062
25.584
28.934
32.043
34.864
37.335
39.394
41.002
42.131
42.768
42.927
42.621
41.854
40.641
39.012
36.996
34.646
32.011
29.116
25.998
22.696
19.251
15.707
12.076
8.356
4.542
0.621
-3.412
-7.555
-11.834
-16.288
-20.943
-25.826
-30.936
-36.26
-41.844
-47.691
-53.697
-59.671
-65.277
-70.167
-74.115
-76.884
-78.122
-77.61
-75.392
-71.795
-67.57
-63.531
-60.142
-57.788
-57.015
-58.133
-60.977
-64.872
-68.332
-69.528
-67.26
-60.557
-47.932
-28.107
-0.482
35.054
76.663
120.907
166.03
210.557
252.683
292.184
324.934
343.707
342.831
315.645
261.021
185.502
95.496
-1.851
-103.107
-211.868
-329.225
-451.38
-569.474
-668.357
-734.88
-763.905
-757.342
-723.366
-674.219
-619.871
-566.329
-517.365
-471.209
-424.033
-374.434
-321.542
-268.178
-219.689
-179.005
-147.763
-125.55
-110.09
-100.059
-94.194
-91.03
-89.316
-87.421
-84.24
-79.557
-73.363
-65.874
-57.61
-49.107
-41.171
-34.827
-30.537
-28.306
-27.952
-29.054
-31.195
-34.031
-37.059
-39.716
-41.679
-42.793
-43.054
-42.598
-41.519
-39.871
-37.743
-35.228
-32.4
-29.338
-26.105
-22.746
-19.32
-15.887
-12.511
-9.244
-6.118
-3.144
-0.295
2.473
5.198
7.906
10.608
13.297
15.961
18.607
21.244
23.889
26.561
29.276
32.056
34.924
37.895
40.973
44.134
47.35
50.602
53.883
57.204
60.592
64.079
67.682
71.415
75.284
79.286
83.413
87.645
91.95
96.299
100.67
105.052
109.445
113.843
118.232
122.587
126.878
131.073
135.156
139.115
142.934
146.609
150.14
153.533
156.819
160.019
163.14
166.183
169.133
171.964
174.662
177.209
179.583
181.756
183.686
185.315
186.602
187.5
187.959
187.928
187.331
186.099
184.194
181.577
178.228
174.138
169.293
163.677
157.301
150.178
142.336
133.836
124.725
115.055
104.896
94.312
83.397
72.253
60.961
49.6
38.26
27.025
15.99
5.269
-5.051
-14.892
-24.171
-32.848
-40.882
-48.23
-54.876
-60.809
-66.033
-70.575
-74.459
-77.706
-80.365
-82.488
-84.145
-85.436
-86.44
-87.228
-87.882
-88.453
-88.988
-89.538
-90.13
-90.786
-91.524
-92.347
-93.253
-94.248
-95.319
-96.445
-97.597
-98.723
-99.786
-100.759
-101.608
-102.318
-102.876
-103.272
-103.504
-103.582
-103.514
-103.308
-102.979
-102.532
-101.981
-101.343
-100.639
-99.894
-99.129
-98.357
-97.592
-96.844
-96.116
-95.414
-94.738
-94.08
-93.438
-92.809
-92.188
-91.575
-90.967
-90.362
-89.756
-89.144
-88.526
-87.898
-87.261
-86.613
-85.955
-85.287
-84.61
-83.927
-83.241
-82.554
-81.866
-81.18
-80.497
-79.82
-79.149
-78.486
-77.831
-77.187
-76.553
-75.932
-75.323
-74.728
-74.147
-73.581
-73.029
-72.493
-71.972
-71.466
-70.973
-70.495
-70.028
-69.573
-69.128
-68.693
-68.265
-67.844
-67.43
-67.021
-66.618
-66.221
-65.827
-65.436
-65.047
-64.657
-64.264
-63.866
-63.46
-63.044
-62.618
-62.183
-61.741
-61.294
-60.847
-60.403
-59.967
-59.543
-59.135
-58.744
-58.371
-58.019
-57.691
-57.391
-57.126
-56.9
-56.714
-56.569
-56.464
-56.39
-56.341
-56.298
-56.244
-56.167
-56.06
-55.923
-55.765
-55.59
-55.407
-55.224
-55.042
-54.861
-54.686
-54.518
-54.356
-54.212
-54.101
-54.052
-54.102
-54.273
-54.575
-55.008
-55.552
-56.186
-56.886
-57.614
-58.343
-59.051
-59.71
-60.302
-60.815
-61.218
-61.471
-61.525
-61.304
-60.754
-59.833
-58.507
-56.759
-54.587
-51.993
-48.999
-45.633
-41.917
-37.877
-33.536
-28.908
-24.033
-18.965
-13.769
-8.54
-3.369
1.667
6.481
10.988
15.127
18.842
22.099
24.889
27.195
29.0
30.295
31.06
31.303
31.05
30.334
29.208
27.738
25.983
24.021
21.947
19.825
17.71
15.64
13.618
11.662
9.796
8.03
6.374
4.821
3.346
1.929
0.547
-0.83
-2.239
-3.747
-5.437
-7.366
-9.576
-12.065
-14.834
-17.942
-21.384
-25.085
-28.87
-32.416
-35.442
-37.76
-39.128
-39.246
-37.907
-34.991
-30.77
-25.942
-21.114
-16.796
-13.433
-11.379
-11.069
-12.779
-15.967
-19.399
-21.72
-21.484
-17.618
-9.007
6.082
29.015
60.18
98.388
141.045
186.325
232.987
280.219
327.027
367.393
393.798
399.761
379.104
334.824
272.824
195.529
105.902
-1.078
-130.359
-275.65
-425.088
-558.231
-654.755
-707.762
-719.194
-698.871
-659.735
-608.574
-550.436
-490.398
-431.284
-377.038
-328.856
-283.191
-238.284
-193.697
-150.574
-113.459
-84.863
-64.437
-51.356
-43.34
-38.032
-34.336
-31.124
-27.218
-22.277
-16.323
-9.294
-1.479
6.579
14.465
21.484
26.807
30.219
31.852
31.921
30.864
29.079
26.881
24.735
23.157
22.438
22.7
23.939
26.022
28.85
32.356
36.429
40.934
45.744
50.745
55.84
60.968
66.061
71.035
75.813
80.314
84.47
88.247
91.646
94.68
97.378
99.772
101.9
103.809
105.559
107.202
108.79
110.364
111.961
113.622
115.387
117.298
119.394
121.7
124.229
126.989
129.982
133.207
136.66
140.332
144.206
148.269
152.509
156.914
161.473
166.172
170.993
175.919
180.929
186.004
191.126
196.273
201.425
206.561
211.658
216.697
221.656
226.514
231.249
235.837
240.255
244.482
248.494
252.272
255.793
259.039
261.991
264.631
266.944
268.916
270.533
271.784
272.658
273.148
273.245
272.945
272.245
271.142
269.638
267.733
265.432
262.74
259.665
256.216
252.404
248.241
243.741
238.919
233.791
228.376
222.692
216.759
210.597
204.227
197.672
190.954
184.097
177.123
170.056
162.92
155.739
148.535
141.332
134.152
127.018
119.952
112.973
106.102
99.357
92.757
86.318
80.056
73.983
68.113
62.457
57.023
51.821
46.856
42.133
37.656
33.427
29.447
25.716
22.231
18.99
15.989
13.222
10.684
8.367
6.264
4.365
2.661
1.142
-0.202
-1.383
-2.411
-3.298
-4.056
-4.696
-5.228
-5.665
-6.016
-6.291
-6.5
-6.653
-6.755
-6.816
-6.842
-6.838
-6.808
-6.759
-6.692
-6.611
-6.518
-6.415
-6.303
-6.183
-6.055
-5.918
-5.772
-5.617
-5.45
-5.27
-5.077
-4.866
-4.638
-4.388
-4.116
-3.819
-3.495
-3.142
-2.758
-2.343
-1.895
-1.414
-0.899
-0.351
0.229
0.839
1.478
2.143
2.831
3.538
4.261
4.996
5.739
6.485
7.231
7.971
8.702
9.418
10.116
10.791
11.439
12.056
12.638
13.18
13.678
14.13
14.531
14.878
15.168
15.397
15.563
15.662
15.693
15.654
15.544
15.36
15.104
14.774
14.371
13.896
13.349
12.733
12.049
11.299
10.484
9.607
8.671
7.677
6.628
5.526
4.374
3.174
1.93
0.643
-0.683
-2.044
-3.438
-4.861
-6.307
-7.774
-9.255
-10.746
-12.241
-13.734
-15.22
-16.692
-18.143
-19.568
-20.961
-22.315
-23.624
-24.881
-26.082
-27.219
-28.287
-29.279
-30.19
-31.014
-31.745
-32.377
-32.905
-33.323
-33.626
-33.808
-33.866
-33.795
-33.592
-33.254
-32.779
-32.167
-31.417
-30.53
-29.51
-28.361
-27.087
-25.695
-24.193
-22.588
-20.889
-19.106
-17.25
-15.332
-13.363
-11.355
-9.32
-7.27
-5.222
-3.187
-1.18
0.786
2.696
4.537
6.294
7.953
9.504
10.937
12.242
13.41
14.431
15.296
15.999
16.539
16.918
17.138
17.204
17.122
16.906
16.576
16.152
15.651
15.087
14.467
13.805
13.116
12.42
11.739
11.088
10.476
9.912
9.406
8.963
8.584
8.257
7.942
7.6
7.199
6.713
6.136
5.462
4.666
3.707
2.539
1.112
-0.609
-2.638
-5.029
-7.868
-11.169
-14.877
-18.783
-22.537
-25.849
-28.51
-30.275
-30.863
-30.046
-27.689
-24.095
-19.993
-16.015
-12.69
-10.431
-9.561
-10.505
-13.529
-18.039
-22.66
-25.917
-26.282
-22.488
-13.291
3.096
28.258
62.014
102.467
147.405
194.964
245.561
300.448
357.459
410.265
448.418
461.158
442.478
393.603
322.681
238.588
147.683
51.347
-55.265
-174.72
-303.506
-431.987
-543.144
-621.667
-661.564
-665.031
-642.496
-606.61
-564.194
-517.721
-466.468
-408.678
-346.084
-282.227
-221.126
-166.829
-121.465
-85.749
-59.561
-41.686
-30.698
-25.395
-24.113
-25.143
-26.855
-27.492
-26.133
-22.725
-17.455
-10.725
-3.186
4.546
11.695
17.277
20.898
22.635
22.706
21.589
19.764
17.611
15.648
14.428
14.228
15.142
17.145
20.065
23.773
28.177
33.119
38.437
43.992
49.658
55.35
60.991
66.483
71.719
76.599
81.047
85.03
88.539
91.579
94.177
96.368
98.197
99.726
101.008
102.099
103.052
103.917
104.747
105.597
106.517
107.56
108.77
110.179
111.814
113.693
115.818
118.192
120.809
123.657
126.722
129.983
133.414
136.987
140.684
144.489
148.396
152.394
156.47
160.614
164.813
169.065
173.373
177.731
182.128
186.556
191.012
195.506
200.065
204.704
209.418
214.188
218.977
223.751
228.469
233.077
237.514
241.704
245.573
249.069
252.151
254.78
256.914
258.498
259.462
259.753
259.336
258.188
256.304
253.679
250.325
246.275
241.576
236.29
230.47
224.156
217.372
210.146
202.499
194.452
186.047
177.314
168.287
159.014
149.535
139.894
130.133
120.284
110.377
100.451
90.544
80.692
70.95
61.364
52.0
42.942
34.253
25.991
18.2
10.896
4.093
-2.196
-7.979
-13.273
-18.107
-22.531
-26.585
-30.293
-33.689
-36.805
-39.686
-42.403
-45.008
-47.541
-50.032
-52.497
-54.949
-57.405
-59.859
-62.29
-64.665
-66.939
-69.079
-71.076
-72.914
-74.585
-76.075
-77.361
-78.433
-79.294
-79.948
-80.399
-80.654
-80.715
-80.599
-80.331
-79.942
-79.468
-78.935
-78.359
-77.759
-77.147
-76.538
-75.943
-75.37
-74.819
-74.294
-73.8
-73.343
-72.93
-72.565
-72.248
-71.98
-71.758
-71.585
-71.461
-71.386
-71.362
-71.389
-71.468
-71.601
-71.791
-72.037
-72.339
-72.694
-73.1
-73.553
-74.049
-74.584
-75.152
-75.749
-76.37
-77.011
-77.667
-78.335
-79.009
-79.686
-80.362
-81.033
-81.694
-82.343
-82.975
-83.587
-84.176
-84.738
-85.271
-85.771
-86.237
-86.665
-87.055
-87.405
-87.714
-87.982
-88.207
-88.392
-88.536
-88.642
-88.712
-88.749
-88.754
-88.733
-88.688
-88.624
-88.545
-88.454
-88.355
-88.254
-88.153
-88.056
-87.968
-87.892
-87.831
-87.788
-87.767
-87.77
-87.8
-87.861
-87.953
-88.079
-88.241
-88.441
-88.679
-88.956
-89.273
-89.63
-90.027
-90.462
-90.935
-91.444
-91.987
-92.561
-93.164
-93.793
-94.444
-95.114
-95.798
-96.493
-97.194
-97.898
-98.599
-99.293
-99.976
-100.644
-101.291
-101.914
-102.508
-103.069
-103.594
-104.077
-104.514
-104.903
-105.238
-105.516
-105.734
-105.887
-105.973
-105.986
-105.925
-105.786
-105.566
-105.263
-104.873
-104.396
-103.829
-103.17
-102.419
-101.575
-100.638
-99.607
-98.484
-97.27
-95.967
-94.578
-93.105
-91.553
-89.926
-88.23
-86.469
-84.649
-82.777
-80.858
-78.899
-76.907
-74.888
-72.85
-70.802
-68.752
-66.709
-64.683
-62.683
-60.719
-58.801
-56.94
-55.144
-53.42
-51.773
-50.21
-48.741
-47.374
-46.117
-44.971
-43.936
-43.015
-42.203
-41.499
-40.893
-40.364
-39.893
-39.462
-39.06
-38.679
-38.313
-37.947
-37.568
-37.158
-36.706
-36.215
-35.685
-35.116
-34.512
-33.886
-33.271
-32.732
-32.334
-32.138
-32.198
-32.551
-33.228
-34.282
-35.772
-37.755
-40.288
-43.403
-47.107
-51.443
-56.469
-62.166
-68.421
-74.977
-81.439
-87.451
-92.733
-96.969
-99.798
-100.973
-100.421
-98.416
-95.612
-92.669
-90.11
-88.428
-88.124
-89.506
-92.576
-96.728
-100.644
-102.811
-101.822
-96.181
-84.239
-64.657
-36.334
0.458
43.454
90.198
138.077
185.47
232.986
279.875
322.38
353.807
362.918
340.061
283.223
196.095
89.182
-26.515
-147.807
-273.672
-402.691
-529.837
-640.852
-721.316
-764.392
-770.714
-750.458
-716.182
-674.459
-628.145
-576.595
-518.134
-454.869
-390.403
-328.656
-273.693
-227.652
-191.083
-163.726
-144.267
-131.102
-123.001
-118.399
-115.639
-113.205
-109.565
-103.976
-96.562
-87.7
-77.876
-67.769
-58.007
-49.311
-42.574
-38.144
-35.891
-35.546
-36.619
-38.613
-41.142
-43.704
-45.738
-46.918
-47.073
-46.147
-44.249
-41.46
-37.842
-33.517
-28.616
-23.258
-17.567
-11.638
-5.548
0.606
6.736
12.75
18.557
24.085
29.273
34.083
38.512
42.571
46.284
49.687
52.818
55.721
58.455
61.066
63.602
66.107
68.616
71.17
73.814
76.585
79.52
82.645
85.972
89.512
93.269
97.242
101.425
105.807
110.377
115.126
120.049
125.14
130.388
135.779
141.295
146.916
152.619
158.373
164.139
169.879
175.561
181.163
186.669
192.063
197.33
202.452
207.412
212.203
216.821
221.259
225.505
229.55
233.389
237.039
240.529
243.888
247.121
250.219
253.159
255.918
258.47
260.783
262.812
264.491
265.756
266.557
266.86
266.641
265.865
264.483
262.431
259.659
256.147
251.903
246.943
241.282
234.941
227.951
220.376
212.313
203.851
195.07
186.029
176.773
167.357
157.849
148.326
138.849
129.453
120.147
110.955
101.915
93.074
84.484
76.16
68.084
60.249
52.65
45.3
38.229
31.454
24.98
18.819
12.992
7.54
2.525
-2.023
-6.107
-9.744
-12.981
-15.836
-18.305
-20.397
-22.12
-23.492
-24.544
-25.294
-25.75
-25.936
-25.886
-25.651
-25.299
-24.872
-24.386
-23.846
-23.232
-22.539
-21.776
-20.946
-20.051
-19.096
-18.085
-17.031
-15.959
-14.883
-13.807
-12.729
-11.635
-10.523
-9.402
-8.285
-7.193
-6.144
-5.148
-4.219
-3.369
-2.607
-1.938
-1.361
-0.866
-0.446
-0.098
0.178
0.382
0.516
0.584
0.592
0.544
0.449
0.31
0.134
-0.069
-0.294
-0.536
-0.79
-1.054
-1.328
-1.607
-1.89
-2.174
-2.457
-2.738
-3.016
-3.288
-3.554
-3.812
-4.063
-4.308
-4.546
-4.779
-5.009
-5.237
-5.464
-5.693
-5.926
-6.165
-6.413
-6.67
-6.939
-7.223
-7.522
-7.839
-8.176
-8.533
-8.913
-9.317
-9.746
-10.202
-10.686
-11.199
-11.742
-12.316
-12.921
-13.555
-14.219
-14.91
-15.628
-16.37
-17.136
-17.923
-18.73
-19.559
-20.411
-21.286
-22.184
-23.105
-24.048
-25.011
-25.995
-26.996
-28.011
-29.035
-30.066
-31.105
-32.158
-33.224
-34.299
-35.374
-36.437
-37.478
-38.492
-39.468
-40.391
-41.252
-42.046
-42.776
-43.461
-44.108
-44.716
-45.278
-45.773
-46.197
-46.557
-46.86
-47.116
-47.335
-47.517
-47.681
-47.864
-48.084
-48.341
-48.62
-48.873
-49.081
-49.246
-49.375
-49.486
-49.577
-49.622
-49.603
-49.508
-49.318
-49.018
-48.566
-47.88
-46.92
-45.675
-44.156
-42.414
-40.464
-38.28
-35.85
-33.163
-30.227
-27.087
-23.773
-20.303
-16.719
-13.067
-9.428
-5.928
-2.646
0.381
3.131
5.62
7.824
9.679
11.141
12.183
12.794
12.994
12.79
12.18
11.19
9.865
8.278
6.535
4.702
2.802
0.848
-1.172
-3.242
-5.313
-7.365
-9.399
-11.421
-13.454
-15.509
-17.574
-19.676
-21.866
-24.216
-26.818
-29.729
-32.947
-36.488
-40.387
-44.631
-49.162
-53.797
-58.203
-62.071
-65.174
-67.254
-68.015
-67.265
-64.961
-61.412
-57.312
-53.37
-50.139
-48.119
-47.815
-49.548
-53.307
-58.419
-63.459
-66.814
-67.067
-62.823
-52.472
-34.583
-8.099
26.543
67.044
110.985
156.561
203.54
252.058
299.807
340.901
365.765
365.232
334.316
274.415
194.235
103.483
8.725
-88.525
-193.536
-309.747
-433.334
-553.364
-651.567
-712.671
-732.113
-714.947
-674.712
-625.464
-574.927
-525.431
-475.05
-421.331
-364.879
-308.452
-256.002
-211.058
-174.853
-147.092
-126.554
-111.504
-100.884
-93.552
-87.923
-82.738
-76.633
-68.57
-58.68
-47.646
-36.197
-25.454
-15.73
-6.309
2.656
10.196
13.927
10.558
-1.445
-20.395
-40.334
-53.647
-53.408
-36.658
-7.905
24.099
47.872
55.072
45.12
23.156
0.859
-12.527
-13.272
-1.368
15.415
30.994
42.692
48.341
51.126
53.539
55.824
59.021
62.305
64.863
67.119
69.1
70.924
72.866
74.862
76.823
78.784
80.737
82.671
84.637
86.704
88.919
91.335
93.997
96.908
100.073
103.503
107.195
111.144
115.336
119.755
124.383
129.212
134.231
139.426
144.778
150.263
155.858
161.538
167.283
173.068
178.869
184.66
190.418
196.116
201.73
207.236
212.609
217.822
222.849
227.663
232.241
236.558
240.591
244.317
247.717
250.771
253.463
255.777
257.7
259.22
260.327
261.014
261.274
261.104
260.502
259.467
258.003
256.112
253.801
251.079
247.953
244.437
240.543
236.285
231.681
226.748
221.505
215.972
210.17
204.122
197.85
191.379
184.732
177.934
171.01
163.983
156.88
149.723
142.538
135.348
128.175
121.042
113.972
106.983
100.097
93.331
86.704
80.232
73.931
67.815
61.898
56.19
50.703
45.446
40.426
35.65
31.122
26.845
22.822
19.053
15.537
12.272
9.254
6.48
3.943
1.638
-0.443
-2.309
-3.967
-5.428
-6.7
-7.795
-8.724
-9.496
-10.122
-10.614
-10.981
-11.235
-11.387
-11.446
-11.422
-11.326
-11.167
-10.954
-10.697
-10.402
-10.079
-9.733
-9.372
-9.001
-8.624
-8.246
-7.871
-7.502
-7.141
-6.79
-6.45
-6.123
-5.807
-5.504
-5.212
-4.93
-4.659
-4.396
-4.14
-3.891
-3.647
-3.407
-3.171
-2.938
-2.707
-2.478
-2.249
-2.022
-1.794
-1.567
-1.34
-1.114
-0.889
-0.666
-0.446
-0.229
-0.018
0.186
0.382
0.568
0.741
0.901
1.044
1.169
1.273
1.353
1.408
1.435
1.432
1.397
1.328
1.225
1.087
0.913
0.703
0.456
0.173
-0.146
-0.502
-0.892
-1.318
-1.778
-2.27
-2.794
-3.348
-3.93
-4.538
-5.172
-5.828
-6.505
-7.203
-7.918
-8.651
-9.4
-10.162
-10.937
-11.722
-12.516
-13.317
-14.124
-14.935
-15.747
-16.561
-17.375
-18.188
-18.998
-19.805
-20.606
-21.4
-22.184
-22.955
-23.709
-24.444
-25.158
-25.846
-26.507
-27.138
-27.737
-28.303
-28.835
-29.329
-29.781
-30.188
-30.542
-30.839
-31.072
-31.235
-31.32
-31.321
-31.232
-31.051
-30.775
-30.401
-29.925
-29.338
-28.636
-27.82
-26.893
-25.859
-24.724
-23.495
-22.185
-20.819
-19.419
-18.009
-16.601
-15.199
-13.807
-12.434
-11.086
-9.773
-8.495
-7.232
-5.975
-4.72
-3.461
-2.199
-0.913
0.441
1.9
3.491
5.23
7.107
9.122
11.286
13.593
16.027
18.549
21.087
23.591
26.029
28.37
30.59
32.642
34.436
35.902
36.989
37.651
37.865
37.59
36.754
35.326
33.304
30.706
27.599
24.02
19.976
15.473
10.513
5.119
-0.648
-6.732
-13.087
-19.654
-26.391
-33.228
-40.053
-46.795
-53.391
-59.806
-66.091
-72.18
-77.879
-82.933
-86.933
-89.481
-90.353
-89.231
-85.733
-79.89
-71.971
-62.522
-52.686
-43.431
-35.396
-29.48
-26.396
-26.031
-27.901
-30.948
-33.178
-32.784
-28.067
-16.905
2.416
29.975
64.44
104.71
149.141
196.641
247.292
296.523
336.475
359.922
358.536
329.402
277.03
206.506
123.869
33.73
-65.35
-175.936
-296.259
-420.852
-538.069
-632.119
-694.483
-724.261
-725.927
-709.585
-680.895
-639.818
-587.789
-526.519
-460.602
-398.628
-344.375
-297.303
-256.364
-218.342
-182.932
-153.236
-130.258
-114.384
-104.93
-98.857
-94.088
-89.412
-83.494
-76.065
-67.38
-57.55
-46.994
-36.422
-26.396
-17.56
-10.696
-6.06
-3.541
-2.949
-3.856
-5.816
-8.493
-11.474
-14.313
-16.762
-18.674
-19.963
-20.672
-20.831
-20.45
-19.592
-18.311
-16.653
-14.675
-12.422
-9.942
-7.286
-4.491
-1.565
1.493
4.678
7.96
11.297
14.665
18.05
21.44
24.819
28.143
31.391
34.562
37.675
40.764
43.849
46.93
49.996
53.03
56.027
59.001
61.969
64.94
67.931
70.961
74.066
77.303
80.715
84.324
88.137
92.147
96.346
100.733
105.299
110.033
114.92
119.931
125.044
130.246
135.516
140.84
146.195
151.538
156.827
162.023
167.089
172.005
176.753
181.317
185.694
189.885
193.891
197.729
201.401
204.888
208.163
211.174
213.864
216.194
218.135
219.666
220.776
221.439
221.63
221.331
220.512
219.145
217.194
214.607
211.347
207.411
202.819
197.622
191.896
185.695
179.071
172.071
164.735
157.109
149.239
141.16
132.913
124.546
116.117
107.703
99.374
91.174
83.128
75.242
67.5
59.903
52.453
45.149
38.0
31.013
24.198
17.577
11.172
4.994
-0.952
-6.673
-12.179
-17.465
-22.523
-27.339
-31.892
-36.168
-40.156
-43.843
-47.224
-50.297
-53.064
-55.537
-57.731
-59.657
-61.326
-62.748
-63.929
-64.882
-65.62
-66.158
-66.51
-66.692
-66.72
-66.611
-66.381
-66.044
-65.613
-65.099
-64.512
-63.861
-63.157
-62.408
-61.625
-60.814
-59.985
-59.146
-58.304
-57.465
-56.635
-55.818
-55.016
-54.233
-53.47
-52.727
-52.006
-51.305
-50.624
-49.962
-49.318
-48.689
-48.074
-47.47
-46.877
-46.291
-45.711
-45.135
-44.561
-43.987
-43.413
-42.837
-42.259
-41.679
-41.096
-40.51
-39.922
-39.332
-38.74
-38.147
-37.554
-36.962
-36.372
-35.785
-35.203
-34.628
-34.063
-33.509
-32.97
-32.447
-31.943
-31.46
-31.001
-30.568
-30.163
-29.787
-29.443
-29.133
-28.857
-28.616
-28.413
-28.246
-28.117
-28.025
-27.971
-27.952
-27.97
-28.022
-28.108
-28.226
-28.376
-28.557
-28.766
-29.003
-29.266
-29.555
-29.867
-30.2
-30.554
-30.927
-31.318
-31.725
-32.148
-32.584
-33.033
-33.494
-33.967
-34.449
-34.94
-35.44
-35.946
-36.46
-36.978
-37.502
-38.03
-38.561
-39.096
-39.633
-40.172
-40.711
-41.251
-41.789
-42.325
-42.856
-43.38
-43.896
-44.4
-44.89
-45.363
-45.816
-46.247
-46.651
-47.024
-47.363
-47.663
-47.92
-48.13
-48.288
-48.39
-48.431
-48.407
-48.314
-48.149
-47.908
-47.587
-47.183
-46.693
-46.114
-45.445
-44.683
-43.827
-42.877
-41.833
-40.697
-39.47
-38.156
-36.758
-35.281
-33.732
-32.116
-30.442
-28.716
-26.949
-25.149
-23.326
-21.49
-19.651
-17.821
-16.011
-14.232
-12.497
-10.816
-9.201
-7.665
-6.219
-4.872
-3.635
-2.512
-1.51
-0.636
0.104
0.701
1.149
1.449
1.598
1.596
1.448
1.16
0.745
0.227
-0.372
-1.034
-1.742
-2.488
-3.256
-4.03
-4.79
-5.513
-6.18
-6.781
-7.304
-7.735
-8.073
-8.322
-8.517
-8.724
-9.003
-9.409
-9.984
-10.748
-11.741
-13.026
-14.667
-16.734
-19.285
-22.338
-25.947
-30.211
-35.142
-40.669
-46.572
-52.439
-57.91
-62.734
-66.616
-69.229
-70.366
-69.939
-68.239
-65.979
-63.802
-62.17
-61.49
-62.091
-64.183
-67.754
-72.122
-75.914
-77.665
-75.999
-69.584
-57.094
-37.225
-8.786
27.816
70.411
116.822
164.527
212.939
263.683
315.206
363.19
399.076
409.872
387.726
331.753
248.339
149.93
45.562
-62.383
-176.868
-300.151
-428.182
-549.085
-645.943
-708.218
-734.148
-730.092
-708.699
-677.861
-640.537
-597.082
-545.061
-485.592
-422.571
-359.673
-301.307
-250.234
-207.308
-173.116
-147.337
-128.815
-116.438
-108.975
-104.687
-101.966
-99.32
-95.228
-89.028
-80.81
-70.828
-59.576
-47.804
-36.19
-25.529
-16.727
-10.119
-5.628
-3.068
-2.037
-2.109
-2.924
-4.003
-4.831
-5.136
-4.8
-3.781
-2.155
0.02
2.701
5.76
9.059
12.504
16.021
19.587
23.197
26.813
30.379
33.845
37.163
40.311
43.275
46.03
48.564
50.891
53.051
55.124
57.185
59.282
61.446
63.685
65.991
68.377
70.856
73.437
76.133
78.952
81.902
85.004
88.275
91.714
95.304
99.0
102.764
106.579
110.442
114.363
118.366
122.46
126.654
130.957
135.372
139.893
144.514
149.212
153.96
158.742
163.546
168.369
173.207
178.042
182.852
187.605
192.262
196.791
201.158
205.326
209.264
212.945
216.345
219.447
222.24
224.707
226.832
228.599
229.991
230.996
231.604
231.808
231.603
230.988
229.96
228.524
226.682
224.439
221.8
218.771
215.358
211.57
207.418
202.915
198.076
192.917
187.456
181.714
175.712
169.472
163.018
156.372
149.558
142.601
135.526
128.357
121.12
113.839
106.54
99.247
91.983
84.774
77.642
70.609
63.696
56.925
50.314
43.882
37.645
31.619
25.819
20.257
14.945
9.893
5.109
0.6
-3.629
-7.574
-11.234
-14.607
-17.696
-20.503
-23.032
-25.289
-27.28
-29.012
-30.495
-31.738
-32.751
-33.545
-34.133
-34.526
-34.737
-34.781
-34.669
-34.416
-34.036
-33.541
-32.946
-32.262
-31.503
-30.68
-29.806
-28.892
-27.947
-26.982
-26.006
-25.027
-24.053
-23.091
-22.145
-21.222
-20.326
-19.46
-18.628
-17.83
-17.069
-16.346
-15.66
-15.011
-14.399
-13.823
-13.28
-12.769
-12.288
-11.833
-11.403
-10.994
-10.605
-10.231
-9.871
-9.523
-9.183
-8.85
-8.523
-8.2
-7.879
-7.56
-7.243
-6.927
-6.612
-6.298
-5.987
-5.68
-5.377
-5.079
-4.79
-4.51
-4.242
-3.987
-3.748
-3.526
-3.325
-3.145
-2.989
-2.86
-2.758
-2.687
-2.647
-2.641
-2.67
-2.735
-2.836
-2.975
-3.151
-3.365
-3.615
-3.901
-4.222
-4.576
-4.962
-5.376
-5.818
-6.284
-6.772
-7.278
-7.799
-8.333
-8.876
-9.424
-9.975
-10.525
-11.073
-11.615
-12.148
-12.672
-13.184
-13.681
-14.163
-14.627
-15.072
-15.497
-15.9
-16.281
-16.638
-16.972
-17.283
-17.572
-17.839
-18.086
-18.315
-18.526
-18.724
-18.909
-19.086
-19.256
-19.422
-19.589
-19.759
-19.936
-20.122
-20.319
-20.531
-20.757
-21.001
-21.261
-21.538
-21.83
-22.137
-22.457
-22.79
-23.133
-23.487
-23.849
-24.22
-24.598
-24.981
-25.367
-25.751
-26.13
-26.497
-26.847
-27.173
-27.467
-27.721
-27.925
-28.075
-28.164
-28.183
-28.125
-27.977
-27.731
-27.383
-26.933
-26.383
-25.737
-25.001
-24.185
-23.309
-22.39
-21.445
-20.487
-19.517
-18.538
-17.554
-16.571
-15.598
-14.634
-13.666
-12.675
-11.649
-10.571
-9.423
-8.18
-6.797
-5.24
-3.487
-1.53
0.623
2.955
5.456
8.11
10.895
13.777
16.705
19.619
22.476
25.227
27.822
30.199
32.276
33.988
35.293
36.167
36.605
36.607
36.171
35.302
34.021
32.354
30.336
28.004
25.384
22.503
19.392
16.086
12.62
9.019
5.291
1.432
-2.549
-6.657
-10.907
-15.323
-19.934
-24.765
-29.803
-35.054
-40.577
-46.345
-52.235
-58.012
-63.257
-67.562
-70.65
-72.189
-71.775
-69.248
-64.719
-58.658
-52.108
-46.096
-41.321
-38.487
-38.218
-40.652
-45.4
-51.368
-56.437
-58.341
-55.198
-45.112
-26.433
1.834
39.861
86.65
139.906
196.669
253.517
306.565
351.18
381.967
395.256
388.946
362.55
319.328
261.132
187.153
97.387
-11.772
-141.957
-285.483
-431.788
-564.348
-664.557
-725.656
-747.883
-738.645
-712.013
-675.4
-631.838
-582.358
-524.331
-458.992
-390.622
-323.411
-262.583
-211.451
-170.869
-140.723
-119.856
-106.594
-99.373
-96.412
-95.499
-94.527
-91.773
-86.341
-78.263
-68.024
-56.272
-43.78
-31.471
-20.355
-11.416
-5.128
-1.397
0.097
-0.164
-1.666
-3.95
-6.478
-8.67
-10.17
-10.821
-10.557
-9.444
-7.555
-4.93
-1.671
2.093
6.264
10.74
15.434
20.282
25.194
30.073
34.844
39.423
43.74
47.742
51.369
54.591
57.412
59.846
61.924
63.687
65.177
66.446
67.556
68.563
69.524
70.485
71.488
72.575
73.794
75.188
76.801
78.659
80.776
83.159
85.809
88.721
91.884
95.271
98.856
102.611
106.515
110.559
114.733
119.025
123.418
127.894
132.439
137.055
141.748
146.515
151.36
156.284
161.294
166.42
171.681
177.085
182.632
188.298
194.05
199.857
205.684
211.484
217.198
222.748
228.041
233.007
237.572
241.669
245.224
248.14
250.336
251.75
252.338
252.08
250.973
249.013
246.21
242.599
238.233
233.185
227.554
221.411
214.827
207.873
200.623
193.169
185.599
177.975
170.351
162.768
155.257
147.853
140.586
133.46
126.469
119.596
112.808
106.094
99.449
92.866
86.342
79.869
73.438
67.055
60.737
54.496
48.348
42.303
36.372
30.577
24.945
19.501
14.277
9.293
4.561
0.095
-4.098
-8.011
-11.641
-14.993
-18.074
-20.893
-23.456
-25.769
-27.84
-29.678
-31.296
-32.706
-33.923
-34.958
-35.824
-36.532
-37.096
-37.524
-37.829
-38.02
-38.104
-38.091
-37.992
-37.814
-37.569
-37.266
-36.913
-36.518
-36.089
-35.634
-35.158
-34.667
-34.163
-33.652
-33.136
-32.618
-32.099
-31.582
-31.067
-30.555
-30.047
-29.543
-29.043
-28.546
-28.053
-27.561
-27.071
-26.582
-26.093
-25.603
-25.111
-24.617
-24.121
-23.623
-23.12
-22.614
-22.105
-21.591
-21.073
-20.553
-20.029
-19.503
-18.977
-18.452
-17.931
-17.414
-16.905
-16.405
-15.918
-15.445
-14.99
-14.555
-14.142
-13.753
-13.391
-13.059
-12.757
-12.488
-12.254
-12.055
-11.893
-11.768
-11.68
-11.629
-11.616
-11.64
-11.699
-11.793
-11.92
-12.079
-12.268
-12.485
-12.728
-12.994
-13.281
-13.584
-13.902
-14.231
-14.567
-14.908
-15.249
-15.589
-15.922
-16.247
-16.559
-16.857
-17.137
-17.397
-17.634
-17.846
-18.031
-18.188
-18.317
-18.416
-18.484
-18.523
-18.532
-18.511
-18.463
-18.388
-18.288
-18.164
-18.019
-17.854
-17.671
-17.474
-17.265
-17.047
-16.822
-16.592
-16.362
-16.133
-15.907
-15.688
-15.477
-15.278
-15.09
-14.917
-14.76
-14.62
-14.497
-14.391
-14.304
-14.233
-14.178
-14.139
-14.112
-14.096
-14.089
-14.087
-14.087
-14.086
-14.08
-14.065
-14.037
-13.991
-13.922
-13.826
-13.699
-13.536
-13.332
-13.083
-12.785
-12.433
-12.023
-11.553
-11.019
-10.418
-9.749
-9.009
-8.198
-7.316
-6.364
-5.343
-4.257
-3.109
-1.903
-0.645
0.661
2.007
3.387
4.794
6.22
7.658
9.098
10.532
11.95
13.342
14.7
16.012
17.27
18.462
19.578
20.61
21.551
22.395
23.136
23.765
24.274
24.656
24.91
25.036
25.033
24.905
24.657
24.301
23.858
23.351
22.8
22.222
21.628
21.03
20.443
19.888
19.383
18.944
18.574
18.276
18.052
17.898
17.797
17.717
17.589
17.341
16.908
16.232
15.266
13.977
12.314
10.217
7.634
4.51
0.807
-3.476
-8.377
-13.95
-20.16
-26.867
-33.795
-40.524
-46.664
-51.956
-56.098
-58.691
-59.505
-58.562
-56.191
-53.132
-50.164
-47.627
-45.828
-45.493
-46.963
-49.969
-54.004
-56.906
-56.268
-51.773
-42.41
-28.114
-9.681
15.506
48.68
90.661
142.114
197.954
252.334
298.292
329.049
343.525
341.909
325.478
294.566
246.173
177.772
87.814
-21.906
-146.922
-281.155
-415.081
-538.375
-639.353
-707.865
-741.23
-742.643
-720.742
-686.006
-644.293
-597.996
-546.936
-490.138
-429.469
-368.135
-309.787
-258.011
-214.585
-180.098
-154.373
-136.225
-124.369
-117.693
-114.586
-113.437
-112.725
-110.851
-107.06
-101.395
-94.083
-85.547
-76.444
-67.395
-59.167
-52.701
-48.369
-46.095
-45.669
-46.646
-48.579
-51.119
-53.784
-56.034
-57.559
-58.201
-57.919
-56.829
-55.017
-52.539
-49.514
-46.061
-42.289
-38.304
-34.182
-29.984
-25.783
-21.65
-17.654
-13.866
-10.342
-7.133
-4.265
-1.73
0.488
2.421
4.11
5.594
6.921
8.15
9.333
10.522
11.761
13.088
14.541
16.165
17.997
20.073
22.419
25.046
27.963
31.171
34.668
38.45
42.505
46.817
51.369
56.148
61.137
66.324
71.69
77.212
82.87
88.637
94.491
100.406
106.357
112.316
118.258
124.155
129.981
135.709
141.313
146.763
152.032
157.092
161.915
166.476
170.748
174.707
178.33
181.598
184.489
186.989
189.08
190.751
191.989
192.785
193.131
193.023
192.457
191.432
189.95
188.015
185.632
182.81
179.557
175.887
171.812
167.349
162.514
157.326
151.807
145.976
139.858
133.477
126.857
120.025
113.008
105.832
98.525
91.115
83.629
76.095
68.54
60.991
53.474
46.014
38.637
31.367
24.226
17.237
10.421
3.796
-2.618
-8.806
-14.753
-20.444
-25.867
-31.012
-35.87
-40.434
-44.697
-48.656
-52.308
-55.652
-58.689
-61.422
-63.853
-65.988
-67.834
-69.398
-70.689
-71.717
-72.492
-73.026
-73.332
-73.422
-73.31
-73.009
-72.535
-71.901
-71.121
-70.212
-69.185
-68.057
-66.839
-65.545
-64.189
-62.781
-61.335
-59.861
-58.369
-56.87
-55.373
-53.885
-52.414
-50.968
-49.55
-48.167
-46.823
-45.519
-44.259
-43.045
-41.877
-40.756
-39.681
-38.652
-37.667
-36.725
-35.821
-34.955
-34.123
-33.322
-32.548
-31.798
-31.07
-30.36
-29.666
-28.986
-28.316
-27.654
-26.999
-26.348
-25.701
-25.054
-24.409
-23.762
-23.115
-22.468
-21.82
-21.174
-20.53
-19.89
-19.255
-18.629
-18.012
-17.407
-16.816
-16.243
-15.688
-15.156
-14.65
-14.172
-13.725
-13.312
-12.935
-12.598
-12.301
-12.046
-11.835
-11.667
-11.543
-11.464
-11.43
-11.44
-11.495
-11.594
-11.737
-11.924
-12.153
-12.422
-12.73
-13.073
-13.448
-13.852
-14.281
-14.73
-15.195
-15.674
-16.164
-16.664
-17.173
-17.69
-18.212
-18.738
-19.265
-19.791
-20.31
-20.817
-21.308
-21.78
-22.235
-22.674
-23.099
-23.508
-23.898
-24.265
-24.596
-24.878
-25.096
-25.231
-25.274
-25.217
-25.06
-24.811
-24.48
-24.077
-23.61
-23.075
-22.467
-21.785
-21.028
-20.202
-19.329
-18.438
-17.565
-16.758
-16.05
-15.47
-15.035
-14.736
-14.554
-14.451
-14.4
-14.387
-14.405
-14.45
-14.512
-14.572
-14.591
-14.522
-14.304
-13.852
-13.084
-11.926
-10.318
-8.239
-5.709
-2.769
0.538
4.183
8.145
12.399
16.91
21.636
26.523
31.511
36.519
41.425
46.091
50.381
54.171
57.383
59.986
61.972
63.342
64.092
64.22
63.736
62.659
61.008
58.799
56.045
52.788
49.114
45.138
40.984
36.761
32.546
28.383
24.299
20.309
16.412
12.605
8.868
5.19
1.581
-1.945
-5.37
-8.7
-11.976
-15.249
-18.553
-21.938
-25.474
-29.145
-32.851
-36.389
-39.409
-41.598
-42.736
-42.56
-40.741
-37.142
-31.854
-25.234
-18.071
-11.074
-4.679
0.574
4.116
5.704
5.46
4.1
3.144
4.035
8.012
16.727
31.748
54.292
84.401
120.323
159.696
200.813
243.84
289.303
335.183
375.458
399.761
397.996
364.851
302.143
219.206
126.079
29.609
-68.975
-174.549
-288.454
-406.221
-516.778
-603.254
-656.029
-673.832
-663.096
-637.313
-604.75
-568.975
-530.84
-487.263
-438.208
-385.998
-332.487
-280.654
-232.822
-189.557
-151.319
-118.355
-90.186
-66.682
-48.079
-34.11
-23.945
-16.706
-11.204
-6.196
-1.265
3.821
9.411
15.505
21.887
28.266
33.985
38.276
40.902
41.901
41.421
39.799
37.327
34.259
31.012
28.082
25.779
24.247
23.495
23.413
23.925
24.999
26.587
28.605
30.964
33.579
36.378
39.334
42.442
45.694
49.067
52.513
55.972
59.41
62.829
66.232
69.614
72.951
76.196
79.329
82.362
85.316
88.21
91.048
93.808
96.469
99.032
101.514
103.938
106.321
108.664
110.98
113.296
115.663
118.138
120.753
123.518
126.432
129.492
132.699
136.055
139.553
143.174
146.895
150.697
154.567
158.491
162.446
166.401
170.312
174.138
177.861
181.47
184.967
188.364
191.671
194.907
198.107
201.298
204.5
207.723
210.964
214.222
217.493
220.767
224.039
227.286
230.462
233.513
236.37
238.941
241.142
242.878
244.04
244.542
244.301
243.243
241.319
238.473
234.662
229.862
224.049
217.226
209.43
200.715
191.162
180.884
169.989
158.599
146.851
134.867
122.776
110.709
98.783
87.128
75.866
65.101
54.943
45.474
36.746
28.792
21.616
15.195
9.504
4.508
0.153
-3.605
-6.827
-9.582
-11.939
-13.987
-15.81
-17.481
-19.082
-20.674
-22.302
-24.002
-25.789
-27.662
-29.621
-31.659
-33.759
-35.911
-38.094
-40.28
-42.437
-44.521
-46.492
-48.321
-49.975
-51.432
-52.681
-53.71
-54.522
-55.127
-55.536
-55.762
-55.819
-55.72
-55.481
-55.122
-54.665
-54.137
-53.561
-52.952
-52.329
-51.701
-51.08
-50.47
-49.877
-49.295
-48.726
-48.167
-47.616
-47.073
-46.538
-46.006
-45.474
-44.94
-44.4
-43.854
-43.299
-42.736
-42.165
-41.586
-41.001
-40.413
-39.823
-39.232
-38.642
-38.053
-37.465
-36.88
-36.298
-35.718
-35.14
-34.566
-33.996
-33.429
-32.869
-32.314
-31.767
-31.228
-30.699
-30.183
-29.68
-29.193
-28.724
-28.275
-27.847
-27.443
-27.063
-26.708
-26.38
-26.079
-25.806
-25.56
-25.341
-25.149
-24.983
-24.842
-24.725
-24.631
-24.56
-24.509
-24.478
-24.467
-24.475
-24.5
-24.543
-24.603
-24.679
-24.771
-24.879
-25.002
-25.14
-25.292
-25.457
-25.636
-25.828
-26.033
-26.251
-26.482
-26.726
-26.983
-27.253
-27.537
-27.836
-28.149
-28.478
-28.824
-29.187
-29.569
-29.971
-30.392
-30.834
-31.298
-31.783
-32.288
-32.814
-33.359
-33.921
-34.498
-35.089
-35.69
-36.297
-36.908
-37.519
-38.124
-38.72
-39.303
-39.866
-40.405
-40.914
-41.389
-41.823
-42.211
-42.549
-42.829
-43.048
-43.199
-43.278
-43.281
-43.202
-43.037
-42.783
-42.435
-41.993
-41.453
-40.814
-40.077
-39.24
-38.307
-37.278
-36.159
-34.952
-33.663
-32.3
-30.871
-29.384
-27.849
-26.276
-24.677
-23.062
-21.443
-19.831
-18.235
-16.668
-15.14
-13.662
-12.248
-10.908
-9.653
-8.493
-7.438
-6.495
-5.67
-4.967
-4.387
-3.93
-3.601
-3.405
-3.347
-3.428
-3.646
-3.997
-4.475
-5.067
-5.757
-6.521
-7.337
-8.185
-9.048
-9.918
-10.782
-11.628
-12.438
-13.187
-13.855
-14.427
-14.89
-15.235
-15.47
-15.621
-15.728
-15.851
-16.039
-16.33
-16.766
-17.393
-18.259
-19.422
-20.94
-22.856
-25.237
-28.175
-31.694
-35.752
-40.187
-44.695
-48.973
-52.745
-55.725
-57.638
-58.295
-57.64
-56.003
-54.035
-52.33
-51.493
-51.878
-53.562
-56.863
-61.958
-68.091
-74.201
-78.409
-77.71
-71.222
-59.184
-42.179
-22.965
-1.056
27.143
64.02
111.967
168.456
225.166
274.958
312.733
336.567
347.052
342.078
316.473
264.667
184.324
77.474
-50.848
-193.138
-341.274
-484.527
-607.908
-697.941
-747.243
-756.946
-738.177
-704.718
-665.085
-623.12
-577.48
-524.825
-466.341
-405.102
-344.734
-290.025
-243.191
-204.438
-173.893
-150.505
-132.71
-119.763
-110.734
-104.05
-98.533
-93.05
-86.4
-78.393
-69.392
-59.551
-49.254
-39.138
-29.67
-21.511
-15.417
-11.518
-9.611
-9.444
-10.55
-12.479
-14.864
-17.204
-18.974
-19.886
-19.808
-18.73
-16.766
-14.005
-10.509
-6.403
-1.828
3.082
8.204
13.432
18.669
23.791
28.649
33.101
37.027
40.338
42.995
44.992
46.351
47.124
47.382
47.225
46.757
46.076
45.269
44.418
43.614
42.961
42.585
42.599
43.089
44.124
45.741
47.966
50.799
54.218
58.168
62.568
67.347
72.443
77.81
83.409
89.189
95.087
101.033
106.965
112.833
118.597
124.221
129.665
134.902
139.915
144.711
149.318
153.755
158.029
162.148
166.108
169.913
173.576
177.096
180.465
183.678
186.723
189.594
192.301
194.854
197.266
199.55
201.691
203.668
205.462
207.037
208.363
209.402
210.107
210.454
210.432
210.031
209.246
208.071
206.47
204.402
201.815
198.643
194.851
190.432
185.382
179.732
173.516
166.784
159.6
152.014
144.052
135.734
127.079
118.113
108.897
99.509
90.043
80.619
71.332
62.252
53.445
44.947
36.784
28.971
21.504
14.394
7.675
1.393
-4.408
-9.695
-14.465
-18.74
-22.555
-25.974
-29.049
-31.822
-34.332
-36.602
-38.643
-40.463
-42.064
-43.45
-44.649
-45.701
-46.645
-47.515
-48.327
-49.081
-49.77
-50.369
-50.853
-51.206
-51.414
-51.472
-51.386
-51.162
-50.811
-50.345
-49.767
-49.073
-48.258
-47.32
-46.261
-45.093
-43.832
-42.498
-41.115
-39.702
-38.278
-36.855
-35.441
-34.042
-32.661
-31.298
-29.955
-28.635
-27.343
-26.083
-24.858
-23.669
-22.514
-21.391
-20.296
-19.224
-18.174
-17.142
-16.127
-15.13
-14.153
-13.199
-12.274
-11.378
-10.516
-9.689
-8.897
-8.142
-7.422
-6.737
-6.084
-5.465
-4.879
-4.329
-3.817
-3.345
-2.916
-2.531
-2.192
-1.902
-1.659
-1.461
-1.306
-1.193
-1.123
-1.103
-1.136
-1.221
-1.359
-1.543
-1.767
-2.022
-2.289
-2.54
-2.747
-2.884
-2.933
-2.889
-2.748
-2.509
-2.171
-1.73
-1.191
-0.568
0.127
0.88
1.676
2.5
3.31
4.045
4.638
5.023
5.162
5.045
4.659
4.003
3.091
1.945
0.628
-0.768
-2.18
-3.549
-4.78
-5.788
-6.454
-6.621
-6.176
-5.024
-3.05
-0.162
3.595
8.144
13.554
19.788
26.742
34.518
42.365
49.546
56.797
64.243
73.302
85.677
