25.614
25.719
25.752
25.708
25.581
25.365
25.056
24.648
24.138
23.521
22.794
21.954
20.998
19.926
18.735
17.425
15.996
14.45
12.786
11.008
9.118
7.12
5.018
2.816
0.521
-1.861
-4.321
-6.853
-9.448
-12.097
-14.79
-17.517
-20.266
-23.028
-25.79
-28.542
-31.272
-33.968
-36.62
-39.216
-41.747
-44.204
-46.578
-48.861
-51.047
-53.13
-55.105
-56.967
-58.714
-60.343
-61.852
-63.24
-64.508
-65.654
-66.682
-67.593
-68.393
-69.085
-69.675
-70.168
-70.573
-70.897
-71.152
-71.344
-71.48
-71.566
-71.612
-71.626
-71.623
-71.613
-71.599
-71.589
-71.587
-71.597
-71.623
-71.661
-71.696
-71.714
-71.704
-71.658
-71.579
-71.467
-71.316
-71.119
-70.865
-70.558
-70.209
-69.829
-69.423
-68.999
-68.581
-68.212
-67.967
-67.925
-68.149
-68.691
-69.593
-70.888
-72.623
-74.858
-77.636
-80.992
-84.946
-89.488
-94.655
-100.519
-107.023
-113.994
-121.132
-127.986
-134.184
-139.514
-143.649
-146.177
-147.001
-146.224
-144.278
-142.126
-140.462
-139.602
-140.089
-142.42
-146.546
-152.16
-158.248
-162.869
-164.642
-162.459
-154.684
-139.954
-117.264
-86.774
-50.816
-12.285
26.476
65.373
106.342
148.525
188.087
216.133
219.31
189.813
126.403
35.867
-67.381
-172.783
-276.488
-380.47
-488.804
-600.012
-704.542
-787.492
-838.043
-852.624
-835.968
-799.967
-753.262
-700.941
-645.215
-584.541
-519.981
-454.6
-391.754
-335.739
-289.123
-252.441
-225.383
-206.545
-194.209
-187.074
-183.456
-181.578
-179.875
-176.843
-171.796
-164.853
-156.375
-146.848
-136.965
-127.398
-118.898
-112.336
-108.037
-105.869
-105.557
-106.616
-108.562
-110.993
-113.413
-115.281
-116.284
-116.291
-115.288
-113.402
-110.74
-107.376
-103.433
-99.047
-94.338
-89.421
-84.386
-79.308
-74.271
-69.368
-64.688
-60.32
-56.334
-52.769
-49.638
-46.929
-44.612
-42.651
-41.005
-39.622
-38.447
-37.423
-36.498
-35.623
-34.758
-33.859
-32.883
-31.786
-30.524
-29.069
-27.401
-25.51
-23.389
-21.035
-18.445
-15.623
-12.579
-9.325
-5.868
-2.215
1.632
5.668
9.883
14.262
18.787
23.441
28.205
33.057
37.967
42.897
47.813
52.687
57.501
62.244
66.899
71.449
75.877
80.166
84.31
88.306
92.147
95.822
99.329
102.671
105.87
108.963
111.973
114.909
117.765
120.524
123.168
125.679
128.029
130.183
132.097
133.73
135.057
136.055
136.689
136.917
136.68
135.898
134.515
132.491
129.793
126.41
122.34
117.59
112.191
106.183
99.61
92.515
84.928
76.885
68.446
59.678
50.665
41.515
32.318
23.173
14.189
5.45
-2.975
-11.024
-18.664
-25.862
-32.573
-38.761
-44.39
-49.433
-53.889
-57.762
-61.061
-63.823
-66.087
-67.912
-69.384
-70.565
-71.501
-72.233
-72.788
-73.2
-73.519
-73.783
-74.021
-74.257
-74.503
-74.773
-75.084
-75.435
-75.81
-76.182
-76.504
-76.748
-76.9
-76.95
-76.892
-76.717
-76.41
-75.965
-75.391
-74.692
-73.874
-72.944
-71.9
-70.754
-69.526
-68.238
-66.92
-65.593
-64.267
-62.956
-61.668
-60.411
-59.193
-58.017
-56.876
-55.77
-54.696
-53.654
-52.645
-51.666
-50.712
-49.775
-48.852
-47.936
-47.026
-46.117
-45.206
-44.292
-43.373
-42.449
-41.522
-40.592
-39.659
-38.723
-37.783
-36.839
-35.892
-34.941
-33.987
-33.029
-32.07
-31.109
-30.15
-29.194
-28.241
-27.296
-26.361
-25.437
-24.529
-23.64
-22.771
-21.927
-21.111
-20.324
-19.57
-18.851
-18.169
-17.525
-16.92
-16.357
-15.836
-15.356
-14.919
-14.523
-14.169
-13.856
-13.582
-13.347
-13.15
-12.989
-12.862
-12.769
-12.706
-12.673
-12.666
-12.682
-12.72
-12.775
-12.845
-12.925
-13.012
-13.102
-13.19
-13.274
-13.348
-13.41
-13.456
-13.483
-13.487
-13.466
-13.416
-13.335
-13.222
-13.073
-12.886
-12.661
-12.395
-12.087
-11.735
-11.34
-10.898
-10.41
-9.875
-9.291
-8.658
-7.976
-7.245
-6.464
-5.635
-4.76
-3.84
-2.878
-1.877
-0.841
0.226
1.321
2.437
3.572
4.719
5.875
7.035
8.195
9.349
10.494
11.625
12.736
13.822
14.88
15.905
16.891
17.836
18.732
19.577
20.371
21.111
21.796
22.424
22.989
23.49
23.932
24.317
24.65
24.936
25.18
25.395
25.599
25.813
26.049
26.319
26.625
26.97
27.368
27.827
28.356
28.96
29.625
30.343
31.113
31.926
32.759
33.579
34.324
34.928
35.35
35.546
35.484
35.142
34.476
33.438
31.992
30.097
27.738
24.915
21.581
17.676
13.222
8.343
3.285
-1.58
-5.938
-9.562
-12.172
-13.411
-13.052
-11.146
-8.087
-4.64
-1.579
0.628
1.539
0.515
-2.849
-8.409
-15.411
-22.297
-27.292
-29.222
-26.771
-18.079
-1.764
22.972
55.513
93.125
133.653
175.835
218.486
260.892
298.754
324.814
332.31
314.402
269.476
201.83
117.092
22.698
-76.178
-179.456
-288.829
-404.606
-522.794
-633.511
-721.657
-774.62
-788.33
-765.024
-714.633
-649.266
-574.455
-495.045
-415.011
-335.936
-263.999
-203.232
-152.923
-113.129
-80.957
-54.407
-35.098
-23.058
-17.624
-17.036
-17.581
-16.564
-12.975
-6.695
1.673
11.436
22.016
32.564
41.982
49.191
53.704
55.623
55.295
53.269
50.074
46.199
42.265
38.92
36.56
35.344
35.285
36.255
38.139
40.867
44.305
48.299
52.708
57.397
62.26
67.209
72.145
76.953
81.527
85.76
89.568
92.906
95.755
98.122
100.036
101.528
102.642
103.43
103.952
104.271
104.444
104.527
104.572
104.631
104.762
105.018
105.451
106.095
106.975
108.105
109.493
111.143
113.056
115.23
117.659
120.339
123.26
126.413
129.788
133.37
137.139
141.073
145.14
149.312
153.562
157.864
162.204
166.569
170.94
175.3
179.627
183.909
188.144
192.335
196.48
200.58
204.636
208.657
212.671
216.701
220.755
224.834
228.911
232.96
236.961
240.892
244.725
248.42
251.91
255.125
258.015
260.525
262.598
264.164
265.117
265.373
264.879
263.601
261.539
258.7
255.075
250.669
245.508
239.634
233.117
226.032
218.417
210.328
201.839
193.043
184.085
175.082
166.114
157.243
148.509
139.954
131.637
123.601
115.862
108.434
101.314
94.506
88.054
81.978
76.27
70.902
65.803
60.92
56.237
51.744
47.435
43.301
39.324
35.494
31.827
28.33
25.008
21.853
18.826
15.907
13.101
10.422
7.909
5.588
3.46
1.529
-0.202
-1.73
-3.054
-4.181
-5.136
-5.938
-6.596
-7.113
-7.481
-7.701
-7.787
-7.757
-7.638
-7.452
-7.213
-6.937
-6.646
-6.354
-6.075
-5.815
-5.574
-5.353
-5.159
-4.998
-4.881
-4.813
-4.795
-4.829
-4.915
-5.051
-5.237
-5.47
-5.744
-6.056
-6.402
-6.781
-7.191
-7.629
-8.094
-8.58
-9.085
-9.605
-10.135
-10.671
-11.209
-11.742
-12.267
-12.781
-13.28
-13.761
-14.22
-14.656
-15.065
-15.446
-15.797
-16.116
-16.403
-16.657
-16.876
-17.062
-17.214
-17.334
-17.422
-17.48
-17.51
-17.513
-17.492
-17.45
-17.389
-17.311
-17.219
-17.117
-17.006
-16.89
-16.773
-16.657
-16.546
-16.444
-16.353
-16.277
-16.218
-16.179
-16.164
-16.174
-16.211
-16.277
-16.374
-16.504
-16.668
-16.868
-17.103
-17.375
-17.684
-18.03
-18.412
-18.83
-19.281
-19.766
-20.281
-20.825
-21.396
-21.991
-22.609
-23.245
-23.897
-24.563
-25.237
-25.917
-26.599
-27.278
-27.95
-28.611
-29.256
-29.88
-30.48
-31.051
-31.588
-32.086
-32.541
-32.949
-33.304
-33.603
-33.842
-34.016
-34.124
-34.163
-34.13
-34.024
-33.846
-33.596
-33.275
-32.883
-32.422
-31.894
-31.301
-30.647
-29.933
-29.163
-28.339
-27.467
-26.552
-25.599
-24.614
-23.602
-22.57
-21.523
-20.469
-19.414
-18.365
-17.325
-16.299
-15.292
-14.31
-13.363
-12.456
-11.589
-10.761
-9.971
-9.215
-8.489
-7.783
-7.08
-6.363
-5.616
-4.827
-3.994
-3.114
-2.177
-1.175
-0.095
1.07
2.311
3.618
4.982
6.391
7.823
9.242
10.585
11.785
12.776
13.504
13.925
14.001
13.697
12.966
11.759
10.034
7.761
4.922
1.52
-2.449
-7.01
-12.087
-17.494
-22.962
-28.095
-32.54
-36.076
-38.471
-39.43
-38.834
-36.765
-33.539
-29.913
-26.611
-23.992
-22.345
-22.008
-23.152
-25.714
-29.198
-31.77
-31.036
-25.376
-13.907
2.09
20.165
38.97
58.464
81.893
113.371
154.96
206.404
261.468
310.41
343.195
348.957
321.406
260.805
172.243
66.214
-46.292
-159.563
-273.103
-388.69
-505.987
-618.165
-712.076
-775.348
-802.556
-796.221
-765.478
-720.035
-663.782
-596.641
-518.629
-432.26
-346.144
-271.036
-213.413
-174.463
-148.933
-129.726
-112.768
-97.159
-85.118
-78.011
-74.723
-72.953
-69.726
-63.655
-55.129
-44.925
-33.934
-23.027
-12.885
-4.293
1.861
5.309
6.275
5.137
2.461
-1.208
-5.402
-9.567
-13.126
-15.74
-17.273
-17.701
-17.14
-15.689
-13.417
-10.451
-6.928
-2.975
1.283
5.745
10.32
14.906
19.391
23.669
27.633
31.197
34.308
36.946
39.114
40.839
42.152
43.097
43.728
44.107
44.297
44.358
44.344
44.308
44.302
44.381
44.598
45.002
45.627
46.495
47.619
49.006
50.66
52.58
54.761
57.191
59.862
62.768
65.9
69.253
72.818
76.582
80.53
84.645
88.913
93.317
97.842
102.47
107.183
111.964
116.794
121.658
126.535
131.405
136.243
141.024
145.723
150.315
154.775
159.076
163.193
167.101
170.778
174.205
177.363
180.232
182.79
185.015
186.888
188.396
189.528
190.276
190.633
190.598
190.178
189.388
188.245
186.759
184.933
182.766
180.257
177.41
174.232
170.729
166.897
162.733
158.237
153.415
148.275
142.816
137.023
130.864
124.32
117.39
110.093
102.462
94.53
86.336
77.926
69.363
60.727
52.095
43.528
35.078
26.794
18.738
10.992
3.653
-3.202
-9.52
-15.268
-20.433
-24.998
-28.965
-32.356
-35.217
-37.617
-39.618
-41.258
-42.569
-43.58
-44.332
-44.886
-45.31
-45.655
-45.957
-46.245
-46.541
-46.867
-47.235
-47.637
-48.045
-48.417
-48.727
-48.963
-49.125
-49.213
-49.223
-49.145
-48.971
-48.701
-48.343
-47.902
-47.381
-46.782
-46.115
-45.398
-44.657
-43.924
-43.22
-42.558
-41.946
-41.391
-40.898
-40.472
-40.113
-39.814
-39.572
-39.382
-39.245
-39.157
-39.117
-39.116
-39.146
-39.199
-39.266
-39.342
-39.42
-39.494
-39.559
-39.611
-39.646
-39.665
-39.663
-39.638
-39.588
-39.507
-39.394
-39.247
-39.062
-38.838
-38.574
-38.268
-37.921
-37.535
-37.109
-36.646
-36.147
-35.615
-35.052
-34.46
-33.843
-33.203
-32.544
-31.868
-31.18
-30.482
-29.778
-29.07
-28.364
-27.66
-26.963
-26.275
-25.6
-24.939
-24.296
-23.673
-23.073
-22.499
-21.953
-21.438
-20.957
-20.511
-20.104
-19.736
-19.41
-19.127
-18.888
-18.695
-18.547
-18.446
-18.392
-18.384
-18.422
-18.507
-18.637
-18.811
-19.028
-19.286
-19.585
-19.923
-20.297
-20.706
-21.148
-21.621
-22.121
-22.646
-23.192
-23.757
-24.337
-24.926
-25.522
-26.119
-26.713
-27.298
-27.869
-28.422
-28.949
-29.446
-29.906
-30.325
-30.696
-31.015
-31.278
-31.479
-31.616
-31.686
-31.687
-31.617
-31.476
-31.261
-30.973
-30.612
-30.179
-29.673
-29.096
-28.449
-27.735
-26.958
-26.122
-25.231
-24.291
-23.308
-22.286
-21.233
-20.156
-19.061
-17.953
-16.841
-15.731
-14.631
-13.553
-12.504
-11.488
-10.505
-9.556
-8.636
-7.744
-6.872
-6.005
-5.134
-4.246
-3.331
-2.389
-1.414
-0.398
0.663
1.785
2.974
4.22
5.514
6.841
8.177
9.504
10.791
11.977
13.016
13.856
14.441
14.74
14.715
14.32
13.53
12.303
10.6
8.407
5.7
2.473
-1.253
-5.484
-10.237
-15.426
-20.897
-26.408
-31.588
-36.123
-39.77
-42.226
-43.133
-42.269
-39.685
-35.76
-31.229
-26.849
-23.116
-20.489
-19.608
-20.901
-24.245
-28.95
-33.578
-36.423
-36.312
-32.023
-21.876
-4.553
20.807
53.791
91.917
132.411
172.88
211.936
249.999
286.323
317.628
337.671
336.154
303.982
238.432
143.467
29.896
-89.396
-208.029
-325.548
-442.225
-557.354
-662.48
-742.744
-788.818
-797.136
-772.707
-728.543
-672.718
-609.893
-540.968
-463.169
-380.122
-297.156
-220.667
-158.186
-110.101
-75.127
-51.458
-35.097
-25.645
-22.8
-24.378
-28.907
-33.686
-36.092
-35.459
-31.81
-25.596
-17.658
-8.898
-0.177
7.512
13.225
16.705
18.151
17.908
16.534
14.576
12.491
10.834
10.116
10.548
12.162
14.871
18.484
22.855
27.864
33.338
39.105
45.013
50.937
56.783
62.471
67.904
72.984
77.618
81.744
85.342
88.414
90.981
93.077
94.741
96.023
96.987
97.693
98.201
98.568
98.844
99.081
99.334
99.653
100.088
100.679
101.45
102.421
103.603
105.003
106.627
108.475
110.542
112.823
115.313
118.007
120.902
123.991
127.269
130.73
134.363
138.155
142.094
146.165
150.346
154.615
158.937
163.281
167.622
171.936
176.203
180.411
184.543
188.585
192.525
196.342
200.017
203.535
206.875
210.025
212.984
215.755
218.357
220.811
223.124
225.294
227.316
229.159
230.798
232.199
233.318
234.134
234.63
234.787
234.596
234.035
233.067
231.657
229.754
227.297
224.243
220.553
216.2
211.197
205.559
199.32
192.53
185.206
177.366
169.034
160.237
151.022
141.454
131.595
121.528
111.356
101.186
91.134
81.302
71.751
62.536
53.697
45.266
37.309
29.882
23.029
16.784
11.158
6.152
1.772
-2.005
-5.225
-7.956
-10.284
-12.281
-13.986
-15.439
-16.67
-17.713
-18.629
-19.463
-20.246
-21.005
-21.758
-22.52
-23.314
-24.143
-24.987
-25.815
-26.582
-27.257
-27.831
-28.296
-28.645
-28.871
-28.96
-28.906
-28.719
-28.405
-27.974
-27.431
-26.778
-26.028
-25.204
-24.334
-23.447
-22.567
-21.706
-20.877
-20.092
-19.358
-18.685
-18.076
-17.525
-17.031
-16.594
-16.215
-15.894
-15.629
-15.415
-15.244
-15.113
-15.015
-14.949
-14.909
-14.892
-14.896
-14.919
-14.96
-15.021
-15.099
-15.193
-15.302
-15.423
-15.554
-15.693
-15.84
-15.99
-16.144
-16.299
-16.454
-16.61
-16.766
-16.92
-17.073
-17.224
-17.375
-17.524
-17.673
-17.822
-17.971
-18.121
-18.274
-18.429
-18.587
-18.749
-18.915
-19.086
-19.261
-19.442
-19.627
-19.817
-20.012
-20.212
-20.416
-20.625
-20.839
-21.059
-21.283
-21.513
-21.749
-21.99
-22.237
-22.491
-22.75
-23.016
-23.289
-23.569
-23.857
-24.152
-24.455
-24.767
-25.086
-25.413
-25.748
-26.091
-26.439
-26.794
-27.154
-27.519
-27.887
-28.257
-28.63
-29.002
-29.373
-29.741
-30.104
-30.461
-30.809
-31.146
-31.47
-31.777
-32.065
-32.331
-32.572
-32.783
-32.962
-33.105
-33.207
-33.263
-33.27
-33.223
-33.118
-32.95
-32.718
-32.416
-32.043
-31.597
-31.075
-30.48
-29.809
-29.064
-28.246
-27.355
-26.394
-25.366
-24.273
-23.117
-21.902
-20.633
-19.316
-17.957
-16.563
-15.141
-13.698
-12.243
-10.784
-9.329
-7.886
-6.461
-5.064
-3.705
-2.395
-1.146
0.031
1.131
2.151
3.089
3.949
4.736
5.459
6.133
6.77
7.379
7.969
8.544
9.112
9.688
10.281
10.909
11.583
12.306
13.074
13.884
14.713
15.532
16.31
16.995
17.542
17.911
18.06
17.949
17.539
16.78
15.623
14.028
11.955
9.381
6.279
2.63
-1.555
-6.252
-11.419
-16.993
-22.943
-29.157
-35.439
-41.53
-47.08
-51.753
-55.303
-57.429
-57.77
-56.268
-53.054
-48.494
-43.384
-38.329
-33.715
-30.121
-27.965
-27.302
-28.081
-29.507
-30.156
-28.549
-22.454
-10.533
7.301
30.075
54.113
77.627
101.911
128.863
163.641
208.059
256.939
303.641
336.563
343.297
317.988
257.87
166.777
55.061
-68.665
-198.478
-331.008
-464.276
-592.368
-703.237
-783.686
-826.021
-829.786
-803.192
-758.371
-702.977
-641.219
-573.856
-499.732
-421.173
-342.23
-267.478
-201.841
-147.932
-106.328
-76.584
-56.968
-45.457
-40.312
-39.268
-40.061
-40.77
-39.677
-36.043
-30.046
-22.138
-12.962
-3.43
5.608
13.275
18.668
21.529
22.069
20.664
17.892
14.33
10.463
6.851
4.056
2.352
1.825
2.437
4.019
6.439
9.591
13.315
17.443
21.827
26.332
30.853
35.307
39.594
43.607
47.25
50.431
53.104
55.254
56.889
58.041
58.748
59.057
59.03
58.734
58.238
57.609
56.909
56.191
55.516
54.94
54.52
54.308
54.342
54.646
55.235
56.118
57.298
58.778
60.552
62.61
64.943
67.543
70.403
73.515
76.869
80.45
84.245
88.235
92.404
96.735
101.211
105.812
110.519
115.315
120.177
125.085
130.018
134.951
139.859
144.716
149.493
154.162
158.697
163.07
167.258
171.235
174.979
178.466
181.676
184.592
187.196
189.469
191.389
192.936
194.096
194.863
195.235
195.212
194.79
193.971
192.76
191.169
189.206
186.87
184.155
181.053
177.567
173.709
169.499
164.962
160.111
154.952
149.49
143.736
137.706
131.409
124.844
118.005
110.903
103.574
96.078
88.472
80.802
73.098
65.382
57.681
50.031
42.473
35.045
27.775
20.692
13.836
7.264
1.037
-4.808
-10.273
-15.388
-20.181
-24.664
-28.84
-32.709
-36.281
-39.572
-42.595
-45.356
-47.854
-50.098
-52.113
-53.938
-55.621
-57.185
-58.63
-59.936
-61.088
-62.083
-62.926
-63.621
-64.164
-64.556
-64.804
-64.927
-64.947
-64.879
-64.725
-64.482
-64.145
-63.718
-63.217
-62.666
-62.082
-61.48
-60.873
-60.274
-59.7
-59.162
-58.667
-58.212
-57.796
-57.419
-57.084
-56.797
-56.562
-56.379
-56.247
-56.164
-56.127
-56.136
-56.187
-56.275
-56.395
-56.542
-56.714
-56.908
-57.124
-57.359
-57.609
-57.872
-58.144
-58.423
-58.707
-58.991
-59.272
-59.548
-59.816
-60.075
-60.324
-60.56
-60.783
-60.992
-61.187
-61.367
-61.531
-61.68
-61.814
-61.931
-62.034
-62.122
-62.194
-62.253
-62.298
-62.33
-62.349
-62.357
-62.354
-62.34
-62.317
-62.285
-62.243
-62.193
-62.135
-62.069
-61.995
-61.914
-61.827
-61.734
-61.634
-61.529
-61.418
-61.301
-61.179
-61.052
-60.919
-60.78
-60.637
-60.489
-60.338
-60.182
-60.024
-59.863
-59.7
-59.535
-59.369
-59.201
-59.032
-58.863
-58.692
-58.521
-58.349
-58.176
-58.003
-57.829
-57.654
-57.478
-57.3
-57.12
-56.936
-56.748
-56.554
-56.354
-56.145
-55.927
-55.698
-55.456
-55.198
-54.923
-54.627
-54.308
-53.964
-53.591
-53.186
-52.748
-52.273
-51.761
-51.208
-50.615
-49.98
-49.303
-48.586
-47.828
-47.03
-46.193
-45.319
-44.409
-43.465
-42.489
-41.483
-40.452
-39.398
-38.327
-37.243
-36.15
-35.054
-33.959
-32.87
-31.796
-30.74
-29.706
-28.698
-27.719
-26.777
-25.878
-25.028
-24.225
-23.469
-22.757
-22.086
-21.455
-20.853
-20.264
-19.674
-19.065
-18.43
-17.766
-17.065
-16.321
-15.522
-14.655
-13.715
-12.71
-11.643
-10.522
-9.354
-8.151
-6.944
-5.786
-4.73
-3.836
-3.15
-2.707
-2.548
-2.702
-3.214
-4.137
-5.51
-7.369
-9.737
-12.623
-16.061
-20.103
-24.704
-29.703
-34.845
-39.755
-44.127
-47.759
-50.39
-51.708
-51.536
-49.927
-47.257
-44.229
-41.458
-39.25
-37.884
-37.683
-38.787
-41.131
-44.081
-46.254
-46.433
-43.236
-35.278
-22.139
-3.071
21.255
48.754
79.033
110.97
144.861
182.858
223.961
266.406
305.58
332.35
337.397
311.977
252.626
164.102
56.729
-57.318
-170.927
-284.302
-400.318
-519.322
-634.266
-730.205
-792.561
-814.193
-796.885
-751.552
-691.492
-625.317
-557.417
-488.262
-416.619
-343.981
-273.853
-210.173
-156.821
-115.434
-85.505
-65.523
-53.417
-47.389
-45.524
-45.799
-46.309
-45.294
-41.939
-36.34
-28.892
-20.156
-10.92
-1.948
5.896
11.643
14.954
16.004
15.137
12.905
9.859
6.453
3.242
0.826
-0.483
-0.584
0.505
2.611
5.603
9.391
13.821
18.728
23.962
29.385
34.885
40.383
45.775
50.951
55.808
60.243
64.201
67.665
70.636
73.142
75.215
76.895
78.235
79.298
80.143
80.831
81.417
81.95
82.485
83.078
83.783
84.655
85.73
87.033
88.583
90.388
92.45
94.772
97.349
100.175
103.248
106.564
110.117
113.897
117.893
122.085
126.456
130.979
135.621
140.352
145.141
149.966
154.818
159.683
164.547
169.394
174.203
178.964
183.678
188.339
192.939
197.471
201.924
206.305
210.644
214.958
219.26
223.542
227.772
231.918
235.956
239.852
243.57
247.054
250.227
253.033
255.437
257.412
258.934
259.953
260.385
260.161
259.236
257.582
255.2
252.091
248.24
243.659
238.382
232.469
226.007
219.054
211.63
203.745
195.415
186.691
177.662
168.413
159.005
149.501
139.957
130.446
121.063
111.879
102.928
94.221
85.755
77.554
69.681
62.214
55.213
48.711
42.711
37.214
32.234
27.77
23.799
20.273
17.116
14.275
11.727
9.464
7.482
5.76
4.246
2.883
1.628
0.453
-0.663
-1.739
-2.802
-3.865
-4.917
-5.927
-6.847
-7.649
-8.323
-8.871
-9.295
-9.593
-9.753
-9.767
-9.641
-9.379
-8.986
-8.467
-7.821
-7.058
-6.197
-5.269
-4.309
-3.342
-2.386
-1.453
-0.556
0.295
1.091
1.827
2.507
3.131
3.697
4.204
4.649
5.032
5.358
5.63
5.857
6.042
6.19
6.304
6.39
6.45
6.487
6.503
6.497
6.471
6.426
6.365
6.292
6.21
6.121
6.028
5.936
5.847
5.764
5.689
5.624
5.57
5.528
5.498
5.481
5.476
5.483
5.502
5.53
5.567
5.612
5.662
5.715
5.77
5.823
5.872
5.915
5.948
5.97
5.978
5.97
5.943
5.895
5.824
5.728
5.604
5.449
5.262
5.041
4.783
4.488
4.154
3.781
3.368
2.916
2.427
1.9
1.337
0.741
0.114
-0.54
-1.219
-1.92
-2.638
-3.37
-4.111
-4.857
-5.603
-6.344
-7.075
-7.788
-8.477
-9.134
-9.751
-10.325
-10.847
-11.311
-11.711
-12.041
-12.296
-12.474
-12.572
-12.581
-12.498
-12.316
-12.033
-11.656
-11.191
-10.639
-10.004
-9.289
-8.503
-7.656
-6.754
-5.794
-4.773
-3.687
-2.54
-1.346
-0.121
1.125
2.384
3.665
4.969
6.286
7.613
8.949
10.297
11.671
13.067
14.454
15.81
17.114
18.36
19.564
20.742
21.897
23.027
24.121
25.167
26.174
27.139
28.05
28.895
29.647
30.3
30.883
31.418
31.904
32.328
32.653
32.832
32.837
32.646
32.236
31.59
30.679
29.47
27.943
26.081
23.879
21.339
18.434
15.133
11.442
7.366
2.942
-1.73
-6.597
-11.639
-16.743
-21.771
-26.494
-30.514
-33.544
-35.403
-35.793
-34.529
-31.629
-27.166
-21.659
-15.978
-10.662
-6.178
-3.218
-2.133
-2.807
-5.064
-7.351
-7.024
-3.112
5.016
17.312
30.811
45.067
62.417
84.462
116.403
161.032
212.938
265.204
305.788
320.642
304.846
257.73
184.314
97.025
4.676
-87.887
-178.688
-271.803
-369.829
-469.131
-562.225
-637.283
-683.649
-698.005
-683.342
-647.756
-600.068
-545.944
-487.807
-425.807
-360.766
-295.029
-232.1
-175.964
-129.13
-92.433
-65.603
-47.286
-35.96
-30.369
-28.766
-29.332
-30.412
-30.372
-28.41
-24.537
-18.979
-12.158
-4.755
2.587
9.107
13.936
16.767
17.706
17.016
15.175
12.66
9.875
7.327
5.516
4.692
4.937
6.213
8.365
11.277
14.851
18.94
23.393
28.076
32.875
37.707
42.491
47.137
51.54
55.6
59.249
62.458
65.218
67.545
69.465
71.011
72.231
73.183
73.923
74.506
74.985
75.405
75.818
76.279
76.84
77.556
78.469
79.603
80.981
82.612
84.501
86.653
89.064
91.724
94.626
97.764
101.131
104.722
108.528
112.535
116.728
121.091
125.609
130.266
135.045
139.928
144.899
149.941
155.035
160.164
165.307
170.439
175.535
180.569
185.514
190.343
195.028
199.54
203.852
207.942
211.786
215.361
218.642
221.602
224.217
226.471
228.35
229.841
230.938
231.631
231.924
231.828
231.354
230.512
229.306
227.731
225.784
223.468
220.784
217.74
214.334
210.551
206.385
201.835
196.895
191.566
185.831
179.657
173.02
165.911
158.337
150.332
141.928
133.155
124.06
114.693
105.125
95.45
85.746
76.075
66.504
57.095
47.931
39.121
30.751
22.888
15.577
8.837
2.685
-2.863
-7.817
-12.206
-16.081
-19.517
-22.572
-25.278
-27.677
-29.807
-31.722
-33.497
-35.19
-36.836
-38.465
-40.092
-41.731
-43.404
-45.104
-46.81
-48.488
-50.09
-51.587
-52.968
-54.222
-55.341
-56.311
-57.111
-57.735
-58.188
-58.475
-58.603
-58.578
-58.402
-58.091
-57.669
-57.165
-56.611
-56.028
-55.432
-54.835
-54.248
-53.683
-53.148
-52.646
-52.176
-51.738
-51.334
-50.968
-50.642
-50.358
-50.112
-49.901
-49.722
-49.572
-49.451
-49.357
-49.288
-49.242
-49.22
-49.222
-49.25
-49.304
-49.382
-49.483
-49.606
-49.749
-49.909
-50.085
-50.275
-50.475
-50.686
-50.905
-51.131
-51.363
-51.601
-51.843
-52.088
-52.336
-52.584
-52.832
-53.078
-53.323
-53.564
-53.8
-54.032
-54.257
-54.477
-54.689
-54.894
-55.091
-55.281
-55.462
-55.635
-55.8
-55.958
-56.108
-56.252
-56.39
-56.523
-56.654
-56.782
-56.91
-57.038
-57.169
-57.303
-57.442
-57.588
-57.741
-57.903
-58.076
-58.261
-58.458
-58.67
-58.897
-59.14
-59.399
-59.675
-59.969
-60.278
-60.604
-60.945
-61.3
-61.667
-62.043
-62.428
-62.818
-63.211
-63.605
-63.994
-64.377
-64.749
-65.107
-65.445
-65.758
-66.041
-66.286
-66.49
-66.648
-66.752
-66.799
-66.783
-66.7
-66.546
-66.32
-66.016
-65.632
-65.165
-64.609
-63.967
-63.244
-62.44
-61.557
-60.599
-59.568
-58.47
-57.316
-56.106
-54.842
-53.525
-52.156
-50.746
-49.305
-47.841
-46.367
-44.883
-43.388
-41.892
-40.402
-38.921
-37.46
-36.013
-34.573
-33.155
-31.77
-30.425
-29.13
-27.875
-26.642
-25.428
-24.226
-23.037
-21.87
-20.717
-19.57
-18.436
-17.308
-16.196
-15.127
-14.084
-13.068
-12.092
-11.161
-10.308
-9.588
-9.032
-8.673
-8.552
-8.694
-9.138
-9.93
-11.086
-12.624
-14.555
-16.883
-19.644
-22.86
-26.529
-30.629
-35.138
-40.044
-45.265
-50.633
-55.882
-60.634
-64.549
-67.409
-68.933
-68.755
-66.831
-63.319
-58.654
-53.779
-49.41
-45.923
-43.947
-44.066
-46.268
-50.246
-55.02
-58.686
-59.906
-57.544
-49.868
-35.503
-13.474
15.941
50.295
86.862
123.576
160.513
199.617
239.718
276.379
300.421
298.853
264.567
197.528
105.449
2.361
-102.068
-205.164
-309.836
-419.527
-531.5
-635.188
-715.08
-760.898
-770.197
-748.427
-707.791
-656.862
-600.343
-540.266
-475.268
-406.612
-337.657
-272.073
-214.193
-166.481
-129.364
-102.366
-83.945
-72.357
-66.199
-63.629
-62.805
-62.136
-60.124
-56.13
-50.304
-42.981
-34.652
-26.035
-17.779
-10.608
-5.351
-2.258
-1.165
-1.782
-3.622
-6.205
-9.139
-11.934
-14.061
-15.251
-15.41
-14.557
-12.844
-10.386
-7.268
-3.628
0.38
4.621
8.978
13.36
17.704
21.927
25.937
29.644
32.959
35.837
38.263
40.242
41.802
42.977
43.807
44.349
44.664
44.814
44.856
44.841
44.812
44.819
44.915
45.152
45.581
46.241
47.156
48.345
49.819
51.585
53.642
55.984
58.597
61.474
64.607
67.994
71.629
75.499
79.589
83.881
88.354
92.983
97.736
102.573
107.46
112.371
117.285
122.187
127.064
131.895
136.664
141.356
145.954
150.452
154.832
159.075
163.175
167.134
170.968
174.71
178.371
181.943
185.416
188.768
191.973
195.012
197.846
200.422
202.705
204.656
206.242
207.444
208.212
208.487
208.206
207.291
205.699
203.417
200.428
196.729
192.333
187.254
181.534
175.243
168.419
161.103
153.345
145.191
136.727
128.062
119.292
110.518
101.817
93.242
84.857
76.72
68.866
61.332
54.132
47.262
40.756
34.646
28.939
23.641
18.716
14.103
9.765
5.671
1.792
-1.887
-5.386
-8.732
-11.927
-14.974
-17.876
-20.631
-23.269
-25.82
-28.289
-30.678
-32.965
-35.112
-37.101
-38.921
-40.559
-42.009
-43.267
-44.327
-45.2
-45.904
-46.445
-46.829
-47.05
-47.101
-46.987
-46.72
-46.32
-45.811
-45.214
-44.544
-43.822
-43.064
-42.283
-41.492
-40.695
-39.891
-39.087
-38.29
-37.507
-36.749
-36.021
-35.326
-34.668
-34.046
-33.461
-32.914
-32.402
-31.923
-31.476
-31.063
-30.684
-30.34
-30.033
-29.763
-29.529
-29.331
-29.168
-29.037
-28.938
-28.866
-28.819
-28.796
-28.794
-28.81
-28.842
-28.886
-28.942
-29.004
-29.071
-29.14
-29.207
-29.27
-29.326
-29.374
-29.412
-29.437
-29.449
-29.445
-29.426
-29.391
-29.338
-29.268
-29.181
-29.076
-28.954
-28.814
-28.659
-28.487
-28.301
-28.101
-27.889
-27.666
-27.436
-27.199
-26.958
-26.716
-26.476
-26.24
-26.011
-25.793
-25.588
-25.4
-25.232
-25.088
-24.969
-24.88
-24.822
-24.799
-24.812
-24.862
-24.952
-25.083
-25.253
-25.465
-25.716
-26.007
-26.337
-26.704
-27.106
-27.541
-28.007
-28.5
-29.018
-29.556
-30.111
-30.679
-31.253
-31.829
-32.402
-32.965
-33.513
-34.04
-34.539
-35.003
-35.426
-35.801
-36.122
-36.381
-36.573
-36.693
-36.734
-36.692
-36.564
-36.347
-36.039
-35.64
-35.148
-34.564
-33.89
-33.127
-32.277
-31.343
-30.33
-29.239
-28.076
-26.847
-25.556
-24.213
-22.823
-21.395
-19.936
-18.456
-16.963
-15.467
-13.977
-12.501
-11.046
-9.619
-8.231
-6.894
-5.617
-4.402
-3.252
-2.167
-1.147
-0.19
0.713
1.575
2.412
3.241
4.068
4.898
5.735
6.586
7.464
8.382
9.347
10.353
11.39
12.447
13.514
14.576
15.593
16.507
17.255
17.772
18.014
17.945
17.526
16.731
15.514
13.823
11.625
8.889
5.602
1.771
-2.625
-7.625
-13.158
-19.047
-25.017
-30.674
-35.695
-39.868
-42.914
-44.485
-44.379
-42.648
-39.667
-36.165
-32.827
-30.021
-28.102
-27.599
-28.848
-31.718
-35.516
-38.837
-40.127
-38.392
-32.571
-21.149
-2.872
23.119
56.111
93.348
132.219
170.55
208.164
246.683
284.421
317.037
335.961
328.768
289.027
216.881
119.583
10.992
-98.928
-206.887
-314.734
-425.342
-536.575
-638.932
-717.871
-763.447
-772.844
-750.751
-708.849
-655.835
-596.512
-533.084
-464.451
-391.885
-318.825
-249.197
-187.567
-136.617
-97.122
-68.827
-50.232
-39.559
-35.165
-34.853
-36.438
-38.016
-37.858
-35.192
-30.105
-22.957
-14.351
-5.173
3.738
11.488
17.182
20.543
21.74
21.111
19.194
16.53
13.583
10.892
8.988
8.131
8.395
9.737
11.993
15.034
18.756
23.01
27.638
32.5
37.474
42.463
47.391
52.165
56.687
60.864
64.614
67.892
70.685
73.002
74.87
76.326
77.413
78.185
78.705
79.035
79.235
79.359
79.459
79.586
79.794
80.135
80.656
81.392
82.364
83.587
85.067
86.808
88.811
91.069
93.573
96.314
99.284
102.477
105.884
109.496
113.301
117.283
121.427
125.718
130.139
134.675
139.308
144.018
148.787
153.594
158.421
163.244
168.04
172.785
177.453
182.02
186.462
190.752
194.868
198.785
202.48
205.933
209.123
212.031
214.64
216.932
218.892
220.507
221.764
222.655
223.169
223.299
223.041
222.392
221.349
219.914
218.088
215.876
213.284
210.32
206.992
203.314
199.296
194.955
190.306
185.365
180.153
174.688
168.992
163.085
156.99
150.731
144.329
137.809
131.194
124.507
117.772
111.012
104.251
97.509
90.811
84.175
77.624
71.176
64.851
58.665
52.636
46.779
41.108
35.636
30.374
25.332
20.521
15.945
11.613
7.528
3.694
0.112
-3.217
-6.295
-9.122
-11.703
-14.042
-16.144
-18.015
-19.663
-21.096
-22.321
-23.35
-24.191
-24.855
-25.353
-25.695
-25.893
-25.958
-25.901
-25.733
-25.465
-25.109
-24.675
-24.174
-23.615
-23.008
-22.363
-21.688
-20.993
-20.283
-19.568
-18.854
-18.146
-17.451
-16.773
-16.118
-15.488
-14.888
-14.32
-13.787
-13.29
-12.83
-12.408
-12.025
-11.68
-11.372
-11.101
-10.866
-10.664
-10.495
-10.356
-10.244
-10.158
-10.095
-10.053
-10.029
-10.019
-10.022
-10.035
-10.054
-10.078
-10.102
-10.126
-10.145
-10.158
-10.163
-10.156
-10.136
-10.101
-10.05
-9.98
-9.89
-9.78
-9.649
-9.496
-9.322
-9.126
-8.91
-8.674
-8.419
-8.146
-7.858
-7.556
-7.243
-6.919
-6.589
-6.254
-5.918
-5.583
-5.252
-4.93
-4.619
-4.322
-4.044
-3.788
-3.557
-3.355
-3.186
-3.054
-2.962
-2.913
-2.911
-2.959
-3.06
-3.216
-3.428
-3.698
-4.027
-4.415
-4.863
-5.369
-5.932
-6.55
-7.221
-7.944
-8.714
-9.529
-10.384
-11.276
-12.199
-13.148
-14.118
-15.104
-16.097
-17.093
-18.085
-19.065
-20.027
-20.962
-21.863
-22.723
-23.532
-24.284
-24.97
-25.583
-26.114
-26.558
-26.909
-27.16
-27.308
-27.349
-27.28
-27.1
-26.809
-26.407
-25.893
-25.27
-24.539
-23.704
-22.766
-21.73
-20.6
-19.382
-18.084
-16.713
-15.279
-13.79
-12.257
-10.689
-9.096
-7.489
-5.877
-4.269
-2.676
-1.11
0.417
1.889
3.296
4.632
5.893
7.077
8.187
9.228
10.209
11.145
12.046
12.919
13.77
14.598
15.412
16.22
17.034
17.866
18.722
19.602
20.504
21.423
22.343
23.24
24.081
24.818
25.418
25.852
26.096
26.126
25.903
25.389
24.549
23.353
21.792
19.849
17.5
14.721
11.503
7.856
3.829
-0.536
-5.257
-10.276
-15.454
-20.556
-25.19
-29.001
-31.756
-33.181
-32.944
-30.934
-27.262
-22.323
-17.014
-12.185
-8.378
-6.18
-6.107
-8.253
-12.356
-17.618
-22.344
-24.736
-23.379
-16.811
-3.722
16.747
45.03
80.784
121.815
164.747
206.413
243.812
275.847
302.359
321.012
327.165
312.964
271.249
200.855
106.096
-3.399
-118.586
-236.688
-357.215
-479.214
-597.35
-698.625
-769.416
-802.283
-797.308
-763.211
-712.143
-652.227
-587.829
-519.704
-446.781
-370.886
-295.83
-226.206
-166.665
-119.43
-84.505
-60.857
-46.641
-39.972
-38.876
-40.83
-43.307
-44.213
-42.418
-37.797
-30.702
-21.711
-11.594
-1.346
7.879
14.965
19.401
21.299
21.023
19.114
16.111
12.517
8.937
6.005
4.107
3.367
3.767
5.16
7.416
10.451
14.135
18.307
22.824
27.554
32.387
37.248
42.049
46.686
51.06
55.077
58.657
61.768
64.401
66.568
68.3
69.631
70.606
71.279
71.716
71.979
72.127
72.213
72.285
72.393
72.588
72.919
73.432
74.156
75.111
76.31
77.759
79.462
81.416
83.615
86.045
88.698
91.56
94.623
97.879
101.32
104.939
108.725
112.662
116.729
120.907
125.165
129.479
133.82
138.155
142.458
146.708
150.886
154.987
159.004
162.924
166.725
170.381
173.864
177.16
180.258
183.15
185.842
188.335
190.638
192.773
194.754
196.572
198.209
199.621
200.754
201.574
202.057
202.187
201.957
201.347
200.337
198.916
197.062
194.754
191.964
188.645
184.766
180.327
175.35
169.888
164.013
157.781
151.239
144.433
137.402
130.187
122.833
115.37
107.833
100.267
92.722
85.27
77.972
70.862
63.962
57.268
50.76
44.432
38.282
32.302
26.494
20.861
15.407
10.147
5.096
0.262
-4.357
-8.773
-12.999
-17.035
-20.878
-24.516
-27.932
-31.116
-34.059
-36.752
-39.189
-41.372
-43.304
-44.995
-46.461
-47.714
-48.761
-49.611
-50.27
-50.748
-51.056
-51.204
-51.207
-51.076
-50.826
-50.469
-50.019
-49.488
-48.887
-48.224
-47.506
-46.742
-45.94
-45.107
-44.25
-43.378
-42.497
-41.614
-40.736
-39.869
-39.017
-38.185
-37.376
-36.592
-35.836
-35.109
-34.412
-33.746
-33.111
-32.508
-31.936
-31.396
-30.887
-30.409
-29.961
-29.542
-29.152
-28.789
-28.455
-28.146
-27.863
-27.606
-27.373
-27.163
-26.977
-26.812
-26.669
-26.546
-26.441
-26.355
-26.285
-26.23
-26.19
-26.163
-26.148
-26.145
-26.154
-26.173
-26.203
-26.242
-26.291
-26.348
-26.413
-26.486
-26.566
-26.651
-26.742
-26.837
-26.935
-27.035
-27.136
-27.238
-27.338
-27.436
-27.531
-27.622
-27.709
-27.79
-27.865
-27.934
-27.997
-28.054
-28.106
-28.151
-28.192
-28.228
-28.261
-28.29
-28.318
-28.344
-28.371
-28.399
-28.43
-28.466
-28.507
-28.556
-28.615
-28.685
-28.767
-28.865
-28.98
-29.112
-29.265
-29.439
-29.636
-29.856
-30.1
-30.368
-30.662
-30.98
-31.322
-31.687
-32.075
-32.484
-32.911
-33.356
-33.815
-34.286
-34.766
-35.251
-35.738
-36.223
-36.702
-37.17
-37.625
-38.059
-38.469
-38.849
-39.195
-39.501
-39.763
-39.975
-40.133
-40.234
-40.273
-40.248
-40.157
-39.998
-39.772
-39.479
-39.117
-38.689
-38.196
-37.641
-37.024
-36.349
-35.62
-34.84
-34.015
-33.152
-32.256
-31.335
-30.396
-29.446
-28.492
-27.542
-26.604
-25.685
-24.792
-23.934
-23.118
-22.359
-21.663
-21.033
-20.474
-19.981
-19.551
-19.179
-18.856
-18.566
-18.298
-18.037
-17.775
-17.504
-17.214
-16.895
-16.536
-16.116
-15.626
-15.069
-14.448
-13.779
-13.083
-12.379
-11.703
-11.113
-10.657
-10.383
-10.341
-10.571
-11.118
-12.038
-13.372
-15.158
-17.427
-20.199
-23.493
-27.319
-31.669
-36.507
-41.795
-47.497
-53.497
-59.609
-65.563
-70.966
-75.446
-78.743
-80.527
-80.418
-78.373
-74.526
-69.273
-63.553
-58.101
-53.363
-50.063
-48.811
-49.572
-52.078
-55.425
-57.695
-57.465
-53.634
-44.438
-28.519
-5.238
25.735
62.798
102.502
142.246
179.776
213.81
244.534
269.833
284.43
280.318
249.299
187.544
98.622
-6.609
-117.361
-226.361
-332.504
-440.838
-551.379
-658.285
-750.203
-811.133
-833.29
-817.591
-771.54
-708.768
-638.869
-566.227
-492.62
-417.044
-340.676
-267.587
-202.069
-148.032
-107.195
-78.965
-61.617
-52.972
-50.994
-53.298
-57.406
-61.112
-62.538
-60.863
-56.222
-49.063
-40.074
-30.256
-20.587
-12.087
-5.738
-1.856
-0.267
-0.614
-2.33
-4.845
-7.659
-10.212
-11.959
-12.646
-12.209
-10.703
-8.304
-5.147
-1.34
2.965
7.618
12.489
17.463
22.451
27.38
32.164
36.707
40.922
44.726
48.077
50.963
53.392
55.396
57.012
58.282
59.26
60.007
60.584
61.049
61.457
61.857
62.302
62.843
63.53
64.415
65.531
66.898
68.531
70.435
72.612
75.063
77.781
80.753
83.97
87.423
91.102
95.001
99.107
103.407
107.884
112.521
117.301
122.209
127.225
132.331
137.507
142.732
147.987
153.249
158.498
163.707
168.853
173.908
178.849
183.649
188.283
192.727
196.955
200.946
204.678
208.131
211.286
214.126
216.633
218.793
220.594
222.024
223.073
223.733
223.998
223.863
223.326
222.386
221.044
219.302
217.166
214.643
211.74
208.468
204.839
200.867
196.567
191.955
187.05
181.871
176.439
170.776
164.902
158.843
152.621
146.26
139.784
133.217
126.584
119.908
113.213
106.522
99.857
93.241
86.695
80.24
73.895
67.68
61.612
55.708
49.984
44.453
39.129
34.023
29.145
24.504
20.107
15.96
12.065
8.427
5.045
1.92
-0.951
-3.57
-5.941
-8.071
-9.966
-11.632
-13.079
-14.316
-15.351
-16.197
-16.862
-17.358
-17.698
-17.891
-17.951
-17.888
-17.715
-17.444
-17.087
-16.654
-16.158
-15.609
-15.018
-14.394
-13.748
-13.087
-12.42
-11.756
-11.099
-10.458
-9.837
-9.241
-8.674
-8.141
-7.643
-7.184
-6.765
-6.387
-6.051
-5.759
-5.508
-5.301
-5.135
-5.011
-4.926
-4.881
-4.874
-4.902
-4.965
-5.06
-5.186
-5.34
-5.521
-5.725
-5.952
-6.198
-6.462
-6.743
-7.038
-7.346
-7.665
-7.995
-8.332
-8.678
-9.029
-9.386
-9.748
-10.113
-10.48
-10.85
-11.221
-11.593
-11.964
-12.334
-12.701
-13.066
-13.426
-13.781
-14.13
-14.471
-14.803
-15.126
-15.439
-15.74
-16.029
-16.305
-16.568
-16.817
-17.051
-17.271
-17.475
-17.663
-17.836
-17.993
-18.134
-18.26
-18.371
-18.468
-18.551
-18.621
-18.679
-18.727
-18.766
-18.797
-18.822
-18.844
-18.865
-18.887
-18.913
-18.946
-18.989
-19.046
-19.119
-19.211
-19.327
-19.468
-19.637
-19.838
-20.072
-20.342
-20.65
-20.996
-21.383
-21.811
-22.279
-22.789
-23.339
-23.929
-24.558
-25.223
-25.923
-26.655
-27.417
-28.204
-29.014
-29.841
-30.682
-31.531
-32.383
-33.232
-34.072
-34.896
-35.697
-36.468
-37.202
-37.891
-38.527
-39.104
-39.614
-40.05
-40.406
-40.677
-40.857
-40.942
-40.929
-40.817
-40.603
-40.286
-39.866
-39.344
-38.72
-37.996
-37.172
-36.253
-35.242
-34.145
-32.967
-31.716
-30.398
-29.022
-27.596
-26.129
-24.631
-23.109
-21.571
-20.029
-18.493
-16.975
-15.491
-14.051
-12.661
-11.328
-10.054
-8.836
-7.672
-6.553
-5.466
-4.401
-3.35
-2.307
-1.269
-0.23
0.822
1.897
3.006
4.16
5.355
6.583
7.838
9.091
10.31
11.463
12.492
13.351
13.999
14.395
14.501
14.277
13.675
12.645
11.153
9.175
6.697
3.708
0.193
-3.834
-8.348
-13.292
-18.602
-24.26
-30.167
-36.137
-41.903
-47.068
-51.265
-54.262
-55.755
-55.377
-53.097
-49.082
-43.778
-38.156
-32.95
-28.578
-25.712
-24.917
-26.164
-29.154
-32.919
-35.612
-35.95
-32.845
-24.625
-10.072
11.643
40.47
74.289
110.394
146.677
182.029
217.179
252.041
283.513
305.333
307.172
279.253
218.342
128.022
18.526
-97.501
-213.817
-330.196
-446.92
-563.129
-670.432
-754.1
-804.82
-818.856
-800.053
-760.03
-706.709
-644.882
-577.273
-503.165
-424.646
-345.854
-271.023
-205.062
-150.974
-109.572
-80.565
-62.324
-52.756
-50
-51.693
-55.415
-59.049
-60.69
-59.45
-55.411
-48.999
-40.86
-31.928
-23.105
-15.345
-9.637
-6.321
-5.235
-6.028
-8.135
-10.988
-14.109
-16.941
-18.923
-19.783
-19.445
-17.958
-15.505
-12.229
-8.241
-3.699
1.231
6.408
11.707
17.028
22.297
27.419
32.298
36.843
40.97
44.634
47.824
50.547
52.835
54.724
56.256
57.486
58.474
59.279
59.961
60.574
61.163
61.782
62.479
63.304
64.303
65.508
66.939
68.606
70.515
72.666
75.061
77.691
80.546
83.618
86.897
90.377
94.052
97.91
101.94
106.126
110.454
114.908
119.472
124.131
128.868
133.666
138.509
143.379
148.26
153.133
157.979
162.776
167.501
172.132
176.644
181.013
185.213
189.224
193.023
196.589
199.904
202.948
205.707
208.164
210.303
212.108
213.558
214.638
215.339
215.657
215.59
215.146
214.33
213.149
211.618
209.748
207.544
205.007
202.13
198.904
195.331
191.419
187.187
182.654
177.829
172.718
167.328
161.655
155.699
149.459
142.916
136.069
128.934
121.544
113.957
106.243
98.452
90.629
82.809
75.022
67.308
59.713
52.27
45.028
38.035
31.343
25.029
19.151
13.735
8.789
4.286
0.18
-3.556
-6.945
-10.008
-12.756
-15.209
-17.387
-19.299
-20.96
-22.395
-23.637
-24.742
-25.756
-26.701
-27.586
-28.399
-29.11
-29.705
-30.175
-30.507
-30.701
-30.757
-30.677
-30.478
-30.176
-29.781
-29.294
-28.71
-28.019
-27.229
-26.35
-25.401
-24.409
-23.394
-22.374
-21.371
-20.401
-19.476
-18.603
-17.784
-17.017
-16.302
-15.641
-15.039
-14.501
-14.028
-13.619
-13.273
-12.986
-12.756
-12.578
-12.447
-12.356
-12.302
-12.281
-12.291
-12.33
-12.397
-12.488
-12.603
-12.736
-12.887
-13.051
-13.225
-13.406
-13.59
-13.776
-13.96
-14.141
-14.317
-14.487
-14.65
-14.804
-14.95
-15.087
-15.215
-15.335
-15.446
-15.55
-15.647
-15.738
-15.825
-15.908
-15.988
-16.068
-16.147
-16.228
-16.312
-16.399
-16.49
-16.587
-16.69
-16.799
-16.916
-17.039
-17.171
-17.31
-17.459
-17.616
-17.782
-17.959
-18.145
-18.342
-18.55
-18.769
-18.998
-19.238
-19.488
-19.748
-20.017
-20.295
-20.582
-20.876
-21.177
-21.485
-21.801
-22.124
-22.453
-22.79
-23.133
-23.484
-23.842
-24.208
-24.582
-24.965
-25.357
-25.76
-26.174
-26.598
-27.034
-27.48
-27.936
-28.402
-28.875
-29.354
-29.836
-30.319
-30.799
-31.276
-31.747
-32.21
-32.663
-33.105
-33.535
-33.953
-34.353
-34.732
-35.085
-35.408
-35.693
-35.934
-36.125
-36.259
-36.331
-36.337
-36.276
-36.141
-35.93
-35.636
-35.251
-34.771
-34.195
-33.521
-32.754
-31.901
-30.971
-29.984
-28.96
-27.911
-26.846
-25.77
-24.677
-23.565
-22.431
-21.269
-20.082
-18.871
-17.633
-16.371
-15.083
-13.755
-12.373
-10.906
-9.32
-7.596
-5.728
-3.714
-1.577
0.661
2.974
5.322
7.684
10.042
12.373
14.664
16.897
19.043
21.071
22.938
24.587
25.984
27.101
27.915
28.437
28.674
28.633
28.344
27.806
27.012
25.964
24.648
23.051
21.171
18.989
16.493
13.695
10.6
7.224
3.584
-0.343
-4.565
-9.082
-13.902
-18.965
-24.233
-29.723
-35.347
-40.939
-46.259
-50.898
-54.494
-56.845
-57.649
-56.587
-53.626
-48.858
-42.747
-36.241
-30.098
-24.896
-21.316
-19.841
-20.495
-23.006
-26.373
-28.896
-28.989
-25.011
-15.287
1.664
26.019
56.404
91.03
127.318
164.738
205.134
247.386
287.626
317.203
322.621
295.589
235.155
148.441
49.375
-51.973
-152.613
-255.627
-364.696
-476.709
-580.565
-660.474
-706.179
-716.387
-698.056
-663.517
-620.562
-572.612
-520.194
-461.225
-396.948
-330.608
-265.723
-206.971
-157.35
-117.791
-88.429
-68.235
-55.641
-49.582
-48.565
-50.385
-52.931
-54.26
-53.207
-49.667
-43.945
-36.357
-27.482
-18.175
-9.415
-2.29
2.639
5.445
6.41
5.956
4.53
2.543
0.503
-1.01
-1.648
-1.304
0.003
2.125
4.937
8.364
12.289
16.571
21.091
25.739
30.428
35.105
39.702
44.139
48.343
52.236
55.758
58.882
61.608
63.95
65.939
67.609
68.997
70.149
71.12
71.964
72.731
73.467
74.216
75.021
75.93
76.987
78.237
79.71
81.426
83.396
85.623
88.112
90.863
93.875
97.143
100.661
104.419
108.409
112.618
117.034
121.635
126.393
131.269
136.229
141.242
146.289
151.356
156.427
161.483
166.508
171.484
176.404
181.264
186.054
190.758
195.364
199.868
204.282
208.636
212.95
217.228
221.453
225.599
229.639
233.541
237.267
240.764
243.963
246.798
249.221
251.197
252.692
253.662
254.042
253.754
252.739
250.964
248.418
245.105
241.034
236.227
230.729
224.61
217.966
210.881
203.418
195.629
187.565
179.29
170.883
162.432
154.007
145.663
137.444
129.389
121.533
113.903
106.5
99.305
92.285
85.419
78.702
72.138
65.733
59.487
53.392
47.44
41.636
35.986
30.495
25.166
19.998
14.999
10.183
5.577
1.208
-2.906
-6.756
-10.337
-13.648
-16.689
-19.46
-21.967
-24.222
-26.236
-28.018
-29.576
-30.917
-32.051
-32.991
-33.753
-34.351
-34.801
-35.113
-35.302
-35.378
-35.354
-35.24
-35.043
-34.772
-34.433
-34.037
-33.59
-33.104
-32.584
-32.04
-31.478
-30.907
-30.332
-29.759
-29.193
-28.639
-28.099
-27.578
-27.079
-26.603
-26.154
-25.732
-25.34
-24.978
-24.647
-24.348
-24.081
-23.847
-23.644
-23.474
-23.335
-23.227
-23.149
-23.101
-23.082
-23.091
-23.128
-23.19
-23.276
-23.386
-23.517
-23.668
-23.837
-24.022
-24.222
-24.433
-24.656
-24.887
-25.126
-25.371
-25.62
-25.872
-26.125
-26.379
-26.631
-26.881
-27.128
-27.369
-27.606
-27.836
-28.059
-28.274
-28.481
-28.68
-28.87
-29.052
-29.226
-29.392
-29.55
-29.703
-29.849
-29.992
-30.131
-30.268
-30.405
-30.543
-30.684
-30.829
-30.98
-31.139
-31.306
-31.483
-31.671
-31.871
-32.083
-32.307
-32.544
-32.794
-33.056
-33.33
-33.615
-33.911
-34.215
-34.526
-34.842
-35.16
-35.478
-35.793
-36.101
-36.399
-36.682
-36.947
-37.189
-37.404
-37.587
-37.734
-37.838
-37.895
-37.9
-37.849
-37.736
-37.558
-37.312
-36.995
-36.604
-36.139
-35.6
-34.986
-34.298
-33.537
-32.706
-31.807
-30.843
-29.818
-28.735
-27.598
-26.415
-25.191
-23.935
-22.654
-21.355
-20.047
-18.739
-17.441
-16.164
-14.917
-13.707
-12.542
-11.433
-10.387
-9.42
-8.538
-7.746
-7.047
-6.444
-5.937
-5.526
-5.204
-4.955
-4.764
-4.617
-4.503
-4.418
-4.354
-4.301
-4.249
-4.184
-4.1
-4.001
-3.89
-3.766
-3.638
-3.516
-3.431
-3.438
-3.59
-3.946
-4.556
-5.455
-6.681
-8.261
-10.226
-12.623
-15.479
-18.813
-22.654
-27.003
-31.884
-37.353
-43.336
-49.646
-56.028
-62.102
-67.559
-72.244
-75.898
-78.188
-79.049
-78.598
-77.232
-75.69
-74.427
-73.492
-73.061
-73.421
-74.488
-75.973
-77.1
-76.452
-73.046
-66.577
-56.654
-42.558
-23.864
-0.284
28.08
59.258
90.692
121.009
148.585
173.508
198.422
222.685
243.078
252.866
240.282
198.29
127.248
34.822
-65.55
-164.076
-258.444
-352.55
-449.713
-547.237
-635.207
-698.847
-729.206
-725.786
-695.187
-649.696
-598.269
-544.952
-490.796
-434.215
-375.327
-316.423
-260.776
-211.948
-171.624
-140.057
-116.507
-99.323
-87.486
-80.123
-75.689
-72.865
-70.406
-67.019
-62.363
-56.701
-50.121
-42.952
-35.788
-29.047
-23.342
-19.363
-17.205
-16.67
-17.498
-19.23
-21.435
-23.772
-25.784
-27.03
-27.307
-26.55
-24.804
-22.221
-18.908
-14.963
-10.522
-5.733
-0.731
4.371
9.48
14.513
19.378
23.975
28.207
32.009
35.355
38.236
40.67
42.691
44.33
45.639
46.676
47.496
48.158
48.714
49.211
49.7
50.235
50.867
51.647
52.616
53.799
55.215
56.875
58.785
60.947
63.358
66.011
68.899
72.016
75.358
78.919
82.692
86.665
90.826
95.159
99.651
104.284
109.044
113.913
118.875
123.911
129.005
134.137
139.288
144.436
149.557
154.627
159.619
164.507
169.264
173.864
178.281
182.493
186.476
190.208
193.667
196.837
199.697
202.231
204.418
206.235
207.666
208.701
209.337
209.575
209.416
208.86
207.915
206.594
204.903
202.849
200.43
197.631
194.453
190.9
186.988
182.744
178.186
173.319
168.151
162.688
156.934
150.901
144.587
137.976
131.077
123.912
116.526
108.993
101.367
93.69
85.997
78.309
70.659
63.092
55.648
48.358
41.265
34.403
27.827
21.613
15.804
10.414
5.435
0.817
-3.47
-7.438
-11.101
-14.47
-17.558
-20.389
-22.975
-25.319
-27.436
-29.345
-31.083
-32.71
-34.258
-35.739
-37.149
-38.458
-39.647
-40.716
-41.657
-42.465
-43.137
-43.67
-44.073
-44.367
-44.564
-44.668
-44.675
-44.571
-44.352
-44.026
-43.606
-43.113
-42.564
-41.971
-41.347
-40.708
-40.064
-39.424
-38.789
-38.152
-37.512
-36.87
-36.227
-35.591
-34.963
-34.343
-33.731
-33.126
-32.526
-31.93
-31.338
-30.744
-30.147
-29.547
-28.944
-28.34
-27.737
-27.137
-26.539
-25.945
-25.356
-24.774
-24.198
-23.63
-23.071
-22.52
-21.981
-21.455
-20.944
-20.451
-19.977
-19.524
-19.095
-18.691
-18.315
-17.967
-17.649
-17.363
-17.108
-16.887
-16.698
-16.542
-16.42
-16.329
-16.271
-16.244
-16.247
-16.278
-16.338
-16.423
-16.533
-16.666
-16.819
-16.991
-17.181
-17.385
-17.603
-17.832
-18.069
-18.313
-18.561
-18.812
-19.062
-19.31
-19.553
-19.791
-20.021
-20.243
-20.454
-20.655
-20.846
-21.026
-21.195
-21.355
-21.505
-21.648
-21.784
-21.914
-22.04
-22.163
-22.284
-22.405
-22.525
-22.648
-22.772
-22.9
-23.031
-23.167
-23.307
-23.453
-23.604
-23.76
-23.922
-24.089
-24.261
-24.437
-24.616
-24.797
-24.978
-25.157
-25.332
-25.501
-25.661
-25.807
-25.936
-26.044
-26.126
-26.179
-26.196
-26.176
-26.112
-26.001
-25.84
-25.626
-25.357
-25.032
-24.649
-24.208
-23.709
-23.151
-22.535
-21.862
-21.132
-20.346
-19.506
-18.614
-17.673
-16.686
-15.659
-14.596
-13.5
-12.378
-11.234
-10.074
-8.907
-7.736
-6.568
-5.408
-4.265
-3.151
-2.074
-1.037
-0.041
0.915
1.834
2.719
3.578
4.426
5.278
6.147
7.044
7.973
8.939
9.947
11.01
12.14
13.341
14.61
15.93
17.282
18.649
20.005
21.307
22.492
23.496
24.256
24.719
24.841
24.576
23.884
22.729
21.074
18.889
16.154
12.864
9.016
4.637
-0.254
-5.649
-11.419
-17.365
-23.215
-28.582
-33.126
-36.626
-38.777
-39.219
-37.905
-34.952
-30.733
-26.128
-21.793
-18.09
-15.631
-14.946
-16.018
-18.626
-21.959
-24.242
-24.168
-20.769
-12.486
1.926
23.094
51.387
85.382
121.871
158.372
192.872
224.44
253.466
278.237
293.846
292.267
265.33
209.146
126.86
28.948
-73.812
-174.758
-273.049
-372.693
-474.018
-570.806
-651.516
-703.827
-721.936
-708.489
-672.8
-624.767
-571.093
-514.415
-453.986
-390.163
-325.094
-262.174
-205.74
-158.552
-121.496
-94.365
-75.787
-64.163
-58.213
-56.176
-56.186
-56.538
-55.566
-52.463
-47.254
-40.211
-31.786
-22.676
-13.579
-5.309
1.193
5.542
7.823
8.286
7.385
5.578
3.248
0.884
-0.972
-2
-2.073
-1.187
0.526
2.956
6.033
9.643
13.651
17.941
22.404
26.954
31.53
36.065
40.477
44.683
48.601
52.158
55.319
58.076
60.437
62.427
64.075
65.418
66.501
67.38
68.106
68.731
69.298
69.845
70.416
71.056
71.808
72.717
73.811
75.108
76.619
78.35
80.304
82.482
84.879
87.481
90.282
93.273
96.448
99.801
103.322
106.999
110.82
114.769
118.832
122.995
127.243
131.559
135.926
140.327
144.745
149.162
153.56
157.917
162.213
166.425
170.532
174.511
178.342
182.001
185.47
188.726
191.752
194.529
197.041
199.271
201.205
202.828
204.128
205.095
205.717
205.988
205.9
205.448
204.629
203.441
201.884
199.96
197.672
195.025
192.027
188.685
185.01
181.013
176.707
172.108
167.232
162.094
156.716
151.114
145.311
139.328
133.185
126.907
120.514
114.031
107.481
100.886
94.27
87.655
81.064
74.52
68.044
61.656
55.377
49.226
43.222
37.381
31.719
26.252
20.993
15.954
11.145
6.576
2.254
-1.815
-5.625
-9.175
-12.462
-15.487
-18.251
-20.757
-23.009
-25.013
-26.774
-28.301
-29.603
-30.688
-31.568
-32.253
-32.756
-33.087
-33.261
-33.289
-33.185
-32.963
-32.635
-32.215
-31.716
-31.15
-30.53
-29.868
-29.175
-28.463
-27.742
-27.022
-26.311
-25.619
-24.952
-24.318
-23.722
-23.17
-22.665
-22.211
-21.811
-21.467
-21.179
-20.949
-20.776
-20.66
-20.599
-20.591
-20.634
-20.724
-20.86
-21.037
-21.252
-21.501
-21.78
-22.085
-22.411
-22.756
-23.114
-23.481
-23.854
-24.229
-24.602
-24.969
-25.327
-25.674
-26.006
-26.32
-26.616
-26.89
-27.142
-27.369
-27.571
-27.748
-27.899
-28.023
-28.121
-28.194
-28.242
-28.267
-28.268
-28.249
-28.209
-28.152
-28.078
-27.989
-27.887
-27.775
-27.653
-27.524
-27.39
-27.252
-27.112
-26.973
-26.835
-26.702
-26.575
-26.455
-26.344
-26.244
-26.157
-26.083
-26.026
-25.985
-25.962
-25.96
-25.978
-26.018
-26.082
-26.17
-26.284
-26.423
-26.589
-26.781
-27.002
-27.249
-27.525
-27.827
-28.158
-28.515
-28.898
-29.306
-29.739
-30.195
-30.673
-31.172
-31.69
-32.225
-32.776
-33.34
-33.914
-34.496
-35.083
-35.671
-36.258
-36.839
-37.41
-37.968
-38.508
-39.025
-39.514
-39.971
-40.39
-40.767
-41.096
-41.373
-41.592
-41.751
-41.844
-41.868
-41.821
-41.7
-41.503
-41.23
-40.88
-40.452
-39.946
-39.363
-38.703
-37.967
-37.157
-36.273
-35.32
-34.3
-33.219
-32.081
-30.891
-29.656
-28.381
-27.072
-25.738
-24.384
-23.017
-21.642
-20.267
-18.899
-17.551
-16.231
-14.941
-13.685
-12.461
-11.267
-10.1
-8.954
-7.815
-6.67
-5.508
-4.318
-3.099
-1.846
-0.552
0.791
2.195
3.665
5.197
6.782
8.405
10.048
11.686
13.284
14.782
16.126
17.257
18.116
18.657
18.828
18.583
17.892
16.709
14.999
12.728
9.866
6.405
2.38
-2.19
-7.303
-12.865
-18.72
-24.603
-30.094
-34.852
-38.662
-41.254
-42.288
-41.598
-39.186
-35.378
-31.035
-26.861
-23.161
-20.491
-19.507
-20.433
-23.351
-27.134
-29.013
-27.704
-22.883
-14.653
-4.83
8.176
27.802
55.674
94.302
141.306
191.386
241.876
287.015
322.217
342.908
339.478
306.998
244.307
155.104
51.875
-56.007
-162.768
-267.055
-374.378
-484.369
-591.176
-684.31
-748.169
-775.196
-765.922
-727.104
-672.021
-610.07
-545.857
-481.436
-415.422
-348.331
-283.308
-223.695
-173.094
-133.268
-103.759
-83.176
-69.7
-61.811
-57.881
-56.151
-54.894
-52.427
-47.967
-41.601
-33.662
-24.621
-15.143
-5.885
2.347
8.585
12.449
14.067
13.729
11.934
9.175
5.857
2.506
-0.278
-2.136
-2.921
-2.615
-1.349
0.765
3.658
7.204
11.253
15.668
20.32
25.104
29.947
34.763
39.45
43.911
48.048
51.779
55.063
57.887
60.259
62.203
63.753
64.948
65.842
66.495
66.969
67.319
67.596
67.846
68.12
68.468
68.94
69.583
70.429
71.496
72.798
74.342
76.132
78.166
80.44
82.943
85.666
88.601
91.743
95.085
98.617
102.328
106.203
110.229
114.391
118.674
123.064
127.543
132.094
136.699
141.34
145.998
150.654
155.284
159.867
164.378
168.795
173.093
177.249
181.24
185.043
188.637
192.001
195.115
197.961
200.52
202.777
204.716
206.323
207.586
208.495
209.039
209.211
209.005
208.416
207.443
206.084
204.342
202.219
199.719
196.852
193.624
190.047
186.132
181.895
177.349
172.512
167.403
162.04
156.445
150.639
144.644
138.485
132.184
125.766
119.255
112.675
106.051
99.406
92.765
86.151
79.588
73.097
66.701
60.421
54.276
48.286
42.467
36.837
31.411
26.202
21.222
16.481
11.99
7.755
3.782
0.075
-3.363
-6.532
-9.432
-12.065
-14.435
-16.548
-18.41
-20.028
-21.411
-22.569
-23.513
-24.254
-24.803
-25.174
-25.38
-25.433
-25.348
-25.138
-24.818
-24.4
-23.899
-23.328
-22.699
-22.025
-21.319
-20.592
-19.855
-19.119
-18.392
-17.684
-17.003
-16.356
-15.75
-15.19
-14.681
-14.226
-13.829
-13.491
-13.213
-12.996
-12.841
-12.746
-12.709
-12.73
-12.805
-12.933
-13.109
-13.331
-13.595
-13.896
-14.232
-14.599
-14.991
-15.406
-15.84
-16.288
-16.747
-17.213
-17.683
-18.153
-18.619
-19.079
-19.53
-19.97
-20.396
-20.806
-21.199
-21.574
-21.929
-22.264
-22.578
-22.871
-23.143
-23.394
-23.625
-23.837
-24.029
-24.204
-24.363
-24.506
-24.635
-24.751
-24.855
-24.949
-25.034
-25.112
-25.182
-25.248
-25.31
-25.37
-25.43
-25.49
-25.553
-25.619
-25.69
-25.768
-25.853
-25.948
-26.052
-26.168
-26.296
-26.437
-26.593
-26.765
-26.953
-27.159
-27.383
-27.626
-27.888
-28.17
-28.473
-28.797
-29.143
-29.511
-29.9
-30.312
-30.747
-31.204
-31.684
-32.184
-32.705
-33.246
-33.804
-34.378
-34.966
-35.565
-36.175
-36.792
-37.413
-38.036
-38.657
-39.274
-39.883
-40.479
-41.06
-41.621
-42.157
-42.665
-43.14
-43.578
-43.974
-44.325
-44.624
-44.869
-45.054
-45.175
-45.227
-45.206
-45.109
-44.931
-44.672
-44.328
-43.899
-43.384
-42.783
-42.098
-41.332
-40.486
-39.563
-38.567
-37.5
-36.368
-35.175
-33.926
-32.626
-31.282
-29.901
-28.493
-27.065
-25.625
-24.182
-22.743
-21.319
-19.917
-18.546
-17.212
-15.924
-14.689
-13.516
-12.416
-11.397
-10.46
-9.605
-8.829
-8.127
-7.494
-6.92
-6.388
-5.884
-5.394
-4.906
-4.417
-3.918
-3.401
-2.854
-2.261
-1.614
-0.915
-0.172
0.607
1.403
2.201
2.97
3.657
4.219
4.607
4.771
4.682
4.3
3.59
2.531
1.087
-0.774
-3.071
-5.826
-9.051
-12.726
-16.846
-21.431
-26.398
-31.596
-36.781
-41.567
-45.616
-48.687
-50.498
-50.72
-49.194
-45.989
-41.472
-36.48
-31.817
-27.998
-25.558
-25.007
-26.567
-30.112
-34.923
-39.365
-41.715
-40.691
-34.838
-22.781
-3.524
23.789
58.281
96.914
136.896
175.511
212.041
248.428
283.348
312.669
328.041
316.824
272.456
195.509
93.91
-18.068
-130.33
-239.666
-348.097
-458.339
-567.805
-666.868
-741.407
-782.065
-786.778
-760.677
-715.166
-658.699
-595.902
-528.904
-456.928
-381.546
-306.648
-236.585
-176.043
-127.669
-91.735
-67.405
-52.972
-46.477
-45.872
-48.617
-52.068
-53.946
-52.958
-48.823
-41.822
-32.566
-21.868
-10.751
-0.431
7.884
13.588
16.697
17.503
16.54
14.354
11.448
8.444
5.99
4.482
4.067
4.743
6.364
8.8
11.968
15.735
19.946
24.47
29.185
34.001
38.848
43.643
48.288
52.691
56.759
60.414
63.62
66.364
68.654
70.522
72.001
73.133
73.971
74.575
75.006
75.32
75.57
75.804
76.07
76.42
76.904
77.569
78.446
79.557
80.913
82.52
84.382
86.498
88.862
91.462
94.288
97.332
100.585
104.04
107.687
111.512
115.5
119.635
123.903
128.286
132.769
137.334
141.962
146.634
151.331
156.035
160.724
165.376
169.968
174.476
178.877
183.148
187.266
191.209
194.953
198.478
201.764
204.792
207.545
210.006
212.159
213.991
215.488
216.639
217.434
217.865
217.926
217.61
216.914
215.837
214.377
212.538
210.321
207.732
204.778
201.466
197.808
193.814
189.498
184.874
179.959
174.768
169.321
163.637
157.736
151.64
145.369
138.947
132.397
125.74
119.002
112.204
105.372
98.527
91.692
84.891
78.146
71.478
64.908
58.457
52.145
45.989
40.007
34.216
28.631
23.265
18.131
13.24
8.601
4.223
0.112
-3.726
-7.289
-10.575
-13.582
-16.313
-18.768
-20.953
-22.872
-24.532
-25.94
-27.105
-28.036
-28.745
-29.242
-29.54
-29.65
-29.587
-29.364
-28.995
-28.493
-27.873
-27.15
-26.337
-25.449
-24.499
-23.502
-22.47
-21.416
-20.352
-19.289
-18.239
-17.211
-16.215
-15.26
-14.353
-13.501
-12.71
-11.985
-11.331
-10.75
-10.246
-9.82
-9.472
-9.203
-9.013
-8.899
-8.86
-8.894
-8.998
-9.167
-9.4
-9.69
-10.035
-10.43
-10.869
-11.347
-11.861
-12.404
-12.971
-13.558
-14.159
-14.769
-15.385
-16.001
-16.613
-17.216
-17.809
-18.386
-18.944
-19.482
-19.996
-20.486
-20.948
-21.382
-21.788
-22.165
-22.513
-22.831
-23.122
-23.384
-23.621
-23.832
-24.019
-24.183
-24.327
-24.451
-24.559
-24.651
-24.73
-24.798
-24.857
-24.908
-24.954
-24.998
-25.04
-25.084
-25.131
-25.182
-25.24
-25.306
-25.383
-25.47
-25.569
-25.682
-25.81
-25.952
-26.11
-26.284
-26.474
-26.681
-26.904
-27.143
-27.398
-27.669
-27.955
-28.256
-28.573
-28.904
-29.249
-29.608
-29.98
-30.365
-30.761
-31.168
-31.584
-32.008
-32.44
-32.876
-33.317
-33.759
-34.202
-34.642
-35.079
-35.51
-35.933
-36.344
-36.743
-37.126
-37.49
-37.833
-38.152
-38.444
-38.707
-38.937
-39.132
-39.287
-39.401
-39.468
-39.485
-39.45
-39.357
-39.205
-38.991
-38.71
-38.363
-37.946
-37.459
-36.902
-36.275
-35.579
-34.815
-33.984
-33.088
-32.129
-31.109
-30.031
-28.897
-27.714
-26.485
-25.217
-23.918
-22.591
-21.246
-19.89
-18.528
-17.17
-15.821
-14.486
-13.175
-11.896
-10.66
-9.477
-8.357
-7.303
-6.318
-5.403
-4.552
-3.759
-3.017
-2.307
-1.62
-0.948
-0.282
0.379
1.043
1.721
2.424
3.164
3.953
4.789
5.668
6.585
7.514
8.427
9.293
10.059
10.681
11.122
11.343
11.31
10.987
10.328
9.282
7.814
5.896
3.508
0.633
-2.753
-6.648
-11.032
-15.842
-21.011
-26.52
-32.272
-38.108
-43.776
-48.874
-53.067
-56.182
-57.955
-58.039
-56.386
-53.072
-48.475
-43.572
-38.994
-34.904
-31.895
-30.622
-31.093
-33.293
-35.984
-36.143
-32.736
-25.895
-15.767
-4.479
9.022
28.209
54.372
89.735
132.626
178.123
224.113
265.678
298.385
317.31
311.944
276.347
208.761
113.388
4.232
-108.282
-218.028
-324.012
-432.8
-544.448
-652.492
-745.791
-808.15
-831.483
-817.19
-772.928
-711.379
-642.066
-568.24
-490.364
-409.723
-328.902
-253.931
-191.664
-143.326
-108.351
-84.48
-67.437
-56.666
-51.825
-50.953
-52.769
-54.63
-54.056
-50.574
-44.363
-36.012
-26.417
-16.462
-6.976
1.093
6.857
10.091
11.013
10.01
7.661
4.517
1.047
-2.205
-4.714
-6.208
-6.597
-5.913
-4.305
-1.895
1.216
4.891
8.983
13.363
17.919
22.552
27.184
31.734
36.11
40.229
44.015
47.404
50.365
52.897
55.019
56.762
58.169
59.284
60.162
60.866
61.456
61.989
62.517
63.083
63.735
64.519
65.478
66.651
68.064
69.732
71.661
73.854
76.31
79.023
81.984
85.178
88.591
92.213
96.032
100.037
104.215
108.548
113.021
117.615
122.312
127.095
131.946
136.845
141.773
146.71
151.636
156.532
161.376
166.146
170.819
175.373
179.785
184.033
188.094
191.948
195.574
198.953
202.066
204.897
207.43
209.651
211.545
213.102
214.311
215.164
215.652
215.77
215.515
214.883
213.873
212.487
210.726
208.594
206.098
203.243
200.038
196.494
192.62
188.431
183.94
179.161
174.111
168.807
163.268
157.511
151.558
145.429
139.145
132.726
126.196
119.576
112.888
106.155
99.398
92.638
85.898
79.198
72.558
65.998
59.537
53.192
46.981
40.919
35.023
29.306
23.78
18.458
13.349
8.464
3.809
-0.607
-4.781
-8.708
-12.384
-15.809
-18.981
-21.903
-24.576
-27.003
-29.189
-31.141
-32.863
-34.365
-35.655
-36.742
-37.636
-38.348
-38.887
-39.267
-39.498
-39.591
-39.559
-39.414
-39.167
-38.829
-38.412
-37.926
-37.383
-36.792
-36.164
-35.507
-34.83
-34.142
-33.45
-32.762
-32.084
-31.423
-30.784
-30.171
-29.589
-29.042
-28.532
-28.061
-27.63
-27.241
-26.893
-26.586
-26.32
-26.092
-25.902
-25.748
-25.626
-25.535
-25.473
-25.435
-25.42
-25.425
-25.447
-25.483
-25.532
-25.59
-25.655
-25.726
-25.8
-25.875
-25.951
-26.024
-26.094
-26.161
-26.221
-26.276
-26.324
-26.365
-26.399
-26.426
-26.446
-26.461
-26.47
-26.474
-26.476
-26.476
-26.475
-26.476
-26.479
-26.487
-26.501
-26.524
-26.555
-26.598
-26.654
-26.723
-26.807
-26.907
-27.024
-27.158
-27.311
-27.483
-27.673
-27.883
-28.113
-28.362
-28.63
-28.917
-29.223
-29.548
-29.89
-30.25
-30.627
-31.02
-31.428
-31.851
-32.287
-32.736
-33.197
-33.668
-34.149
-34.639
-35.136
-35.639
-36.148
-36.661
-37.177
-37.695
-38.213
-38.731
-39.246
-39.758
-40.264
-40.764
-41.255
-41.736
-42.206
-42.663
-43.105
-43.53
-43.937
-44.323
-44.687
-45.026
-45.338
-45.62
-45.87
-46.085
-46.263
-46.399
-46.493
-46.54
-46.537
-46.481
-46.368
-46.196
-45.962
-45.663
-45.297
-44.861
-44.355
-43.777
-43.127
-42.407
-41.617
-40.758
-39.832
-38.841
-37.788
-36.674
-35.504
-34.279
-33.003
-31.682
-30.319
-28.923
-27.498
-26.05
-24.588
-23.116
-21.642
-20.173
-18.718
-17.281
-15.87
-14.492
-13.154
-11.868
-10.64
-9.473
-8.368
-7.322
-6.332
-5.395
-4.502
-3.64
-2.799
-1.966
-1.129
-0.286
0.57
1.446
2.35
3.3
4.304
5.356
6.45
7.572
8.7
9.817
10.897
11.885
12.735
13.398
13.817
13.959
13.785
13.252
12.331
10.979
9.146
6.809
3.94
0.522
-3.42
-7.89
-12.92
-18.422
-24.241
-30.131
-35.685
-40.559
-44.521
-47.265
-48.433
-47.864
-45.602
-42.014
-37.956
-34.23
-31.34
-29.811
-30.153
-32.554
-36.84
-42.231
-47.013
-49.394
-48.053
-41.547
-28.455
-7.781
21.078
57.206
97.696
139.594
180.739
220.434
258.801
293.851
320.196
328.893
311.383
263.5
187.462
92.653
-10.925
-116.365
-221.396
-329.723
-442.955
-557.17
-663.535
-747.251
-796.148
-806.506
-781.349
-731.184
-668.374
-600.319
-530.719
-460.197
-387.92
-315.663
-247.262
-186.584
-136.825
-99.196
-72.943
-56.354
-47.496
-44.475
-45.02
-46.96
-48.414
-47.788
-44.515
-38.826
-31.133
-22.1
-12.665
-3.673
3.999
9.52
12.706
13.782
13.12
11.276
8.791
6.125
3.791
2.286
1.837
2.498
4.21
6.804
10.15
14.142
18.636
23.478
28.536
33.691
38.843
43.918
48.823
53.466
57.759
61.621
65.008
67.909
70.334
72.315
73.888
75.097
75.994
76.641
77.1
77.43
77.686
77.918
78.176
78.513
78.979
79.623
80.479
81.569
82.907
84.5
86.352
88.465
90.834
93.449
96.303
99.388
102.698
106.227
109.966
113.904
118.026
122.318
126.766
131.356
136.071
140.894
145.808
150.795
155.834
160.907
165.993
171.068
176.108
181.089
185.984
190.77
195.42
199.909
204.213
208.308
212.171
215.78
219.116
222.157
224.886
227.285
229.339
231.034
232.357
233.297
233.845
233.993
233.735
233.067
231.988
230.496
228.593
226.282
223.57
220.462
216.968
213.098
208.865
204.283
199.368
194.137
188.609
182.803
176.742
170.446
163.941
157.248
150.393
143.401
136.296
129.103
121.849
114.558
107.255
99.964
92.709
85.515
78.403
71.395
64.513
57.777
51.206
44.818
38.629
32.656
26.911
21.407
16.155
11.166
6.445
2.001
-2.163
-6.043
-9.638
-12.949
-15.976
-18.724
-21.197
-23.401
-25.344
-27.033
-28.478
-29.69
-30.679
-31.457
-32.037
-32.432
-32.654
-32.718
-32.637
-32.424
-32.095
-31.663
-31.141
-30.544
-29.885
-29.176
-28.43
-27.659
-26.875
-26.089
-25.31
-24.549
-23.813
-23.112
-22.452
-21.838
-21.277
-20.773
-20.329
-19.948
-19.631
-19.38
-19.194
-19.074
-19.018
-19.025
-19.092
-19.218
-19.398
-19.631
-19.912
-20.237
-20.602
-21.003
-21.435
-21.894
-22.374
-22.872
-23.383
-23.901
-24.423
-24.943
-25.458
-25.964
-26.455
-26.929
-27.383
-27.813
-28.216
-28.591
-28.937
-29.25
-29.531
-29.78
-29.994
-30.176
-30.325
-30.442
-30.528
-30.584
-30.611
-30.612
-30.588
-30.541
-30.474
-30.388
-30.286
-30.171
-30.046
-29.911
-29.771
-29.629
-29.486
-29.346
-29.211
-29.085
-28.97
-28.869
-28.784
-28.718
-28.672
-28.649
-28.649
-28.675
-28.728
-28.808
-28.916
-29.052
-29.218
-29.411
-29.633
-29.882
-30.157
-30.457
-30.779
-31.123
-31.485
-31.863
-32.254
-32.657
-33.067
-33.482
-33.899
-34.313
-34.722
-35.12
-35.505
-35.871
-36.215
-36.531
-36.816
-37.065
-37.274
-37.439
-37.554
-37.617
-37.622
-37.567
-37.447
-37.259
-36.999
-36.666
-36.258
-35.772
-35.209
-34.569
-33.852
-33.06
-32.196
-31.261
-30.259
-29.194
-28.068
-26.886
-25.652
-24.371
-23.047
-21.686
-20.296
-18.883
-17.454
-16.018
-14.581
-13.151
-11.735
-10.341
-8.978
-7.651
-6.366
-5.131
-3.952
-2.839
-1.799
-0.834
0.058
0.88
1.633
2.325
2.963
3.562
4.137
4.701
5.265
5.836
6.418
7.019
7.652
8.329
9.056
9.832
10.642
11.475
12.321
13.159
13.959
14.67
15.241
15.622
15.769
15.645
15.211
14.433
13.284
11.732
9.747
7.309
4.405
1.026
-2.809
-7.093
-11.838
-16.936
-22.207
-27.392
-32.112
-36.05
-39.02
-40.756
-40.928
-39.514
-36.665
-32.793
-28.781
-25.258
-22.527
-21.107
-21.45
-23.494
-26.942
-30.905
-33.679
-34.101
-31.226
-23.601
-10.111
10.007
36.487
67.196
99.63
131.837
163.732
196.949
230.763
261.709
281.96
279.906
248.593
187.226
102.306
6.527
-90.902
-187.116
-284.853
-387.614
-493.03
-591.243
-667.333
-710.919
-719.925
-700.036
-662.357
-615.168
-561.665
-501.988
-436.549
-367.646
-300.379
-240.959
-191.238
-151.564
-120.887
-96.402
-78.209
-66.252
-59.5
-57.13
-56.759
-56.134
-54.053
-49.891
-43.886
-36.556
-28.322
-19.846
-11.824
-4.964
0.004
2.88
3.838
3.17
1.333
-1.219
-4.087
-6.792
-8.852
-10.025
-10.228
-9.479
-7.91
-5.619
-2.684
0.771
4.608
8.708
12.963
17.291
21.63
25.899
30.008
33.868
37.394
40.537
43.28
45.623
47.588
49.204
50.506
51.543
52.372
53.051
53.633
54.168
54.698
55.272
55.938
56.746
57.744
58.966
60.434
62.163
64.162
66.434
68.98
71.796
74.869
78.189
81.749
85.538
89.549
93.771
98.187
102.781
107.534
112.429
117.45
122.577
127.792
133.076
138.411
143.778
149.158
154.527
159.863
165.138
170.325
175.398
180.328
185.091
189.659
194.008
198.115
201.96
205.521
208.779
211.712
214.294
216.508
218.337
219.77
220.802
221.43
221.661
221.502
220.963
220.054
218.777
217.133
215.112
212.709
209.916
206.735
203.175
199.248
194.964
190.33
185.353
180.029
174.35
168.302
161.869
155.045
147.839
140.279
132.412
124.296
115.999
107.58
99.083
90.554
82.033
73.561
65.183
56.95
48.919
41.16
33.748
26.747
20.201
14.129
8.524
3.361
-1.404
-5.807
-9.878
-13.638
-17.103
-20.289
-23.21
-25.887
-28.341
-30.61
-32.744
-34.783
-36.76
-38.692
-40.572
-42.383
-44.093
-45.673
-47.103
-48.369
-49.465
-50.391
-51.152
-51.754
-52.204
-52.505
-52.648
-52.629
-52.443
-52.096
-51.601
-50.977
-50.252
-49.451
-48.597
-47.709
-46.803
-45.89
-44.976
-44.066
-43.159
-42.26
-41.373
-40.505
-39.662
-38.85
-38.071
-37.327
-36.617
-35.942
-35.3
-34.69
-34.112
-33.566
-33.054
-32.578
-32.141
-31.745
-31.391
-31.082
-30.816
-30.593
-30.413
-30.274
-30.175
-30.114
-30.09
-30.102
-30.148
-30.226
-30.337
-30.477
-30.646
-30.842
-31.062
-31.307
-31.572
-31.857
-32.159
-32.476
-32.806
-33.146
-33.493
-33.846
-34.201
-34.556
-34.909
-35.258
-35.599
-35.931
-36.251
-36.558
-36.849
-37.124
-37.38
-37.618
-37.837
-38.036
-38.216
-38.377
-38.52
-38.645
-38.752
-38.844
-38.921
-38.985
-39.037
-39.08
-39.115
-39.145
-39.173
-39.199
-39.228
-39.262
-39.303
-39.352
-39.414
-39.489
-39.579
-39.686
-39.81
-39.954
-40.117
-40.3
-40.503
-40.727
-40.969
-41.229
-41.506
-41.798
-42.101
-42.413
-42.731
-43.052
-43.371
-43.684
-43.987
-44.275
-44.542
-44.784
-44.994
-45.166
-45.295
-45.375
-45.401
-45.366
-45.266
-45.096
-44.854
-44.535
-44.139
-43.664
-43.11
-42.475
-41.759
-40.965
-40.092
-39.142
-38.117
-37.02
-35.854
-34.625
-33.338
-32
-30.617
-29.197
-27.746
-26.272
-24.785
-23.291
-21.798
-20.314
-18.847
-17.409
-16.013
-14.667
-13.378
-12.148
-10.977
-9.864
-8.804
-7.789
-6.801
-5.829
-4.859
-3.881
-2.891
-1.877
-0.831
0.258
1.408
2.622
3.899
5.233
6.609
8.008
9.407
10.76
12.007
13.094
13.966
14.571
14.865
14.792
14.3
13.349
11.911
9.966
7.497
4.487
0.932
-3.162
-7.744
-12.753
-18.141
-23.782
-29.48
-34.967
-39.855
-43.781
-46.513
-47.763
-47.194
-44.778
-40.645
-35.163
-29.162
-23.279
-17.897
-13.644
-11.083
-10.225
-10.839
-12.135
-12.529
-10.891
-6.212
3.054
18.166
39.951
68.127
100.65
135.053
169.16
202.617
236.592
269.542
297.674
313.205
304.752
266.386
198.155
106.656
4.485
-99.335
-201.989
-305.376
-411.667
-518.108
-615.018
-688.075
-728.224
-733.698
-709.813
-668.357
-617.695
-561.995
-502.957
-439.307
-372.147
-304.766
-240.849
-184.438
-137.73
-101.193
-74.412
-55.965
-44.3
-38
-35.155
-33.944
-32.822
-30.378
-26.049
-19.995
-12.543
-4.228
4.177
11.985
18.468
22.878
25.03
25.126
23.493
20.644
17.088
13.256
9.652
6.787
4.919
4.139
4.429
5.652
7.702
10.496
13.903
17.774
21.978
26.394
30.924
35.491
40.001
44.348
48.433
52.157
55.467
58.341
60.776
62.795
64.425
65.705
66.683
67.42
67.974
68.402
68.755
69.077
69.42
69.835
70.371
71.079
71.993
73.135
74.522
76.161
78.055
80.204
82.601
85.236
88.098
91.178
94.469
97.959
101.64
105.5
109.527
113.71
118.033
122.474
127.013
131.633
136.314
141.036
145.778
150.512
155.219
159.883
164.49
169.027
173.472
177.795
181.971
185.97
189.773
193.376
196.769
199.931
202.852
205.523
207.935
210.094
211.993
213.596
214.883
215.829
216.42
216.667
216.576
216.145
215.367
214.216
212.667
210.716
208.354
205.567
202.352
198.685
194.564
190.026
185.095
179.794
174.144
168.136
161.757
155.028
147.979
140.66
133.145
125.479
117.712
109.9
102.087
94.335
86.694
79.176
71.801
64.598
57.595
50.85
44.435
38.377
32.692
27.376
22.387
17.709
13.33
9.229
5.39
1.792
-1.585
-4.739
-7.659
-10.355
-12.836
-15.136
-17.304
-19.361
-21.315
-23.163
-24.877
-26.442
-27.855
-29.107
-30.19
-31.1
-31.835
-32.407
-32.839
-33.144
-33.328
-33.393
-33.326
-33.13
-32.815
-32.397
-31.899
-31.34
-30.736
-30.103
-29.46
-28.821
-28.197
-27.593
-27.007
-26.44
-25.897
-25.381
-24.902
-24.464
-24.067
-23.713
-23.402
-23.131
-22.901
-22.708
-22.548
-22.417
-22.314
-22.237
-22.186
-22.161
-22.16
-22.181
-22.222
-22.282
-22.358
-22.448
-22.548
-22.657
-22.772
-22.891
-23.014
-23.138
-23.263
-23.387
-23.51
-23.63
-23.747
-23.859
-23.967
-24.07
-24.166
-24.257
-24.341
-24.419
-24.492
-24.559
-24.621
-24.678
-24.731
-24.78
-24.825
-24.869
-24.91
-24.949
-24.988
-25.027
-25.066
-25.106
-25.148
-25.194
-25.242
-25.295
-25.352
-25.414
-25.482
-25.557
-25.639
-25.729
-25.828
-25.937
-26.058
-26.191
-26.337
-26.498
-26.675
-26.869
-27.082
-27.314
-27.566
-27.84
-28.137
-28.456
-28.799
-29.166
-29.556
-29.968
-30.404
-30.86
-31.338
-31.835
-32.35
-32.882
-33.43
-33.99
-34.561
-35.141
-35.727
-36.315
-36.902
-37.485
-38.058
-38.619
-39.161
-39.682
-40.175
-40.635
-41.057
-41.435
-41.764
-42.037
-42.25
-42.397
-42.473
-42.475
-42.398
-42.24
-41.999
-41.674
-41.266
-40.773
-40.197
-39.537
-38.797
-37.977
-37.081
-36.109
-35.067
-33.958
-32.789
-31.567
-30.299
-28.991
-27.653
-26.291
-24.915
-23.535
-22.159
-20.794
-19.449
-18.132
-16.855
-15.632
-14.47
-13.374
-12.345
-11.384
-10.488
-9.655
-8.879
-8.142
-7.435
-6.744
-6.062
-5.388
-4.715
-4.036
-3.344
-2.624
-1.872
-1.096
-0.304
0.496
1.285
2.047
2.753
3.352
3.799
4.053
4.064
3.804
3.237
2.325
1.052
-0.615
-2.707
-5.237
-8.228
-11.695
-15.619
-20.009
-24.89
-30.197
-35.789
-41.43
-46.75
-51.427
-55.238
-57.914
-59.123
-58.657
-56.566
-53.237
-49.426
-45.89
-43.063
-41.285
-41.071
-42.773
-46.255
-50.827
-55.02
-57.14
-56.158
-51.122
-40.608
-23.409
1.404
33.429
70.092
108.692
147.153
185.292
224.632
264.145
300.281
325.003
326.368
297.242
235.144
145.068
40.703
-68.038
-175.103
-279.841
-388.946
-502.482
-614.078
-712.242
-780.136
-809.477
-800.932
-761.602
-704.934
-640.311
-572.175
-502.568
-430.484
-356.944
-285.61
-220.368
-165.234
-122.256
-91.113
-70.317
-57.779
-51.691
-50.136
-51.03
-52.35
-52.163
-49.503
-44.417
-37.31
-28.741
-19.486
-10.322
-2.156
3.959
7.6
8.907
8.214
6.07
3.026
-0.468
-3.846
-6.477
-8.021
-8.362
-7.51
-5.636
-2.873
0.695
4.919
9.63
14.683
19.937
25.286
30.657
35.947
41.048
45.854
50.257
54.197
57.653
60.62
63.121
65.187
66.854
68.171
69.203
70.008
70.646
71.172
71.632
72.078
72.563
73.138
73.855
74.749
75.842
77.148
78.675
80.429
82.413
84.623
87.048
89.681
92.513
95.541
98.759
102.156
105.719
109.434
113.293
117.288
121.41
125.643
129.968
134.36
138.797
143.263
147.734
152.182
156.581
160.908
165.15
169.307
173.367
177.312
181.117
184.748
188.184
191.419
194.446
197.264
199.868
202.247
204.407
206.375
208.158
209.747
211.117
212.217
213.023
213.534
213.755
213.696
213.349
212.686
211.688
210.342
208.631
206.539
204.021
201.009
197.47
193.405
188.838
183.82
178.368
172.465
166.106
159.296
152.067
144.472
136.551
128.34
119.896
111.292
102.639
94.063
85.651
77.455
69.508
61.831
54.479
47.537
41.065
35.099
29.659
24.745
20.37
16.544
13.245
10.421
7.988
5.862
3.992
2.348
0.91
-0.349
-1.474
-2.527
-3.547
-4.558
-5.577
-6.618
-7.701
-8.843
-10.034
-11.241
-12.417
-13.523
-14.544
-15.474
-16.312
-17.05
-17.677
-18.181
-18.563
-18.83
-18.987
-19.036
-18.977
-18.815
-18.567
-18.259
-17.921
-17.576
-17.236
-16.912
-16.612
-16.344
-16.116
-15.93
-15.784
-15.675
-15.603
-15.571
-15.581
-15.631
-15.719
-15.839
-15.984
-16.151
-16.337
-16.537
-16.749
-16.97
-17.197
-17.431
-17.672
-17.92
-18.173
-18.43
-18.688
-18.947
-19.204
-19.458
-19.708
-19.952
-20.189
-20.418
-20.64
-20.853
-21.058
-21.252
-21.438
-21.613
-21.779
-21.934
-22.078
-22.212
-22.336
-22.449
-22.552
-22.645
-22.728
-22.803
-22.869
-22.928
-22.98
-23.026
-23.066
-23.102
-23.133
-23.16
-23.186
-23.209
-23.232
-23.255
-23.279
-23.306
-23.337
-23.372
-23.413
-23.462
-23.519
-23.585
-23.663
-23.754
-23.86
-23.982
-24.123
-24.284
-24.468
-24.675
-24.908
-25.168
-25.456
-25.772
-26.118
-26.492
-26.894
-27.325
-27.783
-28.267
-28.777
-29.309
-29.864
-30.438
-31.03
-31.636
-32.254
-32.88
-33.51
-34.142
-34.771
-35.392
-36.002
-36.594
-37.165
-37.708
-38.218
-38.689
-39.114
-39.488
-39.803
-40.055
-40.237
-40.345
-40.374
-40.32
-40.18
-39.952
-39.636
-39.231
-38.736
-38.152
-37.48
-36.722
-35.881
-34.958
-33.956
-32.879
-31.732
-30.521
-29.254
-27.938
-26.58
-25.189
-23.775
-22.345
-20.909
-19.476
-18.052
-16.648
-15.275
-13.944
-12.67
-11.462
-10.327
-9.267
-8.284
-7.374
-6.531
-5.747
-5.005
-4.294
-3.606
-2.934
-2.276
-1.625
-0.969
-0.297
0.404
1.146
1.929
2.749
3.601
4.464
5.309
6.107
6.804
7.358
7.735
7.898
7.819
7.462
6.785
5.738
4.286
2.401
0.067
-2.733
-6.021
-9.797
-14.044
-18.7
-23.699
-29.028
-34.59
-40.23
-45.705
-50.617
-54.625
-57.535
-59.044
-58.777
-56.686
-52.866
-47.705
-42.19
-36.986
-32.327
-28.951
-27.628
-28.364
-31.051
-34.415
-35.475
-33.037
-26.952
-17.005
-4.57
10.919
31.808
59.708
96.449
142.16
194.781
249.645
299.435
335.007
345.733
325.211
272.295
191.799
95.3
-7.802
-111.682
-215.539
-324.735
-440.026
-556.7
-664.343
-746.685
-793.936
-804.68
-784.815
-746.706
-698.54
-642.258
-576.182
-497.74
-410.073
-322.304
-244.939
-185.46
-144.684
-117.317
-97.147
-80.144
-65.578
-55.662
-51.227
-50.97
-52.554
-52.848
-50.334
-45.202
-37.93
-29.265
-20.076
-11.041
-3.027
2.991
6.71
8.294
8.063
6.536
4.219
1.544
-0.947
-2.684
-3.386
-2.974
-1.487
0.902
4.066
7.91
12.286
17.032
22.01
27.101
32.211
37.273
42.2
46.896
51.267
55.225
58.722
61.741
64.29
66.398
68.098
69.433
70.456
71.23
71.815
72.271
72.652
73.004
73.379
73.828
74.403
75.157
76.124
77.328
78.782
80.495
82.47
84.707
87.2
89.938
92.91
96.108
99.524
103.15
106.976
110.988
115.17
119.506
123.979
128.572
133.268
138.049
142.894
147.785
152.703
157.627
162.537
167.409
172.219
176.944
181.559
186.04
190.362
194.502
198.437
202.144
205.604
208.796
211.701
214.303
216.585
218.533
220.133
221.375
222.249
222.746
222.86
222.587
221.925
220.872
219.43
217.602
215.393
212.808
209.857
206.548
202.894
198.907
194.601
189.993
185.099
179.937
174.526
168.887
163.041
157.009
150.815
144.48
138.027
131.481
124.863
118.198
111.507
104.814
98.141
91.508
84.937
78.447
72.059
65.789
59.656
53.675
47.86
42.226
36.785
31.548
26.524
21.722
17.15
12.812
8.714
4.859
1.247
-2.119
-5.242
-8.122
-10.764
-13.17
-15.347
-17.301
-19.038
-20.567
-21.896
-23.034
-23.99
-24.774
-25.398
-25.87
-26.202
-26.405
-26.489
-26.465
-26.343
-26.134
-25.847
-25.493
-25.082
-24.621
-24.12
-23.587
-23.031
-22.457
-21.875
-21.289
-20.706
-20.131
-19.57
-19.026
-18.504
-18.007
-17.538
-17.099
-16.694
-16.322
-15.986
-15.687
-15.425
-15.201
-15.016
-14.868
-14.759
-14.688
-14.653
-14.655
-14.693
-14.765
-14.87
-15.008
-15.177
-15.376
-15.603
-15.856
-16.135
-16.436
-16.76
-17.102
-17.463
-17.84
-18.23
-18.633
-19.047
-19.469
-19.898
-20.331
-20.768
-21.206
-21.643
-22.078
-22.508
-22.931
-23.345
-23.75
-24.142
-24.521
-24.885
-25.232
-25.561
-25.871
-26.161
-26.431
-26.68
-26.907
-27.114
-27.299
-27.464
-27.61
-27.737
-27.847
-27.941
-28.021
-28.088
-28.144
-28.191
-28.232
-28.269
-28.304
-28.34
-28.379
-28.426
-28.481
-28.55
-28.633
-28.735
-28.858
-29.005
-29.178
-29.379
-29.612
-29.876
-30.175
-30.508
-30.876
-31.28
-31.718
-32.19
-32.694
-33.227
-33.788
-34.373
-34.98
-35.605
-36.243
-36.891
-37.544
-38.197
-38.845
-39.483
-40.104
-40.703
-41.274
-41.81
-42.305
-42.753
-43.148
-43.483
-43.754
-43.954
-44.078
-44.122
-44.08
-43.949
-43.726
-43.41
-42.999
-42.492
-41.89
-41.197
-40.415
-39.547
-38.598
-37.574
-36.479
-35.321
-34.106
-32.84
-31.53
-30.182
-28.806
-27.409
-26.002
-24.592
-23.189
-21.802
-20.443
-19.119
-17.838
-16.603
-15.421
-14.295
-13.234
-12.245
-11.334
-10.502
-9.751
-9.083
-8.495
-7.983
-7.533
-7.123
-6.733
-6.347
-5.954
-5.552
-5.128
-4.67
-4.168
-3.608
-2.987
-2.309
-1.569
-0.762
0.096
0.985
1.857
2.628
3.243
3.646
3.785
3.634
3.139
2.233
0.869
-1.008
-3.431
-6.408
-9.98
-14.215
-19.068
-24.403
-29.972
-35.39
-40.345
-44.616
-47.938
-50.012
-50.667
-49.961
-48.237
-46.118
-44.181
-42.757
-42.058
-42.34
-43.864
-46.561
-49.764
-52.4
-52.669
-48.531
-39.404
-25.002
-6.006
14.976
37.659
62.937
91.894
127.523
170.079
216.715
262.254
298.685
316.776
307.006
264.643
190.05
89.903
-22.215
-136.236
-246.941
-354.181
-462.86
-572.531
-675.821
-760.602
-813.976
-830.274
-812.356
-769.62
-712.416
-647.604
-578.166
-504.184
-426.729
-348.795
-274.711
-209.332
-155.615
-114.519
-85.621
-67.136
-57.036
-53.434
-53.884
-55.985
-57.717
-57.337
-54.129
-48.293
-40.306
-30.879
-21.007
-11.622
-3.654
2.015
5.146
5.963
4.866
2.442
-0.72
-4.11
-7.17
-9.362
-10.428
-10.3
-9.025
-6.771
-3.67
0.167
4.59
9.438
14.57
19.861
25.205
30.518
35.697
40.636
45.237
49.406
53.092
56.279
58.971
61.196
62.988
64.391
65.458
66.252
66.834
67.264
67.599
67.888
68.185
68.545
69.018
69.656
70.494
71.553
72.846
74.38
76.158
78.179
80.437
82.921
85.623
88.535
91.65
94.962
98.463
102.139
105.979
109.968
114.092
118.338
122.691
127.135
131.654
136.231
140.85
145.494
150.144
154.778
159.376
163.914
168.371
172.724
176.951
181.029
184.936
188.651
192.155
195.428
198.451
201.207
203.68
205.854
207.714
209.249
210.446
211.295
211.788
211.917
211.677
211.065
210.077
208.715
206.979
204.872
202.399
199.567
196.383
192.858
189.002
184.828
180.351
175.585
170.548
165.256
159.729
153.987
148.049
141.938
135.675
129.282
122.782
116.197
109.55
102.864
96.162
89.466
82.799
76.182
69.636
63.183
56.841
50.63
44.568
38.67
32.953
27.431
22.117
17.023
12.158
7.533
3.154
-0.973
-4.842
-8.45
-11.796
-14.879
-17.7
-20.262
-22.567
-24.62
-26.428
-27.997
-29.335
-30.451
-31.354
-32.055
-32.565
-32.896
-33.059
-33.068
-32.934
-32.672
-32.294
-31.812
-31.24
-30.591
-29.877
-29.11
-28.302
-27.464
-26.607
-25.741
-24.876
-24.02
-23.183
-22.371
-21.592
-20.853
-20.158
-19.512
-18.921
-18.386
-17.911
-17.498
-17.148
-16.862
-16.639
-16.479
-16.381
-16.344
-16.364
-16.44
-16.568
-16.745
-16.968
-17.232
-17.534
-17.87
-18.235
-18.624
-19.034
-19.461
-19.9
-20.347
-20.798
-21.249
-21.696
-22.136
-22.565
-22.981
-23.38
-23.759
-24.116
-24.449
-24.755
-25.034
-25.283
-25.502
-25.69
-25.846
-25.971
-26.065
-26.127
-26.159
-26.161
-26.136
-26.083
-26.005
-25.904
-25.782
-25.64
-25.482
-25.309
-25.124
-24.929
-24.728
-24.522
-24.314
-24.108
-23.905
-23.708
-23.52
-23.343
-23.181
-23.035
-22.909
-22.804
-22.722
-22.667
-22.64
-22.642
-22.677
-22.745
-22.847
-22.986
-23.162
-23.377
-23.63
-23.923
-24.255
-24.626
-25.036
-25.484
-25.968
-26.487
-27.039
-27.621
-28.232
-28.869
-29.529
-30.208
-30.904
-31.613
-32.331
-33.053
-33.777
-34.497
-35.209
-35.908
-36.59
-37.248
-37.878
-38.475
-39.033
-39.547
-40.012
-40.422
-40.771
-41.054
-41.266
-41.403
-41.459
-41.433
-41.319
-41.117
-40.824
-40.439
-39.965
-39.4
-38.747
-38.007
-37.182
-36.276
-35.291
-34.231
-33.099
-31.901
-30.641
-29.326
-27.965
-26.564
-25.132
-23.676
-22.204
-20.725
-19.247
-17.778
-16.326
-14.9
-13.507
-12.158
-10.864
-9.633
-8.469
-7.372
-6.34
-5.369
-4.453
-3.583
-2.745
-1.927
-1.12
-0.315
0.49
1.304
2.134
2.988
3.885
4.829
5.814
6.836
7.879
8.921
9.947
10.923
11.8
12.536
13.094
13.435
13.531
13.346
12.832
11.954
10.684
8.998
6.885
4.327
1.311
-2.165
-6.063
-10.346
-14.996
-19.913
-24.941
-29.84
-34.225
-37.748
-40.217
-41.365
-40.852
-38.671
-34.976
-30.184
-25.293
-21.027
-17.643
-15.725
-15.933
-18.29
-22.615
-27.558
-30.161
-28.457
-21.778
-10.916
2.12
16.323
32.664
55.14
87.591
131.648
186.716
245.988
299.898
339.36
353.822
336.742
287.318
208.502
109.643
1.824
-107.64
-215.931
-325.363
-437.316
-548.166
-648.179
-723.031
-763.894
-769.022
-744.184
-701.565
-648.734
-589.851
-525.617
-453.577
-377.279
-301.634
-232.473
-176.564
-133.684
-102.199
-80.149
-63.627
-52.486
-46.711
-44.488
-44.8
-45.41
-44.111
-40.514
-34.745
-27.232
-18.736
-10.024
-1.772
5.217
10.17
12.928
13.71
12.861
10.907
8.357
5.625
3.211
1.609
1.044
1.577
3.16
5.63
8.862
12.757
17.172
21.951
26.961
32.081
37.213
42.281
47.195
51.861
56.19
60.102
63.553
66.532
69.048
71.132
72.819
74.154
75.19
75.988
76.61
77.114
77.553
77.975
78.432
78.973
79.647
80.503
81.572
82.877
84.43
86.238
88.305
90.632
93.212
96.036
99.095
102.382
105.889
109.609
113.533
117.648
121.939
126.39
130.986
135.712
140.549
145.48
150.485
155.546
160.642
165.752
170.856
175.929
180.946
185.883
190.715
195.415
199.96
204.324
208.482
212.413
216.092
219.5
222.615
225.419
227.894
230.024
231.793
233.189
234.199
234.814
235.027
234.83
234.22
233.195
231.753
229.898
227.632
224.962
221.894
218.438
214.604
210.406
205.858
200.976
195.777
190.279
184.503
178.469
172.2
165.719
159.048
152.213
145.239
138.148
130.968
123.723
116.439
109.139
101.848
94.591
87.391
80.27
73.249
66.351
59.595
52.998
46.579
40.354
34.337
28.542
22.98
17.662
12.598
7.793
3.255
-1.012
-5.006
-8.724
-12.166
-15.333
-18.229
-20.857
-23.222
-25.329
-27.187
-28.804
-30.187
-31.348
-32.297
-33.044
-33.601
-33.98
-34.193
-34.252
-34.17
-33.959
-33.632
-33.2
-32.675
-32.07
-31.396
-30.663
-29.882
-29.063
-28.216
-27.349
-26.471
-25.59
-24.714
-23.849
-23.001
-22.176
-21.379
-20.613
-19.883
-19.192
-18.541
-17.934
-17.372
-16.854
-16.383
-15.958
-15.58
-15.247
-14.958
-14.714
-14.512
-14.352
-14.23
-14.147
-14.1
-14.086
-14.105
-14.154
-14.232
-14.336
-14.464
-14.614
-14.784
-14.973
-15.178
-15.397
-15.628
-15.87
-16.122
-16.38
-16.645
-16.914
-17.187
-17.463
-17.741
-18.02
-18.299
-18.579
-18.857
-19.135
-19.412
-19.687
-19.961
-20.233
-20.504
-20.774
-21.043
-21.312
-21.58
-21.848
-22.117
-22.387
-22.659
-22.934
-23.212
-23.495
-23.785
-24.081
-24.385
-24.699
-25.023
-25.358
-25.705
-26.066
-26.439
-26.827
-27.229
-27.644
-28.073
-28.515
-28.969
-29.434
-29.909
-30.393
-30.884
-31.38
-31.879
-32.38
-32.878
-33.373
-33.86
-34.337
-34.8
-35.245
-35.669
-36.066
-36.434
-36.767
-37.061
-37.31
-37.51
-37.657
-37.745
-37.77
-37.726
-37.612
-37.422
-37.154
-36.807
-36.378
-35.866
-35.273
-34.6
-33.846
-33.014
-32.107
-31.128
-30.079
-28.966
-27.791
-26.559
-25.276
-23.949
-22.585
-21.193
-19.779
-18.351
-16.92
-15.494
-14.084
-12.699
-11.345
-10.032
-8.766
-7.557
-6.419
-5.36
-4.382
-3.489
-2.681
-1.96
-1.324
-0.765
-0.267
0.185
0.607
1.008
1.392
1.764
2.133
2.509
2.907
3.332
3.779
4.244
4.722
5.206
5.682
6.115
6.45
6.628
6.588
6.28
5.667
4.71
3.381
1.645
-0.548
-3.232
-6.436
-10.183
-14.47
-19.316
-24.763
-30.746
-37.084
-43.505
-49.613
-55.074
-59.69
-63.203
-65.284
-65.775
-64.747
-62.575
-59.978
-57.571
-55.618
-54.37
-54.22
-55.362
-57.608
-60.256
-61.957
-61.344
-57.628
-49.994
-37.253
-18.403
7.277
39.164
74.783
111.702
147.838
182.987
218.81
254.287
286.065
306.467
303.542
270.289
205.614
115.663
13.749
-90.083
-192.149
-294.222
-399.723
-507.115
-607.126
-685.018
-730.319
-739.899
-718.753
-679.167
-630.263
-576.91
-520.866
-460.29
-395.831
-330.452
-267.7
-211.86
-165.405
-128.986
-102.366
-84.222
-73.029
-67.444
-65.612
-65.664
-65.928
-64.812
-61.59
-56.309
-49.243
-40.886
-31.985
-23.269
-15.558
-9.738
-6.13
-4.615
-4.916
-6.563
-9.078
-12.053
-14.992
-17.366
-18.872
-19.398
-18.946
-17.646
-15.606
-12.9
-9.645
-5.975
-2.007
2.147
6.397
10.677
14.915
19.024
22.921
26.525
29.766
32.613
35.061
37.123
38.827
40.206
41.299
42.155
42.83
43.379
43.854
44.3
44.756
45.266
45.878
46.637
47.588
48.759
50.17
51.833
53.759
55.952
58.415
61.139
64.113
67.331
70.786
74.48
78.406
82.551
86.9
91.434
96.135
100.982
105.946
110.991
116.081
121.188
126.295
131.388
136.451
141.468
146.416
151.277
156.042
160.703
165.25
169.668
173.943
178.075
182.078
185.983
189.81
193.556
197.207
200.739
204.132
207.362
210.396
213.195
215.705
217.885
219.711
221.162
222.21
222.806
222.887
222.372
221.204
219.345
216.772
213.468
209.427
204.658
199.191
193.076
186.366
179.088
171.26
162.906
154.071
144.824
135.251
125.453
115.521
105.546
95.629
85.86
76.318
67.054
58.102
49.484
41.229
33.4
26.053
19.232
12.959
7.237
2.059
-2.593
-6.747
-10.454
-13.787
-16.811
-19.57
-22.09
-24.386
-26.474
-28.386
-30.17
-31.863
-33.493
-35.079
-36.634
-38.171
-39.697
-41.202
-42.655
-44.008
-45.226
-46.292
-47.201
-47.953
-48.545
-48.969
-49.216
-49.289
-49.196
-48.942
-48.533
-47.972
-47.269
-46.443
-45.524
-44.546
-43.538
-42.517
-41.498
-40.494
-39.516
-38.576
-37.68
-36.829
-36.024
-35.268
-34.564
-33.918
-33.331
-32.801
-32.325
-31.897
-31.516
-31.177
-30.881
-30.623
-30.401
-30.215
-30.064
-29.948
-29.868
-29.821
-29.804
-29.815
-29.851
-29.909
-29.986
-30.077
-30.181
-30.292
-30.41
-30.531
-30.653
-30.773
-30.89
-31.002
-31.108
-31.205
-31.294
-31.373
-31.441
-31.5
-31.547
-31.584
-31.611
-31.628
-31.635
-31.632
-31.622
-31.603
-31.576
-31.542
-31.502
-31.456
-31.405
-31.35
-31.292
-31.233
-31.174
-31.116
-31.061
-31.01
-30.965
-30.927
-30.897
-30.876
-30.867
-30.869
-30.885
-30.914
-30.958
-31.018
-31.095
-31.188
-31.298
-31.425
-31.568
-31.728
-31.904
-32.095
-32.3
-32.517
-32.747
-32.987
-33.236
-33.493
-33.756
-34.023
-34.293
-34.563
-34.832
-35.096
-35.353
-35.601
-35.835
-36.055
-36.255
-36.432
-36.584
-36.706
-36.793
-36.843
-36.851
-36.812
-36.723
-36.581
-36.382
-36.122
-35.8
-35.414
-34.961
-34.442
-33.858
-33.208
-32.494
-31.716
-30.876
-29.977
-29.02
-28.008
-26.943
-25.827
-24.665
-23.462
-22.222
-20.953
-19.658
-18.345
-17.021
-15.693
-14.368
-13.054
-11.757
-10.484
-9.243
-8.043
-6.894
-5.807
-4.784
-3.826
-2.933
-2.102
-1.328
-0.603
0.089
0.761
1.428
2.101
2.783
3.48
4.2
4.95
5.747
6.598
7.494
8.428
9.386
10.345
11.286
12.173
12.945
13.546
13.923
14.015
13.792
13.213
12.235
10.834
8.968
6.601
3.718
0.301
-3.657
-8.128
-13.11
-18.606
-24.507
-30.641
-36.757
-42.486
-47.521
-51.637
-54.545
-55.905
-55.527
-53.471
-50.086
-46.039
-42.004
-38.391
-35.597
-34.199
-34.562
-36.549
-39.54
-42.281
-43.221
-41.285
-35.501
-24.407
-6.76
18.038
50.008
87.381
126.934
166.174
202.941
236.299
266.472
291.153
305.045
299.843
267.042
204.085
115.692
12.163
-95.357
-201.97
-309.313
-418.959
-529.053
-630.121
-706.056
-746.454
-748.785
-718.832
-670.635
-614.492
-555.547
-495.534
-432.138
-365.637
-299.046
-236.069
-181.014
-136.069
-101.488
-76.667
-60.023
-50.001
-45.202
-43.66
-43.552
-43.362
-41.714
-38.107
-32.719
-25.841
-17.992
-9.958
-2.423
3.88
8.211
10.407
10.671
9.321
6.857
3.773
0.482
-2.529
-4.772
-6.012
-6.175
-5.295
-3.519
-0.961
2.292
6.106
10.334
14.845
19.522
24.27
29.015
33.669
38.134
42.322
46.146
49.561
52.55
55.118
57.292
59.102
60.584
61.789
62.773
63.592
64.3
64.948
65.578
66.237
66.972
67.83
68.856
70.08
71.52
73.187
75.085
77.217
79.581
82.17
84.971
87.976
91.177
94.565
98.134
101.873
105.769
109.81
113.981
118.265
122.649
127.117
131.653
136.243
140.87
145.517
150.169
154.808
159.415
163.969
168.449
172.832
177.095
181.216
185.173
188.946
192.516
195.863
198.969
201.817
204.394
206.686
208.676
210.347
211.68
212.664
213.295
213.573
213.498
213.069
212.287
211.159
209.695
207.903
205.784
203.328
200.528
197.383
193.905
190.112
186.026
181.658
177.012
172.088
166.897
161.451
155.756
149.808
143.599
137.137
130.454
123.608
116.655
109.636
102.58
95.507
88.439
81.412
74.465
67.633
60.941
54.419
48.104
42.052
36.323
30.952
25.938
21.248
16.856
12.747
8.919
5.373
2.098
-0.92
-3.694
-6.23
-8.526
-10.591
-12.447
-14.135
-15.7
-17.165
-18.528
-19.767
-20.868
-21.825
-22.641
-23.321
-23.858
-24.252
-24.508
-24.646
-24.684
-24.636
-24.504
-24.283
-23.967
-23.559
-23.074
-22.535
-21.96
-21.362
-20.754
-20.149
-19.562
-19.008
-18.49
-18.007
-17.556
-17.14
-16.761
-16.424
-16.135
-15.892
-15.696
-15.545
-15.437
-15.37
-15.341
-15.347
-15.382
-15.442
-15.525
-15.63
-15.756
-15.901
-16.062
-16.236
-16.421
-16.615
-16.815
-17.019
-17.222
-17.423
-17.62
-17.811
-17.994
-18.169
-18.334
-18.488
-18.631
-18.763
-18.884
-18.994
-19.092
-19.181
-19.259
-19.329
-19.39
-19.445
-19.494
-19.539
-19.58
-19.621
-19.661
-19.702
-19.746
-19.793
-19.847
-19.906
-19.974
-20.05
-20.136
-20.234
-20.345
-20.469
-20.608
-20.762
-20.933
-21.121
-21.327
-21.552
-21.795
-22.057
-22.338
-22.638
-22.958
-23.296
-23.654
-24.029
-24.422
-24.832
-25.258
-25.7
-26.155
-26.624
-27.104
-27.593
-28.09
-28.593
-29.099
-29.607
-30.112
-30.614
-31.109
-31.594
-32.067
-32.524
-32.963
-33.38
-33.772
-34.136
-34.469
-34.765
-35.023
-35.239
-35.409
-35.531
-35.6
-35.614
-35.57
-35.464
-35.294
-35.057
-34.751
-34.374
-33.924
-33.4
-32.803
-32.132
-31.388
-30.574
-29.691
-28.744
-27.735
-26.669
-25.55
-24.382
-23.171
-21.922
-20.64
-19.33
-17.999
-16.652
-15.297
-13.942
-12.592
-11.256
-9.939
-8.651
-7.399
-6.189
-5.026
-3.913
-2.854
-1.855
-0.926
-0.069
0.715
1.428
2.072
2.648
3.163
3.626
4.059
4.481
4.91
5.356
5.823
6.316
6.846
7.425
8.063
8.765
9.519
10.317
11.157
12.028
12.908
13.758
14.507
15.079
15.423
15.487
15.234
14.642
13.661
12.241
10.345
7.931
4.986
1.516
-2.516
-7.164
-12.391
-18.054
-23.876
-29.449
-34.426
-38.557
-41.551
-43.055
-42.847
-40.985
-37.868
-34.267
-30.975
-28.477
-27.197
-27.723
-30.412
-35.089
-41.012
-46.667
-50.289
-50.661
-46.513
-36.14
-18.144
8.423
42.837
82.168
123.461
164.089
203.709
244.24
284.297
319.712
341.296
335.079
293.565
216.679
112.718
-2.429
-117.557
-229.148
-339.466
-451.867
-563.782
-664.591
-739.066
-777.7
-779.105
-750.269
-705.022
-652.025
-594.534
-532.233
-460.558
-381.079
-300.892
-227.622
-170.371
-131.584
-106.79
-91.534
-80.365
-70.938
-64.774
-61.608
-60.53
-59.948
-57.413
-52.203
-44.689
-35.401
-25.289
-15.308
-6.342
0.598
4.988
6.926
6.75
4.987
2.167
-1.246
-4.693
-7.56
-9.455
-10.229
-9.876
-8.531
-6.315
-3.303
0.377
4.571
9.14
13.95
18.896
23.898
28.861
33.679
38.252
42.482
46.291
49.64
52.513
54.919
56.887
58.449
59.648
60.537
61.177
61.63
61.954
62.205
62.431
62.686
63.021
63.488
64.132
64.986
66.07
67.396
68.971
70.798
72.877
75.204
77.767
80.559
83.572
86.799
90.233
93.866
97.684
101.674
105.821
110.111
114.53
119.061
123.688
128.393
133.158
137.963
142.792
147.621
152.43
157.193
161.888
166.49
170.975
175.32
179.501
183.494
187.279
190.834
194.14
197.178
199.931
202.381
204.514
206.316
207.775
208.88
209.622
209.993
209.988
209.602
208.834
207.681
206.147
204.233
201.944
199.287
196.27
192.903
189.199
185.169
180.83
176.196
171.287
166.119
160.714
155.091
149.273
143.28
137.135
130.862
124.482
118.02
111.498
104.939
98.365
91.8
85.265
78.781
72.369
66.05
59.841
53.762
47.829
42.059
36.467
31.066
25.869
20.886
16.129
11.603
7.317
3.275
-0.52
-4.064
-7.358
-10.401
-13.196
-15.745
-18.054
-20.127
-21.971
-23.594
-25.004
-26.21
-27.221
-28.049
-28.705
-29.198
-29.542
-29.747
-29.825
-29.789
-29.65
-29.421
-29.113
-28.738
-28.306
-27.83
-27.32
-26.784
-26.233
-25.675
-25.119
-24.571
-24.039
-23.527
-23.042
-22.589
-22.17
-21.79
-21.451
-21.154
-20.901
-20.693
-20.529
-20.409
-20.333
-20.298
-20.303
-20.347
-20.427
-20.541
-20.686
-20.859
-21.058
-21.279
-21.519
-21.775
-22.043
-22.321
-22.604
-22.891
-23.179
-23.464
-23.745
-24.02
-24.286
-24.541
-24.784
-25.013
-25.226
-25.424
-25.605
-25.768
-25.914
-26.042
-26.152
-26.245
-26.321
-26.38
-26.424
-26.452
-26.465
-26.465
-26.452
-26.427
-26.391
-26.346
-26.293
-26.234
-26.169
-26.101
-26.031
-25.959
-25.887
-25.817
-25.75
-25.686
-25.628
-25.576
-25.532
-25.497
-25.474
-25.462
-25.463
-25.479
-25.51
-25.558
-25.623
-25.707
-25.812
-25.937
-26.085
-26.256
-26.452
-26.674
-26.921
-27.195
-27.496
-27.823
-28.176
-28.554
-28.957
-29.384
-29.833
-30.303
-30.793
-31.301
-31.825
-32.362
-32.911
-33.467
-34.029
-34.592
-35.153
-35.708
-36.252
-36.783
-37.295
-37.783
-38.244
-38.671
-39.06
-39.405
-39.7
-39.94
-40.12
-40.235
-40.28
-40.25
-40.144
-39.957
-39.689
-39.339
-38.906
-38.39
-37.792
-37.112
-36.353
-35.515
-34.602
-33.616
-32.559
-31.437
-30.256
-29.022
-27.742
-26.423
-25.072
-23.698
-22.307
-20.909
-19.511
-18.12
-16.747
-15.399
-14.086
-12.823
-11.617
-10.474
-9.396
-8.382
-7.428
-6.531
-5.681
-4.864
-4.068
-3.282
-2.497
-1.71
-0.911
-0.094
0.752
1.642
2.583
3.569
4.595
5.643
6.689
7.713
8.679
9.53
10.217
10.695
10.915
10.841
10.432
9.635
8.416
6.744
4.596
1.959
-1.181
-4.829
-8.976
-13.587
-18.629
-24.076
-29.821
-35.681
-41.383
-46.537
-50.781
-53.869
-55.48
-55.238
-53.101
-49.236
-44.102
-38.664
-33.669
-29.555
-27.014
-26.677
-28.55
-32.325
-37.002
-40.644
-41.827
-39.345
-31.41
-16.588
6.066
36.465
72.404
110.907
149.461
186.957
224.234
260.787
293.272
314.773
314.017
281.723
215.501
119.955
6.892
-110.36
-225.444
-338.084
-449.158
-558.692
-659.074
-736.255
-781.162
-790.259
-767.73
-725.689
-672.856
-614.165
-551.87
-484.61
-413.512
-341.935
-273.665
-213.126
-162.877
-123.628
-95.117
-75.899
-64.273
-58.682
-57.051
-57.326
-57.712
-56.558
-53.127
-47.514
-40.063
-31.348
-22.205
-13.418
-5.83
-0.306
2.891
3.935
3.16
1.096
-1.722
-4.84
-7.724
-9.832
-10.894
-10.824
-9.651
-7.533
-4.592
-0.925
3.319
7.982
12.923
18.015
23.159
28.279
33.28
38.059
42.519
46.568
50.154
53.261
55.891
58.07
59.831
61.214
62.271
63.064
63.652
64.094
64.442
64.741
65.042
65.396
65.856
66.473
67.283
68.311
69.574
71.079
72.833
74.837
77.086
79.567
82.273
85.197
88.334
91.685
95.242
98.993
102.922
107.01
111.233
115.566
119.981
124.446
128.94
133.441
137.938
142.423
146.889
151.327
155.724
160.054
164.297
168.431
172.44
176.312
180.048
183.657
187.149
190.543
193.84
197.033
200.103
203.014
205.724
208.183
210.353
212.219
213.774
215.016
215.934
216.508
216.701
216.474
215.776
214.551
212.758
210.362
207.348
203.731
199.55
194.858
189.694
184.069
177.975
171.402
164.364
156.89
149.029
140.836
132.38
123.756
115.06
106.399
97.86
89.493
81.323
73.362
65.637
58.202
51.136
44.506
38.359
32.722
27.609
23.033
18.982
15.417
12.275
9.47
6.939
4.645
2.571
0.708
-0.968
-2.498
-3.938
-5.329
-6.701
-8.078
-9.478
-10.924
-12.42
-13.951
-15.476
-16.941
-18.309
-19.563
-20.696
-21.706
-22.585
-23.322
-23.905
-24.333
-24.61
-24.736
-24.713
-24.538
-24.219
-23.772
-23.227
-22.616
-21.964
-21.288
-20.599
-19.909
-19.227
-18.562
-17.919
-17.297
-16.696
-16.118
-15.568
-15.05
-14.565
-14.113
-13.69
-13.292
-12.918
-12.566
-12.236
-11.926
-11.636
-11.366
-11.117
-10.894
-10.696
-10.524
-10.378
-10.257
-10.161
-10.088
-10.037
-10.007
-9.996
-10.002
-10.026
-10.066
-10.12
-10.189
-10.271
-10.364
-10.469
-10.583
-10.708
-10.84
-10.98
-11.126
-11.278
-11.435
-11.596
-11.76
-11.926
-12.093
-12.262
-12.43
-12.597
-12.761
-12.923
-13.081
-13.235
-13.385
-13.529
-13.67
-13.805
-13.937
-14.065
-14.19
-14.312
-14.432
-14.55
-14.666
-14.782
-14.899
-15.017
-15.137
-15.26
-15.388
-15.522
-15.662
-15.81
-15.967
-16.134
-16.313
-16.504
-16.709
-16.929
-17.165
-17.418
-17.69
-17.98
-18.29
-18.62
-18.97
-19.34
-19.73
-20.138
-20.563
-21.005
-21.461
-21.931
-22.412
-22.903
-23.4
-23.903
-24.406
-24.909
-25.407
-25.896
-26.374
-26.837
-27.28
-27.699
-28.091
-28.451
-28.775
-29.059
-29.298
-29.487
-29.621
-29.697
-29.71
-29.655
-29.53
-29.331
-29.056
-28.703
-28.271
-27.759
-27.17
-26.503
-25.76
-24.943
-24.054
-23.097
-22.074
-20.991
-19.849
-18.654
-17.412
-16.128
-14.812
-13.468
-12.105
-10.731
-9.352
-7.978
-6.617
-5.277
-3.965
-2.688
-1.454
-0.271
0.848
1.895
2.869
3.768
4.594
5.35
6.039
6.671
7.262
7.827
8.379
8.931
9.486
10.051
10.636
11.247
11.903
12.608
13.359
14.149
14.968
15.799
16.625
17.413
18.103
18.645
18.983
19.058
18.836
18.274
17.331
15.983
14.187
11.906
9.116
5.795
1.931
-2.464
-7.388
-12.838
-18.705
-24.797
-30.834
-36.451
-41.339
-45.263
-47.977
-49.189
-48.738
-46.751
-43.628
-40.025
-36.573
-33.659
-31.546
-30.572
-31.088
-33.061
-35.788
-38.226
-38.596
-34.555
-25.341
-10.767
8.625
29.262
49.942
72.646
99.108
134.534
181.782
236.155
290.565
333.454
350.755
333.815
279.651
192.219
83.824
-32.185
-146.948
-257.853
-368.944
-482.721
-595.495
-696.748
-770.802
-808.122
-807.604
-775.6
-725.117
-665.478
-601.343
-534.56
-463.815
-390.268
-317.657
-250.199
-192.315
-146.255
-111.925
-88.249
-73.471
-65.784
-63.313
-63.687
-64.523
-63.837
-60.573
-54.645
-46.412
-36.454
-25.534
-14.618
-4.804
2.825
7.774
10.146
10.283
8.722
6.01
2.649
-0.762
-3.595
-5.468
-6.239
-5.907
-4.606
-2.459
0.458
4.017
8.068
12.477
17.119
21.892
26.718
31.502
36.139
40.525
44.56
48.16
51.283
53.912
56.055
57.744
59.011
59.901
60.466
60.769
60.871
60.832
60.704
60.537
60.383
60.295
60.327
60.531
60.942
61.587
62.48
63.631
65.045
66.724
68.664
70.853
73.281
75.941
78.828
81.938
85.269
88.815
92.56
96.486
100.573
104.794
109.125
113.54
118.006
122.498
126.995
131.482
135.954
140.407
144.826
149.191
153.473
157.644
161.688
165.591
169.344
172.948
176.403
179.712
182.896
185.965
188.905
191.696
194.287
196.623
198.662
200.377
201.746
202.759
203.391
203.62
203.428
202.79
201.681
200.07
197.905
195.15
191.803
187.881
183.435
178.535
173.234
167.577
161.611
155.369
148.893
142.228
135.401
128.45
121.416
114.353
107.33
100.413
93.637
87.023
80.571
74.261
68.088
62.052
56.146
50.374
44.741
39.252
33.925
28.778
23.818
19.048
14.456
10.033
5.779
1.701
-2.189
-5.87
-9.328
-12.555
-15.537
-18.266
-20.743
-22.967
-24.948
-26.7
-28.233
-29.555
-30.673
-31.592
-32.322
-32.874
-33.259
-33.491
-33.583
-33.548
-33.402
-33.157
-32.828
-32.425
-31.957
-31.434
-30.864
-30.255
-29.616
-28.955
-28.281
-27.601
-26.923
-26.254
-25.602
-24.971
-24.368
-23.795
-23.256
-22.754
-22.291
-21.869
-21.487
-21.147
-20.848
-20.59
-20.373
-20.193
-20.052
-19.945
-19.872
-19.83
-19.817
-19.83
-19.866
-19.924
-20.001
-20.093
-20.2
-20.318
-20.446
-20.58
-20.719
-20.861
-21.002
-21.142
-21.277
-21.406
-21.527
-21.638
-21.739
-21.828
-21.905
-21.969
-22.021
-22.059
-22.084
-22.096
-22.095
-22.083
-22.06
-22.027
-21.984
-21.933
-21.874
-21.809
-21.74
-21.667
-21.591
-21.514
-21.438
-21.362
-21.29
-21.222
-21.159
-21.103
-21.056
-21.019
-20.993
-20.98
-20.981
-20.998
-21.031
-21.083
-21.154
-21.246
-21.359
-21.494
-21.651
-21.832
-22.037
-22.266
-22.52
-22.799
-23.102
-23.429
-23.781
-24.157
-24.556
-24.976
-25.418
-25.88
-26.36
-26.856
-27.367
-27.891
-28.424
-28.966
-29.512
-30.06
-30.607
-31.15
-31.686
-32.21
-32.719
-33.21
-33.678
-34.119
-34.53
-34.906
-35.243
-35.536
-35.783
-35.978
-36.118
-36.198
-36.215
-36.165
-36.046
-35.853
-35.586
-35.242
-34.819
-34.317
-33.737
-33.078
-32.343
-31.533
-30.652
-29.701
-28.685
-27.608
-26.473
-25.286
-24.052
-22.775
-21.462
-20.12
-18.757
-17.379
-15.994
-14.61
-13.234
-11.876
-10.543
-9.243
-7.983
-6.768
-5.602
-4.495
-3.455
-2.488
-1.595
-0.773
-0.021
0.664
1.286
1.852
2.38
2.884
3.381
3.88
4.383
4.898
5.432
5.998
6.613
7.281
7.998
8.756
9.546
10.363
11.193
12.002
12.739
13.35
13.775
13.977
13.924
13.58
12.916
11.888
10.44
8.539
6.152
3.258
-0.143
-4.08
-8.606
-13.656
-19.064
-24.576
-29.822
-34.499
-38.409
-41.282
-42.771
-42.701
-41.144
-38.466
-35.37
-32.51
-30.223
-28.849
-28.899
-30.636
-33.864
-37.907
-41.435
-42.923
-41.372
-35.858
-24.979
-7.655
16.619
47.936
84.569
123.357
161.937
197.575
228.847
256.923
280.286
295.393
295.476
269.494
212.346
125.857
17.657
-98.365
-214.535
-330.553
-445.983
-560.848
-667.178
-748.797
-795.523
-803.554
-777.741
-732.22
-676.982
-617.148
-554.599
-487.01
-415.017
-342.058
-272.131
-209.996
-158.379
-117.973
-88.491
-68.441
-56.115
-49.993
-48.026
-48.174
-48.622
-47.658
-44.503
-39.225
-32.141
-23.795
-14.993
-6.489
0.874
6.192
9.176
9.995
8.978
6.664
3.588
0.198
-2.967
-5.344
-6.649
-6.79
-5.795
-3.828
-1.017
2.54
6.695
11.282
16.156
21.187
26.269
31.323
36.251
40.949
45.318
49.264
52.739
55.724
58.225
60.27
61.894
63.139
64.061
64.724
65.191
65.522
65.774
65.996
66.241
66.563
67.012
67.639
68.48
69.557
70.887
72.48
74.339
76.468
78.861
81.507
84.4
87.531
90.89
94.47
98.262
102.255
106.44
110.806
115.338
120.016
124.818
129.718
134.689
139.708
144.741
149.764
154.755
159.693
164.569
169.375
174.092
178.7
183.168
187.466
191.578
195.494
199.205
202.714
206.023
209.131
212.054
214.799
217.355
219.703
221.799
223.599
225.078
226.223
227.032
227.504
227.624
227.368
226.711
225.62
224.057
221.986
219.361
216.146
212.338
207.951
203.025
197.612
191.74
185.422
178.666
171.483
163.901
155.97
147.742
139.286
130.688
122.035
113.42
104.925
96.603
88.494
80.619
72.986
65.629
58.592
51.926
45.677
39.876
34.531
29.637
25.172
21.09
17.343
13.884
10.67
7.68
4.898
2.317
-0.066
-2.265
-4.306
-6.224
-8.054
-9.822
-11.542
-13.215
-14.83
-16.36
-17.78
-19.068
-20.208
-21.196
-22.033
-22.726
-23.284
-23.718
-24.031
-24.221
-24.287
-24.225
-24.041
-23.749
-23.363
-22.91
-22.412
-21.891
-21.364
-20.845
-20.344
-19.865
-19.414
-18.988
-18.59
-18.224
-17.892
-17.6
-17.35
-17.143
-16.976
-16.848
-16.754
-16.691
-16.656
-16.643
-16.653
-16.681
-16.729
-16.796
-16.883
-16.988
-17.111
-17.249
-17.402
-17.566
-17.741
-17.924
-18.113
-18.307
-18.504
-18.705
-18.908
-19.113
-19.319
-19.525
-19.732
-19.939
-20.146
-20.353
-20.56
-20.768
-20.976
-21.185
-21.394
-21.606
-21.82
-22.036
-22.255
-22.477
-22.703
-22.933
-23.167
-23.406
-23.65
-23.899
-24.154
-24.414
-24.682
-24.957
-25.24
-25.532
-25.833
-26.144
-26.465
-26.796
-27.139
-27.493
-27.86
-28.238
-28.63
-29.035
-29.455
-29.888
-30.337
-30.801
-31.281
-31.777
-32.288
-32.815
-33.357
-33.913
-34.482
-35.064
-35.657
-36.258
-36.867
-37.481
-38.099
-38.717
-39.333
-39.944
-40.547
-41.139
-41.715
-42.272
-42.806
-43.312
-43.788
-44.228
-44.628
-44.984
-45.291
-45.544
-45.739
-45.871
-45.936
-45.93
-45.849
-45.689
-45.447
-45.123
-44.713
-44.219
-43.639
-42.975
-42.23
-41.405
-40.504
-39.529
-38.485
-37.376
-36.207
-34.983
-33.71
-32.394
-31.043
-29.666
-28.27
-26.864
-25.457
-24.056
-22.67
-21.309
-19.981
-18.694
-17.455
-16.271
-15.152
-14.107
-13.145
-12.268
-11.475
-10.763
-10.129
-9.568
-9.072
-8.625
-8.212
-7.821
-7.44
-7.062
-6.682
-6.291
-5.873
-5.412
-4.902
-4.341
-3.742
-3.115
-2.468
-1.819
-1.199
-0.657
-0.241
0.002
0.029
-0.19
-0.695
-1.52
-2.695
-4.252
-6.222
-8.629
-11.483
-14.794
-18.546
-22.733
-27.368
-32.348
-37.492
-42.542
-47.122
-50.912
-53.713
-55.23
-55.099
-53.275
-49.893
-45.375
-40.634
-36.324
-32.786
-30.638
-30.426
-32.144
-35.526
-39.615
-42.572
-43.145
-40.294
-32.317
-17.889
3.75
32.375
65.842
101.413
137.587
174.421
211.935
248.24
278.182
292.762
283.523
246.368
182.143
98.537
5.595
-90.288
-185.648
-282.152
-383.667
-487.785
-587.944
-673.067
-729.222
-750.502
-737.911
-698.109
-643.354
-582.054
-518.26
-453.892
-387.918
-321.189
-257.083
-199.004
-150.259
-112.381
-84.841
-66.193
-54.673
-48.734
-46.612
-46.485
-46.662
-45.555
-42.453
-37.46
-30.891
-23.228
-15.186
-7.425
-0.708
4.105
6.733
7.329
6.191
3.816
0.703
-2.739
-6
-8.54
-10.082
-10.526
-9.887
-8.317
-5.929
-2.812
0.894
5.035
9.474
14.086
18.777
23.473
28.081
32.501
36.635
40.393
43.727
46.617
49.065
51.095
52.737
54.029
55.023
55.777
56.347
56.788
57.151
57.481
57.83
58.25
58.793
59.509
60.432
61.587
62.991
64.652
66.573
68.753
71.187
73.864
76.781
79.934
83.32
86.93
90.752
94.771
98.967
103.317
107.792
112.354
116.974
121.628
126.302
130.985
135.668
140.337
144.978
149.579
154.126
158.609
163.013
167.317
171.512
175.596
179.585
183.515
187.4
191.234
195
198.666
202.196
205.56
208.708
211.584
214.14
216.339
218.161
219.605
220.646
221.246
221.348
220.868
219.75
217.965
215.489
212.323
208.482
203.985
198.887
193.266
187.175
180.652
173.708
166.329
158.539
150.384
141.927
133.261
124.47
115.628
106.826
98.134
89.604
81.276
73.157
65.227
57.501
50.01
42.807
35.971
29.551
23.569
18.044
12.965
8.313
4.058
0.137
-3.503
-6.893
-10.058
-12.995
-15.689
-18.149
-20.396
-22.458
-24.385
-26.212
-27.963
-29.667
-31.332
-32.956
-34.524
-35.995
-37.332
-38.516
-39.536
-40.395
-41.102
-41.659
-42.068
-42.336
-42.458
-42.433
-42.262
-41.942
-41.479
-40.885
-40.181
-39.396
-38.561
-37.697
-36.823
-35.95
-35.088
-34.247
-33.432
-32.645
-31.888
-31.166
-30.483
-29.846
-29.258
-28.721
-28.233
-27.794
-27.398
-27.045
-26.733
-26.458
-26.221
-26.02
-25.855
-25.726
-25.635
-25.58
-25.559
-25.57
-25.611
-25.68
-25.772
-25.886
-26.016
-26.16
-26.316
-26.48
-26.65
-26.822
-26.996
-27.167
-27.335
-27.498
-27.653
-27.8
-27.938
-28.065
-28.181
-28.285
-28.376
-28.455
-28.522
-28.577
-28.62
-28.653
-28.676
-28.69
-28.696
-28.696
-28.691
-28.683
-28.674
-28.666
-28.661
-28.662
-28.672
-28.693
-28.727
-28.777
-28.845
-28.932
-29.042
-29.174
-29.33
-29.511
-29.718
-29.95
-30.209
-30.492
-30.801
-31.134
-31.489
-31.865
-32.26
-32.672
-33.097
-33.532
-33.973
-34.418
-34.861
-35.299
-35.726
-36.138
-36.53
-36.897
-37.232
-37.53
-37.786
-37.994
-38.148
-38.243
-38.275
-38.239
-38.131
-37.948
-37.689
-37.352
-36.936
-36.44
-35.866
-35.212
-34.481
-33.675
-32.796
-31.846
-30.829
-29.749
-28.613
-27.426
-26.197
-24.93
-23.635
-22.317
-20.986
-19.649
-18.316
-16.992
-15.686
-14.405
-13.16
-11.962
-10.819
-9.736
-8.713
-7.751
-6.85
-6.007
-5.215
-4.461
-3.735
-3.026
-2.323
-1.624
-0.921
-0.207
0.531
1.306
2.124
2.983
3.877
4.799
5.735
6.668
7.57
8.39
9.082
9.598
9.886
9.908
9.62
8.981
7.962
6.525
4.636
2.272
-0.588
-3.965
-7.845
-12.228
-17.135
-22.465
-28.048
-33.641
-38.862
-43.384
-46.992
-49.378
-50.181
-49.339
-46.955
-43.394
-39.494
-35.859
-32.795
-30.856
-30.521
-31.779
-34.411
-37.578
-39.541
-39.063
-35.284
-26.75
-12.293
8.735
36.98
71.106
107.822
144.964
180.229
212.751
244.432
273.73
296.595
305.896
290.176
244.105
169.366
73.153
-31.19
-136.068
-241.021
-346.048
-451.69
-551.266
-630.998
-681.868
-700.028
-689.291
-660.821
-622.011
-577.091
-527.804
-472.345
-411.897
-349.35
-287.366
-230.087
-180.221
-138.544
-105.63
-80.857
-62.751
-50.523
-43.237
-39.244
-37.144
-35.529
-32.946
-28.938
-23.706
-17.309
-10.059
-2.574
4.675
10.986
15.562
18.233
19.167
18.612
17.017
14.814
12.345
10.08
8.511
7.874
8.25
9.605
11.783
14.674
18.189
22.199
26.56
31.144
35.837
40.547
45.206
49.731
54.034
58.031
61.641
64.822
67.559
69.866
71.772
73.315
74.533
75.478
76.205
76.772
77.231
77.63
78.012
78.421
78.904
79.51
80.284
81.262
82.465
83.907
85.595
87.534
89.723
92.156
94.822
97.711
100.816
104.133
107.662
111.397
115.326
119.433
123.698
128.098
132.604
137.187
141.814
146.457
151.093
155.705
160.286
164.827
169.32
173.75
178.092
182.326
186.432
190.393
194.198
197.844
201.338
204.693
207.928
211.053
214.064
216.941
219.648
222.14
224.362
226.271
227.836
229.031
229.835
230.227
230.186
229.683
228.684
227.148
225.023
222.275
218.885
214.862
210.238
205.067
199.418
193.357
186.938
180.212
173.22
166.004
158.605
151.066
143.436
135.771
128.144
120.615
113.236
106.042
99.045
92.244
85.622
79.163
72.861
66.71
60.716
54.885
49.228
43.756
38.48
33.403
28.52
23.823
19.308
14.975
10.833
6.896
3.183
-0.29
-3.507
-6.46
-9.145
-11.564
-13.72
-15.624
-17.288
-18.723
-19.938
-20.942
-21.741
-22.347
-22.77
-23.025
-23.125
-23.086
-22.923
-22.65
-22.281
-21.829
-21.304
-20.716
-20.073
-19.385
-18.657
-17.9
-17.121
-16.328
-15.529
-14.73
-13.939
-13.162
-12.403
-11.666
-10.956
-10.274
-9.622
-9.003
-8.416
-7.864
-7.345
-6.859
-6.406
-5.985
-5.595
-5.235
-4.902
-4.597
-4.316
-4.06
-3.825
-3.61
-3.415
-3.238
-3.076
-2.93
-2.799
-2.681
-2.575
-2.48
-2.396
-2.321
-2.255
-2.197
-2.145
-2.1
-2.06
-2.027
-1.999
-1.977
-1.96
-1.95
-1.945
-1.947
-1.956
-1.972
-1.995
-2.025
-2.062
-2.107
-2.159
-2.218
-2.285
-2.359
-2.44
-2.527
-2.621
-2.722
-2.829
-2.942
-3.061
-3.186
-3.317
-3.454
-3.598
-3.749
-3.907
-4.074
-4.249
-4.433
-4.626
-4.829
-5.042
-5.264
-5.497
-5.739
-5.99
-6.251
-6.52
-6.798
-7.085
-7.379
-7.68
-7.988
-8.301
-8.619
-8.939
-9.261
-9.583
-9.904
-10.22
-10.531
-10.833
-11.123
-11.399
-11.657
-11.893
-12.103
-12.283
-12.429
-12.536
-12.601
-12.62
-12.59
-12.507
-12.37
-12.176
-11.926
-11.618
-11.252
-10.827
-10.343
-9.801
-9.202
-8.545
-7.832
-7.066
-6.249
-5.387
-4.483
-3.542
-2.57
-1.572
-0.553
0.478
1.517
2.56
3.597
4.621
5.623
6.589
7.509
8.38
9.198
9.961
10.673
11.335
11.959
12.56
13.149
13.736
14.33
14.934
15.557
16.214
16.914
17.674
18.502
19.392
20.342
21.34
22.362
23.384
24.361
25.232
25.946
26.452
26.702
26.654
26.249
25.424
24.125
22.306
19.947
17.043
13.573
9.531
4.92
-0.243
-5.881
-11.919
-18.316
-24.94
-31.599
-38.004
-43.711
-48.332
-51.585
-53.124
-52.708
-50.35
-46.206
-40.848
-35.158
-29.786
-25.366
-22.549
-21.582
-22.376
-24.445
-26.423
-26.751
-24.218
-17.259
-4.463
15.003
41.861
75.137
111.885
149.602
185.664
218.739
250.015
278.052
299.088
306.423
289.605
242.773
166.476
68.018
-39.791
-147.191
-250.477
-351.518
-452.738
-551.896
-640.729
-706.585
-741.137
-742.852
-716.733
-673.521
-621.319
-564.675
-505.497
-442.73
-377.333
-312.034
-250.138
-195.605
-150.511
-115.305
-89.635
-72.072
-61.205
-55.763
-53.854
-53.658
-53.612
-52.256
-48.996
-43.957
-37.365
-29.682
-21.669
-13.994
-7.409
-2.704
-0.084
0.622
-0.301
-2.376
-5.123
-8.143
-10.951
-13.05
-14.201
-14.328
-13.465
-11.765
-9.341
-6.281
-2.72
1.199
5.346
9.611
13.9
18.147
22.266
26.167
29.761
32.961
35.722
38.028
39.885
41.321
42.369
43.068
43.468
43.627
43.604
43.453
43.226
42.967
42.724
42.547
42.484
42.585
42.883
43.4
44.151
45.141
46.376
47.855
49.574
51.522
53.69
56.072
58.66
61.449
64.431
67.593
70.924
74.408
78.031
81.78
85.64
89.595
93.628
97.722
101.86
106.025
110.198
114.358
118.483
122.551
126.539
130.425
134.187
137.802
141.249
144.508
147.557
150.38
152.958
155.275
157.314
159.062
160.505
161.632
162.432
162.896
163.016
162.788
162.205
161.267
159.97
158.317
156.309
153.95
151.245
148.202
144.829
141.137
137.136
132.841
128.265
123.424
118.336
113.017
107.488
101.767
95.876
89.835
83.665
77.388
71.026
64.6
58.133
51.645
45.159
38.695
32.274
25.916
19.641
13.466
7.411
1.49
-4.279
-9.881
-15.304
-20.534
-25.561
-30.375
-34.966
-39.328
-43.454
-47.341
-50.984
-54.383
-57.537
-60.446
-63.113
-65.542
-67.737
-69.703
-71.447
-72.976
-74.299
-75.424
-76.362
-77.123
-77.716
-78.153
-78.446
-78.606
-78.644
-78.572
-78.401
-78.143
-77.81
-77.411
-76.959
-76.462
-75.932
-75.378
-74.809
-74.233
-73.658
-73.093
-72.543
-72.015
-71.514
-71.045
-70.613
-70.22
-69.87
-69.565
-69.306
-69.095
-68.932
-68.816
-68.749
-68.728
-68.752
-68.82
-68.931
-69.081
-69.269
-69.492
-69.748
-70.034
-70.348
-70.687
-71.047
-71.427
-71.822
-72.231
-72.65
-73.076
-73.506
-73.938
-74.37
-74.797
-75.219
-75.633
-76.036
-76.427
-76.805
-77.167
-77.513
-77.842
-78.154
-78.447
-78.723
-78.982
-79.223
-79.448
-79.657
-79.85
-80.028
-80.192
-80.342
-80.479
-80.605
-80.719
-80.824
-80.922
-81.014
-81.101
-81.186
-81.27
-81.355
-81.445
-81.54
-81.643
-81.756
-81.881
-82.022
-82.178
-82.353
-82.547
-82.761
-82.996
-83.251
-83.525
-83.818
-84.126
-84.448
-84.784
-85.13
-85.486
-85.85
-86.221
-86.599
-86.982
-87.369
-87.756
-88.139
-88.511
-88.869
-89.206
-89.514
-89.788
-90.019
-90.204
-90.339
-90.42
-90.442
-90.395
-90.271
-90.063
-89.771
-89.393
-88.927
-88.38
-87.757
-87.073
-86.353
-85.611
-84.856
-84.091
-83.311
-82.512
-81.695
-80.856
-79.99
-79.092
-78.153
-77.169
-76.142
-75.062
-73.908
-72.648
-71.234
-69.639
-67.857
-65.89
-63.751
-61.46
-59.036
-56.515
-53.942
-51.351
-48.768
-46.21
-43.685
-41.221
-38.862
-36.66
-34.681
-32.965
-31.527
-30.378
-29.522
-28.95
-28.642
-28.563
-28.663
-28.92
-29.337
-29.924
-30.696
-31.655
-32.785
-34.078
-35.532
-37.161
-38.987
-41.024
-43.271
-45.742
-48.481
-51.533
-54.943
-58.728
-62.822
-67.191
-71.846
-76.709
-81.633
-86.363
-90.48
-93.609
-95.526
-95.933
-94.525
-91.255
-86.197
-79.814
-73.038
-66.618
-61.133
-57.204
-55.245
-55.261
-56.979
-59.314
-60.521
-59.176
-53.72
-42.585
-24.646
1.005
33.718
70.781
109.447
147.015
182.516
217.489
250.325
276.53
287.905
272.409
223.91
143.614
40.178
-72.28
-183.86
-291.762
-399.251
-509.414
-619.277
-717.978
-789.512
-823.722
-818.937
-782.628
-729.574
-669.241
-605.478
-538.166
-462.395
-379.668
-297.333
-222.794
-165.141
-126.915
-103.368
-89.845
-80.71
-73.055
-67.899
-64.983
-63.477
-61.983
-58.326
-51.856
-43.007
-32.501
-21.505
-11.01
-1.847
5.102
9.491
11.476
11.424
9.91
7.514
4.734
2.136
0.299
-0.459
-0.027
1.573
4.193
7.713
12.049
17.06
22.582
28.472
34.591
40.83
47.108
53.315
59.334
65.053
70.361
75.196
79.533
83.369
86.72
89.614
92.084
94.18
95.964
97.495
98.832
100.03
101.135
102.2
103.282
104.435
105.715
107.16
108.792
110.628
112.679
114.95
117.444
120.154
123.065
126.169
129.461
132.935
136.593
140.43
144.431
148.582
152.87
157.275
161.777
166.348
170.951
175.557
180.143
184.694
189.201
193.655
198.041
202.347
206.561
210.674
214.681
218.571
222.326
225.945
229.43
232.802
236.099
239.34
242.525
245.645
248.677
251.593
254.365
256.948
259.284
261.326
263.028
264.358
265.299
265.82
265.878
265.42
264.374
262.693
260.359
257.362
253.707
249.42
244.531
239.1
233.215
226.95
220.365
213.513
206.429
199.16
191.768
184.318
176.887
169.536
162.311
155.253
148.398
141.767
135.37
129.193
123.201
117.372
111.698
106.176
100.818
95.629
90.606
85.748
81.056
76.529
72.171
67.985
63.969
60.13
56.48
53.04
49.839
46.899
44.231
41.844
39.739
37.915
36.373
35.107
34.106
33.362
32.866
32.609
32.586
32.787
33.199
33.807
34.596
35.549
36.652
37.89
39.248
40.713
42.272
43.913
45.626
47.4
49.222
51.082
52.966
54.862
56.759
58.645
60.51
62.341
64.132
65.871
67.554
69.171
70.718
72.189
73.58
74.886
76.104
77.232
78.268
79.211
80.06
80.815
81.477
82.048
82.529
82.923
83.233
83.462
83.613
83.691
83.7
83.643
83.527
83.355
83.133
82.866
82.561
82.222
81.856
81.469
81.065
80.649
80.228
79.804
79.382
78.967
78.56
78.167
77.788
77.427
77.085
76.764
76.464
76.187
75.932
75.699
75.486
75.293
75.117
74.956
74.808
74.669
74.537
74.407
74.276
74.141
73.995
73.835
73.657
73.456
73.226
72.964
72.665
72.324
71.938
71.504
71.018
70.477
69.88
69.224
68.508
67.731
66.893
65.993
65.033
64.014
62.938
61.807
60.624
59.393
58.119
56.807
55.461
54.088
52.694
51.287
49.873
48.459
47.055
45.667
44.306
42.978
41.694
40.461
39.288
38.182
37.151
36.202
35.339
34.568
33.892
33.316
32.84
32.468
32.2
32.037
31.978
32.023
32.169
32.415
32.757
33.188
33.702
34.292
34.95
35.667
36.435
37.244
38.083
38.943
39.813
40.683
41.541
42.375
43.167
43.907
44.587
45.201
45.744
46.219
46.625
46.969
47.262
47.515
47.735
47.931
48.108
48.272
48.432
48.598
48.782
48.995
49.235
49.498
49.778
50.052
50.294
50.475
50.545
50.452
50.155
49.603
48.745
47.546
45.958
43.939
41.465
38.494
34.992
30.94
26.309
21.108
15.382
9.149
2.429
-4.677
-12
-19.275
-26.116
-32.221
-37.379
-41.321
-43.732
-44.421
-43.431
-41.104
-38.094
-35.004
-32.139
-29.783
-28.402
-28.284
-29.311
-30.908
-31.878
-30.949
-27.441
-20.611
-9.259
7.565
30.601
59.369
91.559
125.026
158.066
190.481
223.72
256.831
286.301
304.596
300.373
266.36
201.125
110.575
6.9
-100.832
-209.826
-322.968
-443.246
-567.184
-682.889
-772.773
-825.24
-837.63
-816.172
-774.55
-721.997
-663.041
-599.241
-528.726
-453.004
-376.195
-302.768
-237.873
-184.549
-143.522
-114.468
-95.777
-85.415
-81.615
-82.117
-84.607
-87.07
-87.692
-85.627
-80.966
-74.139
-65.781
-56.796
-48.05
-40.448
-34.93
-31.807
-30.904
-31.867
-34.133
-37.135
-40.394
-43.356
-45.46
-46.433
-46.191
-44.776
-42.362
-39.085
-35.057
-30.438
-25.399
-20.087
-14.636
-9.15
-3.713
1.575
6.608
11.285
15.515
19.249
22.467
25.173
27.392
29.156
30.507
31.499
32.193
32.652
32.934
33.096
33.188
33.264
33.378
33.582
33.926
34.447
35.166
36.1
37.257
38.642
40.26
42.107
44.176
46.461
48.959
51.666
54.578
57.69
60.991
64.472
68.119
71.921
75.865
79.94
84.131
88.425
92.808
97.265
101.782
106.341
110.924
115.509
120.074
124.595
129.047
133.406
137.648
141.75
145.69
149.446
152.997
156.326
159.413
162.239
164.783
167.022
168.936
170.511
171.739
172.613
173.137
173.309
173.134
172.621
171.774
170.595
169.082
167.221
165.001
162.417
159.475
156.189
152.576
148.64
144.384
139.812
134.917
129.698
124.151
118.255
112.006
105.421
98.531
91.392
84.073
76.626
69.093
61.51
53.908
46.328
38.816
31.408
24.154
17.102
10.308
3.85
-2.212
-7.85
-13.054
-17.846
-22.273
-26.356
-30.117
-33.572
-36.732
-39.612
-42.23
-44.592
-46.71
-48.607
-50.313
-51.88
-53.353
-54.751
-56.08
-57.325
-58.456
-59.455
-60.313
-61.015
-61.56
-61.946
-62.176
-62.264
-62.228
-62.075
-61.809
-61.422
-60.906
-60.268
-59.521
-58.683
-57.782
-56.839
-55.874
-54.909
-53.962
-53.045
-52.169
-51.336
-50.544
-49.797
-49.099
-48.454
-47.871
-47.353
-46.899
-46.512
-46.189
-45.929
-45.728
-45.582
-45.487
-45.439
-45.436
-45.476
-45.558
-45.68
-45.84
-46.036
-46.264
-46.521
-46.803
-47.107
-47.427
-47.76
-48.102
-48.448
-48.798
-49.146
-49.491
-49.83
-50.16
-50.479
-50.786
-51.079
-51.355
-51.614
-51.855
-52.077
-52.278
-52.459
-52.62
-52.76
-52.881
-52.983
-53.066
-53.132
-53.182
-53.217
-53.237
-53.245
-53.241
-53.227
-53.206
-53.178
-53.146
-53.113
-53.08
-53.049
-53.024
-53.005
-52.996
-52.997
-53.012
-53.042
-53.089
-53.154
-53.239
-53.346
-53.477
-53.631
-53.81
-54.015
-54.245
-54.5
-54.78
-55.083
-55.41
-55.757
-56.124
-56.508
-56.909
-57.322
-57.746
-58.178
-58.615
-59.053
-59.49
-59.921
-60.343
-60.751
-61.141
-61.509
-61.85
-62.159
-62.433
-62.665
-62.852
-62.989
-63.073
-63.097
-63.06
-62.956
-62.785
-62.542
-62.227
-61.838
-61.376
-60.842
-60.237
-59.564
-58.824
-58.022
-57.161
-56.245
-55.279
-54.265
-53.208
-52.114
-50.988
-49.837
-48.667
-47.485
-46.297
-45.112
-43.937
-42.781
-41.652
-40.552
-39.486
-38.459
-37.478
-36.553
-35.688
-34.885
-34.144
-33.464
-32.846
-32.284
-31.771
-31.284
-30.804
-30.314
-29.803
-29.266
-28.699
-28.089
-27.424
-26.694
-25.893
-25.033
-24.123
-23.163
-22.165
-21.151
-20.165
-19.277
-18.568
-18.092
-17.902
-18.042
-18.539
-19.449
-20.828
-22.718
-25.163
-28.18
-31.763
-35.949
-40.788
-46.227
-52.11
-58.147
-63.921
-69.093
-73.428
-76.638
-78.375
-78.439
-76.898
-74.143
-70.918
-67.918
-65.516
-64.056
-64.045
-65.759
-68.994
-73.017
-76.411
-77.631
-75.714
-69.637
-57.942
-39.456
-13.426
19.47
56.602
95.319
133.392
170.416
207.732
244.012
275.399
293.732
286.898
247.91
176.278
79.074
-30.032
-140.941
-250.603
-361.874
-478.068
-596.596
-706.164
-789.334
-834.322
-838.652
-809.59
-762.068
-706.08
-644.21
-574.294
-492.459
-401.454
-311.536
-234.543
-178.828
-144.982
-125.897
-113.571
-103.102
-93.502
-87.126
-84.898
-85.307
-85.897
-84.046
-78.871
-70.936
-61.054
-50.259
-39.595
-30.035
-22.617
-17.847
-15.58
-15.434
-16.85
-19.266
-22.191
-25.037
-27.176
-28.251
-28.151
-26.903
-24.668
-21.576
-17.709
-13.21
-8.24
-2.942
2.549
8.133
13.729
19.229
24.518
29.487
34.024
38.069
41.597
44.598
47.094
49.115
50.695
51.887
52.751
53.347
53.737
53.979
54.122
54.223
54.342
54.535
54.858
55.353
56.045
56.955
58.098
59.48
61.11
62.987
65.103
67.455
70.039
72.852
75.893
79.152
82.62
86.286
90.142
94.183
98.399
102.772
107.28
111.903
116.623
121.423
126.279
131.166
136.055
140.927
145.773
150.584
155.342
160.022
164.589
169.008
173.258
177.332
181.222
184.914
188.393
191.642
194.665
197.476
200.073
202.434
204.513
206.273
207.696
208.79
209.569
210.038
210.184
209.978
209.403
208.45
207.109
205.361
203.159
200.448
197.203
193.439
189.2
184.518
179.393
173.799
167.715
161.149
154.134
146.717
138.934
130.822
122.433
113.85
105.188
96.565
88.061
79.717
71.556
63.617
55.97
48.711
41.913
35.619
29.849
24.618
19.947
15.844
12.291
9.233
6.583
4.265
2.237
0.476
-1.033
-2.317
-3.429
-4.431
-5.364
-6.253
-7.117
-7.971
-8.841
-9.739
-10.651
-11.543
-12.362
-13.073
-13.661
-14.121
-14.453
-14.65
-14.699
-14.589
-14.324
-13.91
-13.352
-12.653
-11.815
-10.844
-9.76
-8.593
-7.376
-6.133
-4.878
-3.624
-2.382
-1.16
0.032
1.19
2.318
3.414
4.479
5.509
6.502
7.456
8.376
9.266
10.131
10.975
11.8
12.608
13.402
14.183
14.952
15.708
16.447
17.169
17.874
18.561
19.229
19.879
20.508
21.115
21.7
22.26
22.793
23.295
23.762
24.191
24.579
24.92
25.209
25.442
