-288.599
-211.875
-206.87
-179.762
-158.415
-144.417
-134.781
-134.341
-141.235
-147.587
-151.002
-152.278
-152.296
-152.245
-152.289
-152.044
-151.384
-150.237
-148.557
-146.434
-144.068
-141.79
-139.885
-138.467
-137.49
-136.801
-136.327
-136.051
-135.928
-135.886
-135.817
-135.634
-135.31
-134.854
-134.272
-133.558
-132.687
-131.639
-130.415
-129.026
-127.484
-125.812
-124.02
-122.125
-120.148
-118.11
-116.04
-113.956
-111.866
-109.773
-107.675
-105.572
-103.464
-101.351
-99.225
-97.08
-94.909
-92.705
-90.463
-88.179
-85.843
-83.447
-80.982
-78.441
-75.82
-73.117
-70.327
-67.451
-64.487
-61.437
-58.303
-55.087
-51.792
-48.419
-44.971
-41.453
-37.869
-34.223
-30.524
-26.777
-22.991
-19.177
-15.344
-11.504
-7.668
-3.848
-0.058
3.689
7.381
11.003
14.541
17.98
21.307
24.507
27.564
30.466
33.197
35.746
38.098
40.241
42.165
43.857
45.308
46.509
47.45
48.125
48.526
48.648
48.487
48.04
47.304
46.279
44.966
43.367
41.486
39.327
36.898
34.205
31.257
28.065
24.64
20.994
17.141
13.096
8.873
4.489
-0.039
-4.694
-9.457
-14.31
-19.233
-24.208
-29.216
-34.237
-39.252
-44.241
-49.187
-54.071
-58.874
-63.579
-68.17
-72.63
-76.943
-81.097
-85.076
-88.868
-92.464
-95.851
-99.022
-101.968
-104.684
-107.164
-109.404
-111.401
-113.155
-114.664
-115.931
-116.957
-117.746
-118.302
-118.631
-118.739
-118.635
-118.326
-117.822
-117.132
-116.267
-115.238
-114.056
-112.733
-111.281
-109.713
-108.04
-106.275
-104.43
-102.518
-100.55
-98.537
-96.491
-94.422
-92.34
-90.254
-88.174
-86.108
-84.062
-82.044
-80.061
-78.116
-76.215
-74.362
-72.559
-70.809
-69.114
-67.473
-65.888
-64.357
-62.88
-61.454
-60.078
-58.748
-57.462
-56.216
-55.006
-53.827
-52.677
-51.55
-50.441
-49.348
-48.265
-47.189
-46.115
-45.041
-43.964
-42.88
-41.787
-40.683
-39.568
-38.438
-37.294
-36.135
-34.961
-33.773
-32.572
-31.359
-30.135
-28.903
-27.665
-26.423
-25.18
-23.939
-22.702
-21.474
-20.256
-19.051
-17.864
-16.696
-15.552
-14.433
-13.342
-12.282
-11.254
-10.259
-9.299
-8.373
-7.482
-6.625
-5.801
-5.009
-4.247
-3.512
-2.801
-2.111
-1.439
-0.779
-0.127
0.522
1.172
1.829
2.497
3.18
3.884
4.612
5.367
6.151
6.966
7.815
8.698
9.618
10.575
11.569
12.601
13.671
14.778
15.92
17.094
18.293
19.514
20.751
21.999
23.249
24.496
25.732
26.952
28.149
29.316
30.443
31.52
32.534
33.476
34.341
35.128
35.836
36.471
37.04
37.553
38.031
38.486
38.929
39.371
39.815
40.269
40.748
41.265
41.834
42.47
43.173
43.939
44.766
45.628
46.496
47.335
48.088
48.705
49.147
49.372
49.342
49.017
48.349
47.291
45.807
43.867
41.454
38.548
35.128
31.205
26.805
21.986
16.813
11.306
5.569
-0.207
-5.751
-10.676
-14.624
-17.361
-18.569
-17.852
-15.143
-10.578
-4.563
1.975
8.341
14.14
18.679
21.328
22.037
21.029
19.2
18.338
19.663
24.23
33.742
49.514
72.499
102.724
138.093
175.944
214.204
251.875
289.73
327.416
361.528
385.339
388.047
359.871
297.642
205.303
93.659
-24.638
-143.753
-264.316
-387.521
-512.359
-629.054
-720.743
-776.276
-791.504
-771.496
-729.907
-676.209
-615.644
-550.305
-478.432
-401.544
-323.736
-249.536
-184.222
-130.908
-90.348
-62.165
-44.617
-35.525
-32.993
-34.629
-38.023
-41.106
-42.037
-40.002
-35.163
-28.024
-19.3
-9.96
-0.918
6.884
12.485
15.568
16.31
15.078
12.449
8.993
5.198
1.62
-1.18
-2.897
-3.42
-2.772
-1.103
1.459
4.811
8.808
13.292
18.12
23.172
28.345
33.559
38.729
43.755
48.547
53.019
57.103
60.76
63.981
66.778
69.177
71.216
72.937
74.392
75.643
76.747
77.76
78.73
79.703
80.723
81.835
83.083
84.505
86.128
87.964
90.022
92.303
94.805
97.522
100.446
103.559
106.849
110.304
113.911
117.661
121.54
125.531
129.617
133.78
138.004
142.271
146.563
150.861
155.147
159.4
163.603
167.736
171.779
175.711
179.51
183.155
186.624
189.898
192.956
195.78
198.351
200.654
202.672
204.393
205.805
206.896
207.657
208.082
208.162
207.895
207.277
206.307
204.986
203.315
201.299
198.943
196.254
193.241
189.914
186.284
182.366
178.174
173.722
169.028
164.11
158.986
153.675
148.198
142.575
136.827
130.975
125.04
119.043
113.005
106.945
100.884
94.841
88.835
82.884
77.005
71.215
65.529
59.961
54.526
49.236
44.102
39.134
34.343
29.734
25.316
21.092
17.068
13.245
9.626
6.211
2.998
-0.014
-2.827
-5.447
-7.877
-10.124
-12.193
-14.092
-15.828
-17.408
-18.842
-20.137
-21.302
-22.346
-23.278
-24.106
-24.839
-25.485
-26.053
-26.551
-26.987
-27.369
-27.703
-27.996
-28.254
-28.484
-28.69
-28.877
-29.049
-29.211
-29.365
-29.513
-29.659
-29.803
-29.948
-30.093
-30.239
-30.386
-30.535
-30.684
-30.833
-30.982
-31.129
-31.274
-31.416
-31.553
-31.685
-31.812
-31.931
-32.043
-32.147
-32.241
-32.326
-32.401
-32.466
-32.521
-32.565
-32.598
-32.622
-32.637
-32.642
-32.64
-32.63
-32.614
-32.594
-32.569
-32.543
-32.515
-32.488
-32.463
-32.442
-32.425
-32.415
-32.412
-32.418
-32.434
-32.46
-32.498
-32.547
-32.61
-32.686
-32.777
-32.882
-33.001
-33.136
-33.287
-33.453
-33.635
-33.833
-34.047
-34.277
-34.523
-34.785
-35.063
-35.355
-35.66
-35.979
-36.31
-36.652
-37.002
-37.36
-37.724
-38.093
-38.465
-38.838
-39.211
-39.582
-39.949
-40.311
-40.666
-41.011
-41.344
-41.664
-41.968
-42.254
-42.519
-42.761
-42.977
-43.164
-43.32
-43.441
-43.524
-43.565
-43.562
-43.512
-43.413
-43.263
-43.06
-42.803
-42.493
-42.13
-41.717
-41.253
-40.741
-40.182
-39.578
-38.932
-38.247
-37.525
-36.768
-35.982
-35.172
-34.343
-33.503
-32.655
-31.808
-30.966
-30.136
-29.326
-28.541
-27.786
-27.068
-26.394
-25.772
-25.214
-24.725
-24.308
-23.962
-23.686
-23.471
-23.312
-23.197
-23.108
-23.032
-22.957
-22.872
-22.771
-22.647
-22.487
-22.281
-22.015
-21.678
-21.27
-20.795
-20.259
-19.681
-19.088
-18.507
-17.984
-17.564
-17.283
-17.184
-17.309
-17.69
-18.367
-19.376
-20.735
-22.481
-24.645
-27.249
-30.327
-33.876
-37.865
-42.291
-47.16
-52.403
-57.875
-63.321
-68.353
-72.652
-75.997
-78.113
-78.66
-77.429
-74.482
-70.228
-65.448
-60.909
-57.05
-54.252
-53.084
-53.929
-56.65
-60.538
-64.107
-65.657
-64.116
-58.41
-46.982
-28.489
-1.924
32.208
71.236
112.467
153.607
194.378
236.404
278.056
314.968
338.206
334.577
296.751
224.043
123.386
8.912
-109.011
-226.897
-346.684
-471.042
-597.093
-713.485
-803.057
-854.66
-865.291
-841.082
-796.967
-742.387
-681.239
-613.954
-535.671
-448.211
-359.327
-277.091
-211.534
-165.746
-135.464
-116.366
-102.554
-91.123
-83.63
-79.727
-78.498
-78.426
-76.385
-71.119
-62.996
-52.537
-40.761
-28.781
-17.347
-7.333
0.345
5.471
8.273
9.123
8.591
7.222
5.454
3.81
2.814
2.73
3.669
5.62
8.447
12.046
16.321
21.135
26.348
31.83
37.47
43.178
48.875
54.48
59.916
65.105
69.98
74.486
78.573
82.22
85.434
88.235
90.661
92.757
94.568
96.151
97.57
98.881
100.141
101.397
102.688
104.057
105.545
107.188
109.022
111.07
113.345
115.854
118.598
121.575
124.782
128.207
131.835
135.651
139.642
143.796
148.101
152.541
157.099
161.756
166.492
171.288
176.123
180.977
185.828
190.654
195.432
200.141
204.759
209.263
213.631
217.838
221.862
225.679
229.268
232.607
235.676
238.455
240.928
243.077
244.89
246.352
247.454
248.185
248.539
248.508
248.09
247.281
246.082
244.494
242.52
240.165
237.436
234.342
230.893
227.101
222.98
218.545
213.813
208.801
203.528
198.014
192.28
186.349
180.242
173.983
167.596
161.104
154.532
147.903
141.242
134.573
127.918
121.301
114.743
108.266
101.891
95.637
89.523
83.568
77.787
72.197
66.811
61.642
56.703
52.003
47.55
43.353
39.416
35.744
32.341
29.206
26.341
23.744
21.412
19.341
17.525
15.958
14.633
13.541
12.671
12.014
11.559
11.294
11.207
11.284
11.513
11.881
12.374
12.979
13.682
14.469
15.328
16.246
17.21
18.207
19.227
20.257
21.287
22.307
23.307
24.279
25.214
26.105
26.946
27.729
28.45
29.105
29.69
30.201
30.636
30.994
31.273
31.472
31.592
31.634
31.598
31.486
31.299
31.04
30.711
30.315
29.855
29.334
28.756
28.123
27.44
26.709
25.936
25.124
24.276
23.396
22.489
21.557
20.604
19.635
18.651
17.658
16.658
15.655
14.652
13.652
12.66
11.678
10.708
9.755
8.822
7.91
7.023
6.163
5.334
4.538
3.778
3.056
2.375
1.737
1.144
0.598
0.101
-0.347
-0.745
-1.09
-1.382
-1.621
-1.806
-1.937
-2.012
-2.034
-2.001
-1.916
-1.78
-1.594
-1.362
-1.087
-0.771
-0.418
-0.031
0.385
0.827
1.289
1.767
2.257
2.753
3.249
3.741
4.222
4.688
5.133
5.553
5.944
6.304
6.628
6.915
7.161
7.364
7.519
7.626
7.68
7.679
7.619
7.5
7.321
7.085
6.794
6.453
6.066
5.639
5.179
4.694
4.19
3.671
3.142
2.609
2.081
1.569
1.081
0.623
0.197
-0.194
-0.552
-0.875
-1.172
-1.458
-1.747
-2.055
-2.386
-2.735
-3.096
-3.466
-3.842
-4.223
-4.599
-4.942
-5.233
-5.455
-5.594
-5.638
-5.558
-5.305
-4.835
-4.112
-3.118
-1.858
-0.333
1.463
3.523
5.833
8.352
11.011
13.753
16.543
19.343
22.122
24.827
27.37
29.677
31.692
33.37
34.689
35.609
36.074
36.051
35.531
34.533
33.109
31.291
29.075
26.46
23.446
20.041
16.302
12.271
7.969
3.408
-1.404
-6.433
-11.62
-16.894
-22.24
-27.704
-33.25
-38.741
-43.92
-48.393
-51.815
-53.987
-54.634
-53.4
-50.258
-45.368
-39.204
-32.809
-26.984
-22.165
-19.021
-18.098
-19.322
-22.404
-26.385
-29.242
-29.508
-26.109
-17.335
-1.894
20.904
51.727
89.148
129.591
170.466
208.869
243.5
276.383
306.232
329.176
337.443
317.838
263.675
176.114
63.147
-59.671
-183.26
-306.666
-429.488
-552.253
-667.059
-757.416
-812.659
-828.151
-808.185
-766.53
-712.674
-651.987
-586.93
-515.65
-439.516
-362.499
-288.824
-223.629
-169.991
-128.618
-99.168
-80
-69.017
-64.414
-63.899
-65.102
-65.979
-64.725
-60.54
-53.599
-44.418
-33.713
-22.467
-11.63
-2.186
4.859
9.148
10.835
10.255
7.955
4.469
0.24
-4.183
-8.235
-11.597
-14.096
-15.693
-16.479
-16.503
-15.808
-14.493
-12.658
-10.409
-7.847
-5.031
-2.004
1.196
4.55
8.006
11.505
14.991
18.392
21.654
24.742
27.602
30.208
32.56
34.662
36.55
38.27
39.85
41.312
42.67
43.914
45.054
46.114
47.112
48.088
49.081
50.129
51.295
52.629
54.158
55.906
57.875
60.058
62.458
65.078
67.914
70.975
74.264
77.777
81.511
85.454
89.584
93.875
98.286
102.778
107.32
111.881
116.438
120.97
125.453
129.867
134.192
138.408
142.49
146.416
150.159
153.694
157.002
160.064
162.865
165.392
167.631
169.568
171.19
172.487
173.446
174.057
174.309
174.193
173.705
172.841
171.6
169.983
167.994
165.638
162.921
159.853
156.444
152.706
148.65
144.292
139.648
134.733
129.568
124.171
118.563
112.765
106.799
100.688
94.455
88.122
81.713
75.251
68.758
62.257
55.77
49.32
42.926
36.61
30.391
24.287
18.317
12.497
6.84
1.361
-3.927
-9.015
-13.893
-18.553
-22.988
-27.195
-31.168
-34.906
-38.408
-41.675
-44.708
-47.51
-50.086
-52.441
-54.582
-56.515
-58.25
-59.794
-61.157
-62.35
-63.382
-64.265
-65.009
-65.626
-66.128
-66.524
-66.827
-67.048
-67.195
-67.281
-67.313
-67.302
-67.255
-67.182
-67.089
-66.983
-66.871
-66.759
-66.651
-66.551
-66.464
-66.393
-66.34
-66.307
-66.295
-66.306
-66.34
-66.398
-66.479
-66.583
-66.708
-66.855
-67.021
-67.205
-67.405
-67.619
-67.845
-68.083
-68.328
-68.581
-68.839
-69.101
-69.366
-69.632
-69.898
-70.163
-70.426
-70.687
-70.944
-71.198
-71.447
-71.691
-71.93
-72.163
-72.391
-72.614
-72.831
-73.041
-73.245
-73.442
-73.632
-73.814
-73.987
-74.153
-74.309
-74.456
-74.594
-74.721
-74.84
-74.948
-75.046
-75.134
-75.211
-75.276
-75.329
-75.37
-75.397
-75.41
-75.409
-75.394
-75.365
-75.323
-75.267
-75.199
-75.119
-75.028
-74.927
-74.816
-74.698
-74.573
-74.443
-74.31
-74.175
-74.04
-73.907
-73.778
-73.652
-73.533
-73.419
-73.311
-73.208
-73.11
-73.016
-72.924
-72.835
-72.747
-72.661
-72.576
-72.492
-72.409
-72.327
-72.243
-72.153
-72.053
-71.938
-71.801
-71.636
-71.436
-71.195
-70.906
-70.567
-70.173
-69.721
-69.205
-68.621
-67.958
-67.211
-66.379
-65.46
-64.455
-63.371
-62.215
-61.006
-59.762
-58.495
-57.214
-55.923
-54.615
-53.288
-51.937
-50.555
-49.146
-47.71
-46.242
-44.742
-43.209
-41.634
-40.004
-38.292
-36.459
-34.486
-32.36
-30.082
-27.668
-25.135
-22.501
-19.795
-17.041
-14.258
-11.475
-8.706
-5.966
-3.28
-0.676
1.804
4.092
6.146
7.935
9.434
10.638
11.536
12.109
12.363
12.303
11.925
11.234
10.223
8.865
7.151
5.08
2.647
-0.112
-3.169
-6.517
-10.142
-14.047
-18.22
-22.625
-27.212
-31.96
-36.879
-41.911
-46.922
-51.659
-55.745
-58.83
-60.688
-61.077
-59.66
-56.292
-51.047
-44.28
-36.897
-29.825
-23.586
-18.732
-16.001
-15.697
-17.697
-21.509
-24.841
-25.371
-22.458
-14.524
-1.573
15.887
40.37
71.616
109.384
154.043
201.565
250.563
299.032
340.644
369.863
376.624
350.408
288.847
195.385
80.558
-41.854
-164.761
-287.968
-413.313
-540.488
-661.435
-760.19
-822.498
-842.1
-821.814
-773.495
-710.353
-640.556
-568.122
-493.441
-415.841
-337.42
-262.124
-194.144
-137.305
-93.164
-61.158
-39.657
-26.477
-19.7
-17.25
-16.984
-16.911
-15.196
-11.007
-4.474
3.958
13.67
23.809
33.56
42.018
48.175
51.681
52.734
51.706
49.188
45.773
41.945
38.296
35.463
33.778
33.354
34.173
36.061
38.88
42.539
46.879
51.725
56.923
62.326
67.816
73.31
78.696
83.857
88.678
93.047
96.902
100.222
103.008
105.286
107.09
108.463
109.461
110.151
110.599
110.866
111.012
111.086
111.146
111.253
111.463
111.836
112.411
113.214
114.266
115.575
117.147
118.981
121.069
123.4
125.969
128.772
131.805
135.06
138.523
142.178
146.008
149.99
154.096
158.291
162.541
166.817
171.102
175.383
179.647
183.879
188.06
192.17
196.203
200.154
204.015
207.773
211.416
214.944
218.372
221.735
225.057
228.342
231.57
234.71
237.741
240.637
243.369
245.897
248.159
250.101
251.691
252.901
253.702
254.046
253.855
253.031
251.506
249.245
246.24
242.503
238.032
232.838
226.953
220.426
213.332
205.733
197.652
189.115
180.169
170.884
161.378
151.786
142.206
132.715
123.369
114.214
105.308
96.698
88.403
80.431
72.777
65.455
58.52
52.021
45.975
40.374
35.171
30.3
25.727
21.427
17.377
13.562
9.958
6.547
3.336
0.335
-2.452
-5.037
-7.463
-9.769
-11.968
-14.061
-16.027
-17.831
-19.463
-20.913
-22.167
-23.221
-24.072
-24.72
-25.186
-25.492
-25.65
-25.668
-25.54
-25.261
-24.839
-24.291
-23.636
-22.903
-22.112
-21.282
-20.437
-19.597
-18.776
-17.984
-17.227
-16.503
-15.817
-15.175
-14.584
-14.052
-13.581
-13.174
-12.831
-12.55
-12.329
-12.166
-12.055
-11.992
-11.974
-11.996
-12.058
-12.158
-12.293
-12.461
-12.658
-12.881
-13.124
-13.384
-13.656
-13.935
-14.218
-14.499
-14.775
-15.044
-15.303
-15.548
-15.778
-15.99
-16.182
-16.354
-16.503
-16.629
-16.731
-16.809
-16.863
-16.893
-16.899
-16.883
-16.845
-16.786
-16.708
-16.612
-16.499
-16.372
-16.233
-16.082
-15.923
-15.758
-15.588
-15.417
-15.246
-15.079
-14.917
-14.763
-14.62
-14.489
-14.373
-14.273
-14.192
-14.131
-14.091
-14.075
-14.084
-14.119
-14.182
-14.274
-14.397
-14.551
-14.739
-14.96
-15.216
-15.508
-15.836
-16.2
-16.601
-17.037
-17.51
-18.016
-18.556
-19.129
-19.731
-20.362
-21.02
-21.701
-22.404
-23.125
-23.862
-24.609
-25.365
-26.125
-26.884
-27.639
-28.383
-29.113
-29.823
-30.508
-31.162
-31.778
-32.352
-32.877
-33.346
-33.753
-34.093
-34.36
-34.548
-34.653
-34.671
-34.598
-34.433
-34.174
-33.819
-33.367
-32.819
-32.175
-31.435
-30.601
-29.674
-28.656
-27.551
-26.364
-25.099
-23.764
-22.363
-20.905
-19.397
-17.845
-16.259
-14.646
-13.013
-11.371
-9.728
-8.093
-6.482
-4.903
-3.364
-1.867
-0.414
0.996
2.365
3.701
5.015
6.316
7.616
8.922
10.238
11.571
12.93
14.321
15.763
17.262
18.81
20.402
22.019
23.637
25.235
26.772
28.189
29.43
30.442
31.167
31.559
31.565
31.12
30.173
28.681
26.604
23.92
20.607
16.652
12.055
6.857
1.102
-5.176
-11.846
-18.711
-25.504
-31.807
-37.226
-41.513
-44.32
-45.221
-44.164
-41.272
-36.902
-31.992
-27.294
-23.137
-20.173
-19.225
-20.351
-23.232
-27.242
-29.947
-29.272
-24.873
-15.129
0.218
19.768
44.813
75.202
110.52
152.853
201.381
253.51
304.189
343.765
361.268
346.902
296.336
212.683
105.949
-11.048
-129.224
-245.984
-364.699
-487.427
-610.517
-722.879
-807.49
-853.456
-858.276
-827.726
-775.673
-712.392
-643.487
-571.481
-494.9
-414.953
-335.69
-261.713
-198.151
-147.766
-110.58
-85.459
-70.388
-63.215
-61.798
-63.476
-65.559
-65.8
-62.992
-57.032
-48.352
-37.657
-25.836
-13.957
-3.251
5.073
10.451
12.964
12.966
11.05
7.81
3.776
-0.405
-4.059
-6.78
-8.38
-8.827
-8.247
-6.747
-4.4
-1.339
2.29
6.36
10.741
15.338
20.068
24.833
29.537
34.08
38.367
42.32
45.874
48.993
51.676
53.94
55.816
57.346
58.575
59.558
60.362
61.047
61.67
62.283
62.931
63.662
64.524
65.561
66.812
68.306
70.059
72.08
74.372
76.933
79.757
82.833
86.145
89.679
93.418
97.351
101.466
105.753
110.202
114.798
119.52
124.343
129.238
134.179
139.14
144.09
148.997
153.833
158.575
163.212
167.74
172.148
176.416
180.521
184.426
188.108
191.556
194.762
197.722
200.435
202.895
205.113
207.114
208.903
210.471
211.786
212.792
213.45
213.739
213.646
213.169
212.302
211.021
209.314
207.173
204.585
201.54
198.012
193.951
189.341
184.196
178.555
172.495
166.076
159.337
152.32
145.06
137.597
129.98
122.245
114.416
106.529
98.625
90.76
83.012
75.431
68.045
60.86
53.859
47.035
40.395
33.943
27.678
21.605
15.724
10.05
4.606
-0.595
-5.548
-10.256
-14.738
-19
-23.037
-26.841
-30.394
-33.684
-36.709
-39.462
-41.934
-44.124
-46.034
-47.672
-49.056
-50.198
-51.11
-51.8
-52.275
-52.544
-52.621
-52.519
-52.252
-51.834
-51.278
-50.601
-49.818
-48.944
-47.993
-46.975
-45.901
-44.779
-43.622
-42.438
-41.237
-40.028
-38.821
-37.622
-36.442
-35.287
-34.165
-33.08
-32.039
-31.044
-30.1
-29.209
-28.375
-27.598
-26.88
-26.222
-25.625
-25.088
-24.611
-24.193
-23.835
-23.534
-23.289
-23.099
-22.961
-22.874
-22.836
-22.845
-22.898
-22.994
-23.13
-23.304
-23.514
-23.756
-24.029
-24.331
-24.658
-25.008
-25.379
-25.769
-26.174
-26.594
-27.025
-27.466
-27.915
-28.369
-28.827
-29.287
-29.747
-30.205
-30.66
-31.109
-31.551
-31.985
-32.409
-32.821
-33.219
-33.603
-33.971
-34.321
-34.653
-34.966
-35.259
-35.531
-35.781
-36.01
-36.216
-36.401
-36.562
-36.701
-36.817
-36.912
-36.985
-37.037
-37.07
-37.086
-37.084
-37.068
-37.04
-37
-36.951
-36.895
-36.834
-36.769
-36.704
-36.639
-36.577
-36.519
-36.467
-36.423
-36.389
-36.365
-36.351
-36.349
-36.359
-36.381
-36.415
-36.458
-36.511
-36.574
-36.647
-36.727
-36.815
-36.908
-37.005
-37.104
-37.202
-37.294
-37.375
-37.44
-37.483
-37.501
-37.489
-37.444
-37.359
-37.233
-37.061
-36.846
-36.586
-36.274
-35.905
-35.475
-34.981
-34.433
-33.834
-33.184
-32.489
-31.751
-30.98
-30.189
-29.384
-28.558
-27.709
-26.829
-25.921
-24.998
-24.068
-23.14
-22.216
-21.289
-20.361
-19.444
-18.54
-17.641
-16.733
-15.789
-14.804
-13.795
-12.772
-11.737
-10.684
-9.597
-8.466
-7.298
-6.094
-4.857
-3.584
-2.257
-0.876
0.533
1.939
3.296
4.577
5.774
6.87
7.82
8.576
9.088
9.318
9.245
8.842
8.066
6.865
5.188
3.011
0.349
-2.772
-6.335
-10.321
-14.714
-19.487
-24.542
-29.795
-35.228
-40.725
-46.094
-51.074
-55.221
-58.12
-59.539
-59.154
-56.609
-51.925
-45.298
-37.242
-28.831
-20.89
-13.944
-8.805
-6.124
-5.896
-7.833
-10.907
-13.168
-13.223
-9.829
-1.051
14.681
38.234
69.277
105.529
144.059
183.018
222.574
263.097
302.065
333.23
345.928
329.312
279.218
199.192
99.173
-9.553
-121.447
-238.538
-364.924
-499.754
-633.99
-749.431
-827.453
-859.385
-846.991
-802.516
-741.909
-674.741
-605.047
-532.537
-455.017
-374.31
-295.109
-222.446
-161.138
-113.474
-79.154
-56.829
-44.501
-39.874
-40.497
-43.891
-47.58
-49.406
-48.317
-44.155
-37.198
-28.178
-18.064
-7.824
1.389
8.426
12.839
14.707
14.355
12.372
9.346
5.789
2.342
-0.334
-1.89
-2.207
-1.314
0.611
3.429
7.047
11.307
16.029
21.062
26.264
31.526
36.779
41.92
46.838
51.423
55.567
59.21
62.335
64.941
67.053
68.701
69.925
70.78
71.333
71.647
71.787
71.812
71.774
71.729
71.736
71.854
72.139
72.631
73.355
74.327
75.558
77.052
78.811
80.83
83.099
85.607
88.349
91.316
94.503
97.901
101.496
105.274
109.22
113.318
117.554
121.911
126.372
130.919
135.534
140.197
144.891
149.593
154.282
158.932
163.519
168.018
172.405
176.655
180.743
184.645
188.339
191.802
195.015
197.958
200.611
202.958
204.984
206.673
208.013
208.994
209.604
209.838
209.688
209.151
208.225
206.909
205.205
203.117
200.649
197.809
194.606
191.05
187.154
182.931
178.397
173.568
168.464
163.102
157.504
151.691
145.685
139.508
133.183
126.735
120.186
113.561
106.883
100.175
93.462
86.765
80.107
73.511
66.996
60.583
54.291
48.138
42.142
36.318
30.68
25.242
20.015
15.011
10.238
5.704
1.414
-2.626
-6.414
-9.948
-13.228
-16.254
-19.029
-21.557
-23.843
-25.891
-27.709
-29.305
-30.688
-31.866
-32.849
-33.649
-34.276
-34.742
-35.058
-35.237
-35.289
-35.226
-35.062
-34.806
-34.471
-34.067
-33.606
-33.097
-32.55
-31.976
-31.381
-30.775
-30.166
-29.559
-28.962
-28.379
-27.817
-27.279
-26.769
-26.291
-25.847
-25.439
-25.069
-24.737
-24.445
-24.193
-23.98
-23.806
-23.669
-23.569
-23.505
-23.474
-23.476
-23.507
-23.567
-23.654
-23.764
-23.897
-24.051
-24.222
-24.41
-24.611
-24.825
-25.05
-25.283
-25.522
-25.767
-26.016
-26.267
-26.519
-26.77
-27.019
-27.264
-27.505
-27.74
-27.968
-28.187
-28.397
-28.596
-28.784
-28.958
-29.119
-29.265
-29.394
-29.506
-29.6
-29.674
-29.727
-29.759
-29.767
-29.753
-29.713
-29.65
-29.561
-29.446
-29.306
-29.14
-28.949
-28.732
-28.492
-28.228
-27.94
-27.631
-27.302
-26.954
-26.589
-26.21
-25.818
-25.417
-25.009
-24.598
-24.186
-23.776
-23.372
-22.977
-22.595
-22.23
-21.884
-21.561
-21.264
-20.996
-20.759
-20.558
-20.393
-20.265
-20.177
-20.129
-20.122
-20.154
-20.226
-20.336
-20.483
-20.667
-20.885
-21.136
-21.418
-21.726
-22.06
-22.414
-22.783
-23.16
-23.537
-23.907
-24.264
-24.601
-24.91
-25.185
-25.418
-25.605
-25.74
-25.82
-25.839
-25.788
-25.656
-25.439
-25.139
-24.763
-24.315
-23.798
-23.216
-22.575
-21.889
-21.165
-20.402
-19.592
-18.724
-17.794
-16.809
-15.784
-14.733
-13.664
-12.57
-11.443
-10.282
-9.087
-7.857
-6.581
-5.237
-3.815
-2.329
-0.816
0.69
2.172
3.627
5.074
6.522
7.966
9.398
10.801
12.174
13.515
14.809
16.031
17.137
18.099
18.923
19.641
20.272
20.82
21.264
21.55
21.645
21.518
21.13
20.448
19.431
18.037
16.26
14.1
11.557
8.63
5.284
1.472
-2.813
-7.591
-12.893
-18.651
-24.725
-30.88
-36.733
-41.937
-46.237
-49.332
-50.864
-50.625
-48.674
-45.4
-41.561
-37.909
-34.884
-32.881
-32.473
-34.023
-37.383
-41.843
-45.916
-47.915
-46.793
-41.47
-30.371
-12.279
13.696
47.21
85.659
126.281
167.023
206.863
246.821
286.904
323.766
350.619
356.326
330.172
268.485
175.307
61.835
-58.328
-178.798
-300.379
-424.407
-550.192
-667.901
-759.982
-815.06
-829.004
-807.305
-764.588
-710.763
-651.161
-587.705
-517.983
-443.152
-367.046
-293.627
-227.871
-172.657
-128.555
-95.624
-72.689
-57.886
-49.771
-46.52
-46.067
-46.732
-46.902
-45.249
-41.409
-35.621
-28.223
-19.886
-11.396
-3.404
3.28
7.936
10.424
10.951
9.87
7.713
4.975
2.071
-0.492
-2.236
-2.935
-2.537
-1.105
1.19
4.218
7.877
12.024
16.505
21.191
25.962
30.728
35.426
39.975
44.287
48.28
51.871
55.02
57.725
60
61.879
63.402
64.612
65.564
66.321
66.943
67.489
68.007
68.542
69.141
69.853
70.728
71.815
73.147
74.743
76.613
78.763
81.192
83.898
86.87
90.092
93.551
97.24
101.153
105.287
109.626
114.151
118.835
123.649
128.563
133.549
138.574
143.605
148.621
153.603
158.544
163.443
168.283
173.046
177.701
182.216
186.577
190.769
194.781
198.613
202.264
205.738
209.055
212.224
215.233
218.059
220.651
222.951
224.918
226.521
227.742
228.568
228.975
228.94
228.447
227.469
225.982
223.954
221.332
218.081
214.199
209.706
204.652
199.115
193.147
186.798
180.115
173.136
165.904
158.465
150.85
143.099
135.256
127.378
119.539
111.806
104.219
96.801
89.554
82.459
75.513
68.717
62.067
55.568
49.228
43.053
37.065
31.282
25.717
20.371
15.237
10.304
5.574
1.057
-3.233
-7.275
-11.054
-14.558
-17.773
-20.692
-23.312
-25.633
-27.666
-29.424
-30.918
-32.157
-33.148
-33.899
-34.42
-34.723
-34.824
-34.736
-34.477
-34.061
-33.508
-32.835
-32.057
-31.19
-30.246
-29.237
-28.175
-27.073
-25.943
-24.795
-23.642
-22.495
-21.364
-20.26
-19.193
-18.171
-17.201
-16.291
-15.445
-14.669
-13.967
-13.341
-12.794
-12.328
-11.943
-11.64
-11.417
-11.274
-11.209
-11.218
-11.3
-11.45
-11.664
-11.937
-12.265
-12.642
-13.064
-13.526
-14.022
-14.547
-15.095
-15.662
-16.242
-16.83
-17.42
-18.007
-18.586
-19.153
-19.702
-20.229
-20.732
-21.205
-21.646
-22.053
-22.422
-22.751
-23.04
-23.285
-23.486
-23.644
-23.757
-23.826
-23.853
-23.839
-23.786
-23.696
-23.571
-23.414
-23.228
-23.015
-22.778
-22.521
-22.248
-21.962
-21.668
-21.369
-21.069
-20.774
-20.487
-20.212
-19.954
-19.716
-19.501
-19.314
-19.158
-19.036
-18.951
-18.905
-18.902
-18.944
-19.031
-19.165
-19.347
-19.574
-19.848
-20.165
-20.524
-20.922
-21.356
-21.824
-22.323
-22.851
-23.404
-23.98
-24.575
-25.185
-25.804
-26.426
-27.042
-27.645
-28.226
-28.777
-29.292
-29.764
-30.187
-30.555
-30.865
-31.114
-31.297
-31.409
-31.439
-31.38
-31.231
-30.993
-30.674
-30.284
-29.831
-29.327
-28.787
-28.223
-27.643
-27.048
-26.428
-25.769
-25.072
-24.338
-23.58
-22.812
-22.029
-21.228
-20.407
-19.552
-18.657
-17.707
-16.667
-15.513
-14.241
-12.859
-11.397
-9.894
-8.363
-6.814
-5.253
-3.682
-2.125
-0.602
0.882
2.309
3.663
4.914
5.996
6.863
7.494
7.881
8.038
7.986
7.711
7.205
6.47
5.5
4.305
2.881
1.195
-0.775
-3.044
-5.605
-8.405
-11.412
-14.625
-18.047
-21.688
-25.561
-29.616
-33.844
-38.303
-42.944
-47.641
-52.169
-56.122
-59.146
-61.044
-61.535
-60.284
-57.277
-52.668
-46.915
-41.033
-35.782
-31.558
-28.976
-28.552
-30.226
-33.707
-38.01
-41.111
-41.543
-38.339
-29.941
-14.982
7.347
37.665
74.431
113.883
153.39
191.251
227.492
263.8
298.335
324.626
332.405
310.883
255.528
170.864
68.603
-38.983
-145.245
-251.255
-361.468
-475.71
-586.459
-679.117
-739.102
-760.296
-745.243
-704.341
-650.223
-590.828
-529.929
-467.945
-403.799
-338.821
-276.201
-219.469
-172.008
-135.157
-108.349
-90.109
-78.474
-71.816
-68.424
-66.53
-64.528
-60.935
-55.125
-47.303
-37.924
-27.571
-17.014
-6.962
1.812
8.439
12.613
14.482
14.335
12.68
10.024
6.773
3.435
0.547
-1.582
-2.786
-3.019
-2.383
-0.959
1.192
3.954
7.211
10.856
14.778
18.898
23.141
27.421
31.66
35.772
39.676
43.307
46.605
49.536
52.103
54.321
56.219
57.839
59.219
60.409
61.468
62.45
63.407
64.388
65.433
66.587
67.894
69.398
71.138
73.143
75.427
77.998
80.861
84.017
87.468
91.207
95.217
99.479
103.978
108.694
113.608
118.696
123.92
129.247
134.643
140.079
145.537
150.996
156.436
161.831
167.157
172.396
177.547
182.608
187.573
192.438
197.201
201.867
206.465
211.01
215.507
219.952
224.322
228.593
232.747
236.759
240.599
244.224
247.578
250.6
253.248
255.478
257.24
258.467
259.074
258.989
258.163
256.562
254.168
250.962
246.931
242.075
236.419
230.005
222.883
215.1
206.693
197.704
188.195
178.253
167.984
157.481
146.834
136.121
125.434
114.875
104.537
94.488
84.777
75.438
66.511
58.052
50.112
42.73
35.925
29.692
24.017
18.89
14.29
10.186
6.522
3.22
0.219
-2.52
-5.027
-7.327
-9.455
-11.466
-13.401
-15.29
-17.151
-18.994
-20.828
-22.669
-24.514
-26.346
-28.134
-29.83
-31.403
-32.84
-34.133
-35.275
-36.257
-37.059
-37.677
-38.118
-38.389
-38.496
-38.446
-38.241
-37.893
-37.427
-36.87
-36.254
-35.603
-34.93
-34.252
-33.58
-32.926
-32.299
-31.705
-31.141
-30.609
-30.11
-29.648
-29.226
-28.845
-28.501
-28.191
-27.912
-27.662
-27.44
-27.243
-27.071
-26.922
-26.798
-26.699
-26.626
-26.582
-26.564
-26.573
-26.608
-26.666
-26.747
-26.848
-26.969
-27.106
-27.259
-27.427
-27.608
-27.802
-28.008
-28.225
-28.452
-28.688
-28.934
-29.187
-29.449
-29.718
-29.994
-30.276
-30.565
-30.86
-31.16
-31.466
-31.775
-32.089
-32.406
-32.726
-33.049
-33.374
-33.701
-34.032
-34.365
-34.703
-35.044
-35.392
-35.746
-36.107
-36.478
-36.858
-37.248
-37.65
-38.065
-38.494
-38.936
-39.393
-39.865
-40.352
-40.854
-41.371
-41.902
-42.447
-43.004
-43.574
-44.156
-44.747
-45.347
-45.954
-46.566
-47.181
-47.796
-48.409
-49.017
-49.615
-50.2
-50.769
-51.315
-51.836
-52.326
-52.78
-53.193
-53.559
-53.874
-54.131
-54.327
-54.457
-54.516
-54.502
-54.41
-54.239
-53.988
-53.656
-53.245
-52.753
-52.182
-51.535
-50.813
-50.019
-49.157
-48.228
-47.238
-46.192
-45.095
-43.955
-42.779
-41.575
-40.349
-39.112
-37.871
-36.637
-35.419
-34.224
-33.058
-31.931
-30.851
-29.831
-28.878
-27.997
-27.188
-26.452
-25.788
-25.195
-24.664
-24.179
-23.724
-23.284
-22.848
-22.413
-21.972
-21.516
-21.032
-20.506
-19.932
-19.317
-18.664
-17.979
-17.271
-16.553
-15.861
-15.25
-14.776
-14.501
-14.473
-14.731
-15.317
-16.262
-17.605
-19.395
-21.666
-24.446
-27.757
-31.6
-35.995
-40.986
-46.517
-52.42
-58.43
-64.155
-69.244
-73.462
-76.518
-78.041
-77.816
-75.887
-72.627
-68.789
-65.095
-61.949
-59.726
-58.972
-60.031
-62.768
-66.466
-69.642
-70.658
-68.446
-61.875
-49.363
-29.595
-1.652
33.747
73.732
115.622
157.219
198.378
240.807
282.619
319.008
340.902
335.465
296.292
224.039
126.562
17.952
-91.989
-200.595
-310.392
-423.978
-538.324
-642.736
-721.619
-765.325
-772.268
-748.523
-706.867
-656.064
-600.231
-540.856
-476.382
-407.887
-338.759
-272.736
-213.964
-164.787
-125.824
-96.799
-76.39
-63.091
-55.569
-52.004
-50.58
-49.644
-47.568
-43.595
-37.764
-30.326
-21.74
-12.715
-3.926
3.832
9.649
13.205
14.648
14.267
12.559
10.026
7.081
4.251
2.115
0.975
0.939
1.992
3.977
6.774
10.304
14.431
18.997
23.867
28.91
34.028
39.154
44.196
49.053
53.626
57.815
61.564
64.858
67.697
70.108
72.123
73.78
75.129
76.234
77.153
77.946
78.664
79.352
80.063
80.847
81.755
82.841
84.139
85.671
87.45
89.481
91.767
94.307
97.093
100.111
103.348
106.795
110.442
114.281
118.299
122.481
126.811
131.27
135.841
140.507
145.249
150.047
154.883
159.736
164.587
169.415
174.199
178.917
183.543
188.055
192.429
196.64
200.665
204.481
208.067
211.402
214.467
217.243
219.714
221.864
223.679
225.147
226.257
226.998
227.364
227.347
226.943
226.149
224.964
223.388
221.424
219.076
216.349
213.251
209.791
205.979
201.828
197.35
192.561
187.478
182.117
176.497
170.638
164.56
158.284
151.832
145.227
138.49
131.644
124.712
117.717
110.68
103.625
96.572
89.544
82.563
75.647
68.818
62.095
55.495
49.037
42.736
36.609
30.669
24.93
19.404
14.102
9.032
4.204
-0.375
-4.701
-8.77
-12.577
-16.123
-19.406
-22.429
-25.192
-27.701
-29.958
-31.97
-33.743
-35.284
-36.602
-37.705
-38.603
-39.306
-39.825
-40.17
-40.355
-40.389
-40.286
-40.058
-39.716
-39.273
-38.742
-38.135
-37.463
-36.738
-35.972
-35.176
-34.361
-33.537
-32.712
-31.897
-31.1
-30.328
-29.588
-28.887
-28.23
-27.623
-27.069
-26.573
-26.138
-25.765
-25.457
-25.214
-25.037
-24.925
-24.878
-24.895
-24.973
-25.11
-25.305
-25.553
-25.852
-26.197
-26.586
-27.012
-27.473
-27.964
-28.479
-29.013
-29.563
-30.124
-30.69
-31.257
-31.822
-32.379
-32.925
-33.457
-33.971
-34.464
-34.934
-35.377
-35.793
-36.179
-36.534
-36.859
-37.152
-37.414
-37.646
-37.847
-38.019
-38.164
-38.283
-38.379
-38.452
-38.507
-38.546
-38.572
-38.588
-38.599
-38.606
-38.615
-38.629
-38.651
-38.686
-38.736
-38.806
-38.899
-39.017
-39.165
-39.345
-39.558
-39.808
-40.096
-40.423
-40.789
-41.194
-41.638
-42.12
-42.637
-43.19
-43.775
-44.389
-45.03
-45.695
-46.38
-47.081
-47.793
-48.512
-49.233
-49.95
-50.658
-51.351
-52.024
-52.67
-53.284
-53.859
-54.388
-54.867
-55.287
-55.645
-55.932
-56.145
-56.279
-56.328
-56.291
-56.163
-55.944
-55.633
-55.23
-54.738
-54.157
-53.489
-52.739
-51.909
-51.005
-50.029
-48.988
-47.885
-46.729
-45.527
-44.288
-43.019
-41.729
-40.427
-39.122
-37.823
-36.54
-35.281
-34.055
-32.869
-31.732
-30.653
-29.645
-28.715
-27.864
-27.095
-26.404
-25.787
-25.238
-24.749
-24.302
-23.883
-23.477
-23.071
-22.662
-22.239
-21.794
-21.315
-20.785
-20.193
-19.545
-18.846
-18.108
-17.352
-16.588
-15.848
-15.186
-14.649
-14.285
-14.15
-14.271
-14.684
-15.432
-16.536
-18.038
-19.977
-22.371
-25.244
-28.607
-32.436
-36.743
-41.554
-46.784
-52.272
-57.749
-62.821
-67.158
-70.522
-72.618
-73.068
-71.633
-68.391
-63.783
-58.619
-53.72
-49.593
-46.683
-45.668
-47.047
-50.678
-55.754
-60.756
-63.905
-63.856
-59.292
-48.393
-29.349
-1.67
33.252
73.088
115.08
158.319
204.918
255.316
306.12
349.716
372.435
361.091
310.875
225.133
115.358
-3.375
-122.998
-243.354
-366.883
-494.585
-619.621
-726.528
-800.182
-832.8
-825.744
-789.592
-737.612
-678.32
-615.75
-549.995
-479.773
-406.805
-334.607
-267.555
-209.803
-163.027
-127.321
-101.855
-84.823
-74.603
-69.65
-67.78
-67.074
-65.996
-63.18
-58.223
-51.415
-43.09
-33.836
-24.529
-15.897
-8.697
-3.684
-0.974
-0.316
-1.364
-3.581
-6.435
-9.494
-12.244
-14.172
-15.043
-14.785
-13.437
-11.158
-8.066
-4.255
0.13
4.936
10.022
15.261
20.553
25.818
30.962
35.882
40.48
44.663
48.38
51.614
54.372
56.681
58.576
60.099
61.304
62.255
63.016
63.648
64.206
64.739
65.299
65.941
66.719
67.684
68.873
70.308
72.005
73.972
76.212
78.727
81.51
84.551
87.84
91.369
95.131
99.119
103.322
107.727
112.316
117.073
121.98
127.019
132.171
137.417
142.736
148.11
153.517
158.938
164.349
169.728
175.049
180.284
185.407
190.388
195.199
199.813
204.204
208.349
212.222
215.803
219.07
222.005
224.592
226.813
228.648
230.076
231.081
231.657
231.801
231.517
230.81
229.682
228.142
226.208
223.89
221.195
218.125
214.668
210.824
206.603
202.023
197.114
191.896
186.378
180.57
174.479
168.113
161.484
154.594
147.428
139.993
132.317
124.447
116.46
108.416
100.355
92.315
84.32
76.404
68.614
60.989
53.564
46.38
39.474
32.902
26.741
21.034
15.797
11.017
6.642
2.64
-1.003
-4.306
-7.278
-9.937
-12.309
-14.411
-16.245
-17.83
-19.189
-20.363
-21.416
-22.386
-23.287
-24.117
-24.848
-25.464
-25.967
-26.353
-26.618
-26.763
-26.787
-26.701
-26.531
-26.291
-25.987
-25.618
-25.17
-24.641
-24.041
-23.386
-22.699
-22
-21.301
-20.618
-19.968
-19.363
-18.812
-18.316
-17.87
-17.469
-17.116
-16.813
-16.564
-16.37
-16.231
-16.142
-16.101
-16.105
-16.149
-16.229
-16.338
-16.471
-16.623
-16.793
-16.979
-17.181
-17.396
-17.622
-17.856
-18.096
-18.341
-18.588
-18.833
-19.075
-19.311
-19.541
-19.764
-19.98
-20.187
-20.385
-20.574
-20.756
-20.928
-21.093
-21.25
-21.399
-21.542
-21.679
-21.811
-21.939
-22.063
-22.185
-22.306
-22.426
-22.546
-22.666
-22.787
-22.909
-23.033
-23.159
-23.288
-23.42
-23.556
-23.696
-23.841
-23.992
-24.149
-24.311
-24.478
-24.651
-24.829
-25.012
-25.201
-25.396
-25.597
-25.806
-26.022
-26.246
-26.479
-26.721
-26.971
-27.231
-27.5
-27.779
-28.068
-28.367
-28.677
-28.998
-29.33
-29.673
-30.026
-30.389
-30.758
-31.133
-31.511
-31.888
-32.263
-32.634
-32.998
-33.354
-33.7
-34.036
-34.36
-34.67
-34.963
-35.235
-35.479
-35.689
-35.859
-35.982
-36.051
-36.061
-36.006
-35.882
-35.689
-35.423
-35.082
-34.661
-34.15
-33.546
-32.849
-32.057
-31.175
-30.21
-29.172
-28.082
-26.962
-25.827
-24.687
-23.547
-22.402
-21.247
-20.079
-18.89
-17.685
-16.462
-15.216
-13.95
-12.664
-11.35
-9.992
-8.558
-7.002
-5.297
-3.43
-1.393
0.796
3.126
5.578
8.113
10.704
13.325
15.948
18.562
21.159
23.713
26.195
28.553
30.713
32.628
34.26
35.573
36.552
37.178
37.44
37.364
36.965
36.249
35.217
33.837
32.087
29.96
27.449
24.582
21.391
17.882
14.064
9.952
5.559
0.93
-3.914
-9.024
-14.361
-19.781
-25.051
-29.78
-33.625
-36.37
-37.769
-37.501
-35.413
-31.619
-26.536
-20.959
-15.678
-11.16
-7.719
-5.803
-5.803
-7.536
-10.218
-12.569
-12.321
-7.832
1.152
15.953
36.303
61.23
92.07
127.325
166.446
210.07
255.657
302.981
348.439
384.548
403.605
393.666
349.066
272.36
170.51
57.205
-58.997
-177.931
-300.701
-428.149
-554.062
-663.015
-739.853
-776.491
-773.726
-741.724
-693.445
-636.98
-576.074
-510.718
-439.652
-364.842
-290.096
-220.04
-159.192
-109.674
-71.937
-45.396
-28.33
-18.976
-15.64
-15.987
-17.837
-19.358
-18.917
-15.89
-10.46
-2.987
5.905
15.287
24.322
32.134
37.857
41.276
42.597
42.164
40.517
38.197
35.656
33.422
32.015
31.677
32.468
34.335
37.103
40.64
44.842
49.558
54.629
59.914
65.293
70.668
75.967
81.101
85.975
90.502
94.599
98.226
101.374
104.054
106.3
108.149
109.647
110.849
111.819
112.618
113.306
113.936
114.558
115.224
115.988
116.901
118.013
119.362
120.97
122.856
125.028
127.488
130.237
133.269
136.576
140.155
144
148.098
152.438
157.006
161.78
166.742
171.86
177.099
182.424
187.803
193.209
198.628
204.039
209.421
214.753
220.01
225.177
230.25
235.22
240.075
244.809
249.414
253.901
258.297
262.619
266.872
271.048
275.123
279.073
282.877
286.506
289.929
293.103
295.971
298.485
300.608
302.292
303.49
304.131
304.128
303.409
301.924
299.639
296.546
292.641
287.93
282.433
276.182
269.219
261.594
253.355
244.551
235.248
225.52
215.467
205.208
194.86
184.534
174.325
164.312
154.562
145.129
136.058
127.387
119.155
111.403
104.165
97.465
91.315
85.714
80.639
76.053
71.902
68.118
64.645
61.441
58.472
55.719
53.162
50.775
48.532
46.398
44.344
42.35
40.399
38.477
36.583
34.725
32.929
31.238
29.681
28.275
27.03
25.943
25.013
24.243
23.633
23.182
22.888
22.745
22.749
22.896
23.177
23.575
24.067
24.617
25.199
25.794
26.386
26.965
27.522
28.048
28.537
28.988
29.399
29.768
30.093
30.367
30.59
30.764
30.891
30.977
31.027
31.045
31.032
30.994
30.931
30.846
30.741
30.614
30.466
30.299
30.115
29.917
29.708
29.489
29.264
29.034
28.803
28.573
28.345
28.12
27.899
27.683
27.474
27.271
27.075
26.886
26.705
26.53
26.363
26.201
26.045
25.894
25.746
25.601
25.459
25.318
25.178
25.037
24.895
24.752
24.607
24.458
24.306
24.149
23.987
23.818
23.642
23.459
23.267
23.067
22.858
22.64
22.413
22.177
21.932
21.678
21.415
21.144
20.864
20.576
20.28
19.977
19.665
19.346
19.02
18.685
18.343
17.992
17.633
17.264
16.886
16.497
16.098
15.686
15.263
14.826
14.376
13.911
13.431
12.934
12.421
11.889
11.338
10.769
10.18
9.57
8.941
8.293
7.625
6.938
6.233
5.511
4.773
4.019
3.252
2.473
1.684
0.888
0.088
-0.713
-1.512
-2.305
-3.089
-3.86
-4.613
-5.345
-6.05
-6.725
-7.365
-7.964
-8.519
-9.025
-9.476
-9.869
-10.201
-10.468
-10.667
-10.797
-10.856
-10.846
-10.765
-10.615
-10.396
-10.11
-9.76
-9.348
-8.878
-8.351
-7.773
-7.148
-6.483
-5.784
-5.059
-4.313
-3.555
-2.791
-2.03
-1.282
-0.553
0.15
0.821
1.454
2.04
2.57
3.035
3.436
3.772
4.044
4.253
4.403
4.501
4.565
4.609
4.65
4.697
4.752
4.824
4.92
5.05
5.229
5.459
5.732
6.041
6.38
6.738
7.103
7.439
7.69
7.801
7.713
7.376
6.752
5.798
4.481
2.764
0.6
-2.043
-5.192
-8.871
-13.083
-17.853
-23.233
-29.176
-35.517
-41.993
-48.203
-53.779
-58.468
-61.965
-63.884
-64.001
-62.383
-59.451
-56.031
-52.95
-50.688
-49.681
-50.534
-53.628
-58.797
-65.235
-71.301
-75.143
-75.531
-71.206
-60.44
-41.797
-14.297
21.317
62.018
104.893
147.54
189.698
232.983
275.355
311.865
333.14
325.926
283.618
206.729
103.234
-12.133
-129.06
-244.671
-361.588
-483.07
-606.655
-720.995
-808.672
-858.1
-866.003
-838.871
-792.541
-737.422
-677.812
-613.717
-539.183
-455.266
-369.804
-291.283
-230.413
-190.275
-165.675
-151.571
-141.453
-132.341
-126.459
-123.918
-124.167
-125.988
-126.199
-123.515
-118.308
-111.001
-102.564
-94.06
-86.13
-79.549
-75.161
-73.122
-73.173
-74.948
-77.897
-81.488
-85.302
-88.834
-91.557
-93.233
-93.807
-93.323
-91.95
-89.813
-87.007
-83.672
-79.968
-76.029
-71.976
-67.903
-63.883
-60.003
-56.358
-53.042
-50.142
-47.705
-45.746
-44.258
-43.212
-42.577
-42.311
-42.36
-42.662
-43.156
-43.785
-44.497
-45.246
-45.983
-46.655
-47.21
-47.597
-47.78
-47.733
-47.44
-46.887
-46.07
-44.986
-43.64
-42.042
-40.196
-38.105
-35.771
-33.203
-30.414
-27.421
-24.242
-20.898
-17.417
-13.831
-10.174
-6.477
-2.762
0.96
4.672
8.357
11.997
15.566
19.054
22.458
25.774
28.99
32.1
35.098
37.997
40.829
43.613
46.358
49.054
51.67
54.185
56.581
58.825
60.886
62.715
64.251
65.457
66.305
66.756
66.77
66.28
65.194
63.448
60.994
57.801
53.865
49.177
43.733
37.565
30.709
23.216
15.147
6.525
-2.626
-12.258
-22.312
-32.702
-43.311
-54.045
-64.81
-75.508
-86.06
-96.392
-106.434
-116.16
-125.544
-134.559
-143.183
-151.354
-159.019
-166.156
-172.75
-178.807
-184.358
-189.43
-194.061
-198.324
-202.271
-205.946
-209.387
-212.598
-215.591
-218.387
-221.011
-223.505
-225.909
-228.24
-230.518
-232.757
-234.957
-237.111
-239.201
-241.177
-243.005
-244.668
-246.153
-247.464
-248.605
-249.57
-250.359
-250.97
-251.402
-251.659
-251.746
-251.662
-251.417
-251.025
-250.508
-249.903
-249.237
-248.529
-247.795
-247.044
-246.286
-245.53
-244.784
-244.047
-243.322
-242.612
-241.921
-241.255
-240.616
-240.004
-239.418
-238.852
-238.305
-237.774
-237.258
-236.755
-236.265
-235.787
-235.321
-234.872
-234.439
-234.022
-233.622
-233.236
-232.865
-232.506
-232.159
-231.822
-231.494
-231.172
-230.857
-230.548
-230.244
-229.945
-229.65
-229.358
-229.07
-228.784
-228.501
-228.22
-227.941
-227.664
-227.389
-227.116
-226.845
-226.575
-226.306
-226.038
-225.771
-225.504
-225.236
-224.968
-224.697
-224.424
-224.148
-223.868
-223.584
-223.296
-223.002
-222.702
-222.396
-222.083
-221.763
-221.433
-221.094
-220.744
-220.383
-220.009
-219.621
-219.218
-218.8
-218.365
-217.913
-217.442
-216.952
-216.443
-215.912
-215.361
-214.787
-214.191
-213.573
-212.932
-212.269
-211.583
-210.874
-210.143
-209.389
-208.614
-207.817
-206.999
-206.16
-205.302
-204.424
-203.529
-202.616
-201.687
-200.742
-199.783
-198.81
-197.825
-196.827
-195.817
-194.795
-193.761
-192.715
-191.658
-190.588
-189.505
-188.41
-187.3
-186.174
-185.032
-183.871
-182.689
-181.484
-180.254
-178.996
-177.708
-176.385
-175.026
-173.626
-172.181
-170.689
-169.144
-167.542
-165.879
-164.149
-162.35
-160.475
-158.523
-156.489
-154.371
-152.165
-149.872
-147.49
-145.018
-142.458
-139.808
-137.07
-134.246
-131.338
-128.349
-125.28
-122.135
-118.918
-115.637
-112.296
-108.902
-105.461
-101.979
-98.465
-94.927
-91.372
-87.81
-84.244
-80.684
-77.137
-73.611
-70.12
-66.67
-63.265
-59.908
-56.598
-53.335
-50.119
-46.941
-43.786
-40.64
-37.488
-34.321
-31.137
-27.929
-24.688
-21.405
-18.065
-14.664
-11.205
-7.692
-4.133
-0.54
3.074
6.673
10.201
13.601
16.806
19.762
22.428
24.762
26.735
28.308
29.428
30.055
30.155
29.699
28.685
27.09
24.859
22.033
18.779
15.363
12.192
9.64
7.954
7.421
8.412
11.141
15.559
21.299
27.601
33.696
39.177
43.71
46.794
48.183
48.09
47.211
47.022
49.278
55.077
65.333
81.471
104.57
135.208
173.651
217.912
264.376
310.69
354.28
394.208
432.581
468.008
496.332
509.793
495.688
446.834
363.953
255.905
137.945
21.186
-90.921
-201.378
-312.934
-422.069
-517.858
-584.892
-614.146
-605.194
-565.144
-506.942
-439.791
-368.33
-294.711
-218.298
-140.493
-65.148
3.727
62.061
107.758
141.077
163.497
177.186
184.107
186.378
186.304
186.095
187.802
192.445
199.995
210.006
221.848
234.647
247.491
259.348
269.09
276.236
280.891
283.38
284.244
284.03
283.21
282.361
282.11
282.818
284.618
287.501
291.314
295.924
301.246
307.141
313.45
320.038
326.777
333.57
340.348
347.031
353.521
359.73
365.567
370.956
375.863
380.279
384.217
387.707
390.783
393.487
395.874
398.005
399.941
401.736
403.44
405.097
406.756
408.467
410.279
412.24
414.382
416.725
419.285
422.072
425.09
428.341
431.817
435.508
439.406
443.506
447.808
452.307
456.991
461.843
466.846
471.979
477.216
482.526
487.868
493.208
498.521
503.787
508.995
514.135
519.187
524.135
528.964
533.656
538.202
542.586
546.782
550.781
554.581
558.197
561.665
565
568.196
571.236
574.084
576.707
579.075
581.14
582.844
584.138
584.983
585.359
585.272
584.704
583.616
581.956
579.642
576.62
572.869
568.375
563.134
557.162
550.477
543.13
535.209
526.776
517.872
508.516
498.687
488.402
477.713
466.686
455.414
443.98
432.45
420.905
409.437
398.114
386.991
376.089
365.389
354.902
344.669
334.747
325.23
316.178
307.613
299.554
292.005
284.953
278.385
272.255
266.486
261.025
255.838
250.907
246.248
241.851
237.682
233.702
229.852
226.087
222.384
218.715
215.051
211.385
207.715
204.067
200.494
197.027
193.681
190.464
187.365
184.38
181.517
178.779
176.167
173.682
171.321
169.084
166.975
164.987
163.107
161.311
159.563
157.837
156.115
154.383
152.632
150.855
149.042
147.19
145.303
143.381
141.423
139.427
137.39
135.311
133.192
131.038
128.853
126.644
124.412
122.162
119.896
117.616
115.324
113.02
110.702
108.37
106.025
103.666
101.296
98.915
96.524
94.125
91.721
89.311
86.897
84.481
82.062
79.642
77.219
74.796
72.37
69.943
67.514
65.082
62.649
60.213
57.775
55.334
52.891
50.447
48
45.552
43.103
40.654
38.206
35.76
33.319
30.882
28.453
26.034
23.625
21.23
18.85
16.488
14.145
11.824
9.526
7.255
5.012
2.8
0.621
-1.521
-3.625
-5.688
-7.708
-9.683
-11.611
-13.489
-15.317
-17.092
-18.813
-20.479
-22.089
-23.643
-25.138
-26.576
-27.956
-29.279
-30.544
-31.753
-32.908
-34.009
-35.058
-36.058
-37.009
-37.916
-38.78
-39.604
-40.391
-41.145
-41.869
-42.566
-43.24
-43.895
-44.534
-45.16
-45.778
-46.39
-47
-47.611
-48.224
-48.844
-49.473
-50.112
-50.764
-51.43
-52.113
-52.814
-53.533
-54.272
-55.03
-55.808
-56.605
-57.42
-58.252
-59.1
-59.961
-60.833
-61.714
-62.6
-63.488
-64.375
-65.257
-66.129
-66.986
-67.826
-68.643
-69.434
-70.194
-70.921
-71.612
-72.264
-72.877
-73.45
-73.981
-74.47
-74.917
-75.322
-75.685
-76.008
-76.29
-76.532
-76.738
-76.911
-77.055
-77.174
-77.273
-77.357
-77.431
-77.5
-77.571
-77.651
-77.742
-77.851
-77.983
-78.144
-78.346
-78.595
-78.891
-79.233
-79.62
-80.045
-80.505
-80.991
-81.485
-81.97
-82.433
-82.859
-83.247
-83.586
-83.867
-84.078
-84.204
-84.237
-84.186
-84.057
-83.861
-83.617
-83.34
-83.062
-82.844
-82.737
-82.792
-83.068
-83.603
-84.442
-85.638
-87.221
-89.233
-91.717
-94.691
-98.18
-102.202
-106.74
-111.802
-117.407
-123.466
-129.812
-136.185
-142.192
-147.488
-151.825
-154.891
-156.304
-155.843
-153.564
-149.862
-145.516
-141.28
-137.597
-134.894
-133.794
-134.704
-137.507
-141.484
-145.121
-146.718
-145.174
-139.3
-127.412
-108.14
-80.512
-45.052
-4.629
37.789
79.811
120.557
161.499
202.139
238.47
262.576
261.73
225.741
152.615
48.251
-74.059
-200.045
-323.494
-444.813
-564.746
-682.372
-788.738
-868.549
-912.85
-919.234
-893.012
-847.204
-790.755
-728.25
-661.775
-590.17
-514.925
-439.905
-369.33
-307.671
-257.348
-218.897
-191.82
-174.482
-165.072
-161.847
-162.481
-164.762
-166.798
-166.895
-164.365
-159.359
-152.243
-143.651
-134.508
-125.661
-118.005
-112.436
-109.202
-108.107
-108.808
-110.756
-113.404
-116.291
-118.879
-120.632
-121.296
-120.804
-119.204
-116.673
-113.345
-109.327
-104.773
-99.845
-94.687
-89.424
-84.153
-78.948
-73.9
-69.104
-64.653
-60.631
-57.083
-54.02
-51.433
-49.29
-47.555
-46.186
-45.125
-44.311
-43.681
-43.178
-42.747
-42.343
-41.913
-41.406
-40.767
-39.948
-38.912
-37.634
-36.097
-34.29
-32.205
-29.844
-27.209
-24.31
-21.151
-17.733
-14.059
-10.138
-5.983
-1.61
2.961
7.711
12.61
17.625
22.721
27.866
33.036
38.22
43.401
48.561
53.681
58.737
63.717
68.621
73.444
78.175
82.809
87.34
91.782
96.168
100.518
104.838
109.123
113.346
117.484
121.518
125.42
129.151
132.665
135.896
138.797
141.338
143.475
145.157
146.319
146.868
146.735
145.876
144.253
141.847
138.645
134.637
129.838
124.288
118.032
111.121
103.598
95.492
86.854
77.756
68.286
58.552
48.652
38.673
28.71
18.87
9.241
-0.102
-9.103
-17.732
-25.953
-33.719
-40.985
-47.709
-53.866
-59.459
-64.495
-68.989
-72.969
-76.47
-79.546
-82.281
-84.735
-86.951
-88.965
-90.796
-92.479
-94.064
-95.588
-97.081
-98.564
-100.045
-101.537
-103.053
-104.591
-106.134
-107.652
-109.095
-110.432
-111.649
-112.735
-113.685
-114.489
-115.128
-115.599
-115.906
-116.057
-116.058
-115.914
-115.625
-115.204
-114.672
-114.055
-113.384
-112.681
-111.961
-111.237
-110.52
-109.821
-109.149
-108.508
-107.894
-107.307
-106.749
-106.219
-105.721
-105.255
-104.814
-104.395
-103.994
-103.606
-103.23
-102.863
-102.501
-102.144
-101.791
-101.441
-101.097
-100.758
-100.424
-100.093
-99.764
-99.436
-99.108
-98.779
-98.447
-98.109
-97.767
-97.418
-97.063
-96.702
-96.333
-95.958
-95.576
-95.188
-94.794
-94.396
-93.992
-93.585
-93.175
-92.763
-92.349
-91.935
-91.521
-91.107
-90.695
-90.283
-89.873
-89.464
-89.057
-88.651
-88.246
-87.842
-87.439
-87.038
-86.637
-86.238
-85.839
-85.442
-85.046
-84.65
-84.255
-83.861
-83.467
-83.072
-82.678
-82.284
-81.889
-81.494
-81.098
-80.703
-80.308
-79.914
-79.52
-79.129
-78.739
-78.353
-77.971
-77.595
-77.224
-76.862
-76.508
-76.166
-75.835
-75.518
-75.216
-74.931
-74.665
-74.418
-74.193
-73.99
-73.811
-73.657
-73.529
-73.428
-73.355
-73.311
-73.294
-73.306
-73.346
-73.412
-73.505
-73.622
-73.762
-73.922
-74.1
-74.294
-74.5
-74.715
-74.936
-75.158
-75.379
-75.593
-75.796
-75.984
-76.15
-76.292
-76.402
-76.477
-76.511
-76.499
-76.435
-76.315
-76.134
-75.886
-75.567
-75.173
-74.7
-74.144
-73.502
-72.773
-71.955
-71.048
-70.051
-68.967
-67.797
-66.544
-65.211
-63.804
-62.327
-60.785
-59.184
-57.53
-55.829
-54.088
-52.313
-50.513
-48.695
-46.867
-45.037
-43.214
-41.407
-39.625
-37.875
-36.167
-34.502
-32.887
-31.326
-29.826
-28.394
-27.036
-25.754
-24.548
-23.419
-22.365
-21.382
-20.457
-19.567
-18.694
-17.823
-16.94
-16.043
-15.124
-14.173
-13.179
-12.128
-11.012
-9.834
-8.593
-7.284
-5.917
-4.51
-3.107
-1.788
-0.62
0.34
1.043
1.467
1.571
1.295
0.587
-0.61
-2.336
-4.6
-7.453
-10.979
-15.178
-19.945
-25.032
-30.03
-34.583
-38.438
-41.309
-42.865
-42.881
-41.385
-38.759
-35.748
-33.076
-31.166
-30.357
-31.034
-33.404
-37.379
-42.253
-46.493
-48.603
-46.916
-39.813
-26.651
-6.368
20.506
51.606
86.216
122.871
161.536
205.298
253.871
304.248
350.93
381.964
384.974
353.374
285.048
187.481
76.192
-38.23
-149.202
-256.848
-369.161
-486.367
-601.641
-702.579
-771.134
-798.837
-787.069
-743.989
-684.232
-617.763
-548.906
-479.314
-407.56
-334.516
-263.971
-199.919
-146.336
-105.103
-75.71
-56.559
-45.541
-40.811
-40.346
-41.988
-43.687
-43.534
-40.639
-35.087
-27.293
-17.856
-7.613
2.598
11.818
18.987
23.687
26.048
26.391
25.254
23.169
20.584
18.05
16.163
15.265
15.476
16.784
19.033
22.092
25.877
30.251
35.059
40.165
45.445
50.799
56.157
61.44
66.554
71.413
75.933
80.045
83.721
86.957
89.769
92.191
94.262
96.026
97.537
98.859
100.05
101.167
102.261
103.375
104.557
105.856
107.318
108.989
110.899
113.065
115.499
118.206
121.187
124.441
127.96
131.727
135.732
139.964
144.417
149.087
153.966
159.036
164.277
169.663
175.162
180.747
186.389
192.05
197.699
203.312
208.869
214.361
219.783
225.116
230.337
235.415
240.316
245.023
249.521
253.795
257.846
261.671
265.272
268.669
271.87
274.861
277.62
280.096
282.23
283.981
285.322
286.231
286.698
286.7
286.215
285.228
283.715
281.652
279.012
275.743
271.814
267.226
262
256.191
249.877
243.115
235.956
228.452
220.641
212.573
204.294
195.84
187.251
178.577
169.875
161.222
152.688
144.312
136.122
128.12
120.289
112.629
105.142
97.824
90.683
83.725
76.958
70.403
64.079
57.996
52.155
46.548
41.163
36.001
31.069
26.379
21.952
17.798
13.929
10.355
7.083
4.111
1.438
-0.949
-3.065
-4.921
-6.53
-7.898
-9.036
-9.952
-10.663
-11.18
-11.52
-11.699
-11.733
-11.637
-11.431
-11.126
-10.738
-10.278
-9.755
-9.179
-8.56
-7.908
-7.232
-6.54
-5.842
-5.145
-4.458
-3.787
-3.138
-2.517
-1.927
-1.372
-0.855
-0.378
0.058
0.45
0.8
1.105
1.366
1.584
1.76
1.894
1.988
2.043
2.062
2.047
1.999
1.92
1.812
1.677
1.517
1.334
1.128
0.901
0.654
0.39
0.108
-0.189
-0.5
-0.824
-1.16
-1.506
-1.862
-2.226
-2.599
-2.98
-3.367
-3.76
-4.159
-4.562
-4.97
-5.381
-5.795
-6.211
-6.629
-7.048
-7.468
-7.888
-8.308
-8.727
-9.145
-9.561
-9.973
-10.382
-10.786
-11.186
-11.58
-11.968
-12.35
-12.725
-13.093
-13.454
-13.807
-14.153
-14.492
-14.824
-15.149
-15.468
-15.781
-16.089
-16.393
-16.694
-16.992
-17.29
-17.587
-17.886
-18.188
-18.495
-18.806
-19.125
-19.452
-19.789
-20.138
-20.499
-20.874
-21.264
-21.671
-22.095
-22.537
-22.998
-23.478
-23.976
-24.493
-25.027
-25.579
-26.146
-26.727
-27.321
-27.925
-28.536
-29.153
-29.771
-30.388
-31.001
-31.604
-32.194
-32.767
-33.317
-33.84
-34.331
-34.785
-35.196
-35.558
-35.868
-36.118
-36.304
-36.421
-36.462
-36.424
-36.301
-36.09
-35.786
-35.386
-34.888
-34.29
-33.591
-32.791
-31.892
-30.895
-29.803
-28.618
-27.343
-25.984
-24.546
-23.033
-21.45
-19.805
-18.104
-16.356
-14.571
-12.757
-10.924
-9.081
-7.239
-5.409
-3.602
-1.829
-0.097
1.585
3.208
4.762
6.234
7.614
8.9
10.087
11.174
12.161
13.05
13.848
14.571
15.236
15.857
16.447
17.009
17.552
18.086
18.626
19.189
19.781
20.403
21.053
21.727
22.422
23.124
23.799
24.393
24.847
25.1
25.101
24.81
24.18
23.175
21.751
19.851
17.436
14.475
10.941
6.829
2.126
-3.201
-9.085
-15.342
-21.716
-27.836
-33.363
-38.072
-41.708
-43.928
-44.525
-43.536
-41.254
-38.305
-35.311
-32.593
-30.353
-28.977
-28.87
-29.966
-31.663
-32.896
-31.626
-26.405
-17.173
-2.738
16.542
39.709
68.269
100.794
136.829
177.318
220.048
265.254
309.964
347.005
368.368
361.704
320.596
246.168
145.579
34.246
-77.471
-185.553
-289.484
-393.956
-496.523
-588.11
-659.881
-701.758
-712.643
-699.483
-667.408
-623.569
-570.66
-506.688
-436.057
-362.85
-292.17
-231.795
-182.042
-141.914
-110.6
-84.855
-65.077
-51.785
-43.905
-40.663
-39.691
-38.658
-36.32
-32.027
-26.035
-18.841
-10.85
-2.718
4.905
11.331
15.812
18.156
18.552
17.303
14.89
11.783
8.39
5.209
2.751
1.278
0.884
1.553
3.147
5.562
8.715
12.468
16.669
21.179
25.874
30.66
35.465
40.198
44.757
49.047
52.973
56.486
59.568
62.22
64.464
66.33
67.856
69.096
70.112
70.963
71.706
72.391
73.063
73.774
74.576
75.521
76.662
78.035
79.662
81.565
83.752
86.229
88.997
92.048
95.371
98.957
102.803
106.905
111.26
115.856
120.677
125.707
130.922
136.299
141.805
147.397
153.04
158.709
164.38
170.04
175.673
181.261
186.786
192.231
197.579
202.818
207.933
212.898
217.705
222.351
226.849
231.232
235.514
239.688
243.737
247.633
251.341
254.825
258.037
260.911
263.395
265.437
267.001
268.067
268.6
268.555
267.874
266.484
264.337
261.413
257.704
253.219
247.985
242.035
235.435
228.279
220.645
212.601
204.206
195.5
186.537
177.387
168.122
158.827
149.572
140.408
131.383
122.54
113.906
105.497
97.306
89.3
81.462
73.789
66.283
58.96
51.828
44.888
38.143
31.594
25.244
19.1
13.164
7.436
1.923
-3.361
-8.397
-13.155
-17.613
-21.761
-25.594
-29.112
-32.317
-35.213
-37.806
-40.11
-42.137
-43.899
-45.407
-46.669
-47.697
-48.508
-49.118
-49.546
-49.81
-49.926
-49.91
-49.778
-49.543
-49.219
-48.819
-48.351
-47.825
-47.254
-46.647
-46.016
-45.37
-44.718
-44.07
-43.433
-42.814
-42.221
-41.657
-41.126
-40.633
-40.178
-39.765
-39.395
-39.067
-38.781
-38.538
-38.337
-38.176
-38.053
-37.968
-37.916
-37.898
-37.908
-37.947
-38.01
-38.097
-38.203
-38.327
-38.467
-38.621
-38.786
-38.961
-39.143
-39.33
-39.521
-39.714
-39.907
-40.098
-40.287
-40.473
-40.654
-40.831
-41.003
-41.169
-41.331
-41.488
-41.639
-41.787
-41.93
-42.069
-42.206
-42.339
-42.469
-42.597
-42.723
-42.847
-42.969
-43.09
-43.21
-43.328
-43.446
-43.562
-43.678
-43.793
-43.907
-44.021
-44.135
-44.249
-44.363
-44.478
-44.594
-44.713
-44.833
-44.956
-45.083
-45.214
-45.35
-45.491
-45.639
-45.794
-45.958
-46.131
-46.315
-46.51
-46.718
-46.94
-47.177
-47.43
-47.7
-47.986
-48.29
-48.612
-48.951
-49.307
-49.681
-50.07
-50.476
-50.896
-51.329
-51.773
-52.226
-52.687
-53.151
-53.617
-54.08
-54.537
-54.985
-55.419
-55.836
-56.23
-56.597
-56.933
-57.232
-57.489
-57.699
-57.856
-57.957
-57.996
-57.969
-57.873
-57.705
-57.462
-57.145
-56.751
-56.28
-55.733
-55.11
-54.412
-53.641
-52.799
-51.889
-50.913
-49.876
-48.783
-47.642
-46.457
-45.237
-43.987
-42.715
-41.429
-40.139
-38.851
-37.573
-36.312
-35.078
-33.878
-32.727
-31.631
-30.597
-29.625
-28.718
-27.873
-27.088
-26.356
-25.663
-24.994
-24.337
-23.68
-23.016
-22.337
-21.632
-20.889
-20.093
-19.234
-18.312
-17.335
-16.309
-15.249
-14.174
-13.117
-12.134
-11.281
-10.616
-10.201
-10.085
-10.319
-10.951
-12.02
-13.57
-15.645
-18.274
-21.477
-25.274
-29.652
-34.599
-40.123
-46.098
-52.317
-58.499
-64.244
-69.192
-73.094
-75.635
-76.446
-75.456
-72.794
-68.84
-64.416
-60.133
-56.344
-53.557
-52.134
-52.102
-53.34
-54.945
-55.371
-53.011
-45.631
-31.93
-11.709
14.248
42.309
70.362
99.225
130.291
168.938
218.128
272.549
324.559
360.382
364.486
331.86
263.278
167.569
60.833
-47.962
-156.069
-264.623
-377.574
-491.123
-593.493
-672.686
-720.135
-735.349
-726.235
-700.716
-663.564
-617.244
-561.199
-496.311
-426.299
-354.961
-286.645
-225.29
-173.175
-131.415
-100.043
-77.955
-63.494
-55.372
-52.022
-51.316
-51.275
-50.088
-46.693
-41.128
-33.846
-25.252
-15.977
-6.855
1.235
7.286
10.821
12.008
11.193
8.875
5.593
1.814
-1.906
-4.943
-6.95
-7.815
-7.537
-6.265
-4.125
-1.186
2.412
6.514
10.988
15.702
20.559
25.481
30.363
35.091
39.558
43.654
47.317
50.522
53.261
55.559
57.449
58.966
60.163
61.101
61.837
62.433
62.939
63.404
63.881
64.426
65.094
65.944
67.015
68.334
69.922
71.789
73.941
76.383
79.107
82.099
85.351
88.856
92.609
96.608
100.845
105.304
109.971
114.824
119.84
124.994
130.249
135.57
140.928
146.298
151.662
157.01
162.324
167.59
172.795
177.915
182.928
187.819
192.562
197.14
201.551
205.797
209.894
213.867
217.717
221.435
225.01
228.407
231.591
234.525
237.153
239.446
241.389
242.959
244.141
244.918
245.245
245.077
244.356
243.008
240.99
238.271
234.828
230.673
225.839
220.36
214.296
207.683
200.523
192.838
184.653
176.001
166.949
157.57
147.945
138.189
128.412
118.71
109.171
99.852
90.777
81.979
73.474
65.298
57.522
50.195
43.352
37.023
31.213
25.916
21.117
16.763
12.779
9.103
5.684
2.491
-0.482
-3.25
-5.832
-8.252
-10.554
-12.775
-14.934
-17.058
-19.164
-21.257
-23.34
-25.387
-27.349
-29.191
-30.893
-32.441
-33.841
-35.094
-36.194
-37.141
-37.933
-38.571
-39.059
-39.398
-39.589
-39.638
-39.558
-39.37
-39.11
-38.803
-38.467
-38.117
-37.762
-37.41
-37.072
-36.75
-36.444
-36.156
-35.885
-35.636
-35.411
-35.214
-35.04
-34.887
-34.75
-34.623
-34.504
-34.389
-34.277
-34.165
-34.051
-33.936
-33.822
-33.709
-33.598
-33.486
-33.373
-33.258
-33.14
-33.019
-32.894
-32.763
-32.627
-32.485
-32.338
-32.186
-32.029
-31.868
-31.704
-31.536
-31.366
-31.196
-31.027
-30.859
-30.695
-30.536
-30.384
-30.242
-30.109
-29.989
-29.882
-29.789
-29.712
-29.652
-29.608
-29.583
-29.575
-29.585
-29.614
-29.662
-29.728
-29.812
-29.915
-30.036
-30.175
-30.331
-30.504
-30.693
-30.898
-31.119
-31.355
-31.607
-31.872
-32.151
-32.444
-32.749
-33.067
-33.395
-33.735
-34.084
-34.443
-34.812
-35.189
-35.576
-35.97
-36.373
-36.785
-37.206
-37.636
-38.075
-38.524
-38.984
-39.455
-39.939
-40.434
-40.943
-41.465
-41.999
-42.547
-43.106
-43.676
-44.255
-44.843
-45.436
-46.034
-46.633
-47.231
-47.826
-48.415
-48.994
-49.56
-50.11
-50.639
-51.143
-51.617
-52.059
-52.462
-52.822
-53.134
-53.394
-53.595
-53.732
-53.8
-53.794
-53.707
-53.535
-53.272
-52.916
-52.46
-51.904
-51.245
-50.481
-49.615
-48.645
-47.573
-46.401
-45.133
-43.771
-42.321
-40.786
-39.173
-37.485
-35.732
-33.92
-32.059
-30.157
-28.223
-26.266
-24.297
-22.325
-20.362
-18.419
-16.503
-14.624
-12.791
-11.016
-9.312
-7.689
-6.152
-4.705
-3.351
-2.091
-0.924
0.156
1.163
2.113
3.021
3.899
4.751
5.586
6.415
7.249
8.106
8.992
9.908
10.85
11.815
12.792
13.769
14.71
15.562
16.262
16.742
16.943
16.818
16.323
15.423
14.077
12.227
9.831
6.849
3.253
-0.956
-5.799
-11.324
-17.476
-24.076
-30.833
-37.313
-43.118
-47.987
-51.613
-53.611
-53.76
-52.113
-49.065
-45.407
-41.92
-39.023
-37.082
-36.628
-37.934
-40.77
-44.345
-47.083
-47.239
-43.736
-35.471
-20.885
1.192
31.523
69.412
111.967
156.253
199.881
242.307
284.828
326.301
363.206
387.438
386.512
352.819
284.076
186.095
73.872
-41.496
-154.202
-264.313
-377.919
-494.695
-606.466
-699.87
-760.436
-781.758
-767.154
-726.945
-672.264
-610.571
-544.756
-474.261
-399.803
-324.206
-251.718
-187.441
-134.587
-94.078
-65.506
-47.146
-36.932
-33.119
-33.444
-35.552
-37.414
-37.226
-34.184
-28.436
-20.451
-10.893
-0.697
9.204
17.851
24.259
28.078
29.475
28.808
26.634
23.516
19.946
16.483
13.703
11.925
11.261
11.696
13.086
15.306
18.268
21.838
25.87
30.234
34.81
39.499
44.226
48.907
53.444
57.748
61.731
65.319
68.478
71.201
73.501
75.407
76.956
78.189
79.161
79.933
80.566
81.117
81.637
82.173
82.774
83.488
84.364
85.445
86.761
88.329
90.159
92.258
94.627
97.264
100.162
103.307
106.689
110.296
114.119
118.149
122.371
126.769
131.327
136.025
140.849
145.779
150.797
155.883
161.017
166.178
171.346
176.498
181.61
186.655
191.606
196.438
201.126
205.645
209.969
214.073
217.934
221.533
224.849
227.861
230.546
232.878
234.842
236.428
237.632
238.449
238.874
238.904
238.541
237.793
236.664
235.151
233.243
230.929
228.207
225.085
221.582
217.718
213.505
208.944
204.037
198.792
193.223
187.336
181.128
174.59
167.732
160.59
153.221
145.688
138.032
130.285
122.471
114.614
106.752
98.928
91.181
83.538
76.033
68.706
61.617
54.831
48.385
42.281
36.49
30.985
25.756
20.802
16.126
11.722
7.576
3.677
0.023
-3.382
-6.543
-9.482
-12.238
-14.853
-17.349
-19.723
-21.95
-24.012
-25.904
-27.625
-29.179
-30.559
-31.763
-32.795
-33.675
-34.422
-35.049
-35.56
-35.947
-36.204
-36.336
-36.359
-36.295
-36.163
-35.978
-35.753
-35.502
-35.242
-34.988
-34.746
-34.514
-34.293
-34.085
-33.895
-33.73
-33.596
-33.495
-33.429
-33.398
-33.401
-33.439
-33.511
-33.613
-33.743
-33.896
-34.072
-34.272
-34.493
-34.736
-34.997
-35.275
-35.568
-35.874
-36.191
-36.515
-36.844
-37.175
-37.507
-37.837
-38.165
-38.489
-38.806
-39.117
-39.42
-39.713
-39.997
-40.269
-40.53
-40.777
-41.01
-41.229
-41.432
-41.62
-41.791
-41.945
-42.082
-42.203
-42.307
-42.394
-42.464
-42.518
-42.555
-42.577
-42.582
-42.571
-42.545
-42.504
-42.449
-42.379
-42.296
-42.2
-42.09
-41.968
-41.835
-41.689
-41.533
-41.367
-41.192
-41.01
-40.82
-40.626
-40.428
-40.228
-40.028
-39.83
-39.635
-39.446
-39.264
-39.092
-38.931
-38.783
-38.651
-38.536
-38.44
-38.366
-38.314
-38.287
-38.286
-38.314
-38.371
-38.459
-38.58
-38.734
-38.923
-39.146
-39.405
-39.7
-40.029
-40.392
-40.787
-41.212
-41.666
-42.146
-42.649
-43.172
-43.711
-44.263
-44.823
-45.387
-45.95
-46.507
-47.053
-47.582
-48.089
-48.569
-49.015
-49.422
-49.785
-50.098
-50.355
-50.549
-50.677
-50.731
-50.708
-50.602
-50.41
-50.129
-49.755
-49.286
-48.723
-48.065
-47.314
-46.472
-45.541
-44.524
-43.426
-42.251
-41.006
-39.695
-38.325
-36.903
-35.436
-33.934
-32.405
-30.858
-29.303
-27.748
-26.203
-24.68
-23.188
-21.735
-20.328
-18.975
-17.682
-16.458
-15.313
-14.255
-13.283
-12.4
-11.606
-10.9
-10.278
-9.731
-9.239
-8.787
-8.36
-7.946
-7.543
-7.144
-6.739
-6.314
-5.857
-5.361
-4.827
-4.259
-3.654
-3.017
-2.363
-1.722
-1.154
-0.724
-0.484
-0.478
-0.738
-1.284
-2.155
-3.401
-5.068
-7.2
-9.823
-12.941
-16.601
-20.874
-25.755
-31.125
-36.721
-42.145
-47.043
-51.171
-54.257
-55.938
-55.961
-54.351
-51.485
-48.141
-45.117
-42.864
-41.734
-42.269
-44.829
-49.267
-54.871
-60.08
-63.08
-62.72
-57.863
-46.884
-28.425
-1.452
33.55
73.795
116.518
159.535
202.589
247.262
292.036
332.528
359.991
361.735
330.449
265.066
172.034
64.974
-46.108
-157.75
-272.188
-393.165
-518.422
-636.894
-731.498
-789.859
-807.789
-790.473
-751.213
-699.611
-641.135
-578.029
-508.53
-434.031
-358.371
-285.781
-221.469
-168.594
-127.917
-99.111
-80.509
-69.952
-65.637
-65.327
-66.697
-67.739
-66.674
-62.698
-55.971
-47.014
-36.52
-25.418
-14.638
-5.133
2.111
6.73
8.894
8.959
7.476
5.002
2.022
-0.905
-3.195
-4.511
-4.734
-3.866
-2.046
0.609
4.017
8.048
12.555
17.407
22.481
27.676
32.918
38.122
43.188
48.021
52.525
56.621
60.269
63.457
66.192
68.501
70.417
71.981
73.246
74.274
75.125
75.855
76.515
77.148
77.801
78.524
79.366
80.372
81.575
82.995
84.648
86.543
88.684
91.075
93.71
96.577
99.665
102.967
106.476
110.189
114.102
118.205
122.482
126.917
131.492
136.186
140.971
145.813
150.676
155.53
160.351
165.124
169.837
174.477
179.029
183.481
187.812
192.005
196.048
199.921
203.608
207.11
210.43
213.596
216.64
219.571
222.385
225.064
227.572
229.88
231.952
233.737
235.201
236.311
237.043
237.39
237.342
236.865
235.916
234.421
232.305
229.529
226.078
221.955
217.188
211.803
205.842
199.376
192.464
185.156
177.486
169.458
161.093
152.446
143.594
134.65
125.724
116.893
108.218
99.747
91.513
83.551
75.873
68.466
61.323
54.455
47.893
41.705
35.929
30.569
25.606
20.985
16.66
12.608
8.806
5.232
1.873
-1.289
-4.254
-6.999
-9.515
-11.808
-13.906
-15.862
-17.707
-19.451
-21.09
-22.597
-23.958
-25.17
-26.228
-27.123
-27.852
-28.415
-28.823
-29.104
-29.276
-29.347
-29.318
-29.178
-28.925
-28.57
-28.127
-27.618
-27.061
-26.468
-25.856
-25.244
-24.644
-24.069
-23.522
-22.999
-22.503
-22.035
-21.6
-21.204
-20.851
-20.54
-20.271
-20.042
-19.851
-19.697
-19.575
-19.48
-19.41
-19.361
-19.331
-19.323
-19.334
-19.363
-19.409
-19.472
-19.549
-19.64
-19.743
-19.855
-19.976
-20.104
-20.238
-20.378
-20.522
-20.669
-20.82
-20.973
-21.128
-21.285
-21.443
-21.602
-21.764
-21.927
-22.093
-22.261
-22.433
-22.609
-22.789
-22.974
-23.166
-23.363
-23.566
-23.776
-23.993
-24.216
-24.445
-24.68
-24.92
-25.164
-25.412
-25.665
-25.92
-26.177
-26.437
-26.698
-26.96
-27.222
-27.484
-27.745
-28.006
-28.265
-28.523
-28.78
-29.035
-29.289
-29.541
-29.791
-30.039
-30.285
-30.529
-30.772
-31.014
-31.254
-31.494
-31.734
-31.974
-32.216
-32.461
-32.709
-32.962
-33.221
-33.487
-33.761
-34.044
-34.338
-34.643
-34.959
-35.289
-35.631
-35.985
-36.353
-36.732
-37.122
-37.522
-37.93
-38.345
-38.765
-39.188
-39.613
-40.038
-40.459
-40.874
-41.281
-41.676
-42.058
-42.421
-42.764
-43.081
-43.37
-43.627
-43.847
-44.027
-44.161
-44.246
-44.278
-44.251
-44.163
-44.009
-43.785
-43.49
-43.121
-42.677
-42.157
-41.56
-40.889
-40.146
-39.331
-38.448
-37.5
-36.492
-35.426
-34.306
-33.138
-31.925
-30.673
-29.388
-28.077
-26.746
-25.403
-24.055
-22.708
-21.372
-20.054
-18.763
-17.505
-16.286
-15.11
-13.988
-12.929
-11.941
-11.026
-10.182
-9.409
-8.703
-8.061
-7.475
-6.926
-6.396
-5.865
-5.322
-4.761
-4.174
-3.553
-2.882
-2.143
-1.33
-0.448
0.49
1.471
2.484
3.513
4.517
5.434
6.195
6.73
6.985
6.92
6.49
5.661
4.381
2.591
0.252
-2.665
-6.174
-10.259
-14.933
-20.241
-26.107
-32.344
-38.671
-44.646
-49.898
-54.19
-57.212
-58.59
-58.145
-55.909
-52.239
-48.011
-44.023
-40.753
-38.717
-38.396
-39.968
-43.31
-47.683
-51.375
-52.636
-50.183
-42.507
-28.176
-6.175
24.375
62.439
104.517
147.591
189.033
228.619
269.262
309.931
345.526
365.617
355.19
306.718
221.999
111.741
-7.23
-124.552
-238.722
-353.237
-471.188
-587.241
-687.728
-758.13
-790.228
-785.895
-755.401
-709.77
-656.038
-596.545
-529.941
-456.451
-379.121
-302.488
-232.297
-172.58
-124.972
-89.686
-65.618
-51.11
-44.498
-43.704
-46.124
-49.201
-50.719
-49.43
-45.137
-38.144
-29.032
-18.608
-7.891
1.939
9.695
14.796
17.295
17.506
15.969
13.236
9.81
6.308
3.383
1.434
0.607
0.902
2.171
4.284
7.161
10.669
14.651
18.977
23.521
28.189
32.909
37.597
42.153
46.486
50.5
54.116
57.295
60.022
62.309
64.187
65.692
66.864
67.756
68.43
68.944
69.358
69.722
70.081
70.48
70.969
71.598
72.415
73.453
74.734
76.27
78.07
80.14
82.483
85.093
87.959
91.067
94.407
97.973
101.76
105.763
109.969
114.36
118.918
123.625
128.458
133.394
138.398
143.43
148.457
153.454
158.401
163.285
168.089
172.793
177.379
181.833
186.138
190.287
194.266
198.056
201.656
205.07
208.316
211.43
214.426
217.3
220.045
222.635
225.047
227.259
229.236
230.938
232.336
233.398
234.097
234.419
234.324
233.762
232.674
230.974
228.613
225.57
221.827
217.391
212.283
206.519
200.138
193.194
185.716
177.744
169.32
160.478
151.289
141.839
132.23
122.589
113.018
103.593
94.39
85.461
76.845
68.587
60.712
53.238
46.209
39.658
33.608
28.085
23.079
18.562
14.494
10.805
7.437
4.348
1.501
-1.13
-3.559
-5.808
-7.895
-9.831
-11.652
-13.387
-15.057
-16.691
-18.29
-19.849
-21.351
-22.763
-24.051
-25.2
-26.197
-27.039
-27.732
-28.277
-28.68
-28.949
-29.083
-29.084
-28.955
-28.695
-28.314
-27.827
-27.254
-26.622
-25.961
-25.289
-24.625
-23.98
-23.363
-22.781
-22.239
-21.738
-21.281
-20.872
-20.512
-20.208
-19.962
-19.772
-19.638
-19.554
-19.515
-19.518
-19.559
-19.635
-19.742
-19.879
-20.045
-20.238
-20.459
-20.706
-20.977
-21.269
-21.579
-21.905
-22.243
-22.592
-22.948
-23.31
-23.675
-24.041
-24.408
-24.774
-25.138
-25.498
-25.853
-26.202
-26.546
-26.883
-27.212
-27.535
-27.851
-28.159
-28.461
-28.757
-29.046
-29.33
-29.608
-29.882
-30.15
-30.413
-30.672
-30.926
-31.175
-31.42
-31.66
-31.895
-32.126
-32.353
-32.575
-32.793
-33.006
-33.215
-33.418
-33.616
-33.808
-33.994
-34.174
-34.347
-34.514
-34.674
-34.828
-34.975
-35.117
-35.254
-35.385
-35.512
-35.634
-35.752
-35.867
-35.98
-36.092
-36.204
-36.318
-36.435
-36.558
-36.688
-36.827
-36.977
-37.14
-37.317
-37.511
-37.723
-37.956
-38.21
-38.486
-38.787
-39.113
-39.465
-39.843
-40.247
-40.677
-41.13
-41.605
-42.102
-42.616
-43.145
-43.686
-44.238
-44.797
-45.362
-45.928
-46.493
-47.052
-47.603
-48.138
-48.652
-49.136
-49.582
-49.982
-50.33
-50.618
-50.842
-50.993
-51.066
-51.06
-50.969
-50.791
-50.518
-50.142
-49.656
-49.062
-48.366
-47.577
-46.705
-45.755
-44.737
-43.667
-42.556
-41.409
-40.226
-38.992
-37.702
-36.359
-34.973
-33.565
-32.145
-30.71
-29.256
-27.777
-26.269
-24.732
-23.157
-21.516
-19.798
-18.005
-16.162
-14.314
-12.49
-10.697
-8.928
-7.174
-5.434
-3.727
-2.068
-0.466
1.072
2.537
3.904
5.123
6.162
7.013
7.692
8.231
8.641
8.903
8.981
8.84
8.457
7.818
6.902
5.67
4.087
2.122
-0.228
-2.931
-5.974
-9.366
-13.14
-17.321
-21.917
-26.878
-32.155
-37.754
-43.589
-49.487
-55.178
-60.23
-64.248
-66.975
-68.081
-67.171
-64.199
-59.33
-53.035
-46.356
-40.125
-34.86
-31.363
-30.359
-31.885
-35.613
-40.455
-44.291
-45.51
-42.704
-33.825
-17.125
8.613
43.103
83.71
127.233
170.803
214.115
259.05
303.799
343.637
368.573
363.79
321.869
243.006
135.629
16.111
-104.107
-221.347
-337.533
-455.93
-573.984
-681.048
-761.7
-805.885
-811.547
-784.672
-737.918
-680.354
-616.757
-549.098
-476.261
-399.766
-323.611
-252.24
-190.427
-140.831
-103.678
-78.118
-62.423
-54.586
-52.548
-53.775
-55.641
-55.922
-53.368
-47.756
-39.417
-29.022
-17.438
-5.708
4.941
13.315
18.843
21.566
21.804
20.123
17.106
13.282
9.302
5.836
3.289
1.848
1.552
2.282
3.939
6.45
9.682
13.487
17.732
22.288
27.055
31.952
36.879
41.734
46.419
50.836
54.909
58.578
61.807
64.592
66.948
68.904
70.5
71.779
72.796
73.615
74.294
74.89
75.457
76.044
76.699
77.474
78.414
79.56
80.944
82.583
84.488
86.666
89.118
91.843
94.837
98.094
101.603
105.353
109.333
113.528
117.921
122.488
127.202
132.031
136.944
141.915
146.918
151.931
156.933
161.903
166.819
171.658
176.404
181.049
185.588
190.023
194.359
198.604
202.775
206.897
210.985
215.045
219.079
223.081
227.039
230.934
234.746
238.453
242.025
245.425
248.604
251.496
254.029
256.129
257.715
258.701
259.011
258.587
257.371
255.326
252.429
248.677
244.074
238.628
232.354
225.266
217.405
208.848
199.681
190.001
179.909
169.517
158.936
148.283
137.679
127.223
116.995
107.056
97.46
88.263
79.531
71.333
63.708
56.663
50.191
44.277
38.905
34.047
29.657
25.67
22.007
18.613
15.449
12.49
9.716
7.094
4.581
2.128
-0.291
-2.686
-5.062
-7.423
-9.776
-12.118
-14.428
-16.666
-18.783
-20.75
-22.552
-24.184
-25.644
-26.923
-28.009
-28.892
-29.576
-30.068
-30.374
-30.499
-30.446
-30.225
-29.858
-29.373
-28.806
-28.18
-27.512
-26.817
-26.106
-25.392
-24.686
-23.996
-23.323
-22.67
-22.042
-21.445
-20.885
-20.365
-19.886
-19.444
-19.037
-18.665
-18.325
-18.019
-17.744
-17.501
-17.29
-17.113
-16.973
-16.87
-16.805
-16.778
-16.788
-16.833
-16.913
-17.026
-17.171
-17.345
-17.547
-17.777
-18.032
-18.311
-18.613
-18.937
-19.28
-19.642
-20.021
-20.416
-20.825
-21.247
-21.681
-22.127
-22.582
-23.045
-23.517
-23.995
-24.478
-24.966
-25.456
-25.948
-26.44
-26.93
-27.417
-27.9
-28.377
-28.849
-29.312
-29.768
-30.214
-30.651
-31.078
-31.494
-31.898
-32.29
-32.669
-33.036
-33.39
-33.731
-34.058
-34.373
-34.675
-34.964
-35.241
-35.507
-35.761
-36.005
-36.239
-36.465
-36.683
-36.896
-37.104
-37.309
-37.512
-37.716
-37.921
-38.129
-38.343
-38.563
-38.792
-39.029
-39.278
-39.538
-39.811
-40.098
-40.398
-40.713
-41.042
-41.384
-41.739
-42.106
-42.484
-42.871
-43.267
-43.669
-44.076
-44.484
-44.891
-45.295
-45.691
-46.076
-46.447
-46.799
-47.128
-47.429
-47.699
-47.933
-48.125
-48.272
-48.368
-48.409
-48.39
-48.308
-48.158
-47.937
-47.642
-47.27
-46.821
-46.292
-45.685
-45.001
-44.239
-43.403
-42.495
-41.517
-40.474
-39.368
-38.206
-36.99
-35.726
-34.421
-33.081
-31.714
-30.328
-28.93
-27.527
-26.127
-24.74
-23.374
-22.037
-20.735
-19.473
-18.259
-17.1
-16.006
-14.983
-14.031
-13.15
-12.341
-11.6
-10.926
-10.308
-9.732
-9.179
-8.635
-8.086
-7.526
-6.946
-6.335
-5.68
-4.967
-4.185
-3.338
-2.432
-1.468
-0.455
0.593
1.644
2.644
3.531
4.241
4.716
4.909
4.774
4.275
3.365
1.993
0.112
-2.308
-5.297
-8.858
-13.013
-17.822
-23.217
-29.008
-34.913
-40.503
-45.407
-49.401
-52.155
-53.247
-52.572
-50.236
-46.65
-42.741
-39.164
-36.2
-34.41
-34.349
-36.04
-39.247
-43.01
-45.443
-45.293
-41.61
-32.782
-17.4
5.629
36.32
72.431
111.177
150.549
190.738
233.504
277.517
318.439
347.029
350.295
321.279
258.423
167.548
62.732
-46.403
-155.207
-263.885
-378.058
-497.114
-612.624
-711.51
-779.708
-810.498
-806.476
-776.68
-730.614
-674.497
-610.903
-539.345
-460.903
-379.151
-298.673
-225.185
-162.978
-113.877
-78.184
-54.833
-41.982
-37.727
-39.789
-45.295
-51.425
-55.783
-56.985
-54.762
-49.425
-41.57
-32.047
-21.963
-12.577
-5.131
-0.223
2.215
2.528
1.258
-1.033
-3.832
-6.51
-8.407
-9.164
-8.691
-7.042
-4.412
-0.955
3.23
7.987
13.136
18.528
24.028
29.533
34.98
40.277
45.322
50.019
54.272
58.031
61.287
64.046
66.338
68.201
69.674
70.811
71.676
72.328
72.829
73.232
73.585
73.938
74.344
74.855
75.525
76.392
77.478
78.801
80.37
82.191
84.268
86.597
89.168
91.969
94.995
98.24
101.703
105.38
109.262
113.334
117.584
121.991
126.535
131.189
135.917
140.681
145.451
150.203
154.917
159.585
164.19
168.719
173.161
177.497
181.71
185.785
189.702
193.446
197.016
200.415
203.667
206.803
209.832
212.754
215.558
218.208
220.671
222.903
224.842
226.443
227.669
228.483
228.866
228.799
228.247
227.172
225.52
223.227
220.257
216.592
212.223
207.178
201.493
195.226
188.463
181.283
173.748
165.919
157.838
149.548
141.104
132.565
123.996
115.478
107.075
98.838
90.819
83.043
75.522
68.254
61.212
54.371
47.724
41.265
35.002
28.948
23.106
17.48
12.076
6.89
1.917
-2.843
-7.396
-11.74
-15.866
-19.758
-23.394
-26.752
-29.819
-32.591
-35.065
-37.248
-39.144
-40.763
-42.119
-43.226
-44.095
-44.737
-45.163
-45.383
-45.413
-45.271
-44.973
-44.539
-43.986
-43.332
-42.591
-41.778
-40.907
-39.989
-39.035
-38.055
-37.057
-36.053
-35.051
-34.063
-33.095
-32.157
-31.255
-30.396
-29.586
-28.829
-28.128
-27.486
-26.904
-26.383
-25.924
-25.527
-25.19
-24.913
-24.692
-24.527
-24.414
-24.35
-24.333
-24.357
-24.42
-24.518
-24.647
-24.803
-24.982
-25.18
-25.395
-25.622
-25.859
-26.102
-26.349
-26.596
-26.842
-27.084
-27.319
-27.545
-27.761
-27.964
-28.155
-28.332
-28.494
-28.642
-28.775
-28.892
-28.996
-29.085
-29.161
-29.224
-29.275
-29.315
-29.346
-29.367
-29.381
-29.388
-29.39
-29.388
-29.384
-29.379
-29.374
-29.369
-29.367
-29.368
-29.373
-29.383
-29.399
-29.421
-29.451
-29.49
-29.537
-29.593
-29.66
-29.738
-29.828
-29.929
-30.044
-30.171
-30.312
-30.467
-30.637
-30.822
-31.022
-31.239
-31.473
-31.722
-31.989
-32.272
-32.571
-32.887
-33.217
-33.561
-33.919
-34.289
-34.669
-35.06
-35.458
-35.863
-36.273
-36.686
-37.1
-37.512
-37.92
-38.32
-38.711
-39.088
-39.448
-39.788
-40.105
-40.393
-40.65
-40.87
-41.05
-41.184
-41.268
-41.297
-41.268
-41.175
-41.016
-40.788
-40.486
-40.111
-39.661
-39.136
-38.535
-37.861
-37.112
-36.291
-35.4
-34.441
-33.416
-32.328
-31.18
-29.977
-28.724
-27.428
-26.096
-24.733
-23.347
-21.945
-20.536
-19.127
-17.728
-16.344
-14.985
-13.659
-12.374
-11.145
-9.98
-8.882
-7.852
-6.891
-5.996
-5.162
-4.384
-3.644
-2.93
-2.23
-1.53
-0.829
-0.118
0.609
1.363
2.16
3.006
3.896
4.821
5.769
6.72
7.655
8.542
9.323
9.946
10.358
10.498
10.332
9.821
8.921
7.607
5.842
3.585
0.819
-2.475
-6.316
-10.676
-15.558
-20.998
-26.881
-33.018
-39.142
-44.816
-49.686
-53.552
-56.076
-56.861
-55.843
-53.138
-49.185
-44.976
-41.207
-38.204
-36.548
-36.769
-38.848
-42.527
-46.804
-49.622
-49.51
-45.522
-36.093
-19.828
4.103
36.343
75.335
117.284
159.596
200.571
239.962
279.066
315.895
344.013
353.394
333.769
280.272
196.663
94.879
-12.855
-119.175
-223.751
-331.764
-443.704
-552.404
-644.768
-706.62
-731.742
-723.478
-691.664
-646.679
-595.23
-539.671
-479.187
-414.376
-347.597
-282.299
-223.322
-173.9
-134.987
-106.449
-86.82
-74.141
-67.152
-64.296
-63.39
-62.531
-60.048
-55.031
-47.678
-38.556
-28.144
-17.132
-6.395
3.184
10.637
15.509
17.966
18.341
17.105
14.757
11.718
8.498
5.665
3.565
2.356
2.084
2.649
3.97
5.996
8.623
11.736
15.229
18.996
22.955
27.04
31.169
35.263
39.242
43.021
46.529
49.703
52.504
54.928
56.987
58.707
60.125
61.278
62.215
62.998
63.68
64.313
64.945
65.613
66.358
67.226
68.26
69.5
70.978
72.711
74.713
76.992
79.552
82.395
85.516
88.901
92.535
96.409
100.514
104.843
109.391
114.144
119.082
124.186
129.439
134.816
140.291
145.829
151.386
156.926
162.422
167.852
173.199
178.444
183.566
188.545
193.366
198.015
202.482
206.753
210.807
214.642
218.262
221.685
224.947
228.061
231.021
233.821
236.44
238.857
241.053
242.994
244.627
245.919
246.834
247.343
247.427
247.042
246.128
244.624
242.458
239.588
236.004
231.692
226.652
220.901
214.453
207.357
199.685
191.48
182.785
173.656
164.14
154.33
144.34
134.271
124.228
114.292
104.52
94.981
85.737
76.829
68.296
60.158
52.412
45.097
38.249
31.876
25.986
20.543
15.484
10.772
6.374
2.26
-1.585
-5.186
-8.57
-11.743
-14.711
-17.479
-20.05
-22.457
-24.735
-26.895
-28.94
-30.852
-32.595
-34.154
-35.524
-36.692
-37.659
-38.423
-38.984
-39.357
-39.563
-39.615
-39.522
-39.282
-38.89
-38.356
-37.695
-36.929
-36.088
-35.193
-34.263
-33.319
-32.38
-31.46
-30.57
-29.714
-28.892
-28.108
-27.368
-26.679
-26.049
-25.482
-24.978
-24.54
-24.164
-23.849
-23.593
-23.39
-23.235
-23.126
-23.06
-23.035
-23.05
-23.103
-23.192
-23.315
-23.467
-23.645
-23.847
-24.068
-24.303
-24.55
-24.804
-25.063
-25.325
-25.587
-25.847
-26.102
-26.35
-26.59
-26.82
-27.038
-27.243
-27.433
-27.609
-27.769
-27.913
-28.04
-28.152
-28.248
-28.329
-28.396
-28.448
-28.488
-28.516
-28.532
-28.538
-28.535
-28.523
-28.504
-28.48
-28.45
-28.418
-28.383
-28.349
-28.315
-28.284
-28.257
-28.235
-28.219
-28.212
-28.214
-28.227
-28.252
-28.292
-28.347
-28.42
-28.512
-28.623
-28.756
-28.912
-29.091
-29.293
-29.519
-29.769
-30.042
-30.339
-30.658
-30.999
-31.361
-31.742
-32.142
-32.559
-32.99
-33.435
-33.889
-34.351
-34.818
-35.286
-35.752
-36.212
-36.662
-37.099
-37.518
-37.915
-38.284
-38.62
-38.919
-39.174
-39.381
-39.535
-39.632
-39.666
-39.634
-39.535
-39.364
-39.122
-38.808
-38.422
-37.962
-37.43
-36.826
-36.153
-35.41
-34.601
-33.728
-32.794
-31.806
-30.768
-29.688
-28.571
-27.425
-26.256
-25.07
-23.877
-22.682
-21.493
-20.317
-19.162
-18.037
-16.957
-15.927
-14.953
-14.035
-13.173
-12.363
-11.603
-10.882
-10.189
-9.511
-8.839
-8.164
-7.484
-6.789
-6.071
-5.321
-4.523
-3.672
-2.771
-1.826
-0.846
0.151
1.146
2.107
2.986
3.742
4.336
4.723
4.861
4.706
4.208
3.33
2.05
0.34
-1.824
-4.467
-7.61
-11.26
-15.389
-19.981
-25.051
-30.51
-36.181
-41.786
-46.897
-51.14
-54.291
-56.038
-55.992
-54.103
-50.54
-45.786
-40.856
-36.491
-33.044
-31.119
-31.261
-33.419
-37.252
-41.687
-44.703
-44.913
-41.246
-32.04
-16.004
7.776
39.36
76.553
116.328
156.429
195.89
235.757
276.3
314.429
343.266
351.537
328.622
270.727
181.584
72.26
-43.784
-159.999
-276.66
-395.245
-515.769
-629.481
-720.213
-776.988
-795.148
-779.014
-741.58
-691.76
-634.597
-572.307
-503.179
-428.711
-352.791
-279.541
-214.043
-159.538
-117.056
-86.556
-66.604
-55.207
-50.693
-50.957
-53.724
-56.886
-58.424
-57.275
-53.399
-47.17
-39.15
-30.162
-21.061
-12.81
-6.502
-2.597
-0.983
-1.344
-3.139
-5.818
-8.917
-11.866
-14.042
-15.117
-14.989
-13.683
-11.382
-8.228
-4.317
0.194
5.132
10.35
15.712
21.111
26.477
31.711
36.708
41.371
45.603
49.351
52.6
55.354
57.641
59.496
60.959
62.084
62.933
63.567
64.045
64.423
64.747
65.067
65.437
65.909
66.537
67.355
68.388
69.653
71.161
72.919
74.932
77.197
79.704
82.443
85.412
88.606
92.027
95.669
99.517
103.558
107.774
112.148
116.659
121.281
125.976
130.709
135.452
140.186
144.898
149.571
154.189
158.73
163.175
167.516
171.748
175.862
179.848
183.697
187.408
190.996
194.493
197.923
201.296
204.602
207.821
210.935
213.923
216.758
219.412
221.831
223.968
225.784
227.238
228.295
228.91
229.015
228.528
227.379
225.509
222.888
219.504
215.348
210.426
204.748
198.333
191.238
183.515
175.212
166.392
157.115
147.452
137.507
127.396
117.236
107.154
97.244
87.583
78.251
69.308
60.816
52.837
45.399
38.525
32.236
26.531
21.414
16.88
12.893
9.397
6.329
3.606
1.163
-1.041
-3.057
-4.923
-6.679
-8.382
-10.06
-11.732
-13.415
-15.118
-16.85
-18.622
-20.424
-22.228
-24.003
-25.7
-27.289
-28.754
-30.077
-31.249
-32.257
-33.083
-33.72
-34.178
-34.46
-34.572
-34.523
-34.312
-33.954
-33.474
-32.894
-32.246
-31.552
-30.826
-30.081
-29.329
-28.581
-27.847
-27.13
-26.431
-25.751
-25.091
-24.454
-23.846
-23.266
-22.712
-22.181
-21.671
-21.18
-20.707
-20.253
-19.816
-19.396
-18.996
-18.616
-18.26
-17.929
-17.623
-17.343
-17.089
-16.859
-16.654
-16.474
-16.317
-16.183
-16.072
-15.983
-15.916
-15.871
-15.848
-15.846
-15.864
-15.904
-15.963
-16.042
-16.141
-16.259
-16.395
-16.548
-16.719
-16.906
-17.109
-17.325
-17.555
-17.797
-18.049
-18.311
-18.581
-18.857
-19.139
-19.426
-19.716
-20.008
-20.302
-20.597
-20.893
-21.189
-21.485
-21.78
-22.076
-22.371
-22.665
-22.96
-23.256
-23.552
-23.851
-24.152
-24.456
-24.766
-25.081
-25.403
-25.734
-26.074
-26.425
-26.787
-27.163
-27.551
-27.953
-28.37
-28.802
-29.248
-29.71
-30.187
-30.678
-31.183
-31.701
-32.231
-32.77
-33.316
-33.868
-34.422
-34.975
-35.524
-36.064
-36.592
-37.104
-37.593
-38.057
-38.489
-38.883
-39.235
-39.538
-39.787
-39.978
-40.104
-40.162
-40.147
-40.058
-39.89
-39.644
-39.318
-38.911
-38.422
-37.853
-37.204
-36.476
-35.672
-34.794
-33.844
-32.828
-31.751
-30.62
-29.443
-28.226
-26.976
-25.702
-24.412
-23.117
-21.824
-20.541
-19.276
-18.038
-16.839
-15.69
-14.602
-13.577
-12.617
-11.722
-10.89
-10.12
-9.404
-8.73
-8.085
-7.461
-6.848
-6.247
-5.653
-5.057
-4.45
-3.819
-3.157
-2.469
-1.761
-1.038
-0.317
0.392
1.061
1.644
2.104
2.4
2.486
2.335
1.911
1.179
0.117
-1.307
-3.133
-5.384
-8.089
-11.274
-14.926
-19.065
-23.732
-28.87
-34.34
-39.91
-45.207
-49.902
-53.77
-56.533
-57.833
-57.457
-55.462
-52.23
-48.522
-45.116
-42.452
-40.904
-41.034
-43.167
-47.116
-52.175
-56.852
-59.338
-58.456
-53.183
-41.976
-23.625
2.543
36.831
77.312
120.408
163.653
204.215
240.994
276.009
307.741
332.197
341.661
323.043
269.901
183.677
72.397
-48.602
-170.398
-292.067
-413.267
-534.323
-647.403
-736.731
-792.173
-809.666
-793.69
-757.108
-708.512
-652.521
-591.129
-522.835
-449.307
-374.458
-302.323
-237.655
-183.429
-140.593
-109.08
-87.514
-73.999
-66.962
-64.442
-64.358
-64.775
-63.794
-60.447
-54.749
-47.085
-38.01
-28.295
-18.714
-10.161
-3.683
0.276
1.834
1.307
-0.762
-3.837
-7.469
-11.099
-14.1
-16.096
-16.937
-16.614
-15.273
-13.042
-10.001
-6.286
-2.059
2.538
7.371
12.331
17.343
22.322
27.163
31.773
36.054
39.925
43.35
46.317
48.836
50.938
52.658
54.04
55.139
56.021
56.747
57.377
57.965
58.557
59.203
59.957
60.866
61.979
63.327
64.927
66.791
68.927
71.335
74.015
76.96
80.155
83.592
87.26
91.15
95.255
99.561
104.054
108.718
113.536
118.491
123.567
128.743
134.003
139.325
144.689
150.075
155.463
160.829
166.149
171.399
176.554
181.587
186.475
191.192
195.713
200.014
204.074
207.869
211.38
214.588
217.474
220.021
222.215
224.042
225.49
226.549
227.209
227.466
227.313
226.748
225.77
224.379
222.58
220.376
217.773
214.781
211.409
207.67
203.576
199.143
194.386
189.325
183.978
178.365
172.508
166.43
160.154
153.703
147.102
140.375
133.547
126.644
119.689
112.707
105.723
98.761
91.842
84.991
78.227
71.573
65.048
58.67
52.456
46.424
40.587
34.958
29.551
24.374
19.439
14.752
10.319
6.145
2.234
-1.413
-4.795
-7.914
-10.772
-13.373
-15.722
-17.825
-19.691
-21.326
-22.74
-23.944
-24.948
-25.762
-26.4
-26.873
-27.193
-27.373
-27.425
-27.362
-27.196
-26.939
-26.603
-26.199
-25.739
-25.232
-24.69
-24.122
-23.536
-22.942
-22.348
-21.761
-21.188
-20.635
-20.107
-19.609
-19.146
-18.719
-18.333
-17.988
-17.686
-17.428
-17.214
-17.043
-16.915
-16.828
-16.78
-16.77
-16.795
-16.854
-16.942
-17.059
-17.201
-17.365
-17.549
-17.751
-17.968
-18.197
-18.437
-18.684
-18.938
-19.195
-19.454
-19.713
-19.97
-20.224
-20.473
-20.716
-20.953
-21.182
-21.404
-21.617
-21.823
-22.02
-22.21
-22.393
-22.57
-22.741
-22.909
-23.073
-23.235
-23.397
-23.559
-23.722
-23.888
-24.058
-24.233
-24.413
-24.6
-24.794
-24.997
-25.208
-25.429
-25.659
-25.901
-26.153
-26.417
-26.694
-26.983
-27.285
-27.6
-27.929
-28.272
-28.628
-28.998
-29.382
-29.778
-30.188
-30.609
-31.042
-31.486
-31.94
-32.404
-32.875
-33.355
-33.84
-34.33
-34.824
-35.319
-35.813
-36.306
-36.795
-37.279
-37.755
-38.222
-38.678
-39.119
-39.545
-39.952
-40.337
-40.699
-41.033
-41.338
-41.609
-41.844
-42.041
-42.195
-42.304
-42.365
-42.375
-42.331
-42.229
-42.067
-41.843
-41.553
-41.197
-40.772
-40.278
-39.714
-39.083
-38.384
-37.622
-36.796
-35.91
-34.967
-33.97
-32.923
-31.829
-30.692
-29.517
-28.309
-27.073
-25.818
-24.55
-23.276
-22.002
-20.736
-19.485
-18.256
-17.058
-15.896
-14.776
-13.703
-12.686
-11.734
-10.855
-10.049
-9.315
-8.651
-8.054
-7.517
-7.033
-6.582
-6.15
-5.72
-5.279
-4.818
-4.329
-3.799
-3.217
-2.566
-1.843
-1.051
-0.201
0.698
1.63
2.577
3.501
4.344
5.051
5.565
5.823
5.776
5.364
4.538
3.265
1.509
-0.764
-3.576
-6.946
-10.896
-15.402
-20.455
-26.073
-32.138
-38.451
-44.722
-50.491
-55.351
-59.037
-61.193
-61.413
-59.654
-56.08
-51.172
-45.961
-41.227
-37.406
-35.178
-35.141
-37.258
-41.159
-45.766
-49.036
-49.455
-45.783
-36.224
-19.282
6.024
39.469
78.761
120.906
163.197
205.001
247.429
288.784
325.071
347.757
344.061
307.006
235.844
137.161
24.855
-90.794
-206.133
-322.73
-443.029
-564.138
-675.222
-760.085
-808.159
-816.887
-791.862
-746.194
-689.21
-625.777
-558.141
-485.169
-408.484
-332.117
-260.408
-198.059
-147.617
-109.535
-83.19
-66.746
-58.138
-55.463
-56.303
-58.389
-59.868
-59.138
-55.608
-49.533
-41.395
-31.91
-22.057
-12.709
-4.735
1.028
4.381
5.555
4.924
3.05
0.49
-2.289
-4.763
-6.416
-7.011
-6.485
-4.888
-2.39
0.881
4.82
9.28
14.1
19.142
24.283
29.427
34.499
39.407
44.055
48.353
52.216
55.6
58.494
60.904
62.863
64.405
65.574
66.429
67.033
67.45
67.743
67.967
68.175
68.419
68.754
69.232
69.904
70.805
71.959
73.382
75.082
77.064
79.329
81.873
84.686
87.76
91.086
94.658
98.469
102.508
106.761
111.215
115.852
120.655
125.608
130.693
135.89
141.179
146.538
151.946
157.382
162.821
168.237
173.605
178.896
184.084
189.141
194.04
198.754
203.256
207.523
211.529
215.253
218.673
221.768
224.521
226.914
228.931
230.559
231.787
232.603
233
232.971
232.514
231.625
230.305
228.556
226.383
223.791
220.79
217.388
213.599
209.435
204.914
200.052
194.868
189.383
183.618
177.597
171.342
164.879
158.232
151.428
144.492
137.451
130.33
123.157
115.956
108.753
101.574
94.442
87.381
80.415
73.565
66.851
60.294
53.912
47.722
41.739
35.977
30.451
25.169
20.143
15.38
10.886
6.665
2.721
-0.946
-4.336
-7.45
-10.291
-12.866
-15.179
-17.237
-19.049
-20.623
-21.971
-23.102
-24.029
-24.763
-25.316
-25.702
-25.934
-26.024
-25.986
-25.834
-25.58
-25.237
-24.817
-24.334
-23.8
-23.224
-22.62
-21.995
-21.362
-20.727
-20.099
-19.486
-18.894
-18.329
-17.795
-17.298
-16.84
-16.424
-16.052
-15.725
-15.444
-15.21
-15.021
-14.877
-14.776
-14.717
-14.698
-14.716
-14.77
-14.856
-14.972
-15.116
-15.283
-15.472
-15.678
-15.9
-16.134
-16.377
-16.626
-16.879
-17.133
-17.386
-17.636
-17.882
-18.121
-18.352
-18.574
-18.786
-18.988
-19.179
-19.359
-19.528
-19.686
-19.834
-19.972
-20.101
-20.221
-20.333
-20.437
-20.535
-20.626
-20.712
-20.794
-20.871
-20.945
-21.016
-21.086
-21.156
-21.225
-21.295
-21.368
-21.443
-21.522
-21.606
-21.695
-21.791
-21.893
-22.003
-22.122
-22.251
-22.389
-22.539
-22.7
-22.873
-23.058
-23.257
-23.47
-23.698
-23.941
-24.201
-24.478
-24.773
-25.089
-25.425
-25.782
-26.162
-26.565
-26.992
-27.442
-27.916
-28.413
-28.932
-29.473
-30.035
-30.615
-31.213
-31.827
-32.454
-33.091
-33.737
-34.387
-35.039
-35.689
-36.334
-36.968
-37.588
-38.19
-38.769
-39.32
-39.838
-40.317
-40.752
-41.137
-41.466
-41.732
-41.931
-42.055
-42.099
-42.06
-41.932
-41.711
-41.394
-40.98
-40.469
-39.859
-39.151
-38.345
-37.444
-36.448
-35.362
-34.188
-32.93
-31.593
-30.181
-28.703
-27.167
-25.58
-23.953
-22.292
-20.608
-18.91
-17.208
-15.512
-13.83
-12.173
-10.552
-8.977
-7.465
-6.026
-4.665
-3.387
-2.193
-1.08
-0.044
0.921
1.831
2.695
3.523
4.323
5.1
5.86
6.614
7.371
8.145
8.946
9.772
10.621
11.488
12.352
13.191
13.974
14.651
15.181
15.526
15.642
15.484
15.012
14.181
12.957
11.32
9.243
6.697
3.655
0.089
-3.996
-8.563
-13.588
-19.071
-24.932
-31.01
-37.031
-42.561
-47.223
-50.763
-52.887
-53.242
-51.683
-48.297
-43.489
-38.196
-33.287
-29.281
-26.748
-26.233
-27.886
-31.509
-36.29
-40.402
-42.022
-39.837
-32.293
-17.9
4.356
35.135
73.375
115.865
159.587
202.358
243.643
284.017
321.3
349.376
358.287
338.194
284.589
200.634
97.088
-15.081
-128.522
-241.963
-360.1
-482.81
-604.258
-712.671
-790.958
-830.672
-832.232
-802.273
-753.477
-692.095
-618.748
-534.351
-440.18
-344.553
-259.307
-192.06
-145.312
-114.491
-92.591
-75.373
-61.701
-53.374
-51.176
-53.496
-57.494
-59.636
-58.186
-53.252
-45.406
-35.684
-25.172
-14.759
-5.553
1.355
5.595
7.313
6.872
4.863
1.867
-1.604
-4.923
-7.457
-8.889
-9.122
-8.192
-6.268
-3.475
0.096
4.297
8.957
13.934
19.092
24.329
29.572
34.719
39.658
44.279
48.476
52.189
55.398
58.104
60.326
62.093
63.441
64.424
65.105
65.548
65.812
65.954
66.023
66.077
66.175
66.376
66.738
67.303
68.099
69.145
70.453
72.032
73.884
76.003
78.38
81.009
83.887
87.015
90.392
94.008
97.852
101.909
106.156
110.57
115.119
119.767
124.488
129.258
134.058
138.882
143.716
148.548
153.368
158.155
162.889
167.556
172.133
176.602
180.957
185.199
189.342
193.415
197.419
201.35
205.191
208.903
212.448
215.78
218.836
221.567
223.931
225.889
227.417
228.491
229.072
229.119
228.577
227.379
225.486
222.878
219.546
215.512
210.809
205.486
199.626
193.3
186.566
179.482
172.087
164.42
156.536
148.49
140.346
132.183
124.061
116.031
108.143
100.421
92.879
85.519
78.317
71.253
64.321
57.523
50.867
44.372
38.042
31.885
25.913
20.123
14.516
9.097
3.862
-1.18
-6.017
-10.631
-14.996
-19.088
-22.892
-26.399
-29.605
-32.513
-35.125
-37.446
-39.489
-41.262
-42.775
-44.036
-45.053
-45.835
-46.396
-46.749
-46.912
-46.902
-46.735
-46.426
-45.991
-45.443
-44.797
-44.063
-43.253
-42.376
-41.444
-40.469
-39.46
-38.43
-37.388
-36.343
-35.306
-34.285
-33.288
-32.32
-31.387
-30.494
-29.646
-28.846
-28.096
-27.4
-26.758
-26.173
-25.645
-25.174
-24.76
-24.402
-24.1
-23.851
-23.655
-23.509
-23.41
-23.357
-23.347
-23.378
-23.446
-23.549
-23.685
-23.851
-24.043
-24.258
-24.495
-24.75
-25.019
-25.301
-25.593
-25.893
-26.197
-26.505
-26.815
-27.124
-27.431
-27.735
-28.033
-28.325
-28.609
-28.884
-29.149
-29.404
-29.646
-29.877
-30.094
-30.298
-30.488
-30.664
-30.825
-30.973
-31.106
-31.226
-31.332
-31.425
-31.505
-31.573
-31.63
-31.676
-31.713
-31.741
-31.761
-31.774
-31.781
-31.783
-31.782
-31.778
-31.773
-31.769
-31.766
-31.768
-31.774
-31.788
-31.811
-31.845
-31.892
-31.953
-32.03
-32.126
-32.241
-32.378
-32.538
-32.721
-32.93
-33.165
-33.425
-33.712
-34.026
-34.365
-34.729
-35.117
-35.528
-35.96
-36.411
-36.88
-37.364
-37.861
-38.368
-38.883
-39.401
-39.918
-40.432
-40.938
-41.43
-41.905
-42.357
-42.781
-43.173
-43.527
-43.837
-44.098
-44.305
-44.453
-44.536
-44.551
-44.492
-44.356
-44.141
-43.844
-43.463
-42.999
-42.453
-41.825
-41.116
-40.33
-39.468
-38.535
-37.533
-36.468
-35.343
-34.163
-32.934
-31.664
-30.361
-29.033
-27.687
-26.332
-24.976
-23.63
-22.304
-21.006
-19.743
-18.522
-17.351
-16.239
-15.198
-14.233
-13.349
-12.545
-11.823
-11.179
-10.614
-10.116
-9.67
-9.26
-8.871
-8.491
-8.117
-7.739
-7.348
-6.931
-6.474
-5.969
-5.422
-4.834
-4.21
-3.556
-2.884
-2.225
-1.632
-1.157
-0.857
-0.779
-0.962
-1.446
-2.264
-3.452
-5.062
-7.125
-9.673
-12.729
-16.295
-20.395
-25.076
-30.288
-35.869
-41.564
-46.993
-51.813
-55.796
-58.656
-60.021
-59.674
-57.66
-54.347
-50.477
-46.767
-43.599
-41.339
-40.555
-41.6
-44.343
-48.078
-51.324
-52.447
-50.423
-44.171
-32.049
-12.668
14.789
49.618
89.088
130.441
172.112
214.363
257.735
299.883
334.666
351.827
341.349
298.615
226.147
133.844
32.491
-70.776
-174.973
-284.916
-401.286
-519.089
-626.857
-707.444
-751.455
-757.916
-732.861
-689.563
-637.024
-579.326
-518.072
-451.721
-381.444
-310.929
-244.296
-185.992
-138.44
-102.164
-76.697
-60.447
-51.641
-48.64
-49.278
-51.496
-53.537
-53.791
-51.589
-47.07
-40.595
-32.78
-24.493
-16.521
-9.689
-4.826
-2.153
-1.485
-2.49
-4.631
-7.382
-10.29
-12.832
-14.52
-15.13
-14.604
-12.999
-10.479
-7.165
-3.167
1.363
6.266
11.399
16.644
21.91
27.109
32.146
36.914
41.31
45.267
48.76
51.781
54.346
56.485
58.229
59.629
60.746
61.635
62.355
62.957
63.489
64.004
64.559
65.209
66.009
67.001
68.213
69.667
71.377
73.35
75.59
78.092
80.846
83.848
87.095
90.587
94.322
98.29
102.477
106.868
111.443
116.178
121.045
126.004
131.026
136.085
141.164
146.253
151.341
156.41
161.445
166.428
171.342
176.179
180.923
185.552
190.058
194.438
198.708
202.903
207.039
211.108
215.091
218.949
222.645
226.147
229.412
232.384
235.017
237.265
239.1
240.515
241.479
241.949
241.858
241.107
239.637
237.422
234.455
230.754
226.344
221.246
215.51
209.211
202.409
195.156
187.484
179.388
170.903
162.094
153.053
143.912
134.77
125.691
116.733
107.936
99.332
90.961
82.831
74.922
67.235
59.785
52.611
45.792
39.362
33.325
27.658
22.304
17.224
12.405
7.828
3.481
-0.647
-4.568
-8.273
-11.733
-14.937
-17.891
-20.62
-23.178
-25.594
-27.873
-30.005
-31.962
-33.727
-35.297
-36.663
-37.817
-38.754
-39.475
-39.994
-40.338
-40.527
-40.57
-40.468
-40.21
-39.798
-39.243
-38.564
-37.785
-36.928
-36.008
-35.045
-34.063
-33.078
-32.106
-31.153
-30.22
-29.312
-28.433
-27.593
-26.801
-26.064
-25.385
-24.765
-24.207
-23.71
-23.275
-22.9
-22.581
-22.316
-22.103
-21.941
-21.83
-21.77
-21.759
-21.794
-21.872
-21.991
-22.148
-22.338
-22.556
-22.799
-23.063
-23.343
-23.635
-23.936
-24.242
-24.548
-24.852
-25.149
-25.437
-25.712
-25.972
-26.213
-26.434
-26.633
-26.808
-26.958
-27.081
-27.178
-27.247
-27.288
-27.302
-27.289
-27.25
-27.184
-27.094
-26.98
-26.845
-26.689
-26.516
-26.327
-26.125
-25.912
-25.692
-25.468
-25.243
-25.019
-24.799
-24.588
-24.387
-24.2
-24.029
-23.878
-23.748
-23.642
-23.562
-23.508
-23.483
-23.487
-23.52
-23.584
-23.676
-23.799
-23.95
-24.128
-24.332
-24.56
-24.811
-25.08
-25.365
-25.663
-25.969
-26.281
-26.592
-26.9
-27.198
-27.482
-27.747
-27.986
-28.195
-28.369
-28.5
-28.585
-28.617
-28.593
-28.507
-28.357
-28.14
-27.853
-27.496
-27.069
-26.57
-26
-25.361
-24.653
-23.879
-23.042
-22.143
-21.186
-20.175
-19.116
-18.016
-16.88
-15.717
-14.531
-13.332
-12.126
-10.923
-9.73
-8.555
-7.404
-6.284
-5.204
-4.177
-3.21
-2.307
-1.47
-0.698
0.01
0.657
1.25
1.803
2.332
2.85
3.37
3.899
4.446
5.021
5.637
6.31
7.048
7.848
8.705
9.612
10.557
11.523
12.476
13.361
14.124
14.708
15.051
15.103
14.808
14.114
12.988
11.385
9.264
6.598
3.361
-0.468
-4.867
-9.825
-15.357
-21.34
-27.577
-33.788
-39.54
-44.469
-48.347
-50.846
-51.583
-50.489
-47.674
-43.528
-38.938
-34.535
-30.627
-27.776
-26.512
-26.838
-28.518
-30.679
-31.567
-29.939
-24.788
-14.551
2.123
26.22
57.552
93.856
132.274
170.266
207.85
247.354
287.793
325.318
350.562
348.771
312.677
242.389
144.917
35.904
-75.632
-188.582
-302.219
-418.099
-530.054
-623.194
-687.345
-717.122
-715.259
-693.44
-659.826
-618.694
-571.652
-516.356
-453.625
-387.062
-320.118
-257.371
-201.888
-154.84
-117.137
-88.643
-68.275
-54.911
-47.315
-43.757
-42.607
-42.283
-41.107
-38.233
-33.61
-27.385
-19.944
-11.94
-3.964
3.228
8.714
12.154
13.634
13.384
11.863
9.535
6.782
4.112
2.093
1.018
0.999
2.027
3.946
6.642
10.031
13.971
18.303
22.884
27.593
32.341
37.064
41.679
46.089
50.201
53.922
57.203
60.028
62.395
64.331
65.864
67.033
67.891
68.499
68.916
69.2
69.401
69.565
69.743
69.987
70.347
70.875
71.608
72.569
73.776
75.237
76.959
78.943
81.185
83.676
86.407
89.371
92.562
95.974
99.598
103.421
107.429
111.607
115.939
120.409
125.001
129.697
134.478
139.324
144.216
149.136
154.06
158.965
163.828
168.622
173.323
177.906
182.344
186.613
190.689
194.548
198.168
201.527
204.605
207.383
209.843
211.968
213.743
215.155
216.192
216.845
217.104
216.964
216.42
215.47
214.113
212.35
210.184
207.622
204.669
201.335
197.63
193.567
189.158
184.421
179.371
174.027
168.41
162.539
156.436
150.125
143.629
136.972
130.177
123.27
116.276
109.218
102.122
95.011
87.911
80.843
73.831
66.897
60.061
53.345
46.766
40.343
34.091
28.027
22.164
16.515
11.091
5.902
0.956
-3.74
-8.181
-12.363
-16.284
-19.944
-23.342
-26.481
-29.365
-31.998
-34.386
-36.536
-38.456
-40.154
-41.641
-42.926
-44.021
-44.937
-45.685
-46.277
-46.726
-47.043
-47.24
-47.33
-47.323
-47.231
-47.064
-46.834
-46.55
-46.221
-45.858
-45.469
-45.062
-44.644
-44.222
-43.802
-43.389
-42.989
-42.605
-42.24
-41.897
-41.579
-41.285
-41.018
-40.777
-40.562
-40.372
-40.205
-40.061
-39.937
-39.831
-39.741
-39.665
-39.6
-39.544
-39.494
-39.45
-39.407
-39.366
-39.323
-39.277
-39.226
-39.169
-39.105
-39.032
-38.949
-38.856
-38.752
-38.636
-38.509
-38.37
-38.22
-38.06
-37.889
-37.709
-37.52
-37.325
-37.125
-36.921
-36.716
-36.51
-36.307
-36.108
-35.915
-35.73
-35.555
-35.392
-35.242
-35.107
-34.988
-34.885
-34.801
-34.737
-34.693
-34.67
-34.669
-34.69
-34.736
-34.805
-34.899
-35.018
-35.162
-35.332
-35.528
-35.749
-35.997
-36.27
-36.568
-36.891
-37.239
-37.609
-38.001
-38.414
-38.845
-39.292
-39.755
-40.229
-40.714
-41.207
-41.705
-42.207
-42.709
-43.209
-43.705
-44.193
-44.671
-45.136
-45.584
-46.013
-46.418
-46.796
-47.145
-47.459
-47.736
-47.971
-48.161
-48.301
-48.388
-48.419
-48.389
-48.295
-48.135
-47.907
-47.608
-47.237
-46.795
-46.282
-45.699
-45.048
-44.33
-43.549
-42.707
-41.809
-40.856
-39.855
-38.806
-37.716
-36.589
-35.432
-34.249
-33.049
-31.837
-30.621
-29.407
-28.202
-27.016
-25.856
-24.727
-23.634
-22.582
-21.579
-20.635
-19.757
-18.946
-18.2
-17.516
-16.891
-16.322
-15.798
-15.302
-14.814
-14.316
-13.795
-13.247
-12.665
-12.038
-11.353
-10.59
-9.744
-8.82
-7.83
-6.786
-5.7
-4.586
-3.484
-2.457
-1.57
-0.894
-0.48
-0.364
-0.592
-1.197
-2.23
-3.75
-5.796
-8.397
-11.565
-15.289
-19.579
-24.486
-29.938
-35.743
-41.62
-47.137
-51.931
-55.777
-58.367
-59.319
-58.448
-55.803
-51.766
-47.199
-42.884
-39.289
-36.921
-36.29
-37.607
-40.709
-44.779
-48.151
-49.149
-46.372
-38.292
-23.518
-0.858
29.836
66.883
107.841
150.059
192.275
235.467
279.113
319.869
351.228
362.059
342.677
289.656
205.155
99.114
-15.345
-129.714
-239.657
-346.138
-452.737
-557.999
-655.261
-733.285
-780.64
-792.597
-771.606
-727.316
-670.614
-607.609
-541.177
-469.833
-392.455
-313.729
-239.089
-175.159
-127.374
-93.969
-72.29
-59.113
-50.229
-45.65
-44.743
-45.621
-47.433
-47.882
-45.527
-40.709
-33.699
-25.19
-16.288
-7.756
-0.416
4.831
7.753
8.563
7.618
5.463
2.645
-0.386
-3.12
-5.032
-5.875
-5.589
-4.23
-1.97
1.058
4.75
8.964
13.545
18.36
23.291
28.24
33.135
37.886
42.397
46.58
50.348
53.655
56.489
58.858
60.792
62.327
63.503
64.374
64.999
65.438
65.748
65.982
66.187
66.413
66.711
67.131
67.722
68.519
69.542
70.805
72.316
74.075
76.085
78.34
80.829
83.543
86.474
89.615
92.961
96.503
100.228
104.121
108.169
112.356
116.668
121.088
125.599
130.185
134.826
139.504
144.202
148.9
153.575
158.206
162.767
167.237
171.592
175.809
179.864
183.736
187.402
190.844
194.041
196.976
199.631
201.992
204.043
205.772
207.166
208.216
208.913
209.251
209.223
208.827
208.062
206.927
205.424
203.557
201.331
198.755
195.835
192.582
189.008
185.126
180.951
176.497
171.783
166.825
161.644
156.26
150.692
144.962
139.091
133.102
127.016
120.855
114.642
108.397
102.143
95.9
89.69
83.533
77.448
71.454
65.568
59.807
54.187
48.721
43.424
38.307
33.381
28.656
24.14
19.839
15.76
11.907
8.283
4.89
1.728
-1.205
-3.908
-6.387
-8.645
-10.687
-12.519
-14.148
-15.582
-16.83
-17.899
-18.801
-19.544
-20.14
-20.598
-20.93
-21.147
-21.258
-21.275
-21.208
-21.068
-20.863
-20.603
-20.298
-19.956
-19.585
-19.193
-18.786
-18.373
-17.958
-17.547
-17.145
-16.758
-16.388
-16.038
-15.713
-15.413
-15.141
-14.897
-14.683
-14.499
-14.344
-14.218
-14.12
-14.048
-14.001
-13.977
-13.974
-13.989
-14.02
-14.066
-14.123
-14.189
-14.262
-14.341
-14.423
-14.506
-14.589
-14.669
-14.745
-14.816
-14.88
-14.936
-14.982
-15.019
-15.044
-15.058
-15.059
-15.046
-15.021
-14.981
-14.928
-14.861
-14.781
-14.688
-14.582
-14.465
-14.337
-14.199
-14.053
-13.9
-13.741
-13.577
-13.41
-13.242
-13.072
-12.904
-12.737
-12.573
-12.414
-12.26
-12.113
-11.975
-11.846
-11.728
-11.622
-11.531
-11.454
-11.395
-11.353
-11.332
-11.331
-11.354
-11.401
-11.474
-11.573
-11.701
-11.858
-12.044
-12.26
-12.506
-12.782
-13.086
-13.419
-13.779
-14.165
-14.577
-15.011
-15.468
-15.945
-16.44
-16.95
-17.473
-18.007
-18.547
-19.09
-19.634
-20.173
-20.704
-21.223
-21.724
-22.204
-22.657
-23.079
-23.463
-23.805
-24.099
-24.34
-24.523
-24.644
-24.699
-24.685
-24.6
-24.441
-24.208
-23.901
-23.519
-23.063
-22.534
-21.933
-21.263
-20.526
-19.723
-18.859
-17.938
-16.965
-15.946
-14.887
-13.793
-12.672
-11.53
-10.376
-9.218
-8.064
-6.918
-5.788
-4.681
-3.606
-2.574
-1.593
-0.664
0.209
1.026
1.787
2.493
3.152
3.779
4.387
4.993
5.604
6.225
6.862
7.523
8.218
8.962
9.757
10.599
11.483
12.402
13.346
14.301
15.232
16.083
16.797
17.308
17.56
17.514
17.125
16.359
15.174
13.514
11.341
8.621
5.326
1.454
-3.021
-8.151
-13.89
-20.07
-26.429
-32.575
-38.156
-42.947
-46.67
-48.962
-49.612
-48.667
-46.475
-43.757
-41.214
-39.187
-37.971
-38.043
-39.65
-42.609
-46.271
-49.255
-49.945
-47.372
-40.724
-28.645
-10.083
15.517
48.41
86.701
126.972
167.077
204.649
238.786
271.387
300.905
323.118
330.415
310.685
257.45
171.998
63.218
-54.17
-170.397
-283.36
-395.705
-509.555
-619.442
-712.555
-775.548
-801.224
-791.862
-757.355
-707.942
-650.613
-588.152
-519.796
-446.353
-370.475
-295.957
-228.182
-170.886
-125.43
-91.931
-68.981
-54.576
-47.351
-45.531
-46.627
-48.345
-48.622
-46.272
-41.324
-34.251
-25.493
-15.734
-5.918
2.933
9.703
13.85
15.534
15.137
13.178
10.191
6.658
3.148
0.297
-1.51
-2.153
-1.646
-0.147
2.204
5.323
9.074
13.294
17.842
22.584
27.411
32.249
37.011
41.598
45.919
49.883
53.414
56.483
59.083
61.229
62.956
64.299
65.304
66.026
66.528
66.874
67.122
67.326
67.532
67.791
68.152
68.663
69.368
70.296
71.462
72.878
74.548
76.474
78.653
81.079
83.738
86.622
89.72
93.024
96.526
100.215
104.077
108.096
112.257
116.545
120.943
125.436
130.005
134.633
139.301
143.991
148.683
153.358
157.994
162.568
167.058
171.44
175.694
179.797
183.726
187.46
190.98
194.266
197.3
200.064
202.543
204.722
206.585
208.122
209.32
210.17
210.664
210.794
210.556
209.946
208.962
207.604
205.873
203.772
201.306
198.481
195.305
191.786
187.937
183.769
179.296
174.532
169.493
164.198
158.663
152.907
146.952
140.816
134.521
128.089
121.541
114.899
108.185
101.422
94.631
87.835
81.055
74.313
67.628
61.022
54.513
48.12
41.861
35.752
29.808
24.045
18.476
13.111
7.963
3.041
-1.648
-6.097
-10.301
-14.256
-17.959
-21.409
-24.606
-27.551
-30.248
-32.7
-34.911
-36.888
-38.637
-40.166
-41.484
-42.599
-43.522
-44.263
-44.833
-45.244
-45.506
-45.631
-45.631
-45.518
-45.304
-45
-44.616
-44.166
-43.658
-43.104
-42.513
-41.894
-41.257
-40.609
-39.958
-39.311
-38.675
-38.055
-37.457
-36.884
-36.342
-35.834
-35.362
-34.929
-34.536
-34.184
-33.875
-33.608
-33.384
-33.201
-33.059
-32.956
-32.892
-32.864
-32.871
-32.911
-32.982
-33.082
-33.208
-33.358
-33.531
-33.723
-33.933
-34.158
-34.398
-34.65
-34.912
-35.183
-35.462
-35.747
-36.037
-36.331
-36.627
-36.924
-37.222
-37.52
-37.816
-38.11
-38.402
-38.69
-38.976
-39.258
-39.536
-39.809
-40.078
-40.342
-40.6
-40.854
-41.101
-41.344
-41.581
-41.813
-42.041
-42.264
-42.484
-42.699
-42.912
-43.121
-43.326
-43.529
-43.728
-43.925
-44.119
-44.312
-44.505
-44.698
-44.894
-45.092
-45.295
-45.503
-45.719
-45.942
-46.176
-46.42
-46.676
-46.946
-47.232
-47.533
-47.853
-48.19
-48.547
-48.922
-49.316
-49.729
-50.158
-50.602
-51.059
-51.528
-52.007
-52.495
-52.99
-53.492
-54
-54.513
-55.03
-55.547
-56.061
-56.566
-57.056
-57.526
-57.967
-58.373
-58.737
-59.053
-59.318
-59.529
-59.681
-59.771
-59.791
-59.734
-59.596
-59.373
-59.066
-58.676
-58.21
-57.68
-57.103
-56.5
-55.883
-55.261
-54.636
-54.002
-53.356
-52.691
-52
-51.285
-50.544
-49.774
-48.977
-48.148
-47.275
-46.339
-45.306
-44.138
-42.813
-41.32
-39.656
-37.84
-35.889
-33.832
-31.709
-29.541
-27.346
-25.148
-22.953
-20.779
-18.655
-16.615
-14.706
-12.99
-11.503
-10.277
-9.339
-8.683
-8.312
-8.214
-8.353
-8.725
-9.339
-10.197
-11.324
-12.747
-14.467
-16.493
-18.826
-21.432
-24.308
-27.46
-30.881
-34.601
-38.628
-42.951
-47.607
-52.637
-57.983
-63.506
-68.952
-73.937
-78.149
-81.363
-83.299
-83.607
-82.082
-78.821
-74.261
-69.174
-64.321
-60.142
-57.047
-55.687
-56.492
-59.282
-63.268
-67.002
-68.861
-67.635
-62.072
-50.416
-30.976
-3.38
30.976
69.925
110.918
153.178
198.646
247.313
295.648
336.253
355.986
342.572
291.841
207.16
99.475
-17.021
-135.775
-257.565
-383.698
-514.152
-639.767
-743.025
-811.512
-839.573
-831.1
-799.306
-753.779
-699.786
-639.314
-570.026
-493.015
-412.518
-333.219
-261.174
-200.378
-152.124
-116.543
-92.432
-77.894
-71.064
-69.704
-71.045
-72.512
-72.041
-68.527
-61.916
-52.69
-41.563
-29.461
-17.53
-6.976
1.098
6.192
8.444
8.251
6.196
2.888
-1.103
-5.128
-8.533
-10.918
-12.137
-12.182
-11.179
-9.24
-6.44
-2.906
1.214
5.787
10.684
15.8
21.051
26.334
31.534
36.54
41.239
45.537
49.385
52.758
55.658
58.111
60.146
61.802
63.131
64.199
65.067
65.797
66.446
67.065
67.71
68.439
69.308
70.371
71.663
73.207
75.017
77.102
79.464
82.103
85.013
88.182
91.598
95.253
99.139
103.249
107.573
112.097
116.804
121.679
126.706
131.87
137.152
142.535
147.999
153.526
159.096
164.689
170.284
175.856
181.381
186.833
192.185
197.414
202.492
207.394
212.096
216.573
220.804
224.767
228.442
231.809
234.851
237.55
239.891
241.861
243.447
244.638
245.425
245.801
245.761
245.301
244.419
243.116
241.394
239.257
236.712
233.766
230.429
226.714
222.633
218.202
213.438
208.36
202.987
197.34
191.441
185.314
178.982
172.471
165.804
159.007
152.105
145.124
138.09
131.028
123.964
116.922
109.926
103
96.168
89.451
82.871
76.447
70.198
64.142
58.295
52.672
47.286
42.148
37.27
32.66
28.323
24.266
20.492
17.002
13.797
10.875
8.234
5.87
3.777
1.948
0.376
-0.949
-2.037
-2.897
-3.543
-3.987
-4.24
-4.317
-4.232
-3.997
-3.628
-3.138
-2.541
-1.851
-1.082
-0.247
0.64
1.568
2.524
3.497
4.475
5.449
6.41
7.348
8.257
9.128
9.955
10.734
11.458
12.125
12.73
13.272
13.749
14.159
14.502
14.778
14.989
15.136
15.22
15.244
15.211
15.122
14.983
14.795
14.563
14.29
13.98
13.638
13.266
12.87
12.453
12.02
11.573
11.116
10.654
10.189
9.725
9.265
8.812
8.369
7.938
7.522
7.123
6.743
6.384
6.047
5.734
5.445
5.182
4.944
4.732
4.546
4.386
4.251
4.141
4.055
3.992
3.951
3.931
3.93
3.948
3.981
4.029
4.089
4.161
4.242
4.33
4.422
4.518
4.614
4.709
4.799
4.882
4.957
5.02
5.068
5.1
5.113
5.105
5.074
5.018
4.934
4.823
4.682
4.51
4.308
4.074
3.81
3.515
3.191
2.839
2.46
2.056
1.631
1.185
0.721
0.244
-0.245
-0.741
-1.241
-1.741
-2.236
-2.721
-3.193
-3.645
-4.072
-4.47
-4.832
-5.154
-5.429
-5.651
-5.816
-5.918
-5.952
-5.914
-5.799
-5.604
-5.327
-4.965
-4.519
-3.988
-3.374
-2.678
-1.902
-1.049
-0.122
0.873
1.934
3.055
4.231
5.456
6.722
8.021
9.346
10.687
12.036
13.384
14.722
16.039
17.327
18.578
19.783
20.933
22.02
23.032
23.959
24.8
25.552
26.218
26.801
27.304
27.735
28.112
28.446
28.754
29.05
29.338
29.628
29.931
30.257
30.625
31.046
31.514
32.025
32.568
33.123
33.679
34.206
34.65
34.961
35.088
34.971
34.579
33.871
32.798
31.337
29.441
27.067
24.195
20.795
16.854
12.396
7.409
1.87
-4.121
-10.392
-16.669
-22.542
-27.677
-31.846
-34.745
-36.017
-35.465
-33.163
-29.535
-25.379
-21.44
-18.137
-15.864
-15.195
-16.494
-19.606
-23.775
-27.488
-29.093
-27.55
-21.754
-10.117
8.674
35.559
69.822
108.575
149.121
189.221
228.696
269.311
309.318
344.039
364.224
356.5
313.793
236.075
131.245
14.309
-104.247
-220.875
-337.887
-459.301
-582.611
-697.603
-788.528
-842.489
-854.78
-828.298
-773.433
-700.701
-618.553
-534.555
-452.753
-377.024
-309.496
-249.296
-196.526
-150.368
-111.172
-81.552
-61.861
-51.555
-49.06
-50.484
-52.929
-54.566
-53.803
-50.4
-44.721
-37.016
-27.945
-18.557
-9.735
-2.373
2.697
5.322
5.744
4.32
1.618
-1.774
-5.374
-8.642
-11.065
-12.414
-12.633
-11.774
-10.004
-7.45
-4.217
-0.446
3.711
8.12
12.661
17.238
21.772
26.172
30.338
34.177
37.599
40.558
43.039
45.052
46.628
47.805
48.625
49.145
49.428
49.538
49.535
49.475
49.404
49.377
49.446
49.662
50.076
50.724
51.63
52.81
54.27
56.015
58.042
60.347
62.916
65.74
68.809
72.112
75.64
79.386
83.34
87.494
91.833
96.335
100.976
105.732
110.582
115.501
120.462
125.435
130.394
135.321
140.207
145.043
149.812
154.49
159.042
163.437
167.651
171.674
175.499
179.112
182.503
185.664
188.602
191.332
193.852
196.137
198.14
199.815
201.132
202.079
202.651
202.843
202.64
202.022
200.976
199.499
197.587
195.224
192.382
189.022
185.138
180.758
175.941
170.744
165.209
159.366
153.242
146.872
140.298
133.559
126.683
119.693
112.618
105.503
98.408
91.397
84.511
77.764
71.147
64.656
58.299
52.088
46.033
40.138
34.406
28.848
23.484
18.337
13.421
8.736
4.275
0.026
-4.01
-7.824
-11.401
-14.73
-17.805
-20.625
-23.185
-25.48
-27.509
-29.279
-30.804
-32.1
-33.179
-34.049
-34.719
-35.197
-35.496
-35.629
-35.611
-35.456
-35.176
-34.786
-34.301
-33.737
-33.109
-32.427
-31.702
-30.943
-30.16
-29.363
-28.561
-27.762
-26.974
-26.203
-25.457
-24.743
-24.065
-23.428
-22.835
-22.289
-21.791
-21.342
-20.943
-20.593
-20.292
-20.037
-19.828
-19.661
-19.536
-19.45
-19.399
-19.38
-19.392
-19.431
-19.493
-19.576
-19.678
-19.794
-19.923
-20.063
-20.211
-20.366
-20.526
-20.69
-20.857
-21.026
-21.196
-21.366
-21.537
-21.708
-21.879
-22.051
-22.226
-22.403
-22.584
-22.772
-22.967
-23.171
-23.386
-23.613
-23.854
-24.11
-24.384
-24.676
-24.988
-25.321
-25.675
-26.053
-26.455
-26.881
-27.332
-27.807
-28.307
-28.832
-29.38
-29.952
-30.546
-31.161
-31.797
-32.452
-33.125
-33.815
-34.521
-35.24
-35.973
-36.716
-37.469
-38.23
-38.997
-39.77
-40.546
-41.324
-42.104
-42.885
-43.665
-44.443
-45.219
-45.991
-46.758
-47.52
-48.275
-49.021
-49.758
-50.484
-51.2
-51.902
-52.592
-53.267
-53.926
-54.568
-55.192
-55.795
-56.377
-56.935
-57.467
-57.972
-58.446
-58.887
-59.292
-59.66
-59.985
-60.266
-60.498
-60.678
-60.801
-60.864
-60.863
-60.794
-60.655
-60.442
-60.153
-59.788
-59.345
-58.826
-58.229
-57.556
-56.807
-55.983
-55.086
-54.119
-53.082
-51.979
-50.813
-49.588
-48.312
-46.99
-45.628
-44.232
-42.808
-41.365
-39.911
-38.454
-36.999
-35.554
-34.127
-32.728
-31.37
-30.061
-28.804
-27.604
-26.459
-25.369
-24.331
-23.338
-22.376
-21.431
-20.49
-19.543
-18.587
-17.614
-16.616
-15.584
-14.506
-13.374
-12.199
-10.989
-9.758
-8.524
-7.308
-6.143
-5.09
-4.201
-3.532
-3.145
-3.082
-3.392
-4.126
-5.32
-7.014
-9.249
-12.044
-15.418
-19.386
-23.933
-29.059
-34.769
-40.976
-47.503
-54.086
-60.349
-65.939
-70.569
-73.941
-75.71
-75.647
-73.825
-70.643
-66.801
-63.064
-59.968
-57.866
-57.181
-58.347
-61.331
-65.376
-69.26
-70.935
-67.867
-59.076
-44.118
-23.177
0.555
25.802
54.104
86.528
127.673
180.428
240.277
300.213
348.66
371.145
358.833
308.701
224.427
118.062
2.584
-113.519
-227.808
-344.617
-466.804
-590.581
-704.509
-791.289
-839.782
-848.041
-822.649
-777.429
-722.019
-660.918
-595.526
-524.094
-447.922
-370.836
-297.154
-231.685
-177.213
-134.594
-103.638
-82.873
-70.524
-64.979
-64.07
-65.606
-67.58
-68.043
-66.04
-61.565
-54.911
-46.635
-37.583
-28.566
-20.526
-14.504
-10.88
-9.53
-10.14
-12.162
-15.044
-18.322
-21.423
-23.732
-24.941
-24.945
-23.776
-21.617
-18.603
-14.839
-10.484
-5.713
-0.677
4.492
9.693
14.854
19.883
24.677
29.137
33.169
36.725
39.79
42.368
44.489
46.19
47.514
48.518
49.269
49.83
50.266
50.63
50.972
51.344
51.801
52.396
53.178
54.184
55.433
56.944
58.723
60.776
63.106
65.705
68.562
71.669
75.019
78.602
82.413
86.439
90.663
95.073
99.658
104.407
109.305
114.33
119.456
124.659
129.917
135.208
140.506
145.781
151.004
156.155
161.223
166.197
171.058
175.781
180.332
184.678
188.799
192.685
196.331
199.729
202.866
205.738
208.35
210.711
212.816
214.643
216.15
217.3
218.078
218.482
218.52
218.204
217.53
216.482
215.047
213.208
210.945
208.238
205.054
201.367
197.173
192.496
187.383
181.883
176.01
169.777
163.186
156.232
148.931
141.317
133.425
125.314
117.059
108.733
100.415
92.181
84.077
76.137
68.374
60.797
53.441
46.347
39.561
33.144
27.141
21.572
16.452
11.762
7.455
3.495
-0.159
-3.546
-6.683
-9.586
-12.263
-14.712
-16.942
-18.975
-20.836
-22.572
-24.222
-25.807
-27.339
-28.809
-30.188
-31.458
-32.603
-33.607
-34.465
-35.176
-35.742
-36.178
-36.498
-36.71
-36.816
-36.81
-36.681
-36.433
-36.074
-35.619
-35.093
-34.513
-33.897
-33.264
-32.629
-32
-31.388
-30.792
-30.209
-29.64
-29.088
-28.556
-28.051
-27.575
-27.128
-26.71
-26.319
-25.953
-25.611
-25.287
-24.978
-24.684
-24.401
-24.132
-23.877
-23.638
-23.415
-23.208
-23.018
-22.843
-22.685
-22.542
-22.413
-22.299
-22.199
-22.113
-22.042
-21.987
-21.947
-21.924
-21.916
-21.926
-21.953
-21.997
-22.058
-22.135
-22.23
-22.342
-22.47
-22.615
-22.776
-22.952
-23.143
-23.349
-23.567
-23.799
-24.041
-24.293
-24.553
-24.82
-25.091
-25.365
-25.642
-25.919
-26.195
-26.468
-26.739
-27.004
-27.263
-27.516
-27.759
-27.994
-28.219
-28.434
-28.638
-28.832
-29.015
-29.189
-29.353
-29.508
-29.655
-29.794
-29.925
-30.049
-30.168
-30.28
-30.386
-30.488
-30.584
-30.677
-30.766
-30.851
-30.932
-31.009
-31.082
-31.151
-31.213
-31.269
-31.317
-31.355
-31.381
-31.395
-31.393
-31.373
-31.332
-31.267
-31.175
-31.051
-30.892
-30.694
-30.454
-30.168
-29.832
-29.445
-29.003
-28.505
-27.949
-27.337
-26.667
-25.939
-25.156
-24.317
-23.426
-22.484
-21.493
-20.456
-19.375
-18.256
-17.102
-15.92
-14.716
-13.495
-12.264
-11.03
-9.801
-8.585
-7.39
-6.222
-5.086
-3.991
-2.944
-1.959
-1.043
-0.2
0.569
1.265
1.89
2.445
2.939
3.388
3.812
4.225
4.641
5.063
5.497
5.952
6.443
6.987
7.593
8.257
8.968
9.715
10.484
11.26
12.002
12.646
13.125
13.367
13.319
12.942
12.194
11.042
9.437
7.323
4.66
1.42
-2.405
-6.797
-11.76
-17.329
-23.429
-29.873
-36.382
-42.541
-47.997
-52.52
-55.817
-57.51
-57.395
-55.485
-52.083
-47.953
-43.812
-40.087
-37.266
-35.882
-36.2
-38.145
-41.055
-43.43
-43.76
-40.779
-32.976
-18.857
2.944
32.641
68.583
108.402
149.475
191.378
235.754
281.533
325.186
358.12
367.008
343.922
286.451
199.948
98.738
-6.797
-111.048
-213.471
-319.478
-428.662
-533.756
-623.432
-685.04
-713.001
-710.25
-685.191
-646.753
-600.635
-548.875
-490.828
-427.215
-360.811
-295.013
-234.147
-181.292
-137.537
-103.335
-78.176
-60.707
-49.725
-43.91
-41.367
-40.433
-39.674
-37.698
-33.977
-28.662
-21.986
-14.423
-6.712
0.549
6.681
10.947
13.182
13.57
12.405
10.176
7.362
4.354
1.626
-0.336
-1.296
-1.177
-0.008
2.062
4.922
8.478
12.594
17.119
21.918
26.871
31.879
36.87
41.755
46.438
50.832
54.853
58.457
61.63
64.38
66.737
68.732
70.405
71.809
73.002
74.041
74.983
75.873
76.756
77.68
78.693
79.843
81.177
82.728
84.515
86.556
88.855
91.417
94.241
97.317
100.634
104.183
107.958
111.958
116.177
120.603
125.22
130.013
134.958
140.031
145.201
150.425
155.67
160.91
166.122
171.295
176.414
181.462
186.423
191.281
196.024
200.64
205.117
209.433
213.582
217.562
221.392
225.105
228.72
232.231
235.626
238.88
241.96
244.836
247.46
249.772
251.721
253.259
254.353
254.986
255.126
254.729
253.742
252.094
249.737
246.655
242.842
238.306
233.074
227.182
220.694
213.704
206.29
198.518
190.446
182.113
173.571
164.888
156.134
147.39
138.725
130.187
121.821
113.669
105.754
98.089
90.664
83.444
76.409
69.552
62.873
56.384
50.09
43.988
38.079
32.361
26.833
21.499
16.358
11.409
6.654
2.105
-2.221
-6.295
-10.098
-13.623
-16.863
-19.822
-22.501
-24.904
-27.04
-28.921
-30.561
-31.97
-33.159
-34.137
-34.915
-35.509
-35.934
-36.208
-36.349
-36.372
-36.29
-36.119
-35.871
-35.558
-35.191
-34.777
-34.325
-33.844
-33.343
-32.832
-32.319
-31.81
-31.312
-30.834
-30.38
-29.956
-29.565
-29.209
-28.892
-28.614
-28.377
-28.18
-28.024
-27.908
-27.83
-27.79
-27.784
-27.812
-27.87
-27.955
-28.066
-28.2
-28.352
-28.522
-28.705
-28.899
-29.103
-29.315
-29.531
-29.751
-29.974
-30.198
-30.421
-30.643
-30.863
-31.081
-31.295
-31.505
-31.713
-31.917
-32.119
-32.319
-32.519
-32.72
-32.924
-33.132
-33.346
-33.567
-33.798
-34.041
-34.298
-34.571
-34.862
-35.174
-35.507
-35.865
-36.248
-36.658
-37.095
-37.561
-38.056
-38.579
-39.13
-39.707
-40.311
-40.938
-41.587
-42.257
-42.945
-43.649
-44.365
-45.091
-45.822
-46.557
-47.29
-48.017
-48.734
-49.437
-50.121
-50.781
-51.413
-52.011
-52.57
-53.085
-53.55
-53.96
-54.309
-54.593
-54.806
-54.944
-55.004
-54.982
-54.877
-54.686
-54.411
-54.052
-53.61
-53.085
-52.481
-51.798
-51.042
-50.214
-49.319
-48.359
-47.343
-46.274
-45.163
-44.015
-42.84
-41.645
-40.438
-39.229
-38.026
-36.839
-35.673
-34.538
-33.445
-32.403
-31.426
-30.525
-29.703
-28.963
-28.305
-27.726
-27.219
-26.777
-26.381
-26.02
-25.683
-25.358
-25.042
-24.726
-24.398
-24.047
-23.66
-23.225
-22.743
-22.22
-21.661
-21.087
-20.526
-20.006
-19.579
-19.291
-19.179
-19.287
-19.657
-20.32
-21.315
-22.678
-24.426
-26.587
-29.185
-32.23
-35.742
-39.712
-44.097
-48.88
-54.045
-59.506
-65.111
-70.612
-75.641
-79.876
-83.082
-84.979
-85.237
-83.685
-80.417
-75.826
-70.648
-65.653
-61.313
-58.064
-56.509
-56.948
-59.155
-62.428
-65.365
-66.259
-63.955
-57.431
-45.164
-26.015
0.487
34.436
73.838
114.974
155.236
191.893
223.94
253.356
278.828
296.261
297.717
271.13
210.793
118.875
5.268
-114.388
-229.939
-338.502
-441.546
-541.144
-633.246
-707.669
-754.19
-767.872
-751.097
-712.655
-662.075
-605.345
-545.015
-481.256
-414.804
-348.137
-284.904
-228.889
-182.338
-146.027
-119.581
-101.558
-90.427
-84.755
-82.605
-82.131
-81.713
-79.816
-75.805
-69.808
-62.131
-53.309
-44.114
-35.25
-27.498
-21.685
-18.066
-16.495
-16.681
-18.139
-20.392
-23.033
-25.572
-27.503
-28.545
-28.586
-27.636
-25.822
-23.252
-20.013
-16.229
-12.043
-7.585
-2.967
1.723
6.413
11.031
15.491
19.711
23.613
27.134
30.24
32.924
35.2
37.095
38.647
39.899
40.902
41.718
42.402
43.009
43.586
44.172
44.813
45.554
46.44
47.514
48.808
50.34
52.126
54.174
56.49
59.074
61.919
65.014
68.347
71.912
75.704
79.719
83.949
88.379
92.994
97.775
102.698
107.739
112.864
118.035
123.224
128.407
133.563
138.683
143.75
148.749
153.666
158.479
163.17
167.724
172.121
176.345
180.395
184.273
188
191.602
195.081
198.429
201.635
204.666
207.494
210.084
212.392
214.387
216.047
217.348
218.274
218.804
218.893
218.491
217.534
215.951
213.707
210.786
207.175
202.892
197.962
192.418
186.313
179.689
172.566
164.973
156.939
148.505
139.75
130.763
121.649
112.519
103.456
94.529
85.802
77.32
69.112
61.209
53.621
46.371
39.51
33.08
27.114
21.628
16.605
12.01
7.794
3.906
0.306
-3.036
-6.149
-9.048
-11.741
-14.238
-16.538
-18.655
-20.626
-22.482
-24.251
-25.946
-27.562
-29.082
-30.479
-31.729
-32.813
-33.717
-34.434
-34.966
-35.319
-35.503
-35.532
-35.413
-35.144
-34.723
-34.152
-33.437
-32.595
-31.646
-30.617
-29.532
-28.416
-27.289
-26.168
-25.065
-23.987
-22.941
-21.928
-20.953
-20.02
-19.137
-18.31
-17.542
-16.834
-16.187
-15.598
-15.064
-14.581
-14.144
-13.749
-13.396
-13.08
-12.802
-12.561
-12.356
-12.184
-12.044
-11.93
-11.838
-11.763
-11.698
-11.638
-11.576
-11.508
-11.428
-11.332
-11.219
-11.084
-10.927
-10.743
-10.531
-10.286
-10.004
-9.682
-9.315
-8.9
-8.432
-7.91
-7.332
-6.704
-6.026
-5.298
-4.518
-3.68
-2.783
-1.828
-0.818
0.244
1.347
2.481
3.623
4.744
5.815
6.808
7.704
8.497
9.176
9.731
10.145
10.405
10.509
10.466
10.289
9.983
9.56
9.037
8.459
7.889
7.376
6.962
6.668
6.499
6.49
6.677
7.081
7.748
8.697
9.872
11.219
12.655
14.004
15.133
15.91
15.983
14.966
12.708
9.321
5.044
0.439
-4.535
-11.33
-19.818
-29.051
-38.4
-42.655
-39.853
-37.437
-38.078
-40.31
-56.037
11.685
