-154.75
-268.031
-403.559
-541.872
-661.877
-742.018
-776.975
-770.698
-733.198
-682.619
-628.144
-572.24
-515.091
-451.95
-382.731
-311.877
-244.159
-185.185
-138.071
-102.816
-78.303
-62.77
-54.353
-51.299
-51.597
-53.08
-53.805
-52.704
-49.589
-44.704
-38.595
-31.92
-25.383
-19.915
-16.476
-15.5
-16.959
-20.57
-25.835
-32.281
-39.479
-46.865
-53.828
-59.974
-65.102
-69.167
-72.27
-74.492
-75.895
-76.578
-76.669
-76.285
-75.518
-74.436
-73.073
-71.468
-69.688
-67.829
-65.999
-64.297
-62.807
-61.569
-60.595
-59.885
-59.417
-59.163
-59.087
-59.136
-59.268
-59.452
-59.67
-59.919
-60.189
-60.441
-60.626
-60.688
-60.57
-60.236
-59.666
-58.839
-57.752
-56.408
-54.817
-53.003
-50.986
-48.782
-46.395
-43.825
-41.074
-38.159
-35.105
-31.943
-28.712
-25.445
-22.175
-18.936
-15.76
-12.672
-9.693
-6.841
-4.129
-1.579
0.791
2.956
4.894
6.584
8.011
9.158
10.015
10.571
10.817
10.748
10.361
9.65
8.613
7.246
5.546
3.513
1.149
-1.542
-4.554
-7.881
-11.511
-15.434
-19.636
-24.103
-28.82
-33.769
-38.935
-44.299
-49.841
-55.543
-61.383
-67.342
-73.398
-79.529
-85.715
-91.933
-98.162
-104.382
-110.571
-116.711
-122.783
-128.767
-134.647
-140.406
-146.029
-151.5
-156.806
-161.934
-166.873
-171.611
-176.141
-180.454
-184.543
-188.403
-192.032
-195.425
-198.583
-201.505
-204.191
-206.645
-208.87
-210.869
-212.649
-214.215
-215.574
-216.735
-217.706
-218.497
-219.117
-219.576
-219.885
-220.055
-220.096
-220.02
-219.837
-219.559
-219.196
-218.76
-218.26
-217.708
-217.112
-216.484
-215.831
-215.162
-214.486
-213.81
-213.14
-212.484
-211.845
-211.23
-210.643
-210.087
-209.564
-209.078
-208.629
-208.219
-207.847
-207.514
-207.218
-206.958
-206.732
-206.538
-206.373
-206.234
-206.116
-206.018
-205.934
-205.861
-205.794
-205.728
-205.658
-205.581
-205.49
-205.381
-205.25
-205.092
-204.901
-204.674
-204.407
-204.096
-203.736
-203.325
-202.859
-202.336
-201.753
-201.108
-200.399
-199.625
-198.786
-197.881
-196.91
-195.873
-194.771
-193.606
-192.379
-191.091
-189.746
-188.346
-186.893
-185.392
-183.847
-182.26
-180.637
-178.981
-177.299
-175.594
-173.87
-172.134
-170.389
-168.641
-166.893
-165.15
-163.416
-161.695
-159.992
-158.31
-156.652
-155.021
-153.42
-151.852
-150.318
-148.819
-147.357
-145.932
-144.544
-143.194
-141.879
-140.599
-139.353
-138.138
-136.95
-135.788
-134.648
-133.524
-132.414
-131.313
-130.215
-129.118
-128.016
-126.905
-125.782
-124.643
-123.486
-122.309
-121.108
-119.882
-118.628
-117.346
-116.032
-114.688
-113.309
-111.897
-110.451
-108.971
-107.46
-105.92
-104.352
-102.757
-101.139
-99.5
-97.845
-96.178
-94.499
-92.81
-91.113
-89.414
-87.722
-86.039
-84.365
-82.698
-81.035
-79.371
-77.702
-76.017
-74.299
-72.529
-70.692
-68.776
-66.779
-64.698
-62.524
-60.249
-57.86
-55.354
-52.742
-50.037
-47.251
-44.405
-41.521
-38.644
-35.84
-33.18
-30.735
-28.561
-26.705
-25.207
-24.1
-23.43
-23.248
-23.593
-24.494
-25.969
-28.011
-30.632
-33.876
-37.674
-41.843
-46.108
-50.054
-53.317
-55.664
-56.801
-56.369
-54.215
-50.413
-45.338
-39.837
-34.684
-30.341
-27.327
-26.155
-26.993
-29.662
-33.418
-36.64
-37.633
-35.063
-27.465
-13.475
7.794
36.779
73.038
114.819
159.774
205.304
248.075
284.351
310.347
322.285
317.036
292.654
248.108
183.424
100.139
1.146
-109.353
-226.08
-343.32
-455.281
-556.291
-641.357
-706.512
-749.133
-768.383
-764.759
-739.862
-696.471
-638.2
-569.222
-494.188
-417.441
-342.416
-272.249
-209.491
-155.842
-112.417
-79.208
-55.032
-38.441
-28.018
-21.939
-18.435
-15.789
-12.232
-6.932
0.076
8.55
18.029
27.833
37.343
45.75
52.088
56.004
57.604
57.18
55.261
52.354
48.89
45.422
42.558
40.661
39.895
40.276
41.67
43.967
47.083
50.886
55.218
59.933
64.907
70.033
75.234
80.425
85.503
90.369
94.931
99.111
102.867
106.19
109.094
111.608
113.773
115.634
117.247
118.68
119.994
121.247
122.493
123.777
125.147
126.654
128.346
130.263
132.435
134.874
137.586
140.568
143.816
147.318
151.059
155.018
159.173
163.507
168.001
172.64
177.401
182.264
187.202
192.191
197.208
202.23
207.231
212.187
217.074
221.869
226.546
231.085
235.46
239.647
243.621
247.359
250.837
254.034
256.928
259.5
261.732
263.609
265.116
266.244
266.981
267.32
267.254
266.781
265.899
264.606
262.906
260.801
258.299
255.405
252.129
248.483
244.479
240.131
235.454
230.467
225.188
219.636
213.833
207.799
201.558
195.134
188.548
181.828
174.995
168.076
161.095
154.076
147.042
140.018
133.025
126.086
119.22
112.448
105.789
99.26
92.878
86.658
80.614
74.76
69.106
63.664
58.443
53.45
48.691
44.172
39.897
35.867
32.084
28.547
25.255
22.206
19.395
16.818
14.468
12.34
10.424
8.714
7.199
5.871
4.718
3.732
2.901
2.215
1.663
1.234
0.919
0.706
0.587
0.55
0.587
0.688
0.845
1.051
1.296
1.573
1.877
2.2
2.537
2.882
3.232
3.581
3.927
4.265
4.595
4.912
5.216
5.506
5.781
6.04
6.283
6.51
6.722
6.92
7.104
7.275
7.434
7.582
7.718
7.845
7.962
8.071
8.171
8.262
8.346
8.422
8.489
8.549
8.599
8.642
8.674
8.698
8.712
8.715
8.708
8.691
8.663
8.624
8.576
8.518
8.451
8.375
8.291
8.2
8.103
8.001
7.895
7.788
7.682
7.577
7.479
7.388
7.308
7.244
7.198
7.174
7.175
7.208
7.275
7.381
7.53
7.728
7.978
8.284
8.651
9.081
9.577
10.143
10.778
11.485
12.262
13.109
14.025
15.011
16.062
17.178
18.355
19.591
20.882
22.226
23.615
25.046
26.51
28.001
29.512
31.035
32.563
34.088
35.6
37.091
38.555
39.984
41.37
42.705
43.975
45.176
46.303
47.356
48.336
49.246
50.088
50.871
51.609
52.315
53.001
53.678
54.348
55.017
55.695
56.391
57.121
57.89
58.691
59.515
60.354
61.19
62.01
62.786
63.463
63.993
64.333
64.431
64.26
63.783
62.955
61.75
60.132
58.06
55.529
52.519
49.012
45.024
40.539
35.528
30.099
24.427
18.747
13.414
8.711
4.817
2.048
0.773
1.091
2.876
5.695
8.783
11.6
13.903
15.26
15.082
13.199
9.875
5.989
3.071
2.35
4.61
10.931
22.716
40.89
65.778
96.773
132.15
170.12
208.879
245.723
277.065
299.227
308.73
302.88
280.15
239.437
180.416
104.404
14.316
-85.642
-190.43
-294.984
-394.386
-483.574
-558.076
-614.609
-651.227
-667.77
-665.23
-644.987
-609.275
-561.228
-504.349
-442.393
-378.865
-316.191
-256.496
-202.077
-154.594
-115.075
-83.76
-59.854
-42.273
-30.256
-22.711
-18.077
-14.803
-11.33
-6.751
-1.036
5.644
13.129
21.048
28.869
35.895
41.261
44.588
46.007
45.794
44.362
42.137
39.493
36.921
34.992
34.033
34.157
35.363
37.511
40.492
44.234
48.607
53.451
58.625
64
69.477
74.989
80.441
85.73
90.756
95.42
99.666
103.474
106.841
109.791
112.353
114.562
116.47
118.135
119.614
120.963
122.232
123.464
124.707
126.012
127.426
128.998
130.76
132.731
134.92
137.332
139.962
142.807
145.854
149.085
152.485
156.039
159.732
163.552
167.482
171.501
175.59
179.727
183.888
188.054
192.204
196.315
200.365
204.332
208.196
211.936
215.53
218.955
222.189
225.208
227.992
230.519
232.768
234.722
236.362
237.672
238.639
239.25
239.496
239.366
238.854
237.954
236.663
234.979
232.903
230.437
227.585
224.353
220.749
216.783
212.466
207.813
202.836
197.554
191.982
186.141
180.05
173.73
167.204
160.493
153.62
146.611
139.488
132.276
124.998
117.68
110.344
103.015
95.714
88.464
81.287
74.202
67.231
60.392
53.703
47.181
40.841
34.698
28.766
23.055
17.577
12.341
7.354
2.623
-1.848
-6.054
-9.994
-13.666
-17.071
-20.212
-23.09
-25.709
-28.075
-30.195
-32.074
-33.72
-35.142
-36.35
-37.353
-38.161
-38.784
-39.234
-39.522
-39.66
-39.659
-39.53
-39.286
-38.937
-38.495
-37.972
-37.377
-36.721
-36.015
-35.268
-34.488
-33.685
-32.866
-32.038
-31.21
-30.386
-29.572
-28.773
-27.994
-27.238
-26.508
-25.807
-25.137
-24.499
-23.895
-23.325
-22.79
-22.29
-21.824
-21.393
-20.995
-20.629
-20.294
-19.989
-19.712
-19.461
-19.234
-19.031
-18.849
-18.686
-18.542
-18.413
-18.298
-18.196
-18.105
-18.022
-17.947
-17.877
-17.812
-17.749
-17.687
-17.625
-17.563
-17.499
-17.432
-17.361
-17.286
-17.205
-17.117
-17.021
-16.916
-16.801
-16.673
-16.533
-16.379
-16.209
-16.022
-15.816
-15.589
-15.34
-15.066
-14.766
-14.439
-14.082
-13.695
-13.277
-12.829
-12.349
-11.839
-11.3
-10.733
-10.14
-9.522
-8.88
-8.217
-7.535
-6.834
-6.118
-5.388
-4.647
-3.898
-3.145
-2.393
-1.644
-0.903
-0.173
0.541
1.232
1.897
2.535
3.141
3.713
4.246
4.732
5.167
5.554
5.895
6.192
6.451
6.678
6.884
7.089
7.311
7.566
7.869
8.22
8.625
9.094
9.635
10.262
10.979
11.775
12.641
13.57
14.548
15.556
16.554
17.478
18.265
18.86
19.216
19.299
19.079
18.532
17.624
16.324
14.609
12.464
9.876
6.84
3.337
-0.652
-5.033
-9.615
-14.135
-18.246
-21.678
-24.233
-25.63
-25.627
-24.239
-21.659
-18.341
-14.984
-12.002
-9.658
-8.418
-8.51
-9.784
-11.826
-13.641
-13.928
-11.869
-6.679
2.792
17.276
37.118
62.222
91.414
123.14
156.089
188.35
217.165
239.75
253.149
254.697
242.953
216.797
175.236
118.539
48.373
-32.664
-120.694
-211.366
-300.937
-385.327
-460.205
-522.112
-568.525
-597.936
-610.549
-607.375
-589.291
-558.087
-516.385
-466.986
-413.048
-357.543
-302.406
-249.417
-200.723
-157.898
-121.964
-93.283
-71.199
-54.789
-43.432
-36.164
-31.564
-28.212
-24.667
-20.083
-14.427
-7.853
-0.518
7.219
14.864
21.774
27.157
30.651
32.345
32.471
31.392
29.477
27.055
24.553
22.465
21.102
20.591
20.942
22.053
23.831
26.215
29.105
32.373
35.902
39.591
43.359
47.146
50.888
54.507
57.926
61.071
63.875
66.305
68.353
70.029
71.36
72.376
73.116
73.623
73.954
74.159
74.286
74.379
74.473
74.61
74.83
75.174
75.68
76.375
77.272
78.377
79.693
81.215
82.94
84.855
86.942
89.187
91.574
94.09
96.722
99.452
102.264
105.135
108.046
110.976
113.907
116.817
119.687
122.496
125.224
127.852
130.363
132.736
134.952
136.992
138.836
140.467
141.867
143.02
143.911
144.526
144.855
144.886
144.613
144.028
143.128
141.908
140.368
138.508
136.331
133.841
131.043
127.944
124.553
120.88
116.936
112.736
108.292
103.619
98.735
93.655
88.398
82.982
77.426
71.75
65.972
60.114
54.194
48.233
42.25
36.265
30.296
24.362
18.481
12.668
6.941
1.314
-4.199
-9.585
-14.832
-19.929
-24.866
-29.635
-34.227
-38.637
-42.858
-46.888
-50.722
-54.359
-57.797
-61.036
-64.077
-66.922
-69.572
-72.033
-74.307
-76.399
-78.315
-80.061
-81.644
-83.069
-84.346
-85.48
-86.479
-87.353
-88.108
-88.752
-89.294
-89.741
-90.102
-90.383
-90.592
-90.736
-90.822
-90.857
-90.847
-90.798
-90.716
-90.606
-90.473
-90.322
-90.158
-89.984
-89.805
-89.625
-89.447
-89.273
-89.106
-88.95
-88.806
-88.676
-88.563
-88.468
-88.393
-88.339
-88.308
-88.302
-88.32
-88.366
-88.439
-88.541
-88.673
-88.835
-89.03
-89.257
-89.517
-89.811
-90.14
-90.504
-90.902
-91.336
-91.803
-92.305
-92.839
-93.406
-94.002
-94.627
-95.279
-95.955
-96.653
-97.371
-98.106
-98.854
-99.613
-100.38
-101.149
-101.918
-102.682
-103.437
-104.178
-104.9
-105.599
-106.27
-106.907
-107.506
-108.061
-108.567
-109.018
-109.411
-109.739
-110
-110.188
-110.301
-110.335
-110.29
-110.164
-109.956
-109.666
-109.297
-108.85
-108.326
-107.728
-107.058
-106.321
-105.519
-104.656
-103.737
-102.766
-101.749
-100.694
-99.606
-98.492
-97.361
-96.217
-95.069
-93.925
-92.795
-91.683
-90.597
-89.542
-88.528
-87.565
-86.661
-85.816
-85.03
-84.301
-83.623
-82.994
-82.405
-81.839
-81.282
-80.719
-80.139
-79.539
-78.914
-78.254
-77.546
-76.777
-75.939
-75.044
-74.107
-73.139
-72.153
-71.172
-70.23
-69.388
-68.699
-68.206
-67.949
-67.957
-68.264
-68.911
-69.922
-71.325
-73.142
-75.369
-78.009
-81.075
-84.549
-88.42
-92.671
-97.162
-101.709
-106.088
-109.966
-113.072
-115.195
-116.023
-115.317
-113.117
-109.624
-105.3
-100.885
-96.864
-93.631
-91.795
-91.672
-93.127
-95.709
-98.368
-99.707
-98.737
-94.398
-85.269
-70.512
-49.838
-23.544
7.024
40.172
74.265
106.871
134.75
154.884
164.365
160.91
143.37
110.678
62.312
-0.663
-75.87
-159.989
-248.81
-338.275
-424.625
-503.359
-570.336
-622.559
-657.961
-676.072
-677.602
-663.317
-634.521
-593.771
-544.041
-488.589
-430.757
-372.811
-316.662
-264.597
-218.531
-179.756
-148.84
-125.283
-108.1
-96.644
-89.979
-86.665
-85.132
-83.652
-81.093
-77.212
-72.061
-65.744
-58.571
-51
-43.726
-37.679
-33.337
-30.692
-29.561
-29.565
-30.321
-31.485
-32.578
-33.065
-32.644
-31.202
-28.752
-25.434
-21.355
-16.599
-11.299
-5.608
0.339
6.431
12.588
18.742
24.804
30.674
36.249
41.458
46.269
50.669
54.666
58.283
61.545
64.494
67.181
69.657
71.968
74.159
76.269
78.34
80.42
82.555
84.795
87.174
89.714
92.428
95.324
98.4
101.654
105.077
108.653
112.369
116.214
120.175
124.244
128.406
132.646
136.947
141.29
145.657
150.031
154.395
158.73
163.019
167.245
171.39
175.44
179.376
183.181
186.835
190.322
193.622
196.719
199.596
202.237
204.63
206.759
208.616
210.189
211.471
212.456
213.137
213.513
213.58
213.339
212.792
211.94
210.79
209.347
207.618
205.614
203.344
200.82
198.056
195.065
191.862
188.463
184.886
181.146
177.261
173.251
169.132
164.924
160.645
156.313
151.947
147.565
143.184
138.82
134.489
130.208
125.989
121.847
117.793
113.839
109.995
106.27
102.673
99.209
95.885
92.705
89.673
86.791
84.061
81.483
79.056
76.778
74.648
72.663
70.817
69.107
67.528
66.074
64.739
63.516
62.398
61.379
60.452
59.608
58.841
58.143
57.507
56.926
56.393
55.903
55.448
55.023
54.623
54.243
53.878
53.525
53.18
52.839
52.501
52.163
51.823
51.48
51.133
50.781
50.423
50.06
49.692
49.318
48.939
48.556
48.17
47.78
47.389
46.996
46.602
46.209
45.817
45.427
45.04
44.656
44.275
43.898
43.525
43.156
42.791
42.429
42.07
41.713
41.358
41.004
40.649
40.293
39.934
39.572
39.206
38.835
38.457
38.072
37.679
37.277
36.866
36.445
36.015
35.574
35.123
34.662
34.191
33.711
33.222
32.724
32.218
31.705
31.186
30.662
30.133
29.601
29.067
28.532
27.998
27.465
26.936
26.41
25.891
25.378
24.873
24.377
23.892
23.417
22.955
22.505
22.068
21.646
21.238
20.846
20.469
20.109
19.765
19.439
19.13
18.838
18.564
18.308
18.071
17.852
17.651
17.47
17.308
17.167
17.046
16.947
16.869
16.814
16.782
16.774
16.791
16.834
16.903
16.999
17.123
17.277
17.459
17.671
17.913
18.184
18.483
18.81
19.163
19.539
19.937
20.354
20.789
21.24
21.703
22.177
22.659
23.147
23.639
24.132
24.621
25.102
25.573
26.03
26.47
26.888
27.279
27.639
27.968
28.264
28.527
28.753
28.936
29.075
29.174
29.237
29.269
29.276
29.263
29.241
29.233
29.256
29.329
29.463
29.661
29.93
30.283
30.73
31.283
31.94
32.684
33.505
34.4
35.349
36.331
37.3
38.19
38.945
39.509
39.836
39.884
39.607
38.969
37.935
36.469
34.552
32.171
29.302
25.938
22.073
17.694
12.916
7.941
3.016
-1.487
-5.253
-8.048
-9.535
-9.449
-7.836
-4.921
-1.202
2.509
5.674
7.877
8.468
7.125
4.052
-0.228
-4.56
-7.381
-7.564
-3.951
5.012
20.291
42.166
70.302
103.266
139.059
175.715
210.546
239.962
260.51
269.002
262.85
240.598
201.361
144.888
72.399
-13.363
-108.573
-208.626
-308.842
-404.709
-491.509
-564.935
-621.699
-659.692
-678.454
-678.661
-661.368
-628.433
-582.714
-527.559
-466.678
-403.697
-341.231
-281.576
-227.205
-179.956
-140.94
-110.412
-87.55
-71.137
-60.252
-53.672
-49.699
-46.69
-43.074
-37.972
-31.412
-23.674
-15.022
-5.908
3.042
11.073
17.305
21.33
23.279
23.451
22.263
20.142
17.467
14.71
12.421
10.949
10.428
10.869
12.162
14.203
16.936
20.259
24.042
28.166
32.517
36.999
41.545
46.082
50.521
54.775
58.756
62.385
65.625
68.466
70.918
73.008
74.767
76.228
77.44
78.46
79.343
80.14
80.898
81.653
82.45
83.334
84.348
85.536
86.922
88.519
90.333
92.365
94.612
97.066
99.714
102.537
105.517
108.64
111.89
115.255
118.717
122.256
125.852
129.483
133.13
136.771
140.387
143.957
147.461
150.879
154.192
157.382
160.43
163.318
166.024
168.531
170.82
172.874
174.678
176.217
177.477
178.447
179.118
179.482
179.533
179.265
178.678
177.768
176.537
174.986
173.12
170.942
168.461
165.684
162.621
159.282
155.68
151.828
147.74
143.433
138.922
134.224
129.357
124.339
119.188
113.924
108.565
103.131
97.64
92.111
86.563
81.013
75.481
69.981
64.531
59.145
53.837
48.622
43.512
38.518
33.651
28.921
24.335
19.901
15.626
11.514
7.571
3.799
0.201
-3.223
-6.472
-9.548
-12.451
-15.185
-17.752
-20.157
-22.404
-24.498
-26.446
-28.254
-29.929
-31.477
-32.906
-34.224
-35.438
-36.557
-37.587
-38.536
-39.412
-40.222
-40.973
-41.672
-42.325
-42.939
-43.519
-44.071
-44.599
-45.108
-45.602
-46.084
-46.558
-47.027
-47.492
-47.955
-48.418
-48.881
-49.346
-49.812
-50.28
-50.748
-51.218
-51.687
-52.154
-52.619
-53.08
-53.536
-53.985
-54.426
-54.857
-55.278
-55.686
-56.08
-56.46
-56.824
-57.171
-57.501
-57.813
-58.106
-58.381
-58.637
-58.875
-59.095
-59.298
-59.485
-59.656
-59.812
-59.955
-60.086
-60.206
-60.317
-60.421
-60.519
-60.612
-60.703
-60.793
-60.883
-60.974
-61.069
-61.168
-61.272
-61.383
-61.5
-61.625
-61.759
-61.901
-62.052
-62.211
-62.38
-62.557
-62.741
-62.933
-63.132
-63.336
-63.545
-63.758
-63.973
-64.19
-64.406
-64.62
-64.832
-65.039
-65.239
-65.432
-65.616
-65.789
-65.951
-66.1
-66.235
-66.356
-66.461
-66.551
-66.625
-66.683
-66.724
-66.75
-66.76
-66.754
-66.734
-66.699
-66.652
-66.593
-66.523
-66.442
-66.352
-66.254
-66.149
-66.036
-65.918
-65.794
-65.666
-65.533
-65.398
-65.26
-65.12
-64.978
-64.835
-64.689
-64.542
-64.391
-64.237
-64.078
-63.913
-63.741
-63.559
-63.367
-63.162
-62.941
-62.702
-62.443
-62.16
-61.851
-61.513
-61.143
-60.739
-60.3
-59.822
-59.306
-58.752
-58.158
-57.527
-56.857
-56.149
-55.405
-54.626
-53.813
-52.967
-52.089
-51.181
-50.245
-49.286
-48.306
-47.309
-46.3
-45.282
-44.26
-43.238
-42.221
-41.216
-40.223
-39.244
-38.285
-37.351
-36.448
-35.583
-34.752
-33.955
-33.188
-32.446
-31.724
-31.011
-30.286
-29.532
-28.732
-27.872
-26.949
-25.958
-24.889
-23.732
-22.474
-21.11
-19.651
-18.105
-16.481
-14.794
-13.068
-11.341
-9.68
-8.151
-6.819
-5.742
-4.964
-4.525
-4.459
-4.806
-5.609
-6.902
-8.702
-11.032
-13.893
-17.297
-21.29
-25.794
-30.617
-35.497
-40.04
-43.897
-46.848
-48.575
-48.688
-47.117
-43.986
-39.681
-35.073
-30.807
-27.206
-24.868
-24.34
-25.618
-28.467
-32.011
-34.461
-34.486
-31.066
-22.626
-7.877
13.868
42.989
78.586
118.467
160.685
202.891
241.581
273.2
294.058
300.486
290.286
262.313
215.606
150.488
68.948
-26.029
-129.984
-237.657
-344.297
-444.95
-534.437
-608.5
-663.887
-698.529
-712.157
-705.536
-679.881
-637.666
-582.422
-518.069
-448.872
-378.764
-310.925
-248.308
-193.554
-148.363
-113.264
-87.772
-70.575
-60.114
-54.745
-52.506
-51.307
-49.245
-45.219
-38.984
-30.78
-21.109
-10.596
-0.008
9.694
17.483
22.844
25.809
26.64
25.821
23.839
21.137
18.281
15.894
14.376
13.893
14.476
16.012
18.397
21.574
25.422
29.794
34.556
39.58
44.767
50.047
55.333
60.519
65.505
70.188
74.485
78.352
81.77
84.741
87.288
89.44
91.234
92.722
93.962
95.011
95.926
96.756
97.546
98.345
99.204
100.171
101.294
102.6
104.108
105.829
107.766
109.918
112.282
114.847
117.598
120.52
123.601
126.83
130.195
133.682
137.273
140.951
144.697
148.492
152.319
156.16
159.995
163.807
167.575
171.283
174.913
178.446
181.863
185.143
188.266
191.215
193.97
196.515
198.833
200.908
202.727
204.277
205.55
206.534
207.224
207.612
207.694
207.467
206.931
206.084
204.928
203.467
201.705
199.648
197.303
194.678
191.784
188.632
185.234
181.603
177.752
173.697
169.453
165.036
160.463
155.751
150.917
145.978
140.952
135.857
130.709
125.527
120.326
115.122
109.932
104.77
99.651
94.588
89.595
84.683
79.864
75.149
70.547
66.068
61.719
57.508
53.442
49.524
45.761
42.156
38.711
35.429
32.311
29.356
26.566
23.939
21.472
19.165
17.013
15.014
13.163
11.456
9.888
8.454
7.149
5.967
4.903
3.95
3.103
2.357
1.704
1.139
0.657
0.252
-0.082
-0.349
-0.556
-0.707
-0.807
-0.86
-0.87
-0.842
-0.778
-0.684
-0.56
-0.412
-0.241
-0.05
0.159
0.384
0.623
0.874
1.136
1.408
1.688
1.975
2.269
2.567
2.87
3.177
3.485
3.796
4.108
4.419
4.729
5.037
5.343
5.644
5.94
6.229
6.511
6.784
7.046
7.297
7.535
7.759
7.967
8.157
8.329
8.48
8.609
8.716
8.799
8.856
8.886
8.889
8.863
8.807
8.722
8.606
8.458
8.28
8.07
7.828
7.556
7.253
6.92
6.557
6.167
5.748
5.304
4.834
4.34
3.824
3.287
2.731
2.156
1.566
0.961
0.343
-0.285
-0.923
-1.568
-2.22
-2.876
-3.535
-4.196
-4.857
-5.517
-6.175
-6.83
-7.481
-8.128
-8.77
-9.407
-10.038
-10.663
-11.283
-11.897
-12.506
-13.11
-13.709
-14.303
-14.893
-15.477
-16.056
-16.63
-17.199
-17.761
-18.316
-18.864
-19.403
-19.934
-20.454
-20.963
-21.459
-21.941
-22.407
-22.855
-23.283
-23.688
-24.069
-24.422
-24.746
-25.037
-25.292
-25.508
-25.681
-25.808
-25.886
-25.911
-25.88
-25.79
-25.639
-25.423
-25.143
-24.796
-24.383
-23.905
-23.362
-22.756
-22.089
-21.364
-20.582
-19.748
-18.865
-17.935
-16.963
-15.954
-14.913
-13.848
-12.764
-11.668
-10.566
-9.466
-8.374
-7.299
-6.249
-5.229
-4.244
-3.3
-2.406
-1.572
-0.805
-0.106
0.525
1.09
1.592
2.034
2.426
2.785
3.129
3.474
3.831
4.203
4.597
5.02
5.484
6.005
6.588
7.227
7.912
8.628
9.366
10.107
10.81
11.415
11.859
12.07
12.005
11.627
10.896
9.789
8.262
6.261
3.757
0.719
-2.864
-6.98
-11.652
-16.923
-22.724
-28.877
-35.102
-40.997
-46.227
-50.569
-53.733
-55.361
-55.251
-53.476
-50.436
-46.881
-43.551
-40.87
-39.238
-39.237
-41.179
-44.852
-49.523
-53.759
-55.906
-54.822
-49.343
-37.878
-19.323
6.759
40.085
79.1
121.645
165.711
208.523
246.214
274.974
291.036
291.139
273.412
236.493
179.532
103.324
10.431
-95.349
-208.947
-324.879
-437.917
-542.253
-632.295
-703.547
-752.797
-778.674
-781.407
-762.161
-723.029
-667.539
-600.018
-525.279
-448.14
-372.366
-301.221
-237.579
-183.537
-140.292
-107.87
-85.057
-70.113
-61.466
-57.224
-55.405
-54.129
-51.543
-46.722
-39.712
-30.882
-20.75
-10.056
0.468
9.944
17.329
22.178
24.581
24.831
23.46
21
17.875
14.625
11.84
9.851
8.815
8.745
9.476
10.883
12.887
15.369
18.228
21.388
24.756
28.255
31.823
35.377
38.85
42.177
45.286
48.137
50.702
52.99
55.066
56.992
58.813
60.563
62.246
63.856
65.416
66.955
68.495
70.069
71.694
73.392
75.197
77.135
79.218
81.438
83.751
86.12
88.531
90.977
93.474
96.051
98.715
101.471
104.331
107.295
110.361
113.523
116.76
120.046
123.367
126.712
130.084
133.483
136.896
140.301
143.67
146.967
150.162
153.226
156.125
158.83
161.319
163.569
165.568
167.309
168.779
169.966
170.856
171.437
171.701
171.642
171.257
170.546
169.51
168.154
166.484
164.506
162.23
159.663
156.812
153.688
150.299
146.66
142.783
138.684
134.379
129.886
125.224
120.412
115.47
110.42
105.279
100.07
94.81
89.522
84.223
78.933
73.67
68.454
63.299
58.224
53.244
48.372
43.623
39.008
34.54
30.227
26.079
22.102
18.305
14.692
11.266
8.032
4.991
2.144
-0.509
-2.97
-5.241
-7.324
-9.226
-10.95
-12.504
-13.893
-15.124
-16.206
-17.147
-17.955
-18.639
-19.208
-19.672
-20.039
-20.319
-20.522
-20.657
-20.732
-20.757
-20.74
-20.689
-20.611
-20.516
-20.408
-20.294
-20.18
-20.072
-19.975
-19.892
-19.827
-19.785
-19.768
-19.778
-19.817
-19.888
-19.99
-20.125
-20.294
-20.496
-20.73
-20.998
-21.297
-21.627
-21.987
-22.375
-22.79
-23.231
-23.694
-24.179
-24.684
-25.206
-25.743
-26.294
-26.857
-27.429
-28.01
-28.597
-29.189
-29.784
-30.381
-30.979
-31.577
-32.172
-32.765
-33.354
-33.938
-34.516
-35.087
-35.651
-36.207
-36.753
-37.289
-37.814
-38.327
-38.827
-39.313
-39.784
-40.24
-40.68
-41.102
-41.507
-41.893
-42.261
-42.608
-42.935
-43.242
-43.527
-43.79
-44.031
-44.25
-44.446
-44.619
-44.768
-44.895
-44.999
-45.08
-45.137
-45.172
-45.185
-45.176
-45.147
-45.096
-45.027
-44.939
-44.835
-44.716
-44.582
-44.437
-44.281
-44.116
-43.945
-43.769
-43.59
-43.41
-43.23
-43.053
-42.881
-42.715
-42.555
-42.405
-42.264
-42.133
-42.012
-41.902
-41.803
-41.713
-41.633
-41.563
-41.5
-41.445
-41.395
-41.348
-41.304
-41.259
-41.211
-41.157
-41.094
-41.017
-40.924
-40.811
-40.674
-40.508
-40.309
-40.073
-39.795
-39.47
-39.095
-38.663
-38.171
-37.615
-36.993
-36.3
-35.536
-34.698
-33.786
-32.802
-31.745
-30.617
-29.42
-28.156
-26.826
-25.436
-23.987
-22.483
-20.928
-19.328
-17.69
-16.02
-14.326
-12.615
-10.894
-9.172
-7.456
-5.756
-4.079
-2.431
-0.82
0.748
2.263
3.712
5.091
6.396
7.628
8.789
9.884
10.917
11.899
12.848
13.777
14.7
15.628
16.564
17.513
18.485
19.488
20.537
21.637
22.779
23.957
25.158
26.365
27.56
28.705
29.743
30.625
31.303
31.723
31.857
31.664
31.107
30.17
28.817
27.021
24.767
22.031
18.798
15.087
10.892
6.201
1.106
-4.227
-9.543
-14.464
-18.674
-21.938
-23.977
-24.451
-23.197
-20.339
-16.305
-11.865
-7.758
-4.425
-2.315
-2.065
-4.025
-7.971
-13.131
-18.044
-21.055
-20.993
-16.637
-6.335
11.154
36.322
68.872
107.288
149.295
192.643
234.42
270.61
297.112
310.057
306.084
283.107
240.074
176.684
94.104
-4.615
-115.122
-232.099
-349.662
-462.037
-563.622
-649.277
-714.884
-757.877
-777.437
-774.068
-749.449
-706.323
-648.279
-579.556
-504.853
-428.553
-354.165
-284.872
-223.24
-170.975
-129.141
-97.662
-75.303
-60.536
-51.851
-47.346
-45.192
-43.669
-41.072
-36.625
-30.409
-22.716
-14.053
-5.139
3.369
10.676
15.868
18.635
19.116
17.631
14.717
10.895
6.606
2.392
-1.166
-3.725
-5.137
-5.395
-4.631
-2.958
-0.465
2.72
6.441
10.557
14.944
19.496
24.133
28.77
33.307
37.649
41.708
45.409
48.711
51.609
54.117
56.265
58.094
59.647
60.979
62.155
63.235
64.275
65.326
66.43
67.633
68.982
70.52
72.286
74.303
76.583
79.126
81.931
84.988
88.287
91.809
95.532
99.435
103.499
107.704
112.035
116.469
120.985
125.558
130.165
134.782
139.388
143.959
148.473
152.908
157.242
161.454
165.524
169.432
173.157
176.678
179.975
183.028
185.82
188.335
190.558
192.474
194.073
195.345
196.282
196.879
197.131
197.035
196.592
195.801
194.667
193.192
191.384
189.248
186.795
184.034
180.976
177.636
174.026
170.161
166.058
161.734
157.205
152.491
147.609
142.579
137.42
132.153
126.795
121.368
115.891
110.382
104.86
99.344
93.851
88.399
83.002
77.676
72.435
67.293
62.263
57.355
52.582
47.951
43.472
39.153
35
31.02
27.216
23.594
20.155
16.902
13.837
10.959
8.268
5.763
3.44
1.299
-0.665
-2.457
-4.081
-5.543
-6.848
-8.003
-9.014
-9.889
-10.635
-11.259
-11.769
-12.173
-12.477
-12.691
-12.821
-12.875
-12.86
-12.783
-12.652
-12.473
-12.253
-11.999
-11.715
-11.41
-11.087
-10.753
-10.412
-10.07
-9.731
-9.398
-9.077
-8.77
-8.481
-8.212
-7.966
-7.745
-7.55
-7.384
-7.247
-7.14
-7.063
-7.018
-7.003
-7.019
-7.064
-7.14
-7.243
-7.375
-7.533
-7.717
-7.925
-8.155
-8.407
-8.678
-8.967
-9.272
-9.591
-9.922
-10.263
-10.611
-10.966
-11.325
-11.685
-12.044
-12.401
-12.754
-13.1
-13.438
-13.766
-14.083
-14.386
-14.675
-14.948
-15.205
-15.444
-15.665
-15.867
-16.05
-16.212
-16.354
-16.476
-16.578
-16.659
-16.72
-16.762
-16.785
-16.79
-16.777
-16.748
-16.703
-16.645
-16.573
-16.49
-16.397
-16.295
-16.187
-16.073
-15.956
-15.837
-15.718
-15.602
-15.489
-15.382
-15.281
-15.19
-15.109
-15.041
-14.987
-14.947
-14.925
-14.922
-14.938
-14.975
-15.034
-15.116
-15.221
-15.349
-15.5
-15.674
-15.87
-16.088
-16.327
-16.585
-16.861
-17.154
-17.461
-17.782
-18.112
-18.451
-18.795
-19.141
-19.486
-19.826
-20.16
-20.482
-20.789
-21.078
-21.343
-21.582
-21.788
-21.958
-22.087
-22.169
-22.201
-22.178
-22.095
-21.95
-21.739
-21.459
-21.109
-20.688
-20.196
-19.632
-18.997
-18.291
-17.515
-16.671
-15.76
-14.784
-13.744
-12.646
-11.492
-10.291
-9.046
-7.765
-6.453
-5.118
-3.766
-2.406
-1.042
0.319
1.67
3.003
4.307
5.57
6.783
7.943
9.047
10.097
11.096
12.051
12.973
13.879
14.782
15.692
16.618
17.56
18.529
19.534
20.586
21.7
22.881
24.128
25.436
26.796
28.189
29.587
30.949
32.224
33.364
34.33
35.088
35.605
35.836
35.74
35.272
34.398
33.108
31.383
29.202
26.549
23.415
19.817
15.81
11.44
6.713
1.701
-3.445
-8.486
-13.055
-16.829
-19.581
-21.044
-20.891
-18.957
-15.35
-10.468
-5.054
0.151
4.698
8.115
9.755
9.284
6.908
3.338
-0.046
-1.69
-0.544
4.557
15.228
32.59
57.108
88.499
125.253
165.327
206.785
246.864
281.68
307.388
320.184
316.811
295.36
254.389
193.067
112.291
14.772
-95.523
-213.376
-333.18
-449.538
-556.424
-648.128
-720.157
-769.372
-794.52
-795.93
-774.819
-733.397
-675.364
-605.184
-527.769
-447.979
-369.578
-295.876
-229.842
-173.642
-128.543
-94.62
-70.664
-54.972
-46.002
-41.832
-40.453
-39.916
-38.27
-34.529
-28.684
-21.035
-12.073
-2.521
6.912
15.334
21.683
25.522
26.936
26.216
23.898
20.512
16.51
12.469
9.022
6.551
5.22
5.042
5.875
7.597
10.118
13.299
16.978
21.009
25.268
29.652
34.086
38.488
42.757
46.796
50.51
53.822
56.686
59.095
61.059
62.611
63.789
64.641
65.223
65.601
65.838
65.994
66.12
66.263
66.472
66.797
67.288
67.99
68.932
70.129
71.589
73.312
75.294
77.527
79.998
82.685
85.569
88.634
91.864
95.245
98.756
102.377
106.086
109.859
113.674
117.509
121.342
125.151
128.913
132.606
136.209
139.702
143.064
146.272
149.305
152.141
154.76
157.142
159.27
161.126
162.695
163.964
164.923
165.562
165.873
165.852
165.494
164.798
163.764
162.394
160.692
158.663
156.315
153.656
150.698
147.452
143.932
140.152
136.13
131.881
127.424
122.778
117.963
113
107.908
102.71
97.426
92.079
86.688
81.276
75.864
70.47
65.115
59.818
54.595
49.464
44.44
39.538
34.77
30.149
25.686
21.389
17.268
13.33
9.58
6.023
2.662
-0.501
-3.465
-6.23
-8.797
-11.169
-13.349
-15.342
-17.152
-18.786
-20.25
-21.552
-22.7
-23.702
-24.566
-25.302
-25.92
-26.428
-26.837
-27.154
-27.39
-27.553
-27.652
-27.694
-27.687
-27.64
-27.557
-27.445
-27.311
-27.158
-26.991
-26.815
-26.632
-26.446
-26.258
-26.069
-25.883
-25.698
-25.516
-25.336
-25.159
-24.983
-24.808
-24.632
-24.455
-24.274
-24.088
-23.896
-23.695
-23.484
-23.263
-23.028
-22.78
-22.518
-22.24
-21.947
-21.638
-21.314
-20.976
-20.623
-20.258
-19.882
-19.498
-19.106
-18.709
-18.311
-17.913
-17.519
-17.131
-16.754
-16.389
-16.041
-15.712
-15.405
-15.123
-14.869
-14.645
-14.455
-14.299
-14.181
-14.101
-14.062
-14.063
-14.106
-14.191
-14.318
-14.486
-14.695
-14.943
-15.23
-15.552
-15.908
-16.296
-16.713
-17.155
-17.621
-18.105
-18.606
-19.118
-19.639
-20.165
-20.691
-21.215
-21.732
-22.239
-22.733
-23.21
-23.668
-24.105
-24.517
-24.904
-25.262
-25.592
-25.891
-26.16
-26.398
-26.606
-26.784
-26.934
-27.055
-27.151
-27.222
-27.27
-27.297
-27.305
-27.296
-27.273
-27.236
-27.189
-27.133
-27.071
-27.005
-26.936
-26.868
-26.801
-26.737
-26.677
-26.622
-26.573
-26.531
-26.495
-26.466
-26.442
-26.423
-26.407
-26.393
-26.379
-26.361
-26.337
-26.303
-26.256
-26.192
-26.108
-26.002
-25.868
-25.705
-25.511
-25.284
-25.022
-24.726
-24.393
-24.025
-23.619
-23.177
-22.699
-22.186
-21.637
-21.055
-20.44
-19.796
-19.128
-18.437
-17.73
-17.008
-16.278
-15.542
-14.808
-14.08
-13.361
-12.657
-11.97
-11.309
-10.683
-10.096
-9.548
-9.039
-8.563
-8.114
-7.687
-7.272
-6.851
-6.41
-5.935
-5.413
-4.843
-4.218
-3.53
-2.771
-1.925
-0.985
0.039
1.14
2.303
3.503
4.724
5.936
7.077
8.102
8.959
9.594
9.981
10.084
9.862
9.294
8.337
6.949
5.116
2.813
0.028
-3.213
-6.927
-11.142
-15.774
-20.668
-25.582
-30.149
-34.08
-37.179
-39.176
-39.737
-38.667
-36.034
-32.233
-27.995
-24.022
-20.706
-18.402
-17.662
-18.853
-21.821
-25.898
-29.736
-31.753
-30.923
-26.271
-16.322
0.062
23.411
53.645
89.411
128.694
169.753
210.18
246.345
274.482
290.852
292.072
275.931
240.861
185.704
110.541
18.582
-85.599
-198.197
-313.997
-430.294
-544.187
-646.447
-730.125
-788.261
-814.687
-813.943
-790.512
-748.587
-695.565
-632.759
-561.936
-487.503
-411.403
-337.403
-269.871
-210.881
-161.858
-123.454
-94.772
-74.299
-61.025
-53.641
-50.136
-48.788
-47.9
-45.814
-42.044
-36.812
-30.19
-22.582
-14.72
-7.187
-0.804
3.552
5.722
5.936
4.503
1.947
-1.222
-4.596
-7.635
-9.785
-10.794
-10.587
-9.215
-6.857
-3.645
0.322
4.89
9.891
15.179
20.615
26.092
31.535
36.847
41.927
46.68
51.014
54.884
58.279
61.214
63.719
65.834
67.599
69.069
70.308
71.377
72.333
73.229
74.109
75.02
76.011
77.126
78.411
79.891
81.579
83.48
85.593
87.91
90.426
93.123
95.984
98.99
102.127
105.38
108.737
112.18
115.692
119.254
122.845
126.448
130.044
133.616
137.145
140.613
144.003
147.299
150.482
153.538
156.447
159.192
161.755
164.12
166.27
168.192
169.87
171.293
172.45
173.332
173.931
174.242
174.259
173.978
173.399
172.521
171.344
169.871
168.106
166.054
163.722
161.116
158.247
155.125
151.76
148.166
144.355
140.342
136.142
131.772
127.246
122.583
117.8
112.915
107.944
102.908
97.823
92.707
87.579
82.455
77.353
72.289
67.278
62.337
57.478
52.717
48.066
43.537
39.143
34.893
30.797
26.865
23.104
19.521
16.122
12.912
9.895
7.075
4.453
2.031
-0.192
-2.216
-4.043
-5.674
-7.114
-8.367
-9.437
-10.33
-11.052
-11.61
-12.01
-12.26
-12.368
-12.342
-12.19
-11.922
-11.545
-11.068
-10.501
-9.852
-9.13
-8.343
-7.5
-6.61
-5.679
-4.717
-3.73
-2.726
-1.712
-0.695
0.32
1.327
2.321
3.296
4.248
5.172
6.066
6.925
7.748
8.53
9.271
9.967
10.618
11.222
11.779
12.287
12.745
13.155
13.514
13.825
14.085
14.298
14.461
14.577
14.646
14.669
14.646
14.579
14.468
14.315
14.12
13.884
13.61
13.297
12.947
12.56
12.139
11.685
11.197
10.679
10.13
9.553
8.949
8.319
7.665
6.988
6.291
5.574
4.839
4.09
3.326
2.551
1.765
0.973
0.174
-0.628
-1.432
-2.235
-3.036
-3.832
-4.62
-5.4
-6.168
-6.922
-7.662
-8.384
-9.087
-9.769
-10.428
-11.064
-11.675
-12.26
-12.818
-13.348
-13.85
-14.323
-14.769
-15.186
-15.576
-15.939
-16.276
-16.589
-16.878
-17.144
-17.389
-17.614
-17.82
-18.008
-18.18
-18.336
-18.478
-18.607
-18.725
-18.832
-18.929
-19.018
-19.099
-19.173
-19.241
-19.301
-19.355
-19.401
-19.44
-19.471
-19.492
-19.503
-19.5
-19.483
-19.448
-19.393
-19.314
-19.207
-19.07
-18.899
-18.69
-18.44
-18.147
-17.808
-17.421
-16.986
-16.502
-15.967
-15.381
-14.743
-14.055
-13.316
-12.526
-11.685
-10.794
-9.856
-8.872
-7.846
-6.784
-5.687
-4.56
-3.409
-2.237
-1.052
0.142
1.341
2.539
3.731
4.909
6.061
7.179
8.263
9.31
10.324
11.308
12.267
13.212
14.161
15.129
16.131
17.18
18.275
19.425
20.636
21.915
23.277
24.726
26.252
27.843
29.483
31.146
32.804
34.413
35.899
37.202
38.257
38.995
39.379
39.356
38.881
37.93
36.458
34.432
31.835
28.644
24.855
20.498
15.58
10.104
4.18
-2.015
-8.208
-14.011
-19.098
-23.217
-26.076
-27.319
-26.728
-24.371
-20.615
-16.16
-11.724
-7.745
-4.657
-3.127
-3.58
-5.896
-9.457
-12.951
-14.809
-13.989
-9.352
0.772
17.597
41.678
72.883
109.778
150.321
192.666
234.102
270.633
298.385
313.655
312.955
294.042
255.387
195.658
116.2
21.631
-84.479
-198.613
-317.892
-442.427
-565.778
-676.211
-763.262
-815.381
-830.467
-816.703
-781.524
-733.775
-678.615
-614.748
-543.482
-467.431
-389.672
-315.686
-249.354
-192.461
-146.033
-109.987
-83.294
-64.566
-52.454
-45.244
-41.088
-38.463
-35.842
-31.935
-26.392
-19.413
-11.281
-2.611
5.909
13.722
20.083
24.315
26.305
26.279
24.611
21.853
18.514
15.02
11.889
9.617
8.452
8.465
9.606
11.714
14.661
18.345
22.62
27.328
32.329
37.489
42.706
47.9
52.976
57.832
62.373
66.506
70.18
73.386
76.135
78.458
80.392
81.979
83.275
84.344
85.247
86.044
86.784
87.513
88.278
89.128
90.107
91.263
92.622
94.197
95.994
98.01
100.24
102.675
105.298
108.088
111.027
114.097
117.284
120.573
123.947
127.386
130.869
134.375
137.885
141.38
144.84
148.246
151.579
154.82
157.954
160.962
163.829
166.535
169.062
171.394
173.513
175.404
177.052
178.443
179.566
180.409
180.966
181.227
181.189
180.847
180.198
179.242
177.979
176.411
174.541
172.375
169.919
167.179
164.166
160.889
157.359
153.589
149.593
145.386
140.981
136.397
131.649
126.755
121.732
116.599
111.374
106.077
100.725
95.338
89.934
84.532
79.15
73.804
68.513
63.292
58.156
53.122
48.202
43.41
38.758
34.258
29.92
25.755
21.77
17.974
14.372
10.97
7.774
4.785
2.007
-0.561
-2.916
-5.061
-6.998
-8.728
-10.257
-11.588
-12.727
-13.681
-14.457
-15.062
-15.504
-15.794
-15.939
-15.95
-15.837
-15.61
-15.278
-14.853
-14.346
-13.766
-13.124
-12.431
-11.696
-10.929
-10.14
-9.337
-8.531
-7.728
-6.937
-6.166
-5.42
-4.706
-4.03
-3.397
-2.811
-2.276
-1.795
-1.371
-1.006
-0.701
-0.457
-0.275
-0.154
-0.094
-0.093
-0.15
-0.263
-0.431
-0.65
-0.918
-1.231
-1.587
-1.982
-2.413
-2.877
-3.368
-3.885
-4.423
-4.979
-5.549
-6.129
-6.717
-7.309
-7.902
-8.494
-9.083
-9.664
-10.238
-10.802
-11.355
-11.895
-12.422
-12.934
-13.432
-13.914
-14.382
-14.834
-15.272
-15.697
-16.108
-16.507
-16.896
-17.275
-17.645
-18.009
-18.368
-18.724
-19.077
-19.431
-19.787
-20.147
-20.513
-20.887
-21.271
-21.666
-22.073
-22.493
-22.928
-23.378
-23.842
-24.322
-24.816
-25.324
-25.845
-26.38
-26.926
-27.481
-28.044
-28.614
-29.187
-29.761
-30.333
-30.9
-31.459
-32.006
-32.539
-33.052
-33.543
-34.008
-34.441
-34.838
-35.196
-35.508
-35.771
-35.98
-36.13
-36.218
-36.24
-36.193
-36.075
-35.884
-35.621
-35.284
-34.875
-34.394
-33.842
-33.22
-32.531
-31.777
-30.958
-30.079
-29.144
-28.159
-27.128
-26.061
-24.962
-23.839
-22.7
-21.553
-20.406
-19.265
-18.136
-17.025
-15.944
-14.902
-13.914
-12.987
-12.128
-11.338
-10.617
-9.963
-9.367
-8.819
-8.298
-7.789
-7.281
-6.767
-6.243
-5.703
-5.133
-4.517
-3.841
-3.095
-2.279
-1.395
-0.448
0.546
1.559
2.547
3.456
4.233
4.84
5.241
5.406
5.295
4.858
4.046
2.813
1.134
-1.002
-3.604
-6.695
-10.279
-14.337
-18.834
-23.678
-28.814
-34.237
-39.849
-45.468
-50.831
-55.527
-59.191
-61.61
-62.482
-61.446
-58.486
-53.747
-47.651
-41.154
-34.972
-29.537
-25.568
-23.649
-23.74
-25.587
-28.316
-30.138
-29.767
-26.089
-17.348
-2.26
19.758
48.947
84.309
123.714
165.261
206.359
243.02
271.461
288.047
289.069
272.042
235.436
177.843
100.455
7.806
-96.709
-209.718
-328.32
-452.67
-576.374
-687.559
-775.588
-828.688
-844.548
-831.375
-796.666
-749.293
-694.42
-630.662
-559.286
-482.946
-404.762
-330.276
-263.415
-206.004
-159.125
-122.729
-95.8
-76.93
-64.745
-57.519
-53.389
-50.799
-48.186
-44.22
-38.528
-31.306
-22.841
-13.749
-4.729
3.649
10.621
15.488
18.121
18.739
17.71
15.583
12.864
9.978
7.444
5.76
5.171
5.748
7.436
10.072
13.526
17.692
22.424
27.561
32.96
38.491
44.048
49.552
54.909
60.017
64.779
69.103
72.941
76.283
79.14
81.542
83.528
85.14
86.435
87.478
88.33
89.051
89.694
90.304
90.931
91.625
92.433
93.402
94.563
95.929
97.51
99.304
101.308
103.516
105.914
108.482
111.204
114.067
117.055
120.156
123.355
126.633
129.971
133.347
136.744
140.143
143.525
146.87
150.16
153.376
156.501
159.517
162.406
165.149
167.727
170.121
172.314
174.288
176.028
177.518
178.745
179.697
180.364
180.738
180.812
180.579
180.037
179.183
178.016
176.538
174.751
172.658
170.265
167.58
164.611
161.367
157.859
154.101
150.105
145.887
141.461
136.843
132.052
127.104
122.017
116.811
111.503
106.114
100.661
95.165
89.644
84.116
78.6
73.114
67.674
62.296
56.996
51.79
46.69
41.709
36.86
32.154
27.6
23.209
18.987
14.942
11.08
7.405
3.922
0.632
-2.462
-5.359
-8.06
-10.567
-12.88
-15.003
-16.94
-18.695
-20.273
-21.68
-22.923
-24.008
-24.943
-25.735
-26.392
-26.923
-27.336
-27.64
-27.842
-27.952
-27.978
-27.928
-27.81
-27.632
-27.402
-27.127
-26.814
-26.47
-26.101
-25.712
-25.311
-24.9
-24.487
-24.073
-23.665
-23.264
-22.875
-22.5
-22.141
-21.801
-21.481
-21.183
-20.907
-20.655
-20.427
-20.222
-20.043
-19.887
-19.755
-19.646
-19.56
-19.497
-19.454
-19.432
-19.429
-19.445
-19.478
-19.529
-19.596
-19.678
-19.775
-19.886
-20.011
-20.148
-20.297
-20.458
-20.63
-20.813
-21.007
-21.21
-21.423
-21.645
-21.876
-22.115
-22.364
-22.621
-22.886
-23.159
-23.441
-23.731
-24.029
-24.336
-24.65
-24.974
-25.305
-25.645
-25.994
-26.351
-26.716
-27.089
-27.471
-27.859
-28.254
-28.655
-29.061
-29.471
-29.884
-30.298
-30.713
-31.127
-31.539
-31.948
-32.352
-32.748
-33.137
-33.515
-33.88
-34.23
-34.564
-34.877
-35.169
-35.437
-35.677
-35.888
-36.065
-36.206
-36.308
-36.369
-36.385
-36.353
-36.272
-36.138
-35.951
-35.708
-35.41
-35.056
-34.647
-34.183
-33.667
-33.098
-32.48
-31.813
-31.102
-30.348
-29.552
-28.718
-27.849
-26.948
-26.019
-25.068
-24.098
-23.113
-22.119
-21.122
-20.127
-19.141
-18.163
-17.198
-16.248
-15.319
-14.418
-13.552
-12.717
-11.913
-11.14
-10.394
-9.672
-8.964
-8.25
-7.508
-6.725
-5.888
-4.996
-4.045
-3.024
-1.922
-0.73
0.558
1.928
3.366
4.867
6.418
7.99
9.54
10.987
12.247
13.261
13.971
14.331
14.312
13.854
12.892
11.377
9.259
6.518
3.162
-0.856
-5.594
-11.01
-16.955
-23.14
-29.148
-34.641
-39.377
-43.061
-45.319
-45.91
-44.874
-42.576
-39.729
-37.045
-34.924
-33.732
-34.05
-36.215
-40.032
-44.827
-49.223
-51.604
-50.907
-46.014
-35.291
-17.577
7.623
40.137
78.484
120.583
164.594
207.809
246.22
275.934
293.22
294.528
277.558
240.712
182.535
104.28
10.546
-95.137
-209.297
-329.07
-454.629
-579.444
-691.468
-779.887
-832.816
-848.029
-833.762
-797.577
-748.485
-691.68
-625.951
-552.816
-474.944
-395.519
-320.366
-253.501
-196.87
-151.682
-117.47
-92.784
-76.123
-65.944
-60.245
-57.075
-54.606
-50.999
-45.379
-37.808
-28.611
-18.306
-7.659
2.618
11.676
18.494
22.677
24.361
23.874
21.773
18.613
14.853
11.065
7.894
5.726
4.726
4.913
6.148
8.308
11.315
15.034
19.308
23.993
28.951
34.069
39.265
44.448
49.51
54.349
58.862
62.963
66.609
69.792
72.525
74.837
76.77
78.366
79.684
80.79
81.75
82.624
83.465
84.32
85.239
86.274
87.474
88.884
90.532
92.43
94.586
96.997
99.658
102.56
105.688
109.018
112.532
116.213
120.042
124.006
128.083
132.252
136.49
140.773
145.078
149.384
153.667
157.905
162.075
166.154
170.123
173.96
177.643
181.152
184.463
187.557
190.411
193.009
195.331
197.361
199.085
200.489
201.564
202.299
202.689
202.727
202.41
201.738
200.709
199.326
197.593
195.515
193.099
190.355
187.293
183.924
180.263
176.325
172.125
167.682
163.012
158.137
153.076
147.848
142.477
136.982
131.386
125.71
119.977
114.207
108.423
102.644
96.891
91.183
85.538
79.975
74.51
69.158
63.935
58.854
53.928
49.167
44.583
40.185
35.98
31.975
28.175
24.586
21.209
18.047
15.1
12.369
9.85
7.543
5.444
3.547
1.849
0.342
-0.978
-2.121
-3.093
-3.903
-4.559
-5.069
-5.444
-5.692
-5.821
-5.842
-5.763
-5.593
-5.341
-5.016
-4.626
-4.179
-3.683
-3.145
-2.573
-1.973
-1.351
-0.714
-0.066
0.588
1.243
1.895
2.54
3.176
3.799
4.407
4.999
5.571
6.124
6.654
7.162
7.647
8.107
8.542
8.951
9.334
9.69
10.018
10.318
10.589
10.831
11.042
11.224
11.374
11.493
11.579
11.632
11.651
11.635
11.584
11.496
11.37
11.206
11.003
10.759
10.474
10.146
9.776
9.361
8.902
8.398
7.848
7.253
6.613
5.928
5.2
4.429
3.617
2.767
1.88
0.96
0.01
-0.968
-1.97
-2.992
-4.03
-5.08
-6.139
-7.201
-8.262
-9.317
-10.361
-11.389
-12.396
-13.377
-14.328
-15.242
-16.115
-16.942
-17.717
-18.437
-19.095
-19.689
-20.212
-20.662
-21.035
-21.33
-21.544
-21.675
-21.725
-21.694
-21.584
-21.398
-21.139
-20.809
-20.413
-19.956
-19.441
-18.874
-18.26
-17.604
-16.914
-16.196
-15.46
-14.714
-13.966
-13.225
-12.498
-11.794
-11.122
-10.489
-9.901
-9.366
-8.891
-8.484
-8.157
-7.915
-7.759
-7.689
-7.699
-7.782
-7.929
-8.127
-8.355
-8.597
-8.838
-9.065
-9.271
-9.445
-9.573
-9.641
-9.632
-9.532
-9.344
-9.07
-8.717
-8.305
-7.854
-7.397
-6.985
-6.663
-6.467
-6.44
-6.62
-7.041
-7.751
-8.784
-10.164
-11.921
-14.075
-16.648
-19.66
-23.106
-26.954
-31.18
-35.775
-40.66
-45.683
-50.599
-55.036
-58.656
-61.218
-62.437
-61.968
-59.668
-55.637
-50.248
-44.336
-38.694
-33.818
-30.294
-28.717
-29.301
-31.894
-35.788
-39.384
-41.021
-39.38
-32.919
-20.191
-0.251
27.429
62.48
103.222
147.402
192.411
234.748
270.481
295.762
306.793
300.175
273.715
226.312
157.768
70.934
-29.905
-141.576
-258.942
-378.635
-497.571
-606.239
-697.274
-763.351
-797.426
-803.387
-785.64
-748.705
-700.114
-641.028
-572.966
-500.02
-424.512
-350.803
-283.368
-224.273
-174.976
-136.045
-106.781
-85.959
-72.275
-64.189
-59.72
-57.11
-54.777
-51.193
-45.784
-38.695
-30.164
-20.709
-11.096
-1.96
5.945
11.792
15.359
16.812
16.45
14.786
12.323
9.475
6.748
4.669
3.525
3.428
4.369
6.195
8.771
11.971
15.612
19.513
23.526
27.529
31.43
35.171
38.689
41.924
44.839
47.392
49.55
51.307
52.67
53.689
54.437
55.013
55.537
56.114
56.832
57.769
58.981
60.508
62.371
64.57
67.076
69.873
72.957
76.319
79.955
83.839
87.928
92.17
96.499
100.857
105.201
109.492
113.695
117.796
121.788
125.684
129.52
133.315
137.074
140.795
144.46
148.061
151.594
155.052
158.429
161.716
164.899
167.968
170.911
173.71
176.34
178.767
180.947
182.845
184.437
185.701
186.626
187.2
187.414
187.261
186.745
185.868
184.63
183.036
181.086
178.786
176.146
173.18
169.903
166.333
162.485
158.377
154.028
149.455
144.679
139.717
134.587
129.309
123.903
118.391
112.796
107.14
101.445
95.733
90.028
84.35
78.721
73.16
67.686
62.315
57.065
51.951
46.987
42.186
37.56
33.119
28.874
24.832
21
17.385
13.99
10.819
7.874
5.155
2.663
0.395
-1.65
-3.477
-5.09
-6.493
-7.695
-8.701
-9.52
-10.162
-10.635
-10.949
-11.117
-11.147
-11.052
-10.842
-10.529
-10.124
-9.638
-9.081
-8.465
-7.799
-7.094
-6.359
-5.604
-4.838
-4.069
-3.306
-2.556
-1.825
-1.121
-0.449
0.185
0.777
1.321
1.814
2.254
2.637
2.962
3.227
3.431
3.574
3.656
3.676
3.637
3.539
3.383
3.172
2.907
2.59
2.225
1.812
1.355
0.857
0.32
-0.253
-0.859
-1.495
-2.159
-2.848
-3.557
-4.285
-5.028
-5.783
-6.546
-7.313
-8.083
-8.851
-9.614
-10.369
-11.113
-11.844
-12.557
-13.251
-13.922
-14.568
-15.185
-15.771
-16.323
-16.838
-17.314
-17.747
-18.136
-18.477
-18.768
-19.007
-19.191
-19.317
-19.384
-19.388
-19.329
-19.205
-19.016
-18.76
-18.438
-18.051
-17.6
-17.088
-16.518
-15.892
-15.214
-14.486
-13.713
-12.899
-12.048
-11.165
-10.252
-9.318
-8.367
-7.407
-6.444
-5.486
-4.538
-3.607
-2.701
-1.827
-0.991
-0.199
0.544
1.233
1.861
2.417
2.898
3.303
3.634
3.894
4.088
4.222
4.308
4.362
4.401
4.439
4.492
4.565
4.668
4.812
5.011
5.28
5.628
6.054
6.548
7.106
7.713
8.353
8.993
9.579
10.061
10.386
10.499
10.359
9.92
9.135
7.977
6.404
4.379
1.877
-1.126
-4.652
-8.688
-13.234
-18.317
-23.823
-29.57
-35.302
-40.62
-45.189
-48.797
-51.131
-51.819
-50.814
-48.245
-44.503
-40.457
-36.717
-33.583
-31.629
-31.365
-32.772
-35.601
-38.984
-41.172
-40.885
-37.143
-28.417
-13.493
8.261
37.182
72.373
111.721
153.298
194.69
232.319
262.593
281.799
286.272
273.748
242.926
192.827
123.96
38.565
-60.083
-167.246
-277.485
-385.807
-486.935
-575.605
-647.728
-700.316
-731.716
-742.158
-732.742
-705.074
-662.042
-607.173
-544.171
-477.098
-409.468
-343.892
-282.958
-228.845
-182.84
-145.768
-117.545
-97.082
-83.254
-74.911
-70.389
-68.099
-66.534
-64.156
-60.263
-54.877
-48.123
-40.367
-32.249
-24.333
-17.346
-12.129
-8.949
-7.685
-8.085
-9.683
-12.013
-14.687
-17.208
-19.041
-19.913
-19.725
-18.494
-16.369
-13.461
-9.852
-5.674
-1.076
3.813
8.877
14.026
19.196
24.303
29.252
33.953
38.315
42.291
45.864
49.042
51.851
54.326
56.504
58.436
60.18
61.795
63.332
64.841
66.361
67.938
69.617
71.444
73.464
75.705
78.182
80.902
83.863
87.06
90.483
94.117
97.939
101.928
106.067
110.336
114.719
119.195
123.741
128.331
132.94
137.542
142.113
146.629
151.064
155.394
159.594
163.642
167.515
171.192
174.649
177.862
180.81
183.472
185.829
187.861
189.553
190.889
191.857
192.446
192.649
192.46
191.875
190.891
189.51
187.733
185.566
183.015
180.088
176.795
173.151
169.167
164.861
160.251
155.353
150.19
144.782
139.151
133.321
127.316
121.16
114.876
108.491
102.03
95.516
88.975
82.432
75.908
69.429
63.015
56.688
50.469
44.374
38.423
32.632
27.015
21.586
16.357
11.338
6.54
1.97
-2.367
-6.464
-10.319
-13.931
-17.297
-20.419
-23.299
-25.941
-28.347
-30.524
-32.477
-34.214
-35.743
-37.071
-38.208
-39.164
-39.948
-40.571
-41.043
-41.375
-41.577
-41.661
-41.636
-41.513
-41.302
-41.012
-40.653
-40.233
-39.76
-39.244
-38.69
-38.105
-37.497
-36.869
-36.228
-35.577
-34.92
-34.261
-33.602
-32.946
-32.294
-31.648
-31.009
-30.377
-29.754
-29.139
-28.532
-27.934
-27.343
-26.76
-26.184
-25.614
-25.051
-24.494
-23.943
-23.398
-22.858
-22.326
-21.8
-21.282
-20.773
-20.274
-19.786
-19.312
-18.852
-18.411
-17.988
-17.589
-17.214
-16.866
-16.549
-16.264
-16.014
-15.8
-15.626
-15.492
-15.401
-15.353
-15.349
-15.391
-15.478
-15.612
-15.791
-16.015
-16.282
-16.592
-16.942
-17.33
-17.752
-18.206
-18.687
-19.191
-19.715
-20.252
-20.798
-21.346
-21.891
-22.426
-22.945
-23.44
-23.905
-24.335
-24.723
-25.062
-25.349
-25.579
-25.748
-25.853
-25.892
-25.863
-25.764
-25.594
-25.352
-25.04
-24.657
-24.203
-23.68
-23.092
-22.441
-21.734
-20.975
-20.17
-19.324
-18.445
-17.537
-16.611
-15.673
-14.729
-13.786
-12.852
-11.936
-11.05
-10.201
-9.394
-8.628
-7.904
-7.218
-6.566
-5.941
-5.326
-4.711
-4.081
-3.426
-2.745
-2.032
-1.279
-0.481
0.379
1.309
2.3
3.346
4.434
5.54
6.647
7.723
8.709
9.554
10.207
10.609
10.733
10.544
9.998
9.079
7.743
5.949
3.682
0.915
-2.362
-6.12
-10.368
-15.126
-20.296
-25.713
-31.122
-36.144
-40.482
-43.929
-46.207
-46.979
-46.063
-43.535
-39.788
-35.54
-31.485
-28.028
-25.57
-24.698
-25.741
-28.508
-32.295
-35.739
-37.275
-35.817
-30.231
-18.955
-0.908
24.321
56.442
93.943
134.756
176.914
217.63
253.078
279.534
293.367
291.521
272.305
234.445
177.239
101.752
10.722
-91.957
-201.197
-311.836
-419.043
-517.277
-601.363
-667.449
-712.818
-736.637
-739.707
-723.091
-688.62
-639.69
-580.056
-513.738
-444.986
-376.745
-311.271
-251.24
-198.627
-154.439
-119.313
-92.73
-73.333
-60.292
-52.602
-48.529
-46.563
-45.209
-42.974
-39.394
-34.616
-28.645
-21.772
-14.603
-7.644
-1.631
2.631
4.983
5.614
4.786
2.954
0.562
-2.029
-4.332
-5.843
-6.325
-5.713
-4.053
-1.51
1.794
5.769
10.278
15.168
20.306
25.567
30.859
36.118
41.261
46.203
50.857
55.144
59.022
62.487
65.551
68.249
70.614
72.687
74.519
76.167
77.69
79.139
80.561
81.995
83.484
85.069
86.791
88.691
90.792
93.105
95.632
98.371
101.313
104.449
107.764
111.235
114.843
118.571
122.401
126.317
130.3
134.329
138.38
142.431
146.458
150.442
154.359
158.187
161.906
165.493
168.928
172.193
175.267
178.13
180.763
183.146
185.261
187.092
188.623
189.84
190.732
191.287
191.499
191.36
190.867
190.016
188.808
187.243
185.324
183.056
180.446
177.502
174.234
170.653
166.773
162.607
158.173
153.487
148.567
143.433
138.106
132.605
126.952
121.17
115.281
109.307
103.27
97.194
91.099
85.009
78.944
72.925
66.972
61.104
55.34
49.695
44.187
38.83
33.638
28.623
23.796
19.168
14.747
10.541
6.556
2.796
-0.735
-4.034
-7.101
-9.937
-12.542
-14.919
-17.073
-19.008
-20.729
-22.244
-23.559
-24.684
-25.626
-26.396
-27.004
-27.458
-27.771
-27.953
-28.015
-27.968
-27.823
-27.59
-27.281
-26.905
-26.472
-25.993
-25.477
-24.932
-24.366
-23.788
-23.204
-22.622
-22.047
-21.484
-20.938
-20.414
-19.914
-19.441
-18.998
-18.585
-18.205
-17.857
-17.542
-17.259
-17.007
-16.785
-16.591
-16.424
-16.282
-16.161
-16.06
-15.976
-15.907
-15.85
-15.803
-15.763
-15.728
-15.697
-15.666
-15.636
-15.604
-15.569
-15.531
-15.488
-15.441
-15.39
-15.334
-15.274
-15.212
-15.147
-15.082
-15.018
-14.955
-14.896
-14.842
-14.794
-14.753
-14.722
-14.7
-14.691
-14.694
-14.711
-14.743
-14.791
-14.855
-14.935
-15.031
-15.143
-15.27
-15.411
-15.563
-15.727
-15.898
-16.075
-16.256
-16.436
-16.612
-16.781
-16.938
-17.08
-17.202
-17.299
-17.369
-17.406
-17.408
-17.371
-17.292
-17.171
-17.004
-16.793
-16.535
-16.231
-15.88
-15.482
-15.04
-14.553
-14.022
-13.449
-12.836
-12.187
-11.505
-10.796
-10.063
-9.311
-8.545
-7.772
-6.999
-6.231
-5.472
-4.727
-4
-3.298
-2.632
-2.007
-1.423
-0.88
-0.376
0.093
0.529
0.944
1.356
1.784
2.245
2.752
3.309
3.924
4.603
5.36
6.213
7.163
8.206
9.329
10.52
11.767
13.051
14.326
15.528
16.588
17.431
18.007
18.273
18.181
17.698
16.774
15.352
13.398
10.883
7.79
4.128
-0.123
-5.001
-10.427
-16.207
-22.056
-27.57
-32.41
-36.348
-39.081
-40.237
-39.619
-37.303
-33.682
-29.487
-25.409
-21.835
-19.163
-17.98
-18.604
-20.84
-23.967
-26.605
-27.201
-24.653
-17.826
-5.164
14.486
41.552
75.724
115.517
158.725
203.148
245.904
283.013
310.419
324.309
321.374
299.543
257.74
195.62
114.33
16.894
-92.372
-208.191
-324.771
-436.429
-537.639
-623.327
-689.414
-733.357
-754.361
-752.935
-730.735
-690.436
-635.522
-570.109
-498.776
-425.793
-354.566
-288.175
-229.083
-178.949
-138.829
-108.665
-87.289
-73.233
-65.038
-60.869
-58.943
-57.56
-55.014
-50.513
-44.104
-36.055
-26.845
-17.167
-7.681
0.801
7.328
11.54
13.551
13.647
12.326
10.079
7.315
4.553
2.372
1.111
0.91
1.773
3.564
6.166
9.503
13.45
17.859
22.598
27.544
32.594
37.678
42.719
47.622
52.301
56.666
60.642
64.195
67.319
70.027
72.35
74.323
75.986
77.393
78.605
79.68
80.674
81.634
82.601
83.621
84.739
86
87.444
89.097
90.97
93.068
95.392
97.937
100.694
103.648
106.78
110.071
113.504
117.063
120.733
124.495
128.327
132.206
136.11
140.016
143.903
147.747
151.525
155.216
158.796
162.246
165.545
168.671
171.604
174.322
176.804
179.033
180.989
182.655
184.018
185.062
185.777
186.154
186.185
185.865
185.19
184.16
182.773
181.034
178.945
176.513
173.745
170.652
167.244
163.533
159.535
155.265
150.739
145.976
140.994
135.815
130.457
124.943
119.293
113.531
107.678
101.757
95.789
89.796
83.8
77.822
71.882
65.999
60.191
54.477
48.873
43.394
38.054
32.867
27.843
22.994
18.329
13.856
9.581
5.511
1.649
-2.001
-5.437
-8.66
-11.669
-14.465
-17.051
-19.431
-21.608
-23.589
-25.378
-26.982
-28.41
-29.667
-30.763
-31.706
-32.505
-33.169
-33.707
-34.128
-34.442
-34.657
-34.783
-34.828
-34.801
-34.71
-34.562
-34.366
-34.128
-33.854
-33.552
-33.226
-32.883
-32.526
-32.16
-31.789
-31.416
-31.045
-30.676
-30.314
-29.959
-29.612
-29.276
-28.949
-28.634
-28.33
-28.038
-27.756
-27.486
-27.226
-26.977
-26.737
-26.507
-26.285
-26.072
-25.867
-25.669
-25.479
-25.295
-25.119
-24.95
-24.788
-24.634
-24.489
-24.354
-24.229
-24.115
-24.014
-23.927
-23.856
-23.803
-23.768
-23.754
-23.763
-23.796
-23.855
-23.94
-24.054
-24.198
-24.371
-24.574
-24.807
-25.071
-25.365
-25.688
-26.039
-26.418
-26.823
-27.252
-27.703
-28.175
-28.663
-29.167
-29.681
-30.202
-30.728
-31.252
-31.772
-32.282
-32.777
-33.252
-33.701
-34.12
-34.501
-34.839
-35.127
-35.362
-35.537
-35.647
-35.689
-35.659
-35.553
-35.37
-35.11
-34.771
-34.354
-33.859
-33.287
-32.64
-31.919
-31.128
-30.268
-29.344
-28.359
-27.32
-26.234
-25.108
-23.95
-22.767
-21.567
-20.36
-19.154
-17.959
-16.782
-15.631
-14.519
-13.454
-12.451
-11.52
-10.664
-9.887
-9.189
-8.564
-8.009
-7.514
-7.064
-6.644
-6.244
-5.855
-5.47
-5.082
-4.679
-4.25
-3.781
-3.262
-2.692
-2.08
-1.431
-0.768
-0.117
0.492
1.008
1.379
1.568
1.528
1.215
0.595
-0.376
-1.738
-3.511
-5.729
-8.423
-11.605
-15.302
-19.508
-24.182
-29.311
-34.886
-40.808
-46.909
-52.922
-58.455
-63.182
-66.871
-69.223
-69.883
-68.678
-65.716
-61.425
-56.576
-51.898
-47.811
-44.759
-43.378
-43.982
-46.325
-49.619
-52.402
-53.07
-50.513
-43.556
-30.587
-10.465
17.213
52.094
92.622
136.578
181.788
225.299
263.01
290.927
305.311
302.642
280.754
238.525
175.203
92.973
-4.065
-112.872
-228.452
-347.389
-466.838
-577.604
-672.141
-742.863
-782.552
-794.566
-782.952
-751.88
-708.209
-652.844
-587.283
-515.69
-440.717
-366.899
-298.752
-238.543
-188.042
-148.118
-118.308
-97.452
-84.123
-76.716
-73.253
-71.911
-70.982
-68.784
-64.596
-58.505
-50.782
-41.961
-32.8
-23.957
-16.243
-10.567
-7.225
-6.085
-6.848
-8.99
-12.005
-15.469
-18.848
-21.573
-23.315
-23.935
-23.427
-21.926
-19.542
-16.36
-12.51
-8.142
-3.395
1.611
6.777
12.029
17.288
22.456
27.441
32.156
36.526
40.508
44.095
47.297
50.139
52.659
54.896
56.903
58.739
60.461
62.121
63.765
65.434
67.169
69.014
71.01
73.196
75.595
78.217
81.065
84.136
87.422
90.913
94.591
98.435
102.423
106.538
110.761
115.076
119.463
123.9
128.364
132.832
137.281
141.689
146.035
150.296
154.45
158.477
162.356
166.069
169.595
172.914
176.007
178.854
181.438
183.741
185.749
187.448
188.824
189.867
190.57
190.926
190.93
190.581
189.875
188.815
187.404
185.645
183.544
181.11
178.351
175.279
171.905
168.244
164.31
160.12
155.69
151.04
146.189
141.155
135.961
130.626
125.172
119.621
113.994
108.312
102.596
96.869
91.149
85.459
79.815
74.238
68.744
63.351
58.073
52.926
47.922
43.075
38.394
33.89
29.573
25.449
21.525
17.806
14.297
10.999
7.915
5.046
2.39
-0.054
-2.289
-4.318
-6.145
-7.778
-9.22
-10.48
-11.565
-12.483
-13.242
-13.853
-14.324
-14.664
-14.885
-14.995
-15.006
-14.925
-14.765
-14.533
-14.24
-13.895
-13.506
-13.082
-12.63
-12.16
-11.677
-11.189
-10.701
-10.22
-9.749
-9.295
-8.86
-8.449
-8.064
-7.707
-7.382
-7.088
-6.828
-6.601
-6.407
-6.247
-6.119
-6.022
-5.954
-5.914
-5.901
-5.91
-5.941
-5.991
-6.057
-6.136
-6.227
-6.325
-6.428
-6.535
-6.642
-6.747
-6.848
-6.943
-7.031
-7.109
-7.176
-7.232
-7.275
-7.304
-7.319
-7.319
-7.304
-7.275
-7.232
-7.174
-7.104
-7.021
-6.928
-6.825
-6.715
-6.598
-6.477
-6.355
-6.232
-6.112
-5.997
-5.888
-5.789
-5.702
-5.63
-5.573
-5.534
-5.515
-5.517
-5.542
-5.589
-5.661
-5.757
-5.878
-6.023
-6.192
-6.385
-6.601
-6.839
-7.097
-7.374
-7.668
-7.977
-8.298
-8.628
-8.964
-9.303
-9.641
-9.974
-10.298
-10.609
-10.903
-11.174
-11.418
-11.63
-11.805
-11.939
-12.028
-12.068
-12.055
-11.987
-11.861
-11.676
-11.432
-11.128
-10.765
-10.342
-9.862
-9.324
-8.732
-8.087
-7.39
-6.646
-5.858
-5.03
-4.168
-3.278
-2.365
-1.434
-0.492
0.455
1.399
2.335
3.256
4.157
5.033
5.874
6.673
7.422
8.12
8.77
9.374
9.937
10.462
10.96
11.444
11.93
12.43
12.958
13.517
14.116
14.765
15.476
16.266
17.144
18.103
19.136
20.231
21.371
22.54
23.712
24.83
25.849
26.718
27.382
27.805
27.948
27.761
27.213
26.258
24.848
22.96
20.575
17.665
14.247
10.306
5.791
0.806
-4.47
-9.791
-14.744
-18.996
-22.349
-24.452
-24.899
-23.616
-20.716
-16.641
-12.337
-8.469
-5.371
-3.625
-3.769
-5.801
-9.429
-13.664
-16.591
-16.751
-13.076
-4.07
11.562
34.475
64.976
102.257
144.157
188.658
233.492
275.27
310.32
335.065
345.875
339.795
315.127
270.591
205.678
122.976
26.319
-81.356
-195.075
-311.764
-428.664
-536.518
-628.02
-695.883
-732.963
-742.687
-729.105
-696.278
-651.146
-594.773
-528.677
-456.985
-382.284
-308.995
-241.609
-182.365
-132.907
-93.983
-65.037
-44.852
-32.025
-24.956
-21.633
-20.232
-19.082
-16.569
-12.05
-5.652
2.349
11.408
20.751
29.711
37.492
43.229
46.664
47.948
47.39
45.514
42.819
39.726
36.75
34.43
33.07
32.791
33.585
35.316
37.869
41.154
45.043
49.387
54.049
58.912
63.875
68.864
73.799
78.587
83.142
87.381
91.236
94.672
97.684
100.289
102.516
104.404
105.997
107.346
108.515
109.561
110.537
111.494
112.472
113.515
114.668
115.973
117.467
119.176
121.111
123.274
125.666
128.279
131.106
134.13
137.332
140.692
144.195
147.822
151.559
155.387
159.283
163.225
167.191
171.157
175.102
179.003
182.837
186.581
190.214
193.713
197.057
200.226
203.197
205.948
208.457
210.705
212.673
214.343
215.699
216.725
217.41
217.743
217.715
217.32
216.553
215.411
213.894
212.002
209.738
207.107
204.117
200.774
197.091
193.077
188.748
184.119
179.204
174.024
168.595
162.94
157.077
151.03
144.821
138.471
132.006
125.447
118.819
112.145
105.448
98.751
92.077
85.446
78.88
72.399
66.021
59.764
53.645
47.68
41.882
36.266
30.841
25.62
20.611
15.822
11.26
6.929
2.834
-1.023
-4.641
-8.02
-11.161
-14.067
-16.741
-19.188
-21.412
-23.422
-25.223
-26.824
-28.234
-29.462
-30.517
-31.41
-32.151
-32.75
-33.219
-33.568
-33.808
-33.949
-34.001
-33.976
-33.883
-33.731
-33.529
-33.288
-33.014
-32.716
-32.401
-32.076
-31.749
-31.423
-31.106
-30.802
-30.515
-30.248
-30.006
-29.791
-29.605
-29.451
-29.329
-29.241
-29.187
-29.167
-29.183
-29.232
-29.316
-29.433
-29.582
-29.762
-29.972
-30.211
-30.478
-30.77
-31.087
-31.428
-31.79
-32.172
-32.574
-32.992
-33.427
-33.876
-34.339
-34.813
-35.298
-35.792
-36.294
-36.803
-37.317
-37.837
-38.36
-38.886
-39.413
-39.941
-40.469
-40.996
-41.522
-42.045
-42.564
-43.08
-43.592
-44.098
-44.598
-45.093
-45.58
-46.059
-46.531
-46.994
-47.449
-47.894
-48.33
-48.757
-49.174
-49.582
-49.981
-50.371
-50.753
-51.128
-51.495
-51.856
-52.211
-52.561
-52.909
-53.253
-53.596
-53.939
-54.283
-54.628
-54.976
-55.327
-55.682
-56.04
-56.403
-56.77
-57.142
-57.518
-57.898
-58.282
-58.669
-59.058
-59.45
-59.842
-60.233
-60.621
-61.004
-61.38
-61.747
-62.102
-62.442
-62.764
-63.065
-63.342
-63.59
-63.806
-63.985
-64.124
-64.218
-64.264
-64.257
-64.195
-64.075
-63.894
-63.652
-63.346
-62.978
-62.547
-62.054
-61.499
-60.884
-60.21
-59.479
-58.693
-57.854
-56.966
-56.033
-55.059
-54.052
-53.017
-51.96
-50.888
-49.807
-48.724
-47.647
-46.58
-45.531
-44.506
-43.513
-42.56
-41.66
-40.818
-40.037
-39.317
-38.655
-38.044
-37.479
-36.947
-36.432
-35.922
-35.405
-34.871
-34.315
-33.728
-33.1
-32.422
-31.675
-30.85
-29.949
-28.973
-27.936
-26.861
-25.765
-24.685
-23.673
-22.772
-22.026
-21.484
-21.18
-21.154
-21.452
-22.104
-23.143
-24.599
-26.497
-28.863
-31.712
-35.042
-38.828
-43.052
-47.709
-52.7
-57.842
-62.86
-67.36
-70.989
-73.518
-74.632
-73.944
-71.416
-67.218
-61.798
-56.133
-50.966
-46.693
-43.996
-43.475
-45.062
-48.425
-52.581
-55.535
-55.797
-52.21
-42.995
-26.809
-3.085
28.394
66.541
108.97
153.575
197.739
237.526
269.062
288.622
292.675
278.921
246.014
192.975
119.992
30.434
-71.135
-181.024
-294.059
-407.67
-519.2
-619.534
-701.841
-759.262
-785.601
-785.45
-763.352
-723.481
-673.202
-613.684
-546.517
-475.934
-403.72
-333.527
-269.58
-213.815
-167.541
-131.303
-104.163
-84.614
-71.682
-64.119
-60.014
-57.756
-55.764
-52.507
-47.58
-41.244
-33.601
-25.065
-16.358
-8.051
-0.948
4.114
6.981
7.858
7.047
5.059
2.384
-0.57
-3.275
-5.197
-6.082
-5.842
-4.519
-2.273
0.778
4.542
8.884
13.655
18.721
23.963
29.282
34.601
39.83
44.868
49.62
53.994
57.938
61.437
64.5
67.16
69.453
71.421
73.117
74.601
75.934
77.173
78.371
79.57
80.821
82.171
83.668
85.359
87.274
89.43
91.833
94.482
97.373
100.497
103.841
107.383
111.105
114.989
119.019
123.181
127.454
131.818
136.25
140.725
145.219
149.712
154.178
158.594
162.937
167.183
171.309
175.293
179.112
182.742
186.159
189.339
192.261
194.903
197.245
199.268
200.955
202.291
203.262
203.859
204.072
203.895
203.322
202.35
200.979
199.211
197.048
194.496
191.561
188.254
184.585
180.567
176.216
171.546
166.576
161.326
155.816
150.068
144.104
137.949
131.626
125.16
118.578
111.904
105.165
98.386
91.593
84.811
78.064
71.377
64.772
58.272
51.897
45.667
39.601
33.715
28.027
22.549
17.296
12.279
7.508
2.991
-1.263
-5.251
-8.968
-12.412
-15.582
-18.478
-21.102
-23.458
-25.55
-27.384
-28.967
-30.307
-31.413
-32.295
-32.964
-33.432
-33.71
-33.81
-33.747
-33.533
-33.181
-32.705
-32.119
-31.435
-30.668
-29.828
-28.929
-27.984
-27.002
-25.995
-24.974
-23.947
-22.924
-21.913
-20.921
-19.955
-19.022
-18.126
-17.272
-16.463
-15.704
-14.997
-14.342
-13.742
-13.197
-12.707
-12.272
-11.891
-11.561
-11.282
-11.051
-10.865
-10.722
-10.618
-10.551
-10.516
-10.512
-10.533
-10.578
-10.642
-10.723
-10.818
-10.923
-11.037
-11.156
-11.278
-11.403
-11.526
-11.648
-11.767
-11.881
-11.99
-12.092
-12.188
-12.277
-12.358
-12.432
-12.497
-12.556
-12.607
-12.651
-12.688
-12.72
-12.746
-12.767
-12.784
-12.799
-12.81
-12.821
-12.83
-12.839
-12.848
-12.858
-12.87
-12.884
-12.899
-12.917
-12.938
-12.962
-12.988
-13.017
-13.05
-13.085
-13.123
-13.164
-13.207
-13.254
-13.303
-13.354
-13.409
-13.467
-13.529
-13.594
-13.664
-13.738
-13.817
-13.903
-13.994
-14.093
-14.199
-14.314
-14.438
-14.573
-14.719
-14.876
-15.047
-15.232
-15.432
-15.647
-15.877
-16.124
-16.387
-16.666
-16.962
-17.274
-17.601
-17.943
-18.3
-18.669
-19.051
-19.444
-19.845
-20.253
-20.666
-21.08
-21.493
-21.901
-22.302
-22.692
-23.067
-23.424
-23.757
-24.063
-24.336
-24.573
-24.768
-24.917
-25.015
-25.058
-25.042
-24.963
-24.819
-24.607
-24.326
-23.974
-23.552
-23.059
-22.495
-21.861
-21.157
-20.387
-19.551
-18.651
-17.69
-16.673
-15.603
-14.487
-13.33
-12.138
-10.917
-9.675
-8.418
-7.154
-5.891
-4.633
-3.389
-2.166
-0.971
0.183
1.29
2.346
3.351
4.306
5.216
6.083
6.915
7.729
8.537
9.351
10.184
11.039
11.921
12.841
13.804
14.829
15.923
17.079
18.293
19.552
20.833
22.121
23.385
24.565
25.611
26.47
27.079
27.408
27.413
27.05
26.293
25.097
23.416
21.227
18.499
15.216
11.4
7.036
2.102
-3.308
-9.026
-14.786
-20.197
-24.936
-28.777
-31.415
-32.486
-31.793
-29.41
-25.738
-21.521
-17.473
-14.023
-11.595
-10.808
-12.027
-15.054
-19.145
-22.88
-24.603
-23.133
-17.277
-5.391
13.767
40.691
75.123
115.571
159.745
205.395
249.591
288.273
317.295
332.714
331.074
310.237
269.094
207.248
125.803
27.762
-82.547
-199.756
-317.945
-431.353
-534.351
-621.74
-689.312
-734.386
-756.069
-754.849
-732.382
-691.327
-635.198
-568.177
-494.936
-419.88
-346.519
-277.995
-216.849
-164.828
-123.056
-91.516
-69.043
-54.13
-45.302
-40.713
-38.547
-37.053
-34.467
-29.95
-23.533
-15.488
-6.293
3.362
12.812
21.228
27.636
31.658
33.412
33.2
31.539
28.938
25.824
22.739
20.281
18.808
18.464
19.258
21.049
23.719
27.188
31.326
35.98
41.011
46.289
51.705
57.183
62.636
67.962
73.067
77.857
82.253
86.219
89.747
92.849
95.556
97.902
99.929
101.689
103.244
104.652
105.968
107.241
108.513
109.831
111.24
112.784
114.505
116.426
118.557
120.904
123.463
126.23
129.196
132.344
135.656
139.111
142.695
146.391
150.185
154.058
157.988
161.956
165.938
169.914
173.864
177.766
181.599
185.342
188.974
192.477
195.831
199.016
202.011
204.797
207.353
209.661
211.704
213.464
214.927
216.079
216.908
217.404
217.56
217.37
216.828
215.932
214.681
213.076
211.118
208.813
206.166
203.184
199.876
196.253
192.328
188.112
183.621
178.871
173.878
168.661
163.239
157.63
151.854
145.933
139.887
133.737
127.505
121.212
114.878
108.526
102.174
95.844
89.554
83.323
77.168
71.105
65.152
59.322
53.629
48.085
42.704
37.494
32.465
27.625
22.982
18.541
14.307
10.283
6.471
2.872
-0.512
-3.684
-6.645
-9.398
-11.948
-14.298
-16.455
-18.424
-20.213
-21.829
-23.28
-24.574
-25.721
-26.73
-27.609
-28.368
-29.017
-29.564
-30.02
-30.393
-30.692
-30.927
-31.105
-31.235
-31.325
-31.382
-31.413
-31.425
-31.423
-31.414
-31.402
-31.393
-31.39
-31.397
-31.417
-31.453
-31.507
-31.581
-31.676
-31.793
-31.934
-32.097
-32.283
-32.492
-32.723
-32.975
-33.247
-33.538
-33.847
-34.172
-34.513
-34.867
-35.233
-35.609
-35.995
-36.389
-36.789
-37.194
-37.603
-38.015
-38.429
-38.844
-39.259
-39.674
-40.088
-40.5
-40.911
-41.319
-41.726
-42.13
-42.532
-42.932
-43.331
-43.728
-44.124
-44.518
-44.913
-45.307
-45.7
-46.095
-46.489
-46.885
-47.282
-47.68
-48.08
-48.48
-48.883
-49.287
-49.692
-50.1
-50.509
-50.919
-51.331
-51.745
-52.16
-52.577
-52.995
-53.414
-53.834
-54.255
-54.678
-55.101
-55.524
-55.949
-56.375
-56.802
-57.23
-57.659
-58.089
-58.521
-58.955
-59.391
-59.829
-60.27
-60.713
-61.16
-61.611
-62.064
-62.522
-62.983
-63.448
-63.915
-64.384
-64.854
-65.324
-65.792
-66.259
-66.721
-67.178
-67.627
-68.067
-68.496
-68.911
-69.31
-69.69
-70.048
-70.381
-70.686
-70.96
-71.199
-71.4
-71.559
-71.674
-71.74
-71.754
-71.712
-71.611
-71.447
-71.217
-70.919
-70.551
-70.111
-69.597
-69.01
-68.35
-67.619
-66.819
-65.951
-65.019
-64.025
-62.972
-61.865
-60.708
-59.503
-58.257
-56.974
-55.662
-54.328
-52.979
-51.623
-50.265
-48.914
-47.578
-46.264
-44.979
-43.73
-42.521
-41.36
-40.253
-39.211
-38.24
-37.34
-36.508
-35.744
-35.04
-34.39
-33.784
-33.202
-32.628
-32.045
-31.439
-30.802
-30.125
-29.396
-28.599
-27.72
-26.748
-25.687
-24.542
-23.32
-22.034
-20.701
-19.355
-18.053
-16.845
-15.786
-14.935
-14.334
-14.033
-14.078
-14.499
-15.336
-16.627
-18.396
-20.666
-23.461
-26.764
-30.577
-34.928
-39.702
-44.711
-49.685
-54.206
-57.921
-60.603
-61.917
-61.474
-59.22
-55.29
-50.102
-44.576
-39.369
-34.816
-31.533
-30.069
-30.407
-32.275
-34.761
-36.026
-34.71
-29.773
-19.6
-2.907
20.952
52.297
90.174
132.341
176.763
220.93
261.094
293.508
314.329
319.759
307.487
276.222
224.942
154.136
66.1
-35.826
-146.772
-261.112
-373.716
-479.123
-571.791
-647.354
-702.539
-735.432
-746.098
-735.534
-705.308
-658.428
-598.674
-530.073
-457.089
-383.625
-312.648
-247.098
-189.385
-140.866
-102.306
-73.439
-52.937
-39.446
-31.576
-27.403
-25.148
-23.206
-20.04
-15.052
-8.381
-0.263
8.824
18.14
27.033
34.725
40.386
43.787
45.087
44.596
42.818
40.244
37.297
34.486
32.335
31.138
31.007
31.928
33.767
36.413
39.775
43.73
48.135
52.858
57.788
62.823
67.888
72.904
77.778
82.423
86.756
90.708
94.245
97.365
100.085
102.435
104.456
106.189
107.687
109.012
110.22
111.365
112.496
113.652
114.879
116.219
117.715
119.405
121.313
123.449
125.815
128.41
131.227
134.256
137.484
140.887
144.448
148.149
151.974
155.907
159.929
164.018
168.151
172.307
176.463
180.596
184.685
188.707
192.639
196.46
200.148
203.682
207.042
210.205
213.149
215.855
218.301
220.469
222.341
223.901
225.135
226.03
226.574
226.761
226.582
226.033
225.111
223.813
222.142
220.099
217.689
214.918
211.792
208.323
204.521
200.398
195.969
191.25
186.257
181.01
175.526
169.827
163.933
157.867
151.65
145.305
138.856
132.326
125.738
119.115
112.48
105.856
99.264
92.726
86.262
79.891
73.631
67.501
61.517
55.694
50.045
44.584
39.322
34.27
29.436
24.829
20.455
16.318
12.424
8.773
5.367
2.207
-0.71
-3.385
-5.823
-8.027
-10.004
-11.759
-13.301
-14.637
-15.777
-16.729
-17.503
-18.11
-18.56
-18.864
-19.032
-19.076
-19.007
-18.834
-18.57
-18.224
-17.806
-17.325
-16.792
-16.216
-15.604
-14.965
-14.306
-13.635
-12.958
-12.281
-11.609
-10.947
-10.3
-9.67
-9.062
-8.477
-7.918
-7.387
-6.884
-6.412
-5.969
-5.556
-5.173
-4.819
-4.493
-4.195
-3.923
-3.676
-3.453
-3.252
-3.072
-2.911
-2.768
-2.642
-2.531
-2.433
-2.348
-2.274
-2.211
-2.157
-2.11
-2.072
-2.04
-2.015
-1.995
-1.981
-1.973
-1.969
-1.97
-1.977
-1.988
-2.004
-2.026
-2.054
-2.088
-2.129
-2.177
-2.232
-2.295
-2.366
-2.446
-2.534
-2.632
-2.739
-2.856
-2.983
-3.121
-3.269
-3.429
-3.601
-3.784
-3.98
-4.188
-4.409
-4.644
-4.891
-5.153
-5.429
-5.719
-6.024
-6.343
-6.677
-7.026
-7.389
-7.766
-8.156
-8.559
-8.972
-9.396
-9.829
-10.27
-10.718
-11.172
-11.629
-12.088
-12.547
-13.005
-13.458
-13.905
-14.343
-14.768
-15.179
-15.572
-15.944
-16.293
-16.614
-16.905
-17.161
-17.38
-17.558
-17.692
-17.777
-17.812
-17.793
-17.72
-17.59
-17.402
-17.158
-16.857
-16.501
-16.091
-15.629
-15.117
-14.558
-13.953
-13.308
-12.623
-11.904
-11.154
-10.381
-9.591
-8.79
-7.984
-7.18
-6.385
-5.607
-4.852
-4.128
-3.44
-2.793
-2.195
-1.654
-1.179
-0.778
-0.451
-0.196
-0.01
0.109
0.169
0.179
0.159
0.124
0.089
0.064
0.054
0.068
0.116
0.211
0.368
0.594
0.882
1.226
1.619
2.049
2.498
2.933
3.295
3.537
3.611
3.469
3.077
2.396
1.383
0.018
-1.732
-3.896
-6.485
-9.517
-13.015
-16.963
-21.373
-26.262
-31.52
-36.968
-42.362
-47.336
-51.591
-54.926
-57.028
-57.526
-56.33
-53.589
-49.748
-45.596
-41.704
-38.339
-35.976
-35.263
-36.391
-39.093
-42.473
-44.947
-45.246
-42.562
-35.722
-23.212
-4.031
22.194
54.82
92.03
131.948
172.663
211.343
244.242
267.508
277.524
271.524
247.934
205.691
144.572
65.903
-27.308
-130.729
-239.237
-347.505
-450.292
-542.427
-619.341
-677.504
-714.857
-731.053
-726.841
-703.894
-664.853
-613.016
-552.128
-486.291
-419.214
-353.769
-292.6
-237.826
-190.826
-152.536
-122.938
-101.018
-85.583
-75.46
-69.095
-65.007
-61.758
-57.829
-52.519
-45.859
-38.031
-29.418
-20.599
-12.087
-4.567
1.13
4.712
6.283
6.096
4.615
2.289
-0.508
-3.286
-5.505
-6.841
-7.148
-6.407
-4.739
-2.24
1.011
4.897
9.272
14.002
18.971
24.084
29.27
34.453
39.542
44.447
49.084
53.382
57.302
60.835
63.992
66.798
69.29
71.508
73.502
75.334
77.057
78.723
80.379
82.063
83.818
85.687
87.712
89.929
92.362
95.023
97.915
101.035
104.377
107.93
111.677
115.597
119.67
123.876
128.197
132.616
137.113
141.664
146.245
150.833
155.402
159.93
164.393
168.768
173.032
177.161
181.133
184.929
188.525
191.901
195.035
197.906
200.493
202.78
204.748
206.383
207.67
208.598
209.157
209.34
209.141
208.556
207.585
206.225
204.482
202.357
199.857
196.991
193.767
190.196
186.292
182.069
177.542
172.728
167.646
162.316
156.757
150.99
145.038
138.922
132.666
126.291
119.822
113.282
106.692
100.076
93.456
86.854
80.291
73.786
67.359
61.029
54.811
48.722
42.778
36.991
31.373
25.938
20.693
15.648
10.811
6.187
1.782
-2.401
-6.36
-10.092
-13.599
-16.88
-19.937
-22.775
-25.396
-27.805
-30.008
-32.011
-33.821
-35.445
-36.893
-38.171
-39.29
-40.257
-41.084
-41.778
-42.349
-42.808
-43.163
-43.423
-43.598
-43.695
-43.725
-43.694
-43.611
-43.483
-43.317
-43.119
-42.895
-42.652
-42.394
-42.125
-41.851
-41.575
-41.299
-41.027
-40.762
-40.505
-40.258
-40.021
-39.797
-39.585
-39.385
-39.198
-39.023
-38.859
-38.707
-38.563
-38.429
-38.302
-38.181
-38.065
-37.953
-37.844
-37.735
-37.627
-37.517
-37.405
-37.291
-37.173
-37.05
-36.922
-36.79
-36.652
-36.508
-36.359
-36.205
-36.046
-35.883
-35.717
-35.548
-35.376
-35.205
-35.033
-34.863
-34.696
-34.533
-34.375
-34.225
-34.084
-33.953
-33.834
-33.729
-33.64
-33.569
-33.516
-33.483
-33.472
-33.485
-33.522
-33.584
-33.674
-33.79
-33.935
-34.109
-34.312
-34.543
-34.804
-35.092
-35.408
-35.75
-36.116
-36.506
-36.917
-37.348
-37.796
-38.259
-38.734
-39.219
-39.711
-40.206
-40.701
-41.193
-41.678
-42.151
-42.608
-43.047
-43.461
-43.849
-44.204
-44.524
-44.803
-45.038
-45.225
-45.36
-45.44
-45.46
-45.42
-45.315
-45.146
-44.91
-44.608
-44.24
-43.808
-43.312
-42.756
-42.142
-41.472
-40.751
-39.981
-39.168
-38.313
-37.423
-36.503
-35.558
-34.594
-33.619
-32.637
-31.657
-30.684
-29.726
-28.792
-27.885
-27.01
-26.17
-25.37
-24.616
-23.916
-23.273
-22.687
-22.157
-21.68
-21.254
-20.873
-20.524
-20.188
-19.844
-19.478
-19.077
-18.638
-18.155
-17.618
-17.015
-16.333
-15.567
-14.723
-13.805
-12.814
-11.76
-10.661
-9.554
-8.504
-7.582
-6.843
-6.334
-6.091
-6.139
-6.52
-7.286
-8.481
-10.145
-12.304
-14.962
-18.165
-21.979
-26.389
-31.269
-36.362
-41.297
-45.751
-49.498
-52.275
-53.732
-53.638
-52.024
-49.242
-45.979
-42.925
-40.457
-38.889
-38.737
-40.329
-43.525
-47.696
-51.495
-53.322
-52.098
-46.811
-35.997
-18.478
6.373
38.562
76.75
118.826
162.914
206.553
246.177
278.059
298.338
303.416
291.209
260.47
210.194
140.818
54.49
-45.518
-154.409
-266.688
-377.4
-481.342
-573.185
-648.658
-704.522
-738.81
-751.535
-743.692
-716.697
-673.222
-616.716
-550.916
-480.072
-408.041
-337.696
-271.823
-212.883
-162.453
-121.6
-90.398
-67.756
-52.419
-43.148
-38.189
-35.813
-34.343
-32.046
-28.092
-22.471
-15.344
-7.109
1.57
10.09
17.658
23.345
26.816
28.168
27.669
25.817
23.095
19.913
16.789
14.287
12.73
12.253
12.852
14.385
16.736
19.815
23.491
27.613
32.046
36.672
41.392
46.133
50.817
55.354
59.657
63.648
67.259
70.458
73.245
75.64
77.676
79.394
80.839
82.065
83.133
84.102
85.025
85.953
86.926
87.988
89.183
90.554
92.137
93.957
96.024
98.34
100.903
103.705
106.736
109.982
113.42
117.03
120.795
124.699
128.723
132.848
137.052
141.312
145.603
149.903
154.189
158.439
162.629
166.735
170.736
174.611
178.337
181.895
185.262
188.417
191.338
194.007
196.406
198.516
200.323
201.813
202.973
203.795
204.27
204.393
204.159
203.567
202.617
201.31
199.649
197.641
195.291
192.61
189.606
186.293
182.683
178.793
174.636
170.232
165.598
160.753
155.718
150.513
145.159
139.677
134.09
128.418
122.683
116.908
111.113
105.319
99.545
93.812
88.138
82.541
77.036
71.64
66.366
61.229
56.239
51.409
46.747
42.262
37.961
33.85
29.934
26.216
22.699
19.383
16.269
13.356
10.641
8.122
5.794
3.653
1.693
-0.092
-1.71
-3.167
-4.472
-5.634
-6.661
-7.562
-8.346
-9.023
-9.602
-10.092
-10.502
-10.841
-11.117
-11.339
-11.514
-11.651
-11.756
-11.836
-11.898
-11.946
-11.986
-12.024
-12.062
-12.106
-12.157
-12.22
-12.296
-12.386
-12.494
-12.618
-12.761
-12.922
-13.101
-13.298
-13.513
-13.743
-13.988
-14.247
-14.518
-14.8
-15.09
-15.387
-15.69
-15.996
-16.304
-16.612
-16.918
-17.221
-17.519
-17.811
-18.095
-18.371
-18.637
-18.893
-19.138
-19.371
-19.593
-19.802
-19.999
-20.183
-20.355
-20.514
-20.662
-20.799
-20.925
-21.04
-21.146
-21.243
-21.333
-21.415
-21.492
-21.563
-21.631
-21.695
-21.758
-21.821
-21.884
-21.949
-22.018
-22.092
-22.171
-22.258
-22.354
-22.459
-22.577
-22.706
-22.85
-23.009
-23.184
-23.376
-23.588
-23.819
-24.071
-24.343
-24.638
-24.955
-25.293
-25.654
-26.037
-26.441
-26.866
-27.311
-27.775
-28.257
-28.756
-29.27
-29.797
-30.336
-30.883
-31.437
-31.994
-32.551
-33.105
-33.654
-34.192
-34.716
-35.223
-35.708
-36.167
-36.595
-36.989
-37.343
-37.653
-37.914
-38.124
-38.279
-38.374
-38.409
-38.38
-38.288
-38.131
-37.91
-37.625
-37.275
-36.864
-36.391
-35.86
-35.273
-34.632
-33.939
-33.2
-32.419
-31.603
-30.757
-29.887
-28.998
-28.098
-27.194
-26.294
-25.403
-24.528
-23.672
-22.843
-22.049
-21.3
-20.602
-19.956
-19.361
-18.817
-18.32
-17.867
-17.447
-17.044
-16.64
-16.221
-15.775
-15.301
-14.79
-14.232
-13.617
-12.927
-12.156
-11.31
-10.394
-9.413
-8.38
-7.311
-6.24
-5.226
-4.324
-3.596
-3.091
-2.844
-2.895
-3.274
-4.022
-5.19
-6.818
-8.934
-11.563
-14.711
-18.401
-22.684
-27.523
-32.759
-38.145
-43.324
-47.964
-51.849
-54.712
-56.188
-56.045
-54.306
-51.297
-47.711
-44.238
-41.254
-39.097
-38.281
-39.145
-41.597
-45.013
-48.047
-49.128
-47.145
-41.079
-29.579
-11.488
13.807
46.268
84.702
127.147
171.717
216.056
256.849
290.462
313.177
321.473
312.832
285.596
238.549
171.748
86.901
-12.977
-123.478
-239.334
-355.102
-465.079
-563.558
-645.703
-707.777
-747.438
-764.15
-758.502
-732.12
-687.97
-629.814
-561.866
-488.735
-414.59
-342.75
-276.377
-217.962
-168.994
-130.328
-101.713
-81.823
-69.181
-62.272
-59.117
-57.868
-56.857
-54.482
-50.098
-43.839
-35.996
-27.09
-17.88
-9.045
-1.383
4.244
7.578
8.773
8.14
6.197
3.442
0.302
-2.706
-5.046
-6.412
-6.684
-5.868
-4.099
-1.488
1.875
5.864
10.331
15.14
20.177
25.341
30.555
35.742
40.805
45.658
50.215
54.406
58.194
61.572
64.554
67.166
69.446
71.435
73.182
74.748
76.189
77.556
78.897
80.252
81.663
83.172
84.822
86.65
88.678
90.918
93.373
96.041
98.916
101.989
105.244
108.661
112.221
115.908
119.706
123.6
127.57
131.597
135.66
139.735
143.803
147.842
151.832
155.752
159.579
163.295
166.879
170.313
173.577
176.652
179.516
182.152
184.541
186.666
188.511
190.062
191.306
192.232
192.83
193.094
193.018
192.598
191.832
190.718
189.26
187.459
185.321
182.851
180.058
176.95
173.539
169.837
165.858
161.616
157.129
152.412
147.484
142.365
137.072
131.628
126.052
120.364
114.587
108.741
102.847
96.926
90.999
85.085
79.204
73.375
67.616
61.943
56.374
50.922
45.603
40.43
35.415
30.569
25.903
21.425
17.144
13.065
9.195
5.538
2.098
-1.125
-4.128
-6.913
-9.479
-11.829
-13.967
-15.896
-17.62
-19.147
-20.48
-21.629
-22.6
-23.4
-24.039
-24.525
-24.867
-25.073
-25.154
-25.118
-24.975
-24.733
-24.403
-23.992
-23.51
-22.966
-22.367
-21.723
-21.04
-20.326
-19.588
-18.833
-18.067
-17.295
-16.523
-15.755
-14.997
-14.251
-13.521
-12.811
-12.122
-11.457
-10.819
-10.207
-9.624
-9.07
-8.545
-8.051
-7.586
-7.152
-6.747
-6.371
-6.024
-5.705
-5.412
-5.145
-4.903
-4.685
-4.489
-4.314
-4.16
-4.024
-3.906
-3.805
-3.719
-3.648
-3.59
-3.545
-3.511
-3.488
-3.476
-3.474
-3.482
-3.499
-3.525
-3.56
-3.604
-3.657
-3.719
-3.79
-3.87
-3.96
-4.06
-4.169
-4.289
-4.419
-4.56
-4.712
-4.877
-5.054
-5.244
-5.449
-5.668
-5.902
-6.152
-6.419
-6.704
-7.007
-7.33
-7.672
-8.035
-8.419
-8.823
-9.249
-9.696
-10.163
-10.65
-11.156
-11.68
-12.22
-12.775
-13.344
-13.925
-14.517
-15.116
-15.721
-16.33
-16.94
-17.547
-18.149
-18.743
-19.324
-19.89
-20.436
-20.959
-21.454
-21.917
-22.344
-22.729
-23.069
-23.358
-23.592
-23.766
-23.876
-23.92
-23.893
-23.793
-23.618
-23.368
-23.043
-22.643
-22.169
-21.622
-21.003
-20.315
-19.56
-18.741
-17.861
-16.924
-15.934
-14.897
-13.821
-12.712
-11.578
-10.427
-9.266
-8.103
-6.947
-5.806
-4.687
-3.598
-2.55
-1.55
-0.613
0.253
1.045
1.762
2.404
2.976
3.486
3.944
4.365
4.766
5.157
5.549
5.947
6.361
6.801
7.28
7.811
8.405
9.063
9.778
10.545
11.34
12.139
12.91
13.602
14.166
14.564
14.749
14.677
14.316
13.623
12.56
11.107
9.23
6.899
4.097
0.798
-2.996
-7.243
-11.934
-17.06
-22.533
-28.186
-33.756
-38.852
-43.153
-46.437
-48.414
-48.734
-47.216
-43.959
-39.384
-34.257
-29.309
-24.956
-21.617
-19.91
-20.168
-22.171
-25.162
-27.697
-28.159
-25.431
-18.382
-5.432
14.599
42.178
77.032
117.658
161.82
207.351
251.411
290.029
319.108
334.712
333.367
312.918
272.197
210.698
129.416
31.249
-79.54
-197.564
-316.852
-431.619
-536.169
-625.202
-694.412
-740.959
-763.824
-763.551
-741.835
-701.36
-645.714
-578.995
-505.781
-430.598
-357.017
-288.017
-226.071
-172.78
-129.093
-95.324
-70.641
-53.55
-42.684
-36.429
-33.062
-31.138
-29.189
-25.979
-21.155
-14.897
-7.474
0.558
8.56
15.996
22.153
26.372
28.524
28.814
27.584
25.344
22.567
19.649
17.077
15.325
14.624
15.04
16.519
18.903
22.066
25.911
30.295
35.065
40.085
45.23
50.403
55.536
60.539
65.321
69.794
73.873
77.514
80.713
83.481
85.85
87.857
89.544
90.965
92.182
93.254
94.238
95.184
96.133
97.132
98.225
99.459
100.875
102.502
104.35
106.426
108.73
111.254
113.991
116.926
120.039
123.311
126.727
130.269
133.925
137.674
141.498
145.374
149.28
153.195
157.097
160.966
164.779
168.516
172.155
175.676
179.061
182.289
185.338
188.189
190.822
193.216
195.355
197.221
198.799
200.074
201.035
201.672
201.977
201.942
201.564
200.84
199.768
198.35
196.588
194.486
192.05
189.288
186.208
182.823
179.143
175.183
170.958
166.483
161.776
156.855
151.738
146.446
140.999
135.416
129.719
123.929
118.067
112.155
106.213
100.261
94.32
88.41
82.549
76.754
71.044
65.434
59.938
54.572
49.347
44.277
39.37
34.638
30.089
25.729
21.565
17.601
13.842
10.29
6.946
3.811
0.884
-1.836
-4.351
-6.666
-8.783
-10.709
-12.449
-14.008
-15.395
-16.615
-17.678
-18.591
-19.362
-20
-20.514
-20.912
-21.203
-21.395
-21.497
-21.518
-21.465
-21.346
-21.169
-20.94
-20.667
-20.356
-20.014
-19.645
-19.255
-18.85
-18.432
-18.008
-17.58
-17.151
-16.726
-16.306
-15.894
-15.492
-15.101
-14.724
-14.361
-14.013
-13.682
-13.367
-13.07
-12.79
-12.528
-12.285
-12.059
-11.852
-11.664
-11.494
-11.343
-11.21
-11.095
-11
-10.923
-10.865
-10.826
-10.807
-10.808
-10.828
-10.869
-10.93
-11.012
-11.114
-11.238
-11.383
-11.55
-11.738
-11.949
-12.181
-12.436
-12.712
-13.011
-13.331
-13.674
-14.037
-14.421
-14.825
-15.25
-15.693
-16.155
-16.635
-17.132
-17.646
-18.175
-18.719
-19.277
-19.848
-20.431
-21.026
-21.631
-22.245
-22.868
-23.499
-24.137
-24.781
-25.43
-26.083
-26.739
-27.396
-28.054
-28.709
-29.361
-30.008
-30.649
-31.282
-31.905
-32.517
-33.115
-33.699
-34.266
-34.815
-35.343
-35.848
-36.328
-36.782
-37.205
-37.598
-37.956
-38.278
-38.56
-38.802
-38.999
-39.149
-39.249
-39.297
-39.29
-39.226
-39.104
-38.921
-38.678
-38.375
-38.012
-37.59
-37.113
-36.581
-35.997
-35.364
-34.683
-33.959
-33.194
-32.391
-31.555
-30.689
-29.801
-28.896
-27.982
-27.063
-26.148
-25.241
-24.35
-23.481
-22.64
-21.832
-21.063
-20.34
-19.669
-19.062
-18.523
-18.054
-17.652
-17.312
-17.027
-16.791
-16.589
-16.404
-16.221
-16.026
-15.81
-15.565
-15.283
-14.951
-14.557
-14.084
-13.524
-12.879
-12.153
-11.358
-10.511
-9.63
-8.75
-7.92
-7.183
-6.578
-6.145
-5.923
-5.953
-6.281
-6.943
-7.966
-9.376
-11.199
-13.453
-16.161
-19.33
-22.938
-26.974
-31.454
-36.288
-41.309
-46.267
-50.765
-54.461
-57.145
-58.5
-58.147
-56.036
-52.328
-47.484
-42.467
-37.975
-34.346
-32.171
-32.007
-33.831
-37.342
-41.565
-44.579
-44.944
-41.635
-33.17
-18.291
3.653
33.007
68.972
109.403
152.288
195.32
235.165
268.261
290.927
299.397
290.883
263.721
216.64
149.558
64.063
-37.007
-149.336
-267.584
-386.166
-499.304
-601.146
-686.621
-751.728
-793.827
-812.161
-807.23
-780.625
-735.265
-674.949
-604.035
-527.344
-449.338
-373.58
-303.376
-241.37
-189.214
-147.888
-117.209
-95.826
-82.159
-74.608
-71.134
-69.812
-68.874
-66.607
-62.271
-55.972
-48.016
-38.936
-29.512
-20.442
-12.554
-6.759
-3.352
-2.177
-2.91
-5.006
-7.939
-11.262
-14.439
-16.904
-18.337
-18.613
-17.742
-15.869
-13.117
-9.581
-5.397
-0.723
4.297
9.539
14.894
20.281
25.611
30.785
35.707
40.291
44.465
48.193
51.469
54.31
56.746
58.819
60.572
62.059
63.345
64.488
65.545
66.566
67.595
68.678
69.861
71.187
72.696
74.413
76.348
78.506
80.885
83.48
86.282
89.277
92.446
95.77
99.235
102.825
106.525
110.319
114.188
118.109
122.063
126.029
129.988
133.92
137.804
141.62
145.347
148.967
152.461
155.81
158.992
161.989
164.78
167.347
169.672
171.739
173.531
175.035
176.238
177.13
177.702
177.948
177.861
177.438
176.676
175.575
174.136
172.363
170.259
167.83
165.084
162.03
158.679
155.043
151.134
146.969
142.562
137.93
133.09
128.062
122.864
117.516
112.038
106.451
100.774
95.03
89.239
83.422
77.598
71.788
66.011
60.285
54.629
49.059
43.592
38.243
33.027
27.956
23.043
18.3
13.737
9.363
5.185
1.21
-2.556
-6.109
-9.446
-12.565
-15.465
-18.147
-20.613
-22.863
-24.903
-26.736
-28.368
-29.805
-31.054
-32.122
-33.018
-33.75
-34.327
-34.759
-35.056
-35.228
-35.283
-35.233
-35.088
-34.856
-34.549
-34.176
-33.745
-33.266
-32.748
-32.198
-31.625
-31.035
-30.436
-29.833
-29.233
-28.64
-28.059
-27.493
-26.948
-26.424
-25.924
-25.451
-25.004
-24.586
-24.195
-23.833
-23.497
-23.188
-22.903
-22.642
-22.402
-22.182
-21.979
-21.791
-21.615
-21.45
-21.293
-21.141
-20.992
-20.845
-20.697
-20.546
-20.39
-20.229
-20.06
-19.882
-19.695
-19.498
-19.291
-19.073
-18.845
-18.607
-18.36
-18.105
-17.844
-17.576
-17.305
-17.032
-16.759
-16.488
-16.222
-15.962
-15.712
-15.473
-15.249
-15.042
-14.854
-14.687
-14.545
-14.429
-14.342
-14.285
-14.259
-14.268
-14.312
-14.392
-14.51
-14.665
-14.857
-15.087
-15.354
-15.657
-15.993
-16.362
-16.762
-17.189
-17.642
-18.116
-18.61
-19.119
-19.639
-20.166
-20.696
-21.224
-21.745
-22.254
-22.745
-23.214
-23.656
-24.065
-24.436
-24.763
-25.042
-25.267
-25.434
-25.537
-25.572
-25.534
-25.421
-25.23
-24.957
-24.602
-24.164
-23.644
-23.042
-22.361
-21.603
-20.769
-19.865
-18.892
-17.857
-16.763
-15.614
-14.417
-13.178
-11.904
-10.603
-9.284
-7.955
-6.622
-5.295
-3.981
-2.69
-1.43
-0.207
0.972
2.1
3.167
4.165
5.085
5.925
6.69
7.38
8.003
8.564
9.073
9.548
10.006
10.464
10.932
11.42
11.934
12.483
13.084
13.753
14.499
15.321
16.207
17.146
18.123
19.12
20.1
21.008
21.787
22.381
22.74
22.828
22.598
22.016
21.047
19.651
17.793
15.451
12.609
9.256
5.409
1.065
-3.791
-9.042
-14.493
-19.868
-24.766
-28.85
-31.9
-33.598
-33.56
-31.736
-28.275
-23.601
-18.647
-14.089
-10.276
-7.828
-7.303
-8.686
-11.711
-15.477
-18.125
-18.272
-14.858
-6.252
8.825
31.006
60.616
96.716
137.084
179.711
222.1
260.527
291.287
310.579
314.64
301.18
268.882
216.705
145.127
56.425
-46.08
-157.534
-272.325
-385.328
-491.065
-583.981
-659.701
-714.938
-747.77
-758.256
-747.383
-716.72
-669.278
-608.838
-539.444
-465.589
-391.213
-319.33
-252.939
-194.509
-145.462
-106.62
-77.759
-57.578
-44.72
-37.771
-34.763
-33.849
-33.356
-31.673
-28.123
-22.789
-15.874
-7.835
0.581
8.702
15.726
20.791
23.649
24.461
23.535
21.38
18.504
15.339
12.41
10.259
9.157
9.189
10.319
12.385
15.264
18.86
23.035
27.635
32.524
37.585
42.717
47.85
52.892
57.745
62.314
66.508
70.277
73.604
76.502
78.999
81.132
82.943
84.484
85.815
86.995
88.082
89.126
90.17
91.261
92.446
93.774
95.29
97.023
98.991
101.198
103.645
106.326
109.233
112.353
115.663
119.147
122.786
126.566
130.472
134.486
138.587
142.754
146.963
151.193
155.422
159.629
163.792
167.889
171.898
175.798
179.57
183.193
186.645
189.904
192.95
195.761
198.318
200.605
202.602
204.295
205.669
206.714
207.42
207.778
207.783
207.429
206.714
205.637
204.2
202.405
200.257
197.761
194.925
191.76
188.277
184.488
180.406
176.049
171.432
166.574
161.492
156.208
150.74
145.111
139.341
133.453
127.468
121.41
115.299
109.158
103.01
96.874
90.772
84.724
78.749
72.863
67.086
61.434
55.92
50.559
45.365
40.349
35.521
30.891
26.466
22.255
18.261
14.489
10.942
7.622
4.53
1.664
-0.978
-3.396
-5.597
-7.584
-9.364
-10.942
-12.327
-13.525
-14.546
-15.399
-16.092
-16.637
-17.043
-17.32
-17.479
-17.529
-17.481
-17.345
-17.131
-16.848
-16.505
-16.112
-15.677
-15.209
-14.713
-14.199
-13.672
-13.139
-12.604
-12.074
-11.552
-11.043
-10.55
-10.075
-9.622
-9.193
-8.788
-8.409
-8.057
-7.733
-7.436
-7.167
-6.925
-6.709
-6.52
-6.355
-6.215
-6.097
-6.002
-5.929
-5.876
-5.842
-5.828
-5.832
-5.854
-5.894
-5.952
-6.027
-6.12
-6.232
-6.362
-6.512
-6.682
-6.873
-7.087
-7.323
-7.584
-7.87
-8.182
-8.52
-8.886
-9.28
-9.701
-10.151
-10.628
-11.132
-11.663
-12.219
-12.8
-13.405
-14.031
-14.677
-15.34
-16.018
-16.708
-17.406
-18.109
-18.813
-19.514
-20.207
-20.888
-21.552
-22.194
-22.808
-23.39
-23.932
-24.431
-24.881
-25.275
-25.61
-25.881
-26.084
-26.215
-26.272
-26.253
-26.157
-25.984
-25.733
-25.404
-25
-24.52
-23.968
-23.345
-22.654
-21.897
-21.08
-20.208
-19.287
-18.324
-17.324
-16.295
-15.245
-14.18
-13.11
-12.043
-10.984
-9.942
-8.923
-7.936
-6.994
-6.103
-5.266
-4.485
-3.757
-3.078
-2.447
-1.853
-1.281
-0.718
-0.151
0.432
1.034
1.663
2.326
3.034
3.802
4.64
5.539
6.496
7.496
8.521
9.555
10.567
11.499
12.304
12.931
13.323
13.451
13.277
12.755
11.861
10.549
8.778
6.531
3.783
0.522
-3.231
-7.486
-12.26
-17.459
-22.917
-28.392
-33.517
-37.997
-41.619
-44.092
-45.068
-44.354
-42.012
-38.42
-34.269
-30.226
-26.692
-24.074
-22.971
-23.759
-26.285
-29.871
-33.204
-34.743
-33.383
-28.01
-17.067
0.639
25.596
57.59
95.232
136.364
178.855
219.904
255.637
282.107
295.56
292.731
271.64
231.248
171.204
92.696
-1.327
-106.655
-218.077
-330.086
-437.404
-534.736
-617.229
-681.14
-724.073
-745.44
-746.013
-727.119
-690.924
-640.625
-579.958
-513.039
-443.876
-375.373
-310.032
-250.507
-198.805
-156.181
-122.955
-98.27
-80.826
-69.645
-63.427
-60.346
-58.577
-56.316
-52.519
-47.143
-40.436
-32.642
-24.216
-15.812
-8.257
-2.556
0.812
1.969
1.231
-0.938
-4.067
-7.74
-11.427
-14.506
-16.586
-17.52
-17.297
-16.05
-13.901
-10.917
-7.219
-2.96
1.721
6.694
11.846
17.102
22.374
27.557
32.554
37.267
41.612
45.551
49.074
52.192
54.934
57.332
59.425
61.262
62.904
64.406
65.822
67.2
68.58
70.008
71.529
73.187
75.023
77.06
79.308
81.77
84.443
87.32
90.392
93.643
97.05
100.595
104.261
108.032
111.892
115.822
119.8
123.805
127.814
131.805
135.759
139.653
143.466
147.177
150.765
154.212
157.499
160.604
163.51
166.194
168.639
170.825
172.736
174.356
175.67
176.664
177.329
177.655
177.635
177.264
176.538
175.456
174.017
172.223
170.079
167.589
164.761
161.604
158.128
154.346
150.271
145.919
141.305
136.448
131.367
126.081
120.611
114.978
109.204
103.312
97.324
91.262
85.151
79.013
72.87
66.744
60.658
54.631
48.685
42.838
37.108
31.513
26.068
20.789
15.689
10.779
6.072
1.577
-2.698
-6.745
-10.56
-14.138
-17.475
-20.571
-23.426
-26.04
-28.415
-30.555
-32.465
-34.15
-35.616
-36.872
-37.924
-38.783
-39.458
-39.959
-40.297
-40.482
-40.527
-40.443
-40.241
-39.933
-39.53
-39.044
-38.487
-37.868
-37.198
-36.487
-35.746
-34.982
-34.205
-33.423
-32.643
-31.871
-31.114
-30.377
-29.664
-28.981
-28.331
-27.716
-27.138
-26.601
-26.105
-25.65
-25.237
-24.867
-24.537
-24.248
-23.999
-23.787
-23.611
-23.469
-23.358
-23.277
-23.223
-23.195
-23.189
-23.203
-23.236
-23.285
-23.349
-23.425
-23.512
-23.609
-23.715
-23.829
-23.95
-24.077
-24.211
-24.351
-24.498
-24.65
-24.809
-24.974
-25.144
-25.321
-25.505
-25.694
-25.888
-26.089
-26.295
-26.507
-26.724
-26.946
-27.171
-27.4
-27.632
-27.865
-28.098
-28.329
-28.557
-28.781
-28.997
-29.203
-29.398
-29.578
-29.74
-29.882
-29.999
-30.088
-30.146
-30.169
-30.156
-30.102
-30.005
-29.864
-29.677
-29.444
-29.164
-28.838
-28.467
-28.051
-27.592
-27.091
-26.551
-25.973
-25.359
-24.712
-24.035
-23.334
-22.614
-21.879
-21.135
-20.388
-19.642
-18.904
-18.18
-17.477
-16.798
-16.15
-15.536
-14.964
-14.443
-13.978
-13.569
-13.216
-12.913
-12.655
-12.437
-12.247
-12.068
-11.886
-11.686
-11.453
-11.185
-10.874
-10.508
-10.08
-9.571
-8.972
-8.29
-7.527
-6.698
-5.822
-4.913
-4
-3.141
-2.382
-1.772
-1.368
-1.197
-1.294
-1.703
-2.446
-3.568
-5.114
-7.101
-9.559
-12.501
-15.903
-19.779
-24.157
-28.943
-33.98
-39.02
-43.695
-47.718
-50.892
-52.941
-53.531
-52.474
-49.839
-46.01
-41.694
-37.562
-33.997
-31.378
-30.282
-31.05
-33.517
-37.009
-40.199
-41.563
-40.062
-34.61
-23.671
-6.151
18.42
49.822
86.621
126.818
168.509
208.967
244.395
271.04
285.18
283.63
264.564
226.591
168.907
92.509
0.1
-104.393
-215.785
-328.755
-438.302
-538.713
-624.657
-692.171
-738.463
-762.675
-765.637
-748.484
-713.153
-663.16
-602.38
-534.917
-465.081
-395.85
-329.491
-268.68
-215.362
-170.491
-134.65
-107.285
-87.027
-73.043
-64.328
-59.15
-56.012
-53.455
-50.027
-45.3
-39.439
-32.46
-24.664
-16.674
-9.005
-2.393
2.368
5.131
6.091
5.513
3.858
1.579
-0.952
-3.237
-4.76
-5.284
-4.733
-3.149
-0.695
2.514
6.39
10.795
15.577
20.601
25.742
30.906
36.028
41.021
45.794
50.255
54.319
57.939
61.108
63.836
66.157
68.106
69.722
71.059
72.178
73.139
73.999
74.807
75.604
76.438
77.355
78.401
79.623
81.048
82.692
84.561
86.655
88.972
91.503
94.235
97.149
100.228
103.455
106.817
110.299
113.885
117.555
121.287
125.06
128.853
132.646
136.418
140.147
143.814
147.397
150.877
154.236
157.452
160.507
163.38
166.051
168.5
170.712
172.668
174.354
175.756
176.862
177.662
178.148
178.315
178.156
177.67
176.856
175.713
174.245
172.455
170.349
167.934
165.219
162.215
158.933
155.386
151.59
147.559
143.31
138.86
134.23
129.436
124.5
119.441
114.279
109.036
103.733
98.389
93.025
87.661
82.318
77.014
71.767
66.595
61.514
56.54
51.688
46.972
42.404
37.995
33.756
29.696
25.824
22.147
18.669
15.397
12.333
9.481
6.84
4.412
2.196
0.189
-1.611
-3.209
-4.608
-5.814
-6.835
-7.676
-8.345
-8.852
-9.204
-9.41
-9.48
-9.423
-9.25
-8.969
-8.591
-8.126
-7.582
-6.97
-6.299
-5.577
-4.813
-4.016
-3.193
-2.353
-1.501
-0.645
0.21
1.057
1.891
2.708
3.503
4.273
5.015
5.725
6.401
7.043
7.647
8.214
8.742
9.233
9.685
10.1
10.477
10.819
11.126
11.399
11.64
11.85
12.031
12.184
12.31
12.411
12.488
12.543
12.576
12.589
12.582
12.557
12.513
12.452
12.375
12.281
12.173
12.049
11.912
11.761
11.599
11.424
11.238
11.041
10.834
10.617
10.391
10.157
9.915
9.667
9.413
9.155
8.894
8.632
8.37
8.11
7.854
7.605
7.363
7.134
6.919
6.721
6.544
6.392
6.267
6.172
6.11
6.084
6.095
6.145
6.235
6.364
6.533
6.741
6.988
7.274
7.596
7.955
8.347
8.772
9.228
9.711
10.217
10.741
11.279
11.825
12.375
12.923
13.465
13.993
14.503
14.99
15.448
15.873
16.256
16.588
16.862
17.079
17.238
17.344
17.403
17.42
17.407
17.382
17.358
17.35
17.371
17.422
17.513
17.653
17.849
18.121
18.475
18.909
19.418
19.991
20.604
21.242
21.871
22.435
22.887
23.177
23.245
23.065
22.601
21.815
20.688
19.178
17.244
14.865
12.014
8.679
4.887
0.625
-4.134
-9.311
-14.756
-20.227
-25.355
-29.841
-33.472
-35.971
-36.994
-36.319
-33.983
-30.353
-26.134
-22.043
-18.52
-15.953
-14.932
-15.862
-18.628
-22.595
-26.425
-28.474
-27.602
-22.734
-12.327
4.839
29.369
61.236
99.083
140.78
184.417
227.454
266.21
296.913
315.69
318.961
304.661
271.485
218.414
145.977
56.458
-46.724
-158.64
-273.729
-386.936
-492.829
-585.913
-661.842
-717.345
-750.545
-761.521
-751.256
-721.297
-674.602
-614.896
-546.187
-472.938
-399.069
-327.575
-261.422
-203.062
-153.92
-114.836
-85.611
-64.959
-51.531
-43.937
-40.245
-38.647
-37.498
-35.205
-31.094
-25.255
-17.898
-9.475
-0.727
7.689
14.981
20.29
23.368
24.376
23.616
21.594
18.818
15.716
12.814
10.662
9.536
9.526
10.605
12.612
15.43
18.967
23.085
27.628
32.461
37.463
42.535
47.606
52.584
57.368
61.86
65.966
69.633
72.845
75.608
77.951
79.908
81.52
82.841
83.931
84.85
85.656
86.399
87.124
87.879
88.712
89.672
90.808
92.151
93.716
95.513
97.541
99.797
102.273
104.956
107.824
110.861
114.05
117.376
120.824
124.377
128.015
131.716
135.458
139.219
142.978
146.714
150.404
154.029
157.565
160.994
164.295
167.448
170.433
173.227
175.81
178.163
180.267
182.104
183.658
184.914
185.86
186.485
186.78
186.739
186.355
185.625
184.549
183.125
181.357
179.248
176.803
174.03
170.938
167.536
163.838
159.857
155.608
151.106
146.37
141.418
136.269
130.944
125.463
119.848
114.119
108.3
102.413
96.478
90.519
84.557
78.612
72.706
66.859
61.088
55.413
49.85
44.415
39.123
33.988
29.022
24.237
19.642
15.247
11.06
7.086
3.33
-0.203
-3.512
-6.595
-9.452
-12.084
-14.495
-16.686
-18.664
-20.433
-22
-23.371
-24.556
-25.562
-26.399
-27.077
-27.605
-27.995
-28.256
-28.4
-28.437
-28.379
-28.236
-28.019
-27.738
-27.403
-27.023
-26.609
-26.168
-25.71
-25.242
-24.77
-24.303
-23.846
-23.405
-22.984
-22.588
-22.22
-21.884
-21.581
-21.315
-21.086
-20.894
-20.742
-20.628
-20.552
-20.513
-20.51
-20.542
-20.607
-20.703
-20.829
-20.981
-21.158
-21.358
-21.577
-21.815
-22.068
-22.335
-22.613
-22.902
-23.198
-23.502
-23.811
-24.125
-24.442
-24.763
-25.087
-25.414
-25.744
-26.077
-26.414
-26.755
-27.102
-27.454
-27.813
-28.18
-28.555
-28.939
-29.333
-29.736
-30.15
-30.575
-31.009
-31.455
-31.91
-32.376
-32.851
-33.334
-33.825
-34.322
-34.825
-35.33
-35.835
-36.34
-36.84
-37.333
-37.816
-38.286
-38.74
-39.174
-39.583
-39.964
-40.314
-40.627
-40.9
-41.13
-41.313
-41.446
-41.526
-41.552
-41.523
-41.438
-41.296
-41.1
-40.849
-40.545
-40.189
-39.784
-39.333
-38.837
-38.299
-37.722
-37.113
-36.474
-35.812
-35.133
-34.443
-33.746
-33.049
-32.36
-31.684
-31.028
-30.397
-29.793
-29.222
-28.691
-28.208
-27.778
-27.4
-27.07
-26.785
-26.54
-26.33
-26.143
-25.96
-25.765
-25.54
-25.276
-24.968
-24.61
-24.195
-23.709
-23.136
-22.472
-21.72
-20.891
-19.998
-19.049
-18.057
-17.063
-16.119
-15.286
-14.625
-14.174
-13.962
-14.025
-14.385
-15.088
-16.185
-17.707
-19.686
-22.134
-25.047
-28.456
-32.414
-36.866
-41.651
-46.511
-51.068
-55.013
-58.143
-60.183
-60.782
-59.726
-57.075
-53.22
-48.902
-44.86
-41.515
-39.263
-38.693
-40.168
-43.533
-48.098
-52.453
-54.924
-54.347
-49.561
-38.943
-21.293
3.953
36.66
75.369
117.947
162.41
205.998
244.816
274.952
292.459
293.866
277.167
240.885
184.047
107.439
13.627
-93.491
-208.618
-326.186
-440.968
-547.033
-638.675
-711.459
-762.173
-789.625
-794.368
-777.412
-740.609
-687.482
-622.279
-549.656
-474.385
-399.899
-329.025
-264.865
-209.817
-165.187
-131.222
-106.857
-90.393
-80.602
-75.988
-74.437
-73.899
-72.431
-68.911
-63.346
-56.114
-47.548
-38.189
-28.802
-20.301
-13.774
-9.751
-8.099
-8.473
-10.379
-13.314
-16.832
-20.376
-23.298
-25.192
-25.912
-25.453
-23.957
-21.553
-18.316
-14.371
-9.88
-4.982
0.187
5.517
10.93
16.338
21.637
26.727
31.509
35.899
39.861
43.382
46.474
49.169
51.499
53.504
55.238
56.761
58.133
59.411
60.644
61.874
63.15
64.519
66.026
67.713
69.605
71.714
74.044
76.593
79.356
82.325
85.483
88.81
92.289
95.902
99.635
103.472
107.395
111.383
115.415
119.47
123.526
127.563
131.561
135.499
139.357
143.113
146.748
150.245
153.583
156.742
159.703
162.444
164.949
167.199
169.179
170.873
172.267
173.351
174.114
174.549
174.649
174.41
173.829
172.906
171.64
170.034
168.092
165.82
163.225
160.315
157.1
153.593
149.806
145.754
141.451
136.915
132.162
127.212
122.082
116.793
111.364
105.816
100.169
94.444
88.663
82.845
77.01
71.18
65.373
59.607
53.902
48.273
42.738
37.311
32.007
26.84
21.821
16.963
12.275
7.767
3.447
-0.678
-4.603
-8.322
-11.832
-15.13
-18.215
-21.087
-23.745
-26.192
-28.43
-30.463
-32.294
-33.928
-35.371
-36.63
-37.711
-38.622
-39.37
-39.965
-40.413
-40.725
-40.909
-40.975
-40.93
-40.784
-40.547
-40.226
-39.83
-39.367
-38.846
-38.275
-37.66
-37.009
-36.328
-35.624
-34.902
-34.169
-33.428
-32.685
-31.944
-31.208
-30.481
-29.765
-29.064
-28.38
-27.713
-27.067
-26.442
-25.839
-25.258
-24.7
-24.165
-23.654
-23.165
-22.699
-22.255
-21.833
-21.432
-21.051
-20.691
-20.35
-20.029
-19.726
-19.441
-19.175
-18.927
-18.698
-18.486
-18.294
-18.12
-17.966
-17.832
-17.718
-17.625
-17.555
-17.507
-17.482
-17.481
-17.506
-17.555
-17.629
-17.73
-17.856
-18.007
-18.184
-18.385
-18.61
-18.858
-19.128
-19.418
-19.728
-20.056
-20.399
-20.755
-21.123
-21.498
-21.878
-22.259
-22.639
-23.012
-23.375
-23.724
-24.054
-24.36
-24.639
-24.884
-25.091
-25.256
-25.372
-25.436
-25.443
-25.39
-25.273
-25.089
-24.837
-24.515
-24.123
-23.661
-23.129
-22.528
-21.859
-21.124
-20.325
-19.465
-18.546
-17.571
-16.545
-15.474
-14.363
-13.22
-12.05
-10.861
-9.66
-8.455
-7.253
-6.062
-4.888
-3.739
-2.62
-1.541
-0.513
0.456
1.366
2.216
3.01
3.752
4.447
5.106
5.746
6.382
7.028
7.697
8.39
9.117
9.886
10.707
11.599
12.569
13.613
14.724
15.89
17.089
18.306
19.507
20.634
21.638
22.468
23.065
23.404
23.447
23.15
22.492
21.428
19.914
17.933
15.457
12.476
9.016
5.066
0.606
-4.27
-9.399
-14.529
-19.28
-23.351
-26.522
-28.506
-28.951
-27.645
-24.651
-20.351
-15.461
-10.691
-6.465
-3.187
-1.476
-1.726
-3.777
-6.959
-9.918
-11.045
-9.253
-3.433
8.035
26.35
52.025
84.888
123.497
165.759
209.76
252.81
290.988
320.329
337.034
337.798
320.432
283.397
225.77
147.953
53.565
-52.477
-166.279
-282.511
-398.195
-510.295
-609.633
-689.359
-742.923
-764.44
-758.378
-729.585
-682.815
-625.796
-560.269
-488.337
-414.182
-339.783
-269.344
-206.883
-154.052
-112.031
-80.594
-58.185
-43.261
-34.427
-29.791
-27.476
-25.743
-22.86
-18.011
-11.282
-2.996
6.374
16.116
25.542
33.842
40.043
43.77
45.162
44.529
42.397
39.29
35.644
32.006
28.988
26.953
26.055
26.309
27.58
29.752
32.748
36.439
40.675
45.316
50.232
55.315
60.487
65.659
70.726
75.591
80.155
84.333
88.084
91.399
94.286
96.775
98.899
100.7
102.231
103.552
104.725
105.803
106.837
107.87
108.948
110.118
111.426
112.913
114.606
116.515
118.646
120.995
123.558
126.324
129.278
132.399
135.666
139.065
142.576
146.186
149.876
153.623
157.405
161.201
164.988
168.746
172.453
176.087
179.627
183.053
186.344
189.482
192.447
195.218
197.774
200.097
202.167
203.968
205.482
206.695
207.593
208.165
208.401
208.295
207.84
207.033
205.871
204.353
202.482
200.261
197.694
194.789
191.553
187.997
184.133
179.973
175.532
170.826
165.872
160.688
155.293
149.707
143.95
138.045
132.012
125.874
119.653
113.371
107.052
100.716
94.386
88.083
81.829
75.641
69.541
63.546
57.674
51.94
46.36
40.947
35.715
30.675
25.838
21.213
16.807
12.627
8.678
4.964
1.489
-1.747
-4.744
-7.502
-10.023
-12.311
-14.369
-16.204
-17.821
-19.228
-20.431
-21.44
-22.263
-22.91
-23.392
-23.718
-23.899
-23.946
-23.871
-23.683
-23.394
-23.015
-22.556
-22.028
-21.44
-20.803
-20.125
-19.415
-18.682
-17.934
-17.177
-16.418
-15.664
-14.92
-14.191
-13.481
-12.794
-12.133
-11.5
-10.898
-10.328
-9.791
-9.287
-8.817
-8.38
-7.976
-7.603
-7.26
-6.947
-6.66
-6.398
-6.16
-5.942
-5.743
-5.561
-5.394
-5.239
-5.096
-4.962
-4.835
-4.714
-4.598
-4.486
-4.377
-4.269
-4.164
-4.059
-3.956
-3.855
-3.755
-3.659
-3.567
-3.48
-3.4
-3.328
-3.265
-3.213
-3.175
-3.152
-3.146
-3.159
-3.193
-3.25
-3.331
-3.439
-3.574
-3.737
-3.93
-4.153
-4.405
-4.688
-5
-5.341
-5.71
-6.107
-6.53
-6.977
-7.447
-7.937
-8.445
-8.967
-9.501
-10.042
-10.588
-11.134
-11.675
-12.208
-12.728
-13.23
-13.709
-14.161
-14.579
-14.96
-15.297
-15.587
-15.825
-16.008
-16.131
-16.193
-16.192
-16.127
-15.997
-15.804
-15.547
-15.228
-14.848
-14.41
-13.916
-13.369
-12.771
-12.127
-11.441
-10.718
-9.967
-9.193
-8.403
-7.604
-6.803
-6.008
-5.227
-4.469
-3.739
-3.044
-2.391
-1.787
-1.246
-0.773
-0.37
-0.037
0.23
0.436
0.586
0.69
0.766
0.83
0.897
0.982
1.088
1.224
1.401
1.628
1.925
2.301
2.75
3.269
3.844
4.455
5.088
5.71
6.262
6.693
6.95
6.972
6.73
6.184
5.29
4.026
2.348
0.209
-2.411
-5.542
-9.198
-13.352
-18.016
-23.214
-28.842
-34.721
-40.582
-46.019
-50.719
-54.469
-56.976
-57.89
-57.032
-54.492
-50.688
-46.375
-42.253
-38.707
-36.123
-35.085
-35.9
-38.343
-41.663
-44.442
-45.109
-42.626
-35.892
-23.351
-3.939
22.752
56.401
95.445
137.804
181.527
223.826
260.8
288.606
303.44
302.038
282.495
243.345
183.716
104.491
8.366
-100.705
-217.503
-336.443
-452.14
-558.57
-650.014
-721.944
-771.192
-796.49
-798.149
-777.396
-736.462
-679.056
-609.655
-533.193
-454.528
-377.425
-305.185
-240.702
-186.053
-142.406
-109.736
-86.783
-71.821
-63.281
-59.248
-57.743
-56.876
-54.784
-50.555
-44.23
-36.143
-26.797
-16.914
-7.204
1.464
8.058
12.16
13.882
13.534
11.651
8.761
5.303
1.836
-1.019
-2.892
-3.632
-3.227
-1.824
0.453
3.523
7.253
11.489
16.092
20.934
25.907
30.938
35.941
40.817
45.47
49.807
53.744
57.244
60.299
62.923
65.144
67.001
68.536
69.802
70.862
71.777
72.603
73.39
74.181
75.023
75.963
77.049
78.322
79.809
81.523
83.468
85.643
88.044
90.662
93.483
96.484
99.648
102.958
106.399
109.955
113.609
117.339
121.123
124.938
128.764
132.58
136.364
140.094
143.749
147.308
150.751
154.059
157.212
160.189
162.969
165.533
167.861
169.936
171.741
173.26
174.478
175.385
175.969
176.224
176.141
175.717
174.948
173.833
172.373
170.569
168.427
165.951
163.149
160.031
156.606
152.887
148.887
144.621
140.106
135.359
130.397
125.24
119.907
114.42
108.798
103.063
97.237
91.342
85.398
79.427
73.451
67.49
61.564
55.693
49.896
44.191
38.593
33.121
27.787
22.606
17.592
12.754
8.105
3.653
-0.593
-4.628
-8.445
-12.041
-15.411
-18.555
-21.472
-24.162
-26.627
-28.87
-30.895
-32.706
-34.308
-35.709
-36.916
-37.936
-38.778
-39.452
-39.965
-40.329
-40.554
-40.649
-40.625
-40.493
-40.263
-39.944
-39.549
-39.085
-38.564
-37.994
-37.385
-36.744
-36.082
-35.404
-34.719
-34.033
-33.352
-32.683
-32.029
-31.396
-30.788
-30.207
-29.658
-29.142
-28.662
-28.218
-27.812
-27.445
-27.115
-26.824
-26.571
-26.355
-26.175
-26.029
-25.916
-25.835
-25.784
-25.761
-25.764
-25.791
-25.84
-25.91
-25.997
-26.101
-26.219
-26.35
-26.491
-26.643
-26.802
-26.968
-27.14
-27.316
-27.496
-27.678
-27.862
-28.048
-28.235
-28.423
-28.612
-28.802
-28.993
-29.185
-29.38
-29.577
-29.777
-29.98
-30.188
-30.401
-30.62
-30.845
-31.077
-31.317
-31.566
-31.825
-32.093
-32.37
-32.658
-32.956
-33.263
-33.579
-33.905
-34.238
-34.579
-34.927
-35.281
-35.639
-36.002
-36.366
-36.731
-37.094
-37.454
-37.809
-38.155
-38.49
-38.812
-39.118
-39.405
-39.669
-39.908
-40.118
-40.296
-40.439
-40.543
-40.605
-40.622
-40.592
-40.513
-40.384
-40.203
-39.97
-39.686
-39.353
-38.97
-38.539
-38.061
-37.54
-36.976
-36.372
-35.73
-35.054
-34.346
-33.613
-32.859
-32.09
-31.311
-30.528
-29.745
-28.969
-28.207
-27.464
-26.745
-26.053
-25.394
-24.774
-24.203
-23.686
-23.221
-22.807
-22.44
-22.115
-21.827
-21.565
-21.311
-21.051
-20.77
-20.454
-20.098
-19.694
-19.231
-18.699
-18.081
-17.373
-16.579
-15.708
-14.77
-13.778
-12.751
-11.723
-10.748
-9.877
-9.163
-8.663
-8.419
-8.483
-8.898
-9.696
-10.914
-12.589
-14.746
-17.407
-20.598
-24.304
-28.53
-33.309
-38.535
-44.023
-49.509
-54.564
-58.826
-62.062
-63.931
-64.04
-62.345
-59
-54.45
-49.665
-45.353
-41.884
-39.912
-39.999
-42.087
-45.851
-50.295
-53.459
-53.885
-50.451
-41.427
-25.461
-1.942
29.402
67.534
110.078
154.935
199.535
239.966
272.329
292.855
297.869
284.941
252.774
200.383
127.935
38.819
-62.539
-172.542
-285.877
-399.871
-511.987
-613.167
-696.697
-755.883
-784.198
-785.856
-765.357
-726.73
-677.038
-617.37
-549.035
-475.99
-400.495
-326.63
-258.757
-199.127
-149.316
-110.024
-80.716
-60.219
-47.267
-40.336
-37.375
-36.5
-36.011
-34.297
-30.695
-25.282
-18.245
-10.07
-1.546
6.637
13.677
18.728
21.576
22.41
21.538
19.469
16.721
13.724
11.007
9.11
8.288
8.616
10.054
12.437
15.644
19.58
24.101
29.044
34.27
39.651
45.09
50.52
55.85
60.982
65.823
70.282
74.315
77.912
81.082
83.853
86.261
88.344
90.158
91.763
93.22
94.584
95.906
97.227
98.595
100.056
101.655
103.437
105.428
107.641
110.081
112.748
115.633
118.729
122.02
125.484
129.102
132.856
136.73
140.708
144.771
148.898
153.066
157.251
161.432
165.588
169.696
173.735
177.682
181.517
185.219
188.77
192.148
195.334
198.306
201.044
203.529
205.744
207.672
209.297
210.606
211.587
212.23
212.527
212.473
212.063
211.295
210.167
208.681
206.84
204.649
202.113
199.241
196.042
192.528
188.712
184.607
180.23
175.596
170.725
165.634
160.344
154.874
149.246
143.481
137.602
131.63
125.587
119.496
113.377
107.254
101.147
95.077
89.063
83.124
77.279
71.544
65.936
60.47
55.16
50.018
45.057
40.287
35.718
31.357
27.213
23.289
19.591
16.123
12.885
9.879
7.104
4.558
2.239
0.144
-1.732
-3.396
-4.853
-6.11
-7.176
-8.059
-8.768
-9.312
-9.701
-9.946
-10.057
-10.044
-9.918
-9.69
-9.369
-8.966
-8.492
-7.955
-7.367
-6.736
-6.071
-5.381
-4.673
-3.956
-3.237
-2.521
-1.816
-1.125
-0.455
0.191
0.809
1.395
1.948
2.466
2.946
3.388
3.791
4.156
4.482
4.769
5.02
5.235
5.415
5.563
5.68
5.767
5.827
5.862
5.875
5.867
5.84
5.797
5.739
5.67
5.59
5.501
5.405
5.304
5.198
5.089
4.976
4.862
4.746
4.628
4.508
4.385
4.26
4.131
3.997
3.858
3.711
3.557
3.392
3.216
3.027
2.823
2.603
2.367
2.111
1.836
1.54
1.223
0.884
0.523
0.14
-0.267
-0.695
-1.146
-1.617
-2.11
-2.621
-3.15
-3.695
-4.253
-4.823
-5.401
-5.984
-6.57
-7.154
-7.734
-8.303
-8.86
-9.398
-9.913
-10.401
-10.857
-11.276
-11.653
-11.984
-12.266
-12.494
-12.666
-12.78
-12.833
-12.825
-12.755
-12.624
-12.43
-12.176
-11.861
-11.488
-11.058
-10.573
-10.035
-9.448
-8.818
-8.148
-7.445
-6.714
-5.96
-5.191
-4.412
-3.631
-2.856
-2.091
-1.342
-0.617
0.077
0.729
1.333
1.888
2.395
2.855
3.272
3.65
3.997
4.329
4.66
5.003
5.37
5.764
6.194
6.67
7.203
7.808
8.492
9.249
10.07
10.946
11.859
12.796
13.727
14.595
15.353
15.952
16.336
16.471
16.319
15.83
14.977
13.719
12.012
9.842
7.187
4.022
0.363
-3.811
-8.538
-13.712
-19.152
-24.609
-29.695
-34.109
-37.665
-40.036
-40.835
-39.962
-37.55
-34.063
-30.328
-26.923
-24.089
-22.256
-22.009
-23.495
-26.425
-29.86
-32.168
-32.059
-28.754
-21.179
-7.922
11.942
38.772
71.981
109.776
150.354
191.966
231.92
266.569
292.105
304.78
301.599
280.83
241.097
181.743
103.825
10.106
-95.173
-206.687
-318.981
-426.771
-524.518
-607.187
-670.946
-713.347
-733.92
-733.581
-713.761
-676.782
-626.01
-565.296
-498.799
-430.483
-363.143
-299.167
-241.082
-190.736
-149.239
-116.801
-92.518
-75.119
-63.673
-56.93
-53.125
-50.511
-47.374
-42.748
-36.633
-29.276
-20.908
-11.972
-3.108
4.867
10.972
14.741
16.303
15.962
14.158
11.344
7.918
4.399
1.402
-0.682
-1.703
-1.646
-0.636
1.215
3.845
7.146
10.969
15.182
19.659
24.296
29.023
33.762
38.413
42.884
47.075
50.904
54.33
57.341
59.95
62.183
64.073
65.657
66.988
68.124
69.124
70.044
70.929
71.821
72.765
73.808
74.997
76.375
77.969
79.79
81.846
84.135
86.652
89.389
92.331
95.456
98.746
102.183
105.751
109.434
113.215
117.07
120.977
124.912
128.854
132.779
136.666
140.492
144.234
147.871
151.381
154.745
157.942
160.95
163.748
166.315
168.632
170.679
172.441
173.9
175.043
175.856
176.33
176.458
176.231
175.646
174.7
173.391
171.723
169.696
167.316
164.59
161.525
158.132
154.423
150.41
146.109
141.536
136.707
131.642
126.361
120.883
115.231
109.425
103.488
97.443
91.312
85.119
78.887
72.637
66.393
60.176
54.007
47.907
41.894
35.989
30.207
24.565
19.079
13.762
8.626
3.685
-1.054
-5.58
-9.886
-13.966
-17.816
-21.431
-24.81
-27.952
-30.857
-33.527
-35.966
-38.176
-40.162
-41.932
-43.491
-44.847
-46.009
-46.985
-47.785
-48.42
-48.9
-49.236
-49.438
-49.518
-49.487
-49.356
-49.137
-48.839
-48.474
-48.052
-47.583
-47.076
-46.54
-45.984
-45.416
-44.843
-44.272
-43.71
-43.162
-42.632
-42.127
-41.649
-41.202
-40.788
-40.409
-40.067
-39.763
-39.498
-39.272
-39.083
-38.933
-38.819
-38.74
-38.695
-38.682
-38.698
-38.743
-38.812
-38.905
-39.018
-39.15
-39.298
-39.459
-39.632
-39.814
-40.003
-40.197
-40.395
-40.595
-40.796
-40.996
-41.195
-41.391
-41.584
-41.774
-41.959
-42.141
-42.318
-42.491
-42.661
-42.828
-42.992
-43.154
-43.315
-43.476
-43.638
-43.801
-43.967
-44.138
-44.313
-44.493
-44.681
-44.877
-45.081
-45.296
-45.52
-45.756
-46.002
-46.26
-46.53
-46.811
-47.102
-47.404
-47.715
-48.035
-48.362
-48.695
-49.032
-49.373
-49.715
-50.057
-50.396
-50.73
-51.057
-51.374
-51.679
-51.968
-52.238
-52.488
-52.713
-52.911
-53.078
-53.212
-53.308
-53.365
-53.379
-53.347
-53.266
-53.136
-52.953
-52.716
-52.426
-52.081
-51.683
-51.233
-50.733
-50.184
-49.59
-48.952
-48.274
-47.56
-46.812
-46.035
-45.231
-44.406
-43.565
-42.715
-41.861
-41.008
-40.164
-39.334
-38.524
-37.742
-36.994
-36.283
-35.613
-34.989
-34.415
-33.901
-33.451
-33.064
-32.736
-32.462
-32.239
-32.059
-31.911
-31.774
-31.631
-31.461
-31.254
-31.003
-30.703
-30.344
-29.911
-29.387
-28.767
-28.053
-27.258
-26.392
-25.465
-24.491
-23.512
-22.586
-21.775
-21.144
-20.737
-20.587
-20.733
-21.2
-22.036
-23.295
-25.01
-27.21
-29.91
-33.102
-36.811
-41.085
-45.859
-50.96
-56.121
-60.958
-65.158
-68.514
-70.748
-71.505
-70.58
-68.036
-64.255
-59.96
-55.858
-52.345
-49.813
-48.839
-49.761
-52.414
-56.112
-59.485
-60.94
-59.372
-53.643
-42.174
-23.837
1.843
34.643
73.076
115.051
158.592
200.925
238.18
266.534
282.203
281.932
263.881
226.676
169.47
93.188
0.486
-104.736
-217.265
-331.711
-443.029
-545.465
-633.56
-703.164
-751.283
-776.876
-780.67
-763.751
-728.011
-676.963
-614.56
-545.062
-472.998
-401.556
-333.165
-270.633
-216.011
-170.316
-134.134
-106.851
-86.971
-73.54
-65.449
-60.863
-58.21
-55.985
-52.716
-47.993
-42.031
-34.892
-26.92
-18.781
-11.015
-4.371
0.355
3.029
3.869
3.159
1.376
-1.009
-3.615
-5.938
-7.464
-7.956
-7.345
-5.677
-3.117
0.215
4.228
8.781
13.718
18.902
24.205
29.529
34.807
39.949
44.862
49.455
53.64
57.373
60.646
63.47
65.877
67.902
69.588
70.986
72.158
73.165
74.063
74.903
75.728
76.584
77.518
78.577
79.807
81.234
82.875
84.736
86.817
89.115
91.624
94.33
97.214
100.26
103.453
106.779
110.225
113.775
117.409
121.108
124.849
128.614
132.382
136.133
139.847
143.503
147.081
150.563
153.928
157.158
160.231
163.128
165.828
168.312
170.563
172.562
174.293
175.743
176.898
177.747
178.282
178.494
178.379
177.931
177.149
176.031
174.579
172.795
170.684
168.251
165.505
162.454
159.11
155.483
151.589
147.442
143.058
138.454
133.648
128.659
123.507
118.212
112.794
107.275
101.677
96.019
90.324
84.614
78.907
73.226
67.59
62.017
56.526
51.134
45.858
40.714
35.716
30.877
26.211
21.728
17.439
13.353
9.479
5.821
2.387
-0.82
-3.796
-6.541
-9.052
-11.332
-13.382
-15.203
-16.801
-18.18
-19.346
-20.306
-21.066
-21.634
-22.021
-22.234
-22.284
-22.18
-21.933
-21.553
-21.051
-20.438
-19.724
-18.921
-18.039
-17.088
-16.078
-15.02
-13.923
-12.796
-11.649
-10.489
-9.324
-8.163
-7.011
-5.875
-4.761
-3.673
-2.617
-1.596
-0.613
0.328
1.225
2.078
2.884
3.644
4.356
5.022
5.641
6.215
6.746
7.233
7.681
8.09
8.463
8.802
9.111
9.39
9.644
9.875
10.086
10.279
10.457
10.623
10.779
10.928
11.071
11.212
11.351
11.491
11.632
11.777
11.925
12.079
12.238
12.402
12.573
12.749
12.931
13.118
13.309
13.504
13.702
13.901
14.101
14.299
14.495
14.687
14.873
15.052
15.223
15.382
15.53
15.664
15.782
15.885
15.969
16.034
16.08
16.107
16.112
16.098
16.064
16.011
15.939
15.849
15.743
15.621
15.486
15.34
15.184
15.021
14.855
14.686
14.52
14.36
14.208
14.068
13.944
13.839
13.759
13.706
13.685
13.699
13.754
13.852
13.997
14.192
14.441
14.745
15.105
15.523
15.999
16.532
17.121
17.764
18.46
19.206
20
20.838
21.718
22.635
23.586
24.566
25.57
26.592
27.625
28.665
29.704
30.738
31.759
32.759
33.733
34.677
35.588
36.459
37.285
38.058
38.772
39.429
40.03
40.579
41.08
41.538
41.964
42.378
42.797
43.24
43.72
44.242
44.814
45.448
46.157
46.956
47.852
48.837
49.905
51.05
52.258
53.513
54.775
55.984
57.076
57.988
58.667
59.067
59.149
58.877
58.208
57.092
55.493
53.388
50.748
47.571
43.839
39.494
34.618
29.402
24.112
19.161
14.904
11.554
9.445
8.977
10.229
13.084
17.126
21.438
25.354
28.549
30.432
30.463
28.644
25.231
21.157
18.283
18.036
21.496
30.198
45.444
67.923
97.968
134.765
176.166
220.105
264.183
304.965
338.811
362.015
370.864
362.661
335.85
289.291
223.051
138.869
39.685
-70.152
-185.331
-300.398
-409.751
-507.763
-589.644
-651.684
-691.497
-708.536
-703.429
-677.781
-634.433
-577.006
-509.586
-436.686
-362.439
-290.095
-222.701
-162.733
-111.78
-70.881
-39.994
-17.958
-3.408
5.032
9.19
10.832
11.654
13.389
16.861
22.067
28.818
36.691
45.017
53.182
60.398
65.733
68.862
69.908
69.157
67.118
64.298
61.113
58.099
55.842
54.648
54.63
55.774
57.914
60.925
64.716
69.138
74.024
79.227
84.617
90.088
95.567
100.959
106.159
111.067
115.586
119.662
123.278
126.437
129.165
131.496
133.469
135.138
136.564
137.805
138.918
139.955
140.96
141.981
143.067
144.267
145.626
147.175
148.932
150.903
153.089
155.486
158.087
160.879
163.842
166.959
170.215
173.595
177.086
180.672
184.334
188.052
191.804
195.57
199.332
203.069
206.762
210.391
213.936
217.379
220.702
223.887
226.912
229.758
232.405
234.835
237.03
238.973
240.648
242.041
243.138
243.93
244.407
244.561
244.388
243.881
243.04
241.862
240.349
238.503
236.328
233.829
231.014
227.891
224.47
220.763
216.782
212.543
208.059
203.347
198.426
193.311
188.024
182.582
177.006
171.317
165.535
159.681
153.775
147.839
141.894
135.958
130.052
124.195
118.404
112.696
107.089
101.598
96.238
91.021
85.962
81.07
76.358
71.833
67.505
63.38
59.464
55.761
52.276
49.009
45.963
43.137
40.529
38.138
35.959
33.989
32.222
30.652
29.27
28.07
27.042
26.178
25.467
24.9
24.465
24.152
23.95
23.848
23.835
23.9
24.031
24.219
24.453
24.723
25.018
25.329
25.648
25.965
26.274
26.565
26.832
27.07
27.272
27.433
27.548
27.615
27.63
27.591
27.496
27.344
27.134
26.868
26.544
26.166
25.734
25.25
24.718
24.141
23.52
22.861
22.167
21.441
20.688
19.912
19.118
18.308
17.489
16.663
15.836
15.01
14.19
13.38
12.583
11.802
11.04
10.299
9.583
8.893
8.23
7.596
6.992
6.418
5.875
5.363
4.88
4.427
4.002
3.604
3.23
2.879
2.548
2.235
1.937
1.65
1.372
1.1
0.829
0.557
0.28
-0.005
-0.303
-0.616
-0.949
-1.303
-1.683
-2.09
-2.528
-2.997
-3.5
-4.038
-4.611
-5.221
-5.868
-6.55
-7.269
-8.023
-8.811
-9.63
-10.479
-11.355
-12.255
-13.175
-14.111
-15.06
-16.015
-16.974
-17.93
-18.878
-19.812
-20.727
-21.617
-22.475
-23.295
-24.072
-24.799
-25.471
-26.084
-26.632
-27.112
-27.522
-27.858
-28.121
-28.309
-28.422
-28.46
-28.424
-28.315
-28.136
-27.887
-27.572
-27.195
-26.759
-26.271
-25.737
-25.163
-24.558
-23.927
-23.278
-22.619
-21.959
-21.306
-20.666
-20.046
-19.454
-18.899
-18.394
-17.944
-17.553
-17.219
-16.942
-16.719
-16.544
-16.409
-16.297
-16.195
-16.089
-15.967
-15.826
-15.657
-15.452
-15.2
-14.884
-14.5
-14.05
-13.545
-12.991
-12.405
-11.804
-11.222
-10.714
-10.331
-10.124
-10.147
-10.44
-11.049
-12.015
-13.365
-15.134
-17.359
-20.062
-23.267
-26.998
-31.241
-36.001
-41.311
-47.061
-53.065
-59.056
-64.616
-69.387
-73.148
-75.565
-76.248
-75.15
-72.429
-68.523
-64.387
-60.701
-57.798
-56.303
-56.773
-59.168
-63.181
-67.826
-71.154
-71.748
-68.571
-59.968
-44.604
-21.835
8.68
45.938
87.567
131.535
175.429
215.508
247.969
269.06
275.025
263.372
232.813
182.266
111.65
24.085
-76.266
-186.008
-299.858
-415.221
-529.741
-634.298
-721.992
-785.861
-818.984
-825.388
-809.553
-775.38
-729.754
-673.609
-608.174
-537.449
-463.85
-391.544
-324.872
-266.151
-217.078
-178.466
-149.888
-130.182
-118.04
-111.976
-110.017
-110.32
-111.177
-110.905
-108.757
-104.786
-99.173
-92.383
-85.17
-78.182
-72.22
-68.177
-66.318
-66.48
-68.349
-71.393
-75.088
-79.01
-82.633
-85.413
-87.093
-87.618
-87.078
-85.691
-83.626
-81.008
-77.99
-74.741
-71.404
-68.112
-64.973
-62.061
-59.463
-57.263
-55.529
-54.311
-53.609
-53.355
-53.431
-53.706
-54.049
-54.359
-54.568
-54.605
-54.418
-53.963
-53.201
-52.114
-50.694
-48.94
-46.863
-44.492
-41.867
-39.081
-36.262
-33.534
-31.013
-28.754
-26.749
-24.982
-23.429
-22.069
-20.872
-19.767
-18.663
-17.487
-16.169
-14.654
-12.862
-10.584
-7.682
-4.173
-0.167
4.012
7.977
11.415
13.881
14.767
13.771
10.993
6.764
1.82
-2.947
-6.658
-8.194
-6.482
-2.358
1.373
2.023
-2.22
-9.155
-14.375
-16.644
-19.742
-35.715
-77.81
