44.6
20.644
-1.291
-20.682
-37.023
-49.412
-57.991
-63.899
-67.756
-69.786
-69.829
-66.924
-60.643
-50.997
-36.837
-16.828
9.671
43.056
82.587
126.356
172.785
219.745
263.367
299.464
323.898
332.527
322.461
291.93
239.446
164.757
71.239
-36.449
-154.532
-277.231
-401.703
-525.292
-637.955
-732.114
-800.152
-834.565
-839.782
-820.667
-781.49
-729.812
-666.718
-593.628
-514.972
-433.439
-353.692
-280.603
-216.754
-163.992
-123.1
-93.482
-73.776
-62.421
-57.625
-57.057
-58.541
-60.143
-60.051
-57.496
-52.571
-45.525
-36.922
-27.66
-18.55
-10.508
-4.505
-0.823
0.723
0.456
-1.07
-3.293
-5.756
-7.906
-9.183
-9.347
-8.355
-6.287
-3.373
0.219
4.379
8.953
13.802
18.826
23.918
28.995
33.996
38.831
43.416
47.677
51.535
54.974
58.015
60.705
63.136
65.391
67.522
69.576
71.573
73.511
75.407
77.28
79.143
81.028
82.957
84.954
87.056
89.274
91.599
94.008
96.446
98.864
101.242
103.571
105.859
108.135
110.418
112.719
115.056
117.434
119.852
122.307
124.78
127.252
129.715
132.167
134.614
137.065
139.512
141.94
144.329
146.645
148.862
150.952
152.886
154.638
156.191
157.525
158.633
159.511
160.149
160.539
160.67
160.53
160.112
159.411
158.423
157.147
155.585
153.736
151.605
149.198
146.517
143.569
140.356
136.884
133.158
129.187
124.979
120.545
115.897
111.047
106.011
100.804
95.442
89.941
84.317
78.588
72.77
66.881
60.938
54.96
48.963
42.966
36.984
31.036
25.138
19.307
13.559
7.91
2.375
-3.031
-8.294
-13.402
-18.342
-23.103
-27.674
-32.046
-36.211
-40.16
-43.887
-47.387
-50.656
-53.691
-56.49
-59.053
-61.38
-63.473
-65.333
-66.966
-68.375
-69.565
-70.542
-71.314
-71.887
-72.27
-72.471
-72.501
-72.369
-72.086
-71.662
-71.108
-70.436
-69.658
-68.783
-67.825
-66.794
-65.7
-64.554
-63.368
-62.15
-60.911
-59.659
-58.404
-57.154
-55.917
-54.7
-53.509
-52.351
-51.232
-50.156
-49.129
-48.153
-47.233
-46.371
-45.569
-44.83
-44.154
-43.543
-42.996
-42.514
-42.096
-41.74
-41.444
-41.208
-41.029
-40.904
-40.832
-40.808
-40.831
-40.897
-41.004
-41.148
-41.326
-41.535
-41.772
-42.031
-42.311
-42.606
-42.914
-43.228
-43.547
-43.865
-44.179
-44.486
-44.78
-45.058
-45.317
-45.553
-45.762
-45.941
-46.087
-46.197
-46.268
-46.297
-46.284
-46.225
-46.121
-45.968
-45.766
-45.515
-45.213
-44.861
-44.457
-44.003
-43.499
-42.947
-42.348
-41.706
-41.024
-40.305
-39.556
-38.781
-37.986
-37.177
-36.36
-35.542
-34.73
-33.931
-33.15
-32.393
-31.667
-30.977
-30.331
-29.734
-29.191
-28.706
-28.285
-27.933
-27.655
-27.453
-27.326
-27.273
-27.294
-27.39
-27.564
-27.815
-28.137
-28.527
-28.975
-29.475
-30.016
-30.58
-31.14
-31.667
-32.134
-32.521
-32.819
-33.011
-33.082
-33.015
-32.79
-32.404
-31.858
-31.155
-30.301
-29.312
-28.213
-27.056
-25.922
-24.896
-24.061
-23.49
-23.232
-23.333
-23.841
-24.816
-26.316
-28.378
-31.039
-34.293
-38.156
-42.673
-47.76
-53.217
-58.728
-63.813
-68.029
-71.096
-72.654
-72.301
-70.02
-65.965
-60.57
-54.841
-49.546
-45.153
-42.417
-41.912
-43.497
-46.79
-50.811
-53.573
-53.539
-49.372
-39.105
-21.299
4.535
38.406
79.121
124.07
170.669
215.784
254.893
283.569
297.965
294.584
270.932
225.987
159.567
72.581
-30.518
-144.098
-264.151
-384.901
-502.902
-615.447
-713.372
-789.814
-838.425
-853.281
-839.136
-801.442
-745.745
-680.227
-606.614
-527.066
-445.729
-364.693
-288.683
-221.966
-166.102
-122.295
-90.172
-67.925
-53.93
-46.495
-43.257
-42.02
-40.827
-37.802
-32.139
-23.98
-13.659
-1.767
10.778
23.147
34.39
43.471
50.039
54.223
56.336
56.921
56.502
55.5
54.439
53.867
54.076
55.184
57.154
59.819
63.07
66.835
71.029
75.549
80.284
85.134
90.008
94.843
99.589
104.188
108.579
112.715
116.558
120.094
123.369
126.427
129.292
131.979
134.467
136.76
138.891
140.904
142.842
144.742
146.624
148.513
150.451
152.469
154.587
156.808
159.096
161.43
163.814
166.262
168.813
171.488
174.287
177.208
180.252
183.416
186.701
190.092
193.56
197.081
200.64
204.228
207.85
211.497
215.147
218.769
222.325
225.779
229.103
232.267
235.234
237.976
240.464
242.678
244.606
246.233
247.541
248.51
249.12
249.355
249.205
248.66
247.716
246.368
244.614
242.455
239.897
236.944
233.602
229.878
225.777
221.31
216.487
211.324
205.834
200.035
193.945
187.586
180.98
174.15
167.12
159.915
152.559
145.079
137.501
129.852
122.156
114.442
106.734
99.06
91.443
83.91
76.482
69.184
62.036
55.058
48.269
41.687
35.327
29.204
23.33
17.716
12.373
7.309
2.529
-1.961
-6.157
-10.058
-13.665
-16.977
-20
-22.737
-25.195
-27.379
-29.3
-30.967
-32.39
-33.58
-34.551
-35.315
-35.886
-36.279
-36.509
-36.59
-36.538
-36.368
-36.096
-35.735
-35.301
-34.807
-34.267
-33.693
-33.097
-32.491
-31.884
-31.286
-30.706
-30.152
-29.631
-29.149
-28.712
-28.322
-27.985
-27.702
-27.475
-27.307
-27.196
-27.144
-27.149
-27.21
-27.325
-27.492
-27.707
-27.966
-28.267
-28.603
-28.97
-29.363
-29.776
-30.205
-30.644
-31.088
-31.532
-31.972
-32.404
-32.822
-33.224
-33.607
-33.965
-34.298
-34.603
-34.876
-35.116
-35.322
-35.493
-35.626
-35.722
-35.778
-35.794
-35.768
-35.7
-35.588
-35.431
-35.228
-34.979
-34.684
-34.343
-33.957
-33.526
-33.053
-32.54
-31.991
-31.407
-30.79
-30.144
-29.471
-28.773
-28.053
-27.311
-26.55
-25.772
-24.982
-24.183
-23.38
-22.577
-21.779
-20.989
-20.214
-19.458
-18.723
-18.012
-17.328
-16.676
-16.066
-15.51
-15.014
-14.579
-14.206
-13.891
-13.629
-13.409
-13.213
-13.018
-12.804
-12.557
-12.269
-11.941
-11.567
-11.135
-10.633
-10.043
-9.361
-8.588
-7.727
-6.784
-5.776
-4.732
-3.707
-2.765
-1.957
-1.324
-0.894
-0.686
-0.728
-1.051
-1.685
-2.666
-4.012
-5.73
-7.822
-10.291
-13.135
-16.332
-19.823
-23.542
-27.407
-31.372
-35.45
-39.559
-43.521
-47.109
-49.956
-51.746
-52.322
-51.418
-48.698
-44.171
-38.023
-30.722
-23.274
-16.423
-10.582
-6.445
-4.584
-4.969
-7.356
-10.839
-13.576
-14.201
-11.555
-3.911
10.019
30.884
58.971
93.352
131.941
172.727
213.007
248.875
276.51
292.051
291.906
273.823
236.283
178.407
101.135
7.25
-99.253
-213.014
-328.362
-439.941
-541.754
-628.249
-695.387
-740.411
-762.556
-762.851
-742.682
-704.225
-651.245
-587.787
-518.027
-446.289
-375.484
-307.747
-245.663
-191.096
-144.971
-107.955
-79.562
-58.483
-43.998
-35.205
-30.436
-28.244
-27.112
-25.39
-22.485
-18.429
-13.098
-6.704
0.216
7.229
13.6
18.456
21.567
23.063
23.153
22.28
20.873
19.272
17.967
17.459
17.977
19.579
22.2
25.653
29.794
34.513
39.648
45.026
50.506
55.965
61.316
66.49
71.408
75.977
80.113
83.763
86.907
89.553
91.734
93.489
94.866
95.923
96.726
97.337
97.819
98.227
98.607
99.01
99.486
100.084
100.853
101.827
103.027
104.465
106.144
108.062
110.211
112.58
115.149
117.902
120.822
123.893
127.099
130.422
133.84
137.331
140.869
144.432
147.994
151.532
155.02
158.435
161.752
164.947
167.998
170.881
173.572
176.046
178.281
180.255
181.946
183.335
184.404
185.137
185.52
185.541
185.19
184.461
183.348
181.847
179.958
177.68
175.018
171.977
168.564
164.788
160.66
156.193
151.402
146.303
140.914
135.255
129.345
123.208
116.865
110.34
103.657
96.841
89.917
82.909
75.844
68.745
61.638
54.546
47.494
40.503
33.597
26.796
20.12
13.588
7.218
1.026
-4.972
-10.763
-16.333
-21.672
-26.769
-31.614
-36.201
-40.524
-44.576
-48.355
-51.857
-55.083
-58.031
-60.704
-63.103
-65.232
-67.096
-68.7
-70.05
-71.154
-72.021
-72.658
-73.075
-73.282
-73.29
-73.109
-72.752
-72.228
-71.551
-70.732
-69.782
-68.715
-67.542
-66.274
-64.924
-63.502
-62.021
-60.492
-58.925
-57.332
-55.722
-54.105
-52.492
-50.892
-49.313
-47.764
-46.252
-44.784
-43.368
-42.01
-40.715
-39.488
-38.334
-37.257
-36.26
-35.345
-34.516
-33.773
-33.117
-32.549
-32.068
-31.673
-31.363
-31.137
-30.992
-30.925
-30.933
-31.013
-31.161
-31.373
-31.645
-31.973
-32.35
-32.772
-33.234
-33.73
-34.254
-34.8
-35.362
-35.934
-36.511
-37.086
-37.652
-38.205
-38.737
-39.243
-39.716
-40.153
-40.547
-40.894
-41.189
-41.43
-41.611
-41.733
-41.791
-41.785
-41.716
-41.582
-41.385
-41.125
-40.804
-40.424
-39.987
-39.494
-38.948
-38.352
-37.707
-37.018
-36.288
-35.521
-34.722
-33.895
-33.046
-32.181
-31.306
-30.426
-29.542
-28.659
-27.778
-26.907
-26.051
-25.215
-24.401
-23.609
-22.839
-22.089
-21.355
-20.624
-19.875
-19.086
-18.238
-17.316
-16.314
-15.225
-14.039
-12.748
-11.34
-9.812
-8.167
-6.411
-4.549
-2.594
-0.571
1.47
3.451
5.282
6.884
8.188
9.139
9.697
9.809
9.407
8.437
6.851
4.608
1.697
-1.932
-6.359
-11.534
-17.286
-23.316
-29.188
-34.547
-39.196
-42.832
-45.064
-45.78
-45.079
-43.388
-41.503
-39.918
-38.715
-38.113
-38.48
-39.783
-41.696
-43.344
-43.165
-40.079
-33.636
-23.172
-7.711
13.34
40.244
72.506
108.419
146.439
185.37
223.227
257.071
283.707
299.643
301.789
288.449
258.088
209.222
141.82
57.552
-40.643
-148.17
-259.73
-370.698
-475.992
-570.061
-648.326
-707.346
-744.951
-761.184
-757.24
-734.185
-694.254
-640.825
-577.555
-508.559
-437.712
-367.512
-300.177
-238.362
-183.988
-138.27
-101.599
-73.102
-51.617
-36.41
-26.358
-19.781
-14.978
-10.191
-4.385
2.472
10.213
18.686
27.509
36.14
43.828
49.608
53.043
54.266
53.586
51.479
48.419
44.82
41.222
38.26
36.333
35.603
36.078
37.608
40.055
43.329
47.297
51.8
56.69
61.831
67.095
72.383
77.597
82.621
87.344
91.648
95.423
98.621
101.247
103.36
105.032
106.328
107.303
108.013
108.526
108.92
109.273
109.654
110.115
110.715
111.522
112.623
114.108
116.02
118.354
121.063
124.097
127.423
131.014
134.845
138.874
143.059
147.359
151.749
156.21
160.712
165.208
169.631
173.912
178.006
181.899
185.6
189.111
192.425
195.526
198.404
201.054
203.473
205.645
207.544
209.144
210.426
211.386
212.03
212.365
212.389
212.09
211.451
210.458
209.106
207.391
205.311
202.858
200.035
196.849
193.319
189.463
185.299
180.839
176.099
171.092
165.839
160.362
154.683
148.825
142.813
136.669
130.421
124.095
117.715
111.305
104.885
98.476
92.099
85.774
79.522
73.362
67.31
61.385
55.604
49.982
44.534
39.272
34.208
29.353
24.714
20.301
16.12
12.176
8.472
5.012
1.798
-1.171
-3.896
-6.379
-8.622
-10.631
-12.411
-13.967
-15.308
-16.44
-17.373
-18.115
-18.676
-19.067
-19.296
-19.376
-19.317
-19.13
-18.826
-18.416
-17.911
-17.324
-16.665
-15.945
-15.176
-14.367
-13.53
-12.673
-11.807
-10.941
-10.082
-9.239
-8.419
-7.63
-6.876
-6.165
-5.499
-4.885
-4.324
-3.82
-3.374
-2.989
-2.666
-2.404
-2.204
-2.066
-1.987
-1.969
-2.007
-2.102
-2.249
-2.447
-2.692
-2.981
-3.311
-3.676
-4.075
-4.501
-4.951
-5.42
-5.905
-6.401
-6.902
-7.406
-7.907
-8.402
-8.886
-9.355
-9.806
-10.235
-10.639
-11.015
-11.359
-11.669
-11.943
-12.177
-12.37
-12.518
-12.621
-12.675
-12.68
-12.635
-12.537
-12.387
-12.185
-11.932
-11.629
-11.279
-10.884
-10.445
-9.965
-9.447
-8.894
-8.308
-7.692
-7.048
-6.381
-5.694
-4.995
-4.286
-3.574
-2.865
-2.162
-1.472
-0.799
-0.149
0.475
1.069
1.626
2.142
2.605
3.01
3.357
3.645
3.881
4.071
4.222
4.35
4.474
4.611
4.778
4.989
5.251
5.576
5.977
6.463
7.056
7.765
8.584
9.507
10.515
11.581
12.68
13.763
14.761
15.609
16.247
16.61
16.649
16.307
15.517
14.232
12.408
10.01
7.019
3.416
-0.808
-5.641
-11.041
-16.956
-23.338
-30.043
-36.862
-43.5
-49.537
-54.58
-58.34
-60.453
-60.521
-58.497
-54.532
-49.039
-42.958
-37.045
-31.79
-27.982
-26.3
-26.735
-28.988
-32.148
-34.307
-33.935
-29.725
-19.762
-2.568
22.455
55.429
95.263
139.437
185.396
230.024
268.947
297.873
312.831
310.173
287.593
244.135
179.624
95.408
-5.196
-117.683
-236.608
-355.955
-469.893
-572.827
-659.65
-726.309
-770.324
-790.968
-788.818
-765.549
-723.82
-667.1
-599.506
-525.664
-449.908
-375.667
-306.07
-243.721
-190.469
-147.616
-115.308
-92.45
-77.599
-69.323
-65.759
-65.035
-65.281
-64.525
-61.738
-56.823
-49.946
-41.52
-32.226
-22.724
-13.897
-6.829
-1.962
0.756
1.568
0.967
-0.545
-2.548
-4.473
-5.679
-5.823
-4.784
-2.577
0.621
4.679
9.506
14.941
20.787
26.867
33.028
39.151
45.148
50.898
56.247
61.054
65.188
68.572
71.19
73.049
74.181
74.632
74.464
73.769
72.672
71.309
69.794
68.238
66.741
65.415
64.401
63.828
63.797
64.385
65.624
67.529
70.105
73.342
77.202
81.623
86.513
91.763
97.291
103.024
108.885
114.799
120.663
126.386
131.9
137.151
142.098
146.713
150.961
154.818
158.285
161.377
164.121
166.559
168.712
170.59
172.206
173.57
174.699
175.608
176.295
176.752
176.971
176.946
176.676
176.157
175.376
174.316
172.957
171.279
169.271
166.931
164.255
161.247
157.912
154.26
150.305
146.07
141.574
136.835
131.873
126.706
121.354
115.844
110.199
104.443
98.6
92.693
86.744
80.775
74.808
68.862
62.955
57.104
51.327
45.641
40.061
34.605
29.287
24.121
19.119
14.294
9.655
5.211
0.968
-3.067
-6.891
-10.501
-13.893
-17.068
-20.024
-22.764
-25.288
-27.599
-29.7
-31.597
-33.292
-34.793
-36.105
-37.235
-38.191
-38.981
-39.613
-40.096
-40.439
-40.651
-40.743
-40.725
-40.606
-40.397
-40.107
-39.747
-39.325
-38.852
-38.334
-37.782
-37.202
-36.601
-35.985
-35.362
-34.737
-34.114
-33.5
-32.897
-32.312
-31.746
-31.205
-30.691
-30.207
-29.755
-29.337
-28.956
-28.612
-28.307
-28.041
-27.815
-27.628
-27.481
-27.374
-27.304
-27.273
-27.277
-27.316
-27.389
-27.494
-27.629
-27.793
-27.984
-28.2
-28.439
-28.7
-28.982
-29.282
-29.599
-29.929
-30.273
-30.626
-30.987
-31.353
-31.721
-32.087
-32.45
-32.805
-33.15
-33.481
-33.794
-34.085
-34.352
-34.59
-34.795
-34.964
-35.092
-35.177
-35.214
-35.201
-35.136
-35.015
-34.838
-34.602
-34.308
-33.957
-33.547
-33.08
-32.557
-31.978
-31.345
-30.66
-29.924
-29.14
-28.312
-27.444
-26.544
-25.617
-24.67
-23.711
-22.747
-21.786
-20.836
-19.903
-18.992
-18.11
-17.269
-16.479
-15.753
-15.101
-14.527
-14.033
-13.62
-13.283
-13.013
-12.8
-12.622
-12.464
-12.316
-12.169
-12.021
-11.866
-11.687
-11.47
-11.198
-10.854
-10.439
-9.952
-9.394
-8.786
-8.16
-7.552
-7.022
-6.623
-6.391
-6.369
-6.587
-7.077
-7.892
-9.087
-10.706
-12.793
-15.361
-18.417
-21.984
-26.046
-30.58
-35.554
-40.869
-46.456
-52.29
-58.238
-64.109
-69.636
-74.375
-77.935
-80.019
-80.224
-78.281
-74.208
-68.164
-60.754
-52.919
-45.376
-38.885
-34.276
-31.879
-31.627
-33.054
-34.747
-35.059
-32.594
-25.507
-12.079
8.693
37.392
73.535
115.301
160.592
206.81
250.035
286.042
310.689
319.947
310.848
281.501
230.602
157.937
66.737
-38.246
-153.233
-272.621
-393.571
-513.253
-621.55
-710.69
-772.874
-801.036
-800.046
-774.894
-730.171
-673.893
-607.462
-532.828
-454.692
-375.125
-298.452
-229.426
-170.343
-122.839
-87.093
-61.628
-44.68
-34.923
-30.643
-29.582
-29.597
-28.631
-25.461
-20.084
-12.914
-4.309
5.108
14.496
22.903
29.182
32.779
33.857
32.786
30.099
26.36
22.063
17.823
14.353
12.065
11.096
11.449
12.957
15.489
18.971
23.257
28.168
33.549
39.247
45.145
51.16
57.176
63.066
68.706
73.973
78.792
83.138
87.002
90.401
93.366
95.928
98.138
100.057
101.743
103.256
104.648
105.967
107.263
108.592
110.005
111.552
113.266
115.162
117.248
119.52
121.971
124.593
127.369
130.274
133.29
136.4
139.586
142.835
146.127
149.443
152.762
156.062
159.323
162.527
165.655
168.69
171.612
174.406
177.055
179.543
181.855
183.973
185.88
187.559
188.995
190.174
191.081
191.704
192.034
192.06
191.777
191.179
190.264
189.028
187.473
185.598
183.408
180.907
178.099
174.993
171.597
167.92
163.974
159.771
155.324
150.647
145.757
140.668
135.397
129.963
124.383
118.676
112.86
106.954
100.979
94.953
88.896
82.827
76.764
70.726
64.731
58.795
52.934
47.164
41.499
35.952
30.537
25.265
20.145
15.189
10.405
5.8
1.381
-2.845
-6.875
-10.705
-14.331
-17.751
-20.965
-23.972
-26.773
-29.37
-31.765
-33.961
-35.963
-37.774
-39.401
-40.85
-42.126
-43.238
-44.192
-44.997
-45.66
-46.19
-46.594
-46.881
-47.06
-47.139
-47.125
-47.028
-46.855
-46.613
-46.311
-45.955
-45.552
-45.11
-44.634
-44.131
-43.607
-43.066
-42.515
-41.959
-41.401
-40.846
-40.298
-39.76
-39.235
-38.726
-38.235
-37.763
-37.313
-36.885
-36.48
-36.1
-35.744
-35.414
-35.109
-34.829
-34.574
-34.344
-34.139
-33.959
-33.802
-33.669
-33.559
-33.473
-33.408
-33.365
-33.344
-33.343
-33.361
-33.397
-33.449
-33.517
-33.598
-33.69
-33.792
-33.901
-34.015
-34.132
-34.251
-34.368
-34.481
-34.589
-34.687
-34.775
-34.848
-34.904
-34.941
-34.954
-34.942
-34.9
-34.826
-34.716
-34.566
-34.374
-34.135
-33.846
-33.503
-33.104
-32.644
-32.122
-31.534
-30.881
-30.16
-29.371
-28.515
-27.593
-26.607
-25.561
-24.456
-23.297
-22.087
-20.83
-19.531
-18.194
-16.824
-15.425
-14.005
-12.571
-11.131
-9.692
-8.262
-6.85
-5.463
-4.11
-2.799
-1.536
-0.33
0.812
1.884
2.876
3.776
4.58
5.284
5.889
6.402
6.828
7.176
7.459
7.697
7.906
8.103
8.299
8.505
8.733
8.996
9.309
9.695
10.166
10.723
11.367
12.085
12.858
13.668
14.483
15.244
15.905
16.419
16.733
16.81
16.605
16.061
15.139
13.798
12
9.716
6.919
3.592
-0.263
-4.618
-9.452
-14.742
-20.377
-26.165
-31.829
-36.979
-41.261
-44.431
-46.152
-46.013
-43.943
-40.07
-34.782
-28.982
-23.344
-18.226
-14.317
-12.271
-12.111
-13.626
-15.975
-17.331
-16.373
-12.056
-2.636
13.283
36.402
67.102
104.477
146.324
190.674
234.969
275.211
307.339
327.326
331.278
316.474
281.2
224.25
145.625
48.815
-61.329
-180.891
-304.106
-427.803
-548.859
-657.298
-745.492
-806.042
-832.216
-828.649
-800.54
-752.892
-693.865
-625.241
-549.286
-470.617
-391.477
-316.381
-249.596
-192.89
-147.582
-113.472
-88.882
-72.09
-61.578
-55.39
-51.606
-48.449
-44.09
-37.647
-29.249
-19.303
-8.341
2.872
13.638
23.134
30.321
34.784
36.654
36.235
34.082
30.747
26.652
22.345
18.434
15.252
12.968
11.63
11.112
11.331
12.24
13.728
15.688
18.038
20.688
23.572
26.638
29.802
33.002
36.185
39.314
42.392
45.407
48.352
51.245
54.103
56.944
59.788
62.63
65.445
68.237
71.017
73.802
76.627
79.503
82.428
85.401
88.398
91.412
94.44
97.467
100.48
103.478
106.465
109.466
112.527
115.671
118.906
122.238
125.653
129.147
132.722
136.37
140.084
143.854
147.665
151.504
155.36
159.21
163.027
166.77
170.391
173.848
177.111
180.149
182.942
185.466
187.7
189.628
191.24
192.526
193.473
194.073
194.313
194.188
193.696
192.839
191.62
190.047
188.124
185.858
183.257
180.329
177.083
173.53
169.679
165.54
161.129
156.461
151.555
146.428
141.1
135.592
129.924
124.119
118.198
112.183
106.094
99.952
93.78
87.597
81.424
75.28
69.185
63.156
57.212
51.369
45.643
40.048
34.599
29.309
24.189
19.25
14.503
9.956
5.617
1.493
-2.41
-6.087
-9.536
-12.753
-15.737
-18.49
-21.013
-23.307
-25.377
-27.228
-28.865
-30.294
-31.522
-32.557
-33.408
-34.082
-34.591
-34.942
-35.147
-35.216
-35.16
-34.989
-34.715
-34.348
-33.899
-33.378
-32.798
-32.167
-31.497
-30.797
-30.077
-29.347
-28.615
-27.89
-27.181
-26.494
-25.837
-25.216
-24.636
-24.102
-23.619
-23.189
-22.816
-22.502
-22.249
-22.057
-21.927
-21.857
-21.849
-21.899
-22.006
-22.167
-22.381
-22.643
-22.952
-23.303
-23.692
-24.117
-24.573
-25.056
-25.563
-26.09
-26.631
-27.185
-27.746
-28.311
-28.877
-29.439
-29.995
-30.542
-31.077
-31.597
-32.099
-32.582
-33.043
-33.481
-33.893
-34.278
-34.636
-34.965
-35.265
-35.536
-35.778
-35.992
-36.176
-36.332
-36.46
-36.56
-36.632
-36.676
-36.692
-36.681
-36.641
-36.573
-36.476
-36.35
-36.194
-36.007
-35.788
-35.536
-35.25
-34.929
-34.573
-34.18
-33.752
-33.287
-32.787
-32.252
-31.685
-31.087
-30.46
-29.804
-29.122
-28.416
-27.687
-26.938
-26.168
-25.381
-24.579
-23.766
-22.947
-22.125
-21.306
-20.494
-19.693
-18.908
-18.145
-17.408
-16.7
-16.025
-15.386
-14.79
-14.246
-13.756
-13.319
-12.932
-12.588
-12.279
-11.997
-11.73
-11.457
-11.163
-10.832
-10.449
-10.014
-9.517
-8.951
-8.307
-7.567
-6.724
-5.786
-4.761
-3.663
-2.515
-1.335
-0.153
0.969
1.984
2.842
3.488
3.896
4.033
3.856
3.345
2.456
1.147
-0.601
-2.813
-5.502
-8.645
-12.259
-16.375
-20.907
-25.701
-30.511
-34.966
-38.768
-41.711
-43.51
-43.815
-42.415
-39.377
-35.095
-30.309
-25.744
-21.822
-18.938
-17.709
-18.529
-21.249
-25.19
-28.961
-30.926
-30.013
-25.133
-14.66
2.625
27.302
59.293
97.197
138.978
182.863
226.256
265.215
295.858
314.392
317.091
301.495
265.892
208.649
130.945
37.399
-68.576
-183.512
-304.581
-432.147
-559.36
-673.681
-763.814
-817.222
-831.749
-816.211
-778.65
-728.649
-671.517
-605.698
-532.507
-454.589
-375.202
-300.13
-233.329
-176.546
-130.778
-95.882
-70.735
-53.864
-43.836
-38.862
-37.068
-36.926
-36.859
-35.473
-32.328
-27.551
-21.37
-14.377
-7.218
-0.411
5.315
9.262
11.278
11.559
10.457
8.512
6.219
3.982
2.283
1.555
1.971
3.525
6.103
9.508
13.579
18.205
23.239
28.53
33.98
39.491
44.989
50.416
55.687
60.712
65.431
69.821
73.911
77.774
81.479
85.086
88.654
92.22
95.82
99.472
103.159
106.873
110.613
114.385
118.215
122.129
126.135
130.228
134.381
138.541
142.666
146.722
150.675
154.508
158.214
161.803
165.31
168.769
172.196
175.601
178.979
182.315
185.605
188.842
192.017
195.133
198.186
201.17
204.085
206.917
209.646
212.246
214.677
216.9
218.886
220.609
222.05
223.196
224.032
224.549
224.743
224.608
224.139
223.331
222.176
220.673
218.822
216.627
214.096
211.237
208.059
204.571
200.785
196.711
192.361
187.746
182.877
177.766
172.429
166.882
161.143
155.23
149.164
142.963
136.65
130.246
123.772
117.248
110.696
104.137
97.59
91.076
84.615
78.226
71.928
65.737
59.672
53.749
47.983
42.389
36.98
31.768
26.765
21.981
17.425
13.104
9.025
5.194
1.615
-1.709
-4.775
-7.584
-10.135
-12.431
-14.474
-16.268
-17.819
-19.133
-20.217
-21.079
-21.728
-22.172
-22.422
-22.488
-22.382
-22.115
-21.699
-21.146
-20.469
-19.68
-18.79
-17.814
-16.762
-15.647
-14.48
-13.272
-12.034
-10.777
-9.511
-8.244
-6.986
-5.744
-4.527
-3.342
-2.194
-1.09
-0.035
0.966
1.91
2.794
3.614
4.368
5.055
5.675
6.225
6.707
7.121
7.468
7.749
7.965
8.12
8.214
8.25
8.232
8.16
8.039
7.87
7.657
7.402
7.107
6.775
6.409
6.009
5.578
5.117
4.63
4.116
3.578
3.017
2.434
1.829
1.206
0.563
-0.097
-0.775
-1.468
-2.177
-2.901
-3.637
-4.386
-5.145
-5.914
-6.691
-7.474
-8.262
-9.052
-9.843
-10.633
-11.42
-12.2
-12.972
-13.732
-14.477
-15.204
-15.909
-16.587
-17.236
-17.852
-18.429
-18.965
-19.454
-19.892
-20.275
-20.6
-20.861
-21.055
-21.179
-21.229
-21.203
-21.1
-20.917
-20.655
-20.314
-19.895
-19.4
-18.832
-18.193
-17.487
-16.717
-15.887
-15.002
-14.066
-13.084
-12.06
-11.002
-9.916
-8.81
-7.691
-6.565
-5.441
-4.327
-3.233
-2.165
-1.128
-0.126
0.834
1.745
2.597
3.383
4.103
4.759
5.35
5.88
6.354
6.782
7.187
7.591
8.01
8.456
8.932
9.441
9.997
10.61
11.295
12.057
12.884
13.762
14.689
15.65
16.617
17.547
18.357
18.962
19.304
19.331
19.002
18.294
17.152
15.515
13.339
10.579
7.222
3.276
-1.301
-6.569
-12.482
-18.89
-25.494
-31.873
-37.68
-42.667
-46.535
-48.908
-49.539
-48.472
-46.097
-43.159
-40.429
-38.37
-37.397
-38.138
-40.962
-45.681
-51.592
-57.249
-60.905
-61.32
-57.243
-46.942
-29.183
-3.449
30.046
69.717
113.27
158.563
202.641
241.401
270.794
286.836
286.095
266.665
227.194
166.813
86.441
-11.197
-122.1
-240.89
-361.958
-480.083
-589.313
-683.912
-759.44
-812.627
-842.206
-848.778
-833.371
-797.863
-745.879
-681.592
-609.559
-534.669
-460.415
-389.463
-324.859
-268.824
-222.424
-186.217
-159.445
-140.389
-127.943
-120.853
-117.112
-115.029
-113.01
-109.533
-104.232
-97.407
-89.183
-79.979
-70.537
-61.456
-53.555
-47.681
-43.982
-42.244
-42.154
-43.203
-44.897
-46.828
-48.471
-49.29
-49.034
-47.623
-45.105
-41.649
-37.376
-32.382
-26.802
-20.785
-14.467
-7.966
-1.385
5.2
11.699
18.01
24.034
29.675
34.879
39.626
43.925
47.807
51.305
54.459
57.317
59.939
62.383
64.703
66.947
69.159
71.382
73.663
76.05
78.588
81.306
84.22
87.335
90.648
94.153
97.843
101.699
105.701
109.83
114.065
118.392
122.795
127.256
131.753
136.265
140.768
145.24
149.661
154.009
158.264
162.404
166.409
170.26
173.939
177.426
180.702
183.748
186.544
189.072
191.317
193.263
194.894
196.2
197.169
197.794
198.068
197.987
197.547
196.75
195.595
194.087
192.23
190.031
187.498
184.642
181.474
178.007
174.255
170.234
165.959
161.451
156.725
151.804
146.706
141.452
136.063
130.562
124.968
119.304
113.592
107.852
102.106
96.373
90.674
85.029
79.454
73.968
68.586
63.324
58.195
53.212
48.385
43.725
39.241
34.938
30.824
26.902
23.177
19.651
16.324
13.197
10.268
7.536
4.996
2.645
0.477
-1.512
-3.329
-4.983
-6.479
-7.826
-9.033
-10.108
-11.06
-11.9
-12.635
-13.276
-13.832
-14.311
-14.724
-15.078
-15.382
-15.642
-15.867
-16.063
-16.234
-16.388
-16.528
-16.658
-16.782
-16.903
-17.023
-17.143
-17.266
-17.39
-17.517
-17.646
-17.777
-17.908
-18.039
-18.167
-18.291
-18.41
-18.52
-18.621
-18.71
-18.784
-18.841
-18.879
-18.897
-18.891
-18.86
-18.803
-18.718
-18.605
-18.464
-18.293
-18.093
-17.866
-17.61
-17.329
-17.023
-16.695
-16.348
-15.983
-15.606
-15.218
-14.825
-14.429
-14.036
-13.649
-13.272
-12.91
-12.566
-12.247
-11.955
-11.695
-11.473
-11.292
-11.156
-11.069
-11.036
-11.059
-11.141
-11.284
-11.491
-11.765
-12.105
-12.514
-12.991
-13.539
-14.155
-14.842
-15.595
-16.415
-17.298
-18.241
-19.242
-20.296
-21.397
-22.541
-23.722
-24.938
-26.182
-27.449
-28.734
-30.028
-31.328
-32.627
-33.915
-35.184
-36.424
-37.625
-38.782
-39.887
-40.934
-41.915
-42.826
-43.663
-44.425
-45.108
-45.707
-46.214
-46.618
-46.916
-47.111
-47.21
-47.219
-47.141
-46.981
-46.75
-46.461
-46.123
-45.734
-45.283
-44.758
-44.155
-43.481
-42.748
-41.969
-41.148
-40.278
-39.353
-38.37
-37.325
-36.205
-34.985
-33.63
-32.126
-30.478
-28.71
-26.847
-24.895
-22.852
-20.716
-18.487
-16.176
-13.799
-11.365
-8.883
-6.379
-3.893
-1.488
0.767
2.824
4.646
6.208
7.476
8.392
8.904
8.969
8.549
7.629
6.178
4.141
1.481
-1.824
-5.781
-10.342
-15.494
-21.276
-27.598
-34.27
-41.005
-47.36
-52.976
-57.656
-61.079
-62.847
-62.88
-61.345
-58.749
-56.008
-53.761
-52.242
-51.868
-53.182
-56.209
-60.512
-65.003
-67.889
-67.799
-63.982
-55.381
-40.595
-18.835
10.031
45.191
84.64
126.472
168.993
209.531
244.287
269.518
281.817
278.187
256.66
215.792
154.393
74.003
-20.49
-125.345
-237.226
-353.593
-474.826
-594.519
-700.804
-782.9
-828.99
-837.456
-817.031
-775.806
-723.585
-665.42
-599.634
-527.457
-451.015
-373.332
-300.426
-236.192
-182.304
-139.865
-108.272
-86.011
-71.709
-63.733
-59.867
-58.083
-56.546
-53.495
-48.177
-40.688
-31.321
-20.653
-9.549
1.207
10.724
18.054
22.889
25.371
25.818
24.77
22.766
20.272
17.852
16.088
15.31
15.654
17.117
19.563
22.882
26.984
31.736
36.988
42.598
48.449
54.44
60.493
66.522
72.428
78.114
83.491
88.481
93.042
97.165
100.862
104.156
107.085
109.69
112.021
114.14
116.103
117.964
119.77
121.563
123.387
125.285
127.3
129.469
131.816
134.35
137.073
139.98
143.062
146.309
149.702
153.218
156.835
160.535
164.297
168.106
171.94
175.777
179.593
183.364
187.067
190.682
194.186
197.557
200.773
203.815
206.661
209.295
211.697
213.848
215.728
217.321
218.608
219.577
220.212
220.501
220.436
220.006
219.209
218.039
216.495
214.578
212.289
209.634
206.618
203.249
199.537
195.494
191.133
186.468
181.516
176.294
170.821
165.117
159.203
153.102
146.835
140.426
133.899
127.278
120.587
113.85
107.091
100.334
93.603
86.919
80.305
73.783
67.371
61.09
54.956
48.987
43.197
37.599
32.207
27.03
22.08
17.362
12.885
8.653
4.67
0.938
-2.541
-5.768
-8.745
-11.474
-13.959
-16.206
-18.22
-20.009
-21.58
-22.943
-24.106
-25.08
-25.874
-26.501
-26.971
-27.295
-27.485
-27.553
-27.51
-27.367
-27.135
-26.826
-26.449
-26.014
-25.531
-25.009
-24.457
-23.881
-23.29
-22.69
-22.088
-21.488
-20.896
-20.316
-19.752
-19.206
-18.682
-18.181
-17.706
-17.256
-16.834
-16.439
-16.072
-15.732
-15.418
-15.131
-14.868
-14.629
-14.413
-14.219
-14.044
-13.889
-13.752
-13.631
-13.525
-13.435
-13.357
-13.293
-13.24
-13.2
-13.17
-13.152
-13.146
-13.15
-13.166
-13.193
-13.233
-13.286
-13.352
-13.432
-13.526
-13.636
-13.762
-13.904
-14.064
-14.243
-14.44
-14.656
-14.892
-15.148
-15.425
-15.722
-16.04
-16.379
-16.738
-17.117
-17.516
-17.934
-18.371
-18.826
-19.298
-19.785
-20.287
-20.801
-21.327
-21.861
-22.403
-22.95
-23.5
-24.05
-24.599
-25.143
-25.681
-26.209
-26.726
-27.227
-27.712
-28.176
-28.617
-29.032
-29.419
-29.773
-30.094
-30.377
-30.62
-30.821
-30.976
-31.084
-31.141
-31.147
-31.097
-30.992
-30.829
-30.608
-30.328
-29.99
-29.594
-29.141
-28.634
-28.074
-27.465
-26.81
-26.112
-25.373
-24.6
-23.793
-22.957
-22.095
-21.212
-20.312
-19.4
-18.481
-17.561
-16.645
-15.74
-14.852
-13.985
-13.139
-12.316
-11.519
-10.75
-10.017
-9.322
-8.667
-8.05
-7.473
-6.934
-6.428
-5.945
-5.459
-4.95
-4.401
-3.799
-3.142
-2.425
-1.637
-0.767
0.196
1.255
2.403
3.634
4.951
6.343
7.787
9.23
10.581
11.758
12.695
13.34
13.66
13.605
13.1
12.077
10.473
8.237
5.359
1.791
-2.575
-7.744
-13.589
-19.828
-26.001
-31.685
-36.618
-40.491
-42.901
-43.627
-42.748
-40.708
-38.381
-36.603
-35.818
-36.397
-38.862
-43.388
-49.568
-56.421
-62.182
-64.919
-63.336
-56.199
-41.88
-19.297
11.82
50.975
96.251
145.075
195.23
243.836
286.801
320.057
339.796
342.746
326.933
291.101
234.316
156.843
62.278
-44.49
-159.631
-277.871
-396.747
-513.706
-619.221
-706.133
-767.243
-796.016
-797.465
-776.54
-737.672
-688.558
-630.159
-563.851
-493.838
-421.714
-351.002
-285.795
-227.887
-178.616
-138.724
-107.469
-83.509
-66.12
-54.381
-46.704
-41.755
-38.032
-33.83
-28.591
-22.468
-15.396
-7.622
0.314
8.04
14.803
19.655
22.353
23.039
21.975
19.665
16.567
13.03
9.574
6.778
4.96
4.241
4.576
5.772
7.684
10.2
13.178
16.456
19.89
23.357
26.757
30.039
33.162
36.085
38.782
41.232
43.422
45.387
47.212
48.985
50.795
52.726
54.84
57.202
59.877
62.917
66.358
70.213
74.467
79.096
84.056
89.311
94.826
100.548
106.402
112.319
118.238
124.107
129.891
135.556
141.064
146.39
151.517
156.442
161.177
165.738
170.154
174.443
178.618
182.69
186.672
190.569
194.382
198.1
201.701
205.168
208.482
211.622
214.566
217.289
219.758
221.942
223.806
225.319
226.46
227.208
227.549
227.473
226.972
226.046
224.703
222.949
220.79
218.235
215.292
211.972
208.29
204.261
199.904
195.234
190.272
185.035
179.542
173.815
167.874
161.738
155.427
148.963
142.368
135.664
128.876
122.026
115.138
108.234
101.339
94.473
87.659
80.916
74.263
67.718
61.297
55.017
48.892
42.935
37.159
31.574
26.191
21.018
16.063
11.332
6.831
2.563
-1.468
-5.26
-8.812
-12.125
-15.199
-18.037
-20.642
-23.017
-25.169
-27.102
-28.824
-30.341
-31.663
-32.798
-33.754
-34.542
-35.17
-35.649
-35.988
-36.197
-36.286
-36.264
-36.14
-35.925
-35.626
-35.254
-34.815
-34.319
-33.772
-33.183
-32.558
-31.904
-31.227
-30.532
-29.825
-29.111
-28.395
-27.679
-26.969
-26.267
-25.577
-24.899
-24.237
-23.593
-22.966
-22.36
-21.773
-21.208
-20.663
-20.141
-19.64
-19.161
-18.704
-18.27
-17.857
-17.466
-17.097
-16.75
-16.425
-16.123
-15.844
-15.588
-15.356
-15.149
-14.968
-14.813
-14.685
-14.585
-14.515
-14.475
-14.466
-14.49
-14.548
-14.641
-14.77
-14.936
-15.141
-15.386
-15.672
-15.999
-16.368
-16.779
-17.233
-17.73
-18.269
-18.848
-19.468
-20.127
-20.822
-21.553
-22.317
-23.111
-23.933
-24.779
-25.646
-26.529
-27.426
-28.331
-29.24
-30.147
-31.049
-31.939
-32.812
-33.663
-34.486
-35.276
-36.026
-36.73
-37.383
-37.977
-38.508
-38.97
-39.356
-39.664
-39.888
-40.024
-40.07
-40.024
-39.885
-39.653
-39.327
-38.908
-38.398
-37.797
-37.107
-36.333
-35.474
-34.536
-33.522
-32.44
-31.297
-30.1
-28.857
-27.576
-26.267
-24.937
-23.596
-22.253
-20.914
-19.59
-18.29
-17.027
-15.817
-14.669
-13.589
-12.581
-11.646
-10.78
-9.978
-9.228
-8.514
-7.822
-7.142
-6.468
-5.796
-5.12
-4.426
-3.705
-2.943
-2.129
-1.265
-0.356
0.596
1.564
2.516
3.416
4.205
4.835
5.267
5.458
5.372
4.969
4.206
3.041
1.445
-0.604
-3.123
-6.127
-9.633
-13.629
-18.087
-22.948
-28.154
-33.692
-39.461
-45.278
-50.881
-55.894
-59.983
-62.933
-64.447
-64.141
-61.953
-58.019
-52.738
-47.008
-41.499
-36.561
-32.834
-30.924
-30.871
-32.481
-34.936
-36.471
-35.809
-31.986
-23.432
-8.858
12.48
41.058
76.088
115.536
157.596
199.964
239.092
271.298
292.616
299.093
288.228
258.384
208.252
138.025
49.71
-53.302
-165.923
-282.39
-397.332
-504.857
-599.093
-675.237
-729.66
-760.73
-768.806
-755.005
-721.179
-670.711
-607.818
-537.21
-463.786
-391.126
-322.01
-259.304
-205.246
-161.1
-127.096
-102.165
-84.566
-73.061
-66.274
-62.322
-59.382
-55.652
-50.093
-42.754
-34.054
-24.347
-14.147
-4.138
4.864
11.829
16.252
18.269
18.207
16.568
13.865
10.531
7.122
4.29
2.446
1.76
2.266
3.834
6.348
9.745
13.896
18.648
23.862
29.398
35.147
41.022
46.923
52.735
58.349
63.656
68.567
73.037
77.046
80.604
83.744
86.499
88.916
91.047
92.953
94.697
96.336
97.923
99.501
101.12
102.829
104.681
106.727
108.996
111.498
114.233
117.186
120.342
123.687
127.193
130.825
134.557
138.368
142.249
146.206
150.231
154.305
158.404
162.488
166.534
170.531
174.467
178.335
182.13
185.84
189.47
193.042
196.55
199.974
203.27
206.362
209.197
211.738
213.957
215.839
217.36
218.485
219.185
219.441
219.224
218.512
217.264
215.417
212.943
209.844
206.154
201.946
197.273
192.17
186.675
180.819
174.639
168.182
161.484
154.566
147.466
140.226
132.905
125.587
118.326
111.153
104.079
97.085
90.168
83.338
76.601
69.962
63.429
57.007
50.712
44.576
38.615
32.84
27.25
21.831
16.579
11.504
6.619
1.948
-2.494
-6.697
-10.65
-14.34
-17.762
-20.911
-23.794
-26.425
-28.815
-30.97
-32.897
-34.6
-36.085
-37.363
-38.446
-39.346
-40.074
-40.643
-41.067
-41.361
-41.537
-41.609
-41.585
-41.475
-41.287
-41.03
-40.713
-40.345
-39.933
-39.487
-39.012
-38.518
-38.012
-37.499
-36.986
-36.476
-35.973
-35.482
-35.004
-34.543
-34.099
-33.674
-33.268
-32.884
-32.52
-32.178
-31.857
-31.557
-31.278
-31.019
-30.78
-30.56
-30.358
-30.174
-30.007
-29.856
-29.721
-29.6
-29.494
-29.402
-29.323
-29.258
-29.206
-29.165
-29.137
-29.12
-29.114
-29.12
-29.137
-29.167
-29.208
-29.263
-29.331
-29.413
-29.51
-29.622
-29.75
-29.893
-30.051
-30.224
-30.412
-30.613
-30.828
-31.054
-31.292
-31.539
-31.794
-32.058
-32.326
-32.599
-32.875
-33.151
-33.426
-33.698
-33.964
-34.224
-34.474
-34.712
-34.937
-35.146
-35.336
-35.505
-35.649
-35.768
-35.858
-35.916
-35.94
-35.929
-35.88
-35.794
-35.668
-35.504
-35.301
-35.062
-34.788
-34.48
-34.141
-33.773
-33.377
-32.958
-32.518
-32.057
-31.58
-31.088
-30.584
-30.073
-29.559
-29.044
-28.531
-28.025
-27.527
-27.045
-26.582
-26.139
-25.715
-25.314
-24.939
-24.596
-24.289
-24.014
-23.768
-23.548
-23.345
-23.156
-22.967
-22.755
-22.501
-22.182
-21.781
-21.292
-20.707
-20.014
-19.198
-18.244
-17.143
-15.909
-14.554
-13.083
-11.515
-9.877
-8.213
-6.599
-5.116
-3.837
-2.828
-2.149
-1.847
-1.971
-2.572
-3.705
-5.417
-7.729
-10.663
-14.215
-18.392
-23.22
-28.596
-34.293
-40
-45.274
-49.723
-53.099
-55.062
-55.215
-53.514
-50.108
-45.411
-40.38
-35.729
-31.855
-29.439
-29.028
-30.521
-33.593
-37.311
-39.755
-39.416
-35.016
-24.719
-7.157
18.181
51.372
91.309
135.495
181.401
225.933
264.789
293.769
309.013
307.008
285.529
243.686
181.378
99.986
2.809
-105.704
-220.242
-334.981
-444.259
-542.71
-625.509
-688.854
-730.501
-749.867
-747.584
-725.362
-685.877
-632.529
-569.262
-500.424
-430.039
-361.305
-297.147
-239.921
-191.21
-152.028
-122.346
-101.078
-86.847
-78.272
-73.581
-71.036
-68.988
-65.8
-60.713
-53.767
-45.228
-35.57
-25.489
-15.656
-6.88
-0.071
4.431
6.746
7.163
6.175
4.277
1.89
-0.462
-2.212
-3.027
-2.77
-1.432
0.862
4.006
7.925
12.501
17.592
23.07
28.813
34.72
40.717
46.72
52.629
58.351
63.79
68.868
73.545
77.81
81.67
85.149
88.279
91.097
93.649
95.993
98.183
100.271
102.302
104.315
106.354
108.462
110.683
113.055
115.599
118.328
121.243
124.341
127.617
131.059
134.651
138.371
142.2
146.12
150.113
154.163
158.252
162.356
166.453
170.52
174.535
178.476
182.323
186.052
189.642
193.073
196.323
199.375
202.206
204.798
207.129
209.179
210.931
212.367
213.472
214.23
214.63
214.661
214.316
213.588
212.474
210.972
209.081
206.804
204.145
201.11
197.707
193.944
189.835
185.391
180.627
175.56
170.207
164.586
158.719
152.627
146.33
139.854
133.22
126.455
119.582
112.627
105.615
98.571
91.521
84.49
77.501
70.579
63.745
57.022
50.43
43.989
37.716
31.629
25.742
20.069
14.624
9.417
4.457
-0.248
-4.69
-8.865
-12.769
-16.401
-19.758
-22.842
-25.654
-28.198
-30.478
-32.5
-34.269
-35.794
-37.084
-38.147
-38.995
-39.637
-40.086
-40.353
-40.45
-40.391
-40.187
-39.851
-39.396
-38.834
-38.176
-37.435
-36.621
-35.746
-34.82
-33.852
-32.852
-31.828
-30.789
-29.74
-28.691
-27.645
-26.609
-25.588
-24.585
-23.605
-22.65
-21.723
-20.825
-19.959
-19.126
-18.325
-17.558
-16.825
-16.124
-15.456
-14.82
-14.216
-13.642
-13.098
-12.583
-12.097
-11.638
-11.207
-10.804
-10.428
-10.079
-9.757
-9.463
-9.197
-8.959
-8.752
-8.575
-8.43
-8.318
-8.24
-8.199
-8.196
-8.232
-8.309
-8.429
-8.593
-8.803
-9.061
-9.367
-9.723
-10.13
-10.588
-11.099
-11.661
-12.276
-12.942
-13.658
-14.423
-15.235
-16.091
-16.989
-17.927
-18.899
-19.904
-20.937
-21.995
-23.072
-24.165
-25.269
-26.378
-27.488
-28.593
-29.687
-30.765
-31.82
-32.849
-33.843
-34.798
-35.709
-36.568
-37.371
-38.112
-38.786
-39.388
-39.913
-40.356
-40.715
-40.987
-41.168
-41.258
-41.256
-41.163
-40.979
-40.707
-40.348
-39.906
-39.382
-38.782
-38.108
-37.366
-36.558
-35.689
-34.766
-33.794
-32.781
-31.734
-30.658
-29.563
-28.454
-27.34
-26.232
-25.135
-24.055
-22.998
-21.97
-20.98
-20.037
-19.149
-18.316
-17.538
-16.815
-16.144
-15.52
-14.932
-14.361
-13.788
-13.194
-12.564
-11.893
-11.171
-10.386
-9.527
-8.576
-7.527
-6.385
-5.155
-3.846
-2.47
-1.046
0.383
1.752
2.994
4.032
4.803
5.257
5.341
5.016
4.232
2.927
1.059
-1.409
-4.503
-8.224
-12.593
-17.656
-23.346
-29.475
-35.756
-41.773
-47.155
-51.655
-54.957
-56.665
-56.56
-54.694
-51.444
-47.546
-43.704
-40.301
-37.729
-36.571
-37.127
-39.189
-42.016
-44.173
-44.058
-40.575
-32.577
-18.484
2.802
31.684
67.828
109.611
154.818
201.38
246.422
285.954
316.05
332.874
333.143
315.035
277.238
218.924
141.029
46.27
-61.404
-176.719
-294.192
-408.734
-514.549
-606.069
-679.022
-730.297
-758.726
-764.968
-750.082
-715.892
-665.878
-604.005
-534.574
-462.209
-390.174
-320.921
-257.296
-201.422
-154.39
-116.872
-88.292
-67.133
-52.475
-43.255
-37.653
-34.102
-31.035
-26.893
-21.24
-14.292
-6.092
3.017
12.38
21.454
29.43
35.444
39.31
41.196
41.391
40.381
38.615
36.468
34.434
33.016
32.477
32.892
34.189
36.179
38.716
41.681
44.94
48.347
51.774
55.119
58.293
61.252
63.97
66.418
68.582
70.456
72.033
73.354
74.51
75.592
76.696
77.906
79.289
80.91
82.833
85.108
87.77
90.828
94.262
98.041
102.117
106.449
111.003
115.725
120.54
125.381
130.186
134.905
139.505
143.955
148.221
152.282
156.128
159.763
163.206
166.485
169.636
172.686
175.653
178.555
181.409
184.225
187.007
189.751
192.436
195.047
197.568
199.98
202.262
204.388
206.326
208.041
209.498
210.664
211.517
212.035
212.202
212.006
211.44
210.501
209.194
207.525
205.496
203.114
200.384
197.315
193.919
190.208
186.197
181.901
177.336
172.516
167.461
162.185
156.709
151.048
145.222
139.248
133.148
126.942
120.652
114.301
107.91
101.5
95.094
88.713
82.375
76.101
69.908
63.813
57.832
51.979
46.27
40.716
35.33
30.123
25.104
20.281
15.663
11.256
7.066
3.096
-0.65
-4.17
-7.463
-10.529
-13.369
-15.986
-18.383
-20.565
-22.537
-24.304
-25.874
-27.255
-28.454
-29.48
-30.343
-31.051
-31.614
-32.041
-32.342
-32.527
-32.605
-32.584
-32.475
-32.286
-32.025
-31.701
-31.323
-30.897
-30.433
-29.936
-29.414
-28.873
-28.32
-27.759
-27.196
-26.635
-26.082
-25.538
-25.009
-24.496
-24.002
-23.529
-23.08
-22.654
-22.255
-21.882
-21.537
-21.219
-20.93
-20.67
-20.439
-20.237
-20.064
-19.921
-19.808
-19.724
-19.671
-19.647
-19.653
-19.688
-19.752
-19.845
-19.967
-20.117
-20.296
-20.503
-20.737
-21
-21.29
-21.608
-21.953
-22.326
-22.726
-23.153
-23.607
-24.087
-24.593
-25.124
-25.68
-26.26
-26.862
-27.485
-28.129
-28.79
-29.467
-30.158
-30.859
-31.569
-32.285
-33.003
-33.721
-34.436
-35.145
-35.845
-36.534
-37.207
-37.862
-38.496
-39.105
-39.684
-40.232
-40.744
-41.217
-41.648
-42.032
-42.367
-42.649
-42.876
-43.043
-43.148
-43.187
-43.159
-43.061
-42.892
-42.65
-42.337
-41.951
-41.496
-40.973
-40.385
-39.735
-39.026
-38.261
-37.445
-36.58
-35.672
-34.724
-33.74
-32.725
-31.687
-30.631
-29.565
-28.494
-27.426
-26.367
-25.325
-24.308
-23.321
-22.371
-21.463
-20.602
-19.796
-19.057
-18.39
-17.796
-17.273
-16.819
-16.429
-16.093
-15.802
-15.532
-15.265
-14.983
-14.667
-14.309
-13.898
-13.419
-12.859
-12.199
-11.432
-10.559
-9.587
-8.529
-7.399
-6.223
-5.041
-3.919
-2.922
-2.116
-1.573
-1.346
-1.497
-2.08
-3.132
-4.698
-6.819
-9.522
-12.828
-16.756
-21.281
-26.396
-32.111
-38.296
-44.738
-51.142
-57.058
-62.102
-66.013
-68.427
-68.929
-67.442
-64.088
-59.277
-53.933
-48.727
-44.022
-40.466
-38.64
-38.554
-39.956
-41.951
-42.701
-40.842
-35.327
-24.51
-7.074
17.64
49.969
88.942
132.271
177.895
223.269
264.561
297.924
319.399
325.047
312.466
280.299
227.41
154.185
62.874
-43.18
-159.017
-278.839
-397.348
-508.859
-607.505
-688.552
-748.359
-784.683
-797.379
-787.316
-756.015
-706.579
-643.032
-569.767
-491.706
-413.208
-337.636
-268.297
-207.877
-157.861
-119.014
-90.943
-72.08
-60.805
-55.465
-53.85
-53.948
-54.002
-52.382
-48.469
-42.454
-34.634
-25.559
-16.071
-6.904
1.107
7.084
10.801
12.446
12.341
11.012
8.977
6.668
4.607
3.332
3.1
3.983
5.936
8.787
12.406
16.694
21.509
26.691
32.104
37.628
43.168
48.655
54.005
59.122
63.916
68.302
72.233
75.699
78.711
81.304
83.514
85.386
86.976
88.347
89.562
90.681
91.755
92.83
93.955
95.178
96.547
98.109
99.895
101.921
104.195
106.717
109.483
112.486
115.711
119.137
122.747
126.521
130.443
134.496
138.661
142.914
147.231
151.586
155.954
160.311
164.631
168.889
173.059
177.117
181.038
184.8
188.379
191.75
194.888
197.772
200.377
202.685
204.676
206.331
207.636
208.577
209.143
209.326
209.119
208.517
207.518
206.123
204.334
202.155
199.592
196.656
193.356
189.705
185.718
181.412
176.804
171.914
166.762
161.371
155.763
149.962
143.993
137.879
131.646
125.319
118.923
112.483
106.023
99.567
93.138
86.758
80.449
74.23
68.12
62.138
56.3
50.619
45.111
39.787
34.658
29.734
25.021
20.527
16.256
12.211
8.396
4.809
1.452
-1.679
-4.586
-7.273
-9.745
-12.008
-14.07
-15.938
-17.62
-19.125
-20.462
-21.641
-22.671
-23.562
-24.325
-24.969
-25.504
-25.94
-26.285
-26.55
-26.744
-26.874
-26.949
-26.976
-26.963
-26.918
-26.845
-26.752
-26.643
-26.524
-26.399
-26.271
-26.146
-26.024
-25.909
-25.802
-25.706
-25.621
-25.548
-25.487
-25.439
-25.403
-25.379
-25.366
-25.365
-25.373
-25.392
-25.419
-25.455
-25.499
-25.55
-25.608
-25.672
-25.742
-25.819
-25.901
-25.99
-26.084
-26.183
-26.289
-26.399
-26.516
-26.638
-26.766
-26.9
-27.041
-27.189
-27.345
-27.51
-27.684
-27.868
-28.064
-28.272
-28.494
-28.73
-28.982
-29.251
-29.537
-29.841
-30.165
-30.509
-30.872
-31.255
-31.658
-32.079
-32.519
-32.975
-33.447
-33.933
-34.431
-34.941
-35.459
-35.985
-36.516
-37.05
-37.586
-38.12
-38.651
-39.175
-39.689
-40.19
-40.675
-41.14
-41.581
-41.995
-42.378
-42.724
-43.031
-43.293
-43.505
-43.663
-43.763
-43.801
-43.772
-43.673
-43.503
-43.259
-42.939
-42.543
-42.072
-41.527
-40.908
-40.217
-39.455
-38.625
-37.727
-36.765
-35.741
-34.657
-33.519
-32.331
-31.1
-29.831
-28.531
-27.206
-25.863
-24.509
-23.152
-21.797
-20.451
-19.122
-17.817
-16.546
-15.321
-14.15
-13.035
-11.979
-10.977
-10.025
-9.117
-8.241
-7.38
-6.524
-5.658
-4.774
-3.868
-2.931
-1.955
-0.932
0.156
1.314
2.54
3.83
5.166
6.524
7.882
9.2
10.422
11.499
12.383
13.023
13.38
13.413
13.073
12.33
11.152
9.509
7.38
4.74
1.577
-2.105
-6.274
-10.907
-15.993
-21.423
-27.006
-32.458
-37.369
-41.374
-44.239
-45.646
-45.209
-42.9
-38.9
-33.674
-28.237
-23.358
-19.459
-17.244
-17.309
-19.574
-23.681
-28.618
-32.337
-33.29
-30.233
-21.327
-5.234
18.613
50.4
88.998
131.991
177.149
221.64
261.385
292.485
311.047
313.413
297.418
261.682
205.283
129.027
35.549
-71.331
-186.373
-303.954
-418.817
-524.994
-616.706
-689.475
-740.042
-767.146
-771.303
-753.496
-715.57
-661.103
-594.44
-520.359
-443.774
-368.214
-296.585
-232.082
-177.156
-133.157
-100.352
-77.589
-63.069
-55.482
-53.231
-54.122
-56.033
-56.901
-55.495
-51.765
-46.038
-38.628
-30.086
-21.159
-12.764
-6.002
-1.394
1.17
1.996
1.574
0.396
-1.102
-2.351
-2.742
-1.955
0.092
3.333
7.571
12.649
18.446
24.786
31.472
38.327
45.206
52.013
58.65
65
70.917
76.24
80.862
84.742
87.87
90.276
92.011
93.129
93.721
93.905
93.786
93.467
93.036
92.555
92.11
91.803
91.745
92.07
92.874
94.205
96.096
98.56
101.58
105.135
109.165
113.574
118.286
123.239
128.381
133.685
139.103
144.569
150.016
155.362
160.54
165.506
170.217
174.635
178.741
182.524
186
189.211
192.182
194.921
197.428
199.687
201.693
203.445
204.941
206.18
207.158
207.867
208.306
208.473
208.361
207.958
207.242
206.18
204.751
202.945
200.756
198.187
195.243
191.928
188.254
184.239
179.899
175.252
170.314
165.102
159.634
153.933
148.024
141.936
135.695
129.326
122.855
116.308
109.709
103.083
96.45
89.832
83.25
76.724
70.276
63.926
57.696
51.603
45.665
39.9
34.322
28.946
23.784
18.846
14.141
9.675
5.456
1.486
-2.231
-5.693
-8.902
-11.857
-14.561
-17.018
-19.233
-21.21
-22.956
-24.479
-25.787
-26.889
-27.793
-28.511
-29.053
-29.429
-29.652
-29.732
-29.681
-29.512
-29.237
-28.868
-28.417
-27.896
-27.316
-26.689
-26.023
-25.33
-24.617
-23.893
-23.166
-22.442
-21.726
-21.025
-20.342
-19.682
-19.048
-18.443
-17.868
-17.326
-16.818
-16.344
-15.905
-15.501
-15.132
-14.796
-14.494
-14.223
-13.982
-13.77
-13.583
-13.422
-13.282
-13.162
-13.06
-12.973
-12.901
-12.841
-12.791
-12.751
-12.72
-12.698
-12.684
-12.679
-12.684
-12.7
-12.728
-12.77
-12.828
-12.903
-12.998
-13.115
-13.256
-13.422
-13.616
-13.84
-14.096
-14.386
-14.711
-15.074
-15.476
-15.917
-16.401
-16.926
-17.495
-18.108
-18.765
-19.467
-20.212
-21
-21.83
-22.701
-23.611
-24.557
-25.535
-26.543
-27.576
-28.629
-29.699
-30.778
-31.862
-32.945
-34.022
-35.087
-36.133
-37.156
-38.15
-39.108
-40.026
-40.898
-41.719
-42.482
-43.184
-43.819
-44.383
-44.872
-45.282
-45.609
-45.85
-46.002
-46.062
-46.029
-45.9
-45.675
-45.354
-44.937
-44.425
-43.822
-43.131
-42.355
-41.501
-40.575
-39.582
-38.531
-37.428
-36.281
-35.097
-33.885
-32.65
-31.4
-30.142
-28.882
-27.63
-26.393
-25.177
-23.992
-22.844
-21.743
-20.695
-19.705
-18.774
-17.905
-17.1
-16.363
-15.699
-15.114
-14.607
-14.178
-13.826
-13.546
-13.33
-13.16
-13.007
-12.846
-12.653
-12.411
-12.111
-11.745
-11.299
-10.765
-10.127
-9.377
-8.517
-7.545
-6.459
-5.277
-4.025
-2.759
-1.575
-0.558
0.215
0.675
0.784
0.49
-0.277
-1.57
-3.447
-5.963
-9.128
-12.997
-17.67
-23.102
-29.137
-35.496
-41.71
-47.376
-52.253
-55.964
-58.072
-58.458
-57.252
-54.938
-52.416
-50.316
-48.881
-48.544
-49.88
-52.915
-57.213
-61.676
-64.474
-64.212
-60.084
-50.9
-35.123
-11.918
18.909
56.513
98.716
143.568
189.276
232.859
270.325
297.77
311.342
308.15
286.766
245.578
183.582
101.856
3.203
-108.163
-226.751
-347.195
-464.411
-572.213
-664.77
-737.709
-787.91
-814.412
-817.889
-799.253
-760.359
-704.916
-637.306
-562.257
-484.569
-407.615
-334.251
-267.739
-210.56
-164.028
-128.386
-102.53
-84.756
-73.861
-68.31
-65.88
-64.43
-61.935
-57.236
-50.358
-41.684
-31.542
-20.495
-9.335
0.98
9.312
15.098
18.463
19.743
19.438
18.06
16.036
13.912
12.316
11.626
11.984
13.376
15.614
18.522
21.983
25.845
29.942
34.139
38.296
42.3
46.075
49.551
52.663
55.363
57.607
59.372
60.673
61.58
62.202
62.67
63.1
63.585
64.214
65.073
66.254
67.838
69.883
72.417
75.457
79.014
83.09
87.671
92.712
98.118
103.789
109.622
115.527
121.441
127.304
133.053
138.637
144.012
149.153
154.051
158.695
163.069
167.167
170.992
174.565
177.933
181.133
184.194
187.136
189.961
192.671
195.267
197.741
200.071
202.237
204.211
205.971
207.506
208.795
209.817
210.545
210.944
210.989
210.664
209.956
208.858
207.367
205.482
203.21
200.565
197.56
194.21
190.529
186.528
182.222
177.63
172.771
167.666
162.335
156.799
151.078
145.196
139.173
133.032
126.794
120.479
114.106
107.699
101.278
94.866
88.483
82.151
75.89
69.718
63.656
57.72
51.927
46.291
40.826
35.545
30.46
25.581
20.918
16.479
12.272
8.301
4.572
1.09
-2.145
-5.129
-7.864
-10.348
-12.584
-14.575
-16.324
-17.836
-19.117
-20.173
-21.012
-21.641
-22.07
-22.307
-22.363
-22.248
-21.972
-21.546
-20.983
-20.293
-19.488
-18.581
-17.581
-16.502
-15.355
-14.151
-12.901
-11.617
-10.308
-8.985
-7.657
-6.335
-5.026
-3.74
-2.484
-1.265
-0.091
1.034
2.103
3.111
4.055
4.932
5.737
6.469
7.125
7.705
8.208
8.634
8.982
9.254
9.451
9.574
9.627
9.612
9.532
9.39
9.19
8.936
8.631
8.281
7.889
7.459
6.995
6.503
5.987
5.449
4.896
4.329
3.753
3.171
2.586
2.001
1.418
0.839
0.267
-0.298
-0.854
-1.399
-1.933
-2.456
-2.967
-3.466
-3.954
-4.432
-4.901
-5.361
-5.815
-6.263
-6.707
-7.148
-7.588
-8.028
-8.469
-8.913
-9.361
-9.813
-10.271
-10.736
-11.207
-11.686
-12.171
-12.663
-13.16
-13.662
-14.166
-14.671
-15.174
-15.674
-16.168
-16.652
-17.124
-17.58
-18.016
-18.428
-18.812
-19.163
-19.476
-19.748
-19.974
-20.151
-20.276
-20.345
-20.358
-20.312
-20.208
-20.043
-19.819
-19.534
-19.19
-18.787
-18.327
-17.811
-17.242
-16.623
-15.959
-15.256
-14.518
-13.752
-12.963
-12.157
-11.341
-10.521
-9.705
-8.897
-8.103
-7.329
-6.585
-5.88
-5.222
-4.611
-4.048
-3.53
-3.051
-2.607
-2.189
-1.78
-1.367
-0.936
-0.478
0.012
0.539
1.112
1.74
2.44
3.218
4.069
4.987
5.958
6.963
7.982
8.981
9.902
10.695
11.309
11.688
11.795
11.587
11.026
10.089
8.735
6.927
4.638
1.839
-1.487
-5.319
-9.66
-14.538
-19.863
-25.468
-31.091
-36.305
-40.74
-44.135
-46.172
-46.475
-44.893
-41.522
-36.78
-31.603
-26.875
-23.184
-21.178
-21.476
-24.288
-29.384
-35.898
-41.987
-45.676
-45.341
-39.195
-25.619
-3.575
27.398
66.739
112.446
161.814
211.786
258.489
297.716
325.292
337.178
330.15
302.222
252.484
181.31
90.706
-15.939
-133.936
-257.653
-381.069
-497.972
-602.398
-689.282
-754.681
-796.133
-812.962
-805.676
-776.006
-727.142
-663.128
-588.532
-508.36
-427.165
-348.682
-276.504
-213.459
-161.226
-120.704
-91.543
-72.216
-60.999
-56.071
-55.078
-55.818
-56.345
-54.89
-50.763
-44.136
-35.386
-25.157
-14.371
-3.868
5.412
12.526
17.191
19.578
20.047
19.156
17.442
15.361
13.441
12.213
11.965
12.79
14.646
17.368
20.813
24.867
29.395
34.231
39.219
44.207
49.043
53.619
57.85
61.647
64.943
67.683
69.82
71.361
72.363
72.893
73.027
72.841
72.393
71.772
71.09
70.468
70.044
69.925
70.178
70.865
72.035
73.717
75.932
78.656
81.821
85.371
89.254
93.43
97.873
102.538
107.357
112.262
117.174
122.032
126.796
131.422
135.872
140.122
144.159
147.993
151.663
155.19
158.579
161.828
164.92
167.846
170.606
173.195
175.606
177.831
179.855
181.67
183.268
184.636
185.751
186.586
187.101
187.268
187.07
186.495
185.539
184.199
182.473
180.368
177.894
175.062
171.883
168.37
164.532
160.384
155.944
151.233
146.276
141.095
135.715
130.157
124.445
118.602
112.65
106.611
100.504
94.348
88.167
81.979
75.808
69.673
63.595
57.592
51.684
45.887
40.216
34.687
29.311
24.1
19.064
14.211
9.55
5.085
0.823
-3.233
-7.08
-10.715
-14.139
-17.352
-20.354
-23.148
-25.736
-28.121
-30.309
-32.304
-34.11
-35.734
-37.182
-38.459
-39.573
-40.53
-41.339
-42.006
-42.539
-42.947
-43.236
-43.414
-43.49
-43.47
-43.361
-43.171
-42.904
-42.568
-42.169
-41.711
-41.201
-40.644
-40.044
-39.406
-38.735
-38.035
-37.311
-36.565
-35.802
-35.026
-34.24
-33.448
-32.652
-31.857
-31.064
-30.278
-29.501
-28.736
-27.985
-27.251
-26.537
-25.845
-25.177
-24.535
-23.922
-23.339
-22.788
-22.272
-21.791
-21.348
-20.944
-20.58
-20.258
-19.978
-19.742
-19.551
-19.404
-19.303
-19.248
-19.237
-19.272
-19.352
-19.476
-19.644
-19.853
-20.104
-20.396
-20.726
-21.093
-21.496
-21.933
-22.403
-22.903
-23.432
-23.988
-24.569
-25.173
-25.799
-26.445
-27.108
-27.788
-28.482
-29.188
-29.903
-30.626
-31.355
-32.086
-32.818
-33.548
-34.275
-34.994
-35.706
-36.406
-37.093
-37.764
-38.418
-39.051
-39.662
-40.247
-40.804
-41.33
-41.822
-42.278
-42.694
-43.067
-43.393
-43.671
-43.894
-44.061
-44.167
-44.208
-44.182
-44.085
-43.913
-43.666
-43.34
-42.935
-42.451
-41.888
-41.247
-40.529
-39.735
-38.867
-37.929
-36.922
-35.85
-34.715
-33.521
-32.273
-30.976
-29.637
-28.261
-26.857
-25.43
-23.988
-22.539
-21.091
-19.652
-18.229
-16.831
-15.464
-14.138
-12.866
-11.656
-10.512
-9.435
-8.425
-7.477
-6.588
-5.749
-4.945
-4.16
-3.381
-2.595
-1.798
-0.981
-0.136
0.746
1.684
2.685
3.742
4.849
5.991
7.143
8.288
9.387
10.378
11.205
11.811
12.13
12.125
11.752
10.96
9.72
7.988
5.718
2.894
-0.51
-4.504
-9.063
-14.189
-19.897
-26.081
-32.558
-39.056
-45.167
-50.542
-54.915
-57.948
-59.248
-58.595
-56.073
-52.103
-47.458
-42.923
-39.006
-36.213
-35.256
-36.548
-39.861
-44.392
-48.633
-50.807
-49.635
-43.803
-31.491
-11.384
16.949
53.162
95.623
141.903
189.691
235.903
276.127
306.092
322.046
320.43
298.83
256.091
191.38
106.646
7.474
-102.062
-218.439
-338.925
-463.988
-587.061
-695.847
-779.168
-824.752
-831.255
-808.231
-764.516
-710.717
-652.006
-586.291
-514.551
-438.599
-361.358
-288.988
-225.372
-172.131
-130.377
-99.489
-77.983
-64.585
-57.732
-55.23
-55.071
-55.389
-54.323
-51.014
-45.469
-37.883
-28.757
-18.924
-9.141
-0.313
6.538
11.059
13.363
13.727
12.673
10.733
8.354
6.107
4.604
4.152
4.86
6.705
9.515
13.166
17.564
22.559
27.984
33.694
39.564
45.501
51.436
57.281
62.933
68.293
73.266
77.801
81.882
85.513
88.723
91.544
94.017
96.198
98.147
99.927
101.595
103.201
104.791
106.414
108.12
109.956
111.971
114.194
116.643
119.324
122.236
125.374
128.729
132.284
136.018
139.91
143.942
148.095
152.353
156.695
161.098
165.536
169.986
174.422
178.822
183.161
187.415
191.56
195.575
199.435
203.122
206.611
209.881
212.91
215.676
218.157
220.336
222.195
223.717
224.887
225.694
226.128
226.18
225.846
225.122
224.006
222.498
220.601
218.32
215.661
212.633
209.245
205.509
201.439
197.05
192.358
187.381
182.138
176.649
170.934
165.016
158.917
152.66
146.268
139.764
133.174
126.52
119.825
113.114
106.41
99.734
93.108
86.554
80.091
73.738
67.513
61.433
55.512
49.766
44.207
38.848
33.697
28.766
24.061
19.59
15.358
11.37
7.628
4.134
0.889
-2.107
-4.855
-7.36
-9.623
-11.649
-13.444
-15.014
-16.366
-17.507
-18.446
-19.192
-19.755
-20.144
-20.369
-20.442
-20.372
-20.172
-19.852
-19.424
-18.897
-18.283
-17.593
-16.837
-16.025
-15.167
-14.273
-13.352
-12.412
-11.463
-10.512
-9.567
-8.635
-7.723
-6.836
-5.98
-5.161
-4.383
-3.651
-2.967
-2.335
-1.758
-1.237
-0.775
-0.373
-0.031
0.251
0.472
0.634
0.737
0.782
0.772
0.707
0.589
0.422
0.207
-0.053
-0.356
-0.699
-1.078
-1.492
-1.937
-2.411
-2.911
-3.434
-3.978
-4.539
-5.117
-5.707
-6.308
-6.918
-7.535
-8.157
-8.781
-9.406
-10.03
-10.652
-11.27
-11.882
-12.487
-13.084
-13.67
-14.246
-14.81
-15.36
-15.895
-16.416
-16.92
-17.407
-17.876
-18.325
-18.754
-19.162
-19.547
-19.908
-20.243
-20.552
-20.832
-21.083
-21.301
-21.486
-21.635
-21.747
-21.82
-21.851
-21.839
-21.783
-21.681
-21.534
-21.341
-21.101
-20.816
-20.488
-20.119
-19.708
-19.26
-18.775
-18.256
-17.705
-17.126
-16.52
-15.891
-15.242
-14.577
-13.903
-13.222
-12.541
-11.864
-11.196
-10.541
-9.904
-9.292
-8.708
-8.155
-7.636
-7.159
-6.73
-6.353
-6.029
-5.751
-5.515
-5.314
-5.14
-4.981
-4.821
-4.642
-4.429
-4.17
-3.858
-3.486
-3.046
-2.524
-1.902
-1.174
-0.34
0.588
1.597
2.675
3.802
4.945
6.049
7.062
7.929
8.601
9.045
9.218
9.085
8.611
7.757
6.483
4.761
2.573
-0.099
-3.243
-6.871
-11.007
-15.546
-20.301
-25.002
-29.261
-32.755
-35.282
-36.535
-36.134
-34.03
-30.368
-25.575
-20.575
-16.027
-12.248
-9.833
-9.334
-10.736
-13.781
-17.564
-20.226
-20.397
-17.047
-8.57
6.318
28.283
57.688
93.62
133.869
176.454
218.931
257.62
288.829
308.724
313.493
300.821
269.406
218.193
147.611
59.884
-41.706
-152.307
-266.277
-378.522
-483.683
-576.298
-652.05
-707.688
-741.284
-752.926
-743.666
-715.01
-669.762
-611.485
-544.009
-471.664
-398.316
-326.868
-260.193
-200.797
-150.295
-109.799
-79.392
-57.989
-44.363
-37.24
-34.767
-35.104
-36.444
-36.913
-35.569
-32.312
-27.217
-20.658
-13.32
-5.859
0.86
5.852
8.76
9.669
8.842
6.79
4.019
0.973
-1.786
-3.697
-4.484
-4.059
-2.474
0.095
3.517
7.68
12.43
17.601
23.045
28.645
34.303
39.936
45.445
50.717
55.644
60.155
64.218
67.826
71
73.776
76.187
78.288
80.137
81.792
83.309
84.739
86.125
87.519
88.97
90.528
92.244
94.152
96.272
98.613
101.176
103.953
106.934
110.105
113.441
116.923
120.533
124.251
128.061
131.944
135.877
139.837
143.798
147.736
151.629
155.452
159.184
162.8
166.28
169.6
172.741
175.682
178.401
180.876
183.086
185.011
186.633
187.933
188.897
189.51
189.76
189.639
189.138
188.253
186.981
185.32
183.272
180.839
178.027
174.843
171.296
167.396
163.158
158.594
153.721
148.557
143.12
137.43
131.51
125.38
119.065
112.588
105.973
99.245
92.429
85.55
78.632
71.7
64.779
57.891
51.061
44.309
37.657
31.125
24.731
18.492
12.424
6.542
0.859
-4.614
-9.867
-14.891
-19.678
-24.223
-28.522
-32.572
-36.372
-39.921
-43.22
-46.271
-49.079
-51.648
-53.983
-56.09
-57.978
-59.653
-61.126
-62.404
-63.499
-64.42
-65.178
-65.783
-66.247
-66.579
-66.792
-66.896
-66.9
-66.815
-66.651
-66.416
-66.12
-65.771
-65.375
-64.941
-64.475
-63.981
-63.466
-62.934
-62.39
-61.835
-61.275
-60.709
-60.142
-59.574
-59.007
-58.441
-57.876
-57.313
-56.752
-56.192
-55.633
-55.075
-54.516
-53.956
-53.395
-52.832
-52.266
-51.697
-51.125
-50.549
-49.97
-49.388
-48.804
-48.218
-47.631
-47.046
-46.464
-45.886
-45.316
-44.755
-44.206
-43.671
-43.154
-42.656
-42.181
-41.732
-41.311
-40.919
-40.561
-40.238
-39.951
-39.702
-39.493
-39.323
-39.194
-39.105
-39.055
-39.044
-39.071
-39.133
-39.229
-39.357
-39.513
-39.695
-39.899
-40.121
-40.356
-40.6
-40.847
-41.092
-41.329
-41.553
-41.758
-41.938
-42.086
-42.199
-42.269
-42.291
-42.262
-42.175
-42.026
-41.812
-41.53
-41.178
-40.754
-40.257
-39.687
-39.046
-38.336
-37.56
-36.722
-35.825
-34.874
-33.874
-32.832
-31.754
-30.644
-29.509
-28.354
-27.188
-26.019
-24.853
-23.698
-22.564
-21.458
-20.388
-19.36
-18.38
-17.449
-16.569
-15.742
-14.972
-14.266
-13.627
-13.055
-12.553
-12.117
-11.745
-11.428
-11.151
-10.891
-10.629
-10.348
-10.038
-9.694
-9.309
-8.876
-8.383
-7.816
-7.17
-6.437
-5.614
-4.697
-3.697
-2.637
-1.573
-0.575
0.294
0.982
1.458
1.689
1.624
1.21
0.39
-0.885
-2.64
-4.924
-7.833
-11.386
-15.492
-19.94
-24.353
-28.357
-31.701
-34.091
-35.16
-34.717
-32.847
-29.959
-26.842
-24.286
-22.743
-22.624
-24.493
-28.575
-34.535
-41.485
-47.811
-51.708
-51.898
-47.099
-35.632
-16.348
11.15
46.484
87.932
133.137
179.915
225.326
265.353
296.063
313.637
314.831
297.91
261.698
205.477
130.232
38.68
-65.259
-176.369
-289.244
-398.932
-499.869
-586.743
-655.514
-703.286
-729.074
-733.691
-718.334
-684.87
-636.66
-577.464
-511.331
-442.594
-374.27
-308.563
-248.038
-194.645
-149.455
-113.235
-85.6
-65.245
-51.394
-43.146
-38.871
-37.113
-36.342
-34.914
-32.227
-28.34
-23.175
-16.962
-10.26
-3.538
2.447
6.822
9.372
10.246
9.673
8.112
6.005
3.714
1.75
0.619
0.549
1.601
3.712
6.701
10.438
14.815
19.677
24.857
30.209
35.608
40.964
46.203
51.238
55.975
60.325
64.231
67.674
70.663
73.226
75.405
77.241
78.79
80.114
81.275
82.331
83.337
84.339
85.384
86.524
87.803
89.269
90.954
92.875
95.041
97.453
100.106
102.991
106.096
109.399
112.884
116.532
120.326
124.251
128.287
132.412
136.601
140.831
145.076
149.313
153.517
157.664
161.729
165.689
169.52
173.2
176.706
180.014
183.103
185.949
188.533
190.834
192.836
194.52
195.874
196.883
197.539
197.834
197.76
197.313
196.492
195.297
193.729
191.791
189.491
186.835
183.834
180.498
176.841
172.878
168.624
164.099
159.32
154.308
149.084
143.67
138.089
132.362
126.513
120.564
114.54
108.463
102.355
96.239
90.134
84.064
78.046
72.101
66.246
60.498
54.872
49.384
44.047
38.874
33.875
29.061
24.44
20.021
15.81
11.812
8.032
4.471
1.132
-1.985
-4.879
-7.553
-10.008
-12.248
-14.277
-16.1
-17.722
-19.149
-20.388
-21.444
-22.327
-23.044
-23.602
-24.01
-24.276
-24.408
-24.416
-24.308
-24.092
-23.777
-23.372
-22.884
-22.323
-21.697
-21.014
-20.281
-19.507
-18.698
-17.863
-17.008
-16.14
-15.264
-14.389
-13.518
-12.658
-11.814
-10.991
-10.193
-9.426
-8.692
-7.995
-7.34
-6.729
-6.165
-5.65
-5.188
-4.78
-4.427
-4.132
-3.896
-3.719
-3.603
-3.547
-3.552
-3.618
-3.743
-3.928
-4.171
-4.471
-4.827
-5.238
-5.7
-6.213
-6.774
-7.38
-8.028
-8.717
-9.442
-10.201
-10.99
-11.806
-12.646
-13.506
-14.383
-15.272
-16.17
-17.074
-17.978
-18.879
-19.773
-20.655
-21.521
-22.366
-23.187
-23.981
-24.742
-25.468
-26.154
-26.797
-27.393
-27.94
-28.432
-28.867
-29.243
-29.555
-29.802
-29.982
-30.092
-30.13
-30.094
-29.984
-29.798
-29.535
-29.193
-28.773
-28.276
-27.7
-27.049
-26.323
-25.524
-24.656
-23.724
-22.731
-21.684
-20.586
-19.444
-18.263
-17.05
-15.81
-14.548
-13.27
-11.981
-10.688
-9.396
-8.113
-6.846
-5.602
-4.388
-3.21
-2.076
-0.988
0.053
1.046
1.987
2.875
3.702
4.463
5.156
5.778
6.329
6.815
7.241
7.626
7.994
8.367
8.764
9.2
9.681
10.214
10.811
11.478
12.229
13.075
14.016
15.059
16.206
17.441
18.733
20.022
21.22
22.251
23.051
23.565
23.742
23.519
22.824
21.595
19.781
17.348
14.246
10.378
5.717
0.36
-5.476
-11.419
-17.094
-22.246
-26.596
-29.752
-31.481
-31.8
-31.027
-29.876
-29.012
-28.73
-29.267
-30.994
-34.071
-38.255
-42.799
-46.256
-47.097
-44.338
-37.116
-24.322
-5.008
21.303
54.455
93.224
135.721
180.195
224.515
265.649
300.138
324.354
334.772
328.753
304.534
260.72
197.021
114.766
16.649
-93.154
-209.414
-326.638
-439.171
-541.232
-627.732
-694.601
-739.086
-760.322
-758.766
-735.923
-694.504
-638.11
-570.908
-497.557
-422.45
-349.068
-280.606
-219.672
-167.993
-126.67
-95.668
-73.782
-59.503
-51.336
-47.367
-45.715
-44.589
-42.192
-37.681
-31.099
-22.728
-13.056
-2.802
7.352
16.55
23.792
28.682
31.309
31.947
31.1
29.262
26.834
24.331
22.323
21.144
20.944
21.726
23.32
25.568
28.352
31.533
34.968
38.546
42.164
45.748
49.262
52.678
55.964
59.082
61.984
64.618
66.964
69.043
70.922
72.701
74.469
76.29
78.222
80.318
82.622
85.167
87.948
90.927
94.075
97.378
100.837
104.469
108.27
112.213
116.251
120.323
124.378
128.383
132.303
136.105
139.768
143.282
146.666
149.965
153.208
156.407
159.561
162.657
165.685
168.646
171.536
174.352
177.087
179.728
182.266
184.695
187.002
189.162
191.144
192.901
194.4
195.614
196.524
197.115
197.376
197.294
196.864
196.088
194.966
193.499
191.688
189.532
187.035
184.204
181.052
177.593
173.84
169.807
165.51
160.963
156.183
151.187
145.989
140.605
135.051
129.345
123.507
117.558
111.517
105.405
99.243
93.052
86.853
80.666
74.51
68.404
62.365
56.412
50.559
44.823
39.219
33.759
28.456
23.323
18.369
13.606
9.04
4.68
0.533
-3.398
-7.106
-10.59
-13.848
-16.879
-19.682
-22.26
-24.614
-26.747
-28.664
-30.37
-31.872
-33.175
-34.288
-35.22
-35.98
-36.577
-37.022
-37.324
-37.494
-37.542
-37.48
-37.318
-37.066
-36.736
-36.337
-35.88
-35.376
-34.833
-34.262
-33.67
-33.067
-32.461
-31.858
-31.265
-30.689
-30.134
-29.605
-29.107
-28.643
-28.216
-27.827
-27.479
-27.173
-26.908
-26.685
-26.504
-26.362
-26.259
-26.192
-26.161
-26.161
-26.192
-26.25
-26.332
-26.437
-26.561
-26.702
-26.857
-27.024
-27.201
-27.385
-27.575
-27.768
-27.965
-28.163
-28.362
-28.562
-28.763
-28.966
-29.17
-29.377
-29.589
-29.806
-30.03
-30.263
-30.507
-30.763
-31.034
-31.322
-31.628
-31.954
-32.302
-32.673
-33.068
-33.488
-33.933
-34.402
-34.897
-35.415
-35.955
-36.515
-37.093
-37.687
-38.294
-38.911
-39.534
-40.158
-40.78
-41.395
-41.997
-42.582
-43.142
-43.674
-44.17
-44.624
-45.032
-45.387
-45.683
-45.916
-46.079
-46.169
-46.181
-46.112
-45.958
-45.716
-45.386
-44.967
-44.459
-43.863
-43.181
-42.417
-41.575
-40.66
-39.678
-38.634
-37.537
-36.393
-35.21
-33.995
-32.756
-31.501
-30.238
-28.979
-27.73
-26.502
-25.304
-24.146
-23.037
-21.987
-21.001
-20.082
-19.235
-18.462
-17.768
-17.159
-16.639
-16.206
-15.86
-15.6
-15.423
-15.323
-15.285
-15.284
-15.297
-15.307
-15.3
-15.27
-15.206
-15.092
-14.916
-14.665
-14.33
-13.916
-13.415
-12.818
-12.131
-11.372
-10.582
-9.841
-9.206
-8.728
-8.456
-8.41
-8.636
-9.199
-10.148
-11.537
-13.412
-15.774
-18.678
-22.235
-26.411
-31.074
-35.982
-40.688
-44.84
-48.253
-50.604
-51.526
-50.967
-49.045
-46.202
-43.385
-41.25
-40.083
-40.368
-42.498
-46.309
-51.384
-56.676
-60.277
-60.758
-57.148
-48.088
-32.459
-9.882
19.718
55.377
94.822
136.132
177.31
215.272
246.762
268.677
277.711
271.504
248.901
208.466
149.569
73.363
-17.976
-121.025
-231.074
-343.345
-452.995
-554.195
-641.537
-710.698
-758.336
-782.996
-784.708
-764.305
-723.843
-666.943
-597.998
-521.963
-443.776
-367.305
-296.015
-232.943
-180.175
-138.865
-108.923
-88.957
-77.126
-71.732
-70.701
-71.959
-73.578
-73.68
-71.354
-66.653
-59.911
-51.649
-42.625
-33.55
-25.278
-18.818
-14.556
-12.385
-12.019
-12.947
-14.664
-16.764
-18.724
-19.967
-20.196
-19.313
-17.346
-14.474
-10.829
-6.508
-1.658
3.56
9.007
14.565
20.142
25.68
31.098
36.307
41.22
45.752
49.859
53.53
56.771
59.613
62.092
64.25
66.139
67.819
69.349
70.785
72.176
73.564
74.994
76.514
78.167
79.999
82.04
84.305
86.802
89.531
92.487
95.663
99.045
102.613
106.35
110.236
114.256
118.394
122.631
126.946
131.315
135.713
140.118
144.506
148.854
153.138
157.335
161.421
165.374
169.174
172.799
176.225
179.432
182.397
185.099
187.52
189.642
191.449
192.925
194.058
194.839
195.258
195.311
194.992
194.3
193.235
191.799
189.995
187.83
185.313
182.452
179.26
175.75
171.937
167.838
163.472
158.857
154.013
148.963
143.727
138.329
132.792
127.139
121.394
115.58
109.721
103.841
97.962
92.106
86.296
80.551
74.891
69.335
63.901
58.604
53.46
48.482
43.683
39.074
34.664
30.462
26.475
22.708
19.165
15.849
12.761
9.902
7.269
4.861
2.674
0.703
-1.056
-2.61
-3.966
-5.132
-6.116
-6.928
-7.576
-8.071
-8.422
-8.641
-8.736
-8.719
-8.6
-8.388
-8.094
-7.727
-7.298
-6.814
-6.286
-5.721
-5.127
-4.512
-3.883
-3.246
-2.607
-1.971
-1.342
-0.726
-0.125
0.458
1.02
1.559
2.073
2.562
3.024
3.459
3.868
4.25
4.607
4.938
5.245
5.53
5.792
6.034
6.256
6.46
6.647
6.819
6.975
7.118
7.25
7.37
7.48
7.581
7.674
7.759
7.837
7.907
7.97
8.025
8.073
8.112
8.142
8.162
8.171
8.168
8.151
8.118
8.069
7.999
7.909
7.794
7.655
7.487
7.291
7.064
6.806
6.514
6.189
5.83
5.437
5.008
4.544
4.046
3.512
2.945
2.345
1.713
1.051
0.36
-0.357
-1.097
-1.86
-2.641
-3.438
-4.248
-5.066
-5.888
-6.711
-7.528
-8.335
-9.126
-9.895
-10.636
-11.342
-12.01
-12.633
-13.206
-13.726
-14.189
-14.593
-14.935
-15.214
-15.429
-15.577
-15.658
-15.672
-15.619
-15.498
-15.311
-15.061
-14.749
-14.382
-13.964
-13.501
-12.998
-12.461
-11.895
-11.308
-10.705
-10.091
-9.472
-8.858
-8.258
-7.686
-7.152
-6.659
-6.209
-5.802
-5.434
-5.096
-4.777
-4.458
-4.126
-3.771
-3.388
-2.976
-2.53
-2.042
-1.502
-0.898
-0.228
0.507
1.302
2.147
3.024
3.9
4.728
5.458
6.048
6.462
6.676
6.666
6.389
5.821
4.936
3.711
2.147
0.235
-2.046
-4.704
-7.743
-11.138
-14.827
-18.775
-23.007
-27.484
-32.085
-36.587
-40.619
-43.864
-46.107
-47.087
-46.457
-43.986
-39.743
-34.159
-28.075
-22.399
-17.719
-14.535
-13.544
-15.221
-19.44
-25.468
-31.73
-36.231
-37.556
-34.393
-24.915
-7.644
18.235
52.794
94.558
141.121
190.334
239.409
284.291
320.734
344.294
350.886
338.106
304.383
248.517
170.85
73.66
-39.257
-162.405
-289.542
-414.824
-531.934
-634.557
-717.309
-776.097
-808.861
-815.546
-797.379
-756.573
-696.884
-623.135
-540.881
-455.848
-372.646
-295.167
-226.693
-169.581
-125.121
-93.218
-72.332
-60.214
-54.774
-53.679
-54.595
-55.416
-54.201
-50.045
-43.111
-33.971
-23.351
-12.174
-1.342
8.178
15.334
19.714
21.488
21.039
18.963
15.853
12.213
8.638
5.76
3.952
3.355
3.974
5.665
8.302
11.801
16.024
20.811
26.02
31.516
37.187
42.952
48.714
54.366
59.803
64.926
69.649
73.933
77.765
81.153
84.125
86.715
88.965
90.929
92.671
94.251
95.726
97.148
98.56
100.01
101.546
103.212
105.049
107.08
109.315
111.758
114.406
117.252
120.285
123.487
126.838
130.317
133.906
137.589
141.348
145.164
149.017
152.882
156.74
160.567
164.343
168.048
171.661
175.16
178.525
181.738
184.779
187.63
190.271
192.682
194.845
196.741
198.355
199.671
200.676
201.357
201.705
201.711
201.37
200.678
199.631
198.23
196.475
194.369
191.916
189.124
186
182.552
178.794
174.736
170.392
165.779
160.911
155.807
150.484
144.963
139.262
133.403
127.407
121.295
115.089
108.811
102.484
96.129
89.768
83.421
77.111
70.858
64.679
58.595
52.622
46.777
41.076
35.533
30.16
24.971
19.977
15.185
10.606
6.246
2.112
-1.793
-5.465
-8.902
-12.102
-15.066
-17.794
-20.29
-22.556
-24.597
-26.418
-28.025
-29.426
-30.627
-31.638
-32.467
-33.124
-33.619
-33.961
-34.162
-34.233
-34.184
-34.025
-33.769
-33.425
-33.004
-32.517
-31.972
-31.38
-30.749
-30.088
-29.405
-28.707
-28
-27.292
-26.588
-25.893
-25.211
-24.547
-23.904
-23.285
-22.692
-22.127
-21.591
-21.085
-20.611
-20.167
-19.754
-19.372
-19.02
-18.695
-18.399
-18.128
-17.881
-17.656
-17.453
-17.267
-17.099
-16.946
-16.807
-16.68
-16.564
-16.457
-16.359
-16.27
-16.188
-16.114
-16.047
-15.988
-15.937
-15.895
-15.862
-15.84
-15.83
-15.832
-15.849
-15.881
-15.931
-15.998
-16.086
-16.194
-16.325
-16.48
-16.66
-16.866
-17.1
-17.362
-17.654
-17.976
-18.33
-18.715
-19.133
-19.582
-20.064
-20.576
-21.12
-21.693
-22.294
-22.921
-23.573
-24.247
-24.941
-25.651
-26.376
-27.112
-27.856
-28.604
-29.353
-30.098
-30.837
-31.565
-32.279
-32.974
-33.646
-34.292
-34.907
-35.489
-36.033
-36.534
-36.991
-37.398
-37.753
-38.053
-38.295
-38.476
-38.594
-38.649
-38.639
-38.564
-38.425
-38.223
-37.961
-37.639
-37.261
-36.83
-36.349
-35.823
-35.254
-34.646
-34.005
-33.335
-32.642
-31.933
-31.214
-30.49
-29.767
-29.052
-28.351
-27.671
-27.018
-26.395
-25.805
-25.253
-24.745
-24.288
-23.888
-23.543
-23.251
-23.008
-22.808
-22.645
-22.51
-22.381
-22.242
-22.074
-21.864
-21.605
-21.29
-20.908
-20.445
-19.882
-19.21
-18.431
-17.555
-16.589
-15.548
-14.45
-13.334
-12.263
-11.305
-10.53
-9.995
-9.749
-9.836
-10.296
-11.182
-12.551
-14.452
-16.923
-19.982
-23.634
-27.892
-32.799
-38.291
-44.188
-50.214
-55.96
-61.046
-65.193
-68.069
-69.26
-68.556
-65.995
-61.892
-57.058
-52.302
-48.162
-45.306
-44.407
-45.757
-49.266
-54.242
-59.018
-61.791
-61
-54.737
-41.25
-19.314
11.767
51.477
97.858
148.328
199.747
247.893
288.249
316.177
327.228
318.329
287.631
234.251
158.893
64.095
-46.234
-166.62
-290.788
-412.836
-526.677
-626.456
-707.551
-766.544
-801.582
-812.892
-801.753
-770.052
-721.042
-658.689
-587.196
-511.187
-434.681
-360.667
-292.063
-231.341
-179.995
-138.983
-108.218
-86.453
-72.372
-64.644
-61.355
-60.645
-60.728
-59.759
-56.863
-52.014
-45.326
-37.19
-28.322
-19.376
-11.215
-4.861
-0.673
1.446
1.749
0.736
-1.09
-3.315
-5.391
-6.717
-6.991
-6.109
-4.102
-1.154
2.604
7.075
12.109
17.538
23.219
29.027
34.863
40.666
46.345
51.805
56.951
61.688
65.966
69.773
73.115
76.025
78.537
80.694
82.549
84.162
85.593
86.897
88.125
89.319
90.525
91.791
93.164
94.691
96.405
98.322
100.449
102.788
105.334
108.082
111.017
114.121
117.377
120.767
124.279
127.899
131.61
135.393
139.227
143.089
146.96
150.818
154.642
158.411
162.104
165.699
169.177
172.518
175.703
178.71
181.519
184.108
186.457
188.55
190.366
191.891
193.108
194.005
194.571
194.796
194.673
194.197
193.363
192.169
190.616
188.705
186.44
183.826
180.869
177.58
173.968
170.047
165.829
161.332
156.571
151.565
146.334
140.898
135.277
129.496
123.574
117.537
111.408
105.21
98.966
92.701
86.438
80.199
74.008
67.886
61.852
55.928
50.132
44.48
38.991
33.679
28.559
23.642
18.941
14.465
10.224
6.224
2.471
-1.031
-4.279
-7.273
-10.013
-12.501
-14.74
-16.734
-18.49
-20.014
-21.314
-22.399
-23.279
-23.964
-24.466
-24.796
-24.967
-24.992
-24.883
-24.653
-24.315
-23.882
-23.366
-22.78
-22.137
-21.447
-20.723
-19.976
-19.215
-18.451
-17.692
-16.948
-16.225
-15.53
-14.87
-14.249
-13.672
-13.142
-12.662
-12.233
-11.857
-11.533
-11.263
-11.044
-10.876
-10.756
-10.681
-10.65
-10.658
-10.703
-10.78
-10.887
-11.019
-11.173
-11.345
-11.531
-11.728
-11.932
-12.14
-12.348
-12.554
-12.754
-12.945
-13.127
-13.296
-13.452
-13.593
-13.718
-13.826
-13.918
-13.993
-14.052
-14.096
-14.124
-14.14
-14.143
-14.136
-14.12
-14.098
-14.071
-14.042
-14.013
-13.985
-13.961
-13.943
-13.933
-13.932
-13.942
-13.966
-14.004
-14.058
-14.13
-14.22
-14.329
-14.457
-14.605
-14.773
-14.96
-15.166
-15.389
-15.629
-15.886
-16.156
-16.44
-16.735
-17.04
-17.352
-17.669
-17.989
-18.308
-18.625
-18.936
-19.238
-19.529
-19.804
-20.062
-20.298
-20.51
-20.694
-20.847
-20.964
-21.043
-21.081
-21.074
-21.021
-20.919
-20.767
-20.564
-20.31
-20.006
-19.653
-19.251
-18.802
-18.307
-17.769
-17.19
-16.571
-15.915
-15.224
-14.503
-13.756
-12.989
-12.206
-11.413
-10.615
-9.816
-9.023
-8.242
-7.479
-6.736
-6.02
-5.336
-4.689
-4.091
-3.546
-3.055
-2.615
-2.223
-1.871
-1.553
-1.259
-0.968
-0.667
-0.34
0.026
0.436
0.897
1.419
2.01
2.686
3.458
4.319
5.264
6.279
7.34
8.428
9.512
10.53
11.432
12.164
12.66
12.891
12.818
12.398
11.613
10.417
8.762
6.625
3.975
0.797
-2.882
-7.078
-11.824
-17.032
-22.539
-28.077
-33.239
-37.706
-41.261
-43.618
-44.424
-43.47
-40.825
-36.908
-32.498
-28.353
-24.902
-22.528
-21.817
-23.122
-26.247
-30.456
-34.286
-36.038
-34.601
-28.88
-17.268
1.394
27.612
61.246
100.803
144.167
189.524
234.226
274.308
305.899
325.22
328.593
313.66
278.751
222.244
145.38
52.813
-51.974
-165.457
-284.951
-411.111
-537.32
-651.143
-741.537
-796.081
-812.708
-800.558
-767.429
-722.447
-670.765
-610.443
-542.297
-468.722
-392.462
-318.78
-251.894
-193.939
-146.125
-108.661
-80.728
-60.994
-48.436
-41.703
-38.736
-37.758
-37.053
-34.99
-31.083
-25.509
-18.34
-10.015
-1.314
7.113
14.398
19.663
22.746
23.859
23.298
21.572
19.185
16.558
14.236
12.764
12.384
13.161
15.04
17.843
21.446
25.75
30.606
35.854
41.354
46.977
52.629
58.24
63.721
68.977
73.915
78.444
82.519
86.131
89.293
92.036
94.398
96.418
98.152
99.661
101.005
102.243
103.425
104.592
105.793
107.073
108.479
110.057
111.836
113.828
116.042
118.474
121.121
123.974
127.019
130.235
133.602
137.105
140.726
144.451
148.262
152.137
156.053
159.988
163.919
167.825
171.682
175.47
179.165
182.745
186.19
189.479
192.592
195.505
198.199
200.651
202.842
204.753
206.367
207.666
208.637
209.266
209.543
209.46
209.009
208.187
206.99
205.418
203.472
201.154
198.469
195.425
192.029
188.292
184.226
179.845
175.162
170.196
164.964
159.485
153.78
147.87
141.775
135.52
129.128
122.621
116.023
109.359
102.652
95.926
89.204
82.509
75.863
69.288
62.804
56.431
50.186
44.088
38.152
32.394
26.827
21.464
16.317
11.394
6.705
2.258
-1.943
-5.892
-9.587
-13.025
-16.206
-19.131
-21.802
-24.222
-26.395
-28.326
-30.022
-31.491
-32.74
-33.778
-34.614
-35.26
-35.725
-36.021
-36.158
-36.15
-36.006
-35.739
-35.361
-34.883
-34.316
-33.673
-32.963
-32.199
-31.389
-30.545
-29.675
-28.789
-27.896
-27.002
-26.117
-25.246
-24.396
-23.573
-22.782
-22.027
-21.313
-20.642
-20.018
-19.442
-18.916
-18.441
-18.018
-17.647
-17.328
-17.059
-16.841
-16.671
-16.549
-16.473
-16.441
-16.451
-16.501
-16.587
-16.709
-16.864
-17.05
-17.264
-17.505
-17.77
-18.057
-18.364
-18.69
-19.032
-19.388
-19.757
-20.136
-20.525
-20.922
-21.327
-21.738
-22.155
-22.577
-23.006
-23.439
-23.879
-24.323
-24.772
-25.226
-25.685
-26.149
-26.618
-27.092
-27.57
-28.052
-28.539
-29.029
-29.521
-30.014
-30.506
-30.995
-31.48
-31.958
-32.426
-32.882
-33.326
-33.755
-34.168
-34.563
-34.937
-35.29
-35.619
-35.92
-36.188
-36.416
-36.6
-36.735
-36.819
-36.848
-36.818
-36.725
-36.568
-36.347
-36.064
-35.714
-35.294
-34.794
-34.215
-33.562
-32.845
-32.073
-31.252
-30.386
-29.489
-28.575
-27.656
-26.734
-25.801
-24.845
-23.862
-22.862
-21.858
-20.867
-19.892
-18.923
-17.951
-16.976
-15.999
-15.019
-14.016
-12.96
-11.836
-10.657
-9.453
-8.255
-7.074
-5.896
-4.707
-3.501
-2.284
-1.075
0.117
1.298
2.467
3.616
4.713
5.707
6.574
7.328
7.991
8.578
9.08
9.454
9.663
9.69
9.52
9.134
8.503
7.582
6.335
4.756
2.858
0.666
-1.824
-4.651
-7.842
-11.413
-15.329
-19.556
-24.108
-28.917
-33.82
-38.559
-42.732
-45.971
-48.053
-48.67
-47.441
-44.344
-39.55
-33.505
-27.211
-21.43
-16.592
-13.429
-12.576
-13.995
-17.373
-21.713
-24.979
-25.626
-22.399
-13.423
2.745
26.813
59.094
98.523
142.699
189.386
235.741
277.655
311.085
331.924
336.305
321.909
287.308
231.559
155.434
61.565
-46.151
-162.326
-281.143
-397.194
-504.487
-597.252
-671.007
-722.54
-750.633
-755.893
-739.493
-703.396
-651.187
-587.153
-515.938
-442.263
-369.482
-300.27
-237.515
-183.43
-139.195
-104.998
-79.764
-61.835
-50.084
-43.168
-39.174
-36.25
-32.578
-27.117
-19.917
-11.363
-1.768
8.351
18.293
27.209
34.037
38.269
40.042
39.665
37.625
34.419
30.456
26.283
22.544
19.627
17.685
16.755
16.72
17.503
19.096
21.407
24.31
27.684
31.4
35.376
39.553
43.851
48.187
52.481
56.655
60.676
64.534
68.218
71.725
75.04
78.131
80.996
83.655
86.137
88.485
90.729
92.894
95.016
97.127
99.254
101.414
103.602
105.801
108.014
110.247
112.523
114.883
117.344
119.915
122.6
125.395
128.297
131.303
134.393
137.546
140.746
143.983
147.254
150.561
153.89
157.219
160.518
163.748
166.877
169.875
172.71
175.355
177.783
179.973
181.91
183.585
184.984
186.091
186.889
187.363
187.5
187.294
186.737
185.828
184.565
182.95
180.987
178.68
176.037
173.062
169.761
166.142
162.214
157.987
153.475
148.692
143.654
138.38
132.888
127.199
121.334
115.314
109.161
102.896
96.541
90.119
83.65
77.157
70.662
64.185
57.747
51.368
45.067
38.863
32.774
26.814
21
15.347
9.866
4.569
-0.531
-5.427
-10.108
-14.569
-18.804
-22.806
-26.574
-30.106
-33.399
-36.455
-39.276
-41.865
-44.225
-46.362
-48.279
-49.985
-51.486
-52.789
-53.903
-54.836
-55.596
-56.194
-56.64
-56.942
-57.111
-57.156
-57.089
-56.918
-56.654
-56.305
-55.882
-55.393
-54.847
-54.253
-53.618
-52.95
-52.255
-51.541
-50.813
-50.076
-49.336
-48.596
-47.859
-47.13
-46.411
-45.705
-45.012
-44.335
-43.675
-43.033
-42.409
-41.805
-41.221
-40.656
-40.112
-39.586
-39.08
-38.594
-38.126
-37.678
-37.248
-36.836
-36.443
-36.068
-35.711
-35.373
-35.054
-34.753
-34.472
-34.211
-33.971
-33.753
-33.558
-33.387
-33.241
-33.122
-33.031
-32.969
-32.936
-32.934
-32.962
-33.022
-33.112
-33.233
-33.384
-33.564
-33.772
-34.007
-34.266
-34.547
-34.849
-35.167
-35.499
-35.841
-36.19
-36.541
-36.89
-37.232
-37.563
-37.878
-38.171
-38.438
-38.673
-38.87
-39.024
-39.13
-39.182
-39.176
-39.105
-38.968
-38.76
-38.478
-38.121
-37.687
-37.176
-36.59
-35.927
-35.19
-34.382
-33.504
-32.561
-31.556
-30.493
-29.377
-28.215
-27.011
-25.774
-24.512
-23.231
-21.938
-20.642
-19.349
-18.07
-16.814
-15.585
-14.389
-13.233
-12.125
-11.075
-10.091
-9.172
-8.316
-7.523
-6.787
-6.108
-5.475
-4.87
-4.277
-3.68
-3.065
-2.43
-1.77
-1.07
-0.318
0.502
1.401
2.368
3.391
4.469
5.586
6.724
7.847
8.891
9.79
10.488
10.934
11.09
10.923
10.394
9.461
8.079
6.206
3.829
0.931
-2.491
-6.453
-10.994
-16.032
-21.357
-26.679
-31.584
-35.698
-38.784
-40.507
-40.455
-38.572
-35.015
-30.229
-25.219
-20.766
-17.32
-15.615
-16.257
-19.172
-24.024
-29.786
-34.38
-36.159
-33.713
-25.057
-8.761
15.764
48.632
88.603
133.123
179.744
225.358
265.666
296.619
314.355
315.443
297.999
260.983
203.868
127.823
35.766
-68.325
-179.257
-291.663
-400.662
-500.823
-587.007
-655.345
-703.086
-729.312
-734.817
-720.723
-688.808
-642.348
-585
-520.721
-453.77
-387.099
-322.9
-263.748
-211.588
-167.465
-132.101
-105.05
-84.964
-71.057
-62.416
-57.417
-54.639
-52.603
-49.77
-45.641
-40.356
-33.911
-26.579
-18.937
-11.467
-4.926
-0.17
2.592
3.51
2.84
1.047
-1.419
-4.185
-6.74
-8.545
-9.329
-8.993
-7.568
-5.215
-2.046
1.851
6.346
11.293
16.559
22.026
27.597
33.2
38.748
44.141
49.282
54.076
58.467
62.437
65.992
69.16
71.971
74.462
76.681
78.682
80.519
82.244
83.903
85.534
87.179
88.884
90.693
92.651
94.785
97.111
99.633
102.35
105.255
108.34
111.59
114.983
118.502
122.127
125.845
129.64
133.495
137.388
141.299
145.203
149.081
152.911
156.672
160.344
163.905
167.337
170.619
173.735
176.666
179.392
181.894
184.154
186.155
187.88
189.314
190.443
191.255
191.74
191.89
191.698
191.16
190.274
189.039
187.455
185.525
183.256
180.652
177.722
174.475
170.924
167.081
162.96
158.578
153.952
149.099
144.038
138.789
133.374
127.812
122.125
116.335
110.464
104.534
98.568
92.585
86.609
80.66
74.758
68.922
63.173
57.526
51.999
46.607
41.365
36.287
31.384
26.668
22.148
17.833
13.731
9.848
6.188
2.755
-0.449
-3.421
-6.161
-8.672
-10.953
-13.008
-14.84
-16.454
-17.855
-19.049
-20.044
-20.845
-21.461
-21.901
-22.172
-22.285
-22.247
-22.068
-21.759
-21.327
-20.783
-20.136
-19.395
-18.57
-17.671
-16.705
-15.681
-14.608
-13.494
-12.346
-11.172
-9.979
-8.774
-7.563
-6.353
-5.15
-3.958
-2.784
-1.63
-0.502
0.596
1.663
2.693
3.686
4.639
5.549
6.416
7.238
8.013
8.741
9.421
10.054
10.638
11.174
11.663
12.104
12.499
12.847
13.15
13.408
13.622
13.793
13.922
14.011
14.061
14.073
14.05
13.993
13.903
13.782
13.631
13.45
13.242
13.006
12.743
12.453
12.137
11.795
11.427
11.034
10.614
10.168
9.695
9.195
8.667
8.11
7.526
6.913
6.271
5.602
4.905
4.183
3.435
2.663
1.867
1.05
0.212
-0.646
-1.523
-2.419
-3.331
-4.258
-5.197
-6.147
-7.105
-8.066
-9.024
-9.976
-10.914
-11.835
-12.735
-13.606
-14.445
-15.244
-16
-16.71
-17.37
-17.971
-18.505
-18.966
-19.35
-19.667
-19.919
-20.107
-20.237
-20.31
-20.335
-20.323
-20.277
-20.188
-20.049
-19.851
-19.595
-19.294
-18.959
-18.6
-18.219
-17.806
-17.358
-16.886
-16.388
-15.857
-15.279
-14.633
-13.927
-13.202
-12.488
-11.811
-11.184
-10.596
-10.048
-9.542
-9.08
-8.663
-8.282
-7.916
-7.568
-7.258
-7.008
-6.851
-6.774
-6.721
-6.658
-6.566
-6.442
-6.303
-6.154
-5.991
-5.846
-5.772
-5.835
-6.114
-6.646
-7.445
-8.53
-9.902
-11.61
-13.741
-16.356
-19.495
-23.184
-27.41
-32.196
-37.612
-43.591
-49.938
-56.368
-62.438
-67.782
-72.173
-75.292
-76.748
-76.353
-74.138
-70.464
-66.198
-62.149
-58.823
-56.801
-56.652
-58.584
-62.441
-67.453
-71.911
-73.994
-72.188
-64.81
-50.301
-27.664
3.576
42.939
88.546
137.863
187.984
235.073
274.882
303.339
316.534
311.043
284.759
236.731
166.91
78.4
-24.273
-137.819
-256.997
-378.479
-499.291
-609.884
-702.894
-771.014
-807.158
-815.225
-799.616
-764.779
-718.209
-661.075
-594.913
-523.732
-449.822
-377.802
-312.362
-255.817
-209.827
-174.577
-148.957
-131.641
-121.106
-115.458
-112.484
-109.992
-106.078
-99.704
-90.79
-79.71
-67.052
-53.602
-40.301
-28.229
-18.484
-11.6
-7.527
-5.95
-6.348
-8.177
-10.957
-14.109
-17.004
-19.246
-20.646
-21.134
-20.8
-19.714
-17.892
-15.397
-12.31
-8.71
-4.696
-0.364
4.216
8.957
13.779
18.61
23.362
27.965
32.37
36.552
40.527
44.311
47.895
51.259
54.391
57.304
60.034
62.636
65.144
67.59
70.001
72.408
74.855
77.374
79.982
82.671
85.42
88.218
91.08
94.036
97.108
100.3
103.606
107.012
110.517
114.118
117.805
121.557
125.344
129.147
132.954
136.763
140.572
144.37
148.131
151.823
155.414
158.883
162.206
165.361
168.321
171.062
173.567
175.827
177.834
179.577
181.041
182.212
183.076
183.627
183.859
183.77
183.358
182.622
181.566
180.193
178.511
176.528
174.249
171.681
168.832
165.713
162.335
158.714
154.861
150.794
146.528
142.083
137.476
132.728
127.858
122.884
117.826
112.703
107.536
102.344
97.145
91.959
86.803
81.696
76.655
71.696
66.835
62.086
57.463
52.978
48.643
44.468
40.463
36.635
32.992
29.54
26.284
23.228
20.374
17.724
15.279
13.037
10.998
9.157
7.511
6.056
4.787
3.697
2.779
2.028
1.434
0.99
0.687
0.516
0.468
0.534
0.705
0.969
1.319
1.745
2.236
2.785
3.383
4.02
4.688
5.381
6.09
6.807
7.528
8.245
8.953
9.647
10.323
10.977
11.605
12.205
12.773
13.309
13.809
14.274
14.701
15.09
15.44
15.753
16.027
16.263
16.461
16.623
16.75
16.841
16.899
16.923
16.916
16.879
16.813
16.718
16.597
16.45
16.279
16.084
15.866
15.627
15.366
15.084
14.781
14.458
14.115
13.752
13.368
12.964
12.54
12.096
11.631
11.147
10.642
10.117
9.573
9.009
8.427
7.828
7.211
6.58
5.935
5.278
4.61
3.935
3.253
2.567
1.879
1.192
0.507
-0.172
-0.842
-1.502
-2.147
-2.774
-3.379
-3.96
-4.512
-5.033
-5.518
-5.964
-6.367
-6.723
-7.03
-7.282
-7.478
-7.614
-7.687
-7.695
-7.637
-7.511
-7.316
-7.053
-6.723
-6.329
-5.871
-5.352
-4.776
-4.145
-3.462
-2.732
-1.959
-1.145
-0.295
0.585
1.49
2.412
3.346
4.285
5.224
6.154
7.07
7.962
8.824
9.653
10.444
11.193
11.891
12.529
13.105
13.616
14.067
14.459
14.796
15.083
15.332
15.562
15.789
16.031
16.3
16.598
16.934
17.317
17.756
18.268
18.855
19.511
20.228
20.998
21.81
22.647
23.472
24.228
24.856
25.293
25.49
25.409
25.007
24.255
23.112
21.527
19.468
16.904
13.813
10.192
6.016
1.235
-4.105
-9.839
-15.713
-21.35
-26.412
-30.67
-33.837
-35.546
-35.588
-34.023
-31.236
-27.964
-24.94
-22.58
-21.276
-21.603
-23.884
-27.925
-32.994
-37.649
-40.221
-39.56
-34.533
-23.57
-5.528
20.074
53.024
91.789
134.171
178.185
221.155
259.303
288.85
306.008
307.433
291.267
256.203
201.292
127.166
36.164
-68.111
-180.653
-296.129
-409.605
-515.436
-608.008
-682.754
-736.175
-766.711
-774.581
-760.507
-725.991
-674.231
-609.328
-535.995
-459.262
-382.869
-309.904
-243.716
-186.979
-141.276
-107.052
-83.271
-68.101
-60.148
-57.761
-58.678
-60.693
-61.665
-60.292
-56.487
-50.617
-43.049
-34.378
-25.418
-17.135
-10.675
-6.607
-4.821
-4.985
-6.586
-9.095
-12.044
-14.845
-16.859
-17.737
-17.376
-15.817
-13.239
-9.787
-5.559
-0.712
4.575
10.15
15.876
21.652
27.394
32.997
38.342
43.315
47.832
51.856
55.379
58.416
60.997
63.16
64.954
66.442
67.684
68.741
69.669
70.518
71.343
72.202
73.15
74.245
75.527
77.023
78.746
80.703
82.892
85.309
87.942
90.773
93.786
96.966
100.298
103.771
107.366
111.065
114.845
118.685
122.562
126.456
130.344
134.204
138.015
141.754
145.402
148.938
152.34
155.586
158.652
161.518
164.16
166.56
168.697
170.552
172.111
173.358
174.281
174.871
175.118
175.018
174.564
173.756
172.592
171.074
169.206
166.993
164.441
161.56
158.36
154.854
151.054
146.977
142.637
138.054
133.245
128.23
123.03
117.664
112.155
106.525
100.795
94.988
89.126
83.231
77.325
71.428
65.562
59.745
53.996
48.332
42.771
37.326
32.014
26.846
21.835
16.991
12.325
7.844
3.556
-0.532
-4.416
-8.092
-11.556
-14.807
-17.844
-20.667
-23.277
-25.675
-27.866
-29.851
-31.636
-33.225
-34.624
-35.84
-36.879
-37.748
-38.456
-39.011
-39.42
-39.692
-39.835
-39.858
-39.77
-39.578
-39.291
-38.917
-38.465
-37.942
-37.356
-36.715
-36.027
-35.297
-34.533
-33.741
-32.928
-32.099
-31.26
-30.417
-29.574
-28.737
-27.911
-27.099
-26.304
-25.532
-24.783
-24.062
-23.37
-22.708
-22.079
-21.483
-20.922
-20.395
-19.903
-19.447
-19.027
-18.64
-18.288
-17.969
-17.682
-17.425
-17.197
-16.998
-16.824
-16.676
-16.551
-16.449
-16.367
-16.305
-16.261
-16.233
-16.22
-16.22
-16.232
-16.254
-16.285
-16.324
-16.372
-16.427
-16.49
-16.562
-16.642
-16.731
-16.83
-16.94
-17.062
-17.196
-17.344
-17.508
-17.689
-17.888
-18.107
-18.349
-18.613
-18.902
-19.216
-19.556
-19.922
-20.313
-20.729
-21.168
-21.63
-22.115
-22.62
-23.147
-23.694
-24.26
-24.843
-25.443
-26.056
-26.679
-27.305
-27.929
-28.543
-29.141
-29.716
-30.265
-30.782
-31.259
-31.693
-32.082
-32.422
-32.71
-32.937
-33.092
-33.168
-33.165
-33.089
-32.946
-32.746
-32.49
-32.189
-31.859
-31.508
-31.142
-30.756
-30.331
-29.859
-29.339
-28.78
-28.202
-27.61
-26.998
-26.357
-25.681
-24.961
-24.2
-23.378
-22.457
-21.419
-20.264
-19.011
-17.71
-16.384
-15.034
-13.661
-12.257
-10.829
-9.406
-8.004
-6.629
-5.292
-3.999
-2.783
-1.716
-0.832
-0.139
0.373
0.741
0.972
1.033
0.909
0.588
0.066
-0.642
-1.551
-2.703
-4.123
-5.835
-7.83
-10.053
-12.493
-15.172
-18.112
-21.351
-24.897
-28.692
-32.735
-37.088
-41.699
-46.437
-51.064
-55.157
-58.365
-60.485
-61.205
-60.161
-57.309
-52.801
-47.104
-41.216
-35.883
-31.507
-28.74
-28.149
-29.7
-33.068
-37.23
-40.196
-40.44
-36.822
-27.716
-11.752
11.773
43.21
81.71
125.028
171.042
217.277
260.152
295.874
320.546
330.248
322.093
294.337
245.686
176.137
87.446
-17.325
-133.639
-255.971
-378.512
-495.159
-599.765
-687.024
-752.831
-794.562
-811.38
-803.687
-773.141
-722.915
-657.321
-581.282
-499.948
-417.99
-339.415
-267.91
-206.409
-156.656
-119.028
-92.634
-75.776
-66.541
-62.847
-62.285
-62.441
-61.212
-57.452
-51.031
-42.324
-31.964
-20.725
-9.536
0.509
8.28
13.245
15.49
15.362
13.434
10.276
6.406
2.46
-0.879
-3.177
-4.26
-4.102
-2.834
-0.576
2.602
6.568
11.159
16.23
21.64
27.277
33.058
38.882
44.628
50.184
55.433
60.277
64.663
68.567
71.99
74.955
77.491
79.639
81.45
82.987
84.311
85.481
86.55
87.565
88.577
89.639
90.803
92.118
93.614
95.309
97.213
99.326
101.647
104.169
106.88
109.761
112.795
115.968
119.266
122.678
126.188
129.776
133.424
137.111
140.818
144.527
148.217
151.87
155.465
158.984
162.408
165.72
168.899
171.926
174.781
177.444
179.894
182.114
184.086
185.794
187.221
188.356
189.186
189.701
189.895
189.759
189.288
188.481
187.334
185.849
184.027
181.872
179.389
176.585
173.468
170.049
166.34
162.354
158.105
153.61
148.885
143.949
138.82
133.518
128.064
122.477
116.781
110.995
105.142
99.244
93.322
87.397
81.49
75.621
69.809
64.072
58.43
52.897
47.49
42.225
37.114
32.17
27.404
22.828
18.45
14.278
10.319
6.577
3.058
-0.236
-3.303
-6.144
-8.757
-11.146
-13.313
-15.261
-16.996
-18.521
-19.845
-20.973
-21.913
-22.672
-23.261
-23.686
-23.958
-24.085
-24.076
-23.942
-23.692
-23.335
-22.88
-22.336
-21.713
-21.019
-20.262
-19.451
-18.594
-17.698
-16.769
-15.816
-14.844
-13.858
-12.865
-11.869
-10.875
-9.888
-8.91
-7.946
-6.999
-6.071
-5.165
-4.284
-3.429
-2.602
-1.804
-1.037
-0.301
0.402
1.072
1.708
2.31
2.877
3.409
3.906
4.367
4.793
5.184
5.539
5.858
6.142
6.392
6.606
6.786
6.932
7.044
7.123
7.169
7.184
7.166
7.117
7.038
6.93
6.792
6.627
6.434
6.213
5.967
5.695
5.398
5.076
4.731
4.361
3.969
3.555
3.12
2.665
2.191
1.698
1.19
0.666
0.129
-0.421
-0.981
-1.55
-2.127
-2.709
-3.295
-3.882
-4.47
-5.055
-5.635
-6.208
-6.772
-7.324
-7.861
-8.382
-8.882
-9.358
-9.808
-10.227
-10.611
-10.957
-11.26
-11.516
-11.722
-11.874
-11.968
-12.003
-11.975
-11.883
-11.727
-11.506
-11.219
-10.868
-10.452
-9.973
-9.431
-8.829
-8.166
-7.445
-6.669
-5.842
-4.97
-4.059
-3.114
-2.142
-1.149
-0.143
0.868
1.879
2.885
3.879
4.853
5.795
6.69
7.528
8.306
9.02
9.67
10.26
10.797
11.295
11.773
12.248
12.733
13.231
13.745
14.279
14.843
15.456
16.138
16.897
17.739
18.663
19.662
20.724
21.817
22.893
23.896
24.773
25.481
25.992
26.282
26.318
26.064
25.47
24.477
23.043
21.136
18.746
15.873
12.513
8.693
4.456
-0.14
-5.003
-10.075
-15.345
-20.704
-25.967
-30.855
-34.907
-37.712
-38.975
-38.318
-35.491
-30.536
-23.647
-15.485
-7.09
0.716
7.141
11.393
13.198
12.707
10.445
7.878
6.787
8.717
15.577
29.035
49.979
78.821
114.944
156.436
200.994
245.759
286.679
319.583
340.339
344.985
330.903
296.367
240.23
162.934
66.782
-44.507
-165.674
-290.848
-414.463
-530.27
-632.002
-714.459
-773.604
-807.507
-816.237
-800.575
-762.235
-704.785
-632.85
-551.74
-467.099
-383.179
-303.464
-231.63
-170.529
-121.74
-85.548
-60.65
-44.898
-36.633
-33.958
-34.347
-35.416
-34.978
-31.789
-25.911
-17.888
-8.218
2.392
12.996
22.546
29.851
34.328
36.132
35.659
33.455
30.062
25.953
21.699
17.955
15.127
13.355
12.646
12.869
13.92
15.766
18.309
21.402
24.918
28.732
32.745
36.896
41.121
45.343
49.505
53.559
57.455
61.175
64.705
68.029
71.134
73.991
76.588
78.94
81.076
83.036
84.858
86.576
88.211
89.79
91.326
92.82
94.278
95.7
97.092
98.473
99.872
101.331
102.883
104.548
106.334
108.239
110.261
112.396
114.635
116.968
119.385
121.89
124.48
127.153
129.898
132.693
135.509
138.31
141.061
143.728
146.282
148.7
150.957
153.035
154.916
156.589
158.039
159.247
160.196
160.868
161.248
161.327
161.095
160.549
159.684
158.5
156.997
155.175
153.036
150.582
147.815
144.736
141.352
137.669
133.695
129.443
124.923
120.151
115.142
109.913
104.482
98.867
93.087
87.162
81.112
74.957
68.719
62.419
56.078
49.719
43.362
37.03
30.742
24.519
18.38
12.344
6.428
0.649
-4.978
-10.437
-15.716
-20.801
-25.68
-30.344
-34.784
-38.99
-42.957
-46.679
-50.152
-53.372
-56.34
-59.053
-61.514
-63.724
-65.687
-67.406
-68.886
-70.134
-71.157
-71.962
-72.559
-72.957
-73.165
-73.195
-73.058
-72.764
-72.325
-71.753
-71.06
-70.256
-69.354
-68.365
-67.3
-66.17
-64.986
-63.757
-62.495
-61.208
-59.907
-58.598
-57.291
-55.993
-54.712
-53.453
-52.222
-51.026
-49.869
-48.754
-47.687
-46.668
-45.702
-44.79
-43.932
-43.13
-42.384
-41.694
-41.059
-40.478
-39.95
-39.473
-39.047
-38.668
-38.335
-38.047
-37.8
-37.593
-37.423
-37.288
-37.186
-37.114
-37.069
-37.051
-37.055
-37.081
-37.127
-37.189
-37.268
-37.361
-37.466
-37.583
-37.711
-37.848
-37.995
-38.151
-38.315
-38.489
-38.671
-38.862
-39.063
-39.274
-39.494
-39.723
-39.963
-40.211
-40.469
-40.735
-41.008
-41.289
-41.576
-41.869
-42.166
-42.466
-42.768
-43.071
-43.372
-43.669
-43.961
-44.245
-44.517
-44.777
-45.02
-45.243
-45.444
-45.618
-45.761
-45.869
-45.939
-45.965
-45.943
-45.87
-45.742
-45.555
-45.307
-44.996
-44.62
-44.18
-43.675
-43.105
-42.471
-41.774
-41.014
-40.195
-39.318
-38.384
-37.396
-36.358
-35.275
-34.154
-33.001
-31.82
-30.619
-29.403
-28.18
-26.956
-25.738
-24.531
-23.342
-22.179
-21.049
-19.966
-18.935
-17.96
-17.039
-16.169
-15.346
-14.563
-13.809
-13.067
-12.322
-11.564
-10.781
-9.97
-9.12
-8.22
-7.259
-6.219
-5.092
-3.881
-2.593
-1.239
0.162
1.588
3.004
4.358
5.602
6.694
7.59
8.247
8.622
8.66
8.319
7.568
6.377
4.72
2.579
-0.064
-3.214
-6.843
-10.936
-15.497
-20.432
-25.569
-30.647
-35.263
-39.054
-41.776
-43.079
-42.551
-40.111
-35.898
-30.364
-24.475
-18.964
-14.232
-10.947
-9.753
-10.69
-13.491
-17.198
-19.871
-20.005
-16.468
-7.62
7.959
31.042
62.042
100.176
143.26
189.185
235.447
278.396
314.157
338.731
348.1
339.329
310.63
260.7
189.621
99.285
-7.097
-124.769
-248.005
-370.908
-487.292
-591.002
-676.855
-740.839
-780.448
-795.123
-785.476
-753.296
-701.884
-635.408
-558.536
-476.353
-393.439
-313.52
-240.169
-176.149
-123.049
-81.691
-51.672
-31.465
-19.38
-13.615
-11.847
-11.932
-11.997
-10.363
-6.38
-0.214
7.787
17.014
26.561
35.601
43.235
48.576
51.395
51.903
50.476
47.684
44.106
40.237
36.651
33.914
32.305
31.904
32.672
34.439
37.079
40.491
44.527
49.028
53.851
58.873
63.986
69.112
74.15
78.99
83.53
87.668
91.351
94.559
97.3
99.602
101.502
103.04
104.273
105.263
106.073
106.763
107.385
107.987
108.618
109.33
110.173
111.195
112.426
113.884
115.576
117.5
119.651
122.022
124.596
127.353
130.274
133.341
136.539
139.854
143.268
146.761
150.311
153.896
157.495
161.088
164.655
168.175
171.626
174.99
178.246
181.377
184.364
187.186
189.822
192.254
194.462
196.429
198.138
199.573
200.721
201.569
202.107
202.328
202.223
201.789
201.022
199.92
198.484
196.714
194.615
192.192
189.45
186.398
183.045
179.402
175.482
171.298
166.865
162.199
157.316
152.236
146.976
141.557
135.997
130.318
124.54
118.685
112.773
106.826
100.864
94.908
88.978
83.094
77.273
71.534
65.894
60.369
54.974
49.724
44.631
39.709
34.967
30.417
26.066
21.924
17.998
14.291
10.81
7.557
4.534
1.743
-0.818
-3.148
-5.251
-7.131
-8.791
-10.236
-11.475
-12.512
-13.357
-14.017
-14.501
-14.82
-14.982
-14.998
-14.877
-14.632
-14.271
-13.805
-13.246
-12.603
-11.886
-11.105
-10.27
-9.392
-8.478
-7.538
-6.581
-5.614
-4.647
-3.685
-2.735
-1.805
-0.9
-0.025
0.815
1.616
2.375
3.088
3.753
4.367
4.929
5.438
5.892
6.291
6.635
6.924
7.157
7.337
7.462
7.534
7.554
7.523
7.442
7.312
7.134
6.91
6.64
6.327
5.973
5.578
5.144
4.673
4.166
3.626
3.053
2.45
1.817
1.156
0.469
-0.243
-0.978
-1.734
-2.51
-3.303
-4.112
-4.933
-5.766
-6.606
-7.453
-8.303
-9.153
-10.002
-10.845
-11.68
-12.504
-13.312
-14.103
-14.872
-15.615
-16.33
-17.012
-17.66
-18.268
-18.833
-19.353
-19.823
-20.242
-20.606
-20.913
-21.159
-21.343
-21.463
-21.519
-21.51
-21.437
-21.299
-21.101
-20.844
-20.53
-20.165
-19.751
-19.292
-18.794
-18.262
-17.698
-17.108
-16.498
-15.872
-15.237
-14.601
-13.969
-13.348
-12.747
-12.171
-11.63
-11.128
-10.668
-10.251
-9.883
-9.567
-9.312
-9.124
-9.002
-8.946
-8.956
-9.03
-9.162
-9.338
-9.53
-9.718
-9.884
-10.012
-10.101
-10.141
-10.118
-10.022
-9.837
-9.557
-9.189
-8.735
-8.189
-7.563
-6.879
-6.189
-5.579
-5.127
-4.891
-4.919
-5.243
-5.909
-6.986
-8.535
-10.609
-13.248
-16.456
-20.269
-24.779
-29.984
-35.765
-41.871
-47.895
-53.476
-58.398
-62.404
-65.14
-66.382
-66.141
-64.739
-62.872
-61.185
-59.971
-59.462
-60.044
-61.931
-64.95
-68.452
-71.118
-71.476
-68.604
-61.666
-49.437
-30.913
-5.51
26.783
64.729
106.447
150.312
194.149
234.656
268.216
290.882
298.873
289.844
262.117
214.255
146.242
59.87
-41.563
-152.985
-268.604
-383.106
-490.723
-585.657
-663.117
-719.432
-752.942
-764.188
-754.526
-725.852
-681.402
-624.972
-560.786
-493.492
-426.407
-361.731
-301.795
-248.419
-202.671
-165.352
-136.084
-113.452
-96.617
-84.813
-76.663
-70.979
-66.402
-61.368
-55.333
-48.463
-40.748
-32.411
-23.941
-15.694
-8.371
-2.876
0.546
2.022
1.771
0.253
-2.094
-4.921
-7.696
-9.826
-10.996
-11.064
-10.027
-8.035
-5.187
-1.561
2.706
7.453
12.534
17.822
23.22
28.658
34.044
39.276
44.248
48.86
53.055
56.81
60.126
63.028
65.549
67.727
69.617
71.281
72.78
74.172
75.508
76.832
78.193
79.641
81.225
82.997
84.988
87.216
89.69
92.41
95.372
98.568
101.982
105.591
109.377
113.319
117.4
121.603
125.907
130.289
134.725
139.188
143.653
148.096
152.493
156.819
161.05
165.162
169.133
172.94
176.562
179.974
183.155
186.082
188.732
191.088
193.13
194.84
196.205
197.211
197.846
198.104
197.978
197.461
196.554
195.254
193.564
191.487
189.031
186.201
183.007
179.462
175.579
171.371
166.855
162.049
156.971
151.642
146.083
140.315
134.361
128.244
121.988
115.617
109.155
102.626
96.055
89.464
82.878
76.319
69.81
63.371
57.023
50.786
44.677
38.714
32.913
27.288
21.853
16.62
11.6
6.803
2.236
-2.092
-6.177
-10.014
-13.599
-16.932
-20.012
-22.838
-25.414
-27.741
-29.823
-31.666
-33.275
-34.658
-35.821
-36.773
-37.523
-38.08
-38.455
-38.658
-38.699
-38.591
-38.344
-37.969
-37.479
-36.883
-36.194
-35.423
-34.58
-33.677
-32.723
-31.728
-30.703
-29.656
-28.596
-27.531
-26.47
-25.419
-24.385
-23.375
-22.393
-21.446
-20.538
-19.673
-18.855
-18.087
-17.372
-16.711
-16.108
-15.562
-15.075
-14.646
-14.276
-13.964
-13.709
-13.512
-13.37
-13.283
-13.251
-13.271
-13.342
-13.464
-13.634
-13.85
-14.112
-14.417
-14.764
-15.151
-15.576
-16.038
-16.535
-17.064
-17.625
-18.215
-18.831
-19.47
-20.13
-20.807
-21.498
-22.199
-22.908
-23.621
-24.337
-25.053
-25.768
-26.48
-27.187
-27.886
-28.574
-29.246
-29.897
-30.519
-31.106
-31.652
-32.153
-32.604
-32.999
-33.336
-33.613
-33.828
-33.977
-34.055
-34.054
-33.966
-33.792
-33.536
-33.204
-32.81
-32.364
-31.876
-31.364
-30.839
-30.307
-29.77
-29.215
-28.628
-28.006
-27.352
-26.678
-25.999
-25.312
-24.607
-23.879
-23.108
-22.283
-21.393
-20.404
-19.29
-18.051
-16.697
-15.263
-13.798
-12.321
-10.833
-9.334
-7.818
-6.302
-4.815
-3.373
-1.997
-0.71
0.468
1.481
2.277
2.849
3.199
3.357
3.369
3.235
2.92
2.415
1.705
0.788
-0.317
-1.621
-3.14
-4.871
-6.826
-8.989
-11.334
-13.875
-16.618
-19.575
-22.786
-26.232
-29.873
-33.703
-37.678
-41.786
-46.06
-50.402
-54.634
-58.506
-61.595
-63.538
-64.083
-62.862
-59.625
-54.428
-47.48
-39.469
-31.456
-24.232
-18.555
-15.213
-14.467
-16.149
-19.689
-23.541
-25.83
-24.966
-19.006
-6.206
14.387
43.236
79.727
121.865
167.26
213.021
255.081
289.228
311.318
317.345
304.706
271.913
218.001
143.53
50.912
-56.27
-172.933
-293.203
-411.68
-522.663
-620.362
-700.151
-758.527
-793.424
-804.837
-793.772
-761.852
-712.199
-648.792
-575.933
-498.411
-420.438
-345.225
-275.932
-215.149
-164.348
-124.359
-94.894
-74.522
-61.767
-55.121
-52.513
-52.028
-51.936
-50.57
-47.25
-42.094
-35.332
-27.453
-19.235
-11.363
-4.657
-0.005
2.348
2.585
1.04
-1.741
-5.219
-8.94
-12.354
-14.89
-16.261
-16.374
-15.263
-13.098
-10.007
-6.09
-1.492
3.622
9.107
14.832
20.686
26.583
32.421
38.086
43.47
48.47
53.027
57.118
60.748
63.942
66.734
69.161
71.275
73.134
74.798
76.32
77.753
79.141
80.53
81.971
83.512
85.199
87.063
89.118
91.371
93.82
96.458
99.278
102.263
105.394
108.652
112.021
115.486
119.034
122.649
126.31
129.999
133.694
137.375
141.025
144.625
148.154
151.595
154.93
158.14
161.208
164.117
166.848
169.381
171.697
173.778
175.608
177.17
178.449
179.432
180.107
180.465
180.497
180.199
179.565
178.591
177.279
175.628
173.642
171.324
168.681
165.721
162.453
158.889
155.041
150.923
146.55
141.94
137.109
132.077
126.863
121.488
115.974
110.341
104.612
98.81
92.958
87.077
81.191
75.322
69.491
63.72
58.029
52.436
46.961
41.62
36.429
31.402
26.554
21.896
17.438
13.19
9.16
5.353
1.776
-1.57
-4.681
-7.557
-10.197
-12.605
-14.783
-16.734
-18.464
-19.979
-21.285
-22.392
-23.307
-24.041
-24.603
-25.004
-25.254
-25.366
-25.351
-25.219
-24.983
-24.654
-24.242
-23.759
-23.215
-22.62
-21.983
-21.313
-20.618
-19.906
-19.184
-18.458
-17.734
-17.018
-16.313
-15.623
-14.953
-14.305
-13.682
-13.086
-12.518
-11.98
-11.473
-10.996
-10.551
-10.136
-9.752
-9.398
-9.073
-8.777
-8.508
-8.266
-8.049
-7.858
-7.692
-7.55
-7.432
-7.339
-7.27
-7.226
-7.206
-7.213
-7.246
-7.306
-7.395
-7.513
-7.662
-7.841
-8.052
-8.295
-8.569
-8.876
-9.214
-9.583
-9.981
-10.408
-10.862
-11.342
-11.845
-12.369
-12.913
-13.473
-14.046
-14.629
-15.219
-15.81
-16.399
-16.981
-17.551
-18.105
-18.636
-19.14
-19.612
-20.045
-20.435
-20.776
-21.063
-21.292
-21.457
-21.555
-21.583
-21.539
-21.421
-21.228
-20.96
-20.619
-20.205
-19.723
-19.175
-18.564
-17.896
-17.175
-16.406
-15.595
-14.748
-13.87
-12.968
-12.049
-11.121
-10.191
-9.266
-8.356
-7.468
-6.611
-5.791
-5.016
-4.288
-3.611
-2.989
-2.426
-1.929
-1.501
-1.14
-0.847
-0.619
-0.453
-0.34
-0.268
-0.211
-0.15
-0.069
0.045
0.197
0.395
0.651
0.975
1.381
1.876
2.458
3.131
3.901
4.758
5.687
6.645
7.556
8.358
8.999
9.432
9.638
9.577
9.192
8.434
7.251
5.604
3.483
0.836
-2.438
-6.349
-10.8
-15.562
-20.239
-24.484
-28.063
-30.693
-32.002
-31.738
-29.92
-26.916
-23.482
-20.389
-18.074
-16.907
-17.466
-20.139
-24.789
-30.723
-36.47
-40.238
-40.769
-36.85
-26.761
-9.086
16.966
51.461
92.987
139.282
188.246
237.05
281.627
317.709
340.882
347.179
334.304
300.731
245.407
168.994
74.023
-35.496
-153.92
-275.232
-393.949
-504.044
-599.693
-676.303
-730.427
-760.701
-767.822
-753.013
-718.19
-666.873
-603.113
-531.398
-456.656
-382.418
-311.289
-246.216
-189.451
-142.221
-105.297
-78.087
-58.917
-46.687
-40.187
-37.45
-36.754
-36.375
-34.603
-30.912
-25.536
-18.563
-10.385
-1.728
6.806
14.341
19.933
23.356
24.783
24.499
23.01
20.8
18.268
15.95
14.398
13.878
14.475
16.139
18.69
22.002
25.977
30.474
35.343
40.448
45.674
50.925
56.136
61.225
66.102
70.678
74.869
78.629
81.945
84.833
87.327
89.467
91.295
92.865
94.235
95.466
96.613
97.725
98.843
100.012
101.275
102.677
104.261
106.055
108.071
110.314
112.78
115.462
118.352
121.431
124.679
128.073
131.596
135.229
138.956
142.756
146.607
150.485
154.366
158.226
162.043
165.795
169.457
173.008
176.426
179.691
182.782
185.68
188.365
190.817
193.018
194.948
196.593
197.938
198.969
199.674
200.045
200.074
199.756
199.089
198.071
196.702
194.985
192.925
190.528
187.802
184.757
181.402
177.751
173.818
169.618
165.167
160.481
155.58
150.482
145.207
139.775
134.205
128.52
122.738
116.881
110.97
105.024
99.064
93.109
87.177
81.288
75.459
69.706
64.046
58.492
53.058
47.758
42.602
37.601
32.765
28.101
23.618
19.32
15.215
11.305
7.595
4.087
0.781
-2.32
-5.218
-7.914
-10.409
-12.705
-14.807
-16.717
-18.441
-19.982
-21.348
-22.542
-23.573
-24.445
-25.168
-25.747
-26.191
-26.506
-26.702
-26.786
-26.765
-26.648
-26.442
-26.156
-25.796
-25.371
-24.887
-24.353
-23.775
-23.161
-22.516
-21.848
-21.162
-20.465
-19.762
-19.058
-18.359
-17.67
-16.994
-16.336
-15.7
-15.089
-14.507
-13.955
-13.437
-12.954
-12.507
-12.099
-11.731
-11.402
-11.114
-10.867
-10.661
-10.496
-10.372
-10.288
-10.244
-10.239
-10.271
-10.339
-10.441
-10.576
-10.743
-10.94
-11.165
-11.417
-11.694
-11.994
-12.317
-12.66
-13.022
-13.401
-13.795
-14.204
-14.627
-15.063
-15.51
-15.967
-16.434
-16.911
-17.395
-17.885
-18.38
-18.878
-19.378
-19.878
-20.375
-20.868
-21.354
-21.831
-22.3
-22.758
-23.204
-23.636
-24.054
-24.455
-24.839
-25.201
-25.538
-25.845
-26.118
-26.354
-26.55
-26.702
-26.808
-26.863
-26.866
-26.817
-26.714
-26.554
-26.33
-26.034
-25.665
-25.228
-24.732
-24.186
-23.596
-22.967
-22.312
-21.644
-20.973
-20.297
-19.606
-18.888
-18.138
-17.362
-16.574
-15.79
-15.012
-14.236
-13.45
-12.652
-11.835
-10.99
-10.095
-9.121
-8.063
-6.935
-5.777
-4.626
-3.506
-2.422
-1.37
-0.343
0.664
1.648
2.608
3.545
4.453
5.316
6.1
6.766
7.307
7.741
8.111
8.462
8.818
9.19
9.573
9.95
10.28
10.512
10.595
10.475
10.129
9.545
8.714
7.619
6.216
4.442
2.227
-0.479
-3.75
-7.694
-12.319
-17.511
-22.999
-28.369
-33.252
-37.416
-40.609
-42.47
-42.824
-41.777
-39.767
-37.644
-36.145
-35.57
-36.142
-38.207
-41.842
-46.678
-51.801
-55.54
-56.193
-52.703
-44.157
-29.439
-7.703
21.371
57.42
98.966
143.932
190.454
236.305
278.394
313.29
337.45
347.472
340.836
315.827
271.039
206.159
122.484
22.66
-89.215
-207.982
-328.156
-444
-549.564
-639.542
-709.63
-756.85
-780.106
-779.649
-756.889
-714.575
-656.474
-587.011
-511.144
-433.567
-358.08
-288.179
-226.663
-175.299
-135.076
-105.757
-85.905
-73.767
-67.588
-65.193
-64.512
-63.698
-61.032
-55.802
-48.195
-38.635
-27.756
-16.434
-5.482
4.197
11.637
16.508
18.953
19.289
18.05
15.764
12.873
9.918
7.464
5.832
5.178
5.527
6.761
8.791
11.543
14.899
18.732
22.925
27.366
31.967
36.656
41.352
45.975
50.444
54.677
58.608
62.179
65.362
68.16
70.589
72.68
74.471
76.003
77.33
78.512
79.604
80.658
81.719
82.823
84.012
85.326
86.802
88.473
90.359
92.467
94.798
97.348
100.11
103.071
106.212
109.512
112.948
116.5
120.151
123.881
127.67
131.493
135.326
139.146
142.927
146.646
150.281
153.806
157.198
160.435
163.496
166.36
169.007
171.417
173.569
175.446
177.03
178.306
179.26
179.881
180.157
180.083
179.652
178.862
177.711
176.2
174.332
172.112
169.546
166.641
163.408
159.857
156.002
151.857
147.437
142.759
137.841
132.703
127.364
121.845
116.168
110.354
104.427
98.408
92.32
86.186
80.028
73.868
67.727
61.626
55.584
49.619
43.751
37.996
32.368
26.883
21.553
16.39
11.406
6.609
2.008
-2.389
-6.576
-10.549
-14.304
-17.837
-21.148
-24.235
-27.099
-29.742
-32.167
-34.377
-36.376
-38.171
-39.767
-41.172
-42.393
-43.438
-44.316
-45.037
-45.61
-46.045
-46.351
-46.538
-46.616
-46.595
-46.484
-46.294
-46.033
-45.711
-45.336
-44.918
-44.463
-43.982
-43.48
-42.965
-42.444
-41.924
-41.409
-40.906
-40.42
-39.954
-39.513
-39.099
-38.717
-38.366
-38.051
-37.77
-37.526
-37.318
-37.145
-37.008
-36.904
-36.834
-36.794
-36.784
-36.802
-36.845
-36.911
-36.998
-37.103
-37.225
-37.36
-37.507
-37.663
-37.826
-37.994
-38.165
-38.337
-38.509
-38.68
-38.848
-39.012
-39.171
-39.326
-39.475
-39.62
-39.76
-39.897
-40.031
-40.164
-40.296
-40.43
-40.568
-40.711
-40.861
-41.021
-41.192
-41.377
-41.578
-41.797
-42.035
-42.294
-42.576
-42.881
-43.211
-43.566
-43.946
-44.35
-44.779
-45.232
-45.708
-46.205
-46.721
-47.255
-47.804
-48.365
-48.934
-49.509
-50.086
-50.659
-51.224
-51.777
-52.313
-52.827
-53.313
-53.766
-54.181
-54.553
-54.876
-55.146
-55.358
-55.507
-55.591
-55.606
-55.549
-55.418
-55.214
-54.936
-54.585
-54.163
-53.671
-53.112
-52.488
-51.804
-51.063
-50.269
-49.425
-48.537
-47.609
-46.649
-45.663
-44.657
-43.639
-42.617
-41.598
-40.592
-39.606
-38.643
-37.708
-36.805
-35.942
-35.128
-34.37
-33.668
-33.023
-32.433
-31.897
-31.41
-30.958
-30.517
-30.063
-29.575
-29.039
-28.447
-27.791
-27.057
-26.23
-25.294
-24.243
-23.081
-21.819
-20.453
-18.995
-17.475
-15.939
-14.474
-13.17
-12.095
-11.312
-10.873
-10.814
-11.2
-12.101
-13.567
-15.647
-18.367
-21.724
-25.767
-30.565
-36.038
-41.994
-48.115
-53.953
-59.169
-63.559
-66.789
-68.442
-68.371
-66.667
-63.744
-60.379
-57.085
-54.002
-51.471
-50.037
-49.818
-50.558
-51.434
-50.937
-47.957
-41.939
-31.917
-16.516
5.112
33.365
67.724
106.442
147.988
190.91
232.564
269.235
297.098
312.184
311.295
292.525
253.836
193.901
113.422
14.959
-97.397
-218.173
-341.592
-461.913
-572.467
-667.002
-740.647
-790.04
-813.906
-812.599
-787.527
-741.371
-678.453
-603.841
-522.954
-440.951
-361.845
-289.185
-225.889
-173.755
-133.503
-104.601
-85.327
-73.634
-67.639
-65.092
-63.88
-62.217
-58.506
-52.163
-43.498
-33.021
-21.417
-9.6
1.646
11.492
19.069
24.144
26.902
27.663
26.968
25.343
23.207
21.072
19.43
18.514
18.428
19.154
20.556
22.557
25.073
27.982
31.17
34.536
38.016
41.591
45.236
48.903
52.555
56.147
59.663
63.133
66.56
69.962
73.369
76.793
80.265
83.827
87.492
91.266
95.144
99.086
103.074
107.11
111.179
115.278
119.386
123.454
127.459
131.386
135.215
138.939
142.548
146.022
149.367
152.603
155.758
158.876
161.988
165.101
168.228
171.374
174.548
177.766
181.031
184.329
187.649
190.977
194.297
197.6
200.863
204.048
207.119
210.034
212.756
215.261
217.524
219.524
221.239
222.651
223.748
224.524
224.973
225.088
224.863
224.29
223.369
222.101
220.493
218.549
216.276
213.679
210.766
207.546
204.029
200.225
196.142
191.792
187.188
182.345
177.281
172.014
166.563
160.948
155.19
149.312
143.334
137.279
131.168
125.022
118.863
112.711
106.587
100.51
94.5
88.574
82.751
77.046
71.475
66.054
60.795
55.71
50.811
46.109
41.612
37.327
33.263
29.424
25.814
22.437
19.294
16.384
13.708
11.261
9.041
7.043
5.26
3.685
2.312
1.13
0.132
-0.693
-1.354
-1.862
-2.227
-2.46
-2.573
-2.575
-2.478
-2.293
-2.03
-1.7
-1.312
-0.876
-0.401
0.104
0.631
1.172
1.719
2.266
2.807
3.335
3.847
4.337
4.803
5.241
5.648
6.025
6.368
6.677
6.953
7.194
7.403
7.579
7.724
7.839
7.926
7.986
8.021
8.034
8.025
7.998
7.953
7.893
7.82
7.735
7.639
7.535
7.424
7.306
7.184
7.057
6.928
6.796
6.662
6.526
6.389
6.25
6.109
5.966
5.821
5.672
5.519
5.362
5.199
5.031
4.857
4.676
4.487
4.291
4.086
3.873
3.651
3.421
3.182
2.936
2.681
2.42
2.153
1.881
1.604
1.325
1.045
0.766
0.489
0.215
-0.053
-0.313
-0.563
-0.801
-1.024
-1.231
-1.418
-1.583
-1.723
-1.836
-1.919
-1.97
-1.987
-1.967
-1.909
-1.811
-1.671
-1.488
-1.262
-0.99
-0.674
-0.313
0.092
0.541
1.03
1.559
2.123
2.72
3.345
3.994
4.662
5.344
6.036
6.731
7.424
8.11
8.784
9.44
10.072
10.672
11.234
11.754
12.223
12.638
12.99
13.273
13.483
13.621
13.685
13.673
13.584
13.411
13.154
12.819
12.408
11.925
11.377
10.77
10.119
9.449
8.782
8.141
7.541
6.986
6.489
6.062
5.717
5.472
5.329
5.283
5.335
5.482
5.716
6.018
6.349
6.632
6.794
6.768
6.489
5.917
5.015
3.736
2.024
-0.175
-2.901
-6.189
-10.042
-14.502
-19.639
-25.398
-31.604
-37.953
-43.971
-49.243
-53.502
-56.387
-57.475
-56.712
-54.252
-50.563
-46.695
-43.438
-41.232
-40.805
-42.728
-46.861
-52.797
-59.441
-64.662
-66.85
-64.639
-56.004
-39.491
-14.512
19.088
60.071
105.891
154.238
202.066
244.856
278.41
298.814
302.162
285.895
248.55
188.826
108.205
11.779
-96.688
-213.691
-336.26
-464.741
-592.565
-707.144
-797.286
-850.663
-864.904
-848.913
-810.867
-760.426
-703.286
-638.034
-565.992
-489.694
-412.206
-339.532
-275.739
-222.587
-181.057
-150.418
-129.03
-115.322
-107.677
-103.993
-102.289
-100.791
-97.785
-92.533
-85.192
-76.135
-65.923
-55.369
-45.212
-36.277
-29.525
-25.287
-23.391
-23.502
-25.067
-27.544
-30.484
-33.343
-35.522
-36.674
-36.664
-35.488
-33.293
-30.201
-26.297
-21.717
-16.617
-11.139
-5.418
0.433
6.332
12.188
17.898
23.363
28.486
33.187
37.424
41.191
44.498
47.375
49.859
51.99
53.824
55.425
56.851
58.162
59.406
60.629
61.876
63.195
64.633
66.229
68.01
69.988
72.167
74.546
77.122
79.884
82.819
85.907
89.129
92.47
95.914
99.447
103.052
106.708
110.394
114.088
117.771
121.423
125.022
128.55
131.984
135.305
138.495
141.536
144.408
147.091
149.568
151.819
153.826
155.574
157.047
158.231
159.115
159.688
159.943
159.873
159.473
158.741
157.675
156.277
154.55
152.496
150.123
147.438
144.448
141.167
137.604
133.774
129.691
125.371
120.832
116.09
111.165
106.077
100.845
95.489
90.03
84.49
78.889
73.249
67.589
61.932
56.295
50.7
45.164
39.705
34.341
29.088
23.959
18.971
14.134
9.462
4.966
0.653
-3.465
-7.383
-11.094
-14.593
-17.875
-20.938
-23.78
-26.4
-28.799
-30.977
-32.937
-34.682
-36.217
-37.545
-38.674
-39.608
-40.356
-40.924
-41.321
-41.555
-41.635
-41.571
-41.371
-41.044
-40.601
-40.051
-39.404
-38.669
-37.855
-36.971
-36.027
-35.03
-33.99
-32.914
-31.81
-30.685
-29.546
-28.399
-27.252
-26.108
-24.974
-23.854
-22.752
-21.672
-20.618
-19.591
-18.595
-17.631
-16.702
-15.808
-14.949
-14.128
-13.343
-12.595
-11.883
-11.207
-10.565
-9.957
-9.382
-8.839
-8.325
-7.84
-7.382
-6.949
-6.541
-6.156
-5.792
-5.448
-5.123
-4.816
-4.525
-4.251
-3.991
-3.746
-3.516
-3.299
-3.096
-2.907
-2.732
-2.571
-2.425
-2.294
-2.178
-2.079
-1.997
-1.933
-1.887
-1.862
-1.856
-1.873
-1.911
-1.972
-2.057
-2.166
-2.299
-2.458
-2.641
-2.849
-3.081
-3.337
-3.617
-3.918
-4.24
-4.581
-4.939
-5.312
-5.697
-6.093
-6.495
-6.902
-7.309
-7.715
-8.114
-8.504
-8.881
-9.241
-9.579
-9.893
-10.178
-10.431
-10.648
-10.826
-10.961
-11.051
-11.092
-11.083
-11.021
-10.904
-10.73
-10.501
-10.214
-9.87
-9.47
-9.016
-8.511
-7.959
-7.363
-6.728
-6.058
-5.358
-4.635
-3.894
-3.139
-2.373
-1.604
-0.834
-0.072
0.678
1.408
2.114
2.788
3.425
4.02
4.57
5.078
5.542
5.963
6.34
6.667
6.941
7.159
7.323
7.434
7.497
7.52
7.522
7.527
7.559
7.64
7.782
7.993
8.281
8.655
9.125
9.709
10.417
11.254
12.227
13.333
14.557
15.869
17.206
18.483
19.624
20.557
21.234
21.61
21.617
21.196
20.286
18.818
16.765
14.064
10.612
6.423
1.624
-3.555
-8.711
-13.467
-17.593
-20.738
-22.476
-22.701
-21.54
-19.439
-17.241
-15.531
-14.518
-14.613
-16.362
-19.77
-24.408
-29.204
-32.381
-32.613
-29.127
-20.759
-6.025
15.898
45.224
81.131
121.524
164.542
208.437
250.309
286.319
312.691
325.737
322.742
302.387
263.21
204.378
127.042
33.986
-70.705
-181.8
-294.271
-403.391
-503.45
-589.135
-656.535
-702.922
-727.548
-731.151
-714.608
-679.619
-629.575
-568.433
-500.447
-429.938
-359.907
-292.902
-231.886
-179.157
-135.956
-102.578
-78.086
-60.971
-50.199
-44.414
-41.616
-39.852
-37.254
-32.737
-26.286
-18.234
-8.881
1.249
11.407
20.691
28.029
32.891
35.374
35.775
34.571
32.254
29.261
26.145
23.536
21.831
21.188
21.629
23.024
25.257
28.262
31.921
36.097
40.67
45.521
50.56
55.714
60.899
66.018
70.977
75.677
80.037
84.011
87.584
90.768
93.594
96.094
98.307
100.283
102.078
103.749
105.349
106.926
108.519
110.173
111.934
113.845
115.95
118.273
120.826
123.612
126.627
129.862
133.307
136.943
140.746
144.693
148.763
152.937
157.196
161.519
165.881
170.256
174.617
178.939
183.199
187.371
191.432
195.358
199.125
202.712
206.099
209.265
212.189
214.849
217.227
219.303
221.062
222.486
223.563
224.28
224.627
224.597
224.184
223.385
222.199
220.625
218.668
216.33
213.619
210.543
207.111
203.336
199.232
194.812
190.093
185.093
179.831
174.326
168.599
162.671
156.565
150.303
143.908
137.402
130.81
124.153
117.455
110.738
104.025
97.337
90.695
84.119
77.629
71.244
64.98
58.854
52.88
47.074
41.446
36.009
30.772
25.744
20.933
16.344
11.983
7.853
3.957
0.294
-3.133
-6.328
-9.292
-12.027
-14.539
-16.832
-18.911
-20.784
-22.457
-23.938
-25.234
-26.356
-27.312
-28.111
-28.763
-29.278
-29.667
-29.938
-30.103
-30.172
-30.153
-30.056
-29.891
-29.667
-29.391
-29.073
-28.718
-28.336
-27.931
-27.511
-27.08
-26.643
-26.206
-25.771
-25.343
-24.924
-24.517
-24.125
-23.75
-23.393
-23.055
-22.738
-22.441
-22.166
-21.913
-21.682
-21.472
-21.283
-21.115
-20.967
-20.839
-20.731
-20.642
-20.571
-20.519
-20.485
-20.47
-20.472
-20.494
-20.535
-20.595
-20.677
-20.782
-20.909
-21.061
-21.238
-21.441
-21.672
-21.932
-22.219
-22.536
-22.881
-23.256
-23.66
-24.093
-24.555
-25.045
-25.561
-26.102
-26.667
-27.254
-27.859
-28.481
-29.116
-29.761
-30.412
-31.065
-31.717
-32.362
-32.995
-33.611
-34.204
-34.769
-35.298
-35.786
-36.227
-36.614
-36.943
-37.207
-37.404
-37.529
-37.58
-37.555
-37.451
-37.268
-37.004
-36.66
-36.234
-35.727
-35.14
-34.475
-33.734
-32.922
-32.046
-31.112
-30.129
-29.103
-28.043
-26.957
-25.855
-24.744
-23.63
-22.522
-21.429
-20.365
-19.346
-18.385
-17.487
-16.656
-15.894
-15.2
-14.568
-13.987
-13.438
-12.908
-12.388
-11.876
-11.377
-10.891
-10.41
-9.925
-9.418
-8.885
-8.33
-7.753
-7.156
-6.552
-5.955
-5.408
-4.967
-4.667
-4.529
-4.563
-4.767
-5.149
-5.736
-6.55
-7.61
-8.932
-10.511
-12.344
-14.441
-16.804
-19.428
-22.276
-25.291
-28.427
-31.687
-35.131
-38.726
-42.333
-45.719
-48.523
-50.443
-51.309
-50.855
-48.72
-44.877
-39.533
-33.199
-26.935
-21.543
-17.416
-15.189
-15.428
-18.054
-22.711
-28.336
-32.818
-34.576
-32.458
-24.757
-10.11
12.16
42.408
79.607
121.308
165.394
209.418
249.702
282.554
304.161
310.694
299.954
270.926
222.617
155.292
71.049
-27.045
-134.314
-245.149
-354.814
-458.523
-551.003
-627.894
-685.969
-723.052
-739.169
-735.54
-713.146
-674.046
-621.473
-558.969
-490.607
-420.339
-350.776
-284.248
-223.585
-170.861
-127.371
-93.547
-68.48
-50.875
-39.832
-34.043
-31.597
-30.611
-29.217
-26.29
-21.768
-15.85
-8.733
-0.882
7.053
14.243
19.693
22.95
24.148
23.601
21.773
19.148
16.15
13.317
11.264
10.332
10.629
12.13
14.671
18.118
22.379
27.307
32.726
38.482
44.437
50.484
56.544
62.517
68.293
73.771
78.854
83.489
87.661
91.371
94.649
97.53
100.056
102.28
104.264
106.065
107.741
109.346
110.923
112.521
114.189
115.973
117.919
120.053
122.39
124.936
127.688
130.641
133.784
137.102
140.574
144.182
147.909
151.736
155.65
159.631
163.657
167.708
171.76
175.792
179.782
183.709
187.553
191.291
194.904
198.372
201.675
204.794
207.708
210.398
212.844
215.027
216.932
218.543
219.845
220.826
221.475
221.784
221.746
221.357
220.614
219.514
218.06
216.253
214.097
211.599
208.767
205.609
202.136
198.362
194.299
189.964
185.372
180.541
175.49
170.239
164.807
159.217
153.488
147.643
141.704
135.693
129.632
123.542
117.445
111.363
105.314
99.319
93.397
87.566
81.842
76.242
70.78
65.47
60.325
55.356
50.573
45.987
41.604
37.431
33.475
29.738
26.226
22.94
19.88
17.047
14.439
12.055
9.892
7.944
6.208
4.677
3.346
2.207
1.253
0.475
-0.136
-0.588
-0.89
-1.053
-1.087
-1.001
-0.806
-0.511
-0.128
0.335
0.867
1.459
2.101
2.784
3.501
4.241
4.997
5.762
6.529
7.29
8.039
8.77
9.479
10.158
10.805
11.415
11.984
12.508
12.985
13.413
13.788
14.109
14.374
14.583
14.734
14.828
14.864
14.843
14.764
14.629
14.439
14.195
13.897
13.547
13.145
12.694
12.194
11.647
11.052
10.411
9.725
8.994
8.219
7.4
6.537
5.632
4.683
3.692
2.659
1.583
0.466
-0.693
-1.894
-3.135
-4.416
-5.737
-7.097
-8.497
-9.934
-11.41
-12.924
-14.474
-16.06
-17.682
-19.337
-21.024
-22.741
-24.486
-26.256
-28.048
-29.858
-31.682
-33.518
-35.359
-37.201
-39.039
-40.867
-42.68
-44.473
-46.238
-47.97
-49.665
-51.315
-52.916
-54.463
-55.95
-57.373
-58.728
-60.011
-61.218
-62.346
-63.391
-64.351
-65.224
-66.008
-66.703
-67.307
-67.822
-68.252
-68.599
-68.868
-69.064
-69.191
-69.256
-69.267
-69.23
-69.152
-69.04
-68.902
-68.747
-68.586
-68.43
-68.291
-68.178
-68.104
-68.079
-68.115
-68.222
-68.409
-68.683
-69.055
-69.535
-70.139
-70.882
-71.773
-72.82
-74.03
-75.403
-76.934
-78.615
-80.425
-82.35
-84.371
-86.469
-88.631
-90.835
-93.058
-95.28
-97.478
-99.63
-101.723
-103.741
-105.666
-107.506
-109.284
-111.032
-112.797
-114.598
-116.444
-118.371
-120.435
-122.707
-125.24
-128.036
-131.052
-134.277
-137.746
-141.462
-145.311
-149.015
-152.233
-154.737
-156.494
-157.553
-157.771
-156.955
-155.165
-152.814
-150.56
-148.916
-147.768
-146.576
-145.102
-143.16
-140.19
-135.163
-126.444
-112.57
-93.336
-69.411
-41.402
-10.163
23.035
56.253
86.395
110.529
127.22
135.934
136.502
129.202
114.447
93.586
69.441
