-36.331
-58.052
-76.298
-89.418
-95.926
-93.936
-82.153
-60.106
-28.168
11.621
56.401
103.779
150.817
193.364
227.216
248.298
252.966
239.05
205.347
150.892
75.826
-16.496
-121.499
-235.381
-352.662
-470.574
-586.525
-691.299
-777.976
-839.683
-869.782
-872.493
-852.427
-813.693
-763.428
-702.854
-633.412
-559.194
-482.607
-407.806
-339.156
-278.922
-228.65
-188.953
-159.218
-138.167
-124.431
-116.442
-112.121
-109.575
-107.144
-103.267
-97.36
-89.595
-80.234
-69.824
-59.194
-49.049
-40.187
-33.448
-29.037
-26.755
-26.285
-27.104
-28.696
-30.634
-32.403
-33.475
-33.574
-32.603
-30.583
-27.657
-23.941
-19.526
-14.545
-9.148
-3.469
2.371
8.271
14.162
19.962
25.584
30.947
35.972
40.598
44.801
48.584
51.967
54.986
57.683
60.103
62.304
64.349
66.297
68.204
70.117
72.076
74.125
76.305
78.656
81.211
83.992
87.005
90.25
93.723
97.412
101.306
105.386
109.628
114.009
118.509
123.107
127.785
132.521
137.287
142.061
146.814
151.522
156.161
160.704
165.126
169.402
173.507
177.419
181.114
184.571
187.765
190.674
193.277
195.554
197.485
199.055
200.246
201.045
201.441
201.425
200.99
200.132
198.847
197.134
194.995
192.432
189.453
186.062
182.271
178.089
173.53
168.608
163.34
157.743
151.837
145.643
139.182
132.478
125.554
118.435
111.146
103.713
96.162
88.519
80.811
73.063
65.301
57.551
49.838
42.186
34.617
27.155
19.821
12.635
5.616
-1.217
-7.848
-14.261
-20.442
-26.378
-32.057
-37.469
-42.605
-47.458
-52.022
-56.293
-60.267
-63.944
-67.322
-70.404
-73.191
-75.687
-77.898
-79.829
-81.487
-82.881
-84.021
-84.915
-85.575
-86.011
-86.237
-86.264
-86.106
-85.775
-85.285
-84.65
-83.883
-82.998
-82.01
-80.931
-79.776
-78.557
-77.288
-75.981
-74.648
-73.301
-71.952
-70.611
-69.287
-67.991
-66.73
-65.513
-64.347
-63.238
-62.191
-61.212
-60.303
-59.47
-58.713
-58.035
-57.437
-56.919
-56.481
-56.122
-55.839
-55.632
-55.497
-55.432
-55.432
-55.493
-55.613
-55.784
-56.004
-56.267
-56.567
-56.9
-57.259
-57.639
-58.036
-58.443
-58.856
-59.269
-59.678
-60.078
-60.466
-60.837
-61.189
-61.518
-61.822
-62.098
-62.345
-62.561
-62.745
-62.898
-63.018
-63.107
-63.164
-63.19
-63.187
-63.156
-63.098
-63.016
-62.91
-62.783
-62.637
-62.473
-62.294
-62.1
-61.896
-61.681
-61.459
-61.23
-60.996
-60.759
-60.519
-60.277
-60.033
-59.787
-59.538
-59.286
-59.03
-58.768
-58.499
-58.221
-57.93
-57.626
-57.303
-56.961
-56.595
-56.203
-55.781
-55.327
-54.839
-54.314
-53.752
-53.152
-52.513
-51.837
-51.123
-50.372
-49.585
-48.765
-47.913
-47.031
-46.121
-45.186
-44.229
-43.256
-42.272
-41.281
-40.29
-39.304
-38.329
-37.372
-36.442
-35.543
-34.682
-33.862
-33.088
-32.368
-31.712
-31.126
-30.61
-30.162
-29.78
-29.46
-29.198
-28.985
-28.802
-28.631
-28.455
-28.262
-28.049
-27.809
-27.534
-27.208
-26.814
-26.347
-25.811
-25.219
-24.581
-23.909
-23.217
-22.543
-21.947
-21.494
-21.251
-21.265
-21.569
-22.206
-23.207
-24.621
-26.507
-28.905
-31.841
-35.334
-39.371
-43.974
-49.197
-54.972
-61.113
-67.346
-73.245
-78.458
-82.764
-85.851
-87.336
-87.042
-85.02
-81.643
-77.761
-74.142
-71.235
-69.544
-69.586
-71.549
-75.249
-79.924
-83.925
-85.518
-83.364
-76.005
-62.012
-40.452
-10.902
26.219
69.142
115.496
162.749
207.539
245.909
273.989
288.112
284.953
262.248
218.828
154.21
70.552
-27.146
-135.006
-249.373
-367.33
-488.573
-606.661
-710.473
-789.979
-834.153
-841.695
-820.917
-779.573
-727.196
-668.711
-602.746
-530.677
-454.607
-377.472
-304.982
-240.838
-186.658
-143.553
-111.018
-87.644
-72.166
-63.097
-58.368
-56.062
-54.393
-51.561
-46.729
-39.919
-31.342
-21.478
-11.112
-0.946
8.173
15.273
20.024
22.562
23.185
22.428
20.829
18.839
17.025
15.994
16.063
17.345
19.824
23.333
27.747
32.97
38.851
45.217
51.916
58.815
65.807
72.815
79.739
86.467
92.891
98.908
104.459
109.524
114.101
118.214
121.895
125.181
128.127
130.793
133.24
135.525
137.699
139.808
141.902
144.03
146.242
148.588
151.097
153.788
156.667
159.736
162.99
166.422
170.017
173.755
177.62
181.593
185.661
189.81
194.024
198.282
202.564
206.848
211.115
215.345
219.518
223.614
227.615
231.499
235.249
238.848
242.276
245.515
248.543
251.343
253.896
256.184
258.192
259.905
261.308
262.391
263.143
263.557
263.628
263.349
262.718
261.735
260.4
258.716
256.687
254.318
251.618
248.596
245.262
241.628
237.709
233.518
229.073
224.389
219.487
214.384
209.101
203.658
198.077
192.378
186.584
180.716
174.797
168.847
162.888
156.94
151.025
145.162
139.368
133.663
128.062
122.582
117.236
112.039
107.003
102.138
97.455
92.961
88.665
84.573
80.688
77.015
73.555
70.309
67.278
64.459
61.85
59.448
57.247
55.242
53.426
51.793
50.333
49.038
47.9
46.908
46.052
45.323
44.709
44.199
43.785
43.454
43.196
43.002
42.862
42.766
42.705
42.67
42.654
42.649
42.648
42.645
42.633
42.609
42.566
42.502
42.414
42.297
42.152
41.976
41.768
41.529
41.258
40.957
40.625
40.265
39.878
39.466
39.031
38.576
38.103
37.614
37.113
36.602
36.082
35.558
35.03
34.502
33.974
33.449
32.928
32.413
31.903
31.4
30.904
30.416
29.935
29.46
28.991
28.527
28.066
27.606
27.146
26.684
26.217
25.744
25.261
24.767
24.258
23.732
23.187
22.621
22.031
21.414
20.769
20.095
19.389
18.65
17.878
17.073
16.234
15.362
14.458
13.522
12.558
11.565
10.546
9.504
8.443
7.364
6.272
5.171
4.066
2.962
1.863
0.775
-0.296
-1.344
-2.365
-3.351
-4.297
-5.196
-6.042
-6.829
-7.551
-8.202
-8.776
-9.269
-9.675
-9.991
-10.214
-10.341
-10.371
-10.305
-10.142
-9.882
-9.528
-9.08
-8.541
-7.914
-7.203
-6.41
-5.541
-4.602
-3.6
-2.543
-1.439
-0.298
0.873
2.064
3.265
4.469
5.664
6.844
8.001
9.123
10.201
11.222
12.177
13.062
13.876
14.621
15.3
15.918
16.485
17.018
17.528
18.027
18.525
19.024
19.533
20.062
20.623
21.23
21.892
22.607
23.371
24.179
25.013
25.853
26.67
27.414
28.039
28.511
28.788
28.831
28.604
28.061
27.168
25.908
24.25
22.17
19.644
16.639
13.153
9.212
4.826
-0.001
-5.187
-10.575
-15.907
-20.802
-24.939
-28.086
-29.968
-30.245
-28.75
-25.607
-21.24
-16.411
-11.843
-7.935
-5.118
-4.035
-5.014
-7.815
-11.669
-15.119
-16.57
-14.963
-9.142
2.544
21.299
47.578
81.076
120.256
162.91
206.943
249.504
286.477
313.769
327.689
324.77
302.646
260.126
196.401
113.174
15.495
-92.644
-207.618
-326.347
-448.512
-567.867
-673.186
-754.332
-800.382
-809.85
-790.921
-751.321
-700.4
-643.124
-578.228
-507.136
-432.054
-355.963
-284.611
-221.753
-169.047
-127.608
-96.895
-75.444
-61.913
-54.739
-51.782
-51.079
-50.823
-49.228
-45.508
-39.734
-32.173
-23.359
-14.109
-5.147
2.675
8.402
11.713
12.749
11.82
9.468
6.225
2.537
-1.046
-3.941
-5.817
-6.537
-6.108
-4.672
-2.348
0.77
4.549
8.83
13.472
18.353
23.369
28.445
33.496
38.427
43.146
47.567
51.621
55.271
58.513
61.363
63.852
66.02
67.911
69.581
71.091
72.501
73.866
75.234
76.649
78.153
79.791
81.604
83.628
85.886
88.386
91.129
94.11
97.32
100.745
104.367
108.163
112.11
116.188
120.376
124.657
129.007
133.403
137.819
142.231
146.614
150.944
155.198
159.352
163.382
167.266
170.981
174.508
177.825
180.911
183.744
186.305
188.575
190.536
192.173
193.471
194.418
195.004
195.22
195.06
194.521
193.599
192.295
190.61
188.547
186.112
183.311
180.153
176.649
172.81
168.649
164.182
159.425
154.395
149.111
143.592
137.858
131.931
125.832
119.584
113.209
106.73
100.171
93.553
86.9
80.234
73.577
66.952
60.378
53.875
47.463
41.161
34.984
28.95
23.073
17.368
11.848
6.523
1.405
-3.496
-8.173
-12.619
-16.828
-20.795
-24.517
-27.993
-31.22
-34.201
-36.935
-39.425
-41.676
-43.691
-45.477
-47.04
-48.387
-49.527
-50.468
-51.22
-51.793
-52.197
-52.443
-52.543
-52.507
-52.348
-52.076
-51.703
-51.242
-50.702
-50.096
-49.434
-48.728
-47.987
-47.222
-46.442
-45.657
-44.876
-44.105
-43.355
-42.63
-41.939
-41.286
-40.676
-40.115
-39.606
-39.153
-38.758
-38.423
-38.149
-37.937
-37.788
-37.701
-37.676
-37.711
-37.805
-37.956
-38.161
-38.418
-38.725
-39.078
-39.474
-39.911
-40.385
-40.892
-41.429
-41.993
-42.58
-43.187
-43.811
-44.448
-45.095
-45.751
-46.411
-47.074
-47.738
-48.402
-49.062
-49.719
-50.372
-51.018
-51.659
-52.294
-52.922
-53.546
-54.164
-54.777
-55.388
-55.995
-56.601
-57.206
-57.811
-58.416
-59.023
-59.632
-60.243
-60.856
-61.473
-62.093
-62.717
-63.345
-63.975
-64.609
-65.245
-65.882
-66.519
-67.155
-67.787
-68.414
-69.034
-69.644
-70.241
-70.823
-71.385
-71.925
-72.438
-72.921
-73.37
-73.779
-74.146
-74.466
-74.736
-74.954
-75.115
-75.219
-75.263
-75.249
-75.175
-75.041
-74.847
-74.595
-74.284
-73.917
-73.494
-73.016
-72.486
-71.907
-71.283
-70.617
-69.915
-69.183
-68.423
-67.643
-66.847
-66.043
-65.236
-64.431
-63.633
-62.847
-62.082
-61.347
-60.65
-59.992
-59.371
-58.785
-58.228
-57.694
-57.174
-56.648
-56.101
-55.516
-54.882
-54.194
-53.445
-52.629
-51.731
-50.735
-49.638
-48.443
-47.165
-45.82
-44.425
-43.005
-41.601
-40.279
-39.099
-38.125
-37.411
-36.996
-36.928
-37.25
-37.999
-39.215
-40.933
-43.172
-45.94
-49.244
-53.064
-57.394
-62.234
-67.459
-72.872
-78.207
-83.088
-87.2
-90.327
-92.154
-92.302
-90.697
-87.455
-82.946
-78.003
-73.222
-68.908
-65.647
-64.011
-64.064
-65.64
-67.976
-69.418
-68.754
-65.07
-56.872
-42.919
-22.512
4.78
38.19
75.72
115.57
155.479
191.977
221.521
240.38
244.808
232.465
201.978
152.229
83.542
-2.007
-101.265
-209.517
-321.238
-431.376
-534.579
-625.408
-699.542
-753.722
-786.032
-796.547
-786.314
-756.92
-711.289
-653.074
-586.169
-514.899
-443.045
-373.424
-308.794
-251.427
-202.643
-163.259
-133.112
-111.001
-95.696
-85.965
-80.07
-76.39
-73.415
-69.609
-64.33
-57.659
-49.771
-41.072
-32.21
-23.752
-16.423
-11.052
-7.891
-6.797
-7.478
-9.435
-12.187
-15.327
-18.347
-20.705
-22.089
-22.366
-21.538
-19.736
-17.067
-13.617
-9.506
-4.88
0.128
5.4
10.835
16.354
21.877
27.308
32.557
37.54
42.185
46.457
50.355
53.896
57.109
60.035
62.716
65.202
67.555
69.831
72.081
74.352
76.682
79.112
81.683
84.436
87.401
90.6
94.037
97.71
101.61
105.726
110.042
114.537
119.184
123.959
128.838
133.802
138.827
143.891
148.968
154.029
159.049
164.002
168.863
173.607
178.209
182.646
186.893
190.93
194.736
198.29
201.57
204.557
207.232
209.578
211.577
213.218
214.487
215.374
215.871
215.972
215.676
214.98
213.885
212.395
210.514
208.248
205.607
202.602
199.243
195.546
191.526
187.199
182.584
177.701
172.57
167.213
161.652
155.91
150.01
143.978
137.836
131.609
125.322
118.997
112.659
106.331
100.035
93.792
87.624
81.551
75.59
69.76
64.076
58.553
53.205
48.045
43.082
38.326
33.787
29.47
25.382
21.526
17.906
14.523
11.378
8.471
5.799
3.36
1.149
-0.837
-2.605
-4.161
-5.512
-6.666
-7.631
-8.417
-9.033
-9.488
-9.792
-9.956
-9.99
-9.904
-9.709
-9.413
-9.028
-8.563
-8.027
-7.429
-6.779
-6.084
-5.353
-4.593
-3.812
-3.016
-2.212
-1.406
-0.603
0.191
0.972
1.736
2.479
3.197
3.887
4.547
5.174
5.765
6.32
6.836
7.313
7.75
8.145
8.498
8.809
9.078
9.304
9.488
9.63
9.73
9.788
9.804
9.779
9.712
9.605
9.457
9.27
9.043
8.778
8.474
8.132
7.754
7.339
6.889
6.405
5.888
5.339
4.761
4.153
3.52
2.862
2.183
1.484
0.769
0.039
-0.701
-1.45
-2.204
-2.96
-3.715
-4.465
-5.207
-5.937
-6.651
-7.345
-8.016
-8.659
-9.27
-9.847
-10.383
-10.877
-11.323
-11.718
-12.058
-12.34
-12.561
-12.717
-12.808
-12.83
-12.782
-12.665
-12.479
-12.224
-11.902
-11.517
-11.071
-10.566
-10.005
-9.394
-8.736
-8.036
-7.296
-6.523
-5.722
-4.9
-4.064
-3.222
-2.379
-1.544
-0.725
0.073
0.841
1.571
2.259
2.898
3.483
4.007
4.461
4.839
5.142
5.372
5.535
5.637
5.684
5.688
5.668
5.64
5.62
5.622
5.649
5.712
5.82
5.985
6.225
6.548
6.948
7.419
7.95
8.523
9.125
9.727
10.272
10.716
11.012
11.109
10.98
10.593
9.904
8.892
7.517
5.739
3.543
0.906
-2.188
-5.718
-9.699
-14.157
-19
-24.067
-29.114
-33.775
-37.757
-40.86
-42.805
-43.255
-42.047
-39.278
-35.362
-31.04
-26.994
-23.613
-21.288
-20.592
-21.847
-24.844
-28.844
-32.459
-34.133
-32.785
-27.33
-16.261
1.56
26.579
58.529
95.976
136.775
178.833
219.424
254.756
280.94
294.261
291.455
270.49
230.292
170.471
92.059
-2.104
-107.913
-220.268
-333.521
-442.146
-540.751
-624.354
-688.923
-731.902
-752.429
-750.962
-729.091
-689.39
-635.242
-570.668
-500.145
-427.875
-357.212
-291.164
-232.149
-181.811
-141.201
-110.287
-87.933
-72.691
-63.15
-57.541
-54.135
-51.283
-47.313
-41.437
-33.723
-24.456
-14.115
-3.392
7.075
16.491
23.908
28.958
31.733
32.494
31.729
29.917
27.444
24.817
22.599
21.123
20.561
20.953
22.185
24.168
26.836
30.074
33.756
37.768
41.997
46.354
50.775
55.183
59.504
63.661
67.578
71.192
74.45
77.328
79.835
81.988
83.822
85.379
86.701
87.842
88.866
89.827
90.777
91.763
92.823
93.998
95.33
96.858
98.614
100.622
102.887
105.414
108.199
111.235
114.51
118.007
121.703
125.576
129.607
133.775
138.062
142.444
146.897
151.394
155.909
160.416
164.889
169.301
173.626
177.838
181.912
185.824
189.55
193.067
196.351
199.379
202.129
204.58
206.712
208.509
209.953
211.031
211.731
212.043
211.961
211.48
210.596
209.31
207.621
205.535
203.056
200.192
196.953
193.35
189.397
185.108
180.501
175.593
170.404
164.956
159.269
153.367
147.273
141.012
134.609
128.089
121.476
114.798
108.078
101.343
94.616
87.922
81.284
74.724
68.265
61.927
55.728
49.687
43.821
38.145
32.673
27.417
22.389
17.599
13.055
8.764
4.73
0.959
-2.548
-5.79
-8.767
-11.481
-13.935
-16.132
-18.078
-19.781
-21.246
-22.483
-23.502
-24.311
-24.922
-25.346
-25.594
-25.68
-25.614
-25.411
-25.082
-24.64
-24.098
-23.468
-22.762
-21.992
-21.169
-20.304
-19.408
-18.491
-17.562
-16.629
-15.702
-14.787
-13.891
-13.021
-12.181
-11.377
-10.612
-9.89
-9.213
-8.583
-8.002
-7.469
-6.986
-6.552
-6.166
-5.826
-5.53
-5.277
-5.063
-4.885
-4.742
-4.629
-4.543
-4.481
-4.439
-4.414
-4.402
-4.401
-4.408
-4.418
-4.431
-4.443
-4.452
-4.456
-4.454
-4.444
-4.426
-4.398
-4.361
-4.315
-4.261
-4.198
-4.127
-4.052
-3.972
-3.89
-3.808
-3.728
-3.654
-3.586
-3.529
-3.485
-3.457
-3.447
-3.457
-3.49
-3.549
-3.634
-3.748
-3.893
-4.07
-4.28
-4.524
-4.803
-5.116
-5.463
-5.844
-6.258
-6.701
-7.173
-7.672
-8.194
-8.736
-9.295
-9.866
-10.446
-11.03
-11.613
-12.19
-12.756
-13.306
-13.834
-14.335
-14.806
-15.241
-15.638
-15.992
-16.301
-16.563
-16.776
-16.939
-17.049
-17.106
-17.109
-17.059
-16.954
-16.794
-16.58
-16.314
-15.999
-15.638
-15.233
-14.787
-14.305
-13.792
-13.253
-12.694
-12.113
-11.515
-10.903
-10.281
-9.66
-9.044
-8.432
-7.823
-7.216
-6.61
-6.004
-5.387
-4.739
-4.042
-3.282
-2.451
-1.548
-0.574
0.482
1.629
2.878
4.229
5.666
7.175
8.75
10.379
12.036
13.676
15.221
16.587
17.716
18.556
19.067
19.222
18.965
18.235
16.983
15.166
12.766
9.793
6.207
1.938
-2.972
-8.376
-13.988
-19.373
-24.168
-28.133
-30.964
-32.288
-31.92
-29.904
-26.616
-22.914
-19.606
-17.193
-16.197
-17.134
-20.179
-25.128
-31.205
-36.728
-39.871
-39.149
-32.981
-19.886
1.111
30.469
67.743
111.118
158.087
205.851
250.844
289.095
316.615
329.492
324.547
299.84
254.434
188.532
103.906
3.698
-107.663
-224.753
-341.813
-453.045
-552.863
-636.458
-700.083
-741.36
-759.676
-755.66
-730.983
-688.469
-631.695
-564.729
-492.088
-417.956
-345.641
-278.209
-218.157
-167.133
-126.226
-95.439
-73.626
-59.373
-51.265
-47.453
-46.129
-45.559
-43.972
-40.507
-35.158
-28.139
-19.895
-11.122
-2.472
5.235
11.035
14.58
15.977
15.506
13.677
11.002
7.907
4.945
2.715
1.535
1.527
2.684
4.847
7.9
11.756
16.273
21.286
26.653
32.246
37.967
43.746
49.488
55.089
60.443
65.451
70.055
74.235
77.989
81.339
84.317
86.958
89.313
91.442
93.403
95.251
97.036
98.798
100.587
102.449
104.434
106.587
108.939
111.505
114.293
117.302
120.524
123.952
127.569
131.353
135.284
139.343
143.513
147.778
152.118
156.512
160.935
165.364
169.776
174.149
178.459
182.686
186.807
190.8
194.645
198.323
201.814
205.097
208.15
210.955
213.491
215.741
217.688
219.317
220.615
221.569
222.172
222.415
222.293
221.802
220.941
219.71
218.111
216.148
213.827
211.154
208.14
204.794
201.13
197.16
192.899
188.365
183.574
178.545
173.297
167.85
162.224
156.442
150.524
144.492
138.368
132.174
125.933
119.664
113.391
107.132
100.909
94.739
88.642
82.634
76.732
70.951
65.304
59.805
54.465
49.296
44.305
39.503
34.895
30.488
26.286
22.294
18.513
14.945
11.591
8.45
5.521
2.801
0.287
-2.025
-4.141
-6.065
-7.804
-9.364
-10.753
-11.979
-13.05
-13.973
-14.759
-15.415
-15.951
-16.376
-16.697
-16.925
-17.068
-17.135
-17.133
-17.072
-16.958
-16.799
-16.604
-16.378
-16.128
-15.86
-15.58
-15.295
-15.007
-14.724
-14.448
-14.184
-13.935
-13.705
-13.495
-13.31
-13.15
-13.018
-12.914
-12.841
-12.798
-12.786
-12.805
-12.855
-12.937
-13.048
-13.19
-13.36
-13.558
-13.783
-14.033
-14.307
-14.605
-14.923
-15.262
-15.619
-15.993
-16.383
-16.787
-17.203
-17.63
-18.068
-18.513
-18.966
-19.424
-19.887
-20.353
-20.823
-21.294
-21.767
-22.24
-22.714
-23.188
-23.662
-24.136
-24.611
-25.086
-25.562
-26.039
-26.518
-27
-27.486
-27.975
-28.469
-28.969
-29.475
-29.988
-30.508
-31.036
-31.571
-32.115
-32.667
-33.227
-33.795
-34.371
-34.955
-35.545
-36.143
-36.745
-37.352
-37.962
-38.573
-39.183
-39.791
-40.394
-40.99
-41.576
-42.15
-42.707
-43.246
-43.763
-44.255
-44.718
-45.15
-45.546
-45.905
-46.224
-46.501
-46.734
-46.922
-47.065
-47.161
-47.213
-47.22
-47.185
-47.107
-46.989
-46.833
-46.642
-46.417
-46.161
-45.876
-45.567
-45.238
-44.894
-44.539
-44.177
-43.813
-43.454
-43.105
-42.772
-42.455
-42.157
-41.881
-41.631
-41.414
-41.234
-41.088
-40.975
-40.894
-40.841
-40.812
-40.798
-40.777
-40.73
-40.643
-40.504
-40.311
-40.06
-39.739
-39.337
-38.844
-38.256
-37.583
-36.835
-36.011
-35.122
-34.191
-33.254
-32.385
-31.657
-31.124
-30.836
-30.834
-31.143
-31.818
-32.917
-34.486
-36.573
-39.2
-42.367
-46.125
-50.54
-55.574
-61.076
-66.763
-72.225
-77.124
-81.231
-84.25
-85.81
-85.708
-84.027
-81.184
-77.95
-75.059
-72.914
-71.91
-72.639
-75.404
-79.946
-85.473
-90.49
-93.311
-92.771
-87.657
-76.285
-57.427
-30.645
3.744
44.17
88.331
134.027
178.294
216.902
245.688
260.932
259.146
237.993
196.331
133.394
51.014
-45.669
-152.643
-266.181
-383.234
-503.493
-620.596
-723.484
-802.157
-845.859
-853.508
-833.358
-793.145
-742.242
-685.367
-621.191
-551.086
-477.069
-402.012
-331.456
-268.947
-216.063
-173.906
-141.984
-118.931
-103.526
-94.344
-89.405
-86.89
-85.077
-82.198
-77.451
-70.868
-62.658
-53.29
-43.504
-33.949
-25.435
-18.919
-14.731
-12.752
-12.694
-14.036
-16.271
-18.979
-21.624
-23.625
-24.647
-24.553
-23.345
-21.169
-18.148
-14.374
-9.985
-5.142
0.01
5.345
10.759
16.176
21.514
26.678
31.579
36.134
40.275
43.969
47.214
50.028
52.444
54.504
56.255
57.753
59.062
60.243
61.352
62.44
63.55
64.727
66.016
67.461
69.099
70.953
73.034
75.345
77.883
80.641
83.608
86.768
90.099
93.582
97.197
100.928
104.757
108.663
112.623
116.615
120.613
124.595
128.537
132.416
136.209
139.893
143.444
146.841
150.063
153.088
155.895
158.463
160.77
162.797
164.526
165.941
167.027
167.77
168.159
168.186
167.844
167.128
166.035
164.565
162.718
160.498
157.91
154.961
151.659
148.016
144.043
139.755
135.168
130.298
125.163
119.784
114.181
108.375
102.39
96.247
89.97
83.583
77.11
70.575
64.002
57.414
50.834
44.285
37.789
31.366
25.037
18.821
12.735
6.796
1.018
-4.584
-9.997
-15.211
-20.216
-25.003
-29.564
-33.896
-37.993
-41.852
-45.473
-48.855
-51.999
-54.909
-57.588
-60.041
-62.275
-64.295
-66.11
-67.729
-69.162
-70.418
-71.508
-72.444
-73.236
-73.898
-74.439
-74.873
-75.21
-75.463
-75.643
-75.761
-75.827
-75.851
-75.844
-75.814
-75.771
-75.721
-75.674
-75.635
-75.61
-75.606
-75.628
-75.677
-75.76
-75.877
-76.03
-76.222
-76.453
-76.722
-77.029
-77.374
-77.755
-78.17
-78.616
-79.092
-79.594
-80.119
-80.664
-81.225
-81.799
-82.384
-82.975
-83.57
-84.166
-84.761
-85.351
-85.934
-86.507
-87.069
-87.618
-88.15
-88.664
-89.16
-89.635
-90.089
-90.522
-90.934
-91.323
-91.692
-92.039
-92.366
-92.674
-92.963
-93.233
-93.486
-93.723
-93.946
-94.157
-94.356
-94.545
-94.727
-94.902
-95.073
-95.241
-95.406
-95.57
-95.733
-95.897
-96.062
-96.231
-96.405
-96.585
-96.774
-96.975
-97.189
-97.418
-97.662
-97.923
-98.2
-98.496
-98.808
-99.135
-99.479
-99.839
-100.219
-100.62
-101.045
-101.494
-101.969
-102.474
-103.009
-103.575
-104.166
-104.779
-105.414
-106.07
-106.752
-107.459
-108.187
-108.93
-109.683
-110.439
-111.186
-111.905
-112.568
-113.148
-113.626
-113.993
-114.247
-114.383
-114.395
-114.277
-114.027
-113.652
-113.159
-112.551
-111.824
-110.978
-110.029
-109.012
-107.98
-106.984
-106.053
-105.201
-104.437
-103.767
-103.184
-102.67
-102.182
-101.664
-101.069
-100.362
-99.521
-98.515
-97.286
-95.752
-93.813
-91.371
-88.348
-84.677
-80.292
-75.145
-69.225
-62.546
-55.17
-47.181
-38.639
-29.602
-20.127
-10.277
-0.144
10.156
20.504
30.767
40.806
50.488
59.67
68.232
76.107
83.253
89.674
95.395
100.415
104.744
108.4
111.401
113.776
115.567
116.797
117.512
117.785
117.675
117.26
116.598
115.707
114.608
113.287
111.709
109.857
107.699
105.198
102.355
99.147
95.521
91.525
87.27
82.935
78.826
75.217
72.297
70.334
69.675
70.542
72.908
76.435
80.457
84.307
87.597
89.97
90.846
89.831
87.053
83.162
79.519
77.745
78.934
84.124
94.869
112.435
137.451
169.914
208.467
250.963
295.534
339.704
379.76
411.809
432.013
436.833
423.975
392.052
340.002
267.919
179.018
77.675
-32.494
-146.257
-260.912
-373.866
-476.16
-561.098
-622.022
-652.485
-656.521
-638.48
-602.281
-554.847
-497.336
-431.156
-360.293
-287.073
-215.564
-150.086
-92.886
-45.487
-8.502
18.685
37.342
48.8
54.61
56.837
57.347
57.784
59.679
63.611
69.425
76.873
85.425
94.259
102.683
109.907
115.118
118.12
119.104
118.386
116.486
113.919
111.117
108.59
106.859
106.169
106.597
108.107
110.54
113.781
117.734
122.262
127.215
132.462
137.885
143.386
148.894
154.317
159.557
164.523
169.124
173.311
177.07
180.407
183.35
185.933
188.194
190.184
191.96
193.579
195.096
196.558
198.008
199.489
201.048
202.728
204.572
206.607
208.847
211.296
213.951
216.806
219.85
223.068
226.436
229.935
233.546
237.251
241.033
244.874
248.749
252.637
256.512
260.351
264.131
267.831
271.426
274.893
278.211
281.358
284.313
287.057
289.566
291.82
293.797
295.479
296.846
297.882
298.571
298.899
298.854
298.426
297.609
296.398
294.787
292.776
290.365
287.556
284.354
280.765
276.796
272.458
267.761
262.719
257.347
251.66
245.676
239.414
232.893
226.134
219.159
211.99
204.651
197.164
189.554
181.845
174.061
166.226
158.363
150.497
142.65
134.845
127.104
119.446
111.892
104.459
97.167
90.03
83.064
76.284
69.7
63.326
57.171
51.244
45.552
40.101
34.897
29.943
25.242
20.795
16.601
12.66
8.97
5.527
2.328
-0.634
-3.363
-5.868
-8.155
-10.232
-12.109
-13.794
-15.298
-16.63
-17.801
-18.821
-19.7
-20.449
-21.079
-21.599
-22.019
-22.35
-22.601
-22.781
-22.899
-22.963
-22.983
-22.964
-22.916
-22.843
-22.753
-22.652
-22.544
-22.435
-22.329
-22.23
-22.141
-22.065
-22.006
-21.964
-21.942
-21.942
-21.963
-22.007
-22.074
-22.164
-22.277
-22.412
-22.57
-22.749
-22.948
-23.167
-23.405
-23.66
-23.932
-24.22
-24.523
-24.839
-25.168
-25.508
-25.86
-26.221
-26.591
-26.97
-27.355
-27.748
-28.146
-28.549
-28.958
-29.37
-29.786
-30.205
-30.626
-31.05
-31.475
-31.901
-32.329
-32.757
-33.186
-33.615
-34.043
-34.472
-34.9
-35.326
-35.752
-36.176
-36.598
-37.017
-37.434
-37.848
-38.259
-38.667
-39.071
-39.471
-39.868
-40.262
-40.652
-41.039
-41.423
-41.805
-42.184
-42.563
-42.94
-43.318
-43.696
-44.076
-44.458
-44.843
-45.233
-45.626
-46.025
-46.43
-46.84
-47.256
-47.678
-48.106
-48.541
-48.981
-49.427
-49.879
-50.335
-50.796
-51.26
-51.725
-52.192
-52.658
-53.12
-53.578
-54.028
-54.468
-54.896
-55.309
-55.702
-56.073
-56.418
-56.734
-57.015
-57.258
-57.46
-57.616
-57.723
-57.779
-57.78
-57.724
-57.611
-57.44
-57.211
-56.924
-56.578
-56.174
-55.713
-55.197
-54.628
-54.006
-53.334
-52.616
-51.856
-51.06
-50.232
-49.379
-48.505
-47.618
-46.723
-45.828
-44.94
-44.063
-43.203
-42.367
-41.564
-40.803
-40.092
-39.431
-38.822
-38.26
-37.742
-37.264
-36.816
-36.382
-35.948
-35.501
-35.03
-34.532
-34.001
-33.427
-32.799
-32.103
-31.332
-30.492
-29.591
-28.637
-27.648
-26.641
-25.647
-24.72
-23.906
-23.253
-22.813
-22.62
-22.715
-23.142
-23.928
-25.112
-26.736
-28.817
-31.382
-34.45
-38.005
-42.061
-46.645
-51.688
-57.046
-62.486
-67.651
-72.221
-75.961
-78.579
-79.709
-79.118
-76.843
-73.244
-69.03
-64.929
-61.387
-58.803
-57.783
-58.745
-61.562
-65.576
-69.415
-71.404
-70.399
-65.329
-54.609
-36.973
-11.813
20.839
59.608
102.336
147.145
191.538
231.763
263.894
284.054
288.712
275.581
243.164
190.31
117.042
26.558
-76.579
-188.569
-304.126
-420.551
-535.04
-638.297
-723.27
-782.884
-810.8
-811.53
-789.598
-749.193
-697.734
-636.526
-567.344
-494.64
-420.393
-348.403
-283.014
-226.25
-179.449
-143.132
-116.284
-97.279
-85.035
-78.206
-74.775
-73.054
-71.417
-68.315
-63.367
-56.879
-48.988
-40.148
-31.125
-22.52
-15.158
-9.884
-6.84
-5.803
-6.456
-8.272
-10.747
-13.462
-15.88
-17.464
-17.961
-17.287
-15.487
-12.727
-9.125
-4.777
0.18
5.595
11.332
17.27
23.308
29.367
35.353
41.164
46.701
51.87
56.618
60.926
64.803
68.278
71.385
74.166
76.67
78.956
81.082
83.105
85.072
87.028
89.018
91.088
93.285
95.653
98.221
101.002
104.003
107.221
110.648
114.278
118.093
122.074
126.201
130.456
134.823
139.288
143.832
148.434
153.072
157.723
162.366
166.978
171.539
176.027
180.419
184.694
188.832
192.812
196.615
200.218
203.601
206.742
209.62
212.219
214.519
216.505
218.16
219.473
220.433
221.03
221.257
221.108
220.58
219.671
218.381
216.711
214.666
212.25
209.471
206.338
202.86
199.05
194.922
190.491
185.774
180.789
175.554
170.091
164.419
158.561
152.54
146.378
140.099
133.726
127.283
120.795
114.283
107.772
101.284
94.842
88.465
82.175
75.991
69.931
64.013
58.253
52.665
47.264
42.063
37.073
32.303
27.762
23.458
19.397
15.583
12.018
8.705
5.644
2.833
0.27
-2.048
-4.126
-5.971
-7.589
-8.988
-10.178
-11.167
-11.967
-12.589
-13.044
-13.344
-13.502
-13.53
-13.441
-13.247
-12.961
-12.596
-12.165
-11.679
-11.15
-10.59
-10.01
-9.421
-8.832
-8.254
-7.695
-7.163
-6.666
-6.212
-5.805
-5.452
-5.156
-4.923
-4.755
-4.654
-4.623
-4.662
-4.772
-4.953
-5.204
-5.523
-5.909
-6.359
-6.871
-7.443
-8.07
-8.749
-9.477
-10.249
-11.062
-11.911
-12.793
-13.703
-14.636
-15.59
-16.559
-17.539
-18.528
-19.52
-20.513
-21.503
-22.487
-23.463
-24.426
-25.376
-26.309
-27.225
-28.12
-28.994
-29.845
-30.673
-31.478
-32.257
-33.013
-33.743
-34.45
-35.132
-35.79
-36.426
-37.04
-37.632
-38.205
-38.758
-39.294
-39.813
-40.317
-40.808
-41.286
-41.754
-42.212
-42.663
-43.107
-43.547
-43.983
-44.418
-44.854
-45.292
-45.733
-46.179
-46.632
-47.093
-47.564
-48.047
-48.541
-49.049
-49.572
-50.11
-50.665
-51.237
-51.827
-52.435
-53.061
-53.704
-54.365
-55.042
-55.735
-56.443
-57.164
-57.898
-58.642
-59.395
-60.155
-60.919
-61.687
-62.454
-63.218
-63.975
-64.723
-65.458
-66.176
-66.873
-67.546
-68.189
-68.8
-69.372
-69.903
-70.387
-70.821
-71.2
-71.519
-71.775
-71.966
-72.088
-72.139
-72.118
-72.024
-71.857
-71.619
-71.309
-70.929
-70.481
-69.966
-69.387
-68.747
-68.048
-67.293
-66.487
-65.635
-64.742
-63.814
-62.856
-61.874
-60.874
-59.864
-58.85
-57.838
-56.834
-55.84
-54.863
-53.91
-52.989
-52.107
-51.262
-50.454
-49.68
-48.937
-48.222
-47.523
-46.824
-46.106
-45.354
-44.556
-43.708
-42.803
-41.832
-40.783
-39.642
-38.406
-37.082
-35.68
-34.205
-32.674
-31.103
-29.531
-28.02
-26.634
-25.438
-24.485
-23.818
-23.478
-23.5
-23.923
-24.799
-26.164
-28.043
-30.462
-33.424
-36.951
-41.104
-45.806
-50.862
-56.004
-60.807
-64.912
-68.108
-70.062
-70.369
-68.956
-65.955
-61.806
-57.463
-53.608
-50.562
-48.906
-49.181
-51.36
-55.142
-59.537
-62.611
-62.895
-59.334
-50.411
-34.797
-11.833
18.75
56.08
97.92
142.183
186.577
227.717
261.878
285.424
294.892
287.57
261.763
216.307
150.83
67.628
-28.46
-133.535
-243.975
-357.178
-472.99
-585.244
-683.487
-758.346
-799.468
-805.891
-785.699
-746.288
-696.77
-641.809
-579.986
-512.484
-441.14
-368.551
-300.01
-238.956
-186.88
-144.885
-112.573
-88.698
-72.196
-61.795
-55.648
-52.046
-49.344
-45.823
-40.682
-33.925
-25.719
-16.488
-6.925
2.362
10.591
16.839
20.783
22.538
22.391
20.861
18.453
15.59
12.811
10.699
9.598
9.655
10.879
13.13
16.295
20.283
24.961
30.17
35.761
41.608
47.601
53.659
59.694
65.602
71.287
76.656
81.633
86.178
90.283
93.959
97.234
100.146
102.738
105.061
107.179
109.149
111.024
112.854
114.682
116.551
118.507
120.594
122.849
125.296
127.947
130.804
133.864
137.12
140.563
144.176
147.938
151.831
155.836
159.938
164.122
168.367
172.654
176.961
181.266
185.548
189.786
193.959
198.047
202.028
205.883
209.592
213.136
216.495
219.651
222.582
225.269
227.694
229.84
231.691
233.231
234.447
235.328
235.864
236.047
235.872
235.333
234.428
233.156
231.519
229.517
227.157
224.442
221.381
217.983
214.259
210.22
205.88
201.254
196.359
191.21
185.827
180.229
174.436
168.468
162.347
156.093
149.73
143.279
136.762
130.201
123.619
117.036
110.474
103.953
97.492
91.11
84.826
78.655
72.615
66.719
60.982
55.417
50.035
44.846
39.861
35.085
30.528
26.192
22.084
18.206
14.558
11.143
7.958
5.003
2.273
-0.234
-2.523
-4.602
-6.476
-8.152
-9.64
-10.948
-12.085
-13.06
-13.885
-14.569
-15.123
-15.558
-15.883
-16.109
-16.247
-16.306
-16.298
-16.23
-16.113
-15.955
-15.765
-15.55
-15.317
-15.074
-14.826
-14.579
-14.337
-14.106
-13.888
-13.686
-13.504
-13.342
-13.202
-13.086
-12.992
-12.921
-12.872
-12.844
-12.835
-12.843
-12.867
-12.904
-12.951
-13.007
-13.067
-13.13
-13.192
-13.251
-13.303
-13.347
-13.38
-13.398
-13.401
-13.386
-13.351
-13.295
-13.217
-13.116
-12.991
-12.842
-12.67
-12.473
-12.254
-12.013
-11.752
-11.471
-11.173
-10.86
-10.535
-10.198
-9.854
-9.505
-9.153
-8.803
-8.457
-8.118
-7.79
-7.476
-7.179
-6.904
-6.653
-6.429
-6.236
-6.077
-5.954
-5.871
-5.83
-5.833
-5.883
-5.98
-6.128
-6.326
-6.576
-6.878
-7.232
-7.637
-8.093
-8.598
-9.151
-9.75
-10.394
-11.078
-11.802
-12.562
-13.354
-14.174
-15.02
-15.887
-16.769
-17.664
-18.564
-19.467
-20.365
-21.255
-22.131
-22.987
-23.817
-24.617
-25.381
-26.103
-26.778
-27.402
-27.97
-28.479
-28.924
-29.304
-29.617
-29.863
-30.04
-30.15
-30.193
-30.172
-30.087
-29.941
-29.736
-29.477
-29.165
-28.804
-28.399
-27.956
-27.481
-26.981
-26.462
-25.931
-25.396
-24.863
-24.34
-23.836
-23.357
-22.907
-22.494
-22.127
-21.815
-21.567
-21.384
-21.265
-21.207
-21.205
-21.253
-21.34
-21.448
-21.559
-21.657
-21.728
-21.764
-21.76
-21.704
-21.581
-21.374
-21.076
-20.687
-20.221
-19.693
-19.116
-18.515
-17.93
-17.424
-17.058
-16.895
-16.989
-17.381
-18.12
-19.248
-20.802
-22.824
-25.348
-28.393
-31.97
-36.085
-40.714
-45.845
-51.47
-57.455
-63.595
-69.611
-75.109
-79.744
-83.283
-85.398
-85.713
-84.177
-80.923
-76.338
-71.304
-66.483
-62.263
-59.301
-58.159
-58.821
-61.032
-63.947
-65.808
-65.264
-61.179
-51.865
-36.095
-13.348
16.522
52.477
92.333
134.003
174.776
210.795
238.384
253.954
254.218
237.259
201.882
147.375
74.664
-13.638
-113.863
-221.107
-330.213
-436.397
-534.269
-618.685
-685.732
-732.577
-758.172
-763.152
-748.516
-715.978
-668.798
-610.667
-545.59
-477.866
-410.53
-345.885
-286.592
-234.621
-190.971
-156.231
-129.832
-110.34
-96.862
-88.372
-83.161
-79.77
-76.775
-72.785
-67.429
-60.932
-53.376
-45.105
-36.753
-28.834
-22.077
-17.246
-14.479
-13.583
-14.272
-16.07
-18.521
-21.239
-23.727
-25.484
-26.262
-25.974
-24.653
-22.447
-19.462
-15.782
-11.53
-6.844
-1.847
3.348
8.646
13.977
19.254
24.381
29.263
33.81
37.967
41.716
45.066
48.044
50.682
53.017
55.097
56.977
58.713
60.355
61.952
63.54
65.164
66.868
68.695
70.691
72.881
75.28
77.894
80.718
83.747
86.971
90.375
93.936
97.636
101.456
105.379
109.393
113.477
117.611
121.774
125.942
130.095
134.212
138.273
142.257
146.144
149.915
153.551
157.035
160.351
163.478
166.4
169.098
171.556
173.759
175.692
177.344
178.701
179.756
180.501
180.93
181.04
180.828
180.294
179.44
178.267
176.781
174.987
172.893
170.508
167.841
164.905
161.713
158.278
154.616
150.742
146.674
142.429
138.025
133.48
128.814
124.046
119.194
114.279
109.319
104.333
99.341
94.36
89.408
84.503
79.66
74.896
70.224
65.658
61.211
56.895
52.719
48.693
44.826
41.125
37.596
34.245
31.075
28.09
25.291
22.679
20.255
18.016
15.962
14.09
12.396
10.875
9.523
8.335
7.303
6.422
5.684
5.082
4.607
4.251
4.006
3.863
3.814
3.849
3.962
4.142
4.381
4.673
5.008
5.379
5.779
6.202
6.64
7.089
7.541
7.993
8.438
8.875
9.297
9.703
10.089
10.452
10.792
11.104
11.39
11.646
11.873
12.07
12.238
12.376
12.484
12.564
12.617
12.643
12.644
12.621
12.575
12.508
12.421
12.316
12.195
12.058
11.908
11.745
11.571
11.388
11.195
10.995
10.787
10.573
10.352
10.126
9.894
9.657
9.415
9.168
8.917
8.661
8.4
8.133
7.862
7.585
7.301
7.011
6.715
6.41
6.098
5.778
5.448
5.109
4.759
4.399
4.028
3.645
3.249
2.84
2.419
1.985
1.538
1.078
0.607
0.125
-0.367
-0.868
-1.377
-1.892
-2.413
-2.937
-3.463
-3.99
-4.516
-5.038
-5.555
-6.064
-6.563
-7.05
-7.522
-7.976
-8.41
-8.821
-9.206
-9.562
-9.886
-10.175
-10.426
-10.634
-10.798
-10.914
-10.979
-10.991
-10.949
-10.852
-10.697
-10.487
-10.221
-9.902
-9.529
-9.105
-8.632
-8.111
-7.545
-6.936
-6.287
-5.602
-4.884
-4.138
-3.37
-2.587
-1.794
-0.997
-0.201
0.587
1.361
2.115
2.846
3.546
4.212
4.834
5.404
5.915
6.368
6.764
7.107
7.404
7.662
7.894
8.118
8.347
8.595
8.871
9.181
9.532
9.936
10.402
10.944
11.572
12.28
13.064
13.916
14.817
15.745
16.671
17.541
18.313
18.951
19.415
19.665
19.67
19.385
18.777
17.832
16.522
14.826
12.725
10.189
7.217
3.833
0.047
-4.137
-8.644
-13.332
-17.952
-22.144
-25.596
-28.084
-29.35
-29.072
-27.099
-23.561
-18.886
-13.836
-9.149
-5.252
-2.58
-1.759
-3.099
-6.355
-10.755
-14.842
-16.995
-16.085
-10.924
0.086
18.124
43.64
76.311
114.61
156.295
199.158
240.334
275.905
301.868
314.448
310.399
287.731
245.469
183.372
102.621
6.22
-101.556
-215.49
-329.867
-439.109
-537.85
-621.197
-685.233
-727.556
-747.474
-745.582
-723.581
-684.12
-630.578
-566.915
-497.5
-426.379
-356.73
-291.391
-232.637
-182.031
-140.627
-108.451
-84.479
-67.422
-56.039
-48.742
-43.968
-40.172
-35.709
-29.782
-22.402
-13.773
-4.284
5.476
14.96
23.431
29.958
34.177
36.191
36.274
34.913
32.588
29.691
26.741
24.333
22.833
22.4
23.058
24.677
27.145
30.392
34.296
38.706
43.484
48.501
53.649
58.853
64.031
69.081
73.909
78.419
82.529
86.2
89.424
92.213
94.596
96.61
98.296
99.708
100.909
101.96
102.916
103.826
104.735
105.688
106.733
107.916
109.281
110.854
112.646
114.665
116.907
119.369
122.042
124.91
127.951
131.146
134.479
137.932
141.49
145.133
148.84
152.587
156.351
160.11
163.841
167.522
171.129
174.642
178.037
181.294
184.393
187.313
190.033
192.531
194.788
196.783
198.499
199.918
201.026
201.808
202.253
202.35
202.093
201.475
200.493
199.144
197.428
195.348
192.905
190.107
186.96
183.472
179.655
175.52
171.081
166.353
161.353
156.097
150.605
144.896
138.991
132.91
126.676
120.31
113.834
107.272
100.645
93.976
87.287
80.601
73.937
67.318
60.762
54.289
47.917
41.661
35.539
29.564
23.75
18.109
12.652
7.388
2.327
-2.525
-7.162
-11.579
-15.773
-19.742
-23.484
-27
-30.291
-33.36
-36.209
-38.843
-41.268
-43.489
-45.512
-47.346
-48.998
-50.477
-51.791
-52.951
-53.964
-54.842
-55.594
-56.23
-56.759
-57.191
-57.535
-57.8
-57.994
-58.127
-58.205
-58.236
-58.228
-58.186
-58.117
-58.026
-57.918
-57.798
-57.669
-57.534
-57.397
-57.26
-57.126
-56.994
-56.868
-56.747
-56.631
-56.522
-56.418
-56.319
-56.224
-56.133
-56.044
-55.956
-55.867
-55.778
-55.685
-55.589
-55.487
-55.38
-55.266
-55.144
-55.014
-54.875
-54.728
-54.572
-54.407
-54.234
-54.053
-53.865
-53.67
-53.471
-53.267
-53.06
-52.853
-52.644
-52.438
-52.234
-52.034
-51.841
-51.655
-51.479
-51.313
-51.159
-51.02
-50.896
-50.788
-50.699
-50.627
-50.576
-50.545
-50.535
-50.546
-50.578
-50.633
-50.709
-50.806
-50.924
-51.062
-51.218
-51.392
-51.582
-51.786
-52.001
-52.226
-52.459
-52.696
-52.935
-53.174
-53.409
-53.638
-53.858
-54.066
-54.258
-54.431
-54.582
-54.708
-54.804
-54.868
-54.898
-54.888
-54.837
-54.742
-54.598
-54.403
-54.155
-53.849
-53.484
-53.057
-52.565
-52.009
-51.385
-50.695
-49.938
-49.116
-48.23
-47.283
-46.277
-45.215
-44.099
-42.934
-41.724
-40.471
-39.181
-37.856
-36.504
-35.13
-33.743
-32.348
-30.953
-29.565
-28.192
-26.839
-25.515
-24.226
-22.977
-21.774
-20.625
-19.537
-18.52
-17.582
-16.723
-15.942
-15.236
-14.598
-14.02
-13.489
-12.987
-12.499
-12.012
-11.515
-11.001
-10.462
-9.886
-9.261
-8.573
-7.809
-6.973
-6.067
-5.098
-4.088
-3.058
-2.045
-1.098
-0.263
0.42
0.91
1.163
1.142
0.804
0.114
-0.948
-2.412
-4.302
-6.642
-9.457
-12.745
-16.472
-20.618
-25.179
-30.079
-35.17
-40.204
-44.794
-48.593
-51.358
-52.801
-52.579
-50.545
-46.787
-41.691
-36.11
-30.866
-26.492
-23.574
-22.695
-24.067
-27.493
-32.202
-36.524
-38.672
-37.216
-30.599
-17.352
3.485
32.37
68.852
111.125
156.734
202.975
246.403
283.182
309.444
321.351
315.76
290.752
245.372
179.751
95.528
-4.314
-115.499
-232.698
-350.176
-462.147
-562.984
-647.774
-712.628
-754.996
-774.109
-770.5
-745.796
-702.791
-645.085
-576.816
-502.594
-426.718
-352.587
-283.314
-221.436
-168.645
-126.069
-93.723
-70.445
-54.813
-45.429
-40.474
-38.179
-36.816
-34.577
-30.598
-24.879
-17.632
-9.295
-0.526
8.07
15.691
21.359
24.706
25.83
25.014
22.779
19.625
15.968
12.351
9.374
7.396
6.568
6.901
8.25
10.496
13.551
17.278
21.517
26.121
30.965
35.944
40.981
45.995
50.889
55.568
59.947
63.951
67.545
70.721
73.497
75.903
77.979
79.772
81.335
82.732
84.024
85.264
86.504
87.785
89.151
90.65
92.323
94.209
96.333
98.704
101.325
104.193
107.3
110.636
114.183
117.919
121.824
125.878
130.063
134.362
138.755
143.219
147.729
152.262
156.794
161.302
165.764
170.155
174.453
178.635
182.68
186.567
190.275
193.781
197.063
200.101
202.875
205.366
207.556
209.431
210.975
212.177
213.026
213.514
213.636
213.385
212.761
211.761
210.387
208.642
206.531
204.061
201.239
198.075
194.581
190.771
186.657
182.257
177.587
172.665
167.511
162.143
156.584
150.855
144.976
138.972
132.862
126.672
120.422
114.135
107.833
101.538
95.27
89.049
82.895
76.827
70.861
65.014
59.302
53.739
48.339
43.113
38.072
33.226
28.584
24.152
19.938
15.945
12.178
8.639
5.328
2.247
-0.606
-3.233
-5.637
-7.821
-9.792
-11.555
-13.115
-14.482
-15.662
-16.663
-17.496
-18.168
-18.69
-19.071
-19.322
-19.452
-19.471
-19.39
-19.218
-18.964
-18.64
-18.253
-17.813
-17.328
-16.807
-16.257
-15.687
-15.103
-14.511
-13.919
-13.331
-12.752
-12.188
-11.643
-11.119
-10.621
-10.151
-9.712
-9.304
-8.93
-8.59
-8.285
-8.016
-7.782
-7.583
-7.418
-7.287
-7.189
-7.121
-7.084
-7.074
-7.091
-7.132
-7.196
-7.281
-7.384
-7.504
-7.638
-7.785
-7.942
-8.107
-8.279
-8.455
-8.633
-8.812
-8.989
-9.164
-9.335
-9.5
-9.659
-9.81
-9.952
-10.084
-10.206
-10.316
-10.415
-10.502
-10.577
-10.639
-10.689
-10.727
-10.753
-10.768
-10.772
-10.768
-10.754
-10.734
-10.707
-10.677
-10.643
-10.608
-10.575
-10.544
-10.52
-10.502
-10.495
-10.5
-10.52
-10.555
-10.609
-10.683
-10.778
-10.896
-11.038
-11.205
-11.398
-11.617
-11.864
-12.137
-12.438
-12.766
-13.12
-13.499
-13.902
-14.327
-14.771
-15.233
-15.709
-16.198
-16.694
-17.195
-17.696
-18.192
-18.679
-19.15
-19.601
-20.026
-20.419
-20.774
-21.086
-21.35
-21.561
-21.716
-21.811
-21.843
-21.81
-21.711
-21.544
-21.307
-20.999
-20.622
-20.173
-19.654
-19.065
-18.409
-17.69
-16.911
-16.08
-15.199
-14.276
-13.317
-12.328
-11.318
-10.291
-9.254
-8.214
-7.183
-6.171
-5.191
-4.253
-3.362
-2.521
-1.733
-0.992
-0.295
0.369
1.016
1.656
2.299
2.951
3.615
4.298
5.013
5.768
6.577
7.451
8.387
9.382
10.433
11.513
12.59
13.629
14.573
15.374
15.991
16.382
16.503
16.312
15.76
14.8
13.397
11.525
9.163
6.287
2.875
-1.067
-5.518
-10.425
-15.732
-21.43
-27.419
-33.503
-39.403
-44.709
-49.047
-52.176
-53.768
-53.422
-51.089
-46.928
-41.372
-35.415
-29.817
-25.011
-21.732
-20.611
-21.603
-24.41
-28.072
-30.609
-30.532
-26.638
-17.079
-0.464
23.815
56.002
95.019
138.493
184.269
229.584
270.322
302.434
322.02
325.434
310.278
275.087
218.892
142.071
48.199
-57.9
-172.176
-289.218
-406.085
-519.677
-620.866
-702.922
-759.245
-784.051
-781.959
-757.506
-714.994
-661.913
-599.759
-530.349
-457.946
-384.357
-313.171
-248.574
-192.454
-145.999
-109.658
-82.445
-62.859
-49.933
-42.397
-38.298
-36.016
-34.008
-30.795
-26.006
-19.906
-12.585
-4.454
3.758
11.481
17.951
22.37
24.63
24.974
23.709
21.342
18.37
15.195
12.342
10.337
9.422
9.668
11.032
13.348
16.498
20.389
24.877
29.804
35.029
40.421
45.881
51.335
56.691
61.851
66.721
71.208
75.265
78.883
82.071
84.86
87.285
89.387
91.219
92.845
94.324
95.715
97.068
98.425
99.833
101.34
102.99
104.828
106.881
109.163
111.678
114.424
117.396
120.585
123.974
127.542
131.27
135.141
139.137
143.244
147.442
151.711
156.026
160.367
164.71
169.035
173.319
177.541
181.68
185.713
189.622
193.386
196.986
200.401
203.61
206.593
209.331
211.805
214
215.899
217.489
218.757
219.693
220.29
220.54
220.438
219.981
219.169
218
216.477
214.604
212.385
209.828
206.941
203.733
200.217
196.404
192.308
187.946
183.332
178.483
173.418
168.155
162.713
157.112
151.371
145.512
139.554
133.518
127.423
121.291
115.14
108.99
102.86
96.767
90.727
84.759
78.876
73.093
67.425
61.884
56.481
51.227
46.132
41.206
36.454
31.884
27.502
23.312
19.317
15.52
11.921
8.522
5.322
2.319
-0.489
-3.106
-5.534
-7.78
-9.849
-11.746
-13.479
-15.054
-16.48
-17.763
-18.912
-19.935
-20.841
-21.638
-22.335
-22.94
-23.462
-23.91
-24.291
-24.614
-24.887
-25.116
-25.311
-25.477
-25.621
-25.75
-25.87
-25.986
-26.103
-26.227
-26.361
-26.509
-26.676
-26.863
-27.073
-27.308
-27.571
-27.861
-28.181
-28.53
-28.909
-29.318
-29.755
-30.222
-30.716
-31.237
-31.784
-32.354
-32.948
-33.562
-34.196
-34.848
-35.515
-36.196
-36.89
-37.594
-38.307
-39.026
-39.75
-40.478
-41.207
-41.936
-42.664
-43.388
-44.109
-44.824
-45.533
-46.234
-46.928
-47.613
-48.289
-48.955
-49.612
-50.26
-50.898
-51.526
-52.145
-52.754
-53.354
-53.946
-54.528
-55.102
-55.668
-56.226
-56.777
-57.32
-57.856
-58.385
-58.908
-59.425
-59.935
-60.439
-60.937
-61.43
-61.917
-62.398
-62.873
-63.343
-63.806
-64.263
-64.712
-65.154
-65.586
-66.008
-66.418
-66.815
-67.196
-67.561
-67.907
-68.232
-68.535
-68.812
-69.063
-69.284
-69.473
-69.629
-69.749
-69.83
-69.87
-69.867
-69.819
-69.723
-69.577
-69.379
-69.127
-68.819
-68.452
-68.025
-67.537
-66.984
-66.366
-65.683
-64.934
-64.118
-63.238
-62.294
-61.289
-60.226
-59.108
-57.939
-56.722
-55.464
-54.167
-52.837
-51.48
-50.099
-48.7
-47.291
-45.876
-44.463
-43.06
-41.674
-40.31
-38.975
-37.677
-36.421
-35.215
-34.065
-32.974
-31.947
-30.992
-30.117
-29.327
-28.623
-28.001
-27.457
-26.983
-26.574
-26.217
-25.893
-25.585
-25.275
-24.947
-24.592
-24.201
-23.762
-23.258
-22.671
-21.991
-21.217
-20.362
-19.438
-18.458
-17.442
-16.429
-15.475
-14.641
-13.99
-13.577
-13.445
-13.646
-14.225
-15.222
-16.682
-18.646
-21.143
-24.188
-27.795
-31.948
-36.646
-41.897
-47.581
-53.494
-59.348
-64.734
-69.297
-72.798
-74.903
-75.211
-73.661
-70.396
-65.828
-60.888
-56.26
-52.308
-49.687
-48.978
-50.152
-52.932
-56.417
-58.733
-58.494
-54.617
-45.391
-29.521
-6.444
24.079
61.021
102.102
145.307
188.089
226.569
256.912
275.417
278.552
263.985
230.295
176.416
102.459
11.733
-91.225
-202.744
-317.645
-433.321
-547.017
-649.44
-733.562
-792.311
-819.317
-819.08
-796.067
-754.454
-701.71
-639.144
-568.546
-494.397
-418.71
-345.381
-278.869
-221.238
-173.817
-137.074
-109.93
-90.722
-78.299
-71.224
-67.406
-65.118
-62.767
-58.889
-53.18
-45.996
-37.526
-28.261
-19.007
-10.384
-3.181
1.821
4.54
5.251
4.287
2.173
-0.573
-3.532
-6.171
-7.965
-8.676
-8.234
-6.681
-4.177
-0.832
3.261
7.964
13.123
18.6
24.268
30.028
35.807
41.51
47.036
52.286
57.163
61.615
65.629
69.209
72.384
75.187
77.655
79.842
81.809
83.615
85.319
86.97
88.61
90.285
92.044
93.933
95.998
98.267
100.753
103.463
106.395
109.542
112.896
116.442
120.155
124.019
128.013
132.123
136.333
140.624
144.974
149.362
153.766
158.162
162.53
166.85
171.1
175.259
179.306
183.223
186.991
190.591
194.002
197.206
200.182
202.912
205.378
207.565
209.458
211.042
212.307
213.243
213.842
214.098
214.006
213.564
212.77
211.625
210.13
208.29
206.11
203.596
200.758
197.604
194.147
190.399
186.373
182.085
177.55
172.786
167.81
162.641
157.297
151.798
146.165
140.416
134.573
128.656
122.685
116.68
110.661
104.648
98.658
92.711
86.822
81.009
75.288
69.672
64.177
58.814
53.597
48.536
43.641
38.921
34.385
30.039
25.888
21.939
18.193
14.654
11.324
8.204
5.292
2.588
0.09
-2.205
-4.301
-6.203
-7.915
-9.443
-10.795
-11.976
-12.993
-13.856
-14.57
-15.145
-15.589
-15.91
-16.116
-16.217
-16.22
-16.133
-15.966
-15.726
-15.42
-15.057
-14.643
-14.187
-13.693
-13.169
-12.62
-12.053
-11.472
-10.882
-10.287
-9.692
-9.1
-8.515
-7.938
-7.374
-6.824
-6.289
-5.771
-5.272
-4.792
-4.332
-3.892
-3.474
-3.075
-2.698
-2.341
-2.005
-1.688
-1.39
-1.111
-0.85
-0.606
-0.379
-0.168
0.028
0.208
0.374
0.525
0.664
0.788
0.9
0.999
1.086
1.16
1.221
1.27
1.305
1.328
1.337
1.332
1.312
1.278
1.228
1.162
1.08
0.981
0.864
0.729
0.575
0.402
0.209
-0.005
-0.24
-0.496
-0.775
-1.076
-1.4
-1.748
-2.118
-2.512
-2.93
-3.372
-3.838
-4.327
-4.84
-5.375
-5.933
-6.512
-7.111
-7.728
-8.363
-9.013
-9.676
-10.35
-11.034
-11.723
-12.417
-13.113
-13.807
-14.498
-15.181
-15.855
-16.515
-17.158
-17.781
-18.38
-18.952
-19.493
-20.001
-20.47
-20.898
-21.281
-21.615
-21.897
-22.123
-22.29
-22.396
-22.436
-22.411
-22.318
-22.157
-21.927
-21.629
-21.266
-20.84
-20.352
-19.805
-19.202
-18.547
-17.843
-17.095
-16.306
-15.481
-14.625
-13.746
-12.85
-11.945
-11.037
-10.134
-9.243
-8.371
-7.526
-6.713
-5.938
-5.21
-4.533
-3.916
-3.371
-2.902
-2.509
-2.194
-1.95
-1.769
-1.645
-1.564
-1.509
-1.465
-1.419
-1.358
-1.278
-1.167
-1.013
-0.807
-0.527
-0.164
0.278
0.8
1.386
2.015
2.668
3.311
3.89
4.362
4.683
4.805
4.695
4.312
3.606
2.544
1.092
-0.781
-3.096
-5.879
-9.142
-12.886
-17.085
-21.722
-26.787
-32.183
-37.732
-43.165
-48.095
-52.169
-55.15
-56.716
-56.484
-54.412
-50.671
-45.705
-40.483
-35.742
-31.891
-29.628
-29.559
-31.627
-35.508
-40.226
-43.818
-44.829
-42.098
-33.832
-18.707
3.844
34.052
70.832
111.859
155.106
197.942
236.373
266.648
285.166
288.241
273.513
239.603
185.124
111.182
22.091
-78.87
-188.385
-303.633
-424.887
-546.189
-656.066
-744.333
-799.586
-819.333
-811.468
-782.801
-741.287
-691.812
-632.955
-565.822
-493.171
-417.865
-344.966
-278.679
-221.215
-173.821
-136.741
-109.076
-89.322
-76.349
-68.765
-64.508
-61.853
-59.156
-54.901
-48.751
-41.029
-31.926
-21.961
-11.928
-2.461
5.602
11.441
14.925
16.276
15.831
14.123
11.654
8.849
6.233
4.317
3.379
3.525
4.722
6.833
9.746
13.366
17.574
22.237
27.226
32.431
37.749
43.101
48.408
53.578
58.523
63.162
67.42
71.26
74.685
77.711
80.372
82.707
84.757
86.571
88.212
89.737
91.199
92.646
94.115
95.649
97.291
99.081
101.057
103.241
105.641
108.259
111.089
114.124
117.352
120.757
124.313
128.001
131.802
135.697
139.671
143.703
147.77
151.85
155.92
159.956
163.938
167.843
171.649
175.335
178.88
182.263
185.467
188.471
191.257
193.804
196.095
198.11
199.835
201.255
202.355
203.123
203.551
203.63
203.355
202.721
201.726
200.369
198.653
196.579
194.152
191.38
188.268
184.827
181.068
177.003
172.646
168.011
163.115
157.975
152.608
147.035
141.274
135.346
129.272
123.072
116.769
110.383
103.938
97.453
90.95
84.451
77.976
71.545
65.177
58.891
52.704
46.633
40.694
34.902
29.27
23.811
18.537
13.459
8.585
3.926
-0.513
-4.724
-8.702
-12.445
-15.948
-19.21
-22.23
-25.008
-27.546
-29.846
-31.911
-33.744
-35.352
-36.739
-37.911
-38.877
-39.642
-40.217
-40.608
-40.826
-40.878
-40.776
-40.528
-40.144
-39.634
-39.008
-38.275
-37.447
-36.531
-35.538
-34.477
-33.357
-32.187
-30.975
-29.73
-28.459
-27.17
-25.87
-24.566
-23.263
-21.968
-20.687
-19.423
-18.183
-16.969
-15.785
-14.635
-13.522
-12.446
-11.412
-10.42
-9.471
-8.566
-7.706
-6.891
-6.121
-5.397
-4.716
-4.08
-3.486
-2.934
-2.423
-1.952
-1.519
-1.122
-0.761
-0.434
-0.138
0.127
0.363
0.571
0.753
0.911
1.045
1.157
1.249
1.321
1.375
1.41
1.43
1.433
1.42
1.392
1.349
1.292
1.22
1.133
1.032
0.915
0.784
0.637
0.474
0.295
0.099
-0.114
-0.345
-0.594
-0.861
-1.147
-1.452
-1.774
-2.115
-2.473
-2.847
-3.237
-3.641
-4.059
-4.488
-4.927
-5.374
-5.827
-6.285
-6.743
-7.2
-7.653
-8.099
-8.533
-8.954
-9.356
-9.737
-10.092
-10.418
-10.71
-10.964
-11.176
-11.341
-11.456
-11.516
-11.516
-11.455
-11.328
-11.134
-10.87
-10.535
-10.129
-9.653
-9.108
-8.494
-7.813
-7.068
-6.26
-5.394
-4.472
-3.498
-2.475
-1.409
-0.306
0.826
1.983
3.155
4.338
5.522
6.701
7.866
9.01
10.127
11.209
12.251
13.244
14.176
15.042
15.839
16.567
17.231
17.834
18.382
18.884
19.357
19.816
20.275
20.745
21.232
21.742
22.287
22.873
23.521
24.237
25.018
25.858
26.746
27.662
28.591
29.503
30.342
31.059
31.607
31.928
31.993
31.768
31.208
30.292
28.978
27.224
25.011
22.314
19.119
15.449
11.289
6.616
1.516
-3.85
-9.236
-14.267
-18.638
-22.127
-24.442
-25.224
-24.265
-21.631
-17.713
-13.244
-8.95
-5.282
-2.676
-1.769
-2.968
-6.118
-10.513
-14.752
-17.152
-16.484
-11.528
-0.607
17.582
43.6
77.271
117.152
160.95
206.404
250.58
289.42
318.773
334.675
333.659
313.638
273.535
212.955
133.082
36.934
-71.15
-185.73
-301.035
-411.58
-511.877
-596.892
-662.761
-706.959
-728.843
-729.334
-709.92
-672.943
-621.823
-560.327
-492.55
-422.654
-353.623
-287.807
-227.779
-175.338
-131.472
-96.745
-70.574
-51.63
-39.007
-31.591
-27.61
-25.543
-23.922
-21.34
-17.4
-12.274
-6.017
1.03
8.212
14.986
20.629
24.387
26.148
26.136
24.636
22.119
19.054
15.819
12.911
10.832
9.809
9.906
11.078
13.163
16.046
19.638
23.801
28.382
33.246
38.267
43.349
48.424
53.405
58.199
62.718
66.876
70.632
73.979
76.929
79.515
81.772
83.74
85.472
87.028
88.467
89.843
91.206
92.597
94.06
95.64
97.382
99.327
101.501
103.916
106.576
109.48
112.62
115.987
119.566
123.335
127.274
131.365
135.592
139.937
144.381
148.9
153.472
158.072
162.676
167.26
171.802
176.276
180.659
184.928
189.059
193.031
196.82
200.403
203.758
206.86
209.688
212.222
214.443
216.331
217.871
219.047
219.849
220.265
220.287
219.908
219.124
217.932
216.332
214.325
211.915
209.107
205.909
202.33
198.382
194.077
189.43
184.457
179.177
173.608
167.771
161.687
155.379
148.869
142.181
135.34
128.371
121.297
114.144
106.937
99.7
92.457
85.232
78.048
70.926
63.887
56.952
50.139
43.465
36.948
30.602
24.441
18.477
12.721
7.183
1.871
-3.21
-8.053
-12.656
-17.016
-21.132
-25.005
-28.637
-32.031
-35.191
-38.122
-40.83
-43.323
-45.608
-47.694
-49.59
-51.306
-52.851
-54.238
-55.475
-56.574
-57.546
-58.401
-59.149
-59.802
-60.37
-60.86
-61.284
-61.649
-61.963
-62.234
-62.469
-62.673
-62.854
-63.015
-63.161
-63.295
-63.421
-63.541
-63.656
-63.769
-63.879
-63.986
-64.092
-64.195
-64.294
-64.387
-64.474
-64.553
-64.622
-64.679
-64.721
-64.748
-64.756
-64.745
-64.713
-64.657
-64.578
-64.473
-64.343
-64.186
-64.004
-63.796
-63.563
-63.306
-63.026
-62.725
-62.404
-62.067
-61.714
-61.35
-60.976
-60.596
-60.213
-59.83
-59.45
-59.078
-58.716
-58.368
-58.038
-57.728
-57.442
-57.183
-56.953
-56.756
-56.594
-56.469
-56.383
-56.337
-56.332
-56.37
-56.449
-56.57
-56.733
-56.935
-57.175
-57.45
-57.76
-58.099
-58.467
-58.859
-59.271
-59.701
-60.143
-60.593
-61.046
-61.499
-61.946
-62.382
-62.801
-63.2
-63.572
-63.914
-64.219
-64.483
-64.701
-64.869
-64.981
-65.034
-65.024
-64.948
-64.802
-64.584
-64.294
-63.929
-63.491
-62.98
-62.398
-61.747
-61.03
-60.25
-59.412
-58.518
-57.574
-56.584
-55.552
-54.484
-53.386
-52.264
-51.124
-49.975
-48.822
-47.673
-46.534
-45.414
-44.319
-43.257
-42.233
-41.249
-40.311
-39.424
-38.598
-37.837
-37.139
-36.502
-35.921
-35.394
-34.913
-34.468
-34.039
-33.608
-33.155
-32.668
-32.143
-31.57
-30.941
-30.241
-29.455
-28.577
-27.612
-26.569
-25.457
-24.285
-23.067
-21.841
-20.665
-19.599
-18.707
-18.033
-17.612
-17.486
-17.683
-18.249
-19.238
-20.681
-22.607
-25.034
-27.958
-31.407
-35.429
-39.955
-44.81
-49.731
-54.336
-58.312
-61.455
-63.484
-64.05
-62.971
-60.334
-56.536
-52.309
-48.333
-44.98
-42.63
-41.841
-42.91
-45.636
-49.287
-52.485
-53.679
-51.77
-45.647
-33.789
-15.077
10.9
43.832
82.246
123.963
166.834
208.046
243.733
269.991
283.154
280.069
258.854
218.525
158.748
80.711
-12.648
-117.164
-227.684
-338.783
-445.27
-541.902
-623.842
-687.361
-729.996
-751.075
-751.392
-732.251
-695.812
-645.313
-584.378
-517.004
-447.288
-378.203
-312.121
-251.655
-198.653
-154.145
-118.736
-91.862
-72.204
-58.842
-50.658
-45.878
-42.994
-40.563
-37.185
-32.469
-26.594
-19.62
-11.907
-4.109
3.241
9.438
13.763
16.127
16.762
15.956
14.198
11.956
9.623
7.699
6.648
6.667
7.804
9.995
13.077
16.937
21.473
26.538
31.978
37.654
43.44
49.245
54.983
60.559
65.869
70.81
75.318
79.366
82.956
86.112
88.869
91.265
93.349
95.184
96.829
98.342
99.777
101.181
102.602
104.093
105.705
107.488
109.478
111.693
114.145
116.835
119.759
122.91
126.275
129.833
133.567
137.459
141.494
145.656
149.929
154.29
158.716
163.185
167.671
172.154
176.61
181.015
185.348
189.585
193.704
197.684
201.504
205.14
208.569
211.768
214.715
217.391
219.775
221.849
223.597
225.004
226.057
226.747
227.064
227.002
226.557
225.724
224.504
222.898
220.908
218.54
215.8
212.698
209.243
205.448
201.327
196.894
192.167
187.164
181.902
176.403
170.688
164.777
158.693
152.459
146.097
139.631
133.083
126.477
119.834
113.178
106.53
99.91
93.339
86.836
80.417
74.102
67.905
61.841
55.923
50.165
44.577
39.169
33.95
28.926
24.104
19.489
15.084
10.891
6.912
3.146
-0.407
-3.75
-6.885
-9.817
-12.55
-15.089
-17.442
-19.613
-21.612
-23.444
-25.12
-26.646
-28.031
-29.285
-30.415
-31.431
-32.34
-33.152
-33.875
-34.516
-35.083
-35.585
-36.027
-36.416
-36.759
-37.061
-37.328
-37.565
-37.775
-37.964
-38.134
-38.288
-38.43
-38.563
-38.687
-38.804
-38.917
-39.025
-39.131
-39.233
-39.334
-39.432
-39.527
-39.62
-39.71
-39.798
-39.881
-39.961
-40.037
-40.108
-40.174
-40.236
-40.292
-40.343
-40.39
-40.431
-40.469
-40.503
-40.534
-40.564
-40.592
-40.621
-40.651
-40.683
-40.72
-40.761
-40.808
-40.864
-40.928
-41.003
-41.089
-41.19
-41.304
-41.435
-41.583
-41.75
-41.937
-42.144
-42.372
-42.623
-42.897
-43.194
-43.515
-43.861
-44.23
-44.623
-45.039
-45.477
-45.936
-46.415
-46.912
-47.424
-47.95
-48.486
-49.031
-49.581
-50.134
-50.686
-51.235
-51.778
-52.31
-52.828
-53.329
-53.809
-54.263
-54.689
-55.081
-55.437
-55.751
-56.021
-56.242
-56.41
-56.522
-56.573
-56.56
-56.479
-56.327
-56.101
-55.8
-55.42
-54.962
-54.425
-53.809
-53.115
-52.347
-51.506
-50.594
-49.616
-48.574
-47.472
-46.315
-45.107
-43.852
-42.555
-41.223
-39.863
-38.482
-37.089
-35.69
-34.293
-32.905
-31.535
-30.191
-28.88
-27.607
-26.38
-25.206
-24.091
-23.046
-22.078
-21.186
-20.368
-19.621
-18.937
-18.309
-17.727
-17.17
-16.625
-16.076
-15.51
-14.924
-14.308
-13.654
-12.95
-12.178
-11.329
-10.406
-9.412
-8.359
-7.266
-6.148
-5.035
-3.981
-3.03
-2.229
-1.634
-1.267
-1.162
-1.357
-1.87
-2.743
-4.019
-5.717
-7.869
-10.489
-13.555
-17.085
-21.11
-25.545
-30.237
-34.935
-39.262
-42.915
-45.681
-47.277
-47.355
-45.716
-42.439
-37.932
-32.948
-28.227
-24.21
-21.317
-20.167
-21.116
-23.95
-27.919
-31.568
-33.209
-31.692
-25.838
-13.986
5.016
31.592
65.462
105.034
148.123
192.777
236.202
274.384
303.512
320.024
320.641
303.377
266.888
209.978
134.129
43.91
-57.123
-165.451
-278.404
-396.261
-512.979
-617.53
-700.27
-750.454
-766.322
-755.872
-725.859
-684.221
-635.68
-578.8
-514.514
-445.165
-373.26
-303.472
-239.689
-183.936
-137.346
-100.195
-71.754
-50.772
-36.384
-27.422
-22.031
-18.631
-15.658
-11.596
-6.035
0.819
8.888
17.757
26.73
35.244
42.497
47.669
50.6
51.475
50.602
48.491
45.617
42.386
39.311
36.907
35.453
35.061
35.702
37.237
39.551
42.553
46.126
50.134
54.45
58.966
63.579
68.214
72.797
77.239
81.458
85.377
88.929
92.081
94.843
97.235
99.294
101.063
102.585
103.912
105.106
106.227
107.326
108.454
109.647
110.947
112.398
114.038
115.904
118.017
120.384
123.003
125.869
128.973
132.302
135.838
139.554
143.43
147.444
151.576
155.808
160.117
164.479
168.867
173.257
177.623
181.942
186.188
190.337
194.366
198.251
201.97
205.503
208.828
211.925
214.772
217.351
219.642
221.629
223.296
224.631
225.62
226.255
226.528
226.433
225.968
225.13
223.92
222.34
220.394
218.088
215.429
212.427
209.091
205.434
201.471
197.215
192.684
187.895
182.866
177.617
172.167
166.537
160.748
154.822
148.779
142.642
136.432
130.169
123.876
117.572
111.278
105.013
98.796
92.645
86.576
80.606
74.749
69.02
63.431
57.995
52.722
47.622
42.704
37.975
33.443
29.112
24.986
21.07
17.365
13.872
10.591
7.523
4.665
2.014
-0.431
-2.676
-4.725
-6.583
-8.256
-9.751
-11.073
-12.229
-13.229
-14.078
-14.785
-15.358
-15.806
-16.135
-16.356
-16.475
-16.501
-16.443
-16.307
-16.103
-15.838
-15.518
-15.153
-14.747
-14.309
-13.844
-13.358
-12.858
-12.348
-11.834
-11.32
-10.811
-10.311
-9.824
-9.353
-8.901
-8.472
-8.067
-7.69
-7.343
-7.026
-6.742
-6.492
-6.277
-6.099
-5.956
-5.851
-5.783
-5.752
-5.759
-5.802
-5.882
-5.998
-6.149
-6.334
-6.552
-6.803
-7.085
-7.397
-7.739
-8.108
-8.504
-8.925
-9.371
-9.838
-10.327
-10.836
-11.363
-11.907
-12.465
-13.038
-13.623
-14.219
-14.825
-15.44
-16.062
-16.69
-17.324
-17.961
-18.602
-19.245
-19.89
-20.536
-21.183
-21.83
-22.476
-23.122
-23.767
-24.409
-25.05
-25.687
-26.32
-26.949
-27.572
-28.188
-28.796
-29.395
-29.984
-30.562
-31.129
-31.681
-32.22
-32.741
-33.245
-33.729
-34.192
-34.631
-35.045
-35.431
-35.787
-36.11
-36.398
-36.649
-36.86
-37.026
-37.147
-37.217
-37.236
-37.199
-37.105
-36.952
-36.738
-36.462
-36.125
-35.726
-35.267
-34.75
-34.176
-33.547
-32.865
-32.134
-31.356
-30.535
-29.673
-28.774
-27.843
-26.886
-25.909
-24.919
-23.921
-22.922
-21.928
-20.947
-19.987
-19.053
-18.152
-17.289
-16.471
-15.705
-15.002
-14.368
-13.802
-13.305
-12.872
-12.497
-12.174
-11.893
-11.634
-11.382
-11.123
-10.843
-10.537
-10.199
-9.816
-9.381
-8.875
-8.289
-7.63
-6.903
-6.119
-5.302
-4.464
-3.638
-2.884
-2.248
-1.783
-1.547
-1.567
-1.881
-2.532
-3.537
-4.94
-6.781
-9.079
-11.861
-15.144
-18.903
-23.151
-27.918
-33.106
-38.545
-43.969
-48.978
-53.251
-56.569
-58.638
-59.101
-57.781
-54.783
-50.549
-45.874
-41.502
-37.859
-35.359
-34.615
-35.955
-39.126
-43.32
-47.029
-48.558
-46.758
-40.458
-28.022
-8.263
19.228
54.124
94.846
139.096
184.735
228.898
267.479
296.447
312.157
311.167
291.188
251.08
190.014
109.683
15.032
-90.1
-202.107
-318.015
-437.594
-554.601
-658.053
-737.961
-783.548
-793.585
-776.164
-738.896
-690.964
-636.994
-575.641
-508.244
-436.839
-364.287
-296.048
-235.595
-184.483
-143.783
-112.997
-90.797
-75.964
-67.097
-62.294
-59.793
-57.929
-54.999
-50.23
-43.666
-35.538
-26.312
-16.702
-7.358
0.925
7.199
11.116
12.808
12.566
10.904
8.328
5.254
2.214
-0.199
-1.635
-1.948
-1.129
0.683
3.374
6.866
11.034
15.725
20.803
26.139
31.626
37.189
42.745
48.193
53.44
58.393
62.973
67.142
70.894
74.239
77.207
79.833
82.157
84.231
86.115
87.868
89.541
91.184
92.835
94.539
96.34
98.281
100.399
102.718
105.247
107.987
110.936
114.084
117.422
120.932
124.592
128.38
132.279
136.27
140.337
144.46
148.617
152.784
156.938
161.057
165.119
169.102
172.984
176.744
180.36
183.812
187.082
190.15
192.996
195.6
197.943
200.008
201.779
203.241
204.38
205.185
205.646
205.756
205.509
204.901
203.932
202.6
200.908
198.86
196.46
193.716
190.636
187.231
183.511
179.491
175.185
170.608
165.778
160.712
155.428
149.948
144.29
138.476
132.527
126.465
120.31
114.086
107.812
101.512
95.204
88.911
82.651
76.444
70.307
64.258
58.313
52.487
46.793
41.244
35.853
30.629
25.582
20.719
16.049
11.576
7.306
3.241
-0.615
-4.263
-7.7
-10.929
-13.951
-16.77
-19.388
-21.81
-24.042
-26.09
-27.961
-29.662
-31.2
-32.585
-33.824
-34.927
-35.903
-36.76
-37.509
-38.158
-38.715
-39.191
-39.594
-39.931
-40.212
-40.443
-40.633
-40.788
-40.915
-41.02
-41.108
-41.185
-41.256
-41.324
-41.394
-41.468
-41.55
-41.641
-41.744
-41.86
-41.989
-42.134
-42.292
-42.465
-42.652
-42.852
-43.064
-43.287
-43.519
-43.759
-44.005
-44.256
-44.509
-44.763
-45.015
-45.265
-45.51
-45.748
-45.978
-46.199
-46.409
-46.607
-46.792
-46.962
-47.118
-47.259
-47.383
-47.492
-47.585
-47.662
-47.724
-47.77
-47.803
-47.823
-47.831
-47.827
-47.814
-47.792
-47.763
-47.728
-47.688
-47.646
-47.604
-47.561
-47.521
-47.486
-47.455
-47.433
-47.419
-47.416
-47.425
-47.447
-47.485
-47.54
-47.612
-47.703
-47.815
-47.947
-48.101
-48.276
-48.474
-48.692
-48.932
-49.192
-49.47
-49.767
-50.079
-50.407
-50.747
-51.098
-51.457
-51.823
-52.192
-52.561
-52.928
-53.289
-53.64
-53.979
-54.301
-54.602
-54.878
-55.126
-55.34
-55.516
-55.651
-55.738
-55.774
-55.753
-55.672
-55.526
-55.311
-55.026
-54.667
-54.232
-53.72
-53.132
-52.468
-51.729
-50.914
-50.027
-49.068
-48.041
-46.947
-45.789
-44.57
-43.295
-41.97
-40.602
-39.197
-37.761
-36.303
-34.829
-33.346
-31.864
-30.389
-28.928
-27.488
-26.078
-24.708
-23.389
-22.131
-20.936
-19.804
-18.736
-17.724
-16.763
-15.842
-14.945
-14.056
-13.167
-12.266
-11.348
-10.409
-9.436
-8.418
-7.344
-6.203
-4.995
-3.729
-2.41
-1.063
0.284
1.6
2.832
3.932
4.862
5.577
6.035
6.204
6.046
5.52
4.608
3.273
1.488
-0.764
-3.509
-6.738
-10.415
-14.525
-19.063
-23.948
-29.033
-34.073
-38.707
-42.626
-45.599
-47.339
-47.496
-45.859
-42.501
-37.81
-32.502
-27.329
-22.757
-19.242
-17.457
-17.791
-20.06
-23.564
-26.904
-28.424
-27
-21.446
-10.069
8.319
34.184
67.3
106.133
148.542
192.607
235.569
273.416
302.314
318.656
319.076
301.462
264.395
206.623
129.536
37.698
-65.401
-176.347
-292.414
-413.763
-534.085
-641.973
-727.179
-778.459
-793.856
-781.174
-747.518
-701.41
-647.693
-585.238
-515.554
-441.213
-365.312
-293.448
-229.514
-175.453
-132.476
-100.166
-77.141
-61.939
-53.055
-48.536
-46.453
-44.993
-42.34
-37.618
-30.873
-22.421
-12.763
-2.647
7.222
16.006
22.698
26.901
28.738
28.516
26.769
24.024
20.721
17.409
14.707
12.98
12.382
12.927
14.473
16.902
20.135
24.042
28.469
33.278
38.338
43.543
48.817
54.074
59.214
64.141
68.759
72.989
76.793
80.164
83.114
85.675
87.884
89.784
91.431
92.889
94.219
95.479
96.721
97.988
99.328
100.79
102.419
104.258
106.331
108.652
111.223
114.042
117.104
120.398
123.907
127.609
131.484
135.512
139.676
143.958
148.338
152.791
157.293
161.819
166.345
170.847
175.302
179.685
183.972
188.14
192.165
196.027
199.703
203.169
206.403
209.384
212.09
214.502
216.602
218.373
219.802
220.874
221.581
221.915
221.868
221.437
220.62
219.416
217.828
215.859
213.515
210.803
207.733
204.316
200.564
196.492
192.116
187.452
182.518
177.335
171.923
166.302
160.495
154.524
148.412
142.183
135.859
129.464
123.022
116.555
110.085
103.636
97.227
90.88
84.614
78.446
72.396
66.478
60.707
55.098
49.663
44.414
39.36
34.51
29.873
25.454
21.257
17.288
13.548
10.039
6.76
3.711
0.89
-1.707
-4.084
-6.246
-8.198
-9.948
-11.503
-12.871
-14.061
-15.082
-15.944
-16.656
-17.229
-17.672
-17.997
-18.213
-18.331
-18.361
-18.312
-18.194
-18.017
-17.79
-17.521
-17.218
-16.89
-16.544
-16.186
-15.823
-15.461
-15.105
-14.76
-14.429
-14.118
-13.828
-13.564
-13.325
-13.116
-12.935
-12.785
-12.665
-12.576
-12.517
-12.486
-12.484
-12.508
-12.558
-12.63
-12.725
-12.838
-12.969
-13.115
-13.274
-13.443
-13.62
-13.804
-13.991
-14.18
-14.368
-14.555
-14.738
-14.915
-15.086
-15.248
-15.401
-15.544
-15.677
-15.798
-15.908
-16.006
-16.093
-16.17
-16.236
-16.292
-16.34
-16.38
-16.413
-16.44
-16.463
-16.484
-16.502
-16.522
-16.542
-16.567
-16.596
-16.633
-16.678
-16.733
-16.8
-16.881
-16.978
-17.091
-17.223
-17.375
-17.548
-17.743
-17.961
-18.203
-18.469
-18.759
-19.073
-19.41
-19.77
-20.15
-20.551
-20.97
-21.406
-21.857
-22.32
-22.793
-23.274
-23.76
-24.248
-24.734
-25.215
-25.688
-26.15
-26.596
-27.023
-27.427
-27.804
-28.15
-28.462
-28.734
-28.964
-29.147
-29.279
-29.357
-29.379
-29.341
-29.242
-29.081
-28.857
-28.57
-28.223
-27.816
-27.352
-26.832
-26.261
-25.641
-24.975
-24.269
-23.525
-22.748
-21.944
-21.119
-20.279
-19.433
-18.585
-17.743
-16.914
-16.104
-15.321
-14.571
-13.861
-13.195
-12.579
-12.02
-11.529
-11.111
-10.767
-10.493
-10.285
-10.138
-10.045
-9.993
-9.966
-9.944
-9.914
-9.861
-9.777
-9.654
-9.484
-9.248
-8.93
-8.52
-8.018
-7.435
-6.782
-6.074
-5.328
-4.581
-3.888
-3.303
-2.885
-2.681
-2.727
-3.068
-3.739
-4.775
-6.216
-8.096
-10.442
-13.264
-16.576
-20.362
-24.625
-29.38
-34.515
-39.836
-45.074
-49.837
-53.789
-56.71
-58.275
-58.093
-56.105
-52.454
-47.563
-42.36
-37.537
-33.471
-30.824
-30.192
-31.581
-34.728
-38.716
-41.654
-42.102
-38.911
-30.355
-15.075
7.596
37.963
75.033
116.512
160.282
203.706
242.927
274.149
293.549
297.449
283.671
251.02
198.629
127.169
39.089
-62.154
-171.678
-283.97
-394.032
-496.541
-586.178
-658.822
-711.449
-742.393
-751.871
-740.928
-711.147
-665.484
-607.57
-541.248
-470.754
-399.743
-330.99
-267.282
-210.919
-163.228
-125.014
-96.106
-75.314
-61.431
-53.195
-48.803
-46.555
-44.879
-42.223
-37.923
-32.037
-24.725
-16.39
-7.716
0.678
8.024
13.477
16.785
18.09
17.674
16.02
13.611
10.863
8.291
6.44
5.587
5.828
7.141
9.373
12.412
16.174
20.526
25.32
30.425
35.723
41.123
46.556
51.935
57.161
62.139
66.775
71.016
74.847
78.272
81.321
84.026
86.426
88.572
90.523
92.337
94.07
95.768
97.474
99.232
101.09
103.094
105.289
107.704
110.353
113.243
116.369
119.727
123.305
127.087
131.049
135.17
139.431
143.812
148.298
152.866
157.493
162.155
166.826
171.48
176.094
180.644
185.106
189.454
193.667
197.721
201.595
205.268
208.716
211.917
214.849
217.492
219.827
221.837
223.503
224.814
225.755
226.318
226.494
226.279
225.667
224.657
223.25
221.447
219.254
216.675
213.72
210.398
206.721
202.701
198.354
193.696
188.745
183.519
178.04
172.328
166.406
160.296
154.021
147.606
141.075
134.452
127.762
121.028
114.276
107.527
100.806
94.135
87.535
81.026
74.628
68.359
62.236
56.275
50.491
44.896
39.503
34.322
29.364
24.635
20.142
15.891
11.886
8.129
4.621
1.362
-1.649
-4.415
-6.938
-9.225
-11.281
-13.112
-14.726
-16.132
-17.338
-18.356
-19.194
-19.864
-20.377
-20.744
-20.978
-21.089
-21.089
-20.99
-20.804
-20.542
-20.215
-19.834
-19.409
-18.95
-18.466
-17.968
-17.462
-16.958
-16.462
-15.982
-15.524
-15.092
-14.693
-14.33
-14.007
-13.726
-13.491
-13.302
-13.161
-13.069
-13.025
-13.03
-13.081
-13.179
-13.321
-13.506
-13.731
-13.993
-14.29
-14.62
-14.978
-15.363
-15.771
-16.199
-16.644
-17.103
-17.574
-18.053
-18.538
-19.026
-19.515
-20.003
-20.488
-20.969
-21.444
-21.911
-22.371
-22.824
-23.267
-23.702
-24.13
-24.549
-24.962
-25.369
-25.772
-26.171
-26.568
-26.965
-27.363
-27.765
-28.171
-28.583
-29.003
-29.431
-29.869
-30.317
-30.777
-31.248
-31.732
-32.228
-32.736
-33.257
-33.791
-34.335
-34.89
-35.454
-36.025
-36.603
-37.183
-37.765
-38.345
-38.92
-39.488
-40.045
-40.587
-41.11
-41.611
-42.085
-42.528
-42.937
-43.306
-43.633
-43.915
-44.148
-44.331
-44.461
-44.538
-44.563
-44.534
-44.452
-44.319
-44.134
-43.901
-43.62
-43.294
-42.925
-42.516
-42.069
-41.591
-41.085
-40.557
-40.013
-39.458
-38.897
-38.338
-37.786
-37.25
-36.731
-36.235
-35.766
-35.33
-34.938
-34.594
-34.297
-34.046
-33.837
-33.665
-33.526
-33.408
-33.292
-33.16
-32.995
-32.787
-32.531
-32.222
-31.854
-31.412
-30.882
-30.258
-29.547
-28.759
-27.906
-26.997
-26.05
-25.105
-24.219
-23.455
-22.876
-22.522
-22.424
-22.614
-23.116
-23.97
-25.227
-26.915
-29.06
-31.672
-34.742
-38.291
-42.364
-46.892
-51.7
-56.523
-60.983
-64.779
-67.722
-69.551
-69.931
-68.686
-65.895
-61.945
-57.556
-53.409
-49.875
-47.324
-46.305
-47.109
-49.547
-52.929
-55.899
-56.932
-54.967
-48.89
-37.186
-18.814
6.631
38.845
76.331
117.062
159.085
199.639
234.963
261.396
275.393
274.006
255.606
218.986
163.534
90.381
2.287
-96.886
-202.168
-308.546
-411.336
-505.199
-585.206
-647.766
-690.418
-712.485
-714.832
-698.553
-665.468
-618.885
-562.399
-499.781
-434.978
-370.678
-308.921
-252.159
-202.178
-159.84
-125.688
-99.223
-79.192
-64.884
-55.429
-49.267
-45.06
-41.483
-37.207
-31.852
-25.585
-18.421
-10.642
-2.818
4.584
10.873
15.31
17.755
18.38
17.452
15.421
12.724
9.731
6.924
4.796
3.596
3.414
4.22
5.873
8.273
11.34
14.957
18.993
23.329
27.859
32.491
37.162
41.79
46.283
50.553
54.513
58.113
61.339
64.201
66.733
68.968
70.946
72.717
74.338
75.865
77.352
78.846
80.386
82.015
83.778
85.719
87.882
90.295
92.97
95.911
99.114
102.571
106.271
110.194
114.316
118.615
123.068
127.654
132.355
137.146
142.003
146.898
151.801
156.686
161.527
166.295
170.965
175.508
179.9
184.116
188.133
191.926
195.471
198.745
201.725
204.389
206.717
208.691
210.295
211.513
212.335
212.749
212.749
212.33
211.489
210.226
208.542
206.442
203.931
201.017
197.711
194.025
189.972
185.57
180.835
175.786
170.444
164.832
158.971
152.886
146.602
140.144
133.537
126.807
119.981
113.085
106.145
99.186
92.234
85.312
78.446
71.657
64.967
58.396
51.964
45.688
39.585
33.669
27.954
22.451
17.171
12.123
7.313
2.749
-1.567
-5.631
-9.443
-13.002
-16.31
-19.37
-22.186
-24.763
-27.108
-29.228
-31.13
-32.824
-34.319
-35.626
-36.755
-37.717
-38.524
-39.187
-39.719
-40.131
-40.435
-40.642
-40.763
-40.81
-40.793
-40.722
-40.607
-40.457
-40.279
-40.083
-39.876
-39.662
-39.45
-39.242
-39.044
-38.859
-38.69
-38.539
-38.408
-38.298
-38.21
-38.142
-38.096
-38.069
-38.06
-38.067
-38.089
-38.122
-38.165
-38.214
-38.266
-38.318
-38.368
-38.412
-38.447
-38.469
-38.477
-38.468
-38.439
-38.387
-38.312
-38.21
-38.081
-37.924
-37.737
-37.522
-37.277
-37.003
-36.701
-36.371
-36.015
-35.634
-35.231
-34.806
-34.362
-33.902
-33.428
-32.942
-32.447
-31.946
-31.443
-30.94
-30.44
-29.946
-29.461
-28.989
-28.531
-28.092
-27.673
-27.278
-26.909
-26.568
-26.258
-25.981
-25.737
-25.529
-25.357
-25.223
-25.125
-25.063
-25.039
-25.049
-25.095
-25.174
-25.284
-25.426
-25.595
-25.79
-26.009
-26.249
-26.507
-26.78
-27.064
-27.356
-27.653
-27.95
-28.245
-28.532
-28.808
-29.069
-29.311
-29.528
-29.717
-29.874
-29.993
-30.072
-30.107
-30.096
-30.035
-29.922
-29.758
-29.542
-29.273
-28.953
-28.582
-28.16
-27.69
-27.173
-26.612
-26.006
-25.36
-24.676
-23.959
-23.214
-22.445
-21.656
-20.854
-20.042
-19.227
-18.414
-17.61
-16.817
-16.04
-15.284
-14.557
-13.866
-13.219
-12.615
-12.053
-11.531
-11.043
-10.585
-10.147
-9.71
-9.259
-8.779
-8.258
-7.69
-7.065
-6.374
-5.605
-4.744
-3.784
-2.73
-1.592
-0.38
0.889
2.192
3.492
4.729
5.844
6.782
7.48
7.892
7.966
7.653
6.917
5.719
4.021
1.799
-0.965
-4.294
-8.17
-12.59
-17.571
-23
-28.689
-34.383
-39.683
-44.24
-47.816
-50.071
-50.615
-49.378
-46.482
-42.31
-37.734
-33.401
-29.675
-27.204
-26.568
-27.789
-30.628
-34.205
-36.725
-36.828
-33.428
-24.869
-9.821
12.404
42.152
78.477
119.159
162.152
204.928
243.771
274.972
294.757
299.442
286.809
255.666
205.112
135.7
49.721
-49.534
-157.328
-268.227
-377.283
-479.289
-568.981
-642.224
-695.953
-728.388
-739.639
-730.714
-703.112
-659.643
-603.837
-539.446
-470.633
-401.066
-333.503
-270.665
-214.862
-167.463
-129.307
-100.282
-79.23
-64.926
-56.127
-51.081
-48.115
-45.681
-42.249
-37.167
-30.517
-22.499
-13.545
-4.342
4.498
12.225
18.013
21.611
23.154
22.926
21.412
19.092
16.373
13.757
11.763
10.689
10.655
11.656
13.568
16.285
19.722
23.757
28.25
33.071
38.109
43.267
48.469
53.636
58.677
63.505
68.039
72.211
75.985
79.359
82.348
84.981
87.296
89.334
91.146
92.791
94.326
95.802
97.267
98.761
100.326
102.005
103.84
105.866
108.107
110.573
113.264
116.179
119.309
122.645
126.17
129.862
133.702
137.671
141.752
145.928
150.179
154.482
158.815
163.153
167.474
171.756
175.974
180.107
184.131
188.025
191.766
195.334
198.709
201.867
204.789
207.454
209.841
211.935
213.717
215.173
216.289
217.054
217.459
217.498
217.164
216.456
215.37
213.909
212.075
209.872
207.306
204.386
201.12
197.521
193.602
189.375
184.859
180.07
175.026
169.747
164.254
158.567
152.71
146.703
140.572
134.338
128.025
121.657
115.257
108.848
102.451
96.09
89.785
83.555
77.421
71.401
65.51
59.766
54.182
48.772
43.548
38.521
33.699
29.092
24.705
20.545
16.615
12.917
9.454
6.226
3.232
0.469
-2.067
-4.378
-6.471
-8.352
-10.029
-11.508
-12.8
-13.912
-14.856
-15.641
-16.278
-16.778
-17.151
-17.409
-17.563
-17.624
-17.602
-17.508
-17.352
-17.144
-16.892
-16.607
-16.296
-15.968
-15.629
-15.286
-14.946
-14.614
-14.295
-13.993
-13.713
-13.456
-13.226
-13.025
-12.854
-12.714
-12.606
-12.53
-12.485
-12.471
-12.486
-12.53
-12.599
-12.693
-12.808
-12.944
-13.096
-13.263
-13.442
-13.631
-13.827
-14.027
-14.229
-14.432
-14.632
-14.829
-15.019
-15.202
-15.377
-15.542
-15.697
-15.84
-15.972
-16.092
-16.2
-16.297
-16.383
-16.457
-16.522
-16.576
-16.623
-16.661
-16.693
-16.72
-16.743
-16.763
-16.783
-16.803
-16.826
-16.853
-16.886
-16.926
-16.975
-17.034
-17.106
-17.191
-17.291
-17.408
-17.542
-17.694
-17.865
-18.056
-18.267
-18.497
-18.748
-19.017
-19.304
-19.609
-19.931
-20.268
-20.62
-20.984
-21.36
-21.745
-22.138
-22.536
-22.936
-23.337
-23.735
-24.128
-24.513
-24.886
-25.244
-25.584
-25.904
-26.198
-26.463
-26.696
-26.894
-27.053
-27.169
-27.239
-27.263
-27.236
-27.158
-27.028
-26.846
-26.613
-26.329
-25.996
-25.614
-25.186
-24.714
-24.201
-23.649
-23.062
-22.442
-21.793
-21.121
-20.43
-19.727
-19.015
-18.3
-17.589
-16.886
-16.2
-15.536
-14.897
-14.288
-13.712
-13.177
-12.691
-12.258
-11.878
-11.551
-11.271
-11.037
-10.842
-10.675
-10.519
-10.355
-10.163
-9.931
-9.654
-9.323
-8.93
-8.46
-7.896
-7.231
-6.466
-5.611
-4.675
-3.669
-2.608
-1.533
-0.504
0.414
1.146
1.643
1.865
1.766
1.319
0.473
-0.834
-2.64
-4.983
-7.884
-11.338
-15.374
-20.041
-25.271
-30.876
-36.57
-41.939
-46.646
-50.472
-53.126
-54.234
-53.599
-51.295
-47.724
-43.638
-39.735
-36.384
-33.96
-33.03
-33.91
-36.383
-39.7
-42.43
-42.962
-40.192
-33.008
-19.833
0.515
28.451
63.655
104.584
148.947
194.57
238.637
277.133
305.926
321.279
319.973
299.841
259.806
199.473
119.523
23.843
-82.383
-195.231
-309.307
-421.479
-529.214
-624.067
-699.633
-749.912
-769.455
-762.696
-734.596
-690.011
-636.148
-574.347
-506.433
-436.166
-365.328
-297.972
-237.844
-186.44
-145.061
-113.651
-90.83
-75.274
-65.684
-60.249
-57.22
-54.932
-51.655
-46.553
-39.657
-31.227
-21.702
-11.762
-2.058
6.61
13.266
17.519
19.477
19.419
17.843
15.243
12.03
8.74
5.98
4.122
3.326
3.615
4.862
6.958
9.837
13.379
17.438
21.882
26.586
31.45
36.405
41.374
46.259
50.968
55.404
59.485
63.169
66.448
69.33
71.844
74.024
75.91
77.556
79.025
80.375
81.663
82.937
84.239
85.614
87.112
88.778
90.655
92.77
95.137
97.759
100.636
103.762
107.126
110.712
114.496
118.457
122.575
126.831
131.206
135.68
140.227
144.82
149.435
154.044
158.623
163.146
167.587
171.92
176.121
180.165
184.03
187.692
191.127
194.312
197.223
199.839
202.14
204.108
205.724
206.975
207.846
208.329
208.415
208.098
207.375
206.244
204.706
202.764
200.423
197.689
194.573
191.085
187.238
183.046
178.526
173.695
168.574
163.182
157.541
151.673
145.604
139.355
132.953
126.423
119.789
113.078
106.314
99.523
92.729
85.957
79.229
72.568
65.996
59.532
53.196
47.005
40.975
35.122
29.458
23.996
18.746
13.718
8.918
4.354
0.03
-4.051
-7.887
-11.477
-14.821
-17.922
-20.783
-23.408
-25.802
-27.971
-29.923
-31.665
-33.206
-34.556
-35.723
-36.719
-37.554
-38.239
-38.785
-39.203
-39.503
-39.697
-39.796
-39.809
-39.747
-39.619
-39.434
-39.202
-38.929
-38.625
-38.296
-37.948
-37.588
-37.222
-36.853
-36.486
-36.126
-35.775
-35.436
-35.111
-34.803
-34.512
-34.24
-33.987
-33.752
-33.537
-33.341
-33.162
-33.001
-32.856
-32.725
-32.608
-32.503
-32.409
-32.324
-32.248
-32.179
-32.116
-32.058
-32.004
-31.954
-31.906
-31.861
-31.818
-31.776
-31.737
-31.699
-31.664
-31.63
-31.599
-31.571
-31.546
-31.525
-31.508
-31.497
-31.49
-31.491
-31.498
-31.512
-31.535
-31.567
-31.608
-31.659
-31.72
-31.793
-31.876
-31.97
-32.076
-32.193
-32.322
-32.462
-32.613
-32.775
-32.947
-33.129
-33.321
-33.522
-33.731
-33.948
-34.173
-34.404
-34.641
-34.884
-35.133
-35.386
-35.643
-35.902
-36.165
-36.428
-36.693
-36.956
-37.217
-37.475
-37.729
-37.976
-38.217
-38.449
-38.671
-38.881
-39.078
-39.261
-39.427
-39.575
-39.704
-39.81
-39.892
-39.949
-39.978
-39.977
-39.944
-39.876
-39.773
-39.63
-39.445
-39.217
-38.942
-38.618
-38.244
-37.818
-37.34
-36.808
-36.223
-35.585
-34.897
-34.16
-33.375
-32.546
-31.674
-30.764
-29.817
-28.838
-27.83
-26.796
-25.743
-24.674
-23.599
-22.521
-21.448
-20.385
-19.34
-18.317
-17.326
-16.371
-15.457
-14.591
-13.777
-13.022
-12.337
-11.727
-11.191
-10.728
-10.334
-10.001
-9.724
-9.491
-9.283
-9.086
-8.884
-8.663
-8.42
-8.145
-7.829
-7.46
-7.02
-6.5
-5.902
-5.229
-4.491
-3.711
-2.899
-2.087
-1.33
-0.673
-0.166
0.135
0.203
0.003
-0.505
-1.341
-2.547
-4.169
-6.228
-8.755
-11.765
-15.234
-19.18
-23.632
-28.505
-33.642
-38.791
-43.569
-47.673
-50.888
-52.929
-53.445
-52.224
-49.334
-45.169
-40.467
-35.957
-32.068
-29.208
-28.004
-28.84
-31.536
-35.385
-38.968
-40.621
-39.226
-33.621
-22.128
-3.546
22.635
56.217
95.677
138.871
183.883
227.948
267.037
297.267
314.946
316.623
300.12
263.969
206.883
130.229
38.568
-64.569
-175.689
-291.968
-413.466
-533.841
-641.667
-726.711
-777.768
-792.87
-779.84
-745.824
-699.386
-645.452
-582.952
-513.411
-439.409
-364.035
-292.868
-229.776
-176.648
-134.63
-103.254
-81.103
-66.692
-58.487
-54.502
-52.791
-51.551
-49
-44.299
-37.51
-28.963
-19.177
-8.919
1.089
10.006
16.844
21.219
23.261
23.278
21.797
19.342
16.349
13.362
10.982
9.563
9.248
10.046
11.817
14.441
17.837
21.877
26.408
31.295
36.409
41.646
46.932
52.184
57.304
62.198
66.773
70.95
74.694
77.995
80.867
83.34
85.449
87.238
88.76
90.079
91.254
92.341
93.391
94.447
95.556
96.764
98.119
99.66
101.416
103.397
105.61
108.055
110.726
113.615
116.709
119.985
123.426
127.015
130.736
134.573
138.509
142.52
146.585
150.68
154.784
158.875
162.93
166.927
170.842
174.655
178.344
181.889
185.267
188.459
191.441
194.193
196.695
198.928
200.875
202.518
203.843
204.837
205.49
205.793
205.74
205.324
204.544
203.397
201.884
200.008
197.773
195.186
192.253
188.985
185.393
181.489
177.288
172.806
168.058
163.063
157.84
152.409
146.79
141.005
135.074
129.02
122.866
116.633
110.344
104.022
97.688
91.364
85.07
78.828
72.656
66.574
60.598
54.745
49.031
43.471
38.077
32.862
27.836
23.01
18.392
13.989
9.807
5.85
2.123
-1.372
-4.635
-7.665
-10.464
-13.033
-15.377
-17.498
-19.403
-21.096
-22.586
-23.879
-24.984
-25.909
-26.664
-27.258
-27.702
-28.006
-28.18
-28.236
-28.184
-28.034
-27.797
-27.484
-27.105
-26.669
-26.188
-25.669
-25.123
-24.557
-23.979
-23.398
-22.82
-22.252
-21.7
-21.17
-20.667
-20.194
-19.757
-19.358
-19.001
-18.687
-18.419
-18.197
-18.023
-17.897
-17.818
-17.786
-17.799
-17.857
-17.958
-18.099
-18.278
-18.493
-18.74
-19.017
-19.32
-19.646
-19.992
-20.354
-20.728
-21.111
-21.5
-21.89
-22.28
-22.664
-23.041
-23.407
-23.759
-24.094
-24.409
-24.703
-24.972
-25.216
-25.431
-25.617
-25.772
-25.896
-25.987
-26.045
-26.07
-26.063
-26.023
-25.951
-25.848
-25.716
-25.556
-25.369
-25.157
-24.923
-24.669
-24.398
-24.111
-23.812
-23.505
-23.191
-22.874
-22.558
-22.245
-21.939
-21.643
-21.36
-21.093
-20.846
-20.621
-20.421
-20.249
-20.106
-19.995
-19.917
-19.873
-19.865
-19.891
-19.954
-20.051
-20.184
-20.35
-20.548
-20.777
-21.035
-21.319
-21.627
-21.955
-22.299
-22.657
-23.024
-23.394
-23.765
-24.131
-24.486
-24.828
-25.148
-25.444
-25.708
-25.937
-26.124
-26.265
-26.354
-26.389
-26.365
-26.279
-26.128
-25.912
-25.629
-25.279
-24.864
-24.384
-23.841
-23.237
-22.575
-21.859
-21.091
-20.276
-19.419
-18.524
-17.598
-16.648
-15.681
-14.703
-13.723
-12.747
-11.783
-10.841
-9.927
-9.048
-8.207
-7.411
-6.667
-5.986
-5.371
-4.823
-4.341
-3.92
-3.558
-3.249
-2.983
-2.741
-2.505
-2.258
-1.987
-1.687
-1.352
-0.972
-0.531
-0.014
0.585
1.263
2.009
2.815
3.673
4.568
5.462
6.3
7.021
7.561
7.877
7.936
7.697
7.134
6.201
4.845
3.035
0.739
-2.059
-5.358
-9.185
-13.591
-18.513
-23.771
-29.095
-34.086
-38.412
-41.848
-44.097
-44.786
-43.719
-40.989
-37.018
-32.588
-28.447
-25.02
-22.736
-22.213
-23.78
-27.2
-31.677
-35.708
-37.589
-36.129
-30.108
-17.844
1.877
29.467
64.582
105.616
150.224
196.198
240.602
279.256
308.08
323.437
321.936
301.354
260.624
198.996
118.175
23.113
-82.268
-194.382
-310.207
-429.473
-546.177
-649.465
-729.5
-775.671
-786.49
-769.853
-733.185
-685.404
-631.216
-569.347
-501.154
-428.811
-355.2
-285.812
-224.247
-172.147
-130.65
-99.314
-76.8
-61.837
-52.973
-48.246
-45.819
-43.973
-40.976
-36.036
-29.204
-20.741
-11.14
-1.148
8.547
17.124
23.629
27.71
29.501
29.306
27.645
25.033
21.902
18.788
16.286
14.747
14.315
14.997
16.658
19.18
22.485
26.447
30.915
35.754
40.836
46.054
51.334
56.592
61.73
66.655
71.271
75.501
79.305
82.676
85.627
88.188
90.394
92.287
93.92
95.356
96.654
97.869
99.051
100.242
101.487
102.834
104.326
106.007
107.9
110.018
112.366
114.94
117.737
120.746
123.952
127.334
130.871
134.548
138.347
142.252
146.244
150.3
154.399
158.516
162.63
166.717
170.756
174.723
178.597
182.354
185.974
189.437
192.72
195.803
198.663
201.281
203.635
205.707
207.48
208.937
210.064
210.848
211.28
211.351
211.055
210.386
209.343
207.923
206.13
203.964
201.432
198.539
195.294
191.707
187.79
183.555
179.018
174.195
169.103
163.76
158.187
152.404
146.433
140.294
134.012
127.609
121.108
114.533
107.907
101.253
94.594
87.954
81.352
74.812
68.352
61.993
55.751
49.646
43.692
37.904
32.297
26.882
21.671
16.674
11.9
7.355
3.046
-1.022
-4.846
-8.424
-11.756
-14.84
-17.679
-20.276
-22.634
-24.759
-26.655
-28.329
-29.79
-31.046
-32.104
-32.976
-33.671
-34.199
-34.571
-34.799
-34.892
-34.862
-34.721
-34.479
-34.147
-33.735
-33.254
-32.713
-32.122
-31.491
-30.826
-30.138
-29.433
-28.719
-28.002
-27.288
-26.583
-25.892
-25.219
-24.568
-23.943
-23.346
-22.779
-22.245
-21.743
-21.276
-20.844
-20.446
-20.083
-19.753
-19.456
-19.191
-18.956
-18.749
-18.57
-18.416
-18.286
-18.178
-18.09
-18.021
-17.969
-17.933
-17.91
-17.901
-17.903
-17.916
-17.938
-17.969
-18.007
-18.053
-18.105
-18.164
-18.23
-18.301
-18.378
-18.462
-18.553
-18.651
-18.756
-18.869
-18.99
-19.12
-19.26
-19.411
-19.572
-19.746
-19.932
-20.131
-20.344
-20.572
-20.815
-21.074
-21.348
-21.638
-21.944
-22.267
-22.605
-22.959
-23.329
-23.714
-24.113
-24.526
-24.951
-25.387
-25.834
-26.288
-26.748
-27.212
-27.679
-28.145
-28.609
-29.067
-29.519
-29.96
-30.389
-30.802
-31.197
-31.57
-31.918
-32.239
-32.528
-32.783
-33.001
-33.179
-33.313
-33.401
-33.44
-33.427
-33.36
-33.236
-33.052
-32.808
-32.502
-32.132
-31.7
-31.204
-30.646
-30.029
-29.354
-28.625
-27.845
-27.017
-26.146
-25.236
-24.291
-23.317
-22.316
-21.296
-20.261
-19.219
-18.176
-17.139
-16.114
-15.108
-14.128
-13.18
-12.273
-11.413
-10.602
-9.846
-9.148
-8.514
-7.953
-7.468
-7.057
-6.719
-6.449
-6.242
-6.093
-5.989
-5.911
-5.84
-5.757
-5.648
-5.507
-5.327
-5.095
-4.799
-4.425
-3.965
-3.423
-2.807
-2.119
-1.372
-0.581
0.22
0.974
1.622
2.101
2.361
2.361
2.067
1.45
0.475
-0.902
-2.717
-4.994
-7.761
-11.019
-14.787
-19.124
-23.956
-29.098
-34.286
-39.105
-43.201
-46.369
-48.3
-48.622
-47.293
-44.459
-40.547
-36.492
-32.963
-30.279
-29.013
-29.658
-32.135
-36.125
-40.648
-43.802
-44.18
-40.73
-31.88
-16.388
6.355
36.626
73.409
114.386
157.516
200.415
239.551
271.38
292.257
298.534
288.062
259.781
212.756
147.302
65.418
-29.944
-134.322
-242.378
-349.36
-450.374
-540.284
-614.91
-671.031
-706.562
-721.398
-716.491
-693.139
-653.804
-601.754
-540.545
-474.283
-406.748
-340.698
-278.75
-223.227
-175.634
-136.999
-107.403
-85.777
-70.878
-61.53
-56.117
-53.061
-50.829
-47.802
-43.211
-37.081
-29.599
-21.16
-12.373
-3.78
3.9
9.79
13.573
15.337
15.332
14.026
11.867
9.229
6.602
4.524
3.319
3.126
3.958
5.687
8.21
11.446
15.276
19.556
24.153
28.958
33.877
38.844
43.79
48.629
53.277
57.655
61.695
65.361
68.645
71.563
74.14
76.413
78.423
80.219
81.861
83.403
84.894
86.381
87.899
89.49
91.194
93.053
95.101
97.364
99.851
102.564
105.501
108.654
112.013
115.561
119.274
123.133
127.117
131.207
135.386
139.633
143.923
148.233
152.537
156.81
161.029
165.171
169.21
173.122
176.886
180.478
183.879
187.067
190.02
192.717
195.138
197.264
199.077
200.561
201.7
202.483
202.899
202.938
202.595
201.865
200.746
199.238
197.343
195.063
192.406
189.378
185.989
182.251
178.176
173.778
169.075
164.083
158.821
153.31
147.571
141.625
135.496
129.207
122.781
116.242
109.615
102.924
96.194
89.447
82.709
76.001
69.347
62.767
56.284
49.915
43.68
37.596
31.679
25.943
20.403
15.069
9.953
5.064
0.411
-4.001
-8.166
-12.08
-15.742
-19.15
-22.304
-25.207
-27.861
-30.269
-32.438
-34.373
-36.081
-37.57
-38.849
-39.927
-40.814
-41.521
-42.06
-42.441
-42.676
-42.777
-42.756
-42.626
-42.397
-42.081
-41.69
-41.236
-40.727
-40.176
-39.592
-38.984
-38.361
-37.731
-37.103
-36.483
-35.878
-35.293
-34.732
-34.202
-33.705
-33.243
-32.821
-32.439
-32.098
-31.799
-31.543
-31.328
-31.154
-31.018
-30.92
-30.856
-30.825
-30.824
-30.849
-30.897
-30.965
-31.05
-31.148
-31.257
-31.372
-31.49
-31.609
-31.725
-31.837
-31.94
-32.033
-32.113
-32.179
-32.23
-32.264
-32.28
-32.277
-32.256
-32.217
-32.159
-32.084
-31.992
-31.885
-31.764
-31.631
-31.489
-31.339
-31.184
-31.026
-30.869
-30.715
-30.568
-30.429
-30.302
-30.19
-30.095
-30.019
-29.965
-29.933
-29.927
-29.947
-29.995
-30.07
-30.174
-30.308
-30.469
-30.659
-30.877
-31.12
-31.387
-31.677
-31.987
-32.314
-32.654
-33.005
-33.362
-33.721
-34.079
-34.43
-34.769
-35.091
-35.391
-35.663
-35.902
-36.103
-36.261
-36.371
-36.429
-36.431
-36.375
-36.258
-36.079
-35.837
-35.531
-35.16
-34.726
-34.229
-33.67
-33.052
-32.375
-31.642
-30.857
-30.023
-29.147
-28.232
-27.285
-26.311
-25.318
-24.311
-23.299
-22.29
-21.288
-20.298
-19.327
-18.383
-17.477
-16.614
-15.798
-15.029
-14.305
-13.627
-12.99
-12.385
-11.795
-11.202
-10.59
-9.946
-9.267
-8.546
-7.773
-6.936
-6.02
-5.021
-3.945
-2.803
-1.603
-0.356
0.918
2.177
3.353
4.379
5.185
5.718
5.936
5.79
5.242
4.245
2.742
0.703
-1.896
-5.078
-8.841
-13.211
-18.234
-23.814
-29.741
-35.737
-41.404
-46.417
-50.581
-53.564
-54.961
-54.649
-52.737
-49.649
-46.158
-42.805
-39.8
-37.557
-36.657
-37.252
-39.086
-41.288
-42.323
-40.978
-36.503
-27.831
-13.551
7.242
34.848
68.631
106.792
147.499
188.932
228.334
261.996
286.131
297.141
292.227
269.838
228.8
168.634
90.53
-2.667
-106.745
-216.527
-326.789
-432.52
-528.454
-609.792
-672.862
-715.23
-736.343
-737.061
-718.646
-683.208
-633.922
-574.303
-508.247
-439.751
-371.674
-306.331
-246.314
-193.486
-148.953
-113.394
-86.325
-66.515
-53.104
-44.997
-40.435
-37.868
-35.786
-32.755
-28.345
-22.696
-15.858
-8.176
-0.307
7.179
13.533
17.996
20.436
21.065
20.158
18.18
15.59
12.775
10.235
8.468
7.703
8.004
9.329
11.522
14.472
18.095
22.257
26.811
31.63
36.593
41.61
46.617
51.53
56.257
60.713
64.809
68.501
71.783
74.665
77.178
79.355
81.235
82.867
84.311
85.623
86.858
88.062
89.273
90.537
91.897
93.397
95.079
96.97
99.082
101.42
103.98
106.757
109.741
112.916
116.26
119.753
123.377
127.116
130.953
134.87
138.843
142.851
146.869
150.875
154.847
158.763
162.6
166.338
169.954
173.428
176.741
179.874
182.806
185.517
187.987
190.198
192.132
193.775
195.111
196.127
196.813
197.16
197.162
196.813
196.11
195.053
193.64
191.876
189.763
187.309
184.519
181.404
177.974
174.242
170.221
165.926
161.373
156.58
151.565
146.347
140.946
135.383
129.678
123.853
117.93
111.93
105.875
99.787
93.686
87.594
81.531
75.516
69.568
63.705
57.945
52.302
46.791
41.427
36.222
31.186
26.332
21.666
17.198
12.935
8.88
5.04
1.416
-1.989
-5.175
-8.141
-10.889
-13.42
-15.739
-17.849
-19.755
-21.463
-22.979
-24.31
-25.463
-26.446
-27.268
-27.938
-28.464
-28.855
-29.12
-29.27
-29.312
-29.255
-29.11
-28.883
-28.584
-28.221
-27.8
-27.331
-26.819
-26.271
-25.693
-25.092
-24.471
-23.837
-23.194
-22.545
-21.895
-21.246
-20.601
-19.963
-19.334
-18.716
-18.11
-17.517
-16.938
-16.374
-15.825
-15.293
-14.776
-14.274
-13.789
-13.32
-12.866
-12.428
-12.005
-11.598
-11.207
-10.831
-10.472
-10.129
-9.803
-9.494
-9.203
-8.931
-8.678
-8.445
-8.233
-8.044
-7.877
-7.735
-7.619
-7.529
-7.468
-7.436
-7.434
-7.464
-7.526
-7.623
-7.755
-7.922
-8.127
-8.368
-8.648
-8.967
-9.324
-9.719
-10.152
-10.622
-11.127
-11.668
-12.24
-12.844
-13.476
-14.134
-14.816
-15.519
-16.24
-16.976
-17.722
-18.476
-19.233
-19.99
-20.741
-21.483
-22.211
-22.921
-23.607
-24.265
-24.891
-25.479
-26.025
-26.523
-26.97
-27.36
-27.688
-27.952
-28.148
-28.273
-28.325
-28.302
-28.204
-28.031
-27.784
-27.465
-27.074
-26.613
-26.086
-25.494
-24.842
-24.132
-23.368
-22.556
-21.701
-20.809
-19.888
-18.943
-17.981
-17.009
-16.034
-15.063
-14.105
-13.163
-12.244
-11.355
-10.503
-9.7
-8.95
-8.257
-7.618
-7.032
-6.493
-5.998
-5.536
-5.091
-4.647
-4.189
-3.704
-3.188
-2.63
-2.019
-1.343
-0.585
0.264
1.199
2.213
3.297
4.436
5.609
6.783
7.9
8.908
9.752
10.374
10.731
10.773
10.452
9.735
8.58
6.945
4.804
2.136
-1.088
-4.851
-9.159
-14.044
-19.394
-25.026
-30.68
-35.944
-40.464
-44.016
-46.25
-46.761
-45.473
-42.505
-38.279
-33.72
-29.496
-25.956
-23.717
-23.367
-24.934
-28.145
-32.048
-34.759
-34.835
-31.211
-22.333
-6.834
15.993
46.446
83.676
125.482
169.779
214.217
255.318
289.28
312.39
321.128
312.752
285.5
238.195
170.563
85.019
-13.494
-120.935
-233.58
-348.694
-465.846
-578.76
-677.067
-751.521
-792.011
-797.637
-776.316
-735.385
-684.034
-627.117
-563.503
-494.582
-422.285
-349.336
-281.179
-221.329
-171.213
-131.761
-102.365
-81.596
-68.26
-60.901
-57.432
-55.966
-54.797
-52.277
-47.731
-41.262
-33.106
-23.781
-14.097
-4.765
3.387
9.473
13.227
14.799
14.497
12.846
10.357
7.468
4.707
2.621
1.515
1.512
2.6
4.643
7.526
11.157
15.408
20.13
25.186
30.461
35.854
41.289
46.684
51.946
56.985
61.717
66.072
70.012
73.533
76.65
79.391
81.795
83.903
85.767
87.449
89.006
90.49
91.951
93.427
94.963
96.602
98.387
100.354
102.528
104.918
107.526
110.351
113.386
116.619
120.036
123.613
127.331
131.173
135.12
139.157
143.263
147.417
151.595
155.774
159.931
164.045
168.093
172.053
175.901
179.617
183.181
186.571
189.769
192.753
195.502
197.998
200.221
202.155
203.784
205.093
206.07
206.703
206.986
206.911
206.473
205.671
204.502
202.969
201.073
198.819
196.215
193.267
189.986
186.383
182.471
178.264
173.778
169.03
164.039
158.822
153.401
147.797
142.029
136.121
130.094
123.971
117.774
111.526
105.248
98.963
92.692
86.455
80.273
74.164
68.147
62.239
56.456
50.812
45.322
39.999
34.853
29.896
25.136
20.58
16.237
12.111
8.205
4.524
1.067
-2.163
-5.168
-7.95
-10.511
-12.855
-14.987
-16.913
-18.639
-20.173
-21.521
-22.692
-23.696
-24.541
-25.237
-25.793
-26.22
-26.528
-26.726
-26.824
-26.832
-26.76
-26.617
-26.413
-26.155
-25.853
-25.515
-25.148
-24.759
-24.354
-23.941
-23.524
-23.108
-22.699
-22.299
-21.913
-21.542
-21.191
-20.86
-20.551
-20.264
-20.002
-19.762
-19.546
-19.353
-19.181
-19.031
-18.9
-18.788
-18.693
-18.613
-18.546
-18.491
-18.446
-18.408
-18.377
-18.351
-18.328
-18.306
-18.285
-18.263
-18.24
-18.215
-18.187
-18.156
-18.122
-18.085
-18.045
-18.004
-17.961
-17.917
-17.875
-17.834
-17.798
-17.767
-17.744
-17.73
-17.727
-17.738
-17.763
-17.806
-17.869
-17.952
-18.059
-18.191
-18.35
-18.537
-18.754
-19.001
-19.28
-19.59
-19.933
-20.306
-20.711
-21.145
-21.609
-22.1
-22.616
-23.156
-23.718
-24.298
-24.893
-25.501
-26.116
-26.734
-27.353
-27.965
-28.568
-29.156
-29.723
-30.266
-30.778
-31.254
-31.688
-32.076
-32.412
-32.691
-32.908
-33.058
-33.139
-33.147
-33.079
-32.934
-32.711
-32.411
-32.034
-31.581
-31.053
-30.453
-29.783
-29.046
-28.247
-27.389
-26.476
-25.515
-24.513
-23.477
-22.415
-21.334
-20.243
-19.149
-18.062
-16.991
-15.943
-14.925
-13.944
-13.005
-12.119
-11.296
-10.541
-9.856
-9.241
-8.693
-8.21
-7.789
-7.419
-7.084
-6.768
-6.455
-6.137
-5.812
-5.47
-5.104
-4.703
-4.251
-3.743
-3.184
-2.578
-1.93
-1.249
-0.547
0.145
0.774
1.29
1.635
1.766
1.652
1.255
0.549
-0.503
-1.952
-3.831
-6.169
-8.989
-12.298
-16.123
-20.526
-25.472
-30.808
-36.29
-41.552
-46.268
-50.229
-53.162
-54.703
-54.626
-52.971
-50.103
-46.75
-43.622
-41.093
-39.493
-39.359
-41.038
-44.404
-48.784
-52.776
-54.753
-53.652
-48.49
-37.792
-20.342
4.498
36.72
74.967
117.159
161.53
205.716
246.068
278.785
300.048
306.178
294.855
264.449
213.355
142.433
55.451
-43.497
-150.236
-263.035
-382.445
-505.084
-622.198
-720.272
-785.69
-812.245
-803.321
-769.909
-723.387
-670.867
-614.53
-552.443
-484.31
-412.671
-341.18
-274.866
-217.157
-169.096
-131.095
-102.53
-82.023
-68.459
-60.516
-56.227
-53.87
-51.933
-48.928
-44.279
-38.095
-30.551
-22.095
-13.48
-5.328
1.626
6.58
9.347
10.117
9.199
7.106
4.349
1.349
-1.375
-3.286
-4.121
-3.794
-2.334
0.096
3.376
7.413
12.065
17.171
22.591
28.198
33.884
39.574
45.171
50.569
55.67
60.379
64.644
68.446
71.795
74.718
77.249
79.43
81.314
82.962
84.433
85.785
87.068
88.327
89.609
90.962
92.433
94.068
95.895
97.93
100.179
102.642
105.312
108.183
111.238
114.459
117.827
121.326
124.94
128.655
132.455
136.319
140.226
144.155
148.085
151.996
155.868
159.679
163.41
167.041
170.551
173.923
177.137
180.172
183.009
185.627
188.008
190.133
191.987
193.552
194.815
195.764
196.388
196.679
196.63
196.234
195.49
194.395
192.949
191.155
189.015
186.535
183.722
180.584
177.131
173.375
169.329
165.007
160.425
155.6
150.55
145.293
139.85
134.24
128.485
122.605
116.624
110.562
104.442
98.286
92.116
85.953
79.818
73.732
67.715
61.784
55.959
50.256
44.691
39.278
34.032
28.965
24.089
19.412
14.945
10.695
6.668
2.869
-0.699
-4.033
-7.131
-9.994
-12.623
-15.021
-17.19
-19.135
-20.862
-22.376
-23.687
-24.8
-25.726
-26.473
-27.053
-27.475
-27.75
-27.889
-27.905
-27.807
-27.609
-27.32
-26.953
-26.518
-26.026
-25.487
-24.911
-24.308
-23.686
-23.054
-22.42
-21.79
-21.172
-20.57
-19.992
-19.441
-18.922
-18.438
-17.992
-17.588
-17.226
-16.908
-16.636
-16.408
-16.225
-16.086
-15.991
-15.936
-15.922
-15.944
-16.002
-16.092
-16.211
-16.357
-16.527
-16.717
-16.924
-17.146
-17.381
-17.624
-17.875
-18.13
-18.388
-18.648
-18.907
-19.164
-19.418
-19.669
-19.914
-20.154
-20.388
-20.616
-20.837
-21.052
-21.261
-21.464
-21.663
-21.857
-22.048
-22.237
-22.425
-22.613
-22.803
-22.996
-23.195
-23.4
-23.613
-23.837
-24.072
-24.32
-24.583
-24.86
-25.153
-25.463
-25.789
-26.131
-26.49
-26.863
-27.252
-27.654
-28.07
-28.497
-28.934
-29.381
-29.834
-30.293
-30.755
-31.217
-31.677
-32.132
-32.58
-33.018
-33.442
-33.849
-34.236
-34.598
-34.933
-35.235
-35.502
-35.729
-35.912
-36.049
-36.135
-36.169
-36.149
-36.072
-35.939
-35.75
-35.504
-35.203
-34.848
-34.439
-33.979
-33.47
-32.914
-32.314
-31.671
-30.991
-30.277
-29.535
-28.77
-27.986
-27.188
-26.381
-25.573
-24.768
-23.974
-23.192
-22.426
-21.682
-20.967
-20.288
-19.651
-19.053
-18.495
-17.973
-17.483
-17.021
-16.578
-16.134
-15.673
-15.18
-14.645
-14.063
-13.428
-12.732
-11.962
-11.104
-10.154
-9.12
-8.007
-6.826
-5.587
-4.306
-3.019
-1.783
-0.656
0.301
1.039
1.521
1.708
1.567
1.055
0.12
-1.276
-3.161
-5.558
-8.472
-11.932
-15.995
-20.625
-25.665
-30.862
-35.854
-40.317
-44.041
-46.762
-48.118
-47.878
-46.074
-43.066
-39.576
-36.306
-33.626
-31.844
-31.456
-32.802
-35.778
-39.739
-43.32
-44.937
-43.518
-38.126
-27.45
-10.322
13.878
45.126
82.246
123.318
166.557
209.743
249.612
282.415
304.409
312.237
303.245
275.434
227.441
158.888
72.166
-27.593
-136.269
-250.156
-366.566
-485.066
-598.991
-697.575
-771.196
-809.42
-811.648
-786.228
-740.959
-685.676
-625.408
-559.009
-487.91
-413.916
-339.791
-271.107
-211.29
-161.584
-122.704
-93.814
-73.365
-60.166
-52.733
-48.943
-46.942
-45.11
-41.912
-36.791
-29.915
-21.522
-12.134
-2.571
6.473
14.207
19.803
23.055
24.154
23.426
21.404
18.61
15.48
12.536
10.307
9.083
8.975
9.965
11.911
14.697
18.229
22.378
26.995
31.943
37.104
42.373
47.669
52.908
57.993
62.837
67.355
71.479
75.175
78.441
81.295
83.77
85.907
87.749
89.35
90.772
92.074
93.311
94.532
95.778
97.094
98.523
100.108
101.884
103.876
106.092
108.534
111.2
114.082
117.169
120.446
123.891
127.484
131.208
135.046
138.982
142.997
147.068
151.174
155.292
159.4
163.476
167.499
171.445
175.294
179.023
182.613
186.043
189.292
192.34
195.167
197.751
200.074
202.118
203.867
205.306
206.421
207.2
207.634
207.717
207.441
206.803
205.8
204.433
202.703
200.613
198.169
195.375
192.242
188.778
184.995
180.907
176.527
171.872
166.958
161.804
156.428
150.85
145.092
139.173
133.117
126.946
120.681
114.345
107.96
101.55
95.135
88.737
82.378
76.076
69.852
63.724
57.709
51.824
46.083
40.502
35.092
29.867
24.837
20.011
15.398
11.005
6.837
2.899
-0.805
-4.274
-7.506
-10.502
-13.265
-15.795
-18.097
-20.175
-22.036
-23.685
-25.129
-26.378
-27.439
-28.321
-29.035
-29.591
-29.998
-30.267
-30.409
-30.435
-30.354
-30.179
-29.918
-29.583
-29.183
-28.728
-28.226
-27.687
-27.119
-26.53
-25.928
-25.319
-24.71
-24.106
-23.513
-22.935
-22.377
-21.842
-21.334
-20.854
-20.404
-19.986
-19.602
-19.25
-18.932
-18.647
-18.394
-18.172
-17.98
-17.817
-17.681
-17.569
-17.481
-17.413
-17.365
-17.334
-17.317
-17.314
-17.322
-17.339
-17.365
-17.396
-17.433
-17.474
-17.518
-17.564
-17.611
-17.659
-17.708
-17.758
-17.808
-17.86
-17.913
-17.969
-18.029
-18.092
-18.162
-18.239
-18.324
-18.418
-18.525
-18.645
-18.78
-18.931
-19.101
-19.29
-19.501
-19.734
-19.99
-20.271
-20.577
-20.907
-21.263
-21.643
-22.047
-22.474
-22.923
-23.393
-23.882
-24.389
-24.911
-25.446
-25.99
-26.542
-27.098
-27.654
-28.206
-28.751
-29.284
-29.802
-30.299
-30.772
-31.215
-31.624
-31.993
-32.318
-32.594
-32.815
-32.979
-33.079
-33.114
-33.08
-32.975
-32.797
-32.545
-32.221
-31.824
-31.355
-30.815
-30.207
-29.534
-28.797
-28.001
-27.147
-26.24
-25.286
-24.289
-23.257
-22.197
-21.114
-20.016
-18.91
-17.803
-16.703
-15.619
-14.556
-13.521
-12.52
-11.563
-10.662
-9.822
-9.049
-8.338
-7.689
-7.097
-6.556
-6.056
-5.58
-5.11
-4.632
-4.131
-3.601
-3.036
-2.426
-1.756
-1.01
-0.178
0.738
1.725
2.769
3.857
4.966
6.057
7.071
7.947
8.621
9.041
9.166
8.95
8.356
7.347
5.882
3.922
1.445
-1.562
-5.107
-9.17
-13.749
-18.852
-24.354
-30.048
-35.65
-40.762
-45.058
-48.327
-50.261
-50.476
-48.911
-45.699
-41.236
-36.405
-31.817
-27.76
-24.803
-23.478
-23.781
-25.501
-27.819
-29.008
-27.85
-23.434
-14.239
0.909
22.597
51.19
85.837
124.524
165.538
206.618
244.16
274.653
294.582
300.199
288.976
259.349
209.701
140.838
56.796
-39.377
-144.545
-255.945
-373.979
-492.802
-600.864
-687.863
-742.233
-761.466
-753.787
-726.411
-687.58
-642.169
-588.42
-527.07
-460.499
-391.225
-323.975
-262.49
-208.61
-163.442
-127.273
-99.399
-78.579
-63.951
-54.463
-48.466
-44.573
-41.329
-37.207
-31.751
-25.146
-17.429
-8.944
-0.295
8.059
15.374
20.795
24.122
25.505
25.199
23.681
21.393
18.698
16.097
14.123
13.073
13.075
14.116
16.055
18.785
22.22
26.238
30.698
35.468
40.434
45.497
50.586
55.627
60.532
65.216
69.6
73.615
77.226
80.436
83.264
85.741
87.908
89.807
91.489
93.015
94.442
95.82
97.196
98.608
100.097
101.704
103.469
105.428
107.604
110.004
112.631
115.48
118.543
121.81
125.263
128.88
132.64
136.525
140.516
144.597
148.748
152.945
157.164
161.383
165.578
169.726
173.804
177.789
181.658
185.388
188.959
192.351
195.542
198.512
201.24
203.706
205.893
207.782
209.359
210.608
211.518
212.078
212.28
212.117
211.586
210.684
209.41
207.766
205.754
203.381
200.651
197.574
194.16
190.42
186.367
182.016
177.383
172.485
167.341
161.969
156.391
150.626
144.697
138.625
132.434
126.144
119.78
113.363
106.915
100.459
94.017
87.608
81.253
74.971
68.781
62.699
56.742
50.925
45.262
39.766
34.447
29.318
24.387
19.663
15.152
10.86
6.791
2.949
-0.664
-4.047
-7.201
-10.127
-12.827
-15.305
-17.565
-19.611
-21.451
-23.091
-24.538
-25.799
-26.885
-27.803
-28.563
-29.174
-29.647
-29.989
-30.213
-30.326
-30.34
-30.262
-30.103
-29.872
-29.577
-29.227
-28.831
-28.395
-27.928
-27.438
-26.929
-26.41
-25.885
-25.36
-24.841
-24.331
-23.835
-23.357
-22.9
-22.466
-22.059
-21.679
-21.33
-21.012
-20.727
-20.475
-20.257
-20.074
-19.925
-19.811
-19.731
-19.687
-19.677
-19.701
-19.759
-19.851
-19.977
-20.135
-20.327
-20.55
-20.806
-21.093
-21.412
-21.761
-22.141
-22.551
-22.991
-23.459
-23.956
-24.481
-25.033
-25.612
-26.216
-26.846
-27.499
-28.176
-28.873
-29.591
-30.326
-31.078
-31.844
-32.621
-33.407
-34.2
-34.995
-35.792
-36.585
-37.373
-38.151
-38.916
-39.664
-40.39
-41.092
-41.764
-42.403
-43.004
-43.564
-44.078
-44.542
-44.953
-45.306
-45.598
-45.824
-45.983
-46.07
-46.084
-46.021
-45.88
-45.661
-45.363
-44.987
-44.533
-44.006
-43.406
-42.737
-42.003
-41.207
-40.354
-39.449
-38.495
-37.499
-36.466
-35.403
-34.316
-33.213
-32.104
-30.994
-29.892
-28.805
-27.741
-26.707
-25.713
-24.764
-23.865
-23.023
-22.246
-21.543
-20.92
-20.379
-19.916
-19.529
-19.21
-18.954
-18.749
-18.578
-18.422
-18.266
-18.094
-17.899
-17.672
-17.403
-17.074
-16.67
-16.178
-15.599
-14.942
-14.218
-13.439
-12.623
-11.805
-11.038
-10.379
-9.885
-9.607
-9.582
-9.856
-10.465
-11.443
-12.831
-14.666
-16.976
-19.775
-23.076
-26.861
-31.133
-35.9
-41.049
-46.382
-51.627
-56.393
-60.358
-63.314
-64.965
-64.952
-63.232
-59.946
-55.493
-50.751
-46.348
-42.595
-40.054
-39.218
-40.031
-42.222
-44.944
-46.454
-45.471
-41.009
-31.555
-16.002
6.124
35.007
69.662
107.971
148.011
187.364
222.499
249.98
266.334
268.241
253.751
221.66
171.079
102.553
18.263
-78.502
-183.072
-290.337
-395.625
-493.753
-579.6
-649.059
-699.006
-728.084
-736.768
-726.068
-697.566
-654.221
-599.5
-537.296
-471.919
-406.46
-343.122
-284.351
-232.043
-187.297
-150.887
-122.42
-100.537
-84.413
-73.202
-65.446
-59.882
-55.153
-49.801
-43.378
-36.087
-27.973
-19.318
-10.645
-2.361
4.847
10.169
13.41
14.719
14.352
12.768
10.396
7.593
4.849
2.688
1.413
1.162
1.934
3.605
6.076
9.266
13.061
17.321
21.917
26.735
31.678
36.671
41.64
46.495
51.147
55.518
59.536
63.166
66.406
69.274
71.799
74.022
75.984
77.736
79.34
80.851
82.322
83.799
85.32
86.928
88.664
90.569
92.678
95.013
97.583
100.388
103.425
106.683
110.151
113.81
117.636
121.608
125.704
129.904
134.19
138.54
142.927
147.328
151.715
156.065
160.352
164.552
168.64
172.593
176.386
179.999
183.409
186.596
189.539
192.216
194.607
196.694
198.46
199.891
200.971
201.689
202.035
202.004
201.588
200.786
199.597
198.021
196.062
193.725
191.017
187.946
184.525
180.765
176.681
172.288
167.604
162.647
157.438
151.996
146.345
140.506
134.503
128.36
122.1
115.748
109.328
102.863
96.379
89.899
83.445
77.04
70.706
64.464
58.333
52.332
46.478
40.788
35.276
29.956
24.84
19.939
15.262
10.818
6.612
2.651
-1.063
-4.526
-7.738
-10.698
-13.409
-15.872
-18.092
-20.074
-21.823
-23.345
-24.65
-25.744
-26.637
-27.34
-27.861
-28.212
-28.404
-28.449
-28.358
-28.142
-27.814
-27.385
-26.867
-26.27
-25.607
-24.887
-24.121
-23.319
-22.491
-21.644
-20.789
-19.932
-19.08
-18.241
-17.42
-16.622
-15.852
-15.115
-14.413
-13.75
-13.128
-12.549
-12.014
-11.524
-11.08
-10.68
-10.326
-10.015
-9.747
-9.521
-9.333
-9.183
-9.068
-8.987
-8.936
-8.914
-8.919
-8.947
-8.997
-9.066
-9.153
-9.255
-9.371
-9.499
-9.638
-9.786
-9.943
-10.107
-10.279
-10.457
-10.643
-10.835
-11.034
-11.24
-11.454
-11.677
-11.909
-12.151
-12.406
-12.673
-12.954
-13.249
-13.562
-13.891
-14.238
-14.603
-14.988
-15.392
-15.815
-16.257
-16.718
-17.196
-17.692
-18.204
-18.73
-19.269
-19.82
-20.379
-20.944
-21.513
-22.082
-22.649
-23.209
-23.758
-24.294
-24.812
-25.308
-25.777
-26.214
-26.616
-26.977
-27.292
-27.558
-27.769
-27.923
-28.015
-28.043
-28.004
-27.896
-27.719
-27.473
-27.157
-26.774
-26.323
-25.807
-25.227
-24.588
-23.89
-23.138
-22.335
-21.486
-20.597
-19.675
-18.725
-17.754
-16.771
-15.78
-14.79
-13.809
-12.845
-11.902
-10.987
-10.108
-9.27
-8.487
-7.763
-7.099
-6.496
-5.949
-5.454
-5.005
-4.593
-4.2
-3.813
-3.417
-2.999
-2.556
-2.08
-1.561
-0.989
-0.347
0.375
1.171
2.038
2.963
3.925
4.911
5.892
6.812
7.623
8.278
8.72
8.923
8.852
8.464
7.735
6.621
5.077
3.085
0.614
-2.348
-5.779
-9.694
-14.116
-18.954
-24.047
-29.149
-33.889
-37.977
-41.211
-43.311
-43.939
-42.908
-40.291
-36.478
-32.176
-28.062
-24.522
-21.935
-20.88
-21.694
-24.182
-27.647
-30.749
-31.95
-30.224
-24.516
-13.294
4.527
29.343
60.893
97.712
137.768
179.215
219.429
254.62
281.026
295.098
293.809
275.205
237.863
180.913
104.864
13.312
-88.948
-198.167
-309.427
-420.22
-527.781
-623.248
-700.215
-752.358
-774.046
-770.025
-744.795
-702.632
-651.02
-591.216
-524.716
-455.429
-384.831
-316.385
-254.213
-200.109
-155.18
-119.818
-93.061
-73.555
-60.456
-52.569
-48.016
-45.236
-42.764
-39.212
-34.241
-28.083
-20.802
-12.78
-4.718
2.831
9.133
13.441
15.661
16.032
14.849
12.596
9.752
6.707
3.965
2.028
1.124
1.321
2.576
4.73
7.671
11.311
15.514
20.131
25.027
30.078
35.187
40.285
45.282
50.083
54.595
58.73
62.441
65.719
68.574
71.038
73.145
74.934
76.459
77.78
78.957
80.047
81.1
82.156
83.262
84.466
85.812
87.346
89.094
91.07
93.278
95.718
98.382
101.263
104.344
107.602
111.019
114.578
118.259
122.049
125.928
129.873
133.862
137.871
141.877
145.859
149.794
153.659
157.432
161.093
164.619
167.992
171.191
174.195
176.983
179.535
181.831
183.855
185.589
187.018
188.13
188.911
189.355
189.453
189.2
188.593
187.63
186.312
184.641
182.621
180.258
177.559
174.535
171.194
167.551
163.62
159.415
154.953
150.252
145.331
140.209
134.907
129.447
123.848
118.135
112.327
106.449
100.521
94.567
88.607
82.662
76.754
70.902
65.124
59.439
53.863
48.412
43.1
37.94
32.945
28.125
23.489
19.046
14.804
10.766
6.939
3.325
-0.074
-3.257
-6.225
-8.978
-11.52
-13.854
-15.984
-17.915
-19.653
-21.205
-22.579
-23.782
-24.823
-25.71
-26.452
-27.06
-27.542
-27.908
-28.166
-28.328
-28.401
-28.394
-28.317
-28.176
-27.98
-27.737
-27.453
-27.134
-26.787
-26.417
-26.029
-25.627
-25.214
-24.795
-24.372
-23.947
-23.523
-23.1
-22.681
-22.266
-21.854
-21.448
-21.045
-20.646
-20.25
-19.857
-19.465
-19.073
-18.68
-18.285
-17.887
-17.485
-17.077
-16.664
-16.245
-15.818
-15.384
-14.943
-14.495
-14.039
-13.577
-13.109
-12.637
-12.161
-11.683
-11.205
-10.728
-10.254
-9.786
-9.327
-8.877
-8.44
-8.018
-7.614
-7.231
-6.87
-6.536
-6.23
-5.955
-5.714
-5.509
-5.343
-5.216
-5.132
-5.091
-5.094
-5.142
-5.235
-5.374
-5.559
-5.789
-6.063
-6.381
-6.741
-7.142
-7.581
-8.056
-8.564
-9.102
-9.667
-10.255
-10.863
-11.486
-12.119
-12.759
-13.401
-14.039
-14.668
-15.283
-15.879
-16.449
-16.987
-17.49
-17.951
-18.366
-18.731
-19.042
-19.296
-19.491
-19.625
-19.697
-19.706
-19.651
-19.532
-19.349
-19.103
-18.796
-18.428
-18
-17.517
-16.982
-16.401
-15.778
-15.118
-14.427
-13.71
-12.974
-12.225
-11.47
-10.714
-9.963
-9.222
-8.501
-7.811
-7.158
-6.544
-5.97
-5.432
-4.925
-4.445
-3.983
-3.522
-3.048
-2.548
-2.012
-1.437
-0.818
-0.146
0.586
1.394
2.286
3.256
4.299
5.4
6.537
7.691
8.83
9.893
10.833
11.595
12.118
12.375
12.328
11.935
11.177
10.007
8.38
6.275
3.663
0.532
-3.093
-7.226
-11.893
-17.007
-22.415
-27.866
-32.986
-37.478
-41.131
-43.667
-44.738
-44.119
-41.846
-38.282
-34.123
-30.066
-26.517
-23.845
-22.64
-23.306
-25.727
-29.282
-32.652
-34.244
-33.004
-27.892
-17.341
-0.156
24.243
55.832
93.26
134.509
177.828
220.694
259.3
289.879
308.723
312.225
298.074
264.686
210.547
136.77
47.679
-53.37
-162.968
-278.371
-399.918
-521.418
-631.215
-718.949
-773.08
-791.405
-782.065
-752.066
-709.639
-659.648
-600.689
-533.94
-461.958
-387.517
-315.839
-251.151
-195.761
-151.04
-116.849
-91.949
-74.846
-64.349
-58.88
-56.323
-54.663
-51.966
-47.115
-40.152
-31.474
-21.45
-10.7
-0.021
9.672
17.274
22.243
24.697
24.948
23.505
20.891
17.549
14.045
11.022
8.874
7.787
7.806
8.807
10.686
13.377
16.754
20.682
25.039
29.7
34.573
39.577
44.616
49.599
54.433
59.026
63.304
67.204
70.691
73.771
76.464
78.799
80.821
82.569
84.095
85.461
86.725
87.94
89.153
90.405
91.739
93.198
94.82
96.641
98.681
100.946
103.437
106.152
109.081
112.212
115.53
119.01
122.632
126.379
130.231
134.172
138.181
142.235
146.31
150.384
154.433
158.435
162.367
166.205
169.928
173.513
176.939
180.187
183.235
186.063
188.65
190.978
193.027
194.781
196.226
197.345
198.128
198.565
198.647
198.368
197.726
196.716
195.34
193.598
191.495
189.035
186.225
183.074
179.593
175.793
171.689
167.294
162.626
157.702
152.54
147.162
141.587
135.837
129.933
123.899
117.756
111.528
105.238
98.909
92.562
86.221
79.906
73.639
67.441
61.33
55.325
49.443
43.701
38.113
32.694
27.455
22.409
17.565
12.932
8.519
4.33
0.371
-3.355
-6.845
-10.099
-13.117
-15.9
-18.451
-20.774
-22.874
-24.755
-26.426
-27.893
-29.165
-30.25
-31.158
-31.899
-32.483
-32.92
-33.222
-33.399
-33.463
-33.425
-33.295
-33.084
-32.803
-32.463
-32.072
-31.64
-31.177
-30.691
-30.189
-29.68
-29.17
-28.666
-28.172
-27.695
-27.239
-26.807
-26.402
-26.028
-25.687
-25.379
-25.107
-24.871
-24.67
-24.506
-24.376
-24.28
-24.218
-24.186
-24.184
-24.209
-24.259
-24.332
-24.425
-24.537
-24.663
-24.803
-24.954
-25.114
-25.28
-25.451
-25.625
-25.801
-25.977
-26.152
-26.324
-26.494
-26.661
-26.824
-26.983
-27.138
-27.29
-27.439
-27.585
-27.729
-27.872
-28.016
-28.16
-28.306
-28.456
-28.61
-28.771
-28.939
-29.117
-29.304
-29.504
-29.716
-29.941
-30.181
-30.436
-30.705
-30.989
-31.288
-31.601
-31.927
-32.266
-32.616
-32.976
-33.345
-33.721
-34.102
-34.485
-34.868
-35.248
-35.622
-35.988
-36.342
-36.68
-37
-37.297
-37.568
-37.81
-38.017
-38.187
-38.315
-38.397
-38.43
-38.41
-38.334
-38.201
-38.007
-37.753
-37.438
-37.062
-36.626
-36.133
-35.581
-34.975
-34.316
-33.607
-32.851
-32.051
-31.209
-30.332
-29.424
-28.493
-27.543
-26.581
-25.613
-24.646
-23.685
-22.739
-21.814
-20.914
-20.046
-19.214
-18.427
-17.694
-17.023
-16.412
-15.861
-15.366
-14.923
-14.524
-14.16
-13.812
-13.463
-13.099
-12.706
-12.277
-11.804
-11.275
-10.677
-9.993
-9.215
-8.346
-7.396
-6.372
-5.291
-4.172
-3.05
-1.984
-1.029
-0.24
0.324
0.622
0.603
0.22
-0.559
-1.777
-3.473
-5.672
-8.393
-11.661
-15.46
-19.793
-24.691
-30.039
-35.645
-41.245
-46.425
-50.834
-54.246
-56.316
-56.637
-55.135
-51.938
-47.471
-42.659
-38.164
-34.319
-31.731
-30.978
-32.083
-34.781
-38.142
-40.305
-39.866
-35.804
-26.596
-10.914
11.912
42.185
79.069
120.4
164.151
208.003
248.5
281.863
304.406
312.649
303.859
276.225
228.541
160.502
74.62
-23.96
-131.222
-243.557
-358.491
-475.993
-589.577
-688.405
-762.745
-801.861
-805.084
-781.003
-737.506
-684.444
-626.693
-562.727
-493.725
-421.368
-348.328
-280.178
-220.391
-170.309
-130.803
-101.184
-80.014
-66.16
-58.209
-54.121
-52.079
-50.433
-47.564
-42.811
-36.275
-28.161
-18.957
-9.45
-0.317
7.639
13.541
17.127
18.553
18.119
16.344
13.738
10.731
7.846
5.632
4.397
4.263
5.22
7.13
9.878
13.374
17.491
22.079
27.004
32.146
37.406
42.707
47.968
53.093
57.994
62.586
66.797
70.591
73.965
76.933
79.527
81.785
83.751
85.476
87.022
88.447
89.806
91.145
92.507
93.933
95.469
97.156
99.033
101.122
103.434
105.971
108.729
111.702
114.879
118.243
121.771
125.443
129.241
133.147
137.143
141.21
145.325
149.465
153.605
157.723
161.796
165.802
169.717
173.519
177.186
180.696
184.03
187.167
190.086
192.766
195.188
197.333
199.183
200.723
201.938
202.815
203.344
203.516
203.326
202.769
201.842
200.544
198.877
196.844
194.45
191.702
188.607
185.177
181.423
177.358
172.998
168.358
163.455
158.309
152.939
147.365
141.609
135.693
129.638
123.468
117.205
110.873
104.493
98.089
91.682
85.295
78.948
72.662
66.456
60.348
54.356
48.496
42.782
37.23
31.851
26.657
21.659
16.865
12.283
7.921
3.783
-0.127
-3.805
-7.25
-10.462
-13.441
-16.19
-18.71
-21.006
-23.082
-24.944
-26.598
-28.052
-29.313
-30.39
-31.291
-32.026
-32.603
-33.033
-33.326
-33.492
-33.539
-33.479
-33.321
-33.075
-32.749
-32.354
-31.897
-31.388
-30.834
-30.244
-29.624
-28.981
-28.322
-27.653
-26.98
-26.307
-25.64
-24.981
-24.335
-23.706
-23.095
-22.505
-21.937
-21.394
-20.877
-20.386
-19.921
-19.483
-19.071
-18.686
-18.326
-17.991
-17.681
-17.394
-17.129
-16.885
-16.661
-16.456
-16.269
-16.099
-15.945
-15.805
-15.679
-15.567
-15.466
-15.377
-15.298
-15.229
-15.17
-15.12
-15.079
-15.046
-15.023
-15.008
-15.002
-15.006
-15.02
-15.044
-15.08
-15.127
-15.188
-15.262
-15.351
-15.457
-15.579
-15.72
-15.881
-16.062
-16.265
-16.49
-16.738
-17.009
-17.304
-17.622
-17.963
-18.327
-18.713
-19.122
-19.551
-20
-20.469
-20.955
-21.456
-21.972
-22.499
-23.035
-23.578
-24.125
-24.672
-25.216
-25.753
-26.281
-26.794
-27.288
-27.759
-28.202
-28.612
-28.984
-29.313
-29.595
-29.826
-30.001
-30.118
-30.174
-30.166
-30.095
-29.959
-29.757
-29.49
-29.157
-28.76
-28.299
-27.775
-27.19
-26.546
-25.846
-25.096
-24.3
-23.465
-22.595
-21.697
-20.777
-19.842
-18.898
-17.953
-17.01
-16.078
-15.164
-14.276
-13.428
-12.626
-11.872
-11.169
-10.513
-9.901
-9.326
-8.779
-8.242
-7.705
-7.156
-6.588
-5.995
-5.371
-4.707
-3.993
-3.215
-2.366
-1.448
-0.466
0.572
1.644
2.726
3.783
4.766
5.628
6.333
6.837
7.099
7.082
6.741
6.043
4.97
3.491
1.58
-0.786
-3.634
-6.963
-10.74
-14.944
-19.575
-24.555
-29.734
-34.865
-39.555
-43.462
-46.352
-47.944
-47.903
-46.096
-42.619
-37.86
-32.67
-27.842
-23.862
-21.274
-20.625
-22.078
-25.402
-29.812
-33.651
-35.206
-33.17
-26.082
-12.542
8.311
36.841
72.558
113.657
157.796
202.488
244.454
279.908
305.177
316.789
311.665
287.731
243.957
179.999
97.966
2.658
-102.168
-213.071
-327.27
-444.501
-558.756
-659.394
-736.829
-780.488
-788.892
-769.95
-731.048
-681.267
-625.465
-562.338
-493.191
-420.13
-345.987
-276.324
-214.804
-163.008
-122.01
-91.302
-69.474
-55.254
-47.158
-43.135
-41.304
-39.94
-37.329
-32.723
-26.199
-18.017
-8.695
0.981
10.318
18.497
24.602
28.33
29.815
29.365
27.505
24.753
21.544
18.413
15.927
14.414
14.008
14.711
16.385
18.917
22.218
26.158
30.585
35.359
40.361
45.492
50.674
55.828
60.858
65.672
70.184
74.322
78.048
81.355
84.258
86.786
88.977
90.875
92.534
94.016
95.38
96.68
97.966
99.279
100.664
102.165
103.826
105.685
107.767
110.081
112.632
115.417
118.428
121.655
125.082
128.685
132.444
136.34
140.355
144.472
148.67
152.925
157.214
161.512
165.795
170.04
174.223
178.319
182.306
186.16
189.86
193.384
196.71
199.816
202.681
205.283
207.602
209.62
211.319
212.685
213.702
214.36
214.648
214.56
214.09
213.235
211.992
210.363
208.349
205.955
203.188
200.055
196.566
192.733
188.569
184.089
179.31
174.25
168.928
163.364
157.58
151.597
145.439
139.13
132.692
126.15
119.529
112.854
106.147
99.433
92.735
86.076
79.478
72.962
66.549
60.256
54.101
48.102
42.274
36.63
31.184
25.947
20.93
16.141
11.588
7.276
3.21
-0.607
-4.173
-7.487
-10.551
-13.366
-15.936
-18.265
-20.36
-22.225
-23.87
-25.301
-26.53
-27.564
-28.415
-29.093
-29.61
-29.977
-30.206
-30.307
-30.294
-30.176
-29.966
-29.675
-29.313
-28.891
-28.419
-27.907
-27.364
-26.799
-26.219
-25.633
-25.046
-24.466
-23.898
-23.348
-22.819
-22.315
-21.84
-21.396
-20.985
-20.609
-20.268
-19.964
-19.695
-19.46
-19.26
-19.093
-18.957
-18.851
-18.772
-18.719
-18.69
-18.682
-18.693
-18.722
-18.765
-18.822
-18.89
-18.968
-19.053
-19.144
-19.241
-19.342
-19.445
-19.552
-19.66
-19.77
-19.881
-19.994
-20.109
-20.226
-20.345
-20.468
-20.596
-20.729
-20.869
-21.016
-21.174
-21.342
-21.522
-21.715
-21.922
-22.144
-22.381
-22.635
-22.904
-23.189
-23.489
-23.805
-24.135
-24.479
-24.835
-25.202
-25.579
-25.962
-26.351
-26.742
-27.133
-27.522
-27.904
-28.278
-28.639
-28.985
-29.312
-29.616
-29.893
-30.139
-30.351
-30.525
-30.657
-30.743
-30.781
-30.767
-30.7
-30.578
-30.399
-30.163
-29.872
-29.526
-29.125
-28.671
-28.167
-27.615
-27.018
-26.378
-25.699
-24.984
-24.236
-23.462
-22.666
-21.855
-21.033
-20.205
-19.378
-18.557
-17.75
-16.964
-16.201
-15.464
-14.76
-14.093
-13.475
-12.909
-12.395
-11.93
-11.513
-11.137
-10.799
-10.487
-10.182
-9.863
-9.515
-9.122
-8.681
-8.186
-7.624
-6.981
-6.241
-5.395
-4.453
-3.429
-2.327
-1.164
0.037
1.237
2.363
3.344
4.118
4.631
4.84
4.707
4.189
3.24
1.812
-0.136
-2.616
-5.639
-9.206
-13.325
-18.022
-23.205
-28.662
-34.109
-39.159
-43.473
-46.831
-48.922
-49.357
-48.059
-45.139
-40.965
-36.39
-32.049
-28.271
-25.66
-24.76
-25.559
-27.849
-30.822
-32.75
-32.324
-28.483
-19.607
-4.468
17.521
46.622
81.89
121.198
162.569
203.474
240.232
269.242
286.864
289.677
275.666
243.609
192.647
123.412
38.188
-59.604
-165.169
-273.319
-379.315
-477.902
-563.94
-633.328
-682.958
-711.507
-719.46
-707.798
-678.111
-633.409
-577.214
-513.487
-446.612
-379.752
-315.235
-255.666
-203.066
-158.592
-123.021
-95.918
-75.871
-61.975
-53.252
-48.067
-44.984
-42.523
-39.167
-34.434
-28.513
-21.458
-13.583
-5.49
2.327
9.116
14.038
16.898
17.854
17.169
15.311
12.735
9.818
7.072
5.029
3.958
3.96
5.01
6.957
9.696
13.143
17.17
21.635
26.41
31.379
36.45
41.555
46.605
51.505
56.16
60.476
64.402
67.918
71.033
73.773
76.17
78.263
80.102
81.743
83.242
84.652
86.022
87.391
88.803
90.305
91.942
93.758
95.781
98.027
100.501
103.2
106.119
109.249
112.574
116.072
119.723
123.509
127.412
131.417
135.504
139.651
143.833
148.028
152.21
156.358
160.448
164.458
168.364
172.144
175.776
179.24
182.516
185.581
188.413
190.991
193.297
195.311
197.016
198.396
199.438
200.129
200.459
200.421
200.009
199.219
198.049
196.499
194.57
192.268
189.597
186.564
183.18
179.456
175.404
171.038
166.376
161.432
156.228
150.781
145.113
139.246
133.201
127.001
120.671
114.234
107.713
101.133
94.517
87.889
81.272
74.688
68.161
61.709
55.354
49.115
43.008
37.052
31.261
25.65
20.232
15.018
10.019
5.244
0.699
-3.608
-7.674
-11.494
-15.067
-18.392
-21.469
-24.3
-26.888
-29.238
-31.353
-33.24
-34.906
-36.36
-37.609
-38.663
-39.531
-40.225
-40.754
-41.13
-41.364
-41.466
-41.45
-41.324
-41.102
-40.793
-40.409
-39.959
-39.453
-38.901
-38.311
-37.692
-37.051
-36.397
-35.734
-35.07
-34.409
-33.757
-33.118
-32.495
-31.892
-31.31
-30.753
-30.22
-29.714
-29.235
-28.782
-28.356
-27.957
-27.582
-27.233
-26.906
-26.601
-26.316
-26.049
-25.8
-25.566
-25.345
-25.138
-24.942
-24.757
-24.581
-24.415
-24.257
-24.109
-23.97
-23.841
-23.722
-23.615
-23.519
-23.438
-23.371
-23.321
-23.289
-23.278
-23.288
-23.321
-23.379
-23.464
-23.576
-23.717
-23.887
-24.088
-24.319
-24.581
-24.875
-25.199
-25.555
-25.94
-26.354
-26.795
-27.262
-27.751
-28.261
-28.788
-29.328
-29.879
-30.436
-30.994
-31.549
-32.097
-32.632
-33.148
-33.641
-34.105
-34.534
-34.924
-35.27
-35.568
-35.813
-36.003
-36.135
-36.208
-36.221
-36.173
-36.064
-35.894
-35.665
-35.377
-35.032
-34.633
-34.182
-33.681
-33.135
-32.55
-31.931
-31.285
-30.617
-29.934
-29.242
-28.549
-27.861
-27.187
-26.532
-25.903
-25.305
-24.747
-24.239
-23.788
-23.396
-23.059
-22.776
-22.542
-22.35
-22.192
-22.051
-21.913
-21.762
-21.588
-21.385
-21.147
-20.865
-20.525
-20.112
-19.618
-19.043
-18.401
-17.703
-16.962
-16.198
-15.444
-14.752
-14.177
-13.771
-13.582
-13.644
-14
-14.684
-15.728
-17.169
-19.044
-21.377
-24.184
-27.478
-31.244
-35.487
-40.227
-45.353
-50.677
-55.929
-60.717
-64.708
-67.695
-69.37
-69.361
-67.629
-64.326
-59.88
-55.22
-51.02
-47.623
-45.638
-45.594
-47.445
-50.893
-55.018
-57.955
-58.313
-55.021
-46.457
-31.384
-9.229
20.257
56.084
96.015
138.023
179.602
217.065
246.793
265.125
268.481
254.725
222.655
171.345
101.359
14.996
-84.462
-192.294
-303.1
-411.962
-513.614
-602.749
-675.215
-727.923
-759.109
-768.896
-758.268
-728.768
-683.306
-625.499
-559.195
-488.649
-417.565
-348.753
-285.016
-228.654
-180.987
-142.805
-113.921
-93.13
-79.201
-70.854
-66.288
-63.818
-61.901
-59.021
-54.54
-48.531
-41.171
-32.877
-24.335
-16.157
-9.09
-3.953
-0.982
-0.023
-0.782
-2.771
-5.497
-8.545
-11.399
-13.524
-14.645
-14.666
-13.609
-11.625
-8.823
-5.291
-1.16
3.421
8.317
13.411
18.603
23.82
28.97
33.949
38.658
43.001
46.924
50.408
53.458
56.102
58.369
60.298
61.938
63.344
64.573
65.676
66.7
67.686
68.678
69.724
70.871
72.167
73.642
75.313
77.187
79.262
81.536
84.001
86.644
89.449
92.403
95.493
98.712
102.056
105.514
109.069
112.701
116.379
120.078
123.777
127.454
131.089
134.666
138.165
141.576
144.897
148.121
151.241
154.246
157.115
159.838
162.409
164.826
167.101
169.244
171.239
173.066
174.703
176.113
177.27
178.15
178.675
178.762
178.32
177.245
175.461
172.9
169.445
164.939
159.283
152.493
144.755
136.414
127.787
119.095
110.584
102.616
95.445
88.975
82.716
75.743
67.12
56.375
43.191
27.086
7.96
-13.594
