-7.289
-18.026
-28.093
-37.343
-45.665
-52.982
-59.264
-64.508
-68.738
-71.986
-74.289
-75.702
-76.285
-76.131
-75.347
-74.057
-72.404
-70.529
-68.569
-66.65
-64.866
-63.283
-61.944
-60.869
-60.062
-59.518
-59.213
-59.115
-59.192
-59.398
-59.685
-60.001
-60.276
-60.442
-60.438
-60.209
-59.724
-58.98
-57.982
-56.742
-55.291
-53.671
-51.949
-50.217
-48.565
-47.081
-45.847
-44.936
-44.421
-44.369
-44.845
-45.914
-47.629
-50.011
-53.077
-56.82
-61.239
-66.356
-72.061
-78.121
-84.219
-89.921
-94.849
-98.778
-101.386
-102.277
-101.401
-98.897
-95.176
-91.178
-87.575
-84.692
-83.128
-83.383
-85.357
-88.764
-92.702
-95.316
-95.237
-91.365
-82.034
-66.06
-42.942
-12.5
24.228
65.029
107.857
150.044
187.73
217.211
234.761
236.886
221.491
187.193
133.074
59.889
-29.846
-132.441
-242.832
-355.599
-465.665
-567.289
-654.943
-724.329
-772.325
-797.738
-801.083
-783.336
-746.254
-693.201
-628.242
-555.852
-480.646
-405.948
-334.497
-269.317
-212.806
-166.359
-130.35
-103.849
-85.291
-73.537
-67.172
-64.161
-62.464
-60.076
-55.792
-49.525
-41.576
-32.233
-22.01
-11.644
-2.057
5.626
10.83
13.637
14.346
13.429
11.377
8.611
5.671
3.18
1.498
0.748
0.933
1.907
3.557
5.834
8.636
11.846
15.386
19.173
23.145
27.261
31.451
35.647
39.796
43.86
47.834
51.735
55.577
59.389
63.2
67.029
70.887
74.771
78.655
82.528
86.39
90.247
94.121
98.02
101.941
105.878
109.806
113.702
117.548
121.32
124.997
128.572
132.043
135.431
138.775
142.103
145.426
148.749
152.062
155.358
158.635
161.888
165.108
168.287
171.412
174.471
177.454
180.341
183.106
185.714
188.115
190.27
192.149
193.725
194.978
195.889
196.439
196.616
196.415
195.827
194.847
193.469
191.687
189.498
186.906
183.917
180.541
176.79
172.673
168.203
163.393
158.257
152.811
147.07
141.048
134.763
128.234
121.483
114.533
107.409
100.133
92.732
85.231
77.657
70.035
62.39
54.748
47.132
39.566
32.074
24.677
17.399
10.257
3.273
-3.536
-10.153
-16.563
-22.751
-28.706
-34.416
-39.872
-45.066
-49.992
-54.644
-59.02
-63.117
-66.936
-70.478
-73.745
-76.743
-79.476
-81.953
-84.181
-86.171
-87.934
-89.482
-90.826
-91.98
-92.957
-93.771
-94.437
-94.968
-95.378
-95.683
-95.896
-96.03
-96.101
-96.12
-96.102
-96.058
-96
-95.937
-95.882
-95.841
-95.824
-95.836
-95.885
-95.975
-96.109
-96.29
-96.52
-96.799
-97.125
-97.497
-97.912
-98.366
-98.854
-99.37
-99.909
-100.464
-101.03
-101.599
-102.165
-102.721
-103.263
-103.785
-104.279
-104.742
-105.166
-105.548
-105.881
-106.161
-106.383
-106.543
-106.638
-106.666
-106.626
-106.518
-106.343
-106.101
-105.793
-105.422
-104.991
-104.505
-103.968
-103.381
-102.751
-102.085
-101.393
-100.683
-99.958
-99.218
-98.462
-97.688
-96.893
-96.071
-95.208
-94.291
-93.308
-92.25
-91.115
-89.901
-88.606
-87.218
-85.729
-84.136
-82.449
-80.686
-78.872
-77.026
-75.178
-73.375
-71.684
-70.174
-68.916
-67.971
-67.389
-67.224
-67.522
-68.323
-69.672
-71.61
-74.162
-77.343
-81.162
-85.595
-90.634
-96.283
-102.408
-108.787
-115.113
-120.943
-125.897
-129.726
-132.085
-132.564
-131.118
-127.901
-123.358
-118.492
-114.042
-110.417
-108.313
-108.317
-110.372
-114.167
-118.724
-122.053
-122.642
-119.233
-109.968
-93.485
-69.166
-36.802
2.516
46.434
92.712
138.427
179.375
211.489
230.711
233.249
216.755
179.706
121.181
42.017
-54.98
-165.759
-284.877
-406.317
-524.308
-632.556
-725.099
-797.256
-845.825
-869.555
-868.905
-845.394
-801.556
-741.375
-669.56
-591.18
-511.123
-433.139
-360.441
-295.735
-240.881
-196.845
-163.435
-139.313
-122.753
-112.22
-105.866
-101.837
-98.401
-93.841
-87.377
-79.12
-69.429
-58.807
-47.961
-37.554
-28.396
-21.452
-17.081
-15.13
-15.267
-16.939
-19.605
-22.814
-26
-28.535
-30.038
-30.342
-29.426
-27.419
-24.436
-20.551
-15.891
-10.611
-4.851
1.255
7.593
14.078
20.618
27.101
33.424
39.48
45.178
50.473
55.351
59.819
63.904
67.64
71.066
74.233
77.205
80.04
82.791
85.508
88.232
91.008
93.881
96.896
100.092
103.493
107.105
110.93
114.962
119.19
123.599
128.17
132.875
137.691
142.596
147.57
152.593
157.643
162.695
167.722
172.699
177.601
182.405
187.088
191.624
195.993
200.17
204.137
207.873
211.357
214.57
217.492
220.102
222.384
224.32
225.896
227.099
227.917
228.341
228.364
227.982
227.192
225.993
224.387
222.377
219.969
217.169
213.987
210.433
206.521
202.264
197.68
192.785
187.598
182.14
176.433
170.498
164.36
158.041
151.568
144.966
138.259
131.473
124.635
117.769
110.902
104.058
97.26
90.534
83.902
77.385
71.003
64.777
58.723
52.859
47.2
41.759
36.55
31.582
26.865
22.407
18.213
14.29
10.639
7.263
4.161
1.332
-1.226
-3.518
-5.549
-7.326
-8.856
-10.149
-11.214
-12.062
-12.705
-13.155
-13.424
-13.527
-13.477
-13.288
-12.975
-12.551
-12.03
-11.428
-10.756
-10.029
-9.258
-8.456
-7.634
-6.802
-5.971
-5.149
-4.345
-3.566
-2.82
-2.111
-1.446
-0.827
-0.259
0.257
0.72
1.129
1.485
1.788
2.042
2.248
2.411
2.534
2.622
2.681
2.717
2.735
2.742
2.745
2.751
2.764
2.791
2.838
2.908
3.006
3.135
3.297
3.495
3.731
4.005
4.318
4.671
5.063
5.495
5.967
6.475
7.016
7.588
8.185
8.803
9.437
10.082
10.731
11.376
12.012
12.633
13.235
13.813
14.359
14.859
15.309
15.706
16.051
16.346
16.595
16.801
16.975
17.138
17.308
17.503
17.736
18.009
18.327
18.695
19.127
19.639
20.232
20.898
21.623
22.388
23.18
23.975
24.725
25.359
25.804
25.982
25.842
25.347
24.453
23.135
21.345
19.028
16.156
12.702
8.659
4.044
-1.158
-6.989
-13.365
-20.086
-26.85
-33.231
-38.881
-43.571
-47.002
-48.796
-48.744
-46.924
-43.752
-40.01
-36.452
-33.489
-31.522
-31.158
-32.729
-36.034
-40.333
-44.159
-45.853
-44.321
-38.415
-26.49
-7.409
19.276
53.301
93.087
136.498
181.628
225.687
264.586
294.421
311.504
312.354
294.723
257.034
197.883
118.72
24.404
-81.455
-195.41
-314.767
-439.967
-564.333
-675.583
-762.748
-813.714
-826.487
-809.743
-771.314
-720.564
-662.734
-596.38
-522.878
-444.728
-365.064
-289.838
-223.172
-167.058
-122.736
-89.747
-66.624
-51.873
-43.925
-40.682
-40.083
-40.189
-39.054
-35.705
-30.13
-22.589
-13.572
-3.869
5.781
14.486
21.191
25.489
27.491
27.484
26.006
23.602
20.726
17.959
15.939
14.999
15.264
16.72
19.194
22.556
26.712
31.506
36.766
42.341
48.101
53.949
59.819
65.618
71.242
76.59
81.563
86.109
90.211
93.871
97.119
99.989
102.524
104.782
106.828
108.725
110.533
112.304
114.084
115.923
117.872
119.979
122.294
124.846
127.651
130.716
134.039
137.612
141.426
145.46
149.691
154.095
158.65
163.334
168.127
173.004
177.939
182.902
187.864
192.796
197.669
202.454
207.124
211.648
216
220.152
224.078
227.752
231.146
234.235
236.993
239.395
241.418
243.043
244.249
245.019
245.34
245.2
244.59
243.504
241.936
239.887
237.357
234.349
230.871
226.93
222.538
217.709
212.458
206.804
200.765
194.365
187.627
180.577
173.241
165.647
157.825
149.805
141.619
133.296
124.87
116.372
107.835
99.29
90.768
82.3
73.917
65.647
57.519
49.559
41.792
34.242
26.931
19.879
13.106
6.627
0.459
-5.386
-10.896
-16.062
-20.877
-25.334
-29.43
-33.163
-36.534
-39.544
-42.197
-44.497
-46.453
-48.072
-49.364
-50.341
-51.014
-51.397
-51.505
-51.353
-50.958
-50.336
-49.505
-48.484
-47.289
-45.941
-44.458
-42.858
-41.16
-39.381
-37.541
-35.656
-33.745
-31.822
-29.904
-28.007
-26.144
-24.329
-22.576
-20.895
-19.296
-17.79
-16.385
-15.088
-13.904
-12.839
-11.897
-11.079
-10.389
-9.826
-9.39
-9.08
-8.894
-8.827
-8.876
-9.036
-9.299
-9.66
-10.111
-10.643
-11.248
-11.917
-12.64
-13.406
-14.205
-15.026
-15.858
-16.691
-17.512
-18.311
-19.078
-19.803
-20.475
-21.087
-21.63
-22.098
-22.485
-22.786
-22.997
-23.113
-23.132
-23.053
-22.873
-22.592
-22.209
-21.723
-21.138
-20.457
-19.682
-18.82
-17.875
-16.853
-15.761
-14.607
-13.401
-12.15
-10.861
-9.539
-8.195
-6.837
-5.479
-4.132
-2.8
-1.486
-0.193
1.078
2.327
3.562
4.799
6.055
7.346
8.682
10.066
11.504
13.001
14.569
16.219
17.955
19.765
21.639
23.563
25.52
27.487
29.414
31.229
32.855
34.21
35.229
35.857
36.036
35.723
34.864
33.397
31.282
28.488
24.995
20.811
15.919
10.284
3.985
-2.777
-9.703
-16.373
-22.418
-27.585
-31.549
-33.902
-34.404
-33.092
-30.323
-26.807
-23.227
-19.94
-17.323
-15.983
-16.274
-18.054
-20.665
-22.749
-22.784
-19.786
-12.671
0.17
19.908
47.063
81.463
121.636
165.544
211.338
256.245
296.159
327.075
345.164
346.794
329.566
291.801
232.036
151.683
55.578
-52.629
-169.342
-291.712
-419.94
-547.152
-661.055
-750.64
-803.828
-818.676
-803.707
-766.688
-716.98
-659.832
-593.988
-520.978
-443.383
-364.442
-290.131
-224.518
-169.535
-126.293
-94.189
-71.68
-57.2
-49.106
-45.253
-43.561
-42.126
-39.107
-33.667
-25.899
-16.158
-5.011
6.701
18.184
28.534
36.714
42.332
45.526
46.611
46.131
44.631
42.567
40.505
39.063
38.601
39.26
41.044
43.808
47.429
51.825
56.862
62.386
68.257
74.345
80.543
86.776
92.957
98.983
104.757
110.179
115.167
119.68
123.705
127.255
130.356
133.042
135.354
137.346
139.08
140.616
142.011
143.316
144.572
145.828
147.132
148.532
150.07
151.773
153.654
155.72
157.969
160.397
162.997
165.753
168.644
171.652
174.76
177.953
181.216
184.529
187.872
191.223
194.559
197.859
201.101
204.264
207.326
210.266
213.063
215.697
218.149
220.399
222.426
224.211
225.734
226.977
227.922
228.554
228.859
228.823
228.438
227.695
226.588
225.114
223.27
221.057
218.477
215.533
212.232
208.582
204.591
200.273
195.64
190.706
185.489
180.006
174.276
168.319
162.158
155.813
149.309
142.668
135.916
129.075
122.172
115.229
108.274
101.328
94.416
87.562
80.788
74.114
67.562
61.151
54.898
48.82
42.933
37.249
31.781
26.54
21.535
16.774
12.262
8.004
4.004
0.262
-3.221
-6.447
-9.42
-12.142
-14.621
-16.862
-18.874
-20.666
-22.247
-23.629
-24.824
-25.844
-26.702
-27.412
-27.988
-28.444
-28.795
-29.056
-29.241
-29.363
-29.437
-29.476
-29.494
-29.502
-29.512
-29.536
-29.584
-29.666
-29.79
-29.965
-30.197
-30.492
-30.856
-31.293
-31.807
-32.4
-33.073
-33.828
-34.664
-35.581
-36.578
-37.65
-38.796
-40.011
-41.29
-42.627
-44.017
-45.453
-46.927
-48.431
-49.959
-51.502
-53.052
-54.6
-56.139
-57.661
-59.157
-60.619
-62.039
-63.41
-64.724
-65.975
-67.155
-68.259
-69.28
-70.212
-71.051
-71.791
-72.427
-72.957
-73.375
-73.679
-73.865
-73.932
-73.88
-73.707
-73.414
-73.003
-72.476
-71.839
-71.095
-70.25
-69.308
-68.277
-67.161
-65.968
-64.704
-63.376
-61.992
-60.558
-59.086
-57.584
-56.062
-54.53
-52.997
-51.472
-49.965
-48.486
-47.043
-45.643
-44.295
-43.006
-41.788
-40.652
-39.606
-38.652
-37.791
-37.019
-36.329
-35.715
-35.162
-34.65
-34.162
-33.681
-33.192
-32.688
-32.155
-31.578
-30.944
-30.232
-29.432
-28.547
-27.58
-26.543
-25.457
-24.343
-23.24
-22.209
-21.302
-20.569
-20.065
-19.836
-19.933
-20.414
-21.321
-22.684
-24.533
-26.889
-29.769
-33.19
-37.149
-41.607
-46.533
-51.913
-57.629
-63.481
-69.18
-74.285
-78.409
-81.3
-82.609
-81.929
-79.208
-74.611
-68.597
-62.165
-56.046
-50.627
-46.6
-44.585
-44.554
-46.213
-48.582
-49.691
-48.133
-42.825
-32.01
-14.338
10.842
43.893
83.806
128.283
175.375
222.532
265.72
301.044
324.637
332.374
321.484
290.27
236.948
162.459
71.337
-33.12
-147.544
-269.074
-398.363
-528.805
-647.365
-742.38
-800.689
-819.534
-808.146
-774.538
-728.048
-674.159
-610.965
-539.442
-462.37
-382.787
-306.315
-237.452
-178.423
-130.447
-93.651
-67.026
-48.994
-38.33
-33.524
-32.373
-33.035
-33.776
-32.934
-30.059
-25.405
-19.081
-11.574
-3.711
3.858
10.271
14.647
16.859
17.148
15.824
13.431
10.495
7.449
4.861
3.259
2.861
3.718
5.754
8.784
12.681
17.334
22.583
28.259
34.212
40.314
46.469
52.592
58.582
64.326
69.716
74.675
79.175
83.212
86.807
89.993
92.802
95.284
97.5
99.507
101.362
103.116
104.812
106.497
108.223
110.036
111.988
114.111
116.423
118.932
121.637
124.532
127.607
130.848
134.23
137.735
141.344
145.04
148.807
152.628
156.481
160.342
164.189
168
171.753
175.427
179
182.452
185.762
188.91
191.878
194.646
197.193
199.5
201.546
203.311
204.778
205.929
206.748
207.222
207.338
207.087
206.46
205.45
204.055
202.27
200.096
197.534
194.588
191.262
187.565
183.504
179.091
174.337
169.258
163.868
158.185
152.227
146.013
139.564
132.902
126.049
119.028
111.863
104.579
97.199
89.75
82.255
74.74
67.229
59.747
52.317
44.962
37.704
30.565
23.563
16.718
10.048
3.569
-2.703
-8.755
-14.575
-20.151
-25.474
-30.536
-35.329
-39.849
-44.092
-48.056
-51.738
-55.141
-58.264
-61.112
-63.687
-65.995
-68.043
-69.836
-71.384
-72.696
-73.78
-74.648
-75.31
-75.779
-76.065
-76.181
-76.14
-75.953
-75.634
-75.194
-74.646
-74.003
-73.275
-72.475
-71.612
-70.698
-69.743
-68.757
-67.747
-66.723
-65.692
-64.661
-63.638
-62.626
-61.633
-60.662
-59.718
-58.805
-57.925
-57.081
-56.276
-55.511
-54.787
-54.106
-53.468
-52.873
-52.321
-51.812
-51.346
-50.921
-50.538
-50.195
-49.891
-49.625
-49.397
-49.204
-49.045
-48.919
-48.824
-48.76
-48.723
-48.714
-48.73
-48.771
-48.836
-48.923
-49.031
-49.16
-49.308
-49.474
-49.658
-49.856
-50.069
-50.294
-50.53
-50.775
-51.028
-51.287
-51.549
-51.812
-52.074
-52.332
-52.584
-52.826
-53.057
-53.274
-53.474
-53.657
-53.821
-53.964
-54.087
-54.19
-54.273
-54.336
-54.381
-54.407
-54.416
-54.408
-54.384
-54.344
-54.288
-54.218
-54.136
-54.045
-53.947
-53.844
-53.74
-53.637
-53.539
-53.45
-53.374
-53.309
-53.259
-53.224
-53.208
-53.22
-53.262
-53.331
-53.422
-53.532
-53.652
-53.775
-53.883
-53.954
-53.962
-53.887
-53.712
-53.433
-53.04
-52.525
-51.873
-51.073
-50.119
-49.022
-47.796
-46.453
-45.012
-43.504
-41.982
-40.524
-39.214
-38.129
-37.335
-36.886
-36.832
-37.209
-38.067
-39.453
-41.399
-43.929
-47.053
-50.767
-55.08
-60.01
-65.467
-71.235
-77.002
-82.351
-86.911
-90.413
-92.54
-92.894
-91.268
-87.772
-82.815
-77.165
-71.573
-66.466
-62.329
-59.867
-59.477
-61.012
-63.778
-66.354
-67.141
-64.996
-58.609
-46.203
-26.453
1.227
36.589
78.144
123.643
170.722
216.127
255.371
284.051
298.116
293.763
268.543
221.267
151.322
61.394
-43.72
-160.587
-283.78
-409.775
-535.577
-650.968
-747.814
-817.945
-853.637
-859.29
-839.796
-800.143
-748.477
-685.767
-613.476
-535.939
-455.537
-377.025
-305.276
-242.499
-190.301
-149.277
-118.639
-97.073
-83.143
-75.135
-70.878
-68.438
-66.089
-62.227
-56.268
-48.385
-38.866
-28.299
-17.545
-7.338
1.483
8.047
12.134
13.937
13.799
12.279
9.927
7.204
4.663
2.861
2.104
2.511
4.068
6.633
10.088
14.337
19.246
24.661
30.439
36.457
42.604
48.796
54.942
60.938
66.688
72.1
77.098
81.642
85.726
89.365
92.589
95.437
97.951
100.186
102.205
104.068
105.831
107.543
109.247
110.989
112.814
114.766
116.884
119.192
121.701
124.412
127.323
130.427
133.714
137.167
140.763
144.484
148.312
152.23
156.222
160.27
164.352
168.445
172.528
176.579
180.577
184.5
188.328
192.039
195.613
199.029
202.27
205.316
208.146
210.742
213.083
215.151
216.931
218.406
219.562
220.385
220.866
220.995
220.767
220.175
219.216
217.888
216.192
214.129
211.704
208.921
205.788
202.313
198.506
194.38
189.948
185.226
180.228
174.972
169.478
163.765
157.853
151.763
145.517
139.137
132.646
126.068
119.424
112.737
106.031
99.329
92.651
86.021
79.458
72.983
66.615
60.372
54.272
48.332
42.565
36.988
31.612
26.449
21.51
16.803
12.338
8.12
4.154
0.445
-3.006
-6.196
-9.127
-11.799
-14.216
-16.38
-18.296
-19.971
-21.412
-22.625
-23.619
-24.403
-24.988
-25.384
-25.602
-25.653
-25.549
-25.302
-24.925
-24.43
-23.828
-23.133
-22.357
-21.511
-20.608
-19.658
-18.673
-17.664
-16.64
-15.612
-14.589
-13.578
-12.589
-11.628
-10.702
-9.816
-8.977
-8.189
-7.456
-6.781
-6.169
-5.621
-5.14
-4.727
-4.383
-4.108
-3.904
-3.77
-3.704
-3.708
-3.778
-3.915
-4.116
-4.38
-4.704
-5.087
-5.525
-6.017
-6.56
-7.15
-7.784
-8.459
-9.173
-9.922
-10.702
-11.511
-12.345
-13.202
-14.079
-14.972
-15.878
-16.794
-17.717
-18.643
-19.568
-20.489
-21.403
-22.305
-23.192
-24.061
-24.905
-25.723
-26.508
-27.258
-27.967
-28.631
-29.245
-29.807
-30.312
-30.757
-31.139
-31.456
-31.707
-31.891
-32.007
-32.055
-32.034
-31.945
-31.787
-31.561
-31.267
-30.906
-30.478
-29.986
-29.432
-28.819
-28.152
-27.434
-26.668
-25.858
-25.01
-24.129
-23.22
-22.287
-21.334
-20.365
-19.388
-18.413
-17.445
-16.487
-15.537
-14.59
-13.643
-12.69
-11.722
-10.721
-9.67
-8.555
-7.363
-6.089
-4.729
-3.278
-1.722
-0.05
1.742
3.647
5.646
7.717
9.842
11.991
14.119
16.157
18.036
19.686
21.045
22.066
22.694
22.884
22.593
21.778
20.402
18.439
15.882
12.72
8.974
4.651
-0.254
-5.61
-11.205
-16.741
-21.8
-26.018
-29.154
-30.867
-30.744
-28.724
-24.955
-19.87
-14.439
-9.38
-5.09
-2.254
-1.494
-2.822
-5.989
-10.075
-13.149
-13.742
-10.656
-2.085
13.364
36.4
67.366
105.286
147.895
193.044
237.938
278.493
310.686
330.421
333.81
318.469
282.839
225.883
148.355
52.914
-56.484
-174.34
-294.731
-412.115
-520.306
-613.404
-686.892
-737.505
-764.048
-767.299
-748.543
-709.909
-655.205
-588.712
-514.998
-438.885
-363.771
-292.2
-227.055
-170.412
-123.254
-86.102
-58.241
-38.062
-24.526
-16.453
-11.921
-9.303
-7.056
-3.688
1.191
7.334
14.657
22.788
31.026
38.806
45.358
49.879
52.249
52.712
51.574
49.341
46.51
43.481
40.781
38.938
38.195
38.621
40.168
42.667
45.994
50.055
54.703
59.777
65.134
70.641
76.196
81.726
87.138
92.333
97.219
101.706
105.75
109.342
112.496
115.245
117.626
119.682
121.467
123.044
124.474
125.814
127.116
128.422
129.777
131.228
132.819
134.592
136.572
138.769
141.188
143.823
146.666
149.706
152.925
156.299
159.807
163.43
167.148
170.945
174.8
178.689
182.588
186.473
190.32
194.107
197.811
201.409
204.878
208.197
211.345
214.303
217.05
219.565
221.83
223.824
225.529
226.93
228.011
228.759
229.162
229.21
228.898
228.219
227.171
225.752
223.963
221.808
219.289
216.414
213.191
209.63
205.742
201.539
197.038
192.253
187.201
181.902
176.375
170.639
164.716
158.627
152.396
146.043
139.591
133.064
126.483
119.87
113.248
106.638
100.059
93.533
87.078
80.711
74.45
68.31
62.305
56.449
50.753
45.228
39.884
34.728
29.767
25.008
20.454
16.11
11.976
8.055
4.345
0.846
-2.445
-5.531
-8.415
-11.103
-13.599
-15.911
-18.045
-20.008
-21.808
-23.452
-24.949
-26.308
-27.537
-28.644
-29.639
-30.528
-31.322
-32.027
-32.651
-33.203
-33.688
-34.114
-34.488
-34.815
-35.101
-35.351
-35.57
-35.763
-35.933
-36.085
-36.221
-36.345
-36.459
-36.566
-36.667
-36.765
-36.861
-36.956
-37.053
-37.151
-37.252
-37.357
-37.467
-37.581
-37.702
-37.829
-37.963
-38.105
-38.255
-38.413
-38.58
-38.756
-38.942
-39.137
-39.342
-39.557
-39.781
-40.017
-40.262
-40.519
-40.786
-41.063
-41.351
-41.648
-41.955
-42.27
-42.593
-42.921
-43.255
-43.592
-43.93
-44.268
-44.603
-44.933
-45.255
-45.568
-45.868
-46.152
-46.417
-46.662
-46.884
-47.081
-47.252
-47.395
-47.51
-47.598
-47.657
-47.688
-47.691
-47.666
-47.615
-47.537
-47.432
-47.301
-47.144
-46.964
-46.762
-46.542
-46.304
-46.052
-45.788
-45.518
-45.245
-44.972
-44.698
-44.424
-44.151
-43.882
-43.623
-43.377
-43.141
-42.913
-42.691
-42.472
-42.249
-42.012
-41.737
-41.403
-40.994
-40.497
-39.91
-39.228
-38.441
-37.54
-36.519
-35.376
-34.123
-32.77
-31.319
-29.783
-28.19
-26.586
-25.047
-23.655
-22.468
-21.543
-20.928
-20.654
-20.772
-21.34
-22.393
-23.971
-26.097
-28.776
-32.059
-36.015
-40.582
-45.587
-50.743
-55.635
-59.929
-63.414
-65.759
-66.559
-65.699
-63.321
-59.9
-56.283
-53.086
-50.567
-49.172
-49.507
-51.69
-55.385
-59.616
-62.686
-63.234
-60.39
-52.946
-39.367
-18.672
9.463
44.33
84.01
126.534
169.894
211.116
246.267
271.314
282.482
276.87
252.798
209.105
145.509
63.398
-34.046
-142.245
-255.797
-369.078
-476.536
-572.686
-652.686
-712.827
-750.994
-766.889
-761.363
-736.246
-694.389
-639.31
-574.991
-505.75
-435.432
-366.99
-303.139
-246.023
-197.025
-157.086
-126.165
-103.206
-87.003
-76.376
-69.745
-65.607
-62.487
-58.808
-53.818
-47.522
-40.067
-31.805
-23.317
-15.113
-7.895
-2.541
0.65
1.794
1.146
-0.809
-3.596
-6.821
-9.955
-12.408
-13.859
-14.173
-13.343
-11.513
-8.789
-5.246
-1.022
3.724
8.847
14.218
19.74
25.342
30.93
36.397
41.637
46.545
51.063
55.167
58.854
62.148
65.077
67.678
70.004
72.115
74.071
75.927
77.734
79.533
81.372
83.3
85.367
87.621
90.093
92.8
95.749
98.938
102.362
106.012
109.87
113.911
118.116
122.464
126.936
131.514
136.179
140.904
145.665
150.434
155.187
159.9
164.546
169.1
173.539
177.838
181.974
185.925
189.668
193.18
196.438
199.417
202.098
204.459
206.483
208.15
209.446
210.357
210.872
210.982
210.681
209.963
208.826
207.269
205.293
202.903
200.103
196.902
193.308
189.334
184.993
180.3
175.272
169.928
164.287
158.37
152.199
145.799
139.193
132.406
125.464
118.391
111.216
103.963
96.658
89.329
81.999
74.695
67.441
60.26
53.174
46.205
39.373
32.697
26.194
19.882
13.776
7.888
2.231
-3.184
-8.347
-13.252
-17.891
-22.26
-26.355
-30.175
-33.72
-36.989
-39.986
-42.713
-45.175
-47.379
-49.329
-51.035
-52.504
-53.746
-54.771
-55.59
-56.212
-56.65
-56.915
-57.02
-56.975
-56.793
-56.486
-56.066
-55.543
-54.93
-54.238
-53.477
-52.658
-51.791
-50.885
-49.949
-48.993
-48.023
-47.047
-46.072
-45.104
-44.15
-43.214
-42.301
-41.416
-40.562
-39.742
-38.96
-38.217
-37.517
-36.861
-36.25
-35.686
-35.169
-34.702
-34.284
-33.915
-33.598
-33.331
-33.115
-32.95
-32.835
-32.77
-32.754
-32.786
-32.866
-32.992
-33.162
-33.376
-33.631
-33.927
-34.261
-34.631
-35.036
-35.473
-35.94
-36.434
-36.952
-37.491
-38.047
-38.618
-39.199
-39.786
-40.376
-40.963
-41.543
-42.11
-42.66
-43.186
-43.683
-44.146
-44.569
-44.946
-45.275
-45.549
-45.765
-45.921
-46.014
-46.042
-46.003
-45.897
-45.722
-45.478
-45.164
-44.781
-44.328
-43.806
-43.215
-42.557
-41.837
-41.058
-40.221
-39.332
-38.395
-37.414
-36.397
-35.351
-34.277
-33.179
-32.064
-30.938
-29.813
-28.699
-27.594
-26.499
-25.415
-24.338
-23.268
-22.193
-21.095
-19.955
-18.755
-17.481
-16.134
-14.712
-13.204
-11.599
-9.887
-8.062
-6.143
-4.15
-2.094
0.002
2.103
4.16
6.084
7.79
9.2
10.248
10.877
11.046
10.704
9.801
8.289
6.127
3.305
-0.183
-4.33
-9.131
-14.605
-20.637
-26.984
-33.315
-39.187
-44.209
-48.136
-50.629
-51.27
-49.995
-46.942
-42.525
-37.702
-33.179
-29.325
-26.792
-26.138
-27.309
-30.041
-33.44
-35.621
-35.163
-30.896
-21.059
-4.379
19.702
51.39
89.623
132.124
176.744
220.666
259.832
290.338
308.285
310.053
293.48
257.157
200.183
123.416
29.551
-77.498
-192.395
-309.475
-423.465
-528.445
-618.775
-690.148
-739.456
-765.594
-769.337
-751.902
-715.27
-663.027
-599.196
-528.109
-454.381
-381.245
-311.111
-246.75
-190.217
-142.586
-104.532
-75.507
-54.048
-39.238
-30.021
-24.604
-21.423
-18.917
-15.512
-10.719
-4.711
2.489
10.567
18.877
26.884
33.81
38.794
41.663
42.616
41.93
40.092
37.583
34.793
32.252
30.512
29.835
30.306
31.888
34.412
37.76
41.843
46.517
51.624
57.024
62.587
68.214
73.836
79.365
84.701
89.751
94.421
98.662
102.465
105.84
108.817
111.433
113.726
115.751
117.569
119.239
120.818
122.356
123.893
125.475
127.148
128.958
130.949
133.147
135.565
138.206
141.067
144.14
147.415
150.873
154.491
158.247
162.122
166.096
170.152
174.27
178.424
182.592
186.747
190.865
194.923
198.898
202.765
206.501
210.085
213.494
216.708
219.707
222.468
224.972
227.196
229.123
230.734
232.014
232.947
233.521
233.724
233.55
232.992
232.045
230.707
228.978
226.86
224.357
221.474
218.219
214.601
210.633
206.326
201.695
196.757
191.529
186.03
180.28
174.301
168.114
161.742
155.209
148.539
141.756
134.884
127.949
120.975
113.985
107.003
100.054
93.159
86.34
79.618
73.012
66.541
60.222
54.072
48.105
42.333
36.771
31.427
26.311
21.431
16.794
12.404
8.265
4.38
0.749
-2.629
-5.754
-8.631
-11.262
-13.654
-15.812
-17.745
-19.458
-20.963
-22.268
-23.382
-24.318
-25.086
-25.697
-26.163
-26.496
-26.707
-26.808
-26.811
-26.727
-26.567
-26.343
-26.064
-25.74
-25.382
-24.998
-24.598
-24.188
-23.776
-23.37
-22.975
-22.597
-22.241
-21.912
-21.613
-21.347
-21.118
-20.926
-20.774
-20.661
-20.59
-20.56
-20.571
-20.622
-20.713
-20.842
-21.01
-21.213
-21.451
-21.723
-22.026
-22.359
-22.722
-23.112
-23.528
-23.97
-24.435
-24.923
-25.433
-25.964
-26.515
-27.085
-27.673
-28.278
-28.9
-29.537
-30.19
-30.857
-31.537
-32.231
-32.938
-33.658
-34.389
-35.132
-35.885
-36.647
-37.417
-38.195
-38.977
-39.762
-40.549
-41.336
-42.118
-42.895
-43.663
-44.417
-45.156
-45.874
-46.567
-47.232
-47.866
-48.463
-49.021
-49.537
-50.008
-50.433
-50.811
-51.14
-51.418
-51.646
-51.823
-51.947
-52.02
-52.04
-52.008
-51.923
-51.786
-51.601
-51.37
-51.097
-50.783
-50.433
-50.05
-49.638
-49.203
-48.749
-48.28
-47.798
-47.31
-46.821
-46.341
-45.876
-45.427
-44.991
-44.566
-44.147
-43.729
-43.3
-42.844
-42.344
-41.784
-41.151
-40.44
-39.644
-38.756
-37.764
-36.656
-35.428
-34.089
-32.649
-31.124
-29.534
-27.904
-26.276
-24.715
-23.283
-22.046
-21.07
-20.407
-20.112
-20.234
-20.804
-21.864
-23.452
-25.592
-28.304
-31.609
-35.486
-39.934
-44.98
-50.503
-56.298
-62.075
-67.381
-71.834
-75.194
-77.106
-77.159
-75.299
-71.678
-66.756
-61.533
-56.727
-52.706
-50.124
-49.562
-51.001
-54.141
-57.985
-60.542
-60.334
-56.244
-46.559
-29.898
-5.552
26.852
66.317
110.459
157.141
203.764
246.423
281.183
303.97
310.719
298.951
267.287
214.59
141.26
49.604
-56.952
-173.315
-293.532
-412.177
-523.484
-621.547
-701.649
-760.207
-795.06
-806.179
-794.56
-761.831
-711.163
-646.61
-572.534
-493.793
-414.68
-338.489
-268.465
-207.253
-156.325
-116.454
-87.286
-67.319
-54.987
-48.675
-46.203
-45.565
-45.004
-42.894
-38.605
-32.304
-24.281
-15.081
-5.549
3.568
11.433
17.186
20.611
21.909
21.426
19.705
17.289
14.638
12.291
10.788
10.39
11.173
13.091
15.976
19.7
24.159
29.209
34.689
40.461
46.399
52.4
58.387
64.263
69.926
75.281
80.238
84.748
88.799
92.4
95.585
98.391
100.862
103.051
105.023
106.838
108.554
110.225
111.897
113.617
115.434
117.395
119.545
121.912
124.51
127.343
130.41
133.702
137.211
140.918
144.804
148.846
153.026
157.325
161.725
166.207
170.747
175.318
179.897
184.458
188.976
193.428
197.787
202.029
206.13
210.065
213.812
217.348
220.646
223.685
226.44
228.89
231.013
232.79
234.205
235.239
235.881
236.119
235.945
235.35
234.33
232.883
231.009
228.709
225.987
222.849
219.304
215.362
211.035
206.338
201.286
195.897
190.191
184.188
177.912
171.385
164.632
157.678
150.55
143.274
135.877
128.387
120.831
113.236
105.629
98.036
90.484
82.996
75.598
68.312
61.16
54.162
47.337
40.703
34.276
28.071
22.101
16.377
10.91
5.707
0.776
-3.879
-8.253
-12.346
-16.157
-19.687
-22.939
-25.916
-28.625
-31.071
-33.262
-35.208
-36.917
-38.4
-39.67
-40.736
-41.613
-42.312
-42.847
-43.231
-43.478
-43.601
-43.614
-43.528
-43.357
-43.113
-42.808
-42.454
-42.061
-41.638
-41.197
-40.745
-40.29
-39.841
-39.403
-38.982
-38.585
-38.214
-37.874
-37.568
-37.298
-37.065
-36.872
-36.718
-36.604
-36.528
-36.49
-36.489
-36.523
-36.59
-36.688
-36.815
-36.968
-37.144
-37.343
-37.561
-37.796
-38.045
-38.308
-38.582
-38.865
-39.157
-39.456
-39.762
-40.073
-40.39
-40.712
-41.039
-41.372
-41.709
-42.052
-42.401
-42.755
-43.114
-43.48
-43.851
-44.229
-44.612
-45.002
-45.398
-45.799
-46.206
-46.617
-47.032
-47.449
-47.867
-48.285
-48.7
-49.109
-49.511
-49.902
-50.279
-50.639
-50.976
-51.288
-51.569
-51.815
-52.022
-52.183
-52.297
-52.357
-52.361
-52.305
-52.188
-52.006
-51.76
-51.449
-51.072
-50.629
-50.121
-49.55
-48.916
-48.221
-47.467
-46.655
-45.789
-44.874
-43.915
-42.916
-41.884
-40.824
-39.742
-38.645
-37.542
-36.44
-35.343
-34.257
-33.188
-32.146
-31.143
-30.185
-29.275
-28.412
-27.594
-26.818
-26.081
-25.371
-24.669
-23.956
-23.213
-22.43
-21.603
-20.725
-19.791
-18.787
-17.694
-16.51
-15.238
-13.893
-12.491
-11.046
-9.578
-8.137
-6.79
-5.612
-4.679
-4.043
-3.741
-3.815
-4.293
-5.224
-6.665
-8.652
-11.214
-14.36
-18.074
-22.377
-27.31
-32.797
-38.64
-44.54
-50.071
-54.885
-58.757
-61.387
-62.393
-61.542
-58.885
-54.819
-50.109
-45.505
-41.429
-38.274
-36.648
-36.93
-38.975
-42.095
-44.862
-45.591
-43.132
-36.322
-23.51
-3.476
24.359
59.862
101.535
147.21
194.862
241.633
283.461
316.25
335.842
338.565
322.259
285.283
226.549
146.852
48.886
-63.231
-183.888
-307.178
-427.525
-538.587
-634.291
-709.946
-762.193
-789.823
-793.466
-774.247
-734.207
-677.158
-607.655
-530.629
-451.084
-372.601
-298.127
-230.897
-173.372
-126.839
-91.482
-66.136
-49.012
-38.816
-33.963
-32.219
-31.431
-29.588
-25.548
-19.34
-11.365
-1.972
8.263
18.52
27.828
35.05
39.636
41.732
41.695
40.039
37.286
33.901
30.47
27.668
25.918
25.37
26.03
27.75
30.397
33.899
38.127
42.918
48.13
53.625
59.292
65.054
70.823
76.491
81.957
87.117
91.883
96.213
100.097
103.544
106.585
109.254
111.589
113.645
115.484
117.167
118.749
120.28
121.804
123.367
125.016
126.799
128.758
130.918
133.29
135.877
138.676
141.68
144.879
148.254
151.782
155.442
159.215
163.084
167.03
171.033
175.07
179.116
183.147
187.14
191.072
194.921
198.662
202.274
205.734
209.021
212.115
214.995
217.64
220.029
222.142
223.958
225.462
226.636
227.465
227.936
228.039
227.763
227.104
226.056
224.617
222.785
220.562
217.951
214.958
211.589
207.854
203.762
199.327
194.562
189.484
184.108
178.454
172.542
166.392
160.026
153.467
146.739
139.864
132.868
125.775
118.611
111.399
104.164
96.931
89.724
82.566
75.478
68.484
61.603
54.855
48.258
41.83
35.585
29.538
23.703
18.091
12.712
7.576
2.689
-1.942
-6.313
-10.421
-14.264
-17.841
-21.155
-24.207
-27.001
-29.542
-31.835
-33.888
-35.708
-37.305
-38.687
-39.866
-40.851
-41.656
-42.291
-42.769
-43.102
-43.303
-43.385
-43.36
-43.24
-43.037
-42.765
-42.433
-42.053
-41.636
-41.192
-40.73
-40.259
-39.788
-39.324
-38.874
-38.444
-38.04
-37.666
-37.326
-37.024
-36.762
-36.543
-36.367
-36.235
-36.148
-36.104
-36.102
-36.142
-36.221
-36.336
-36.486
-36.666
-36.875
-37.107
-37.361
-37.632
-37.916
-38.211
-38.512
-38.816
-39.12
-39.42
-39.714
-39.997
-40.269
-40.526
-40.766
-40.988
-41.19
-41.371
-41.531
-41.669
-41.784
-41.878
-41.951
-42.003
-42.036
-42.052
-42.053
-42.04
-42.016
-41.983
-41.945
-41.903
-41.86
-41.819
-41.782
-41.751
-41.73
-41.719
-41.721
-41.737
-41.77
-41.82
-41.89
-41.98
-42.091
-42.224
-42.378
-42.554
-42.751
-42.967
-43.203
-43.455
-43.723
-44.004
-44.296
-44.595
-44.897
-45.199
-45.497
-45.786
-46.061
-46.317
-46.55
-46.755
-46.929
-47.067
-47.166
-47.224
-47.238
-47.208
-47.13
-47.005
-46.831
-46.607
-46.333
-46.008
-45.633
-45.207
-44.732
-44.209
-43.641
-43.033
-42.386
-41.704
-40.99
-40.249
-39.485
-38.705
-37.912
-37.109
-36.301
-35.496
-34.704
-33.932
-33.182
-32.45
-31.735
-31.032
-30.333
-29.631
-28.905
-28.14
-27.318
-26.427
-25.461
-24.414
-23.28
-22.044
-20.692
-19.22
-17.631
-15.944
-14.179
-12.356
-10.505
-8.673
-6.928
-5.342
-3.988
-2.929
-2.213
-1.895
-2.021
-2.631
-3.771
-5.48
-7.784
-10.693
-14.213
-18.322
-23.012
-28.286
-34.01
-39.957
-45.817
-51.15
-55.58
-58.857
-60.627
-60.469
-58.325
-54.351
-49.002
-43.285
-37.938
-33.368
-30.281
-29.299
-30.398
-33.289
-36.995
-39.513
-39.363
-35.342
-25.595
-8.749
15.817
48.378
87.849
131.866
178.336
224.479
266.081
299.181
319.964
324.527
310.326
275.812
219.496
142.698
50.153
-54.649
-168.179
-287.647
-413.521
-539.195
-652.401
-742.237
-796.552
-813.325
-801.345
-768.156
-722.661
-669.93
-608.38
-539.164
-464.766
-388.002
-314.299
-247.948
-191.232
-145.471
-110.434
-84.839
-67.214
-56.358
-50.67
-48.008
-46.342
-43.735
-39.093
-32.447
-24.169
-14.602
-4.338
5.823
14.961
21.983
26.368
28.275
28.058
26.227
23.306
19.756
16.152
13.163
11.21
10.444
10.88
12.375
14.804
18.097
22.127
26.733
31.771
37.099
42.606
48.21
53.821
59.33
64.63
69.618
74.202
78.34
82.019
85.248
88.056
90.477
92.551
94.332
95.885
97.27
98.547
99.766
100.972
102.215
103.544
105.007
106.651
108.5
110.569
112.863
115.38
118.116
121.063
124.203
127.517
130.984
134.588
138.313
142.142
146.058
150.038
154.059
158.1
162.138
166.151
170.118
174.018
177.827
181.526
185.093
188.509
191.754
194.806
197.644
200.246
202.595
204.671
206.456
207.934
209.092
209.915
210.394
210.521
210.287
209.689
208.722
207.386
205.681
203.608
201.173
198.38
195.238
191.755
187.943
183.814
179.381
174.661
169.669
164.423
158.943
153.247
147.357
141.294
135.078
128.734
122.282
115.746
109.15
102.514
95.863
89.219
82.602
76.035
69.537
63.127
56.825
50.648
44.613
38.735
33.028
27.507
22.182
17.065
12.165
7.491
3.051
-1.151
-5.109
-8.821
-12.284
-15.497
-18.46
-21.176
-23.645
-25.872
-27.862
-29.619
-31.15
-32.462
-33.564
-34.463
-35.168
-35.69
-36.038
-36.224
-36.256
-36.148
-35.908
-35.549
-35.081
-34.516
-33.864
-33.136
-32.341
-31.492
-30.596
-29.663
-28.703
-27.724
-26.734
-25.741
-24.752
-23.774
-22.812
-21.874
-20.963
-20.085
-19.243
-18.442
-17.685
-16.975
-16.313
-15.702
-15.143
-14.637
-14.185
-13.787
-13.444
-13.154
-12.917
-12.732
-12.599
-12.516
-12.481
-12.493
-12.551
-12.652
-12.795
-12.978
-13.199
-13.455
-13.746
-14.068
-14.42
-14.799
-15.204
-15.632
-16.082
-16.55
-17.036
-17.537
-18.051
-18.577
-19.112
-19.656
-20.206
-20.761
-21.319
-21.88
-22.442
-23.004
-23.564
-24.123
-24.678
-25.23
-25.778
-26.32
-26.857
-27.386
-27.908
-28.421
-28.924
-29.417
-29.898
-30.365
-30.819
-31.258
-31.681
-32.088
-32.477
-32.848
-33.199
-33.53
-33.839
-34.126
-34.389
-34.626
-34.838
-35.021
-35.176
-35.3
-35.392
-35.45
-35.473
-35.458
-35.405
-35.311
-35.174
-34.993
-34.768
-34.498
-34.182
-33.822
-33.419
-32.974
-32.49
-31.969
-31.414
-30.826
-30.208
-29.564
-28.896
-28.207
-27.498
-26.775
-26.04
-25.299
-24.556
-23.816
-23.081
-22.358
-21.65
-20.964
-20.304
-19.672
-19.069
-18.499
-17.967
-17.48
-17.043
-16.651
-16.302
-15.991
-15.712
-15.457
-15.214
-14.958
-14.669
-14.326
-13.914
-13.429
-12.862
-12.202
-11.437
-10.552
-9.543
-8.422
-7.2
-5.886
-4.497
-3.059
-1.616
-0.244
0.986
2.001
2.741
3.156
3.2
2.833
2.011
0.686
-1.176
-3.589
-6.576
-10.137
-14.284
-19.066
-24.39
-30.043
-35.735
-41.035
-45.567
-49.097
-51.272
-51.662
-50.184
-46.966
-42.447
-37.587
-33.089
-29.298
-26.841
-26.313
-27.741
-30.895
-34.844
-37.673
-37.922
-34.487
-25.769
-10.394
12.4
43.044
80.76
123.387
168.839
214.625
257.151
292.584
316.961
326.308
317.703
289.362
239.993
169.664
80.222
-25.158
-141.771
-263.952
-385.815
-501.224
-604.085
-689.257
-752.787
-792.227
-807.068
-797.989
-766.82
-716.827
-652.098
-577.196
-497.059
-416.117
-337.917
-265.818
-202.447
-149.349
-107.386
-76.258
-54.55
-40.704
-33.097
-29.603
-28.241
-27.226
-24.866
-20.453
-14.103
-6.095
3.04
12.484
21.506
29.26
34.838
37.979
38.868
37.847
35.472
32.302
28.803
25.539
23.093
21.758
21.633
22.689
24.758
27.713
31.456
35.84
40.698
45.884
51.268
56.742
62.225
67.617
72.807
77.693
82.171
86.188
89.723
92.783
95.396
97.6
99.435
100.957
102.23
103.316
104.275
105.163
106.024
106.91
107.873
108.962
110.227
111.701
113.398
115.329
117.491
119.88
122.488
125.3
128.296
131.455
134.763
138.202
141.759
145.416
149.152
152.946
156.775
160.617
164.452
168.259
172.017
175.704
179.299
182.783
186.136
189.34
192.371
195.211
197.837
200.231
202.373
204.246
205.834
207.121
208.094
208.743
209.058
209.031
208.657
207.931
206.851
205.416
203.626
201.486
198.998
196.17
193.008
189.522
185.724
181.624
177.238
172.579
167.665
162.513
157.141
151.569
145.815
139.902
133.85
127.681
121.416
115.078
108.689
102.27
95.843
89.429
83.049
76.723
70.469
64.307
58.253
52.325
46.538
40.906
35.444
30.163
25.075
20.19
15.517
11.065
6.838
2.843
-0.916
-4.438
-7.719
-10.76
-13.562
-16.126
-18.456
-20.555
-22.428
-24.083
-25.524
-26.761
-27.801
-28.653
-29.327
-29.833
-30.18
-30.38
-30.444
-30.382
-30.205
-29.926
-29.554
-29.101
-28.577
-27.994
-27.361
-26.689
-25.986
-25.263
-24.528
-23.788
-23.053
-22.329
-21.622
-20.939
-20.286
-19.667
-19.087
-18.55
-18.058
-17.616
-17.224
-16.886
-16.601
-16.371
-16.195
-16.075
-16.008
-15.995
-16.034
-16.124
-16.262
-16.447
-16.677
-16.948
-17.259
-17.607
-17.988
-18.4
-18.84
-19.306
-19.794
-20.301
-20.826
-21.364
-21.914
-22.473
-23.037
-23.606
-24.176
-24.746
-25.313
-25.875
-26.431
-26.978
-27.516
-28.043
-28.559
-29.061
-29.55
-30.024
-30.483
-30.927
-31.355
-31.769
-32.167
-32.549
-32.917
-33.272
-33.612
-33.939
-34.253
-34.554
-34.843
-35.12
-35.385
-35.638
-35.878
-36.108
-36.325
-36.531
-36.726
-36.909
-37.081
-37.24
-37.388
-37.523
-37.645
-37.753
-37.847
-37.925
-37.986
-38.03
-38.054
-38.058
-38.04
-37.997
-37.929
-37.833
-37.708
-37.551
-37.361
-37.137
-36.877
-36.583
-36.252
-35.887
-35.489
-35.059
-34.599
-34.11
-33.596
-33.056
-32.495
-31.913
-31.313
-30.697
-30.068
-29.428
-28.782
-28.135
-27.489
-26.848
-26.216
-25.596
-24.996
-24.42
-23.867
-23.34
-22.84
-22.373
-21.946
-21.564
-21.221
-20.915
-20.64
-20.39
-20.159
-19.934
-19.69
-19.408
-19.067
-18.651
-18.158
-17.583
-16.911
-16.132
-15.23
-14.198
-13.054
-11.813
-10.481
-9.078
-7.63
-6.182
-4.812
-3.597
-2.604
-1.891
-1.507
-1.492
-1.89
-2.746
-4.107
-6.01
-8.468
-11.493
-15.082
-19.241
-24
-29.259
-34.79
-40.286
-45.314
-49.495
-52.595
-54.283
-54.149
-52.148
-48.434
-43.449
-38.183
-33.371
-29.399
-26.945
-26.577
-28.226
-31.596
-35.737
-38.687
-38.958
-35.325
-25.963
-9.552
14.493
46.382
85.027
128.097
173.388
218.014
257.847
288.919
307.276
309.258
292.664
256.057
198.553
121.065
26.369
-81.541
-197.288
-315.173
-429.835
-535.235
-625.644
-696.708
-745.378
-770.622
-773.14
-754.085
-715.46
-660.927
-594.8
-521.694
-446.252
-371.74
-300.84
-236.519
-181.051
-135.664
-100.574
-74.745
-56.597
-45.03
-38.659
-35.483
-33.528
-30.874
-26.412
-20.132
-12.349
-3.337
6.417
16.204
25.135
32.116
36.611
38.741
38.829
37.358
34.816
31.633
28.364
25.669
23.964
23.406
24.006
25.622
28.127
31.453
35.473
40.029
44.982
50.196
55.562
61.006
66.443
71.769
76.888
81.698
86.114
90.098
93.639
96.75
99.463
101.812
103.838
105.595
107.144
108.546
109.857
111.129
112.401
113.723
115.141
116.702
118.449
120.407
122.588
124.996
127.628
130.478
133.536
136.785
140.203
143.769
147.465
151.273
155.177
159.157
163.188
167.249
171.313
175.358
179.361
183.3
187.149
190.888
194.492
197.942
201.215
204.292
207.149
209.765
212.12
214.193
215.967
217.423
218.546
219.323
219.74
219.789
219.462
218.753
217.658
216.176
214.307
212.052
209.416
206.405
203.025
199.287
195.202
190.783
186.044
181.001
175.672
170.075
164.231
158.161
151.886
145.428
138.812
132.061
125.199
118.25
111.239
104.189
97.126
90.073
83.052
76.087
69.199
62.408
55.734
49.196
42.811
36.595
30.564
24.73
19.108
13.707
8.537
3.608
-1.075
-5.505
-9.678
-13.591
-17.242
-20.633
-23.762
-26.633
-29.249
-31.615
-33.736
-35.619
-37.271
-38.7
-39.917
-40.93
-41.749
-42.387
-42.853
-43.159
-43.318
-43.34
-43.237
-43.022
-42.706
-42.301
-41.817
-41.266
-40.659
-40.006
-39.317
-38.601
-37.868
-37.126
-36.384
-35.647
-34.925
-34.222
-33.545
-32.9
-32.291
-31.722
-31.196
-30.718
-30.289
-29.912
-29.588
-29.318
-29.104
-28.946
-28.845
-28.8
-28.81
-28.877
-28.998
-29.173
-29.401
-29.681
-30.012
-30.392
-30.82
-31.295
-31.815
-32.379
-32.984
-33.63
-34.313
-35.033
-35.786
-36.571
-37.385
-38.224
-39.087
-39.97
-40.872
-41.788
-42.716
-43.653
-44.596
-45.542
-46.487
-47.427
-48.36
-49.28
-50.184
-51.068
-51.929
-52.761
-53.56
-54.322
-55.042
-55.716
-56.339
-56.907
-57.414
-57.858
-58.233
-58.537
-58.767
-58.921
-58.997
-58.994
-58.913
-58.754
-58.519
-58.208
-57.823
-57.367
-56.841
-56.249
-55.593
-54.877
-54.104
-53.279
-52.408
-51.497
-50.551
-49.577
-48.582
-47.572
-46.556
-45.541
-44.53
-43.53
-42.546
-41.584
-40.657
-39.768
-38.92
-38.11
-37.337
-36.599
-35.892
-35.204
-34.517
-33.812
-33.071
-32.284
-31.447
-30.553
-29.593
-28.556
-27.428
-26.21
-24.912
-23.548
-22.128
-20.665
-19.18
-17.718
-16.347
-15.134
-14.148
-13.438
-13.045
-13.018
-13.394
-14.217
-15.538
-17.379
-19.754
-22.685
-26.169
-30.233
-34.929
-40.163
-45.727
-51.347
-56.622
-61.22
-64.937
-67.421
-68.248
-67.298
-64.709
-60.954
-56.893
-53.148
-49.998
-47.935
-47.611
-49.208
-52.449
-56.369
-59.262
-59.751
-56.947
-49.632
-36.243
-15.747
12.239
47.063
86.819
129.547
173.279
215.053
250.918
276.802
288.828
283.973
260.513
217.161
153.446
70.707
-27.93
-137.867
-253.526
-369.273
-479.644
-578.964
-662.142
-725.396
-766.402
-784.857
-781.789
-758.657
-717.876
-662.925
-597.761
-526.665
-453.695
-381.711
-313.231
-251
-197.041
-152.607
-118.01
-92.338
-74.288
-62.885
-56.755
-53.946
-52.521
-50.58
-47.003
-41.712
-34.906
-26.799
-17.871
-8.819
-0.532
5.938
10.103
12.08
12.168
10.827
8.536
5.727
2.962
0.887
-0.133
0.024
1.343
3.664
6.86
10.854
15.503
20.639
26.111
31.789
37.572
43.392
49.155
54.751
60.076
65.022
69.53
73.581
77.172
80.329
83.085
85.476
87.554
89.381
91.016
92.516
93.933
95.309
96.694
98.139
99.693
101.408
103.317
105.435
107.774
110.331
113.102
116.08
119.25
122.588
126.077
129.699
133.435
137.273
141.192
145.171
149.186
153.215
157.234
161.222
165.156
169.014
172.775
176.418
179.923
183.27
186.441
189.415
192.17
194.688
196.949
198.937
200.634
202.025
203.098
203.84
204.243
204.3
204.006
203.356
202.349
200.986
199.268
197.2
194.787
192.036
188.957
185.56
181.858
177.865
173.595
169.066
164.294
159.298
154.098
148.715
143.168
137.479
131.67
125.764
119.781
113.744
107.675
101.595
95.526
89.488
83.5
77.583
71.753
66.028
60.423
54.955
49.635
44.478
39.493
34.692
30.083
25.674
21.472
17.481
13.706
10.15
6.814
3.698
0.803
-1.875
-4.336
-6.586
-8.628
-10.469
-12.114
-13.569
-14.844
-15.944
-16.881
-17.661
-18.294
-18.791
-19.16
-19.411
-19.554
-19.598
-19.554
-19.429
-19.234
-18.977
-18.667
-18.311
-17.919
-17.496
-17.05
-16.588
-16.115
-15.637
-15.16
-14.688
-14.225
-13.775
-13.342
-12.927
-12.535
-12.166
-11.822
-11.506
-11.216
-10.955
-10.723
-10.519
-10.345
-10.198
-10.08
-9.99
-9.927
-9.891
-9.882
-9.898
-9.939
-10.005
-10.095
-10.209
-10.347
-10.508
-10.692
-10.899
-11.128
-11.379
-11.651
-11.944
-12.258
-12.591
-12.943
-13.312
-13.699
-14.101
-14.519
-14.95
-15.394
-15.85
-16.315
-16.789
-17.269
-17.753
-18.238
-18.723
-19.204
-19.678
-20.143
-20.595
-21.029
-21.444
-21.833
-22.194
-22.522
-22.812
-23.061
-23.265
-23.419
-23.521
-23.569
-23.559
-23.49
-23.363
-23.176
-22.929
-22.623
-22.257
-21.833
-21.353
-20.817
-20.227
-19.585
-18.894
-18.158
-17.381
-16.569
-15.725
-14.855
-13.965
-13.06
-12.149
-11.236
-10.326
-9.423
-8.532
-7.66
-6.818
-6.011
-5.239
-4.502
-3.799
-3.126
-2.48
-1.851
-1.221
-0.573
0.11
0.839
1.616
2.45
3.347
4.318
5.379
6.531
7.767
9.078
10.454
11.881
13.34
14.791
16.17
17.413
18.451
19.227
19.699
19.819
19.551
18.849
17.656
15.934
13.654
10.794
7.35
3.301
-1.406
-6.716
-12.457
-18.359
-24.031
-29.122
-33.396
-36.553
-38.204
-38.112
-36.316
-33.185
-29.455
-25.852
-22.779
-20.62
-19.96
-21.167
-24.107
-28.104
-31.745
-33.377
-31.87
-26.109
-14.499
4.189
30.574
64.579
104.768
148.984
195.25
240.854
281.893
314.35
334.112
337.471
322.252
286.918
230.349
153.14
57.736
-52.016
-170.695
-292.465
-411.914
-522.964
-619.667
-697.298
-752.295
-783.147
-790.38
-775.079
-739.13
-686.141
-620.334
-546.383
-469.365
-392.954
-319.913
-253.322
-195.477
-147.534
-110.113
-82.473
-62.841
-50.042
-42.786
-39.042
-37.08
-35.258
-32.014
-26.963
-20.422
-12.543
-3.763
5.156
13.6
20.735
25.712
28.392
29.008
27.894
25.587
22.604
19.374
16.445
14.357
13.368
13.561
14.886
17.173
20.3
24.165
28.628
33.534
38.744
44.135
49.6
55.059
60.417
65.57
70.419
74.871
78.874
82.409
85.491
88.15
90.425
92.36
94.007
95.427
96.683
97.832
98.926
100.011
101.133
102.341
103.683
105.204
106.933
108.884
111.064
113.47
116.094
118.928
121.956
125.156
128.508
131.995
135.6
139.307
143.097
146.95
150.842
154.749
158.65
162.524
166.348
170.099
173.757
177.3
180.707
183.959
187.036
189.917
192.581
195.008
197.178
199.075
200.682
201.983
202.964
203.615
203.925
203.888
203.498
202.75
201.643
200.177
198.353
196.175
193.648
190.779
187.576
184.05
180.211
176.075
171.655
166.968
162.03
156.861
151.479
145.905
140.159
134.264
128.24
122.111
115.898
109.624
103.311
96.982
90.658
84.36
78.11
71.927
65.829
59.835
53.962
48.226
42.641
37.222
31.98
26.928
22.076
17.432
13.005
8.8
4.823
1.078
-2.433
-5.708
-8.747
-11.552
-14.123
-16.465
-18.581
-20.477
-22.159
-23.635
-24.91
-25.995
-26.897
-27.627
-28.195
-28.61
-28.884
-29.026
-29.049
-28.962
-28.776
-28.503
-28.152
-27.735
-27.26
-26.739
-26.18
-25.592
-24.985
-24.365
-23.742
-23.121
-22.51
-21.915
-21.341
-20.792
-20.274
-19.79
-19.343
-18.936
-18.571
-18.25
-17.975
-17.746
-17.563
-17.428
-17.34
-17.298
-17.302
-17.352
-17.446
-17.583
-17.762
-17.982
-18.241
-18.537
-18.87
-19.237
-19.637
-20.067
-20.525
-21.01
-21.519
-22.05
-22.6
-23.168
-23.752
-24.349
-24.957
-25.574
-26.199
-26.829
-27.462
-28.096
-28.728
-29.357
-29.979
-30.592
-31.195
-31.783
-32.354
-32.905
-33.433
-33.935
-34.407
-34.846
-35.249
-35.612
-35.932
-36.208
-36.435
-36.614
-36.742
-36.819
-36.845
-36.822
-36.748
-36.626
-36.456
-36.24
-35.98
-35.677
-35.331
-34.946
-34.524
-34.069
-33.584
-33.075
-32.545
-31.998
-31.44
-30.876
-30.312
-29.753
-29.201
-28.661
-28.135
-27.631
-27.157
-26.719
-26.315
-25.942
-25.597
-25.275
-24.97
-24.67
-24.355
-24.005
-23.6
-23.131
-22.594
-21.982
-21.289
-20.502
-19.605
-18.597
-17.484
-16.282
-15.007
-13.674
-12.304
-10.944
-9.663
-8.531
-7.623
-6.988
-6.664
-6.695
-7.109
-7.958
-9.294
-11.152
-13.56
-16.528
-20.045
-24.134
-28.839
-34.088
-39.691
-45.363
-50.692
-55.336
-59.065
-61.576
-62.487
-61.574
-58.907
-54.889
-50.295
-45.896
-42.145
-39.479
-38.541
-39.713
-42.827
-47.161
-51.25
-53.365
-52.291
-46.778
-35.096
-15.998
11.07
45.894
86.911
131.886
178.682
224.324
264.649
295.529
312.873
313.126
294.197
254.554
193.3
111.364
11.605
-101.8
-223.334
-347.047
-467.228
-577.553
-672.031
-745.964
-796.115
-821.225
-821.707
-798.961
-755.428
-695.067
-622.607
-543.205
-461.89
-382.542
-308.531
-242.776
-187.322
-143.281
-110.56
-87.798
-73.177
-65.065
-61.471
-60.382
-59.906
-58.172
-54.264
-48.23
-40.4
-31.277
-21.615
-12.123
-3.663
2.735
6.687
8.317
7.926
6.057
3.253
-0.03
-3.208
-5.64
-6.985
-7.113
-6.028
-3.898
-0.845
3.037
7.592
12.646
18.044
23.653
29.37
35.124
40.814
46.329
51.558
56.393
60.775
64.68
68.104
71.07
73.609
75.759
77.578
79.129
80.475
81.674
82.781
83.84
84.904
86.024
87.253
88.644
90.228
92.025
94.045
96.289
98.755
101.435
104.314
107.371
110.589
113.95
117.437
121.038
124.733
128.502
132.322
136.17
140.024
143.863
147.665
151.409
155.073
158.636
162.078
165.381
168.523
171.484
174.243
176.779
179.071
181.103
182.856
184.314
185.463
186.289
186.782
186.933
186.736
186.186
185.278
184.011
182.387
180.406
178.074
175.397
172.38
169.035
165.372
161.403
157.143
152.607
147.811
142.774
137.514
132.05
126.405
120.597
114.651
108.587
102.428
96.196
89.915
83.606
77.293
70.996
64.736
58.535
52.413
46.386
40.475
34.695
29.063
23.593
18.298
13.192
8.285
3.587
-0.893
-5.147
-9.169
-12.956
-16.502
-19.805
-22.866
-25.682
-28.257
-30.592
-32.69
-34.557
-36.196
-37.616
-38.822
-39.822
-40.626
-41.241
-41.679
-41.948
-42.06
-42.024
-41.852
-41.555
-41.144
-40.63
-40.024
-39.337
-38.579
-37.76
-36.892
-35.984
-35.046
-34.086
-33.113
-32.135
-31.16
-30.195
-29.247
-28.321
-27.424
-26.559
-25.733
-24.948
-24.209
-23.518
-22.878
-22.291
-21.759
-21.283
-20.865
-20.504
-20.202
-19.958
-19.772
-19.644
-19.573
-19.558
-19.598
-19.691
-19.836
-20.031
-20.273
-20.559
-20.888
-21.256
-21.661
-22.099
-22.567
-23.063
-23.583
-24.125
-24.684
-25.257
-25.841
-26.433
-27.028
-27.623
-28.214
-28.798
-29.369
-29.926
-30.462
-30.975
-31.46
-31.912
-32.328
-32.703
-33.032
-33.311
-33.538
-33.708
-33.819
-33.868
-33.855
-33.778
-33.638
-33.435
-33.17
-32.843
-32.457
-32.012
-31.511
-30.956
-30.348
-29.69
-28.986
-28.242
-27.461
-26.649
-25.812
-24.955
-24.082
-23.202
-22.32
-21.443
-20.575
-19.721
-18.886
-18.079
-17.311
-16.585
-15.904
-15.264
-14.663
-14.096
-13.557
-13.036
-12.511
-11.966
-11.385
-10.756
-10.073
-9.329
-8.513
-7.613
-6.616
-5.518
-4.328
-3.058
-1.721
-0.333
1.082
2.484
3.804
4.984
5.965
6.687
7.106
7.172
6.834
6.062
4.82
3.074
0.814
-1.98
-5.327
-9.216
-13.653
-18.656
-24.101
-29.782
-35.419
-40.602
-44.99
-48.349
-50.334
-50.534
-48.857
-45.49
-40.935
-36.075
-31.55
-27.642
-24.865
-23.914
-24.965
-27.709
-31.167
-33.608
-33.693
-30.621
-23.161
-9.71
10.74
38.595
73.191
112.607
154.961
198.357
239.794
275.203
300.547
311.985
306.201
281.215
235.614
168.474
82.111
-19.236
-132.364
-252.055
-374.998
-498.371
-612.288
-708.728
-779.639
-817.354
-825.708
-809.137
-772.173
-722.348
-660.698
-588.855
-511.244
-430.558
-351.592
-279.181
-215.672
-162.802
-121.305
-90.515
-69.131
-55.648
-48.317
-44.964
-43.616
-42.5
-39.95
-35.293
-28.659
-20.331
-10.878
-1.15
8.117
16.084
21.852
25.18
26.258
25.427
23.243
20.267
16.962
13.893
11.641
10.494
10.549
11.779
14.017
17.139
21.049
25.599
30.623
35.976
41.527
47.171
52.829
58.399
63.772
68.842
73.509
77.717
81.447
84.703
87.514
89.916
91.952
93.676
95.154
96.447
97.618
98.719
99.798
100.906
102.094
103.413
104.914
106.626
108.568
110.748
113.163
115.809
118.679
121.755
125.016
128.443
132.018
135.724
139.545
143.463
147.456
151.5
155.572
159.648
163.708
167.727
171.685
175.557
179.323
182.961
186.451
189.773
192.905
195.824
198.51
200.943
203.105
204.977
206.544
207.79
208.705
209.277
209.5
209.365
208.87
208.011
206.788
205.203
203.258
200.959
198.312
195.327
192.012
188.382
184.448
180.227
175.735
170.989
166.008
160.813
155.423
149.861
144.149
138.309
132.363
126.335
120.248
114.125
107.988
101.859
95.761
89.713
83.736
77.849
72.069
66.414
60.899
55.539
50.347
45.335
40.515
35.895
31.484
27.289
23.316
19.568
16.048
12.759
9.7
6.871
4.27
1.893
-0.263
-2.204
-3.936
-5.467
-6.803
-7.953
-8.927
-9.734
-10.384
-10.889
-11.257
-11.502
-11.632
-11.66
-11.597
-11.453
-11.239
-10.966
-10.644
-10.282
-9.891
-9.478
-9.053
-8.624
-8.197
-7.781
-7.382
-7.005
-6.656
-6.34
-6.061
-5.823
-5.629
-5.481
-5.383
-5.334
-5.338
-5.395
-5.504
-5.667
-5.883
-6.151
-6.47
-6.839
-7.257
-7.72
-8.228
-8.777
-9.365
-9.988
-10.644
-11.329
-12.04
-12.775
-13.529
-14.3
-15.084
-15.878
-16.678
-17.481
-18.283
-19.081
-19.872
-20.651
-21.416
-22.163
-22.89
-23.591
-24.264
-24.906
-25.512
-26.08
-26.607
-27.088
-27.523
-27.908
-28.243
-28.525
-28.755
-28.933
-29.059
-29.136
-29.164
-29.145
-29.081
-28.975
-28.829
-28.646
-28.427
-28.177
-27.898
-27.595
-27.274
-26.938
-26.593
-26.243
-25.892
-25.547
-25.213
-24.896
-24.596
-24.319
-24.067
-23.845
-23.662
-23.521
-23.42
-23.356
-23.324
-23.317
-23.329
-23.349
-23.356
-23.33
-23.254
-23.116
-22.91
-22.631
-22.272
-21.816
-21.25
-20.568
-19.777
-18.89
-17.921
-16.882
-15.791
-14.69
-13.64
-12.707
-11.961
-11.447
-11.199
-11.259
-11.655
-12.437
-13.662
-15.363
-17.571
-20.301
-23.547
-27.338
-31.729
-36.663
-41.971
-47.384
-52.511
-57.031
-60.731
-63.329
-64.458
-63.881
-61.641
-58.124
-54.075
-50.237
-47.024
-44.802
-44.158
-45.488
-48.674
-53.062
-57.261
-59.591
-58.932
-54.224
-43.871
-26.609
-1.81
30.515
68.992
111.492
156.161
200.452
240.491
272.222
291.615
295.003
279.958
244.785
188.205
110.216
14.223
-94.887
-213.131
-334.953
-457.577
-578.074
-686.473
-775.261
-836.87
-864.524
-863.232
-837.935
-793.197
-737.04
-670.724
-595.996
-517.504
-437.241
-359.265
-288.279
-226.49
-175.431
-135.772
-106.531
-86.084
-73.32
-66.789
-64.287
-63.908
-63.794
-62.156
-58.467
-52.957
-45.712
-37.184
-28.19
-19.405
-11.747
-6.178
-2.889
-1.661
-2.188
-3.937
-6.384
-9.104
-11.528
-13.083
-13.509
-12.736
-10.822
-7.957
-4.278
0.114
5.063
10.401
15.981
21.669
27.367
33.007
38.499
43.747
48.658
53.141
57.151
60.682
63.749
66.385
68.631
70.531
72.139
73.522
74.743
75.862
76.93
77.992
79.094
80.286
81.614
83.124
84.844
86.787
88.96
91.36
93.981
96.816
99.847
103.053
106.415
109.915
113.537
117.266
121.082
124.963
128.888
132.833
136.776
140.696
144.57
148.377
152.095
155.702
159.179
162.507
165.665
168.632
171.389
173.916
176.193
178.204
179.933
181.365
182.487
183.288
183.759
183.894
183.688
183.138
182.243
181.003
179.422
177.503
175.253
172.681
169.795
166.607
163.129
159.378
155.367
151.114
146.638
141.957
137.092
132.064
126.893
121.602
116.214
110.751
105.235
99.689
94.135
88.596
83.093
77.646
72.277
67.003
61.843
56.814
51.933
47.213
42.669
38.312
34.154
30.204
26.472
22.964
19.685
16.641
13.835
11.268
8.941
6.853
5.003
3.387
2.001
0.84
-0.103
-0.834
-1.363
-1.699
-1.85
-1.827
-1.642
-1.304
-0.827
-0.221
0.501
1.326
2.243
3.24
4.304
5.424
6.587
7.783
9
10.228
11.457
12.676
13.876
15.049
16.187
17.28
18.323
19.309
20.232
21.088
21.872
22.581
23.212
23.763
24.234
24.624
24.932
25.159
25.307
25.378
25.372
25.293
25.144
24.929
24.652
24.316
23.927
23.49
23.009
22.49
21.94
21.363
20.765
20.154
19.536
18.916
18.303
17.703
17.121
16.564
16.038
15.547
15.097
14.69
14.331
14.02
13.76
13.551
13.396
13.293
13.243
13.246
13.3
13.406
13.562
13.766
14.013
14.301
14.624
14.978
15.358
15.76
16.177
16.604
17.034
17.464
17.889
18.302
18.696
19.062
19.391
19.684
19.941
20.165
20.363
20.539
20.705
20.878
21.075
21.312
21.601
21.945
22.353
22.832
23.391
24.048
24.81
25.667
26.612
27.627
28.685
29.767
30.835
31.821
32.67
33.32
33.708
33.798
33.55
32.912
31.858
30.339
28.308
25.749
22.635
18.959
14.75
10.002
4.696
-1.064
-7.106
-13.163
-18.843
-23.834
-27.908
-30.758
-32.012
-31.44
-29.091
-25.347
-20.932
-16.57
-12.685
-9.692
-8.242
-8.769
-11.157
-14.76
-18.219
-19.911
-18.766
-13.671
-2.948
14.658
39.751
72.261
110.776
153.235
197.8
241.754
281.01
311.573
329.563
331.216
314.042
276.302
216.43
135.78
39.2
-69.725
-187.434
-311.089
-441.047
-570.299
-686.139
-777.149
-830.732
-844.84
-828.35
-789.339
-737.506
-678.192
-609.971
-534.352
-453.965
-372.138
-295.019
-226.804
-169.502
-124.328
-90.751
-67.219
-52.155
-43.916
-40.356
-39.4
-39.122
-37.611
-33.941
-28.155
-20.564
-11.698
-2.375
6.659
14.532
20.213
23.337
24.053
22.689
19.825
16.042
11.824
7.779
4.559
2.51
1.766
2.319
3.998
6.675
10.251
14.563
19.429
24.687
30.192
35.833
41.524
47.154
52.602
57.75
62.486
66.749
70.511
73.77
76.548
78.878
80.8
82.373
83.662
84.73
85.641
86.449
87.204
87.961
88.773
89.696
90.78
92.058
93.55
95.264
97.2
99.354
101.719
104.278
107.011
109.898
112.924
116.072
119.327
122.672
126.085
129.546
133.03
136.517
139.987
143.419
146.791
150.084
153.276
156.349
159.284
162.06
164.658
167.056
169.234
171.173
172.853
174.259
175.374
176.182
176.673
176.836
176.662
176.144
175.278
174.059
172.488
170.564
168.29
165.67
162.71
159.418
155.803
151.877
147.652
143.142
138.364
133.333
128.069
122.59
116.916
111.07
105.072
98.945
92.711
86.394
80.018
73.605
67.178
60.761
54.376
48.045
41.789
35.629
29.583
23.669
17.907
12.31
6.895
1.675
-3.337
-8.13
-12.695
-17.023
-21.106
-24.94
-28.519
-31.84
-34.903
-37.706
-40.251
-42.54
-44.576
-46.365
-47.912
-49.223
-50.308
-51.173
-51.829
-52.287
-52.557
-52.65
-52.579
-52.356
-51.994
-51.505
-50.904
-50.203
-49.415
-48.554
-47.631
-46.659
-45.652
-44.619
-43.574
-42.527
-41.487
-40.466
-39.471
-38.512
-37.596
-36.729
-35.918
-35.167
-34.48
-33.862
-33.314
-32.838
-32.437
-32.109
-31.856
-31.676
-31.567
-31.527
-31.554
-31.643
-31.79
-31.991
-32.24
-32.532
-32.86
-33.219
-33.601
-34.001
-34.409
-34.82
-35.226
-35.62
-35.993
-36.339
-36.652
-36.924
-37.15
-37.326
-37.446
-37.509
-37.511
-37.452
-37.328
-37.14
-36.888
-36.57
-36.189
-35.746
-35.24
-34.674
-34.051
-33.375
-32.653
-31.888
-31.087
-30.255
-29.399
-28.525
-27.643
-26.759
-25.877
-25.003
-24.143
-23.305
-22.502
-21.739
-21.018
-20.338
-19.697
-19.094
-18.526
-17.98
-17.438
-16.883
-16.297
-15.671
-15.004
-14.288
-13.518
-12.683
-11.769
-10.774
-9.709
-8.584
-7.412
-6.205
-4.985
-3.794
-2.699
-1.764
-1.058
-0.636
-0.534
-0.799
-1.463
-2.568
-4.168
-6.294
-8.972
-12.219
-16.032
-20.433
-25.473
-31.095
-37.121
-43.28
-49.178
-54.468
-58.923
-62.255
-64.079
-64.159
-62.533
-59.58
-56.048
-52.664
-49.81
-47.827
-47.271
-48.519
-51.455
-55.423
-59.024
-60.616
-59.137
-53.604
-42.501
-24.586
0.795
33.674
72.711
115.806
161.176
206.396
247.707
281.079
302.439
308.002
295.224
262.355
207.993
131.924
37.402
-70.791
-188.765
-310.904
-434.456
-556.57
-667.032
-758.054
-821.735
-850.923
-850.653
-825.975
-781.529
-725.483
-659.078
-584.078
-505.263
-424.723
-346.658
-275.846
-214.487
-164.069
-125.163
-96.671
-76.86
-64.517
-58.122
-55.448
-54.611
-53.825
-51.417
-46.962
-40.78
-33.032
-24.217
-15.187
-6.62
0.598
5.571
8.162
8.633
7.32
4.775
1.545
-1.927
-5.065
-7.299
-8.373
-8.213
-6.867
-4.515
-1.282
2.733
7.375
12.48
17.898
23.495
29.167
34.836
40.403
45.764
50.816
55.46
59.646
63.361
66.611
69.428
71.846
73.905
75.662
77.178
78.517
79.736
80.887
82.014
83.166
84.391
85.735
87.246
88.95
90.86
92.981
95.311
97.844
100.569
103.47
106.526
109.716
113.023
116.431
119.924
123.485
127.092
130.725
134.36
137.978
141.558
145.08
148.524
151.871
155.101
158.195
161.138
163.911
166.494
168.869
171.019
172.926
174.575
175.952
177.041
177.833
178.318
178.487
178.335
177.858
177.053
175.919
174.456
172.668
170.557
168.131
165.395
162.359
159.033
155.428
151.557
147.434
143.075
138.495
133.712
128.745
123.611
118.331
112.924
107.411
101.812
96.148
90.439
84.706
78.97
73.249
67.563
61.932
56.373
50.902
45.537
40.292
35.181
30.219
25.417
20.786
16.337
12.078
8.017
4.161
0.516
-2.914
-6.126
-9.118
-11.889
-14.439
-16.77
-18.883
-20.783
-22.474
-23.961
-25.25
-26.349
-27.266
-28.008
-28.584
-29.005
-29.28
-29.418
-29.432
-29.331
-29.127
-28.83
-28.451
-28.002
-27.493
-26.935
-26.339
-25.715
-25.072
-24.421
-23.77
-23.13
-22.507
-21.91
-21.346
-20.822
-20.345
-19.918
-19.547
-19.235
-18.986
-18.801
-18.683
-18.63
-18.645
-18.726
-18.873
-19.084
-19.356
-19.687
-20.074
-20.514
-21.001
-21.531
-22.1
-22.702
-23.331
-23.981
-24.646
-25.319
-25.995
-26.665
-27.324
-27.963
-28.577
-29.157
-29.697
-30.19
-30.631
-31.013
-31.332
-31.584
-31.766
-31.875
-31.911
-31.873
-31.76
-31.573
-31.313
-30.98
-30.578
-30.108
-29.572
-28.973
-28.316
-27.606
-26.849
-26.052
-25.221
-24.362
-23.482
-22.589
-21.691
-20.796
-19.909
-19.036
-18.186
-17.368
-16.592
-15.866
-15.192
-14.567
-13.991
-13.459
-12.966
-12.501
-12.044
-11.579
-11.091
-10.566
-10.002
-9.389
-8.717
-7.975
-7.148
-6.232
-5.237
-4.175
-3.058
-1.903
-0.732
0.414
1.468
2.371
3.066
3.493
3.611
3.369
2.719
1.632
0.071
-1.993
-4.573
-7.685
-11.348
-15.55
-20.297
-25.61
-31.361
-37.344
-43.272
-48.732
-53.374
-56.964
-59.151
-59.514
-57.958
-54.675
-50.179
-45.378
-40.931
-37.125
-34.486
-33.731
-35.042
-38.113
-41.941
-44.745
-45.146
-42.317
-34.985
-21.496
-0.79
27.579
62.959
103.394
146.963
191.727
234.597
271.385
297.922
310.221
304.835
279.7
233.35
164.832
76.57
-27.027
-142.671
-264.966
-390.557
-516.619
-632.908
-731.166
-803.084
-840.718
-848.216
-830.313
-791.775
-740.478
-677.375
-603.994
-524.796
-442.412
-361.716
-287.653
-222.601
-168.365
-125.755
-94.147
-72.27
-58.645
-51.522
-48.695
-48.131
-47.955
-46.362
-42.577
-36.665
-28.862
-19.716
-10.075
-0.682
7.573
13.717
17.457
18.957
18.544
16.778
14.221
11.336
8.694
6.895
6.236
6.814
8.592
11.39
15.07
19.531
24.616
30.154
35.994
42.001
48.066
54.112
60.037
65.732
71.095
76.026
80.473
84.418
87.868
90.856
93.416
95.594
97.445
99.032
100.418
101.662
102.82
103.938
105.065
106.253
107.552
109.009
110.656
112.508
114.573
116.85
119.333
122.015
124.881
127.91
131.084
134.386
137.801
141.315
144.91
148.567
152.262
155.976
159.685
163.372
167.014
170.59
174.081
177.466
180.724
183.839
186.79
189.557
192.12
194.458
196.554
198.388
199.946
201.211
202.169
202.809
203.122
203.099
202.734
202.023
200.963
199.553
197.795
195.692
193.247
190.468
187.362
183.939
180.21
176.188
171.887
167.323
162.512
157.472
152.223
146.783
141.175
135.418
129.535
123.548
117.479
111.351
105.185
99.005
92.832
86.688
80.593
74.568
68.631
62.802
57.097
51.533
46.125
40.887
35.833
30.974
26.321
21.882
17.667
13.682
9.932
6.422
3.154
0.13
-2.649
-5.184
-7.478
-9.534
-11.356
-12.949
-14.32
-15.476
-16.425
-17.177
-17.74
-18.126
-18.344
-18.406
-18.323
-18.108
-17.772
-17.327
-16.785
-16.159
-15.461
-14.702
-13.895
-13.051
-12.181
-11.296
-10.406
-9.522
-8.652
-7.806
-6.992
-6.219
-5.492
-4.819
-4.205
-3.655
-3.174
-2.763
-2.426
-2.165
-1.979
-1.871
-1.839
-1.882
-2
-2.189
-2.447
-2.772
-3.158
-3.602
-4.099
-4.644
-5.231
-5.854
-6.508
-7.185
-7.879
-8.584
-9.291
-9.994
-10.685
-11.356
-12.002
-12.613
-13.183
-13.706
-14.177
-14.589
-14.938
-15.22
-15.434
-15.576
-15.646
-15.643
-15.565
-15.414
-15.191
-14.896
-14.531
-14.097
-13.598
-13.037
-12.419
-11.749
-11.033
-10.277
-9.488
-8.671
-7.833
-6.983
-6.127
-5.273
-4.426
-3.593
-2.784
-2.009
-1.277
-0.591
0.051
0.651
1.213
1.741
2.244
2.739
3.24
3.762
4.316
4.906
5.539
6.22
6.963
7.783
8.686
9.669
10.715
11.809
12.933
14.066
15.167
16.176
17.031
17.672
18.046
18.113
17.827
17.151
16.048
14.477
12.403
9.803
6.666
2.981
-1.231
-5.97
-11.247
-16.941
-22.845
-28.673
-34.015
-38.523
-41.969
-44.026
-44.296
-42.722
-39.454
-34.928
-30.108
-25.697
-22.066
-19.863
-19.679
-21.508
-25.086
-29.489
-32.797
-33.56
-30.638
-22.302
-7.209
15.329
45.656
82.817
124.575
168.855
213.007
253.12
285.301
305.539
309.977
296.241
262.811
208.6
134.191
42.033
-64.131
-178.982
-296.691
-411.853
-518.497
-610.849
-684.414
-735.898
-764.011
-769.469
-753.57
-718.338
-667.366
-604.728
-534.817
-462.32
-390.542
-321.881
-259.024
-203.968
-157.735
-120.952
-93.03
-72.453
-58.294
-49.526
-44.412
-41.451
-39.121
-35.878
-31.26
-25.46
-18.515
-10.742
-2.773
4.877
11.424
16.008
18.444
18.912
17.7
15.306
12.21
8.815
5.654
3.28
1.971
1.823
2.803
4.748
7.541
11.09
15.259
19.896
24.864
30.04
35.321
40.628
45.871
50.944
55.749
60.19
64.212
67.798
70.958
73.721
76.123
78.205
80.018
81.619
83.067
84.416
85.716
87.008
88.338
89.749
91.289
93.001
94.912
97.035
99.374
101.924
104.676
107.62
110.738
114.006
117.404
120.911
124.51
128.185
131.915
135.679
139.452
143.211
146.932
150.595
154.177
157.657
161.012
164.223
167.27
170.134
172.797
175.238
177.44
179.383
181.05
182.426
183.496
184.248
184.67
184.752
184.489
183.876
182.909
181.587
179.912
177.885
175.511
172.798
169.751
166.382
162.701
158.721
154.457
149.924
145.139
140.121
134.888
129.462
123.863
118.112
112.233
106.247
100.176
94.046
87.877
81.693
75.516
69.368
63.271
57.245
51.312
45.488
39.793
34.244
28.855
23.642
18.617
13.793
9.181
4.789
0.625
-3.302
-6.99
-10.432
-13.627
-16.574
-19.272
-21.722
-23.928
-25.893
-27.621
-29.118
-30.392
-31.449
-32.298
-32.949
-33.411
-33.695
-33.813
-33.775
-33.594
-33.283
-32.853
-32.318
-31.689
-30.98
-30.202
-29.368
-28.491
-27.58
-26.649
-25.707
-24.764
-23.831
-22.915
-22.026
-21.171
-20.356
-19.587
-18.869
-18.207
-17.604
-17.063
-16.585
-16.173
-15.826
-15.545
-15.328
-15.175
-15.082
-15.048
-15.069
-15.141
-15.259
-15.419
-15.616
-15.844
-16.097
-16.37
-16.655
-16.946
-17.238
-17.522
-17.794
-18.046
-18.272
-18.468
-18.629
-18.749
-18.826
-18.857
-18.839
-18.773
-18.656
-18.49
-18.275
-18.011
-17.701
-17.345
-16.948
-16.51
-16.035
-15.527
-14.991
-14.432
-13.857
-13.27
-12.677
-12.084
-11.498
-10.927
-10.378
-9.855
-9.36
-8.901
-8.483
-8.117
-7.808
-7.555
-7.354
-7.204
-7.099
-7.034
-6.999
-6.971
-6.933
-6.868
-6.762
-6.613
-6.417
-6.162
-5.834
-5.419
-4.907
-4.312
-3.647
-2.916
-2.134
-1.323
-0.522
0.2
0.775
1.146
1.265
1.097
0.616
-0.215
-1.434
-3.083
-5.198
-7.791
-10.872
-14.443
-18.517
-23.133
-28.204
-33.515
-38.781
-43.608
-47.659
-50.739
-52.554
-52.722
-51.195
-48.125
-43.93
-39.536
-35.603
-32.432
-30.606
-30.647
-32.514
-35.955
-40.069
-42.992
-43.352
-40.108
-31.659
-16.762
5.206
34.575
70.387
110.409
152.634
194.596
232.673
263.273
282.708
287.358
275.067
244.66
195.225
127.274
43.009
-54.376
-160.23
-269.201
-376.436
-476.826
-565.207
-637.494
-690.637
-722.849
-734.229
-725.784
-698.982
-656.529
-601.833
-538.544
-470.75
-402.083
-335.256
-272.922
-217.362
-169.991
-131.739
-102.604
-81.513
-67.287
-58.74
-54.188
-51.994
-50.602
-48.411
-44.658
-39.348
-32.617
-24.837
-16.654
-8.645
-1.553
3.751
6.974
8.23
7.773
6.073
3.609
0.775
-1.921
-3.927
-4.958
-4.907
-3.789
-1.752
1.092
4.66
8.819
13.419
18.328
23.43
28.631
33.868
39.051
44.086
48.876
53.328
57.391
61.046
64.298
67.171
69.697
71.912
73.866
75.616
77.216
78.72
80.173
81.614
83.088
84.639
86.311
88.15
90.183
92.423
94.878
97.544
100.414
103.48
106.725
110.127
113.665
117.321
121.077
124.917
128.822
132.77
136.738
140.701
144.637
148.524
152.339
156.06
159.666
163.135
166.448
169.585
172.528
175.256
177.75
179.99
181.959
183.641
185.02
186.082
186.816
187.211
187.259
186.955
186.295
185.277
183.9
182.167
180.079
177.644
174.868
171.759
168.328
164.587
160.55
156.231
151.648
146.816
141.755
136.486
131.027
125.401
119.628
113.732
107.735
101.659
95.528
89.363
83.188
77.023
70.892
64.814
58.81
52.9
47.102
41.433
35.909
30.546
25.357
20.356
15.553
10.959
6.583
2.434
-1.484
-5.164
-8.602
-11.796
-14.745
-17.448
-19.907
-22.123
-24.101
-25.843
-27.356
-28.646
-29.72
-30.586
-31.252
-31.728
-32.023
-32.148
-32.114
-31.931
-31.611
-31.166
-30.607
-29.946
-29.194
-28.364
-27.466
-26.513
-25.514
-24.481
-23.424
-22.354
-21.279
-20.209
-19.153
-18.119
-17.114
-16.144
-15.217
-14.338
-13.51
-12.739
-12.028
-11.378
-10.793
-10.273
-9.82
-9.433
-9.112
-8.857
-8.664
-8.534
-8.462
-8.446
-8.482
-8.567
-8.695
-8.863
-9.065
-9.296
-9.551
-9.823
-10.108
-10.398
-10.688
-10.971
-11.241
-11.492
-11.719
-11.915
-12.078
-12.201
-12.281
-12.315
-12.302
-12.24
-12.128
-11.964
-11.75
-11.486
-11.173
-10.811
-10.404
-9.952
-9.457
-8.924
-8.356
-7.758
-7.136
-6.494
-5.838
-5.173
-4.505
-3.843
-3.193
-2.557
-1.942
-1.351
-0.793
-0.276
0.194
0.618
0.995
1.331
1.628
1.891
2.131
2.365
2.613
2.891
3.21
3.575
3.991
4.465
5.012
5.646
6.371
7.184
8.071
9.02
10.019
11.05
12.071
13.023
13.839
14.451
14.814
14.891
14.644
14.047
13.053
11.608
9.679
7.237
4.27
0.787
-3.234
-7.841
-12.965
-18.428
-23.958
-29.162
-33.719
-37.422
-39.995
-41.09
-40.505
-38.306
-34.878
-30.949
-27.22
-24.073
-21.872
-21.159
-22.244
-24.952
-28.599
-31.824
-33.065
-31.265
-25.363
-13.869
4.288
29.575
61.794
99.5
140.667
183.414
225.104
262.016
290.419
306.55
307.109
290.18
254.323
198.591
123.753
32.311
-71.957
-183.923
-298.185
-409.678
-512.649
-601.582
-672.208
-721.47
-748.25
-753.126
-737.13
-702.069
-651.333
-588.99
-519.477
-447.327
-375.753
-307.373
-245.072
-191.121
-146.81
-112.445
-87.073
-69.152
-57.634
-51.219
-48.014
-46.126
-43.656
-39.481
-33.564
-26.212
-17.69
-8.467
0.794
9.244
15.793
19.893
21.637
21.314
19.412
16.427
12.784
9.039
5.851
3.635
2.563
2.667
3.806
5.858
8.753
12.363
16.539
21.147
26.056
31.166
36.396
41.653
46.831
51.829
56.54
60.879
64.798
68.278
71.33
73.986
76.276
78.242
79.933
81.404
82.713
83.913
85.052
86.169
87.311
88.521
89.846
91.327
92.988
94.843
96.892
99.132
101.555
104.152
106.905
109.792
112.792
115.889
119.065
122.306
125.592
128.903
132.217
135.513
138.768
141.965
145.082
148.1
151
153.762
156.369
158.806
161.054
163.096
164.915
166.495
167.819
168.874
169.647
170.126
170.3
170.162
169.706
168.928
167.825
166.395
164.64
162.563
160.166
157.457
154.442
151.13
147.53
143.655
139.517
135.13
130.51
125.672
120.633
115.412
110.027
104.496
98.841
93.08
87.233
81.321
75.364
69.381
63.393
57.418
51.476
45.586
39.764
34.028
28.393
22.874
17.486
12.242
7.152
2.229
-2.519
-7.082
-11.453
-15.626
-19.595
-23.355
-26.904
-30.239
-33.36
-36.266
-38.958
-41.438
-43.709
-45.775
-47.639
-49.307
-50.784
-52.078
-53.194
-54.141
-54.927
-55.559
-56.049
-56.403
-56.632
-56.745
-56.752
-56.663
-56.487
-56.233
-55.911
-55.531
-55.102
-54.632
-54.13
-53.605
-53.065
-52.517
-51.97
-51.429
-50.901
-50.394
-49.912
-49.461
-49.047
-48.673
-48.345
-48.065
-47.838
-47.666
-47.551
-47.495
-47.499
-47.563
-47.687
-47.871
-48.114
-48.415
-48.772
-49.182
-49.644
-50.154
-50.709
-51.306
-51.94
-52.607
-53.304
-54.024
-54.762
-55.515
-56.275
-57.039
-57.799
-58.551
-59.288
-60.003
-60.692
-61.348
-61.964
-62.537
-63.059
-63.527
-63.936
-64.283
-64.565
-64.78
-64.928
-65.008
-65.02
-64.964
-64.841
-64.654
-64.404
-64.094
-63.726
-63.302
-62.829
-62.309
-61.751
-61.159
-60.54
-59.901
-59.247
-58.588
-57.931
-57.283
-56.649
-56.036
-55.447
-54.893
-54.384
-53.926
-53.521
-53.167
-52.861
-52.6
-52.379
-52.188
-52.007
-51.817
-51.599
-51.344
-51.046
-50.7
-50.298
-49.825
-49.265
-48.614
-47.877
-47.068
-46.199
-45.283
-44.338
-43.41
-42.563
-41.866
-41.389
-41.18
-41.275
-41.717
-42.535
-43.777
-45.495
-47.72
-50.479
-53.786
-57.632
-62.037
-67.045
-72.58
-78.451
-84.372
-89.934
-94.789
-98.701
-101.36
-102.379
-101.545
-98.934
-94.959
-90.397
-86.009
-82.246
-79.551
-78.564
-79.657
-82.645
-86.775
-90.577
-92.325
-90.774
-84.677
-72.333
-52.45
-24.501
11.267
53.32
99.294
146.856
192.989
233.501
264.098
280.693
279.693
258.861
217.029
153.749
70.112
-30.808
-144.557
-265.59
-387.767
-505.105
-611.759
-702.306
-772.344
-819.069
-841.529
-840.221
-816.881
-774.295
-716.138
-646.79
-571.126
-493.731
-418.264
-347.991
-285.515
-232.598
-190.333
-158.631
-136.23
-121.527
-112.947
-108.546
-106.435
-104.827
-101.945
-96.974
-89.981
-81.279
-71.388
-61.047
-50.957
-41.971
-35.077
-30.645
-28.545
-28.464
-29.869
-32.237
-35.129
-37.995
-40.223
-41.452
-41.534
-40.46
-38.369
-35.378
-31.567
-27.062
-22.019
-16.575
-10.86
-4.982
0.983
6.95
12.818
18.492
23.875
28.886
33.485
37.665
41.436
44.828
47.876
50.62
53.113
55.418
57.594
59.697
61.775
63.87
66.028
68.294
70.713
73.327
76.159
79.22
82.513
86.035
89.78
93.736
97.888
102.211
106.686
111.293
116.015
120.836
125.734
130.686
135.67
140.66
145.634
150.57
155.445
160.235
164.918
169.473
173.879
178.115
182.162
185.998
189.603
192.957
196.04
198.837
201.33
203.506
205.351
206.854
208.009
208.807
209.245
209.32
209.032
208.38
207.37
206.005
204.292
202.24
199.859
197.16
194.158
190.866
187.302
183.482
179.425
175.15
170.678
166.031
161.228
156.294
151.249
146.117
140.921
135.682
130.424
125.168
119.936
114.748
109.625
104.585
99.646
94.825
90.139
85.601
81.224
77.022
73.005
69.181
65.56
62.148
58.951
55.972
53.214
50.68
48.369
46.28
44.412
42.761
41.322
40.091
39.061
38.226
37.576
37.105
36.802
36.657
36.661
36.803
37.072
37.456
37.946
38.529
39.195
39.933
40.731
41.58
42.469
43.389
44.331
45.285
46.243
47.199
48.143
49.07
49.974
50.85
51.691
52.495
53.257
53.974
54.644
55.264
55.833
56.35
56.814
57.225
57.583
57.888
58.141
58.342
58.493
58.595
58.65
58.658
58.622
58.543
58.422
58.262
58.062
57.826
57.553
57.247
56.907
56.535
56.133
55.702
55.243
54.759
54.249
53.716
53.161
52.585
51.99
51.376
50.746
50.1
49.441
48.77
48.089
47.401
46.707
46.01
45.313
44.618
43.928
43.246
42.576
41.922
41.286
40.674
40.089
39.535
39.017
38.537
38.1
37.709
37.366
37.074
36.833
36.645
36.509
36.426
36.395
36.417
36.491
36.614
36.787
37.007
37.273
37.582
37.928
38.308
38.715
39.146
39.596
40.057
40.526
40.994
41.455
41.906
42.34
42.752
43.134
43.475
43.768
44.014
44.212
44.367
44.483
44.566
44.626
44.682
44.751
44.846
44.981
45.16
45.391
45.684
46.051
46.509
47.063
47.707
48.43
49.221
50.06
50.925
51.779
52.557
53.201
53.656
53.859
53.771
53.34
52.52
51.278
49.576
47.375
44.656
41.403
37.594
33.248
28.365
22.918
17.025
10.887
4.775
-0.882
-5.718
-9.498
-11.865
-12.4
-11.033
-7.906
-3.471
1.296
5.686
9.331
11.585
11.845
10.091
6.596
2.335
-0.743
-1.154
2.197
10.928
26.418
49.363
80.131
117.895
160.442
205.703
251.256
293.481
328.505
352.56
361.873
353.398
325.326
276.352
206.097
117.46
14.654
-99.156
-218.779
-341.078
-463.153
-575.137
-669.351
-738.133
-774.025
-780.95
-763.341
-725.683
-675.662
-614.486
-543.792
-467.942
-389.499
-313.126
-243.616
-183.244
-133.557
-95.102
-67.068
-48.069
-36.622
-30.976
-28.931
-28.537
-28.103
-26.082
-21.925
-15.824
-8.085
0.707
9.683
18.11
25.176
30.048
32.54
32.869
31.381
28.629
25.162
21.438
18
15.395
13.889
13.567
14.396
16.214
18.902
22.366
26.463
31.034
35.941
41.056
46.277
51.527
56.705
61.708
66.431
70.778
74.694
78.159
81.178
83.777
85.991
87.857
89.43
90.77
91.937
92.988
93.976
94.942
95.935
97.003
98.194
99.553
101.111
102.881
104.87
107.074
109.489
112.104
114.902
117.862
120.963
124.187
127.515
130.933
134.421
137.957
141.519
145.083
148.625
152.127
155.564
158.916
162.162
165.279
168.25
171.054
173.674
176.088
178.276
180.221
181.902
183.305
184.413
185.212
185.69
185.836
185.643
185.104
184.215
182.975
181.381
179.436
177.142
174.505
171.532
168.23
164.61
160.684
156.464
151.966
147.204
142.197
136.963
131.52
125.889
120.092
114.148
108.08
101.91
95.661
89.355
83.014
76.661
70.317
64.003
57.74
51.548
45.446
39.452
33.582
27.853
22.278
16.873
11.647
6.614
1.781
-2.842
-7.248
-11.432
-15.388
-19.114
-22.608
-25.869
-28.896
-31.693
-34.261
-36.604
-38.726
-40.634
-42.333
-43.831
-45.136
-46.256
-47.2
-47.978
-48.599
-49.075
-49.415
-49.63
-49.73
-49.726
-49.628
-49.447
-49.193
-48.876
-48.504
-48.087
-47.634
-47.152
-46.65
-46.134
-45.611
-45.087
-44.568
-44.059
-43.564
-43.086
-42.629
-42.197
-41.79
-41.411
-41.061
-40.741
-40.452
-40.194
-39.965
-39.767
-39.598
-39.456
-39.342
-39.253
-39.187
-39.144
-39.122
-39.119
-39.133
-39.163
-39.207
-39.265
-39.333
-39.412
-39.5
-39.595
-39.698
-39.807
-39.922
-40.043
-40.169
-40.301
-40.438
-40.581
-40.731
-40.888
-41.053
-41.227
-41.41
-41.603
-41.808
-42.025
-42.256
-42.501
-42.761
-43.037
-43.33
-43.64
-43.966
-44.31
-44.67
-45.047
-45.439
-45.846
-46.266
-46.698
-47.142
-47.595
-48.055
-48.522
-48.991
-49.461
-49.928
-50.391
-50.845
-51.288
-51.715
-52.123
-52.509
-52.869
-53.199
-53.494
-53.751
-53.966
-54.135
-54.253
-54.318
-54.327
-54.277
-54.166
-53.992
-53.756
-53.456
-53.095
-52.674
-52.193
-51.655
-51.063
-50.418
-49.725
-48.986
-48.204
-47.383
-46.529
-45.645
-44.739
-43.816
-42.882
-41.943
-41.005
-40.076
-39.162
-38.272
-37.406
-36.571
-35.771
-35.013
-34.305
-33.653
-33.056
-32.512
-32.018
-31.568
-31.159
-30.778
-30.405
-30.018
-29.601
-29.138
-28.624
-28.054
-27.416
-26.699
-25.888
-24.976
-23.973
-22.889
-21.728
-20.508
-19.248
-17.989
-16.799
-15.75
-14.912
-14.348
-14.105
-14.225
-14.743
-15.703
-17.152
-19.132
-21.666
-24.778
-28.47
-32.758
-37.7
-43.209
-49.069
-54.974
-60.459
-65.125
-68.734
-70.937
-71.307
-69.785
-66.529
-62.006
-57.251
-53.012
-49.65
-47.814
-48.067
-50.337
-54.3
-58.921
-62.127
-62.387
-58.525
-48.764
-31.724
-6.722
26.586
67.142
112.504
160.489
208.397
252.219
287.933
311.357
318.415
306.627
274.479
220.771
145.896
52.15
-56.808
-175.624
-298.303
-419.307
-532.516
-631.806
-712.167
-769.787
-802.905
-811.809
-797.521
-761.839
-708.265
-641.219
-565.691
-486.947
-408.883
-334.599
-267.353
-209.724
-163.174
-128.012
-103.095
-86.497
-76.796
-72.37
-71.01
-70.572
-68.985
-65.038
-58.74
-50.539
-40.844
-30.26
-19.611
-9.863
-2.196
2.796
5.221
5.412
3.893
1.204
-2.186
-5.681
-8.59
-10.479
-11.18
-10.668
-9.092
-6.581
-3.207
0.894
5.563
10.659
16.046
21.618
27.296
32.981
38.564
43.938
48.994
53.644
57.84
61.563
64.824
67.651
70.077
72.147
73.911
75.43
76.765
77.974
79.106
80.208
81.328
82.516
83.821
85.287
86.942
88.8
90.867
93.14
95.617
98.287
101.137
104.147
107.297
110.572
113.956
117.436
120.993
124.607
128.257
131.922
135.58
139.213
142.8
146.319
149.752
153.078
156.278
159.334
162.227
164.938
167.446
169.733
171.782
173.574
175.095
176.33
177.266
177.892
178.2
178.182
177.833
177.151
176.132
174.777
173.088
171.069
168.724
166.061
163.087
159.814
156.252
152.416
148.318
143.975
139.403
134.62
129.646
124.499
119.199
113.767
108.224
102.592
96.891
91.143
85.369
79.59
73.828
68.101
62.431
56.834
51.33
45.935
40.664
35.533
30.556
25.744
21.109
16.662
12.412
8.365
4.53
0.911
-2.488
-5.664
-8.615
-11.341
-13.842
-16.121
-18.18
-20.023
-21.655
-23.081
-24.309
-25.345
-26.197
-26.874
-27.385
-27.74
-27.948
-28.02
-27.966
-27.798
-27.525
-27.159
-26.709
-26.187
-25.603
-24.966
-24.287
-23.574
-22.837
-22.084
-21.323
-20.561
-19.805
-19.062
-18.337
-17.636
-16.962
-16.321
-15.715
-15.148
-14.621
-14.137
-13.698
-13.303
-12.953
-12.648
-12.389
-12.173
-12
-11.868
-11.776
-11.722
-11.703
-11.718
-11.764
-11.838
-11.937
-12.06
-12.203
-12.364
-12.541
-12.73
-12.93
-13.139
-13.354
-13.575
-13.799
-14.025
-14.253
-14.481
-14.708
-14.935
-15.16
-15.384
-15.606
-15.827
-16.047
-16.267
-16.487
-16.709
-16.933
-17.161
-17.393
-17.631
-17.876
-18.129
-18.392
-18.666
-18.953
-19.254
-19.57
-19.902
-20.251
-20.618
-21.004
-21.408
-21.83
-22.269
-22.726
-23.198
-23.685
-24.186
-24.698
-25.22
-25.75
-26.285
-26.822
-27.359
-27.892
-28.418
-28.933
-29.434
-29.916
-30.375
-30.808
-31.21
-31.577
-31.904
-32.186
-32.419
-32.598
-32.719
-32.777
-32.769
-32.691
-32.541
-32.316
-32.015
-31.638
-31.185
-30.657
-30.055
-29.381
-28.637
-27.826
-26.95
-26.012
-25.017
-23.968
-22.87
-21.73
-20.556
-19.353
-18.129
-16.892
-15.648
-14.405
-13.172
-11.956
-10.764
-9.601
-8.475
-7.396
-6.374
-5.416
-4.524
-3.695
-2.929
-2.22
-1.565
-0.951
-0.36
0.225
0.817
1.428
2.062
2.728
3.437
4.198
5.027
5.93
6.899
7.925
8.997
10.102
11.22
12.313
13.319
14.184
14.856
15.28
15.418
15.226
14.658
13.689
12.286
10.418
8.073
5.233
1.877
-1.982
-6.356
-11.264
-16.591
-22.141
-27.642
-32.697
-36.976
-40.257
-42.205
-42.42
-40.808
-37.548
-33.136
-28.439
-24.091
-20.376
-17.795
-17.024
-18.244
-21.152
-24.779
-27.412
-27.695
-24.792
-17.482
-4.196
16.099
43.814
78.295
117.646
159.941
203.223
244.55
279.986
305.433
316.986
311.579
287.363
243.009
178.074
93.789
-6.741
-118.92
-237.252
-355.873
-468.903
-570.477
-655.313
-719.26
-759.841
-776.459
-769.755
-741.563
-694.917
-633.682
-562.335
-485.729
-408.237
-333.355
-264.295
-203.539
-152.602
-112.335
-82.452
-61.585
-48.18
-40.656
-37.004
-35.358
-34.037
-31.432
-26.861
-20.447
-12.476
-3.457
5.83
14.691
22.325
27.852
31.013
31.984
31.079
28.824
25.752
22.309
19.043
16.531
15.065
14.749
15.567
17.364
20.027
23.468
27.548
32.106
37.005
42.117
47.346
52.617
57.835
62.893
67.687
72.115
76.122
79.686
82.81
85.518
87.843
89.824
91.514
92.975
94.266
95.446
96.566
97.668
98.802
100.017
101.362
102.886
104.618
106.576
108.765
111.185
113.831
116.692
119.753
122.991
126.386
129.92
133.574
137.333
141.177
145.085
149.033
152.996
156.953
160.88
164.757
168.56
172.267
175.858
179.312
182.61
185.733
188.659
191.369
193.842
196.06
198.006
199.663
201.017
202.053
202.762
203.134
203.162
202.84
202.166
201.138
199.755
198.02
195.935
193.508
190.745
187.653
184.245
180.53
176.523
172.239
167.692
162.901
157.882
152.656
147.24
141.657
135.927
130.07
124.109
118.065
111.959
105.813
99.648
93.486
87.346
81.249
75.213
69.256
63.396
57.649
52.03
46.554
41.233
36.08
31.107
26.321
21.733
17.351
13.179
9.223
5.488
1.975
-1.313
-4.376
-7.216
-9.833
-12.231
-14.413
-16.385
-18.151
-19.719
-21.095
-22.287
-23.303
-24.152
-24.843
-25.387
-25.792
-26.069
-26.229
-26.281
-26.235
-26.103
-25.894
-25.618
-25.285
-24.905
-24.486
-24.038
-23.569
-23.086
-22.598
-22.111
-21.631
-21.165
-20.718
-20.294
-19.898
-19.533
-19.201
-18.906
-18.649
-18.431
-18.253
-18.117
-18.021
-17.965
-17.948
-17.97
-18.029
-18.124
-18.251
-18.411
-18.599
-18.814
-19.053
-19.315
-19.595
-19.893
-20.205
-20.529
-20.862
-21.202
-21.548
-21.897
-22.247
-22.597
-22.947
-23.294
-23.639
-23.981
-24.319
-24.655
-24.987
-25.317
-25.645
-25.972
-26.299
-26.627
-26.957
-27.291
-27.63
-27.975
-28.326
-28.686
-29.054
-29.431
-29.817
-30.214
-30.621
-31.037
-31.464
-31.901
-32.348
-32.803
-33.266
-33.735
-34.21
-34.688
-35.166
-35.644
-36.117
-36.583
-37.039
-37.481
-37.907
-38.311
-38.69
-39.039
-39.356
-39.634
-39.87
-40.06
-40.201
-40.288
-40.321
-40.296
-40.211
-40.067
-39.864
-39.601
-39.279
-38.9
-38.465
-37.975
-37.433
-36.841
-36.201
-35.516
-34.79
-34.028
-33.234
-32.415
-31.575
-30.72
-29.856
-28.988
-28.126
-27.274
-26.437
-25.618
-24.823
-24.058
-23.335
-22.658
-22.026
-21.437
-20.888
-20.374
-19.891
-19.428
-18.963
-18.479
-17.958
-17.387
-16.765
-16.088
-15.342
-14.518
-13.599
-12.579
-11.471
-10.289
-9.039
-7.739
-6.41
-5.094
-3.861
-2.783
-1.917
-1.313
-1.012
-1.043
-1.445
-2.26
-3.527
-5.282
-7.532
-10.288
-13.548
-17.323
-21.646
-26.427
-31.457
-36.448
-41.011
-44.8
-47.603
-49.113
-48.937
-47.01
-43.471
-38.727
-33.693
-29.05
-25.146
-22.6
-21.974
-23.255
-26.209
-29.969
-32.698
-33.004
-29.779
-21.351
-6.426
15.645
45.186
81.26
121.689
164.457
207.004
245.586
276.493
295.928
300.275
287.368
255.876
204.847
134.86
48.215
-51.581
-159.552
-270.273
-378.768
-479.552
-567.28
-637.714
-687.679
-715.858
-722.826
-709.692
-678.212
-631.595
-573.547
-508.172
-439.951
-372.093
-306.942
-247.112
-194.593
-150.471
-115.44
-88.992
-69.66
-56.504
-48.507
-43.987
-41.48
-39.5
-36.544
-32.15
-26.52
-19.719
-12.075
-4.209
3.369
9.903
14.562
17.16
17.867
16.957
14.903
12.169
9.136
6.315
4.236
3.161
3.186
4.281
6.294
9.114
12.657
16.794
21.381
26.288
31.402
36.624
41.886
47.097
52.162
56.984
61.471
65.57
69.263
72.557
75.478
78.057
80.333
82.353
84.171
85.842
87.418
88.945
90.461
92.009
93.633
95.375
97.278
99.369
101.66
104.155
106.849
109.737
112.807
116.043
119.423
122.926
126.534
130.229
133.996
137.816
141.667
145.526
149.37
153.178
156.927
160.597
164.166
167.612
170.917
174.06
177.024
179.79
182.339
184.651
186.708
188.493
189.992
191.189
192.07
192.625
192.845
192.723
192.253
191.432
190.258
188.733
186.858
184.637
182.077
179.184
175.968
172.439
168.61
164.494
160.108
155.467
150.589
145.492
140.197
134.724
129.095
123.33
117.452
111.484
105.448
99.366
93.262
87.157
81.072
75.03
69.051
63.154
57.359
51.682
46.142
40.752
35.528
30.483
25.628
20.975
16.532
12.307
8.307
4.538
1.004
-2.292
-5.349
-8.167
-10.745
-13.087
-15.196
-17.075
-18.729
-20.166
-21.391
-22.412
-23.238
-23.877
-24.34
-24.637
-24.777
-24.772
-24.633
-24.371
-23.995
-23.519
-22.952
-22.305
-21.589
-20.814
-19.989
-19.125
-18.23
-17.313
-16.382
-15.444
-14.508
-13.578
-12.662
-11.764
-10.889
-10.043
-9.227
-8.447
-7.703
-6.999
-6.336
-5.715
-5.136
-4.601
-4.109
-3.659
-3.251
-2.884
-2.556
-2.267
-2.015
-1.799
-1.616
-1.464
-1.343
-1.25
-1.183
-1.141
-1.121
-1.123
-1.144
-1.184
-1.24
-1.312
-1.399
-1.5
-1.614
-1.741
-1.88
-2.031
-2.194
-2.37
-2.557
-2.758
-2.971
-3.198
-3.438
-3.693
-3.962
-4.246
-4.544
-4.856
-5.182
-5.522
-5.874
-6.239
-6.615
-7.001
-7.397
-7.802
-8.213
-8.63
-9.049
-9.47
-9.891
-10.307
-10.718
-11.12
-11.51
-11.886
-12.244
-12.581
-12.892
-13.175
-13.425
-13.639
-13.813
-13.943
-14.025
-14.059
-14.039
-13.966
-13.838
-13.654
-13.415
-13.122
-12.775
-12.375
-11.924
-11.424
-10.877
-10.286
-9.652
-8.979
-8.271
-7.533
-6.77
-5.988
-5.192
-4.386
-3.578
-2.772
-1.974
-1.192
-0.43
0.307
1.015
1.686
2.31
2.882
3.402
3.871
4.296
4.68
5.032
5.361
5.686
6.023
6.388
6.792
7.244
7.749
8.315
8.958
9.693
10.528
11.462
12.481
13.571
14.716
15.896
17.073
18.189
19.186
20.003
20.589
20.905
20.906
20.555
19.818
18.653
17.024
14.901
12.27
9.117
5.457
1.288
-3.412
-8.528
-13.858
-19.117
-23.891
-27.835
-30.731
-32.259
-32.028
-29.993
-26.31
-21.426
-16.317
-11.686
-7.89
-5.562
-5.263
-6.956
-10.348
-14.481
-17.408
-17.671
-14.151
-5.15
10.641
33.855
64.79
102.44
144.482
188.806
232.799
272.605
304.417
324.354
328.619
314.927
281.993
228.831
156.024
65.984
-37.824
-150.407
-266.053
-379.573
-485.454
-578.162
-653.398
-707.992
-740.175
-750.167
-739.097
-708.632
-661.811
-602.364
-534.233
-461.767
-388.737
-317.973
-252.295
-194.052
-144.643
-104.967
-74.926
-53.357
-39.056
-30.771
-26.69
-25.082
-24.297
-22.66
-19.401
-14.519
-8.13
-0.612
7.366
15.192
22.075
27.111
30.006
30.888
30.035
27.944
25.113
21.957
19.006
16.826
15.703
15.738
16.9
19.022
21.979
25.675
29.969
34.699
39.724
44.921
50.187
55.45
60.62
65.594
70.277
74.577
78.442
81.858
84.834
87.4
89.592
91.45
93.027
94.383
95.577
96.663
97.69
98.702
99.744
100.863
102.102
103.508
105.108
106.915
108.935
111.163
113.595
116.219
119.02
121.975
125.067
128.276
131.585
134.98
138.442
141.949
145.48
149.011
152.522
155.99
159.396
162.718
165.936
169.028
171.977
174.764
177.37
179.777
181.966
183.917
185.614
187.041
188.184
189.03
189.566
189.783
189.674
189.234
188.459
187.346
185.897
184.111
181.994
179.549
176.785
173.709
170.331
166.663
162.717
158.509
154.053
149.367
144.467
139.374
134.106
128.683
123.127
117.458
111.697
105.866
99.986
94.079
88.165
82.266
76.401
70.59
64.852
59.205
53.665
48.248
42.97
37.843
32.881
28.094
23.493
19.086
14.882
10.887
7.107
3.544
0.203
-2.916
-5.811
-8.484
-10.936
-13.17
-15.19
-17.001
-18.608
-20.018
-21.239
-22.277
-23.141
-23.842
-24.387
-24.788
-25.053
-25.195
-25.222
-25.147
-24.979
-24.728
-24.406
-24.022
-23.586
-23.107
-22.595
-22.058
-21.504
-20.942
-20.379
-19.821
-19.275
-18.746
-18.239
-17.76
-17.311
-16.896
-16.519
-16.18
-15.883
-15.627
-15.414
-15.245
-15.118
-15.033
-14.99
-14.986
-15.021
-15.092
-15.198
-15.337
-15.505
-15.701
-15.922
-16.166
-16.43
-16.712
-17.009
-17.32
-17.641
-17.972
-18.311
-18.655
-19.004
-19.355
-19.709
-20.064
-20.42
-20.777
-21.133
-21.491
-21.849
-22.209
-22.571
-22.937
-23.307
-23.683
-24.067
-24.459
-24.862
-25.278
-25.707
-26.153
-26.617
-27.1
-27.603
-28.129
-28.679
-29.252
-29.851
-30.474
-31.122
-31.796
-32.493
-33.214
-33.958
-34.723
-35.508
-36.31
-37.129
-37.962
-38.805
-39.655
-40.51
-41.365
-42.217
-43.061
-43.892
-44.708
-45.502
-46.27
-47.006
-47.706
-48.364
-48.976
-49.534
-50.036
-50.477
-50.853
-51.16
-51.396
-51.559
-51.647
-51.662
-51.604
-51.472
-51.268
-50.995
-50.653
-50.247
-49.778
-49.251
-48.668
-48.035
-47.359
-46.646
-45.904
-45.138
-44.357
-43.569
-42.781
-42.002
-41.24
-40.503
-39.797
-39.13
-38.511
-37.953
-37.462
-37.039
-36.686
-36.399
-36.174
-36.008
-35.89
-35.802
-35.73
-35.659
-35.576
-35.477
-35.351
-35.187
-34.975
-34.697
-34.344
-33.923
-33.441
-32.907
-32.341
-31.755
-31.181
-30.68
-30.302
-30.097
-30.124
-30.418
-31.019
-31.976
-33.315
-35.077
-37.304
-40.01
-43.218
-46.953
-51.197
-55.972
-61.318
-67.12
-73.186
-79.246
-84.881
-89.759
-93.671
-96.262
-97.115
-96.128
-93.455
-89.607
-85.488
-81.746
-78.675
-76.766
-76.67
-78.542
-82.033
-86.093
-88.915
-89.05
-85.597
-77.341
-62.715
-40.721
-11.024
25.652
67.283
111.826
157.314
200.817
238.389
265.962
279.609
276.22
254.029
211.692
148.587
65.78
-33.831
-145.846
-264.789
-384.841
-500.309
-605.35
-694.552
-763.555
-809.521
-831.545
-830.13
-806.875
-764.457
-706.49
-637.295
-561.729
-484.391
-408.921
-338.594
-276.069
-223.14
-180.947
-149.461
-127.421
-113.207
-105.231
-101.523
-100.178
-99.409
-97.442
-93.434
-87.431
-79.731
-70.846
-61.529
-52.476
-44.526
-38.64
-35.153
-33.932
-34.672
-36.842
-39.91
-43.423
-46.81
-49.454
-51.03
-51.411
-50.603
-48.76
-45.997
-42.401
-38.119
-33.321
-28.157
-22.759
-17.226
-11.633
-6.079
-0.678
4.461
9.228
13.562
17.438
20.85
23.818
26.371
28.543
30.387
31.966
33.339
34.563
35.69
36.763
37.832
38.949
40.164
41.53
43.078
44.826
46.785
48.956
51.335
53.916
56.685
59.62
62.706
65.924
69.26
72.702
76.23
79.827
83.47
87.138
90.81
94.468
98.09
101.658
105.151
108.55
111.837
114.995
118.006
120.851
123.51
125.964
128.196
130.188
131.926
133.393
134.577
135.466
136.052
136.325
136.28
135.913
135.221
134.202
132.856
131.188
129.199
126.895
124.284
121.374
118.174
114.697
110.955
106.962
102.732
98.283
93.631
88.794
83.79
78.639
73.359
67.972
62.497
56.954
51.365
45.749
40.126
34.516
28.938
23.41
17.951
12.578
7.307
2.153
-2.869
-7.745
-12.463
-17.011
-21.378
-25.554
-29.532
-33.302
-36.86
-40.199
-43.315
-46.205
-48.867
-51.299
-53.502
-55.475
-57.221
-58.741
-60.04
-61.122
-61.991
-62.653
-63.114
-63.381
-63.462
-63.364
-63.095
-62.663
-62.078
-61.348
-60.482
-59.49
-58.38
-57.162
-55.845
-54.438
-52.95
-51.39
-49.765
-48.086
-46.359
-44.592
-42.793
-40.969
-39.127
-37.273
-35.412
-33.552
-31.696
-29.85
-28.018
-26.205
-24.413
-22.646
-20.907
-19.198
-17.522
-15.88
-14.273
-12.703
-11.171
-9.676
-8.22
-6.802
-5.422
-4.08
-2.776
-1.507
-0.275
0.924
2.088
3.22
4.32
5.391
6.432
7.446
8.433
9.394
10.332
11.246
12.139
13.011
13.863
14.696
15.511
16.308
17.087
17.85
18.596
19.325
20.038
20.733
21.411
22.072
22.714
23.337
23.94
24.523
25.084
25.623
26.138
26.63
27.096
27.537
27.951
28.34
28.701
29.035
29.343
29.623
29.878
30.106
30.308
30.485
30.638
30.767
30.875
30.962
31.031
31.084
31.123
31.15
31.168
31.181
31.192
31.203
31.218
31.242
31.278
31.33
31.403
31.5
31.625
31.781
31.973
32.202
32.471
32.782
33.135
33.53
33.968
34.448
34.971
35.534
36.136
36.776
37.452
38.162
38.903
39.673
40.467
41.279
42.104
42.94
43.779
44.616
45.445
46.258
47.051
47.82
48.56
49.266
49.933
50.55
51.114
51.625
52.085
52.496
52.862
53.188
53.485
53.773
54.069
54.39
54.749
55.149
55.599
56.107
56.687
57.352
58.109
58.95
59.869
60.858
61.906
62.996
64.089
65.128
66.052
66.794
67.302
67.537
67.452
67.018
66.189
64.911
63.148
60.868
58.048
54.684
50.751
46.195
41.064
35.526
29.847
24.419
19.594
15.607
12.753
11.415
11.823
13.929
17.351
21.333
25.126
28.316
30.519
31.152
29.861
26.802
22.681
18.952
17.309
18.91
24.881
36.82
55.954
82.892
117.549
158.469
203.476
250.584
297.076
339.052
372.497
393.28
397.667
383.445
349.029
293.274
216.762
121.933
12.641
-105.7
-227.248
-346.53
-457.387
-553.802
-631.004
-685.474
-715.75
-722.281
-706.112
-669.149
-615.052
-548.289
-473.768
-396.558
-320.346
-248.117
-183.08
-127.687
-83.203
-49.792
-26.254
-10.703
-1.785
2.095
3.146
3.459
4.986
8.828
14.917
22.796
32.071
42.141
52.18
61.243
68.209
72.534
74.351
74.003
72.004
68.883
65.102
61.242
57.963
55.678
54.544
54.579
55.641
57.603
60.396
63.89
67.935
72.401
77.156
82.102
87.16
92.237
97.228
102.029
106.537
110.664
114.363
117.615
120.431
122.842
124.879
126.583
128.007
129.207
130.245
131.175
132.047
132.904
133.794
134.764
135.862
137.132
138.601
140.284
142.185
144.303
146.631
149.161
151.879
154.762
157.791
160.95
164.222
167.592
171.041
174.55
178.095
181.653
185.204
188.726
192.199
195.599
198.907
202.102
205.162
208.071
210.807
213.351
215.681
217.779
219.625
221.202
222.493
223.484
224.161
224.512
224.528
224.201
223.527
222.5
221.12
219.385
217.298
214.861
212.081
208.964
205.518
201.753
197.682
193.317
188.673
183.766
178.612
173.231
167.642
161.863
155.917
149.824
143.607
137.286
130.886
124.427
117.933
111.426
104.927
98.459
92.041
85.695
79.439
73.291
67.269
61.388
55.665
50.113
44.744
39.571
34.604
29.853
25.324
21.025
16.961
13.137
9.555
6.217
3.124
0.274
-2.333
-4.701
-6.833
-8.735
-10.412
-11.871
-13.119
-14.166
-15.018
-15.688
-16.183
-16.515
-16.695
-16.734
-16.642
-16.431
-16.112
-15.697
-15.197
-14.622
-13.984
-13.292
-12.558
-11.79
-10.999
-10.192
-9.38
-8.569
-7.767
-6.981
-6.219
-5.485
-4.786
-4.126
-3.509
-2.94
-2.422
-1.958
-1.549
-1.197
-0.904
-0.67
-0.496
-0.381
-0.325
-0.328
-0.387
-0.501
-0.669
-0.889
-1.159
-1.476
-1.838
-2.242
-2.686
-3.166
-3.681
-4.228
-4.803
-5.404
-6.028
-6.673
-7.335
-8.012
-8.701
-9.401
-10.108
-10.82
-11.536
-12.253
-12.97
-13.686
-14.398
-15.105
-15.807
-16.502
-17.189
-17.869
-18.54
-19.201
-19.854
-20.498
-21.134
-21.761
-22.38
-22.991
-23.596
-24.195
-24.789
-25.38
-25.967
-26.553
-27.139
-27.727
-28.316
-28.91
-29.509
-30.115
-30.728
-31.349
-31.98
-32.62
-33.27
-33.93
-34.601
-35.281
-35.972
-36.672
-37.381
-38.097
-38.821
-39.55
-40.283
-41.018
-41.752
-42.484
-43.211
-43.929
-44.637
-45.33
-46.005
-46.659
-47.288
-47.887
-48.452
-48.979
-49.464
-49.902
-50.289
-50.623
-50.899
-51.116
-51.272
-51.365
-51.395
-51.362
-51.266
-51.107
-50.886
-50.604
-50.264
-49.866
-49.413
-48.907
-48.352
-47.752
-47.114
-46.443
-45.745
-45.025
-44.29
-43.546
-42.8
-42.061
-41.331
-40.619
-39.929
-39.271
-38.655
-38.087
-37.57
-37.102
-36.681
-36.3
-35.955
-35.635
-35.323
-35.005
-34.667
-34.297
-33.892
-33.447
-32.953
-32.403
-31.779
-31.075
-30.296
-29.449
-28.549
-27.618
-26.674
-25.75
-24.908
-24.195
-23.665
-23.377
-23.359
-23.646
-24.281
-25.281
-26.69
-28.553
-30.888
-33.725
-37.077
-40.918
-45.262
-50.136
-55.448
-61.033
-66.63
-71.845
-76.363
-79.964
-82.354
-83.177
-82.226
-79.575
-75.635
-71.171
-66.94
-63.393
-60.959
-60.272
-61.717
-65.105
-69.704
-74.052
-76.429
-75.64
-70.468
-59.212
-40.639
-14.206
19.889
60.101
104.22
150.169
195.058
234.835
265.466
282.918
283.681
265.702
227.491
168.14
88.495
-8.733
-119.51
-238.457
-359.754
-477.834
-586.547
-680.033
-753.619
-804.033
-829.946
-831.694
-810.614
-769.038
-710.771
-640.41
-563.009
-483.534
-405.843
-333.266
-268.674
-214.106
-170.679
-138.316
-115.713
-101.084
-92.815
-88.971
-87.57
-86.746
-84.665
-80.422
-74.063
-65.934
-56.537
-46.609
-36.866
-28.169
-21.547
-17.403
-15.602
-15.835
-17.563
-20.241
-23.42
-26.524
-28.911
-30.234
-30.364
-29.303
-27.218
-24.232
-20.428
-15.95
-10.967
-5.62
-0.05
5.639
11.374
17.054
22.566
27.801
32.645
37.035
40.949
44.384
47.364
49.921
52.092
53.929
55.497
56.855
58.064
59.178
60.241
61.307
62.427
63.655
65.046
66.632
68.434
70.462
72.719
75.2
77.901
80.808
83.9
87.161
90.575
94.126
97.802
101.585
105.455
109.391
113.371
117.372
121.375
125.359
129.301
133.182
136.979
140.674
144.247
147.679
150.949
154.034
156.915
159.571
161.985
164.137
166.011
167.592
168.868
169.825
170.457
170.754
170.712
170.325
169.592
168.513
167.088
165.321
163.217
160.782
158.026
154.956
151.587
147.929
143.999
139.811
135.383
130.732
125.877
120.839
115.638
110.293
104.828
99.263
93.62
87.922
82.189
76.444
70.708
65
59.342
53.751
48.247
42.846
37.564
32.418
27.42
22.585
17.924
13.448
9.166
5.086
1.217
-2.438
-5.872
-9.084
-12.07
-14.83
-17.365
-19.675
-21.764
-23.634
-25.291
-26.739
-27.986
-29.038
-29.902
-30.588
-31.105
-31.461
-31.667
-31.732
-31.668
-31.484
-31.192
-30.801
-30.322
-29.766
-29.143
-28.463
-27.735
-26.97
-26.175
-25.359
-24.532
-23.699
-22.869
-22.047
-21.24
-20.454
-19.693
-18.961
-18.263
-17.602
-16.98
-16.4
-15.863
-15.372
-14.925
-14.525
-14.17
-13.86
-13.595
-13.374
-13.194
-13.055
-12.954
-12.89
-12.859
-12.861
-12.892
-12.951
-13.033
-13.138
-13.263
-13.404
-13.561
-13.729
-13.909
-14.096
-14.291
-14.49
-14.693
-14.897
-15.103
-15.308
-15.512
-15.715
-15.916
-16.114
-16.31
-16.503
-16.694
-16.883
-17.071
-17.258
-17.445
-17.634
-17.825
-18.019
-18.218
-18.423
-18.636
-18.858
-19.089
-19.333
-19.589
-19.86
-20.147
-20.45
-20.771
-21.11
-21.469
-21.847
-22.244
-22.66
-23.095
-23.548
-24.018
-24.504
-25.004
-25.518
-26.043
-26.577
-27.118
-27.663
-28.21
-28.756
-29.297
-29.829
-30.35
-30.854
-31.338
-31.799
-32.231
-32.631
-32.994
-33.316
-33.592
-33.818
-33.991
-34.105
-34.159
-34.149
-34.073
-33.929
-33.717
-33.436
-33.087
-32.672
-32.191
-31.648
-31.044
-30.381
-29.665
-28.898
-28.083
-27.225
-26.328
-25.4
-24.445
-23.473
-22.487
-21.495
-20.505
-19.523
-18.558
-17.617
-16.704
-15.825
-14.984
-14.189
-13.45
-12.773
-12.155
-11.598
-11.098
-10.652
-10.254
-9.893
-9.55
-9.206
-8.842
-8.445
-8.012
-7.534
-7.001
-6.402
-5.72
-4.949
-4.097
-3.172
-2.178
-1.129
-0.044
1.039
2.055
2.939
3.624
4.054
4.185
3.979
3.401
2.414
0.969
-0.969
-3.424
-6.418
-9.953
-14.045
-18.748
-23.978
-29.529
-35.12
-40.322
-44.769
-48.244
-50.42
-50.894
-49.607
-46.697
-42.586
-38.214
-34.247
-30.992
-29.042
-28.931
-30.621
-33.845
-37.666
-40.184
-40.012
-36.114
-26.871
-10.978
12.258
43.229
80.993
123.262
168.011
212.774
253.859
287.514
309.819
316.855
306.233
276.658
227.048
157.74
70.871
-30.337
-141.042
-255.545
-368.687
-475.082
-569.193
-646.557
-703.784
-738.796
-751.587
-743.202
-715.156
-670.278
-612.207
-544.873
-472.708
-399.692
-328.786
-262.826
-204.252
-154.562
-114.692
-84.584
-63.026
-48.671
-40.195
-35.782
-33.679
-32.25
-29.849
-25.713
-19.891
-12.581
-4.209
4.52
12.983
20.404
25.898
29.18
30.389
29.814
27.958
25.329
22.35
19.551
17.498
16.48
16.603
17.85
20.063
23.125
26.947
31.386
36.283
41.498
46.906
52.408
57.931
63.379
68.652
73.648
78.271
82.47
86.225
89.541
92.444
94.966
97.149
99.042
100.707
102.203
103.584
104.9
106.195
107.515
108.909
110.423
112.103
113.978
116.063
118.365
120.882
123.608
126.535
129.646
132.92
136.337
139.88
143.532
147.276
151.096
154.968
158.87
162.778
166.671
170.526
174.323
178.038
181.65
185.138
188.483
191.664
194.663
197.459
200.031
202.36
204.427
206.216
207.709
208.892
209.753
210.28
210.464
210.3
209.78
208.903
207.667
206.072
204.12
201.816
199.166
196.178
192.859
189.222
185.279
181.044
176.533
171.761
166.746
161.508
156.066
150.441
144.653
138.725
132.678
126.534
120.316
114.046
107.746
101.438
95.143
88.882
82.675
76.542
70.5
64.567
58.76
53.093
47.58
42.235
37.069
32.092
27.313
22.742
18.383
14.244
10.328
6.637
3.174
-0.06
-3.067
-5.848
-8.405
-10.743
-12.865
-14.778
-16.488
-18.002
-19.327
-20.472
-21.446
-22.258
-22.918
-23.435
-23.82
-24.082
-24.233
-24.282
-24.24
-24.115
-23.919
-23.661
-23.349
-22.993
-22.601
-22.181
-21.741
-21.288
-20.828
-20.368
-19.913
-19.469
-19.039
-18.628
-18.24
-17.877
-17.542
-17.238
-16.967
-16.728
-16.524
-16.354
-16.22
-16.121
-16.056
-16.025
-16.028
-16.063
-16.129
-16.226
-16.351
-16.503
-16.681
-16.884
-17.11
-17.357
-17.625
-17.913
-18.219
-18.542
-18.882
-19.239
-19.61
-19.996
-20.397
-20.812
-21.242
-21.685
-22.143
-22.615
-23.101
-23.601
-24.117
-24.646
-25.191
-25.749
-26.322
-26.908
-27.506
-28.116
-28.737
-29.368
-30.007
-30.654
-31.306
-31.963
-32.621
-33.28
-33.936
-34.587
-35.23
-35.862
-36.48
-37.079
-37.657
-38.21
-38.733
-39.224
-39.678
-40.09
-40.457
-40.774
-41.039
-41.246
-41.393
-41.476
-41.494
-41.445
-41.327
-41.141
-40.887
-40.565
-40.177
-39.725
-39.21
-38.635
-38.003
-37.317
-36.579
-35.793
-34.964
-34.098
-33.2
-32.276
-31.333
-30.377
-29.415
-28.453
-27.5
-26.563
-25.646
-24.753
-23.891
-23.066
-22.288
-21.562
-20.888
-20.265
-19.691
-19.161
-18.672
-18.214
-17.768
-17.316
-16.841
-16.331
-15.782
-15.187
-14.537
-13.821
-13.02
-12.131
-11.162
-10.122
-9.021
-7.868
-6.677
-5.487
-4.36
-3.358
-2.547
-1.977
-1.685
-1.714
-2.1
-2.889
-4.134
-5.868
-8.111
-10.883
-14.184
-18.04
-22.515
-27.529
-32.886
-38.321
-43.425
-47.859
-51.426
-53.792
-54.544
-53.597
-51.059
-47.336
-43.328
-39.671
-36.652
-34.838
-34.753
-36.392
-39.527
-43.249
-45.714
-45.562
-41.782
-32.836
-17.44
5.116
35.255
72.09
113.391
157.18
201.114
241.647
275.129
297.723
305.554
296.267
268.66
221.658
155.465
72.051
-25.572
-132.773
-243.992
-354.294
-458.629
-551.671
-629.033
-687.301
-724.225
-739.637
-734.501
-710.102
-668.902
-614.23
-549.758
-479.79
-408.354
-338.414
-272.75
-213.871
-163.453
-122.646
-91.607
-69.244
-54.211
-45.227
-40.551
-38.444
-37.219
-35.114
-31.251
-25.615
-18.394
-10.001
-1.101
7.695
15.591
21.637
25.473
27.179
27.01
25.453
22.986
20.013
17.056
14.686
13.238
12.853
13.537
15.154
17.594
20.772
24.558
28.804
33.375
38.155
43.05
47.993
52.908
57.705
62.299
66.606
70.557
74.117
77.28
80.06
82.486
84.597
86.433
88.047
89.498
90.841
92.127
93.404
94.708
96.081
97.565
99.201
101.026
103.061
105.316
107.792
110.487
113.391
116.494
119.779
123.223
126.804
130.504
134.305
138.189
142.136
146.123
150.127
154.122
158.088
162
165.838
169.578
173.197
176.675
179.991
183.126
186.061
188.776
191.251
193.468
195.41
197.061
198.407
199.435
200.134
200.495
200.512
200.181
199.499
198.465
197.081
195.348
193.274
190.864
188.126
185.072
181.712
178.06
174.13
169.94
165.506
160.846
155.979
150.927
145.711
140.351
134.869
129.289
123.631
117.919
112.174
106.419
100.675
94.962
89.301
83.711
78.211
72.817
67.545
62.411
57.428
52.608
47.962
43.499
39.228
35.156
31.287
27.627
24.178
20.941
17.918
15.106
12.503
10.107
7.913
5.916
4.108
2.483
1.033
-0.251
-1.378
-2.359
-3.202
-3.92
-4.522
-5.02
-5.425
-5.747
-5.998
-6.187
-6.326
-6.423
-6.488
-6.53
-6.557
-6.577
-6.597
-6.623
-6.661
-6.716
-6.793
-6.894
-7.023
-7.183
-7.374
-7.598
-7.855
-8.145
-8.466
-8.818
-9.198
-9.605
-10.035
-10.486
-10.955
-11.436
-11.928
-12.426
-12.927
-13.425
-13.918
-14.402
-14.873
-15.327
-15.761
-16.172
-16.558
-16.915
-17.243
-17.539
-17.801
-18.029
-18.223
-18.381
-18.505
-18.595
-18.65
-18.674
-18.667
-18.63
-18.567
-18.48
-18.371
-18.243
-18.099
-17.943
-17.778
-17.607
-17.435
-17.264
-17.098
-16.941
-16.796
-16.668
-16.559
-16.473
-16.412
-16.38
-16.378
-16.41
-16.476
-16.578
-16.717
-16.893
-17.108
-17.359
-17.648
-17.973
-18.333
-18.727
-19.152
-19.607
-20.089
-20.595
-21.121
-21.665
-22.223
-22.79
-23.362
-23.934
-24.503
-25.064
-25.61
-26.138
-26.641
-27.114
-27.553
-27.952
-28.306
-28.61
-28.861
-29.055
-29.189
-29.261
-29.269
-29.214
-29.094
-28.91
-28.663
-28.354
-27.985
-27.557
-27.074
-26.538
-25.95
-25.317
-24.642
-23.932
-23.191
-22.426
-21.643
-20.847
-20.047
-19.249
-18.461
-17.687
-16.932
-16.202
-15.505
-14.851
-14.246
-13.693
-13.188
-12.73
-12.316
-11.941
-11.595
-11.259
-10.915
-10.546
-10.139
-9.692
-9.198
-8.65
-8.034
-7.332
-6.541
-5.665
-4.716
-3.709
-2.654
-1.573
-0.507
0.479
1.317
1.934
2.283
2.326
2.021
1.339
0.231
-1.361
-3.472
-6.131
-9.351
-13.121
-17.463
-22.42
-27.922
-33.786
-39.731
-45.358
-50.336
-54.441
-57.38
-58.782
-58.416
-56.329
-52.896
-48.84
-44.886
-41.449
-38.932
-37.942
-38.856
-41.536
-45.313
-48.812
-50.397
-48.927
-43.231
-31.665
-13.029
13.221
46.919
86.584
130.076
175.374
219.628
258.836
289.018
306.193
306.91
289.184
251.528
193.02
114.566
18.882
-89.996
-206.667
-325.521
-441.286
-547.946
-639.773
-712.369
-762.592
-789.345
-793.245
-775.318
-737.447
-683.212
-616.892
-543.154
-466.76
-391.111
-319.036
-253.681
-197.485
-151.797
-116.906
-91.769
-74.721
-64.563
-59.795
-58.276
-57.9
-56.645
-53.334
-47.936
-40.791
-32.21
-22.726
-13.107
-4.292
2.585
6.965
8.964
8.914
7.31
4.654
1.389
-1.92
-4.611
-6.274
-6.759
-6.063
-4.338
-1.717
1.725
5.856
10.516
15.562
20.859
26.298
31.804
37.292
42.659
47.808
52.643
57.081
61.086
64.65
67.787
70.528
72.909
74.97
76.765
78.354
79.799
81.154
82.47
83.787
85.153
86.615
88.216
89.999
91.987
94.191
96.613
99.252
102.099
105.145
108.374
111.763
115.294
118.946
122.705
126.552
130.47
134.434
138.423
142.413
146.382
150.308
154.169
157.944
161.611
165.149
168.537
171.757
174.789
177.613
180.209
182.557
184.64
186.442
187.948
189.142
190.014
190.554
190.753
190.607
190.111
189.263
188.062
186.511
184.612
182.372
179.797
176.894
173.676
170.153
166.338
162.247
157.896
153.3
148.48
143.453
138.24
132.861
127.337
121.691
115.942
110.115
104.229
98.308
92.372
86.442
80.539
74.683
68.893
63.187
57.581
52.092
46.736
41.524
36.472
31.589
26.886
22.372
18.056
13.943
10.04
6.35
2.877
-0.378
-3.413
-6.23
-8.83
-11.215
-13.388
-15.355
-17.12
-18.689
-20.068
-21.266
-22.29
-23.149
-23.85
-24.404
-24.819
-25.105
-25.271
-25.328
-25.284
-25.149
-24.933
-24.644
-24.292
-23.885
-23.43
-22.937
-22.412
-21.862
-21.295
-20.715
-20.13
-19.544
-18.961
-18.387
-17.824
-17.277
-16.748
-16.24
-15.753
-15.291
-14.854
-14.443
-14.06
-13.703
-13.373
-13.071
-12.795
-12.545
-12.321
-12.122
-11.947
-11.795
-11.665
-11.556
-11.468
-11.4
-11.35
-11.319
-11.305
-11.308
-11.327
-11.363
-11.413
-11.48
-11.561
-11.658
-11.77
-11.898
-12.042
-12.203
-12.381
-12.577
-12.791
-13.024
-13.277
-13.55
-13.845
-14.161
-14.499
-14.86
-15.244
-15.652
-16.084
-16.538
-17.016
-17.516
-18.037
-18.579
-19.14
-19.718
-20.312
-20.92
-21.539
-22.167
-22.803
-23.443
-24.084
-24.724
-25.359
-25.985
-26.599
-27.196
-27.774
-28.327
-28.852
-29.345
-29.801
-30.217
-30.588
-30.909
-31.178
-31.389
-31.54
-31.627
-31.647
-31.598
-31.479
-31.288
-31.026
-30.693
-30.292
-29.823
-29.29
-28.694
-28.039
-27.329
-26.568
-25.76
-24.908
-24.019
-23.097
-22.15
-21.183
-20.205
-19.222
-18.239
-17.266
-16.309
-15.377
-14.476
-13.611
-12.786
-12.006
-11.278
-10.611
-10.011
-9.474
-9
-8.584
-8.223
-7.91
-7.633
-7.373
-7.109
-6.824
-6.502
-6.138
-5.726
-5.254
-4.708
-4.073
-3.341
-2.52
-1.617
-0.638
0.406
1.496
2.596
3.641
4.566
5.305
5.801
6.01
5.894
5.418
4.543
3.22
1.409
-0.915
-3.781
-7.192
-11.17
-15.778
-20.934
-26.43
-31.974
-37.119
-41.475
-44.812
-46.785
-46.972
-45.319
-41.989
-37.445
-32.706
-28.506
-25.186
-23.399
-23.716
-26.062
-30.113
-34.818
-38.095
-38.431
-34.7
-25.13
-8.302
16.464
49.535
89.845
134.892
182.532
230.197
273.926
309.684
333.491
341.385
330.729
300.141
248.462
175.595
84.831
-19.413
-133.555
-252.042
-372.144
-491.355
-600.011
-690.802
-756.374
-789.444
-794.311
-775.719
-737.851
-688.1
-627.542
-557.548
-482.374
-404.548
-328.498
-258.847
-197.996
-147.612
-108.355
-79.585
-59.95
-47.978
-41.997
-39.83
-39.495
-39.25
-37.485
-33.575
-27.688
-20.111
-11.419
-2.48
5.967
13.094
18.05
20.632
21.044
19.633
16.952
13.557
9.911
6.562
4.059
2.667
2.471
3.433
5.391
8.223
11.828
16.06
20.76
25.784
31.008
36.325
41.656
46.9
51.952
56.71
61.078
65.005
68.471
71.484
74.071
76.268
78.115
79.665
80.98
82.12
83.141
84.097
85.032
85.995
87.033
88.195
89.526
91.057
92.8
94.763
96.943
99.335
101.929
104.709
107.654
110.746
113.966
117.298
120.728
124.236
127.802
131.403
135.017
138.623
142.199
145.725
149.178
152.539
155.785
158.899
161.861
164.651
167.249
169.636
171.79
173.695
175.332
176.687
177.742
178.486
178.908
178.998
178.75
178.157
177.218
175.929
174.291
172.306
169.979
167.313
164.318
161.001
157.374
153.448
149.237
144.757
140.023
135.053
129.866
124.483
118.922
113.206
107.356
101.395
95.345
89.229
83.07
76.89
70.711
64.556
58.447
52.403
46.445
40.592
34.861
29.269
23.832
18.565
13.481
8.592
3.908
-0.56
-4.804
-8.818
-12.596
-16.134
-19.428
-22.477
-25.281
-27.841
-30.158
-32.237
-34.08
-35.695
-37.086
-38.262
-39.231
-40.001
-40.583
-40.986
-41.221
-41.299
-41.231
-41.03
-40.706
-40.272
-39.739
-39.119
-38.422
-37.661
-36.845
-35.986
-35.092
-34.175
-33.241
-32.301
-31.361
-30.429
-29.513
-28.616
-27.747
-26.908
-26.104
-25.339
-24.615
-23.936
-23.302
-22.714
-22.174
-21.681
-21.235
-20.835
-20.48
-20.168
-19.898
-19.666
-19.472
-19.313
-19.185
-19.086
-19.014
-18.965
-18.937
-18.928
-18.934
-18.953
-18.983
-19.022
-19.068
-19.118
-19.173
-19.229
-19.286
-19.343
-19.399
-19.454
-19.506
-19.557
-19.605
-19.652
-19.698
-19.744
-19.79
-19.837
-19.888
-19.942
-20.001
-20.067
-20.141
-20.225
-20.319
-20.426
-20.548
-20.684
-20.837
-21.008
-21.197
-21.404
-21.631
-21.877
-22.142
-22.425
-22.725
-23.041
-23.373
-23.719
-24.077
-24.445
-24.822
-25.204
-25.59
-25.976
-26.36
-26.737
-27.105
-27.459
-27.797
-28.113
-28.404
-28.666
-28.895
-29.085
-29.234
-29.336
-29.387
-29.384
-29.322
-29.199
-29.011
-28.756
-28.434
-28.042
-27.582
-27.055
-26.461
-25.802
-25.081
-24.3
-23.462
-22.571
-21.63
-20.643
-19.614
-18.55
-17.455
-16.338
-15.204
-14.062
-12.917
-11.777
-10.651
-9.547
-8.472
-7.431
-6.43
-5.474
-4.571
-3.732
-2.961
-2.26
-1.626
-1.057
-0.55
-0.099
0.307
0.688
1.062
1.446
1.853
2.287
2.757
3.272
3.846
4.494
5.222
6.022
6.89
7.815
8.788
9.792
10.789
11.719
12.523
13.135
13.504
13.594
13.358
12.767
11.777
10.334
8.407
5.967
2.992
-0.519
-4.588
-9.269
-14.508
-20.136
-25.889
-31.382
-36.267
-40.309
-43.214
-44.599
-44.238
-42.175
-38.79
-34.824
-31.015
-27.775
-25.487
-24.728
-25.851
-28.708
-32.608
-36.129
-37.61
-35.919
-29.966
-18.192
0.597
26.985
60.887
100.863
144.76
190.64
235.877
276.663
309.076
329.076
332.977
318.617
284.465
229.335
153.684
59.799
-48.635
-166.323
-287.489
-406.775
-518.148
-615.611
-694.315
-750.53
-782.563
-790.8
-776.238
-740.678
-687.666
-621.434
-546.736
-468.785
-391.402
-317.469
-250.164
-191.868
-143.803
-106.614
-79.53
-60.701
-48.867
-42.662
-39.975
-39.01
-38.059
-35.514
-30.973
-24.766
-17.062
-8.321
0.669
9.265
16.606
21.806
24.709
25.54
24.625
22.499
19.675
16.581
13.765
11.771
10.858
11.106
12.465
14.759
17.866
21.685
26.077
30.889
35.985
41.244
46.564
51.87
57.069
62.062
66.751
71.044
74.888
78.267
81.192
83.696
85.816
87.594
89.084
90.345
91.438
92.421
93.345
94.252
95.192
96.21
97.355
98.673
100.194
101.933
103.896
106.082
108.484
111.095
113.9
116.878
120.01
123.279
126.669
130.165
133.75
137.404
141.103
144.826
148.551
152.256
155.922
159.525
163.044
166.459
169.749
172.896
175.879
178.678
181.273
183.643
185.77
187.635
189.223
190.517
191.505
192.175
192.518
192.525
192.192
191.514
190.489
189.118
187.401
185.343
182.948
180.223
177.177
173.821
170.165
166.224
162.013
157.547
152.843
147.922
142.801
137.501
132.044
126.451
120.744
114.945
109.077
103.162
97.223
91.281
85.359
79.478
73.658
67.919
62.279
56.756
51.366
46.126
41.048
36.146
31.432
26.917
22.609
18.517
14.646
11.003
7.591
4.413
1.469
-1.24
-3.715
-5.96
-7.978
-9.774
-11.353
-12.722
-13.89
-14.865
-15.655
-16.271
-16.724
-17.023
-17.181
-17.209
-17.118
-16.921
-16.628
-16.251
-15.802
-15.292
-14.731
-14.129
-13.498
-12.846
-12.182
-11.515
-10.853
-10.202
-9.569
-8.96
-8.381
-7.834
-7.326
-6.857
-6.432
-6.051
-5.715
-5.426
-5.183
-4.985
-4.831
-4.72
-4.65
-4.618
-4.622
-4.658
-4.724
-4.817
-4.933
-5.068
-5.22
-5.384
-5.558
-5.738
-5.922
-6.105
-6.286
-6.462
-6.631
-6.791
-6.94
-7.077
-7.2
-7.309
-7.404
-7.483
-7.548
-7.598
-7.635
-7.659
-7.671
-7.675
-7.67
-7.659
-7.645
-7.629
-7.614
-7.603
-7.597
-7.6
-7.615
-7.643
-7.687
-7.751
-7.836
-7.944
-8.076
-8.235
-8.422
-8.637
-8.881
-9.154
-9.455
-9.786
-10.144
-10.53
-10.943
-11.379
-11.839
-12.318
-12.816
-13.329
-13.853
-14.386
-14.924
-15.461
-15.996
-16.523
-17.038
-17.536
-18.012
-18.462
-18.88
-19.262
-19.602
-19.897
-20.141
-20.331
-20.464
-20.537
-20.548
-20.497
-20.383
-20.206
-19.967
-19.666
-19.305
-18.886
-18.41
-17.881
-17.3
-16.671
-15.999
-15.288
-14.544
-13.775
-12.985
-12.181
-11.37
-10.557
-9.751
-8.958
-8.183
-7.431
-6.709
-6.024
-5.388
-4.804
-4.275
-3.798
-3.369
-2.983
-2.635
-2.313
-1.998
-1.675
-1.328
-0.944
-0.519
-0.044
0.492
1.101
1.798
2.592
3.475
4.437
5.469
6.554
7.672
8.787
9.839
10.775
11.54
12.079
12.352
12.314
11.918
11.135
9.927
8.257
6.108
3.462
0.297
-3.371
-7.546
-12.256
-17.389
-22.756
-28.096
-32.998
-37.115
-40.225
-41.991
-42.019
-40.245
-36.809
-32.152
-27.217
-22.68
-18.884
-16.424
-15.858
-17.201
-20.193
-23.898
-26.451
-26.429
-22.796
-14.065
1.037
23.185
52.74
88.93
129.652
172.896
216.335
256.6
290.101
313.134
321.925
313.671
286.674
239.654
172.558
87.017
-14.081
-126.375
-244.497
-362.822
-475.503
-576.645
-661.174
-725.107
-765.856
-782.716
-776.209
-747.98
-701.044
-639.277
-567.098
-489.364
-410.519
-334.134
-263.546
-201.396
-149.301
-108.194
-77.85
-56.901
-43.773
-36.848
-34.042
-33.395
-33.126
-31.525
-27.843
-22.17
-14.787
-6.213
2.756
11.404
18.897
24.321
27.396
28.29
27.33
25.057
22.018
18.665
15.551
13.25
12.054
12.061
13.243
15.433
18.505
22.362
26.856
31.823
37.118
42.613
48.201
53.805
59.326
64.655
69.691
74.335
78.535
82.272
85.549
88.396
90.846
92.94
94.732
96.282
97.651
98.896
100.069
101.216
102.384
103.624
104.983
106.508
108.228
110.158
112.304
114.665
117.234
120.003
122.955
126.07
129.328
132.711
136.202
139.788
143.449
147.164
150.911
154.667
158.411
162.122
165.779
169.361
172.847
176.216
179.45
182.529
185.435
188.148
190.646
192.912
194.927
196.673
198.135
199.298
200.148
200.676
200.871
200.727
200.239
199.403
198.217
196.682
194.799
192.572
190.007
187.11
183.89
180.357
176.523
172.402
168.007
163.355
158.462
153.347
148.027
142.524
136.856
131.045
125.111
119.076
112.963
106.791
100.583
94.36
88.142
81.951
75.805
69.724
63.725
57.826
52.041
46.387
40.877
35.524
30.339
25.333
20.516
15.895
11.477
7.268
3.273
-0.504
-4.062
-7.4
-10.516
-13.413
-16.092
-18.556
-20.808
-22.854
-24.698
-26.347
-27.808
-29.087
-30.193
-31.133
-31.917
-32.553
-33.05
-33.418
-33.665
-33.801
-33.836
-33.777
-33.634
-33.415
-33.129
-32.784
-32.388
-31.948
-31.472
-30.965
-30.436
-29.888
-29.329
-28.763
-28.195
-27.629
-27.07
-26.521
-25.985
-25.465
-24.965
-24.486
-24.03
-23.6
-23.197
-22.823
-22.478
-22.163
-21.881
-21.63
-21.412
-21.228
-21.078
-20.962
-20.882
-20.838
-20.83
-20.859
-20.926
-21.03
-21.172
-21.354
-21.574
-21.835
-22.136
-22.477
-22.86
-23.284
-23.749
-24.256
-24.803
-25.391
-26.017
-26.682
-27.384
-28.12
-28.889
-29.69
-30.519
-31.374
-32.252
-33.151
-34.066
-34.994
-35.932
-36.874
-37.817
-38.756
-39.685
-40.6
-41.496
-42.367
-43.209
-44.015
-44.779
-45.498
-46.164
-46.773
-47.319
-47.797
-48.203
-48.533
-48.783
-48.952
-49.037
-49.039
-48.956
-48.79
-48.543
-48.214
-47.807
-47.325
-46.771
-46.148
-45.46
-44.712
-43.91
-43.061
-42.171
-41.25
-40.304
-39.341
-38.37
-37.399
-36.439
-35.496
-34.579
-33.694
-32.85
-32.055
-31.322
-30.659
-30.067
-29.548
-29.098
-28.716
-28.397
-28.131
-27.902
-27.694
-27.493
-27.287
-27.069
-26.833
-26.567
-26.26
-25.895
-25.465
-24.972
-24.425
-23.831
-23.202
-22.559
-21.932
-21.378
-20.947
-20.692
-20.668
-20.914
-21.474
-22.39
-23.688
-25.406
-27.576
-30.223
-33.363
-37.02
-41.174
-45.826
-51.001
-56.584
-62.388
-68.149
-73.46
-77.982
-81.502
-83.703
-84.207
-82.964
-80.111
-76.054
-71.692
-67.653
-64.241
-62.038
-61.571
-62.827
-65.556
-68.86
-70.937
-70.467
-66.455
-57.348
-41.895
-19.429
10.421
46.75
87.389
130.372
173.278
212.501
244.396
265.172
271.061
259.747
229.934
180.614
112.239
27.015
-71.802
-179.433
-290.341
-399.479
-501.559
-591.258
-664.396
-717.888
-749.965
-760.806
-751.529
-723.715
-680.209
-624.531
-560.405
-491.958
-422.812
-355.644
-293.065
-237.314
-189.757
-151.29
-121.887
-100.471
-85.886
-76.976
-72.078
-69.58
-67.939
-65.557
-61.683
-56.317
-49.586
-41.851
-33.747
-25.841
-18.875
-13.716
-10.652
-9.567
-10.201
-12.079
-14.722
-17.73
-20.589
-22.744
-23.906
-23.965
-22.934
-20.964
-18.165
-14.621
-10.465
-5.85
-0.909
4.238
9.497
14.8
20.059
25.174
30.049
34.588
38.738
42.481
45.819
48.779
51.392
53.693
55.734
57.57
59.258
60.85
62.394
63.928
65.497
67.146
68.919
70.863
73.003
75.355
77.923
80.704
83.692
86.877
90.242
93.763
97.42
101.193
105.065
109.02
113.036
117.093
121.165
125.229
129.26
133.238
137.14
140.942
144.623
148.162
151.538
154.734
157.728
160.502
163.036
165.31
167.308
169.012
170.407
171.481
172.22
172.616
172.662
172.351
171.681
170.649
169.257
167.507
165.403
162.95
160.158
157.036
153.594
149.846
145.806
141.491
136.918
132.104
127.07
121.835
116.422
110.853
105.148
99.332
93.428
87.458
81.445
75.413
69.384
63.379
57.421
51.531
45.728
40.03
34.457
29.024
23.747
18.64
13.717
8.988
4.463
0.153
-3.936
-7.797
-11.426
-14.819
-17.973
-20.889
-23.565
-26.004
-28.207
-30.18
-31.927
-33.452
-34.764
-35.869
-36.775
-37.49
-38.025
-38.389
-38.592
-38.644
-38.556
-38.338
-38.002
-37.557
-37.015
-36.387
-35.681
-34.908
-34.079
-33.201
-32.283
-31.335
-30.363
-29.374
-28.377
-27.376
-26.377
-25.386
-24.407
-23.444
-22.5
-21.578
-20.681
-19.811
-18.969
-18.156
-17.375
-16.624
-15.905
-15.218
-14.563
-13.939
-13.346
-12.783
-12.25
-11.746
-11.271
-10.824
-10.404
-10.01
-9.642
-9.3
-8.984
-8.692
-8.426
-8.185
-7.968
-7.778
-7.613
-7.475
-7.364
-7.28
-7.225
-7.199
-7.204
-7.238
-7.303
-7.4
-7.527
-7.684
-7.872
-8.088
-8.334
-8.606
-8.904
-9.226
-9.571
-9.936
-10.318
-10.716
-11.125
-11.543
-11.966
-12.391
-12.814
-13.229
-13.634
-14.023
-14.393
-14.738
-15.053
-15.333
-15.573
-15.768
-15.913
-16.002
-16.033
-16.001
-15.903
-15.737
-15.5
-15.193
-14.815
-14.367
-13.849
-13.264
-12.613
-11.899
-11.125
-10.294
-9.41
-8.476
-7.5
-6.486
-5.443
-4.375
-3.292
-2.2
-1.105
-0.017
1.059
2.112
3.137
4.128
5.077
5.976
6.812
7.58
8.277
8.904
9.465
9.966
10.411
10.812
11.186
11.55
11.92
12.308
12.721
13.167
13.655
14.2
14.82
15.526
16.316
17.179
18.101
19.068
20.059
21.037
21.944
22.721
23.309
23.657
23.729
23.484
22.883
21.895
20.48
18.6
16.231
13.362
9.979
6.099
1.722
-3.169
-8.455
-13.931
-19.316
-24.209
-28.266
-31.267
-32.887
-32.728
-30.736
-27.064
-22.143
-16.926
-12.112
-8.06
-5.424
-4.8
-6.185
-9.315
-13.249
-16.043
-16.235
-12.691
-3.683
12.147
35.487
66.684
104.735
147.294
192.223
236.88
277.393
309.928
330.571
335.511
322.469
290.189
237.733
165.694
76.468
-26.498
-138.253
-253.144
-366.03
-471.484
-564.057
-639.483
-694.624
-727.707
-738.916
-729.349
-700.612
-655.647
-598.106
-531.859
-461.185
-389.823
-320.569
-256.182
-198.997
-150.402
-111.265
-81.478
-59.863
-45.182
-36.187
-31.102
-28.235
-26.004
-22.821
-17.996
-11.606
-3.835
4.889
13.878
22.525
30.067
35.641
38.979
40.213
39.627
37.719
34.974
31.805
28.724
26.272
24.762
24.323
24.951
26.515
28.906
32.035
35.779
39.99
44.535
49.298
54.178
59.1
63.983
68.734
73.263
77.486
81.329
84.754
87.756
90.35
92.563
94.434
96.003
97.32
98.445
99.434
100.339
101.206
102.073
102.983
103.979
105.102
106.389
107.865
109.537
111.409
113.477
115.734
118.171
120.769
123.508
126.367
129.329
132.377
135.495
138.665
141.864
145.072
148.266
151.424
154.527
157.553
160.482
163.293
165.967
168.486
170.833
172.99
174.938
176.66
178.14
179.361
180.31
180.974
181.341
181.401
181.147
180.574
179.677
178.456
176.911
175.042
172.854
170.353
167.546
164.441
161.048
157.381
153.452
149.275
144.868
140.248
135.433
130.443
125.298
120.019
114.627
109.146
103.596
98.001
92.383
86.764
81.167
75.612
70.122
64.716
59.414
54.236
49.198
44.318
39.61
35.089
30.768
26.658
22.77
19.112
15.692
12.516
9.589
6.914
4.494
2.329
0.418
-1.241
-2.65
-3.814
-4.74
-5.433
-5.901
-6.152
-6.197
-6.046
-5.708
-5.196
-4.522
-3.698
-2.737
-1.652
-0.454
0.841
2.223
3.677
5.192
6.756
8.356
9.982
11.622
13.266
14.904
16.527
18.127
19.696
21.226
22.711
24.146
25.526
26.845
28.101
29.292
30.414
31.466
32.447
33.357
34.197
34.966
35.666
36.3
36.867
37.372
37.815
38.2
38.53
38.807
39.034
39.213
39.349
39.443
39.499
39.519
39.505
39.46
39.386
39.285
39.157
39.005
38.829
38.631
38.409
38.166
37.9
37.611
37.299
36.963
36.601
36.214
35.799
35.354
34.88
34.374
33.835
33.262
32.654
32.011
31.332
30.617
29.866
29.078
28.255
27.396
26.503
25.576
24.617
23.628
22.61
21.566
20.5
19.413
18.309
17.193
16.067
14.935
13.803
12.674
11.554
10.448
9.359
8.295
7.259
6.258
5.294
4.373
3.498
2.672
1.897
1.176
0.508
-0.106
-0.665
-1.171
-1.623
-2.024
-2.374
-2.676
-2.932
-3.144
-3.315
-3.452
-3.558
-3.639
-3.701
-3.748
-3.787
-3.824
-3.865
-3.918
-3.986
-4.072
-4.181
-4.32
-4.498
-4.72
-4.985
-5.29
-5.629
-5.999
-6.393
-6.799
-7.198
-7.571
-7.901
-8.176
-8.394
-8.549
-8.634
-8.635
-8.535
-8.332
-8.032
-7.647
-7.191
-6.674
-6.114
-5.552
-5.047
-4.662
-4.461
-4.486
-4.765
-5.337
-6.222
-7.466
-9.118
-11.208
-13.764
-16.797
-20.3
-24.3
-28.849
-33.889
-39.245
-44.649
-49.706
-54.089
-57.581
-59.896
-60.676
-59.707
-57.069
-53.184
-48.84
-44.826
-41.606
-39.606
-39.441
-41.469
-45.498
-50.779
-55.816
-58.844
-58.623
-53.929
-43.082
-24.874
1.216
34.981
74.856
118.599
164.126
208.565
247.902
278.149
295.324
295.947
278.036
240.125
181.257
102.28
5.858
-104.018
-221.957
-342.309
-459.765
-568.263
-661.966
-736.344
-788.124
-816.094
-820.801
-803.249
-765.317
-710.618
-643.533
-568.856
-491.501
-415.005
-342.295
-276.602
-220.417
-175.097
-140.904
-116.738
-100.844
-91.944
-88.469
-88.203
-88.994
-88.807
-86.438
-81.861
-75.439
-67.488
-58.572
-49.494
-41.21
-34.866
-31.02
-29.538
-30.085
-32.164
-35.256
-38.908
-42.538
-45.466
-47.305
-47.935
-47.369
-45.781
-43.308
-40.026
-36.078
-31.633
-26.836
-21.826
-16.706
-11.543
-6.433
-1.487
3.189
7.483
11.333
14.718
17.635
20.11
22.18
23.88
25.266
26.403
27.351
28.175
28.93
29.666
30.433
31.282
32.263
33.429
34.816
36.449
38.338
40.483
42.875
45.506
48.354
51.392
54.587
57.896
61.282
64.71
68.153
71.591
75.001
78.358
81.64
84.826
87.905
90.879
93.741
96.479
99.089
101.573
103.952
106.269
108.56
110.854
113.167
115.497
117.84
120.188
122.518
124.789
126.949
128.923
130.654
132.102
133.213
133.93
134.167
133.81
132.752
130.896
128.161
124.481
119.807
114.115
107.416
99.76
91.225
81.913
71.923
61.344
50.28
38.849
27.198
15.503
3.946
