183.799
176.827
170.171
164.283
159.256
155.164
151.718
148.416
145.047
141.446
137.365
132.801
127.818
122.467
117.036
111.857
107.063
102.734
98.91
95.531
92.59
90.064
87.817
85.705
83.599
81.389
79.041
76.553
73.899
71.057
68.01
64.745
61.29
57.668
53.886
49.946
45.838
41.575
37.211
32.797
28.378
23.995
19.666
15.407
11.246
7.193
3.252
-0.575
-4.303
-7.938
-11.473
-14.902
-18.214
-21.411
-24.506
-27.512
-30.435
-33.283
-36.059
-38.768
-41.42
-44.017
-46.552
-49.021
-51.416
-53.732
-55.97
-58.129
-60.207
-62.201
-64.108
-65.924
-67.649
-69.282
-70.821
-72.264
-73.61
-74.858
-76.011
-77.072
-78.044
-78.928
-79.728
-80.446
-81.088
-81.66
-82.167
-82.616
-83.017
-83.377
-83.707
-84.017
-84.316
-84.615
-84.923
-85.25
-85.604
-85.998
-86.445
-86.961
-87.56
-88.249
-89.033
-89.917
-90.9
-91.981
-93.149
-94.389
-95.688
-97.039
-98.437
-99.885
-101.379
-102.91
-104.466
-106.031
-107.594
-109.155
-110.715
-112.27
-113.825
-115.397
-117.008
-118.71
-120.538
-122.507
-124.624
-126.892
-129.314
-131.913
-134.719
-137.748
-141.008
-144.501
-148.216
-152.166
-156.361
-160.791
-165.433
-170.23
-175.115
-180.086
-185.186
-190.386
-195.581
-200.561
-204.998
-208.637
-211.325
-212.865
-212.986
-211.511
-208.505
-204.332
-199.698
-195.329
-191.608
-188.802
-187.344
-187.505
-189.16
-191.785
-194.177
-194.808
-192.761
-187.362
-177.413
-161.827
-139.873
-111.132
-77.251
-41.487
-6.03
27.716
60.132
93.117
125.35
150.679
158.542
137.95
83.277
-1.889
-104.719
-213.17
-320.141
-424.164
-530.649
-638.431
-738.412
-820.782
-873.419
-893.037
-886.623
-860.329
-821.385
-774.264
-717.999
-654.036
-585.219
-514.354
-446.259
-384.993
-332.929
-291.544
-260.863
-239.749
-226.674
-220.342
-219.088
-220.702
-223.056
-224.161
-222.844
-219.053
-213.147
-205.493
-196.711
-187.645
-179.253
-172.626
-168.31
-166.202
-165.988
-167.212
-169.393
-172.103
-174.816
-176.931
-178.088
-178.172
-177.199
-175.318
-172.661
-169.307
-165.385
-161.047
-156.424
-151.639
-146.787
-141.934
-137.154
-132.535
-128.159
-124.105
-120.439
-117.187
-114.351
-111.915
-109.845
-108.107
-106.659
-105.45
-104.421
-103.516
-102.681
-101.87
-101.04
-100.146
-99.139
-97.975
-96.612
-95.019
-93.18
-91.081
-88.715
-86.081
-83.18
-80.02
-76.611
-72.959
-69.067
-64.941
-60.593
-56.035
-51.284
-46.362
-41.292
-36.106
-30.842
-25.532
-20.199
-14.866
-9.541
-4.239
1.024
6.234
11.373
16.428
21.389
26.242
30.968
35.56
40.017
44.356
48.612
52.801
56.918
60.948
64.857
68.611
72.183
75.534
78.617
81.39
83.813
85.864
87.538
88.812
89.646
89.981
89.727
88.831
87.272
85.045
82.172
78.68
74.591
69.956
64.846
59.32
53.429
47.203
40.64
33.773
26.663
19.397
12.099
4.864
-2.249
-9.186
-15.914
-22.401
-28.615
-34.551
-40.23
-45.653
-50.81
-55.669
-60.158
-64.249
-67.944
-71.267
-74.278
-77.018
-79.505
-81.761
-83.803
-85.645
-87.305
-88.777
-90.039
-91.085
-91.926
-92.588
-93.128
-93.576
-93.94
-94.216
-94.379
-94.415
-94.326
-94.103
-93.742
-93.24
-92.598
-91.829
-90.962
-90.013
-88.99
-87.895
-86.715
-85.45
-84.109
-82.706
-81.262
-79.793
-78.312
-76.832
-75.374
-73.947
-72.562
-71.223
-69.925
-68.666
-67.451
-66.28
-65.16
-64.093
-63.077
-62.11
-61.191
-60.316
-59.482
-58.685
-57.917
-57.175
-56.454
-55.751
-55.066
-54.397
-53.74
-53.094
-52.456
-51.823
-51.194
-50.566
-49.937
-49.304
-48.666
-48.022
-47.37
-46.711
-46.044
-45.368
-44.683
-43.991
-43.29
-42.584
-41.871
-41.154
-40.433
-39.711
-38.989
-38.269
-37.552
-36.842
-36.14
-35.449
-34.771
-34.108
-33.462
-32.837
-32.233
-31.653
-31.098
-30.569
-30.069
-29.599
-29.159
-28.75
-28.374
-28.03
-27.719
-27.441
-27.195
-26.98
-26.796
-26.64
-26.511
-26.408
-26.328
-26.27
-26.231
-26.208
-26.2
-26.203
-26.214
-26.231
-26.249
-26.265
-26.276
-26.277
-26.264
-26.234
-26.183
-26.106
-26.002
-25.864
-25.69
-25.477
-25.22
-24.918
-24.566
-24.163
-23.707
-23.195
-22.629
-22.006
-21.327
-20.595
-19.811
-18.976
-18.095
-17.169
-16.202
-15.198
-14.16
-13.093
-12.0
-10.886
-9.756
-8.617
-7.475
-6.338
-5.21
-4.098
-3.009
-1.95
-0.928
0.051
0.983
1.865
2.693
3.46
4.159
4.785
5.341
5.828
6.25
6.612
6.92
7.184
7.426
7.664
7.915
8.194
8.506
8.861
9.27
9.746
10.304
10.954
11.689
12.504
13.398
14.359
15.371
16.399
17.384
18.263
18.976
19.468
19.694
19.611
19.184
18.37
17.121
15.401
13.184
10.446
7.186
3.391
-0.984
-5.863
-11.06
-16.31
-21.204
-25.387
-28.641
-30.649
-31.016
-29.657
-26.654
-22.372
-17.713
-13.333
-9.545
-6.935
-6.038
-6.867
-9.268
-12.421
-14.455
-14.009
-10.146
-1.269
14.028
36.603
67.191
104.315
144.221
184.288
222.683
259.35
295.921
330.302
355.873
362.144
338.264
279.758
190.588
82.265
-32.597
-145.547
-252.976
-355.374
-451.573
-537.315
-607.57
-657.281
-684.179
-688.877
-672.533
-637.089
-585.898
-522.862
-452.466
-379.495
-307.427
-239.112
-177.669
-125.484
-83.807
-52.85
-31.497
-17.909
-10.706
-8.288
-8.466
-9.219
-8.735
-5.971
-0.99
5.739
13.811
22.606
31.292
38.974
44.662
47.893
48.845
47.883
45.497
42.202
38.457
34.802
31.842
29.915
29.117
29.431
30.702
32.803
35.659
39.135
43.074
47.34
51.802
56.357
60.935
65.436
69.754
73.786
77.425
80.614
83.333
85.577
87.371
88.745
89.733
90.383
90.758
90.915
90.912
90.803
90.636
90.462
90.337
90.314
90.447
90.774
91.317
92.094
93.113
94.378
95.893
97.652
99.644
101.863
104.301
106.953
109.814
112.875
116.127
119.555
123.147
126.889
130.768
134.77
138.88
143.084
147.364
151.706
156.094
160.509
164.934
169.346
173.726
178.052
182.303
186.458
190.494
194.393
198.133
201.697
205.066
208.224
211.153
213.84
216.269
218.429
220.307
221.894
223.181
224.159
224.824
225.17
225.195
224.897
224.277
223.336
222.078
220.507
218.628
216.451
213.982
211.232
208.212
204.934
201.413
197.662
193.696
189.532
185.187
180.678
176.023
171.24
166.347
161.362
156.305
151.192
146.042
140.874
135.704
130.55
125.428
120.355
115.346
110.415
105.575
100.841
96.223
91.733
87.381
83.175
79.123
75.233
71.51
67.96
64.584
61.387
58.37
55.533
52.875
50.396
48.092
45.96
43.997
42.197
40.556
39.068
37.725
36.522
35.451
34.504
33.673
32.952
32.331
31.803
31.36
30.993
30.696
30.461
30.281
30.149
30.057
30.0
29.972
29.966
29.979
30.004
30.037
30.075
30.113
30.149
30.18
30.203
30.218
30.221
30.212
30.19
30.154
30.104
30.04
29.961
29.869
29.764
29.646
29.516
29.375
29.222
29.06
28.889
28.709
28.521
28.325
28.123
27.914
27.698
27.477
27.249
27.017
26.779
26.536
26.287
26.033
25.773
25.508
25.237
24.959
24.675
24.385
24.087
23.782
23.469
23.149
22.82
22.484
22.138
21.785
21.422
21.051
20.671
20.283
19.887
19.484
19.073
18.656
18.233
17.805
17.372
16.936
16.497
16.055
15.612
15.167
14.722
14.276
13.831
13.386
12.942
12.499
12.057
11.616
11.176
10.738
10.299
9.862
9.425
8.987
8.55
8.113
7.676
7.238
6.8
6.362
5.924
5.486
5.048
4.61
4.171
3.733
3.295
2.857
2.422
1.988
1.558
1.133
0.713
0.302
-0.1
-0.491
-0.868
-1.229
-1.571
-1.892
-2.188
-2.458
-2.696
-2.902
-3.072
-3.203
-3.294
-3.342
-3.347
-3.308
-3.225
-3.098
-2.928
-2.714
-2.46
-2.166
-1.834
-1.466
-1.064
-0.631
-0.17
0.317
0.824
1.347
1.882
2.423
2.965
3.504
4.031
4.541
5.029
5.492
5.926
6.326
6.687
7.001
7.263
7.474
7.635
7.745
7.808
7.828
7.815
7.786
7.759
7.749
7.764
7.808
7.887
8.007
8.18
8.417
8.723
9.092
9.519
10.001
10.53
11.085
11.634
12.114
12.455
12.6
12.501
12.122
11.439
10.411
8.988
7.125
4.777
1.919
-1.455
-5.387
-9.945
-15.118
-20.785
-26.687
-32.44
-37.683
-42.154
-45.558
-47.515
-47.767
-46.354
-43.643
-40.377
-37.359
-35.092
-34.015
-34.778
-37.765
-42.781
-49.087
-55.165
-59.147
-59.683
-55.433
-44.57
-25.713
1.75
37.664
80.445
127.683
177.165
225.967
269.938
304.878
326.781
332.182
318.936
285.724
231.742
157.437
66.244
-37.134
-148.644
-262.922
-376.764
-486.92
-584.834
-663.954
-718.065
-741.717
-738.558
-712.749
-668.479
-612.714
-547.531
-475.5
-401.116
-326.923
-257.235
-196.104
-145.379
-106.247
-78.475
-60.443
-50.323
-46.388
-46.47
-48.415
-50.326
-50.462
-48.001
-43.062
-36.095
-27.697
-18.722
-10.011
-2.441
3.041
6.087
6.862
5.704
3.145
-0.267
-4.068
-7.713
-10.627
-12.511
-13.271
-12.926
-11.633
-9.515
-6.655
-3.196
0.709
4.928
9.333
13.829
18.345
22.786
27.049
31.036
34.65
37.833
40.568
42.854
44.713
46.176
47.276
48.066
48.605
48.95
49.162
49.291
49.385
49.495
49.674
49.972
50.442
51.12
52.028
53.181
54.588
56.254
58.181
60.365
62.795
65.463
68.362
71.484
74.825
78.373
82.117
86.043
90.135
94.379
98.764
103.273
107.893
112.606
117.399
122.253
127.152
132.075
137.0
141.902
146.758
151.543
156.235
160.81
165.245
169.519
173.612
177.504
181.176
184.605
187.768
190.644
193.219
195.483
197.429
199.059
200.371
201.366
202.053
202.435
202.512
202.279
201.723
200.83
199.595
198.022
196.122
193.91
191.389
188.56
185.425
181.976
178.21
174.12
169.686
164.902
159.783
154.356
148.675
142.806
136.796
130.685
124.506
118.285
112.063
105.879
99.768
93.774
87.944
82.33
77.004
72.023
67.414
63.184
59.308
55.742
52.461
49.446
46.676
44.144
41.831
39.719
37.804
36.072
34.501
33.062
31.704
30.383
29.082
27.796
26.54
25.344
24.227
23.199
22.276
21.46
20.756
20.163
19.667
19.256
18.922
18.666
18.497
18.424
18.444
18.547
18.715
18.926
19.16
19.4
19.628
19.827
19.989
20.105
20.174
20.201
20.185
20.122
20.01
19.842
19.618
19.336
18.999
18.608
18.165
17.675
17.141
16.569
15.961
15.321
14.65
13.948
13.218
12.46
11.678
10.873
10.05
9.21
8.357
7.496
6.629
5.761
4.893
4.027
3.167
2.314
1.469
0.634
-0.189
-0.999
-1.795
-2.577
-3.342
-4.09
-4.821
-5.533
-6.225
-6.898
-7.552
-8.184
-8.797
-9.388
-9.958
-10.507
-11.035
-11.54
-12.024
-12.485
-12.925
-13.343
-13.74
-14.116
-14.473
-14.81
-15.129
-15.429
-15.711
-15.976
-16.222
-16.452
-16.665
-16.861
-17.041
-17.206
-17.355
-17.491
-17.613
-17.723
-17.82
-17.908
-17.985
-18.054
-18.117
-18.173
-18.226
-18.276
-18.325
-18.375
-18.427
-18.483
-18.544
-18.612
-18.686
-18.768
-18.86
-18.96
-19.071
-19.192
-19.326
-19.471
-19.628
-19.798
-19.981
-20.177
-20.385
-20.606
-20.838
-21.081
-21.334
-21.596
-21.866
-22.143
-22.425
-22.709
-22.994
-23.278
-23.559
-23.832
-24.098
-24.352
-24.593
-24.819
-25.03
-25.223
-25.4
-25.56
-25.704
-25.832
-25.946
-26.046
-26.136
-26.215
-26.287
-26.351
-26.412
-26.47
-26.529
-26.592
-26.662
-26.743
-26.837
-26.95
-27.084
-27.245
-27.435
-27.655
-27.908
-28.194
-28.518
-28.886
-29.3
-29.758
-30.259
-30.8
-31.376
-31.982
-32.605
-33.223
-33.816
-34.366
-34.859
-35.29
-35.65
-35.928
-36.111
-36.186
-36.145
-35.994
-35.738
-35.38
-34.929
-34.405
-33.848
-33.327
-32.915
-32.676
-32.664
-32.918
-33.47
-34.365
-35.659
-37.403
-39.641
-42.4
-45.69
-49.549
-54.039
-59.147
-64.737
-70.542
-76.179
-81.291
-85.622
-88.904
-90.784
-91.031
-89.684
-87.091
-83.947
-80.986
-78.642
-77.229
-77.202
-78.837
-81.936
-85.821
-89.152
-90.288
-87.994
-81.304
-69.093
-50.24
-24.089
9.215
48.664
91.655
134.591
175.443
212.333
243.982
271.359
290.868
295.352
278.385
232.146
156.067
58.666
-50.593
-162.344
-271.874
-380.772
-490.591
-597.295
-692.039
-764.553
-805.098
-812.482
-792.998
-753.088
-700.848
-640.906
-573.154
-499.805
-423.559
-347.621
-277.562
-217.17
-168.065
-131.167
-105.764
-90.133
-82.654
-81.402
-83.785
-87.473
-90.516
-91.231
-88.991
-84.007
-76.676
-67.702
-58.12
-48.856
-40.841
-34.947
-31.393
-29.981
-30.361
-31.991
-34.324
-36.895
-39.187
-40.707
-41.235
-40.725
-39.237
-36.943
-33.971
-30.426
-26.447
-22.177
-17.741
-13.244
-8.774
-4.396
-0.189
3.762
7.376
10.576
13.322
15.607
17.442
18.86
19.899
20.601
21.019
21.213
21.246
21.175
21.054
20.93
20.854
20.877
21.048
21.418
22.022
22.882
24.014
25.426
27.122
29.104
31.369
33.906
36.708
39.767
43.075
46.629
50.417
54.427
58.646
63.056
67.644
72.393
77.285
82.304
87.429
92.641
97.92
103.246
108.599
113.953
119.286
124.571
129.783
134.899
139.893
144.741
149.419
153.905
158.176
162.214
165.998
169.511
172.735
175.656
178.26
180.534
182.467
184.05
185.275
186.137
186.63
186.753
186.505
185.886
184.899
183.548
181.841
179.783
177.385
174.658
171.612
168.263
164.625
160.714
156.547
152.143
147.52
142.699
137.7
132.542
127.248
121.838
116.333
110.754
105.123
99.461
93.787
88.122
82.486
76.897
71.375
65.936
60.598
55.377
50.287
45.342
40.556
35.941
31.506
27.261
23.214
19.372
15.741
12.325
9.126
6.147
3.388
0.848
-1.473
-3.58
-5.476
-7.165
-8.652
-9.945
-11.05
-11.975
-12.728
-13.317
-13.753
-14.044
-14.2
-14.232
-14.15
-13.963
-13.683
-13.32
-12.884
-12.385
-11.834
-11.239
-10.61
-9.957
-9.288
-8.611
-7.934
-7.263
-6.606
-5.969
-5.358
-4.777
-4.231
-3.725
-3.261
-2.843
-2.473
-2.155
-1.888
-1.675
-1.516
-1.412
-1.362
-1.367
-1.426
-1.538
-1.701
-1.914
-2.175
-2.483
-2.833
-3.225
-3.656
-4.122
-4.62
-5.148
-5.703
-6.281
-6.88
-7.496
-8.126
-8.768
-9.417
-10.072
-10.729
-11.386
-12.039
-12.686
-13.325
-13.952
-14.566
-15.163
-15.741
-16.299
-16.833
-17.342
-17.825
-18.279
-18.702
-19.095
-19.454
-19.78
-20.072
-20.33
-20.552
-20.74
-20.892
-21.01
-21.095
-21.146
-21.164
-21.151
-21.108
-21.035
-20.934
-20.806
-20.653
-20.477
-20.279
-20.062
-19.828
-19.579
-19.317
-19.045
-18.767
-18.483
-18.199
-17.916
-17.637
-17.366
-17.104
-16.856
-16.624
-16.409
-16.214
-16.041
-15.892
-15.766
-15.666
-15.591
-15.543
-15.52
-15.522
-15.55
-15.603
-15.679
-15.777
-15.896
-16.034
-16.188
-16.357
-16.538
-16.727
-16.92
-17.115
-17.308
-17.494
-17.669
-17.828
-17.966
-18.078
-18.16
-18.204
-18.208
-18.165
-18.072
-17.924
-17.72
-17.455
-17.129
-16.741
-16.291
-15.78
-15.207
-14.575
-13.884
-13.137
-12.336
-11.483
-10.582
-9.637
-8.654
-7.639
-6.598
-5.539
-4.468
-3.393
-2.321
-1.259
-0.216
0.802
1.787
2.731
3.625
4.456
5.215
5.901
6.511
7.046
7.511
7.909
8.249
8.547
8.813
9.06
9.296
9.526
9.758
10.002
10.27
10.577
10.929
11.324
11.757
12.218
12.691
13.158
13.587
13.931
14.147
14.198
14.04
13.635
12.94
11.906
10.496
8.685
6.45
3.769
0.623
-3.008
-7.129
-11.71
-16.733
-22.201
-28.021
-34.029
-39.965
-45.415
-50.01
-53.519
-55.616
-55.917
-54.374
-51.124
-46.6
-41.803
-37.48
-34.021
-32.093
-32.289
-34.579
-38.694
-43.661
-47.404
-48.423
-45.694
-37.483
-22.307
0.665
32.046
70.198
111.182
152.271
191.577
228.782
265.336
299.257
323.992
329.123
303.882
243.488
152.241
42.897
-71.482
-183.206
-291.819
-402.358
-515.37
-623.798
-714.64
-773.955
-795.401
-781.881
-743.115
-689.576
-628.247
-561.984
-490.644
-415.336
-339.051
-266.045
-201.323
-148.095
-107.415
-78.975
-61.053
-51.529
-48.593
-49.958
-53.239
-56.362
-57.462
-55.661
-51.078
-44.178
-35.616
-26.316
-17.189
-9.181
-3.266
0.214
1.422
0.706
-1.38
-4.275
-7.499
-10.491
-12.686
-13.802
-13.753
-12.575
-10.436
-7.466
-3.766
0.508
5.193
10.147
15.247
20.396
25.52
30.525
35.31
39.776
43.834
47.436
50.562
53.214
55.416
57.2
58.606
59.686
60.501
61.109
61.568
61.93
62.24
62.546
62.899
63.348
63.942
64.715
65.688
66.878
68.294
69.94
71.819
73.926
76.251
78.783
81.516
84.444
87.567
90.882
94.381
98.053
101.884
105.859
109.961
114.166
118.444
122.762
127.094
131.42
135.724
140.0
144.235
148.419
152.546
156.598
160.563
164.431
168.183
171.81
175.312
178.695
181.982
185.204
188.372
191.487
194.541
197.504
200.345
203.026
205.491
207.7
209.619
211.213
212.466
213.359
213.86
213.933
213.528
212.584
211.067
208.958
206.247
202.956
199.117
194.778
190.017
184.901
179.484
173.819
167.94
161.882
155.692
149.419
143.119
136.86
130.696
124.671
118.826
113.181
107.741
102.502
97.433
92.506
87.713
83.043
78.501
74.094
69.822
65.686
61.689
57.824
54.086
50.473
46.976
43.597
40.346
37.233
34.28
31.508
28.928
26.547
24.365
22.381
20.59
18.987
17.56
16.3
15.2
14.251
13.448
12.783
12.246
11.825
11.508
11.279
11.126
11.039
11.005
11.015
11.059
11.13
11.222
11.327
11.441
11.555
11.662
11.756
11.83
11.878
11.895
11.875
11.813
11.707
11.554
11.351
11.096
10.789
10.428
10.014
9.545
9.023
8.448
7.822
7.145
6.42
5.648
4.832
3.974
3.077
2.144
1.177
0.179
-0.847
-1.898
-2.97
-4.062
-5.169
-6.288
-7.417
-8.55
-9.686
-10.82
-11.95
-13.071
-14.181
-15.277
-16.357
-17.418
-18.458
-19.474
-20.464
-21.427
-22.362
-23.266
-24.138
-24.977
-25.783
-26.554
-27.29
-27.991
-28.657
-29.287
-29.881
-30.44
-30.964
-31.454
-31.911
-32.335
-32.728
-33.091
-33.426
-33.736
-34.021
-34.285
-34.529
-34.755
-34.967
-35.167
-35.356
-35.538
-35.713
-35.886
-36.058
-36.232
-36.41
-36.594
-36.787
-36.991
-37.209
-37.442
-37.692
-37.961
-38.25
-38.562
-38.898
-39.258
-39.644
-40.057
-40.496
-40.962
-41.455
-41.973
-42.516
-43.08
-43.666
-44.27
-44.89
-45.521
-46.162
-46.809
-47.46
-48.113
-48.763
-49.408
-50.044
-50.668
-51.277
-51.866
-52.429
-52.959
-53.451
-53.9
-54.302
-54.651
-54.943
-55.173
-55.339
-55.439
-55.472
-55.434
-55.319
-55.12
-54.835
-54.47
-54.033
-53.533
-52.974
-52.364
-51.713
-51.034
-50.336
-49.621
-48.882
-48.108
-47.298
-46.458
-45.605
-44.751
-43.903
-43.055
-42.2
-41.336
-40.463
-39.574
-38.654
-37.683
-36.654
-35.581
-34.5
-33.442
-32.423
-31.445
-30.501
-29.578
-28.677
-27.804
-26.963
-26.154
-25.381
-24.655
-24.005
-23.458
-23.025
-22.694
-22.429
-22.201
-22.009
-21.854
-21.758
-21.757
-21.878
-22.156
-22.645
-23.381
-24.397
-25.722
-27.347
-29.281
-31.558
-34.214
-37.311
-40.894
-44.949
-49.493
-54.569
-60.103
-65.95
-71.861
-77.409
-82.239
-86.134
-88.79
-89.867
-89.223
-86.897
-83.256
-79.17
-75.403
-72.4
-70.686
-70.756
-72.778
-76.604
-81.454
-85.558
-87.199
-85.202
-78.025
-64.089
-42.498
-12.582
24.596
65.409
107.681
150.278
192.189
234.351
272.737
298.738
304.342
280.445
225.45
146.056
49.823
-52.801
-156.547
-262.683
-371.116
-482.804
-592.58
-688.547
-761.034
-800.778
-806.25
-784.73
-743.047
-689.471
-629.062
-561.473
-488.563
-412.794
-337.194
-267.352
-207.002
-157.655
-120.134
-93.626
-76.419
-67.011
-63.612
-63.805
-65.447
-66.728
-66.052
-62.847
-57.331
-49.868
-41.103
-31.981
-23.328
-15.994
-10.81
-7.973
-7.266
-8.334
-10.63
-13.606
-16.808
-19.719
-21.833
-22.917
-22.906
-21.85
-19.915
-17.226
-13.883
-10.025
-5.802
-1.342
3.24
7.846
12.404
16.825
21.014
24.884
28.351
31.371
33.93
36.041
37.733
39.044
40.017
40.705
41.168
41.468
41.664
41.809
41.952
42.143
42.432
42.872
43.51
44.38
45.503
46.893
48.555
50.49
52.699
55.175
57.906
60.883
64.096
67.537
71.2
75.074
79.146
83.4
87.821
92.392
97.099
101.924
106.85
111.857
116.928
122.043
127.182
132.326
137.452
142.536
147.555
152.485
157.302
161.984
166.508
170.851
174.992
178.912
182.592
186.015
189.163
192.023
194.581
196.823
198.739
200.319
201.556
202.443
202.976
203.15
202.965
202.422
201.522
200.269
198.668
196.728
194.456
191.864
188.962
185.764
182.285
178.541
174.547
170.323
165.887
161.259
156.458
151.506
146.423
141.229
135.947
130.597
125.2
119.776
114.346
108.929
103.546
98.214
92.953
87.779
82.709
77.759
72.944
68.276
63.769
59.432
55.277
51.312
47.543
43.977
40.618
37.469
34.532
31.807
29.294
26.991
24.894
22.999
21.301
19.794
18.471
17.323
16.344
15.523
14.852
14.32
13.918
13.635
13.461
13.384
13.394
13.481
13.633
13.84
14.092
14.38
14.693
15.022
15.36
15.699
16.03
16.347
16.644
16.915
17.157
17.364
17.533
17.661
17.747
17.789
17.786
17.737
17.643
17.504
17.321
17.096
16.829
16.524
16.181
15.804
15.396
14.958
14.494
14.008
13.501
12.977
12.44
11.893
11.338
10.778
10.217
9.656
9.099
8.548
8.005
7.472
6.951
6.444
5.95
5.473
5.012
4.569
4.143
3.735
3.346
2.975
2.622
2.287
1.971
1.672
1.391
1.127
0.88
0.649
0.434
0.234
0.049
-0.123
-0.281
-0.426
-0.559
-0.682
-0.793
-0.895
-0.988
-1.074
-1.151
-1.223
-1.289
-1.349
-1.406
-1.46
-1.511
-1.56
-1.609
-1.657
-1.706
-1.757
-1.811
-1.869
-1.931
-2.0
-2.075
-2.158
-2.251
-2.353
-2.467
-2.592
-2.729
-2.88
-3.043
-3.219
-3.408
-3.609
-3.822
-4.046
-4.281
-4.524
-4.775
-5.033
-5.295
-5.559
-5.823
-6.086
-6.343
-6.592
-6.83
-7.055
-7.262
-7.448
-7.61
-7.743
-7.845
-7.91
-7.936
-7.918
-7.853
-7.737
-7.567
-7.342
-7.058
-6.715
-6.312
-5.85
-5.33
-4.752
-4.118
-3.43
-2.692
-1.906
-1.076
-0.205
0.703
1.642
2.607
3.59
4.585
5.585
6.584
7.573
8.545
9.49
10.402
11.275
12.103
12.88
13.598
14.247
14.821
15.318
15.739
16.084
16.353
16.55
16.683
16.768
16.82
16.854
16.882
16.906
16.935
16.977
17.045
17.152
17.302
17.491
17.713
17.963
18.234
18.514
18.771
18.954
19.01
18.881
18.523
17.897
16.963
15.688
14.036
11.959
9.428
6.418
2.906
-1.109
-5.647
-10.751
-16.375
-22.36
-28.465
-34.327
-39.605
-44.071
-47.455
-49.393
-49.676
-48.353
-45.751
-42.572
-39.554
-37.087
-35.512
-35.393
-37.065
-40.402
-44.82
-48.967
-51.131
-50.225
-45.363
-34.952
-17.561
7.43
40.278
79.067
119.791
160.718
200.692
238.412
274.89
305.896
322.569
317.24
281.361
213.753
122.851
18.545
-89.453
-196.269
-303.494
-413.018
-521.0
-618.175
-693.555
-736.901
-746.994
-730.51
-694.355
-646.674
-591.746
-529.131
-460.781
-389.188
-317.383
-250.57
-192.204
-143.909
-106.736
-80.194
-62.831
-53.216
-49.725
-50.204
-52.657
-55.277
-56.336
-55.054
-51.494
-45.936
-38.921
-31.276
-23.757
-17.215
-12.566
-10.118
-9.731
-11.11
-13.747
-17.133
-20.836
-24.335
-27.088
-28.826
-29.461
-29.025
-27.681
-25.549
-22.724
-19.344
-15.563
-11.514
-7.311
-3.044
1.221
5.401
9.405
13.144
16.535
19.535
22.129
24.323
26.146
27.629
28.813
29.749
30.494
31.107
31.642
32.15
32.675
33.263
33.964
34.823
35.887
37.187
38.74
40.56
42.648
45.007
47.634
50.52
53.653
57.02
60.612
64.417
68.428
72.632
77.013
81.556
86.242
91.056
95.98
100.996
106.086
111.23
116.409
121.603
126.794
131.959
137.077
142.124
147.077
151.913
156.607
161.139
165.485
169.625
173.537
177.203
180.606
183.729
186.557
189.075
191.273
193.139
194.663
195.838
196.658
197.118
197.216
196.95
196.321
195.331
193.984
192.285
190.241
187.861
185.155
182.135
178.812
175.202
171.319
167.18
162.803
158.206
153.408
148.43
143.291
138.012
132.615
127.12
121.548
115.919
110.255
104.576
98.9
93.248
87.638
82.087
76.614
71.234
65.962
60.814
55.802
50.939
46.237
41.705
37.353
33.189
29.219
25.45
21.885
18.527
15.38
12.442
9.714
7.195
4.881
2.769
0.855
-0.868
-2.404
-3.761
-4.946
-5.967
-6.833
-7.551
-8.131
-8.582
-8.914
-9.134
-9.254
-9.282
-9.227
-9.099
-8.906
-8.657
-8.361
-8.026
-7.659
-7.269
-6.863
-6.449
-6.031
-5.618
-5.214
-4.824
-4.454
-4.108
-3.789
-3.5
-3.246
-3.028
-2.848
-2.709
-2.611
-2.556
-2.544
-2.577
-2.654
-2.776
-2.943
-3.154
-3.408
-3.707
-4.048
-4.432
-4.857
-5.322
-5.827
-6.369
-6.947
-7.56
-8.205
-8.881
-9.586
-10.317
-11.073
-11.85
-12.647
-13.462
-14.292
-15.134
-15.988
-16.849
-17.716
-18.587
-19.459
-20.331
-21.199
-22.061
-22.916
-23.76
-24.593
-25.412
-26.216
-27.001
-27.767
-28.512
-29.233
-29.931
-30.603
-31.249
-31.869
-32.46
-33.025
-33.561
-34.071
-34.554
-35.01
-35.441
-35.846
-36.226
-36.583
-36.917
-37.227
-37.516
-37.784
-38.031
-38.258
-38.465
-38.654
-38.825
-38.978
-39.114
-39.233
-39.334
-39.418
-39.485
-39.535
-39.566
-39.578
-39.571
-39.543
-39.494
-39.421
-39.323
-39.197
-39.041
-38.853
-38.631
-38.373
-38.076
-37.738
-37.36
-36.94
-36.477
-35.973
-35.429
-34.845
-34.222
-33.562
-32.867
-32.139
-31.38
-30.592
-29.779
-28.943
-28.09
-27.224
-26.352
-25.479
-24.61
-23.751
-22.907
-22.086
-21.292
-20.531
-19.809
-19.132
-18.509
-17.949
-17.46
-17.043
-16.699
-16.424
-16.214
-16.062
-15.958
-15.886
-15.832
-15.784
-15.731
-15.667
-15.582
-15.465
-15.306
-15.085
-14.794
-14.435
-14.007
-13.526
-13.011
-12.48
-11.966
-11.524
-11.199
-11.035
-11.082
-11.376
-11.959
-12.882
-14.181
-15.888
-18.032
-20.635
-23.718
-27.293
-31.356
-35.873
-40.813
-46.154
-51.788
-57.537
-63.135
-68.191
-72.36
-75.416
-77.044
-76.878
-74.871
-71.14
-66.084
-60.635
-55.474
-50.96
-47.759
-46.461
-47.065
-49.364
-52.488
-54.499
-54.033
-50.19
-41.226
-25.586
-2.628
28.205
65.369
104.702
144.326
183.142
219.822
255.506
286.117
302.786
297.811
262.554
195.812
106.163
3.487
-101.703
-204.023
-306.464
-411.823
-518.553
-619.38
-700.284
-748.704
-760.5
-739.422
-696.162
-642.092
-583.666
-522.974
-459.28
-392.519
-324.904
-260.32
-203.004
-155.438
-118.421
-91.532
-73.252
-62.069
-56.615
-54.956
-55.205
-55.675
-54.747
-51.723
-46.69
-39.912
-31.889
-23.387
-15.119
-7.903
-2.619
0.439
1.4
0.546
-1.635
-4.663
-8.124
-11.512
-14.296
-16.175
-17.029
-16.865
-15.811
-13.974
-11.437
-8.319
-4.761
-0.889
3.191
7.389
11.64
15.873
20.001
23.942
27.617
30.961
33.938
36.542
38.788
40.7
42.315
43.674
44.825
45.827
46.736
47.603
48.475
49.39
50.393
51.527
52.835
54.356
56.117
58.131
60.405
62.943
65.741
68.796
72.097
75.628
79.375
83.326
87.468
91.791
96.28
100.918
105.687
110.569
115.544
120.594
125.699
130.841
135.997
141.147
146.271
151.35
156.36
161.28
166.086
170.756
175.266
179.595
183.722
187.625
191.285
194.683
197.803
200.63
203.149
205.348
207.216
208.743
209.92
210.743
211.205
211.303
211.036
210.404
209.409
208.053
206.342
204.283
201.884
199.156
196.108
192.754
189.109
185.188
181.007
176.583
171.937
167.086
162.051
156.853
151.513
146.051
140.491
134.852
129.156
123.425
117.678
111.937
106.22
100.547
94.936
89.406
83.973
78.654
73.463
68.414
63.522
58.798
54.253
49.895
45.735
41.778
38.03
34.496
31.179
28.08
25.2
22.539
20.094
17.862
15.84
14.021
12.401
10.972
9.727
8.658
7.755
7.01
6.413
5.954
5.623
5.409
5.302
5.291
5.366
5.516
5.73
5.998
6.311
6.658
7.03
7.418
7.814
8.209
8.597
8.97
9.322
9.648
9.942
10.2
10.418
10.593
10.721
10.802
10.833
10.814
10.743
10.62
10.445
10.22
9.944
9.619
9.247
8.827
8.364
7.858
7.311
6.727
6.107
5.454
4.77
4.059
3.322
2.564
1.785
0.989
0.179
-0.644
-1.476
-2.317
-3.163
-4.013
-4.865
-5.717
-6.568
-7.417
-8.262
-9.103
-9.938
-10.766
-11.588
-12.401
-13.207
-14.003
-14.791
-15.568
-16.335
-17.092
-17.837
-18.572
-19.296
-20.009
-20.712
-21.404
-22.086
-22.758
-23.421
-24.075
-24.722
-25.361
-25.993
-26.619
-27.24
-27.856
-28.468
-29.077
-29.682
-30.285
-30.886
-31.485
-32.082
-32.677
-33.269
-33.858
-34.444
-35.026
-35.604
-36.176
-36.743
-37.303
-37.855
-38.399
-38.933
-39.455
-39.964
-40.458
-40.935
-41.392
-41.827
-42.238
-42.622
-42.976
-43.297
-43.582
-43.827
-44.031
-44.19
-44.3
-44.359
-44.365
-44.315
-44.207
-44.042
-43.818
-43.536
-43.197
-42.802
-42.353
-41.851
-41.299
-40.698
-40.053
-39.367
-38.641
-37.879
-37.087
-36.268
-35.43
-34.579
-33.718
-32.856
-31.998
-31.151
-30.324
-29.522
-28.75
-28.013
-27.316
-26.665
-26.071
-25.537
-25.064
-24.652
-24.299
-24.003
-23.759
-23.559
-23.384
-23.218
-23.044
-22.852
-22.638
-22.393
-22.11
-21.776
-21.377
-20.909
-20.378
-19.789
-19.147
-18.461
-17.744
-17.032
-16.379
-15.843
-15.484
-15.353
-15.49
-15.937
-16.726
-17.897
-19.501
-21.575
-24.149
-27.248
-30.875
-35.053
-39.831
-45.157
-50.857
-56.664
-62.18
-67.056
-71.072
-73.95
-75.316
-74.97
-72.977
-69.729
-66.01
-62.554
-59.718
-57.851
-57.519
-59.051
-62.298
-66.528
-70.192
-71.624
-69.829
-63.724
-51.609
-32.058
-4.217
31.15
71.094
112.644
154.234
196.477
240.268
283.411
319.61
337.465
325.668
279.405
200.832
100.538
-7.972
-117.017
-224.074
-331.07
-441.231
-549.815
-646.301
-719.977
-760.605
-767.318
-747.545
-708.492
-658.703
-602.781
-540.131
-472.486
-402.034
-331.551
-266.223
-209.42
-162.558
-126.528
-100.709
-83.619
-73.947
-70.157
-70.124
-71.936
-73.891
-74.34
-72.578
-68.682
-62.878
-55.685
-47.92
-40.306
-33.655
-28.835
-26.097
-25.29
-26.127
-28.094
-30.684
-33.466
-35.916
-37.535
-38.093
-37.524
-35.886
-33.346
-30.03
-26.047
-21.551
-16.704
-11.648
-6.502
-1.359
3.7
8.577
13.168
17.373
21.125
24.397
27.182
29.499
31.379
32.854
33.976
34.803
35.391
35.798
36.074
36.267
36.428
36.612
36.873
37.265
37.832
38.6
39.592
40.819
42.286
43.999
45.952
48.136
50.544
53.171
56.016
59.081
62.361
65.847
69.527
73.381
77.389
81.525
85.761
90.069
94.422
98.801
103.191
107.587
111.981
116.366
120.729
125.045
129.295
133.46
137.523
141.473
145.308
149.034
152.663
156.214
159.695
163.101
166.414
169.595
172.599
175.374
177.875
180.073
181.942
183.46
184.605
185.357
185.685
185.557
184.93
183.754
181.993
179.631
176.674
173.155
169.125
164.652
159.798
154.615
149.152
143.448
137.543
131.475
125.287
119.023
112.739
106.504
100.376
94.403
88.616
83.026
77.628
72.405
67.339
62.422
57.646
53.014
48.532
44.206
40.045
36.058
32.246
28.599
25.11
21.77
18.578
15.541
12.67
9.981
7.49
5.207
3.142
1.294
-0.338
-1.761
-2.984
-4.022
-4.885
-5.584
-6.125
-6.518
-6.77
-6.895
-6.904
-6.81
-6.628
-6.37
-6.05
-5.681
-5.271
-4.831
-4.368
-3.888
-3.397
-2.9
-2.403
-1.912
-1.432
-0.968
-0.525
-0.107
0.284
0.643
0.971
1.265
1.525
1.751
1.944
2.104
2.233
2.332
2.403
2.447
2.465
2.461
2.435
2.39
2.327
2.249
2.157
2.053
1.937
1.812
1.679
1.537
1.389
1.233
1.07
0.902
0.727
0.546
0.36
0.168
-0.029
-0.232
-0.441
-0.656
-0.878
-1.107
-1.343
-1.588
-1.841
-2.103
-2.375
-2.657
-2.948
-3.25
-3.561
-3.882
-4.214
-4.555
-4.905
-5.263
-5.63
-6.004
-6.384
-6.77
-7.161
-7.555
-7.952
-8.351
-8.752
-9.153
-9.554
-9.954
-10.354
-10.752
-11.148
-11.541
-11.932
-12.321
-12.707
-13.089
-13.47
-13.847
-14.222
-14.594
-14.964
-15.331
-15.695
-16.056
-16.414
-16.769
-17.121
-17.468
-17.813
-18.153
-18.489
-18.82
-19.147
-19.467
-19.781
-20.088
-20.385
-20.672
-20.947
-21.208
-21.455
-21.684
-21.895
-22.084
-22.249
-22.389
-22.501
-22.582
-22.631
-22.646
-22.624
-22.566
-22.47
-22.337
-22.166
-21.959
-21.719
-21.445
-21.139
-20.805
-20.444
-20.06
-19.654
-19.23
-18.79
-18.339
-17.882
-17.424
-16.97
-16.524
-16.092
-15.678
-15.289
-14.931
-14.608
-14.323
-14.08
-13.881
-13.731
-13.638
-13.603
-13.624
-13.699
-13.822
-13.989
-14.195
-14.429
-14.674
-14.912
-15.126
-15.306
-15.447
-15.54
-15.576
-15.544
-15.428
-15.224
-14.938
-14.575
-14.142
-13.644
-13.094
-12.521
-11.976
-11.506
-11.17
-11.009
-11.058
-11.355
-11.926
-12.81
-14.054
-15.693
-17.758
-20.274
-23.248
-26.713
-30.727
-35.251
-40.13
-45.114
-49.825
-53.921
-57.164
-59.273
-59.892
-58.832
-56.2
-52.418
-48.261
-44.523
-41.68
-40.139
-40.457
-42.909
-47.204
-52.517
-57.343
-59.912
-58.915
-53.186
-41.297
-22.073
5.084
39.844
80.878
125.351
169.453
210.75
246.77
276.181
300.184
315.044
313.656
289.407
233.916
148.162
43.121
-71.486
-185.659
-296.601
-409.45
-523.173
-631.043
-720.666
-777.08
-794.184
-775.651
-731.914
-674.712
-611.534
-544.816
-473.88
-399.26
-323.707
-251.6
-187.992
-135.972
-96.411
-68.841
-51.51
-42.405
-39.787
-41.339
-44.687
-47.771
-48.753
-46.822
-42.102
-35.01
-26.192
-16.588
-7.115
1.255
7.537
11.387
12.946
12.542
10.711
7.993
4.854
1.841
-0.503
-1.882
-2.194
-1.467
0.148
2.528
5.574
9.152
13.118
17.343
21.719
26.158
30.593
34.949
39.141
43.089
46.719
49.969
52.808
55.236
57.268
58.935
60.276
61.335
62.164
62.823
63.371
63.86
64.342
64.858
65.454
66.175
67.064
68.163
69.498
71.086
72.936
75.052
77.432
80.076
82.974
86.114
89.483
93.07
96.864
100.856
105.036
109.389
113.903
118.555
123.324
128.194
133.143
138.15
143.195
148.253
153.297
158.313
163.281
168.183
173.003
177.712
182.284
186.695
190.917
194.936
198.739
202.304
205.615
208.66
211.429
213.918
216.127
218.033
219.614
220.852
221.728
222.24
222.387
222.165
221.572
220.603
219.253
217.527
215.437
212.976
210.148
206.949
203.371
199.448
195.211
190.686
185.906
180.889
175.653
170.229
164.645
158.925
153.098
147.183
141.198
135.18
129.158
123.168
117.247
111.404
105.644
99.985
94.436
89.013
83.736
78.61
73.643
68.85
64.242
59.834
55.639
51.657
47.891
44.339
40.998
37.877
34.981
32.311
29.867
27.648
25.649
23.869
22.306
20.951
19.792
18.82
18.022
17.39
16.916
16.587
16.394
16.325
16.366
16.507
16.737
17.042
17.412
17.835
18.298
18.794
19.313
19.846
20.385
20.922
21.449
21.961
22.451
22.914
23.344
23.737
24.089
24.398
24.661
24.875
25.041
25.156
25.222
25.237
25.203
25.121
24.991
24.815
24.595
24.333
24.031
23.691
23.315
22.905
22.463
21.993
21.495
20.972
20.426
19.86
19.274
18.67
18.05
17.415
16.766
16.106
15.434
14.753
14.062
13.364
12.658
11.945
11.227
10.503
9.774
9.04
8.302
7.56
6.815
6.067
5.317
4.564
3.81
3.055
2.298
1.542
0.785
0.029
-0.726
-1.48
-2.231
-2.98
-3.727
-4.469
-5.207
-5.94
-6.668
-7.391
-8.107
-8.817
-9.521
-10.218
-10.908
-11.592
-12.268
-12.938
-13.602
-14.26
-14.912
-15.56
-16.204
-16.845
-17.485
-18.123
-18.76
-19.398
-20.038
-20.68
-21.324
-21.97
-22.62
-23.272
-23.928
-24.587
-25.248
-25.912
-26.578
-27.246
-27.914
-28.582
-29.248
-29.912
-30.571
-31.224
-31.87
-32.506
-33.131
-33.742
-34.337
-34.913
-35.467
-35.996
-36.497
-36.967
-37.401
-37.798
-38.153
-38.464
-38.73
-38.947
-39.115
-39.233
-39.302
-39.322
-39.294
-39.22
-39.099
-38.934
-38.729
-38.484
-38.202
-37.886
-37.54
-37.169
-36.779
-36.376
-35.964
-35.551
-35.141
-34.742
-34.358
-33.997
-33.662
-33.36
-33.097
-32.88
-32.72
-32.623
-32.589
-32.618
-32.707
-32.849
-33.035
-33.254
-33.488
-33.724
-33.95
-34.155
-34.334
-34.48
-34.582
-34.63
-34.609
-34.509
-34.331
-34.081
-33.766
-33.408
-33.031
-32.663
-32.351
-32.139
-32.059
-32.149
-32.445
-32.971
-33.764
-34.856
-36.265
-38.021
-40.147
-42.655
-45.566
-48.873
-52.544
-56.567
-60.942
-65.6
-70.411
-75.155
-79.495
-83.126
-85.831
-87.348
-87.34
-85.598
-82.184
-77.453
-72.125
-67.0
-62.556
-59.211
-57.627
-58.237
-60.937
-65.136
-69.452
-72.055
-71.756
-67.593
-57.845
-40.959
-16.244
16.571
55.52
96.506
137.733
178.016
215.993
252.555
283.342
299.557
293.629
256.916
188.201
95.924
-10.102
-119.278
-226.128
-333.526
-444.229
-556.513
-662.66
-748.061
-799.528
-812.553
-790.894
-745.519
-688.154
-625.555
-560.029
-491.013
-418.715
-345.699
-276.239
-214.951
-164.558
-125.932
-98.6
-80.866
-70.974
-67.319
-67.709
-70.009
-72.353
-72.991
-71.157
-66.95
-60.689
-52.951
-44.597
-36.427
-29.314
-24.158
-21.23
-20.364
-21.23
-23.285
-25.991
-28.889
-31.439
-33.125
-33.709
-33.127
-31.44
-28.821
-25.403
-21.302
-16.675
-11.688
-6.487
-1.194
4.096
9.295
14.305
19.018
23.331
27.179
30.534
33.389
35.765
37.694
39.212
40.375
41.244
41.88
42.341
42.685
42.961
43.225
43.535
43.942
44.503
45.261
46.242
47.468
48.953
50.699
52.71
54.983
57.508
60.278
63.289
66.53
69.997
73.683
77.583
81.69
85.993
90.472
95.105
99.872
104.753
109.728
114.771
119.855
124.956
130.058
135.15
140.225
145.267
150.251
155.143
159.913
164.538
169.006
173.308
177.43
181.359
185.087
188.617
191.962
195.118
198.058
200.734
203.101
205.129
206.803
208.118
209.066
209.63
209.791
209.533
208.852
207.743
206.189
204.162
201.625
198.57
195.023
191.039
186.672
181.96
176.932
171.611
166.033
160.236
154.257
148.123
141.855
135.481
129.045
122.603
116.216
109.925
103.743
97.663
91.68
85.805
80.048
74.422
68.93
63.577
58.373
53.34
48.501
43.867
39.444
35.223
31.196
27.365
23.738
20.333
17.161
14.227
11.537
9.093
6.903
4.969
3.286
1.842
0.622
-0.383
-1.181
-1.778
-2.182
-2.404
-2.456
-2.351
-2.102
-1.722
-1.224
-0.622
0.068
0.833
1.66
2.542
3.467
4.425
5.407
6.401
7.401
8.397
9.38
10.344
11.279
12.18
13.041
13.856
14.623
15.336
15.994
16.593
17.133
17.612
18.029
18.385
18.679
18.912
19.085
19.2
19.258
19.261
19.211
19.11
18.962
18.768
18.531
18.254
17.939
17.589
17.206
16.794
16.353
15.887
15.399
14.89
14.362
13.82
13.263
12.694
12.116
11.529
10.936
10.337
9.735
9.129
8.522
7.914
7.307
6.701
6.096
5.494
4.896
4.301
3.71
3.125
2.544
1.97
1.401
0.839
0.285
-0.263
-0.802
-1.334
-1.857
-2.372
-2.879
-3.377
-3.866
-4.346
-4.818
-5.282
-5.737
-6.184
-6.623
-7.056
-7.482
-7.902
-8.316
-8.726
-9.133
-9.536
-9.938
-10.339
-10.74
-11.143
-11.548
-11.957
-12.371
-12.791
-13.219
-13.655
-14.101
-14.557
-15.024
-15.503
-15.994
-16.497
-17.011
-17.538
-18.076
-18.624
-19.183
-19.752
-20.328
-20.911
-21.499
-22.091
-22.684
-23.275
-23.863
-24.444
-25.016
-25.576
-26.12
-26.644
-27.147
-27.622
-28.068
-28.479
-28.852
-29.184
-29.469
-29.706
-29.89
-30.021
-30.095
-30.112
-30.071
-29.972
-29.817
-29.606
-29.34
-29.02
-28.65
-28.231
-27.767
-27.259
-26.712
-26.131
-25.521
-24.889
-24.241
-23.586
-22.928
-22.276
-21.636
-21.016
-20.422
-19.859
-19.335
-18.856
-18.43
-18.067
-17.775
-17.553
-17.402
-17.319
-17.297
-17.33
-17.408
-17.513
-17.635
-17.763
-17.888
-18.006
-18.108
-18.185
-18.228
-18.221
-18.156
-18.034
-17.855
-17.626
-17.364
-17.085
-16.816
-16.602
-16.477
-16.472
-16.623
-16.965
-17.531
-18.363
-19.492
-20.936
-22.725
-24.884
-27.444
-30.436
-33.862
-37.697
-41.924
-46.549
-51.508
-56.664
-61.776
-66.457
-70.364
-73.269
-74.907
-74.945
-73.251
-69.898
-65.243
-60.161
-55.461
-51.624
-49.218
-48.796
-50.526
-54.266
-59.289
-63.83
-66.183
-65.108
-58.96
-46.164
-25.604
3.553
40.1
80.488
121.684
161.659
200.42
239.633
277.401
306.865
316.56
294.649
236.021
145.154
35.432
-79.393
-191.25
-299.732
-410.218
-523.41
-632.409
-724.144
-784.364
-806.789
-794.493
-757.329
-705.928
-647.127
-583.513
-514.76
-441.8
-367.479
-295.914
-231.95
-178.757
-137.472
-107.897
-88.473
-77.236
-72.536
-72.279
-74.228
-76.348
-76.722
-74.399
-69.422
-62.194
-53.305
-43.589
-33.907
-25.207
-18.534
-14.321
-12.458
-12.626
-14.3
-16.948
-20.114
-23.253
-25.774
-27.336
-27.816
-27.223
-25.708
-23.396
-20.375
-16.776
-12.751
-8.429
-3.93
0.648
5.238
9.763
14.13
18.255
22.054
25.457
28.433
30.978
33.107
34.85
36.245
37.335
38.174
38.823
39.342
39.789
40.213
40.66
41.178
41.816
42.62
43.634
44.887
46.395
48.169
50.215
52.533
55.122
57.975
61.079
64.422
67.995
71.789
75.793
79.997
84.384
88.938
93.642
98.479
103.43
108.477
113.602
118.782
123.998
129.23
134.455
139.653
144.798
149.868
154.836
159.679
164.371
168.89
173.212
177.314
181.174
184.773
188.093
191.116
193.825
196.206
198.247
199.936
201.263
202.22
202.801
203.001
202.818
202.25
201.3
199.969
198.263
196.186
193.749
190.96
187.83
184.374
180.604
176.536
172.189
167.58
162.728
157.654
152.38
146.927
141.318
135.576
129.725
123.786
117.785
111.743
105.684
99.629
93.602
87.623
81.714
75.893
70.18
64.594
59.15
53.865
48.753
43.828
39.101
34.584
30.286
26.215
22.377
18.778
15.422
12.31
9.444
6.824
4.448
2.313
0.414
-1.254
-2.697
-3.923
-4.941
-5.758
-6.385
-6.833
-7.113
-7.236
-7.213
-7.057
-6.78
-6.395
-5.912
-5.345
-4.704
-4.003
-3.251
-2.459
-1.638
-0.799
0.051
0.901
1.743
2.57
3.374
4.148
4.888
5.587
6.242
6.847
7.4
7.898
8.34
8.723
9.046
9.31
9.514
9.658
9.745
9.774
9.749
9.67
9.54
9.361
9.136
8.868
8.558
8.21
7.827
7.41
6.964
6.49
5.991
5.469
4.928
4.369
3.795
3.209
2.611
2.005
1.393
0.775
0.155
-0.467
-1.089
-1.708
-2.325
-2.937
-3.543
-4.142
-4.734
-5.316
-5.889
-6.451
-7.001
-7.54
-8.065
-8.577
-9.075
-9.557
-10.024
-10.475
-10.908
-11.324
-11.722
-12.101
-12.461
-12.802
-13.124
-13.427
-13.71
-13.973
-14.218
-14.443
-14.651
-14.841
-15.014
-15.172
-15.316
-15.447
-15.566
-15.675
-15.777
-15.872
-15.963
-16.052
-16.141
-16.233
-16.329
-16.433
-16.547
-16.674
-16.815
-16.974
-17.153
-17.353
-17.577
-17.827
-18.103
-18.407
-18.74
-19.101
-19.492
-19.912
-20.361
-20.839
-21.344
-21.876
-22.431
-23.009
-23.606
-24.22
-24.847
-25.483
-26.124
-26.766
-27.405
-28.035
-28.652
-29.25
-29.823
-30.366
-30.873
-31.337
-31.754
-32.118
-32.424
-32.667
-32.844
-32.952
-32.988
-32.951
-32.841
-32.657
-32.399
-32.067
-31.664
-31.19
-30.649
-30.042
-29.374
-28.649
-27.873
-27.054
-26.198
-25.312
-24.405
-23.484
-22.558
-21.636
-20.727
-19.839
-18.978
-18.155
-17.378
-16.66
-16.011
-15.432
-14.926
-14.492
-14.128
-13.832
-13.596
-13.405
-13.249
-13.116
-12.995
-12.887
-12.785
-12.679
-12.559
-12.411
-12.227
-12.013
-11.774
-11.517
-11.255
-11.002
-10.783
-10.647
-10.634
-10.784
-11.143
-11.736
-12.599
-13.773
-15.281
-17.158
-19.439
-22.14
-25.284
-28.889
-32.94
-37.445
-42.429
-47.82
-53.477
-59.175
-64.566
-69.34
-73.28
-76.112
-77.483
-77.175
-75.219
-71.958
-68.104
-64.362
-61.129
-58.765
-57.865
-58.851
-61.654
-65.657
-69.445
-71.387
-70.505
-65.774
-55.514
-38.255
-13.038
19.585
56.854
95.942
135.499
176.304
219.414
262.764
300.045
319.936
311.229
269.083
195.442
100.322
-3.297
-108.225
-212.36
-317.751
-428.008
-538.457
-637.981
-715.264
-759.165
-768.224
-750.13
-712.284
-663.334
-607.907
-545.039
-476.316
-404.074
-331.261
-263.323
-203.849
-154.42
-116.038
-88.119
-69.153
-57.707
-52.162
-50.379
-50.42
-50.563
-49.173
-45.56
-39.854
-32.385
-23.73
-14.724
-6.106
1.311
6.661
9.672
10.5
9.459
7.074
3.858
0.249
-3.237
-6.07
-7.951
-8.764
-8.519
-7.349
-5.366
-2.659
0.643
4.395
8.465
12.738
17.119
21.531
25.897
30.124
34.126
37.822
41.148
44.068
46.58
48.698
50.452
51.879
53.023
53.934
54.674
55.298
55.858
56.401
56.967
57.603
58.354
59.263
60.371
61.706
63.284
65.116
67.206
69.556
72.158
75.004
78.082
81.381
84.9
88.63
92.561
96.678
100.964
105.399
109.961
114.621
119.342
124.087
128.827
133.543
138.224
142.856
147.425
151.912
156.302
160.589
164.771
168.844
172.797
176.623
180.323
183.917
187.444
190.933
194.39
197.803
201.145
204.393
207.531
210.527
213.335
215.893
218.142
220.044
221.577
222.71
223.394
223.557
223.111
221.996
220.186
217.675
214.477
210.595
206.041
200.852
195.101
188.876
182.248
175.264
167.949
160.351
152.556
144.663
136.779
128.981
121.316
113.825
106.547
99.524
92.792
86.357
80.192
74.269
68.585
63.157
58.02
53.181
48.602
44.247
40.084
36.101
32.304
28.687
25.235
21.935
18.785
15.796
12.996
10.405
8.014
5.809
3.765
1.876
0.168
-1.348
-2.665
-3.789
-4.732
-5.498
-6.08
-6.48
-6.714
-6.799
-6.758
-6.607
-6.348
-5.984
-5.516
-4.958
-4.331
-3.652
-2.934
-2.188
-1.423
-0.651
0.109
0.848
1.563
2.251
2.91
3.533
4.113
4.643
5.119
5.54
5.904
6.212
6.463
6.656
6.794
6.879
6.914
6.901
6.84
6.733
6.581
6.387
6.153
5.882
5.577
5.239
4.874
4.483
4.069
3.636
3.186
2.72
2.242
1.753
1.256
0.753
0.246
-0.265
-0.776
-1.287
-1.796
-2.303
-2.807
-3.308
-3.804
-4.295
-4.782
-5.265
-5.743
-6.218
-6.688
-7.154
-7.618
-8.079
-8.539
-8.997
-9.455
-9.912
-10.369
-10.828
-11.287
-11.749
-12.213
-12.679
-13.149
-13.621
-14.096
-14.575
-15.058
-15.544
-16.033
-16.526
-17.022
-17.521
-18.023
-18.528
-19.036
-19.545
-20.055
-20.567
-21.078
-21.588
-22.095
-22.599
-23.097
-23.588
-24.069
-24.539
-24.995
-25.436
-25.859
-26.263
-26.644
-27.0
-27.329
-27.629
-27.896
-28.129
-28.323
-28.478
-28.589
-28.656
-28.674
-28.642
-28.557
-28.416
-28.217
-27.958
-27.636
-27.251
-26.8
-26.282
-25.697
-25.046
-24.329
-23.548
-22.705
-21.803
-20.847
-19.839
-18.785
-17.689
-16.557
-15.394
-14.207
-12.999
-11.779
-10.552
-9.327
-8.111
-6.913
-5.741
-4.601
-3.502
-2.451
-1.459
-0.531
0.325
1.107
1.807
2.42
2.936
3.349
3.66
3.871
3.985
4.006
3.939
3.792
3.585
3.334
3.056
2.765
2.465
2.164
1.871
1.604
1.38
1.208
1.089
1.014
0.979
0.976
0.998
1.015
0.976
0.829
0.515
-0.006
-0.763
-1.79
-3.111
-4.769
-6.815
-9.289
-12.221
-15.628
-19.501
-23.856
-28.747
-34.114
-39.798
-45.547
-50.967
-55.731
-59.644
-62.445
-63.795
-63.539
-61.706
-58.613
-55.055
-51.746
-49.07
-47.474
-47.419
-49.083
-52.381
-56.666
-60.339
-61.817
-60.0
-53.48
-40.811
-20.894
7.15
42.356
81.535
121.871
161.548
200.545
240.046
278.12
308.4
320.334
303.522
253.462
173.001
73.419
-33.033
-139.507
-242.354
-343.733
-445.003
-539.41
-620.29
-679.843
-711.374
-718.105
-703.856
-672.097
-628.595
-574.438
-511.164
-442.723
-371.785
-302.24
-238.144
-181.934
-135.384
-99.404
-73.676
-56.997
-47.95
-44.959
-45.947
-48.94
-52.133
-53.785
-53.105
-50.134
-45.1
-38.531
-31.236
-23.932
-17.456
-12.694
-9.925
-9.023
-9.701
-11.453
-13.783
-16.276
-18.432
-19.777
-20.095
-19.332
-17.559
-14.949
-11.636
-7.735
-3.399
1.22
5.986
10.789
15.542
20.165
24.575
28.679
32.394
35.665
38.472
40.816
42.721
44.225
45.366
46.196
46.772
47.15
47.386
47.533
47.639
47.755
47.934
48.227
48.684
49.345
50.238
51.382
52.787
54.459
56.403
58.622
61.112
63.87
66.891
70.164
73.681
77.43
81.392
85.543
89.851
94.291
98.838
103.471
108.174
112.922
117.694
122.467
127.22
131.934
136.602
141.215
145.768
150.27
154.732
159.172
163.622
168.094
172.592
177.113
181.641
186.17
190.688
195.167
199.583
203.905
208.09
212.1
215.883
219.352
222.426
225.01
227.001
228.322
228.911
228.711
227.688
225.809
223.057
219.445
214.986
209.693
203.588
196.688
189.038
180.739
171.889
162.598
152.994
143.182
133.271
123.386
113.62
104.056
94.763
85.778
77.147
68.928
61.175
53.954
47.298
41.193
35.627
30.581
26.016
21.899
18.177
14.77
11.624
8.704
5.985
3.46
1.114
-1.089
-3.18
-5.201
-7.178
-9.113
-11.012
-12.882
-14.718
-16.508
-18.226
-19.819
-21.258
-22.532
-23.636
-24.577
-25.357
-25.971
-26.417
-26.694
-26.807
-26.763
-26.567
-26.222
-25.74
-25.137
-24.438
-23.68
-22.89
-22.084
-21.278
-20.481
-19.705
-18.959
-18.251
-17.581
-16.953
-16.371
-15.84
-15.367
-14.954
-14.6
-14.304
-14.061
-13.868
-13.722
-13.62
-13.561
-13.542
-13.561
-13.617
-13.713
-13.847
-14.017
-14.223
-14.462
-14.73
-15.027
-15.349
-15.693
-16.056
-16.436
-16.83
-17.237
-17.655
-18.08
-18.512
-18.949
-19.387
-19.827
-20.266
-20.702
-21.133
-21.56
-21.98
-22.393
-22.798
-23.193
-23.579
-23.954
-24.318
-24.669
-25.007
-25.33
-25.638
-25.93
-26.204
-26.461
-26.698
-26.916
-27.115
-27.293
-27.451
-27.588
-27.705
-27.801
-27.876
-27.931
-27.966
-27.981
-27.977
-27.955
-27.915
-27.859
-27.787
-27.701
-27.602
-27.492
-27.372
-27.244
-27.111
-26.974
-26.834
-26.696
-26.56
-26.429
-26.306
-26.192
-26.091
-26.004
-25.934
-25.883
-25.852
-25.843
-25.858
-25.897
-25.961
-26.049
-26.163
-26.3
-26.461
-26.644
-26.848
-27.071
-27.312
-27.568
-27.836
-28.113
-28.397
-28.682
-28.966
-29.244
-29.512
-29.764
-29.998
-30.207
-30.387
-30.532
-30.639
-30.701
-30.714
-30.674
-30.576
-30.415
-30.189
-29.895
-29.53
-29.094
-28.586
-28.007
-27.358
-26.642
-25.861
-25.018
-24.117
-23.164
-22.162
-21.118
-20.037
-18.924
-17.788
-16.635
-15.475
-14.315
-13.164
-12.029
-10.921
-9.848
-8.821
-7.846
-6.93
-6.077
-5.293
-4.587
-3.967
-3.438
-3.0
-2.654
-2.4
-2.235
-2.155
-2.151
-2.201
-2.287
-2.394
-2.51
-2.629
-2.746
-2.847
-2.922
-2.956
-2.944
-2.887
-2.789
-2.645
-2.46
-2.249
-2.042
-1.898
-1.882
-2.046
-2.435
-3.081
-4.004
-5.245
-6.852
-8.867
-11.331
-14.271
-17.687
-21.622
-26.145
-31.236
-36.762
-42.461
-47.937
-52.835
-56.918
-59.924
-61.496
-61.434
-59.81
-57.001
-53.773
-50.921
-48.859
-47.925
-48.664
-51.33
-55.674
-60.991
-65.78
-68.226
-67.206
-61.75
-50.234
-31.376
-4.709
29.797
70.071
112.292
154.722
196.006
234.443
270.599
300.594
316.437
311.507
278.026
214.253
127.528
26.802
-79.262
-185.93
-294.425
-406.773
-518.86
-620.94
-702.029
-751.499
-767.295
-755.853
-723.55
-677.843
-623.353
-559.851
-489.425
-415.124
-340.141
-269.77
-207.863
-156.401
-116.589
-88.044
-69.263
-58.583
-54.316
-54.306
-56.456
-58.854
-59.644
-57.924
-53.743
-47.445
-39.592
-31.013
-22.483
-14.87
-9.167
-5.747
-4.496
-5.123
-7.109
-9.931
-13.154
-16.24
-18.613
-19.978
-20.233
-19.402
-17.649
-15.101
-11.851
-8.047
-3.85
0.602
5.188
9.819
14.43
18.936
23.239
27.248
30.871
34.062
36.804
39.096
40.965
42.441
43.563
44.384
44.964
45.362
45.635
45.834
46.005
46.199
46.466
46.855
47.418
48.187
49.185
50.426
51.918
53.664
55.664
57.912
60.396
63.109
66.04
69.183
72.531
76.072
79.795
83.685
87.726
91.903
96.2
100.601
105.09
109.647
114.256
118.898
123.555
128.207
132.832
137.409
141.913
146.322
150.614
154.765
158.755
162.56
166.16
169.538
172.673
175.55
178.153
180.466
182.477
184.173
185.544
186.582
187.278
187.628
187.627
187.273
186.566
185.506
184.096
182.34
180.245
177.818
175.069
172.006
168.644
164.995
161.073
156.895
152.478
147.839
142.998
137.974
132.787
127.457
122.007
116.455
110.824
105.135
99.407
93.663
87.922
82.204
76.529
70.915
65.38
59.941
54.615
49.417
44.362
39.462
34.731
30.178
25.814
21.649
17.688
13.939
10.407
7.095
4.006
1.141
-1.5
-3.918
-6.115
-8.095
-9.861
-11.419
-12.775
-13.935
-14.907
-15.698
-16.317
-16.772
-17.073
-17.23
-17.251
-17.148
-16.929
-16.604
-16.184
-15.678
-15.095
-14.445
-13.737
-12.98
-12.181
-11.35
-10.494
-9.62
-8.735
-7.846
-6.958
-6.076
-5.207
-4.354
-3.52
-2.71
-1.927
-1.173
-0.451
0.238
0.893
1.511
2.092
2.636
3.142
3.61
4.041
4.433
4.789
5.107
5.389
5.636
5.847
6.025
6.169
6.281
6.363
6.413
6.435
6.429
6.397
6.338
6.255
6.149
6.021
5.871
5.701
5.512
5.305
5.081
4.842
4.587
4.318
4.036
3.743
3.438
3.123
2.799
2.467
2.129
1.783
1.433
1.079
0.721
0.361
-0.001
-0.363
-0.725
-1.087
-1.448
-1.808
-2.166
-2.523
-2.877
-3.231
-3.582
-3.933
-4.282
-4.631
-4.98
-5.329
-5.68
-6.032
-6.387
-6.746
-7.109
-7.477
-7.852
-8.234
-8.624
-9.024
-9.434
-9.856
-10.29
-10.738
-11.201
-11.678
-12.172
-12.681
-13.208
-13.75
-14.308
-14.881
-15.468
-16.068
-16.677
-17.296
-17.921
-18.551
-19.182
-19.811
-20.435
-21.052
-21.657
-22.246
-22.815
-23.361
-23.878
-24.362
-24.81
-25.215
-25.574
-25.882
-26.133
-26.324
-26.449
-26.504
-26.484
-26.384
-26.203
-25.936
-25.581
-25.136
-24.6
-23.974
-23.258
-22.455
-21.567
-20.596
-19.547
-18.423
-17.229
-15.971
-14.654
-13.283
-11.867
-10.414
-8.933
-7.436
-5.93
-4.427
-2.936
-1.467
-0.032
1.36
2.7
3.979
5.184
6.307
7.333
8.252
9.062
9.759
10.344
10.82
11.193
11.469
11.663
11.789
11.854
11.87
11.842
11.778
11.689
11.591
11.498
11.423
11.367
11.326
11.296
11.265
11.216
11.127
10.957
10.671
10.238
9.628
8.808
7.745
6.399
4.733
2.724
0.344
-2.433
-5.622
-9.249
-13.318
-17.807
-22.704
-28.014
-33.675
-39.549
-45.411
-50.91
-55.712
-59.577
-62.224
-63.294
-62.587
-60.18
-56.433
-52.079
-47.896
-44.334
-41.805
-40.949
-42.125
-45.151
-49.363
-53.324
-55.257
-54.01
-48.591
-37.312
-18.734
7.711
42.149
82.637
125.327
168.347
210.217
249.098
285.189
314.339
328.412
320.47
283.016
214.843
123.48
18.339
-91.63
-201.77
-313.089
-427.43
-540.496
-642.163
-721.012
-766.021
-775.661
-757.265
-718.289
-667.608
-609.981
-544.698
-473.617
-399.267
-324.826
-255.99
-196.48
-147.873
-111.076
-85.33
-68.933
-60.276
-57.525
-58.291
-60.442
-62.163
-61.833
-58.85
-53.433
-45.991
-37.194
-27.986
-19.203
-11.706
-6.345
-3.349
-2.527
-3.537
-5.841
-8.911
-12.296
-15.481
-17.963
-19.473
-19.919
-19.329
-17.842
-15.575
-12.623
-9.117
-5.2
-1.001
3.369
7.816
12.266
16.642
20.856
24.825
28.475
31.745
34.602
37.046
39.093
40.772
42.123
43.188
44.019
44.676
45.214
45.689
46.147
46.63
47.183
47.851
48.677
49.703
50.957
52.454
54.204
56.211
58.474
60.993
63.758
66.755
69.97
73.396
77.025
80.857
84.881
89.082
93.437
97.922
102.511
107.185
111.916
116.674
121.434
126.175
130.884
135.563
140.201
144.782
149.28
153.661
157.902
161.991
165.918
169.678
173.267
176.676
179.911
182.99
185.912
188.668
191.229
193.537
195.551
197.251
198.621
199.661
200.365
200.703
200.656
200.209
199.338
198.036
196.275
194.007
191.217
187.908
184.107
179.886
175.298
170.371
165.138
159.621
153.84
147.852
141.704
135.423
129.057
122.638
116.217
109.871
103.647
97.576
91.676
85.924
80.312
74.858
69.572
64.468
59.571
54.862
50.336
46.008
41.875
37.942
34.207
30.642
27.235
23.987
20.899
17.992
15.28
12.754
10.412
8.248
6.248
4.424
2.782
1.31
0.003
-1.145
-2.144
-2.989
-3.682
-4.234
-4.658
-4.967
-5.178
-5.294
-5.321
-5.269
-5.142
-4.955
-4.721
-4.447
-4.142
-3.815
-3.47
-3.119
-2.771
-2.429
-2.095
-1.774
-1.466
-1.176
-0.91
-0.668
-0.453
-0.265
-0.103
0.032
0.14
0.224
0.284
0.323
0.343
0.346
0.331
0.3
0.255
0.196
0.127
0.047
-0.042
-0.138
-0.24
-0.347
-0.457
-0.571
-0.688
-0.808
-0.93
-1.054
-1.18
-1.309
-1.439
-1.571
-1.706
-1.843
-1.983
-2.126
-2.273
-2.424
-2.581
-2.743
-2.912
-3.087
-3.27
-3.46
-3.657
-3.862
-4.075
-4.295
-4.523
-4.756
-4.996
-5.242
-5.491
-5.745
-6.001
-6.259
-6.517
-6.775
-7.031
-7.283
-7.531
-7.774
-8.01
-8.239
-8.46
-8.673
-8.876
-9.071
-9.255
-9.43
-9.595
-9.75
-9.896
-10.033
-10.162
-10.284
-10.399
-10.511
-10.619
-10.726
-10.834
-10.944
-11.059
-11.181
-11.313
-11.458
-11.617
-11.793
-11.99
-12.21
-12.455
-12.727
-13.029
-13.362
-13.728
-14.127
-14.559
-15.026
-15.526
-16.06
-16.626
-17.223
-17.85
-18.504
-19.183
-19.885
-20.606
-21.342
-22.09
-22.845
-23.603
-24.358
-25.106
-25.841
-26.557
-27.249
-27.91
-28.534
-29.114
-29.643
-30.116
-30.526
-30.867
-31.134
-31.322
-31.427
-31.446
-31.377
-31.219
-30.972
-30.634
-30.207
-29.693
-29.094
-28.412
-27.651
-26.814
-25.905
-24.932
-23.9
-22.818
-21.693
-20.533
-19.347
-18.144
-16.934
-15.725
-14.528
-13.35
-12.202
-11.092
-10.031
-9.033
-8.108
-7.26
-6.492
-5.804
-5.193
-4.658
-4.191
-3.777
-3.404
-3.059
-2.73
-2.416
-2.107
-1.795
-1.469
-1.112
-0.714
-0.277
0.194
0.689
1.189
1.68
2.134
2.493
2.712
2.742
2.526
2.037
1.238
0.088
-1.437
-3.377
-5.773
-8.642
-12.007
-15.877
-20.226
-25.063
-30.402
-36.154
-42.156
-48.16
-53.795
-58.752
-62.8
-65.636
-66.894
-66.342
-64.027
-60.311
-55.892
-51.481
-47.531
-44.481
-42.995
-43.53
-45.98
-49.687
-53.306
-55.186
-54.141
-48.983
-38.01
-19.844
6.15
39.857
79.898
124.042
170.148
215.419
255.786
287.08
305.431
307.297
290.321
253.161
194.929
117.138
24.251
-79.026
-188.276
-301.361
-418.033
-534.314
-641.735
-727.649
-779.606
-793.028
-771.763
-726.442
-668.766
-605.704
-539.569
-469.779
-396.591
-322.725
-252.62
-190.992
-140.601
-102.267
-75.457
-58.459
-49.45
-46.705
-47.911
-50.808
-53.464
-54.161
-52.175
-47.643
-40.947
-32.722
-23.9
-15.364
-8.028
-2.789
0.091
0.796
-0.326
-2.729
-5.862
-9.252
-12.357
-14.647
-15.867
-15.947
-14.933
-12.989
-10.242
-6.793
-2.791
1.607
6.265
11.06
15.897
20.698
25.369
29.813
33.936
37.654
40.922
43.727
46.075
47.992
49.513
50.678
51.54
52.159
52.594
52.902
53.137
53.346
53.581
53.892
54.327
54.932
55.74
56.772
58.039
59.549
61.303
63.3
65.536
67.999
70.681
73.575
76.672
79.966
83.449
87.11
90.938
94.921
99.043
103.285
107.632
112.067
116.57
121.124
125.706
130.293
134.871
139.421
143.925
148.369
152.725
156.967
161.072
165.015
168.779
172.355
175.72
178.857
181.757
184.406
186.8
188.939
190.797
192.35
193.58
194.465
195.0
195.183
195.006
194.465
193.554
192.263
190.598
188.565
186.157
183.376
180.214
176.663
172.754
168.517
163.975
159.161
154.092
148.784
143.266
137.566
131.708
125.72
119.619
113.426
107.174
100.896
94.627
88.406
82.24
76.141
70.124
64.202
58.394
52.721
47.191
41.814
36.607
31.586
26.768
22.167
17.788
13.635
9.709
6.011
2.55
-0.665
-3.632
-6.348
-8.813
-11.029
-12.997
-14.716
-16.195
-17.444
-18.471
-19.288
-19.904
-20.326
-20.566
-20.634
-20.544
-20.308
-19.938
-19.448
-18.851
-18.16
-17.389
-16.55
-15.656
-14.718
-13.745
-12.75
-11.741
-10.729
-9.723
-8.729
-7.757
-6.813
-5.903
-5.033
-4.208
-3.432
-2.707
-2.036
-1.421
-0.864
-0.365
0.076
0.459
0.786
1.056
1.273
1.437
1.553
1.621
1.646
1.629
1.575
1.486
1.366
1.218
1.045
0.85
0.636
0.406
0.163
-0.091
-0.354
-0.623
-0.896
-1.172
-1.449
-1.726
-2.002
-2.276
-2.547
-2.815
-3.08
-3.341
-3.598
-3.852
-4.104
-4.352
-4.599
-4.844
-5.088
-5.333
-5.578
-5.826
-6.076
-6.329
-6.586
-6.848
-7.116
-7.39
-7.67
-7.957
-8.252
-8.553
-8.862
-9.179
-9.503
-9.834
-10.172
-10.517
-10.869
-11.227
-11.59
-11.96
-12.335
-12.715
-13.1
-13.49
-13.884
-14.282
-14.684
-15.089
-15.498
-15.91
-16.325
-16.744
-17.166
-17.592
-18.021
-18.454
-18.891
-19.333
-19.78
-20.233
-20.692
-21.159
-21.633
-22.115
-22.607
-23.108
-23.619
-24.14
-24.671
-25.21
-25.759
-26.315
-26.878
-27.446
-28.019
-28.593
-29.168
-29.741
-30.31
-30.872
-31.424
-31.964
-32.487
-32.991
-33.472
-33.926
-34.35
-34.739
-35.089
-35.396
-35.656
-35.864
-36.016
-36.108
-36.135
-36.093
-35.978
-35.787
-35.519
-35.17
-34.74
-34.228
-33.636
-32.966
-32.219
-31.397
-30.503
-29.541
-28.516
-27.431
-26.291
-25.103
-23.872
-22.607
-21.317
-20.011
-18.698
-17.387
-16.087
-14.807
-13.557
-12.346
-11.182
-10.074
-9.031
-8.062
-7.182
-6.399
-5.716
-5.135
-4.655
-4.272
-3.98
-3.771
-3.627
-3.538
-3.492
-3.48
-3.495
-3.529
-3.57
-3.605
-3.619
-3.599
-3.545
-3.454
-3.33
-3.19
-3.048
-2.933
-2.887
-2.948
-3.147
-3.523
-4.113
-4.952
-6.081
-7.534
-9.332
-11.506
-14.082
-17.084
-20.537
-24.441
-28.765
-33.49
-38.613
-44.061
-49.689
-55.255
-60.386
-64.73
-68.045
-70.054
-70.407
-68.954
-65.762
-61.161
-55.964
-50.989
-46.736
-43.752
-42.615
-43.519
-46.313
-50.363
-54.083
-55.689
-53.856
-47.235
-34.35
-14.101
13.978
49.743
90.913
133.489
175.163
213.872
248.11
278.526
301.007
307.821
292.062
245.921
168.99
69.948
-41.328
-154.445
-264.068
-372.784
-482.783
-591.731
-691.645
-768.275
-809.076
-810.343
-776.571
-719.36
-651.435
-580.227
-508.726
-436.856
-364.467
-294.217
-230.251
-176.551
-135.235
-106.061
-87.238
-76.427
-71.727
-71.108
-72.398
-73.594
-72.864
-69.367
-63.271
-55.091
-45.456
-35.198
-25.158
-16.264
-9.528
-5.348
-3.571
-3.85
-5.641
-8.41
-11.699
-14.965
-17.621
-19.322
-19.94
-19.478
-18.076
-15.859
-12.907
-9.35
-5.337
-1.001
3.534
8.168
12.828
17.434
21.889
26.102
29.984
33.46
36.494
39.077
41.22
42.951
44.307
45.332
46.079
46.612
46.991
47.274
47.51
47.745
48.027
48.402
48.919
49.62
50.538
51.692
53.095
54.756
56.679
58.862
61.301
63.982
66.896
70.031
73.378
76.931
80.681
84.619
88.736
93.015
97.438
101.985
106.625
111.334
116.084
120.844
125.587
130.291
134.937
139.518
144.027
148.45
152.768
156.953
160.977
164.825
168.488
171.961
175.249
178.353
181.275
184.034
186.639
189.088
191.369
193.444
195.26
196.787
198.007
198.913
199.503
199.754
199.631
199.106
198.15
196.739
194.854
192.453
189.5
185.984
181.91
177.322
172.287
166.846
161.024
154.836
148.305
141.485
134.453
127.272
119.995
112.672
105.35
98.102
91.004
84.106
77.444
71.02
64.823
58.864
53.178
47.802
42.757
38.03
33.583
29.393
25.453
21.759
18.304
15.061
11.999
9.101
6.366
3.808
1.436
-0.755
-2.794
-4.707
-6.507
-8.184
-9.712
-11.077
-12.279
-13.322
-14.206
-14.925
-15.468
-15.842
-16.061
-16.147
-16.112
-15.961
-15.689
-15.294
-14.782
-14.17
-13.48
-12.731
-11.934
-11.1
-10.245
-9.384
-8.531
-7.693
-6.871
-6.065
-5.28
-4.523
-3.8
-3.119
-2.483
-1.892
-1.347
-0.849
-0.399
0.005
0.365
0.683
0.962
1.201
1.399
1.557
1.674
1.752
1.792
1.796
1.763
1.697
1.599
1.472
1.317
1.136
0.931
0.702
0.451
0.18
-0.11
-0.418
-0.743
-1.082
-1.437
-1.804
-2.184
-2.576
-2.98
-3.394
-3.819
-4.254
-4.698
-5.151
-5.612
-6.081
-6.557
-7.038
-7.525
-8.017
-8.511
-9.008
-9.505
-10.003
-10.499
-10.993
-11.483
-11.968
-12.446
-12.917
-13.38
-13.833
-14.274
-14.704
-15.12
-15.522
-15.908
-16.278
-16.631
-16.966
-17.283
-17.581
-17.86
-18.121
-18.363
-18.588
-18.796
-18.987
-19.163
-19.324
-19.47
-19.604
-19.727
-19.84
-19.946
-20.046
-20.143
-20.239
-20.337
-20.44
-20.549
-20.667
-20.796
-20.938
-21.096
-21.272
-21.467
-21.683
-21.922
-22.184
-22.471
-22.782
-23.118
-23.478
-23.86
-24.262
-24.683
-25.118
-25.567
-26.026
-26.492
-26.963
-27.438
-27.913
-28.386
-28.854
-29.312
-29.756
-30.177
-30.571
-30.928
-31.242
-31.506
-31.714
-31.86
-31.939
-31.95
-31.888
-31.749
-31.529
-31.22
-30.817
-30.321
-29.731
-29.054
-28.298
-27.479
-26.611
-25.711
-24.791
-23.861
-22.924
-21.976
-21.014
-20.031
-19.026
-18.009
-16.987
-15.964
-14.942
-13.918
-12.88
-11.811
-10.692
-9.496
-8.208
-6.821
-5.34
-3.789
-2.195
-0.598
0.98
2.53
4.046
5.522
6.947
8.305
9.575
10.731
11.74
12.559
13.158
13.51
13.608
13.47
13.118
12.587
11.894
11.031
9.988
8.754
7.312
5.645
3.741
1.584
-0.825
-3.458
-6.306
-9.366
-12.651
-16.196
-20.028
-24.158
-28.604
-33.397
-38.496
-43.782
-49.036
-53.919
-58.111
-61.4
-63.545
-64.23
-63.268
-60.718
-56.908
-52.523
-48.292
-44.601
-41.78
-40.395
-40.778
-42.802
-45.907
-48.755
-49.649
-47.546
-41.577
-30.165
-11.949
13.698
47.048
86.113
126.971
168.045
208.237
246.466
283.968
316.336
334.886
332.352
299.966
236.571
149.892
47.818
-60.031
-167.641
-274.681
-379.047
-477.206
-564.334
-633.942
-681.982
-707.184
-709.704
-691.056
-653.466
-600.206
-535.493
-464.134
-390.873
-319.466
-253.222
-194.968
-146.67
-109.345
-82.819
-65.704
-56.123
-52.326
-52.252
-53.84
-55.246
-54.783
-51.693
-46.118
-38.509
-29.476
-19.837
-10.392
-2.001
4.407
8.478
10.348
10.326
8.913
6.61
3.84
1.107
-1.053
-2.337
-2.631
-1.946
-0.413
1.853
4.774
8.231
12.089
16.229
20.54
24.933
29.345
33.703
37.92
41.917
45.612
48.938
51.864
54.384
56.51
58.27
59.697
60.831
61.72
62.423
62.994
63.483
63.937
64.398
64.914
65.531
66.295
67.252
68.431
69.855
71.538
73.486
75.702
78.185
80.929
83.928
87.176
90.667
94.391
98.336
102.489
106.832
111.343
115.994
120.749
125.573
130.44
135.329
140.227
145.116
149.978
154.796
159.55
164.23
168.83
173.339
177.742
182.027
186.192
190.251
194.23
198.149
202.005
205.782
209.456
213.002
216.395
219.606
222.596
225.316
227.724
229.784
231.47
232.752
233.578
233.881
233.579
232.602
230.919
228.512
225.378
221.522
216.958
211.71
205.824
199.353
192.331
184.794
176.777
168.325
159.517
150.45
141.239
131.995
122.807
113.744
104.873
96.243
87.896
79.867
72.175
64.839
57.904
51.407
45.376
39.835
34.77
30.153
25.94
22.07
18.495
15.179
12.09
9.207
6.518
4.007
1.666
-0.518
-2.578
-4.544
-6.437
-8.281
-10.078
-11.818
-13.488
-15.051
-16.478
-17.753
-18.863
-19.804
-20.584
-21.203
-21.669
-21.991
-22.167
-22.198
-22.089
-21.839
-21.457
-20.96
-20.367
-19.705
-19.005
-18.285
-17.564
-16.856
-16.168
-15.51
-14.886
-14.3
-13.753
-13.25
-12.795
-12.393
-12.049
-11.76
-11.527
-11.347
-11.214
-11.126
-11.079
-11.071
-11.1
-11.164
-11.26
-11.391
-11.554
-11.748
-11.972
-12.221
-12.493
-12.784
-13.093
-13.414
-13.746
-14.085
-14.428
-14.773
-15.119
-15.463
-15.803
-16.137
-16.465
-16.784
-17.094
-17.394
-17.682
-17.959
-18.225
-18.478
-18.719
-18.948
-19.166
-19.372
-19.568
-19.754
-19.93
-20.097
-20.256
-20.408
-20.553
-20.694
-20.831
-20.966
-21.1
-21.235
-21.374
-21.516
-21.665
-21.822
-21.988
-22.164
-22.353
-22.554
-22.77
-23.002
-23.251
-23.517
-23.802
-24.107
-24.431
-24.776
-25.142
-25.528
-25.935
-26.361
-26.806
-27.268
-27.747
-28.24
-28.746
-29.262
-29.786
-30.315
-30.846
-31.377
-31.902
-32.419
-32.923
-33.411
-33.878
-34.32
-34.732
-35.109
-35.448
-35.743
-35.99
-36.184
-36.321
-36.396
-36.404
-36.343
-36.208
-35.995
-35.703
-35.329
-34.872
-34.332
-33.708
-33.002
-32.216
-31.353
-30.416
-29.409
-28.337
-27.206
-26.022
-24.791
-23.519
-22.213
-20.882
-19.535
-18.18
-16.826
-15.483
-14.16
-12.867
-11.615
-10.414
-9.272
-8.197
-7.196
-6.276
-5.445
-4.713
-4.087
-3.569
-3.159
-2.857
-2.663
-2.574
-2.579
-2.662
-2.803
-2.986
-3.202
-3.445
-3.705
-3.974
-4.234
-4.47
-4.673
-4.844
-4.984
-5.093
-5.171
-5.225
-5.285
-5.407
-5.649
-6.063
-6.684
-7.533
-8.633
-10.02
-11.746
-13.86
-16.402
-19.392
-22.837
-26.77
-31.265
-36.318
-41.803
-47.469
-52.952
-57.924
-62.192
-65.551
-67.68
-68.383
-67.69
-65.916
-63.755
-61.886
-60.622
-60.161
-60.823
-62.782
-65.87
-69.489
-72.336
-72.87
-70.106
-63.383
-51.742
-34.179
-10.034
20.912
57.071
95.228
132.987
169.067
204.122
239.848
275.107
304.345
317.182
302.9
256.126
178.994
82.303
-21.043
-123.552
-222.966
-322.01
-424.167
-524.965
-614.643
-683.067
-720.424
-725.993
-706.743
-669.32
-621.8
-568.487
-508.758
-444.239
-376.965
-309.522
-246.797
-191.969
-146.341
-110.743
-84.602
-66.539
-55.366
-49.678
-47.512
-47.116
-46.945
-45.515
-42.214
-37.148
-30.549
-22.904
-14.973
-7.42
-0.985
3.536
5.923
6.336
5.064
2.592
-0.588
-4.069
-7.355
-9.935
-11.554
-12.126
-11.672
-10.339
-8.234
-5.445
-2.102
1.649
5.679
9.875
14.146
18.426
22.631
26.665
30.44
33.867
36.898
39.518
41.73
43.56
45.037
46.201
47.102
47.799
48.348
48.806
49.222
49.64
50.108
50.675
51.389
52.299
53.437
54.824
56.474
58.393
60.582
63.042
65.765
68.74
71.955
75.401
79.067
82.947
87.027
91.292
95.725
100.307
105.022
109.852
114.78
119.788
124.856
129.965
135.096
140.23
145.345
150.416
155.418
160.323
165.107
169.745
174.214
178.488
182.545
186.362
189.923
193.206
196.194
198.866
201.195
203.166
204.768
205.994
206.844
207.317
207.411
207.13
206.485
205.48
204.119
202.397
200.297
197.816
194.958
191.734
188.169
184.276
180.06
175.526
170.677
165.516
160.053
154.285
148.196
141.791
135.094
128.147
121.023
113.776
106.446
99.067
91.663
84.265
76.92
69.667
62.54
55.581
48.826
42.332
36.174
30.398
25.019
20.031
15.389
11.067
7.054
3.339
-0.084
-3.227
-6.111
-8.746
-11.132
-13.281
-15.212
-16.959
-18.579
-20.104
-21.544
-22.894
-24.125
-25.22
-26.177
-26.992
-27.659
-28.179
-28.548
-28.778
-28.891
-28.901
-28.814
-28.63
-28.335
-27.93
-27.423
-26.831
-26.178
-25.482
-24.757
-24.02
-23.286
-22.57
-21.881
-21.222
-20.588
-19.98
-19.398
-18.848
-18.334
-17.861
-17.427
-17.032
-16.674
-16.351
-16.061
-15.801
-15.565
-15.35
-15.153
-14.972
-14.807
-14.659
-14.524
-14.402
-14.292
-14.192
-14.102
-14.018
-13.941
-13.867
-13.797
-13.73
-13.667
-13.607
-13.552
-13.501
-13.457
-13.421
-13.392
-13.374
-13.367
-13.372
-13.392
-13.427
-13.48
-13.551
-13.641
-13.754
-13.889
-14.048
-14.232
-14.442
-14.678
-14.941
-15.232
-15.55
-15.894
-16.265
-16.662
-17.084
-17.531
-18.0
-18.491
-19.002
-19.532
-20.077
-20.636
-21.208
-21.789
-22.377
-22.971
-23.567
-24.165
-24.761
-25.353
-25.941
-26.521
-27.092
-27.653
-28.202
-28.738
-29.26
-29.766
-30.258
-30.733
-31.192
-31.634
-32.06
-32.47
-32.864
-33.245
-33.612
-33.966
-34.31
-34.645
-34.973
-35.294
-35.611
-35.924
-36.236
-36.548
-36.859
-37.172
-37.486
-37.802
-38.12
-38.44
-38.762
-39.086
-39.409
-39.732
-40.054
-40.371
-40.684
-40.989
-41.284
-41.567
-41.834
-42.083
-42.31
-42.512
-42.685
-42.825
-42.927
-42.987
-43.0
-42.963
-42.869
-42.717
-42.501
-42.219
-41.868
-41.446
-40.953
-40.388
-39.752
-39.046
-38.27
-37.427
-36.518
-35.548
-34.518
-33.434
-32.297
-31.115
-29.893
-28.639
-27.359
-26.061
-24.752
-23.441
-22.135
-20.844
-19.577
-18.339
-17.141
-15.988
-14.891
-13.862
-12.909
-12.035
-11.241
-10.527
-9.891
-9.33
-8.837
-8.396
-7.996
-7.623
-7.266
-6.922
-6.582
-6.236
-5.876
-5.484
-5.055
-4.592
-4.102
-3.59
-3.07
-2.554
-2.069
-1.664
-1.382
-1.267
-1.369
-1.722
-2.365
-3.338
-4.663
-6.373
-8.504
-11.075
-14.11
-17.631
-21.622
-26.091
-31.068
-36.475
-42.152
-47.852
-53.192
-57.828
-61.539
-64.053
-65.015
-64.255
-61.864
-58.232
-54.134
-50.331
-47.211
-45.118
-44.607
-45.966
-48.978
-52.937
-56.371
-57.528
-55.332
-48.903
-36.679
-17.302
9.746
44.565
85.161
127.553
169.941
211.122
249.626
286.273
317.069
333.381
327.78
292.024
224.686
134.019
29.984
-77.975
-185.064
-292.943
-403.942
-513.993
-613.125
-689.789
-732.919
-741.092
-721.721
-682.342
-631.867
-575.07
-511.247
-442.085
-369.896
-297.886
-231.702
-175.091
-129.728
-96.141
-73.221
-59.273
-52.66
-51.415
-53.157
-55.544
-56.531
-54.953
-50.608
-43.795
-35.095
-25.261
-15.224
-6.076
1.08
5.704
7.833
7.761
5.996
3.059
-0.577
-4.32
-7.536
-9.832
-11.053
-11.184
-10.351
-8.667
-6.198
-3.071
0.565
4.575
8.831
13.237
17.724
22.205
26.58
30.751
34.62
38.108
41.175
43.806
46.003
47.79
49.196
50.259
51.031
51.57
51.935
52.179
52.352
52.502
52.677
52.928
53.303
53.847
54.592
55.559
56.763
58.21
59.903
61.842
64.022
66.432
69.065
71.91
74.959
78.204
81.64
85.256
89.045
92.99
97.069
101.264
105.557
109.929
114.359
118.825
123.3
127.764
132.208
136.618
140.984
145.287
149.497
153.589
157.535
161.318
164.931
168.364
171.596
174.618
177.425
180.016
182.404
184.577
186.496
188.133
189.456
190.448
191.111
191.439
191.425
191.06
190.328
189.224
187.756
185.919
183.698
181.079
178.035
174.577
170.75
166.594
162.147
157.438
152.482
147.304
141.939
136.418
130.768
125.012
119.164
113.254
107.326
101.422
95.591
89.858
84.216
78.669
73.222
67.885
62.675
57.601
52.661
47.865
43.227
38.764
34.492
30.419
26.54
22.852
19.349
16.033
12.918
10.012
7.318
4.841
2.578
0.532
-1.293
-2.901
-4.301
-5.505
-6.524
-7.367
-8.04
-8.549
-8.906
-9.118
-9.2
-9.161
-9.013
-8.766
-8.432
-8.023
-7.552
-7.028
-6.46
-5.855
-5.222
-4.568
-3.901
-3.229
-2.558
-1.892
-1.24
-0.606
0.005
0.588
1.139
1.657
2.138
2.58
2.981
3.341
3.659
3.935
4.168
4.359
4.508
4.617
4.686
4.717
4.71
4.668
4.593
4.484
4.346
4.178
3.982
3.761
3.515
3.246
2.955
2.643
2.313
1.964
1.599
1.219
0.825
0.419
0.002
-0.425
-0.86
-1.301
-1.748
-2.2
-2.654
-3.11
-3.567
-4.022
-4.475
-4.925
-5.37
-5.808
-6.24
-6.663
-7.076
-7.479
-7.87
-8.247
-8.611
-8.959
-9.291
-9.605
-9.901
-10.177
-10.433
-10.668
-10.882
-11.075
-11.245
-11.394
-11.521
-11.627
-11.713
-11.779
-11.827
-11.858
-11.874
-11.876
-11.866
-11.846
-11.818
-11.784
-11.748
-11.71
-11.674
-11.641
-11.614
-11.596
-11.59
-11.597
-11.619
-11.661
-11.723
-11.809
-11.92
-12.058
-12.226
-12.424
-12.656
-12.921
-13.22
-13.555
-13.925
-14.331
-14.771
-15.244
-15.748
-16.281
-16.842
-17.426
-18.032
-18.655
-19.291
-19.937
-20.589
-21.242
-21.892
-22.535
-23.165
-23.779
-24.37
-24.934
-25.466
-25.958
-26.405
-26.802
-27.144
-27.425
-27.641
-27.787
-27.857
-27.85
-27.763
-27.593
-27.337
-26.991
-26.553
-26.027
-25.421
-24.734
-23.973
-23.144
-22.25
-21.301
-20.308
-19.272
-18.195
-17.079
-15.926
-14.747
-13.555
-12.358
-11.169
-9.988
-8.816
-7.664
-6.541
-5.445
-4.379
-3.338
-2.316
-1.336
-0.418
0.43
1.196
1.885
2.502
3.046
3.524
3.943
4.31
4.643
4.954
5.234
5.481
5.686
5.846
5.993
6.152
6.326
6.52
6.724
6.928
7.132
7.314
7.426
7.419
7.232
6.819
6.165
5.246
4.05
2.553
0.691
-1.585
-4.306
-7.501
-11.162
-15.309
-20.013
-25.23
-30.791
-36.436
-41.74
-46.322
-49.964
-52.38
-53.209
-52.312
-49.762
-45.945
-41.778
-38.156
-35.602
-34.64
-35.779
-39.139
-44.478
-50.996
-56.901
-60.18
-59.337
-52.961
-39.532
-17.953
12.175
50.63
95.005
141.122
186.524
229.077
267.051
300.973
326.836
336.744
323.9
280.828
206.823
110.272
0.902
-112.17
-224.16
-336.247
-450.252
-561.738
-660.554
-735.384
-775.15
-778.263
-752.399
-705.471
-646.93
-582.167
-511.011
-435.522
-358.456
-283.557
-216.541
-160.951
-118.153
-88.19
-69.453
-59.868
-57.333
-59.312
-63.268
-66.895
-68.245
-66.416
-61.401
-53.629
-43.908
-33.254
-22.674
-13.254
-6.029
-1.403
0.713
0.636
-1.061
-3.805
-7.094
-10.343
-12.97
-14.647
-15.244
-14.763
-13.343
-11.103
-8.128
-4.554
-0.523
3.839
8.415
13.115
17.865
22.577
27.153
31.504
35.537
39.179
42.39
45.155
47.483
49.399
50.935
52.132
53.038
53.711
54.207
54.581
54.884
55.159
55.455
55.819
56.3
56.941
57.773
58.816
60.08
61.573
63.297
65.253
67.434
69.832
72.436
75.24
78.237
81.422
84.785
88.315
91.999
95.824
99.775
103.84
108.004
112.25
116.562
120.923
125.317
129.725
134.13
138.51
142.843
147.108
151.283
155.345
159.274
163.046
166.64
170.038
173.219
176.166
178.861
181.29
183.436
185.287
186.83
188.055
188.952
189.513
189.732
189.604
189.125
188.296
187.114
185.584
183.707
181.49
178.94
176.065
172.875
169.382
165.599
161.542
157.225
152.667
147.885
142.898
137.728
132.394
126.918
121.322
115.627
109.855
104.03
98.171
92.302
86.444
80.617
74.842
69.139
63.527
58.025
52.649
47.417
42.343
37.442
32.727
28.21
23.9
19.807
15.939
12.302
8.901
5.738
2.815
0.134
-2.308
-4.512
-6.482
-8.223
-9.741
-11.043
-12.136
-13.03
-13.734
-14.258
-14.613
-14.809
-14.859
-14.774
-14.565
-14.245
-13.826
-13.32
-12.738
-12.092
-11.394
-10.653
-9.881
-9.088
-8.283
-7.476
-6.674
-5.885
-5.116
-4.373
-3.663
-2.989
-2.356
-1.767
-1.225
-0.732
-0.29
0.102
0.442
0.732
0.971
1.161
1.304
1.402
1.456
1.469
1.443
1.381
1.286
1.16
1.007
0.828
0.628
0.408
0.172
-0.078
-0.34
-0.611
-0.89
-1.174
-1.461
-1.75
-2.04
-2.329
-2.617
-2.903
-3.186
-3.466
-3.743
-4.017
-4.289
-4.559
-4.826
-5.093
-5.359
-5.624
-5.89
-6.157
-6.425
-6.695
-6.967
-7.241
-7.519
-7.799
-8.082
-8.37
-8.66
-8.954
-9.251
-9.55
-9.853
-10.157
-10.463
-10.769
-11.076
-11.383
-11.689
-11.994
-12.295
-12.594
-12.887
-13.175
-13.456
-13.729
-13.994
-14.248
-14.493
-14.726
-14.949
-15.16
-15.36
-15.549
-15.726
-15.893
-16.049
-16.195
-16.331
-16.457
-16.575
-16.685
-16.789
-16.888
-16.983
-17.077
-17.17
-17.264
-17.36
-17.461
-17.568
-17.681
-17.803
-17.935
-18.079
-18.236
-18.408
-18.596
-18.8
-19.022
-19.261
-19.517
-19.789
-20.075
-20.375
-20.686
-21.006
-21.333
-21.667
-22.005
-22.346
-22.689
-23.034
-23.376
-23.713
-24.042
-24.356
-24.65
-24.919
-25.155
-25.354
-25.511
-25.621
-25.683
-25.693
-25.65
-25.55
-25.391
-25.164
-24.866
-24.495
-24.054
-23.545
-22.98
-22.371
-21.733
-21.081
-20.43
-19.787
-19.156
-18.532
-17.909
-17.28
-16.643
-16.005
-15.372
-14.748
-14.129
-13.513
-12.887
-12.234
-11.534
-10.756
-9.877
-8.886
-7.785
-6.591
-5.332
-4.039
-2.731
-1.416
-0.107
1.188
2.449
3.666
4.818
5.881
6.823
7.597
8.157
8.477
8.545
8.37
7.968
7.361
6.554
5.551
4.355
2.966
1.386
-0.405
-2.419
-4.665
-7.142
-9.816
-12.663
-15.68
-18.875
-22.269
-25.88
-29.707
-33.759
-38.084
-42.672
-47.423
-52.14
-56.497
-60.176
-62.952
-64.573
-64.728
-63.225
-60.145
-55.861
-51.081
-46.57
-42.818
-40.231
-39.369
-40.579
-43.663
-47.928
-52.012
-54.218
-53.289
-48.148
-37.404
-19.798
5.418
38.159
77.303
120.154
163.176
204.186
240.807
271.592
297.248
313.771
314.322
292.646
240.812
159.559
58.775
-52.439
-164.458
-274.304
-386.235
-499.286
-607.18
-697.891
-757.214
-778.858
-765.706
-727.666
-675.674
-616.924
-554.191
-486.957
-415.938
-343.826
-274.537
-212.797
-161.608
-121.898
-93.378
-74.47
-63.267
-58.22
-57.346
-58.57
-60.045
-60.013
-57.623
-52.947
-46.359
-38.391
-29.826
-21.438
-14.08
-8.722
-5.73
-4.952
-6.073
-8.569
-11.907
-15.645
-19.241
-22.105
-23.924
-24.596
-24.136
-22.708
-20.437
-17.41
-13.77
-9.68
-5.277
-0.695
3.962
8.623
13.191
17.559
21.629
25.299
28.516
31.261
33.536
35.366
36.784
37.828
38.551
39.014
39.278
39.4
39.436
39.431
39.436
39.505
39.689
40.042
40.601
41.39
42.427
43.721
45.276
47.097
49.179
51.51
54.082
56.886
59.918
63.174
66.652
70.342
74.231
78.303
82.54
86.919
91.415
95.998
100.637
105.307
109.986
114.66
119.319
123.952
128.548
133.091
137.557
141.926
146.177
150.294
154.267
158.094
161.784
165.352
168.815
172.176
175.428
178.549
181.508
184.269
186.786
189.02
190.947
192.55
193.817
194.735
195.279
195.408
195.073
194.227
192.82
190.826
188.235
185.053
181.302
177.016
172.257
167.078
161.52
155.607
149.349
142.772
135.924
128.882
121.722
114.519
107.346
100.258
93.306
86.532
79.966
73.617
67.472
61.528
55.792
50.298
45.093
40.202
35.62
31.313
27.254
23.423
19.802
16.378
13.131
10.043
7.108
4.334
1.74
-0.663
-2.881
-4.937
-6.869
-8.691
-10.4
-11.974
-13.4
-14.673
-15.793
-16.76
-17.564
-18.2
-18.672
-18.999
-19.199
-19.287
-19.269
-19.139
-18.892
-18.534
-18.077
-17.541
-16.944
-16.295
-15.607
-14.891
-14.165
-13.442
-12.728
-12.023
-11.328
-10.646
-9.982
-9.344
-8.738
-8.166
-7.629
-7.127
-6.662
-6.232
-5.838
-5.476
-5.145
-4.842
-4.567
-4.321
-4.104
-3.917
-3.756
-3.623
-3.515
-3.432
-3.372
-3.334
-3.315
-3.314
-3.331
-3.363
-3.411
-3.473
-3.548
-3.635
-3.733
-3.842
-3.959
-4.086
-4.221
-4.363
-4.514
-4.672
-4.838
-5.011
-5.192
-5.381
-5.577
-5.782
-5.994
-6.214
-6.442
-6.677
-6.918
-7.167
-7.422
-7.683
-7.949
-8.22
-8.496
-8.776
-9.059
-9.343
-9.629
-9.915
-10.2
-10.483
-10.763
-11.039
-11.31
-11.574
-11.83
-12.078
-12.316
-12.542
-12.755
-12.955
-13.14
-13.31
-13.463
-13.6
-13.72
-13.823
-13.91
-13.98
-14.033
-14.07
-14.092
-14.099
-14.091
-14.069
-14.035
-13.99
-13.936
-13.875
-13.809
-13.74
-13.67
-13.602
-13.539
-13.482
-13.434
-13.397
-13.374
-13.368
-13.38
-13.413
-13.47
-13.551
-13.658
-13.793
-13.955
-14.145
-14.361
-14.603
-14.869
-15.157
-15.467
-15.797
-16.145
-16.51
-16.891
-17.288
-17.699
-18.119
-18.545
-18.972
-19.393
-19.803
-20.193
-20.555
-20.885
-21.174
-21.419
-21.618
-21.764
-21.854
-21.881
-21.837
-21.716
-21.519
-21.241
-20.886
-20.459
-19.97
-19.438
-18.882
-18.313
-17.74
-17.168
-16.591
-16.008
-15.415
-14.803
-14.175
-13.532
-12.87
-12.192
-11.497
-10.771
-10.001
-9.156
-8.201
-7.117
-5.894
-4.529
-3.041
-1.446
0.229
1.947
3.686
5.429
7.151
8.843
10.489
12.062
13.534
14.861
15.989
16.882
17.512
17.861
17.933
17.734
17.274
16.579
15.659
14.518
13.161
11.579
9.761
7.693
5.369
2.795
-0.012
-3.026
-6.242
-9.669
-13.328
-17.238
-21.414
-25.843
-30.527
-35.515
-40.764
-46.136
-51.4
-56.164
-60.083
-62.952
-64.518
-64.454
-62.647
-59.192
-54.467
-49.354
-44.692
-40.955
-38.638
-38.225
-39.817
-43.171
-47.532
-51.205
-52.331
-49.578
-41.686
-27.276
-5.351
24.447
61.903
104.666
148.621
191.442
231.245
266.61
298.471
323.029
332.334
319.548
276.922
203.74
108.623
1.161
-109.345
-217.986
-326.238
-435.725
-542.469
-637.694
-711.039
-752.635
-761.324
-743.456
-705.557
-655.686
-598.236
-532.933
-461.881
-387.688
-313.516
-244.773
-185.11
-136.161
-98.905
-72.748
-56.095
-47.402
-44.864
-46.078
-48.861
-51.339
-51.843
-49.7
-45.071
-38.325
-30.115
-21.398
-13.033
-5.907
-0.884
1.801
2.337
1.068
-1.464
-4.713
-8.208
-11.422
-13.838
-15.213
-15.478
-14.679
-12.975
-10.489
-7.32
-3.609
0.495
4.863
9.381
13.957
18.519
22.978
27.239
31.211
34.809
37.985
40.724
43.031
44.937
46.472
47.675
48.598
49.299
49.835
50.261
50.628
50.975
51.351
51.804
52.381
53.132
54.089
55.272
56.697
58.371
60.299
62.481
64.911
67.575
70.463
73.567
76.882
80.408
84.136
88.05
92.134
96.371
100.741
105.22
109.779
114.378
118.987
123.585
128.153
132.681
137.158
141.565
145.888
150.112
154.224
158.217
162.078
165.788
169.344
172.754
176.035
179.226
182.341
185.375
188.316
191.141
193.822
196.334
198.641
200.694
202.465
203.928
205.06
205.854
206.278
206.28
205.802
204.765
203.111
200.823
197.885
194.297
190.08
185.262
179.884
174.011
167.679
160.902
153.71
146.123
138.186
129.98
121.591
113.123
104.685
96.353
88.198
80.282
72.641
65.298
58.274
51.567
45.208
39.252
33.735
28.691
24.137
20.056
16.422
13.197
10.313
7.719
5.375
3.238
1.295
-0.463
-2.05
-3.472
-4.748
-5.923
-7.028
-8.089
-9.131
-10.158
-11.167
-12.148
-13.065
-13.888
-14.598
-15.183
-15.64
-15.98
-16.204
-16.317
-16.329
-16.234
-16.034
-15.73
-15.322
-14.816
-14.227
-13.569
-12.87
-12.157
-11.449
-10.761
-10.104
-9.483
-8.906
-8.377
-7.894
-7.459
-7.074
-6.741
-6.462
-6.24
-6.073
-5.958
-5.891
-5.864
-5.875
-5.919
-5.992
-6.091
-6.213
-6.357
-6.522
-6.706
-6.91
-7.129
-7.36
-7.602
-7.851
-8.105
-8.361
-8.616
-8.868
-9.116
-9.357
-9.592
-9.818
-10.034
-10.24
-10.436
-10.621
-10.795
-10.958
-11.11
-11.252
-11.384
-11.508
-11.624
-11.733
-11.836
-11.935
-12.029
-12.121
-12.211
-12.301
-12.39
-12.479
-12.57
-12.663
-12.759
-12.859
-12.963
-13.073
-13.188
-13.309
-13.437
-13.572
-13.713
-13.86
-14.013
-14.172
-14.336
-14.506
-14.679
-14.857
-15.038
-15.222
-15.408
-15.595
-15.782
-15.969
-16.154
-16.338
-16.518
-16.696
-16.869
-17.039
-17.204
-17.364
-17.52
-17.671
-17.818
-17.961
-18.099
-18.234
-18.367
-18.497
-18.627
-18.757
-18.888
-19.022
-19.159
-19.301
-19.449
-19.603
-19.765
-19.936
-20.115
-20.303
-20.501
-20.709
-20.928
-21.157
-21.396
-21.646
-21.905
-22.172
-22.447
-22.728
-23.014
-23.302
-23.59
-23.876
-24.157
-24.431
-24.693
-24.941
-25.17
-25.376
-25.555
-25.703
-25.813
-25.883
-25.907
-25.881
-25.803
-25.668
-25.473
-25.218
-24.901
-24.52
-24.076
-23.568
-22.995
-22.36
-21.662
-20.903
-20.084
-19.209
-18.28
-17.302
-16.282
-15.224
-14.135
-13.022
-11.891
-10.749
-9.605
-8.464
-7.335
-6.224
-5.142
-4.097
-3.102
-2.166
-1.294
-0.488
0.25
0.925
1.539
2.101
2.623
3.116
3.589
4.05
4.502
4.952
5.409
5.881
6.38
6.916
7.485
8.086
8.711
9.339
9.949
10.509
10.97
11.291
11.431
11.346
10.991
10.329
9.314
7.912
6.104
3.858
1.147
-2.055
-5.774
-10.008
-14.72
-19.884
-25.495
-31.473
-37.658
-43.792
-49.472
-54.346
-58.183
-60.716
-61.61
-60.723
-58.124
-54.173
-49.72
-45.546
-42.094
-39.864
-39.359
-40.743
-43.876
-48.058
-51.622
-52.924
-50.833
-43.945
-30.849
-10.541
17.744
53.007
92.057
132.066
171.194
209.614
248.829
287.068
317.945
330.404
313.127
261.156
178.273
76.471
-31.722
-139.184
-245.901
-356.615
-471.794
-584.484
-681.38
-748.157
-777.84
-772.601
-741.817
-695.917
-641.751
-582.031
-516.006
-444.215
-369.575
-296.254
-229.652
-173.483
-129.083
-96.469
-74.393
-61.142
-55.124
-54.365
-56.387
-58.836
-59.738
-58.032
-53.64
-46.921
-38.421
-28.889
-19.29
-10.697
-4.155
-0.148
1.449
0.991
-1.007
-4.02
-7.562
-11.064
-13.922
-15.772
-16.499
-16.117
-14.77
-12.583
-9.635
-6.053
-1.994
2.405
7.016
11.732
16.481
21.174
25.711
29.999
33.945
37.477
40.561
43.191
45.378
47.152
48.547
49.601
50.37
50.913
51.289
51.554
51.759
51.948
52.172
52.48
52.923
53.546
54.378
55.441
56.749
58.31
60.13
62.211
64.543
67.117
69.926
72.966
76.235
79.729
83.435
87.34
91.428
95.679
100.074
104.583
109.17
113.806
118.47
123.142
127.813
132.471
137.097
141.677
146.195
150.636
154.992
159.249
163.386
167.399
171.288
175.069
178.776
182.419
185.99
189.472
192.838
196.062
199.115
201.963
204.558
206.865
208.852
210.495
211.783
212.679
213.132
213.077
212.43
211.138
209.185
206.56
203.266
199.32
194.741
189.57
183.865
177.667
171.0
163.89
156.357
148.455
140.266
131.888
123.439
115.014
106.678
98.493
90.512
82.774
75.31
68.139
61.262
54.703
48.51
42.725
37.384
32.496
28.038
23.972
20.242
16.801
13.618
10.663
7.91
5.346
2.962
0.753
-1.276
-3.141
-4.882
-6.528
-8.11
-9.642
-11.115
-12.514
-13.814
-14.991
-16.028
-16.911
-17.635
-18.202
-18.617
-18.893
-19.043
-19.075
-18.984
-18.77
-18.432
-17.974
-17.413
-16.766
-16.057
-15.31
-14.547
-13.786
-13.043
-12.329
-11.65
-11.01
-10.41
-9.854
-9.344
-8.887
-8.487
-8.148
-7.869
-7.651
-7.49
-7.384
-7.329
-7.321
-7.356
-7.432
-7.547
-7.699
-7.888
-8.114
-8.375
-8.669
-8.993
-9.345
-9.721
-10.119
-10.536
-10.968
-11.412
-11.867
-12.33
-12.799
-13.272
-13.747
-14.223
-14.698
-15.17
-15.638
-16.101
-16.557
-17.006
-17.447
-17.878
-18.3
-18.712
-19.113
-19.502
-19.88
-20.247
-20.6
-20.941
-21.268
-21.582
-21.882
-22.167
-22.438
-22.694
-22.937
-23.166
-23.382
-23.586
-23.777
-23.956
-24.124
-24.282
-24.429
-24.567
-24.696
-24.817
-24.931
-25.04
-25.144
-25.245
-25.345
-25.444
-25.545
-25.65
-25.758
-25.874
-25.997
-26.131
-26.276
-26.435
-26.61
-26.802
-27.013
-27.244
-27.496
-27.771
-28.069
-28.389
-28.733
-29.1
-29.488
-29.898
-30.328
-30.777
-31.243
-31.724
-32.218
-32.722
-33.232
-33.747
-34.262
-34.773
-35.275
-35.765
-36.238
-36.689
-37.113
-37.505
-37.859
-38.171
-38.435
-38.646
-38.798
-38.886
-38.905
-38.852
-38.721
-38.51
-38.215
-37.836
-37.371
-36.819
-36.182
-35.462
-34.659
-33.776
-32.817
-31.784
-30.684
-29.52
-28.297
-27.021
-25.7
-24.341
-22.953
-21.546
-20.128
-18.707
-17.293
-15.896
-14.527
-13.193
-11.904
-10.668
-9.493
-8.39
-7.37
-6.441
-5.607
-4.868
-4.225
-3.674
-3.212
-2.832
-2.519
-2.258
-2.038
-1.847
-1.677
-1.52
-1.365
-1.199
-1.006
-0.776
-0.508
-0.207
0.125
0.476
0.834
1.173
1.444
1.605
1.608
1.401
0.946
0.201
-0.875
-2.305
-4.125
-6.372
-9.072
-12.248
-15.922
-20.074
-24.708
-29.854
-35.41
-41.2
-46.962
-52.276
-56.796
-60.322
-62.534
-63.052
-61.82
-58.939
-54.818
-50.412
-46.374
-43.007
-40.923
-40.642
-42.14
-45.219
-48.955
-51.377
-51.145
-47.37
-38.341
-22.597
0.508
31.588
69.08
108.935
149.438
189.56
227.999
266.03
299.693
320.121
319.786
290.057
229.235
145.401
48.016
-53.766
-155.256
-258.316
-365.353
-472.657
-570.874
-649.048
-696.737
-712.195
-701.92
-672.406
-631.083
-582.251
-525.432
-462.371
-395.64
-328.031
-264.335
-207.918
-160.471
-123.052
-95.284
-75.883
-63.481
-56.728
-53.871
-53.182
-53.029
-51.762
-48.58
-43.519
-36.857
-29.032
-20.712
-12.536
-5.271
0.157
3.373
4.482
3.753
1.657
-1.331
-4.818
-8.303
-11.219
-13.231
-14.202
-14.12
-13.114
-11.293
-8.728
-5.538
-1.867
2.161
6.425
10.829
15.307
19.781
24.157
28.35
32.269
35.843
39.038
41.843
44.27
46.346
48.104
49.582
50.831
51.907
52.866
53.757
54.626
55.511
56.453
57.499
58.691
60.071
61.667
63.494
65.563
67.881
70.45
73.268
76.329
79.615
83.115
86.82
90.725
94.824
99.109
103.562
108.166
112.904
117.753
122.691
127.686
132.698
137.698
142.66
147.564
152.401
157.156
161.81
166.348
170.755
175.018
179.13
183.078
186.845
190.43
193.838
197.088
200.215
203.233
206.14
208.927
211.573
214.052
216.344
218.414
220.223
221.744
222.943
223.794
224.283
224.369
224.005
223.13
221.662
219.552
216.779
213.325
209.197
204.414
198.991
192.97
186.4
179.31
171.74
163.73
155.312
146.557
137.549
128.384
119.186
110.055
101.062
92.282
83.765
75.549
67.675
60.17
53.049
46.355
40.121
34.368
29.123
24.376
20.1
16.256
12.778
9.61
6.715
4.053
1.602
-0.651
-2.728
-4.645
-6.413
-8.066
-9.634
-11.136
-12.598
-14.025
-15.408
-16.734
-17.969
-19.083
-20.06
-20.888
-21.566
-22.099
-22.489
-22.741
-22.866
-22.862
-22.73
-22.475
-22.098
-21.607
-21.018
-20.351
-19.633
-18.891
-18.146
-17.413
-16.704
-16.027
-15.39
-14.796
-14.246
-13.742
-13.286
-12.881
-12.531
-12.238
-11.999
-11.813
-11.674
-11.576
-11.515
-11.487
-11.487
-11.512
-11.559
-11.627
-11.714
-11.818
-11.939
-12.073
-12.216
-12.366
-12.519
-12.673
-12.824
-12.969
-13.108
-13.237
-13.356
-13.464
-13.559
-13.642
-13.712
-13.769
-13.814
-13.846
-13.867
-13.877
-13.879
-13.873
-13.861
-13.845
-13.827
-13.808
-13.791
-13.777
-13.768
-13.766
-13.772
-13.789
-13.817
-13.858
-13.914
-13.986
-14.076
-14.184
-14.313
-14.463
-14.634
-14.828
-15.046
-15.286
-15.549
-15.836
-16.146
-16.478
-16.833
-17.209
-17.607
-18.025
-18.462
-18.918
-19.391
-19.881
-20.387
-20.906
-21.439
-21.982
-22.535
-23.096
-23.662
-24.233
-24.805
-25.376
-25.945
-26.509
-27.067
-27.614
-28.15
-28.672
-29.177
-29.663
-30.126
-30.564
-30.975
-31.356
-31.702
-32.013
-32.284
-32.513
-32.696
-32.831
-32.914
-32.942
-32.912
-32.821
-32.667
-32.448
-32.163
-31.809
-31.387
-30.898
-30.343
-29.722
-29.038
-28.293
-27.49
-26.631
-25.72
-24.761
-23.757
-22.713
-21.633
-20.524
-19.393
-18.247
-17.092
-15.936
-14.785
-13.647
-12.531
-11.444
-10.391
-9.381
-8.419
-7.514
-6.677
-5.915
-5.23
-4.622
-4.09
-3.628
-3.233
-2.896
-2.603
-2.342
-2.1
-1.865
-1.633
-1.397
-1.149
-0.88
-0.571
-0.215
0.188
0.63
1.102
1.583
2.059
2.506
2.871
3.113
3.184
3.03
2.623
1.93
0.911
-0.456
-2.21
-4.392
-7.025
-10.132
-13.726
-17.783
-22.304
-27.32
-32.748
-38.433
-44.136
-49.459
-54.057
-57.699
-60.093
-60.883
-59.912
-57.235
-53.203
-48.665
-44.472
-41.162
-39.28
-39.375
-41.651
-45.936
-51.522
-56.737
-59.625
-58.686
-52.497
-39.533
-18.639
10.667
48.248
91.739
136.921
181.278
222.61
259.418
292.37
317.103
325.772
311.671
267.234
192.691
96.348
-13.6
-127.284
-238.571
-346.458
-447.871
-539.258
-616.543
-674.288
-709.618
-722.188
-712.584
-682.941
-636.569
-577.145
-508.909
-436.518
-364.028
-294.735
-231.846
-177.733
-133.627
-100.101
-76.614
-61.627
-53.56
-50.76
-51.088
-52.67
-53.943
-53.496
-50.857
-46.258
-40.03
-32.752
-25.251
-18.223
-12.405
-8.518
-6.697
-6.727
-8.271
-10.804
-13.822
-16.898
-19.55
-21.338
-22.069
-21.699
-20.294
-18.012
-14.974
-11.293
-7.111
-2.578
2.174
7.03
11.898
16.691
21.315
25.67
29.661
33.228
36.343
39.001
41.224
43.043
44.494
45.626
46.498
47.165
47.685
48.11
48.488
48.87
49.307
49.851
50.551
51.446
52.558
53.906
55.496
57.333
59.416
61.741
64.298
67.077
70.072
73.276
76.682
80.282
84.063
88.013
92.115
96.356
100.721
105.193
109.757
114.394
119.087
123.817
128.566
133.313
138.038
142.716
147.325
151.84
156.239
160.499
164.595
168.506
172.211
175.688
178.919
181.886
184.57
186.957
189.03
190.778
192.189
193.251
193.957
194.3
194.274
193.876
193.104
191.959
190.443
188.56
186.316
183.717
180.774
177.498
173.901
169.996
165.8
161.329
156.601
151.635
146.45
141.067
135.509
129.796
123.95
117.995
111.952
105.844
99.694
93.524
87.355
81.21
75.108
69.07
63.116
57.265
51.533
45.939
40.496
35.22
30.124
25.22
20.517
16.026
11.753
7.705
3.886
0.301
-3.049
-6.162
-9.04
-11.684
-14.096
-16.281
-18.243
-19.989
-21.525
-22.858
-23.997
-24.951
-25.728
-26.339
-26.793
-27.101
-27.274
-27.322
-27.256
-27.086
-26.823
-26.477
-26.059
-25.577
-25.042
-24.462
-23.845
-23.2
-22.533
-21.851
-21.161
-20.468
-19.778
-19.094
-18.421
-17.762
-17.121
-16.499
-15.9
-15.323
-14.772
-14.246
-13.747
-13.274
-12.828
-12.408
-12.015
-11.648
-11.306
-10.988
-10.694
-10.422
-10.173
-9.944
-9.736
-9.547
-9.377
-9.225
-9.091
-8.975
-8.876
-8.794
-8.729
-8.682
-8.651
-8.639
-8.644
-8.668
-8.71
-8.772
-8.852
-8.952
-9.071
-9.21
-9.369
-9.547
-9.744
-9.96
-10.194
-10.447
-10.716
-11.003
-11.305
-11.622
-11.952
-12.296
-12.65
-13.015
-13.387
-13.767
-14.153
-14.542
-14.933
-15.325
-15.716
-16.104
-16.488
-16.866
-17.237
-17.598
-17.95
-18.289
-18.616
-18.929
-19.229
-19.514
-19.785
-20.041
-20.282
-20.511
-20.726
-20.928
-21.12
-21.301
-21.475
-21.641
-21.802
-21.959
-22.115
-22.272
-22.43
-22.592
-22.759
-22.932
-23.113
-23.303
-23.502
-23.711
-23.931
-24.162
-24.404
-24.657
-24.922
-25.197
-25.481
-25.773
-26.072
-26.376
-26.681
-26.986
-27.287
-27.581
-27.865
-28.135
-28.386
-28.615
-28.816
-28.984
-29.114
-29.202
-29.242
-29.231
-29.163
-29.035
-28.843
-28.586
-28.262
-27.87
-27.409
-26.88
-26.282
-25.616
-24.885
-24.09
-23.233
-22.317
-21.344
-20.32
-19.25
-18.14
-16.997
-15.826
-14.636
-13.433
-12.225
-11.022
-9.831
-8.659
-7.516
-6.408
-5.344
-4.339
-3.399
-2.528
-1.73
-1.004
-0.345
0.247
0.779
1.266
1.718
2.148
2.569
2.985
3.401
3.825
4.265
4.737
5.25
5.803
6.388
6.993
7.598
8.188
8.736
9.189
9.5
9.614
9.472
9.039
8.278
7.148
5.626
3.671
1.238
-1.7
-5.171
-9.185
-13.715
-18.763
-24.362
-30.418
-36.755
-43.103
-49.027
-54.17
-58.314
-61.166
-62.368
-61.777
-59.461
-55.798
-51.687
-47.921
-44.943
-43.262
-43.367
-45.401
-49.202
-53.993
-57.988
-59.477
-57.249
-49.771
-35.584
-13.651
16.786
54.56
96.324
139.164
181.063
221.715
262.138
300.262
329.724
340.168
321.084
267.735
183.727
80.923
-28.301
-136.609
-243.579
-354.238
-469.297
-581.635
-677.476
-741.942
-767.924
-758.192
-723.267
-674.236
-618.242
-557.928
-492.407
-422.275
-350.282
-280.44
-217.741
-165.511
-124.929
-95.854
-76.727
-65.524
-60.627
-60.039
-61.594
-63.312
-63.288
-60.555
-55.158
-47.53
-38.259
-28.16
-18.082
-8.959
-1.862
2.74
4.932
4.999
3.458
0.838
-2.412
-5.74
-8.538
-10.447
-11.323
-11.149
-10.065
-8.188
-5.591
-2.405
1.229
5.189
9.362
13.66
18.018
22.353
26.572
30.585
34.3
37.641
40.568
43.064
45.139
46.822
48.145
49.151
49.887
50.414
50.787
51.06
51.284
51.503
51.762
52.112
52.601
53.274
54.164
55.29
56.664
58.292
60.178
62.32
64.711
67.341
70.198
73.274
76.56
80.05
83.733
87.595
91.62
95.793
100.097
104.516
109.033
113.63
118.287
122.985
127.705
132.427
137.13
141.792
146.39
150.899
155.297
159.559
163.663
167.586
171.306
174.802
178.055
181.047
183.761
186.181
188.293
190.084
191.543
192.661
193.43
193.842
193.894
193.583
192.907
191.867
190.465
188.707
186.597
184.144
181.357
178.246
174.825
171.107
167.107
162.842
158.329
153.586
148.635
143.494
138.185
132.731
127.152
121.47
115.709
109.89
104.034
98.164
92.301
86.464
80.675
74.951
69.313
63.778
58.362
53.082
47.951
42.983
38.192
33.586
29.178
24.973
20.981
17.207
13.655
10.328
7.229
4.358
1.714
-0.704
-2.899
-4.875
-6.638
-8.192
-9.546
-10.706
-11.68
-12.478
-13.108
-13.58
-13.904
-14.09
-14.148
-14.089
-13.924
-13.661
-13.313
-12.889
-12.399
-11.852
-11.257
-10.624
-9.961
-9.275
-8.575
-7.867
-7.159
-6.455
-5.763
-5.086
-4.431
-3.8
-3.197
-2.626
-2.088
-1.587
-1.125
-0.702
-0.32
0.021
0.32
0.576
0.79
0.962
1.093
1.183
1.233
1.244
1.216
1.152
1.052
0.918
0.75
0.551
0.32
0.06
-0.227
-0.542
-0.881
-1.245
-1.631
-2.038
-2.465
-2.91
-3.372
-3.85
-4.342
-4.846
-5.362
-5.887
-6.421
-6.961
-7.507
-8.056
-8.607
-9.159
-9.71
-10.258
-10.803
-11.342
-11.875
-12.4
-12.915
-13.42
-13.914
-14.394
-14.861
-15.313
-15.75
-16.172
-16.577
-16.965
-17.336
-17.69
-18.027
-18.346
-18.648
-18.934
-19.203
-19.457
-19.696
-19.921
-20.134
-20.336
-20.528
-20.712
-20.889
-21.061
-21.23
-21.398
-21.566
-21.736
-21.911
-22.092
-22.281
-22.48
-22.69
-22.912
-23.147
-23.395
-23.658
-23.935
-24.226
-24.531
-24.849
-25.18
-25.522
-25.874
-26.236
-26.604
-26.978
-27.353
-27.729
-28.102
-28.468
-28.825
-29.168
-29.493
-29.798
-30.076
-30.324
-30.538
-30.712
-30.841
-30.922
-30.948
-30.915
-30.82
-30.658
-30.427
-30.123
-29.746
-29.293
-28.766
-28.166
-27.491
-26.746
-25.93
-25.046
-24.098
-23.088
-22.019
-20.896
-19.724
-18.51
-17.262
-15.987
-14.693
-13.388
-12.083
-10.784
-9.501
-8.243
-7.016
-5.829
-4.693
-3.618
-2.617
-1.7
-0.87
-0.129
0.521
1.087
1.573
1.989
2.351
2.67
2.955
3.214
3.447
3.665
3.878
4.101
4.347
4.628
4.942
5.287
5.659
6.042
6.414
6.748
6.997
7.127
7.109
6.918
6.529
5.902
4.997
3.769
2.186
0.23
-2.109
-4.853
-8.022
-11.619
-15.641
-20.042
-24.778
-29.867
-35.229
-40.707
-46.064
-50.9
-54.843
-57.672
-59.077
-58.683
-56.469
-52.591
-47.459
-42.056
-37.146
-33.138
-30.709
-30.437
-32.232
-35.763
-40.096
-43.269
-43.733
-40.35
-31.542
-15.919
7.298
38.335
76.42
118.662
161.275
201.973
238.221
268.617
294.063
310.435
310.605
288.243
235.317
152.7
50.733
-61.305
-173.717
-283.576
-395.437
-508.356
-615.879
-705.85
-763.799
-783.422
-767.877
-727.263
-672.796
-611.831
-547.03
-477.822
-404.893
-330.97
-260.171
-197.391
-145.677
-105.938
-77.812
-59.61
-49.34
-45.343
-45.482
-47.552
-49.633
-49.955
-47.69
-42.947
-36.131
-27.834
-18.911
-10.185
-2.538
3.084
6.353
7.423
6.615
4.463
1.503
-1.813
-4.941
-7.318
-8.661
-8.877
-7.993
-6.175
-3.546
-0.203
3.704
8.014
12.587
17.3
22.058
26.791
31.406
35.805
39.892
43.575
46.807
49.57
51.867
53.722
55.169
56.247
57.01
57.518
57.832
58.007
58.097
58.146
58.206
58.328
58.565
58.967
59.57
60.399
61.47
62.792
64.368
66.201
68.284
70.604
73.153
75.923
78.911
82.116
85.531
89.145
92.943
96.905
101.008
105.224
109.525
113.88
118.262
122.649
127.026
131.384
135.716
140.015
144.263
148.439
152.521
156.49
160.331
164.031
167.589
171.011
174.31
177.504
180.603
183.604
186.486
189.215
191.746
194.027
196.017
197.686
199.011
199.969
200.541
200.706
200.437
199.701
198.456
196.654
194.26
191.258
187.657
183.488
178.803
173.671
168.151
162.299
156.161
149.778
143.19
136.435
129.554
122.594
115.61
108.669
101.83
95.142
88.635
82.32
76.194
70.239
64.441
58.788
53.277
47.91
42.694
37.638
32.75
28.041
23.512
19.157
14.967
10.938
7.069
3.369
-0.152
-3.473
-6.58
-9.459
-12.101
-14.504
-16.669
-18.599
-20.305
-21.798
-23.088
-24.184
-25.092
-25.82
-26.375
-26.769
-27.013
-27.12
-27.103
-26.976
-26.752
-26.443
-26.059
-25.61
-25.105
-24.549
-23.951
-23.316
-22.652
-21.965
-21.262
-20.549
-19.833
-19.119
-18.412
-17.716
-17.034
-16.371
-15.726
-15.103
-14.502
-13.925
-13.371
-12.842
-12.336
-11.855
-11.397
-10.962
-10.55
-10.16
-9.791
-9.443
-9.114
-8.805
-8.513
-8.24
-7.983
-7.744
-7.522
-7.316
-7.127
-6.955
-6.799
-6.66
-6.538
-6.432
-6.343
-6.27
-6.214
-6.175
-6.154
-6.15
-6.166
-6.2
-6.253
-6.326
-6.419
-6.532
-6.665
-6.818
-6.99
-7.182
-7.392
-7.621
-7.868
-8.132
-8.412
-8.707
-9.016
-9.337
-9.67
-10.013
-10.364
-10.723
-11.087
-11.456
-11.828
-12.202
-12.576
-12.949
-13.32
-13.688
-14.052
-14.41
-14.762
-15.108
-15.446
-15.777
-16.1
-16.416
-16.724
-17.025
-17.32
-17.608
-17.892
-18.171
-18.446
-18.72
-18.992
-19.265
-19.54
-19.817
-20.099
-20.386
-20.679
-20.979
-21.287
-21.603
-21.927
-22.259
-22.6
-22.95
-23.307
-23.671
-24.042
-24.418
-24.797
-25.179
-25.56
-25.938
-26.311
-26.674
-27.027
-27.363
-27.681
-27.976
-28.245
-28.482
-28.684
-28.846
-28.963
-29.032
-29.047
-29.006
-28.904
-28.739
-28.508
-28.209
-27.842
-27.407
-26.904
-26.333
-25.696
-24.993
-24.228
-23.403
-22.521
-21.585
-20.598
-19.567
-18.497
-17.396
-16.27
-15.128
-13.975
-12.82
-11.672
-10.538
-9.427
-8.346
-7.302
-6.303
-5.357
-4.476
-3.668
-2.937
-2.282
-1.704
-1.198
-0.762
-0.386
-0.056
0.241
0.519
0.791
1.06
1.336
1.626
1.941
2.297
2.703
3.158
3.66
4.197
4.757
5.322
5.864
6.33
6.674
6.841
6.774
6.434
5.774
4.756
3.354
1.527
-0.762
-3.546
-6.853
-10.696
-15.053
-19.918
-25.312
-31.145
-37.25
-43.36
-49.057
-53.987
-57.906
-60.53
-61.508
-60.677
-58.087
-54.07
-49.457
-45.012
-41.178
-38.47
-37.418
-38.227
-40.806
-44.506
-47.693
-48.766
-46.582
-39.624
-26.39
-5.747
23.176
59.36
99.63
141.165
182.005
221.952
262.066
300.279
330.101
340.753
321.294
266.651
180.373
74.732
-37.571
-148.896
-258.676
-372.139
-489.723
-603.898
-700.513
-764.175
-787.962
-775.164
-736.763
-684.444
-625.502
-562.489
-494.519
-422.094
-347.973
-276.264
-211.928
-158.216
-116.266
-85.897
-65.562
-53.32
-47.606
-46.453
-47.743
-49.517
-49.856
-47.76
-43.222
-36.596
-28.402
-19.411
-10.419
-2.336
3.772
7.452
8.813
8.157
6.001
2.885
-0.745
-4.32
-7.203
-9.051
-9.745
-9.293
-7.863
-5.584
-2.536
1.132
5.253
9.687
14.298
18.987
23.688
28.306
32.734
36.871
40.613
43.902
46.72
49.067
50.965
52.448
53.553
54.333
54.851
55.165
55.335
55.415
55.449
55.49
55.591
55.805
56.186
56.775
57.594
58.663
59.99
61.58
63.435
65.551
67.915
70.518
73.351
76.408
79.685
83.179
86.883
90.78
94.851
99.073
103.422
107.873
112.402
116.978
121.575
126.174
130.763
135.338
139.893
144.414
148.877
153.254
157.516
161.648
165.635
169.469
173.148
176.674
180.053
183.305
186.437
189.434
192.265
194.879
197.223
199.263
200.979
202.36
203.399
204.08
204.392
204.327
203.86
202.957
201.569
199.632
197.108
193.997
190.327
186.148
181.521
176.485
171.069
165.303
159.21
152.808
146.101
139.101
131.844
124.392
116.842
109.297
101.833
94.497
87.307
80.272
73.396
66.69
60.166
53.838
47.727
41.875
36.344
31.179
26.401
21.996
17.908
14.089
10.511
7.154
4.013
1.083
-1.64
-4.155
-6.454
-8.536
-10.41
-12.105
-13.675
-15.155
-16.563
-17.895
-19.121
-20.223
-21.195
-22.028
-22.719
-23.265
-23.666
-23.933
-24.089
-24.15
-24.123
-24.008
-23.791
-23.469
-23.05
-22.546
-21.979
-21.366
-20.721
-20.058
-19.394
-18.742
-18.114
-17.511
-16.931
-16.373
-15.839
-15.333
-14.861
-14.425
-14.027
-13.664
-13.336
-13.041
-12.778
-12.543
-12.333
-12.143
-11.972
-11.819
-11.684
-11.568
-11.468
-11.385
-11.317
-11.263
-11.222
-11.192
-11.172
-11.16
-11.156
-11.157
-11.165
-11.178
-11.195
-11.216
-11.242
-11.271
-11.305
-11.343
-11.386
-11.433
-11.485
-11.543
-11.607
-11.676
-11.752
-11.833
-11.922
-12.017
-12.119
-12.227
-12.342
-12.463
-12.59
-12.722
-12.859
-13.0
-13.144
-13.291
-13.441
-13.593
-13.746
-13.9
-14.055
-14.209
-14.362
-14.513
-14.662
-14.809
-14.952
-15.092
-15.229
-15.362
-15.492
-15.618
-15.742
-15.864
-15.985
-16.106
-16.227
-16.35
-16.475
-16.606
-16.743
-16.888
-17.042
-17.208
-17.387
-17.582
-17.793
-18.022
-18.27
-18.539
-18.83
-19.142
-19.477
-19.835
-20.216
-20.619
-21.045
-21.492
-21.959
-22.445
-22.948
-23.466
-23.997
-24.536
-25.082
-25.631
-26.179
-26.722
-27.255
-27.774
-28.275
-28.751
-29.198
-29.609
-29.98
-30.304
-30.576
-30.791
-30.943
-31.03
-31.046
-30.989
-30.856
-30.647
-30.361
-29.997
-29.554
-29.034
-28.438
-27.768
-27.027
-26.216
-25.339
-24.401
-23.407
-22.365
-21.281
-20.163
-19.017
-17.852
-16.676
-15.498
-14.328
-13.172
-12.039
-10.938
-9.879
-8.876
-7.938
-7.069
-6.273
-5.549
-4.893
-4.304
-3.775
-3.289
-2.834
-2.397
-1.967
-1.541
-1.114
-0.676
-0.22
0.271
0.805
1.377
1.983
2.61
3.236
3.845
4.405
4.857
5.155
5.243
5.064
4.59
3.785
2.61
1.048
-0.943
-3.401
-6.341
-9.787
-13.743
-18.177
-23.09
-28.498
-34.303
-40.341
-46.36
-51.978
-56.882
-60.859
-63.643
-64.897
-64.414
-62.239
-58.71
-54.522
-50.411
-46.78
-43.967
-42.549
-42.896
-44.903
-48.025
-50.967
-52.052
-50.275
-44.817
-34.108
-16.805
7.687
39.613
77.022
116.069
155.29
193.709
230.196
266.064
297.169
314.816
311.562
278.277
213.165
124.51
21.817
-84.714
-189.707
-296.35
-407.652
-521.376
-629.46
-717.301
-771.611
-787.831
-769.499
-726.907
-671.153
-609.018
-543.119
-473.302
-400.234
-326.702
-257.013
-195.869
-146.074
-108.346
-82.059
-65.398
-56.406
-53.389
-54.12
-56.398
-58.365
-58.376
-55.752
-50.684
-43.595
-35.108
-26.123
-17.478
-10.035
-4.68
-1.673
-0.832
-1.821
-4.109
-7.157
-10.511
-13.64
-16.011
-17.363
-17.617
-16.807
-15.093
-12.594
-9.405
-5.668
-1.536
2.86
7.403
12.003
16.591
21.076
25.361
29.352
32.96
36.138
38.868
41.154
43.021
44.5
45.632
46.467
47.066
47.488
47.786
48.011
48.208
48.428
48.722
49.142
49.738
50.548
51.593
52.893
54.458
56.292
58.396
60.764
63.385
66.253
69.365
72.716
76.297
80.096
84.097
88.28
92.625
97.106
101.69
106.347
111.045
115.76
120.48
125.187
129.865
134.495
139.053
143.527
147.916
152.215
156.417
160.52
164.518
168.423
172.264
176.056
179.81
183.527
187.182
190.754
194.23
197.583
200.791
203.823
206.613
209.111
211.273
213.047
214.385
215.224
215.472
215.058
213.931
212.054
209.42
206.034
201.885
196.985
191.351
185.002
178.003
170.421
162.307
153.737
144.786
135.548
126.154
116.725
107.36
98.144
89.14
80.394
71.971
63.925
56.302
49.156
42.501
36.34
30.69
25.545
20.89
16.695
12.897
9.417
6.206
3.224
0.44
-2.157
-4.598
-6.915
-9.132
-11.282
-13.385
-15.446
-17.48
-19.499
-21.495
-23.46
-25.36
-27.146
-28.79
-30.276
-31.591
-32.739
-33.716
-34.512
-35.129
-35.565
-35.822
-35.907
-35.821
-35.567
-35.157
-34.605
-33.937
-33.186
-32.378
-31.53
-30.659
-29.776
-28.89
-28.013
-27.151
-26.308
-25.486
-24.692
-23.931
-23.21
-22.533
-21.902
-21.315
-20.769
-20.263
-19.797
-19.368
-18.976
-18.621
-18.302
-18.021
-17.779
-17.577
-17.415
-17.292
-17.205
-17.153
-17.133
-17.144
-17.183
-17.246
-17.332
-17.439
-17.563
-17.704
-17.858
-18.023
-18.197
-18.378
-18.564
-18.752
-18.94
-19.127
-19.312
-19.492
-19.667
-19.835
-19.996
-20.149
-20.293
-20.427
-20.552
-20.666
-20.77
-20.863
-20.945
-21.017
-21.08
-21.134
-21.18
-21.219
-21.253
-21.283
-21.311
-21.338
-21.367
-21.398
-21.434
-21.477
-21.528
-21.589
-21.662
-21.75
-21.853
-21.974
-22.114
-22.274
-22.455
-22.658
-22.883
-23.13
-23.4
-23.691
-24.003
-24.335
-24.686
-25.054
-25.437
-25.833
-26.24
-26.655
-27.074
-27.495
-27.913
-28.324
-28.725
-29.11
-29.476
-29.817
-30.128
-30.405
-30.642
-30.834
-30.975
-31.061
-31.086
-31.045
-30.935
-30.752
-30.492
-30.154
-29.735
-29.236
-28.656
-27.997
-27.26
-26.446
-25.557
-24.599
-23.573
-22.484
-21.337
-20.136
-18.888
-17.6
-16.278
-14.932
-13.569
-12.196
-10.823
-9.457
-8.11
-6.791
-5.504
-4.259
-3.063
-1.924
-0.855
0.136
1.047
1.876
2.622
3.287
3.873
4.385
4.841
5.256
5.644
6.017
6.378
6.734
7.094
7.468
7.87
8.31
8.78
9.277
9.795
10.325
10.851
11.34
11.737
11.981
12.01
11.77
11.221
10.329
9.067
7.4
5.283
2.682
-0.428
-4.069
-8.234
-12.936
-18.231
-24.041
-30.171
-36.337
-42.089
-47.048
-51.002
-53.627
-54.53
-53.655
-51.123
-47.375
-43.437
-40.036
-37.518
-36.511
-37.527
-40.486
-45.126
-50.435
-54.286
-55.168
-52.042
-43.09
-26.813
-2.585
30.14
69.688
111.871
154.753
197.016
237.192
276.267
309.969
329.653
328.198
297.28
235.727
151.145
51.392
-54.116
-159.265
-263.604
-365.148
-460.387
-544.614
-611.717
-657.899
-682.22
-685.245
-668.348
-633.457
-583.725
-523.132
-456.09
-387.031
-319.104
-254.903
-197.277
-148.384
-109.342
-80.276
-60.084
-47.11
-40.173
-37.843
-38.124
-39.126
-39.085
-36.986
-32.863
-27.085
-19.96
-12.006
-3.949
3.37
8.955
12.33
13.635
13.182
11.41
8.781
5.693
2.649
0.24
-1.202
-1.579
-0.91
0.65
2.975
5.996
9.587
13.595
17.892
22.352
26.883
31.425
35.894
40.195
44.236
47.922
51.199
54.056
56.493
58.537
60.22
61.575
62.651
63.507
64.196
64.774
65.29
65.784
66.303
66.897
67.618
68.515
69.627
70.973
72.573
74.436
76.568
78.971
81.64
84.562
87.73
91.139
94.787
98.671
102.778
107.09
111.59
116.258
121.07
125.998
131.004
136.051
141.113
146.169
151.208
156.214
161.169
166.053
170.846
175.538
180.123
184.59
188.922
193.107
197.147
201.055
204.863
208.592
212.24
215.791
219.221
222.51
225.631
228.551
231.23
233.613
235.661
237.348
238.654
239.549
239.988
239.906
239.225
237.885
235.855
233.109
229.638
225.436
220.518
214.918
208.689
201.887
194.543
186.679
178.322
169.516
160.333
150.859
141.193
131.426
121.647
111.955
102.437
93.166
84.192
75.544
67.241
59.308
51.801
44.774
38.266
32.297
26.867
21.972
17.59
13.695
10.237
7.143
4.353
1.823
-0.474
-2.552
-4.427
-6.129
-7.703
-9.188
-10.61
-11.99
-13.339
-14.676
-16.007
-17.327
-18.608
-19.805
-20.887
-21.84
-22.659
-23.347
-23.901
-24.316
-24.584
-24.71
-24.698
-24.558
-24.293
-23.906
-23.406
-22.809
-22.142
-21.439
-20.723
-20.011
-19.315
-18.646
-18.013
-17.426
-16.889
-16.4
-15.959
-15.567
-15.225
-14.937
-14.702
-14.517
-14.377
-14.276
-14.21
-14.176
-14.169
-14.187
-14.227
-14.285
-14.361
-14.455
-14.566
-14.692
-14.83
-14.978
-15.132
-15.291
-15.452
-15.612
-15.769
-15.92
-16.065
-16.202
-16.331
-16.45
-16.56
-16.659
-16.749
-16.829
-16.901
-16.964
-17.02
-17.069
-17.113
-17.154
-17.191
-17.226
-17.261
-17.298
-17.337
-17.38
-17.428
-17.482
-17.544
-17.615
-17.696
-17.789
-17.895
-18.016
-18.152
-18.306
-18.479
-18.672
-18.885
-19.12
-19.377
-19.656
-19.958
-20.283
-20.632
-21.003
-21.397
-21.814
-22.253
-22.714
-23.196
-23.697
-24.217
-24.754
-25.307
-25.874
-26.452
-27.04
-27.634
-28.233
-28.834
-29.434
-30.031
-30.62
-31.198
-31.762
-32.308
-32.833
-33.333
-33.803
-34.24
-34.639
-34.998
-35.312
-35.578
-35.791
-35.947
-36.043
-36.075
-36.04
-35.935
-35.757
-35.505
-35.176
-34.77
-34.287
-33.727
-33.093
-32.386
-31.609
-30.764
-29.857
-28.89
-27.869
-26.799
-25.683
-24.529
-23.343
-22.13
-20.9
-19.661
-18.419
-17.183
-15.96
-14.759
-13.59
-12.461
-11.379
-10.348
-9.376
-8.47
-7.642
-6.898
-6.24
-5.669
-5.182
-4.777
-4.452
-4.197
-3.998
-3.837
-3.696
-3.563
-3.433
-3.299
-3.154
-2.981
-2.762
-2.489
-2.165
-1.8
-1.402
-0.982
-0.55
-0.142
0.184
0.367
0.34
0.053
-0.527
-1.441
-2.72
-4.409
-6.565
-9.228
-12.424
-16.165
-20.439
-25.254
-30.661
-36.594
-42.867
-49.199
-55.173
-60.426
-64.738
-67.818
-69.28
-68.941
-66.85
-63.36
-59.323
-55.522
-52.409
-50.518
-50.402
-52.282
-56.036
-60.892
-65.175
-67.259
-65.737
-58.902
-45.176
-23.15
7.237
43.949
84.47
126.182
168.95
214.988
262.97
308.486
341.889
348.499
320.285
256.218
162.38
54.134
-57.137
-166.64
-271.728
-375.719
-478.866
-572.981
-651.03
-705.11
-729.187
-727.26
-703.619
-662.54
-610.801
-550.167
-482.968
-413.452
-343.884
-278.236
-220.282
-171.788
-133.965
-106.657
-88.372
-77.422
-72.29
-71.068
-71.822
-72.776
-72.186
-69.199
-63.883
-56.62
-47.931
-38.57
-29.286
-20.913
-14.437
-10.271
-8.319
-8.318
-9.777
-12.191
-15.143
-18.117
-20.547
-22.107
-22.668
-22.219
-20.899
-18.824
-16.071
-12.769
-9.056
-5.052
-0.869
3.408
7.712
11.962
16.069
19.949
23.518
26.711
29.493
31.854
33.808
35.388
36.629
37.576
38.276
38.787
39.164
39.461
39.727
40.003
40.335
40.77
41.355
42.133
43.135
44.38
45.878
47.634
49.651
51.928
54.46
57.234
60.238
63.464
66.907
70.562
74.423
78.477
82.698
87.068
91.568
96.178
100.877
105.642
110.443
115.258
120.077
124.888
129.681
134.435
139.119
143.705
148.164
152.477
156.635
160.624
164.42
168.01
171.387
174.548
177.502
180.234
182.703
184.878
186.723
188.221
189.368
190.159
190.582
190.627
190.274
189.517
188.363
186.803
184.821
182.401
179.516
176.174
172.421
168.295
163.833
159.065
154.006
148.679
143.122
137.365
131.435
125.358
119.148
112.837
106.47
100.091
93.751
87.477
81.265
75.119
69.049
63.065
57.187
51.428
45.788
40.279
34.92
29.73
24.729
19.927
15.324
10.919
6.709
2.699
-1.093
-4.655
-7.983
-11.07
-13.914
-16.512
-18.856
-20.948
-22.797
-24.411
-25.801
-26.974
-27.936
-28.693
-29.253
-29.627
-29.826
-29.862
-29.746
-29.49
-29.106
-28.607
-28.007
-27.318
-26.55
-25.712
-24.816
-23.871
-22.887
-21.876
-20.844
-19.802
-18.758
-17.72
-16.696
-15.694
-14.718
-13.775
-12.868
-12.004
-11.184
-10.413
-9.692
-9.024
-8.409
-7.849
-7.343
-6.893
-6.498
-6.156
-5.867
-5.629
-5.44
-5.3
-5.205
-5.153
-5.141
-5.168
-5.23
-5.324
-5.448
-5.599
-5.773
-5.968
-6.182
-6.41
-6.65
-6.9
-7.157
-7.419
-7.684
-7.949
-8.213
-8.475
-8.732
-8.984
-9.23
-9.468
-9.699
-9.922
-10.136
-10.341
-10.539
-10.728
-10.909
-11.082
-11.249
-11.41
-11.566
-11.718
-11.867
-12.015
-12.163
-12.314
-12.467
-12.626
-12.792
-12.965
-13.149
-13.344
-13.552
-13.775
-14.014
-14.27
-14.545
-14.841
-15.157
-15.495
-15.856
-16.241
-16.65
-17.082
-17.539
-18.021
-18.526
-19.056
-19.608
-20.184
-20.78
-21.397
-22.032
-22.684
-23.349
-24.025
-24.71
-25.4
-26.092
-26.783
-27.469
-28.147
-28.812
-29.462
-30.092
-30.698
-31.276
-31.821
-32.331
-32.799
-33.223
-33.598
-33.921
-34.188
-34.395
-34.539
-34.617
-34.624
-34.56
-34.421
-34.204
-33.91
-33.536
-33.082
-32.549
-31.94
-31.254
-30.497
-29.673
-28.784
-27.836
-26.834
-25.784
-24.692
-23.565
-22.407
-21.225
-20.027
-18.821
-17.614
-16.415
-15.231
-14.071
-12.944
-11.858
-10.821
-9.841
-8.922
-8.069
-7.286
-6.58
-5.96
-5.43
-4.992
-4.643
-4.384
-4.212
-4.122
-4.101
-4.128
-4.183
-4.247
-4.307
-4.356
-4.387
-4.387
-4.342
-4.239
-4.072
-3.844
-3.557
-3.209
-2.807
-2.371
-1.938
-1.574
-1.349
-1.322
-1.547
-2.066
-2.909
-4.123
-5.76
-7.862
-10.472
-13.611
-17.283
-21.524
-26.388
-31.846
-37.759
-43.859
-49.755
-55.097
-59.637
-63.094
-65.095
-65.404
-64.044
-61.356
-58.055
-54.86
-52.159
-50.294
-49.832
-51.147
-54.13
-58.151
-61.786
-63.389
-61.947
-56.409
-45.091
-26.528
0.176
34.41
73.414
114.235
155.301
197.205
240.768
283.789
320.029
338.477
328.261
284.577
209.527
112.259
4.66
-104.901
-213.524
-320.871
-427.358
-530.953
-623.274
-696.459
-744.104
-761.686
-752.892
-722.227
-674.281
-615.601
-548.352
-475.291
-400.603
-326.763
-258.06
-198.274
-148.972
-111.238
-84.702
-67.629
-58.3
-54.974
-55.38
-57.433
-59.33
-59.405
-56.962
-52.185
-45.474
-37.434
-28.941
-20.774
-13.766
-8.795
-6.123
-5.568
-6.797
-9.279
-12.485
-15.977
-19.235
-21.723
-23.178
-23.519
-22.777
-21.114
-18.652
-15.486
-11.759
-7.629
-3.231
1.312
5.905
10.478
14.94
19.195
23.15
26.717
29.85
32.534
34.772
36.592
38.024
39.109
39.898
40.451
40.826
41.079
41.258
41.409
41.579
41.819
42.179
42.707
43.436
44.388
45.581
47.022
48.715
50.66
52.849
55.27
57.915
60.779
63.859
67.149
70.638
74.312
78.155
82.148
86.27
90.493
94.781
99.106
103.447
107.785
112.112
116.415
120.679
124.89
129.035
133.1
137.079
140.959
144.724
148.371
151.903
155.336
158.703
162.017
165.272
168.461
171.559
174.541
177.388
180.064
182.53
184.758
186.714
188.373
189.718
190.709
191.299
191.426
191.008
189.996
188.367
186.101
183.203
179.688
175.566
170.873
165.654
159.934
153.747
147.129
140.107
132.746
125.125
117.337
109.501
101.712
94.038
86.55
79.295
72.309
65.633
59.291
53.296
47.692
42.509
37.768
33.495
29.682
26.299
23.309
20.642
18.243
16.073
14.095
12.283
10.627
9.101
7.692
6.388
5.157
3.969
2.806
1.641
0.471
-0.695
-1.841
-2.931
-3.932
-4.827
-5.602
-6.251
-6.777
-7.179
-7.46
-7.628
-7.678
-7.61
-7.424
-7.118
-6.697
-6.176
-5.57
-4.906
-4.208
-3.494
-2.78
-2.076
-1.389
-0.724
-0.086
0.526
1.11
1.664
2.186
2.67
3.114
3.52
3.889
4.226
4.534
4.817
5.078
5.32
5.543
5.751
5.942
6.116
6.271
6.41
6.531
6.637
6.729
6.808
6.877
6.935
6.985
7.028
7.065
7.095
7.12
7.139
7.154
7.164
7.17
7.172
7.17
7.165
7.155
7.142
7.124
7.101
7.074
7.041
7.004
6.96
6.911
6.856
6.796
6.73
6.659
6.583
6.501
6.415
6.323
6.226
6.123
6.013
5.897
5.774
5.644
5.507
5.361
5.207
5.045
4.873
4.692
4.5
4.296
4.081
3.853
3.61
3.353
3.081
2.791
2.485
2.159
1.814
1.448
1.061
0.65
0.216
-0.242
-0.726
-1.234
-1.768
-2.327
-2.91
-3.516
-4.145
-4.794
-5.462
-6.146
-6.846
-7.558
-8.279
-9.007
-9.737
-10.467
-11.192
-11.908
-12.611
-13.295
-13.957
-14.591
-15.192
-15.755
-16.275
-16.747
-17.164
-17.522
-17.816
-18.039
-18.188
-18.258
-18.244
-18.144
-17.955
-17.675
-17.303
-16.839
-16.284
-15.64
-14.909
-14.094
-13.197
-12.223
-11.178
-10.065
-8.89
-7.659
-6.38
-5.06
-3.71
-2.338
-0.954
0.434
1.814
3.178
4.514
5.812
7.065
8.263
9.397
10.457
11.43
12.308
13.087
13.766
14.348
14.835
15.232
15.547
15.797
15.996
16.156
16.291
16.403
16.502
16.597
16.7
16.829
16.995
17.194
17.425
17.677
17.935
18.187
18.405
18.537
18.539
18.367
17.968
17.32
16.389
15.133
13.534
11.553
9.15
6.31
3.007
-0.771
-5.002
-9.693
-14.863
-20.421
-26.209
-31.978
-37.352
-42.017
-45.752
-48.266
-49.206
-48.365
-45.803
-41.903
-37.414
-33.075
-29.323
-26.582
-25.499
-26.49
-29.425
-33.609
-37.557
-39.575
-38.596
-33.446
-22.319
-3.756
23.065
57.378
96.267
136.806
177.407
218.456
260.614
301.518
334.957
350.089
336.131
288.687
210.076
110.422
2.787
-105.539
-212.387
-319.562
-430.192
-539.495
-636.771
-711.312
-752.791
-760.002
-740.101
-700.036
-648.191
-589.339
-523.154
-451.539
-376.935
-302.619
-234.251
-175.698
-128.749
-93.965
-70.234
-55.822
-49.07
-47.956
-49.994
-52.719
-53.981
-52.563
-48.26
-41.391
-32.546
-22.498
-12.211
-2.82
4.531
9.275
11.454
11.377
9.571
6.575
2.878
-0.916
-4.158
-6.451
-7.641
-7.718
-6.819
-5.066
-2.53
0.656
4.339
8.383
12.661
17.075
21.551
26.001
30.321
34.411
38.173
41.527
44.432
46.874
48.86
50.417
51.578
52.386
52.894
53.161
53.249
53.215
53.113
52.991
52.902
52.897
53.03
53.349
53.891
54.678
55.726
57.042
58.631
60.495
62.628
65.021
67.665
70.551
73.67
77.018
80.591
84.381
88.376
92.555
96.895
101.376
105.975
110.673
115.441
120.251
125.077
129.902
134.719
139.518
144.281
148.985
153.594
158.076
162.409
166.579
170.576
174.387
177.995
181.393
184.584
187.579
190.374
192.943
195.237
197.21
198.834
200.093
200.982
201.494
201.612
201.317
200.594
199.44
197.85
195.81
193.29
190.255
186.699
182.648
178.158
173.285
168.067
162.535
156.713
150.637
144.348
137.884
131.272
124.534
117.702
110.817
103.939
97.129
90.427
83.849
77.388
71.04
64.816
58.727
52.786
46.996
41.362
35.895
30.615
25.545
20.698
16.076
11.671
7.476
3.488
-0.281
-3.818
-7.111
-10.157
-12.952
-15.494
-17.776
-19.799
-21.569
-23.099
-24.404
-25.495
-26.381
-27.069
-27.569
-27.892
-28.051
-28.061
-27.934
-27.684
-27.325
-26.871
-26.338
-25.739
-25.086
-24.389
-23.657
-22.899
-22.126
-21.347
-20.57
-19.801
-19.048
-18.318
-17.618
-16.951
-16.324
-15.738
-15.196
-14.7
-14.252
-13.852
-13.5
-13.195
-12.937
-12.724
-12.554
-12.425
-12.335
-12.281
-12.261
-12.27
-12.307
-12.369
-12.45
-12.55
-12.664
-12.79
-12.925
-13.066
-13.211
-13.357
-13.504
-13.648
-13.788
-13.924
-14.053
-14.175
-14.289
-14.395
-14.492
-14.581
-14.662
-14.735
-14.801
-14.861
-14.915
-14.964
-15.01
-15.053
-15.094
-15.135
-15.177
-15.22
-15.265
-15.314
-15.368
-15.428
-15.494
-15.567
-15.648
-15.737
-15.836
-15.944
-16.061
-16.188
-16.326
-16.473
-16.63
-16.796
-16.972
-17.157
-17.35
-17.552
-17.761
-17.977
-18.2
-18.43
-18.665
-18.907
-19.154
-19.406
-19.663
-19.925
-20.193
-20.465
-20.742
-21.025
-21.312
-21.606
-21.905
-22.209
-22.519
-22.834
-23.154
-23.479
-23.808
-24.14
-24.475
-24.812
-25.149
-25.486
-25.822
-26.155
-26.484
-26.808
-27.123
-27.43
-27.724
-28.005
-28.269
-28.513
-28.736
-28.933
-29.102
-29.24
-29.343
-29.408
-29.431
-29.409
-29.338
-29.214
-29.035
-28.798
-28.501
-28.141
-27.718
-27.231
-26.68
-26.067
-25.393
-24.66
-23.87
-23.026
-22.132
-21.19
-20.206
-19.182
-18.124
-17.038
-15.929
-14.807
-13.677
-12.548
-11.426
-10.32
-9.236
-8.184
-7.171
-6.204
-5.289
-4.432
-3.643
-2.933
-2.307
-1.768
-1.316
-0.948
-0.661
-0.449
-0.303
-0.206
-0.145
-0.104
-0.072
-0.041
-0.003
0.054
0.14
0.272
0.459
0.704
1.001
1.343
1.717
2.105
2.479
2.79
2.992
3.035
2.861
2.433
1.706
0.641
-0.784
-2.607
-4.864
-7.583
-10.792
-14.506
-18.701
-23.376
-28.555
-34.153
-40.009
-45.865
-51.306
-55.962
-59.579
-61.855
-62.427
-61.152
-58.103
-53.634
-48.612
-43.865
-39.902
-37.332
-36.735
-38.277
-41.784
-46.525
-50.779
-52.757
-51.124
-44.254
-30.503
-8.887
21.042
58.942
102.038
147.147
192.57
234.739
271.645
301.77
318.464
317.083
293.122
241.682
166.998
75.5
-26.689
-132.338
-241.684
-356.84
-475.171
-589.961
-687.26
-753.016
-780.711
-772.294
-738.252
-689.677
-633.554
-572.729
-506.041
-433.73
-358.939
-286.078
-220.357
-165.345
-122.324
-91.159
-70.544
-58.713
-53.755
-53.381
-55.3
-57.351
-57.657
-55.334
-50.301
-42.887
-33.801
-23.952
-14.243
-5.688
0.727
4.621
6.091
5.454
3.26
0.053
-3.687
-7.383
-10.448
-12.54
-13.527
-13.412
-12.331
-10.397
-7.691
-4.342
-0.504
3.686
8.104
12.646
17.239
21.798
26.22
30.413
34.284
37.759
40.802
43.404
45.574
47.337
48.727
49.784
50.563
51.123
51.525
51.825
52.076
52.324
52.619
53.01
53.546
54.271
55.216
56.398
57.829
59.515
61.459
63.661
66.114
68.81
71.735
74.883
78.246
81.818
85.591
89.552
93.683
97.963
102.377
106.909
111.539
116.252
121.025
125.836
130.674
135.525
140.372
145.202
149.984
154.692
159.301
163.781
168.115
172.287
176.273
180.055
183.621
186.957
190.056
192.912
195.491
197.763
199.71
201.306
202.547
203.436
203.972
204.165
204.025
203.551
202.75
201.626
200.159
198.339
196.148
193.563
190.606
187.3
183.654
179.694
175.427
170.847
165.959
160.747
155.186
149.277
143.022
136.434
129.567
122.472
115.211
107.87
100.49
93.109
85.774
78.511
71.355
64.36
57.573
51.057
44.898
39.151
33.858
29.054
24.732
20.874
17.449
14.394
11.667
9.239
7.079
5.171
3.504
2.045
0.765
-0.371
-1.423
-2.431
-3.429
-4.449
-5.496
-6.566
-7.644
-8.691
-9.674
-10.578
-11.389
-12.106
-12.737
-13.277
-13.729
-14.096
-14.37
-14.548
-14.628
-14.605
-14.486
-14.284
-14.014
-13.705
-13.384
-13.068
-12.771
-12.504
-12.269
-12.071
-11.913
-11.792
-11.706
-11.656
-11.644
-11.671
-11.739
-11.845
-11.986
-12.158
-12.353
-12.568
-12.799
-13.042
-13.295
-13.555
-13.821
-14.095
-14.375
-14.662
-14.954
-15.249
-15.546
-15.843
-16.138
-16.43
-16.717
-16.999
-17.274
-17.543
-17.805
-18.062
-18.312
-18.558
-18.798
-19.034
-19.265
-19.494
-19.721
-19.946
-20.171
-20.395
-20.62
-20.846
-21.075
-21.307
-21.542
-21.78
-22.023
-22.269
-22.521
-22.776
-23.035
-23.299
-23.567
-23.84
-24.117
-24.399
-24.685
-24.975
-25.268
-25.565
-25.865
-26.167
-26.473
-26.784
-27.102
-27.426
-27.759
-28.102
-28.454
-28.819
-29.197
-29.585
-29.985
-30.396
-30.819
-31.259
-31.716
-32.191
-32.683
-33.195
-33.728
-34.286
-34.872
-35.482
-36.117
-36.779
-37.473
-38.212
-39.002
-39.843
-40.731
-41.661
-42.626
-43.621
-44.636
-45.647
-46.63
-47.558
-48.413
-49.185
-49.86
-50.419
-50.832
-51.071
-51.12
-50.976
-50.647
-50.146
-49.49
-48.7
-47.806
-46.853
-45.899
-45.019
-44.287
-43.765
-43.492
-43.477
-43.757
-44.408
-45.438
-46.765
-48.182
-49.431
-50.37
-51.021
-51.402
-51.412
-50.955
-50.043
-49.003
-48.309
-48.15
-48.34
-48.396
-47.865
-46.421
-43.638
-38.624
-30.334
-18.079
-1.628
18.506
41.488
66.569
