-262.56
-264.674
-266.25
-268.586
-271.514
-273.938
-275.289
-275.538
-274.781
-273.153
-270.794
-267.835
-264.598
-261.598
-259.112
-257.165
-255.754
-254.827
-254.378
-254.5
-255.221
-256.48
-258.228
-260.388
-262.879
-265.661
-268.661
-271.784
-274.939
-278.022
-280.93
-283.617
-286.057
-288.229
-290.126
-291.708
-292.919
-293.729
-294.125
-294.111
-293.71
-292.937
-291.811
-290.367
-288.654
-286.729
-284.658
-282.479
-280.208
-277.855
-275.425
-272.932
-270.399
-267.837
-265.242
-262.614
-259.949
-257.247
-254.516
-251.749
-248.931
-246.041
-243.052
-239.951
-236.742
-233.426
-230.01
-226.507
-222.928
-219.3
-215.667
-212.06
-208.501
-205.008
-201.587
-198.249
-195.015
-191.9
-188.919
-186.085
-183.401
-180.881
-178.541
-176.386
-174.418
-172.614
-170.929
-169.336
-167.832
-166.415
-165.101
-163.905
-162.837
-161.927
-161.22
-160.757
-160.579
-160.717
-161.184
-162.011
-163.238
-164.926
-167.168
-170.032
-173.565
-177.806
-182.776
-188.49
-194.965
-202.177
-210.067
-218.577
-227.647
-237.221
-247.253
-257.674
-268.397
-279.316
-290.292
-301.193
-311.896
-322.279
-332.235
-341.663
-350.46
-358.562
-365.945
-372.588
-378.48
-383.613
-387.978
-391.587
-394.47
-396.679
-398.283
-399.363
-400.01
-400.312
-400.35
-400.202
-399.948
-399.646
-399.33
-399.029
-398.761
-398.539
-398.378
-398.284
-398.25
-398.261
-398.294
-398.316
-398.282
-398.156
-397.907
-397.509
-396.936
-396.174
-395.213
-394.054
-392.709
-391.186
-389.495
-387.647
-385.657
-383.541
-381.32
-379.018
-376.663
-374.276
-371.875
-369.476
-367.09
-364.727
-362.393
-360.092
-357.82
-355.576
-353.36
-351.172
-349.012
-346.878
-344.768
-342.678
-340.606
-338.549
-336.505
-334.472
-332.452
-330.441
-328.442
-326.453
-324.477
-322.512
-320.56
-318.618
-316.684
-314.756
-312.833
-310.913
-308.993
-307.072
-305.146
-303.215
-301.277
-299.329
-297.371
-295.398
-293.41
-291.404
-289.378
-287.328
-285.254
-283.151
-281.018
-278.851
-276.649
-274.41
-272.13
-269.806
-267.438
-265.023
-262.559
-260.045
-257.48
-254.863
-252.195
-249.475
-246.705
-243.886
-241.018
-238.105
-235.148
-232.149
-229.111
-226.035
-222.926
-219.785
-216.617
-213.424
-210.211
-206.982
-203.74
-200.492
-197.24
-193.991
-190.748
-187.517
-184.302
-181.107
-177.936
-174.795
-171.686
-168.614
-165.581
-162.59
-159.643
-156.743
-153.89
-151.084
-148.327
-145.617
-142.954
-140.337
-137.767
-135.242
-132.762
-130.326
-127.936
-125.588
-123.282
-121.018
-118.792
-116.605
-114.453
-112.333
-110.243
-108.182
-106.146
-104.134
-102.146
-100.178
-98.227
-96.293
-94.374
-92.47
-90.579
-88.697
-86.82
-84.948
-83.078
-81.215
-79.357
-77.499
-75.636
-73.763
-71.872
-69.959
-68.011
-66.008
-63.931
-61.764
-59.491
-57.11
-54.612
-51.99
-49.234
-46.337
-43.296
-40.124
-36.835
-33.435
-29.944
-26.387
-22.804
-19.263
-15.835
-12.592
-9.602
-6.923
-4.609
-2.701
-1.245
-0.291
0.119
-0.042
-0.805
-2.17
-4.149
-6.795
-10.027
-13.644
-17.353
-20.698
-23.275
-24.836
-25.033
-23.458
-20.054
-14.977
-8.702
-2.256
3.602
8.476
11.715
12.767
11.696
8.854
5.327
3.172
3.871
8.65
19.329
37.342
63.635
98.069
138.217
180.913
223.658
265.718
308.486
351.412
390.471
417.542
419.923
388.498
322.104
226.025
112.916
-5.314
-125.003
-245.563
-367.058
-486.548
-591.663
-668.097
-707.869
-709.484
-681.505
-636.978
-583.135
-524.005
-458.909
-384.852
-305.477
-225.662
-151.551
-90.206
-41.745
-4.874
22.125
43.029
58.112
67.466
72.948
75.731
78.163
82.578
89.488
98.766
109.937
122.204
134.745
146.806
157.484
165.89
171.777
175.313
176.816
176.817
175.828
174.28
172.712
171.659
171.406
172.099
173.755
176.257
179.519
183.459
187.95
192.859
198.067
203.466
208.974
214.519
220.025
225.417
230.617
235.556
240.174
244.414
248.251
251.691
254.749
257.461
259.872
262.025
263.977
265.79
267.521
269.225
270.947
272.727
274.607
276.628
278.829
281.247
283.906
286.818
289.99
293.423
297.113
301.055
305.236
309.636
314.241
319.034
324.001
329.128
334.399
339.793
345.289
350.866
356.503
362.179
367.871
373.555
379.21
384.811
390.337
395.765
401.073
406.236
411.23
416.031
420.616
424.962
429.047
432.85
436.351
439.531
442.373
444.862
446.983
448.725
450.076
451.028
451.572
451.703
451.417
450.712
449.588
448.044
446.084
443.713
440.935
437.76
434.196
430.254
425.946
421.286
416.289
410.97
405.347
399.439
393.264
386.843
380.195
373.344
366.31
359.117
351.787
344.343
336.807
329.204
321.555
313.883
306.21
298.556
290.943
283.391
275.918
268.544
261.286
254.16
247.183
240.368
233.728
227.277
221.025
214.981
209.154
203.551
198.177
193.038
188.136
183.473
179.05
174.866
170.919
167.207
163.725
160.467
157.427
154.599
151.974
149.543
147.296
145.225
143.318
141.565
139.955
138.476
137.119
135.872
134.723
133.662
132.679
131.763
130.903
130.092
129.318
128.575
127.853
127.146
126.445
125.746
125.042
124.329
123.601
122.856
122.091
121.303
120.491
119.654
118.793
117.907
116.998
116.067
115.117
114.15
113.168
112.175
111.173
110.167
109.159
108.153
107.151
106.157
105.175
104.206
103.253
102.32
101.407
100.518
99.652
98.812
97.998
97.211
96.451
95.718
95.01
94.328
93.67
93.034
92.417
91.818
91.234
90.66
90.094
89.531
88.967
88.399
87.822
87.231
86.622
85.991
85.334
84.646
83.923
83.163
82.362
81.517
80.625
79.685
78.694
77.652
76.559
75.412
74.214
72.965
71.666
70.318
68.924
67.486
66.007
64.489
62.938
61.357
59.75
58.122
56.479
54.826
53.169
51.514
49.867
48.234
46.621
45.035
43.48
41.964
40.492
39.068
37.698
36.386
35.136
33.951
32.833
31.784
30.805
29.894
29.052
28.276
27.563
26.911
26.317
25.776
25.283
24.835
24.425
24.049
23.7
23.37
23.053
22.739
22.421
22.092
21.744
21.369
20.957
20.502
19.998
19.441
18.826
18.148
17.397
16.569
15.666
14.692
13.651
12.55
11.393
10.192
8.966
7.733
6.514
5.322
4.162
3.044
1.978
0.982
0.074
-0.738
-1.457
-2.094
-2.656
-3.15
-3.586
-3.997
-4.435
-4.956
-5.619
-6.467
-7.533
-8.855
-10.465
-12.407
-14.731
-17.474
-20.658
-24.297
-28.383
-32.931
-37.993
-43.517
-49.336
-55.19
-60.679
-65.445
-69.247
-71.786
-72.686
-71.754
-69.049
-64.942
-60.29
-55.936
-52.418
-50.302
-50.154
-52.228
-56.39
-61.848
-66.915
-69.847
-69.158
-63.152
-50.3
-29.238
0.423
36.981
77.763
120.026
162.379
205.934
251.027
294.53
329.338
343.498
325.546
271.323
184.478
76.351
-39.048
-153.828
-266.987
-380.738
-496.231
-607.592
-702.05
-767.358
-796.868
-791.65
-760.402
-713.186
-656.588
-594.293
-526.818
-453.888
-377.887
-302.513
-232.202
-171.6
-123.138
-87.184
-63.069
-49.104
-43.409
-44.022
-48.379
-53.758
-57.812
-59.14
-57.372
-52.744
-45.8
-37.311
-28.305
-20.005
-13.629
-9.779
-8.408
-9.191
-11.592
-15.047
-19.033
-22.91
-26.005
-27.944
-28.618
-28.06
-26.443
-23.911
-20.553
-16.522
-11.999
-7.133
-2.064
3.102
8.293
13.408
18.335
22.972
27.218
31.021
34.367
37.258
39.718
41.78
43.483
44.875
46.021
46.978
47.806
48.562
49.295
50.06
50.912
51.903
53.085
54.49
56.138
58.042
60.206
62.631
65.314
68.248
71.42
74.818
78.434
82.256
86.276
90.48
94.851
99.371
104.023
108.786
113.642
118.572
123.558
128.579
133.615
138.647
143.655
148.616
153.507
158.303
162.975
167.496
171.839
175.976
179.881
183.529
186.897
189.963
192.707
195.112
197.159
198.832
200.114
200.982
201.422
201.424
200.985
200.104
198.79
197.051
194.895
192.341
189.4
186.08
182.386
178.311
173.849
169.004
163.787
158.22
152.327
146.118
139.604
132.794
125.687
118.286
110.591
102.585
94.269
85.662
76.8
67.746
58.573
49.337
40.086
30.856
21.68
12.602
3.667
-5.086
-13.607
-21.847
-29.749
-37.234
-44.24
-50.742
-56.73
-62.233
-67.3
-71.96
-76.234
-80.147
-83.711
-86.944
-89.87
-92.497
-94.84
-96.926
-98.789
-100.485
-102.064
-103.548
-104.944
-106.238
-107.398
-108.408
-109.258
-109.934
-110.432
-110.752
-110.897
-110.881
-110.721
-110.427
-109.999
-109.429
-108.708
-107.843
-106.844
-105.732
-104.535
-103.274
-101.97
-100.645
-99.317
-97.998
-96.701
-95.426
-94.173
-92.945
-91.747
-90.585
-89.467
-88.399
-87.382
-86.418
-85.507
-84.65
-83.845
-83.089
-82.381
-81.719
-81.102
-80.533
-80.013
-79.543
-79.123
-78.756
-78.44
-78.176
-77.962
-77.799
-77.685
-77.618
-77.6
-77.628
-77.703
-77.825
-77.994
-78.211
-78.475
-78.787
-79.146
-79.552
-80.005
-80.503
-81.046
-81.633
-82.262
-82.931
-83.638
-84.383
-85.163
-85.976
-86.819
-87.69
-88.585
-89.501
-90.433
-91.379
-92.333
-93.29
-94.247
-95.198
-96.138
-97.062
-97.965
-98.84
-99.681
-100.483
-101.239
-101.942
-102.585
-103.163
-103.67
-104.1
-104.449
-104.712
-104.886
-104.968
-104.956
-104.849
-104.647
-104.35
-103.956
-103.469
-102.888
-102.217
-101.458
-100.613
-99.687
-98.683
-97.61
-96.473
-95.279
-94.037
-92.752
-91.434
-90.091
-88.731
-87.364
-85.996
-84.636
-83.292
-81.974
-80.694
-79.46
-78.274
-77.137
-76.047
-75.001
-73.995
-73.023
-72.068
-71.121
-70.173
-69.215
-68.248
-67.27
-66.275
-65.256
-64.201
-63.104
-61.974
-60.819
-59.651
-58.491
-57.352
-56.262
-55.272
-54.42
-53.745
-53.289
-53.067
-53.104
-53.429
-54.052
-54.999
-56.303
-57.973
-60.03
-62.486
-65.318
-68.539
-72.176
-76.154
-80.323
-84.446
-88.16
-91.168
-93.271
-94.209
-93.656
-91.441
-87.681
-82.835
-77.701
-73.05
-69.351
-67.025
-66.684
-68.698
-72.82
-78.161
-83.188
-86.212
-85.958
-81.139
-70.061
-51.176
-24.288
9.056
46.606
85.83
126.021
168.836
213.858
257.696
293.426
309.346
295.607
248.691
171.643
75.393
-27.651
-129.841
-229.45
-330.376
-434.568
-538.134
-631.055
-698.964
-733.477
-734.151
-707.156
-664.202
-613.341
-558.066
-499.331
-435.771
-368.444
-300.544
-235.813
-178.211
-129.935
-91.697
-63.336
-43.669
-31.367
-25.148
-23.144
-23.493
-24.481
-24.407
-22.447
-18.557
-12.903
-5.931
1.63
9.095
15.652
20.422
23.112
23.845
22.906
20.805
18.048
15.071
12.405
10.562
9.793
10.176
11.663
14.091
17.338
21.298
25.823
30.759
35.966
41.327
46.75
52.148
57.423
62.469
67.181
71.489
75.361
78.787
81.786
84.385
86.617
88.527
90.172
91.604
92.877
94.041
95.143
96.23
97.355
98.572
99.934
101.483
103.243
105.231
107.456
109.924
112.639
115.603
118.807
122.24
125.891
129.75
133.804
138.036
142.421
146.923
151.513
156.168
160.864
165.587
170.314
175.02
179.68
184.273
188.785
193.212
197.549
201.796
205.964
210.078
214.167
218.276
222.431
226.637
230.897
235.206
239.564
243.972
248.421
252.887
257.345
261.757
266.076
270.246
274.184
277.774
280.903
283.442
285.293
286.391
286.668
286.063
284.521
281.99
278.437
273.858
268.245
261.593
253.923
245.278
235.743
225.45
214.531
203.128
191.371
179.363
167.223
155.079
143.051
131.263
119.821
108.807
98.316
88.452
79.287
70.875
63.227
56.312
50.099
44.552
39.632
35.304
31.513
28.192
25.267
22.662
20.308
18.15
16.122
14.144
12.158
10.118
8.002
5.811
3.548
1.21
-1.195
-3.661
-6.165
-8.678
-11.166
-13.593
-15.929
-18.154
-20.243
-22.171
-23.923
-25.489
-26.871
-28.084
-29.138
-30.046
-30.819
-31.474
-32.033
-32.518
-32.957
-33.376
-33.797
-34.239
-34.717
-35.244
-35.831
-36.484
-37.206
-37.994
-38.846
-39.761
-40.736
-41.771
-42.86
-43.998
-45.178
-46.393
-47.638
-48.905
-50.19
-51.488
-52.793
-54.102
-55.411
-56.717
-58.017
-59.307
-60.582
-61.838
-63.071
-64.275
-65.447
-66.581
-67.676
-68.725
-69.728
-70.682
-71.584
-72.433
-73.227
-73.966
-74.648
-75.275
-75.846
-76.362
-76.824
-77.235
-77.596
-77.909
-78.177
-78.403
-78.59
-78.74
-78.856
-78.941
-78.998
-79.03
-79.039
-79.028
-79.0
-78.956
-78.899
-78.831
-78.752
-78.666
-78.572
-78.472
-78.367
-78.257
-78.144
-78.026
-77.904
-77.778
-77.647
-77.51
-77.365
-77.211
-77.047
-76.869
-76.677
-76.468
-76.238
-75.985
-75.705
-75.396
-75.055
-74.678
-74.263
-73.806
-73.308
-72.764
-72.176
-71.543
-70.864
-70.142
-69.379
-68.576
-67.735
-66.858
-65.949
-65.011
-64.047
-63.058
-62.05
-61.026
-59.992
-58.952
-57.912
-56.878
-55.855
-54.847
-53.861
-52.902
-51.976
-51.088
-50.241
-49.441
-48.692
-48.004
-47.38
-46.821
-46.321
-45.875
-45.477
-45.118
-44.787
-44.467
-44.14
-43.79
-43.403
-42.971
-42.485
-41.938
-41.311
-40.591
-39.77
-38.852
-37.852
-36.784
-35.664
-34.512
-33.367
-32.282
-31.313
-30.516
-29.941
-29.626
-29.619
-29.959
-30.68
-31.816
-33.398
-35.448
-37.976
-40.993
-44.481
-48.434
-52.869
-57.678
-62.667
-67.55
-71.903
-75.343
-77.614
-78.379
-77.238
-74.159
-69.329
-63.252
-57.0
-51.413
-46.993
-44.487
-44.505
-46.983
-51.521
-56.977
-61.21
-62.625
-59.827
-50.837
-34.247
-9.22
24.037
63.152
105.087
147.379
188.636
229.102
268.036
301.983
324.361
324.949
294.916
231.805
140.11
30.775
-84.073
-198.944
-314.619
-432.401
-551.158
-661.5
-747.373
-798.205
-810.116
-787.882
-744.466
-688.933
-626.437
-559.213
-485.693
-407.278
-327.871
-251.867
-184.489
-129.081
-86.664
-56.914
-38.167
-28.501
-26.126
-28.798
-34.223
-39.867
-43.42
-43.929
-41.364
-35.956
-28.317
-19.105
-8.931
0.802
8.682
14.262
17.493
18.613
18.19
16.495
13.709
10.677
8.216
6.694
6.374
7.207
8.959
11.657
15.341
19.755
24.661
29.871
35.169
40.503
45.847
51.072
56.059
60.725
64.983
68.802
72.192
75.14
77.661
79.784
81.541
82.99
84.196
85.215
86.105
86.915
87.692
88.487
89.353
90.34
91.501
92.868
94.465
96.306
98.398
100.745
103.346
106.192
109.266
112.558
116.058
119.759
123.661
127.754
132.026
136.458
141.03
145.715
150.484
155.306
160.145
164.973
169.764
174.503
179.179
183.785
188.31
192.739
197.045
201.205
205.2
209.011
212.627
216.046
219.274
222.327
225.227
227.983
230.593
233.037
235.278
237.27
238.956
240.293
241.251
241.804
241.931
241.611
240.821
239.535
237.715
235.321
232.298
228.612
224.245
219.209
213.54
207.295
200.552
193.377
185.831
177.967
169.833
161.473
152.931
144.256
135.497
126.719
117.996
109.395
100.97
92.757
84.768
77.004
69.445
62.078
54.893
47.888
41.067
34.438
28.014
21.806
15.827
10.079
4.556
-0.747
-5.837
-10.712
-15.363
-19.775
-23.929
-27.807
-31.394
-34.682
-37.666
-40.35
-42.738
-44.843
-46.677
-48.253
-49.581
-50.67
-51.53
-52.171
-52.607
-52.852
-52.923
-52.835
-52.606
-52.252
-51.789
-51.231
-50.592
-49.881
-49.111
-48.289
-47.428
-46.537
-45.625
-44.704
-43.782
-42.869
-41.972
-41.1
-40.259
-39.455
-38.692
-37.974
-37.304
-36.685
-36.119
-35.607
-35.151
-34.75
-34.405
-34.115
-33.881
-33.701
-33.573
-33.496
-33.469
-33.489
-33.554
-33.663
-33.812
-34.0
-34.224
-34.481
-34.77
-35.087
-35.43
-35.797
-36.184
-36.59
-37.01
-37.444
-37.889
-38.343
-38.803
-39.269
-39.738
-40.21
-40.682
-41.154
-41.624
-42.091
-42.556
-43.016
-43.472
-43.923
-44.368
-44.808
-45.241
-45.669
-46.088
-46.501
-46.906
-47.303
-47.692
-48.073
-48.445
-48.808
-49.164
-49.512
-49.85
-50.18
-50.5
-50.81
-51.11
-51.397
-51.671
-51.93
-52.174
-52.403
-52.615
-52.809
-52.984
-53.138
-53.271
-53.38
-53.462
-53.512
-53.529
-53.508
-53.45
-53.351
-53.211
-53.027
-52.8
-52.529
-52.22
-51.869
-51.475
-51.035
-50.544
-50.003
-49.421
-48.803
-48.152
-47.474
-46.773
-46.06
-45.348
-44.64
-43.932
-43.217
-42.488
-41.746
-41.005
-40.271
-39.554
-38.854
-38.16
-37.474
-36.802
-36.133
-35.455
-34.746
-33.974
-33.132
-32.238
-31.296
-30.317
-29.295
-28.21
-27.058
-25.837
-24.546
-23.193
-21.77
-20.264
-18.695
-17.099
-15.515
-14.006
-12.594
-11.278
-10.092
-9.073
-8.266
-7.74
-7.533
-7.674
-8.21
-9.173
-10.61
-12.584
-15.107
-18.18
-21.801
-25.917
-30.528
-35.699
-41.325
-47.22
-53.121
-58.588
-63.276
-66.992
-69.395
-70.081
-68.965
-66.136
-62.019
-57.562
-53.422
-49.9
-47.504
-46.66
-47.323
-49.251
-51.52
-52.275
-50.172
-44.356
-33.553
-16.709
6.775
37.551
74.421
114.044
153.969
191.823
227.061
262.15
296.326
325.706
342.039
332.07
288.43
211.548
109.048
-4.399
-119.33
-234.459
-351.52
-472.728
-593.052
-698.182
-772.865
-807.904
-802.894
-767.27
-714.405
-653.393
-589.015
-521.779
-449.918
-374.815
-300.158
-230.63
-171.141
-124.049
-89.341
-65.943
-51.966
-45.538
-44.709
-46.93
-49.617
-50.574
-48.597
-43.544
-35.749
-25.783
-14.433
-2.711
8.188
17.053
23.302
26.985
28.4
28.066
26.512
24.206
21.751
19.781
18.673
18.586
19.535
21.38
24.008
27.344
31.257
35.607
40.274
45.141
50.125
55.161
60.166
65.059
69.758
74.183
78.269
81.961
85.228
88.074
90.519
92.592
94.333
95.784
96.994
98.025
98.934
99.773
100.591
101.429
102.33
103.341
104.503
105.855
107.424
109.224
111.263
113.547
116.075
118.844
121.846
125.065
128.489
132.106
135.906
139.879
144.01
148.284
152.683
157.189
161.784
166.451
171.169
175.919
180.679
185.429
190.148
194.816
199.411
203.91
208.289
212.525
216.595
220.475
224.142
227.575
230.752
233.654
236.262
238.561
240.534
242.168
243.451
244.372
244.923
245.096
244.886
244.289
243.303
241.926
240.161
238.011
235.479
232.574
229.301
225.672
221.697
217.389
212.762
207.831
202.612
197.122
191.382
185.409
179.226
172.852
166.311
159.624
152.816
145.908
138.924
131.886
124.818
117.741
110.678
103.65
96.677
89.781
82.98
76.293
69.738
63.332
57.09
51.027
45.157
39.493
34.044
28.821
23.833
19.087
14.59
10.347
6.361
2.636
-0.828
-4.031
-6.972
-9.655
-12.083
-14.261
-16.192
-17.885
-19.345
-20.581
-21.6
-22.413
-23.027
-23.454
-23.703
-23.786
-23.714
-23.496
-23.146
-22.673
-22.09
-21.406
-20.634
-19.784
-18.866
-17.891
-16.869
-15.81
-14.724
-13.62
-12.507
-11.394
-10.29
-9.202
-8.139
-7.106
-6.111
-5.16
-4.258
-3.411
-2.624
-1.9
-1.244
-0.659
-0.147
0.29
0.649
0.929
1.129
1.249
1.289
1.248
1.128
0.929
0.652
0.298
-0.131
-0.633
-1.207
-1.849
-2.556
-3.326
-4.156
-5.041
-5.977
-6.961
-7.988
-9.054
-10.154
-11.283
-12.438
-13.613
-14.805
-16.007
-17.217
-18.43
-19.643
-20.851
-22.052
-23.242
-24.418
-25.579
-26.722
-27.845
-28.945
-30.022
-31.073
-32.097
-33.092
-34.058
-34.993
-35.895
-36.766
-37.604
-38.409
-39.182
-39.922
-40.631
-41.309
-41.956
-42.574
-43.163
-43.725
-44.259
-44.768
-45.25
-45.708
-46.14
-46.547
-46.929
-47.284
-47.611
-47.91
-48.178
-48.412
-48.612
-48.774
-48.898
-48.981
-49.022
-49.02
-48.975
-48.886
-48.754
-48.579
-48.361
-48.099
-47.793
-47.445
-47.053
-46.618
-46.138
-45.617
-45.056
-44.459
-43.828
-43.167
-42.478
-41.767
-41.035
-40.288
-39.529
-38.758
-37.983
-37.208
-36.441
-35.693
-34.969
-34.27
-33.597
-32.946
-32.309
-31.679
-31.042
-30.38
-29.681
-28.936
-28.137
-27.284
-26.372
-25.39
-24.33
-23.184
-21.942
-20.61
-19.196
-17.707
-16.172
-14.622
-13.095
-11.647
-10.321
-9.152
-8.174
-7.422
-6.93
-6.737
-6.885
-7.397
-8.294
-9.589
-11.301
-13.453
-16.041
-19.049
-22.432
-26.152
-30.226
-34.579
-39.041
-43.352
-47.113
-49.966
-51.7
-52.015
-50.52
-47.184
-42.198
-36.063
-29.848
-24.352
-19.998
-17.478
-17.403
-19.737
-24.132
-29.475
-33.648
-35.16
-32.826
-24.85
-9.843
13.171
44.329
81.517
121.694
162.505
202.612
242.47
282.083
318.386
344.987
351.546
327.801
269.661
180.31
70.1
-47.885
-166.366
-285.049
-406.154
-529.793
-648.066
-745.193
-806.904
-827.095
-809.468
-766.226
-709.675
-645.253
-573.263
-492.343
-403.51
-314.311
-234.775
-171.856
-127.595
-97.533
-75.36
-57.045
-41.367
-30.211
-24.514
-23.026
-23.436
-22.625
-19.055
-12.954
-4.875
4.419
14.087
23.486
31.775
37.955
41.708
43.216
42.823
41.079
38.513
35.563
32.79
30.796
29.884
30.15
31.564
33.949
37.175
41.142
45.688
50.637
55.834
61.144
66.464
71.718
76.806
81.624
86.07
90.053
93.524
96.466
98.884
100.806
102.27
103.321
104.021
104.438
104.64
104.692
104.654
104.58
104.528
104.556
104.719
105.07
105.648
106.477
107.575
108.95
110.607
112.547
114.764
117.247
119.985
122.969
126.189
129.635
133.296
137.155
141.196
145.402
149.757
154.243
158.844
163.541
168.314
173.143
178.004
182.875
187.73
192.54
197.279
201.917
206.427
210.782
214.957
218.926
222.664
226.148
229.351
232.246
234.81
237.022
238.868
240.338
241.426
242.135
242.469
242.435
242.038
241.277
240.148
238.639
236.74
234.438
231.73
228.626
225.131
221.252
216.995
212.361
207.345
201.934
196.112
189.859
183.165
176.04
168.507
160.615
152.421
143.992
135.389
126.656
117.839
108.978
100.116
91.296
82.572
74.003
65.659
57.619
49.95
42.697
35.881
29.499
23.524
17.915
12.634
7.658
2.964
-1.461
-5.628
-9.549
-13.242
-16.726
-20.035
-23.216
-26.309
-29.343
-32.33
-35.263
-38.118
-40.861
-43.458
-45.887
-48.128
-50.175
-52.026
-53.682
-55.148
-56.432
-57.532
-58.441
-59.152
-59.66
-59.97
-60.096
-60.058
-59.883
-59.599
-59.231
-58.799
-58.321
-57.809
-57.271
-56.714
-56.139
-55.551
-54.958
-54.367
-53.788
-53.225
-52.685
-52.17
-51.68
-51.215
-50.777
-50.362
-49.972
-49.607
-49.268
-48.955
-48.673
-48.422
-48.203
-48.017
-47.861
-47.735
-47.637
-47.563
-47.511
-47.478
-47.461
-47.457
-47.464
-47.478
-47.497
-47.52
-47.543
-47.565
-47.584
-47.598
-47.606
-47.606
-47.596
-47.577
-47.547
-47.506
-47.454
-47.391
-47.318
-47.235
-47.143
-47.044
-46.938
-46.827
-46.713
-46.598
-46.484
-46.374
-46.27
-46.175
-46.093
-46.028
-45.982
-45.958
-45.961
-45.993
-46.057
-46.155
-46.289
-46.461
-46.673
-46.925
-47.218
-47.552
-47.927
-48.342
-48.797
-49.29
-49.819
-50.382
-50.977
-51.6
-52.249
-52.92
-53.609
-54.311
-55.022
-55.737
-56.451
-57.16
-57.857
-58.536
-59.192
-59.819
-60.411
-60.962
-61.467
-61.92
-62.316
-62.651
-62.921
-63.125
-63.258
-63.32
-63.311
-63.231
-63.081
-62.862
-62.577
-62.228
-61.819
-61.352
-60.831
-60.259
-59.641
-58.982
-58.287
-57.563
-56.814
-56.049
-55.274
-54.496
-53.724
-52.961
-52.212
-51.478
-50.764
-50.076
-49.42
-48.802
-48.221
-47.679
-47.179
-46.718
-46.292
-45.887
-45.482
-45.058
-44.601
-44.1
-43.553
-42.956
-42.298
-41.572
-40.77
-39.89
-38.938
-37.916
-36.817
-35.65
-34.44
-33.232
-32.106
-31.132
-30.36
-29.835
-29.587
-29.657
-30.11
-30.999
-32.366
-34.249
-36.653
-39.624
-43.271
-47.593
-52.473
-57.665
-62.761
-67.423
-71.462
-74.629
-76.578
-77.096
-76.196
-74.266
-72.094
-70.292
-69.133
-68.777
-69.461
-71.435
-74.583
-78.147
-80.744
-81.037
-78.127
-71.473
-60.437
-43.955
-21.338
7.375
41.512
79.082
117.364
154.319
187.337
215.375
240.171
260.677
273.922
272.929
245.351
185.163
93.845
-20.567
-142.946
-264.015
-382.442
-498.262
-611.923
-717.333
-800.372
-849.576
-860.538
-835.813
-785.644
-719.84
-642.615
-556.726
-464.745
-371.783
-286.528
-216.045
-162.769
-124.044
-94.868
-71.607
-53.345
-41.746
-37.51
-38.85
-42.699
-45.358
-44.779
-40.854
-34.023
-25.055
-14.802
-4.201
5.522
13.11
17.995
20.282
20.341
18.723
15.988
12.66
9.402
6.916
5.589
5.526
6.689
8.9
12.018
15.954
20.556
25.641
31.056
36.66
42.345
48.04
53.641
59.035
64.113
68.771
72.947
76.628
79.815
82.534
84.82
86.711
88.262
89.542
90.613
91.541
92.385
93.199
94.039
94.965
96.033
97.298
98.8
100.558
102.588
104.896
107.484
110.35
113.487
116.88
120.517
124.386
128.47
132.774
137.294
142.006
146.914
151.912
156.91
161.971
167.049
172.448
178.406
184.668
191.175
196.722
201.486
204.784
200.411
200.744
227.155
251.393
238.108
219.407
227.793
242.39
247.309
249.992
252.858
254.642
256.177
257.594
258.879
259.908
260.44
260.514
260.144
259.322
258.073
256.394
254.283
251.748
248.796
245.438
241.683
237.545
233.038
228.18
222.987
217.48
211.678
205.605
199.282
192.734
185.985
179.061
171.986
164.786
157.488
150.116
142.696
135.252
127.811
120.395
113.028
105.733
98.532
91.446
84.494
77.696
71.068
64.627
58.388
52.363
46.566
41.006
35.692
30.631
25.83
21.292
17.02
13.015
9.277
5.804
2.593
-0.36
-3.062
-5.518
-7.737
-9.727
-11.497
-13.058
-14.42
-15.596
-16.596
-17.433
-18.119
-18.667
-19.09
-19.4
-19.61
-19.732
-19.778
-19.759
-19.687
-19.572
-19.425
-19.255
-19.07
-18.879
-18.69
-18.508
-18.341
-18.192
-18.067
-17.97
-17.903
-17.868
-17.868
-17.904
-17.976
-18.084
-18.228
-18.406
-18.617
-18.86
-19.131
-19.429
-19.751
-20.093
-20.453
-20.828
-21.214
-21.608
-22.007
-22.408
-22.809
-23.207
-23.599
-23.984
-24.36
-24.726
-25.08
-25.423
-25.752
-26.069
-26.374
-26.666
-26.947
-27.218
-27.479
-27.733
-27.98
-28.223
-28.463
-28.703
-28.944
-29.189
-29.44
-29.699
-29.969
-30.252
-30.552
-30.869
-31.207
-31.568
-31.953
-32.366
-32.806
-33.277
-33.778
-34.311
-34.876
-35.474
-36.104
-36.765
-37.458
-38.18
-38.932
-39.71
-40.513
-41.338
-42.184
-43.047
-43.924
-44.811
-45.707
-46.606
-47.506
-48.403
-49.293
-50.172
-51.036
-51.88
-52.701
-53.494
-54.254
-54.977
-55.658
-56.292
-56.877
-57.408
-57.88
-58.29
-58.634
-58.91
-59.114
-59.244
-59.298
-59.274
-59.17
-58.987
-58.725
-58.384
-57.965
-57.471
-56.904
-56.269
-55.567
-54.804
-53.984
-53.111
-52.191
-51.228
-50.228
-49.195
-48.137
-47.058
-45.967
-44.869
-43.772
-42.682
-41.607
-40.554
-39.532
-38.546
-37.598
-36.693
-35.834
-35.026
-34.276
-33.587
-32.958
-32.388
-31.877
-31.422
-31.019
-30.658
-30.318
-29.979
-29.624
-29.241
-28.825
-28.37
-27.864
-27.294
-26.648
-25.923
-25.127
-24.265
-23.334
-22.338
-21.294
-20.241
-19.247
-18.388
-17.72
-17.296
-17.159
-17.347
-17.916
-18.933
-20.445
-22.489
-25.095
-28.265
-32.05
-36.527
-41.626
-47.171
-52.871
-58.292
-63.096
-67.086
-69.939
-71.292
-71.113
-69.533
-66.992
-64.398
-62.33
-61.032
-60.917
-62.218
-64.69
-68.031
-71.382
-73.068
-71.513
-65.045
-51.956
-31.696
-6.089
22.13
50.278
76.479
103.383
134.575
171.844
216.056
261.686
299.479
319.765
310.682
266.099
188.248
83.931
-34.206
-155.312
-276.811
-397.73
-516.932
-630.001
-724.271
-787.75
-815.073
-807.08
-772.745
-722.909
-663.984
-599.431
-529.664
-454.361
-376.101
-298.983
-227.717
-166.709
-118.081
-82.017
-57.64
-43.25
-37.022
-36.908
-40.27
-44.451
-47.18
-47.152
-44.095
-38.253
-30.167
-20.629
-10.685
-1.562
5.563
10.146
12.268
12.281
10.74
8.218
5.261
2.526
0.651
-0.028
0.578
2.404
5.274
9.043
13.602
18.788
24.419
30.339
36.408
42.52
48.581
54.477
60.081
65.273
69.968
74.126
77.739
80.821
83.402
85.517
87.215
88.557
89.606
90.421
91.062
91.581
92.035
92.486
92.997
93.628
94.427
95.426
96.646
98.102
99.802
101.748
103.94
106.366
109.018
111.89
114.979
118.284
121.805
125.534
129.457
133.562
137.831
142.244
146.776
151.393
156.057
160.742
165.423
170.083
174.711
179.295
183.819
188.273
192.636
196.89
201.022
205.011
208.841
212.51
216.022
219.4
222.676
225.857
228.941
231.917
234.748
237.399
239.824
241.962
243.767
245.199
246.221
246.812
246.952
246.603
245.727
244.271
242.166
239.377
235.886
231.684
226.799
221.27
215.149
208.526
201.477
194.063
186.344
178.364
170.16
161.791
153.311
144.785
136.293
127.897
119.647
111.59
103.751
96.139
88.752
81.559
74.534
67.669
60.959
54.409
48.031
41.828
35.803
29.961
24.296
18.804
13.485
8.33
3.344
-1.463
-6.077
-10.474
-14.631
-18.536
-22.18
-25.562
-28.683
-31.548
-34.162
-36.537
-38.682
-40.605
-42.313
-43.812
-45.109
-46.215
-47.142
-47.904
-48.515
-48.988
-49.335
-49.568
-49.696
-49.731
-49.679
-49.547
-49.342
-49.069
-48.737
-48.352
-47.923
-47.455
-46.955
-46.43
-45.884
-45.324
-44.754
-44.176
-43.596
-43.016
-42.439
-41.868
-41.305
-40.752
-40.211
-39.685
-39.176
-38.684
-38.211
-37.759
-37.328
-36.92
-36.536
-36.176
-35.842
-35.534
-35.253
-35.0
-34.775
-34.581
-34.416
-34.283
-34.18
-34.109
-34.071
-34.064
-34.089
-34.147
-34.237
-34.36
-34.516
-34.704
-34.925
-35.179
-35.466
-35.785
-36.136
-36.52
-36.935
-37.381
-37.857
-38.364
-38.899
-39.461
-40.051
-40.665
-41.303
-41.964
-42.644
-43.344
-44.06
-44.792
-45.536
-46.291
-47.056
-47.826
-48.601
-49.378
-50.154
-50.926
-51.692
-52.449
-53.193
-53.921
-54.63
-55.317
-55.977
-56.608
-57.203
-57.761
-58.276
-58.745
-59.164
-59.528
-59.836
-60.083
-60.268
-60.389
-60.444
-60.433
-60.356
-60.213
-60.003
-59.728
-59.388
-58.985
-58.52
-57.993
-57.408
-56.767
-56.075
-55.335
-54.552
-53.732
-52.88
-52.001
-51.101
-50.187
-49.265
-48.341
-47.421
-46.511
-45.619
-44.757
-43.931
-43.144
-42.397
-41.686
-41.009
-40.36
-39.732
-39.109
-38.48
-37.83
-37.148
-36.434
-35.682
-34.886
-34.038
-33.122
-32.132
-31.074
-29.956
-28.793
-27.61
-26.425
-25.271
-24.206
-23.281
-22.55
-22.07
-21.874
-21.999
-22.483
-23.349
-24.639
-26.396
-28.642
-31.403
-34.687
-38.463
-42.731
-47.511
-52.71
-58.16
-63.597
-68.611
-72.865
-76.138
-78.148
-78.544
-77.161
-74.059
-69.612
-64.659
-59.974
-56.029
-53.327
-52.379
-53.416
-56.29
-60.218
-63.574
-64.735
-62.352
-54.878
-40.921
-19.207
10.617
46.913
87.148
128.761
170.494
213.492
258.166
301.511
336.67
352.075
336.416
285.504
202.797
99.077
-12.104
-123.196
-233.603
-345.393
-459.063
-568.147
-659.288
-720.186
-745.055
-735.934
-702.094
-653.869
-597.974
-537.933
-474.297
-407.009
-337.941
-270.238
-208.021
-155.26
-113.699
-83.301
-62.832
-50.213
-43.919
-42.347
-43.175
-44.198
-43.475
-39.9
-33.551
-24.959
-14.615
-3.229
8.255
18.824
27.372
33.35
36.873
38.257
37.978
36.542
34.386
32.046
30.115
28.947
28.687
29.363
30.853
33.055
35.908
39.293
43.087
47.182
51.473
55.884
60.351
64.795
69.141
73.315
77.237
80.848
84.091
86.937
89.389
91.467
93.197
94.621
95.777
96.713
97.492
98.167
98.792
99.413
100.073
100.814
101.684
102.723
103.972
105.458
107.198
109.201
111.473
114.017
116.83
119.905
123.229
126.791
130.58
134.586
138.799
143.205
147.788
152.53
157.412
162.414
167.517
172.7
177.94
183.214
188.5
193.774
199.014
204.193
209.287
214.268
219.109
223.785
228.268
232.533
236.555
240.309
243.772
246.923
249.742
252.211
254.312
256.029
257.35
258.262
258.755
258.822
258.456
257.652
256.41
254.729
252.61
250.059
247.08
243.682
239.875
235.67
231.081
226.123
220.814
215.17
209.213
202.963
196.442
189.673
182.681
175.49
168.125
160.614
152.981
145.254
137.458
129.62
121.766
113.921
106.11
98.357
90.685
83.118
75.677
68.381
61.252
54.306
47.56
41.03
34.729
28.67
22.863
17.318
12.043
7.044
2.324
-2.112
-6.262
-10.128
-13.709
-17.008
-20.029
-22.778
-25.259
-27.482
-29.453
-31.183
-32.681
-33.957
-35.025
-35.895
-36.579
-37.09
-37.442
-37.646
-37.716
-37.664
-37.504
-37.247
-36.906
-36.493
-36.018
-35.493
-34.928
-34.332
-33.714
-33.084
-32.449
-31.815
-31.191
-30.582
-29.994
-29.431
-28.897
-28.397
-27.934
-27.509
-27.125
-26.784
-26.485
-26.23
-26.018
-25.85
-25.724
-25.64
-25.597
-25.592
-25.624
-25.692
-25.794
-25.927
-26.091
-26.282
-26.5
-26.743
-27.01
-27.3
-27.611
-27.942
-28.293
-28.662
-29.05
-29.455
-29.877
-30.316
-30.77
-31.241
-31.728
-32.23
-32.748
-33.28
-33.827
-34.388
-34.963
-35.55
-36.15
-36.762
-37.384
-38.017
-38.661
-39.313
-39.973
-40.641
-41.314
-41.99
-42.669
-43.347
-44.022
-44.691
-45.353
-46.002
-46.637
-47.255
-47.85
-48.421
-48.962
-49.471
-49.944
-50.376
-50.765
-51.108
-51.402
-51.646
-51.838
-51.977
-52.063
-52.098
-52.08
-52.011
-51.891
-51.721
-51.504
-51.24
-50.93
-50.576
-50.182
-49.751
-49.287
-48.794
-48.278
-47.741
-47.189
-46.627
-46.062
-45.5
-44.941
-44.39
-43.852
-43.331
-42.838
-42.375
-41.943
-41.539
-41.162
-40.806
-40.468
-40.137
-39.795
-39.424
-39.009
-38.539
-38.01
-37.42
-36.757
-36.015
-35.183
-34.257
-33.25
-32.173
-31.034
-29.849
-28.641
-27.447
-26.334
-25.365
-24.602
-24.099
-23.901
-24.049
-24.579
-25.526
-26.933
-28.828
-31.227
-34.152
-37.597
-41.563
-46.086
-51.08
-56.351
-61.641
-66.543
-70.676
-73.825
-75.702
-75.928
-74.453
-71.414
-67.199
-62.745
-58.809
-55.726
-53.963
-54.067
-56.121
-59.84
-64.406
-67.571
-66.868
-61.309
-50.135
-33.583
-13.752
9.403
36.704
68.474
107.07
152.304
201.432
250.833
293.078
319.635
321.585
291.274
227.856
137.149
30.112
-81.188
-191.26
-301.039
-412.011
-523.255
-626.137
-705.931
-753.128
-764.646
-745.258
-706.806
-657.324
-601.237
-540.504
-473.964
-403.246
-332.02
-264.135
-203.994
-154.2
-115.36
-87.134
-68.049
-56.25
-50.156
-47.783
-47.112
-46.389
-44.027
-39.322
-32.423
-23.769
-13.963
-3.819
5.883
14.332
20.663
24.577
26.249
26.017
24.405
21.932
19.035
16.218
14.007
12.706
12.423
13.153
14.762
17.135
20.191
23.809
27.851
32.195
36.725
41.344
45.981
50.558
54.986
59.183
63.066
66.566
69.651
72.316
74.578
76.465
78.015
79.269
80.278
81.105
81.808
82.442
83.056
83.694
84.401
85.223
86.206
87.392
88.808
90.47
92.386
94.56
96.991
99.677
102.607
105.766
109.142
112.721
116.493
120.446
124.567
128.836
133.236
137.746
142.348
147.022
151.747
156.501
161.264
166.012
170.724
175.379
179.954
184.425
188.767
192.957
196.969
200.78
204.367
207.708
210.781
213.566
216.046
218.203
220.023
221.49
222.594
223.324
223.671
223.627
223.188
222.35
221.112
219.474
217.439
215.01
212.194
208.999
205.435
201.512
197.244
192.644
187.73
182.517
177.024
171.271
165.278
159.067
152.659
146.078
139.348
132.491
125.531
118.493
111.4
104.276
97.143
90.023
82.94
75.915
68.968
62.119
55.388
48.792
42.348
36.072
29.978
24.079
18.387
12.914
7.666
2.654
-2.118
-6.644
-10.92
-14.945
-18.716
-22.236
-25.505
-28.527
-31.305
-33.844
-36.151
-38.232
-40.095
-41.748
-43.2
-44.461
-45.541
-46.45
-47.198
-47.797
-48.257
-48.59
-48.806
-48.916
-48.931
-48.861
-48.716
-48.506
-48.24
-47.927
-47.576
-47.195
-46.79
-46.369
-45.939
-45.504
-45.071
-44.643
-44.225
-43.82
-43.431
-43.061
-42.711
-42.384
-42.081
-41.802
-41.548
-41.319
-41.116
-40.938
-40.784
-40.654
-40.548
-40.464
-40.401
-40.36
-40.338
-40.335
-40.351
-40.383
-40.432
-40.497
-40.578
-40.673
-40.782
-40.905
-41.042
-41.193
-41.358
-41.536
-41.729
-41.935
-42.157
-42.393
-42.645
-42.913
-43.197
-43.499
-43.819
-44.158
-44.516
-44.894
-45.292
-45.711
-46.152
-46.614
-47.098
-47.604
-48.132
-48.681
-49.251
-49.842
-50.452
-51.08
-51.725
-52.386
-53.06
-53.746
-54.441
-55.144
-55.852
-56.562
-57.272
-57.98
-58.681
-59.374
-60.055
-60.72
-61.366
-61.99
-62.586
-63.151
-63.682
-64.174
-64.622
-65.024
-65.374
-65.67
-65.906
-66.079
-66.186
-66.224
-66.19
-66.082
-65.898
-65.638
-65.302
-64.889
-64.401
-63.841
-63.209
-62.507
-61.74
-60.909
-60.018
-59.07
-58.07
-57.021
-55.929
-54.798
-53.636
-52.449
-51.243
-50.023
-48.797
-47.572
-46.356
-45.156
-43.976
-42.821
-41.696
-40.607
-39.564
-38.572
-37.629
-36.734
-35.887
-35.084
-34.321
-33.59
-32.875
-32.159
-31.427
-30.668
-29.876
-29.046
-28.168
-27.233
-26.226
-25.142
-23.987
-22.769
-21.493
-20.169
-18.814
-17.46
-16.163
-14.982
-13.983
-13.221
-12.742
-12.584
-12.781
-13.373
-14.411
-15.942
-17.995
-20.601
-23.762
-27.498
-31.875
-36.823
-42.147
-47.557
-52.595
-56.867
-60.142
-62.089
-62.298
-60.718
-57.502
-53.125
-48.631
-44.775
-41.945
-40.776
-41.779
-44.843
-49.588
-54.873
-58.606
-59.304
-55.697
-45.95
-28.74
-3.197
30.564
70.188
112.669
155.647
197.879
239.921
281.247
318.309
344.3
348.648
322.1
261.76
171.716
62.937
-52.115
-166.702
-280.414
-395.395
-511.649
-622.301
-713.59
-772.469
-792.402
-774.839
-729.657
-669.049
-601.448
-531.633
-460.555
-387.486
-314.355
-244.874
-183.169
-133.17
-95.971
-70.53
-55.142
-47.487
-45.333
-46.383
-48.059
-48.039
-45.066
-38.903
-29.897
-18.796
-6.459
6.13
17.726
27.087
33.575
37.162
38.15
37.101
34.576
31.084
27.27
23.814
21.151
19.5
18.915
19.291
20.542
22.608
25.378
28.718
32.51
36.641
41.016
45.564
50.195
54.812
59.321
63.623
67.635
71.288
74.543
77.392
79.844
81.926
83.672
85.122
86.327
87.349
88.247
89.077
89.89
90.73
91.648
92.694
93.916
95.359
97.051
99.007
101.237
103.747
106.536
109.599
112.926
116.496
120.296
124.314
128.541
132.97
137.586
142.361
147.274
152.303
157.426
162.622
167.864
173.12
178.366
183.588
188.77
193.901
198.959
203.913
208.731
213.384
217.85
222.125
226.194
230.03
233.62
236.947
240.005
242.805
245.336
247.563
249.465
251.015
252.204
253.046
253.543
253.688
253.465
252.841
251.79
250.31
248.391
246.021
243.189
239.856
236.022
231.721
226.971
221.79
216.183
210.125
203.613
196.681
189.367
181.738
173.867
165.798
157.586
149.289
140.96
132.674
124.479
116.386
108.427
100.64
93.072
85.805
78.895
72.356
66.193
60.384
54.889
49.691
44.77
40.094
35.647
31.402
27.342
23.477
19.804
16.31
12.971
9.738
6.573
3.473
0.438
-2.516
-5.353
-8.056
-10.607
-12.983
-15.174
-17.172
-18.973
-20.591
-22.038
-23.318
-24.43
-25.363
-26.108
-26.668
-27.056
-27.285
-27.383
-27.368
-27.259
-27.079
-26.845
-26.569
-26.262
-25.927
-25.565
-25.18
-24.779
-24.369
-23.96
-23.558
-23.167
-22.79
-22.43
-22.086
-21.761
-21.453
-21.161
-20.885
-20.627
-20.389
-20.173
-19.981
-19.815
-19.676
-19.563
-19.476
-19.415
-19.378
-19.363
-19.368
-19.393
-19.435
-19.494
-19.568
-19.656
-19.757
-19.868
-19.989
-20.119
-20.255
-20.397
-20.542
-20.691
-20.841
-20.993
-21.146
-21.298
-21.451
-21.603
-21.756
-21.909
-22.064
-22.22
-22.378
-22.54
-22.706
-22.878
-23.056
-23.243
-23.44
-23.648
-23.871
-24.109
-24.364
-24.638
-24.932
-25.248
-25.586
-25.948
-26.334
-26.745
-27.182
-27.644
-28.132
-28.645
-29.184
-29.748
-30.334
-30.943
-31.571
-32.218
-32.879
-33.553
-34.236
-34.924
-35.614
-36.302
-36.983
-37.653
-38.308
-38.944
-39.555
-40.137
-40.686
-41.197
-41.666
-42.091
-42.469
-42.796
-43.072
-43.295
-43.465
-43.581
-43.644
-43.655
-43.614
-43.523
-43.384
-43.197
-42.965
-42.69
-42.377
-42.029
-41.652
-41.249
-40.826
-40.388
-39.942
-39.495
-39.052
-38.614
-38.185
-37.767
-37.366
-36.99
-36.642
-36.323
-36.03
-35.764
-35.524
-35.304
-35.095
-34.875
-34.626
-34.331
-33.979
-33.568
-33.095
-32.549
-31.919
-31.194
-30.37
-29.457
-28.464
-27.388
-26.238
-25.037
-23.824
-22.675
-21.667
-20.857
-20.298
-20.033
-20.095
-20.541
-21.434
-22.823
-24.754
-27.249
-30.306
-33.968
-38.282
-43.187
-48.509
-53.95
-59.096
-63.613
-67.289
-69.87
-71.037
-70.649
-68.821
-65.936
-62.713
-59.821
-57.528
-56.019
-55.703
-56.748
-58.943
-61.809
-63.679
-62.211
-55.991
-43.735
-25.939
-5.607
15.173
34.799
55.001
81.738
119.369
170.187
230.482
289.372
334.99
354.818
339.663
287.552
201.774
91.467
-32.036
-160.17
-288.307
-415.136
-537.688
-648.899
-738.318
-795.335
-815.93
-803.276
-765.311
-712.016
-650.089
-582.7
-511.533
-437.28
-362.128
-289.89
-224.416
-169.299
-126.369
-95.435
-75.062
-63.092
-57.599
-56.543
-57.752
-59.177
-58.892
-55.929
-50.338
-42.573
-33.248
-23.203
-13.282
-4.424
2.322
6.534
8.359
8.134
6.41
3.744
0.606
-2.434
-4.751
-6.017
-6.124
-5.087
-3.076
-0.223
3.384
7.598
12.249
17.198
22.309
27.483
32.651
37.718
42.581
47.14
51.296
54.995
58.222
60.98
63.293
65.199
66.736
67.961
68.941
69.738
70.416
71.033
71.638
72.286
73.033
73.934
75.042
76.394
78.014
79.916
82.109
84.595
87.376
90.444
93.785
97.389
101.245
105.342
109.668
114.21
118.949
123.866
128.94
134.152
139.481
144.907
150.41
155.968
161.56
167.165
172.758
178.313
183.802
189.198
194.471
199.59
204.526
209.248
213.731
217.95
221.881
225.5
228.783
231.702
234.235
236.368
238.088
239.384
240.248
240.68
240.685
240.28
239.483
238.307
236.752
234.818
232.505
229.815
226.757
223.335
219.546
215.384
210.849
205.949
200.688
195.067
189.068
182.656
175.808
168.524
160.822
152.738
144.306
135.566
126.569
117.381
108.088
98.773
89.501
80.325
71.299
62.487
53.977
45.871
38.254
31.181
24.686
18.786
13.495
8.813
4.716
1.153
-1.953
-4.667
-7.033
-9.082
-10.845
-12.368
-13.713
-14.952
-16.139
-17.313
-18.501
-19.724
-21.007
-22.357
-23.764
-25.194
-26.595
-27.936
-29.199
-30.38
-31.476
-32.478
-33.37
-34.14
-34.787
-35.313
-35.721
-36.012
-36.185
-36.248
-36.219
-36.125
-35.998
-35.863
-35.731
-35.614
-35.517
-35.448
-35.413
-35.412
-35.441
-35.497
-35.577
-35.683
-35.816
-35.976
-36.157
-36.354
-36.559
-36.769
-36.98
-37.189
-37.393
-37.59
-37.779
-37.961
-38.138
-38.31
-38.478
-38.641
-38.798
-38.949
-39.093
-39.231
-39.362
-39.484
-39.6
-39.709
-39.813
-39.914
-40.012
-40.11
-40.209
-40.31
-40.414
-40.525
-40.641
-40.765
-40.898
-41.04
-41.193
-41.358
-41.534
-41.722
-41.923
-42.136
-42.361
-42.597
-42.845
-43.104
-43.372
-43.651
-43.94
-44.238
-44.546
-44.863
-45.189
-45.525
-45.871
-46.225
-46.588
-46.96
-47.34
-47.727
-48.122
-48.525
-48.934
-49.35
-49.773
-50.202
-50.636
-51.076
-51.52
-51.969
-52.422
-52.879
-53.339
-53.802
-54.268
-54.735
-55.203
-55.672
-56.139
-56.604
-57.065
-57.52
-57.966
-58.401
-58.824
-59.231
-59.619
-59.985
-60.326
-60.639
-60.922
-61.17
-61.381
-61.552
-61.68
-61.763
-61.8
-61.789
-61.729
-61.62
-61.463
-61.256
-61.001
-60.7
-60.351
-59.958
-59.52
-59.04
-58.519
-57.959
-57.362
-56.732
-56.073
-55.387
-54.68
-53.954
-53.215
-52.468
-51.717
-50.962
-50.204
-49.447
-48.693
-47.948
-47.215
-46.492
-45.775
-45.063
-44.353
-43.639
-42.912
-42.152
-41.339
-40.459
-39.501
-38.465
-37.349
-36.14
-34.832
-33.415
-31.888
-30.265
-28.556
-26.763
-24.896
-22.979
-21.053
-19.188
-17.46
-15.921
-14.622
-13.601
-12.89
-12.54
-12.608
-13.137
-14.168
-15.717
-17.792
-20.435
-23.704
-27.56
-31.843
-36.265
-40.434
-44.007
-46.726
-48.314
-48.426
-46.858
-43.735
-39.503
-34.925
-30.791
-27.602
-25.728
-25.631
-27.648
-31.612
-36.675
-41.491
-44.01
-41.927
-34.163
-19.908
0.817
25.4
52.841
83.925
118.905
160.899
210.87
264.315
315.849
356.013
373.827
361.741
314.674
234.752
130.298
11.869
-110.549
-234.118
-359.101
-483.963
-603.694
-705.004
-773.732
-803.17
-793.92
-755.682
-701.529
-639.69
-574.357
-505.856
-432.85
-357.09
-282.382
-213.339
-154.443
-107.755
-73.208
-49.726
-35.522
-28.826
-27.751
-29.868
-32.741
-34.284
-33.333
-29.721
-23.73
-15.863
-6.841
2.401
10.77
17.172
21.118
22.736
22.387
20.617
17.982
14.989
12.251
10.389
9.736
10.374
12.248
15.18
19.022
23.671
28.964
34.713
40.756
46.948
53.174
59.341
65.336
71.033
76.315
81.098
85.343
89.044
92.214
94.883
97.087
98.877
100.313
101.458
102.373
103.118
103.747
104.315
104.882
105.509
106.254
107.165
108.272
109.596
111.152
112.946
114.985
117.267
119.783
122.524
125.482
128.655
132.039
135.634
139.428
143.406
147.553
151.852
156.283
160.824
165.444
170.102
174.769
179.421
184.039
188.612
193.123
197.554
201.887
206.106
210.195
214.147
217.946
221.574
225.029
228.314
231.447
234.467
237.386
240.198
242.895
245.448
247.83
250.016
251.967
253.64
255.003
256.02
256.661
256.911
256.725
256.051
254.823
252.953
250.387
247.102
243.078
238.323
232.858
226.701
219.894
212.492
204.528
196.043
187.082
177.679
167.909
157.862
147.642
137.384
127.194
117.152
107.336
97.802
88.589
79.744
71.294
63.256
55.676
48.588
42.016
35.989
30.497
25.512
20.993
16.869
13.081
9.587
6.349
3.34
0.548
-2.05
-4.471
-6.726
-8.851
-10.876
-12.822
-14.717
-16.566
-18.36
-20.085
-21.704
-23.186
-24.514
-25.676
-26.669
-27.501
-28.173
-28.692
-29.068
-29.301
-29.393
-29.349
-29.168
-28.862
-28.448
-27.946
-27.386
-26.799
-26.206
-25.626
-25.072
-24.552
-24.077
-23.651
-23.276
-22.955
-22.693
-22.492
-22.359
-22.295
-22.301
-22.374
-22.509
-22.701
-22.945
-23.237
-23.572
-23.947
-24.358
-24.803
-25.28
-25.788
-26.323
-26.881
-27.458
-28.049
-28.649
-29.253
-29.857
-30.456
-31.044
-31.619
-32.177
-32.714
-33.227
-33.713
-34.169
-34.592
-34.981
-35.332
-35.646
-35.92
-36.153
-36.346
-36.499
-36.612
-36.685
-36.72
-36.718
-36.681
-36.61
-36.508
-36.377
-36.219
-36.036
-35.833
-35.612
-35.377
-35.133
-34.882
-34.63
-34.382
-34.141
-33.912
-33.699
-33.506
-33.337
-33.196
-33.087
-33.014
-32.979
-32.986
-33.037
-33.135
-33.283
-33.481
-33.731
-34.033
-34.389
-34.797
-35.257
-35.769
-36.331
-36.94
-37.596
-38.294
-39.033
-39.808
-40.615
-41.45
-42.308
-43.183
-44.068
-44.959
-45.848
-46.728
-47.594
-48.439
-49.256
-50.037
-50.777
-51.469
-52.107
-52.685
-53.197
-53.638
-54.004
-54.29
-54.494
-54.613
-54.644
-54.587
-54.443
-54.211
-53.893
-53.491
-53.008
-52.446
-51.809
-51.102
-50.327
-49.49
-48.594
-47.647
-46.654
-45.622
-44.557
-43.468
-42.362
-41.247
-40.131
-39.02
-37.915
-36.82
-35.739
-34.678
-33.644
-32.643
-31.676
-30.745
-29.852
-28.996
-28.174
-27.373
-26.572
-25.752
-24.896
-23.996
-23.05
-22.052
-20.995
-19.872
-18.673
-17.397
-16.045
-14.621
-13.124
-11.568
-9.977
-8.406
-6.939
-5.652
-4.614
-3.88
-3.481
-3.464
-3.887
-4.805
-6.265
-8.31
-10.951
-14.22
-18.194
-22.826
-27.963
-33.337
-38.502
-43.068
-46.779
-49.321
-50.342
-49.801
-47.849
-44.914
-41.894
-39.444
-37.93
-37.836
-39.432
-42.591
-47.022
-51.679
-54.904
-55.034
-49.872
-38.104
-19.533
4.928
31.881
59.441
88.192
119.559
157.752
204.131
253.91
299.829
330.563
334.272
304.98
242.313
152.422
46.632
-64.763
-177.523
-292.804
-411.95
-533.32
-646.86
-736.084
-790.353
-805.748
-787.383
-749.012
-698.862
-640.439
-574.182
-495.815
-407.672
-317.513
-233.259
-164.71
-115.425
-82.06
-61.018
-47.02
-37.075
-32.194
-31.704
-34.266
-38.031
-39.791
-38.082
-33.105
-25.392
-15.945
-5.896
3.871
12.381
18.643
22.359
23.734
23.16
21.238
18.56
15.641
13.065
11.367
10.791
11.386
13.083
15.705
19.122
23.212
27.813
32.762
37.913
43.153
48.392
53.54
58.496
63.151
67.4
71.179
74.461
77.24
79.535
81.38
82.81
83.882
84.663
85.214
85.598
85.874
86.095
86.321
86.611
87.022
87.613
88.427
89.493
90.832
92.457
94.372
96.579
99.074
101.845
104.884
108.181
111.723
115.502
119.51
123.734
128.165
132.783
137.564
142.486
147.531
152.675
157.898
163.171
168.461
173.745
179.006
184.225
189.385
194.461
199.418
204.222
208.842
213.257
217.457
221.425
225.133
228.562
231.699
234.54
237.096
239.357
241.289
242.87
244.081
244.916
245.386
245.49
245.214
244.538
243.432
241.873
239.865
237.4
234.462
231.033
227.078
222.596
217.618
212.157
206.222
199.805
192.897
185.51
177.69
169.494
160.989
152.248
143.324
134.274
125.168
116.073
107.064
98.19
89.479
80.976
72.739
64.839
57.345
50.298
43.703
37.55
31.819
26.47
21.477
16.812
12.44
8.337
4.479
0.852
-2.55
-5.741
-8.751
-11.624
-14.399
-17.102
-19.737
-22.294
-24.757
-27.096
-29.282
-31.295
-33.114
-34.732
-36.147
-37.362
-38.387
-39.231
-39.895
-40.372
-40.661
-40.758
-40.673
-40.422
-40.023
-39.506
-38.897
-38.222
-37.503
-36.756
-35.994
-35.224
-34.454
-33.685
-32.923
-32.174
-31.446
-30.748
-30.086
-29.464
-28.884
-28.347
-27.852
-27.398
-26.984
-26.609
-26.274
-25.978
-25.724
-25.513
-25.347
-25.227
-25.152
-25.121
-25.133
-25.187
-25.279
-25.408
-25.572
-25.768
-25.995
-26.252
-26.539
-26.854
-27.196
-27.565
-27.959
-28.378
-28.821
-29.287
-29.776
-30.288
-30.82
-31.374
-31.949
-32.545
-33.161
-33.798
-34.455
-35.132
-35.829
-36.546
-37.282
-38.038
-38.812
-39.606
-40.419
-41.251
-42.102
-42.972
-43.861
-44.767
-45.691
-46.631
-47.586
-48.554
-49.534
-50.523
-51.52
-52.523
-53.53
-54.539
-55.547
-56.553
-57.553
-58.546
-59.529
-60.5
-61.457
-62.397
-63.317
-64.215
-65.09
-65.937
-66.755
-67.542
-68.294
-69.009
-69.684
-70.317
-70.906
-71.448
-71.942
-72.386
-72.779
-73.118
-73.404
-73.635
-73.811
-73.93
-73.992
-73.997
-73.945
-73.835
-73.668
-73.444
-73.162
-72.823
-72.428
-71.977
-71.471
-70.91
-70.295
-69.629
-68.913
-68.149
-67.341
-66.492
-65.605
-64.687
-63.74
-62.769
-61.78
-60.777
-59.765
-58.749
-57.732
-56.719
-55.714
-54.722
-53.748
-52.798
-51.876
-50.986
-50.134
-49.325
-48.565
-47.857
-47.201
-46.598
-46.05
-45.561
-45.135
-44.775
-44.478
-44.241
-44.06
-43.932
-43.847
-43.792
-43.743
-43.676
-43.571
-43.413
-43.197
-42.914
-42.552
-42.098
-41.538
-40.867
-40.089
-39.209
-38.228
-37.154
-36.009
-34.833
-33.697
-32.68
-31.845
-31.247
-30.929
-30.919
-31.266
-32.028
-33.252
-34.986
-37.255
-40.06
-43.442
-47.461
-52.08
-57.145
-62.369
-67.338
-71.7
-75.228
-77.657
-78.652
-78.046
-75.929
-72.688
-69.051
-65.686
-62.886
-60.905
-60.143
-60.719
-62.316
-64.201
-65.016
-63.315
-58.289
-49.206
-34.907
-14.613
11.929
44.639
81.864
120.74
159.094
194.439
224.959
251.843
275.306
293.082
300.486
287.347
244.519
170.64
70.313
-45.182
-164.158
-283.227
-401.365
-516.627
-624.203
-710.728
-764.08
-780.625
-762.316
-719.115
-662.022
-595.298
-522.647
-447.208
-371.079
-300.494
-239.41
-187.516
-144.987
-109.657
-80.356
-58.724
-44.779
-38.13
-37.22
-38.784
-40.388
-40.344
-37.814
-33.047
-26.403
-18.23
-9.261
-0.262
7.917
14.329
18.637
20.955
21.542
20.86
19.389
17.546
15.845
14.829
14.766
15.734
17.698
20.486
23.97
28.051
32.579
37.397
42.366
47.373
52.332
57.186
61.859
66.266
70.326
73.962
77.137
79.842
82.09
83.912
85.347
86.439
87.244
87.826
88.244
88.557
88.819
89.074
89.373
89.766
90.305
91.042
92.014
93.246
94.755
96.553
98.642
101.029
103.707
106.664
109.892
113.384
117.134
121.141
125.399
129.893
134.601
139.499
144.554
149.741
155.028
160.377
165.759
171.147
176.521
181.874
187.199
192.477
197.685
202.787
207.751
212.557
217.189
221.632
225.884
229.941
233.805
237.494
241.015
244.353
247.48
250.344
252.883
255.055
256.829
258.185
259.109
259.579
259.57
259.066
258.043
256.474
254.33
251.557
248.122
244.026
239.29
233.972
228.148
221.878
215.211
208.198
200.88
193.303
185.515
177.551
169.45
161.261
153.042
144.872
136.818
128.921
121.205
113.67
106.297
99.084
92.028
85.126
78.382
71.802
65.39
59.167
53.15
47.348
41.761
36.377
31.184
26.184
21.381
16.789
12.428
8.31
4.446
0.849
-2.476
-5.527
-8.306
-10.824
-13.095
-15.131
-16.939
-18.528
-19.903
-21.075
-22.054
-22.854
-23.488
-23.969
-24.312
-24.532
-24.643
-24.659
-24.59
-24.446
-24.235
-23.967
-23.649
-23.289
-22.896
-22.478
-22.042
-21.596
-21.147
-20.703
-20.269
-19.85
-19.451
-19.074
-18.724
-18.404
-18.114
-17.858
-17.635
-17.447
-17.294
-17.176
-17.092
-17.043
-17.027
-17.042
-17.089
-17.164
-17.267
-17.395
-17.546
-17.72
-17.914
-18.127
-18.357
-18.603
-18.863
-19.136
-19.419
-19.711
-20.011
-20.316
-20.626
-20.939
-21.253
-21.567
-21.882
-22.195
-22.508
-22.819
-23.129
-23.438
-23.746
-24.053
-24.361
-24.67
-24.982
-25.297
-25.617
-25.943
-26.277
-26.621
-26.974
-27.339
-27.716
-28.106
-28.51
-28.929
-29.362
-29.811
-30.276
-30.757
-31.254
-31.766
-32.295
-32.838
-33.396
-33.968
-34.551
-35.144
-35.745
-36.352
-36.963
-37.574
-38.183
-38.785
-39.377
-39.955
-40.514
-41.05
-41.558
-42.034
-42.473
-42.871
-43.224
-43.53
-43.784
-43.985
-44.132
-44.223
-44.258
-44.237
-44.158
-44.022
-43.829
-43.58
-43.275
-42.915
-42.502
-42.041
-41.536
-40.99
-40.409
-39.798
-39.163
-38.509
-37.843
-37.17
-36.495
-35.825
-35.167
-34.528
-33.921
-33.351
-32.821
-32.332
-31.879
-31.458
-31.064
-30.684
-30.302
-29.904
-29.479
-29.017
-28.514
-27.963
-27.356
-26.682
-25.925
-25.08
-24.153
-23.152
-22.095
-21.006
-19.907
-18.836
-17.854
-17.011
-16.352
-15.922
-15.753
-15.886
-16.373
-17.251
-18.548
-20.287
-22.477
-25.131
-28.253
-31.834
-35.834
-40.212
-44.936
-49.895
-54.911
-59.732
-63.988
-67.332
-69.526
-70.25
-69.137
-66.161
-61.499
-55.573
-49.297
-43.386
-38.273
-34.695
-33.318
-34.12
-36.731
-40.237
-42.874
-43.217
-40.044
-31.503
-15.886
6.971
35.918
69.353
104.847
142.364
184.007
228.182
270.685
303.133
312.874
292.753
241.618
164.681
74.179
-20.878
-115.882
-211.215
-312.686
-420.667
-529.786
-629.169
-702.755
-741.845
-745.863
-720.848
-679.417
-630.175
-576.816
-520.289
-458.604
-392.431
-324.951
-260.025
-202.006
-153.393
-114.978
-86.647
-67.209
-55.291
-49.589
-48.195
-49.134
-50.572
-50.738
-48.753
-44.547
-38.3
-30.459
-21.771
-12.987
-4.993
1.26
5.418
7.566
7.96
7.069
5.373
3.292
1.35
0.092
-0.207
0.54
2.302
4.917
8.265
12.254
16.742
21.577
26.63
31.787
36.961
42.091
47.094
51.879
56.358
60.445
64.095
67.293
70.044
72.375
74.315
75.902
77.184
78.216
79.056
79.755
80.366
80.931
81.499
82.123
82.852
83.739
84.821
86.119
87.65
89.425
91.452
93.737
96.281
99.072
102.098
105.348
108.809
112.468
116.305
120.29
124.398
128.6
132.876
137.21
141.582
145.975
150.369
154.74
159.077
163.376
167.637
171.862
176.058
180.231
184.399
188.587
192.812
197.08
201.384
205.711
210.046
214.366
218.648
222.864
226.974
230.929
234.678
238.155
241.291
244.013
246.233
247.857
248.805
249.013
248.432
247.024
244.757
241.617
237.607
232.737
227.035
220.526
213.241
205.235
196.578
187.352
177.661
167.612
157.312
146.864
136.372
125.943
115.676
105.646
95.911
86.523
77.528
68.985
60.957
53.477
46.561
40.212
34.416
29.16
24.418
20.152
16.303
12.801
9.589
6.628
3.892
1.361
-0.996
-3.218
-5.355
-7.434
-9.469
-11.475
-13.459
-15.431
-17.391
-19.322
-21.189
-22.947
-24.566
-26.031
-27.337
-28.484
-29.467
-30.274
-30.899
-31.347
-31.625
-31.74
-31.698
-31.502
-31.165
-30.707
-30.16
-29.557
-28.925
-28.282
-27.642
-27.016
-26.417
-25.854
-25.334
-24.855
-24.419
-24.027
-23.684
-23.392
-23.153
-22.963
-22.817
-22.708
-22.633
-22.588
-22.569
-22.571
-22.593
-22.63
-22.682
-22.75
-22.832
-22.925
-23.027
-23.134
-23.245
-23.356
-23.465
-23.568
-23.663
-23.748
-23.821
-23.881
-23.926
-23.957
-23.972
-23.971
-23.955
-23.923
-23.877
-23.816
-23.743
-23.658
-23.564
-23.463
-23.356
-23.246
-23.134
-23.024
-22.917
-22.816
-22.722
-22.638
-22.566
-22.509
-22.468
-22.446
-22.445
-22.468
-22.517
-22.593
-22.699
-22.838
-23.01
-23.217
-23.46
-23.741
-24.061
-24.42
-24.818
-25.256
-25.734
-26.25
-26.804
-27.395
-28.021
-28.68
-29.371
-30.09
-30.836
-31.606
-32.396
-33.205
-34.027
-34.859
-35.699
-36.54
-37.379
-38.211
-39.032
-39.837
-40.621
-41.378
-42.104
-42.794
-43.442
-44.043
-44.593
-45.086
-45.517
-45.882
-46.178
-46.402
-46.551
-46.622
-46.615
-46.531
-46.37
-46.131
-45.818
-45.43
-44.971
-44.443
-43.848
-43.19
-42.473
-41.701
-40.88
-40.018
-39.121
-38.195
-37.249
-36.289
-35.321
-34.355
-33.395
-32.45
-31.524
-30.626
-29.763
-28.947
-28.184
-27.475
-26.821
-26.217
-25.662
-25.147
-24.662
-24.193
-23.724
-23.245
-22.746
-22.218
-21.652
-21.035
-20.352
-19.587
-18.734
-17.793
-16.77
-15.675
-14.522
-13.332
-12.143
-11.005
-9.967
-9.073
-8.368
-7.902
-7.735
-7.924
-8.521
-9.555
-11.05
-13.034
-15.524
-18.544
-22.1
-26.149
-30.663
-35.615
-40.884
-46.289
-51.544
-56.206
-59.893
-62.313
-63.085
-61.938
-58.877
-54.07
-48.106
-41.892
-36.093
-31.35
-28.382
-27.505
-28.614
-31.162
-33.776
-34.888
-33.129
-26.782
-14.195
5.907
33.546
66.828
103.363
140.838
179.117
220.054
262.445
302.038
329.647
332.032
301.685
237.738
147.2
43.991
-62.192
-167.673
-274.45
-387.181
-504.136
-616.286
-709.54
-770.904
-795.401
-786.099
-752.427
-704.585
-648.716
-587.728
-521.641
-450.113
-375.46
-301.374
-232.337
-172.731
-124.698
-88.52
-63.505
-48.088
-40.622
-39.29
-41.638
-45.117
-47.522
-47.54
-44.848
-39.643
-32.391
-23.802
-14.837
-6.645
-0.382
3.404
4.785
4.092
1.856
-1.367
-5.06
-8.593
-11.302
-12.82
-13.037
-11.985
-9.84
-6.742
-2.786
1.872
7.052
12.598
18.365
24.237
30.131
35.939
41.539
46.82
51.674
56.039
59.898
63.251
66.119
68.536
70.536
72.168
73.495
74.574
75.463
76.216
76.879
77.506
78.152
78.87
79.715
80.721
81.91
83.299
84.896
86.707
88.734
90.971
93.406
96.034
98.851
101.858
105.052
108.424
111.961
115.646
119.463
123.395
127.418
131.501
135.614
139.729
143.825
147.895
151.926
155.9
159.804
163.617
167.329
170.944
174.462
177.878
181.196
184.415
187.551
190.642
193.709
196.767
199.82
202.846
205.827
208.749
211.584
214.308
216.884
219.25
221.355
223.156
224.596
225.627
226.181
226.165
225.507
224.144
222.031
219.156
215.514
211.099
205.924
200.006
193.369
186.071
178.173
169.729
160.815
151.503
141.887
132.09
122.232
112.426
102.78
93.366
84.246
75.484
67.131
59.24
51.867
45.035
38.755
33.04
27.883
23.277
19.198
15.593
12.394
9.526
6.923
4.543
2.355
0.325
-1.58
-3.4
-5.18
-6.943
-8.704
-10.479
-12.274
-14.1
-15.957
-17.824
-19.662
-21.429
-23.09
-24.63
-26.042
-27.318
-28.45
-29.429
-30.245
-30.9
-31.401
-31.752
-31.958
-32.021
-31.951
-31.767
-31.498
-31.175
-30.822
-30.455
-30.086
-29.726
-29.385
-29.072
-28.794
-28.548
-28.336
-28.161
-28.025
-27.932
-27.883
-27.874
-27.903
-27.962
-28.048
-28.159
-28.292
-28.444
-28.612
-28.794
-28.992
-29.205
-29.433
-29.673
-29.924
-30.183
-30.447
-30.714
-30.98
-31.243
-31.5
-31.748
-31.985
-32.209
-32.419
-32.612
-32.787
-32.942
-33.077
-33.189
-33.278
-33.344
-33.387
-33.406
-33.402
-33.375
-33.327
-33.258
-33.169
-33.061
-32.935
-32.792
-32.633
-32.46
-32.273
-32.076
-31.868
-31.654
-31.434
-31.212
-30.99
-30.771
-30.557
-30.351
-30.156
-29.975
-29.811
-29.666
-29.542
-29.443
-29.371
-29.328
-29.316
-29.336
-29.391
-29.48
-29.606
-29.767
-29.965
-30.198
-30.467
-30.772
-31.11
-31.482
-31.886
-32.321
-32.784
-33.274
-33.788
-34.323
-34.875
-35.442
-36.02
-36.604
-37.19
-37.774
-38.351
-38.916
-39.463
-39.987
-40.483
-40.946
-41.369
-41.749
-42.08
-42.358
-42.58
-42.743
-42.846
-42.885
-42.862
-42.776
-42.628
-42.416
-42.143
-41.81
-41.42
-40.973
-40.473
-39.921
-39.324
-38.685
-38.01
-37.305
-36.576
-35.827
-35.066
-34.3
-33.537
-32.782
-32.04
-31.316
-30.617
-29.949
-29.322
-28.741
-28.206
-27.715
-27.265
-26.854
-26.479
-26.128
-25.787
-25.439
-25.072
-24.675
-24.249
-23.786
-23.28
-22.721
-22.097
-21.404
-20.649
-19.84
-18.983
-18.088
-17.167
-16.251
-15.392
-14.637
-14.042
-13.648
-13.485
-13.587
-13.975
-14.687
-15.767
-17.249
-19.163
-21.534
-24.366
-27.691
-31.574
-35.982
-40.77
-45.693
-50.374
-54.479
-57.796
-60.059
-60.917
-60.164
-57.861
-54.411
-50.609
-47.227
-44.682
-43.324
-43.669
-46.011
-50.168
-55.382
-60.097
-62.569
-61.71
-56.454
-45.294
-27.089
-1.042
32.542
71.195
112.144
153.246
193.138
232.259
270.535
305.125
330.286
336.3
313.139
256.699
169.857
62.519
-52.298
-167.804
-283.922
-401.862
-521.575
-634.462
-724.592
-780.992
-799.13
-783.452
-747.251
-699.741
-645.204
-585.351
-516.743
-439.062
-357.69
-277.67
-206.364
-150.013
-107.608
-77.495
-57.104
-42.316
-33.33
-29.941
-29.967
-31.975
-33.223
-31.701
-27.483
-20.901
-12.423
-2.867
6.901
15.884
22.864
27.23
29.11
28.861
26.993
24.035
20.454
16.817
13.793
11.791
10.941
11.23
12.499
14.605
17.467
20.958
24.917
29.207
33.7
38.293
42.92
47.501
51.939
56.146
60.03
63.517
66.571
69.189
71.386
73.196
74.656
75.808
76.706
77.414
77.993
78.503
78.993
79.511
80.105
80.824
81.717
82.83
84.192
85.817
87.716
89.892
92.345
95.07
98.059
101.295
104.764
108.455
112.356
116.455
120.738
125.187
129.783
134.507
139.339
144.26
149.249
154.285
159.347
164.412
169.459
174.465
179.409
184.265
189.008
193.613
198.055
202.309
206.352
210.16
213.711
216.983
219.957
222.615
224.94
226.917
228.533
229.774
230.631
231.095
231.159
230.817
230.068
228.908
227.339
225.362
222.982
220.206
217.039
213.493
209.578
205.307
200.694
195.755
190.508
184.97
179.162
173.104
166.817
160.325
153.649
146.815
139.846
132.766
125.6
118.372
111.106
103.826
96.556
89.319
82.137
75.034
68.029
61.143
54.397
47.808
41.395
35.173
29.157
23.362
17.8
12.482
7.418
2.616
-1.916
-6.174
-10.152
-13.849
-17.263
-20.395
-23.244
-25.815
-28.111
-30.137
-31.899
-33.403
-34.659
-35.674
-36.459
-37.023
-37.378
-37.535
-37.505
-37.302
-36.937
-36.425
-35.777
-35.007
-34.128
-33.153
-32.096
-30.968
-29.782
-28.55
-27.285
-25.997
-24.698
-23.397
-22.105
-20.831
-19.584
-18.371
-17.2
-16.079
-15.013
-14.007
-13.067
-12.196
-11.399
-10.679
-10.037
-9.477
-8.998
-8.602
-8.288
-8.057
-7.907
-7.837
-7.846
-7.93
-8.087
-8.314
-8.608
-8.965
-9.381
-9.852
-10.373
-10.941
-11.55
-12.195
-12.872
-13.576
-14.302
-15.045
-15.801
-16.565
-17.332
-18.099
-18.861
-19.614
-20.355
-21.08
-21.785
-22.469
-23.128
-23.76
-24.363
-24.935
-25.475
-25.982
-26.456
-26.895
-27.3
-27.67
-28.008
-28.313
-28.588
-28.834
-29.052
-29.246
-29.417
-29.569
-29.704
-29.826
-29.937
-30.041
-30.141
-30.24
-30.342
-30.449
-30.566
-30.694
-30.837
-30.997
-31.177
-31.379
-31.605
-31.857
-32.135
-32.442
-32.778
-33.143
-33.539
-33.964
-34.418
-34.9
-35.409
-35.942
-36.497
-37.071
-37.662
-38.265
-38.877
-39.494
-40.111
-40.723
-41.326
-41.914
-42.483
-43.026
-43.539
-44.016
-44.453
-44.844
-45.185
-45.47
-45.696
-45.859
-45.956
-45.982
-45.935
-45.812
-45.612
-45.332
-44.973
-44.533
-44.014
-43.417
-42.744
-41.998
-41.184
-40.306
-39.368
-38.376
-37.337
-36.256
-35.139
-33.992
-32.821
-31.634
-30.439
-29.241
-28.05
-26.872
-25.715
-24.587
-23.495
-22.444
-21.436
-20.473
-19.557
-18.694
-17.889
-17.148
-16.469
-15.854
-15.303
-14.814
-14.38
-13.99
-13.619
-13.246
-12.853
-12.428
-11.964
-11.454
-10.884
-10.242
-9.513
-8.691
-7.775
-6.763
-5.654
-4.46
-3.205
-1.941
-0.753
0.286
1.104
1.643
1.87
1.732
1.164
0.106
-1.498
-3.702
-6.507
-9.94
-14.078
-18.87
-24.171
-29.734
-35.115
-39.927
-43.954
-46.913
-48.441
-48.476
-47.103
-44.644
-41.937
-39.607
-37.847
-36.964
-37.36
-39.042
-41.712
-44.636
-45.782
-42.929
-35.384
-22.723
-5.312
14.685
37.202
63.327
93.624
130.507
174.4
222.339
269.487
308.522
330.628
327.616
295.624
234.352
149.086
51.137
-51.55
-153.783
-254.749
-359.989
-469.445
-577.51
-673.881
-742.959
-776.307
-773.531
-740.974
-691.815
-634.693
-573.151
-507.278
-432.863
-351.278
-269.105
-193.706
-134.106
-92.99
-66.443
-50.434
-39.836
-32.3
-28.933
-29.039
-31.289
-33.838
-34.191
-31.566
-26.26
-18.732
-9.904
-0.795
7.598
14.156
18.298
20.11
19.924
18.25
15.61
12.472
9.41
7.063
5.801
5.728
6.804
8.854
11.737
15.368
19.608
24.286
29.26
34.395
39.59
44.781
49.874
54.766
59.358
63.55
67.287
70.555
73.357
75.717
77.669
79.246
80.498
81.487
82.268
82.902
83.443
83.936
84.433
84.99
85.657
86.488
87.518
88.769
90.255
91.982
93.952
96.167
98.62
101.3
104.197
107.303
110.609
114.11
117.795
121.651
125.663
129.816
134.093
138.481
142.963
147.523
152.142
156.803
161.488
166.178
170.853
175.492
180.071
184.566
188.955
193.212
197.316
201.242
204.968
208.472
211.734
214.736
217.458
219.884
221.998
223.785
225.234
226.332
227.07
227.44
227.435
227.052
226.286
225.138
223.607
221.697
219.41
216.754
213.735
210.363
206.649
202.605
198.244
193.583
188.637
183.425
177.966
172.28
166.387
160.309
154.069
147.689
141.19
134.598
127.933
121.219
114.479
107.734
101.007
94.317
87.686
81.134
74.678
68.337
62.128
56.066
50.167
44.443
38.907
33.57
28.442
23.531
18.844
14.388
10.166
6.182
2.438
-1.067
-4.333
-7.362
-10.156
-12.721
-15.062
-17.185
-19.096
-20.804
-22.317
-23.645
-24.795
-25.779
-26.607
-27.288
-27.834
-28.254
-28.56
-28.761
-28.869
-28.893
-28.842
-28.728
-28.558
-28.342
-28.088
-27.804
-27.499
-27.179
-26.852
-26.522
-26.197
-25.881
-25.579
-25.295
-25.033
-24.796
-24.586
-24.406
-24.258
-24.142
-24.061
-24.014
-24.003
-24.026
-24.084
-24.177
-24.303
-24.463
-24.654
-24.877
-25.131
-25.413
-25.722
-26.059
-26.42
-26.804
-27.211
-27.638
-28.084
-28.547
-29.026
-29.518
-30.022
-30.535
-31.058
-31.587
-32.121
-32.658
-33.196
-33.734
-34.27
-34.802
-35.328
-35.847
-36.357
-36.856
-37.343
-37.817
-38.275
-38.717
-39.14
-39.544
-39.928
-40.289
-40.627
-40.94
-41.229
-41.491
-41.728
-41.937
-42.12
-42.276
-42.406
-42.509
-42.587
-42.64
-42.669
-42.675
-42.66
-42.624
-42.571
-42.501
-42.417
-42.321
-42.213
-42.098
-41.976
-41.849
-41.719
-41.589
-41.459
-41.331
-41.207
-41.089
-40.978
-40.876
-40.782
-40.698
-40.625
-40.563
-40.51
-40.468
-40.435
-40.41
-40.392
-40.379
-40.369
-40.36
-40.35
-40.334
-40.311
-40.276
-40.226
-40.157
-40.064
-39.945
-39.795
-39.612
-39.391
-39.131
-38.83
-38.486
-38.1
-37.668
-37.191
-36.667
-36.098
-35.482
-34.821
-34.115
-33.364
-32.571
-31.739
-30.874
-29.979
-29.058
-28.117
-27.161
-26.194
-25.223
-24.253
-23.288
-22.335
-21.4
-20.492
-19.62
-18.793
-18.01
-17.275
-16.582
-15.927
-15.303
-14.701
-14.104
-13.502
-12.881
-12.233
-11.556
-10.84
-10.078
-9.261
-8.373
-7.406
-6.365
-5.253
-4.087
-2.894
-1.692
-0.52
0.568
1.523
2.299
2.843
3.12
3.085
2.691
1.904
0.685
-0.997
-3.168
-5.855
-9.065
-12.795
-17.021
-21.714
-26.851
-32.323
-37.93
-43.387
-48.313
-52.357
-55.279
-56.787
-56.53
-54.475
-50.803
-45.96
-40.865
-36.213
-32.407
-30.01
-29.424
-30.613
-33.361
-36.676
-38.836
-38.18
-32.587
-20.652
-2.07
22.473
49.967
78.396
107.818
139.04
175.609
219.218
266.344
310.79
341.836
346.814
317.651
252.269
156.21
42.157
-76.966
-194.033
-308.416
-422.885
-538.218
-648.092
-739.25
-798.824
-820.301
-805.098
-763.16
-706.926
-643.885
-577.345
-506.683
-428.777
-345.948
-264.856
-192.579
-137.153
-100.412
-78.043
-65.474
-57.217
-50.865
-47.271
-45.986
-46.179
-46.27
-44.111
-39.223
-32.06
-23.21
-13.752
-4.596
3.461
9.436
12.929
14.085
13.246
10.968
7.813
4.252
0.844
-1.812
-3.393
-3.788
-3.02
-1.256
1.377
4.783
8.814
13.305
18.112
23.109
28.202
33.319
38.364
43.232
47.82
52.028
55.802
59.123
61.987
64.42
66.452
68.122
69.487
70.608
71.546
72.362
73.109
73.834
74.59
75.432
76.41
77.579
78.97
80.607
82.501
84.658
87.078
89.758
92.687
95.851
99.235
102.828
106.618
110.595
114.744
119.049
123.491
128.051
132.709
137.449
142.249
147.089
151.951
156.812
161.652
166.451
171.188
175.838
180.377
184.782
189.027
193.09
196.946
200.574
203.951
207.059
209.877
212.389
214.579
216.433
217.937
219.079
219.851
220.243
220.25
219.866
219.088
217.915
216.348
214.389
212.043
209.314
206.212
202.745
198.924
194.761
190.272
185.47
180.374
175.0
169.369
163.499
157.413
151.132
144.678
138.075
131.345
124.511
117.598
110.627
103.622
96.606
89.601
82.629
75.711
68.867
62.119
55.484
48.98
42.626
36.435
30.424
24.604
18.99
13.59
8.416
3.474
-1.228
-5.685
-9.892
-13.849
-17.552
-21.003
-24.203
-27.154
-29.86
-32.326
-34.558
-36.562
-38.346
-39.919
-41.289
-42.467
-43.462
-44.286
-44.95
-45.464
-45.841
-46.092
-46.229
-46.262
-46.204
-46.065
-45.856
-45.587
-45.268
-44.908
-44.517
-44.103
-43.673
-43.235
-42.794
-42.358
-41.931
-41.519
-41.124
-40.751
-40.403
-40.082
-39.79
-39.528
-39.297
-39.097
-38.929
-38.79
-38.682
-38.601
-38.547
-38.518
-38.512
-38.526
-38.56
-38.61
-38.675
-38.752
-38.84
-38.937
-39.041
-39.15
-39.263
-39.379
-39.496
-39.615
-39.735
-39.854
-39.974
-40.093
-40.212
-40.33
-40.449
-40.568
-40.689
-40.811
-40.935
-41.063
-41.194
-41.332
-41.475
-41.626
-41.786
-41.955
-42.134
-42.324
-42.527
-42.742
-42.97
-43.211
-43.467
-43.736
-44.019
-44.315
-44.624
-44.945
-45.277
-45.619
-45.97
-46.328
-46.691
-47.059
-47.429
-47.8
-48.17
-48.537
-48.899
-49.253
-49.598
-49.931
-50.249
-50.55
-50.832
-51.092
-51.327
-51.537
-51.718
-51.869
-51.987
-52.071
-52.119
-52.129
-52.1
-52.03
-51.918
-51.763
-51.564
-51.321
-51.033
-50.699
-50.32
-49.896
-49.426
-48.911
-48.352
-47.748
-47.102
-46.415
-45.689
-44.925
-44.129
-43.302
-42.45
-41.576
-40.686
-39.783
-38.872
-37.958
-37.046
-36.141
-35.247
-34.367
-33.509
-32.677
-31.876
-31.114
-30.393
-29.718
-29.095
-28.527
-28.021
-27.58
-27.205
-26.896
-26.656
-26.488
-26.396
-26.382
-26.442
-26.57
-26.761
-27.006
-27.299
-27.626
-27.966
-28.298
-28.603
-28.865
-29.076
-29.228
-29.307
-29.3
-29.19
-28.969
-28.641
-28.213
-27.685
-27.07
-26.382
-25.654
-24.944
-24.312
-23.82
-23.522
-23.463
-23.682
-24.213
-25.095
-26.377
-28.102
-30.293
-32.977
-36.156
-39.848
-44.109
-48.868
-53.935
-59.034
-63.741
-67.688
-70.654
-72.318
-72.278
-70.467
-67.013
-62.352
-57.447
-53.004
-49.383
-47.209
-47.023
-48.79
-52.215
-56.275
-59.027
-59.101
-55.313
-45.887
-29.468
-5.108
27.126
64.91
105.295
146.018
186.191
226.945
268.112
306.219
334.019
340.005
314.396
254.446
164.888
57.578
-54.484
-165.238
-275.103
-385.835
-497.289
-601.308
-683.306
-733.391
-747.579
-730.019
-692.566
-643.571
-587.999
-528.111
-462.516
-392.557
-321.665
-253.577
-192.892
-142.456
-103.053
-74.496
-55.388
-43.915
-38.556
-37.346
-38.203
-39.244
-38.71
-35.75
-30.414
-23.076
-14.294
-4.859
4.424
12.671
18.912
22.762
24.345
23.97
22.148
19.392
16.141
12.922
10.301
8.605
7.959
8.359
9.668
11.77
14.587
17.995
21.857
26.048
30.457
34.989
39.578
44.151
48.619
52.898
56.905
60.569
63.858
66.766
69.307
71.508
73.406
75.04
76.46
77.727
78.896
80.022
81.153
82.329
83.596
85.0
86.585
88.393
90.449
92.769
95.36
98.225
101.363
104.771
108.436
112.343
116.479
120.83
125.384
130.129
135.05
140.129
145.346
150.68
156.112
161.622
167.187
172.785
178.393
183.988
189.547
195.048
200.465
205.774
210.947
215.96
220.785
225.398
229.775
233.889
237.72
241.244
244.442
247.296
249.787
251.902
253.624
254.943
255.847
256.328
256.379
255.994
255.171
253.908
252.206
250.069
247.5
244.507
241.098
237.285
233.079
228.494
223.547
218.255
212.636
206.711
200.501
194.029
187.318
180.393
173.278
165.999
158.582
151.053
143.438
135.762
128.053
120.335
112.633
104.972
97.375
89.867
82.469
75.203
68.09
61.147
54.394
47.847
41.52
35.429
29.585
23.998
18.678
13.633
8.869
4.389
0.197
-3.706
-7.32
-10.646
-13.688
-16.45
-18.936
-21.155
-23.112
-24.816
-26.278
-27.508
-28.516
-29.314
-29.914
-30.33
-30.574
-30.659
-30.599
-30.407
-30.097
-29.682
-29.176
-28.591
-27.941
-27.236
-26.49
-25.713
-24.916
-24.109
-23.301
-22.5
-21.714
-20.951
-20.216
-19.517
-18.857
-18.242
-17.675
-17.159
-16.697
-16.291
-15.941
-15.649
-15.415
-15.238
-15.117
-15.052
-15.04
-15.08
-15.168
-15.304
-15.483
-15.703
-15.96
-16.25
-16.572
-16.921
-17.293
-17.687
-18.098
-18.525
-18.964
-19.413
-19.87
-20.333
-20.8
-21.269
-21.74
-22.209
-22.678
-23.143
-23.606
-24.065
-24.52
-24.971
-25.417
-25.859
-26.295
-26.727
-27.154
-27.576
-27.993
-28.405
-28.812
-29.215
-29.614
-30.009
-30.4
-30.787
-31.169
-31.547
-31.919
-32.284
-32.64
-32.987
-33.322
-33.645
-33.952
-34.243
-34.513
-34.762
-34.985
-35.181
-35.347
-35.48
-35.578
-35.638
-35.659
-35.639
-35.578
-35.474
-35.33
-35.144
-34.919
-34.653
-34.35
-34.01
-33.634
-33.225
-32.783
-32.311
-31.812
-31.29
-30.749
-30.195
-29.631
-29.063
-28.494
-27.931
-27.378
-26.842
-26.326
-25.833
-25.369
-24.939
-24.552
-24.213
-23.923
-23.678
-23.476
-23.31
-23.174
-23.059
-22.949
-22.826
-22.677
-22.489
-22.256
-21.972
-21.628
-21.208
-20.697
-20.088
-19.38
-18.588
-17.721
-16.791
-15.818
-14.837
-13.901
-13.067
-12.39
-11.918
-11.689
-11.752
-12.149
-12.92
-14.107
-15.749
-17.869
-20.484
-23.615
-27.243
-31.353
-35.948
-40.903
-46.028
-51.069
-55.641
-59.397
-62.132
-63.567
-63.346
-61.425
-57.924
-53.198
-48.116
-43.364
-39.236
-36.16
-34.684
-34.929
-36.664
-39.191
-40.4
-37.934
-30.929
-18.727
-1.552
18.548
41.65
68.612
99.625
136.829
180.185
227.461
275.45
316.939
342.951
343.307
309.506
240.658
143.056
28.927
-88.09
-201.577
-311.779
-419.836
-525.817
-622.462
-696.215
-738.608
-746.676
-724.502
-683.543
-631.844
-573.874
-511.965
-445.177
-374.901
-304.538
-237.712
-178.578
-129.589
-91.481
-64.058
-45.975
-35.619
-31.481
-31.511
-33.662
-36.094
-37.062
-35.746
-32.148
-26.529
-19.421
-11.638
-3.962
2.733
7.548
10.196
10.815
9.715
7.426
4.472
1.319
-1.49
-3.441
-4.293
-3.978
-2.555
-0.19
2.989
6.869
11.292
16.098
21.143
26.308
31.501
36.633
41.607
46.315
50.657
54.565
58.013
60.994
63.526
65.641
67.372
68.772
69.899
70.81
71.564
72.214
72.81
73.405
74.055
74.813
75.731
76.849
78.192
79.777
81.612
83.702
86.046
88.639
91.471
94.535
97.822
101.326
105.039
108.954
113.055
117.329
121.758
126.327
131.018
135.814
140.697
145.649
150.65
155.683
160.73
165.77
170.782
175.743
180.628
185.411
190.066
194.566
198.884
202.995
206.873
210.496
213.842
216.89
219.624
222.024
224.075
225.756
227.048
227.935
228.406
228.455
228.078
227.282
226.075
224.471
222.486
220.135
217.426
214.363
210.944
207.167
203.03
198.539
193.711
188.561
183.104
177.351
171.312
164.988
158.374
151.458
144.226
136.674
128.815
120.678
112.314
103.782
95.152
86.484
77.824
69.217
60.704
52.328
44.13
36.161
28.478
21.148
14.248
7.836
1.952
-3.388
-8.198
-12.507
-16.366
-19.817
-22.893
-25.625
-28.033
-30.139
-31.963
-33.53
-34.872
-36.03
-37.062
-38.015
-38.925
-39.814
-40.681
-41.513
-42.281
-42.962
-43.539
-44.001
-44.347
-44.581
-44.709
-44.741
-44.686
-44.548
-44.318
-43.994
-43.57
-43.052
-42.453
-41.792
-41.093
-40.382
-39.68
-39.004
-38.367
-37.776
-37.235
-36.745
-36.303
-35.908
-35.563
-35.269
-35.029
-34.845
-34.715
-34.635
-34.602
-34.611
-34.655
-34.729
-34.828
-34.949
-35.088
-35.243
-35.414
-35.601
-35.801
-36.013
-36.236
-36.466
-36.702
-36.941
-37.182
-37.421
-37.656
-37.888
-38.115
-38.336
-38.551
-38.76
-38.961
-39.157
-39.345
-39.527
-39.703
-39.872
-40.035
-40.194
-40.347
-40.497
-40.645
-40.791
-40.937
-41.083
-41.232
-41.383
-41.538
-41.697
-41.861
-42.029
-42.202
-42.38
-42.563
-42.752
-42.948
-43.149
-43.357
-43.572
-43.792
-44.018
-44.249
-44.484
-44.722
-44.963
-45.205
-45.448
-45.69
-45.93
-46.167
-46.399
-46.624
-46.842
-47.048
-47.242
-47.421
-47.583
-47.726
-47.849
-47.949
-48.027
-48.081
-48.112
-48.118
-48.102
-48.063
-48.001
-47.918
-47.814
-47.69
-47.548
-47.388
-47.211
-47.019
-46.815
-46.6
-46.377
-46.149
-45.916
-45.683
-45.454
-45.23
-45.014
-44.805
-44.603
-44.407
-44.222
-44.05
-43.893
-43.748
-43.611
-43.481
-43.354
-43.224
-43.08
-42.903
-42.673
-42.375
-42.002
-41.549
-41.015
-40.392
-39.67
-38.842
-37.906
-36.866
-35.73
-34.498
-33.177
-31.786
-30.361
-28.968
-27.677
-26.546
-25.625
-24.949
-24.542
-24.447
-24.72
-25.409
-26.565
-28.223
-30.392
-33.124
-36.503
-40.503
-44.985
-49.668
-54.13
-58.019
-61.124
-63.185
-63.861
-62.999
-60.706
-57.434
-54.026
-51.214
-49.336
-48.692
-49.721
-52.576
-56.939
-61.934
-65.931
-67.279
-64.978
-57.987
-44.89
-24.655
3.346
38.482
78.085
119.341
159.949
198.623
236.016
271.806
303.053
323.794
323.844
293.835
230.801
138.606
28.109
-87.543
-201.824
-314.433
-426.036
-536.473
-637.977
-716.269
-762.225
-772.526
-751.576
-711.487
-660.712
-603.737
-542.471
-475.471
-403.941
-331.34
-261.53
-199.053
-146.732
-105.614
-75.722
-55.79
-44.192
-39.427
-39.446
-42.1
-45.342
-47.166
-46.528
-43.324
-37.783
-30.402
-21.969
-13.286
-5.317
0.868
4.835
6.658
6.607
5.188
2.911
0.215
-2.346
-4.181
-4.986
-4.666
-3.256
-0.935
2.163
5.939
10.242
14.907
19.796
24.789
29.798
34.76
39.593
44.204
48.505
52.413
55.883
58.904
61.483
63.649
65.437
66.889
68.056
69.0
69.777
70.446
71.056
71.652
72.284
73.002
73.852
74.885
76.13
77.61
79.337
81.315
83.548
86.033
88.764
91.728
94.916
98.317
101.922
105.724
109.71
113.867
118.178
122.626
127.194
131.864
136.62
141.44
146.306
151.197
156.093
160.972
165.813
170.591
175.282
179.861
184.304
188.585
192.68
196.566
200.218
203.616
206.739
209.568
212.084
214.272
216.115
217.601
218.718
219.455
219.805
219.76
219.317
218.471
217.223
215.572
213.523
211.08
208.25
205.041
201.466
197.535
193.263
188.666
183.761
178.567
173.105
167.394
161.458
155.32
149.004
142.534
135.936
129.234
122.454
115.621
108.76
101.896
95.053
88.253
81.521
74.878
68.344
61.941
55.688
49.601
43.698
37.993
32.501
27.234
22.202
17.414
12.877
8.598
4.58
0.826
-2.663
-5.887
-8.849
-11.552
-14.001
-16.201
-18.16
-19.887
-21.39
-22.679
-23.765
-24.659
-25.374
-25.92
-26.31
-26.557
-26.673
-26.67
-26.561
-26.357
-26.07
-25.712
-25.292
-24.822
-24.311
-23.768
-23.202
-22.619
-22.027
-21.432
-20.839
-20.254
-19.679
-19.119
-18.575
-18.051
-17.546
-17.063
-16.601
-16.16
-15.741
-15.342
-14.962
-14.6
-14.255
-13.926
-13.611
-13.309
-13.019
-12.739
-12.469
-12.208
-11.955
-11.711
-11.474
-11.246
-11.026
-10.816
-10.617
-10.43
-10.256
-10.098
-9.958
-9.837
-9.738
-9.665
-9.618
-9.601
-9.615
-9.664
-9.749
-9.871
-10.033
-10.235
-10.477
-10.761
-11.087
-11.454
-11.862
-12.31
-12.797
-13.322
-13.881
-14.473
-15.095
-15.743
-16.415
-17.105
-17.81
-18.525
-19.246
-19.967
-20.684
-21.391
-22.082
-22.751
-23.394
-24.005
-24.577
-25.107
-25.59
-26.023
-26.402
-26.725
-26.991
-27.2
-27.352
-27.447
-27.486
-27.471
-27.405
-27.288
-27.125
-26.918
-26.669
-26.385
-26.071
-25.734
-25.379
-25.013
-24.642
-24.273
-23.913
-23.569
-23.247
-22.954
-22.693
-22.472
-22.297
-22.178
-22.121
-22.126
-22.19
-22.309
-22.477
-22.687
-22.928
-23.18
-23.426
-23.65
-23.838
-23.984
-24.078
-24.11
-24.065
-23.928
-23.693
-23.362
-22.945
-22.451
-21.894
-21.293
-20.682
-20.118
-19.65
-19.33
-19.213
-19.337
-19.746
-20.482
-21.571
-23.047
-24.942
-27.274
-30.063
-33.328
-37.05
-41.232
-45.902
-50.952
-56.198
-61.372
-66.051
-69.878
-72.63
-73.982
-73.55
-71.294
-67.369
-62.232
-56.881
-52.025
-48.014
-45.462
-44.896
-46.254
-49.242
-52.866
-55.107
-54.544
-50.22
-40.55
-24.273
-0.761
30.597
68.469
109.289
150.434
189.341
224.322
256.936
286.941
310.883
322.713
311.401
267.974
191.673
88.297
-29.682
-149.968
-268.466
-384.941
-499.198
-607.629
-698.463
-759.207
-783.738
-773.249
-737.675
-688.201
-631.326
-569.495
-500.346
-423.488
-343.557
-266.734
-201.585
-152.566
-117.353
-92.697
-73.899
-58.252
-47.412
-41.764
-40.349
-41.427
-41.777
-39.674
-35.186
-28.711
-20.829
-12.207
-3.522
4.326
10.23
13.683
14.867
14.146
12.016
8.987
5.487
2.066
-0.62
-2.206
-2.59
-1.792
0.016
2.697
6.178
10.318
14.946
19.918
25.093
30.365
35.664
40.892
45.94
50.706
55.085
59.018
62.49
65.498
68.068
70.233
72.027
73.502
74.718
75.732
76.601
77.379
78.113
78.856
79.662
80.584
81.676
82.978
84.512
86.296
88.338
90.635
93.188
95.991
99.033
102.309
105.811
109.527
113.445
117.55
121.824
126.243
130.777
135.387
140.041
144.71
149.374
154.022
158.637
163.204
167.706
172.126
176.454
180.688
184.818
188.832
192.724
196.493
200.153
203.737
207.263
210.733
214.136
217.445
220.637
223.688
226.568
229.244
231.671
233.799
235.589
237.009
238.015
238.557
238.563
237.945
236.632
234.581
231.767
228.185
223.841
218.742
212.906
206.366
199.159
191.33
182.928
173.997
164.601
154.822
144.761
134.548
124.305
114.132
104.114
94.317
84.793
75.597
66.777
58.371
50.423
42.969
36.028
29.623
23.758
18.415
13.562
9.136
5.06
1.277
-2.258
-5.581
-8.71
-11.67
-14.49
-17.194
-19.814
-22.376
-24.897
-27.396
-29.884
-32.359
-34.807
-37.197
-39.479
-41.618
-43.593
-45.388
-47.005
-48.439
-49.682
-50.734
-51.594
-52.261
-52.738
-53.029
-53.133
-53.062
-52.831
-52.464
-51.997
-51.456
-50.862
-50.231
-49.573
-48.898
-48.218
-47.539
-46.863
-46.195
-45.538
-44.9
-44.287
-43.704
-43.152
-42.632
-42.14
-41.675
-41.237
-40.825
-40.441
-40.084
-39.755
-39.455
-39.189
-38.958
-38.762
-38.602
-38.475
-38.379
-38.314
-38.278
-38.268
-38.281
-38.316
-38.369
-38.44
-38.526
-38.625
-38.734
-38.851
-38.973
-39.097
-39.221
-39.341
-39.455
-39.559
-39.651
-39.728
-39.787
-39.824
-39.836
-39.821
-39.774
-39.695
-39.579
-39.424
-39.228
-38.989
-38.707
-38.381
-38.011
-37.599
-37.146
-36.655
-36.128
-35.57
-34.983
-34.372
-33.74
-33.092
-32.432
-31.764
-31.092
-30.421
-29.756
-29.103
-28.467
-27.853
-27.265
-26.711
-26.194
-25.724
-25.302
-24.932
-24.612
-24.347
-24.139
-23.991
-23.907
-23.882
-23.91
-23.989
-24.114
-24.279
-24.47
-24.667
-24.845
-24.989
-25.083
-25.123
-25.103
-25.009
-24.827
-24.548
-24.165
-23.688
-23.124
-22.469
-21.73
-20.924
-20.084
-19.276
-18.571
-18.016
-17.658
-17.535
-17.664
-18.096
-18.881
-20.062
-21.686
-23.776
-26.332
-29.407
-33.075
-37.304
-41.952
-46.729
-51.201
-55.006
-57.907
-59.616
-59.78
-58.22
-55.058
-50.777
-46.273
-42.397
-39.624
-38.364
-39.17
-42.288
-47.405
-53.617
-59.21
-62.306
-61.68
-56.067
-43.778
-23.59
5.231
41.973
83.68
127.269
170.198
211.357
251.87
291.079
325.212
346.977
344.268
307.889
236.506
134.927
15.555
-109.318
-235.632
-361.812
-486.719
-606.808
-709.831
-782.668
-818.726
-817.549
-787.25
-739.469
-681.53
-617.483
-548.279
-473.393
-395.078
-317.215
-244.368
-181.043
-129.637
-90.885
-64.206
-47.809
-39.979
-38.903
-42.194
-47.658
-52.948
-55.973
-56.04
-53.242
-47.778
-40.283
-31.47
-21.936
-13.031
-6.046
-1.301
1.22
1.77
0.914
-1.084
-4.053
-7.186
-9.718
-11.326
-11.777
-11.136
-9.638
-7.258
-3.959
0.016
4.441
9.135
13.893
18.661
23.42
28.05
32.441
36.52
40.205
43.47
46.326
48.77
50.82
52.507
53.861
54.939
55.803
56.512
57.122
57.688
58.252
58.868
59.587
60.461
61.544
62.869
64.457
66.32
68.465
70.897
73.622
76.632
79.911
83.442
87.21
91.198
95.392
99.768
104.29
108.927
113.649
118.424
123.236
128.066
132.892
137.695
142.45
147.143
151.773
156.344
160.851
165.3
169.692
174.033
178.353
182.665
186.977
191.296
195.604
199.879
204.101
208.249
212.297
216.215
219.948
223.424
226.579
229.341
231.645
233.419
234.569
235.013
234.68
233.512
231.482
228.584
224.808
220.152
214.622
208.226
201.005
193.043
184.416
175.213
165.525
155.447
145.109
134.643
124.182
113.839
103.699
93.827
84.29
75.16
66.503
58.393
50.871
43.937
37.59
31.823
26.624
21.971
17.813
14.074
10.673
7.549
4.66
1.981
-0.515
-2.869
-5.123
-7.324
-9.5
-11.657
-13.802
-15.939
-18.076
-20.209
-22.315
-24.35
-26.264
-28.026
-29.621
-31.041
-32.282
-33.335
-34.187
-34.828
-35.264
-35.5
-35.543
-35.398
-35.069
-34.566
-33.911
-33.134
-32.27
-31.344
-30.374
-29.373
-28.353
-27.328
-26.308
-25.301
-24.308
-23.332
-22.379
-21.455
-20.565
-19.714
-18.902
-18.125
-17.382
-16.672
-15.994
-15.347
-14.732
-14.148
-13.596
-13.078
-12.598
-12.157
-11.756
-11.395
-11.072
-10.787
-10.54
-10.33
-10.153
-10.009
-9.896
-9.813
-9.759
-9.732
-9.731
-9.754
-9.799
-9.864
-9.948
-10.047
-10.159
-10.283
-10.415
-10.554
-10.697
-10.842
-10.985
-11.125
-11.259
-11.383
-11.495
-11.591
-11.667
-11.722
-11.753
-11.757
-11.733
-11.679
-11.594
-11.48
-11.337
-11.166
-10.968
-10.746
-10.499
-10.231
-9.943
-9.638
-9.317
-8.983
-8.64
-8.293
-7.946
-7.606
-7.277
-6.964
-6.674
-6.409
-6.178
-5.983
-5.829
-5.719
-5.659
-5.654
-5.713
-5.841
-6.037
-6.298
-6.618
-6.988
-7.399
-7.837
-8.281
-8.713
-9.117
-9.481
-9.797
-10.051
-10.232
-10.325
-10.312
-10.184
-9.944
-9.595
-9.151
-8.628
-8.048
-7.454
-6.902
-6.444
-6.13
-6.006
-6.118
-6.517
-7.259
-8.385
-9.923
-11.894
-14.32
-17.219
-20.604
-24.478
-28.796
-33.508
-38.585
-43.907
-49.27
-54.395
-58.854
-62.245
-64.322
-64.761
-63.198
-59.631
-54.237
-47.471
-40.321
-33.549
-27.621
-23.279
-21.12
-21.095
-22.894
-25.545
-27.176
-26.404
-21.974
-12.058
4.713
29.143
61.008
98.128
137.602
176.871
214.674
251.566
286.601
316.256
333.721
327.673
289.687
218.495
118.561
1.658
-120.554
-244.449
-369.119
-493.7
-614.479
-718.069
-789.352
-820.478
-811.076
-771.396
-715.363
-651.265
-582.539
-507.503
-425.184
-340.112
-259.27
-191.372
-140.865
-105.645
-82.17
-65.325
-52.287
-44.179
-40.775
-41.152
-43.567
-44.745
-43.128
-38.812
-32.19
-24.058
-15.292
-6.548
1.273
7.055
10.368
11.365
10.389
8.001
4.755
1.089
-2.431
-5.157
-6.747
-7.095
-6.222
-4.312
-1.509
2.093
6.34
11.053
16.081
21.282
26.545
31.794
36.93
41.844
46.435
50.603
54.294
57.494
60.205
62.455
64.28
65.72
66.83
67.675
68.316
68.816
69.231
69.611
70.013
70.492
71.105
71.903
72.923
74.186
75.707
77.492
79.545
81.864
84.441
87.262
90.32
93.61
97.131
100.876
104.828
108.964
113.26
117.697
122.251
126.899
131.609
136.356
141.124
145.906
150.698
155.485
160.244
164.942
169.544
174.027
178.378
182.585
186.633
190.504
194.185
197.68
200.998
204.133
207.054
209.706
212.036
214.012
215.612
216.83
217.653
218.061
218.03
217.542
216.589
215.163
213.245
210.802
207.792
204.205
200.069
195.441
190.378
184.921
179.099
172.938
166.474
159.751
152.806
145.671
138.367
130.929
123.401
115.849
108.338
100.914
93.591
86.365
79.232
72.203
65.294
58.518
51.881
45.388
39.053
32.901
26.956
21.234
15.74
10.466
5.404
0.556
-4.067
-8.447
-12.571
-16.433
-20.027
-23.35
-26.394
-29.156
-31.643
-33.869
-35.847
-37.589
-39.104
-40.4
-41.484
-42.37
-43.072
-43.603
-43.978
-44.21
-44.316
-44.311
-44.211
-44.031
-43.785
-43.481
-43.131
-42.746
-42.335
-41.908
-41.474
-41.041
-40.616
-40.206
-39.818
-39.457
-39.128
-38.833
-38.574
-38.353
-38.172
-38.029
-37.925
-37.858
-37.826
-37.829
-37.862
-37.924
-38.011
-38.119
-38.247
-38.389
-38.541
-38.702
-38.865
-39.028
-39.188
-39.341
-39.484
-39.615
-39.732
-39.832
-39.914
-39.978
-40.022
-40.047
-40.051
-40.036
-40.002
-39.951
-39.884
-39.803
-39.709
-39.604
-39.491
-39.371
-39.248
-39.122
-38.996
-38.873
-38.754
-38.64
-38.535
-38.439
-38.353
-38.279
-38.216
-38.166
-38.129
-38.103
-38.089
-38.086
-38.092
-38.105
-38.124
-38.146
-38.167
-38.186
-38.197
-38.198
-38.184
-38.153
-38.1
-38.023
-37.918
-37.783
-37.616
-37.418
-37.184
-36.916
-36.611
-36.269
-35.891
-35.477
-35.026
-34.54
-34.019
-33.469
-32.89
-32.289
-31.668
-31.031
-30.382
-29.727
-29.071
-28.418
-27.774
-27.141
-26.525
-25.933
-25.374
-24.854
-24.375
-23.934
-23.53
-23.159
-22.815
-22.491
-22.169
-21.833
-21.471
-21.07
-20.624
-20.125
-19.563
-18.924
-18.194
-17.366
-16.444
-15.438
-14.358
-13.221
-12.048
-10.876
-9.766
-8.775
-7.961
-7.387
-7.103
-7.166
-7.629
-8.528
-9.909
-11.814
-14.271
-17.306
-20.941
-25.153
-29.938
-35.31
-41.15
-47.259
-53.35
-58.979
-63.757
-67.43
-69.643
-69.988
-68.394
-64.983
-60.18
-54.941
-49.972
-45.666
-42.677
-41.561
-42.293
-44.576
-47.42
-48.92
-47.721
-42.67
-32.02
-14.472
10.822
43.84
82.419
123.598
165.016
205.351
245.112
284.238
319.708
345.041
349.577
323.145
262.148
170.414
58.849
-59.37
-177.751
-296.491
-416.664
-537.636
-650.478
-739.281
-793.533
-809.153
-790.636
-750.757
-698.328
-638.357
-573.13
-501.205
-424.238
-346.258
-271.573
-205.275
-150.482
-108.013
-77.6
-57.667
-46.143
-41.231
-40.66
-42.061
-43.363
-42.724
-39.297
-33.2
-24.916
-15.127
-4.767
5.228
13.888
20.225
23.881
25.033
24.054
21.522
18.02
14.055
10.206
7.06
4.95
3.994
4.181
5.365
7.424
10.266
13.755
17.742
22.094
26.685
31.411
36.191
40.936
45.542
49.915
53.964
57.613
60.828
63.602
65.949
67.901
69.495
70.775
71.796
72.622
73.316
73.937
74.536
75.163
75.867
76.698
77.704
78.928
80.396
82.125
84.121
86.387
88.922
91.72
94.771
98.057
101.566
105.283
109.197
113.295
117.561
121.978
126.525
131.183
135.932
140.751
145.62
150.517
155.419
160.303
165.149
169.932
174.629
179.215
183.664
187.952
192.053
195.944
199.6
202.999
206.118
208.939
211.443
213.612
215.431
216.887
217.966
218.659
218.957
218.852
218.339
217.416
216.08
214.332
212.174
209.611
206.649
203.296
199.563
195.46
191.001
186.203
181.08
175.652
169.938
163.959
157.736
151.292
144.65
137.834
130.869
123.78
116.592
109.329
102.017
94.681
87.343
80.029
72.762
65.565
58.458
51.464
44.603
37.894
31.355
25.004
18.855
12.924
7.223
1.765
-3.441
-8.386
-13.062
-17.465
-21.589
-25.433
-28.994
-32.275
-35.275
-37.999
-40.451
-42.635
-44.559
-46.229
-47.655
-48.845
-49.809
-50.558
-51.104
-51.457
-51.629
-51.634
-51.483
-51.189
-50.765
-50.223
-49.576
-48.836
-48.015
-47.126
-46.179
-45.187
-44.158
-43.104
-42.033
-40.954
-39.876
-38.804
-37.746
-36.708
-35.695
-34.711
-33.76
-32.845
-31.97
-31.135
-30.343
-29.595
-28.891
-28.232
-27.617
-27.046
-26.518
-26.032
-25.586
-25.179
-24.81
-24.475
-24.174
-23.905
-23.665
-23.452
-23.264
-23.1
-22.958
-22.836
-22.732
-22.647
-22.578
-22.527
-22.491
-22.472
-22.469
-22.484
-22.516
-22.567
-22.637
-22.727
-22.839
-22.972
-23.128
-23.308
-23.512
-23.741
-23.995
-24.276
-24.583
-24.917
-25.278
-25.667
-26.082
-26.524
-26.992
-27.486
-28.003
-28.544
-29.105
-29.686
-30.283
-30.894
-31.516
-32.145
-32.778
-33.409
-34.035
-34.649
-35.249
-35.827
-36.379
-36.901
-37.388
-37.835
-38.24
-38.598
-38.909
-39.17
-39.379
-39.534
-39.635
-39.68
-39.668
-39.601
-39.476
-39.294
-39.056
-38.765
-38.424
-38.038
-37.611
-37.146
-36.65
-36.127
-35.583
-35.023
-34.453
-33.877
-33.304
-32.742
-32.203
-31.695
-31.22
-30.78
-30.373
-29.996
-29.641
-29.298
-28.95
-28.583
-28.187
-27.753
-27.28
-26.76
-26.182
-25.535
-24.806
-23.988
-23.085
-22.101
-21.044
-19.934
-18.798
-17.673
-16.61
-15.654
-14.845
-14.217
-13.804
-13.651
-13.8
-14.297
-15.176
-16.454
-18.151
-20.288
-22.884
-25.945
-29.449
-33.347
-37.593
-42.17
-47.0
-51.926
-56.689
-60.931
-64.342
-66.685
-67.7
-67.073
-64.623
-60.454
-54.967
-48.87
-42.848
-37.33
-32.76
-29.693
-28.452
-28.982
-30.626
-32.089
-32.171
-29.36
-22.052
-9.402
9.926
35.043
63.031
93.425
124.95
158.685
199.321
245.838
293.82
335.056
354.362
339.846
287.59
200.856
91.983
-24.252
-139.986
-254.759
-371.905
-493.414
-613.379
-716.959
-788.423
-819.054
-809.747
-771.441
-717.98
-657.706
-592.514
-519.594
-436.59
-347.026
-260.354
-187.324
-134.772
-102.611
-84.453
-72.792
-62.949
-54.055
-47.747
-44.721
-43.732
-42.456
-38.701
-31.925
-22.764
-12.049
-0.841
9.944
19.462
26.723
31.309
33.393
33.366
31.796
29.242
26.177
23.155
20.775
19.395
19.143
20.008
21.848
24.535
27.984
32.063
36.617
41.511
46.614
51.821
57.053
62.222
67.224
71.964
76.349
80.304
83.792
86.805
89.353
91.466
93.181
94.541
95.604
96.434
97.093
97.643
98.137
98.625
99.158
99.786
100.56
101.521
102.701
104.115
105.775
107.684
109.843
112.25
114.896
117.765
120.848
124.132
127.606
131.26
135.081
139.053
143.156
147.374
151.687
156.079
160.528
165.015
169.518
174.017
178.489
182.914
187.269
191.528
195.668
199.663
203.488
207.121
210.537
213.712
216.627
219.259
221.591
223.604
225.284
226.615
227.585
228.182
228.397
228.223
227.653
226.684
225.313
223.541
221.37
218.804
215.847
212.509
208.798
204.726
200.306
195.553
190.483
185.115
179.466
173.558
167.413
161.053
154.502
147.784
140.924
133.947
126.879
119.745
112.571
105.382
98.202
91.056
83.969
76.962
70.058
63.28
56.646
50.178
43.891
37.805
31.933
26.291
20.89
15.742
10.857
6.241
1.903
-2.154
-5.926
-9.413
-12.612
-15.528
-18.161
-20.517
-22.601
-24.421
-25.984
-27.3
-28.379
-29.232
-29.871
-30.309
-30.558
-30.633
-30.546
-30.313
-29.947
-29.462
-28.874
-28.195
-27.441
-26.623
-25.756
-24.852
-23.922
-22.98
-22.034
-21.096
-20.175
-19.279
-18.416
-17.593
-16.816
-16.091
-15.421
-14.811
-14.263
-13.78
-13.362
-13.011
-12.725
-12.505
-12.349
-12.255
-12.221
-12.243
-12.318
-12.443
-12.614
-12.827
-13.076
-13.358
-13.668
-14.001
-14.352
-14.718
-15.092
-15.472
-15.853
-16.23
-16.601
-16.962
-17.31
-17.642
-17.956
-18.249
-18.52
-18.768
-18.99
-19.187
-19.358
-19.504
-19.624
-19.72
-19.792
-19.842
-19.872
-19.884
-19.88
-19.863
-19.836
-19.802
-19.764
-19.725
-19.69
-19.661
-19.643
-19.639
-19.652
-19.686
-19.743
-19.826
-19.938
-20.081
-20.256
-20.466
-20.711
-20.994
-21.315
-21.674
-22.071
-22.507
-22.979
-23.488
-24.031
-24.607
-25.212
-25.844
-26.499
-27.175
-27.866
-28.568
-29.276
-29.985
-30.69
-31.384
-32.062
-32.717
-33.344
-33.937
-34.491
-35.001
-35.463
-35.872
-36.227
-36.525
-36.764
-36.942
-37.057
-37.109
-37.097
-37.021
-36.88
-36.675
-36.407
-36.08
-35.698
-35.263
-34.781
-34.256
-33.693
-33.097
-32.476
-31.836
-31.18
-30.516
-29.848
-29.186
-28.542
-27.921
-27.328
-26.761
-26.222
-25.707
-25.212
-24.731
-24.246
-23.743
-23.21
-22.635
-22.015
-21.343
-20.611
-19.807
-18.918
-17.94
-16.88
-15.75
-14.565
-13.341
-12.103
-10.89
-9.767
-8.793
-8.027
-7.533
-7.357
-7.555
-8.182
-9.276
-10.883
-13.04
-15.771
-19.089
-23.011
-27.521
-32.604
-38.259
-44.356
-50.691
-56.987
-62.842
-67.893
-71.877
-74.457
-75.257
-74.211
-71.448
-67.366
-62.809
-58.408
-54.565
-51.851
-50.682
-51.1
-52.958
-55.344
-56.687
-55.446
-49.564
-37.65
-19.349
4.798
32.005
60.433
90.309
122.528
160.365
205.176
253.283
298.358
330.058
336.428
309.491
247.158
154.593
43.289
-74.51
-192.357
-310.359
-430.638
-552.76
-668.42
-761.99
-820.148
-836.989
-816.09
-769.734
-709.604
-643.037
-572.491
-496.642
-416.83
-336.595
-261.694
-198.716
-149.192
-112.683
-87.302
-69.322
-58.006
-52.834
-51.889
-53.798
-55.981
-55.952
-53.086
-47.464
-39.591
-30.279
-20.363
-10.653
-2.133
4.201
8.033
9.519
8.992
7.005
4.084
0.677
-2.655
-5.337
-7.06
-7.705
-7.292
-5.968
-3.851
-1.031
2.356
6.162
10.255
14.522
18.875
23.246
27.562
31.738
35.688
39.336
42.614
45.487
47.952
50.022
51.728
53.109
54.209
55.081
55.79
56.395
56.952
57.513
58.12
58.82
59.659
60.683
61.932
63.436
65.209
67.261
69.594
72.208
75.099
78.257
81.666
85.312
89.18
93.259
97.534
101.991
106.608
111.366
116.241
121.216
126.268
131.377
136.52
141.678
146.83
151.954
157.029
162.031
166.934
171.71
176.334
180.779
185.017
189.024
192.773
196.243
199.416
202.273
204.795
206.961
208.752
210.149
211.144
211.728
211.894
211.642
210.975
209.907
208.461
206.654
204.496
201.992
199.143
195.949
192.416
188.549
184.35
179.825
174.975
169.806
164.335
158.564
152.491
146.098
139.352
132.238
124.766
116.954
108.837
100.458
91.861
83.106
74.268
65.415
56.611
47.91
39.347
30.976
22.862
15.083
7.735
0.89
-5.41
-11.134
-16.264
-20.805
-24.766
-28.189
-31.143
-33.683
-35.851
-37.683
-39.192
-40.412
-41.386
-42.167
-42.817
-43.386
-43.905
-44.404
-44.908
-45.425
-45.953
-46.471
-46.93
-47.3
-47.565
-47.717
-47.763
-47.703
-47.532
-47.248
-46.847
-46.331
-45.704
-44.969
-44.128
-43.191
-42.174
-41.104
-40.017
-38.941
-37.896
-36.896
-35.95
-35.067
-34.255
-33.517
-32.853
-32.263
-31.747
-31.308
-30.95
-30.674
-30.477
-30.355
-30.301
-30.31
-30.378
-30.499
-30.67
-30.886
-31.143
-31.44
-31.774
-32.144
-32.545
-32.974
-33.426
-33.894
-34.375
-34.864
-35.354
-35.841
-36.321
-36.789
-37.243
-37.679
-38.094
-38.485
-38.851
-39.187
-39.494
-39.769
-40.011
-40.218
-40.39
-40.526
-40.627
-40.692
-40.721
-40.716
-40.676
-40.604
-40.501
-40.368
-40.206
-40.018
-39.806
-39.572
-39.319
-39.049
-38.766
-38.472
-38.17
-37.864
-37.554
-37.244
-36.936
-36.631
-36.332
-36.039
-35.756
-35.481
-35.217
-34.963
-34.722
-34.492
-34.273
-34.065
-33.867
-33.677
-33.496
-33.322
-33.152
-32.984
-32.817
-32.649
-32.476
-32.297
-32.109
-31.908
-31.693
-31.462
-31.212
-30.942
-30.65
-30.337
-30.001
-29.644
-29.265
-28.866
-28.448
-28.012
-27.56
-27.094
-26.614
-26.123
-25.623
-25.116
-24.606
-24.097
-23.592
-23.093
-22.605
-22.133
-21.683
-21.257
-20.854
-20.477
-20.126
-19.805
-19.522
-19.277
-19.069
-18.897
-18.756
-18.645
-18.56
-18.486
-18.402
-18.288
-18.124
-17.9
-17.615
-17.257
-16.817
-16.285
-15.644
-14.897
-14.053
-13.115
-12.087
-10.983
-9.827
-8.665
-7.575
-6.628
-5.884
-5.406
-5.229
-5.393
-5.946
-6.941
-8.425
-10.431
-12.983
-16.074
-19.718
-23.953
-28.699
-33.77
-38.882
-43.619
-47.605
-50.639
-52.455
-52.696
-51.34
-48.525
-44.592
-40.416
-36.683
-33.636
-31.663
-31.263
-32.419
-34.77
-37.669
-39.067
-36.52
-29.203
-16.522
1.399
21.731
43.723
68.941
98.094
134.928
181.602
233.948
285.838
327.308
345.856
333.592
287.854
211.829
115.962
11.978
-92.304
-194.333
-297.348
-403.8
-510.711
-608.634
-683.064
-724.319
-730.258
-706.044
-663.328
-610.724
-552.726
-491.091
-424.654
-354.613
-284.256
-217.417
-158.383
-109.572
-71.697
-44.493
-26.536
-16.228
-12.097
-12.107
-14.264
-16.776
-17.903
-16.838
-13.602
-8.432
-1.834
5.414
12.593
18.87
23.344
25.719
26.132
24.884
22.495
19.478
16.262
13.372
11.322
10.359
10.554
11.85
14.075
17.099
20.812
25.064
29.695
34.566
39.558
44.579
49.545
54.361
58.924
63.134
66.925
70.269
73.157
75.61
77.66
79.343
80.71
81.82
82.729
83.491
84.159
84.778
85.398
86.071
86.842
87.762
88.868
90.184
91.727
93.507
95.525
97.784
100.28
103.005
105.952
109.113
112.477
116.039
119.789
123.718
127.819
132.077
136.477
141.0
145.632
150.349
155.127
159.935
164.732
169.487
174.173
178.77
183.262
187.634
191.868
195.948
199.859
203.588
207.126
210.465
213.588
216.493
219.183
221.674
224.005
226.199
228.26
230.184
231.954
233.549
234.95
236.134
237.06
237.695
238.007
237.967
237.558
236.751
235.505
233.769
231.463
228.52
224.9
220.577
215.539
209.79
203.339
196.198
188.42
180.052
171.136
161.73
151.879
141.641
131.097
120.341
109.493
98.68
88.022
77.619
67.563
57.928
48.785
40.204
32.221
24.862
18.157
12.114
6.743
2.048
-1.99
-5.41
-8.266
-10.637
-12.613
-14.262
-15.65
-16.834
-17.865
-18.807
-19.703
-20.581
-21.468
-22.378
-23.326
-24.327
-25.39
-26.502
-27.645
-28.786
-29.878
-30.894
-31.81
-32.608
-33.272
-33.786
-34.135
-34.319
-34.347
-34.226
-33.963
-33.564
-33.035
-32.391
-31.653
-30.844
-29.991
-29.114
-28.227
-27.346
-26.479
-25.636
-24.827
-24.053
-23.31
-22.599
-21.919
-21.271
-20.658
-20.079
-19.528
-19.005
-18.505
-18.027
-17.57
-17.133
-16.715
-16.317
-15.939
-15.585
-15.257
-14.957
-14.685
-14.444
-14.233
-14.055
-13.91
-13.8
-13.725
-13.687
-13.687
-13.726
-13.807
-13.93
-14.097
-14.308
-14.564
-14.867
-15.216
-15.613
-16.057
-16.548
-17.086
-17.671
-18.301
-18.975
-19.692
-20.449
-21.245
-22.075
-22.939
-23.832
-24.751
-25.693
-26.655
-27.632
-28.621
-29.617
-30.615
-31.612
-32.603
-33.582
-34.545
-35.487
-36.402
-37.285
-38.131
-38.936
-39.695
-40.403
-41.054
-41.646
-42.175
-42.636
-43.026
-43.343
-43.585
-43.75
-43.837
-43.846
-43.778
-43.634
-43.417
-43.128
-42.771
-42.347
-41.862
-41.317
-40.718
-40.067
-39.37
-38.632
-37.859
-37.059
-36.238
-35.404
-34.565
-33.726
-32.897
-32.083
-31.292
-30.531
-29.804
-29.119
-28.482
-27.906
-27.396
-26.955
-26.582
-26.272
-26.019
-25.817
-25.653
-25.508
-25.365
-25.208
-25.026
-24.809
-24.545
-24.224
-23.826
-23.333
-22.734
-22.029
-21.225
-20.338
-19.379
-18.376
-17.373
-16.43
-15.611
-14.971
-14.556
-14.42
-14.624
-15.227
-16.292
-17.855
-19.94
-22.578
-25.779
-29.556
-33.899
-38.739
-43.996
-49.608
-55.43
-61.259
-66.812
-71.674
-75.5
-78.061
-79.034
-78.16
-75.397
-70.841
-65.017
-58.7
-52.343
-46.435
-41.651
-38.375
-36.775
-36.069
-34.117
-29.236
-20.71
-9.373
2.822
15.925
31.7
53.381
84.415
124.535
171.184
220.667
267.311
305.568
328.592
326.739
292.677
225.095
129.408
17.859
-96.46
-207.56
-315.957
-423.57
-530.558
-629.231
-705.591
-750.215
-759.757
-738.636
-698.521
-647.847
-591.179
-530.378
-464.229
-393.997
-323.06
-255.27
-194.991
-144.792
-105.518
-77.029
-57.967
-46.662
-41.571
-40.635
-41.81
-43.281
-43.322
-41.104
-36.655
-30.286
-22.561
-14.312
-6.319
0.573
5.488
8.148
8.705
7.484
5.028
1.881
-1.488
-4.528
-6.72
-7.815
-7.736
-6.53
-4.356
-1.336
2.418
6.752
11.503
16.521
21.687
26.903
32.079
37.112
41.887
46.298
50.274
53.785
56.824
59.404
61.555
63.31
64.719
65.845
66.745
67.477
68.095
68.648
69.192
69.785
70.485
71.348
72.417
73.72
75.278
77.102
79.197
81.564
84.194
87.076
90.202
93.568
97.172
101.009
105.067
109.333
113.786
118.404
123.159
128.014
132.933
137.887
142.851
147.807
152.744
157.652
162.518
167.333
172.075
176.725
181.266
185.676
189.938
194.046
198.002
201.823
205.538
209.151
212.658
216.048
219.284
222.325
225.123
227.611
229.743
231.489
232.815
233.701
234.132
234.073
233.493
232.348
230.574
228.128
224.982
221.117
216.556
211.342
205.534
199.221
192.475
185.342
177.871
170.108
162.082
153.84
145.423
136.867
128.252
119.67
111.191
102.891
94.806
86.941
79.3
71.86
64.61
57.561
50.719
44.088
37.693
31.562
25.726
20.23
15.072
10.214
5.631
1.292
-2.811
-6.666
-10.265
-13.603
-16.667
-19.454
-21.962
-24.181
-26.126
-27.826
-29.314
-30.634
-31.803
-32.805
-33.634
-34.285
-34.761
-35.076
-35.24
-35.252
-35.124
-34.876
-34.527
-34.1
-33.606
-33.044
-32.414
-31.713
-30.947
-30.139
-29.304
-28.456
-27.607
-26.768
-25.95
-25.171
-24.438
-23.754
-23.117
-22.528
-21.988
-21.503
-21.076
-20.709
-20.401
-20.151
-19.957
-19.817
-19.73
-19.692
-19.7
-19.748
-19.833
-19.955
-20.112
-20.301
-20.521
-20.767
-21.039
-21.333
-21.648
-21.981
-22.328
-22.686
-23.053
-23.426
-23.803
-24.182
-24.559
-24.932
-25.301
-25.662
-26.016
-26.361
-26.695
-27.018
-27.33
-27.631
-27.919
-28.196
-28.461
-28.714
-28.955
-29.186
-29.407
-29.617
-29.818
-30.01
-30.194
-30.37
-30.538
-30.7
-30.855
-31.004
-31.148
-31.288
-31.423
-31.554
-31.682
-31.808
-31.931
-32.054
-32.175
-32.295
-32.415
-32.533
-32.65
-32.765
-32.877
-32.985
-33.089
-33.186
-33.276
-33.357
-33.426
-33.483
-33.525
-33.55
-33.556
-33.541
-33.502
-33.439
-33.348
-33.229
-33.081
-32.903
-32.696
-32.459
-32.194
-31.9
-31.579
-31.231
-30.859
-30.464
-30.046
-29.607
-29.149
-28.674
-28.185
-27.685
-27.179
-26.669
-26.159
-25.654
-25.16
-24.68
-24.218
-23.776
-23.354
-22.956
-22.587
-22.253
-21.957
-21.698
-21.474
-21.284
-21.124
-20.989
-20.867
-20.737
-20.579
-20.378
-20.122
-19.81
-19.436
-18.992
-18.468
-17.853
-17.142
-16.342
-15.46
-14.497
-13.464
-12.384
-11.295
-10.27
-9.385
-8.701
-8.272
-8.138
-8.324
-8.878
-9.857
-11.31
-13.285
-15.811
-18.891
-22.568
-26.91
-31.894
-37.381
-43.094
-48.622
-53.617
-57.857
-61.079
-62.935
-63.206
-61.923
-59.452
-56.538
-53.879
-51.808
-50.587
-50.665
-52.313
-55.382
-59.205
-62.329
-63.163
-60.792
-54.32
-42.367
-23.777
2.362
35.589
73.207
112.511
151.481
190.07
230.023
270.292
307.062
331.829
332.257
301.334
237.106
145.268
39.907
-69.167
-176.22
-280.531
-388.325
-499.722
-608.567
-704.588
-773.032
-806.131
-804.864
-776.31
-731.268
-676.597
-614.307
-542.536
-461.068
-375.189
-292.059
-221.004
-166.797
-126.853
-97.974
-75.663
-57.471
-45.259
-39.511
-39.252
-42.664
-46.393
-48.084
-47.151
-43.698
-38.243
-31.457
-24.096
-16.953
-10.934
-6.858
-4.879
-4.76
-6.157
-8.54
-11.396
-14.275
-16.638
-18.007
-18.2
-17.201
-15.105
-12.098
-8.32
-3.89
1.024
6.255
11.657
17.103
22.501
27.77
32.815
37.541
41.854
45.696
49.051
51.924
54.345
56.349
57.976
59.279
60.319
61.154
61.844
62.44
62.99
63.543
64.152
64.869
65.744
66.814
68.103
69.625
71.388
73.395
75.642
78.122
80.822
83.733
86.851
90.172
93.694
97.405
101.292
105.338
109.519
113.811
118.178
122.583
127.0
131.402
135.773
140.105
144.387
148.609
152.764
156.834
160.803
164.659
168.385
171.965
175.4
178.694
181.871
184.963
187.982
190.926
193.785
196.525
199.112
201.503
203.635
205.463
206.948
208.053
208.758
209.043
208.871
208.204
206.987
205.154
202.668
199.509
195.668
191.169
186.051
180.365
174.2
167.632
160.721
153.527
146.09
138.451
130.665
122.787
114.882
107.029
99.289
91.712
84.347
77.218
70.335
63.694
57.266
51.023
44.958
39.063
33.345
27.815
22.474
17.327
12.378
7.621
3.053
-1.328
-5.531
-9.551
-13.379
-17.002
-20.396
-23.537
-26.415
-29.022
-31.356
-33.423
-35.226
-36.774
-38.08
-39.156
-40.011
-40.656
-41.098
-41.347
-41.418
-41.324
-41.082
-40.711
-40.225
-39.639
-38.968
-38.226
-37.424
-36.573
-35.681
-34.756
-33.809
-32.847
-31.88
-30.916
-29.964
-29.031
-28.124
-27.249
-26.412
-25.616
-24.866
-24.163
-23.51
-22.907
-22.357
-21.858
-21.411
-21.015
-20.67
-20.373
-20.125
-19.921
-19.76
-19.639
-19.556
-19.507
-19.489
-19.499
-19.534
-19.591
-19.668
-19.762
-19.87
-19.989
-20.118
-20.253
-20.392
-20.534
-20.674
-20.812
-20.946
-21.075
-21.197
-21.312
-21.419
-21.519
-21.61
-21.694
-21.77
-21.839
-21.9
-21.956
-22.005
-22.05
-22.091
-22.129
-22.167
-22.206
-22.247
-22.291
-22.342
-22.4
-22.466
-22.543
-22.63
-22.73
-22.843
-22.972
-23.116
-23.276
-23.454
-23.649
-23.861
-24.092
-24.339
-24.602
-24.879
-25.171
-25.474
-25.785
-26.104
-26.427
-26.755
-27.084
-27.412
-27.737
-28.056
-28.367
-28.667
-28.952
-29.214
-29.449
-29.651
-29.815
-29.937
-30.014
-30.041
-30.013
-29.93
-29.79
-29.595
-29.341
-29.022
-28.631
-28.167
-27.634
-27.043
-26.401
-25.713
-24.985
-24.228
-23.455
-22.678
-21.898
-21.107
-20.293
-19.453
-18.593
-17.73
-16.878
-16.043
-15.214
-14.384
-13.548
-12.708
-11.861
-10.989
-10.06
-9.06
-7.998
-6.907
-5.819
-4.747
-3.679
-2.602
-1.504
-0.389
0.725
1.826
2.919
3.999
5.06
6.067
6.966
7.729
8.365
8.9
9.362
9.748
10.015
10.126
10.053
9.762
9.237
8.447
7.35
5.933
4.179
2.083
-0.34
-3.106
-6.251
-9.793
-13.777
-18.261
-23.184
-28.403
-33.68
-38.635
-42.939
-46.378
-48.676
-49.489
-48.635
-46.196
-42.602
-38.66
-35.111
-32.319
-30.594
-30.427
-32.097
-35.417
-39.635
-43.2
-44.435
-42.363
-35.983
-23.836
-4.803
21.984
56.195
95.192
136.154
176.969
216.589
256.172
296.066
333.188
360.788
367.586
342.506
281.421
188.317
74.791
-45.215
-164.272
-282.43
-402.206
-523.751
-639.269
-733.356
-792.504
-810.801
-791.293
-745.677
-686.41
-621.191
-553.676
-483.88
-411.172
-337.625
-267.015
-203.449
-150.512
-109.55
-80.017
-60.391
-48.639
-42.959
-41.33
-41.635
-41.952
-40.564
-36.705
-30.496
-22.356
-12.889
-2.948
6.625
14.928
21.002
24.527
25.693
24.85
22.554
19.372
15.783
12.36
9.704
8.123
7.714
8.461
10.199
12.806
16.194
20.216
24.711
29.537
34.559
39.673
44.802
49.843
54.685
59.223
63.349
67.006
70.173
72.851
75.064
76.845
78.233
79.283
80.059
80.625
81.045
81.375
81.665
81.971
82.351
82.86
83.553
84.47
85.632
87.055
88.748
90.714
92.952
95.456
98.212
101.21
104.44
107.892
111.56
115.43
119.487
123.715
128.096
132.611
137.243
141.972
146.779
151.641
156.539
161.45
166.353
171.224
176.037
180.767
185.387
189.87
194.191
198.323
202.24
205.918
209.333
212.464
215.289
217.79
219.949
221.749
223.177
224.218
224.862
225.101
224.925
224.33
223.313
221.872
220.008
217.723
215.023
211.914
208.406
204.509
200.237
195.604
190.626
185.322
179.711
173.814
167.653
161.251
154.633
147.823
140.848
133.734
126.507
119.194
111.821
104.415
97.002
89.607
82.255
74.971
67.779
60.7
53.758
46.972
40.363
33.948
27.745
21.768
16.032
10.549
5.328
0.381
-4.288
-8.671
-12.765
-16.568
-20.079
-23.299
-26.229
-28.875
-31.242
-33.335
-35.163
-36.735
-38.06
-39.15
-40.016
-40.67
-41.124
-41.393
-41.488
-41.425
-41.216
-40.876
-40.419
-39.857
-39.205
-38.477
-37.683
-36.838
-35.952
-35.037
-34.102
-33.159
-32.215
-31.279
-30.358
-29.46
-28.589
-27.752
-26.953
-26.195
-25.482
-24.814
-24.195
-23.625
-23.104
-22.632
-22.209
-21.834
-21.506
-21.223
-20.983
-20.785
-20.627
-20.505
-20.419
-20.364
-20.339
-20.341
-20.368
-20.418
-20.488
-20.576
-20.68
-20.798
-20.93
-21.072
-21.225
-21.386
-21.555
-21.731
-21.913
-22.1
-22.293
-22.491
-22.693
-22.9
-23.111
-23.326
-23.545
-23.767
-23.993
-24.222
-24.454
-24.688
-24.925
-25.163
-25.403
-25.643
-25.884
-26.125
-26.365
-26.604
-26.841
-27.075
-27.307
-27.535
-27.76
-27.981
-28.197
-28.409
-28.616
-28.819
-29.016
-29.21
-29.399
-29.585
-29.768
-29.948
-30.127
-30.305
-30.484
-30.665
-30.848
-31.035
-31.227
-31.425
-31.63
-31.843
-32.064
-32.295
-32.536
-32.788
-33.052
-33.327
-33.614
-33.913
-34.223
-34.544
-34.874
-35.212
-35.557
-35.905
-36.257
-36.608
-36.956
-37.299
-37.632
-37.952
-38.255
-38.537
-38.793
-39.02
-39.213
-39.369
-39.483
-39.553
-39.575
-39.548
-39.471
-39.342
-39.161
-38.926
-38.638
-38.297
-37.903
-37.456
-36.958
-36.409
-35.812
-35.17
-34.488
-33.771
-33.023
-32.248
-31.453
-30.643
-29.826
-29.006
-28.189
-27.38
-26.584
-25.811
-25.071
-24.371
-23.714
-23.098
-22.522
-21.983
-21.475
-20.988
-20.503
-20.005
-19.477
-18.906
-18.287
-17.611
-16.866
-16.04
-15.115
-14.086
-12.956
-11.736
-10.436
-9.073
-7.671
-6.269
-4.934
-3.727
-2.71
-1.947
-1.489
-1.392
-1.711
-2.491
-3.776
-5.608
-8.01
-10.998
-14.589
-18.764
-23.508
-28.818
-34.568
-40.55
-46.495
-52.004
-56.714
-60.37
-62.646
-63.141
-61.753
-58.582
-53.977
-48.742
-43.497
-38.592
-34.534
-31.818
-30.613
-30.771
-31.473
-31.267
-28.485
-21.69
-10.109
7.299
30.169
57.098
88.016
121.428
157.055
196.422
238.442
281.798
322.434
351.641
359.565
336.326
277.695
187.917
77.524
-40.028
-157.444
-275.004
-394.303
-515.403
-629.575
-720.588
-777.345
-795.436
-779.856
-743.811
-696.111
-641.69
-582.342
-515.835
-443.44
-368.652
-295.167
-228.337
-171.7
-126.361
-92.511
-68.901
-53.616
-45.377
-42.516
-42.633
-43.487
-43.019
-40.018
-34.483
-26.865
-17.593
-7.338
2.982
12.354
19.639
24.272
26.384
26.323
24.601
21.744
18.213
14.577
11.471
9.283
8.172
8.157
9.104
10.897
13.463
16.674
20.384
24.466
28.792
33.265
37.812
42.347
46.784
51.041
55.032
58.69
61.962
64.82
67.27
69.331
71.036
72.425
73.543
74.444
75.192
75.847
76.464
77.091
77.771
78.548
79.468
80.57
81.893
83.46
85.283
87.371
89.727
92.347
95.229
98.361
101.727
105.311
109.102
113.084
117.246
121.57
126.037
130.629
135.326
140.108
144.958
149.856
154.781
159.713
164.631
169.513
174.338
179.08
183.713
188.212
192.552
196.707
200.655
204.373
207.837
211.03
213.931
216.522
218.783
220.691
222.228
223.383
224.147
224.52
224.507
224.11
223.337
222.2
220.709
218.867
216.674
214.121
211.197
207.901
204.24
200.233
195.897
191.241
186.27
180.989
175.392
169.48
163.248
156.678
149.766
142.529
135.001
127.242
119.324
111.301
103.218
95.113
87.015
78.968
71.016
63.196
55.559
48.154
41.036
34.285
27.963
22.097
16.695
11.732
7.159
2.947
-0.925
-4.477
-7.722
-10.678
-13.364
-15.789
-17.966
-19.921
-21.684
-23.314
-24.856
-26.333
-27.751
-29.095
-30.332
-31.445
-32.423
-33.251
-33.925
-34.443
-34.807
-35.03
-35.13
-35.112
-34.979
-34.72
-34.327
-33.805
-33.164
-32.423
-31.61
-30.747
-29.851
-28.945
-28.048
-27.17
-26.321
-25.504
-24.717
-23.961
-23.242
-22.563
-21.933
-21.354
-20.829
-20.356
-19.936
-19.565
-19.243
-18.965
-18.728
-18.529
-18.367
-18.243
-18.157
-18.109
-18.098
-18.124
-18.185
-18.279
-18.405
-18.559
-18.739
-18.941
-19.163
-19.403
-19.659
-19.929
-20.21
-20.5
-20.797
-21.1
-21.407
-21.716
-22.026
-22.334
-22.639
-22.941
-23.238
-23.529
-23.812
-24.088
-24.356
-24.614
-24.861
-25.098
-25.323
-25.535
-25.734
-25.919
-26.09
-26.247
-26.391
-26.521
-26.638
-26.745
-26.84
-26.927
-27.007
-27.08
-27.149
-27.216
-27.283
-27.352
-27.425
-27.504
-27.593
-27.693
-27.807
-27.937
-28.084
-28.25
-28.438
-28.648
-28.881
-29.14
-29.424
-29.734
-30.072
-30.437
-30.83
-31.25
-31.698
-32.171
-32.67
-33.191
-33.735
-34.297
-34.876
-35.468
-36.07
-36.679
-37.29
-37.899
-38.501
-39.091
-39.663
-40.212
-40.732
-41.219
-41.665
-42.067
-42.421
-42.72
-42.963
-43.146
-43.266
-43.323
-43.315
-43.242
-43.102
-42.896
-42.625
-42.289
-41.889
-41.426
-40.904
-40.324
-39.691
-39.011
-38.289
-37.53
-36.74
-35.926
-35.093
-34.25
-33.404
-32.56
-31.724
-30.903
-30.106
-29.346
-28.629
-27.956
-27.329
-26.745
-26.198
-25.685
-25.193
-24.706
-24.208
-23.687
-23.131
-22.539
-21.904
-21.218
-20.473
-19.654
-18.757
-17.788
-16.755
-15.674
-14.565
-13.45
-12.371
-11.392
-10.567
-9.951
-9.6
-9.55
-9.846
-10.529
-11.624
-13.166
-15.185
-17.699
-20.733
-24.291
-28.351
-32.906
-37.95
-43.391
-49.068
-54.707
-59.917
-64.375
-67.818
-69.947
-70.41
-68.975
-65.704
-61.024
-55.732
-50.562
-45.956
-42.502
-40.924
-41.665
-44.779
-48.975
-52.197
-53.389
-51.517
-46.563
-38.317
-23.523
-0.092
33.013
75.447
122.152
168.633
212.652
252.644
287.783
315.316
327.752
314.848
270.474
194.02
92.407
-21.044
-136.511
-249.614
-361.484
-475.898
-590.976
-698.204
-783.699
-834.103
-844.708
-819.476
-768.708
-704.358
-633.131
-556.2
-474.387
-389.756
-307.18
-234.915
-177.471
-134.41
-103.608
-80.62
-63.068
-51.885
-46.75
-46.472
-48.842
-50.299
-48.987
-44.716
-37.739
-28.843
-18.873
-8.66
0.639
7.767
12.132
13.8
13.104
10.616
6.909
2.496
-1.97
-5.778
-8.496
-9.965
-10.177
-9.283
-7.417
-4.659
-1.152
2.936
7.456
12.272
17.277
22.385
27.494
32.488
37.257
41.697
45.724
49.296
52.4
55.046
57.264
59.092
60.574
61.764
62.723
63.512
64.19
64.814
65.434
66.107
66.885
67.823
68.969
70.356
72.003
73.92
76.108
78.565
81.289
84.273
87.51
90.99
94.701
98.629
102.763
107.084
111.57
116.19
120.902
125.671
130.466
135.269
140.066
144.843
149.584
154.273
158.894
163.444
167.919
172.312
176.611
180.805
184.895
188.897
192.846
196.767
200.666
204.529
208.329
212.042
215.635
219.072
222.3
225.248
227.851
230.061
231.842
233.16
233.971
234.206
233.785
232.645
230.753
228.099
224.69
220.535
215.658
210.107
203.956
197.304
190.236
182.818
175.102
167.14
158.997
150.756
142.508
134.324
126.259
118.357
110.654
103.186
95.974
89.02
82.298
75.772
69.417
63.226
57.203
51.349
45.663
40.133
34.751
29.517
24.436
19.511
14.745
10.136
5.689
1.421
-2.643
-6.476
-10.06
-13.385
-16.449
-19.252
-21.792
-24.072
-26.1
-27.887
-29.446
-30.788
-31.92
-32.851
-33.593
-34.158
-34.565
-34.828
-34.963
-34.982
-34.899
-34.726
-34.475
-34.155
-33.776
-33.343
-32.866
-32.351
-31.808
-31.246
-30.671
-30.092
-29.514
-28.946
-28.393
-27.859
-27.349
-26.867
-26.415
-25.995
-25.609
-25.258
-24.943
-24.665
-24.423
-24.217
-24.045
-23.908
-23.804
-23.73
-23.687
-23.671
-23.683
-23.719
-23.778
-23.86
-23.961
-24.082
-24.22
-24.374
-24.542
-24.722
-24.913
-25.113
-25.321
-25.534
-25.75
-25.97
-26.19
-26.41
-26.629
-26.846
-27.059
-27.268
-27.473
-27.673
-27.869
-28.06
-28.247
-28.43
-28.61
-28.788
-28.964
-29.138
-29.311
-29.484
-29.657
-29.831
-30.008
-30.188
-30.373
-30.564
-30.764
-30.972
-31.192
-31.424
-31.669
-31.93
-32.208
-32.505
-32.822
-33.16
-33.522
-33.908
-34.32
-34.757
-35.222
-35.713
-36.23
-36.771
-37.336
-37.923
-38.528
-39.15
-39.788
-40.439
-41.103
-41.778
-42.461
-43.15
-43.844
-44.537
-45.225
-45.901
-46.557
-47.188
-47.786
-48.347
-48.865
-49.334
-49.751
-50.113
-50.416
-50.657
-50.832
-50.929
-50.942
-50.871
-50.718
-50.488
-50.194
-49.846
-49.451
-49.027
-48.584
-48.127
-47.658
-47.165
-46.633
-46.058
-45.443
-44.798
-44.136
-43.454
-42.745
-42.005
-41.215
-40.362
-39.435
-38.397
-37.225
-35.914
-34.472
-32.928
-31.328
-29.691
-28.022
-26.322
-24.587
-22.829
-21.066
-19.308
-17.576
-15.89
-14.274
-12.782
-11.462
-10.336
-9.406
-8.657
-8.054
-7.589
-7.285
-7.163
-7.245
-7.552
-8.102
-8.919
-10.026
-11.443
-13.16
-15.162
-17.434
-19.976
-22.809
-25.951
-29.412
-33.197
-37.302
-41.656
-46.104
-50.407
-54.233
-57.284
-59.332
-60.135
-59.416
-57.04
-53.144
-48.126
-42.631
-37.299
-32.527
-28.607
-25.914
-24.757
-25.02
-25.986
-26.574
-25.073
-19.435
-8.898
6.961
27.901
51.159
75.673
102.554
132.571
169.279
214.671
264.986
314.34
353.196
369.579
355.244
307.529
229.836
131.883
25.442
-82.593
-191.062
-301.325
-414.083
-523.958
-618.826
-686.575
-720.42
-720.624
-694.883
-653.237
-602.237
-545.519
-483.892
-416.906
-346.624
-276.581
-210.841
-153.614
-107.187
-71.885
-47.058
-31.248
-22.805
-20.014
-20.69
-22.476
-23.254
-21.798
-17.806
-11.469
-3.279
6.096
15.802
24.751
31.792
36.351
38.44
38.327
36.513
33.513
29.793
25.957
22.664
20.325
19.104
19.024
19.95
21.767
24.407
27.74
31.61
35.881
40.423
45.137
49.951
54.773
59.497
64.022
68.245
72.085
75.501
78.477
81.017
83.148
84.901
86.312
87.433
88.321
89.031
89.616
90.126
90.607
91.109
91.684
92.386
93.26
94.341
95.648
97.196
98.99
101.032
103.318
105.841
108.59
111.559
114.746
118.145
121.75
125.549
129.526
133.659
137.922
142.281
146.701
151.155
155.617
160.071
164.509
168.921
173.298
177.633
181.91
186.111
190.225
194.233
198.121
201.886
205.532
209.082
212.565
215.992
219.359
222.656
225.846
228.892
231.751
234.357
236.664
238.631
240.219
241.404
242.166
242.464
242.259
241.492
240.095
238.029
235.271
231.809
227.667
222.879
217.497
211.606
205.279
198.577
191.557
184.26
176.724
169.002
161.153
153.237
145.335
137.507
129.805
122.278
114.95
107.833
100.923
94.192
87.615
81.183
74.894
68.753
62.774
56.961
51.32
45.858
40.57
35.457
30.517
25.748
21.153
16.744
12.539
8.562
4.839
1.383
-1.796
-4.695
-7.317
-9.664
-11.742
-13.564
-15.14
-16.478
-17.588
-18.477
-19.154
-19.632
-19.926
-20.051
-20.025
-19.864
-19.581
-19.192
-18.71
-18.146
-17.513
-16.818
-16.071
-15.281
-14.459
-13.612
-12.752
-11.885
-11.02
-10.165
-9.326
-8.51
-7.72
-6.961
-6.236
-5.547
-4.896
-4.285
-3.713
-3.181
-2.689
-2.235
-1.818
-1.437
-1.09
-0.774
-0.488
-0.228
0.007
0.221
0.415
0.593
0.757
0.908
1.048
1.18
1.305
1.423
1.536
1.645
1.751
1.853
1.951
2.047
2.138
2.225
2.306
2.38
2.445
2.5
2.543
2.571
2.583
2.575
2.548
2.497
2.422
2.321
2.192
2.035
1.847
1.628
1.378
1.097
0.784
0.44
0.066
-0.337
-0.768
-1.225
-1.705
-2.205
-2.722
-3.253
-3.793
-4.339
-4.886
-5.431
-5.967
-6.489
-6.994
-7.475
-7.928
-8.346
-8.726
-9.062
-9.35
-9.586
-9.766
-9.888
-9.949
-9.948
-9.884
-9.758
-9.57
-9.321
-9.014
-8.649
-8.229
-7.759
-7.239
-6.675
-6.069
-5.427
-4.753
-4.055
-3.338
-2.609
-1.876
-1.146
-0.426
0.276
0.958
1.617
2.247
2.844
3.397
3.9
4.354
4.755
5.103
5.4
5.648
5.86
6.06
6.266
6.494
6.758
7.058
7.4
7.796
8.257
8.793
9.412
10.107
10.874
11.718
12.629
13.587
14.545
15.421
16.143
16.655
16.913
16.89
16.546
15.817
14.648
12.988
10.799
8.081
4.798
0.863
-3.716
-8.824
-14.221
-19.508
-24.337
-28.505
-31.764
-33.782
-34.386
-33.615
-31.803
-29.661
-27.819
-26.541
-26.05
-26.702
-28.572
-31.358
-34.458
-36.502
-36.005
-32.385
-24.37
-10.31
9.922
36.869
68.574
100.585
132.1
162.462
194.092
232.498
275.583
318.69
352.06
359.97
335.653
276.692
189.477
89.017
-21.268
-122.822
-192.554
-269.024
-392.458
-522.603
-613.692
-672.707
-707.958
-711.039
-685.315
-643.677
-593.458
-538.381
-479.6
-415.859
-348.44
-280.631
-216.47
-160.555
-115.43
-81.42
-57.849
-43.136
-35.571
-33.469
-34.658
-36.808
-37.864
-36.612
-32.773
-26.593
-18.595
-9.472
-0.084
8.526
15.266
19.605
21.581
21.468
19.767
17.0
13.623
10.222
7.434
5.616
4.9
5.285
6.622
8.792
11.727
15.288
19.315
23.675
28.236
32.909
37.627
42.292
46.796
51.037
54.905
58.341
61.326
63.85
65.932
67.603
68.892
69.849
70.534
70.999
71.3
71.489
71.607
71.71
71.852
72.088
72.474
73.051
73.845
74.877
76.161
77.7
79.496
81.545
83.835
86.36
89.12
92.108
95.315
98.731
102.336
106.112
110.036
114.082
118.215
122.403
126.613
130.822
135.016
139.18
143.297
147.349
151.311
155.172
158.932
162.586
166.128
169.559
172.873
176.083
179.222
182.308
185.356
188.365
191.311
194.172
196.933
199.568
202.055
204.36
206.417
208.171
209.579
210.585
211.14
211.176
210.596
209.324
207.306
204.501
200.906
196.525
191.35
185.393
178.675
171.215
163.085
154.355
145.081
135.343
125.224
114.824
104.281
93.73
83.274
73.007
62.993
53.282
43.941
35.026
26.585
18.673
11.305
4.483
-1.779
-7.485
-12.656
-17.323
-21.556
-25.444
-29.04
-32.392
-35.532
-38.475
-41.256
-43.908
-46.462
-48.953
-51.404
-53.821
-56.225
-58.627
-61.023
-63.405
-65.738
-67.97
-70.071
-72.023
-73.815
-75.449
-76.919
-78.217
-79.343
-80.294
-81.073
-81.683
-82.128
-82.408
-82.532
-82.517
-82.387
-82.177
-81.914
-81.616
-81.299
-80.973
-80.649
-80.337
-80.043
-79.769
-79.518
-79.295
-79.103
-78.95
-78.839
-78.768
-78.738
-78.742
-78.779
-78.846
-78.942
-79.065
-79.214
-79.389
-79.59
-79.82
-80.079
-80.368
-80.686
-81.031
-81.403
-81.8
-82.22
-82.662
-83.124
-83.605
-84.102
-84.614
-85.142
-85.681
-86.233
-86.795
-87.365
-87.944
-88.53
-89.123
-89.722
-90.326
-90.937
-91.553
-92.175
-92.803
-93.438
-94.08
-94.73
-95.389
-96.056
-96.733
-97.419
-98.116
-98.823
-99.542
-100.272
-101.014
-101.768
-102.535
-103.313
-104.105
-104.908
-105.723
-106.549
-107.386
-108.234
-109.091
-109.957
-110.83
-111.709
-112.592
-113.479
-114.367
-115.253
-116.137
-117.014
-117.883
-118.741
-119.584
-120.408
-121.21
-121.986
-122.732
-123.445
-124.119
-124.753
-125.342
-125.884
-126.376
-126.817
-127.205
-127.54
-127.822
-128.051
-128.227
-128.351
-128.425
-128.449
-128.424
-128.353
-128.237
-128.078
-127.882
-127.653
-127.394
-127.111
-126.81
-126.494
-126.17
-125.844
-125.52
-125.204
-124.902
-124.62
-124.366
-124.151
-123.981
-123.857
-123.781
-123.748
-123.752
-123.787
-123.841
-123.898
-123.945
-123.969
-123.959
-123.912
-123.817
-123.664
-123.444
-123.138
-122.739
-122.252
-121.683
-121.047
-120.37
-119.672
-118.992
-118.387
-117.904
-117.591
-117.494
-117.65
-118.101
-118.9
-120.083
-121.682
-123.724
-126.224
-129.2
-132.66
-136.599
-140.982
-145.774
-150.949
-156.399
-161.947
-167.329
-172.148
-176.036
-178.74
-179.941
-179.278
-176.725
-172.435
-166.838
-160.898
-155.379
-150.728
-147.633
-146.662
-147.749
-150.594
-154.268
-156.807
-156.715
-152.909
-143.702
-127.745
-104.377
-73.007
-35.088
5.494
45.775
82.96
116.216
148.191
178.223
202.012
210.577
190.092
133.8
43.913
-69.718
-190.513
-309.11
-424.858
-538.339
-650.766
-754.708
-834.52
-880.081
-887.372
-861.739
-817.097
-762.172
-701.647
-636.066
-562.099
-482.708
-403.128
-329.665
-269.752
-224.21
-191.63
-170.032
-155.716
-148.112
-146.589
-148.904
-153.199
-156.52
-156.777
-153.71
-147.433
-138.602
-128.176
-117.1
-106.595
-97.993
-91.974
-88.572
-87.528
-88.324
-90.42
-93.326
-96.41
-98.974
-100.59
-101.095
-100.482
-98.896
-96.464
-93.258
-89.41
-85.078
-80.397
-75.491
-70.45
-65.338
-60.239
-55.252
-50.475
-46.004
-41.918
-38.254
-35.027
-32.232
-29.84
-27.82
-26.134
-24.733
-23.558
-22.552
-21.659
-20.828
-20.013
-19.165
-18.23
-17.155
-15.892
-14.406
-12.678
-10.695
-8.45
-5.939
-3.16
-0.122
3.163
6.684
10.436
14.416
18.624
23.05
27.677
32.481
37.438
42.53
47.736
53.032
58.386
63.775
69.182
74.603
80.034
85.46
90.859
96.196
101.439
106.565
111.563
116.423
121.129
125.667
130.025
134.21
138.233
142.09
145.75
149.162
152.273
155.052
157.479
159.548
161.249
162.563
163.465
163.939
163.976
163.57
162.703
161.339
159.439
156.991
154.022
150.592
146.756
142.556
138.022
133.179
128.064
122.72
117.187
111.494
105.665
99.733
93.744
87.763
81.858
76.072
70.423
64.905
59.516
54.266
49.171
44.246
39.497
34.929
30.558
26.407
22.504
18.863
15.49
12.378
9.521
6.918
4.583
2.533
0.782
-0.665
-1.802
-2.626
-3.131
-3.315
-3.185
-2.757
-2.048
-1.07
0.164
1.646
3.363
5.3
7.439
9.764
12.255
14.897
17.668
20.551
23.524
26.568
29.667
32.807
35.972
39.15
42.324
45.482
48.612
51.701
54.739
57.716
60.62
63.445
66.184
68.831
71.382
73.835
76.188
78.439
80.591
82.643
84.6
86.463
88.238
89.929
91.542
93.083
94.559
95.978
97.347
98.673
99.966
101.233
102.482
103.723
104.961
106.206
107.464
108.743
110.049
111.387
112.765
114.186
115.656
117.179
118.758
120.395
122.092
123.849
125.668
127.547
129.484
131.477
133.523
135.618
137.758
139.939
142.154
144.398
146.663
148.944
151.232
153.52
155.8
158.065
160.305
162.514
164.683
166.805
168.872
170.877
172.814
174.675
176.456
178.15
179.752
181.258
182.663
183.963
185.157
186.241
187.215
188.078
188.829
189.469
190.0
190.423
190.741
190.957
191.074
191.097
191.031
190.881
190.654
190.354
189.988
189.563
189.085
188.561
187.996
187.395
186.765
186.11
185.433
184.739
184.03
183.309
182.578
181.839
181.094
180.342
179.585
178.823
178.056
177.283
176.503
175.712
174.908
174.089
173.251
172.39
171.501
170.58
169.621
168.625
167.589
166.51
165.383
164.201
162.96
161.663
160.312
158.908
157.455
155.959
154.432
152.894
151.366
149.864
148.398
146.972
145.588
144.26
142.999
141.818
140.723
139.703
138.747
137.857
137.021
136.216
135.404
134.511
133.461
132.204
130.694
128.895
126.788
124.323
121.444
118.109
114.272
109.921
105.063
99.658
93.644
87.064
80.062
72.922
66.057
59.795
54.36
50.022
47.123
45.881
46.247
47.841
49.917
51.749
52.948
53.171
51.901
48.85
44.194
38.618
33.571
30.659
30.864
35.276
45.422
62.373
86.905
118.521
154.574
192.505
230.315
266.865
302.933
338.038
368.722
388.701
387.86
356.964
293.114
200.279
89.198
-27.608
-143.281
-257.399
-372.152
-487.567
-596.83
-686.474
-743.688
-762.708
-746.451
-704.762
-648.804
-585.195
-515.266
-439.937
-361.535
-284.609
-216.842
-162.143
-119.548
-87.132
-60.954
-38.987
-22.631
-12.366
-7.72
-7.517
-9.291
-10.952
-11.645
-11.017
-8.816
-5.014
0.117
6.418
13.625
20.956
27.938
34.187
38.939
41.778
42.595
41.271
38.132
34.198
29.77
24.416
17.653
8.342
-2.289
-11.402
-15.159
-10.21
-8.12
-12.501
-4.42
-18.437
-4.489
