-4.975
-99.457
-202.006
-305.648
-399.491
-468.847
-506.187
-511.231
-489.303
-451.288
-404.653
-353.508
-299.844
-242.744
-183.545
-125.463
-71.887
-26.784
7.524
30.986
44.431
49.35
47.503
40.493
30.214
18.849
8.419
0.107
-5.728
-9.219
-10.849
-11.187
-10.915
-10.982
-12.411
-15.741
-21.021
-28.031
-36.308
-45.388
-54.872
-64.261
-73.029
-80.878
-87.706
-93.544
-98.562
-102.93
-106.765
-110.216
-113.428
-116.5
-119.516
-122.535
-125.59
-128.726
-131.979
-135.36
-138.876
-142.518
-146.253
-150.028
-153.759
-157.33
-160.635
-163.593
-166.146
-168.254
-169.883
-171.007
-171.617
-171.732
-171.392
-170.64
-169.506
-168.015
-166.2
-164.108
-161.81
-159.391
-156.918
-154.442
-151.999
-149.618
-147.333
-145.162
-143.112
-141.165
-139.288
-137.467
-135.702
-134.005
-132.385
-130.849
-129.39
-128.006
-126.71
-125.518
-124.453
-123.534
-122.77
-122.181
-121.795
-121.642
-121.756
-122.151
-122.824
-123.774
-125.004
-126.525
-128.351
-130.494
-132.955
-135.737
-138.846
-142.29
-146.08
-150.219
-154.697
-159.515
-164.683
-170.221
-176.173
-182.558
-189.373
-196.604
-204.222
-212.188
-220.461
-228.985
-237.682
-246.485
-255.329
-264.159
-272.936
-281.604
-290.093
-298.322
-306.188
-313.614
-320.555
-326.972
-332.845
-338.175
-342.97
-347.267
-351.132
-354.616
-357.758
-360.585
-363.108
-365.352
-367.355
-369.163
-370.833
-372.407
-373.913
-375.372
-376.804
-378.206
-379.57
-380.864
-382.032
-383.035
-383.849
-384.461
-384.87
-385.071
-385.053
-384.808
-384.33
-383.612
-382.654
-381.456
-380.015
-378.339
-376.443
-374.351
-372.101
-369.72
-367.228
-364.642
-361.971
-359.225
-356.416
-353.55
-350.629
-347.657
-344.641
-341.586
-338.503
-335.397
-332.272
-329.131
-325.971
-322.796
-319.606
-316.406
-313.198
-309.987
-306.777
-303.575
-300.387
-297.222
-294.083
-290.975
-287.902
-284.867
-281.873
-278.924
-276.022
-273.168
-270.365
-267.615
-264.92
-262.283
-259.703
-257.182
-254.72
-252.319
-249.978
-247.696
-245.474
-243.311
-241.205
-239.155
-237.16
-235.217
-233.324
-231.477
-229.673
-227.909
-226.179
-224.48
-222.807
-221.153
-219.515
-217.886
-216.262
-214.637
-213.006
-211.365
-209.709
-208.034
-206.337
-204.614
-202.863
-201.082
-199.27
-197.428
-195.553
-193.646
-191.708
-189.738
-187.739
-185.711
-183.655
-181.572
-179.464
-177.335
-175.188
-173.026
-170.854
-168.675
-166.494
-164.315
-162.144
-159.987
-157.846
-155.723
-153.622
-151.548
-149.51
-147.511
-145.55
-143.628
-141.741
-139.884
-138.054
-136.239
-134.422
-132.585
-130.708
-128.777
-126.789
-124.734
-122.601
-120.382
-118.06
-115.631
-113.104
-110.484
-107.78
-105.01
-102.195
-99.377
-96.626
-94.004
-91.585
-89.435
-87.608
-86.156
-85.119
-84.534
-84.45
-84.898
-85.902
-87.475
-89.593
-92.245
-95.44
-99.077
-102.968
-106.825
-110.228
-112.853
-114.475
-114.751
-113.419
-110.437
-105.883
-100.287
-94.425
-88.696
-83.55
-79.672
-77.407
-76.84
-77.2
-76.275
-72.046
-63.789
-52.576
-40.457
-28.575
-15.886
2.42
31.225
73.204
128.504
190.143
248.191
292.955
313.626
304.756
266.315
200.76
116.404
23.219
-72.835
-167.425
-260.917
-357.575
-455.82
-550.388
-632.661
-689.902
-716.467
-713.48
-685.067
-640.145
-584.856
-520.804
-450.835
-377.659
-304.923
-239.209
-184.161
-139.818
-105.176
-77.113
-53.949
-36.478
-24.975
-19.133
-17.171
-16.014
-13.43
-8.486
-1.251
7.631
17.71
28.52
39.287
49.103
56.984
62.463
65.677
66.945
66.724
65.474
63.61
61.651
60.17
59.515
59.816
61.079
63.178
66.004
69.494
73.538
78.013
82.812
87.83
92.989
98.225
103.466
108.626
113.622
118.366
122.783
126.834
130.503
133.806
136.773
139.435
141.833
144.015
146.039
147.964
149.841
151.718
153.636
155.642
157.784
160.119
162.692
165.532
168.653
172.059
175.744
179.697
183.896
188.304
192.88
197.589
202.4
207.295
212.249
217.236
222.221
227.172
232.066
236.897
241.665
246.37
251.024
255.645
260.273
264.964
269.768
274.717
279.829
285.105
290.551
296.174
301.982
307.959
314.065
320.232
326.385
332.441
338.302
343.852
348.943
353.405
357.091
359.878
361.668
362.374
361.906
360.173
357.092
352.631
346.798
339.639
331.217
321.614
310.937
299.328
286.97
274.069
260.811
247.362
233.876
220.509
207.438
194.853
182.929
171.789
161.521
152.179
143.8
136.406
129.991
124.514
119.893
116.04
112.875
110.332
108.342
106.818
105.647
104.694
103.838
102.993
102.094
101.093
99.953
98.64
97.142
95.473
93.661
91.736
89.718
87.616
85.448
83.246
81.058
78.947
76.962
75.135
73.489
72.035
70.785
69.744
68.906
68.251
67.755
67.4
67.172
67.061
67.056
67.135
67.275
67.446
67.625
67.798
67.952
68.077
68.165
68.21
68.214
68.183
68.121
68.033
67.92
67.781
67.618
67.436
67.238
67.029
66.812
66.589
66.363
66.135
65.909
65.684
65.462
65.239
65.016
64.792
64.568
64.344
64.12
63.896
63.673
63.45
63.228
63.008
62.789
62.57
62.351
62.133
61.916
61.7
61.486
61.274
61.064
60.859
60.658
60.463
60.276
60.097
59.928
59.772
59.63
59.506
59.401
59.319
59.262
59.234
59.238
59.277
59.354
59.474
59.639
59.853
60.119
60.44
60.818
61.257
61.757
62.321
62.949
63.64
64.395
65.209
66.083
67.013
67.995
69.026
70.1
71.215
72.367
73.55
74.757
75.983
77.217
78.452
79.679
80.889
82.072
83.217
84.316
85.36
86.343
87.256
88.089
88.831
89.467
89.988
90.388
90.664
90.816
90.848
90.765
90.581
90.315
89.986
89.609
89.193
88.744
88.272
87.793
87.329
86.904
86.535
86.232
85.994
85.825
85.708
85.62
85.527
85.372
85.097
84.662
84.026
83.157
82.027
80.586
78.767
76.513
73.768
70.504
66.729
62.437
57.643
52.381
46.69
40.661
34.424
28.078
21.684
15.381
9.356
3.921
-0.457
-3.36
-4.476
-3.586
-0.521
4.691
11.766
20.193
29.095
37.505
44.689
50.228
53.932
56.092
57.446
58.815
61.636
67.76
78.675
95.653
118.851
146.739
177.774
210.462
244.296
280.119
316.315
348.794
369.961
369.228
340.386
282.464
200.931
107.089
9.058
-90.013
-191.568
-299.579
-412.973
-523.151
-616.932
-681.567
-709.064
-700.303
-661.63
-599.777
-523.598
-439.401
-353.55
-275.56
-209.906
-158.99
-121.806
-91.31
-63.902
-38.512
-15.348
1.868
11.772
16.02
16.635
16.652
18.219
21.554
26.34
32.143
38.479
44.838
50.73
55.5
58.417
59.328
58.443
56.052
52.651
48.718
44.645
40.936
38.084
36.322
35.729
36.273
37.803
40.207
43.387
47.188
51.449
56.02
60.773
65.608
70.432
75.139
79.617
83.756
87.48
90.754
93.562
95.913
97.835
99.356
100.526
101.405
102.051
102.523
102.878
103.166
103.442
103.761
104.176
104.744
105.509
106.5
107.738
109.229
110.969
112.955
115.172
117.595
120.199
122.952
125.826
128.802
131.857
134.976
138.135
141.306
144.464
147.587
150.66
153.678
156.641
159.55
162.419
165.276
168.153
171.095
174.13
177.261
180.492
183.814
187.222
190.714
194.274
197.877
201.489
205.069
208.562
211.909
215.023
217.789
220.091
221.8
222.817
223.076
222.509
221.06
218.678
215.314
210.942
205.563
199.178
191.793
183.44
174.167
164.069
153.278
141.93
130.17
118.127
105.906
93.625
81.407
69.369
57.633
46.299
35.446
25.162
15.539
6.645
-1.478
-8.822
-15.421
-21.307
-26.519
-31.093
-35.064
-38.482
-41.41
-43.916
-46.075
-47.952
-49.6
-51.084
-52.476
-53.833
-55.196
-56.588
-58.006
-59.451
-60.924
-62.424
-63.946
-65.475
-66.988
-68.457
-69.85
-71.141
-72.312
-73.343
-74.211
-74.901
-75.406
-75.732
-75.891
-75.897
-75.759
-75.488
-75.1
-74.615
-74.051
-73.426
-72.761
-72.071
-71.378
-70.704
-70.055
-69.433
-68.861
-68.355
-67.923
-67.581
-67.313
-67.09
-66.926
-66.847
-66.774
-66.617
-66.424
-66.184
-65.878
-65.688
-65.112
-63.659
-62.026
-60.422
-60.128
-62.674
-66.367
-70.077
-72.123
-70.195
-66.337
-62.28
-59.21
-59.089
-60.514
-62.067
-63.433
-63.747
-63.514
-63.382
-63.23
-63.143
-63.079
-62.91
-62.723
-62.59
-62.489
-62.419
-62.389
-62.399
-62.447
-62.533
-62.645
-62.771
-62.916
-63.088
-63.284
-63.503
-63.744
-64.003
-64.28
-64.574
-64.882
-65.201
-65.529
-65.865
-66.205
-66.551
-66.9
-67.249
-67.595
-67.931
-68.253
-68.557
-68.837
-69.087
-69.302
-69.478
-69.612
-69.705
-69.757
-69.766
-69.726
-69.632
-69.478
-69.266
-68.996
-68.671
-68.294
-67.874
-67.43
-66.988
-66.569
-66.183
-65.836
-65.524
-65.245
-64.997
-64.777
-64.578
-64.391
-64.205
-64.016
-63.828
-63.632
-63.409
-63.12
-62.705
-62.12
-61.341
-60.352
-59.147
-57.725
-56.09
-54.268
-52.303
-50.237
-48.104
-45.925
-43.704
-41.462
-39.235
-37.085
-35.101
-33.35
-31.889
-30.773
-30.047
-29.76
-29.95
-30.613
-31.717
-33.239
-35.174
-37.534
-40.354
-43.644
-47.392
-51.569
-56.134
-61.064
-66.318
-71.84
-77.533
-83.302
-89.108
-94.871
-100.463
-105.677
-110.197
-113.739
-116.144
-117.182
-116.519
-114.085
-109.977
-104.518
-98.432
-92.159
-85.917
-80.249
-75.774
-72.806
-70.817
-68.21
-63.321
-55.067
-44.552
-34.397
-24.688
-14.63
-1.099
22.266
57.011
102.478
156.749
211.828
260.565
296.314
309.682
294.932
250.742
179.578
89.771
-8.842
-111.169
-217.429
-330.042
-449.373
-568.851
-673.92
-749.058
-785.619
-783.569
-752.448
-706.043
-652.918
-596.506
-534.809
-463.09
-382.082
-297.504
-218.903
-156.542
-114.697
-91.484
-80.703
-75.335
-71.511
-68.267
-66.184
-65.302
-64.271
-61.574
-56.071
-47.643
-37.084
-25.414
-13.83
-3.488
4.653
10.127
13.001
13.618
12.508
10.211
7.214
4.068
1.321
-0.712
-1.92
-2.312
-2.011
-1.114
0.326
2.216
4.455
6.976
9.722
12.659
15.76
18.972
22.231
25.484
28.696
31.854
34.975
38.074
41.173
44.301
47.482
50.736
54.076
57.499
60.988
64.534
68.142
71.819
75.585
79.45
83.412
87.464
91.587
95.76
99.965
104.182
108.388
112.573
116.728
120.859
124.984
129.113
133.243
137.37
141.48
145.559
149.598
153.589
157.519
161.383
165.183
168.921
172.608
176.262
179.889
183.497
187.093
190.673
194.234
197.777
201.29
204.768
208.2
211.564
214.849
218.034
221.076
223.918
226.495
228.708
230.476
231.721
232.346
232.286
231.481
229.866
227.402
224.055
219.788
214.58
208.411
201.258
193.145
184.123
174.261
163.677
152.474
140.753
128.638
116.243
103.678
91.062
78.501
66.095
53.963
42.23
31.011
20.434
10.582
1.5
-6.784
-14.279
-20.992
-26.928
-32.117
-36.597
-40.407
-43.595
-46.211
-48.306
-49.959
-51.276
-52.355
-53.297
-54.182
-55.053
-55.95
-56.898
-57.911
-59.006
-60.185
-61.435
-62.753
-64.132
-65.561
-67.026
-68.493
-69.906
-71.22
-72.395
-73.4
-74.223
-74.857
-75.292
-75.536
-75.598
-75.493
-75.241
-74.855
-74.346
-73.726
-73.012
-72.227
-71.401
-70.558
-69.713
-68.883
-68.076
-67.298
-66.558
-65.854
-65.18
-64.532
-63.906
-63.298
-62.708
-62.135
-61.574
-61.021
-60.473
-59.925
-59.377
-58.826
-58.271
-57.71
-57.142
-56.568
-55.989
-55.406
-54.817
-54.221
-53.619
-53.008
-52.389
-51.762
-51.124
-50.478
-49.824
-49.164
-48.5
-47.834
-47.17
-46.511
-45.86
-45.22
-44.597
-43.994
-43.415
-42.864
-42.344
-41.86
-41.414
-41.009
-40.647
-40.328
-40.053
-39.822
-39.637
-39.495
-39.398
-39.345
-39.337
-39.372
-39.452
-39.576
-39.744
-39.954
-40.201
-40.48
-40.787
-41.114
-41.454
-41.797
-42.134
-42.454
-42.752
-43.017
-43.242
-43.413
-43.517
-43.543
-43.486
-43.341
-43.104
-42.775
-42.353
-41.845
-41.265
-40.625
-39.937
-39.206
-38.424
-37.589
-36.702
-35.761
-34.771
-33.725
-32.602
-31.389
-30.075
-28.646
-27.091
-25.385
-23.484
-21.364
-19.003
-16.397
-13.566
-10.526
-7.284
-3.864
-0.286
3.416
7.18
10.961
14.725
18.425
22.021
25.454
28.636
31.51
34.03
36.162
37.899
39.233
40.141
40.625
40.69
40.34
39.616
38.539
37.112
35.37
33.343
31.069
28.623
26.051
23.38
20.652
17.878
15.063
12.235
9.407
6.599
3.857
1.178
-1.427
-3.934
-6.364
-8.694
-10.916
-13.108
-15.237
-17.183
-18.788
-19.705
-19.612
-18.394
-15.829
-11.631
-5.888
1.179
9.073
16.698
23.281
28.494
31.704
32.3
30.277
25.844
20.352
16.575
16.399
20.685
29.156
40.574
54.375
71.336
94.382
126.086
167.45
218.002
272.331
322.56
360.675
376.648
363.249
318.361
243.739
147.959
42.106
-66.487
-175.129
-287.35
-406.641
-529.504
-645.185
-736.182
-787.312
-793.711
-758.893
-694.16
-612.923
-522.794
-429.736
-339.107
-254.715
-183.35
-129.372
-91.981
-68.191
-52.039
-38.954
-27.911
-19.585
-15.277
-14.522
-15.219
-14.924
-11.798
-5.71
2.583
12.309
22.451
32.142
40.611
46.952
50.83
52.466
52.229
50.647
48.258
45.509
42.913
41.025
40.134
40.311
41.525
43.614
46.453
49.956
53.988
58.396
63.051
67.83
72.642
77.42
82.077
86.514
90.642
94.374
97.663
100.499
102.889
104.861
106.454
107.71
108.687
109.45
110.06
110.577
111.058
111.554
112.123
112.822
113.698
114.798
116.152
117.775
119.674
121.841
124.257
126.903
129.753
132.784
135.989
139.356
142.873
146.531
150.312
154.209
158.224
162.357
166.598
170.948
175.398
179.961
184.667
189.532
194.565
199.758
205.076
210.484
215.949
221.425
226.86
232.183
237.299
242.135
246.629
250.718
254.347
257.44
259.894
261.634
262.604
262.766
262.115
260.647
258.357
255.27
251.431
246.905
241.787
236.149
230.044
223.532
216.668
209.527
202.204
194.774
187.293
179.81
172.361
164.979
157.704
150.551
143.515
136.581
129.72
122.917
116.178
109.506
102.908
96.382
89.922
83.529
77.222
71.014
64.919
58.952
53.12
47.441
41.947
36.665
31.63
26.864
22.379
18.187
14.296
10.711
7.435
4.465
1.791
-0.595
-2.702
-4.537
-6.108
-7.425
-8.505
-9.365
-10.02
-10.486
-10.781
-10.918
-10.915
-10.786
-10.546
-10.208
-9.785
-9.289
-8.735
-8.135
-7.504
-6.854
-6.197
-5.545
-4.909
-4.298
-3.721
-3.186
-2.697
-2.261
-1.882
-1.562
-1.305
-1.112
-0.985
-0.923
-0.926
-0.993
-1.124
-1.315
-1.565
-1.87
-2.228
-2.634
-3.086
-3.579
-4.109
-4.673
-5.267
-5.888
-6.531
-7.194
-7.873
-8.566
-9.269
-9.981
-10.7
-11.424
-12.153
-12.886
-13.624
-14.366
-15.114
-15.869
-16.632
-17.403
-18.185
-18.979
-19.784
-20.603
-21.435
-22.283
-23.146
-24.024
-24.917
-25.826
-26.751
-27.691
-28.644
-29.608
-30.582
-31.566
-32.56
-33.561
-34.566
-35.57
-36.569
-37.566
-38.554
-39.516
-40.44
-41.31
-42.121
-42.885
-43.599
-44.24
-44.817
-45.364
-45.908
-46.479
-47.078
-47.655
-48.196
-48.753
-49.273
-49.567
-49.6
-49.429
-49.034
-48.628
-47.822
-45.439
-41.762
-37.874
-35.592
-38.294
-45.717
-54.502
-61.276
-61.254
-54.228
-44.725
-36.237
-32.561
-34.293
-38.056
-41.804
-44.114
-44.593
-44.626
-44.819
-45.131
-45.604
-46.024
-46.34
-46.723
-47.209
-47.747
-48.327
-48.948
-49.601
-50.267
-50.918
-51.51
-52.018
-52.457
-52.836
-53.149
-53.392
-53.568
-53.69
-53.794
-53.938
-54.165
-54.507
-54.997
-55.65
-56.482
-57.528
-58.821
-60.393
-62.266
-64.455
-66.968
-69.852
-73.159
-76.84
-80.744
-84.611
-88.108
-90.976
-93.074
-94.177
-93.974
-92.411
-89.649
-86.115
-82.573
-79.519
-77.078
-75.546
-75.361
-76.548
-78.843
-81.47
-82.975
-82.371
-79.226
-72.71
-61.724
-45.572
-23.725
3.105
32.546
62.796
92.392
120.433
147.796
174.196
196.9
210.895
207.204
177.779
120.557
38.508
-59.246
-162.88
-268.681
-375.334
-482.316
-586.222
-676.968
-743.674
-778.226
-778.76
-749.432
-696.074
-626.85
-548.113
-466.463
-390.995
-325.961
-273.798
-233.983
-200.686
-171.25
-145.14
-122.595
-106.658
-98.267
-95.618
-96.451
-97.643
-96.848
-93.526
-87.857
-80.278
-71.304
-61.542
-51.675
-42.568
-35.194
-29.938
-26.717
-25.313
-25.278
-26.145
-27.517
-28.874
-29.657
-29.579
-28.534
-26.522
-23.691
-20.146
-15.956
-11.248
-6.153
-0.782
4.76
10.397
16.071
21.695
27.173
32.411
37.312
41.823
45.921
49.598
52.875
55.781
58.347
60.623
62.663
64.518
66.243
67.883
69.481
71.086
72.75
74.525
76.461
78.589
80.924
83.478
86.245
89.217
92.38
95.706
99.166
102.736
106.396
110.131
113.926
117.766
121.633
125.505
129.367
133.217
137.055
140.891
144.734
148.599
152.507
156.488
160.563
164.739
169.017
173.387
177.832
182.326
186.843
191.355
195.824
200.205
204.437
208.439
212.127
215.416
218.213
220.417
221.941
222.709
222.662
221.758
219.974
217.306
213.75
209.308
203.99
197.806
190.804
183.07
174.69
165.762
156.397
146.713
136.835
126.894
116.998
107.235
97.675
88.367
79.368
70.742
62.545
54.847
47.678
41.034
34.907
29.285
24.136
19.422
15.083
11.033
7.215
3.594
0.143
-3.144
-6.288
-9.32
-12.269
-15.171
-18.049
-20.9
-23.73
-26.541
-29.323
-32.057
-34.709
-37.218
-39.547
-41.682
-43.609
-45.334
-46.852
-48.156
-49.241
-50.107
-50.755
-51.192
-51.422
-51.446
-51.276
-50.929
-50.433
-49.825
-49.134
-48.38
-47.579
-46.744
-45.886
-45.02
-44.153
-43.289
-42.435
-41.598
-40.787
-40.01
-39.275
-38.585
-37.94
-37.34
-36.783
-36.269
-35.799
-35.372
-34.988
-34.648
-34.352
-34.102
-33.901
-33.747
-33.64
-33.576
-33.555
-33.574
-33.631
-33.722
-33.846
-33.999
-34.18
-34.386
-34.616
-34.867
-35.136
-35.422
-35.722
-36.032
-36.352
-36.677
-37.006
-37.337
-37.667
-37.996
-38.32
-38.639
-38.951
-39.255
-39.549
-39.831
-40.1
-40.354
-40.592
-40.812
-41.012
-41.191
-41.348
-41.481
-41.588
-41.667
-41.717
-41.735
-41.719
-41.667
-41.577
-41.447
-41.276
-41.061
-40.802
-40.498
-40.148
-39.752
-39.309
-38.821
-38.286
-37.707
-37.084
-36.419
-35.715
-34.973
-34.199
-33.396
-32.569
-31.722
-30.859
-29.988
-29.114
-28.243
-27.379
-26.528
-25.697
-24.892
-24.119
-23.386
-22.698
-22.061
-21.483
-20.971
-20.53
-20.162
-19.867
-19.646
-19.5
-19.431
-19.441
-19.532
-19.701
-19.946
-20.266
-20.658
-21.113
-21.618
-22.15
-22.686
-23.211
-23.712
-24.178
-24.598
-24.958
-25.243
-25.444
-25.552
-25.563
-25.471
-25.273
-24.976
-24.601
-24.192
-23.815
-23.537
-23.419
-23.516
-23.867
-24.515
-25.52
-26.939
-28.814
-31.181
-34.041
-37.403
-41.326
-45.763
-50.571
-55.512
-60.19
-64.258
-67.521
-69.706
-70.47
-69.762
-67.677
-64.562
-61.208
-58.125
-55.578
-54.115
-54.225
-56.007
-58.818
-60.978
-60.57
-56.212
-48.43
-39.259
-29.006
-17.392
-1.869
23.283
59.702
106.881
161.828
215.575
260.833
290.957
298.746
280.638
234.391
161.939
69.877
-33.971
-142.39
-254.018
-369.325
-485.528
-595.709
-685.347
-740.779
-757.501
-739.377
-697.926
-645.29
-587.292
-524.231
-455.693
-383.203
-311.293
-247.546
-196.192
-156.874
-127.915
-105.577
-87.672
-74.935
-67.302
-63.985
-63.442
-62.847
-60.163
-54.822
-46.983
-37.282
-26.397
-15.004
-3.843
6.235
14.352
20.205
23.928
25.797
26.285
25.846
24.871
23.851
23.299
23.496
24.553
26.47
29.119
32.401
36.247
40.542
45.166
50.014
54.99
60.018
65.043
69.996
74.801
79.385
83.674
87.605
91.148
94.293
97.057
99.471
101.569
103.395
104.996
106.43
107.753
109.015
110.265
111.541
112.887
114.345
115.958
117.765
119.793
122.058
124.565
127.317
130.311
133.54
136.994
140.652
144.5
148.518
152.693
157.008
161.445
165.98
170.59
175.251
179.937
184.623
189.286
193.897
198.431
202.861
207.163
211.312
215.282
219.049
222.585
225.867
228.87
231.572
233.953
235.992
237.672
238.977
239.894
240.412
240.521
240.216
239.49
238.342
236.771
234.781
232.373
229.557
226.339
222.73
218.744
214.395
209.699
204.676
199.344
193.725
187.842
181.718
175.377
168.846
162.149
155.314
148.366
141.333
134.242
127.117
119.986
112.874
105.805
98.802
91.889
85.087
78.416
71.896
65.545
59.378
53.412
47.661
42.135
36.847
31.805
27.017
22.488
18.224
14.226
10.495
7.032
3.835
0.9
-1.778
-4.204
-6.385
-8.33
-10.047
-11.546
-12.837
-13.933
-14.844
-15.582
-16.16
-16.589
-16.881
-17.05
-17.107
-17.064
-16.933
-16.725
-16.452
-16.124
-15.752
-15.346
-14.914
-14.465
-14.008
-13.548
-13.094
-12.651
-12.223
-11.815
-11.43
-11.071
-10.741
-10.439
-10.167
-9.924
-9.711
-9.525
-9.366
-9.232
-9.12
-9.03
-8.958
-8.904
-8.864
-8.837
-8.821
-8.813
-8.813
-8.819
-8.829
-8.842
-8.857
-8.874
-8.89
-8.907
-8.923
-8.939
-8.954
-8.97
-8.985
-9.002
-9.022
-9.044
-9.072
-9.106
-9.147
-9.199
-9.261
-9.337
-9.426
-9.531
-9.653
-9.791
-9.946
-10.118
-10.306
-10.511
-10.731
-10.964
-11.209
-11.462
-11.723
-11.988
-12.253
-12.515
-12.771
-13.017
-13.25
-13.464
-13.657
-13.825
-13.963
-14.069
-14.138
-14.167
-14.153
-14.092
-13.983
-13.824
-13.613
-13.349
-13.033
-12.664
-12.245
-11.777
-11.264
-10.708
-10.112
-9.482
-8.822
-8.137
-7.432
-6.712
-5.984
-5.253
-4.527
-3.814
-3.119
-2.449
-1.812
-1.214
-0.665
-0.168
0.274
0.658
0.983
1.244
1.434
1.553
1.605
1.591
1.515
1.38
1.192
0.963
0.714
0.464
0.231
0.026
-0.149
-0.282
-0.364
-0.383
-0.322
-0.184
0.026
0.309
0.666
1.09
1.566
2.058
2.503
2.845
3.033
3.018
2.772
2.264
1.453
0.298
-1.25
-3.226
-5.653
-8.532
-11.887
-15.77
-20.131
-24.818
-29.56
-33.937
-37.609
-40.398
-42.058
-42.266
-40.996
-38.377
-34.838
-31.37
-28.636
-26.826
-26.411
-27.87
-31.141
-36.059
-41.239
-43.806
-42.139
-35.672
-25.022
-12.195
2.673
21.238
46.115
80.032
122.612
170.912
220.532
265.412
300.058
318.76
313.994
280.626
218.057
129.953
25.968
-84.275
-196.947
-310.71
-425.645
-538.772
-639.659
-716.469
-760.64
-769.843
-749.514
-707.311
-649.174
-579.425
-500.683
-417.534
-337.698
-267.438
-210.986
-168.508
-135.392
-108.253
-85.539
-67.253
-55.655
-50.933
-50.855
-52.658
-53.078
-50.461
-44.912
-36.869
-27.002
-16.071
-4.862
5.597
14.198
20.413
24.297
26.13
26.39
25.564
24.07
22.437
21.236
20.801
21.262
22.62
24.721
27.415
30.594
34.106
37.795
41.545
45.251
48.836
52.247
55.428
58.34
60.964
63.295
65.325
67.056
68.508
69.742
70.854
71.943
73.092
74.376
75.854
77.583
79.619
82.006
84.758
87.87
91.315
95.051
99.054
103.302
107.762
112.389
117.109
121.856
126.584
131.258
135.856
140.355
144.727
148.949
153.02
156.942
160.734
164.421
168.003
171.478
174.85
178.123
181.324
184.474
187.574
190.609
193.557
196.392
199.111
201.704
204.155
206.449
208.564
210.48
212.208
213.754
215.106
216.252
217.147
217.741
218.014
217.955
217.555
216.803
215.667
214.108
212.109
209.65
206.718
203.296
199.328
194.775
189.627
183.884
177.582
170.777
163.485
155.73
147.557
139.012
130.177
121.149
111.99
102.759
93.517
84.326
75.283
66.477
57.962
49.787
41.981
34.557
27.567
21.053
15.017
9.455
4.328
-0.419
-4.812
-8.863
-12.598
-16.036
-19.215
-22.174
-24.926
-27.482
-29.858
-32.065
-34.146
-36.137
-38.043
-39.863
-41.574
-43.142
-44.556
-45.811
-46.898
-47.814
-48.558
-49.126
-49.536
-49.804
-49.94
-49.951
-49.83
-49.573
-49.19
-48.697
-48.115
-47.474
-46.795
-46.096
-45.399
-44.72
-44.073
-43.467
-42.905
-42.385
-41.912
-41.49
-41.127
-40.829
-40.599
-40.44
-40.349
-40.327
-40.369
-40.473
-40.633
-40.843
-41.1
-41.399
-41.738
-42.116
-42.529
-42.974
-43.448
-43.945
-44.461
-44.991
-45.53
-46.071
-46.61
-47.142
-47.664
-48.17
-48.658
-49.125
-49.568
-49.984
-50.37
-50.725
-51.045
-51.329
-51.574
-51.781
-51.947
-52.072
-52.156
-52.197
-52.195
-52.151
-52.065
-51.936
-51.764
-51.55
-51.293
-50.996
-50.657
-50.278
-49.861
-49.405
-48.912
-48.384
-47.823
-47.227
-46.6
-45.941
-45.251
-44.531
-43.781
-43.003
-42.196
-41.36
-40.498
-39.61
-38.696
-37.759
-36.798
-35.815
-34.813
-33.794
-32.76
-31.715
-30.663
-29.607
-28.552
-27.503
-26.465
-25.442
-24.439
-23.461
-22.513
-21.598
-20.721
-19.886
-19.099
-18.364
-17.686
-17.07
-16.52
-16.041
-15.637
-15.313
-15.073
-14.915
-14.838
-14.843
-14.93
-15.103
-15.361
-15.695
-16.1
-16.57
-17.098
-17.674
-18.286
-18.91
-19.523
-20.108
-20.653
-21.152
-21.597
-21.974
-22.27
-22.474
-22.58
-22.599
-22.535
-22.382
-22.144
-21.838
-21.492
-21.164
-20.911
-20.771
-20.781
-20.971
-21.363
-21.999
-22.924
-24.171
-25.776
-27.754
-30.11
-32.89
-36.154
-39.876
-43.931
-48.073
-51.952
-55.268
-57.812
-59.331
-59.505
-58.156
-55.38
-51.575
-47.48
-43.821
-41.016
-39.444
-39.634
-41.866
-45.929
-51.094
-55.94
-58.878
-58.839
-54.708
-44.988
-28.5
-4.539
26.228
61.354
98.367
135.092
170.977
206.906
240.976
269.219
284.197
274.958
236.277
168.931
78.922
-21.764
-125.743
-232.767
-344.186
-460.682
-576.426
-676.571
-745.663
-775.971
-768.658
-733.822
-684.509
-627.085
-562.564
-490.233
-410.19
-328.845
-255.643
-197.369
-156.598
-129.63
-110.677
-95.868
-83.733
-75.8
-72.777
-73.252
-74.913
-74.73
-71.182
-64.52
-55.383
-44.6
-33.08
-21.595
-11.066
-2.53
3.603
7.442
9.273
9.59
8.884
7.561
6.131
5.13
4.851
5.421
6.855
9.025
11.833
15.206
19.023
23.167
27.542
32.056
36.644
41.248
45.799
50.234
54.491
58.506
62.231
65.617
68.639
71.307
73.64
75.671
77.444
78.998
80.382
81.658
82.879
84.095
85.351
86.681
88.122
89.71
91.475
93.451
95.66
98.115
100.822
103.781
106.985
110.422
114.07
117.898
121.877
125.975
130.164
134.423
138.735
143.086
147.465
151.86
156.253
160.616
164.928
169.168
173.318
177.365
181.301
185.125
188.842
192.47
196.013
199.465
202.805
205.996
209.0
211.778
214.3
216.543
218.477
220.069
221.29
222.109
222.488
222.384
221.735
220.464
218.518
215.865
212.496
208.419
203.644
198.186
192.058
185.289
177.918
169.995
161.569
152.695
143.442
133.895
124.174
114.404
104.686
95.102
85.715
76.582
67.764
59.327
51.322
43.778
36.712
30.132
24.049
18.46
13.34
8.643
4.289
0.206
-3.652
-7.323
-10.837
-14.225
-17.517
-20.743
-23.914
-27.04
-30.14
-33.226
-36.298
-39.357
-42.416
-45.489
-48.569
-51.633
-54.623
-57.491
-60.256
-62.869
-65.141
-66.934
-68.223
-69.038
-69.582
-69.477
-67.659
-63.837
-58.717
-54.855
-56.041
-63.542
-75.305
-86.113
-89.828
-84.213
-71.766
-58.269
-49.408
-47.26
-50.226
-54.651
-57.654
-58.396
-57.462
-56.061
-54.784
-53.567
-52.282
-50.824
-49.262
-47.752
-46.333
-44.993
-43.745
-42.596
-41.54
-40.558
-39.618
-38.699
-37.807
-36.954
-36.148
-35.387
-34.674
-34.01
-33.4
-32.849
-32.357
-31.923
-31.547
-31.228
-30.968
-30.766
-30.622
-30.535
-30.505
-30.531
-30.612
-30.746
-30.933
-31.169
-31.454
-31.787
-32.164
-32.583
-33.042
-33.536
-34.061
-34.614
-35.189
-35.78
-36.381
-36.987
-37.593
-38.194
-38.785
-39.362
-39.921
-40.459
-40.971
-41.452
-41.896
-42.295
-42.643
-42.931
-43.153
-43.3
-43.368
-43.35
-43.243
-43.047
-42.759
-42.376
-41.894
-41.305
-40.606
-39.797
-38.88
-37.858
-36.742
-35.542
-34.281
-32.983
-31.665
-30.341
-29.016
-27.687
-26.355
-25.017
-23.671
-22.32
-20.967
-19.609
-18.25
-16.895
-15.537
-14.163
-12.741
-11.226
-9.597
-7.837
-5.942
-3.924
-1.79
0.443
2.739
5.073
7.419
9.751
12.064
14.35
16.591
18.755
20.79
22.631
24.233
25.562
26.58
27.258
27.563
27.492
27.071
26.314
25.226
23.789
21.977
19.79
17.206
14.177
10.678
6.69
2.22
-2.655
-7.873
-13.417
-19.15
-24.84
-30.409
-35.835
-41.013
-46.04
-50.46
-53.112
-54.106
-54.129
-54.479
-57.793
-63.431
-68.217
-68.985
-61.417
-45.627
-26.108
-6.797
7.807
16.121
21.002
24.903
29.421
35.476
40.866
42.765
41.857
40.352
42.844
56.13
82.476
120.593
166.931
215.246
261.19
300.699
328.182
336.378
316.465
264.205
182.078
79.042
-32.344
-144.625
-257.23
-372.943
-493.457
-612.95
-717.962
-793.274
-827.98
-819.413
-772.793
-699.805
-613.535
-525.365
-445.493
-377.557
-320.998
-273.818
-230.915
-190.918
-155.114
-124.827
-103.093
-90.271
-84.185
-82.2
-80.748
-77.246
-70.916
-61.744
-50.245
-37.204
-23.322
-9.478
3.212
13.688
21.414
26.386
28.882
29.392
28.438
26.524
24.253
22.244
20.879
20.331
20.663
21.824
23.737
26.33
29.453
32.926
36.618
40.421
44.242
48.011
51.624
54.964
57.944
60.507
62.613
64.247
65.399
66.078
66.352
66.345
66.2
66.053
66.013
66.169
66.606
67.417
68.686
70.475
72.823
75.739
79.228
83.288
87.905
93.038
98.605
104.48
110.536
116.669
122.796
128.85
134.77
140.487
145.95
151.128
156.006
160.577
164.833
168.761
172.361
175.651
178.671
181.48
184.127
186.641
189.038
191.327
193.51
195.588
197.549
199.371
201.026
202.494
203.758
204.806
205.616
206.158
206.398
206.306
205.859
205.042
203.85
202.281
200.348
198.073
195.484
192.607
189.459
186.046
182.376
178.453
174.287
169.889
165.259
160.394
155.295
149.968
144.42
138.645
132.625
126.32
119.702
112.76
105.506
97.968
90.174
82.159
73.969
65.662
57.319
49.015
40.808
32.745
24.869
17.239
9.932
3.043
-3.351
-9.2
-14.477
-19.169
-23.269
-26.782
-29.737
-32.189
-34.219
-35.894
-37.26
-38.349
-39.193
-39.838
-40.344
-40.783
-41.209
-41.658
-42.159
-42.733
-43.401
-44.17
-45.026
-45.933
-46.839
-47.708
-48.521
-49.271
-49.95
-50.549
-51.049
-51.434
-51.702
-51.851
-51.881
-51.791
-51.579
-51.25
-50.82
-50.317
-49.773
-49.211
-48.645
-48.086
-47.541
-47.019
-46.528
-46.069
-45.641
-45.241
-44.871
-44.533
-44.231
-43.965
-43.732
-43.528
-43.35
-43.193
-43.056
-42.939
-42.839
-42.757
-42.693
-42.649
-42.628
-42.632
-42.662
-42.717
-42.798
-42.903
-43.033
-43.187
-43.363
-43.56
-43.777
-44.014
-44.269
-44.542
-44.83
-45.134
-45.451
-45.781
-46.121
-46.471
-46.828
-47.191
-47.558
-47.926
-48.293
-48.656
-49.012
-49.358
-49.689
-50.001
-50.29
-50.552
-50.784
-50.981
-51.141
-51.261
-51.337
-51.368
-51.35
-51.28
-51.153
-50.964
-50.709
-50.383
-49.985
-49.51
-48.959
-48.328
-47.617
-46.828
-45.963
-45.022
-44.003
-42.899
-41.709
-40.439
-39.098
-37.698
-36.253
-34.769
-33.261
-31.746
-30.237
-28.742
-27.26
-25.775
-24.282
-22.783
-21.287
-19.814
-18.374
-16.961
-15.568
-14.183
-12.796
-11.403
-9.986
-8.51
-6.957
-5.325
-3.634
-1.93
-0.244
1.418
3.062
4.702
6.344
7.973
9.573
11.136
12.65
14.105
15.477
16.709
17.767
18.644
19.36
19.966
20.494
20.931
21.251
21.415
21.385
21.143
20.67
19.928
18.903
17.569
15.905
13.929
11.63
8.978
5.951
2.482
-1.507
-5.979
-10.798
-15.747
-20.485
-24.714
-28.26
-30.905
-32.371
-32.527
-31.444
-29.461
-27.247
-25.414
-24.173
-23.571
-23.842
-25.145
-27.366
-30.042
-31.551
-29.673
-23.312
-12.257
2.358
18.237
34.778
53.274
76.36
107.126
146.246
191.247
237.69
280.71
315.625
337.657
340.694
317.669
264.946
184.623
84.98
-22.583
-130.959
-239.595
-351.233
-466.797
-579.839
-676.245
-741.848
-769.064
-758.882
-720.325
-663.494
-594.767
-518.271
-436.827
-355.155
-280.48
-218.266
-170.877
-136.353
-109.518
-86.941
-67.126
-50.576
-39.359
-33.139
-29.996
-27.706
-23.65
-16.903
-7.954
2.638
14.134
25.679
36.63
46.246
53.693
58.743
61.6
62.571
62.162
60.878
59.122
57.386
56.182
55.776
56.28
57.701
59.91
62.798
66.277
70.191
74.369
78.664
82.937
87.091
91.061
94.77
98.147
101.134
103.679
105.77
107.421
108.657
109.523
110.081
110.404
110.596
110.782
111.078
111.589
112.398
113.556
115.111
117.103
119.55
122.453
125.787
129.501
133.553
137.909
142.528
147.367
152.363
157.433
162.506
167.529
172.459
177.267
181.927
186.407
190.698
194.806
198.75
202.561
206.257
209.834
213.29
216.622
219.827
222.915
225.882
228.708
231.377
233.87
236.167
238.257
240.114
241.703
242.989
243.932
244.501
244.679
244.449
243.797
242.713
241.189
239.224
236.825
233.999
230.751
227.088
223.016
218.548
213.701
208.494
202.947
197.079
190.913
184.47
177.774
170.848
163.716
156.401
148.925
141.312
133.589
125.782
117.918
110.022
102.121
94.242
86.408
78.646
70.977
63.424
56.006
48.743
41.653
34.752
28.055
21.576
15.326
9.317
3.557
-1.945
-7.185
-12.158
-16.861
-21.293
-25.454
-29.346
-32.972
-36.336
-39.444
-42.3
-44.914
-47.293
-49.447
-51.387
-53.123
-54.667
-56.031
-57.228
-58.269
-59.169
-59.939
-60.591
-61.138
-61.592
-61.964
-62.265
-62.506
-62.696
-62.846
-62.963
-63.057
-63.134
-63.202
-63.266
-63.331
-63.402
-63.482
-63.576
-63.686
-63.814
-63.961
-64.129
-64.316
-64.524
-64.752
-64.998
-65.262
-65.542
-65.836
-66.143
-66.46
-66.787
-67.12
-67.46
-67.803
-68.148
-68.494
-68.84
-69.185
-69.527
-69.866
-70.202
-70.534
-70.863
-71.189
-71.511
-71.829
-72.145
-72.456
-72.764
-73.068
-73.367
-73.663
-73.955
-74.241
-74.523
-74.799
-75.069
-75.332
-75.585
-75.828
-76.058
-76.272
-76.469
-76.646
-76.799
-76.925
-77.02
-77.081
-77.104
-77.083
-77.016
-76.896
-76.719
-76.48
-76.175
-75.8
-75.352
-74.828
-74.226
-73.544
-72.783
-71.943
-71.023
-70.026
-68.953
-67.804
-66.584
-65.294
-63.937
-62.518
-61.042
-59.516
-57.947
-56.345
-54.715
-53.068
-51.412
-49.756
-48.109
-46.48
-44.875
-43.304
-41.778
-40.307
-38.905
-37.582
-36.341
-35.187
-34.118
-33.131
-32.22
-31.375
-30.579
-29.821
-29.09
-28.38
-27.69
-27.013
-26.336
-25.65
-24.94
-24.196
-23.422
-22.618
-21.789
-20.954
-20.132
-19.353
-18.667
-18.112
-17.717
-17.512
-17.516
-17.76
-18.283
-19.117
-20.292
-21.824
-23.713
-25.973
-28.615
-31.63
-35.007
-38.686
-42.588
-46.693
-50.902
-55.061
-58.972
-62.294
-64.722
-66.11
-66.23
-64.804
-61.853
-57.499
-52.08
-46.44
-41.133
-36.338
-32.589
-30.419
-29.872
-30.984
-32.633
-32.191
-28.034
-19.268
-6.709
6.512
18.347
28.257
39.801
59.765
93.509
144.111
205.751
265.472
309.446
323.252
301.463
247.536
168.971
78.558
-14.881
-107.962
-200.57
-297.924
-402.071
-508.929
-610.404
-692.598
-743.01
-756.984
-735.012
-683.688
-614.172
-534.819
-452.669
-375.138
-306.11
-248.303
-203.682
-169.607
-141.896
-118.18
-96.724
-78.132
-65.191
-58.129
-55.114
-53.912
-51.568
-46.656
-39.597
-30.95
-21.052
-10.979
-1.835
6.233
12.413
17.458
22.989
27.706
30.968
31.626
27.881
22.176
16.757
13.121
13.261
15.862
19.455
23.635
27.527
31.505
36.052
40.937
46.126
51.492
56.845
62.189
67.493
72.643
77.539
82.105
86.297
90.087
93.477
96.479
99.105
101.399
103.415
105.206
106.829
108.339
109.782
111.202
112.644
114.152
115.773
117.552
119.522
121.702
124.098
126.71
129.533
132.557
135.764
139.123
142.597
146.151
149.761
153.409
157.085
160.774
164.459
168.12
171.744
175.325
178.862
182.35
185.777
189.133
192.419
195.652
198.864
202.079
205.299
208.509
211.68
214.785
217.794
220.664
223.344
225.76
227.847
229.556
230.851
231.697
232.051
231.848
231.009
229.473
227.209
224.204
220.463
215.991
210.812
204.969
198.534
191.601
184.256
176.561
168.57
160.334
151.916
143.396
134.862
126.385
118.019
109.809
101.793
94.01
86.482
79.215
72.186
65.362
58.719
52.252
45.963
39.855
33.927
28.167
22.567
17.128
11.855
6.75
1.816
-2.952
-7.549
-11.959
-16.16
-20.125
-23.838
-27.29
-30.479
-33.404
-36.067
-38.468
-40.614
-42.52
-44.197
-45.654
-46.902
-47.946
-48.799
-49.473
-49.985
-50.351
-50.585
-50.7
-50.707
-50.62
-50.45
-50.207
-49.897
-49.529
-49.109
-48.646
-48.147
-47.622
-47.077
-46.519
-45.956
-45.394
-44.838
-44.295
-43.766
-43.256
-42.766
-42.299
-41.858
-41.442
-41.054
-40.694
-40.362
-40.06
-39.786
-39.542
-39.325
-39.134
-38.969
-38.828
-38.71
-38.613
-38.537
-38.479
-38.441
-38.42
-38.416
-38.428
-38.456
-38.497
-38.551
-38.616
-38.691
-38.776
-38.869
-38.969
-39.076
-39.191
-39.312
-39.439
-39.572
-39.71
-39.852
-39.997
-40.143
-40.289
-40.431
-40.569
-40.702
-40.829
-40.948
-41.06
-41.165
-41.263
-41.354
-41.435
-41.505
-41.559
-41.594
-41.605
-41.588
-41.538
-41.453
-41.327
-41.161
-40.955
-40.707
-40.418
-40.082
-39.695
-39.252
-38.756
-38.204
-37.603
-36.959
-36.281
-35.59
-34.905
-34.242
-33.609
-33.012
-32.443
-31.899
-31.376
-30.865
-30.368
-29.883
-29.4
-28.921
-28.444
-27.957
-27.447
-26.879
-26.208
-25.406
-24.457
-23.351
-22.101
-20.712
-19.198
-17.589
-15.911
-14.187
-12.447
-10.703
-8.965
-7.252
-5.588
-4.023
-2.623
-1.433
-0.489
0.179
0.552
0.605
0.322
-0.279
-1.186
-2.387
-3.868
-5.639
-7.712
-10.1
-12.817
-15.861
-19.204
-22.814
-26.664
-30.73
-34.985
-39.393
-43.91
-48.49
-53.117
-57.804
-62.482
-67.001
-71.108
-74.419
-76.626
-77.494
-76.707
-74.044
-69.509
-63.275
-55.991
-48.548
-41.521
-35.601
-31.602
-29.794
-30.192
-32.022
-33.075
-31.934
-27.968
-20.755
-11.104
1.883
20.269
45.454
79.236
120.955
168.22
217.976
264.373
300.661
318.657
310.111
271.499
204.535
117.282
20.708
-77.926
-176.469
-278.429
-387.135
-499.174
-604.615
-688.651
-739.576
-754.167
-736.643
-696.168
-640.553
-574.845
-502.142
-425.867
-352.358
-286.878
-232.936
-190.738
-155.955
-125.684
-98.818
-75.449
-57.993
-47.167
-41.343
-38.537
-36.117
-32.184
-26.446
-19.142
-10.637
-1.405
7.996
17.018
24.958
31.048
35.081
37.209
37.678
36.93
35.393
33.426
31.496
30.086
29.446
29.646
30.649
32.315
34.542
37.265
40.372
43.742
47.269
50.879
54.537
58.226
61.913
65.536
69.039
72.378
75.541
78.565
81.498
84.382
87.251
90.135
93.07
96.086
99.211
102.438
105.737
109.088
112.482
115.93
119.446
123.033
126.67
130.321
133.955
137.549
141.093
144.573
147.964
151.255
154.449
157.547
160.574
163.556
166.483
169.337
172.136
174.888
177.592
180.354
183.267
186.232
189.243
192.36
195.346
198.522
202.323
206.072
209.507
211.526
210.278
206.461
201.459
197.842
199.428
207.03
218.664
230.301
237.117
236.416
229.425
220.243
212.641
209.306
210.057
212.134
213.694
213.522
211.349
208.203
204.486
200.162
195.282
189.685
183.366
176.531
169.248
161.516
153.386
144.894
136.073
126.98
117.666
108.189
98.656
89.192
79.902
70.869
62.142
53.752
45.734
38.121
30.964
24.31
18.184
12.606
7.584
3.119
-0.802
-4.207
-7.165
-9.762
-12.069
-14.141
-16.01
-17.697
-19.234
-20.654
-22.005
-23.322
-24.629
-25.947
-27.294
-28.688
-30.138
-31.635
-33.145
-34.621
-36.028
-37.344
-38.563
-39.679
-40.687
-41.573
-42.327
-42.953
-43.452
-43.828
-44.083
-44.215
-44.231
-44.145
-43.982
-43.772
-43.538
-43.295
-43.052
-42.819
-42.604
-42.415
-42.254
-42.118
-42.007
-41.918
-41.854
-41.817
-41.807
-41.82
-41.849
-41.891
-41.942
-41.998
-42.058
-42.12
-42.182
-42.244
-42.308
-42.375
-42.448
-42.526
-42.61
-42.698
-42.791
-42.888
-42.99
-43.094
-43.202
-43.312
-43.425
-43.54
-43.659
-43.78
-43.903
-44.031
-44.162
-44.298
-44.439
-44.586
-44.74
-44.9
-45.067
-45.242
-45.423
-45.61
-45.802
-45.997
-46.195
-46.392
-46.587
-46.777
-46.96
-47.131
-47.289
-47.431
-47.551
-47.649
-47.721
-47.764
-47.776
-47.754
-47.698
-47.605
-47.476
-47.31
-47.106
-46.864
-46.583
-46.265
-45.91
-45.516
-45.084
-44.614
-44.108
-43.568
-42.999
-42.404
-41.786
-41.151
-40.504
-39.85
-39.195
-38.544
-37.899
-37.264
-36.648
-36.059
-35.509
-35.006
-34.552
-34.149
-33.796
-33.488
-33.217
-32.973
-32.735
-32.486
-32.214
-31.91
-31.572
-31.195
-30.766
-30.269
-29.686
-29.004
-28.22
-27.341
-26.371
-25.332
-24.252
-23.168
-22.138
-21.224
-20.472
-19.925
-19.618
-19.578
-19.852
-20.508
-21.606
-23.202
-25.327
-27.974
-31.144
-34.827
-39.003
-43.641
-48.663
-53.939
-59.367
-64.885
-70.368
-75.651
-80.444
-84.317
-86.899
-87.905
-87.108
-84.369
-79.735
-73.401
-65.842
-57.775
-49.828
-42.753
-37.185
-33.296
-30.96
-29.343
-26.754
-22.224
-15.26
-5.623
5.569
18.82
35.752
57.634
86.835
123.238
164.734
208.382
247.895
276.122
284.785
265.275
214.78
136.461
38.506
-67.861
-176.052
-285.701
-398.42
-514.198
-626.913
-723.812
-791.903
-824.781
-823.806
-796.568
-752.932
-697.452
-629.699
-549.338
-457.037
-359.362
-268.343
-192.646
-136.895
-100.004
-74.537
-55.306
-40.388
-29.905
-26.263
-29.332
-36.16
-43.223
-47.6
-48.414
-45.934
-40.579
-32.851
-23.102
-12.462
-2.843
4.725
10.048
13.183
14.566
14.422
12.616
9.705
6.846
4.729
3.727
3.971
5.216
7.426
10.813
15.274
20.447
26.048
31.797
37.535
43.281
48.953
54.386
59.469
64.12
68.307
72.052
75.365
78.237
80.681
82.724
84.411
85.818
87.008
88.039
88.967
89.843
90.726
91.682
92.768
94.037
95.522
97.239
99.197
101.393
103.818
106.454
109.277
112.257
115.374
118.616
121.971
125.421
128.944
132.509
136.096
139.697
143.309
146.93
150.572
154.252
158.007
161.892
165.946
170.191
174.635
179.267
184.079
189.069
194.231
199.557
205.026
210.599
216.235
221.886
227.479
232.917
238.074
242.786
246.921
250.381
253.077
254.943
255.909
255.902
254.867
252.767
249.572
245.264
239.838
233.298
225.696
217.119
207.7
197.616
187.019
176.04
164.811
153.46
142.119
130.934
120.022
109.479
99.407
89.909
81.078
72.995
65.698
59.186
53.426
48.351
43.899
40.019
36.639
33.688
31.079
28.716
26.527
24.459
22.45
20.43
18.336
16.111
13.725
11.176
8.473
5.635
2.686
-0.35
-3.435
-6.523
-9.565
-12.505
-15.301
-17.931
-20.365
-22.576
-24.539
-26.235
-27.658
-28.816
-29.716
-30.368
-30.784
-30.978
-30.973
-30.794
-30.47
-30.033
-29.505
-28.904
-28.247
-27.551
-26.826
-26.086
-25.336
-24.578
-23.817
-23.058
-22.308
-21.572
-20.852
-20.15
-19.467
-18.803
-18.161
-17.541
-16.946
-16.379
-15.841
-15.337
-14.868
-14.439
-14.051
-13.704
-13.399
-13.134
-12.908
-12.72
-12.567
-12.447
-12.36
-12.303
-12.275
-12.275
-12.302
-12.354
-12.429
-12.527
-12.645
-12.783
-12.937
-13.107
-13.292
-13.492
-13.704
-13.929
-14.166
-14.411
-14.665
-14.925
-15.189
-15.453
-15.717
-15.978
-16.236
-16.491
-16.744
-16.993
-17.243
-17.494
-17.746
-18.0
-18.252
-18.5
-18.74
-18.969
-19.182
-19.374
-19.539
-19.674
-19.778
-19.85
-19.887
-19.883
-19.83
-19.721
-19.556
-19.335
-19.061
-18.733
-18.358
-17.948
-17.526
-17.113
-16.724
-16.362
-16.023
-15.704
-15.404
-15.122
-14.858
-14.596
-14.317
-14.01
-13.666
-13.28
-12.841
-12.316
-11.65
-10.798
-9.736
-8.454
-6.959
-5.249
-3.324
-1.2
1.094
3.498
5.954
8.419
10.863
13.255
15.557
17.699
19.587
21.149
22.334
23.106
23.437
23.29
22.629
21.448
19.779
17.683
15.223
12.443
9.383
6.087
2.606
-0.988
-4.609
-8.206
-11.732
-15.145
-18.409
-21.461
-24.247
-26.76
-29.019
-31.077
-32.982
-34.76
-36.471
-38.212
-40.006
-41.801
-43.464
-44.732
-45.389
-45.307
-44.314
-42.188
-38.871
-34.544
-29.653
-24.942
-21.103
-18.516
-17.46
-18.278
-21.132
-25.789
-31.543
-37.101
-40.558
-40.118
-34.522
-22.803
-5.841
14.189
35.799
58.262
83.561
114.81
153.404
198.178
243.197
280.942
303.314
301.81
272.24
213.338
127.756
23.261
-93.035
-216.536
-343.962
-471.723
-592.651
-694.264
-763.627
-794.895
-790.276
-758.683
-711.613
-655.197
-590.247
-517.26
-437.763
-356.564
-281.735
-218.128
-166.609
-126.492
-94.614
-69.441
-51.904
-41.756
-38.218
-39.197
-41.137
-41.502
-39.214
-34.101
-26.684
-17.592
-7.44
2.869
12.211
19.501
24.247
26.545
26.733
25.339
22.897
19.896
16.957
14.727
13.562
13.581
14.77
16.969
20.055
23.949
28.504
33.555
38.961
44.587
50.329
56.112
61.824
67.351
72.582
77.41
81.776
85.658
89.051
91.977
94.474
96.577
98.344
99.837
101.115
102.239
103.267
104.25
105.251
106.328
107.53
108.91
110.497
112.304
114.339
116.593
119.046
121.679
124.468
127.385
130.417
133.553
136.779
140.085
143.454
146.873
150.346
153.877
157.468
161.123
164.849
168.656
172.575
176.627
180.823
185.165
189.631
194.19
198.814
203.468
208.107
212.677
217.098
221.281
225.154
228.648
231.694
234.221
236.133
237.348
237.811
237.478
236.334
234.377
231.605
228.028
223.682
218.616
212.906
206.647
199.911
192.766
185.284
177.537
169.618
161.612
153.583
145.58
137.642
129.801
122.09
114.538
107.149
99.919
92.829
85.849
78.968
72.18
65.479
58.86
52.314
45.831
39.418
33.088
26.856
20.734
14.732
8.861
3.141
-2.404
-7.747
-12.86
-17.723
-22.324
-26.651
-30.695
-34.452
-37.917
-41.094
-43.994
-46.623
-48.989
-51.099
-52.961
-54.587
-55.989
-57.182
-58.181
-58.999
-59.65
-60.148
-60.507
-60.739
-60.857
-60.871
-60.791
-60.629
-60.395
-60.1
-59.755
-59.371
-58.957
-58.522
-58.076
-57.628
-57.185
-56.752
-56.337
-55.943
-55.576
-55.239
-54.934
-54.665
-54.432
-54.237
-54.08
-53.96
-53.875
-53.825
-53.806
-53.815
-53.848
-53.903
-53.975
-54.059
-54.151
-54.248
-54.345
-54.437
-54.522
-54.595
-54.652
-54.691
-54.708
-54.701
-54.667
-54.604
-54.511
-54.386
-54.228
-54.037
-53.813
-53.557
-53.268
-52.948
-52.599
-52.222
-51.821
-51.396
-50.953
-50.495
-50.026
-49.55
-49.072
-48.596
-48.128
-47.672
-47.233
-46.815
-46.421
-46.056
-45.722
-45.422
-45.16
-44.936
-44.752
-44.609
-44.508
-44.448
-44.429
-44.45
-44.509
-44.603
-44.732
-44.891
-45.077
-45.287
-45.516
-45.759
-46.011
-46.268
-46.522
-46.766
-46.995
-47.2
-47.375
-47.513
-47.608
-47.652
-47.641
-47.568
-47.431
-47.225
-46.947
-46.594
-46.164
-45.656
-45.067
-44.398
-43.648
-42.818
-41.91
-40.927
-39.876
-38.76
-37.585
-36.357
-35.082
-33.766
-32.416
-31.039
-29.64
-28.226
-26.809
-25.397
-24.005
-22.642
-21.311
-20.016
-18.755
-17.526
-16.325
-15.142
-13.967
-12.791
-11.609
-10.418
-9.222
-8.015
-6.793
-5.548
-4.267
-2.947
-1.594
-0.213
1.182
2.567
3.916
5.194
6.358
7.379
8.23
8.887
9.334
9.537
9.47
9.109
8.421
7.395
6.021
4.274
2.145
-0.36
-3.242
-6.455
-9.989
-13.893
-18.107
-22.486
-26.817
-30.746
-34.011
-36.511
-38.014
-38.214
-37.066
-34.719
-31.68
-28.848
-26.722
-25.39
-25.026
-25.856
-27.918
-30.926
-33.844
-35.139
-33.89
-29.749
-22.639
-11.741
4.026
24.481
49.066
74.945
98.853
121.156
141.69
161.784
184.446
207.047
226.298
237.36
230.137
199.232
142.651
60.448
-39.916
-152.273
-273.965
-400.711
-529.219
-652.224
-755.848
-827.765
-860.219
-852.79
-813.978
-754.475
-682.099
-601.098
-513.375
-421.784
-333.079
-255.843
-195.843
-154.484
-127.583
-108.253
-92.019
-77.037
-64.248
-55.399
-49.936
-46.034
-41.501
-34.587
-25.281
-14.39
-2.669
8.894
19.475
28.381
34.82
38.544
39.821
39.076
36.879
33.788
30.281
26.88
24.133
22.369
21.711
22.156
23.585
25.886
28.981
32.749
37.052
41.757
46.741
51.896
57.136
62.37
67.494
72.413
77.031
81.269
85.088
88.476
91.448
94.033
96.271
98.208
99.903
101.425
102.84
104.208
105.584
107.015
108.549
110.232
112.109
114.222
116.596
119.248
122.184
125.402
128.892
132.636
136.607
140.768
145.082
149.513
154.032
158.613
163.237
167.888
172.554
177.223
181.877
186.49
191.039
195.501
199.859
204.099
208.219
212.224
216.125
219.936
223.665
227.301
230.821
234.181
237.331
240.208
242.763
244.963
246.776
248.177
249.142
249.646
249.655
249.132
248.032
246.3
243.896
240.8
237.016
232.578
227.538
221.967
215.93
209.48
202.668
195.537
188.128
180.482
172.642
164.658
156.588
148.505
140.472
132.543
124.752
117.114
109.625
102.27
95.034
87.908
80.89
73.985
67.201
60.55
54.044
47.699
41.517
35.496
29.631
23.919
18.365
12.979
7.779
2.789
-1.971
-6.483
-10.733
-14.714
-18.423
-21.862
-25.037
-27.957
-30.629
-33.06
-35.255
-37.219
-38.958
-40.484
-41.808
-42.942
-43.901
-44.699
-45.351
-45.87
-46.269
-46.561
-46.756
-46.865
-46.897
-46.862
-46.773
-46.639
-46.472
-46.283
-46.081
-45.878
-45.682
-45.501
-45.344
-45.217
-45.126
-45.076
-45.071
-45.116
-45.214
-45.367
-45.577
-45.845
-46.173
-46.559
-47.003
-47.506
-48.063
-48.675
-49.337
-50.048
-50.803
-51.6
-52.433
-53.3
-54.196
-55.116
-56.055
-57.011
-57.976
-58.948
-59.921
-60.89
-61.853
-62.803
-63.738
-64.654
-65.548
-66.416
-67.257
-68.068
-68.846
-69.591
-70.3
-70.972
-71.607
-72.205
-72.763
-73.284
-73.765
-74.209
-74.615
-74.984
-75.317
-75.615
-75.88
-76.111
-76.312
-76.483
-76.626
-76.741
-76.829
-76.892
-76.929
-76.942
-76.93
-76.894
-76.833
-76.746
-76.634
-76.497
-76.332
-76.138
-75.915
-75.661
-75.374
-75.053
-74.695
-74.297
-73.859
-73.377
-72.85
-72.275
-71.65
-70.972
-70.239
-69.449
-68.599
-67.687
-66.713
-65.673
-64.568
-63.397
-62.159
-60.857
-59.491
-58.063
-56.575
-55.032
-53.437
-51.793
-50.104
-48.375
-46.611
-44.817
-42.997
-41.158
-39.305
-37.444
-35.583
-33.73
-31.889
-30.068
-28.273
-26.511
-24.791
-23.118
-21.496
-19.927
-18.418
-16.971
-15.596
-14.297
-13.069
-11.91
-10.817
-9.785
-8.81
-7.883
-6.984
-6.096
-5.206
-4.3
-3.377
-2.434
-1.456
-0.433
0.649
1.796
2.996
4.239
5.526
6.845
8.182
9.502
10.748
11.861
12.794
13.503
13.949
14.099
13.914
13.354
12.376
10.947
9.047
6.653
3.764
0.366
-3.578
-7.979
-12.652
-17.344
-21.674
-25.314
-28.099
-29.759
-29.949
-28.656
-26.0
-22.343
-18.572
-15.29
-12.669
-11.131
-11.157
-12.682
-15.463
-18.846
-20.662
-19.343
-14.78
-5.821
7.393
24.019
46.139
73.624
105.276
141.385
177.874
211.39
241.116
263.403
276.492
277.748
260.09
219.737
155.63
68.744
-34.288
-148.283
-271.113
-398.375
-525.079
-642.081
-735.48
-794.539
-813.123
-791.756
-737.377
-659.316
-568.095
-472.765
-382.016
-302.704
-237.313
-186.482
-147.037
-114.114
-85.883
-61.846
-43.315
-32.775
-29.752
-31.635
-35.259
-37.114
-35.62
-30.93
-23.477
-13.985
-3.251
7.851
18.188
26.573
32.434
35.827
37.044
36.57
34.912
32.535
30.029
28.032
26.93
26.852
27.795
29.622
32.21
35.496
39.361
43.664
48.286
53.119
58.082
63.117
68.152
73.095
77.859
82.355
86.505
90.271
93.639
96.618
99.233
101.514
103.5
105.236
106.779
108.184
109.504
110.783
112.064
113.39
114.805
116.356
118.084
120.016
122.167
124.543
127.145
129.97
133.012
136.258
139.689
143.288
147.039
150.928
154.941
159.061
163.267
167.539
171.854
176.191
180.528
184.845
189.118
193.326
197.445
201.455
205.334
209.059
212.609
215.96
219.088
221.971
224.59
226.922
228.95
230.654
232.019
233.031
233.678
233.948
233.834
233.327
232.423
231.118
229.412
227.304
224.798
221.896
218.607
214.937
210.896
206.496
201.75
196.672
191.28
185.59
179.621
173.394
166.93
160.251
153.38
146.341
139.157
131.854
124.457
116.991
109.481
101.951
94.427
86.932
79.489
72.122
64.852
57.699
50.684
43.826
37.141
30.645
24.355
18.283
12.441
6.84
1.488
-3.606
-8.437
-13.0
-17.292
-21.313
-25.061
-28.538
-31.747
-34.692
-37.379
-39.815
-42.006
-43.963
-45.695
-47.213
-48.528
-49.653
-50.6
-51.383
-52.014
-52.508
-52.879
-53.139
-53.304
-53.386
-53.398
-53.352
-53.262
-53.137
-52.989
-52.828
-52.663
-52.503
-52.355
-52.226
-52.123
-52.05
-52.013
-52.015
-52.059
-52.146
-52.279
-52.457
-52.681
-52.95
-53.262
-53.616
-54.009
-54.438
-54.901
-55.393
-55.911
-56.451
-57.009
-57.581
-58.162
-58.75
-59.341
-59.931
-60.519
-61.102
-61.678
-62.245
-62.804
-63.352
-63.891
-64.421
-64.941
-65.452
-65.957
-66.457
-66.953
-67.449
-67.947
-68.45
-68.96
-69.481
-70.015
-70.565
-71.135
-71.726
-72.341
-72.982
-73.652
-74.352
-75.082
-75.845
-76.639
-77.465
-78.321
-79.203
-80.109
-81.035
-81.975
-82.924
-83.875
-84.819
-85.751
-86.66
-87.54
-88.381
-89.175
-89.91
-90.576
-91.165
-91.665
-92.065
-92.35
-92.51
-92.53
-92.401
-92.111
-91.651
-91.01
-90.178
-89.148
-87.916
-86.476
-84.822
-82.943
-80.832
-78.487
-75.913
-73.121
-70.12
-66.92
-63.529
-59.964
-56.243
-52.383
-48.39
-44.261
-39.995
-35.599
-31.088
-26.487
-21.822
-17.107
-12.348
-7.547
-2.716
2.134
7.0
11.889
16.815
21.774
26.732
31.639
36.448
41.13
45.671
50.066
54.309
58.386
62.289
66.007
69.544
72.894
76.033
78.926
81.53
83.833
85.865
87.673
89.294
90.746
92.034
93.159
94.125
94.923
95.521
95.876
95.934
95.667
95.07
94.152
92.936
91.408
89.513
87.195
84.404
81.104
77.293
72.933
67.95
62.404
56.466
50.398
44.596
39.36
34.847
31.325
29.133
28.357
28.882
30.288
31.783
32.819
33.213
32.62
30.581
27.06
22.357
17.388
13.784
12.742
14.853
21.072
32.636
50.286
74.551
104.477
137.335
171.254
204.741
237.149
269.192
299.528
324.79
338.867
332.862
300.848
241.546
160.06
66.744
-30.781
-129.507
-231.526
-340.057
-451.842
-557.22
-642.162
-695.128
-712.572
-697.911
-659.111
-603.189
-535.041
-458.56
-378.509
-302.37
-236.45
-184.395
-145.809
-115.88
-90.918
-69.508
-52.093
-41.01
-36.483
-36.252
-37.424
-36.882
-33.163
-26.466
-17.357
-6.612
4.948
16.444
26.842
35.148
40.91
44.223
45.384
44.843
43.092
40.593
37.892
35.543
33.857
32.948
32.849
33.47
34.722
36.534
38.754
41.225
43.829
46.451
49.011
51.453
53.699
55.679
57.342
58.649
59.59
60.174
60.416
60.371
60.112
59.73
59.34
59.035
58.905
59.055
59.55
60.417
61.681
63.346
65.424
67.957
70.935
74.274
77.97
82.131
86.726
91.638
96.81
101.986
107.45
114.169
121.84
129.511
135.577
137.111
134.388
130.302
127.78
130.981
140.052
151.13
161.236
167.108
168.303
167.739
167.168
167.82
170.002
172.503
174.79
176.878
178.707
180.433
182.064
183.408
184.387
184.999
185.219
185.021
184.398
183.348
181.88
180.022
177.788
175.172
172.178
168.814
165.088
161.013
156.604
151.871
146.832
141.507
135.914
130.073
124.004
117.728
111.264
104.634
97.858
90.957
83.955
76.874
69.739
62.573
55.4
48.245
41.13
34.078
27.112
20.251
13.516
6.926
0.497
-5.753
-11.808
-17.655
-23.28
-28.672
-33.819
-38.712
-43.344
-47.708
-51.799
-55.614
-59.15
-62.407
-65.386
-68.087
-70.516
-72.675
-74.571
-76.211
-77.602
-78.754
-79.677
-80.38
-80.877
-81.179
-81.299
-81.25
-81.046
-80.699
-80.225
-79.636
-78.946
-78.168
-77.317
-76.403
-75.441
-74.442
-73.417
-72.379
-71.337
-70.3
-69.279
-68.28
-67.312
-66.38
-65.491
-64.648
-63.858
-63.121
-62.442
-61.821
-61.261
-60.761
-60.32
-59.939
-59.616
-59.35
-59.137
-58.975
-58.863
-58.796
-58.771
-58.784
-58.834
-58.915
-59.024
-59.158
-59.313
-59.486
-59.674
-59.874
-60.082
-60.297
-60.516
-60.736
-60.957
-61.176
-61.393
-61.606
-61.814
-62.018
-62.216
-62.408
-62.595
-62.776
-62.951
-63.119
-63.281
-63.436
-63.583
-63.721
-63.851
-63.97
-64.079
-64.175
-64.258
-64.325
-64.375
-64.406
-64.415
-64.4
-64.358
-64.286
-64.182
-64.042
-63.863
-63.643
-63.378
-63.065
-62.701
-62.283
-61.809
-61.275
-60.678
-60.018
-59.293
-58.501
-57.644
-56.721
-55.734
-54.686
-53.58
-52.418
-51.206
-49.947
-48.646
-47.308
-45.94
-44.546
-43.133
-41.709
-40.279
-38.854
-37.442
-36.05
-34.686
-33.358
-32.076
-30.848
-29.681
-28.58
-27.549
-26.595
-25.724
-24.944
-24.261
-23.674
-23.182
-22.782
-22.469
-22.237
-22.076
-21.963
-21.88
-21.809
-21.735
-21.653
-21.554
-21.426
-21.257
-21.032
-20.741
-20.395
-19.996
-19.546
-19.06
-18.556
-18.07
-17.665
-17.403
-17.341
-17.538
-18.034
-18.868
-20.077
-21.69
-23.748
-26.279
-29.293
-32.804
-36.797
-41.249
-46.169
-51.451
-56.884
-62.201
-67.002
-70.928
-73.794
-75.336
-75.232
-73.481
-70.209
-65.778
-61.072
-56.701
-52.885
-50.147
-48.97
-49.344
-51.268
-53.706
-54.194
-51.036
-42.962
-30.209
-15.242
0.194
14.912
31.108
54.407
88.859
137.774
198.147
258.577
306.813
328.414
312.525
259.732
176.404
74.251
-33.082
-140.225
-248.55
-361.296
-480.237
-598.808
-702.235
-774.912
-806.273
-794.803
-747.723
-676.887
-593.626
-506.231
-420.907
-341.753
-272.36
-215.476
-171.298
-138.155
-112.453
-91.456
-74.323
-61.282
-53.454
-50.132
-48.991
-47.545
-43.701
-36.925
-27.749
-16.878
-5.144
6.57
17.289
25.944
31.959
35.358
36.454
35.762
33.786
30.991
27.96
25.339
23.556
22.798
23.089
24.323
26.4
29.266
32.819
36.921
41.445
46.274
51.308
56.476
61.691
66.849
71.845
76.575
80.949
84.917
88.461
91.581
94.297
96.637
98.636
100.343
101.818
103.119
104.304
105.423
106.524
107.656
108.87
110.217
111.742
113.474
115.428
117.613
120.03
122.676
125.546
128.625
131.894
135.337
138.938
142.681
146.552
150.532
154.599
158.732
162.908
167.105
171.3
175.473
179.598
183.655
187.62
191.47
195.186
198.744
202.12
205.292
208.236
210.932
213.358
215.495
217.326
218.834
220.006
220.828
221.293
221.391
221.116
220.463
219.432
218.02
216.23
214.064
211.528
208.628
205.374
201.776
197.845
193.596
189.043
184.203
179.093
173.732
168.14
162.337
156.345
150.186
143.883
137.457
130.933
124.334
117.681
110.999
104.309
97.632
90.991
84.404
77.89
71.468
65.156
58.968
52.921
47.028
41.303
35.756
30.399
25.241
20.29
15.552
11.035
6.742
2.676
-1.16
-4.765
-8.138
-11.281
-14.196
-16.886
-19.354
-21.606
-23.647
-25.484
-27.124
-28.574
-29.844
-30.941
-31.876
-32.656
-33.293
-33.795
-34.173
-34.436
-34.594
-34.656
-34.633
-34.533
-34.366
-34.14
-33.863
-33.545
-33.191
-32.81
-32.408
-31.991
-31.565
-31.135
-30.705
-30.282
-29.867
-29.465
-29.078
-28.709
-28.359
-28.029
-27.72
-27.432
-27.164
-26.916
-26.688
-26.477
-26.283
-26.104
-25.939
-25.784
-25.639
-25.501
-25.368
-25.239
-25.109
-24.979
-24.845
-24.706
-24.561
-24.408
-24.248
-24.08
-23.903
-23.718
-23.524
-23.324
-23.116
-22.902
-22.684
-22.462
-22.239
-22.016
-21.796
-21.58
-21.372
-21.174
-20.986
-20.812
-20.653
-20.511
-20.386
-20.281
-20.194
-20.128
-20.083
-20.059
-20.058
-20.08
-20.127
-20.198
-20.294
-20.413
-20.554
-20.712
-20.884
-21.062
-21.242
-21.417
-21.584
-21.736
-21.867
-21.974
-22.054
-22.102
-22.113
-22.08
-21.993
-21.845
-21.634
-21.361
-21.031
-20.653
-20.236
-19.787
-19.321
-18.844
-18.36
-17.867
-17.35
-16.796
-16.2
-15.562
-14.892
-14.201
-13.486
-12.742
-11.962
-11.125
-10.218
-9.225
-8.114
-6.87
-5.494
-3.999
-2.422
-0.81
0.813
2.43
4.039
5.648
7.243
8.807
10.327
11.772
13.115
14.328
15.358
16.168
16.754
17.118
17.293
17.334
17.254
17.057
16.744
16.285
15.668
14.896
13.952
12.832
11.531
10.046
8.391
6.582
4.614
2.475
0.12
-2.517
-5.467
-8.745
-12.339
-16.226
-20.435
-24.911
-29.51
-34.004
-38.032
-41.272
-43.546
-44.602
-44.121
-42.107
-38.713
-34.343
-29.936
-26.187
-23.469
-22.387
-23.391
-26.328
-30.85
-36.008
-39.92
-41.244
-38.998
-31.633
-18.038
2.298
29.81
63.103
98.939
135.001
168.838
199.217
227.697
253.081
271.627
276.553
256.886
206.912
128.253
28.462
-79.623
-188.382
-298.088
-410.748
-526.769
-638.804
-730.553
-787.622
-804.202
-783.275
-737.22
-678.085
-610.25
-535.73
-454.299
-368.171
-287.123
-219.193
-168.927
-136.478
-114.585
-97.605
-83.204
-70.908
-63.239
-60.449
-60.252
-60.161
-57.745
-52.264
-44.316
-34.605
-23.948
-13.229
-3.381
4.545
10.007
13.077
14.073
13.503
11.871
9.619
7.319
5.607
4.855
5.191
6.606
8.949
12.101
15.995
20.496
25.443
30.698
36.131
41.646
47.181
52.636
57.903
62.879
67.456
71.576
75.219
78.378
81.074
83.338
85.206
86.731
87.978
89.004
89.872
90.64
91.358
92.088
92.891
93.818
94.925
96.245
97.796
99.586
101.611
103.855
106.304
108.936
111.727
114.662
117.725
120.904
124.188
127.561
131.011
134.535
138.136
141.82
145.596
149.475
153.474
157.621
161.937
166.432
171.11
175.959
180.96
186.083
191.293
196.553
201.807
206.987
212.013
216.796
221.251
225.298
228.85
231.813
234.104
235.656
236.419
236.364
235.473
233.742
231.18
227.808
223.667
218.817
213.334
207.31
200.83
193.972
186.822
179.471
172.0
164.481
156.973
149.518
142.152
134.907
127.806
120.863
114.081
107.45
100.95
94.551
88.233
81.981
75.782
69.621
63.492
57.39
51.319
45.296
39.334
33.445
27.644
21.947
16.373
10.947
5.695
0.645
-4.181
-8.765
-13.093
-17.154
-20.941
-24.449
-27.68
-30.64
-33.335
-35.77
-37.95
-39.882
-41.575
-43.037
-44.281
-45.318
-46.16
-46.818
-47.304
-47.63
-47.807
-47.846
-47.758
-47.552
-47.241
-46.833
-46.341
-45.775
-45.148
-44.468
-43.746
-42.993
-42.218
-41.432
-40.644
-39.863
-39.099
-38.358
-37.649
-36.98
-36.353
-35.774
-35.243
-34.762
-34.329
-33.947
-33.614
-33.33
-33.093
-32.903
-32.76
-32.661
-32.604
-32.581
-32.583
-32.599
-32.629
-32.67
-32.726
-32.804
-32.91
-33.048
-33.23
-33.461
-33.739
-34.058
-34.397
-34.738
-35.068
-35.383
-35.688
-35.987
-36.27
-36.528
-36.749
-36.91
-36.991
-36.97
-36.808
-36.482
-35.989
-35.342
-34.581
-33.756
-32.9
-32.036
-31.181
-30.344
-29.548
-28.82
-28.176
-27.646
-27.262
-27.06
-27.103
-27.435
-28.065
-28.986
-30.154
-31.509
-33.009
-34.621
-36.311
-38.057
-39.831
-41.603
-43.357
-45.072
-46.717
-48.254
-49.623
-50.773
-51.685
-52.353
-52.795
-53.047
-53.13
-53.059
-52.857
-52.533
-52.098
-51.559
-50.909
-50.144
-49.269
-48.297
-47.253
-46.161
-45.034
-43.876
-42.687
-41.458
-40.187
-38.871
-37.505
-36.089
-34.629
-33.136
-31.631
-30.136
-28.665
-27.227
-25.826
-24.461
-23.134
-21.839
-20.566
-19.308
-18.06
-16.821
-15.603
-14.413
-13.254
-12.126
-11.019
-9.929
-8.859
-7.812
-6.793
-5.816
-4.891
-4.049
-3.334
-2.789
-2.445
-2.322
-2.409
-2.705
-3.208
-3.918
-4.842
-5.977
-7.315
-8.852
-10.594
-12.536
-14.657
-16.925
-19.288
-21.706
-24.154
-26.632
-29.133
-31.668
-34.29
-36.952
-39.54
-41.89
-43.688
-44.658
-44.674
-43.514
-40.902
-36.91
-31.769
-25.931
-20.364
-15.757
-12.332
-10.543
-10.885
-13.22
-17.188
-22.023
-25.42
-25.607
-22.35
-14.501
-2.241
13.524
34.782
61.898
94.157
131.296
168.944
202.602
230.013
248.755
257.731
254.765
234.162
190.715
122.997
34.497
-66.45
-172.266
-280.429
-391.485
-505.86
-618.315
-716.059
-784.911
-814.991
-805.234
-763.81
-701.887
-628.205
-547.297
-460.927
-371.362
-284.636
-209.074
-150.607
-111.245
-87.35
-72.054
-60.647
-50.949
-43.582
-40.212
-40.29
-41.899
-42.713
-40.817
-36.026
-29.036
-20.564
-11.616
-3.039
4.43
9.964
13.297
14.65
14.411
13.128
11.348
9.532
8.162
7.7
8.359
10.166
13.041
16.807
21.315
26.437
32.013
37.877
43.891
49.94
55.915
61.72
67.249
72.386
77.055
81.213
84.84
87.944
90.547
92.683
94.4
95.762
96.829
97.661
98.317
98.853
99.329
99.811
100.363
101.044
101.9
102.961
104.251
105.788
107.584
109.641
111.952
114.502
117.278
120.265
123.45
126.812
130.322
133.947
137.66
141.439
145.272
149.144
153.038
156.938
160.821
164.679
168.515
172.327
176.108
179.854
183.563
187.245
190.932
194.639
198.368
202.109
205.831
209.506
213.11
216.61
219.971
223.147
226.079
228.718
231.021
232.94
234.42
235.387
235.748
235.427
234.372
232.545
229.938
226.548
222.377
217.445
211.782
205.426
198.422
190.814
182.646
173.98
164.889
155.469
145.84
136.118
126.41
116.81
107.394
98.223
89.349
80.813
72.651
64.899
57.598
50.783
44.476
38.69
33.423
28.65
24.33
20.409
16.815
13.491
10.396
7.494
4.767
2.195
-0.248
-2.587
-4.859
-7.091
-9.305
-11.519
-13.745
-15.982
-18.222
-20.436
-22.578
-24.617
-26.532
-28.311
-29.954
-31.46
-32.822
-34.039
-35.107
-36.025
-36.795
-37.419
-37.895
-38.23
-38.437
-38.537
-38.563
-38.538
-38.479
-38.399
-38.305
-38.204
-38.104
-38.007
-37.912
-37.82
-37.73
-37.645
-37.568
-37.5
-37.439
-37.381
-37.32
-37.251
-37.171
-37.078
-36.968
-36.84
-36.694
-36.529
-36.347
-36.151
-35.939
-35.712
-35.468
-35.207
-34.929
-34.633
-34.319
-33.985
-33.632
-33.261
-32.874
-32.471
-32.055
-31.627
-31.189
-30.744
-30.294
-29.842
-29.39
-28.941
-28.499
-28.065
-27.644
-27.238
-26.851
-26.486
-26.147
-25.835
-25.554
-25.307
-25.094
-24.919
-24.784
-24.689
-24.639
-24.633
-24.675
-24.765
-24.905
-25.096
-25.339
-25.634
-25.978
-26.372
-26.813
-27.298
-27.824
-28.388
-28.986
-29.614
-30.27
-30.951
-31.652
-32.37
-33.102
-33.843
-34.588
-35.33
-36.062
-36.775
-37.462
-38.116
-38.731
-39.302
-39.823
-40.289
-40.697
-41.045
-41.329
-41.542
-41.675
-41.72
-41.676
-41.546
-41.337
-41.059
-40.722
-40.335
-39.917
-39.478
-39.025
-38.558
-38.064
-37.53
-36.953
-36.334
-35.687
-35.022
-34.337
-33.626
-32.882
-32.089
-31.237
-30.308
-29.263
-28.076
-26.742
-25.27
-23.696
-22.062
-20.382
-18.667
-16.918
-15.13
-13.323
-11.514
-9.71
-7.931
-6.196
-4.538
-3.026
-1.714
-0.625
0.233
0.88
1.339
1.586
1.591
1.324
0.735
-0.2
-1.511
-3.248
-5.433
-8.093
-11.242
-14.853
-18.912
-23.434
-28.407
-33.855
-39.82
-46.193
-52.786
-59.351
-65.513
-70.96
-75.5
-78.845
-80.642
-80.814
-79.501
-77.103
-74.335
-71.69
-69.263
-67.238
-66.041
-65.819
-66.38
-67.062
-66.161
-61.925
-53.588
-40.785
-24.336
-6.103
12.846
32.393
54.871
83.613
121.004
167.371
216.781
260.906
290.343
294.648
269.953
216.71
139.631
48.879
-48.26
-148.626
-252.859
-364.772
-484.307
-604.102
-711.753
-793.332
-838.39
-845.443
-819.401
-767.441
-698.672
-619.484
-534.554
-450.928
-374.156
-307.866
-254.414
-211.278
-174.142
-141.179
-111.691
-86.849
-69.211
-58.861
-53.792
-51.583
-49.365
-45.281
-39.09
-31.067
-21.606
-11.274
-0.78
9.217
17.918
24.557
28.978
31.351
31.954
31.269
29.756
27.789
25.828
24.306
23.429
23.283
23.845
24.981
26.594
28.604
30.896
33.36
35.908
38.482
41.049
43.604
46.137
48.64
51.112
53.57
56.028
58.493
60.991
63.556
66.22
69.019
71.984
75.135
78.488
82.046
85.792
89.691
93.708
97.81
101.963
106.129
110.276
114.379
118.413
122.363
126.22
129.976
133.628
137.171
140.61
143.954
147.224
150.456
153.669
156.867
160.052
163.224
166.388
169.554
172.718
175.866
178.984
182.052
185.063
188.021
190.919
193.745
196.483
199.113
201.637
204.079
206.456
208.785
211.066
213.277
215.406
217.446
219.38
221.19
222.837
224.253
225.39
226.208
226.66
226.709
226.295
225.328
223.739
221.462
218.447
214.683
210.152
204.84
198.755
191.909
184.343
176.14
167.364
158.079
148.364
138.288
127.946
117.462
106.953
96.534
86.324
76.409
66.873
57.802
49.258
41.308
33.991
27.31
21.272
15.881
11.125
6.996
3.473
0.498
-1.986
-4.044
-5.762
-7.2
-8.415
-9.471
-10.416
-11.308
-12.192
-13.088
-14.013
-14.981
-16.0
-17.081
-18.232
-19.437
-20.675
-21.922
-23.135
-24.289
-25.367
-26.347
-27.216
-27.957
-28.557
-29.017
-29.346
-29.551
-29.64
-29.619
-29.494
-29.281
-29.0
-28.67
-28.319
-27.964
-27.618
-27.294
-27.003
-26.752
-26.548
-26.393
-26.283
-26.214
-26.186
-26.198
-26.249
-26.335
-26.452
-26.593
-26.753
-26.929
-27.116
-27.312
-27.512
-27.715
-27.919
-28.124
-28.329
-28.534
-28.737
-28.937
-29.132
-29.321
-29.504
-29.678
-29.842
-29.997
-30.142
-30.276
-30.4
-30.514
-30.618
-30.714
-30.803
-30.885
-30.963
-31.038
-31.113
-31.19
-31.271
-31.357
-31.452
-31.557
-31.673
-31.802
-31.945
-32.103
-32.278
-32.47
-32.681
-32.909
-33.157
-33.423
-33.708
-34.009
-34.326
-34.657
-35.0
-35.351
-35.708
-36.07
-36.432
-36.795
-37.155
-37.509
-37.854
-38.188
-38.505
-38.799
-39.063
-39.29
-39.472
-39.602
-39.675
-39.686
-39.628
-39.499
-39.297
-39.02
-38.664
-38.227
-37.698
-37.071
-36.348
-35.532
-34.629
-33.653
-32.613
-31.519
-30.39
-29.238
-28.072
-26.892
-25.687
-24.448
-23.17
-21.858
-20.527
-19.187
-17.837
-16.471
-15.087
-13.672
-12.221
-10.718
-9.129
-7.429
-5.617
-3.7
-1.712
0.309
2.349
4.4
6.46
8.524
10.569
12.574
14.531
16.425
18.239
19.944
21.477
22.789
23.863
24.692
25.289
25.675
25.832
25.738
25.382
24.749
23.837
22.64
21.127
19.258
17.004
14.357
11.34
7.992
4.316
0.302
-4.053
-8.763
-13.792
-19.061
-24.54
-30.213
-35.975
-41.663
-46.998
-51.539
-54.934
-56.924
-57.188
-55.527
-51.948
-46.591
-39.996
-33.011
-26.329
-20.641
-16.646
-14.626
-14.509
-15.875
-17.564
-18.166
-16.341
-10.369
1.357
19.917
45.415
76.505
111.008
146.485
181.785
216.953
250.886
281.132
301.55
302.331
275.525
216.831
128.311
18.876
-102.245
-228.568
-356.847
-485.518
-609.108
-716.956
-796.552
-837.751
-838.601
-804.673
-744.522
-668.26
-582.979
-493.658
-407.159
-329.107
-263.735
-213.639
-176.438
-147.536
-124.034
-104.169
-88.247
-77.906
-72.39
-69.314
-65.987
-59.992
-50.681
-38.677
-24.875
-10.236
4.284
17.618
28.646
36.718
41.779
44.134
44.317
42.87
40.298
37.206
34.245
31.852
30.24
29.479
29.508
30.24
31.61
33.515
35.819
38.424
41.241
44.193
47.236
50.31
53.355
56.328
59.178
61.856
64.332
66.588
68.629
70.512
72.302
74.049
75.808
77.62
79.53
81.583
83.81
86.216
88.779
91.481
94.319
97.301
100.432
103.707
107.099
110.564
114.066
117.58
121.086
124.566
127.999
131.369
134.675
137.94
141.202
144.485
147.798
151.139
154.499
157.876
161.274
164.693
168.124
171.55
174.956
178.325
181.645
184.898
188.053
191.071
193.908
196.528
198.904
201.013
202.835
204.35
205.54
206.392
206.901
207.062
206.87
206.317
205.399
204.115
202.467
200.462
198.108
195.414
192.387
189.038
185.378
181.42
177.177
172.661
167.886
162.866
157.621
152.168
146.529
140.723
134.772
128.698
122.523
116.27
109.961
103.617
97.258
90.906
84.581
78.302
72.089
65.957
59.926
54.011
48.226
42.587
37.106
31.795
26.664
21.723
16.98
12.443
8.118
4.008
0.119
-3.549
-6.993
-10.213
-13.212
-15.992
-18.555
-20.908
-23.054
-25.001
-26.754
-28.323
-29.713
-30.934
-31.994
-32.902
-33.667
-34.297
-34.802
-35.19
-35.471
-35.654
-35.747
-35.759
-35.698
-35.571
-35.388
-35.154
-34.876
-34.563
-34.218
-33.849
-33.46
-33.055
-32.64
-32.217
-31.789
-31.36
-30.931
-30.505
-30.083
-29.667
-29.258
-28.858
-28.466
-28.084
-27.712
-27.351
-27.0
-26.662
-26.335
-26.02
-25.718
-25.43
-25.155
-24.894
-24.648
-24.418
-24.203
-24.005
-23.822
-23.658
-23.511
-23.383
-23.275
-23.188
-23.125
-23.085
-23.072
-23.086
-23.129
-23.201
-23.303
-23.436
-23.601
-23.799
-24.031
-24.296
-24.596
-24.932
-25.303
-25.711
-26.154
-26.632
-27.145
-27.692
-28.271
-28.881
-29.521
-30.191
-30.888
-31.611
-32.359
-33.13
-33.922
-34.731
-35.555
-36.389
-37.23
-38.073
-38.913
-39.747
-40.571
-41.381
-42.175
-42.95
-43.703
-44.432
-45.134
-45.805
-46.44
-47.032
-47.575
-48.063
-48.491
-48.854
-49.147
-49.368
-49.514
-49.586
-49.583
-49.504
-49.345
-49.1
-48.764
-48.337
-47.823
-47.226
-46.557
-45.83
-45.062
-44.272
-43.477
-42.686
-41.9
-41.113
-40.319
-39.508
-38.679
-37.838
-36.987
-36.128
-35.262
-34.386
-33.49
-32.554
-31.547
-30.429
-29.171
-27.752
-26.17
-24.438
-22.573
-20.607
-18.566
-16.467
-14.329
-12.166
-9.988
-7.809
-5.648
-3.536
-1.528
0.307
1.913
3.234
4.23
4.886
5.183
5.129
4.734
4.0
2.924
1.496
-0.302
-2.493
-5.083
-8.067
-11.417
-15.095
-19.075
-23.311
-27.777
-32.429
-37.229
-42.209
-47.315
-52.412
-57.291
-61.595
-64.974
-67.229
-68.106
-67.263
-64.701
-60.618
-55.45
-50.182
-45.623
-42.144
-40.235
-40.439
-42.788
-46.939
-52.035
-55.796
-55.767
-51.024
-40.888
-25.681
-7.586
13.532
38.809
68.744
105.777
149.309
195.433
239.966
275.861
296.203
295.066
266.668
209.691
127.469
27.587
-80.045
-189.635
-300.161
-412.795
-527.909
-638.874
-733.607
-800.819
-832.119
-827.431
-792.498
-733.013
-657.185
-571.356
-482.01
-398.825
-326.61
-267.873
-221.935
-182.714
-147.325
-115.178
-86.736
-65.372
-52.226
-45.598
-43.213
-41.769
-38.772
-33.645
-26.539
-17.882
-8.175
2.022
12.061
21.07
28.039
32.576
34.793
34.963
33.584
31.153
28.098
24.976
22.408
20.757
20.175
20.678
22.13
24.419
27.472
31.163
35.342
39.878
44.646
49.545
54.505
59.447
64.275
68.895
73.215
77.155
80.676
83.773
86.459
88.764
90.726
92.388
93.806
95.042
96.16
97.214
98.256
99.328
100.478
101.754
103.201
104.863
106.766
108.922
111.337
114.009
116.933
120.098
123.489
127.084
130.862
134.804
138.894
143.112
147.439
151.85
156.321
160.825
165.338
169.834
174.29
178.678
182.974
187.153
191.191
195.065
198.751
202.226
205.464
208.443
211.141
213.537
215.611
217.347
218.727
219.739
220.37
220.612
220.458
219.903
218.943
217.578
215.809
213.638
211.073
208.118
204.785
201.084
197.029
192.634
187.916
182.894
177.587
172.015
166.202
160.169
153.942
147.543
140.998
134.333
127.572
120.742
113.867
106.973
100.083
93.223
86.415
79.682
73.043
66.52
60.131
53.894
47.825
41.94
36.251
30.773
25.515
20.488
15.699
11.155
6.862
2.823
-0.959
-4.484
-7.753
-10.767
-13.528
-16.042
-18.314
-20.349
-22.156
-23.743
-25.118
-26.291
-27.274
-28.075
-28.708
-29.182
-29.51
-29.704
-29.774
-29.732
-29.59
-29.36
-29.052
-28.677
-28.246
-27.769
-27.255
-26.715
-26.156
-25.587
-25.015
-24.447
-23.89
-23.349
-22.828
-22.333
-21.868
-21.434
-21.035
-20.672
-20.347
-20.061
-19.813
-19.603
-19.431
-19.295
-19.194
-19.126
-19.09
-19.084
-19.105
-19.151
-19.22
-19.309
-19.415
-19.535
-19.668
-19.81
-19.959
-20.113
-20.269
-20.425
-20.58
-20.732
-20.879
-21.021
-21.157
-21.286
-21.407
-21.52
-21.626
-21.726
-21.819
-21.907
-21.991
-22.073
-22.153
-22.234
-22.315
-22.4
-22.487
-22.58
-22.678
-22.784
-22.897
-23.018
-23.15
-23.291
-23.443
-23.606
-23.78
-23.964
-24.158
-24.361
-24.572
-24.789
-25.01
-25.235
-25.459
-25.681
-25.898
-26.106
-26.301
-26.48
-26.638
-26.771
-26.874
-26.944
-26.977
-26.969
-26.916
-26.817
-26.668
-26.47
-26.22
-25.918
-25.562
-25.153
-24.69
-24.173
-23.604
-22.982
-22.309
-21.588
-20.822
-20.016
-19.174
-18.3
-17.4
-16.479
-15.543
-14.597
-13.649
-12.703
-11.765
-10.844
-9.947
-9.086
-8.269
-7.497
-6.773
-6.093
-5.456
-4.856
-4.287
-3.733
-3.184
-2.629
-2.061
-1.476
-0.869
-0.231
0.448
1.181
1.977
2.831
3.737
4.684
5.649
6.617
7.558
8.418
9.153
9.722
10.075
10.183
10.01
9.507
8.643
7.38
5.687
3.539
0.915
-2.197
-5.791
-9.852
-14.365
-19.297
-24.532
-29.878
-35.07
-39.798
-43.796
-46.873
-48.777
-49.186
-48.055
-45.575
-42.144
-38.422
-34.846
-31.567
-28.912
-27.316
-26.842
-27.277
-27.932
-27.67
-25.288
-19.4
-8.797
7.218
27.353
48.377
67.819
85.444
104.439
130.174
165.649
208.37
251.124
284.189
297.239
283.751
241.306
169.879
75.046
-36.538
-159.486
-286.538
-412.807
-531.637
-632.562
-707.93
-752.095
-764.395
-750.634
-716.159
-664.939
-600.689
-525.806
-445.688
-369.024
-301.884
-247.957
-206.782
-173.158
-143.898
-117.957
-95.629
-79.477
-70.151
-65.812
-64.198
-62.484
-58.734
-52.684
-44.676
-35.216
-24.882
-14.332
-4.222
4.691
11.628
16.364
19.067
20.015
19.672
18.503
16.88
15.258
14.098
13.646
14.01
15.193
17.058
19.478
22.344
25.517
28.859
32.265
35.637
38.898
41.992
44.868
47.488
49.838
51.913
53.703
55.206
56.447
57.485
58.414
59.332
60.324
61.464
62.812
64.426
66.36
68.654
71.319
74.346
77.704
81.349
85.256
89.404
93.759
98.275
102.885
107.522
112.141
116.706
121.187
125.556
129.786
133.856
137.772
141.548
145.208
148.788
152.301
155.757
159.162
162.522
165.847
169.143
172.402
175.607
178.74
181.784
184.724
187.542
190.209
192.69
194.949
196.949
198.658
200.054
201.112
201.815
202.147
202.097
201.66
200.836
199.625
198.029
196.047
193.682
190.941
187.833
184.368
180.56
176.421
171.966
167.209
162.168
156.859
151.299
145.508
139.502
133.302
126.93
120.408
113.76
107.011
100.183
93.302
86.393
79.48
72.587
65.735
58.947
52.244
45.646
39.171
32.838
26.664
20.663
14.851
9.241
3.845
-1.327
-6.266
-10.963
-15.413
-19.61
-23.55
-27.233
-30.656
-33.821
-36.729
-39.384
-41.79
-43.954
-45.882
-47.583
-49.065
-50.339
-51.415
-52.303
-53.016
-53.565
-53.962
-54.218
-54.346
-54.356
-54.261
-54.071
-53.797
-53.449
-53.037
-52.57
-52.058
-51.508
-50.929
-50.328
-49.712
-49.085
-48.454
-47.823
-47.196
-46.577
-45.967
-45.37
-44.786
-44.217
-43.663
-43.124
-42.6
-42.09
-41.594
-41.11
-40.638
-40.177
-39.725
-39.282
-38.847
-38.42
-38.001
-37.59
-37.188
-36.794
-36.411
-36.04
-35.682
-35.34
-35.014
-34.706
-34.42
-34.157
-33.92
-33.709
-33.529
-33.379
-33.264
-33.185
-33.142
-33.139
-33.175
-33.253
-33.373
-33.533
-33.735
-33.976
-34.255
-34.574
-34.929
-35.319
-35.742
-36.194
-36.67
-37.167
-37.682
-38.202
-38.715
-39.21
-39.677
-40.111
-40.514
-40.872
-41.168
-41.417
-41.626
-41.803
-41.954
-42.059
-42.081
-42.032
-41.945
-41.75
-41.361
-40.831
-40.157
-39.329
-38.54
-37.302
-35.129
-32.704
-30.228
-28.966
-30.438
-32.99
-35.525
-36.393
-33.311
-28.291
-23.052
-18.764
-17.365
-17.472
-17.668
-17.648
-16.593
-15.021
-13.593
-12.191
-10.877
-9.6
-8.23
-6.859
-5.577
-4.373
-3.238
-2.188
-1.235
-0.396
0.293
0.84
1.294
1.667
1.963
2.17
2.236
2.13
1.846
1.383
0.743
-0.073
-1.08
-2.281
-3.657
-5.193
-6.88
-8.729
-10.793
-13.101
-15.636
-18.375
-21.268
-24.274
-27.403
-30.657
-33.985
-37.376
-40.836
-44.279
-47.605
-50.612
-52.918
-54.215
-54.273
-52.8
-49.626
-44.832
-38.635
-31.631
-24.7
-18.498
-13.633
-10.71
-9.949
-11.23
-14.069
-17.244
-19.293
-18.892
-14.47
-4.608
11.723
34.71
63.009
94.459
126.705
158.491
190.561
222.741
252.27
273.201
274.809
247.677
189.39
103.023
-1.315
-112.238
-225.915
-341.141
-456.812
-569.741
-667.835
-737.281
-770.909
-768.102
-737.361
-691.156
-637.029
-578.579
-515.901
-447.431
-374.865
-301.779
-232.408
-171.092
-120.12
-80.244
-51.258
-31.811
-20.371
-15.466
-15.042
-17.066
-19.686
-21.072
-20.319
-17.362
-12.366
-5.782
1.623
9.112
15.829
20.828
23.788
24.844
24.266
22.554
20.214
17.671
15.458
14.107
13.864
14.785
16.808
19.747
23.464
27.851
32.745
37.975
43.395
48.879
54.336
59.696
64.868
69.753
74.258
78.322
81.921
85.059
87.757
90.048
91.97
93.574
94.923
96.075
97.091
98.027
98.928
99.846
100.832
101.932
103.193
104.647
106.312
108.198
110.311
112.653
115.222
118.007
120.99
124.149
127.461
130.898
134.434
138.036
141.674
145.325
148.969
152.595
156.197
159.767
163.291
166.749
170.121
173.39
176.542
179.569
182.47
185.251
187.925
190.512
193.019
195.444
197.764
199.941
201.926
203.662
205.104
206.221
206.986
207.376
207.369
206.943
206.067
204.708
202.821
200.355
197.273
193.558
189.218
184.291
178.83
172.912
166.604
159.962
153.042
145.886
138.538
131.04
123.439
115.783
108.132
100.558
93.125
85.886
78.873
72.099
65.56
59.235
53.108
47.166
41.402
35.819
30.421
25.214
20.206
15.406
10.813
6.416
2.205
-1.831
-5.694
-9.381
-12.88
-16.177
-19.258
-22.112
-24.733
-27.12
-29.277
-31.211
-32.934
-34.459
-35.8
-36.966
-37.965
-38.806
-39.496
-40.048
-40.473
-40.785
-40.996
-41.121
-41.172
-41.161
-41.096
-40.987
-40.84
-40.66
-40.451
-40.217
-39.963
-39.693
-39.41
-39.118
-38.818
-38.514
-38.207
-37.897
-37.586
-37.273
-36.957
-36.637
-36.314
-35.987
-35.654
-35.316
-34.971
-34.621
-34.264
-33.902
-33.533
-33.159
-32.779
-32.395
-32.007
-31.616
-31.224
-30.833
-30.444
-30.061
-29.685
-29.319
-28.967
-28.632
-28.317
-28.026
-27.762
-27.528
-27.327
-27.162
-27.037
-26.953
-26.914
-26.919
-26.971
-27.069
-27.213
-27.403
-27.636
-27.91
-28.223
-28.572
-28.952
-29.361
-29.792
-30.242
-30.704
-31.175
-31.646
-32.113
-32.567
-33.004
-33.415
-33.794
-34.134
-34.427
-34.667
-34.847
-34.96
-35.0
-34.962
-34.839
-34.627
-34.323
-33.923
-33.427
-32.834
-32.144
-31.359
-30.484
-29.522
-28.477
-27.355
-26.162
-24.905
-23.591
-22.228
-20.824
-19.388
-17.929
-16.46
-14.989
-13.528
-12.086
-10.673
-9.299
-7.977
-6.716
-5.522
-4.401
-3.362
-2.413
-1.563
-0.819
-0.179
0.359
0.795
1.136
1.384
1.549
1.652
1.707
1.732
1.739
1.732
1.719
1.715
1.734
1.792
1.897
2.04
2.213
2.42
2.653
2.899
3.131
3.296
3.344
3.233
2.926
2.388
1.592
0.504
-0.912
-2.69
-4.863
-7.44
-10.436
-13.856
-17.717
-22.06
-26.817
-31.811
-36.789
-41.39
-45.287
-48.276
-50.061
-50.261
-48.81
-45.842
-41.765
-37.488
-33.691
-30.726
-29.204
-29.69
-32.202
-36.514
-41.73
-46.034
-48.144
-46.987
-40.888
-28.521
-8.906
18.13
50.687
86.071
122.18
158.06
194.635
232.042
267.292
293.806
300.526
277.455
221.455
135.931
31.581
-79.961
-194.66
-312.512
-434.061
-556.45
-666.756
-748.738
-792.6
-796.179
-767.918
-721.777
-666.59
-606.963
-543.335
-473.501
-398.996
-323.64
-252.021
-189.259
-138.133
-99.278
-72.259
-55.367
-46.609
-44.247
-45.991
-49.535
-52.876
-54.186
-52.63
-48.3
-41.585
-33.114
-23.805
-14.531
-6.22
0.172
4.327
6.395
6.696
5.774
4.163
2.32
0.786
0.07
0.405
1.847
4.327
7.668
11.735
16.417
21.559
27.007
32.628
38.312
43.976
49.545
54.931
60.038
64.77
69.067
72.905
76.28
79.214
81.74
83.895
85.733
87.317
88.705
89.955
91.12
92.246
93.385
94.588
95.901
97.374
99.044
100.933
103.062
105.442
108.067
110.932
114.017
117.294
120.739
124.327
128.03
131.825
135.693
139.619
143.598
147.624
151.685
155.763
159.831
163.86
167.837
171.75
175.588
179.355
183.05
186.672
190.238
193.753
197.197
200.543
203.735
206.705
209.407
211.804
213.87
215.587
216.925
217.854
218.353
218.389
217.932
216.945
215.371
213.17
210.334
206.878
202.849
198.317
193.333
187.941
182.186
176.1
169.725
163.104
156.265
149.245
142.087
134.844
127.59
120.39
113.281
106.289
99.412
92.633
85.949
79.36
72.862
66.46
60.162
53.974
47.916
42.009
36.262
30.679
25.253
19.975
14.847
9.88
5.089
0.498
-3.876
-8.021
-11.919
-15.561
-18.94
-22.055
-24.912
-27.521
-29.889
-32.02
-33.92
-35.59
-37.037
-38.27
-39.3
-40.137
-40.794
-41.282
-41.616
-41.81
-41.875
-41.823
-41.663
-41.404
-41.055
-40.626
-40.126
-39.564
-38.949
-38.293
-37.603
-36.89
-36.162
-35.428
-34.695
-33.97
-33.26
-32.571
-31.907
-31.274
-30.675
-30.113
-29.593
-29.115
-28.683
-28.297
-27.959
-27.668
-27.426
-27.232
-27.085
-26.984
-26.929
-26.917
-26.947
-27.017
-27.126
-27.27
-27.45
-27.662
-27.906
-28.178
-28.478
-28.804
-29.152
-29.522
-29.91
-30.315
-30.734
-31.167
-31.61
-32.063
-32.525
-32.994
-33.47
-33.951
-34.438
-34.927
-35.42
-35.913
-36.405
-36.895
-37.381
-37.862
-38.337
-38.805
-39.265
-39.719
-40.165
-40.605
-41.036
-41.457
-41.864
-42.254
-42.622
-42.963
-43.271
-43.543
-43.776
-43.965
-44.11
-44.211
-44.264
-44.271
-44.225
-44.12
-43.952
-43.718
-43.421
-43.063
-42.653
-42.204
-41.729
-41.244
-40.761
-40.289
-39.827
-39.368
-38.903
-38.42
-37.918
-37.4
-36.87
-36.326
-35.765
-35.183
-34.567
-33.9
-33.156
-32.296
-31.293
-30.132
-28.813
-27.352
-25.77
-24.095
-22.347
-20.54
-18.69
-16.818
-14.937
-13.059
-11.206
-9.402
-7.692
-6.141
-4.797
-3.695
-2.857
-2.285
-1.981
-1.94
-2.153
-2.609
-3.301
-4.221
-5.374
-6.785
-8.458
-10.402
-12.6
-14.999
-17.574
-20.319
-23.224
-26.301
-29.546
-32.927
-36.45
-40.159
-44.012
-47.888
-51.566
-54.698
-56.995
-58.287
-58.396
-57.092
-54.286
-50.134
-45.06
-39.806
-35.082
-31.196
-28.326
-26.869
-27.083
-28.782
-31.371
-33.152
-31.883
-26.391
-16.203
-2.123
14.02
31.416
50.378
73.603
104.381
144.232
192.776
244.358
290.581
323.135
332.592
313.267
264.324
188.762
95.448
-5.937
-109.115
-212.73
-320.785
-434.831
-550.577
-656.607
-735.673
-777.153
-779.246
-748.405
-698.81
-640.48
-578.056
-512.877
-442.727
-368.407
-293.646
-222.898
-161.065
-110.752
-72.44
-45.577
-28.497
-19.387
-16.501
-17.464
-19.982
-22.126
-22.241
-19.66
-14.533
-7.232
1.6
11.003
20.08
27.917
33.648
37.043
38.302
37.781
36.022
33.579
30.922
28.582
27.068
26.614
27.276
28.997
31.606
34.977
39.006
43.553
48.467
53.622
58.904
64.218
69.489
74.624
79.526
84.107
88.282
92.008
95.274
98.088
100.482
102.493
104.163
105.546
106.702
107.688
108.561
109.378
110.19
111.056
112.028
113.154
114.478
116.025
117.804
119.817
122.051
124.48
127.081
129.83
132.704
135.691
138.774
141.932
145.143
148.382
151.633
154.895
158.162
161.435
164.727
168.057
171.466
175.012
178.732
182.644
186.748
191.027
195.469
200.066
204.807
209.667
214.603
219.563
224.497
229.353
234.059
238.512
242.578
246.105
248.977
251.115
252.459
252.969
252.599
251.297
249.032
245.797
241.591
236.419
230.279
223.161
215.112
206.229
196.653
186.54
176.003
165.12
153.974
142.67
131.293
119.907
108.572
97.329
86.266
75.537
65.271
55.538
46.457
38.219
30.852
24.288
18.545
13.438
9.3
7.151
6.719
7.004
6.364
1.757
-6.68
-16.045
-23.433
-24.678
-19.617
-12.316
-5.917
-3.817
-6.598
-11.263
-15.972
-19.448
-21.309
-22.782
-24.408
-26.133
-27.959
-29.641
-31.083
-32.408
-33.636
-34.722
-35.66
-36.445
-37.073
-37.545
-37.858
-38.002
-37.981
-37.817
-37.527
-37.125
-36.637
-36.091
-35.513
-34.923
-34.338
-33.765
-33.214
-32.691
-32.197
-31.73
-31.286
-30.864
-30.463
-30.087
-29.734
-29.404
-29.097
-28.809
-28.541
-28.294
-28.069
-27.866
-27.686
-27.53
-27.402
-27.303
-27.236
-27.201
-27.198
-27.227
-27.287
-27.379
-27.5
-27.648
-27.824
-28.025
-28.25
-28.499
-28.769
-29.058
-29.367
-29.692
-30.034
-30.389
-30.756
-31.133
-31.519
-31.912
-32.309
-32.707
-33.106
-33.502
-33.892
-34.275
-34.648
-35.009
-35.357
-35.689
-36.003
-36.3
-36.576
-36.831
-37.064
-37.274
-37.459
-37.619
-37.753
-37.86
-37.939
-37.991
-38.013
-38.006
-37.968
-37.899
-37.798
-37.664
-37.495
-37.292
-37.054
-36.78
-36.47
-36.125
-35.744
-35.329
-34.881
-34.402
-33.892
-33.354
-32.789
-32.199
-31.586
-30.951
-30.296
-29.623
-28.934
-28.232
-27.519
-26.799
-26.075
-25.349
-24.625
-23.905
-23.194
-22.497
-21.816
-21.153
-20.509
-19.889
-19.294
-18.732
-18.207
-17.716
-17.257
-16.827
-16.422
-16.038
-15.667
-15.292
-14.897
-14.467
-13.991
-13.467
-12.89
-12.254
-11.551
-10.77
-9.907
-8.973
-7.978
-6.93
-5.845
-4.743
-3.66
-2.659
-1.805
-1.165
-0.797
-0.747
-1.056
-1.759
-2.897
-4.522
-6.675
-9.38
-12.666
-16.537
-21.01
-26.135
-31.833
-37.898
-44.041
-49.832
-54.893
-58.992
-61.817
-62.998
-62.495
-60.48
-57.411
-54.247
-51.685
-50.1
-50.036
-51.848
-55.443
-60.549
-66.095
-70.265
-71.377
-67.352
-56.702
-38.997
-14.76
13.298
43.195
74.876
109.023
148.736
195.213
244.295
289.283
319.843
324.374
296.803
236.821
149.483
45.676
-65.415
-180.71
-299.52
-422.539
-546.119
-658.166
-745.11
-796.823
-810.345
-791.818
-749.95
-691.323
-620.6
-540.08
-454.071
-370.724
-296.611
-236.355
-190.282
-153.308
-122.022
-95.096
-72.609
-57.182
-49.529
-47.835
-50.038
-53.42
-55.814
-56.405
-54.818
-51.157
-45.793
-39.149
-31.392
-22.617
-13.385
-4.365
3.724
10.465
15.927
20.259
23.401
25.149
25.585
25.122
24.464
24.157
24.363
25.123
26.471
28.552
31.463
35.07
39.046
43.091
47.048
50.856
54.523
58.011
61.243
64.19
66.866
69.288
71.486
73.468
75.225
76.77
78.136
79.369
80.533
81.689
82.881
84.148
85.518
87.01
88.648
90.448
92.419
94.571
96.908
99.424
102.126
105.018
108.093
111.34
114.739
118.269
121.93
125.726
129.657
133.73
137.946
142.309
146.846
151.571
156.488
161.594
166.863
172.261
177.756
183.313
188.887
194.423
199.842
205.053
209.983
214.56
218.712
222.367
225.427
227.807
229.45
230.307
230.361
229.605
228.034
225.654
222.497
218.611
214.069
208.962
203.36
197.328
190.938
184.257
177.377
170.38
163.325
156.264
149.234
142.266
135.394
128.647
122.027
115.531
109.141
102.825
96.571
90.373
84.225
78.122
72.054
66.013
60.005
54.043
48.141
42.311
36.564
30.907
25.362
19.953
14.703
9.643
4.792
0.161
-4.235
-8.389
-12.295
-15.949
-19.354
-22.518
-25.448
-28.15
-30.628
-32.888
-34.939
-36.791
-38.455
-39.943
-41.265
-42.43
-43.45
-44.333
-45.089
-45.726
-46.251
-46.672
-46.996
-47.229
-47.382
-47.461
-47.474
-47.429
-47.333
-47.193
-47.015
-46.806
-46.569
-46.308
-46.029
-45.733
-45.424
-45.103
-44.774
-44.437
-44.094
-43.746
-43.395
-43.04
-42.683
-42.324
-41.964
-41.602
-41.239
-40.876
-40.512
-40.147
-39.783
-39.419
-39.055
-38.692
-38.329
-37.968
-37.608
-37.251
-36.896
-36.544
-36.197
-35.855
-35.521
-35.194
-34.879
-34.575
-34.286
-34.014
-33.761
-33.529
-33.321
-33.139
-32.983
-32.858
-32.763
-32.7
-32.671
-32.677
-32.719
-32.796
-32.91
-33.061
-33.248
-33.471
-33.73
-34.022
-34.348
-34.706
-35.092
-35.506
-35.944
-36.403
-36.881
-37.375
-37.88
-38.393
-38.91
-39.426
-39.938
-40.441
-40.929
-41.399
-41.845
-42.263
-42.648
-42.997
-43.305
-43.568
-43.782
-43.944
-44.051
-44.1
-44.088
-44.013
-43.874
-43.67
-43.4
-43.064
-42.663
-42.198
-41.673
-41.09
-40.452
-39.763
-39.027
-38.247
-37.43
-36.579
-35.699
-34.794
-33.869
-32.931
-31.985
-31.037
-30.092
-29.155
-28.234
-27.334
-26.462
-25.622
-24.816
-24.044
-23.31
-22.616
-21.969
-21.369
-20.814
-20.301
-19.829
-19.393
-18.99
-18.607
-18.224
-17.82
-17.379
-16.89
-16.353
-15.757
-15.094
-14.358
-13.537
-12.636
-11.667
-10.635
-9.542
-8.404
-7.241
-6.094
-5.037
-4.134
-3.441
-3.014
-2.89
-3.102
-3.693
-4.705
-6.178
-8.139
-10.611
-13.593
-17.106
-21.199
-25.809
-30.77
-35.808
-40.508
-44.495
-47.557
-49.428
-49.758
-48.531
-45.912
-42.32
-38.723
-35.887
-34.117
-33.831
-35.526
-39.183
-44.445
-50.499
-55.073
-55.724
-51.579
-41.925
-26.959
-8.818
12.631
38.516
69.109
106.474
150.266
196.914
242.253
279.904
302.338
302.407
274.58
216.9
132.609
29.518
-84.46
-204.616
-328.939
-455.131
-576.801
-681.056
-753.545
-786.511
-780.934
-747.278
-698.924
-643.58
-583.591
-516.177
-439.634
-358.186
-278.501
-209.23
-155.3
-115.472
-87.209
-66.508
-50.995
-41.642
-38.368
-40.088
-44.982
-49.642
-51.707
-50.662
-46.658
-40.169
-31.759
-21.878
-10.988
-0.333
8.755
15.857
20.976
24.309
26.242
26.895
26.22
24.807
23.531
22.848
23.018
24.065
25.801
28.266
31.64
35.82
40.506
45.459
50.45
55.371
60.239
64.981
69.464
73.6
77.336
80.662
83.613
86.211
88.457
90.371
91.982
93.335
94.498
95.529
96.481
97.403
98.338
99.337
100.45
101.724
103.201
104.908
106.852
109.032
111.434
114.04
116.838
119.81
122.937
126.21
129.62
133.161
136.831
140.617
144.503
148.478
152.519
156.613
160.756
164.949
169.207
173.554
177.991
182.508
187.088
191.688
196.261
200.755
205.095
209.224
213.091
216.643
219.846
222.666
225.051
226.951
228.3
229.019
229.06
228.394
226.998
224.886
222.08
218.621
214.582
210.026
205.003
199.563
193.74
187.566
181.089
174.361
167.441
160.404
153.308
146.201
139.131
132.124
125.192
118.338
111.538
104.772
98.037
91.336
84.679
78.086
71.566
65.129
58.788
52.546
46.408
40.381
34.466
28.675
23.026
17.539
12.248
7.181
2.356
-2.21
-6.511
-10.541
-14.299
-17.785
-21.006
-23.966
-26.67
-29.122
-31.325
-33.284
-35.009
-36.509
-37.798
-38.89
-39.796
-40.531
-41.106
-41.533
-41.822
-41.985
-42.03
-41.966
-41.801
-41.548
-41.216
-40.816
-40.358
-39.852
-39.306
-38.731
-38.134
-37.522
-36.901
-36.278
-35.656
-35.042
-34.437
-33.847
-33.273
-32.717
-32.182
-31.668
-31.176
-30.706
-30.259
-29.832
-29.427
-29.041
-28.674
-28.323
-27.988
-27.666
-27.357
-27.059
-26.771
-26.489
-26.214
-25.943
-25.674
-25.406
-25.138
-24.869
-24.598
-24.324
-24.048
-23.769
-23.488
-23.207
-22.926
-22.647
-22.372
-22.103
-21.842
-21.591
-21.355
-21.135
-20.936
-20.76
-20.61
-20.49
-20.403
-20.35
-20.335
-20.358
-20.423
-20.53
-20.681
-20.877
-21.118
-21.404
-21.736
-22.112
-22.531
-22.992
-23.492
-24.029
-24.6
-25.201
-25.827
-26.476
-27.141
-27.817
-28.499
-29.18
-29.853
-30.511
-31.146
-31.751
-32.318
-32.838
-33.306
-33.713
-34.052
-34.319
-34.508
-34.616
-34.638
-34.571
-34.414
-34.164
-33.82
-33.382
-32.848
-32.22
-31.499
-30.687
-29.789
-28.811
-27.758
-26.636
-25.454
-24.219
-22.939
-21.622
-20.278
-18.912
-17.535
-16.156
-14.791
-13.453
-12.155
-10.904
-9.705
-8.561
-7.473
-6.437
-5.445
-4.483
-3.54
-2.611
-1.693
-0.788
0.108
1.004
1.909
2.838
3.794
4.777
5.781
6.799
7.815
8.799
9.715
10.511
11.143
11.58
11.794
11.764
11.46
10.842
9.869
8.504
6.722
4.517
1.886
-1.188
-4.7
-8.623
-12.933
-17.541
-22.383
-27.453
-32.643
-37.781
-42.646
-46.862
-50.078
-52.107
-52.688
-51.519
-48.64
-44.223
-38.656
-32.832
-27.462
-22.929
-19.756
-18.42
-18.92
-21.044
-24.159
-26.254
-24.976
-18.711
-6.376
10.959
29.921
48.086
65.737
86.263
115.684
158.621
213.38
271.471
320.121
345.221
336.331
290.63
212.761
112.131
0.26
-114.606
-231.951
-352.938
-476.276
-596.226
-697.509
-765.001
-792.849
-782.287
-744.189
-691.121
-627.74
-556.557
-478.175
-394.524
-314.251
-244.546
-189.471
-149.547
-119.215
-94.318
-73.094
-55.137
-42.866
-36.574
-34.344
-34.001
-32.614
-28.786
-22.8
-15.065
-6.131
3.286
12.593
20.983
27.425
31.513
33.38
33.313
31.798
29.338
26.349
23.373
21.043
19.702
19.467
20.339
22.163
24.818
28.232
32.266
36.755
41.561
46.55
51.623
56.715
61.734
66.576
71.143
75.336
79.101
82.427
85.313
87.788
89.886
91.648
93.13
94.398
95.515
96.542
97.536
98.544
99.62
100.816
102.183
103.771
105.613
107.726
110.12
112.798
115.754
118.983
122.469
126.193
130.136
134.279
138.605
143.096
147.731
152.486
157.335
162.252
167.21
172.182
177.143
182.063
186.917
191.676
196.312
200.801
205.115
209.225
213.104
216.725
220.062
223.091
225.788
228.133
230.106
231.69
232.871
233.636
233.976
233.884
233.353
232.381
230.968
229.116
226.828
224.111
220.973
217.426
213.483
209.158
204.468
199.433
194.071
188.405
182.458
176.255
169.821
163.182
156.365
149.397
142.306
135.12
127.865
120.57
113.259
105.961
98.698
91.496
84.376
77.362
70.472
63.726
57.142
50.735
44.521
38.512
32.721
27.157
21.829
16.744
11.908
7.325
2.998
-1.071
-4.883
-8.44
-11.743
-14.797
-17.607
-20.179
-22.52
-24.638
-26.542
-28.241
-29.744
-31.062
-32.205
-33.184
-34.01
-34.693
-35.244
-35.674
-35.993
-36.212
-36.341
-36.389
-36.366
-36.28
-36.139
-35.952
-35.727
-35.47
-35.187
-34.886
-34.571
-34.248
-33.922
-33.596
-33.275
-32.96
-32.655
-32.362
-32.082
-31.817
-31.568
-31.335
-31.12
-30.922
-30.743
-30.581
-30.436
-30.309
-30.199
-30.106
-30.028
-29.965
-29.917
-29.883
-29.863
-29.857
-29.864
-29.884
-29.918
-29.965
-30.024
-30.097
-30.183
-30.281
-30.394
-30.52
-30.66
-30.816
-30.987
-31.175
-31.38
-31.603
-31.843
-32.101
-32.378
-32.673
-32.985
-33.315
-33.662
-34.025
-34.405
-34.8
-35.21
-35.634
-36.071
-36.519
-36.977
-37.443
-37.916
-38.392
-38.87
-39.347
-39.82
-40.288
-40.746
-41.193
-41.624
-42.036
-42.425
-42.788
-43.12
-43.418
-43.679
-43.899
-44.075
-44.206
-44.288
-44.322
-44.305
-44.24
-44.125
-43.961
-43.749
-43.489
-43.182
-42.831
-42.435
-41.998
-41.52
-41.006
-40.461
-39.888
-39.294
-38.684
-38.063
-37.436
-36.81
-36.191
-35.584
-34.994
-34.427
-33.89
-33.39
-32.939
-32.542
-32.2
-31.912
-31.675
-31.482
-31.329
-31.203
-31.088
-30.971
-30.841
-30.689
-30.513
-30.303
-30.051
-29.747
-29.376
-28.931
-28.418
-27.84
-27.207
-26.538
-25.852
-25.182
-24.577
-24.078
-23.721
-23.547
-23.588
-23.882
-24.472
-25.389
-26.652
-28.286
-30.309
-32.742
-35.609
-38.916
-42.634
-46.745
-51.246
-56.044
-60.977
-65.8
-70.135
-73.657
-76.174
-77.42
-77.085
-75.162
-71.813
-67.445
-62.934
-58.887
-55.567
-53.452
-52.926
-53.847
-55.897
-58.182
-58.956
-57.053
-51.745
-41.798
-26.323
-4.908
22.888
55.834
91.018
126.404
159.836
190.103
218.385
243.586
262.555
269.655
255.459
214.422
146.825
58.473
-39.474
-139.559
-240.463
-343.841
-451.588
-559.074
-654.792
-725.494
-761.226
-759.532
-724.604
-665.907
-594.498
-519.776
-450.002
-388.456
-334.394
-285.905
-239.509
-194.818
-153.818
-118.563
-91.805
-73.845
-63.342
-58.453
-56.113
-53.953
-50.511
-44.926
-37.367
-28.316
-18.079
-7.237
3.372
12.883
20.345
25.289
27.835
28.29
27.115
24.809
21.818
18.66
15.89
13.841
12.651
12.339
12.78
13.869
15.543
17.705
20.264
23.153
26.306
29.676
33.21
36.841
40.5
44.116
47.622
50.971
54.136
57.122
59.982
62.771
65.537
68.318
71.128
73.972
76.854
79.776
82.751
85.791
88.912
92.132
95.476
98.958
102.588
106.352
110.21
114.127
118.07
122.024
125.987
129.967
133.98
138.042
142.164
146.351
150.6
154.901
159.236
163.587
167.932
172.257
176.558
180.826
185.051
189.215
193.293
197.252
201.054
204.662
208.039
211.151
213.972
216.477
218.648
220.47
221.931
223.021
223.726
224.035
223.938
223.427
222.498
221.151
219.389
217.217
214.642
211.672
208.317
204.588
200.496
196.053
191.271
186.166
180.754
175.053
169.085
162.872
156.436
149.802
142.996
136.043
128.969
121.799
114.56
107.277
99.975
92.679
85.414
78.204
71.07
64.035
57.119
50.342
43.722
37.276
31.019
24.965
19.126
13.515
8.139
3.008
-1.871
-6.495
-10.859
-14.962
-18.801
-22.379
-25.698
-28.76
-31.572
-34.139
-36.468
-38.568
-40.448
-42.117
-43.586
-44.865
-45.966
-46.9
-47.679
-48.314
-48.816
-49.198
-49.471
-49.645
-49.732
-49.74
-49.68
-49.561
-49.391
-49.178
-48.928
-48.649
-48.347
-48.026
-47.69
-47.345
-46.993
-46.637
-46.278
-45.92
-45.563
-45.207
-44.854
-44.503
-44.155
-43.808
-43.463
-43.118
-42.774
-42.429
-42.083
-41.736
-41.387
-41.037
-40.685
-40.332
-39.979
-39.627
-39.276
-38.929
-38.588
-38.254
-37.93
-37.618
-37.322
-37.043
-36.786
-36.553
-36.347
-36.171
-36.026
-35.916
-35.843
-35.808
-35.813
-35.858
-35.945
-36.073
-36.243
-36.454
-36.705
-36.995
-37.321
-37.681
-38.072
-38.491
-38.933
-39.395
-39.87
-40.355
-40.843
-41.329
-41.806
-42.268
-42.708
-43.12
-43.497
-43.833
-44.121
-44.356
-44.531
-44.642
-44.685
-44.656
-44.553
-44.374
-44.119
-43.787
-43.379
-42.898
-42.344
-41.72
-41.029
-40.276
-39.464
-38.598
-37.683
-36.726
-35.733
-34.714
-33.674
-32.623
-31.567
-30.517
-29.482
-28.47
-27.488
-26.54
-25.634
-24.776
-23.978
-23.247
-22.582
-21.985
-21.456
-20.991
-20.588
-20.239
-19.923
-19.625
-19.327
-19.016
-18.689
-18.338
-17.952
-17.52
-17.029
-16.471
-15.855
-15.185
-14.458
-13.686
-12.883
-12.085
-11.351
-10.738
-10.298
-10.083
-10.137
-10.501
-11.209
-12.294
-13.789
-15.721
-18.113
-20.99
-24.347
-28.181
-32.493
-37.174
-42.038
-46.842
-51.214
-54.855
-57.574
-59.095
-59.194
-57.914
-55.4
-52.034
-48.517
-45.219
-42.301
-40.221
-39.293
-39.422
-40.345
-40.728
-38.394
-32.238
-21.885
-8.421
5.733
19.608
33.907
52.089
78.531
115.082
160.538
208.388
249.812
276.974
282.29
261.824
215.213
144.934
58.887
-34.113
-127.878
-219.993
-313.661
-410.77
-507.728
-595.379
-660.176
-693.439
-694.565
-670.205
-631.142
-584.374
-532.4
-473.807
-407.46
-337.06
-268.388
-208.843
-162.751
-128.713
-104.059
-85.039
-69.629
-58.937
-53.079
-51.228
-51.657
-51.459
-49.093
-44.392
-37.561
-29.233
-20.067
-10.687
-1.97
5.095
10.048
12.959
14.078
13.849
12.72
11.07
9.407
8.303
8.076
8.828
10.549
13.092
16.343
20.236
24.642
29.411
34.417
39.542
44.701
49.837
54.862
59.686
64.22
68.378
72.113
75.415
78.282
80.739
82.821
84.566
86.025
87.259
88.322
89.272
90.164
91.046
91.975
93.002
94.171
95.528
97.099
98.896
100.926
103.179
105.636
108.283
111.101
114.073
117.187
120.427
123.772
127.203
130.7
134.245
137.833
141.457
145.112
148.806
152.557
156.392
160.347
164.442
168.677
173.044
177.523
182.102
186.774
191.519
196.311
201.113
205.884
210.581
215.157
219.538
223.628
227.315
230.48
233.031
234.909
236.06
236.443
236.007
234.701
232.502
229.404
225.408
220.515
214.723
208.047
200.546
192.315
183.473
174.147
164.444
154.451
144.266
133.987
123.728
113.605
103.703
94.093
84.847
76.045
67.778
60.122
53.105
46.722
40.949
35.756
31.121
27.025
23.423
20.261
17.468
14.969
12.71
10.652
8.744
6.933
5.148
3.333
1.459
-0.483
-2.493
-4.571
-6.72
-8.94
-11.207
-13.491
-15.753
-17.949
-20.053
-22.048
-23.914
-25.629
-27.172
-28.521
-29.674
-30.638
-31.417
-32.019
-32.447
-32.708
-32.821
-32.809
-32.697
-32.513
-32.274
-31.995
-31.691
-31.373
-31.051
-30.734
-30.423
-30.118
-29.82
-29.529
-29.248
-28.979
-28.721
-28.469
-28.222
-27.975
-27.727
-27.476
-27.22
-26.958
-26.691
-26.42
-26.147
-25.874
-25.603
-25.334
-25.069
-24.806
-24.546
-24.288
-24.032
-23.778
-23.527
-23.278
-23.034
-22.795
-22.565
-22.344
-22.134
-21.937
-21.754
-21.588
-21.44
-21.312
-21.207
-21.127
-21.074
-21.052
-21.061
-21.104
-21.183
-21.298
-21.45
-21.639
-21.864
-22.123
-22.417
-22.743
-23.103
-23.494
-23.917
-24.371
-24.858
-25.376
-25.924
-26.5
-27.097
-27.71
-28.334
-28.962
-29.586
-30.199
-30.792
-31.359
-31.897
-32.402
-32.869
-33.29
-33.652
-33.951
-34.181
-34.342
-34.434
-34.456
-34.412
-34.313
-34.18
-34.034
-33.887
-33.744
-33.598
-33.449
-33.294
-33.133
-32.965
-32.776
-32.548
-32.269
-31.935
-31.54
-31.074
-30.505
-29.783
-28.863
-27.722
-26.35
-24.754
-22.935
-20.892
-18.642
-16.215
-13.67
-11.067
-8.45
-5.848
-3.29
-0.812
1.522
3.622
5.42
6.865
7.922
8.57
8.769
8.482
7.703
6.457
4.805
2.814
0.521
-2.049
-4.87
-7.912
-11.127
-14.455
-17.862
-21.329
-24.828
-28.324
-31.761
-35.09
-38.299
-41.403
-44.453
-47.47
-50.476
-53.525
-56.585
-59.551
-62.25
-64.368
-65.592
-65.737
-64.555
-61.744
-57.349
-51.576
-44.868
-38.145
-32.096
-27.133
-23.902
-22.928
-24.146
-27.23
-31.224
-34.369
-35.424
-33.235
-26.104
-12.755
7.68
34.97
67.029
101.52
136.513
171.492
207.169
241.855
271.54
288.754
283.202
249.1
186.017
100.12
3.054
-97.179
-197.834
-301.714
-413.273
-529.844
-641.777
-733.65
-790.456
-806.361
-783.411
-730.007
-657.909
-575.695
-489.59
-405.686
-328.098
-260.342
-205.059
-160.939
-125.12
-95.7
-71.417
-53.005
-42.28
-38.765
-40.181
-43.546
-45.496
-44.45
-40.448
-33.835
-25.277
-15.534
-5.44
3.91
11.353
16.34
18.937
19.434
18.324
16.132
13.333
10.527
8.364
7.198
7.137
8.165
10.123
12.883
16.374
20.459
24.982
29.818
34.849
39.992
45.186
50.339
55.345
60.107
64.521
68.531
72.116
75.27
78.015
80.382
82.406
84.137
85.637
86.959
88.162
89.301
90.418
91.568
92.799
94.161
95.705
97.465
99.462
101.714
104.225
106.99
110.005
113.251
116.702
120.332
124.108
127.995
131.97
136.009
140.092
144.209
148.344
152.483
156.617
160.722
164.781
168.782
172.703
176.529
180.26
183.894
187.45
190.954
194.409
197.806
201.125
204.315
207.335
210.14
212.67
214.887
216.758
218.248
219.341
220.03
220.282
220.06
219.3
217.918
215.864
213.115
209.662
205.541
200.786
195.438
189.564
183.223
176.454
169.304
161.789
153.906
145.694
137.206
128.527
119.783
111.068
102.448
93.983
85.698
77.615
69.76
62.124
54.699
47.5
40.543
33.872
27.562
21.644
16.125
10.99
6.174
1.634
-2.647
-6.699
-10.529
-14.146
-17.561
-20.763
-23.732
-26.468
-28.981
-31.301
-33.487
-35.569
-37.558
-39.453
-41.225
-42.857
-44.346
-45.682
-46.859
-47.876
-48.733
-49.444
-50.035
-50.521
-50.91
-51.201
-51.38
-51.443
-51.399
-51.258
-51.042
-50.768
-50.445
-50.091
-49.72
-49.346
-48.976
-48.615
-48.255
-47.897
-47.541
-47.189
-46.848
-46.519
-46.2
-45.891
-45.589
-45.292
-44.995
-44.697
-44.39
-44.071
-43.736
-43.385
-43.018
-42.635
-42.235
-41.817
-41.383
-40.933
-40.466
-39.985
-39.49
-38.982
-38.463
-37.935
-37.402
-36.866
-36.332
-35.801
-35.279
-34.768
-34.273
-33.797
-33.345
-32.92
-32.526
-32.168
-31.849
-31.572
-31.34
-31.158
-31.028
-30.951
-30.931
-30.968
-31.064
-31.217
-31.427
-31.694
-32.014
-32.384
-32.803
-33.266
-33.768
-34.304
-34.868
-35.455
-36.058
-36.669
-37.28
-37.885
-38.475
-39.042
-39.579
-40.078
-40.531
-40.931
-41.27
-41.542
-41.741
-41.859
-41.893
-41.836
-41.685
-41.437
-41.09
-40.642
-40.094
-39.448
-38.705
-37.868
-36.941
-35.93
-34.841
-33.679
-32.452
-31.168
-29.835
-28.462
-27.061
-25.642
-24.217
-22.796
-21.389
-20.01
-18.669
-17.377
-16.146
-14.979
-13.885
-12.871
-11.944
-11.114
-10.387
-9.76
-9.235
-8.811
-8.485
-8.254
-8.108
-8.027
-7.994
-7.994
-8.017
-8.061
-8.121
-8.183
-8.233
-8.258
-8.252
-8.22
-8.166
-8.081
-7.964
-7.829
-7.701
-7.637
-7.692
-7.903
-8.299
-8.905
-9.736
-10.833
-12.239
-13.989
-16.115
-18.63
-21.54
-24.887
-28.732
-33.043
-37.68
-42.388
-46.807
-50.637
-53.664
-55.654
-56.318
-55.49
-53.274
-50.068
-46.588
-43.541
-41.346
-40.279
-40.659
-42.735
-46.415
-51.0
-55.237
-57.226
-54.947
-47.592
-34.688
-16.657
4.365
28.101
55.078
85.871
122.973
166.128
212.443
257.921
295.049
315.765
312.156
277.586
211.678
120.185
13.184
-98.442
-209.832
-322.594
-438.894
-557.342
-668.43
-755.674
-806.014
-814.438
-785.139
-729.501
-657.253
-574.769
-486.246
-395.769
-310.941
-238.658
-183.008
-143.664
-114.833
-92.039
-73.093
-57.886
-49.047
-46.672
-48.586
-52.178
-54.04
-52.641
-48.243
-41.274
-32.573
-23.098
-13.606
-5.069
1.497
5.743
7.8
7.986
6.846
4.918
2.679
0.706
-0.433
-0.457
0.706
3.006
6.276
10.389
15.242
20.682
26.537
32.659
38.919
45.219
51.474
57.582
63.427
68.899
73.921
78.455
82.493
86.047
89.14
91.802
94.079
96.029
97.712
99.188
100.513
101.735
102.911
104.1
105.362
106.759
108.335
110.113
112.108
114.325
116.761
119.407
122.245
125.242
128.373
131.618
134.961
138.395
141.905
145.465
149.048
152.628
156.186
159.722
163.231
166.715
170.188
173.672
177.209
180.85
184.626
188.55
192.627
196.847
201.208
205.712
210.357
215.134
220.019
224.974
229.955
234.908
239.75
244.374
248.641
252.406
255.556
257.997
259.648
260.44
260.299
259.157
256.965
253.686
249.292
243.773
237.135
229.41
220.674
211.042
200.675
189.738
178.374
166.723
154.923
143.115
131.451
120.065
109.071
98.574
88.685
79.505
71.116
63.572
56.881
51.019
45.926
41.536
37.79
34.614
31.926
29.631
27.624
25.816
24.142
22.535
20.919
19.222
17.384
15.365
13.155
10.76
8.196
5.485
2.65
-0.271
-3.231
-6.175
-9.042
-11.788
-14.383
-16.8
-19.007
-20.98
-22.698
-24.154
-25.356
-26.313
-27.034
-27.531
-27.817
-27.914
-27.851
-27.656
-27.362
-26.993
-26.566
-26.098
-25.604
-25.095
-24.582
-24.07
-23.557
-23.048
-22.545
-22.054
-21.579
-21.12
-20.678
-20.253
-19.844
-19.451
-19.074
-18.716
-18.375
-18.054
-17.753
-17.475
-17.221
-16.992
-16.787
-16.605
-16.444
-16.303
-16.178
-16.069
-15.971
-15.883
-15.804
-15.731
-15.663
-15.6
-15.54
-15.482
-15.426
-15.372
-15.318
-15.264
-15.211
-15.16
-15.109
-15.06
-15.014
-14.971
-14.932
-14.898
-14.869
-14.848
-14.835
-14.832
-14.84
-14.863
-14.902
-14.959
-15.038
-15.139
-15.265
-15.419
-15.601
-15.813
-16.055
-16.329
-16.632
-16.966
-17.329
-17.719
-18.133
-18.569
-19.023
-19.49
-19.965
-20.445
-20.922
-21.392
-21.849
-22.287
-22.702
-23.088
-23.44
-23.755
-24.027
-24.253
-24.429
-24.55
-24.612
-24.613
-24.547
-24.412
-24.205
-23.924
-23.569
-23.142
-22.643
-22.075
-21.443
-20.75
-20.001
-19.204
-18.363
-17.485
-16.575
-15.643
-14.7
-13.76
-12.834
-11.932
-11.062
-10.229
-9.433
-8.675
-7.945
-7.235
-6.538
-5.842
-5.14
-4.437
-3.732
-3.03
-2.34
-1.648
-0.945
-0.252
0.412
1.033
1.579
2.049
2.44
2.691
2.742
2.634
2.431
2.093
1.628
1.051
0.186
-0.497
-0.546
-0.618
-0.919
-2.676
-7.332
-13.27
-19.397
-24.078
-25.105
-24.396
-23.588
-23.803
-26.919
-31.661
-36.649
-41.478
-45.138
-47.803
-49.816
-50.892
-50.855
-49.35
-46.244
-41.806
-36.527
-31.245
-26.563
-22.786
-20.479
-20.145
-21.735
-24.932
-28.8
-31.622
-32.261
-29.781
-22.598
-9.465
10.348
36.649
67.496
100.535
134.459
169.201
204.576
238.288
265.248
277.5
267.672
232.372
172.71
95.309
8.344
-82.693
-175.722
-273.806
-380.037
-491.754
-600.978
-693.414
-754.808
-779.667
-769.241
-731.725
-678.579
-615.803
-547.771
-477.655
-406.37
-338.27
-276.157
-220.271
-171.936
-129.89
-93.903
-65.976
-46.034
-34.143
-29.54
-29.086
-30.486
-32.116
-32.357
-30.918
-28.024
-23.581
-17.917
-11.759
-5.697
-0.492
3.07
4.847
5.04
3.924
1.975
-0.314
-2.542
-4.247
-4.991
-4.598
-3.057
-0.447
3.054
7.293
12.149
17.462
23.066
28.828
34.635
40.381
45.982
51.34
56.347
60.934
65.064
68.72
71.916
74.681
77.048
79.067
80.798
82.299
83.625
84.832
85.967
87.085
88.242
89.494
90.895
92.48
94.276
96.299
98.558
101.059
103.8
106.767
109.941
113.304
116.839
120.529
124.352
128.274
132.262
136.284
140.314
144.339
148.341
152.301
156.198
160.012
163.733
167.365
170.906
174.352
177.7
180.945
184.099
187.192
190.242
193.255
196.222
199.115
201.913
204.599
207.15
209.539
211.723
213.639
215.236
216.476
217.31
217.687
217.536
216.758
215.287
213.083
210.123
206.411
201.947
196.731
190.778
184.119
176.799
168.886
160.436
151.499
142.15
132.477
122.592
112.64
102.733
92.952
83.368
74.036
65.009
56.345
48.086
40.261
32.893
26.004
19.614
13.745
8.393
3.528
-0.897
-4.96
-8.714
-12.193
-15.426
-18.434
-21.236
-23.856
-26.311
-28.607
-30.764
-32.808
-34.767
-36.665
-38.513
-40.3
-42.008
-43.601
-45.055
-46.358
-47.501
-48.482
-49.303
-49.968
-50.485
-50.87
-51.127
-51.254
-51.247
-51.106
-50.835
-50.449
-49.968
-49.416
-48.815
-48.183
-47.539
-46.893
-46.256
-45.632
-45.024
-44.431
-43.853
-43.295
-42.762
-42.257
-41.782
-41.336
-40.919
-40.526
-40.154
-39.797
-39.452
-39.115
-38.783
-38.454
-38.129
-37.808
-37.491
-37.179
-36.871
-36.568
-36.269
-35.974
-35.683
-35.396
-35.113
-34.834
-34.562
-34.296
-34.039
-33.791
-33.556
-33.333
-33.125
-32.933
-32.76
-32.607
-32.476
-32.37
-32.29
-32.238
-32.218
-32.231
-32.279
-32.364
-32.489
-32.654
-32.86
-33.109
-33.4
-33.733
-34.107
-34.522
-34.976
-35.467
-35.994
-36.554
-37.146
-37.766
-38.411
-39.078
-39.763
-40.463
-41.172
-41.886
-42.601
-43.312
-44.013
-44.701
-45.37
-46.014
-46.629
-47.21
-47.75
-48.244
-48.686
-49.073
-49.398
-49.657
-49.846
-49.963
-50.003
-49.967
-49.852
-49.659
-49.388
-49.039
-48.613
-48.111
-47.536
-46.889
-46.171
-45.387
-44.541
-43.637
-42.682
-41.683
-40.645
-39.576
-38.482
-37.37
-36.249
-35.125
-34.003
-32.892
-31.798
-30.732
-29.704
-28.723
-27.792
-26.914
-26.086
-25.306
-24.569
-23.865
-23.18
-22.5
-21.815
-21.116
-20.4
-19.657
-18.881
-18.063
-17.187
-16.252
-15.26
-14.218
-13.14
-12.047
-10.959
-9.921
-8.99
-8.216
-7.651
-7.343
-7.338
-7.69
-8.45
-9.661
-11.35
-13.536
-16.241
-19.487
-23.285
-27.636
-32.487
-37.772
-43.456
-49.408
-55.43
-61.257
-66.461
-70.656
-73.645
-75.151
-74.861
-72.803
-69.114
-64.175
-58.931
-54.048
-49.799
-46.8
-45.62
-46.208
-48.393
-50.964
-51.327
-47.807
-39.669
-27.44
-12.898
2.92
20.703
43.977
76.16
118.613
170.018
223.101
269.12
300.509
309.33
291.529
245.937
173.407
79.825
-27.826
-144.14
-266.212
-393.146
-520.952
-640.106
-736.084
-795.824
-814.163
-794.818
-748.262
-684.651
-610.898
-530.899
-447.94
-368.091
-297.035
-238.917
-194.49
-159.764
-131.484
-108.068
-89.461
-77.753
-72.984
-72.861
-74.515
-74.609
-71.515
-65.34
-56.538
-45.893
-34.232
-22.411
-11.559
-2.814
3.286
6.786
8.011
7.477
5.699
3.167
0.487
-1.701
-2.993
-3.233
-2.411
-0.647
1.952
5.317
9.338
13.866
18.774
23.944
29.275
34.697
40.127
45.462
50.605
55.461
59.948
64.025
67.681
70.92
73.769
76.259
78.428
80.328
82.02
83.563
85.016
86.43
87.852
89.33
90.916
92.656
94.594
96.757
99.159
101.81
104.71
107.857
111.244
114.859
118.682
122.697
126.887
131.237
135.729
140.346
145.064
149.86
154.708
159.586
164.469
169.332
174.149
178.894
183.542
188.068
192.447
196.653
200.661
204.445
207.979
211.24
214.205
216.852
219.16
221.113
222.693
223.886
224.682
225.069
225.041
224.591
223.717
222.417
220.692
218.545
215.982
213.01
209.639
205.88
201.747
197.256
192.424
187.269
181.814
176.078
170.086
163.862
157.431
150.817
144.047
137.148
130.146
123.069
115.942
108.791
101.644
94.524
87.457
80.465
73.571
66.796
60.16
53.684
47.383
41.274
35.373
29.693
24.246
19.042
14.092
9.402
4.977
0.823
-3.058
-6.664
-9.997
-13.057
-15.848
-18.374
-20.639
-22.652
-24.419
-25.949
-27.251
-28.336
-29.215
-29.899
-30.4
-30.732
-30.905
-30.934
-30.831
-30.61
-30.281
-29.86
-29.357
-28.785
-28.157
-27.482
-26.774
-26.041
-25.294
-24.541
-23.792
-23.054
-22.335
-21.639
-20.973
-20.342
-19.75
-19.199
-18.693
-18.233
-17.821
-17.456
-17.14
-16.871
-16.647
-16.468
-16.33
-16.232
-16.169
-16.141
-16.142
-16.169
-16.22
-16.289
-16.375
-16.473
-16.579
-16.691
-16.804
-16.917
-17.025
-17.126
-17.219
-17.301
-17.371
-17.428
-17.471
-17.5
-17.514
-17.515
-17.502
-17.476
-17.44
-17.395
-17.342
-17.284
-17.224
-17.165
-17.108
-17.058
-17.017
-16.987
-16.972
-16.974
-16.996
-17.038
-17.104
-17.194
-17.309
-17.452
-17.622
-17.819
-18.045
-18.298
-18.578
-18.882
-19.21
-19.559
-19.926
-20.308
-20.701
-21.103
-21.508
-21.913
-22.314
-22.704
-23.079
-23.433
-23.761
-24.057
-24.317
-24.534
-24.703
-24.821
-24.883
-24.886
-24.828
-24.706
-24.52
-24.27
-23.955
-23.575
-23.133
-22.63
-22.068
-21.449
-20.777
-20.054
-19.285
-18.474
-17.626
-16.749
-15.847
-14.926
-13.995
-13.061
-12.133
-11.216
-10.315
-9.434
-8.58
-7.758
-6.98
-6.25
-5.573
-4.949
-4.381
-3.868
-3.406
-2.985
-2.586
-2.189
-1.776
-1.337
-0.869
-0.366
0.18
0.777
1.437
2.166
2.957
3.809
4.721
5.681
6.666
7.633
8.507
9.208
9.674
9.842
9.675
9.141
8.196
6.792
4.888
2.44
-0.577
-4.168
-8.365
-13.206
-18.613
-24.404
-30.282
-35.831
-40.704
-44.693
-47.543
-48.948
-48.865
-47.45
-45.098
-42.556
-40.353
-38.605
-37.492
-37.335
-38.127
-39.622
-41.155
-40.948
-37.199
-29.067
-16.066
0.862
19.525
39.162
59.937
83.502
113.158
149.652
191.414
235.183
274.368
302.66
313.273
297.559
252.042
178.35
83.037
-21.611
-128.021
-235.649
-345.784
-459.327
-569.982
-662.72
-724.043
-748.216
-737.499
-702.767
-654.553
-596.301
-529.748
-455.204
-375.295
-299.143
-234.018
-183.835
-148.722
-122.68
-101.179
-82.336
-65.851
-54.355
-48.378
-46.183
-45.667
-43.967
-39.786
-33.467
-25.471
-16.384
-6.904
2.422
10.851
17.426
21.79
24.075
24.546
23.669
21.892
19.566
17.173
15.273
14.193
14.077
14.941
16.638
19.047
22.084
25.613
29.487
33.567
37.704
41.797
45.784
49.613
53.25
56.648
59.739
62.467
64.794
66.718
68.279
69.525
70.508
71.293
71.947
72.569
73.28
74.162
75.265
76.606
78.164
79.945
81.974
84.276
86.866
89.738
92.87
96.245
99.855
103.675
107.661
111.739
115.818
119.843
123.792
127.672
131.507
135.308
139.068
142.785
146.471
150.138
153.791
157.421
161.005
164.542
168.054
171.59
175.198
178.891
182.652
186.442
190.221
193.947
197.575
201.04
204.261
207.161
209.693
211.825
213.526
214.748
215.422
215.456
214.788
213.384
211.232
208.34
204.708
200.352
195.317
189.676
183.519
176.926
169.949
162.622
155.008
147.177
139.218
131.231
123.281
115.418
107.689
100.132
92.79
85.697
78.851
72.227
65.802
59.561
53.514
47.683
42.054
36.605
31.32
26.173
21.167
16.31
11.595
7.017
2.572
-1.739
-5.897
-9.871
-13.648
-17.217
-20.582
-23.754
-26.717
-29.456
-31.966
-34.242
-36.294
-38.132
-39.756
-41.163
-42.361
-43.359
-44.173
-44.82
-45.308
-45.642
-45.83
-45.874
-45.792
-45.599
-45.304
-44.919
-44.449
-43.903
-43.292
-42.63
-41.923
-41.175
-40.393
-39.581
-38.75
-37.907
-37.059
-36.211
-35.368
-34.533
-33.71
-32.902
-32.112
-31.341
-30.591
-29.861
-29.155
-28.475
-27.821
-27.195
-26.596
-26.025
-25.482
-24.968
-24.482
-24.023
-23.59
-23.184
-22.805
-22.451
-22.122
-21.818
-21.539
-21.283
-21.051
-20.841
-20.652
-20.485
-20.338
-20.212
-20.106
-20.019
-19.953
-19.905
-19.877
-19.868
-19.878
-19.905
-19.951
-20.015
-20.096
-20.194
-20.308
-20.439
-20.584
-20.744
-20.918
-21.104
-21.301
-21.507
-21.721
-21.942
-22.166
-22.393
-22.619
-22.842
-23.059
-23.268
-23.466
-23.649
-23.815
-23.96
-24.083
-24.181
-24.252
-24.294
-24.307
-24.289
-24.241
-24.163
-24.055
-23.918
-23.752
-23.558
-23.338
-23.092
-22.821
-22.528
-22.215
-21.887
-21.547
-21.198
-20.845
-20.491
-20.142
-19.801
-19.475
-19.167
-18.879
-18.616
-18.383
-18.188
-18.036
-17.925
-17.855
-17.822
-17.821
-17.848
-17.892
-17.937
-17.965
-17.964
-17.918
-17.819
-17.66
-17.43
-17.117
-16.709
-16.2
-15.598
-14.915
-14.161
-13.349
-12.501
-11.655
-10.869
-10.199
-9.702
-9.434
-9.443
-9.783
-10.504
-11.634
-13.206
-15.248
-17.774
-20.805
-24.359
-28.419
-32.975
-38.022
-43.416
-48.957
-54.368
-59.228
-63.194
-66.009
-67.31
-66.817
-64.582
-60.832
-56.084
-51.172
-46.633
-42.891
-40.629
-40.208
-41.435
-43.706
-45.825
-46.328
-44.167
-38.155
-26.64
-8.27
17.002
47.629
81.53
116.549
152.681
191.645
232.113
270.313
298.544
305.494
284.358
233.585
157.951
68.625
-25.559
-120.485
-217.449
-320.753
-429.302
-535.627
-626.457
-688.482
-716.993
-713.848
-686.62
-644.635
-591.911
-531.901
-468.042
-402.406
-340.142
-284.22
-234.331
-191.255
-153.633
-120.919
-95.007
-75.909
-63.58
-57.217
-53.875
-51.24
-47.689
-42.197
-34.955
-26.427
-16.825
-6.625
3.442
12.584
19.851
24.764
27.438
28.157
27.342
25.453
22.911
20.225
17.992
16.589
16.17
16.771
18.29
20.625
23.725
27.477
31.746
36.411
41.352
46.477
51.72
56.999
62.216
67.278
72.087
76.559
80.647
84.328
87.603
90.496
93.032
95.248
97.192
98.922
100.493
101.961
103.374
104.774
106.204
107.708
109.33
111.115
113.089
115.274
117.678
120.299
123.132
126.171
129.394
132.777
136.288
139.889
143.551
147.255
150.979
154.711
158.434
162.129
165.781
169.375
172.902
176.353
179.719
182.984
186.146
189.208
192.186
195.108
197.988
200.819
203.588
206.269
208.836
211.264
213.524
215.572
217.366
218.864
220.028
220.829
221.222
221.153
220.549
219.331
217.444
214.858
211.557
207.541
202.812
197.376
191.251
184.474
177.094
169.156
160.711
151.813
142.538
132.98
123.261
113.496
103.782
94.196
84.799
75.647
66.798
58.304
50.21
42.551
35.351
28.627
22.397
16.655
11.382
6.531
2.03
-2.184
-6.153
-9.915
-13.494
-16.908
-20.188
-23.357
-26.437
-29.455
-32.432
-35.384
-38.329
-41.266
-44.183
-47.053
-49.83
-52.476
-54.972
-57.298
-59.451
-61.429
-63.226
-64.841
-66.28
-67.537
-68.611
-69.501
-70.204
-70.729
-71.089
-71.305
-71.406
-71.419
-71.364
-71.256
-71.107
-70.926
-70.719
-70.492
-70.246
-69.984
-69.711
-69.434
-69.159
-68.892
-68.632
-68.382
-68.139
-67.901
-67.667
-67.435
-67.206
-66.979
-66.757
-66.54
-66.332
-66.135
-65.951
-65.781
-65.624
-65.48
-65.348
-65.229
-65.121
-65.025
-64.94
-64.867
-64.806
-64.758
-64.723
-64.701
-64.694
-64.702
-64.724
-64.761
-64.813
-64.882
-64.967
-65.068
-65.188
-65.325
-65.48
-65.653
-65.844
-66.052
-66.278
-66.519
-66.775
-67.045
-67.328
-67.623
-67.929
-68.243
-68.566
-68.894
-69.227
-69.563
-69.898
-70.231
-70.558
-70.876
-71.182
-71.472
-71.743
-71.992
-72.213
-72.403
-72.557
-72.672
-72.742
-72.764
-72.733
-72.646
-72.5
-72.293
-72.021
-71.685
-71.283
-70.817
-70.285
-69.688
-69.027
-68.302
-67.516
-66.669
-65.763
-64.799
-63.781
-62.713
-61.602
-60.454
-59.275
-58.071
-56.849
-55.618
-54.384
-53.155
-51.935
-50.731
-49.552
-48.411
-47.32
-46.288
-45.318
-44.413
-43.572
-42.791
-42.062
-41.372
-40.702
-40.039
-39.373
-38.701
-38.023
-37.333
-36.624
-35.882
-35.096
-34.261
-33.378
-32.449
-31.483
-30.496
-29.52
-28.598
-27.781
-27.111
-26.618
-26.329
-26.26
-26.44
-26.899
-27.671
-28.793
-30.285
-32.154
-34.409
-37.059
-40.103
-43.521
-47.273
-51.269
-55.459
-59.849
-64.353
-68.828
-73.043
-76.614
-79.223
-80.709
-80.805
-79.172
-75.801
-70.818
-64.648
-58.296
-52.444
-47.352
-43.683
-42.097
-42.554
-44.893
-47.904
-48.838
-46.528
-40.713
-31.115
-18.968
-3.718
16.626
43.221
77.696
119.687
166.872
215.887
260.674
294.323
308.721
296.154
253.739
183.553
93.59
-5.687
-107.425
-209.778
-315.805
-427.213
-539.787
-643.166
-722.718
-768.899
-780.152
-762.197
-725.646
-677.679
-620.213
-550.933
-468.02
-374.671
-279.683
-196.133
-132.493
-90.32
-66.014
-51.383
-41.932
-38.138
-39.676
-45.689
-52.87
-54.785
-49.286
-38.518
-25.152
-13.269
-4.386
3.154
9.82
15.694
20.572
23.327
23.771
22.512
20.071
17.117
14.286
12.034
10.66
10.294
10.9
12.303
14.367
17.029
20.182
23.725
27.58
31.645
35.848
40.144
44.459
48.705
52.821
56.749
60.465
64.0
67.382
70.645
73.833
76.965
80.058
83.122
86.149
89.14
92.11
95.07
98.047
101.072
104.162
107.332
110.583
113.886
117.221
120.571
123.918
127.262
130.606
133.96
137.354
140.809
144.335
147.931
151.58
155.256
158.944
162.626
166.293
169.947
173.583
177.193
180.771
184.307
187.797
191.237
194.608
197.896
201.097
204.216
207.282
210.319
213.333
216.331
219.306
222.237
225.106
227.893
230.568
233.097
235.435
237.521
239.305
240.733
241.743
242.268
242.219
241.516
240.1
237.928
234.975
231.236
226.717
221.424
215.383
208.622
201.176
193.116
184.513
175.44
165.991
156.263
146.375
136.455
126.62
116.966
107.577
98.512
89.819
81.553
73.754
66.466
59.739
53.584
48.004
43.002
38.561
34.653
31.237
28.245
25.598
23.241
21.128
19.227
17.521
15.978
14.568
13.257
12.005
10.787
9.59
8.394
7.187
5.968
4.745
3.545
2.412
1.372
0.438
-0.382
-1.095
-1.699
-2.19
-2.569
-2.834
-2.988
-3.036
-2.982
-2.825
-2.576
-2.247
-1.862
-1.451
-1.038
-0.638
-0.262
0.082
0.389
0.651
0.868
1.04
1.17
1.257
1.301
1.3
1.254
1.167
1.045
0.895
0.723
0.532
0.328
0.115
-0.106
-0.332
-0.561
-0.795
-1.035
-1.279
-1.527
-1.778
-2.03
-2.284
-2.538
-2.793
-3.046
-3.3
-3.554
-3.808
-4.065
-4.325
-4.589
-4.858
-5.134
-5.418
-5.71
-6.013
-6.327
-6.653
-6.993
-7.347
-7.716
-8.099
-8.496
-8.908
-9.333
-9.769
-10.215
-10.669
-11.128
-11.589
-12.049
-12.506
-12.956
-13.396
-13.823
-14.232
-14.621
-14.987
-15.325
-15.631
-15.902
-16.134
-16.324
-16.468
-16.563
-16.604
-16.591
-16.519
-16.388
-16.195
-15.938
-15.617
-15.231
-14.781
-14.267
-13.692
-13.057
-12.366
-11.622
-10.832
-10.0
-9.13
-8.229
-7.303
-6.358
-5.401
-4.437
-3.47
-2.508
-1.557
-0.623
0.287
1.168
2.015
2.821
3.581
4.287
4.937
5.531
6.067
6.545
6.963
7.315
7.604
7.833
8.007
8.131
8.21
8.251
8.269
8.288
8.331
8.418
8.561
8.766
9.044
9.409
9.869
10.439
11.118
11.894
12.768
13.737
14.788
15.901
17.032
18.111
19.072
19.857
20.404
20.676
20.636
20.239
19.444
18.206
16.492
14.284
11.587
8.377
4.608
0.341
-4.267
-8.93
-13.209
-16.742
-19.321
-20.647
-20.359
-18.416
-14.935
-10.366
-5.738
-1.737
1.411
3.102
2.731
0.378
-3.779
-8.397
-10.518
-8.954
-3.481
6.09
18.286
34.175
56.54
86.389
125.166
170.721
217.959
263.517
302.102
329.983
344.785
340.191
312.358
259.307
180.076
80.569
-33.303
-157.75
-287.429
-418.97
-545.48
-654.638
-735.292
-778.05
-780.752
-749.352
-691.638
-616.737
-531.485
-440.497
-350.582
-268.219
-198.485
-144.409
-103.806
-72.078
-46.211
-24.457
-7.546
2.386
5.872
5.007
2.522
1.772
4.131
9.409
17.227
26.723
36.942
47.116
56.229
63.216
67.684
69.737
69.678
68.045
65.374
62.134
58.91
56.316
54.708
54.214
54.833
56.429
58.886
62.127
66.027
70.431
75.206
80.232
85.41
90.673
95.941
101.115
106.103
110.815
115.174
119.145
122.719
125.903
128.723
131.212
133.411
135.371
137.153
138.815
140.409
141.984
143.582
145.247
147.026
148.96
151.09
153.438
156.018
158.833
161.883
165.163
168.663
172.37
176.263
180.324
184.535
188.881
193.345
197.908
202.548
207.244
211.97
216.706
221.428
226.114
230.739
235.279
239.712
244.014
248.163
252.136
255.908
259.457
262.758
265.789
268.53
270.959
273.059
274.811
276.201
277.215
277.842
278.073
277.9
277.317
276.321
274.912
273.091
270.859
268.223
265.189
261.766
257.966
253.8
249.284
244.434
239.268
233.806
228.068
222.077
215.855
209.427
202.818
196.053
189.158
182.159
175.081
167.953
160.798
153.644
146.516
139.438
132.433
125.525
118.736
112.085
105.592
99.275
93.15
87.232
81.536
76.073
70.853
65.886
61.179
56.738
52.567
48.668
45.041
41.687
38.603
35.786
33.23
30.93
28.879
27.067
25.486
24.126
22.976
22.024
21.258
20.664
20.231
19.943
19.789
19.754
19.824
19.988
20.23
20.54
20.904
21.312
21.75
22.21
22.681
23.154
23.619
24.07
24.499
24.901
25.269
25.6
25.889
26.134
26.331
26.48
26.579
26.627
26.624
26.57
26.467
26.316
26.118
25.876
25.592
25.269
24.909
24.515
24.09
23.638
23.16
22.659
22.139
21.601
21.049
20.484
19.909
19.325
18.734
18.136
17.534
16.926
16.315
15.699
15.079
14.454
13.825
13.191
12.551
11.904
11.251
10.59
9.921
9.242
8.554
7.855
7.145
6.424
5.692
4.948
4.193
3.428
2.654
1.871
1.082
0.286
-0.514
-1.316
-2.119
-2.92
-3.716
-4.505
-5.283
-6.048
-6.796
-7.522
-8.225
-8.899
-9.543
-10.152
-10.723
-11.253
-11.739
-12.177
-12.565
-12.901
-13.181
-13.405
-13.57
-13.676
-13.724
-13.713
-13.644
-13.52
-13.343
-13.116
-12.843
-12.527
-12.173
-11.786
-11.37
-10.931
-10.473
-10.001
-9.52
-9.036
-8.555
-8.083
-7.627
-7.191
-6.784
-6.412
-6.081
-5.794
-5.554
-5.362
-5.219
-5.131
-5.103
-5.139
-5.239
-5.401
-5.627
-5.912
-6.251
-6.63
-7.026
-7.418
-7.789
-8.129
-8.433
-8.695
-8.906
-9.057
-9.137
-9.14
-9.071
-8.93
-8.717
-8.446
-8.141
-7.853
-7.664
-7.648
-7.869
-8.378
-9.204
-10.389
-11.99
-14.056
-16.635
-19.77
-23.466
-27.756
-32.715
-38.302
-44.378
-50.695
-56.836
-62.434
-67.267
-71.046
-73.427
-74.361
-73.966
-72.607
-71.113
-70.079
-69.765
-70.566
-72.799
-76.402
-81.065
-85.88
-89.292
-89.664
-85.803
-77.073
-62.592
-43.08
-19.611
8.255
38.802
71.878
107.837
142.969
175.282
201.638
217.12
218.994
202.566
163.549
100.764
16.197
-84.394
-194.769
-310.098
-427.945
-546.049
-657.738
-752.909
-820.865
-853.189
-849.414
-815.34
-757.913
-685.45
-603.947
-517.955
-434.955
-361.613
-302.531
-259.884
-230.229
-207.74
-188.88
-171.762
-157.229
-148.04
-144.123
-143.705
-144.547
-143.718
-140.163
-134.391
-126.944
-118.56
-110.069
-102.059
-95.247
-90.48
-87.993
-87.559
-88.85
-91.369
-94.63
-98.242
-101.722
-104.534
-106.377
-107.136
-106.806
-105.517
-103.38
-100.471
-96.933
-92.932
-88.631
-84.201
-79.775
-75.451
-71.328
-67.521
-64.151
-61.343
-59.212
-57.821
-57.187
-57.31
-58.179
-59.762
-61.994
-64.773
-67.943
-71.401
-75.132
-79.051
-83.036
-86.868
-90.145
-92.505
-93.682
-93.285
-90.887
-86.422
-79.946
-71.799
-63.041
-54.687
-47.629
-43.35
-42.371
-43.495
-45.401
-45.947
-44.827
-44.844
-49.538
-62.009
-70.523
-60.83
-47.477
-22.981
-31.571
