200.5
110.937
16.219
-81.364
-174.463
-252.195
-300.489
-313.552
-293.327
-246.342
-183.562
-111.358
-31.417
54.956
146.472
236.639
316.201
378.992
422.639
451.661
473.552
491.942
507.112
516.155
515.262
506.44
496.171
490.435
494.797
509.646
530.092
552.164
571.932
587.449
600.038
610.626
620.205
629.243
636.854
642.655
646.628
649.271
651.831
655.012
658.997
663.862
669.446
675.727
682.898
690.88
699.373
708.168
717.067
725.965
734.876
743.722
752.355
760.669
768.603
776.13
783.266
790.011
796.344
802.266
807.793
812.959
817.813
822.398
826.749
830.902
834.892
838.765
842.566
846.34
850.121
853.933
857.788
861.696
865.661
869.687
873.771
877.905
882.079
886.283
890.51
894.755
899.009
903.26
907.495
911.7
915.859
919.961
923.992
927.937
931.782
935.512
939.113
942.573
945.876
949.004
951.937
954.656
957.139
959.367
961.317
962.968
964.301
965.297
965.939
966.217
966.116
965.623
964.724
963.403
961.651
959.462
956.834
953.764
950.258
946.323
941.978
937.248
932.154
926.711
920.93
914.815
908.372
901.612
894.544
887.176
879.517
871.573
863.357
854.886
846.169
837.207
827.988
818.485
808.688
798.609
788.267
777.697
766.942
756.043
745.058
734.059
723.108
712.265
701.578
691.079
680.818
670.851
661.249
652.096
643.458
635.367
627.849
620.914
614.553
608.75
603.461
598.613
594.15
590.023
586.194
582.639
579.323
576.195
573.199
570.271
567.356
564.417
561.419
558.332
555.142
551.843
548.452
545.006
541.53
538.034
534.523
530.988
527.426
523.841
520.234
516.609
512.965
509.301
505.616
501.912
498.185
494.424
490.61
486.717
482.723
478.621
474.404
470.072
465.626
461.068
456.403
451.645
446.801
441.881
436.894
431.846
426.745
421.604
416.436
411.256
406.078
400.914
395.774
390.67
385.612
380.606
375.661
370.78
365.967
361.227
356.565
351.984
347.487
343.075
338.749
334.51
330.357
326.287
322.297
318.382
314.537
310.755
307.03
303.354
299.718
296.113
292.531
288.961
285.395
281.821
278.23
274.611
270.955
267.251
263.49
259.663
255.759
251.772
247.692
243.512
239.226
234.826
230.308
225.667
220.897
215.997
210.963
205.792
200.485
195.04
189.457
183.739
177.886
171.901
165.788
159.55
153.191
146.716
140.13
133.439
126.647
119.762
112.789
105.734
98.604
91.405
84.145
76.829
69.464
62.058
54.615
47.145
39.651
32.142
24.622
17.099
9.577
2.062
-5.44
-12.925
-20.387
-27.823
-35.228
-42.597
-49.927
-57.214
-64.454
-71.643
-78.778
-85.855
-92.87
-99.821
-106.702
-113.512
-120.247
-126.903
-133.477
-139.965
-146.366
-152.676
-158.892
-165.012
-171.034
-176.957
-182.78
-188.5
-194.12
-199.638
-205.055
-210.372
-215.589
-220.708
-225.73
-230.656
-235.489
-240.229
-244.877
-249.436
-253.91
-258.301
-262.612
-266.847
-271.007
-275.098
-279.123
-283.087
-286.993
-290.839
-294.627
-298.357
-302.033
-305.658
-309.234
-312.755
-316.22
-319.625
-322.967
-326.242
-329.441
-332.545
-335.536
-338.401
-341.132
-343.726
-346.178
-348.478
-350.618
-352.588
-354.387
-356.024
-357.505
-358.831
-360.008
-361.051
-361.993
-362.892
-363.813
-364.808
-365.925
-367.203
-368.675
-370.388
-372.401
-374.765
-377.528
-380.724
-384.365
-388.495
-393.199
-398.469
-404.183
-410.095
-415.806
-420.953
-425.292
-428.528
-430.291
-430.403
-428.934
-426.275
-423.314
-420.901
-419.574
-419.88
-422.337
-427.11
-433.938
-441.925
-449.284
-454.154
-454.956
-450.012
-437.81
-417.118
-387.673
-350.966
-309.548
-266.368
-223.315
-180.079
-136.839
-96.271
-64.18
-51.082
-67.555
-117.964
-199.929
-303.755
-416.476
-530.459
-644.511
-760.462
-879.353
-995.528
-1096.016
-1167.459
-1202.197
-1200.713
-1171.712
-1126.52
-1072.705
-1013.983
-950.595
-881.591
-808.775
-735.647
-666.629
-606.294
-557.195
-520.153
-494.761
-479.609
-473.25
-474.226
-480.526
-489.746
-499.252
-506.875
-511.694
-513.482
-512.279
-508.328
-501.934
-493.976
-486.049
-479.457
-474.694
-471.845
-470.671
-470.907
-472.568
-475.247
-477.993
-480.058
-481.019
-480.714
-479.291
-476.854
-473.287
-468.684
-463.375
-457.649
-451.777
-445.93
-440.129
-434.443
-429.019
-423.961
-419.325
-415.132
-411.357
-407.978
-404.997
-402.396
-400.139
-398.176
-396.441
-394.878
-393.432
-392.057
-390.701
-389.312
-387.836
-386.225
-384.438
-382.452
-380.25
-377.825
-375.174
-372.297
-369.196
-365.88
-362.357
-358.635
-354.719
-350.614
-346.323
-341.858
-337.228
-332.449
-327.535
-322.501
-317.36
-312.123
-306.802
-301.409
-295.961
-290.475
-284.969
-279.468
-274.001
-268.604
-263.318
-258.172
-253.195
-248.407
-243.818
-239.443
-235.292
-231.371
-227.696
-224.274
-221.113
-218.227
-215.626
-213.312
-211.275
-209.487
-207.908
-206.517
-205.298
-204.245
-203.362
-202.651
-202.123
-201.811
-201.738
-201.924
-202.387
-203.124
-204.138
-205.445
-207.074
-209.076
-211.52
-214.449
-217.906
-221.934
-226.553
-231.789
-237.638
-244.048
-250.973
-258.365
-266.181
-274.392
-282.96
-291.816
-300.885
-310.069
-319.248
-328.316
-337.15
-345.61
-353.576
-360.929
-367.585
-373.513
-378.689
-383.087
-386.69
-389.477
-391.444
-392.618
-393.031
-392.725
-391.766
-390.225
-388.196
-385.808
-383.171
-380.391
-377.553
-374.705
-371.889
-369.15
-366.518
-364.021
-361.677
-359.482
-357.44
-355.555
-353.817
-352.208
-350.694
-349.218
-347.735
-346.211
-344.619
-342.949
-341.194
-339.349
-337.418
-335.412
-333.346
-331.238
-329.1
-326.94
-324.77
-322.607
-320.472
-318.392
-316.387
-314.471
-312.654
-310.942
-309.338
-307.843
-306.454
-305.159
-303.949
-302.816
-301.753
-300.754
-299.811
-298.917
-298.061
-297.235
-296.43
-295.64
-294.858
-294.077
-293.292
-292.496
-291.686
-290.858
-290.009
-289.134
-288.23
-287.292
-286.316
-285.3
-284.239
-283.132
-281.975
-280.766
-279.505
-278.19
-276.821
-275.399
-273.923
-272.393
-270.813
-269.182
-267.502
-265.775
-264.003
-262.187
-260.33
-258.432
-256.497
-254.524
-252.516
-250.473
-248.399
-246.293
-244.157
-241.992
-239.801
-237.583
-235.34
-233.074
-230.785
-228.475
-226.145
-223.796
-221.43
-219.046
-216.647
-214.232
-211.803
-209.36
-206.903
-204.432
-201.948
-199.451
-196.942
-194.42
-191.883
-189.333
-186.768
-184.19
-181.6
-178.997
-176.378
-173.75
-171.118
-168.484
-165.856
-163.229
-160.593
-157.958
-155.33
-152.692
-150.029
-147.329
-144.576
-141.781
-138.975
-136.139
-133.243
-130.364
-127.588
-124.862
-122.189
-119.585
-116.856
-114.521
-113.091
-111.838
-110.542
-107.87
-102.222
-95.365
-88.476
-83.313
-82.28
-83.241
-84.385
-84.466
-81.437
-76.78
-71.976
-67.353
-63.843
-60.93
-57.945
-55.045
-52.141
-49.237
-46.475
-43.786
-41.009
-38.101
-35.159
-32.162
-29.071
-26.158
-22.994
-19.034
-15.016
-11.168
-8.605
-9.428
-12.392
-15.6
-17.104
-13.177
-4.32
5.901
15.084
19.441
17.986
14.324
10.592
8.931
10.88
14.291
17.779
20.91
22.82
24.201
25.692
27.134
28.658
30.239
31.742
33.28
34.973
36.841
38.912
41.214
43.747
46.509
49.529
52.823
56.345
60.029
63.777
67.482
71.07
74.49
77.65
80.412
82.68
84.411
85.704
86.811
87.947
89.26
90.924
93.138
96.086
99.88
104.251
108.523
112.032
114.196
114.587
112.955
109.035
102.734
94.724
86.374
79.305
75.283
75.619
81.449
94.294
115.433
145.424
183.141
225.647
269.952
313.555
356.356
400.13
443.474
482.477
508.448
508.346
475.376
408.612
314.721
208.963
102.089
-0.18
-97.199
-194.665
-292.759
-386.091
-465.301
-517.216
-535.678
-521.541
-480.829
-424.761
-361.244
-294.348
-226.374
-157.033
-87.624
-21.682
37.308
86.066
122.897
148.176
163.381
170.407
171.112
167.672
162.289
157.001
153.674
153.177
155.467
160.209
166.805
174.385
182.109
189.039
194.216
197.308
198.442
197.928
196.285
194.028
191.593
189.499
188.237
188.038
188.951
190.907
193.728
197.277
201.441
206.069
211.008
216.129
221.322
226.504
231.601
236.531
241.202
245.531
249.463
252.974
256.062
258.747
261.059
263.033
264.716
266.163
267.423
268.552
269.596
270.601
271.611
272.674
273.832
275.127
276.59
278.237
280.079
282.119
284.358
286.794
289.421
292.23
295.213
298.365
301.68
305.154
308.779
312.541
316.429
320.432
324.54
328.746
333.041
337.408
341.833
346.301
350.791
355.281
359.741
364.132
368.421
372.583
376.599
380.457
384.145
387.647
390.953
394.053
396.938
399.608
402.053
404.265
406.245
408.002
409.558
410.953
412.209
413.333
414.325
415.171
415.856
416.364
416.667
416.731
416.528
416.031
415.224
414.099
412.634
410.793
408.531
405.785
402.508
398.672
394.253
389.238
383.631
377.441
370.695
363.441
355.716
347.554
338.987
330.04
320.76
311.212
301.47
291.623
281.761
271.971
262.347
252.988
243.972
235.367
227.223
219.577
212.469
205.939
200.022
194.745
190.12
186.141
182.794
180.055
177.884
176.226
175.011
174.154
173.582
173.236
173.062
173.01
173.031
173.078
173.113
173.108
173.041
172.895
172.656
172.314
171.872
171.347
170.765
170.165
169.575
169.013
168.497
168.039
167.651
167.341
167.106
166.938
166.827
166.768
166.752
166.774
166.82
166.875
166.918
166.927
166.885
166.779
166.601
166.343
166.0
165.572
165.062
164.479
163.83
163.12
162.356
161.542
160.686
159.796
158.879
157.945
157.001
156.053
155.107
154.169
153.244
152.337
151.449
150.584
149.743
148.928
148.143
147.39
146.669
145.984
145.334
144.721
144.146
143.608
143.106
142.639
142.204
141.8
141.424
141.072
140.74
140.426
140.126
139.837
139.553
139.272
138.99
138.703
138.409
138.102
137.781
137.441
137.081
136.698
136.29
135.854
135.39
134.896
134.371
133.814
133.225
132.604
131.951
131.266
130.55
129.806
129.033
128.236
127.416
126.577
125.721
124.853
123.977
123.095
122.213
121.335
120.464
119.605
118.762
117.94
117.143
116.376
115.643
114.949
114.297
113.693
113.138
112.636
112.191
111.805
111.481
111.221
111.025
110.897
110.836
110.843
110.917
111.059
111.266
111.536
111.866
112.254
112.694
113.181
113.709
114.273
114.867
115.483
116.115
116.755
117.398
118.037
118.665
119.275
119.859
120.409
120.917
121.375
121.776
122.113
122.378
122.569
122.683
122.718
122.672
122.543
122.323
122.01
121.602
121.096
120.494
119.798
119.015
118.16
117.255
116.316
115.363
114.407
113.456
112.52
111.61
110.737
109.915
109.157
108.472
107.869
107.356
106.926
106.558
106.204
105.8
105.287
104.614
103.738
102.613
101.183
99.388
97.173
94.486
91.291
87.539
83.15
78.108
72.502
66.524
60.487
54.703
49.401
44.812
41.236
38.86
37.647
37.313
37.279
36.986
36.164
34.685
32.382
29.13
25.054
20.792
17.488
16.852
20.651
29.408
43.303
61.722
82.57
105.825
132.177
162.016
197.657
238.676
282.446
326.594
365.477
392.59
400.664
381.334
330.9
251.883
153.565
48.332
-54.817
-152.984
-249.535
-346.721
-441.512
-525.476
-585.959
-616.049
-616.538
-593.003
-554.912
-507.32
-450.559
-385.285
-313.157
-240.634
-176.765
-127.355
-93.527
-70.624
-52.344
-35.121
-18.496
-5.157
3.005
6.884
8.643
11.075
15.637
22.016
29.554
37.712
45.975
53.808
60.517
65.223
67.555
67.698
65.962
62.767
58.511
53.518
48.24
43.219
38.794
35.141
32.328
30.295
29.011
28.464
28.577
29.26
30.417
31.949
33.796
35.916
38.269
40.83
43.548
46.355
49.192
51.983
54.667
57.207
59.549
61.664
63.547
65.197
66.642
67.921
69.055
70.058
70.938
71.682
72.297
72.802
73.215
73.572
73.91
74.265
74.697
75.252
75.96
76.84
77.898
79.13
80.546
82.153
83.954
85.959
88.17
90.581
93.188
95.975
98.912
101.959
105.073
108.209
111.335
114.425
117.453
120.399
123.243
125.964
128.553
131.006
133.319
135.496
137.549
139.492
141.348
143.152
144.92
146.668
148.41
150.142
151.868
153.589
155.289
156.958
158.581
160.119
161.527
162.748
163.695
164.294
164.47
164.133
163.221
161.68
159.45
156.492
152.773
148.255
142.915
136.734
129.686
121.785
113.072
103.605
93.491
82.823
71.692
60.21
48.481
36.603
24.688
12.835
1.136
-10.296
-21.344
-31.898
-41.833
-51.066
-59.551
-67.257
-74.19
-80.359
-85.766
-90.441
-94.422
-97.748
-100.466
-102.628
-104.282
-105.507
-106.404
-107.066
-107.594
-108.065
-108.526
-109.017
-109.563
-110.182
-110.889
-111.686
-112.562
-113.51
-114.527
-115.597
-116.708
-117.829
-118.907
-119.903
-120.777
-121.502
-122.069
-122.467
-122.692
-122.748
-122.648
-122.405
-122.039
-121.566
-120.996
-120.343
-119.626
-118.866
-118.093
-117.329
-116.592
-115.896
-115.25
-114.662
-114.139
-113.682
-113.287
-112.95
-112.668
-112.44
-112.266
-112.146
-112.077
-112.055
-112.078
-112.143
-112.25
-112.397
-112.582
-112.806
-113.067
-113.364
-113.7
-114.074
-114.484
-114.929
-115.407
-115.914
-116.449
-117.009
-117.59
-118.19
-118.806
-119.435
-120.074
-120.722
-121.374
-122.03
-122.686
-123.339
-123.987
-124.628
-125.259
-125.877
-126.479
-127.064
-127.627
-128.167
-128.679
-129.162
-129.612
-130.026
-130.403
-130.739
-131.033
-131.283
-131.487
-131.645
-131.756
-131.82
-131.836
-131.806
-131.729
-131.607
-131.441
-131.232
-130.981
-130.691
-130.362
-129.998
-129.599
-129.168
-128.707
-128.218
-127.703
-127.166
-126.607
-126.03
-125.436
-124.828
-124.209
-123.58
-122.945
-122.304
-121.662
-121.019
-120.377
-119.739
-119.104
-118.475
-117.852
-117.234
-116.623
-116.017
-115.416
-114.82
-114.227
-113.637
-113.047
-112.457
-111.865
-111.269
-110.669
-110.062
-109.448
-108.824
-108.192
-107.549
-106.897
-106.235
-105.563
-104.883
-104.196
-103.502
-102.805
-102.104
-101.402
-100.701
-100.001
-99.306
-98.614
-97.928
-97.25
-96.583
-95.927
-95.285
-94.659
-94.051
-93.465
-92.902
-92.363
-91.846
-91.349
-90.871
-90.411
-89.972
-89.552
-89.149
-88.758
-88.377
-88.001
-87.621
-87.225
-86.789
-86.292
-85.717
-85.051
-84.287
-83.417
-82.431
-81.319
-80.07
-78.682
-77.157
-75.496
-73.701
-71.784
-69.765
-67.693
-65.641
-63.679
-61.873
-60.273
-58.918
-57.853
-57.129
-56.793
-56.888
-57.453
-58.502
-60.079
-62.254
-64.99
-68.19
-71.646
-74.965
-77.79
-79.851
-80.776
-80.201
-78.077
-74.421
-69.518
-64.314
-59.514
-55.547
-53.278
-52.744
-53.406
-55.641
-58.699
-61.94
-65.403
-66.204
-61.429
-48.043
-23.061
12.011
54.01
98.396
140.716
179.45
214.294
246.626
275.537
296.823
303.422
284.841
236.002
158.713
60.332
-46.221
-153.129
-259.648
-366.36
-473.55
-574.919
-656.672
-707.047
-720.761
-700.357
-656.573
-600.873
-540.307
-478.234
-414.554
-348.481
-281.775
-217.842
-160.457
-112.933
-76.53
-50.772
-34.269
-25.174
-21.81
-22.23
-24.397
-26.447
-26.726
-24.475
-19.757
-12.917
-4.509
4.64
13.715
21.831
28.077
32.146
34.163
34.418
33.395
31.595
29.451
27.483
26.215
25.901
26.623
28.35
30.933
34.263
38.253
42.767
47.662
52.815
58.116
63.483
68.849
74.128
79.225
84.049
88.511
92.564
96.188
99.379
102.154
104.537
106.557
108.258
109.688
110.899
111.936
112.845
113.665
114.439
115.212
116.029
116.931
117.948
119.096
120.386
121.822
123.406
125.135
127.002
128.997
131.111
133.335
135.663
138.09
140.606
143.2
145.86
148.575
151.332
154.118
156.921
159.73
162.533
165.316
168.067
170.774
173.422
175.996
178.481
180.857
183.106
185.21
187.151
188.911
190.476
191.829
192.957
193.847
194.487
194.868
194.981
194.816
194.36
193.6
192.53
191.149
189.462
187.472
185.183
182.599
179.728
176.584
173.178
169.511
165.579
161.376
156.904
152.174
147.209
142.028
136.646
131.065
125.289
119.328
113.194
106.893
100.423
93.773
86.95
79.986
72.93
65.835
58.737
51.661
44.622
37.639
30.741
23.963
17.333
10.872
4.604
-1.439
-7.209
-12.651
-17.737
-22.472
-26.888
-31.015
-34.869
-38.457
-41.78
-44.852
-47.69
-50.31
-52.719
-54.918
-56.919
-58.745
-60.436
-62.036
-63.569
-65.034
-66.411
-67.686
-68.856
-69.921
-70.884
-71.74
-72.486
-73.126
-73.675
-74.15
-74.561
-74.91
-75.187
-75.384
-75.504
-75.557
-75.561
-75.531
-75.478
-75.41
-75.336
-75.27
-75.22
-75.188
-75.169
-75.158
-75.153
-75.155
-75.167
-75.188
-75.218
-75.253
-75.289
-75.323
-75.353
-75.374
-75.382
-75.37
-75.335
-75.274
-75.186
-75.072
-74.928
-74.754
-74.547
-74.306
-74.031
-73.72
-73.371
-72.982
-72.552
-72.081
-71.569
-71.016
-70.422
-69.788
-69.115
-68.406
-67.662
-66.885
-66.077
-65.243
-64.383
-63.502
-62.603
-61.688
-60.761
-59.825
-58.883
-57.94
-56.997
-56.057
-55.124
-54.199
-53.285
-52.383
-51.496
-50.625
-49.771
-48.936
-48.123
-47.331
-46.564
-45.823
-45.109
-44.424
-43.769
-43.145
-42.553
-41.993
-41.466
-40.971
-40.508
-40.078
-39.679
-39.312
-38.975
-38.669
-38.393
-38.145
-37.924
-37.73
-37.562
-37.417
-37.296
-37.197
-37.119
-37.062
-37.025
-37.007
-37.008
-37.025
-37.057
-37.104
-37.162
-37.23
-37.303
-37.379
-37.454
-37.525
-37.59
-37.644
-37.686
-37.714
-37.725
-37.718
-37.691
-37.64
-37.562
-37.452
-37.304
-37.115
-36.878
-36.591
-36.249
-35.849
-35.391
-34.874
-34.296
-33.657
-32.952
-32.177
-31.328
-30.404
-29.408
-28.346
-27.229
-26.071
-24.888
-23.697
-22.512
-21.341
-20.187
-19.047
-17.914
-16.779
-15.641
-14.506
-13.381
-12.269
-11.169
-10.073
-8.965
-7.825
-6.624
-5.334
-3.932
-2.401
-0.744
1.019
2.858
4.734
6.623
8.516
10.407
12.289
14.153
15.975
17.733
19.398
20.931
22.288
23.431
24.328
24.974
25.388
25.601
25.662
25.596
25.401
25.072
24.591
23.942
23.121
22.125
20.959
19.631
18.146
16.498
14.679
12.659
10.409
7.863
4.908
1.513
-2.251
-6.206
-10.029
-13.413
-16.141
-17.957
-18.558
-17.798
-15.719
-12.694
-9.483
-6.817
-5.246
-5.232
-7.16
-11.182
-17.101
-24.087
-30.679
-35.216
-36.068
-31.842
-21.322
-3.428
22.424
56.027
96.518
141.51
187.292
230.751
268.704
300.091
326.654
347.484
359.438
355.687
325.635
264.521
174.681
65.091
-50.069
-161.426
-266.266
-365.637
-461.367
-550.03
-622.552
-669.679
-686.447
-674.381
-641.034
-594.764
-541.272
-483.346
-421.46
-356.739
-291.771
-230.108
-175.564
-130.424
-95.461
-70.325
-53.567
-43.56
-38.784
-37.255
-37.045
-36.516
-34.211
-29.56
-22.781
-14.307
-4.756
5.035
14.294
22.23
28.049
31.508
32.779
32.186
30.226
27.387
24.06
20.685
17.707
15.376
13.813
13.042
12.966
13.514
14.633
16.246
18.288
20.693
23.389
26.307
29.394
32.601
35.901
39.282
42.721
46.185
49.633
53.04
56.407
59.732
63.012
66.228
69.341
72.339
75.234
78.046
80.796
83.488
86.106
88.629
91.056
93.393
95.655
97.851
99.98
102.05
104.083
106.119
108.207
110.381
112.651
115.025
117.507
120.106
122.839
125.717
128.738
131.896
135.185
138.597
142.129
145.767
149.486
153.254
157.03
160.784
164.492
168.133
171.685
175.125
178.431
181.584
184.571
187.376
189.983
192.371
194.524
196.423
198.059
199.419
200.496
201.278
201.757
201.923
201.767
201.284
200.465
199.304
197.795
195.933
193.718
191.15
188.233
184.971
181.37
177.438
173.184
168.62
163.757
158.609
153.191
147.516
141.603
135.47
129.134
122.615
115.934
109.112
102.17
95.13
88.015
80.846
73.646
66.437
59.242
52.083
44.982
37.959
31.036
24.233
17.568
11.061
4.727
-1.416
-7.356
-13.077
-18.57
-23.823
-28.828
-33.578
-38.067
-42.291
-46.245
-49.93
-53.344
-56.489
-59.367
-61.983
-64.34
-66.445
-68.305
-69.928
-71.323
-72.501
-73.47
-74.243
-74.83
-75.245
-75.499
-75.605
-75.576
-75.424
-75.164
-74.806
-74.364
-73.85
-73.276
-72.653
-71.991
-71.301
-70.591
-69.872
-69.151
-68.435
-67.731
-67.045
-66.382
-65.747
-65.143
-64.574
-64.041
-63.548
-63.095
-62.682
-62.311
-61.98
-61.69
-61.439
-61.225
-61.047
-60.904
-60.791
-60.708
-60.651
-60.618
-60.604
-60.608
-60.627
-60.656
-60.694
-60.738
-60.784
-60.831
-60.876
-60.918
-60.954
-60.982
-61.002
-61.013
-61.013
-61.001
-60.978
-60.942
-60.894
-60.834
-60.761
-60.676
-60.579
-60.471
-60.351
-60.222
-60.082
-59.934
-59.777
-59.614
-59.444
-59.269
-59.09
-58.909
-58.727
-58.544
-58.364
-58.186
-58.012
-57.843
-57.681
-57.526
-57.379
-57.241
-57.112
-56.995
-56.888
-56.793
-56.71
-56.64
-56.583
-56.539
-56.508
-56.492
-56.489
-56.5
-56.526
-56.566
-56.622
-56.692
-56.776
-56.876
-56.99
-57.117
-57.259
-57.413
-57.578
-57.755
-57.942
-58.138
-58.342
-58.552
-58.769
-58.989
-59.212
-59.435
-59.658
-59.878
-60.093
-60.301
-60.5
-60.687
-60.86
-61.017
-61.155
-61.272
-61.365
-61.431
-61.468
-61.472
-61.44
-61.369
-61.256
-61.099
-60.895
-60.641
-60.334
-59.973
-59.554
-59.077
-58.539
-57.938
-57.272
-56.541
-55.745
-54.881
-53.952
-52.958
-51.901
-50.784
-49.609
-48.378
-47.095
-45.763
-44.389
-42.975
-41.523
-40.043
-38.542
-37.03
-35.52
-34.012
-32.506
-31.015
-29.553
-28.109
-26.678
-25.256
-23.833
-22.425
-21.066
-19.742
-18.434
-17.223
-16.198
-15.309
-14.557
-13.956
-13.317
-13.131
-13.868
-14.817
-15.748
-15.372
-12.155
-7.771
-3.329
-0.486
-1.518
-4.377
-7.338
-9.225
-8.093
-5.34
-2.385
0.443
2.247
3.466
4.681
5.704
6.565
7.177
7.365
7.174
6.624
5.64
4.181
2.231
-0.228
-3.203
-6.705
-10.767
-15.336
-20.222
-25.162
-29.809
-33.84
-37.01
-39.05
-39.623
-38.501
-35.718
-31.588
-26.685
-21.624
-16.803
-12.506
-9.133
-7.076
-6.346
-6.351
-6.093
-3.898
2.2
12.964
28.916
49.887
73.336
98.366
126.036
157.258
195.836
243.594
296.249
347.597
387.784
405.408
394.273
352.386
282.452
193.516
95.189
-6.291
-107.93
-212.052
-321.61
-433.625
-540.098
-627.969
-684.36
-704.523
-691.116
-652.82
-600.252
-538.699
-469.19
-392.058
-308.765
-226.087
-153.266
-96.3
-56.861
-30.89
-12.421
2.179
13.989
21.543
24.225
23.448
21.481
21.045
23.394
28.22
34.913
42.681
50.64
58.086
64.223
68.234
69.94
69.576
67.522
64.335
60.552
56.647
53.16
50.589
49.157
48.922
49.825
51.712
54.466
57.975
62.083
66.632
71.478
76.501
81.604
86.694
91.662
96.395
100.785
104.76
108.287
111.355
113.973
116.168
117.969
119.423
120.59
121.527
122.289
122.932
123.502
124.053
124.641
125.317
126.135
127.132
128.33
129.746
131.389
133.26
135.36
137.684
140.217
142.952
145.881
148.994
152.286
155.744
159.354
163.102
166.973
170.951
175.023
179.174
183.389
187.654
191.954
196.273
200.596
204.903
209.174
213.385
217.514
221.537
225.431
229.173
232.741
236.115
239.278
242.21
244.893
247.307
249.429
251.242
252.733
253.887
254.697
255.16
255.275
255.053
254.506
253.64
252.458
250.959
249.134
246.979
244.488
241.655
238.485
234.981
231.143
226.979
222.495
217.686
212.544
207.048
201.168
194.898
188.243
181.218
173.863
166.218
158.334
150.276
142.099
133.852
125.585
117.334
109.136
101.045
93.118
85.426
78.053
71.058
64.481
58.356
52.686
47.462
42.662
38.236
34.142
30.351
26.837
23.586
20.589
17.82
15.249
12.843
10.55
8.334
6.169
4.03
1.911
-0.179
-2.226
-4.191
-6.04
-7.757
-9.328
-10.753
-12.039
-13.184
-14.191
-15.063
-15.796
-16.389
-16.844
-17.162
-17.35
-17.426
-17.409
-17.33
-17.22
-17.097
-16.981
-16.884
-16.814
-16.778
-16.784
-16.832
-16.925
-17.068
-17.265
-17.522
-17.843
-18.228
-18.677
-19.187
-19.754
-20.375
-21.047
-21.768
-22.534
-23.343
-24.193
-25.084
-26.013
-26.979
-27.976
-29.001
-30.049
-31.116
-32.196
-33.284
-34.375
-35.465
-36.549
-37.622
-38.682
-39.723
-40.743
-41.738
-42.705
-43.641
-44.542
-45.406
-46.23
-47.012
-47.751
-48.443
-49.089
-49.686
-50.234
-50.733
-51.182
-51.581
-51.931
-52.233
-52.486
-52.693
-52.854
-52.971
-53.047
-53.082
-53.079
-53.042
-52.971
-52.871
-52.743
-52.591
-52.416
-52.222
-52.011
-51.786
-51.549
-51.302
-51.049
-50.791
-50.532
-50.273
-50.016
-49.765
-49.52
-49.284
-49.057
-48.843
-48.641
-48.453
-48.28
-48.122
-47.981
-47.858
-47.752
-47.665
-47.598
-47.551
-47.524
-47.517
-47.531
-47.566
-47.621
-47.697
-47.793
-47.91
-48.047
-48.205
-48.384
-48.585
-48.807
-49.051
-49.318
-49.606
-49.917
-50.251
-50.606
-50.985
-51.387
-51.812
-52.26
-52.732
-53.227
-53.744
-54.283
-54.842
-55.42
-56.012
-56.618
-57.233
-57.857
-58.486
-59.117
-59.749
-60.38
-61.008
-61.631
-62.247
-62.85
-63.435
-63.996
-64.528
-65.024
-65.476
-65.876
-66.219
-66.499
-66.714
-66.86
-66.932
-66.923
-66.825
-66.632
-66.344
-65.961
-65.483
-64.913
-64.26
-63.537
-62.769
-61.969
-61.149
-60.312
-59.456
-58.581
-57.687
-56.773
-55.837
-54.875
-53.881
-52.852
-51.789
-50.685
-49.526
-48.287
-46.927
-45.42
-43.757
-41.937
-39.972
-37.877
-35.668
-33.371
-31.02
-28.65
-26.293
-23.974
-21.709
-19.527
-17.46
-15.555
-13.873
-12.459
-11.341
-10.538
-10.056
-9.895
-10.054
-10.517
-11.259
-12.253
-13.474
-14.907
-16.546
-18.385
-20.423
-22.645
-25.028
-27.554
-30.197
-32.953
-35.835
-38.849
-42.009
-45.323
-48.78
-52.405
-56.262
-60.324
-64.486
-68.545
-72.17
-75.093
-77.165
-78.17
-77.824
-75.991
-72.743
-68.445
-63.804
-59.439
-55.618
-52.585
-50.74
-50.214
-50.766
-51.858
-52.219
-50.475
-46.123
-37.99
-24.484
-5.462
19.596
49.192
79.549
110.047
140.295
171.508
207.336
246.137
283.528
312.326
320.674
300.425
248.436
167.151
67.584
-38.519
-143.39
-244.514
-346.266
-451.164
-555.665
-649.621
-717.427
-749.311
-743.735
-706.991
-652.308
-589.504
-523.869
-457.692
-389.462
-319.655
-251.345
-187.985
-133.756
-91.099
-60.014
-39.215
-26.749
-21.012
-20.542
-23.762
-28.762
-33.211
-35.498
-35.222
-32.477
-27.486
-20.465
-11.472
-1.115
9.179
18.162
25.303
30.506
33.975
35.806
35.797
34.092
31.419
28.633
26.314
24.703
23.767
23.483
24.027
25.488
27.715
30.405
33.28
36.192
39.112
42.048
44.932
47.683
50.26
52.685
55.019
57.308
59.571
61.806
64.019
66.224
68.44
70.68
72.93
75.184
77.443
79.715
82.02
84.37
86.766
89.202
91.659
94.119
96.575
99.015
101.434
103.833
106.219
108.613
111.053
113.569
116.178
118.891
121.707
124.628
127.658
130.8
134.052
137.415
140.881
144.444
148.098
151.828
155.614
159.426
163.224
166.973
170.646
174.217
177.666
180.972
184.114
187.075
189.843
192.405
194.745
196.849
198.702
200.29
201.605
202.639
203.388
203.846
204.01
203.873
203.432
202.684
201.626
200.254
198.566
196.559
194.235
191.598
188.652
185.404
181.861
178.031
173.926
169.556
164.935
160.074
154.987
149.69
144.196
138.523
132.687
126.705
120.593
114.371
108.055
101.664
95.216
88.729
82.222
75.712
69.217
62.756
56.346
50.005
43.748
37.594
31.556
25.652
19.893
14.295
8.868
3.623
-1.43
-6.282
-10.927
-15.358
-19.571
-23.562
-27.328
-30.869
-34.185
-37.276
-40.144
-42.792
-45.224
-47.446
-49.463
-51.281
-52.907
-54.351
-55.62
-56.724
-57.672
-58.474
-59.142
-59.685
-60.114
-60.441
-60.677
-60.832
-60.916
-60.941
-60.916
-60.85
-60.753
-60.633
-60.498
-60.355
-60.21
-60.07
-59.939
-59.823
-59.724
-59.648
-59.595
-59.568
-59.569
-59.599
-59.657
-59.744
-59.858
-59.999
-60.164
-60.352
-60.56
-60.785
-61.025
-61.275
-61.533
-61.795
-62.058
-62.318
-62.572
-62.817
-63.05
-63.267
-63.467
-63.646
-63.804
-63.937
-64.045
-64.127
-64.181
-64.207
-64.204
-64.172
-64.111
-64.02
-63.9
-63.752
-63.576
-63.373
-63.144
-62.89
-62.613
-62.314
-61.994
-61.655
-61.3
-60.929
-60.544
-60.146
-59.738
-59.321
-58.896
-58.464
-58.027
-57.585
-57.14
-56.692
-56.241
-55.789
-55.335
-54.88
-54.424
-53.968
-53.512
-53.056
-52.602
-52.149
-51.698
-51.25
-50.806
-50.366
-49.931
-49.503
-49.082
-48.668
-48.264
-47.869
-47.486
-47.114
-46.756
-46.413
-46.085
-45.774
-45.482
-45.21
-44.959
-44.732
-44.528
-44.35
-44.199
-44.075
-43.981
-43.916
-43.882
-43.88
-43.909
-43.97
-44.064
-44.189
-44.345
-44.532
-44.748
-44.993
-45.263
-45.559
-45.877
-46.216
-46.573
-46.945
-47.33
-47.725
-48.125
-48.529
-48.93
-49.327
-49.715
-50.09
-50.446
-50.78
-51.088
-51.366
-51.613
-51.823
-51.994
-52.122
-52.207
-52.245
-52.232
-52.164
-52.036
-51.846
-51.591
-51.269
-50.879
-50.419
-49.889
-49.288
-48.621
-47.889
-47.093
-46.23
-45.3
-44.302
-43.246
-42.143
-41.004
-39.836
-38.647
-37.45
-36.26
-35.087
-33.937
-32.803
-31.678
-30.561
-29.46
-28.39
-27.362
-26.383
-25.446
-24.541
-23.667
-22.82
-21.996
-21.181
-20.349
-19.488
-18.606
-17.731
-16.888
-16.088
-15.324
-14.577
-13.837
-13.104
-12.386
-11.689
-11.01
-10.345
-9.7
-9.095
-8.562
-8.121
-7.755
-7.429
-7.118
-6.813
-6.531
-6.303
-6.148
-6.076
-6.105
-6.264
-6.589
-7.119
-7.866
-8.82
-9.972
-11.329
-12.927
-14.819
-17.043
-19.592
-22.467
-25.687
-29.195
-32.864
-36.476
-39.657
-42.073
-43.514
-43.696
-42.303
-39.315
-34.876
-29.38
-23.709
-18.524
-14.19
-11.304
-10.344
-11.213
-13.595
-16.553
-18.241
-17.308
-12.755
-3.026
13.045
36.021
66.355
102.615
141.527
180.767
217.82
251.369
282.67
310.205
330.359
336.895
319.782
274.046
201.206
108.291
7.59
-93.008
-192.493
-292.351
-393.541
-490.813
-572.186
-625.829
-646.277
-636.305
-604.463
-560.256
-509.078
-451.33
-387.396
-319.394
-251.308
-189.925
-139.145
-98.659
-67.066
-41.098
-19.232
-2.765
7.653
12.052
12.01
10.622
10.169
11.662
15.193
20.285
26.626
33.875
41.345
48.152
53.311
56.353
57.393
56.723
54.756
51.924
48.627
45.392
42.816
41.231
40.741
41.334
42.862
45.212
48.322
52.064
56.288
60.867
65.677
70.622
75.638
80.633
85.503
90.148
94.463
98.39
101.905
105.002
107.698
110.018
111.987
113.647
115.049
116.24
117.27
118.183
119.015
119.81
120.614
121.472
122.433
123.528
124.776
126.192
127.783
129.55
131.499
133.625
135.916
138.366
140.971
143.728
146.639
149.702
152.908
156.244
159.697
163.251
166.891
170.599
174.346
178.105
181.853
185.567
189.235
192.847
196.385
199.835
203.179
206.405
209.517
212.519
215.413
218.204
220.898
223.507
226.064
228.594
231.112
233.628
236.13
238.6
241.021
243.371
245.62
247.723
249.618
251.231
252.507
253.39
253.827
253.762
253.116
251.822
249.834
247.118
243.667
239.485
234.579
228.966
222.689
215.806
208.399
200.565
192.382
183.922
175.258
166.464
157.633
148.849
140.175
131.663
123.354
115.279
107.473
99.962
92.747
85.822
79.164
72.738
66.529
60.527
54.72
49.1
43.65
38.358
33.223
28.252
23.451
18.824
14.375
10.103
6.023
2.149
-1.5
-4.906
-8.057
-10.95
-13.582
-15.953
-18.066
-19.927
-21.548
-22.944
-24.13
-25.12
-25.926
-26.559
-27.036
-27.372
-27.585
-27.69
-27.701
-27.634
-27.5
-27.314
-27.086
-26.827
-26.546
-26.25
-25.949
-25.65
-25.361
-25.09
-24.845
-24.63
-24.452
-24.316
-24.224
-24.18
-24.185
-24.24
-24.344
-24.499
-24.701
-24.949
-25.242
-25.576
-25.949
-26.357
-26.799
-27.27
-27.768
-28.29
-28.833
-29.393
-29.969
-30.556
-31.154
-31.758
-32.367
-32.977
-33.587
-34.193
-34.794
-35.386
-35.969
-36.539
-37.095
-37.636
-38.16
-38.666
-39.153
-39.621
-40.07
-40.499
-40.909
-41.301
-41.674
-42.03
-42.369
-42.691
-42.997
-43.287
-43.561
-43.82
-44.063
-44.29
-44.502
-44.699
-44.88
-45.045
-45.195
-45.33
-45.45
-45.555
-45.647
-45.725
-45.791
-45.846
-45.889
-45.924
-45.949
-45.968
-45.98
-45.987
-45.99
-45.99
-45.987
-45.984
-45.981
-45.978
-45.979
-45.983
-45.993
-46.009
-46.033
-46.067
-46.112
-46.17
-46.243
-46.332
-46.438
-46.562
-46.706
-46.87
-47.055
-47.26
-47.486
-47.731
-47.995
-48.275
-48.571
-48.88
-49.199
-49.526
-49.859
-50.195
-50.53
-50.861
-51.185
-51.499
-51.799
-52.081
-52.342
-52.577
-52.782
-52.954
-53.09
-53.184
-53.233
-53.233
-53.181
-53.073
-52.905
-52.676
-52.382
-52.021
-51.592
-51.095
-50.531
-49.899
-49.202
-48.443
-47.626
-46.755
-45.835
-44.87
-43.866
-42.829
-41.765
-40.68
-39.579
-38.47
-37.359
-36.254
-35.162
-34.09
-33.044
-32.032
-31.06
-30.137
-29.268
-28.456
-27.704
-27.014
-26.392
-25.843
-25.372
-24.975
-24.648
-24.389
-24.194
-24.056
-23.965
-23.898
-23.832
-23.75
-23.636
-23.485
-23.288
-23.03
-22.695
-22.266
-21.736
-21.112
-20.399
-19.595
-18.702
-17.737
-16.731
-15.749
-14.86
-14.113
-13.554
-13.219
-13.132
-13.342
-13.902
-14.859
-16.25
-18.093
-20.381
-23.147
-26.457
-30.284
-34.488
-38.803
-42.819
-46.181
-48.651
-49.947
-49.712
-47.768
-44.179
-39.314
-34.022
-29.118
-25.112
-22.538
-21.904
-23.382
-26.774
-31.267
-35.182
-36.835
-34.783
-27.362
-13.134
9.116
39.606
76.592
117.497
159.73
202.028
245.259
289.282
330.82
362.965
374.694
356.076
303.807
221.842
121.183
14.498
-91.162
-195.721
-302.832
-413.806
-522.679
-615.707
-677.921
-701.781
-689.39
-650.665
-598.118
-539.183
-475.102
-406.372
-334.418
-263.264
-200.586
-150.372
-111.957
-83.528
-60.906
-41.962
-28.053
-19.584
-16.232
-16.634
-17.73
-17.302
-14.663
-9.847
-3.419
4.069
12.09
19.994
26.947
32.047
34.965
35.843
34.964
32.79
29.783
26.343
22.998
20.321
18.608
17.961
18.371
19.692
21.815
24.67
28.121
32.013
36.216
40.606
45.088
49.598
54.044
58.324
62.341
65.996
69.231
72.027
74.378
76.302
77.824
78.975
79.801
80.358
80.699
80.876
80.938
80.927
80.891
80.878
80.936
81.116
81.45
81.961
82.663
83.565
84.672
85.988
87.508
89.224
91.129
93.219
95.488
97.933
100.546
103.316
106.232
109.28
112.448
115.726
119.1
122.557
126.085
129.67
133.299
136.958
140.63
144.295
147.933
151.522
155.04
158.464
161.772
164.943
167.957
170.793
173.435
175.863
178.06
180.005
181.676
183.054
184.126
184.879
185.306
185.407
185.184
184.643
183.794
182.641
181.187
179.429
177.358
174.967
172.245
169.193
165.818
162.129
158.133
153.836
149.24
144.342
139.131
133.592
127.708
121.471
114.888
107.983
100.798
93.386
85.811
78.125
70.372
62.592
54.823
47.104
39.474
31.984
24.686
17.645
10.932
4.607
-1.289
-6.737
-11.743
-16.332
-20.545
-24.416
-27.972
-31.235
-34.219
-36.939
-39.409
-41.648
-43.676
-45.529
-47.251
-48.883
-50.454
-51.98
-53.457
-54.867
-56.182
-57.376
-58.43
-59.332
-60.079
-60.671
-61.113
-61.413
-61.58
-61.617
-61.517
-61.278
-60.897
-60.378
-59.737
-58.991
-58.166
-57.287
-56.376
-55.452
-54.528
-53.615
-52.721
-51.849
-51.0
-50.177
-49.385
-48.631
-47.92
-47.258
-46.648
-46.09
-45.583
-45.128
-44.722
-44.363
-44.05
-43.781
-43.557
-43.377
-43.243
-43.154
-43.111
-43.113
-43.158
-43.243
-43.367
-43.528
-43.721
-43.946
-44.198
-44.477
-44.779
-45.104
-45.447
-45.808
-46.184
-46.573
-46.971
-47.378
-47.789
-48.204
-48.618
-49.029
-49.436
-49.835
-50.224
-50.601
-50.965
-51.313
-51.644
-51.957
-52.25
-52.522
-52.772
-53.0
-53.204
-53.384
-53.541
-53.673
-53.781
-53.865
-53.926
-53.964
-53.979
-53.971
-53.942
-53.891
-53.82
-53.729
-53.62
-53.493
-53.35
-53.192
-53.021
-52.839
-52.647
-52.448
-52.242
-52.031
-51.818
-51.603
-51.388
-51.174
-50.963
-50.755
-50.551
-50.353
-50.162
-49.977
-49.801
-49.632
-49.473
-49.323
-49.182
-49.052
-48.931
-48.821
-48.722
-48.633
-48.555
-48.487
-48.429
-48.38
-48.339
-48.306
-48.279
-48.256
-48.236
-48.218
-48.199
-48.178
-48.153
-48.122
-48.083
-48.034
-47.973
-47.898
-47.808
-47.699
-47.57
-47.419
-47.243
-47.041
-46.811
-46.551
-46.258
-45.932
-45.571
-45.173
-44.736
-44.259
-43.742
-43.184
-42.585
-41.946
-41.266
-40.549
-39.796
-39.01
-38.194
-37.352
-36.488
-35.605
-34.709
-33.803
-32.891
-31.977
-31.066
-30.161
-29.269
-28.393
-27.537
-26.709
-25.911
-25.15
-24.43
-23.754
-23.121
-22.532
-21.988
-21.491
-21.045
-20.652
-20.31
-20.019
-19.778
-19.582
-19.424
-19.292
-19.159
-19.008
-18.818
-18.575
-18.273
-17.902
-17.447
-16.899
-16.242
-15.465
-14.571
-13.553
-12.408
-11.146
-9.786
-8.372
-6.983
-5.689
-4.552
-3.628
-2.949
-2.56
-2.528
-2.91
-3.77
-5.157
-7.084
-9.596
-12.779
-16.618
-20.997
-25.672
-30.233
-34.316
-37.693
-40.086
-41.159
-40.73
-38.846
-35.869
-32.526
-29.472
-27.023
-25.447
-25.141
-26.286
-28.632
-31.421
-33.231
-32.577
-28.568
-20.302
-6.477
13.969
41.747
76.146
114.464
154.025
192.688
230.322
268.756
307.04
341.454
363.714
361.353
327.139
260.41
168.212
64.542
-40.239
-142.786
-245.748
-353.084
-463.207
-566.168
-646.235
-692.415
-701.821
-680.365
-641.229
-593.809
-542.711
-488.94
-429.939
-366.221
-300.646
-236.453
-177.877
-127.318
-85.554
-53.194
-29.581
-13.33
-3.538
1.019
1.823
-0.032
-2.973
-5.1
-5.615
-4.494
-1.669
2.582
7.945
14.462
21.392
27.385
31.881
34.808
36.19
36.388
35.562
33.507
30.616
27.763
25.417
23.85
23.161
23.151
23.825
25.407
27.832
30.818
34.14
37.562
40.968
44.402
47.814
51.099
54.202
57.089
59.791
62.377
64.872
67.269
69.549
71.681
73.672
75.559
77.371
79.142
80.895
82.641
84.414
86.243
88.15
90.149
92.221
94.341
96.507
98.721
101.008
103.404
105.923
108.569
111.35
114.268
117.324
120.521
123.845
127.276
130.806
134.427
138.144
141.96
145.867
149.847
153.877
157.925
161.964
165.971
169.916
173.774
177.521
181.135
184.603
187.911
191.043
193.982
196.709
199.202
201.447
203.429
205.137
206.559
207.687
208.511
209.028
209.232
209.117
208.68
207.916
206.819
205.388
203.622
201.523
199.091
196.332
193.251
189.856
186.156
182.161
177.881
173.33
168.52
163.466
158.183
152.687
146.996
141.127
135.1
128.934
122.648
116.264
109.802
103.281
96.723
90.148
83.576
77.027
70.519
64.073
57.707
51.438
45.284
39.262
33.387
27.674
22.138
16.79
11.642
6.705
1.987
-2.505
-6.762
-10.782
-14.559
-18.091
-21.377
-24.416
-27.212
-29.765
-32.08
-34.163
-36.019
-37.655
-39.081
-40.303
-41.332
-42.178
-42.851
-43.362
-43.723
-43.944
-44.038
-44.016
-43.89
-43.671
-43.373
-43.005
-42.579
-42.106
-41.596
-41.059
-40.506
-39.944
-39.382
-38.828
-38.289
-37.772
-37.283
-36.826
-36.407
-36.028
-35.693
-35.404
-35.162
-34.968
-34.824
-34.727
-34.679
-34.677
-34.722
-34.81
-34.94
-35.11
-35.317
-35.559
-35.832
-36.134
-36.461
-36.811
-37.18
-37.565
-37.963
-38.371
-38.786
-39.205
-39.625
-40.043
-40.457
-40.863
-41.26
-41.646
-42.019
-42.376
-42.717
-43.041
-43.347
-43.633
-43.9
-44.147
-44.373
-44.58
-44.765
-44.931
-45.076
-45.201
-45.308
-45.395
-45.465
-45.517
-45.552
-45.571
-45.576
-45.566
-45.543
-45.508
-45.462
-45.406
-45.341
-45.269
-45.191
-45.109
-45.024
-44.937
-44.849
-44.762
-44.677
-44.594
-44.516
-44.442
-44.374
-44.313
-44.26
-44.215
-44.178
-44.152
-44.136
-44.131
-44.138
-44.157
-44.188
-44.232
-44.289
-44.36
-44.445
-44.543
-44.656
-44.783
-44.925
-45.08
-45.248
-45.43
-45.624
-45.829
-46.045
-46.27
-46.505
-46.746
-46.994
-47.246
-47.501
-47.758
-48.014
-48.268
-48.518
-48.762
-48.998
-49.224
-49.439
-49.64
-49.826
-49.993
-50.14
-50.264
-50.364
-50.436
-50.478
-50.488
-50.464
-50.402
-50.302
-50.159
-49.973
-49.741
-49.462
-49.135
-48.757
-48.329
-47.85
-47.32
-46.74
-46.112
-45.438
-44.72
-43.96
-43.163
-42.33
-41.465
-40.571
-39.653
-38.713
-37.755
-36.784
-35.805
-34.825
-33.848
-32.88
-31.928
-30.997
-30.093
-29.22
-28.385
-27.59
-26.842
-26.145
-25.503
-24.926
-24.415
-23.972
-23.593
-23.274
-23.005
-22.78
-22.586
-22.405
-22.224
-22.029
-21.807
-21.551
-21.249
-20.888
-20.457
-19.934
-19.308
-18.579
-17.747
-16.822
-15.82
-14.756
-13.656
-12.569
-11.533
-10.588
-9.777
-9.131
-8.691
-8.507
-8.621
-9.069
-9.887
-11.104
-12.745
-14.828
-17.363
-20.323
-23.679
-27.409
-31.41
-35.512
-39.491
-42.998
-45.701
-47.4
-47.833
-46.661
-43.857
-39.557
-34.067
-28.182
-22.545
-17.422
-13.24
-10.559
-9.45
-9.625
-10.497
-10.189
-6.425
1.577
14.344
31.804
51.304
72.135
95.971
123.685
159.126
204.541
255.679
306.426
346.931
365.153
354.138
311.654
240.881
151.676
54.245
-44.837
-144.181
-248.237
-359.601
-474.657
-582.082
-664.283
-709.472
-715.355
-689.093
-645.294
-593.705
-536.695
-472.016
-395.823
-310.559
-225.459
-151.264
-95.729
-59.683
-37.384
-22.216
-9.853
0.709
7.373
9.401
8.079
5.549
4.707
6.851
11.639
18.505
26.619
35.048
43.111
50.016
54.933
57.674
58.465
57.656
55.762
53.277
50.609
48.24
46.66
46.09
46.577
48.066
50.392
53.433
57.094
61.241
65.727
70.43
75.237
80.06
84.83
89.467
93.882
97.995
101.73
105.045
107.93
110.393
112.461
114.168
115.551
116.659
117.548
118.271
118.884
119.433
119.963
120.518
121.145
121.887
122.787
123.875
125.167
126.676
128.404
130.353
132.521
134.902
137.484
140.257
143.213
146.344
149.641
153.096
156.696
160.426
164.274
168.223
172.262
176.374
180.543
184.755
188.991
193.236
197.471
201.679
205.839
209.929
213.928
217.814
221.566
225.161
228.577
231.794
234.791
237.549
240.051
242.28
244.218
245.851
247.166
248.15
248.793
249.084
249.016
248.583
247.778
246.599
245.043
243.111
240.802
238.12
235.068
231.653
227.881
223.761
219.304
214.521
209.426
204.033
198.359
192.421
186.237
179.827
173.213
166.413
159.452
152.35
145.131
137.817
130.432
122.997
115.536
108.071
100.624
93.217
85.871
78.605
71.441
64.396
57.488
50.735
44.153
37.756
31.559
25.574
19.814
14.287
9.003
3.97
-0.808
-5.325
-9.579
-13.568
-17.292
-20.753
-23.952
-26.895
-29.586
-32.032
-34.238
-36.215
-37.97
-39.513
-40.855
-42.006
-42.978
-43.781
-44.427
-44.928
-45.295
-45.541
-45.676
-45.712
-45.661
-45.534
-45.341
-45.093
-44.8
-44.472
-44.117
-43.744
-43.36
-42.974
-42.591
-42.216
-41.856
-41.514
-41.194
-40.9
-40.633
-40.395
-40.187
-40.01
-39.863
-39.746
-39.659
-39.599
-39.565
-39.556
-39.57
-39.605
-39.658
-39.729
-39.814
-39.913
-40.022
-40.141
-40.267
-40.398
-40.532
-40.67
-40.808
-40.946
-41.083
-41.218
-41.351
-41.481
-41.609
-41.733
-41.855
-41.974
-42.091
-42.207
-42.322
-42.439
-42.558
-42.681
-42.81
-42.945
-43.09
-43.245
-43.412
-43.593
-43.788
-43.999
-44.227
-44.472
-44.736
-45.018
-45.318
-45.638
-45.977
-46.334
-46.709
-47.102
-47.511
-47.936
-48.375
-48.827
-49.291
-49.767
-50.251
-50.745
-51.245
-51.75
-52.259
-52.77
-53.281
-53.791
-54.297
-54.798
-55.291
-55.776
-56.25
-56.712
-57.16
-57.594
-58.012
-58.415
-58.8
-59.168
-59.518
-59.85
-60.166
-60.464
-60.747
-61.014
-61.268
-61.508
-61.737
-61.956
-62.166
-62.367
-62.562
-62.752
-62.936
-63.117
-63.295
-63.47
-63.644
-63.816
-63.988
-64.159
-64.33
-64.501
-64.67
-64.838
-65.005
-65.169
-65.329
-65.484
-65.631
-65.767
-65.89
-65.997
-66.086
-66.154
-66.194
-66.208
-66.197
-66.159
-66.093
-65.992
-65.848
-65.657
-65.418
-65.108
-64.704
-64.199
-63.584
-62.866
-62.061
-61.176
-60.198
-59.213
-58.324
-57.469
-56.621
-55.816
-54.905
-54.301
-54.39
-54.552
-54.58
-53.204
-49.138
-43.486
-36.812
-31.563
-30.253
-32.328
-37.83
-43.684
-46.694
-46.345
-41.426
-34.566
-28.579
-24.317
-23.362
-24.242
-25.257
-26.076
-25.833
-25.001
-24.234
-23.407
-22.607
-21.761
-20.707
-19.532
-18.301
-16.998
-15.632
-14.209
-12.743
-11.258
-9.783
-8.358
-7.02
-5.819
-4.812
-4.046
-3.573
-3.448
-3.728
-4.459
-5.684
-7.431
-9.722
-12.578
-15.986
-19.92
-24.326
-29.131
-34.278
-39.64
-45.013
-50.136
-54.666
-58.287
-60.756
-61.798
-61.104
-58.612
-54.425
-48.836
-42.491
-35.868
-29.263
-23.133
-17.792
-13.276
-9.555
-6.021
-1.587
4.829
14.88
29.524
48.682
71.512
95.133
117.965
140.861
165.296
195.037
231.671
271.589
309.051
334.693
338.115
313.119
258.015
177.107
80.197
-22.769
-126.228
-229.708
-335.176
-442.627
-545.684
-632.352
-691.48
-717.399
-711.758
-682.797
-639.565
-587.723
-530.117
-466.951
-398.11
-325.911
-253.575
-184.87
-123.713
-72.276
-31.471
-1.322
19.238
31.451
36.399
35.495
30.432
23.233
16.108
10.505
7.169
5.947
5.98
7.61
11.474
18.215
29.45
43.881
57.985
68.738
71.852
66.724
57.393
47.374
40.795
39.288
40.399
42.406
44.152
45.339
47.243
50.392
54.479
59.1
63.771
68.297
72.749
77.126
81.312
85.194
88.717
91.891
94.731
97.24
99.408
101.217
102.7
103.91
104.902
105.741
106.48
107.165
107.835
108.535
109.306
110.191
111.231
112.455
113.879
115.514
117.368
119.446
121.749
124.27
126.993
129.902
132.985
136.229
139.627
143.171
146.85
150.652
154.564
158.567
162.645
166.774
170.927
175.074
179.186
183.237
187.206
191.078
194.843
198.49
202.012
205.394
208.617
211.664
214.517
217.166
219.607
221.843
223.886
225.749
227.451
228.999
230.397
231.635
232.689
233.53
234.12
234.431
234.452
234.171
233.572
232.636
231.331
229.617
227.456
224.807
221.629
217.895
213.582
208.688
203.237
197.257
190.796
183.893
176.562
168.827
160.721
152.292
143.608
134.754
125.799
116.816
107.882
99.058
90.411
81.99
73.82
65.922
58.305
50.988
44.015
37.422
31.223
25.418
19.978
14.858
10.035
5.483
1.169
-2.93
-6.839
-10.581
-14.153
-17.558
-20.798
-23.884
-26.851
-29.728
-32.523
-35.238
-37.854
-40.343
-42.69
-44.887
-46.916
-48.771
-50.446
-51.939
-53.263
-54.434
-55.457
-56.338
-57.07
-57.646
-58.074
-58.364
-58.535
-58.609
-58.604
-58.538
-58.428
-58.292
-58.139
-57.981
-57.82
-57.654
-57.489
-57.328
-57.179
-57.048
-56.939
-56.854
-56.794
-56.758
-56.746
-56.757
-56.788
-56.836
-56.9
-56.98
-57.077
-57.192
-57.326
-57.481
-57.655
-57.849
-58.062
-58.293
-58.542
-58.807
-59.087
-59.382
-59.691
-60.014
-60.35
-60.701
-61.066
-61.445
-61.837
-62.244
-62.665
-63.1
-63.55
-64.016
-64.497
-64.994
-65.507
-66.037
-66.584
-67.148
-67.728
-68.325
-68.937
-69.564
-70.205
-70.858
-71.522
-72.195
-72.877
-73.564
-74.257
-74.952
-75.648
-76.343
-77.035
-77.722
-78.403
-79.074
-79.734
-80.38
-81.011
-81.625
-82.219
-82.793
-83.344
-83.872
-84.374
-84.85
-85.299
-85.72
-86.113
-86.478
-86.814
-87.123
-87.404
-87.659
-87.889
-88.096
-88.28
-88.444
-88.59
-88.72
-88.836
-88.939
-89.034
-89.121
-89.203
-89.282
-89.36
-89.439
-89.52
-89.606
-89.697
-89.793
-89.897
-90.008
-90.126
-90.25
-90.38
-90.515
-90.654
-90.796
-90.937
-91.078
-91.214
-91.344
-91.464
-91.572
-91.665
-91.738
-91.788
-91.811
-91.805
-91.765
-91.686
-91.567
-91.402
-91.19
-90.927
-90.609
-90.236
-89.805
-89.315
-88.765
-88.157
-87.491
-86.768
-85.992
-85.165
-84.293
-83.379
-82.428
-81.447
-80.44
-79.415
-78.376
-77.331
-76.285
-75.245
-74.219
-73.214
-72.236
-71.292
-70.39
-69.536
-68.739
-68.002
-67.328
-66.719
-66.178
-65.707
-65.313
-64.995
-64.752
-64.582
-64.482
-64.448
-64.473
-64.543
-64.637
-64.736
-64.823
-64.887
-64.922
-64.916
-64.858
-64.735
-64.533
-64.248
-63.884
-63.434
-62.893
-62.269
-61.573
-60.841
-60.138
-59.508
-58.992
-58.625
-58.42
-58.409
-58.639
-59.143
-59.966
-61.131
-62.637
-64.524
-66.864
-69.649
-72.791
-76.082
-79.167
-81.743
-83.602
-84.502
-84.147
-82.349
-79.154
-74.921
-70.351
-66.165
-62.798
-60.601
-60.047
-61.436
-64.597
-68.846
-72.817
-74.891
-73.983
-69.052
-58.672
-41.642
-17.126
14.313
50.116
87.604
124.551
160.79
198.123
235.595
269.628
292.223
291.291
260.027
197.89
111.525
14.367
-83.632
-178.862
-272.994
-369.395
-466.695
-556.399
-625.346
-664.179
-670.633
-650.282
-613.869
-568.601
-517.431
-459.302
-393.19
-323.146
-255.087
-196.619
-151.868
-118.634
-94.009
-74.046
-56.528
-42.994
-34.025
-29.114
-27.085
-25.345
-22.066
-16.879
-9.966
-1.856
6.88
15.712
24.1
31.381
36.885
40.456
42.263
42.576
41.824
40.395
38.626
36.945
35.791
35.406
35.885
37.222
39.301
42.032
45.342
49.123
53.249
57.604
62.092
66.63
71.159
75.62
79.937
84.04
87.862
91.342
94.45
97.18
99.542
101.561
103.27
104.704
105.911
106.944
107.854
108.688
109.488
110.289
111.131
112.052
113.092
114.29
115.671
117.253
119.046
121.056
123.285
125.735
128.399
131.267
134.33
137.581
141.012
144.617
148.387
152.31
156.372
160.558
164.853
169.244
173.715
178.247
182.825
187.431
192.046
196.656
201.239
205.776
210.247
214.629
218.901
223.041
227.028
230.84
234.455
237.854
241.017
243.926
246.561
248.907
250.948
252.667
254.052
255.091
255.772
256.087
256.027
255.587
254.762
253.55
251.951
249.965
247.595
244.845
241.721
238.231
234.384
230.19
225.662
220.812
215.656
210.21
204.492
198.52
192.314
185.896
179.285
172.506
165.581
158.533
151.386
144.165
136.893
129.595
122.294
115.015
107.781
100.614
93.536
86.568
79.731
73.042
66.52
60.181
54.04
48.112
42.408
36.939
31.716
26.747
22.038
17.595
13.422
9.52
5.891
2.534
-0.553
-3.373
-5.931
-8.233
-10.286
-12.098
-13.678
-15.036
-16.183
-17.131
-17.892
-18.477
-18.901
-19.176
-19.315
-19.332
-19.239
-19.048
-18.773
-18.425
-18.015
-17.555
-17.055
-16.526
-15.975
-15.414
-14.849
-14.288
-13.737
-13.203
-12.692
-12.206
-11.752
-11.331
-10.946
-10.599
-10.292
-10.025
-9.799
-9.612
-9.464
-9.355
-9.281
-9.241
-9.233
-9.255
-9.303
-9.376
-9.471
-9.586
-9.718
-9.866
-10.026
-10.198
-10.379
-10.568
-10.763
-10.963
-11.168
-11.375
-11.585
-11.798
-12.012
-12.229
-12.447
-12.668
-12.891
-13.118
-13.347
-13.581
-13.819
-14.062
-14.312
-14.57
-14.835
-15.11
-15.395
-15.69
-15.997
-16.316
-16.647
-16.991
-17.347
-17.716
-18.097
-18.492
-18.898
-19.317
-19.747
-20.187
-20.637
-21.096
-21.563
-22.036
-22.514
-22.997
-23.483
-23.972
-24.463
-24.956
-25.449
-25.942
-26.435
-26.927
-27.416
-27.904
-28.389
-28.871
-29.351
-29.829
-30.306
-30.781
-31.257
-31.733
-32.209
-32.687
-33.166
-33.647
-34.13
-34.616
-35.104
-35.595
-36.09
-36.589
-37.091
-37.598
-38.108
-38.621
-39.135
-39.649
-40.161
-40.668
-41.168
-41.659
-42.138
-42.605
-43.056
-43.49
-43.904
-44.294
-44.658
-44.992
-45.29
-45.544
-45.749
-45.9
-45.993
-46.024
-45.989
-45.885
-45.711
-45.467
-45.153
-44.768
-44.307
-43.762
-43.131
-42.416
-41.623
-40.761
-39.84
-38.865
-37.851
-36.812
-35.762
-34.706
-33.643
-32.56
-31.452
-30.324
-29.182
-28.043
-26.915
-25.796
-24.687
-23.585
-22.484
-21.379
-20.249
-19.058
-17.789
-16.437
-15.009
-13.535
-12.033
-10.509
-8.969
-7.412
-5.841
-4.268
-2.697
-1.127
0.43
1.955
3.413
4.747
5.919
6.909
7.704
8.31
8.729
8.952
8.976
8.8
8.409
7.783
6.902
5.731
4.262
2.509
0.482
-1.795
-4.312
-7.07
-10.052
-13.222
-16.572
-20.13
-23.856
-27.644
-31.286
-34.44
-36.816
-38.219
-38.421
-37.13
-34.215
-29.747
-24.048
-17.847
-11.801
-6.299
-1.796
1.23
2.574
2.346
1.205
0.554
1.716
5.761
14.064
27.931
48.563
76.211
109.165
144.957
181.282
217.547
255.506
295.514
334.582
365.585
376.758
358.135
306.305
224.505
124.153
18.708
-83.635
-179.349
-270.855
-362.577
-452.931
-535.732
-601.499
-640.445
-649.789
-633.121
-597.599
-551.417
-499.584
-443.611
-383.595
-320.255
-255.56
-192.861
-135.976
-87.323
-48.098
-18.468
2.594
16.252
23.562
26.194
25.944
24.545
23.798
24.676
27.31
31.608
37.217
43.489
49.786
55.303
59.126
60.913
60.747
58.895
55.852
52.12
48.138
44.449
41.585
39.818
39.239
39.811
41.373
43.804
46.992
50.782
55.01
59.528
64.213
68.967
73.695
78.293
82.645
86.642
90.211
93.318
95.952
98.125
99.867
101.211
102.206
102.909
103.373
103.653
103.801
103.864
103.893
103.943
104.067
104.319
104.74
105.357
106.189
107.245
108.527
110.036
111.766
113.708
115.854
118.194
120.721
123.434
126.328
129.399
132.637
136.024
139.54
143.166
146.887
150.685
154.538
158.422
162.316
166.209
170.097
173.974
177.827
181.636
185.371
189.002
192.512
195.888
199.124
202.208
205.126
207.871
210.447
212.866
215.123
217.193
219.028
220.585
221.833
222.756
223.348
223.599
223.491
223.003
222.118
220.829
219.127
216.996
214.403
211.311
207.709
203.619
199.09
194.172
188.898
183.293
177.378
171.183
164.745
158.096
151.262
144.261
137.12
129.879
122.593
115.321
108.1
100.944
93.847
86.807
79.832
72.937
66.134
59.428
52.826
46.34
39.995
33.813
27.812
21.996
16.363
10.907
5.634
0.555
-4.309
-8.946
-13.345
-17.5
-21.405
-25.049
-28.429
-31.547
-34.413
-37.037
-39.429
-41.593
-43.534
-45.259
-46.777
-48.1
-49.239
-50.206
-51.014
-51.674
-52.202
-52.611
-52.916
-53.127
-53.255
-53.311
-53.304
-53.245
-53.146
-53.014
-52.86
-52.691
-52.517
-52.345
-52.183
-52.036
-51.909
-51.807
-51.734
-51.691
-51.682
-51.707
-51.768
-51.864
-51.997
-52.164
-52.366
-52.6
-52.865
-53.158
-53.479
-53.823
-54.189
-54.574
-54.975
-55.389
-55.815
-56.249
-56.689
-57.134
-57.58
-58.027
-58.474
-58.918
-59.358
-59.794
-60.226
-60.652
-61.072
-61.488
-61.898
-62.304
-62.707
-63.106
-63.504
-63.901
-64.299
-64.697
-65.097
-65.501
-65.909
-66.321
-66.739
-67.163
-67.594
-68.033
-68.479
-68.933
-69.396
-69.866
-70.343
-70.826
-71.315
-71.809
-72.306
-72.805
-73.304
-73.801
-74.296
-74.786
-75.27
-75.745
-76.21
-76.663
-77.101
-77.524
-77.931
-78.319
-78.688
-79.037
-79.367
-79.677
-79.967
-80.238
-80.489
-80.723
-80.938
-81.136
-81.319
-81.486
-81.639
-81.78
-81.911
-82.035
-82.152
-82.266
-82.378
-82.491
-82.607
-82.728
-82.855
-82.992
-83.138
-83.298
-83.472
-83.661
-83.868
-84.092
-84.335
-84.595
-84.873
-85.166
-85.472
-85.788
-86.11
-86.436
-86.762
-87.085
-87.402
-87.709
-88.004
-88.283
-88.545
-88.786
-89.0
-89.183
-89.328
-89.429
-89.481
-89.476
-89.411
-89.279
-89.078
-88.805
-88.458
-88.036
-87.536
-86.953
-86.281
-85.516
-84.659
-83.712
-82.682
-81.582
-80.426
-79.234
-78.025
-76.814
-75.613
-74.425
-73.247
-72.076
-70.904
-69.732
-68.567
-67.417
-66.287
-65.177
-64.087
-63.004
-61.91
-60.781
-59.585
-58.299
-56.913
-55.431
-53.876
-52.282
-50.694
-49.148
-47.664
-46.262
-44.953
-43.749
-42.658
-41.695
-40.874
-40.221
-39.775
-39.564
-39.609
-39.902
-40.415
-41.097
-41.877
-42.693
-43.496
-44.243
-44.904
-45.466
-45.935
-46.324
-46.662
-46.957
-47.189
-47.361
-47.488
-47.608
-47.789
-48.107
-48.633
-49.469
-50.753
-52.555
-54.864
-57.548
-60.319
-62.92
-65.182
-66.909
-67.876
-67.945
-67.091
-65.587
-64.084
-63.115
-62.918
-63.612
-65.19
-67.611
-70.806
-74.129
-76.437
-76.594
-73.638
-67.145
-56.5
-40.822
-19.944
6.073
35.608
66.068
96.863
127.423
158.231
190.797
223.941
256.403
285.041
303.101
303.102
276.972
221.093
139.414
41.05
-63.008
-166.348
-269.182
-373.699
-479.485
-579.74
-661.348
-712.328
-727.361
-708.739
-666.045
-610.191
-548.264
-483.808
-417.327
-348.519
-279.379
-213.615
-155.187
-107.463
-71.705
-47.327
-32.764
-26.0
-25.149
-28.017
-32.368
-36.227
-37.93
-36.773
-32.887
-26.681
-18.775
-10.061
-1.402
6.302
12.18
15.956
17.791
18.001
17.084
15.544
13.807
12.352
11.646
11.899
13.141
15.3
18.18
21.608
25.444
29.519
33.676
37.803
41.803
45.602
49.16
52.424
55.355
57.938
60.148
61.981
63.465
64.644
65.596
66.43
67.24
68.115
69.132
70.345
71.805
73.558
75.624
78.008
80.699
83.66
86.875
90.335
94.016
97.893
101.921
106.031
110.176
114.322
118.434
122.498
126.497
130.411
134.246
138.022
141.763
145.511
149.284
153.086
156.926
160.81
164.744
168.748
172.818
176.941
181.109
185.31
189.529
193.753
197.954
202.092
206.135
210.047
213.795
217.361
220.714
223.828
226.685
229.261
231.548
233.542
235.225
236.584
237.617
238.317
238.689
238.749
238.486
237.901
237.004
235.802
234.309
232.534
230.468
228.112
225.459
222.5
219.24
215.675
211.784
207.556
202.981
198.04
192.748
187.1
181.073
174.653
167.837
160.633
153.077
145.205
137.051
128.663
120.095
111.418
102.718
94.059
85.501
77.106
68.92
61.008
53.457
46.336
39.695
33.566
27.959
22.882
18.336
14.305
10.746
7.599
4.8
2.308
0.092
-1.88
-3.639
-5.234
-6.726
-8.159
-9.563
-10.962
-12.369
-13.799
-15.261
-16.747
-18.227
-19.657
-21.007
-22.26
-23.413
-24.461
-25.4
-26.217
-26.901
-27.453
-27.876
-28.175
-28.353
-28.411
-28.356
-28.206
-27.987
-27.728
-27.453
-27.176
-26.906
-26.651
-26.421
-26.221
-26.056
-25.922
-25.818
-25.744
-25.701
-25.693
-25.719
-25.774
-25.854
-25.951
-26.063
-26.184
-26.312
-26.443
-26.574
-26.704
-26.832
-26.959
-27.086
-27.211
-27.333
-27.451
-27.564
-27.671
-27.771
-27.862
-27.945
-28.018
-28.083
-28.139
-28.188
-28.228
-28.262
-28.289
-28.311
-28.328
-28.34
-28.35
-28.359
-28.366
-28.375
-28.386
-28.401
-28.422
-28.449
-28.483
-28.527
-28.581
-28.644
-28.718
-28.802
-28.896
-29.001
-29.115
-29.238
-29.37
-29.51
-29.658
-29.812
-29.972
-30.136
-30.304
-30.475
-30.648
-30.822
-30.996
-31.17
-31.343
-31.515
-31.685
-31.852
-32.017
-32.177
-32.334
-32.485
-32.631
-32.77
-32.903
-33.028
-33.146
-33.257
-33.361
-33.458
-33.549
-33.634
-33.714
-33.79
-33.863
-33.935
-34.005
-34.076
-34.149
-34.225
-34.304
-34.389
-34.479
-34.575
-34.678
-34.788
-34.905
-35.029
-35.159
-35.296
-35.44
-35.589
-35.744
-35.905
-36.07
-36.239
-36.412
-36.588
-36.765
-36.942
-37.118
-37.291
-37.459
-37.619
-37.77
-37.908
-38.031
-38.135
-38.219
-38.278
-38.309
-38.31
-38.277
-38.207
-38.097
-37.945
-37.747
-37.503
-37.209
-36.864
-36.466
-36.014
-35.507
-34.943
-34.322
-33.643
-32.907
-32.111
-31.259
-30.35
-29.385
-28.368
-27.299
-26.183
-25.024
-23.827
-22.598
-21.342
-20.066
-18.777
-17.482
-16.188
-14.901
-13.628
-12.375
-11.148
-9.955
-8.803
-7.699
-6.65
-5.66
-4.737
-3.884
-3.105
-2.399
-1.766
-1.205
-0.719
-0.312
0.013
0.252
0.408
0.48
0.474
0.399
0.269
0.104
-0.077
-0.257
-0.42
-0.56
-0.667
-0.73
-0.738
-0.672
-0.513
-0.251
0.123
0.617
1.221
1.908
2.638
3.349
3.986
4.509
4.871
5.018
4.896
4.436
3.577
2.282
0.473
-1.949
-5.024
-8.737
-12.944
-17.346
-21.661
-25.65
-29.027
-31.504
-32.873
-33.03
-32.247
-31.149
-30.289
-30.123
-30.969
-33.001
-36.383
-41.09
-46.43
-51.16
-53.951
-53.418
-48.581
-38.754
-22.943
-0.36
29.034
64.823
105.369
147.811
190.027
229.778
266.024
299.943
330.317
354.025
364.756
352.182
310.884
241.575
150.391
49.049
-55.299
-162.153
-272.441
-386.704
-498.85
-595.027
-662.107
-693.085
-688.991
-659.235
-615.178
-563.885
-508.684
-449.408
-384.899
-317.007
-249.353
-186.302
-132.112
-88.799
-56.439
-34.152
-20.304
-13.215
-11.148
-11.898
-13.231
-13.242
-10.876
-6.013
1.018
9.66
19.196
28.766
37.36
43.958
48.085
49.821
49.468
47.534
44.53
40.895
37.182
33.972
31.612
30.263
29.953
30.563
31.998
34.19
37.017
40.343
44.05
48.015
52.148
56.378
60.614
64.773
68.771
72.525
75.973
79.061
81.759
84.069
86.007
87.599
88.883
89.897
90.69
91.32
91.837
92.294
92.736
93.203
93.736
94.377
95.161
96.124
97.292
98.671
100.264
102.07
104.083
106.306
108.739
111.364
114.16
117.141
120.31
123.672
127.234
130.969
134.833
138.829
142.969
147.163
151.305
155.43
159.518
163.534
167.655
171.343
174.075
176.557
178.991
182.687
189.217
196.799
204.237
209.762
210.952
209.913
208.429
207.716
209.802
213.216
216.467
219.215
220.544
220.964
221.136
220.926
220.416
219.558
218.219
216.493
214.466
212.139
209.522
206.636
203.487
200.07
196.387
192.43
188.191
183.678
178.905
173.869
168.578
163.046
157.274
151.261
144.993
138.438
131.581
124.43
116.998
109.316
101.42
93.346
85.147
76.888
68.628
60.423
52.319
44.346
36.552
28.991
21.733
14.861
8.437
2.495
-2.937
-7.848
-12.241
-16.13
-19.55
-22.567
-25.23
-27.581
-29.651
-31.457
-33.026
-34.402
-35.631
-36.768
-37.859
-38.931
-40.012
-41.122
-42.269
-43.451
-44.649
-45.819
-46.934
-47.977
-48.942
-49.832
-50.647
-51.379
-52.025
-52.579
-53.04
-53.408
-53.684
-53.864
-53.955
-53.966
-53.916
-53.835
-53.743
-53.651
-53.57
-53.503
-53.454
-53.427
-53.422
-53.435
-53.463
-53.505
-53.562
-53.636
-53.725
-53.828
-53.939
-54.054
-54.166
-54.274
-54.373
-54.461
-54.537
-54.598
-54.645
-54.681
-54.705
-54.718
-54.721
-54.712
-54.693
-54.663
-54.623
-54.573
-54.514
-54.447
-54.373
-54.295
-54.215
-54.135
-54.055
-53.979
-53.907
-53.842
-53.785
-53.736
-53.697
-53.668
-53.651
-53.647
-53.655
-53.677
-53.712
-53.76
-53.822
-53.897
-53.985
-54.086
-54.197
-54.319
-54.452
-54.593
-54.743
-54.9
-55.063
-55.232
-55.405
-55.582
-55.76
-55.938
-56.115
-56.291
-56.463
-56.63
-56.793
-56.949
-57.099
-57.241
-57.375
-57.502
-57.62
-57.73
-57.831
-57.924
-58.008
-58.085
-58.155
-58.218
-58.275
-58.325
-58.369
-58.407
-58.441
-58.469
-58.492
-58.511
-58.526
-58.538
-58.547
-58.554
-58.559
-58.562
-58.565
-58.567
-58.569
-58.571
-58.573
-58.575
-58.578
-58.582
-58.589
-58.596
-58.606
-58.618
-58.632
-58.648
-58.666
-58.684
-58.704
-58.725
-58.746
-58.768
-58.79
-58.812
-58.833
-58.853
-58.872
-58.888
-58.899
-58.905
-58.902
-58.891
-58.869
-58.832
-58.78
-58.71
-58.622
-58.513
-58.382
-58.225
-58.042
-57.83
-57.587
-57.31
-56.995
-56.637
-56.234
-55.782
-55.28
-54.725
-54.115
-53.448
-52.723
-51.941
-51.103
-50.206
-49.247
-48.221
-47.129
-45.977
-44.778
-43.539
-42.267
-40.972
-39.664
-38.359
-37.067
-35.79
-34.521
-33.253
-31.984
-30.725
-29.489
-28.293
-27.141
-26.029
-24.949
-23.903
-22.89
-21.903
-20.922
-19.924
-18.902
-17.874
-16.877
-15.941
-15.079
-14.293
-13.575
-12.922
-12.335
-11.814
-11.358
-10.953
-10.597
-10.304
-10.102
-10.021
-10.063
-10.194
-10.366
-10.54
-10.702
-10.848
-10.975
-11.075
-11.158
-11.254
-11.404
-11.663
-12.059
-12.602
-13.291
-14.116
-15.105
-16.318
-17.82
-19.667
-21.889
-24.491
-27.501
-30.992
-34.929
-39.166
-43.463
-47.43
-50.734
-53.168
-54.47
-54.317
-52.553
-49.218
-44.649
-39.655
-35.016
-31.223
-28.77
-28.114
-29.411
-32.498
-36.664
-40.311
-41.715
-39.543
-32.361
-18.821
1.985
30.773
66.945
107.75
150.165
191.308
229.518
266.165
301.65
333.171
354.437
353.791
321.266
255.1
159.933
47.693
-69.203
-186.921
-304.311
-420.219
-530.881
-623.584
-685.421
-710.632
-700.321
-664.57
-615.785
-561.197
-503.958
-443.438
-378.138
-309.784
-241.829
-178.57
-124.002
-79.828
-46.38
-23.134
-8.601
-1.315
0.257
-1.683
-5.094
-8.264
-9.656
-8.656
-5.362
-0.023
6.803
14.23
21.463
27.677
32.094
34.54
35.214
34.416
32.646
30.403
28.11
26.255
25.274
25.339
26.471
28.593
31.535
35.172
39.396
44.054
48.996
54.088
59.215
64.293
69.246
73.987
78.427
82.483
86.1
89.26
91.969
94.247
96.127
97.644
98.844
99.783
100.515
101.096
101.575
101.998
102.41
102.859
103.392
104.054
104.88
105.893
107.107
108.533
110.175
112.038
114.118
116.409
118.903
121.592
124.47
127.536
130.783
134.209
137.803
141.555
145.451
149.478
153.617
157.843
162.126
166.434
170.74
175.024
179.268
183.461
187.59
191.643
195.609
199.472
203.216
206.829
210.293
213.595
216.733
219.712
222.554
225.285
227.915
230.443
232.86
235.136
237.241
239.137
240.77
242.101
243.095
243.721
243.961
243.8
243.205
242.142
240.564
238.413
235.656
232.279
228.274
223.665
218.484
212.782
206.637
200.118
193.282
186.183
178.86
171.348
163.7
155.967
148.206
140.491
132.877
125.409
118.133
111.071
104.233
97.618
91.199
84.955
78.876
72.96
67.213
61.645
56.258
51.056
46.044
41.218
36.574
32.112
27.824
23.713
19.786
16.057
12.544
9.267
6.235
3.453
0.921
-1.368
-3.417
-5.237
-6.84
-8.239
-9.444
-10.465
-11.31
-11.99
-12.518
-12.907
-13.174
-13.333
-13.4
-13.389
-13.313
-13.184
-13.013
-12.81
-12.583
-12.339
-12.087
-11.834
-11.589
-11.358
-11.15
-10.968
-10.82
-10.71
-10.641
-10.617
-10.639
-10.709
-10.826
-10.992
-11.205
-11.465
-11.771
-12.122
-12.516
-12.952
-13.428
-13.943
-14.494
-15.08
-15.698
-16.346
-17.023
-17.726
-18.454
-19.205
-19.977
-20.77
-21.581
-22.41
-23.255
-24.116
-24.991
-25.88
-26.781
-27.693
-28.616
-29.55
-30.495
-31.45
-32.415
-33.391
-34.377
-35.373
-36.38
-37.396
-38.422
-39.457
-40.5
-41.549
-42.605
-43.666
-44.731
-45.797
-46.864
-47.93
-48.993
-50.05
-51.1
-52.14
-53.169
-54.183
-55.182
-56.162
-57.122
-58.06
-58.973
-59.86
-60.72
-61.549
-62.348
-63.113
-63.844
-64.539
-65.197
-65.816
-66.397
-66.937
-67.437
-67.897
-68.315
-68.692
-69.028
-69.323
-69.579
-69.795
-69.973
-70.113
-70.218
-70.288
-70.325
-70.33
-70.306
-70.253
-70.174
-70.07
-69.944
-69.797
-69.631
-69.447
-69.248
-69.035
-68.811
-68.576
-68.332
-68.082
-67.828
-67.571
-67.313
-67.056
-66.802
-66.553
-66.31
-66.077
-65.854
-65.643
-65.447
-65.266
-65.103
-64.959
-64.836
-64.734
-64.655
-64.601
-64.571
-64.566
-64.587
-64.633
-64.704
-64.799
-64.918
-65.06
-65.222
-65.404
-65.603
-65.818
-66.046
-66.284
-66.53
-66.779
-67.028
-67.273
-67.51
-67.734
-67.94
-68.124
-68.281
-68.404
-68.488
-68.528
-68.519
-68.454
-68.327
-68.134
-67.868
-67.526
-67.102
-66.593
-65.995
-65.307
-64.527
-63.654
-62.689
-61.633
-60.488
-59.257
-57.942
-56.546
-55.075
-53.534
-51.927
-50.261
-48.543
-46.782
-44.987
-43.169
-41.338
-39.503
-37.675
-35.865
-34.084
-32.344
-30.653
-29.023
-27.463
-25.987
-24.606
-23.332
-22.169
-21.12
-20.184
-19.36
-18.643
-18.027
-17.496
-17.039
-16.645
-16.306
-16.014
-15.76
-15.532
-15.314
-15.09
-14.848
-14.584
-14.298
-13.989
-13.668
-13.346
-13.042
-12.792
-12.627
-12.572
-12.658
-12.916
-13.377
-14.078
-15.051
-16.316
-17.901
-19.836
-22.142
-24.848
-27.958
-31.447
-35.314
-39.561
-44.12
-48.851
-53.512
-57.76
-61.307
-63.953
-65.438
-65.447
-63.823
-60.656
-56.337
-51.55
-46.904
-42.71
-39.313
-37.199
-36.521
-37.072
-38.194
-38.53
-36.879
-32.03
-22.052
-5.75
17.302
45.597
74.708
102.687
130.14
160.571
201.111
251.559
304.801
349.502
368.922
354.34
306.41
230.939
141.258
48.025
-44.811
-136.531
-231.316
-332.315
-436.323
-535.503
-617.98
-672.939
-695.86
-688.761
-659.201
-615.281
-562.251
-502.374
-435.677
-363.357
-288.677
-216.151
-150.209
-93.188
-46.725
-11.8
11.168
20.899
19.363
11.687
3.008
-0.447
3.507
11.954
22.046
30.31
35.508
39.66
43.715
47.937
51.795
53.797
53.517
51.324
47.741
43.501
39.136
35.055
31.767
29.586
28.609
28.799
30.004
32.106
35.014
38.601
42.705
47.164
51.842
56.635
61.457
66.207
70.776
75.058
78.961
82.435
85.462
88.041
90.195
91.95
93.344
94.429
95.261
95.897
96.392
96.797
97.157
97.519
97.932
98.441
99.089
99.905
100.907
102.107
103.508
105.112
106.92
108.925
111.12
113.493
116.039
118.75
121.623
124.655
127.837
131.156
134.598
138.149
141.791
145.508
149.279
153.076
156.872
160.643
164.366
168.026
171.609
175.098
178.475
181.722
184.825
187.784
190.605
193.291
195.85
198.288
200.618
202.869
205.065
207.225
209.363
211.47
213.535
215.547
217.497
219.374
221.152
222.786
224.211
225.371
226.21
226.675
226.708
226.231
225.167
223.449
221.028
217.883
214.003
209.38
204.0
197.857
190.97
183.388
175.193
166.466
157.286
147.73
137.888
127.876
117.82
107.843
98.045
88.497
79.268
70.422
62.037
54.192
46.935
40.284
34.229
28.751
23.839
19.479
15.636
12.251
9.251
6.55
4.092
1.842
-0.241
-2.195
-4.073
-5.935
-7.818
-9.737
-11.698
-13.701
-15.75
-17.853
-19.996
-22.153
-24.284
-26.345
-28.31
-30.17
-31.912
-33.525
-34.994
-36.3
-37.437
-38.412
-39.229
-39.896
-40.418
-40.796
-41.043
-41.184
-41.24
-41.24
-41.201
-41.135
-41.052
-40.962
-40.872
-40.792
-40.722
-40.662
-40.61
-40.568
-40.538
-40.523
-40.52
-40.527
-40.54
-40.554
-40.567
-40.577
-40.582
-40.581
-40.573
-40.558
-40.538
-40.513
-40.486
-40.454
-40.419
-40.379
-40.333
-40.28
-40.221
-40.154
-40.078
-39.993
-39.901
-39.8
-39.693
-39.58
-39.461
-39.337
-39.208
-39.077
-38.943
-38.809
-38.674
-38.541
-38.41
-38.283
-38.161
-38.045
-37.936
-37.834
-37.74
-37.655
-37.579
-37.512
-37.455
-37.408
-37.373
-37.349
-37.338
-37.34
-37.356
-37.386
-37.431
-37.49
-37.564
-37.652
-37.755
-37.872
-38.002
-38.146
-38.302
-38.47
-38.65
-38.839
-39.038
-39.245
-39.46
-39.682
-39.908
-40.14
-40.375
-40.613
-40.853
-41.095
-41.338
-41.581
-41.822
-42.062
-42.299
-42.532
-42.761
-42.984
-43.202
-43.412
-43.616
-43.812
-44.001
-44.182
-44.355
-44.52
-44.678
-44.828
-44.972
-45.109
-45.242
-45.371
-45.497
-45.621
-45.745
-45.87
-45.998
-46.13
-46.267
-46.411
-46.564
-46.726
-46.901
-47.089
-47.292
-47.511
-47.749
-48.006
-48.284
-48.584
-48.906
-49.252
-49.621
-50.014
-50.432
-50.872
-51.336
-51.822
-52.329
-52.854
-53.396
-53.953
-54.52
-55.096
-55.675
-56.255
-56.831
-57.399
-57.954
-58.491
-59.006
-59.493
-59.947
-60.363
-60.735
-61.058
-61.326
-61.534
-61.677
-61.75
-61.749
-61.668
-61.504
-61.253
-60.912
-60.479
-59.95
-59.325
-58.603
-57.783
-56.866
-55.855
-54.751
-53.559
-52.282
-50.928
-49.501
-48.009
-46.46
-44.862
-43.224
-41.553
-39.86
-38.152
-36.44
-34.733
-33.041
-31.376
-29.746
-28.163
-26.637
-25.178
-23.796
-22.499
-21.291
-20.178
-19.164
-18.255
-17.46
-16.782
-16.223
-15.784
-15.466
-15.265
-15.175
-15.183
-15.265
-15.4
-15.569
-15.754
-15.948
-16.14
-16.312
-16.454
-16.546
-16.577
-16.544
-16.44
-16.256
-16.001
-15.687
-15.354
-15.075
-14.913
-14.926
-15.166
-15.66
-16.446
-17.581
-19.114
-21.096
-23.567
-26.535
-30.035
-34.14
-38.834
-44.006
-49.424
-54.695
-59.462
-63.48
-66.467
-68.084
-68.141
-66.677
-64.032
-60.898
-57.938
-55.513
-53.946
-53.68
-54.923
-57.447
-60.528
-62.791
-62.746
-59.444
-51.894
-38.722
-18.88
8.299
42.228
80.282
119.676
158.22
195.129
231.817
268.392
301.841
325.389
327.754
299.367
237.831
148.244
42.722
-65.494
-170.38
-272.405
-373.191
-472.974
-564.477
-634.287
-673.805
-680.197
-658.153
-619.509
-572.659
-522.02
-469.114
-412.158
-351.853
-290.975
-232.543
-180.181
-135.798
-99.772
-72.18
-52.145
-38.399
-29.926
-25.358
-23.239
-22.435
-21.775
-20.211
-17.408
-13.454
-8.534
-3.127
2.252
7.208
11.199
13.708
14.635
14.142
12.515
10.196
7.589
5.021
2.894
1.575
1.237
1.918
3.553
5.995
9.12
12.821
16.956
21.376
25.954
30.582
35.171
39.65
43.937
47.944
51.594
54.837
57.651
60.038
62.021
63.63
64.902
65.886
66.64
67.218
67.674
68.057
68.412
68.786
69.225
69.777
70.486
71.385
72.498
73.84
75.419
77.241
79.308
81.615
84.156
86.926
89.918
93.129
96.554
100.186
104.015
108.032
112.224
116.578
121.082
125.722
130.483
135.35
140.306
145.335
150.417
155.535
160.665
165.786
170.874
175.905
180.854
185.697
190.41
194.968
199.347
203.524
207.477
211.185
214.626
217.78
220.63
223.157
225.345
227.18
228.649
229.739
230.441
230.747
230.65
230.145
229.23
227.904
226.169
224.027
221.484
218.547
215.224
211.526
207.467
203.06
198.321
193.267
187.919
182.295
176.418
170.309
163.993
157.492
150.832
144.038
137.135
130.147
123.102
116.023
108.936
101.866
94.837
87.873
80.996
74.229
67.592
61.106
54.788
48.657
42.729
37.017
31.535
26.294
21.305
16.574
12.11
7.915
3.995
0.349
-3.022
-6.119
-8.947
-11.51
-13.814
-15.866
-17.674
-19.247
-20.596
-21.731
-22.664
-23.406
-23.971
-24.371
-24.619
-24.729
-24.713
-24.585
-24.357
-24.042
-23.654
-23.203
-22.701
-22.159
-21.588
-20.997
-20.396
-19.792
-19.192
-18.605
-18.034
-17.486
-16.965
-16.473
-16.013
-15.587
-15.196
-14.839
-14.518
-14.23
-13.974
-13.75
-13.555
-13.386
-13.241
-13.118
-13.014
-12.925
-12.85
-12.785
-12.728
-12.677
-12.628
-12.58
-12.53
-12.477
-12.419
-12.356
-12.284
-12.204
-12.115
-12.017
-11.908
-11.791
-11.664
-11.528
-11.386
-11.237
-11.083
-10.927
-10.769
-10.612
-10.458
-10.308
-10.165
-10.03
-9.906
-9.793
-9.694
-9.609
-9.54
-9.488
-9.454
-9.437
-9.439
-9.459
-9.497
-9.553
-9.626
-9.715
-9.821
-9.942
-10.077
-10.226
-10.387
-10.56
-10.743
-10.936
-11.137
-11.345
-11.559
-11.777
-11.997
-12.22
-12.443
-12.665
-12.885
-13.103
-13.317
-13.528
-13.733
-13.933
-14.128
-14.318
-14.502
-14.682
-14.859
-15.032
-15.203
-15.374
-15.545
-15.718
-15.894
-16.075
-16.261
-16.453
-16.653
-16.862
-17.081
-17.31
-17.55
-17.803
-18.069
-18.348
-18.641
-18.948
-19.27
-19.606
-19.957
-20.322
-20.702
-21.094
-21.5
-21.918
-22.348
-22.787
-23.234
-23.688
-24.145
-24.604
-25.06
-25.512
-25.955
-26.386
-26.802
-27.198
-27.572
-27.919
-28.235
-28.517
-28.761
-28.963
-29.119
-29.226
-29.279
-29.275
-29.212
-29.085
-28.892
-28.631
-28.298
-27.891
-27.409
-26.85
-26.212
-25.494
-24.696
-23.818
-22.862
-21.829
-20.722
-19.543
-18.299
-16.994
-15.633
-14.223
-12.77
-11.283
-9.769
-8.235
-6.688
-5.138
-3.592
-2.058
-0.546
0.934
2.375
3.767
5.101
6.367
7.558
8.667
9.689
10.62
11.455
12.189
12.813
13.323
13.718
13.997
14.159
14.211
14.156
14.008
13.793
13.528
13.234
12.926
12.612
12.303
12.017
11.767
11.572
11.447
11.391
11.411
11.512
11.685
11.914
12.156
12.335
12.388
12.256
11.889
11.26
10.322
9.014
7.282
5.073
2.35
-0.892
-4.689
-9.105
-14.121
-19.626
-25.384
-31.028
-36.237
-40.777
-44.374
-46.704
-47.53
-46.843
-44.935
-42.378
-39.733
-37.322
-35.435
-34.471
-34.681
-36.017
-37.888
-39.106
-38.538
-34.806
-26.517
-12.964
6.983
32.422
60.659
91.185
122.825
156.912
197.88
244.42
292.476
334.444
356.661
349.861
310.799
240.968
150.695
52.603
-45.595
-139.235
-229.755
-322.968
-418.802
-512.831
-596.128
-655.036
-682.264
-677.399
-645.53
-598.069
-544.14
-488.545
-433.111
-376.376
-318.033
-259.9
-205.037
-156.95
-117.21
-85.98
-62.502
-45.192
-33.175
-25.649
-21.057
-18.081
-15.525
-12.202
-7.847
-2.718
3.124
9.378
15.465
20.958
25.259
27.73
28.309
27.224
24.766
21.397
17.556
13.595
9.963
7.113
5.265
4.493
4.76
5.922
7.871
10.519
13.741
17.398
21.36
25.509
29.743
33.983
38.139
42.114
45.821
49.174
52.129
54.669
56.805
58.566
59.984
61.099
61.959
62.619
63.135
63.558
63.939
64.32
64.746
65.265
65.92
66.755
67.8
69.072
70.581
72.331
74.321
76.55
79.011
81.693
84.587
87.684
90.978
94.462
98.126
101.957
105.941
110.062
114.305
118.655
123.097
127.614
132.19
136.809
141.455
146.113
150.767
155.397
159.982
164.503
168.934
173.256
177.444
181.475
185.327
188.979
192.411
195.604
198.544
201.213
203.595
205.672
207.424
208.837
209.9
210.602
210.94
210.913
210.525
209.788
208.72
207.33
205.625
203.608
201.275
198.625
195.657
192.369
188.768
184.859
180.647
176.142
171.354
166.281
160.918
155.247
149.242
142.899
136.225
129.236
121.973
114.476
106.795
98.998
91.137
83.262
75.423
67.654
59.992
52.488
45.196
38.184
31.531
25.292
19.506
14.202
9.38
5.031
1.13
-2.376
-5.532
-8.369
-10.917
-13.193
-15.21
-16.998
-18.587
-20.016
-21.339
-22.592
-23.806
-25.009
-26.21
-27.406
-28.584
-29.709
-30.749
-31.69
-32.521
-33.242
-33.859
-34.37
-34.776
-35.081
-35.279
-35.368
-35.347
-35.214
-34.974
-34.64
-34.229
-33.767
-33.282
-32.791
-32.306
-31.838
-31.391
-30.971
-30.58
-30.216
-29.879
-29.57
-29.291
-29.046
-28.836
-28.658
-28.511
-28.39
-28.291
-28.208
-28.14
-28.083
-28.036
-27.997
-27.965
-27.942
-27.929
-27.926
-27.933
-27.948
-27.97
-27.999
-28.033
-28.072
-28.115
-28.16
-28.209
-28.26
-28.315
-28.373
-28.434
-28.499
-28.568
-28.642
-28.72
-28.803
-28.891
-28.985
-29.086
-29.192
-29.306
-29.426
-29.553
-29.687
-29.827
-29.973
-30.125
-30.281
-30.441
-30.603
-30.767
-30.932
-31.096
-31.259
-31.42
-31.577
-31.73
-31.878
-32.02
-32.155
-32.281
-32.399
-32.508
-32.607
-32.695
-32.773
-32.839
-32.894
-32.937
-32.968
-32.987
-32.994
-32.99
-32.974
-32.947
-32.91
-32.864
-32.809
-32.747
-32.678
-32.604
-32.525
-32.444
-32.362
-32.28
-32.2
-32.124
-32.053
-31.989
-31.935
-31.89
-31.858
-31.839
-31.834
-31.846
-31.874
-31.92
-31.985
-32.071
-32.177
-32.306
-32.457
-32.631
-32.83
-33.053
-33.301
-33.574
-33.872
-34.197
-34.546
-34.922
-35.323
-35.749
-36.199
-36.672
-37.168
-37.684
-38.218
-38.769
-39.334
-39.91
-40.495
-41.085
-41.679
-42.272
-42.862
-43.445
-44.018
-44.578
-45.121
-45.643
-46.139
-46.608
-47.044
-47.443
-47.802
-48.116
-48.383
-48.596
-48.754
-48.851
-48.884
-48.849
-48.742
-48.561
-48.302
-47.965
-47.547
-47.049
-46.47
-45.813
-45.08
-44.274
-43.397
-42.454
-41.449
-40.385
-39.27
-38.109
-36.906
-35.669
-34.404
-33.122
-31.831
-30.54
-29.258
-27.995
-26.76
-25.561
-24.408
-23.31
-22.275
-21.31
-20.426
-19.632
-18.94
-18.355
-17.882
-17.519
-17.266
-17.114
-17.059
-17.088
-17.187
-17.344
-17.549
-17.791
-18.066
-18.362
-18.667
-18.97
-19.253
-19.505
-19.721
-19.9
-20.045
-20.17
-20.294
-20.436
-20.629
-20.903
-21.281
-21.789
-22.459
-23.313
-24.38
-25.686
-27.244
-29.079
-31.219
-33.683
-36.5
-39.67
-43.162
-46.969
-51.112
-55.533
-60.11
-64.616
-68.672
-71.953
-74.252
-75.309
-74.82
-72.661
-68.913
-63.978
-58.736
-54.01
-50.303
-48.106
-47.861
-49.685
-53.347
-58.023
-61.98
-63.44
-61.126
-53.671
-39.802
-18.657
10.44
46.532
86.49
127.465
166.986
204.538
242.134
278.728
310.109
327.893
319.993
279.996
208.685
114.153
10.012
-94.191
-195.863
-297.927
-403.689
-510.954
-609.801
-685.159
-726.785
-731.972
-706.673
-663.761
-611.734
-555.144
-494.274
-425.911
-352.761
-279.333
-211.451
-156.061
-113.407
-82.171
-60.613
-45.071
-35.323
-31.254
-30.994
-33.342
-35.977
-36.639
-34.82
-30.575
-24.295
-16.722
-8.658
-0.859
5.798
10.477
12.969
13.461
12.27
9.896
6.831
3.479
0.336
-2.116
-3.675
-4.299
-4.035
-3.032
-1.372
0.896
3.663
6.804
10.203
13.754
17.384
21.043
24.656
28.155
31.475
34.561
37.421
40.076
42.541
44.832
46.944
48.855
50.578
52.139
53.566
54.896
56.157
57.368
58.57
59.796
61.072
62.418
63.819
65.257
66.73
68.246
69.83
71.52
73.336
75.289
77.395
79.662
82.096
84.706
87.481
90.411
93.487
96.711
100.088
103.629
107.328
111.171
115.137
119.197
123.328
127.505
131.699
135.884
140.037
144.134
148.158
152.096
155.93
159.639
163.199
166.589
169.788
172.778
175.543
178.068
180.337
182.339
184.063
185.498
186.633
187.46
187.967
188.144
187.984
187.481
186.631
185.432
183.884
181.989
179.751
177.175
174.269
171.043
167.505
163.668
159.545
155.151
150.501
145.612
140.502
135.19
129.697
124.041
118.244
112.328
106.313
100.222
94.075
87.895
81.703
75.52
69.366
63.262
57.228
51.283
45.444
39.73
34.156
28.739
23.492
18.427
13.556
8.889
4.434
0.198
-3.813
-7.596
-11.147
-14.466
-17.552
-20.406
-23.032
-25.432
-27.611
-29.576
-31.331
-32.886
-34.247
-35.424
-36.425
-37.261
-37.94
-38.474
-38.873
-39.147
-39.307
-39.362
-39.324
-39.202
-39.007
-38.747
-38.432
-38.071
-37.671
-37.241
-36.787
-36.315
-35.832
-35.342
-34.85
-34.36
-33.875
-33.398
-32.93
-32.475
-32.033
-31.605
-31.193
-30.796
-30.414
-30.048
-29.696
-29.36
-29.037
-28.727
-28.429
-28.143
-27.868
-27.603
-27.348
-27.101
-26.863
-26.633
-26.41
-26.194
-25.986
-25.784
-25.59
-25.404
-25.225
-25.056
-24.897
-24.749
-24.613
-24.49
-24.381
-24.288
-24.21
-24.15
-24.108
-24.084
-24.079
-24.094
-24.13
-24.185
-24.261
-24.357
-24.473
-24.608
-24.763
-24.935
-25.124
-25.329
-25.549
-25.782
-26.027
-26.284
-26.549
-26.822
-27.101
-27.384
-27.669
-27.953
-28.235
-28.512
-28.782
-29.043
-29.292
-29.527
-29.747
-29.949
-30.132
-30.293
-30.433
-30.548
-30.638
-30.703
-30.74
-30.75
-30.732
-30.686
-30.611
-30.508
-30.377
-30.219
-30.035
-29.825
-29.591
-29.333
-29.054
-28.753
-28.433
-28.095
-27.741
-27.372
-26.991
-26.599
-26.2
-25.795
-25.387
-24.979
-24.575
-24.175
-23.784
-23.404
-23.038
-22.689
-22.359
-22.052
-21.77
-21.515
-21.291
-21.099
-20.942
-20.82
-20.735
-20.688
-20.677
-20.702
-20.762
-20.856
-20.983
-21.141
-21.329
-21.547
-21.793
-22.067
-22.368
-22.694
-23.042
-23.408
-23.786
-24.173
-24.562
-24.947
-25.321
-25.676
-26.007
-26.308
-26.574
-26.799
-26.975
-27.089
-27.134
-27.105
-27.0
-26.82
-26.566
-26.241
-25.855
-25.425
-24.968
-24.5
-24.027
-23.544
-23.05
-22.545
-22.03
-21.506
-20.967
-20.393
-19.771
-19.092
-18.345
-17.52
-16.591
-15.511
-14.249
-12.78
-11.098
-9.221
-7.161
-4.934
-2.567
-0.092
2.436
4.947
7.391
9.734
11.938
13.97
15.777
17.285
18.447
19.229
19.616
19.614
19.229
18.465
17.357
15.956
14.334
12.58
10.749
8.877
7.003
5.156
3.381
1.733
0.227
-1.132
-2.345
-3.436
-4.414
-5.295
-6.124
-6.944
-7.823
-8.842
-10.054
-11.505
-13.239
-15.27
-17.642
-20.428
-23.602
-27.053
-30.582
-33.853
-36.557
-38.478
-39.345
-38.814
-36.686
-33.034
-28.27
-23.198
-18.636
-15.099
-13.032
-13.024
-15.425
-20.018
-25.971
-31.646
-35.165
-35.243
-30.612
-19.605
-0.885
26.39
61.454
101.349
143.104
184.309
224.636
265.616
305.683
340.535
361.582
356.684
319.668
250.78
157.514
53.868
-50.376
-151.583
-251.529
-354.561
-459.419
-557.91
-636.768
-683.834
-694.669
-673.189
-629.997
-575.902
-517.61
-456.896
-392.412
-325.044
-257.421
-194.556
-142.203
-101.177
-70.893
-49.608
-33.918
-23.533
-18.294
-16.634
-17.608
-19.104
-18.975
-16.728
-12.41
-6.361
0.764
8.281
15.579
21.88
26.384
28.885
29.545
28.652
26.696
24.145
21.387
18.917
17.21
16.482
16.795
18.099
20.239
23.104
26.593
30.565
34.868
39.365
43.944
48.52
53.013
57.333
61.379
65.055
68.295
71.073
73.382
75.238
76.669
77.706
78.396
78.798
78.965
78.954
78.815
78.591
78.332
78.09
77.919
77.87
77.987
78.294
78.814
79.561
80.543
81.766
83.229
84.921
86.839
88.978
91.34
93.929
96.74
99.766
102.994
106.414
110.008
113.757
117.636
121.608
125.646
129.728
133.839
137.97
142.111
146.247
150.364
154.451
158.495
162.488
166.419
170.269
174.031
177.708
181.315
184.884
188.432
191.953
195.436
198.853
202.173
205.364
208.378
211.156
213.649
215.81
217.604
219.01
219.996
220.516
220.516
219.925
218.695
216.807
214.249
211.026
207.162
202.686
197.656
192.154
186.25
180.001
173.458
166.653
159.634
152.458
145.189
137.901
130.655
123.495
116.46
109.587
102.895
96.393
90.07
83.894
77.845
71.917
66.109
60.433
54.895
49.494
44.23
39.102
34.11
29.259
24.55
19.981
15.56
11.296
7.209
3.328
-0.329
-3.753
-6.935
-9.876
-12.578
-15.042
-17.273
-19.283
-21.08
-22.673
-24.07
-25.277
-26.302
-27.159
-27.86
-28.42
-28.855
-29.177
-29.398
-29.53
-29.586
-29.575
-29.506
-29.385
-29.22
-29.019
-28.789
-28.539
-28.275
-28.004
-27.732
-27.466
-27.209
-26.967
-26.743
-26.538
-26.354
-26.194
-26.057
-25.944
-25.856
-25.791
-25.75
-25.732
-25.735
-25.759
-25.802
-25.861
-25.936
-26.023
-26.121
-26.227
-26.339
-26.455
-26.572
-26.69
-26.807
-26.921
-27.03
-27.133
-27.229
-27.317
-27.395
-27.463
-27.52
-27.565
-27.598
-27.619
-27.628
-27.627
-27.614
-27.59
-27.556
-27.512
-27.458
-27.395
-27.322
-27.241
-27.15
-27.051
-26.944
-26.829
-26.708
-26.58
-26.447
-26.308
-26.165
-26.018
-25.867
-25.713
-25.556
-25.397
-25.236
-25.074
-24.911
-24.748
-24.585
-24.421
-24.258
-24.096
-23.933
-23.772
-23.611
-23.451
-23.294
-23.139
-22.987
-22.839
-22.696
-22.559
-22.43
-22.308
-22.195
-22.093
-22.0
-21.92
-21.851
-21.796
-21.754
-21.727
-21.714
-21.715
-21.732
-21.765
-21.812
-21.875
-21.954
-22.048
-22.158
-22.285
-22.427
-22.585
-22.761
-22.952
-23.161
-23.385
-23.625
-23.88
-24.149
-24.43
-24.724
-25.029
-25.344
-25.668
-26.0
-26.34
-26.685
-27.036
-27.39
-27.748
-28.106
-28.466
-28.824
-29.181
-29.536
-29.887
-30.233
-30.573
-30.905
-31.228
-31.541
-31.839
-32.121
-32.384
-32.624
-32.839
-33.026
-33.184
-33.309
-33.403
-33.463
-33.488
-33.479
-33.431
-33.344
-33.213
-33.033
-32.803
-32.516
-32.169
-31.761
-31.289
-30.751
-30.15
-29.485
-28.755
-27.959
-27.092
-26.152
-25.141
-24.062
-22.922
-21.732
-20.508
-19.265
-18.021
-16.79
-15.583
-14.404
-13.251
-12.12
-11.006
-9.909
-8.839
-7.802
-6.803
-5.838
-4.904
-3.99
-3.081
-2.159
-1.196
-0.171
0.928
2.095
3.312
4.554
5.791
7.014
8.215
9.385
10.515
11.584
12.577
13.474
14.255
14.89
15.335
15.548
15.505
15.205
14.66
13.89
12.919
11.741
10.353
8.77
7.005
5.076
2.995
0.764
-1.623
-4.148
-6.78
-9.489
-12.24
-15.036
-17.892
-20.819
-23.834
-26.919
-30.049
-33.252
-36.587
-40.048
-43.545
-46.874
-49.698
-51.734
-52.79
-52.638
-50.989
-47.677
-42.818
-36.87
-30.666
-25.083
-20.679
-17.915
-17.371
-19.361
-23.629
-29.338
-34.878
-38.38
-38.54
-34.086
-23.378
-5.16
21.331
55.386
94.333
135.449
176.303
216.107
255.577
292.706
323.586
340.856
333.919
297.39
231.047
140.906
39.3
-64.892
-167.914
-270.747
-376.886
-484.66
-585.841
-667.151
-716.3
-728.52
-707.347
-663.277
-607.187
-545.96
-481.639
-413.036
-341.198
-269.02
-201.825
-145.74
-101.917
-69.926
-48.056
-32.831
-23.798
-20.556
-21.245
-24.568
-28.09
-29.487
-28.179
-24.196
-17.942
-10.166
-1.685
6.701
14.049
19.461
22.673
23.841
23.273
21.471
18.933
16.088
13.459
11.556
10.614
10.697
11.757
13.631
16.204
19.381
23.026
26.996
31.17
35.442
39.729
43.969
48.082
51.979
55.577
58.795
61.59
63.949
65.876
67.4
68.549
69.36
69.883
70.171
70.281
70.264
70.172
70.046
69.934
69.885
69.947
70.167
70.578
71.202
72.055
73.143
74.471
76.043
77.854
79.897
82.165
84.652
87.354
90.267
93.384
96.693
100.185
103.845
107.662
111.622
115.713
119.919
124.225
128.614
133.069
137.573
142.108
146.652
151.183
155.678
160.114
164.468
168.716
172.835
176.801
180.591
184.185
187.562
190.7
193.582
196.188
198.501
200.505
202.186
203.53
204.526
205.161
205.429
205.321
204.833
203.959
202.698
201.049
199.014
196.597
193.801
190.634
187.105
183.223
179.002
174.455
169.596
164.443
159.014
153.328
147.404
141.265
134.933
128.429
121.778
115.002
108.127
101.176
94.173
87.142
80.108
73.095
66.124
59.219
52.403
45.695
39.117
32.687
26.424
20.344
14.464
8.797
3.356
-1.847
-6.804
-11.506
-15.947
-20.122
-24.028
-27.664
-31.029
-34.126
-36.957
-39.526
-41.84
-43.904
-45.727
-47.318
-48.687
-49.844
-50.8
-51.568
-52.16
-52.588
-52.866
-53.007
-53.024
-52.93
-52.739
-52.464
-52.118
-51.712
-51.259
-50.77
-50.255
-49.725
-49.188
-48.654
-48.129
-47.62
-47.134
-46.674
-46.246
-45.852
-45.495
-45.176
-44.898
-44.659
-44.46
-44.299
-44.176
-44.088
-44.034
-44.011
-44.015
-44.045
-44.098
-44.169
-44.255
-44.353
-44.461
-44.573
-44.688
-44.802
-44.913
-45.017
-45.112
-45.196
-45.268
-45.325
-45.368
-45.394
-45.404
-45.399
-45.377
-45.34
-45.289
-45.225
-45.15
-45.066
-44.974
-44.877
-44.777
-44.675
-44.575
-44.478
-44.386
-44.302
-44.227
-44.162
-44.11
-44.073
-44.05
-44.044
-44.056
-44.085
-44.134
-44.203
-44.292
-44.4
-44.529
-44.678
-44.847
-45.034
-45.24
-45.463
-45.702
-45.957
-46.224
-46.504
-46.794
-47.093
-47.398
-47.709
-48.022
-48.337
-48.651
-48.964
-49.274
-49.579
-49.878
-50.172
-50.458
-50.736
-51.007
-51.269
-51.523
-51.769
-52.007
-52.236
-52.458
-52.673
-52.88
-53.081
-53.276
-53.466
-53.651
-53.831
-54.008
-54.183
-54.355
-54.526
-54.697
-54.868
-55.04
-55.215
-55.392
-55.573
-55.759
-55.95
-56.147
-56.348
-56.555
-56.766
-56.982
-57.2
-57.419
-57.639
-57.856
-58.069
-58.276
-58.475
-58.663
-58.837
-58.996
-59.135
-59.253
-59.347
-59.412
-59.448
-59.449
-59.414
-59.34
-59.223
-59.06
-58.848
-58.584
-58.265
-57.887
-57.448
-56.944
-56.372
-55.732
-55.02
-54.237
-53.381
-52.453
-51.454
-50.387
-49.254
-48.058
-46.803
-45.493
-44.131
-42.725
-41.277
-39.794
-38.282
-36.747
-35.196
-33.638
-32.081
-30.532
-28.999
-27.492
-26.016
-24.582
-23.198
-21.869
-20.605
-19.411
-18.296
-17.272
-16.346
-15.52
-14.795
-14.169
-13.637
-13.195
-12.832
-12.534
-12.285
-12.07
-11.875
-11.692
-11.513
-11.325
-11.116
-10.867
-10.563
-10.204
-9.792
-9.335
-8.851
-8.354
-7.87
-7.451
-7.144
-6.999
-7.075
-7.404
-8.026
-8.98
-10.293
-12.006
-14.163
-16.79
-19.915
-23.55
-27.663
-32.249
-37.328
-42.804
-48.506
-54.176
-59.406
-63.853
-67.289
-69.423
-69.908
-68.595
-65.54
-61.096
-56.073
-51.202
-46.942
-43.821
-42.328
-42.627
-44.527
-47.23
-49.134
-48.71
-44.662
-35.423
-19.656
3.718
34.786
71.7
111.85
152.781
193.517
235.083
277.302
317.031
347.254
356.89
336.795
283.879
202.048
102.823
-1.794
-104.891
-204.946
-305.126
-406.795
-504.748
-588.779
-648.228
-676.936
-676.658
-655.679
-621.33
-577.866
-526.205
-463.291
-390.36
-313.412
-239.113
-176.239
-128.679
-94.062
-69.632
-51.304
-36.918
-27.804
-23.917
-24.133
-26.55
-28.05
-26.989
-23.248
-17.102
-9.277
-0.56
8.284
16.272
22.363
26.084
27.523
26.98
24.945
21.918
18.341
14.765
11.777
9.729
8.741
8.812
9.811
11.623
14.178
17.348
20.988
24.975
29.189
33.541
37.956
42.351
46.629
50.701
54.481
57.899
60.92
63.532
65.746
67.589
69.093
70.297
71.248
72.001
72.611
73.129
73.601
74.069
74.578
75.172
75.898
76.796
77.896
79.215
80.765
82.554
84.587
86.866
89.384
92.132
95.102
98.291
101.698
105.321
109.149
113.17
117.367
121.72
126.214
130.825
135.521
140.271
145.045
149.821
154.587
159.33
164.032
168.676
173.237
177.704
182.078
186.356
190.532
194.601
198.558
202.415
206.205
209.949
213.662
217.338
220.946
224.463
227.87
231.142
234.252
237.152
239.771
242.06
243.989
245.518
246.61
247.2
247.189
246.505
245.105
242.966
240.102
236.52
232.216
227.21
221.54
215.26
208.458
201.187
193.468
185.347
176.879
168.156
159.315
150.457
141.651
132.956
124.403
116.035
107.91
100.054
92.475
85.172
78.13
71.365
64.932
58.854
53.134
47.745
42.618
37.716
33.029
28.544
24.257
20.156
16.219
12.445
8.855
5.459
2.267
-0.734
-3.587
-6.311
-8.909
-11.365
-13.647
-15.735
-17.631
-19.331
-20.829
-22.123
-23.207
-24.091
-24.802
-25.355
-25.761
-26.021
-26.126
-26.077
-25.886
-25.571
-25.156
-24.659
-24.095
-23.479
-22.833
-22.17
-21.506
-20.847
-20.193
-19.548
-18.92
-18.315
-17.744
-17.212
-16.722
-16.276
-15.875
-15.519
-15.208
-14.94
-14.713
-14.523
-14.369
-14.251
-14.17
-14.124
-14.113
-14.135
-14.19
-14.274
-14.387
-14.526
-14.689
-14.873
-15.075
-15.294
-15.527
-15.772
-16.026
-16.288
-16.555
-16.825
-17.095
-17.365
-17.632
-17.895
-18.153
-18.406
-18.652
-18.892
-19.126
-19.353
-19.574
-19.789
-19.999
-20.204
-20.404
-20.6
-20.793
-20.982
-21.168
-21.351
-21.532
-21.709
-21.885
-22.058
-22.23
-22.401
-22.571
-22.741
-22.911
-23.083
-23.258
-23.435
-23.615
-23.8
-23.99
-24.186
-24.389
-24.598
-24.815
-25.039
-25.272
-25.513
-25.763
-26.021
-26.288
-26.564
-26.847
-27.14
-27.44
-27.748
-28.065
-28.389
-28.72
-29.06
-29.406
-29.759
-30.118
-30.482
-30.85
-31.22
-31.592
-31.962
-32.329
-32.691
-33.047
-33.393
-33.727
-34.046
-34.35
-34.633
-34.895
-35.132
-35.342
-35.522
-35.669
-35.781
-35.856
-35.891
-35.885
-35.836
-35.742
-35.602
-35.414
-35.178
-34.892
-34.556
-34.17
-33.735
-33.251
-32.722
-32.147
-31.531
-30.876
-30.189
-29.472
-28.732
-27.972
-27.199
-26.419
-25.638
-24.86
-24.091
-23.337
-22.602
-21.894
-21.218
-20.58
-19.986
-19.441
-18.951
-18.519
-18.147
-17.836
-17.583
-17.388
-17.252
-17.176
-17.162
-17.208
-17.315
-17.478
-17.693
-17.953
-18.242
-18.54
-18.828
-19.09
-19.315
-19.496
-19.625
-19.693
-19.69
-19.605
-19.426
-19.146
-18.755
-18.242
-17.612
-16.88
-16.088
-15.291
-14.542
-13.882
-13.342
-12.957
-12.774
-12.847
-13.229
-13.969
-15.1
-16.679
-18.811
-21.534
-24.781
-28.371
-31.984
-35.293
-38.086
-40.125
-41.075
-40.753
-39.23
-36.863
-34.389
-32.533
-31.645
-31.992
-33.985
-37.772
-43.06
-49.076
-54.28
-56.927
-55.946
-50.466
-39.192
-21.116
4.319
37.313
75.972
116.917
157.918
196.634
232.155
266.188
297.412
322.061
333.332
320.307
276.758
203.321
107.749
3.295
-100.287
-199.733
-297.55
-396.447
-493.728
-580.551
-644.132
-676.402
-676.594
-650.351
-608.185
-557.697
-502.814
-444.956
-383.164
-318.624
-254.486
-194.442
-142.593
-101.15
-70.281
-49.261
-36.6
-30.718
-29.971
-32.185
-35.07
-36.626
-35.705
-32.093
-26.031
-17.998
-8.676
1.066
10.168
17.525
22.583
25.347
26.046
25.126
23.05
20.225
17.19
14.528
12.589
11.531
11.382
12.025
13.368
15.352
17.86
20.769
23.971
27.363
30.873
34.447
38.014
41.504
44.845
47.964
50.804
53.316
55.471
57.271
58.732
59.879
60.749
61.379
61.812
62.104
62.306
62.464
62.621
62.815
63.085
63.473
64.017
64.754
65.71
66.898
68.33
70.008
71.936
74.111
76.528
79.174
82.038
85.111
88.385
91.854
95.509
99.338
103.323
107.444
111.687
116.033
120.464
124.96
129.499
134.056
138.618
143.168
147.69
152.17
156.58
160.896
165.093
169.146
173.039
176.758
180.28
183.586
186.664
189.499
192.086
194.423
196.482
198.238
199.673
200.764
201.505
201.891
201.914
201.568
200.845
199.734
198.238
196.362
194.098
191.445
188.394
184.938
181.103
176.917
172.403
167.59
162.493
157.128
151.523
145.706
139.698
133.529
127.216
120.78
114.255
107.674
101.072
94.486
87.929
81.41
74.947
68.554
62.25
56.056
49.984
44.043
38.254
32.632
27.194
21.958
16.93
12.113
7.513
3.13
-1.024
-4.94
-8.615
-12.044
-15.226
-18.163
-20.854
-23.299
-25.507
-27.485
-29.243
-30.793
-32.143
-33.301
-34.278
-35.084
-35.733
-36.236
-36.607
-36.856
-36.996
-37.04
-37.001
-36.891
-36.721
-36.501
-36.24
-35.949
-35.635
-35.309
-34.977
-34.646
-34.323
-34.014
-33.723
-33.456
-33.215
-33.002
-32.82
-32.669
-32.549
-32.461
-32.401
-32.37
-32.364
-32.382
-32.42
-32.477
-32.548
-32.631
-32.724
-32.823
-32.925
-33.028
-33.13
-33.228
-33.32
-33.405
-33.481
-33.547
-33.601
-33.643
-33.673
-33.689
-33.693
-33.683
-33.66
-33.626
-33.58
-33.524
-33.459
-33.388
-33.312
-33.234
-33.157
-33.082
-33.012
-32.951
-32.901
-32.865
-32.843
-32.84
-32.855
-32.891
-32.949
-33.03
-33.133
-33.258
-33.407
-33.576
-33.767
-33.978
-34.207
-34.453
-34.715
-34.99
-35.277
-35.575
-35.882
-36.195
-36.514
-36.835
-37.158
-37.48
-37.798
-38.111
-38.416
-38.711
-38.993
-39.26
-39.51
-39.742
-39.952
-40.141
-40.306
-40.447
-40.564
-40.656
-40.723
-40.767
-40.789
-40.789
-40.77
-40.734
-40.683
-40.619
-40.543
-40.46
-40.369
-40.275
-40.177
-40.079
-39.981
-39.886
-39.794
-39.708
-39.627
-39.554
-39.489
-39.433
-39.388
-39.352
-39.328
-39.316
-39.314
-39.324
-39.344
-39.375
-39.415
-39.462
-39.515
-39.571
-39.629
-39.684
-39.733
-39.772
-39.798
-39.806
-39.793
-39.755
-39.688
-39.588
-39.452
-39.277
-39.061
-38.8
-38.494
-38.14
-37.737
-37.285
-36.784
-36.234
-35.636
-34.992
-34.303
-33.574
-32.805
-32.002
-31.167
-30.305
-29.419
-28.513
-27.592
-26.66
-25.723
-24.786
-23.856
-22.94
-22.044
-21.175
-20.338
-19.541
-18.787
-18.078
-17.418
-16.807
-16.249
-15.749
-15.313
-14.939
-14.63
-14.385
-14.198
-14.064
-13.969
-13.894
-13.821
-13.736
-13.626
-13.485
-13.303
-13.07
-12.771
-12.39
-11.912
-11.332
-10.643
-9.841
-8.932
-7.937
-6.903
-5.897
-4.982
-4.206
-3.605
-3.222
-3.113
-3.35
-4.002
-5.136
-6.786
-9.008
-11.894
-15.47
-19.685
-24.368
-29.189
-33.826
-38.046
-41.574
-44.09
-45.396
-45.396
-44.309
-42.728
-41.185
-40.068
-39.752
-40.563
-42.699
-46.177
-50.412
-54.173
-56.153
-55.089
-49.738
-38.881
-21.35
3.896
36.645
75.042
116.9
159.751
202.264
245.191
287.972
327.669
358.684
371.417
357.399
313.333
240.69
147.442
44.511
-59.947
-160.564
-256.11
-349.026
-439.896
-526.365
-602.904
-660.075
-690.403
-691.293
-664.906
-619.118
-562.598
-501.276
-438.358
-374.21
-308.993
-244.468
-183.983
-131.251
-88.4
-56.089
-33.599
-19.206
-11.699
-9.779
-11.309
-14.346
-17.129
-18.111
-16.868
-13.635
-8.562
-2.099
4.937
11.815
17.674
21.7
23.749
24.043
22.874
20.714
18.038
15.226
12.75
11.058
10.314
10.528
11.605
13.338
15.579
18.232
21.171
24.29
27.516
30.764
33.975
37.103
40.082
42.85
45.354
47.534
49.378
50.911
52.178
53.266
54.248
55.17
56.072
56.973
57.87
58.78
59.718
60.695
61.734
62.856
64.08
65.44
66.952
68.613
70.406
72.289
74.229
76.216
78.248
80.336
82.507
84.78
87.167
89.693
92.368
95.198
98.181
101.299
104.536
107.882
111.327
114.865
118.481
122.15
125.845
129.544
133.221
136.855
140.421
143.893
147.248
150.478
153.581
156.556
159.403
162.119
164.706
167.184
169.585
171.937
174.249
176.517
178.72
180.843
182.864
184.755
186.476
187.967
189.173
190.051
190.573
190.707
190.414
189.637
188.302
186.355
183.768
180.532
176.656
172.151
167.039
161.365
155.198
148.628
141.733
134.574
127.197
119.651
111.994
104.3
96.651
89.111
81.729
74.544
67.588
60.893
54.476
48.336
42.449
36.78
31.304
26.014
20.908
15.99
11.253
6.687
2.28
-1.969
-6.057
-9.985
-13.755
-17.371
-20.83
-24.121
-27.225
-30.12
-32.792
-35.237
-37.455
-39.448
-41.22
-42.775
-44.123
-45.277
-46.251
-47.055
-47.699
-48.193
-48.545
-48.772
-48.887
-48.906
-48.842
-48.706
-48.511
-48.266
-47.982
-47.666
-47.325
-46.962
-46.584
-46.196
-45.802
-45.409
-45.02
-44.639
-44.268
-43.912
-43.571
-43.246
-42.938
-42.644
-42.365
-42.097
-41.84
-41.589
-41.344
-41.1
-40.856
-40.608
-40.353
-40.09
-39.814
-39.523
-39.215
-38.887
-38.537
-38.165
-37.768
-37.345
-36.896
-36.421
-35.92
-35.392
-34.838
-34.258
-33.654
-33.026
-32.376
-31.705
-31.014
-30.306
-29.584
-28.85
-28.107
-27.358
-26.607
-25.856
-25.108
-24.367
-23.635
-22.916
-22.212
-21.525
-20.859
-20.216
-19.598
-19.007
-18.444
-17.913
-17.412
-16.945
-16.511
-16.111
-15.746
-15.417
-15.123
-14.864
-14.641
-14.453
-14.3
-14.181
-14.096
-14.044
-14.023
-14.033
-14.072
-14.139
-14.233
-14.353
-14.497
-14.665
-14.854
-15.066
-15.297
-15.547
-15.815
-16.099
-16.4
-16.715
-17.044
-17.387
-17.741
-18.108
-18.485
-18.872
-19.268
-19.673
-20.086
-20.505
-20.93
-21.361
-21.796
-22.234
-22.675
-23.118
-23.562
-24.005
-24.447
-24.887
-25.322
-25.752
-26.175
-26.588
-26.989
-27.377
-27.749
-28.103
-28.437
-28.749
-29.036
-29.296
-29.526
-29.725
-29.891
-30.02
-30.111
-30.161
-30.169
-30.133
-30.052
-29.923
-29.745
-29.517
-29.238
-28.907
-28.523
-28.087
-27.597
-27.055
-26.462
-25.819
-25.129
-24.394
-23.617
-22.803
-21.955
-21.08
-20.182
-19.267
-18.341
-17.41
-16.479
-15.555
-14.643
-13.749
-12.879
-12.041
-11.239
-10.481
-9.771
-9.117
-8.522
-7.993
-7.532
-7.141
-6.819
-6.568
-6.39
-6.287
-6.261
-6.308
-6.422
-6.602
-6.841
-7.131
-7.458
-7.801
-8.139
-8.457
-8.742
-8.99
-9.193
-9.335
-9.403
-9.38
-9.256
-9.033
-8.712
-8.283
-7.748
-7.119
-6.43
-5.744
-5.116
-4.584
-4.182
-3.929
-3.86
-4.034
-4.503
-5.323
-6.542
-8.164
-10.223
-12.795
-15.875
-19.394
-23.173
-26.876
-30.191
-32.925
-34.851
-35.727
-35.407
-33.825
-31.209
-28.145
-25.235
-22.922
-21.494
-21.238
-22.407
-25.124
-29.043
-32.662
-33.734
-30.559
-22.321
-9.92
4.633
21.085
40.714
66.259
101.014
145.16
196.389
250.831
302.825
346.586
375.424
380.742
355.694
298.04
211.798
108.368
0.051
-105.098
-204.819
-303.123
-402.498
-499.961
-587.275
-651.998
-685.99
-688.116
-663.229
-621.072
-569.31
-512.155
-451.268
-386.134
-318.03
-249.777
-184.891
-127.369
-79.514
-42.279
-15.691
1.572
10.942
13.679
11.502
6.026
-1.049
-7.622
-12.299
-14.713
-14.807
-12.759
-8.848
-3.107
3.95
11.101
17.328
22.193
25.616
27.807
28.865
28.594
27.135
25.132
23.337
22.262
22.09
22.757
24.226
26.633
30.02
34.195
38.806
43.525
48.169
52.666
56.985
61.031
64.684
67.883
70.639
72.998
75.001
76.672
78.011
79.04
79.806
80.365
80.776
81.093
81.354
81.604
81.885
82.242
82.719
83.352
84.161
85.163
86.365
87.774
89.395
91.23
93.273
95.519
97.957
100.576
103.373
106.34
109.471
112.763
116.206
119.785
123.49
127.307
131.218
135.201
139.227
143.258
147.265
151.225
155.12
158.938
162.667
166.293
169.802
173.186
176.435
179.544
182.504
185.303
187.94
190.422
192.772
195.028
197.215
199.333
201.378
203.33
205.161
206.845
208.341
209.593
210.558
211.192
211.466
211.367
210.863
209.916
208.475
206.47
203.858
200.621
196.751
192.257
187.165
181.51
175.353
168.781
161.868
154.676
147.257
139.644
131.887
124.044
116.18
108.37
100.675
93.14
85.805
78.705
71.858
65.272
58.932
52.803
46.861
41.095
35.504
30.094
24.869
19.824
14.956
10.261
5.737
1.383
-2.802
-6.823
-10.677
-14.357
-17.844
-21.115
-24.151
-26.945
-29.493
-31.798
-33.862
-35.688
-37.286
-38.667
-39.842
-40.823
-41.618
-42.235
-42.684
-42.979
-43.135
-43.167
-43.091
-42.921
-42.669
-42.347
-41.967
-41.539
-41.071
-40.571
-40.044
-39.499
-38.942
-38.381
-37.823
-37.273
-36.737
-36.221
-35.729
-35.263
-34.828
-34.424
-34.053
-33.715
-33.411
-33.141
-32.904
-32.698
-32.523
-32.376
-32.256
-32.161
-32.088
-32.035
-31.999
-31.978
-31.97
-31.973
-31.984
-32.002
-32.025
-32.051
-32.079
-32.109
-32.138
-32.166
-32.193
-32.216
-32.236
-32.253
-32.264
-32.271
-32.273
-32.271
-32.264
-32.254
-32.24
-32.224
-32.207
-32.189
-32.172
-32.157
-32.145
-32.136
-32.133
-32.135
-32.144
-32.16
-32.183
-32.215
-32.256
-32.305
-32.363
-32.428
-32.502
-32.583
-32.671
-32.765
-32.865
-32.97
-33.078
-33.191
-33.306
-33.423
-33.542
-33.662
-33.782
-33.901
-34.019
-34.136
-34.249
-34.359
-34.465
-34.566
-34.662
-34.752
-34.837
-34.915
-34.987
-35.052
-35.112
-35.165
-35.214
-35.257
-35.296
-35.332
-35.366
-35.399
-35.432
-35.466
-35.503
-35.543
-35.588
-35.639
-35.696
-35.76
-35.832
-35.912
-36.001
-36.1
-36.208
-36.326
-36.453
-36.589
-36.734
-36.887
-37.047
-37.212
-37.382
-37.554
-37.727
-37.899
-38.068
-38.232
-38.389
-38.536
-38.67
-38.789
-38.889
-38.968
-39.021
-39.046
-39.04
-38.999
-38.922
-38.804
-38.644
-38.44
-38.189
-37.89
-37.54
-37.14
-36.688
-36.184
-35.629
-35.023
-34.369
-33.669
-32.926
-32.145
-31.33
-30.485
-29.617
-28.73
-27.83
-26.924
-26.016
-25.113
-24.221
-23.346
-22.495
-21.676
-20.895
-20.158
-19.472
-18.843
-18.275
-17.774
-17.342
-16.977
-16.678
-16.451
-16.304
-16.239
-16.26
-16.36
-16.528
-16.766
-17.078
-17.43
-17.785
-18.113
-18.38
-18.587
-18.755
-18.859
-18.856
-18.812
-18.805
-18.775
-18.724
-18.661
-18.381
-18.405
-19.252
-20.225
-21.16
-20.768
-17.492
-13.143
-8.925
-6.64
-8.761
-13.199
-18.192
-22.539
-24.204
-24.715
-25.669
-27.422
-30.796
-35.043
-39.104
-42.769
-45.735
-47.799
-48.754
-48.307
-46.459
-43.65
-40.713
-38.439
-37.225
-37.376
-39.343
-43.328
-49.045
-55.62
-61.327
-64.286
-63.35
-57.431
-45.039
-25.063
3.249
39.412
80.61
123.712
166.415
207.722
248.629
289.207
326.571
354.154
361.34
338.782
282.781
196.846
92.622
-17.137
-124.688
-227.825
-329.493
-431.47
-529.047
-612.754
-672.471
-702.054
-703.234
-683.891
-651.444
-610.368
-560.516
-498.141
-423.089
-340.289
-258.652
-188.828
-136.831
-102.081
-79.286
-62.247
-47.238
-34.102
-25.176
-21.374
-21.646
-23.858
-25.086
-23.958
-20.662
-15.571
-9.354
-2.803
3.523
8.888
12.462
14.052
13.853
12.161
9.473
6.266
2.943
0.007
-2.052
-3.025
-2.865
-1.635
0.499
3.418
7.013
11.133
15.616
20.32
25.127
29.945
34.695
39.281
43.603
47.564
51.098
54.18
56.809
59.0
60.784
62.192
63.273
64.083
64.68
65.117
65.447
65.716
65.972
66.268
66.654
67.182
67.89
68.799
69.927
71.282
72.867
74.686
76.731
78.995
81.468
84.145
87.02
90.089
93.345
96.777
100.373
104.12
108.007
112.021
116.15
120.378
124.693
129.08
133.524
138.01
142.52
147.037
151.54
156.007
160.418
164.752
168.986
173.098
177.067
180.873
184.494
187.912
191.107
194.062
196.759
199.183
201.318
203.15
204.666
205.856
206.71
207.219
207.376
207.176
206.615
205.69
204.401
202.748
200.733
198.36
195.635
192.564
189.156
185.42
181.368
177.013
172.369
167.452
162.277
156.863
151.23
145.395
139.381
133.207
126.895
120.468
113.946
107.353
100.711
94.041
87.365
80.704
74.08
67.512
61.021
54.624
48.341
42.189
36.183
30.34
24.674
19.198
13.924
8.862
4.023
-0.586
-4.957
-9.086
-12.968
-16.601
-19.984
-23.117
-26.001
-28.641
-31.041
-33.206
-35.142
-36.858
-38.361
-39.662
-40.769
-41.692
-42.443
-43.033
-43.471
-43.77
-43.941
-43.995
-43.944
-43.798
-43.569
-43.268
-42.905
-42.49
-42.034
-41.545
-41.033
-40.507
-39.974
-39.441
-38.915
-38.403
-37.908
-37.435
-36.988
-36.569
-36.18
-35.822
-35.495
-35.199
-34.934
-34.699
-34.492
-34.312
-34.157
-34.026
-33.916
-33.825
-33.752
-33.694
-33.649
-33.616
-33.593
-33.579
-33.57
-33.567
-33.568
-33.57
-33.574
-33.577
-33.579
-33.58
-33.578
-33.573
-33.566
-33.558
-33.548
-33.539
-33.532
-33.528
-33.53
-33.539
-33.558
-33.588
-33.632
-33.691
-33.767
-33.861
-33.974
-34.108
-34.262
-34.437
-34.632
-34.848
-35.082
-35.334
-35.602
-35.885
-36.181
-36.488
-36.804
-37.128
-37.456
-37.787
-38.118
-38.446
-38.769
-39.084
-39.388
-39.677
-39.948
-40.199
-40.426
-40.626
-40.797
-40.935
-41.04
-41.108
-41.137
-41.128
-41.079
-40.989
-40.86
-40.693
-40.489
-40.25
-39.979
-39.679
-39.353
-39.004
-38.637
-38.256
-37.864
-37.465
-37.064
-36.665
-36.271
-35.888
-35.518
-35.166
-34.835
-34.53
-34.252
-34.005
-33.791
-33.612
-33.471
-33.367
-33.304
-33.28
-33.296
-33.352
-33.447
-33.577
-33.742
-33.937
-34.158
-34.401
-34.661
-34.932
-35.209
-35.484
-35.753
-36.008
-36.243
-36.451
-36.626
-36.763
-36.855
-36.896
-36.882
-36.807
-36.67
-36.465
-36.192
-35.848
-35.434
-34.949
-34.397
-33.776
-33.09
-32.343
-31.537
-30.677
-29.767
-28.814
-27.822
-26.801
-25.757
-24.7
-23.639
-22.584
-21.544
-20.529
-19.547
-18.611
-17.728
-16.905
-16.15
-15.469
-14.869
-14.36
-13.946
-13.628
-13.403
-13.268
-13.217
-13.247
-13.346
-13.497
-13.684
-13.889
-14.102
-14.314
-14.516
-14.696
-14.838
-14.921
-14.938
-14.886
-14.768
-14.587
-14.342
-14.038
-13.699
-13.366
-13.081
-12.89
-12.823
-12.902
-13.159
-13.618
-14.318
-15.304
-16.605
-18.248
-20.247
-22.606
-25.353
-28.528
-32.081
-35.87
-39.668
-43.149
-46.043
-48.148
-49.207
-48.922
-47.119
-43.857
-39.49
-34.664
-30.0
-25.889
-22.71
-20.898
-20.685
-22.011
-24.259
-26.147
-26.426
-23.654
-16.339
-3.758
14.994
39.407
67.465
98.489
131.266
165.601
203.17
243.091
282.7
316.969
337.173
334.054
301.524
239.43
153.085
52.457
-53.303
-161.736
-272.328
-383.913
-492.424
-585.782
-651.108
-682.142
-678.773
-649.192
-605.161
-553.927
-499.291
-441.815
-380.196
-315.981
-252.61
-194.063
-144.312
-105.163
-76.43
-57.062
-45.339
-39.553
-37.996
-38.548
-39.164
-38.195
-34.8
-29.012
-21.25
-12.092
-2.258
7.4
15.942
22.466
26.577
28.398
28.243
26.587
23.91
20.63
17.252
14.306
12.107
10.802
10.416
10.855
12.034
13.899
16.342
19.246
22.504
26.007
29.673
33.435
37.212
40.927
44.502
47.858
50.932
53.668
56.034
58.028
59.663
60.962
61.962
62.7
63.223
63.589
63.85
64.055
64.25
64.471
64.758
65.155
65.7
66.433
67.38
68.56
69.984
71.662
73.596
75.786
78.227
80.908
83.817
86.946
90.288
93.839
97.594
101.543
105.673
109.967
114.408
118.97
123.627
128.347
133.099
137.855
142.592
147.293
151.95
156.55
161.085
165.539
169.889
174.115
178.195
182.115
185.862
189.436
192.843
196.094
199.209
202.195
205.051
207.759
210.286
212.588
214.616
216.33
217.702
218.707
219.328
219.544
219.336
218.677
217.538
215.877
213.649
210.82
207.375
203.32
198.688
193.529
187.911
181.894
175.532
168.871
161.952
154.815
147.498
140.044
132.497
124.912
117.357
109.889
102.559
95.396
88.416
81.615
74.978
68.491
62.147
55.943
49.883
43.974
38.227
32.652
27.261
22.058
17.038
12.195
7.525
3.028
-1.286
-5.405
-9.309
-12.983
-16.413
-19.589
-22.51
-25.174
-27.588
-29.758
-31.698
-33.417
-34.924
-36.225
-37.329
-38.243
-38.978
-39.546
-39.961
-40.236
-40.385
-40.421
-40.357
-40.205
-39.976
-39.677
-39.319
-38.907
-38.451
-37.958
-37.436
-36.893
-36.335
-35.771
-35.205
-34.644
-34.092
-33.553
-33.03
-32.524
-32.038
-31.572
-31.127
-30.703
-30.3
-29.917
-29.554
-29.21
-28.884
-28.575
-28.281
-28.001
-27.734
-27.478
-27.232
-26.994
-26.762
-26.536
-26.314
-26.094
-25.876
-25.658
-25.439
-25.219
-24.996
-24.77
-24.541
-24.307
-24.069
-23.828
-23.584
-23.338
-23.09
-22.844
-22.599
-22.357
-22.12
-21.89
-21.669
-21.457
-21.256
-21.067
-20.893
-20.734
-20.591
-20.465
-20.357
-20.268
-20.199
-20.15
-20.123
-20.118
-20.136
-20.178
-20.243
-20.333
-20.447
-20.587
-20.751
-20.94
-21.154
-21.392
-21.653
-21.937
-22.242
-22.568
-22.913
-23.274
-23.652
-24.042
-24.444
-24.855
-25.273
-25.695
-26.119
-26.543
-26.965
-27.382
-27.792
-28.192
-28.581
-28.955
-29.311
-29.647
-29.96
-30.246
-30.504
-30.729
-30.919
-31.072
-31.183
-31.251
-31.272
-31.245
-31.165
-31.031
-30.841
-30.593
-30.286
-29.92
-29.494
-29.008
-28.466
-27.868
-27.217
-26.517
-25.77
-24.979
-24.147
-23.28
-22.38
-21.452
-20.499
-19.528
-18.545
-17.557
-16.571
-15.594
-14.633
-13.695
-12.789
-11.92
-11.096
-10.321
-9.602
-8.946
-8.363
-7.863
-7.453
-7.134
-6.906
-6.766
-6.709
-6.727
-6.806
-6.928
-7.075
-7.235
-7.395
-7.548
-7.682
-7.778
-7.819
-7.786
-7.664
-7.454
-7.153
-6.764
-6.303
-5.786
-5.245
-4.734
-4.296
-3.971
-3.794
-3.797
-4.026
-4.534
-5.368
-6.568
-8.153
-10.13
-12.516
-15.322
-18.552
-22.197
-26.199
-30.488
-35.019
-39.672
-44.275
-48.59
-52.249
-54.923
-56.372
-56.288
-54.437
-50.856
-45.702
-39.375
-32.577
-25.778
-19.379
-14.006
-9.995
-7.23
-5.35
-3.45
-0.262
5.016
13.166
25.467
42.871
65.849
94.453
127.047
160.796
193.671
224.047
251.665
277.608
300.224
314.451
312.077
284.175
227.396
146.158
50.646
-48.419
-145.761
-243.186
-344.328
-448.255
-547.18
-626.573
-673.57
-684.401
-662.916
-619.611
-564.731
-502.247
-433.678
-360.314
-285.77
-217.059
-160.21
-117.221
-85.549
-60.956
-40.504
-23.545
-11.864
-6.577
-6.489
-9.367
-12.334
-13.292
-11.806
-8.15
-2.761
3.825
10.932
17.851
23.757
27.876
30.026
30.382
29.226
27.003
24.158
21.086
18.266
16.167
14.997
14.811
15.562
17.1
19.316
22.125
25.397
28.998
32.811
36.735
40.688
44.613
48.433
52.068
55.439
58.473
61.128
63.393
65.274
66.8
68.0
68.91
69.575
70.046
70.376
70.614
70.804
70.982
71.188
71.462
71.845
72.376
73.084
73.987
75.094
76.411
77.941
79.686
81.643
83.802
86.155
88.693
91.411
94.306
97.376
100.613
104.003
107.529
111.176
114.927
118.763
122.66
126.584
130.506
134.398
138.24
142.021
145.725
149.336
152.837
156.207
159.439
162.536
165.495
168.313
170.99
173.531
175.952
178.29
180.569
182.801
184.987
187.111
189.156
191.108
192.945
194.639
196.155
197.445
198.468
199.193
199.579
199.582
199.142
198.177
196.621
194.427
191.564
188.024
183.804
178.912
173.366
167.199
160.447
153.157
145.371
137.132
128.496
119.529
110.318
100.971
91.591
82.278
73.117
64.176
55.514
47.175
39.195
31.605
24.434
17.717
11.48
5.742
0.513
-4.21
-8.45
-12.242
-15.637
-18.702
-21.489
-24.039
-26.385
-28.544
-30.537
-32.387
-34.118
-35.761
-37.343
-38.883
-40.396
-41.898
-43.389
-44.861
-46.294
-47.646
-48.891
-50.011
-50.998
-51.853
-52.577
-53.166
-53.62
-53.938
-54.123
-54.178
-54.107
-53.911
-53.598
-53.182
-52.682
-52.129
-51.546
-50.95
-50.353
-49.763
-49.188
-48.635
-48.108
-47.606
-47.131
-46.683
-46.263
-45.875
-45.52
-45.195
-44.897
-44.618
-44.356
-44.106
-43.865
-43.63
-43.4
-43.172
-42.945
-42.722
-42.501
-42.283
-42.066
-41.848
-41.628
-41.406
-41.18
-40.95
-40.713
-40.471
-40.222
-39.967
-39.707
-39.443
-39.173
-38.901
-38.625
-38.348
-38.072
-37.797
-37.526
-37.261
-37.003
-36.756
-36.52
-36.299
-36.093
-35.905
-35.736
-35.587
-35.46
-35.356
-35.275
-35.218
-35.186
-35.18
-35.201
-35.247
-35.321
-35.422
-35.55
-35.706
-35.889
-36.099
-36.337
-36.601
-36.892
-37.209
-37.551
-37.918
-38.31
-38.724
-39.16
-39.617
-40.093
-40.588
-41.099
-41.626
-42.167
-42.721
-43.287
-43.864
-44.449
-45.043
-45.643
-46.249
-46.859
-47.471
-48.084
-48.695
-49.304
-49.908
-50.504
-51.09
-51.665
-52.225
-52.768
-53.29
-53.789
-54.262
-54.705
-55.116
-55.491
-55.827
-56.123
-56.374
-56.579
-56.734
-56.838
-56.888
-56.882
-56.816
-56.691
-56.503
-56.251
-55.933
-55.55
-55.101
-54.586
-54.005
-53.361
-52.656
-51.893
-51.075
-50.206
-49.29
-48.333
-47.34
-46.318
-45.273
-44.209
-43.136
-42.059
-40.986
-39.926
-38.884
-37.869
-36.886
-35.944
-35.05
-34.21
-33.431
-32.716
-32.066
-31.486
-30.98
-30.553
-30.207
-29.939
-29.747
-29.628
-29.578
-29.592
-29.659
-29.758
-29.87
-29.98
-30.073
-30.143
-30.183
-30.18
-30.123
-29.995
-29.79
-29.506
-29.143
-28.697
-28.167
-27.563
-26.91
-26.259
-25.671
-25.195
-24.875
-24.738
-24.799
-25.091
-25.663
-26.559
-27.829
-29.502
-31.588
-34.137
-37.239
-40.893
-44.983
-49.244
-53.267
-56.694
-59.304
-60.846
-60.986
-59.547
-56.635
-52.711
-48.644
-45.261
-42.977
-42.111
-43.124
-46.19
-50.96
-56.531
-61.185
-63.074
-61.082
-54.148
-40.793
-19.99
8.797
45.012
86.098
129.148
171.865
212.827
251.664
287.767
319.418
341.86
347.501
328.537
278.631
198.256
95.429
-19.19
-134.75
-246.014
-353.296
-456.311
-552.215
-633.226
-690.006
-717.37
-715.779
-691.54
-651.929
-602.149
-545.12
-481.092
-411.296
-338.815
-267.364
-201.613
-145.196
-99.761
-65.747
-42.456
-28.465
-22.227
-21.814
-24.741
-28.516
-31.001
-30.941
-28.031
-22.488
-14.815
-5.76
3.672
12.318
19.046
23.296
25.108
24.782
22.813
19.723
16.014
12.293
9.187
7.07
6.07
6.169
7.228
9.122
11.769
15.039
18.777
22.85
27.137
31.54
35.993
40.414
44.702
48.766
52.516
55.878
58.821
61.338
63.437
65.146
66.495
67.524
68.282
68.828
69.217
69.503
69.735
69.957
70.217
70.562
71.041
71.694
72.55
73.625
74.93
76.468
78.244
80.255
82.495
84.954
87.621
90.489
93.551
96.799
100.224
103.812
107.55
111.422
115.415
119.515
123.706
127.972
132.298
136.665
141.059
145.461
149.853
154.216
158.53
162.772
166.923
170.962
174.868
178.621
182.2
185.587
188.762
191.71
194.413
196.855
199.021
200.899
202.475
203.738
204.679
205.288
205.56
205.489
205.07
204.302
203.185
201.718
199.906
197.75
195.259
192.437
189.293
185.838
182.082
178.038
173.718
169.138
164.314
159.262
154.0
148.547
142.922
137.145
131.237
125.219
119.112
112.936
106.715
100.47
94.222
87.992
81.801
75.67
69.618
63.664
57.826
52.12
46.564
41.17
35.954
30.928
26.102
21.488
17.093
12.925
8.989
5.292
1.835
-1.379
-4.351
-7.08
-9.568
-11.821
-13.841
-15.635
-17.209
-18.573
-19.733
-20.701
-21.487
-22.101
-22.556
-22.865
-23.038
-23.089
-23.031
-22.877
-22.637
-22.326
-21.954
-21.534
-21.075
-20.589
-20.086
-19.574
-19.063
-18.561
-18.075
-17.612
-17.177
-16.776
-16.413
-16.091
-15.814
-15.583
-15.4
-15.265
-15.179
-15.141
-15.149
-15.203
-15.298
-15.433
-15.605
-15.809
-16.042
-16.3
-16.579
-16.876
-17.185
-17.503
-17.826
-18.151
-18.474
-18.793
-19.103
-19.403
-19.689
-19.961
-20.215
-20.45
-20.666
-20.861
-21.034
-21.186
-21.316
-21.425
-21.513
-21.581
-21.63
-21.661
-21.676
-21.676
-21.663
-21.639
-21.606
-21.567
-21.523
-21.476
-21.43
-21.385
-21.345
-21.31
-21.284
-21.266
-21.259
-21.264
-21.282
-21.315
-21.363
-21.427
-21.509
-21.608
-21.727
-21.864
-22.02
-22.195
-22.389
-22.601
-22.831
-23.079
-23.343
-23.623
-23.918
-24.23
-24.556
-24.896
-25.25
-25.617
-25.997
-26.388
-26.79
-27.203
-27.625
-28.056
-28.495
-28.943
-29.398
-29.86
-30.327
-30.798
-31.273
-31.749
-32.225
-32.697
-33.164
-33.622
-34.072
-34.511
-34.937
-35.349
-35.747
-36.132
-36.503
-36.858
-37.194
-37.509
-37.798
-38.059
-38.286
-38.475
-38.62
-38.717
-38.765
-38.762
-38.709
-38.601
-38.435
-38.205
-37.909
-37.547
-37.122
-36.635
-36.092
-35.503
-34.881
-34.251
-33.629
-33.025
-32.442
-31.879
-31.335
-30.809
-30.3
-29.804
-29.316
-28.827
-28.335
-27.837
-27.323
-26.778
-26.174
-25.468
-24.634
-23.658
-22.535
-21.273
-19.884
-18.379
-16.781
-15.119
-13.42
-11.715
-10.026
-8.37
-6.771
-5.262
-3.884
-2.699
-1.748
-1.059
-0.652
-0.528
-0.682
-1.112
-1.796
-2.711
-3.832
-5.122
-6.556
-8.123
-9.806
-11.597
-13.479
-15.412
-17.366
-19.319
-21.262
-23.221
-25.218
-27.272
-29.413
-31.641
-33.998
-36.573
-39.373
-42.327
-45.27
-47.908
-50.009
-51.452
-52.038
-51.533
-49.818
-46.845
-42.94
-38.785
-34.884
-31.642
-29.412
-28.359
-28.682
-30.598
-33.559
-36.397
-38.142
-37.113
-31.986
-22.625
-7.893
12.094
36.348
65.703
98.928
135.294
175.093
215.675
256.538
296.038
328.842
349.376
347.51
313.968
247.383
152.417
40.469
-75.276
-189.504
-303.432
-418.245
-533.088
-638.438
-717.563
-760.055
-763.225
-733.627
-686.024
-630.171
-569.023
-501.289
-423.611
-338.332
-254.273
-181.576
-127.423
-92.593
-71.521
-57.693
-47.119
-38.808
-34.175
-33.473
-34.967
-36.246
-35.08
-30.766
-23.809
-14.97
-5.196
4.511
13.139
19.628
23.458
24.743
23.845
21.31
17.674
13.42
9.134
5.441
2.734
1.157
0.711
1.263
2.697
4.943
7.883
11.371
15.28
19.487
23.898
28.436
33.011
37.519
41.861
45.934
49.654
52.975
55.877
58.363
60.458
62.188
63.591
64.712
65.61
66.34
66.957
67.507
68.035
68.587
69.21
69.951
70.85
71.938
73.23
74.736
76.463
78.411
80.58
82.964
85.553
88.337
91.308
94.458
97.778
101.258
104.886
108.651
112.542
116.549
120.656
124.85
129.112
133.421
137.753
142.078
146.364
150.584
154.717
158.743
162.652
166.431
170.071
173.562
176.888
180.035
182.994
185.754
188.305
190.651
192.798
194.766
196.585
198.27
199.826
201.253
202.53
203.636
204.549
205.236
205.676
205.855
205.753
205.359
204.656
203.618
202.211
200.394
198.103
195.289
191.914
187.954
183.41
178.294
172.625
166.432
159.742
152.578
144.971
136.953
128.565
119.862
110.901
101.762
92.546
83.36
74.314
65.499
56.982
48.822
41.068
33.77
26.972
20.71
15.014
9.899
5.373
1.438
-1.915
-4.717
-7.018
-8.892
-10.424
-11.679
-12.71
-13.564
-14.286
-14.925
-15.526
-16.123
-16.74
-17.393
-18.097
-18.866
-19.712
-20.627
-21.593
-22.577
-23.536
-24.442
-25.276
-26.022
-26.669
-27.2
-27.601
-27.872
-28.021
-28.054
-27.978
-27.796
-27.512
-27.14
-26.698
-26.208
-25.696
-25.18
-24.672
-24.185
-23.729
-23.312
-22.94
-22.616
-22.334
-22.092
-21.891
-21.729
-21.606
-21.519
-21.464
-21.434
-21.426
-21.434
-21.455
-21.486
-21.522
-21.562
-21.604
-21.645
-21.688
-21.731
-21.772
-21.81
-21.844
-21.873
-21.896
-21.912
-21.92
-21.918
-21.907
-21.886
-21.855
-21.814
-21.762
-21.701
-21.63
-21.551
-21.464
-21.369
-21.269
-21.163
-21.055
-20.944
-20.833
-20.724
-20.618
-20.516
-20.422
-20.336
-20.26
-20.196
-20.144
-20.106
-20.082
-20.075
-20.083
-20.107
-20.148
-20.206
-20.281
-20.373
-20.482
-20.608
-20.751
-20.91
-21.086
-21.278
-21.486
-21.709
-21.946
-22.198
-22.463
-22.741
-23.031
-23.331
-23.641
-23.959
-24.285
-24.616
-24.95
-25.287
-25.625
-25.962
-26.296
-26.627
-26.953
-27.273
-27.585
-27.89
-28.187
-28.473
-28.749
-29.012
-29.263
-29.499
-29.719
-29.921
-30.104
-30.267
-30.406
-30.522
-30.611
-30.672
-30.703
-30.702
-30.668
-30.598
-30.491
-30.346
-30.16
-29.932
-29.662
-29.348
-28.99
-28.586
-28.136
-27.639
-27.094
-26.502
-25.861
-25.171
-24.434
-23.648
-22.815
-21.938
-21.018
-20.058
-19.061
-18.032
-16.975
-15.894
-14.795
-13.683
-12.563
-11.441
-10.322
-9.213
-8.118
-7.043
-5.997
-4.984
-4.01
-3.082
-2.204
-1.382
-0.624
0.066
0.687
1.238
1.716
2.118
2.438
2.675
2.831
2.912
2.921
2.863
2.743
2.573
2.375
2.171
1.98
1.816
1.685
1.595
1.562
1.602
1.731
1.955
2.266
2.658
3.129
3.676
4.28
4.906
5.489
5.959
6.264
6.356
6.198
5.761
4.995
3.844
2.265
0.218
-2.312
-5.321
-8.842
-12.936
-17.569
-22.602
-27.778
-32.698
-37.008
-40.457
-42.741
-43.504
-42.58
-40.026
-36.197
-31.906
-27.943
-24.83
-23.115
-23.296
-25.493
-29.464
-34.432
-38.783
-40.802
-39.086
-32.123
-18.587
2.29
30.781
66.301
107.041
150.703
194.765
235.97
270.826
296.011
308.199
304.628
283.61
243.879
185.657
111.711
25.432
-69.379
-170.232
-277.798
-391.171
-505.593
-611.513
-694.237
-741.895
-750.248
-723.014
-670.66
-603.253
-527.654
-447.852
-366.893
-290.43
-223.768
-170.742
-132.011
-103.305
-81.184
-63.611
-49.904
-41.98
-39.654
-40.866
-43.349
-44.062
-41.622
-36.315
-28.557
-19.141
-9.006
1.105
10.249
17.404
22.184
24.67
25.114
24.009
21.848
19.041
16.115
13.618
11.854
10.968
10.98
11.773
13.259
15.367
17.979
20.974
24.246
27.696
31.251
34.851
38.421
41.891
45.187
48.238
50.987
53.382
55.394
57.026
58.291
59.22
59.852
60.222
60.381
60.385
60.287
60.136
59.979
59.852
59.797
59.858
60.071
60.477
61.102
61.96
63.063
64.418
66.025
67.887
69.997
72.344
74.919
77.714
80.721
83.934
87.342
90.932
94.69
98.601
102.651
106.822
111.099
115.464
119.897
124.379
128.891
133.414
137.927
142.408
146.833
151.18
155.424
159.544
163.516
167.318
170.926
174.32
177.48
180.388
183.024
185.372
187.416
189.142
190.537
191.591
192.292
192.633
192.607
192.209
191.435
190.284
188.755
186.852
184.576
181.934
178.933
175.583
171.892
167.874
163.543
158.912
154.0
148.822
143.397
137.746
131.889
125.846
119.64
113.294
106.83
100.272
93.642
86.963
80.259
73.552
66.865
60.219
53.636
47.137
40.74
34.466
28.332
22.355
16.551
10.935
5.52
0.317
-4.664
-9.413
-13.923
-18.189
-22.206
-25.971
-29.482
-32.739
-35.744
-38.498
-41.005
-43.271
-45.3
-47.1
-48.679
-50.045
-51.208
-52.178
-52.965
-53.58
-54.035
-54.342
-54.511
-54.555
-54.487
-54.318
-54.059
-53.723
-53.321
-52.863
-52.36
-51.822
-51.257
-50.675
-50.083
-49.489
-48.898
-48.318
-47.754
-47.209
-46.689
-46.196
-45.734
-45.303
-44.906
-44.544
-44.217
-43.925
-43.668
-43.444
-43.253
-43.093
-42.962
-42.859
-42.782
-42.727
-42.692
-42.675
-42.673
-42.683
-42.703
-42.729
-42.759
-42.792
-42.823
-42.853
-42.877
-42.896
-42.906
-42.908
-42.899
-42.878
-42.845
-42.799
-42.739
-42.666
-42.58
-42.48
-42.366
-42.239
-42.099
-41.947
-41.784
-41.609
-41.424
-41.23
-41.027
-40.817
-40.601
-40.38
-40.155
-39.928
-39.7
-39.473
-39.247
-39.025
-38.808
-38.597
-38.394
-38.2
-38.017
-37.845
-37.687
-37.543
-37.415
-37.304
-37.211
-37.136
-37.082
-37.049
-37.038
-37.05
-37.085
-37.145
-37.231
-37.342
-37.479
-37.644
-37.835
-38.054
-38.3
-38.573
-38.872
-39.197
-39.548
-39.922
-40.32
-40.739
-41.179
-41.637
-42.111
-42.599
-43.099
-43.608
-44.123
-44.642
-45.16
-45.676
-46.185
-46.684
-47.169
-47.638
-48.085
-48.508
-48.902
-49.264
-49.589
-49.874
-50.115
-50.309
-50.451
-50.539
-50.569
-50.539
-50.446
-50.289
-50.064
-49.772
-49.411
-48.98
-48.479
-47.909
-47.271
-46.567
-45.799
-44.97
-44.084
-43.146
-42.16
-41.132
-40.069
-38.976
-37.86
-36.729
-35.589
-34.446
-33.308
-32.181
-31.072
-29.99
-28.94
-27.931
-26.969
-26.061
-25.215
-24.437
-23.732
-23.101
-22.544
-22.065
-21.665
-21.35
-21.121
-20.975
-20.911
-20.927
-21.018
-21.177
-21.388
-21.626
-21.87
-22.098
-22.296
-22.455
-22.561
-22.596
-22.545
-22.394
-22.132
-21.76
-21.271
-20.656
-19.924
-19.093
-18.205
-17.336
-16.545
-15.886
-15.412
-15.153
-15.159
-15.497
-16.217
-17.369
-18.994
-21.093
-23.707
-26.923
-30.705
-34.926
-39.364
-43.621
-47.38
-50.465
-52.581
-53.364
-52.71
-50.657
-47.538
-44.127
-40.942
-38.181
-36.239
-35.506
-35.978
-37.441
-39.074
-39.298
-37.021
-31.484
-21.533
-6.072
15.769
43.966
76.667
111.288
145.797
180.408
217.309
256.342
294.551
324.075
332.707
313.0
262.859
186.735
96.783
2.824
-89.786
-179.278
-269.47
-362.663
-455.535
-541.291
-609.344
-650.179
-661.363
-646.566
-612.985
-568.091
-515.538
-454.6
-386.014
-313.842
-243.668
-183.632
-137.615
-103.34
-78.082
-57.727
-40.234
-27.407
-19.837
-16.973
-17.393
-18.234
-17.514
-14.741
-10.037
-3.894
3.129
10.45
17.438
23.329
27.385
29.421
29.604
28.218
25.719
22.545
19.084
15.82
13.232
11.554
10.864
11.134
12.233
14.064
16.549
19.567
22.984
26.682
30.557
34.526
38.524
42.47
46.273
49.846
53.105
56.0
58.516
60.652
62.43
63.877
65.026
65.922
66.621
67.174
67.633
68.043
68.443
68.88
69.397
70.039
70.848
71.853
73.075
74.524
76.207
78.127
80.285
82.677
85.292
88.122
91.16
94.397
97.824
101.43
105.203
109.132
113.206
117.415
121.743
126.176
130.697
135.285
139.915
144.555
149.171
153.737
158.226
162.618
166.901
171.06
175.082
178.957
182.667
186.198
189.541
192.679
195.599
198.299
200.783
203.077
205.214
207.212
209.078
210.816
212.409
213.846
215.106
216.152
216.955
217.492
217.734
217.67
217.286
216.556
215.44
213.881
211.799
209.139
205.86
201.926
197.326
192.051
186.11
179.551
172.42
164.758
156.615
148.033
139.055
129.745
120.181
110.466
100.724
91.076
81.631
72.491
63.744
55.473
47.743
40.578
33.998
28.016
22.638
17.871
13.717
10.156
7.154
4.662
2.605
0.897
-0.538
-1.772
-2.872
-3.902
-4.915
-5.944
-7.007
-8.12
-9.29
-10.528
-11.84
-13.222
-14.66
-16.136
-17.616
-19.056
-20.42
-21.679
-22.807
-23.781
-24.584
-25.206
-25.646
-25.914
-26.017
-25.963
-25.761
-25.42
-24.956
-24.386
-23.733
-23.021
-22.271
-21.499
-20.721
-19.948
-19.191
-18.457
-17.75
-17.068
-16.412
-15.783
-15.183
-14.613
-14.074
-13.564
-13.082
-12.627
-12.197
-11.792
-11.413
-11.058
-10.728
-10.424
-10.146
-9.896
-9.675
-9.482
-9.316
-9.177
-9.061
-8.969
-8.898
-8.847
-8.814
-8.796
-8.793
-8.803
-8.825
-8.857
-8.897
-8.945
-8.998
-9.056
-9.117
-9.18
-9.244
-9.308
-9.371
-9.431
-9.488
-9.541
-9.589
-9.632
-9.67
-9.701
-9.728
-9.749
-9.767
-9.782
-9.794
-9.805
-9.817
-9.831
-9.848
-9.87
-9.899
-9.936
-9.983
-10.04
-10.11
-10.192
-10.288
-10.398
-10.522
-10.66
-10.812
-10.977
-11.155
-11.346
-11.547
-11.759
-11.98
-12.208
-12.441
-12.676
-12.911
-13.143
-13.369
-13.584
-13.785
-13.968
-14.128
-14.261
-14.364
-14.43
-14.457
-14.438
-14.371
-14.251
-14.074
-13.836
-13.535
-13.169
-12.736
-12.234
-11.665
-11.027
-10.323
-9.554
-8.724
-7.836
-6.892
-5.898
-4.856
-3.774
-2.655
-1.505
-0.33
0.862
2.064
3.268
4.464
5.646
6.805
7.932
9.019
10.059
11.042
11.963
12.816
13.597
14.297
14.908
15.426
15.85
16.183
16.429
16.594
16.684
16.71
16.692
16.647
16.59
16.537
16.498
16.481
16.503
16.579
16.726
16.955
17.27
17.666
18.144
18.698
19.312
19.959
20.592
21.163
21.628
21.943
22.065
21.952
21.559
20.855
19.809
18.386
16.561
14.311
11.612
8.493
4.986
1.1
-3.05
-7.293
-11.405
-15.021
-17.836
-19.709
-20.417
-19.672
-17.46
-13.857
-9.144
-4.091
0.833
5.553
9.655
12.644
14.471
15.125
15.68
18.575
25.173
35.736
48.985
62.442
75.155
88.234
105.915
132.674
170.404
218.638
271.091
318.668
352.909
364.233
346.855
300.441
228.374
139.741
44.627
-50.656
-144.496
-240.043
-338.528
-436.43
-524.696
-589.91
-624.502
-627.664
-604.179
-564.657
-516.57
-463.242
-406.145
-344.453
-278.95
-212.763
-149.922
-94.411
-48.725
-14.429
8.696
23.169
31.546
37.221
42.065
44.237
40.919
28.599
16.951
24.099
41.558
71.83
29.738
