-5.857
-17.255
-27.582
-36.792
-44.859
-51.805
-57.603
-62.115
-65.176
-66.614
-66.281
-64.15
-60.148
-54.037
-45.781
-35.554
-23.766
-11.251
1.268
13.48
24.896
34.885
43.448
50.993
58.615
68.376
81.732
99.18
121.353
148.673
180.1
213.423
244.775
268.748
281.041
278.638
258.436
217.609
155.18
72.527
-26.057
-134.083
-245.654
-355.651
-458.547
-547.851
-617.636
-664.411
-687.595
-688.892
-670.518
-634.357
-582.691
-520.236
-453.039
-386.065
-323.027
-265.909
-215.565
-173.502
-141.519
-119.104
-104.051
-93.951
-86.069
-78.968
-72.478
-65.69
-57.157
-46.55
-34.336
-21.598
-10.239
-1.187
5.661
10.176
12.177
11.753
9.067
4.768
0.088
-4.18
-7.696
-10.213
-11.721
-12.188
-11.478
-9.635
-6.869
-3.358
0.722
5.243
10.174
15.423
20.851
26.303
31.571
36.494
40.98
44.965
48.426
51.355
53.736
55.582
56.946
57.89
58.484
58.79
58.848
58.714
58.459
58.165
57.932
57.838
57.929
58.246
58.817
59.662
60.804
62.25
63.989
66.014
68.321
70.907
73.776
76.923
80.338
84.003
87.903
92.021
96.343
100.853
105.534
110.366
115.332
120.412
125.591
130.848
136.157
141.493
146.828
152.133
157.379
162.538
167.579
172.471
177.188
181.701
185.986
190.016
193.767
197.216
200.342
203.125
205.547
207.591
209.244
210.491
211.323
211.733
211.713
211.259
210.37
209.045
207.288
205.103
202.496
199.477
196.057
192.248
188.065
183.527
178.651
173.458
167.969
162.208
156.199
149.968
143.539
136.94
130.197
123.336
116.386
109.372
102.321
95.26
88.213
81.206
74.263
67.407
60.662
54.048
47.585
41.293
35.188
29.287
23.605
18.155
12.948
7.994
3.301
-1.123
-5.275
-9.152
-12.75
-16.072
-19.118
-21.891
-24.397
-26.641
-28.631
-30.374
-31.88
-33.16
-34.225
-35.085
-35.754
-36.244
-36.569
-36.741
-36.774
-36.682
-36.477
-36.175
-35.787
-35.326
-34.805
-34.236
-33.63
-32.999
-32.352
-31.699
-31.05
-30.412
-29.792
-29.199
-28.636
-28.11
-27.625
-27.184
-26.789
-26.442
-26.145
-25.898
-25.7
-25.551
-25.449
-25.393
-25.38
-25.408
-25.474
-25.574
-25.706
-25.866
-26.05
-26.254
-26.476
-26.711
-26.956
-27.209
-27.465
-27.721
-27.976
-28.226
-28.469
-28.702
-28.925
-29.135
-29.33
-29.51
-29.674
-29.821
-29.951
-30.064
-30.16
-30.24
-30.303
-30.352
-30.386
-30.408
-30.418
-30.418
-30.409
-30.394
-30.372
-30.347
-30.319
-30.289
-30.26
-30.232
-30.207
-30.184
-30.166
-30.152
-30.144
-30.141
-30.144
-30.154
-30.17
-30.192
-30.221
-30.257
-30.3
-30.349
-30.404
-30.465
-30.532
-30.604
-30.682
-30.764
-30.851
-30.942
-31.037
-31.136
-31.238
-31.344
-31.453
-31.564
-31.678
-31.794
-31.913
-32.036
-32.161
-32.29
-32.423
-32.562
-32.706
-32.856
-33.013
-33.176
-33.346
-33.524
-33.708
-33.899
-34.097
-34.301
-34.51
-34.725
-34.944
-35.167
-35.39
-35.613
-35.833
-36.048
-36.255
-36.451
-36.633
-36.797
-36.941
-37.062
-37.157
-37.221
-37.251
-37.243
-37.194
-37.099
-36.954
-36.754
-36.496
-36.175
-35.789
-35.336
-34.813
-34.218
-33.55
-32.808
-31.991
-31.1
-30.135
-29.095
-27.981
-26.798
-25.548
-24.237
-22.869
-21.451
-19.991
-18.499
-16.983
-15.45
-13.91
-12.369
-10.834
-9.313
-7.811
-6.335
-4.891
-3.488
-2.138
-0.85
0.367
1.505
2.557
3.515
4.37
5.117
5.757
6.29
6.713
7.017
7.185
7.213
7.103
6.863
6.505
6.042
5.486
4.87
4.242
3.651
3.148
2.755
2.474
2.318
2.308
2.472
2.845
3.414
4.138
4.992
5.955
7.001
8.096
9.131
9.949
10.404
10.362
9.742
8.508
6.594
3.936
0.489
-3.747
-8.653
-14.065
-19.867
-25.981
-32.345
-38.82
-45.106
-50.813
-55.547
-58.941
-60.716
-60.542
-57.995
-52.887
-45.293
-35.606
-24.663
-13.177
-1.563
9.62
19.916
29.434
38.703
48.943
61.875
78.549
99.406
124.922
154.915
187.884
220.956
249.767
269.741
277.35
269.701
243.927
197.822
131.289
47.092
-49.492
-152.721
-257.318
-357.986
-448.816
-523.335
-576.766
-607.563
-616.905
-606.957
-580.078
-539.153
-488.139
-432.633
-378.037
-327.608
-282.619
-243.384
-210.078
-182.671
-160.724
-142.634
-125.952
-109.224
-92.211
-75.26
-58.837
-43.304
-28.648
-15.041
-3.558
5.103
10.92
14.077
15.121
14.636
12.802
9.727
6.038
2.298
-1.125
-3.799
-5.62
-6.598
-6.581
-5.471
-3.31
-0.141
3.926
8.683
14.009
19.777
25.81
31.991
38.167
44.153
49.821
55.06
59.784
63.965
67.588
70.634
73.112
75.054
76.502
77.532
78.213
78.602
78.767
78.774
78.699
78.635
78.651
78.798
79.117
79.633
80.37
81.35
82.585
84.074
85.817
87.81
90.055
92.555
95.309
98.309
101.544
104.999
108.661
112.521
116.566
120.784
125.159
129.677
134.322
139.081
143.937
148.868
153.849
158.855
163.858
168.833
173.751
178.583
183.3
187.874
192.277
196.485
200.47
204.208
207.673
210.844
213.698
216.215
218.378
220.168
221.571
222.575
223.168
223.342
223.092
222.412
221.3
219.756
217.781
215.379
212.558
209.325
205.69
201.666
197.268
192.513
187.419
182.006
176.295
170.31
164.075
157.615
150.956
144.122
137.143
130.043
122.85
115.592
108.294
100.983
93.685
86.425
79.226
72.114
65.109
58.233
51.506
44.947
38.573
32.401
26.445
20.718
15.233
9.998
5.023
0.314
-4.124
-8.287
-12.175
-15.787
-19.123
-22.189
-24.987
-27.523
-29.804
-31.838
-33.634
-35.201
-36.55
-37.691
-38.636
-39.397
-39.986
-40.415
-40.697
-40.842
-40.865
-40.776
-40.588
-40.312
-39.959
-39.539
-39.065
-38.544
-37.987
-37.402
-36.798
-36.182
-35.561
-34.94
-34.326
-33.723
-33.136
-32.566
-32.018
-31.493
-30.993
-30.519
-30.071
-29.649
-29.254
-28.884
-28.54
-28.219
-27.921
-27.645
-27.389
-27.152
-26.933
-26.731
-26.545
-26.373
-26.214
-26.067
-25.932
-25.808
-25.692
-25.586
-25.488
-25.398
-25.315
-25.24
-25.172
-25.111
-25.059
-25.014
-24.978
-24.952
-24.936
-24.931
-24.939
-24.959
-24.994
-25.044
-25.111
-25.196
-25.298
-25.421
-25.563
-25.726
-25.91
-26.115
-26.342
-26.591
-26.861
-27.154
-27.468
-27.805
-28.164
-28.545
-28.949
-29.375
-29.823
-30.293
-30.784
-31.297
-31.832
-32.387
-32.963
-33.558
-34.174
-34.809
-35.462
-36.132
-36.819
-37.52
-38.234
-38.959
-39.695
-40.44
-41.19
-41.947
-42.707
-43.469
-44.232
-44.993
-45.751
-46.502
-47.244
-47.975
-48.691
-49.388
-50.063
-50.712
-51.333
-51.922
-52.476
-52.989
-53.46
-53.884
-54.258
-54.577
-54.837
-55.034
-55.166
-55.231
-55.227
-55.153
-55.007
-54.79
-54.5
-54.14
-53.709
-53.208
-52.638
-51.999
-51.293
-50.525
-49.698
-48.817
-47.885
-46.91
-45.899
-44.861
-43.804
-42.734
-41.658
-40.584
-39.519
-38.471
-37.445
-36.444
-35.474
-34.543
-33.657
-32.825
-32.052
-31.343
-30.705
-30.142
-29.658
-29.256
-28.935
-28.689
-28.518
-28.422
-28.407
-28.488
-28.666
-28.938
-29.304
-29.756
-30.277
-30.845
-31.409
-31.916
-32.335
-32.634
-32.798
-32.828
-32.708
-32.435
-32.019
-31.447
-30.71
-29.814
-28.745
-27.518
-26.202
-24.875
-23.678
-22.773
-22.27
-22.272
-22.865
-24.08
-25.939
-28.408
-31.39
-34.823
-38.684
-42.957
-47.623
-52.571
-57.578
-62.374
-66.618
-69.964
-72.019
-72.285
-70.5
-66.672
-61.077
-54.386
-47.212
-39.812
-32.592
-26.095
-20.238
-14.568
-7.903
1.808
15.711
33.996
56.901
84.443
115.775
149.173
180.96
205.958
220.581
222.287
208.663
177.754
127.966
59.506
-23.992
-116.776
-213.934
-310.686
-402.152
-483.158
-547.542
-591.222
-613.688
-616.412
-601.406
-571.318
-529.063
-478.726
-426.216
-375.945
-330.063
-289.604
-254.581
-224.655
-199.616
-178.299
-158.369
-138.383
-117.885
-96.922
-76.288
-56.677
-38.438
-22.228
-8.897
1.148
7.822
11.337
12.291
11.212
8.534
4.779
0.397
-4.22
-8.673
-12.667
-16.003
-18.5
-20.055
-20.608
-20.1
-18.532
-15.949
-12.433
-8.122
-3.165
2.296
8.105
14.119
20.184
26.111
31.749
36.992
41.761
46.025
49.771
52.979
55.659
57.853
59.615
61.014
62.113
62.962
63.622
64.162
64.66
65.203
65.86
66.675
67.686
68.919
70.391
72.122
74.118
76.368
78.864
81.601
84.576
87.79
91.238
94.908
98.784
102.85
107.093
111.499
116.055
120.743
125.548
130.453
135.443
140.504
145.618
150.761
155.912
161.043
166.129
171.145
176.062
180.853
185.49
189.945
194.194
198.212
201.974
205.457
208.638
211.495
214.01
216.163
217.939
219.322
220.298
220.857
220.99
220.691
219.954
218.776
217.156
215.097
212.602
209.677
206.329
202.571
198.412
193.87
188.96
183.701
178.113
172.219
166.043
159.609
152.944
146.075
139.031
131.839
124.528
117.128
109.668
102.177
94.684
87.216
79.802
72.468
65.24
58.143
51.201
44.435
37.866
31.514
25.396
19.528
13.924
8.597
3.557
-1.187
-5.63
-9.765
-13.59
-17.105
-20.31
-23.208
-25.804
-28.104
-30.115
-31.847
-33.311
-34.517
-35.48
-36.212
-36.729
-37.044
-37.175
-37.137
-36.946
-36.618
-36.169
-35.616
-34.973
-34.256
-33.479
-32.657
-31.802
-30.928
-30.046
-29.166
-28.299
-27.455
-26.64
-25.863
-25.129
-24.444
-23.812
-23.236
-22.72
-22.265
-21.872
-21.54
-21.27
-21.06
-20.907
-20.81
-20.766
-20.77
-20.82
-20.912
-21.04
-21.201
-21.391
-21.606
-21.841
-22.092
-22.356
-22.629
-22.908
-23.191
-23.473
-23.754
-24.031
-24.303
-24.568
-24.825
-25.074
-25.313
-25.544
-25.765
-25.978
-26.181
-26.377
-26.564
-26.745
-26.919
-27.088
-27.252
-27.413
-27.572
-27.729
-27.887
-28.046
-28.207
-28.372
-28.54
-28.713
-28.892
-29.076
-29.266
-29.462
-29.664
-29.871
-30.083
-30.298
-30.517
-30.738
-30.959
-31.18
-31.4
-31.617
-31.831
-32.039
-32.241
-32.436
-32.623
-32.802
-32.973
-33.135
-33.288
-33.433
-33.569
-33.697
-33.816
-33.928
-34.031
-34.128
-34.218
-34.302
-34.38
-34.454
-34.525
-34.595
-34.664
-34.734
-34.807
-34.882
-34.963
-35.049
-35.143
-35.246
-35.359
-35.482
-35.618
-35.767
-35.929
-36.104
-36.291
-36.489
-36.697
-36.912
-37.131
-37.353
-37.572
-37.788
-37.995
-38.193
-38.376
-38.541
-38.685
-38.803
-38.891
-38.945
-38.959
-38.929
-38.849
-38.717
-38.527
-38.277
-37.964
-37.584
-37.134
-36.613
-36.017
-35.346
-34.597
-33.768
-32.861
-31.877
-30.819
-29.689
-28.495
-27.24
-25.935
-24.588
-23.208
-21.802
-20.378
-18.944
-17.507
-16.076
-14.655
-13.251
-11.872
-10.531
-9.238
-8.005
-6.843
-5.76
-4.765
-3.87
-3.082
-2.405
-1.837
-1.381
-1.042
-0.831
-0.765
-0.85
-1.084
-1.458
-1.965
-2.594
-3.327
-4.128
-4.943
-5.72
-6.421
-7.036
-7.565
-7.997
-8.316
-8.492
-8.5
-8.36
-8.095
-7.715
-7.227
-6.642
-6.005
-5.432
-5.079
-5.086
-5.553
-6.529
-8.041
-10.141
-12.869
-16.256
-20.272
-24.779
-29.652
-34.815
-40.216
-45.819
-51.477
-56.874
-61.626
-65.38
-67.817
-68.726
-67.824
-64.681
-59.118
-51.223
-41.386
-30.459
-19.144
-7.72
3.377
13.551
22.767
31.342
40.224
51.32
65.99
84.617
107.647
135.345
166.561
199.056
229.268
252.168
263.535
260.504
240.051
199.421
138.202
58.147
-36.718
-140.023
-245.744
-348.791
-443.075
-522.031
-581.04
-617.384
-630.872
-624.19
-600.09
-561.022
-511.01
-454.997
-397.574
-343.146
-294.178
-250.804
-213.316
-182.097
-156.683
-136.49
-120.124
-105.126
-90.352
-75.974
-61.978
-48.538
-35.687
-22.798
-10.187
0.779
9.472
15.762
19.699
21.845
22.434
21.195
18.414
14.886
11.244
8.094
5.786
4.272
3.608
3.978
5.412
7.852
11.182
15.197
19.74
24.738
30.102
35.73
41.503
47.254
52.806
58.019
62.798
67.086
70.858
74.101
76.809
78.998
80.718
82.037
83.025
83.742
84.233
84.55
84.757
84.935
85.171
85.533
86.066
86.803
87.771
88.99
90.48
92.245
94.276
96.564
99.102
101.888
104.922
108.2
111.707
115.429
119.348
123.449
127.718
132.138
136.692
141.361
146.125
150.968
155.873
160.819
165.781
170.736
175.656
180.516
185.288
189.945
194.46
198.806
202.958
206.89
210.582
214.01
217.154
219.993
222.511
224.69
226.517
227.978
229.062
229.761
230.065
229.972
229.478
228.581
227.281
225.583
223.49
221.01
218.152
214.925
211.343
207.418
203.169
198.611
193.764
188.647
183.283
177.692
171.898
165.924
159.795
153.534
147.165
140.713
134.201
127.653
121.092
114.541
108.021
101.554
95.161
88.861
82.674
76.617
70.706
64.956
59.382
53.997
48.812
43.836
39.078
34.544
30.241
26.173
22.34
18.746
15.388
12.266
9.376
6.715
4.277
2.056
0.045
-1.765
-3.382
-4.814
-6.073
-7.167
-8.108
-8.906
-9.573
-10.119
-10.556
-10.894
-11.145
-11.321
-11.43
-11.485
-11.494
-11.468
-11.416
-11.345
-11.264
-11.181
-11.1
-11.029
-10.973
-10.935
-10.919
-10.929
-10.967
-11.035
-11.132
-11.261
-11.422
-11.612
-11.833
-12.083
-12.36
-12.662
-12.989
-13.337
-13.704
-14.088
-14.487
-14.898
-15.317
-15.743
-16.173
-16.603
-17.031
-17.454
-17.871
-18.279
-18.675
-19.059
-19.429
-19.782
-20.12
-20.439
-20.741
-21.025
-21.291
-21.539
-21.769
-21.984
-22.182
-22.366
-22.536
-22.693
-22.838
-22.973
-23.098
-23.215
-23.323
-23.425
-23.521
-23.613
-23.701
-23.787
-23.87
-23.953
-24.036
-24.12
-24.206
-24.293
-24.383
-24.477
-24.573
-24.673
-24.777
-24.886
-24.998
-25.114
-25.234
-25.358
-25.485
-25.615
-25.747
-25.882
-26.019
-26.159
-26.301
-26.446
-26.595
-26.748
-26.905
-27.067
-27.235
-27.41
-27.591
-27.781
-27.979
-28.188
-28.407
-28.639
-28.884
-29.144
-29.42
-29.713
-30.023
-30.352
-30.7
-31.068
-31.455
-31.863
-32.29
-32.738
-33.206
-33.694
-34.202
-34.727
-35.267
-35.821
-36.385
-36.957
-37.533
-38.108
-38.678
-39.24
-39.79
-40.323
-40.835
-41.321
-41.775
-42.192
-42.567
-42.894
-43.166
-43.378
-43.523
-43.598
-43.596
-43.516
-43.353
-43.102
-42.762
-42.33
-41.804
-41.182
-40.464
-39.647
-38.734
-37.727
-36.63
-35.448
-34.186
-32.853
-31.457
-30.008
-28.516
-26.988
-25.434
-23.863
-22.281
-20.7
-19.125
-17.565
-16.027
-14.525
-13.071
-11.678
-10.357
-9.117
-7.967
-6.918
-5.98
-5.159
-4.454
-3.867
-3.403
-3.075
-2.899
-2.882
-3.025
-3.318
-3.753
-4.321
-5.005
-5.767
-6.557
-7.316
-8.005
-8.611
-9.132
-9.557
-9.867
-10.031
-10.028
-9.874
-9.586
-9.173
-8.637
-7.986
-7.272
-6.613
-6.172
-6.1
-6.51
-7.459
-8.988
-11.161
-14.026
-17.604
-21.846
-26.625
-31.829
-37.418
-43.382
-49.655
-56.042
-62.207
-67.739
-72.253
-75.457
-77.009
-76.455
-73.52
-68.18
-60.717
-51.85
-42.292
-32.383
-22.567
-13.442
-4.976
3.279
12.369
24.258
40.354
61.088
86.994
118.455
154.351
192.405
228.722
257.779
275.245
278.113
263.123
227.256
169.3
90.297
-5.608
-111.836
-222.648
-333.067
-437.31
-528.71
-600.931
-649.869
-674.984
-678.227
-661.582
-626.824
-576.577
-515.651
-450.672
-387.377
-328.879
-276.482
-231.033
-193.765
-166.0
-147.082
-133.934
-123.203
-112.971
-102.612
-92.139
-81.154
-68.529
-54.005
-38.863
-24.98
-13.66
-5.284
0.438
3.801
4.642
2.958
-0.68
-5.267
-9.833
-13.795
-16.936
-19.222
-20.544
-20.745
-19.769
-17.701
-14.703
-10.932
-6.515
-1.523
3.961
9.797
15.828
21.875
27.733
33.254
38.336
42.909
46.943
50.426
53.339
55.692
57.531
58.913
59.906
60.568
60.942
61.088
61.079
61.003
60.958
61.016
61.225
61.621
62.233
63.082
64.189
65.562
67.191
69.07
71.198
73.572
76.198
79.072
82.184
85.518
89.058
92.792
96.707
100.789
105.024
109.395
113.885
118.481
123.169
127.93
132.745
137.588
142.435
147.26
152.039
156.745
161.35
165.828
170.152
174.297
178.241
181.959
185.429
188.629
191.538
194.138
196.41
198.34
199.913
201.115
201.937
202.369
202.407
202.045
201.28
200.111
198.539
196.569
194.205
191.453
188.323
184.824
180.97
176.775
172.254
167.426
162.307
156.92
151.285
145.423
139.36
133.117
126.718
120.189
113.554
106.838
100.066
93.261
86.449
79.652
72.895
66.199
59.586
53.075
46.688
40.441
34.352
28.436
22.709
17.183
11.872
6.784
1.931
-2.682
-7.046
-11.158
-15.013
-18.61
-21.949
-25.028
-27.852
-30.423
-32.746
-34.827
-36.672
-38.29
-39.689
-40.879
-41.87
-42.673
-43.299
-43.761
-44.069
-44.236
-44.274
-44.194
-44.009
-43.73
-43.367
-42.933
-42.438
-41.891
-41.303
-40.683
-40.04
-39.382
-38.717
-38.052
-37.393
-36.747
-36.118
-35.511
-34.93
-34.378
-33.858
-33.372
-32.92
-32.504
-32.122
-31.775
-31.462
-31.18
-30.929
-30.705
-30.506
-30.331
-30.175
-30.036
-29.913
-29.8
-29.697
-29.601
-29.508
-29.418
-29.327
-29.233
-29.136
-29.032
-28.922
-28.804
-28.676
-28.539
-28.392
-28.235
-28.068
-27.891
-27.707
-27.515
-27.317
-27.115
-26.911
-26.708
-26.508
-26.314
-26.129
-25.957
-25.8
-25.661
-25.545
-25.454
-25.392
-25.361
-25.364
-25.405
-25.486
-25.608
-25.774
-25.986
-26.245
-26.552
-26.907
-27.312
-27.765
-28.268
-28.819
-29.417
-30.062
-30.752
-31.485
-32.258
-33.07
-33.916
-34.795
-35.702
-36.633
-37.585
-38.553
-39.533
-40.521
-41.512
-42.501
-43.484
-44.456
-45.413
-46.349
-47.261
-48.144
-48.994
-49.808
-50.582
-51.313
-51.999
-52.637
-53.226
-53.763
-54.247
-54.675
-55.048
-55.364
-55.622
-55.822
-55.964
-56.049
-56.076
-56.047
-55.964
-55.825
-55.632
-55.387
-55.089
-54.739
-54.338
-53.886
-53.384
-52.832
-52.232
-51.586
-50.893
-50.155
-49.371
-48.543
-47.669
-46.75
-45.785
-44.772
-43.71
-42.6
-41.44
-40.232
-38.976
-37.671
-36.318
-34.917
-33.469
-31.975
-30.435
-28.85
-27.22
-25.55
-23.843
-22.102
-20.333
-18.543
-16.738
-14.928
-13.119
-11.317
-9.53
-7.763
-6.022
-4.313
-2.638
-1.003
0.587
2.122
3.592
4.989
6.303
7.529
8.659
9.684
10.599
11.401
12.094
12.678
13.15
13.5
13.713
13.783
13.716
13.518
13.2
12.771
12.248
11.668
11.083
10.544
10.091
9.733
9.47
9.311
9.272
9.382
9.661
10.092
10.647
11.313
12.081
12.938
13.839
14.671
15.271
15.499
15.247
14.461
13.111
11.137
8.489
5.133
1.087
-3.516
-8.546
-13.93
-19.616
-25.56
-31.627
-37.502
-42.796
-47.156
-50.255
-51.867
-51.709
-49.325
-44.506
-37.321
-28.134
-17.775
-6.96
4.035
14.759
24.565
33.428
41.662
50.223
61.096
75.636
94.201
117.294
145.187
176.764
209.863
240.731
264.127
275.949
273.343
253.368
213.387
152.464
71.902
-24.125
-129.406
-238.341
-346.031
-447.211
-535.583
-605.217
-652.523
-676.747
-679.323
-662.227
-627.116
-576.005
-513.46
-445.542
-377.334
-312.772
-254.04
-202.132
-158.719
-125.784
-102.937
-87.985
-78.435
-71.365
-65.195
-59.673
-53.798
-46.03
-35.957
-24.005
-11.281
0.218
9.468
16.528
21.243
23.407
23.088
20.424
16.068
11.291
6.931
3.351
0.806
-0.696
-1.128
-0.348
1.604
4.51
8.189
12.462
17.196
22.365
27.882
33.61
39.39
45.01
50.299
55.159
59.527
63.374
66.692
69.459
71.687
73.424
74.734
75.688
76.344
76.74
76.928
76.978
76.972
77.009
77.166
77.488
78.014
78.769
79.774
81.048
82.597
84.41
86.476
88.791
91.35
94.157
97.208
100.49
103.988
107.683
111.561
115.609
119.811
124.151
128.612
133.176
137.829
142.555
147.337
152.153
156.978
161.788
166.558
171.262
175.874
180.366
184.714
188.891
192.874
196.64
200.167
203.434
206.418
209.103
211.469
213.503
215.187
216.511
217.462
218.031
218.212
218.0
217.391
216.384
214.979
213.178
210.988
208.414
205.465
202.151
198.483
194.475
190.144
185.505
180.577
175.379
169.931
164.256
158.375
152.312
146.09
139.732
133.263
126.706
120.087
113.428
106.754
100.088
93.453
86.871
80.365
73.954
67.659
61.498
55.488
49.647
43.988
38.526
33.272
28.237
23.43
18.86
14.532
10.451
6.622
3.045
-0.278
-3.348
-6.166
-8.736
-11.062
-13.15
-15.005
-16.635
-18.049
-19.255
-20.264
-21.086
-21.732
-22.215
-22.546
-22.737
-22.801
-22.752
-22.601
-22.36
-22.043
-21.661
-21.225
-20.746
-20.236
-19.703
-19.158
-18.609
-18.063
-17.529
-17.013
-16.522
-16.062
-15.636
-15.25
-14.908
-14.612
-14.366
-14.17
-14.027
-13.936
-13.898
-13.912
-13.977
-14.091
-14.253
-14.459
-14.707
-14.993
-15.314
-15.666
-16.045
-16.446
-16.867
-17.303
-17.75
-18.205
-18.664
-19.125
-19.584
-20.038
-20.485
-20.923
-21.348
-21.76
-22.155
-22.533
-22.892
-23.23
-23.547
-23.841
-24.112
-24.36
-24.584
-24.786
-24.964
-25.121
-25.257
-25.374
-25.473
-25.556
-25.625
-25.683
-25.731
-25.772
-25.809
-25.843
-25.876
-25.911
-25.949
-25.992
-26.042
-26.099
-26.165
-26.241
-26.328
-26.428
-26.54
-26.665
-26.805
-26.959
-27.129
-27.314
-27.514
-27.731
-27.963
-28.21
-28.474
-28.752
-29.044
-29.35
-29.668
-29.998
-30.337
-30.684
-31.038
-31.397
-31.76
-32.125
-32.492
-32.858
-33.224
-33.588
-33.951
-34.311
-34.668
-35.022
-35.373
-35.721
-36.065
-36.406
-36.744
-37.08
-37.413
-37.744
-38.073
-38.401
-38.727
-39.051
-39.373
-39.692
-40.01
-40.325
-40.638
-40.948
-41.257
-41.564
-41.869
-42.171
-42.471
-42.766
-43.056
-43.339
-43.612
-43.873
-44.119
-44.347
-44.556
-44.742
-44.902
-45.033
-45.131
-45.192
-45.213
-45.19
-45.118
-44.993
-44.81
-44.566
-44.258
-43.885
-43.443
-42.932
-42.348
-41.691
-40.96
-40.153
-39.27
-38.309
-37.272
-36.158
-34.971
-33.715
-32.392
-31.01
-29.574
-28.093
-26.573
-25.021
-23.445
-21.849
-20.241
-18.627
-17.011
-15.4
-13.8
-12.219
-10.668
-9.157
-7.696
-6.293
-4.955
-3.689
-2.505
-1.407
-0.395
0.529
1.362
2.098
2.715
3.207
3.575
3.82
3.952
3.982
3.921
3.796
3.655
3.541
3.501
3.563
3.721
3.985
4.367
4.885
5.574
6.434
7.423
8.523
9.717
10.979
12.286
13.543
14.584
15.26
15.428
14.981
13.886
12.083
9.503
6.113
1.894
-3.076
-8.639
-14.692
-21.187
-28.068
-35.243
-42.451
-49.27
-55.293
-60.129
-63.47
-65.001
-64.254
-60.973
-55.208
-47.297
-38.027
-28.154
-17.981
-7.933
1.361
9.977
18.39
27.64
39.758
56.102
76.936
102.699
133.629
168.432
204.715
238.461
264.103
277.379
275.414
255.202
214.065
151.151
67.907
-31.223
-139.615
-251.345
-361.282
-463.929
-552.862
-622.191
-668.464
-691.141
-691.941
-673.119
-636.604
-584.689
-522.106
-454.863
-387.857
-324.795
-267.667
-217.31
-175.219
-143.161
-120.583
-105.305
-94.966
-86.853
-79.557
-72.916
-66.015
-57.429
-46.841
-34.705
-22.089
-10.867
-1.937
4.81
9.253
11.22
10.801
8.16
3.949
-0.608
-4.718
-8.037
-10.324
-11.567
-11.737
-10.703
-8.515
-5.389
-1.508
2.945
7.837
13.132
18.739
24.521
30.32
35.93
41.187
45.999
50.303
54.077
57.311
59.992
62.135
63.792
65.03
65.923
66.533
66.901
67.082
67.146
67.177
67.272
67.506
67.926
68.568
69.461
70.623
72.075
73.824
75.857
78.165
80.744
83.588
86.699
90.073
93.695
97.55
101.619
105.886
110.336
114.953
119.718
124.612
129.616
134.711
139.881
145.103
150.354
155.605
160.831
166.001
171.089
176.066
180.9
185.563
190.028
194.269
198.26
201.977
205.397
208.497
211.259
213.664
215.695
217.339
218.581
219.412
219.824
219.81
219.367
218.493
217.189
215.456
213.299
210.727
207.747
204.37
200.61
196.481
191.999
187.184
182.056
176.635
170.945
165.009
158.852
152.5
145.978
139.314
132.534
125.663
118.73
111.759
104.776
97.807
90.876
84.005
77.218
70.537
63.98
57.568
51.318
45.245
39.366
33.693
28.238
23.012
18.023
13.279
8.785
4.547
0.567
-3.154
-6.615
-9.819
-12.767
-15.463
-17.914
-20.124
-22.102
-23.856
-25.395
-26.728
-27.868
-28.823
-29.606
-30.228
-30.702
-31.038
-31.249
-31.346
-31.34
-31.244
-31.067
-30.819
-30.512
-30.155
-29.756
-29.324
-28.868
-28.394
-27.91
-27.423
-26.939
-26.462
-25.999
-25.553
-25.129
-24.731
-24.36
-24.02
-23.712
-23.438
-23.199
-22.994
-22.824
-22.689
-22.587
-22.519
-22.483
-22.477
-22.5
-22.55
-22.627
-22.728
-22.852
-22.997
-23.162
-23.345
-23.545
-23.76
-23.989
-24.23
-24.483
-24.745
-25.016
-25.293
-25.575
-25.861
-26.148
-26.436
-26.723
-27.007
-27.287
-27.562
-27.831
-28.093
-28.346
-28.591
-28.827
-29.054
-29.27
-29.476
-29.672
-29.858
-30.034
-30.2
-30.357
-30.503
-30.641
-30.769
-30.889
-31.001
-31.104
-31.201
-31.29
-31.372
-31.45
-31.522
-31.59
-31.655
-31.719
-31.781
-31.844
-31.908
-31.974
-32.044
-32.119
-32.199
-32.285
-32.378
-32.478
-32.585
-32.7
-32.822
-32.952
-33.089
-33.233
-33.383
-33.538
-33.698
-33.862
-34.029
-34.198
-34.367
-34.537
-34.706
-34.873
-35.037
-35.198
-35.354
-35.506
-35.651
-35.791
-35.923
-36.047
-36.162
-36.268
-36.365
-36.452
-36.53
-36.598
-36.657
-36.708
-36.752
-36.789
-36.82
-36.846
-36.867
-36.886
-36.902
-36.918
-36.933
-36.951
-36.972
-36.998
-37.029
-37.067
-37.111
-37.161
-37.217
-37.278
-37.342
-37.409
-37.475
-37.54
-37.602
-37.659
-37.709
-37.749
-37.775
-37.784
-37.772
-37.736
-37.669
-37.567
-37.425
-37.238
-37.003
-36.715
-36.372
-35.969
-35.503
-34.97
-34.367
-33.692
-32.941
-32.112
-31.202
-30.213
-29.145
-28.0
-26.782
-25.495
-24.145
-22.739
-21.283
-19.782
-18.242
-16.67
-15.071
-13.45
-11.813
-10.164
-8.513
-6.869
-5.244
-3.651
-2.098
-0.598
0.842
2.212
3.502
4.708
5.831
6.868
7.814
8.657
9.38
9.971
10.432
10.765
10.978
11.078
11.08
11.015
10.931
10.877
10.886
10.972
11.128
11.357
11.668
12.078
12.615
13.271
14.021
14.858
15.778
16.768
17.796
18.766
19.515
19.897
19.798
19.145
17.91
16.05
13.522
10.304
6.402
1.912
-3.052
-8.418
-14.156
-20.237
-26.56
-32.872
-38.781
-43.903
-47.887
-50.459
-51.32
-50.043
-46.412
-40.481
-32.583
-23.468
-13.809
-3.897
5.835
14.776
22.929
30.68
38.975
49.7
64.169
82.71
105.827
133.9
165.884
199.684
231.616
256.349
269.687
268.721
250.372
211.91
152.327
72.622
-23.225
-128.756
-238.254
-346.512
-447.857
-536.437
-606.729
-655.034
-680.68
-685.24
-670.518
-638.833
-592.926
-536.185
-473.632
-409.77
-347.64
-289.62
-237.289
-191.454
-153.298
-123.765
-101.775
-85.941
-74.841
-66.377
-59.489
-53.838
-48.326
-41.737
-33.921
-24.98
-15.631
-7.46
-1.078
3.574
6.265
6.873
5.494
2.264
-2.141
-6.558
-10.312
-13.092
-14.704
-15.179
-14.484
-12.533
-9.438
-5.453
-0.806
4.311
9.78
15.552
21.528
27.548
33.416
38.946
44.022
48.58
52.593
56.052
58.943
61.277
63.103
64.487
65.501
66.212
66.668
66.917
67.027
67.077
67.16
67.356
67.72
68.291
69.095
70.155
71.488
73.103
74.99
77.14
79.547
82.208
85.125
88.296
91.709
95.35
99.203
103.254
107.49
111.895
116.454
121.15
125.967
130.888
135.898
140.98
146.11
151.264
156.417
161.54
166.609
171.594
176.467
181.2
185.766
190.139
194.293
198.206
201.851
205.209
208.256
210.975
213.347
215.355
216.986
218.227
219.066
219.495
219.509
219.101
218.27
217.013
215.333
213.233
210.72
207.799
204.481
200.778
196.703
192.271
187.501
182.411
177.021
171.354
165.432
159.28
152.923
146.385
139.693
132.873
125.95
118.952
111.904
104.831
97.758
90.711
83.714
76.789
69.959
63.244
56.666
50.243
43.993
37.932
32.076
26.439
21.032
15.867
10.952
6.296
1.903
-2.221
-6.075
-9.657
-12.967
-16.008
-18.782
-21.296
-23.554
-25.565
-27.335
-28.875
-30.193
-31.302
-32.211
-32.933
-33.479
-33.862
-34.094
-34.187
-34.154
-34.008
-33.76
-33.423
-33.008
-32.527
-31.992
-31.412
-30.799
-30.161
-29.507
-28.847
-28.187
-27.535
-26.898
-26.279
-25.686
-25.12
-24.588
-24.089
-23.628
-23.205
-22.822
-22.478
-22.173
-21.907
-21.679
-21.488
-21.331
-21.207
-21.114
-21.05
-21.013
-20.999
-21.008
-21.035
-21.08
-21.138
-21.208
-21.287
-21.374
-21.466
-21.56
-21.656
-21.751
-21.843
-21.932
-22.015
-22.092
-22.162
-22.224
-22.276
-22.319
-22.353
-22.376
-22.389
-22.393
-22.387
-22.372
-22.348
-22.316
-22.277
-22.23
-22.178
-22.121
-22.059
-21.994
-21.926
-21.856
-21.785
-21.714
-21.643
-21.573
-21.505
-21.439
-21.375
-21.314
-21.256
-21.203
-21.154
-21.11
-21.071
-21.039
-21.014
-20.995
-20.985
-20.983
-20.991
-21.007
-21.034
-21.07
-21.117
-21.174
-21.242
-21.32
-21.409
-21.508
-21.617
-21.736
-21.864
-22.001
-22.146
-22.3
-22.461
-22.629
-22.805
-22.988
-23.178
-23.376
-23.58
-23.792
-24.011
-24.236
-24.467
-24.704
-24.946
-25.193
-25.445
-25.701
-25.96
-26.222
-26.487
-26.755
-27.025
-27.296
-27.568
-27.842
-28.116
-28.392
-28.668
-28.946
-29.225
-29.506
-29.788
-30.073
-30.36
-30.647
-30.934
-31.219
-31.501
-31.777
-32.047
-32.307
-32.555
-32.79
-33.009
-33.21
-33.39
-33.547
-33.677
-33.778
-33.847
-33.879
-33.872
-33.821
-33.724
-33.578
-33.381
-33.129
-32.819
-32.447
-32.013
-31.512
-30.941
-30.298
-29.582
-28.789
-27.92
-26.975
-25.956
-24.867
-23.712
-22.496
-21.223
-19.9
-18.531
-17.122
-15.676
-14.198
-12.692
-11.161
-9.612
-8.051
-6.487
-4.931
-3.391
-1.877
-0.397
1.039
2.424
3.748
5.011
6.206
7.328
8.365
9.294
10.104
10.793
11.362
11.815
12.167
12.43
12.626
12.799
12.986
13.225
13.546
13.951
14.441
15.028
15.732
16.584
17.597
18.736
19.956
21.226
22.5
23.729
24.837
25.667
26.074
25.936
25.143
23.649
21.424
18.402
14.534
9.787
4.181
-2.143
-9.011
-16.309
-23.916
-31.718
-39.524
-46.948
-53.601
-59.14
-63.223
-65.624
-66.055
-64.058
-59.413
-52.191
-42.733
-31.848
-20.307
-8.444
3.203
13.903
23.559
32.419
41.421
52.531
67.131
85.645
108.649
136.508
168.133
201.338
232.342
255.844
267.672
264.879
244.342
203.239
140.613
57.855
-40.728
-148.672
-260.2
-370.254
-473.055
-561.901
-630.68
-675.705
-696.65
-695.58
-674.688
-635.906
-582.069
-518.262
-451.055
-386.02
-326.203
-272.752
-226.406
-188.378
-159.843
-140.013
-125.891
-114.204
-103.119
-92.143
-81.321
-70.244
-57.813
-43.74
-29.225
-16.067
-5.475
2.224
7.343
10.204
10.637
8.617
4.703
-0.129
-4.925
-9.083
-12.385
-14.804
-16.226
-16.507
-15.602
-13.595
-10.666
-6.985
-2.685
2.155
7.455
13.088
18.905
24.727
30.356
35.638
40.472
44.794
48.575
51.803
54.465
56.574
58.182
59.357
60.172
60.687
60.949
61.016
60.963
60.88
60.863
60.985
61.293
61.824
62.604
63.656
64.998
66.636
68.558
70.756
73.223
75.957
78.96
82.226
85.74
89.487
93.448
97.609
101.954
106.468
111.133
115.93
120.842
125.85
130.94
136.091
141.277
146.475
151.656
156.794
161.86
166.828
171.666
176.348
180.846
185.136
189.192
192.992
196.511
199.73
202.627
205.186
207.389
209.221
210.669
211.722
212.371
212.609
212.432
211.835
210.818
209.381
207.529
205.266
202.599
199.537
196.091
192.274
188.101
183.589
178.755
173.619
168.202
162.525
156.613
150.489
144.178
137.704
131.093
124.37
117.56
110.688
103.78
96.86
89.953
83.081
76.267
69.534
62.902
56.391
50.019
43.805
37.764
31.912
26.261
20.824
15.612
10.634
5.897
1.407
-2.829
-6.811
-10.535
-14.002
-17.213
-20.17
-22.876
-25.338
-27.56
-29.55
-31.315
-32.865
-34.209
-35.356
-36.317
-37.104
-37.728
-38.199
-38.53
-38.733
-38.818
-38.797
-38.681
-38.481
-38.207
-37.87
-37.479
-37.044
-36.572
-36.073
-35.553
-35.019
-34.479
-33.936
-33.397
-32.866
-32.346
-31.842
-31.355
-30.889
-30.443
-30.021
-29.621
-29.245
-28.892
-28.561
-28.252
-27.964
-27.695
-27.443
-27.208
-26.987
-26.78
-26.584
-26.397
-26.219
-26.048
-25.883
-25.722
-25.565
-25.411
-25.259
-25.109
-24.96
-24.813
-24.667
-24.523
-24.38
-24.239
-24.101
-23.966
-23.834
-23.707
-23.586
-23.471
-23.364
-23.265
-23.176
-23.098
-23.032
-22.979
-22.94
-22.916
-22.908
-22.916
-22.942
-22.985
-23.045
-23.124
-23.221
-23.336
-23.468
-23.618
-23.784
-23.965
-24.162
-24.372
-24.595
-24.83
-25.075
-25.331
-25.594
-25.866
-26.143
-26.425
-26.711
-26.999
-27.288
-27.577
-27.863
-28.146
-28.426
-28.699
-28.966
-29.227
-29.479
-29.723
-29.958
-30.184
-30.4
-30.606
-30.801
-30.986
-31.162
-31.328
-31.486
-31.635
-31.778
-31.914
-32.045
-32.17
-32.291
-32.408
-32.52
-32.629
-32.735
-32.838
-32.937
-33.035
-33.131
-33.225
-33.317
-33.407
-33.494
-33.576
-33.652
-33.722
-33.781
-33.83
-33.866
-33.887
-33.892
-33.878
-33.843
-33.784
-33.698
-33.583
-33.434
-33.247
-33.019
-32.745
-32.422
-32.049
-31.622
-31.142
-30.604
-30.009
-29.354
-28.639
-27.863
-27.025
-26.125
-25.162
-24.139
-23.057
-21.92
-20.733
-19.501
-18.23
-16.927
-15.6
-14.253
-12.892
-11.524
-10.152
-8.783
-7.419
-6.067
-4.731
-3.422
-2.149
-0.923
0.249
1.357
2.394
3.353
4.227
5.014
5.715
6.33
6.857
7.287
7.602
7.797
7.872
7.834
7.69
7.449
7.127
6.754
6.379
6.052
5.812
5.672
5.625
5.679
5.84
6.127
6.568
7.148
7.84
8.631
9.512
10.472
11.477
12.43
13.168
13.54
13.425
12.754
11.499
9.606
7.037
3.767
-0.199
-4.74
-9.73
-15.09
-20.777
-26.765
-32.947
-39.06
-44.726
-49.554
-53.198
-55.388
-55.816
-54.084
-50.034
-43.738
-35.564
-26.296
-16.555
-6.71
2.737
11.406
19.416
27.271
36.081
47.399
62.159
80.793
103.778
130.934
160.936
191.149
217.529
235.925
243.039
236.083
212.31
169.539
107.516
28.762
-61.93
-159.433
-258.727
-354.772
-441.926
-513.799
-565.969
-597.146
-608.151
-600.757
-577.368
-540.715
-494.859
-445.616
-397.465
-352.825
-312.97
-278.095
-248.022
-222.638
-200.802
-180.187
-159.295
-137.575
-115.019
-92.393
-70.407
-49.475
-30.337
-13.975
-0.921
8.653
14.867
18.236
19.243
18.288
15.858
12.448
8.46
4.262
0.186
-3.513
-6.605
-8.902
-10.292
-10.705
-10.103
-8.492
-5.92
-2.48
1.691
6.448
11.658
17.184
22.888
28.62
34.199
39.473
44.339
48.726
52.604
55.957
58.774
61.07
62.894
64.31
65.388
66.192
66.773
67.191
67.517
67.826
68.208
68.729
69.434
70.362
71.538
72.982
74.712
76.731
79.029
81.594
84.421
87.503
90.84
94.424
98.242
102.275
106.506
110.919
115.497
120.224
125.08
130.047
135.105
140.236
145.423
150.647
155.882
161.105
166.287
171.402
176.424
181.325
186.077
190.652
195.025
199.171
203.067
206.691
210.02
213.035
215.717
218.049
220.016
221.604
222.8
223.595
223.98
223.949
223.499
222.627
221.333
219.619
217.489
214.948
212.005
208.669
204.953
200.868
196.43
191.657
186.567
181.179
175.514
169.595
163.445
157.088
150.548
143.851
137.02
130.082
123.061
115.983
108.873
101.754
94.651
87.587
80.585
73.667
66.853
60.165
53.62
47.236
41.029
35.015
29.207
23.617
18.256
13.133
8.257
3.633
-0.733
-4.84
-8.684
-12.266
-15.586
-18.648
-21.455
-24.013
-26.327
-28.404
-30.254
-31.885
-33.306
-34.527
-35.561
-36.417
-37.109
-37.646
-38.043
-38.31
-38.46
-38.506
-38.458
-38.328
-38.129
-37.869
-37.561
-37.214
-36.837
-36.439
-36.028
-35.612
-35.198
-34.793
-34.401
-34.027
-33.677
-33.352
-33.056
-32.79
-32.556
-32.355
-32.186
-32.049
-31.944
-31.868
-31.821
-31.8
-31.804
-31.829
-31.873
-31.934
-32.008
-32.093
-32.185
-32.283
-32.383
-32.483
-32.58
-32.672
-32.757
-32.832
-32.896
-32.946
-32.982
-33.002
-33.004
-32.987
-32.952
-32.897
-32.823
-32.73
-32.618
-32.487
-32.34
-32.176
-31.997
-31.805
-31.6
-31.385
-31.161
-30.929
-30.692
-30.45
-30.206
-29.96
-29.715
-29.47
-29.229
-28.99
-28.756
-28.527
-28.303
-28.086
-27.876
-27.673
-27.478
-27.293
-27.116
-26.948
-26.79
-26.643
-26.505
-26.377
-26.259
-26.151
-26.053
-25.963
-25.882
-25.81
-25.746
-25.689
-25.64
-25.598
-25.562
-25.534
-25.514
-25.5
-25.495
-25.497
-25.508
-25.529
-25.56
-25.603
-25.658
-25.727
-25.811
-25.911
-26.027
-26.161
-26.313
-26.484
-26.673
-26.88
-27.106
-27.35
-27.613
-27.892
-28.189
-28.502
-28.831
-29.174
-29.528
-29.893
-30.265
-30.642
-31.02
-31.396
-31.766
-32.127
-32.473
-32.803
-33.11
-33.39
-33.638
-33.849
-34.016
-34.136
-34.201
-34.205
-34.143
-34.01
-33.804
-33.52
-33.154
-32.705
-32.17
-31.546
-30.835
-30.033
-29.142
-28.159
-27.087
-25.929
-24.689
-23.37
-21.979
-20.523
-19.01
-17.449
-15.851
-14.222
-12.571
-10.907
-9.237
-7.571
-5.915
-4.276
-2.663
-1.089
0.435
1.896
3.283
4.587
5.8
6.911
7.91
8.794
9.562
10.215
10.747
11.147
11.399
11.496
11.443
11.247
10.917
10.462
9.898
9.259
8.596
7.964
7.401
6.919
6.516
6.206
6.004
5.941
6.041
6.281
6.633
7.085
7.625
8.248
8.905
9.482
9.818
9.767
9.215
8.108
6.41
4.055
0.997
-2.8
-7.309
-12.38
-17.885
-23.748
-29.911
-36.345
-42.898
-49.249
-55.016
-59.811
-63.285
-65.191
-65.201
-62.88
-58.079
-50.9
-41.781
-31.613
-21.053
-10.44
-0.286
8.991
17.505
25.759
34.976
46.882
62.471
82.117
106.2
134.459
165.397
196.144
222.398
239.704
244.61
234.39
206.395
158.502
90.646
5.67
-91.229
-194.492
-298.924
-399.708
-491.407
-567.5
-623.142
-656.585
-668.574
-660.911
-635.706
-594.783
-541.164
-480.513
-418.323
-358.613
-303.705
-254.499
-211.695
-176.701
-150.33
-131.114
-116.725
-104.686
-93.467
-82.936
-73.043
-63.09
-52.181
-40.283
-28.265
-17.688
-9.605
-4.04
-0.733
0.543
-0.261
-3.16
-7.638
-12.674
-17.381
-21.275
-24.146
-26.02
-26.828
-26.407
-24.748
-21.982
-18.304
-13.926
-8.993
-3.575
2.218
8.249
14.35
20.301
25.931
31.136
35.838
40.011
43.645
46.716
49.231
51.233
52.777
53.932
54.762
55.312
55.635
55.8
55.889
55.999
56.209
56.566
57.109
57.86
58.839
60.066
61.546
63.269
65.227
67.413
69.827
72.469
75.338
78.421
81.705
85.173
88.809
92.602
96.538
100.603
104.781
109.058
113.419
117.854
122.345
126.874
131.419
135.957
140.465
144.919
149.296
153.571
157.718
161.715
165.54
169.172
172.59
175.772
178.701
181.358
183.727
185.791
187.537
188.952
190.024
190.743
191.104
191.099
190.724
189.977
188.856
187.363
185.501
183.275
180.69
177.755
174.478
170.873
166.951
162.728
158.22
153.443
148.417
143.162
137.698
132.047
126.231
120.271
114.191
108.014
101.763
95.462
89.133
82.799
76.483
70.207
63.993
57.861
51.832
45.925
40.158
34.547
29.109
23.859
18.809
13.973
9.359
4.979
0.838
-3.055
-6.698
-10.086
-13.217
-16.093
-18.713
-21.082
-23.201
-25.078
-26.718
-28.129
-29.319
-30.299
-31.078
-31.668
-32.08
-32.327
-32.421
-32.376
-32.205
-31.92
-31.536
-31.066
-30.522
-29.917
-29.264
-28.574
-27.859
-27.13
-26.397
-25.668
-24.954
-24.262
-23.6
-22.972
-22.386
-21.846
-21.356
-20.919
-20.537
-20.211
-19.942
-19.731
-19.576
-19.475
-19.427
-19.43
-19.479
-19.572
-19.704
-19.872
-20.072
-20.298
-20.547
-20.814
-21.094
-21.383
-21.677
-21.971
-22.261
-22.544
-22.816
-23.074
-23.315
-23.537
-23.737
-23.913
-24.064
-24.188
-24.285
-24.353
-24.393
-24.405
-24.388
-24.345
-24.275
-24.18
-24.062
-23.922
-23.762
-23.585
-23.391
-23.184
-22.965
-22.736
-22.5
-22.259
-22.015
-21.77
-21.524
-21.282
-21.042
-20.808
-20.58
-20.359
-20.146
-19.943
-19.75
-19.567
-19.396
-19.238
-19.091
-18.958
-18.837
-18.73
-18.635
-18.554
-18.486
-18.432
-18.39
-18.361
-18.345
-18.343
-18.354
-18.378
-18.415
-18.466
-18.529
-18.607
-18.698
-18.803
-18.923
-19.058
-19.208
-19.376
-19.56
-19.761
-19.98
-20.217
-20.471
-20.742
-21.03
-21.335
-21.656
-21.993
-22.344
-22.709
-23.086
-23.474
-23.869
-24.271
-24.676
-25.08
-25.48
-25.872
-26.253
-26.619
-26.967
-27.292
-27.591
-27.859
-28.092
-28.284
-28.432
-28.531
-28.574
-28.557
-28.476
-28.327
-28.107
-27.814
-27.444
-26.995
-26.466
-25.856
-25.163
-24.387
-23.528
-22.586
-21.563
-20.463
-19.289
-18.048
-16.745
-15.39
-13.989
-12.553
-11.089
-9.606
-8.11
-6.609
-5.111
-3.621
-2.147
-0.696
0.724
2.101
3.423
4.682
5.867
6.972
7.988
8.906
9.721
10.434
11.042
11.543
11.93
12.184
12.299
12.276
12.119
11.84
11.451
10.963
10.408
9.832
9.282
8.807
8.435
8.165
8.007
7.978
8.096
8.4
8.892
9.532
10.302
11.186
12.158
13.196
14.211
15.039
15.537
15.562
15.012
13.854
12.035
9.485
6.171
2.073
-2.738
-8.104
-13.916
-20.121
-26.663
-33.452
-40.239
-46.616
-52.183
-56.558
-59.437
-60.512
-59.338
-55.656
-49.5
-41.178
-31.442
-21.042
-10.316
0.286
10.132
19.268
28.131
37.704
49.937
66.181
86.749
112.12
142.593
176.963
212.948
246.67
272.646
286.635
285.764
267.019
227.736
167.049
86.172
-10.716
-116.968
-226.699
-334.772
-435.623
-523.269
-592.225
-638.844
-662.4
-664.865
-648.513
-615.594
-568.808
-511.945
-450.095
-388.097
-329.495
-275.891
-228.035
-186.683
-152.775
-126.753
-107.427
-92.682
-80.243
-68.917
-58.528
-48.918
-39.47
-29.261
-18.142
-6.953
2.843
10.299
15.371
18.317
19.349
18.346
15.28
10.676
5.545
0.791
-3.1
-5.942
-7.762
-8.49
-7.974
-6.204
-3.328
0.441
4.883
9.853
15.284
21.084
27.114
33.204
39.131
44.72
49.866
54.499
58.589
62.124
65.084
67.478
69.353
70.772
71.808
72.525
72.969
73.194
73.27
73.279
73.321
73.475
73.79
74.304
75.043
76.026
77.275
78.796
80.577
82.609
84.887
87.408
90.173
93.18
96.416
99.867
103.514
107.344
111.344
115.498
119.792
124.207
128.728
133.338
138.025
142.768
147.547
152.337
157.112
161.847
166.515
171.09
175.543
179.847
183.978
187.908
191.617
195.079
198.274
201.18
203.778
206.05
207.979
209.552
210.754
211.574
212.004
212.037
211.667
210.892
209.711
208.123
206.133
203.746
200.968
197.809
194.28
190.393
186.163
181.608
176.743
171.591
166.17
160.503
154.613
148.525
142.262
135.849
129.311
122.673
115.959
109.196
102.408
95.618
88.85
82.128
75.475
68.91
62.456
56.131
49.953
43.939
38.104
32.464
27.029
21.812
16.822
12.068
7.555
3.291
-0.723
-4.484
-7.992
-11.246
-14.25
-17.007
-19.52
-21.798
-23.845
-25.669
-27.28
-28.686
-29.897
-30.923
-31.777
-32.468
-33.009
-33.412
-33.688
-33.849
-33.906
-33.872
-33.758
-33.574
-33.33
-33.037
-32.705
-32.341
-31.954
-31.552
-31.142
-30.73
-30.322
-29.923
-29.536
-29.167
-28.817
-28.489
-28.185
-27.907
-27.654
-27.429
-27.229
-27.056
-26.908
-26.785
-26.683
-26.603
-26.542
-26.497
-26.468
-26.45
-26.442
-26.442
-26.447
-26.456
-26.465
-26.474
-26.48
-26.482
-26.478
-26.468
-26.449
-26.422
-26.385
-26.339
-26.283
-26.217
-26.143
-26.059
-25.966
-25.865
-25.757
-25.642
-25.521
-25.395
-25.263
-25.128
-24.99
-24.85
-24.709
-24.568
-24.428
-24.289
-24.153
-24.02
-23.892
-23.768
-23.649
-23.536
-23.429
-23.33
-23.237
-23.153
-23.076
-23.007
-22.946
-22.893
-22.849
-22.812
-22.783
-22.761
-22.746
-22.739
-22.739
-22.747
-22.762
-22.786
-22.818
-22.86
-22.912
-22.974
-23.047
-23.132
-23.228
-23.337
-23.46
-23.597
-23.749
-23.917
-24.102
-24.305
-24.526
-24.765
-25.022
-25.298
-25.592
-25.904
-26.233
-26.58
-26.944
-27.324
-27.72
-28.131
-28.556
-28.992
-29.439
-29.893
-30.351
-30.811
-31.268
-31.719
-32.161
-32.589
-32.999
-33.39
-33.755
-34.091
-34.393
-34.657
-34.878
-35.052
-35.172
-35.234
-35.234
-35.169
-35.037
-34.836
-34.563
-34.218
-33.798
-33.303
-32.734
-32.089
-31.368
-30.571
-29.701
-28.762
-27.756
-26.69
-25.568
-24.398
-23.189
-21.95
-20.689
-19.412
-18.128
-16.843
-15.565
-14.299
-13.052
-11.828
-10.637
-9.489
-8.394
-7.362
-6.402
-5.52
-4.722
-4.015
-3.403
-2.887
-2.462
-2.126
-1.882
-1.741
-1.715
-1.812
-2.026
-2.352
-2.782
-3.304
-3.895
-4.517
-5.111
-5.628
-6.045
-6.35
-6.546
-6.629
-6.58
-6.379
-6.018
-5.503
-4.846
-4.049
-3.104
-2.035
-0.912
0.133
0.924
1.319
1.228
0.595
-0.629
-2.487
-5.021
-8.235
-12.039
-16.335
-21.05
-26.153
-31.645
-37.445
-43.323
-48.925
-53.845
-57.709
-60.247
-61.144
-59.951
-56.449
-50.668
-42.933
-34.037
-24.686
-15.18
-5.965
2.347
9.78
16.746
24.243
34.239
48.13
66.331
89.421
117.78
150.309
184.759
217.297
242.543
256.217
255.312
236.617
197.207
136.041
54.417
-43.349
-150.697
-261.782
-371.497
-474.04
-562.712
-631.381
-676.292
-697.121
-695.985
-675.083
-636.353
-582.602
-518.846
-451.623
-386.516
-326.58
-272.96
-226.411
-188.151
-159.368
-139.321
-125.039
-113.237
-102.07
-91.035
-80.166
-69.059
-56.619
-42.542
-28.014
-14.853
-4.277
3.379
8.42
11.179
11.493
9.333
5.255
0.246
-4.731
-9.061
-12.517
-15.073
-16.614
-16.994
-16.163
-14.203
-11.29
-7.596
-3.254
1.657
7.061
12.83
18.816
24.837
30.689
36.212
41.301
45.89
49.948
53.46
56.408
58.803
60.696
62.153
63.247
64.035
64.561
64.881
65.069
65.211
65.406
65.725
66.215
66.911
67.84
69.024
70.482
72.218
74.221
76.479
78.987
81.741
84.744
87.99
91.465
95.153
99.037
103.102
107.336
111.723
116.247
120.891
125.638
130.473
135.381
140.344
145.339
150.341
155.327
160.268
165.141
169.917
174.567
179.066
183.388
187.506
191.398
195.04
198.41
201.486
204.248
206.679
208.762
210.482
211.825
212.779
213.335
213.486
213.226
212.552
211.46
209.951
208.028
205.694
202.957
199.824
196.305
192.414
188.164
183.573
178.658
173.438
167.936
162.174
156.176
149.966
143.571
137.016
130.328
123.533
116.658
109.729
102.773
95.816
88.882
81.997
75.185
68.468
61.868
55.407
49.105
42.979
37.047
31.325
25.827
20.567
15.555
10.801
6.313
2.096
-1.843
-5.504
-8.885
-11.987
-14.812
-17.364
-19.65
-21.675
-23.448
-24.978
-26.276
-27.352
-28.218
-28.887
-29.37
-29.683
-29.836
-29.845
-29.722
-29.481
-29.135
-28.697
-28.178
-27.593
-26.952
-26.266
-25.548
-24.807
-24.052
-23.293
-22.538
-21.794
-21.068
-20.366
-19.693
-19.052
-18.447
-17.882
-17.357
-16.873
-16.431
-16.032
-15.673
-15.354
-15.074
-14.83
-14.621
-14.445
-14.298
-14.18
-14.087
-14.018
-13.97
-13.941
-13.93
-13.934
-13.952
-13.982
-14.023
-14.073
-14.13
-14.195
-14.266
-14.342
-14.423
-14.508
-14.597
-14.69
-14.787
-14.889
-14.996
-15.108
-15.226
-15.351
-15.484
-15.625
-15.774
-15.934
-16.103
-16.282
-16.473
-16.674
-16.885
-17.107
-17.338
-17.579
-17.828
-18.084
-18.346
-18.614
-18.886
-19.161
-19.438
-19.715
-19.992
-20.268
-20.541
-20.811
-21.076
-21.337
-21.592
-21.84
-22.082
-22.316
-22.543
-22.763
-22.975
-23.18
-23.38
-23.573
-23.762
-23.948
-24.13
-24.311
-24.493
-24.676
-24.862
-25.054
-25.253
-25.462
-25.682
-25.916
-26.166
-26.432
-26.717
-27.02
-27.344
-27.689
-28.054
-28.441
-28.848
-29.276
-29.725
-30.193
-30.679
-31.18
-31.694
-32.217
-32.748
-33.281
-33.812
-34.336
-34.849
-35.347
-35.824
-36.277
-36.699
-37.086
-37.431
-37.73
-37.976
-38.163
-38.286
-38.337
-38.315
-38.213
-38.03
-37.762
-37.407
-36.963
-36.43
-35.805
-35.091
-34.286
-33.391
-32.407
-31.34
-30.193
-28.972
-27.683
-26.336
-24.939
-23.504
-22.04
-20.558
-19.066
-17.574
-16.091
-14.625
-13.184
-11.775
-10.409
-9.095
-7.847
-6.677
-5.595
-4.61
-3.732
-2.968
-2.328
-1.813
-1.421
-1.152
-1.008
-0.999
-1.139
-1.431
-1.872
-2.452
-3.161
-3.989
-4.916
-5.905
-6.901
-7.85
-8.712
-9.471
-10.124
-10.659
-11.057
-11.287
-11.327
-11.197
-10.919
-10.506
-9.961
-9.295
-8.554
-7.853
-7.352
-7.193
-7.489
-8.298
-9.66
-11.642
-14.293
-17.648
-21.679
-26.244
-31.215
-36.519
-42.104
-47.934
-53.861
-59.564
-64.654
-68.768
-71.57
-72.826
-72.224
-69.29
-63.831
-55.945
-46.048
-35.033
-23.629
-12.11
-0.925
9.3
18.536
27.133
36.106
47.468
62.612
81.86
105.597
134.006
165.855
198.824
229.223
251.87
262.413
257.877
235.181
191.552
126.612
42.273
-57.317
-165.786
-276.823
-384.837
-483.252
-564.861
-624.879
-661.099
-673.504
-664.582
-637.478
-595.335
-543.054
-487.006
-431.968
-381.041
-336.032
-296.946
-263.447
-235.316
-211.073
-188.262
-165.357
-141.65
-117.087
-92.542
-68.792
-46.324
-25.997
-8.835
4.63
14.228
20.131
22.91
23.1
21.162
17.642
13.093
7.966
2.669
-2.424
-7.023
-10.871
-13.76
-15.567
-16.222
-15.691
-13.989
-11.185
-7.393
-2.77
2.513
8.304
14.444
20.777
27.133
33.312
39.142
44.508
49.33
53.57
57.211
60.24
62.674
64.566
65.989
67.019
67.727
68.17
68.415
68.535
68.616
68.748
69.003
69.431
70.069
70.946
72.083
73.498
75.195
77.164
79.395
81.88
84.617
87.606
90.839
94.305
97.988
101.871
105.939
110.18
114.577
119.114
123.773
128.536
133.387
138.311
143.289
148.296
153.309
158.301
163.246
168.117
172.888
177.529
182.014
186.317
190.413
194.278
197.889
201.223
204.26
206.979
209.362
211.392
213.054
214.334
215.219
215.701
215.772
215.426
214.66
213.471
211.86
209.831
207.388
204.538
201.291
197.657
193.65
189.284
184.576
179.545
174.21
168.593
162.715
156.601
150.274
143.76
137.082
130.268
123.342
116.331
109.26
102.156
95.042
87.945
80.888
73.896
66.991
60.195
53.529
47.013
40.665
34.502
28.54
22.794
17.274
11.994
6.961
2.184
-2.33
-6.578
-10.556
-14.263
-17.699
-20.865
-23.764
-26.4
-28.779
-30.907
-32.791
-34.44
-35.864
-37.073
-38.077
-38.889
-39.519
-39.981
-40.288
-40.451
-40.485
-40.402
-40.214
-39.935
-39.578
-39.153
-38.673
-38.149
-37.592
-37.012
-36.417
-35.818
-35.221
-34.634
-34.064
-33.517
-32.998
-32.511
-32.061
-31.65
-31.281
-30.956
-30.676
-30.442
-30.253
-30.109
-30.009
-29.951
-29.934
-29.955
-30.011
-30.1
-30.218
-30.362
-30.529
-30.715
-30.915
-31.128
-31.348
-31.573
-31.798
-32.022
-32.24
-32.45
-32.649
-32.834
-33.004
-33.155
-33.287
-33.397
-33.484
-33.547
-33.584
-33.595
-33.579
-33.536
-33.465
-33.368
-33.244
-33.095
-32.92
-32.722
-32.5
-32.258
-31.995
-31.715
-31.419
-31.108
-30.786
-30.453
-30.113
-29.767
-29.416
-29.064
-28.711
-28.36
-28.012
-27.669
-27.333
-27.005
-26.687
-26.381
-26.088
-25.809
-25.545
-25.299
-25.071
-24.862
-24.673
-24.505
-24.36
-24.238
-24.139
-24.065
-24.016
-23.992
-23.993
-24.019
-24.071
-24.147
-24.247
-24.372
-24.52
-24.691
-24.886
-25.103
-25.341
-25.601
-25.881
-26.179
-26.495
-26.827
-27.173
-27.532
-27.902
-28.282
-28.669
-29.062
-29.457
-29.852
-30.244
-30.63
-31.006
-31.368
-31.712
-32.034
-32.33
-32.595
-32.828
-33.024
-33.178
-33.288
-33.35
-33.359
-33.313
-33.208
-33.038
-32.8
-32.493
-32.114
-31.662
-31.136
-30.534
-29.856
-29.104
-28.277
-27.377
-26.405
-25.362
-24.25
-23.073
-21.837
-20.546
-19.207
-17.827
-16.414
-14.979
-13.533
-12.083
-10.637
-9.204
-7.793
-6.411
-5.067
-3.765
-2.509
-1.309
-0.174
0.887
1.864
2.755
3.552
4.249
4.84
5.323
5.695
5.965
6.133
6.195
6.148
5.976
5.677
5.257
4.725
4.084
3.353
2.554
1.725
0.934
0.226
-0.375
-0.847
-1.188
-1.387
-1.414
-1.258
-0.917
-0.388
0.317
1.193
2.25
3.443
4.682
5.843
6.744
7.241
7.255
6.703
5.526
3.681
1.124
-2.111
-5.926
-10.249
-15.031
-20.246
-25.867
-31.725
-37.529
-42.929
-47.502
-50.903
-52.787
-52.678
-50.305
-45.657
-38.95
-30.833
-21.992
-12.75
-3.587
4.841
12.565
20.003
28.143
38.913
53.628
72.667
96.655
126.071
159.954
196.229
231.092
259.093
275.979
278.71
264.003
228.783
171.575
93.145
-2.549
-109.156
-220.931
-332.759
-439.064
-533.212
-608.699
-661.324
-690.003
-696.058
-681.426
-647.831
-597.356
-534.666
-466.157
-397.237
-332.015
-272.801
-220.625
-177.126
-144.283
-121.631
-106.778
-97.075
-89.53
-82.541
-75.902
-68.679
-59.395
-47.726
-34.228
-20.105
-7.397
2.856
10.713
16.033
18.626
18.565
16.019
11.638
6.665
1.966
-2.063
-5.138
-7.203
-8.214
-8.019
-6.632
-4.24
-1.007
2.905
7.36
12.313
17.695
23.376
29.217
35.034
40.621
45.847
50.629
54.917
58.695
61.942
64.644
66.829
68.56
69.906
70.935
71.695
72.226
72.588
72.856
73.12
73.472
73.975
74.672
75.596
76.772
78.221
79.961
81.99
84.296
86.866
89.697
92.786
96.133
99.731
103.562
107.612
111.862
116.296
120.899
125.654
130.541
135.542
140.638
145.811
151.043
156.314
161.599
166.871
172.104
177.27
182.34
187.286
192.078
196.688
201.088
205.253
209.159
212.781
216.096
219.082
221.722
223.996
225.888
227.384
228.47
229.137
229.376
229.182
228.549
227.477
225.965
224.017
221.635
218.829
215.605
211.975
207.952
203.549
198.785
193.675
188.242
182.506
176.489
170.216
163.712
157.003
150.115
143.076
135.911
128.649
121.316
113.939
106.544
99.159
91.808
84.515
77.306
70.203
63.228
56.401
49.742
43.269
36.998
30.944
25.122
19.542
14.216
9.153
4.36
-0.157
-4.393
-8.346
-12.015
-15.4
-18.502
-21.326
-23.875
-26.155
-28.175
-29.94
-31.462
-32.748
-33.811
-34.662
-35.311
-35.773
-36.059
-36.182
-36.157
-35.994
-35.709
-35.313
-34.82
-34.241
-33.59
-32.876
-32.113
-31.31
-30.479
-29.627
-28.766
-27.902
-27.046
-26.202
-25.38
-24.583
-23.818
-23.09
-22.402
-21.757
-21.159
-20.609
-20.109
-19.66
-19.262
-18.915
-18.618
-18.371
-18.172
-18.019
-17.911
-17.845
-17.818
-17.829
-17.874
-17.951
-18.057
-18.188
-18.343
-18.518
-18.71
-18.916
-19.134
-19.36
-19.593
-19.828
-20.064
-20.297
-20.526
-20.749
-20.962
-21.165
-21.355
-21.53
-21.689
-21.831
-21.954
-22.058
-22.141
-22.203
-22.243
-22.261
-22.256
-22.229
-22.179
-22.107
-22.013
-21.897
-21.761
-21.604
-21.428
-21.233
-21.021
-20.793
-20.55
-20.293
-20.024
-19.745
-19.457
-19.162
-18.863
-18.561
-18.258
-17.958
-17.662
-17.373
-17.094
-16.826
-16.573
-16.337
-16.121
-15.926
-15.756
-15.613
-15.499
-15.417
-15.368
-15.356
-15.382
-15.447
-15.552
-15.7
-15.889
-16.122
-16.398
-16.717
-17.08
-17.486
-17.934
-18.424
-18.954
-19.521
-20.124
-20.759
-21.422
-22.111
-22.82
-23.544
-24.28
-25.022
-25.767
-26.507
-27.24
-27.957
-28.653
-29.324
-29.961
-30.559
-31.111
-31.61
-32.051
-32.429
-32.739
-32.977
-33.139
-33.221
-33.22
-33.134
-32.96
-32.696
-32.34
-31.893
-31.355
-30.728
-30.015
-29.22
-28.351
-27.413
-26.414
-25.362
-24.265
-23.131
-21.966
-20.779
-19.576
-18.363
-17.148
-15.938
-14.742
-13.574
-12.443
-11.361
-10.339
-9.384
-8.505
-7.713
-7.015
-6.409
-5.901
-5.493
-5.193
-5.022
-4.985
-5.083
-5.313
-5.664
-6.125
-6.686
-7.315
-7.966
-8.596
-9.153
-9.611
-9.972
-10.224
-10.351
-10.335
-10.141
-9.767
-9.25
-8.608
-7.855
-7.015
-6.11
-5.229
-4.531
-4.156
-4.24
-4.883
-6.12
-8.003
-10.595
-13.925
-18.0
-22.744
-28.003
-33.668
-39.685
-46.001
-52.516
-58.979
-64.995
-70.174
-74.146
-76.614
-77.269
-75.67
-71.579
-65.045
-56.397
-46.387
-35.739
-24.781
-13.942
-3.823
5.597
14.736
24.545
36.887
53.091
73.472
98.445
128.263
161.718
196.525
229.066
254.218
267.727
266.685
248.012
208.915
148.92
69.736
-24.646
-127.949
-234.037
-337.512
-432.047
-510.777
-569.099
-604.841
-618.004
-611.037
-587.001
-548.918
-501.41
-450.427
-400.438
-354.32
-313.735
-278.675
-248.783
-223.819
-202.39
-182.181
-161.758
-140.477
-118.276
-95.955
-74.236
-53.563
-34.742
-18.76
-6.132
2.973
8.699
11.588
12.14
10.765
7.971
4.273
0.087
-4.208
-8.28
-11.895
-14.833
-16.91
-18.024
-18.11
-17.14
-15.138
-12.166
-8.329
-3.769
1.359
6.913
12.744
18.71
24.661
30.421
35.846
40.834
45.32
49.272
52.678
55.532
57.853
59.691
61.111
62.184
62.977
63.546
63.953
64.27
64.573
64.945
65.455
66.147
67.06
68.22
69.647
71.361
73.368
75.66
78.229
81.07
84.181
87.561
91.204
95.097
99.225
103.571
108.118
112.853
117.757
122.813
128.0
133.298
138.687
144.15
149.663
155.199
160.732
166.231
171.668
177.012
182.232
187.298
192.178
196.843
201.265
205.417
209.273
212.807
215.995
218.815
221.247
223.274
224.877
226.043
226.759
227.016
226.807
226.127
224.973
223.344
221.243
218.675
215.646
212.167
208.248
203.903
199.148
194.002
188.484
182.617
176.424
169.929
163.159
156.142
148.907
141.481
133.894
126.177
118.358
110.468
102.536
94.592
86.663
78.778
70.963
63.245
55.649
48.197
40.912
33.815
26.924
20.257
13.83
7.657
1.75
-3.881
-9.226
-14.28
-19.036
-23.492
-27.647
-31.5
-35.054
-38.312
-41.28
-43.962
-46.369
-48.507
-50.388
-52.022
-53.421
-54.598
-55.566
-56.338
-56.928
-57.351
-57.621
-57.751
-57.755
-57.648
-57.442
-57.151
-56.787
-56.362
-55.888
-55.375
-54.833
-54.271
-53.699
-53.124
-52.552
-51.991
-51.445
-50.919
-50.418
-49.944
-49.499
-49.087
-48.707
-48.361
-48.048
-47.769
-47.521
-47.304
-47.116
-46.955
-46.818
-46.704
-46.61
-46.534
-46.472
-46.423
-46.384
-46.352
-46.326
-46.303
-46.282
-46.26
-46.236
-46.209
-46.177
-46.139
-46.095
-46.044
-45.984
-45.917
-45.841
-45.757
-45.664
-45.564
-45.455
-45.339
-45.216
-45.087
-44.951
-44.81
-44.665
-44.515
-44.363
-44.208
-44.051
-43.893
-43.734
-43.574
-43.415
-43.255
-43.096
-42.938
-42.781
-42.625
-42.471
-42.318
-42.169
-42.021
-41.878
-41.737
-41.601
-41.469
-41.343
-41.222
-41.107
-41.0
-40.9
-40.81
-40.731
-40.662
-40.607
-40.564
-40.536
-40.523
-40.526
-40.545
-40.581
-40.635
-40.708
-40.8
-40.912
-41.044
-41.197
-41.37
-41.562
-41.773
-42.0
-42.243
-42.498
-42.764
-43.036
-43.314
-43.593
-43.87
-44.143
-44.406
-44.657
-44.889
-45.099
-45.28
-45.429
-45.538
-45.603
-45.619
-45.581
-45.485
-45.328
-45.105
-44.813
-44.448
-44.008
-43.489
-42.889
-42.207
-41.44
-40.588
-39.653
-38.638
-37.547
-36.385
-35.159
-33.874
-32.538
-31.158
-29.738
-28.286
-26.807
-25.305
-23.788
-22.263
-20.739
-19.226
-17.736
-16.281
-14.872
-13.519
-12.232
-11.02
-9.891
-8.847
-7.892
-7.034
-6.28
-5.649
-5.154
-4.796
-4.574
-4.484
-4.509
-4.636
-4.843
-5.083
-5.317
-5.507
-5.612
-5.624
-5.542
-5.35
-5.032
-4.561
-3.912
-3.11
-2.196
-1.193
-0.138
0.931
1.952
2.787
3.284
3.316
2.758
1.548
-0.343
-2.973
-6.39
-10.616
-15.644
-21.348
-27.555
-34.154
-41.045
-48.138
-55.271
-62.098
-68.207
-73.225
-76.79
-78.643
-78.499
-75.916
-70.684
-62.884
-52.864
-41.434
-29.359
-16.976
-4.761
6.635
17.169
27.165
37.519
50.095
66.229
86.274
110.691
139.759
172.276
205.931
237.07
260.578
272.231
269.156
248.276
206.807
144.322
62.624
-34.107
-139.369
-247.041
-351.922
-447.837
-528.123
-588.075
-624.985
-638.723
-632.013
-607.701
-568.327
-517.956
-461.622
-403.944
-349.265
-300.059
-256.48
-218.783
-187.342
-161.69
-141.188
-124.493
-109.257
-94.352
-79.969
-66.11
-52.929
-40.496
-28.24
-16.456
-6.46
1.176
6.395
9.263
10.352
9.949
7.832
4.334
0.293
-3.705
-7.098
-9.549
-11.13
-11.776
-11.304
-9.707
-7.067
-3.504
0.756
5.557
10.825
16.434
22.256
28.143
33.889
39.349
44.41
48.984
53.035
56.54
59.483
61.879
63.763
65.183
66.209
66.907
67.329
67.542
67.611
67.612
67.643
67.778
68.073
68.571
69.302
70.287
71.55
73.099
74.93
77.041
79.427
82.085
85.019
88.224
91.69
95.406
99.351
103.512
107.873
112.42
117.136
122.003
127.002
132.116
137.328
142.618
147.963
153.335
158.707
164.05
169.337
174.536
179.619
184.554
189.313
193.869
198.195
202.265
206.054
209.538
212.694
215.503
217.945
220.004
221.664
222.912
223.738
224.133
224.092
223.611
222.687
221.323
219.52
217.284
214.623
211.546
208.065
204.194
199.947
195.343
190.4
185.141
179.586
173.761
167.688
161.395
154.907
148.251
141.454
134.544
127.546
120.49
113.401
106.305
99.229
92.198
85.235
78.364
71.607
64.984
58.515
52.218
46.109
40.204
34.516
29.056
23.836
18.863
14.145
9.686
5.492
1.564
-2.098
-5.494
-8.627
-11.5
-14.118
-16.487
-18.615
-20.51
-22.18
-23.636
-24.889
-25.948
-26.827
-27.536
-28.088
-28.495
-28.77
-28.925
-28.972
-28.922
-28.788
-28.581
-28.311
-27.989
-27.624
-27.226
-26.803
-26.364
-25.914
-25.461
-25.011
-24.569
-24.139
-23.725
-23.33
-22.957
-22.607
-22.282
-21.983
-21.711
-21.464
-21.243
-21.047
-20.875
-20.725
-20.596
-20.486
-20.392
-20.314
-20.249
-20.194
-20.148
-20.108
-20.072
-20.038
-20.004
-19.968
-19.928
-19.884
-19.833
-19.775
-19.708
-19.632
-19.546
-19.451
-19.345
-19.23
-19.105
-18.971
-18.829
-18.679
-18.521
-18.358
-18.19
-18.017
-17.841
-17.663
-17.483
-17.304
-17.125
-16.947
-16.773
-16.602
-16.435
-16.275
-16.122
-15.976
-15.84
-15.713
-15.598
-15.495
-15.404
-15.326
-15.263
-15.214
-15.18
-15.161
-15.158
-15.17
-15.198
-15.242
-15.301
-15.375
-15.464
-15.568
-15.686
-15.818
-15.964
-16.123
-16.297
-16.485
-16.687
-16.903
-17.134
-17.379
-17.637
-17.909
-18.195
-18.494
-18.805
-19.129
-19.464
-19.81
-20.168
-20.535
-20.912
-21.298
-21.691
-22.091
-22.496
-22.906
-23.319
-23.735
-24.152
-24.57
-24.988
-25.404
-25.817
-26.225
-26.625
-27.016
-27.393
-27.755
-28.097
-28.417
-28.71
-28.975
-29.208
-29.407
-29.568
-29.688
-29.764
-29.794
-29.774
-29.7
-29.57
-29.381
-29.131
-28.819
-28.444
-28.007
-27.505
-26.939
-26.31
-25.617
-24.862
-24.045
-23.167
-22.229
-21.235
-20.191
-19.101
-17.97
-16.807
-15.62
-14.418
-13.211
-12.006
-10.809
-9.628
-8.469
-7.34
-6.246
-5.19
-4.18
-3.223
-2.329
-1.508
-0.766
-0.108
0.46
0.932
1.302
1.57
1.738
1.809
1.782
1.649
1.395
1.015
0.513
-0.102
-0.82
-1.63
-2.512
-3.431
-4.334
-5.161
-5.874
-6.458
-6.913
-7.228
-7.387
-7.361
-7.131
-6.715
-6.133
-5.396
-4.511
-3.488
-2.383
-1.316
-0.454
0.047
0.07
-0.449
-1.552
-3.301
-5.745
-8.903
-12.731
-17.099
-21.899
-27.084
-32.638
-38.494
-44.463
-50.216
-55.345
-59.469
-62.291
-63.476
-62.594
-59.386
-53.828
-46.175
-37.098
-27.276
-17.049
-6.862
2.696
11.625
20.309
29.68
41.516
57.079
76.719
100.923
130.085
163.219
198.285
231.69
258.249
273.92
275.887
261.097
226.712
171.517
96.253
4.609
-97.171
-203.561
-309.637
-409.871
-498.242
-568.987
-618.021
-644.274
-649.423
-635.467
-604.531
-559.258
-503.393
-442.22
-380.839
-322.915
-270.187
-223.479
-183.501
-151.195
-126.984
-109.507
-96.517
-85.683
-75.73
-66.46
-57.744
-48.963
-39.221
-28.45
-17.519
-7.893
-0.524
4.538
7.544
8.701
7.899
5.126
0.905
-3.784
-8.071
-11.486
-13.851
-15.197
-15.463
-14.508
-12.339
-9.101
-5.004
-0.265
4.975
10.647
16.655
22.869
29.125
35.214
40.97
46.293
51.113
55.403
59.154
62.349
64.996
67.142
68.847
70.182
71.212
71.982
72.543
72.96
73.312
73.692
74.176
74.808
75.626
76.653
77.91
79.417
81.18
83.192
85.445
87.935
90.659
93.621
96.818
100.241
103.875
107.706
111.718
115.902
120.243
124.725
129.332
134.049
138.858
143.746
148.694
153.679
158.676
163.661
168.607
173.487
178.274
182.94
187.457
191.799
195.939
199.854
203.518
206.909
210.004
212.782
215.224
217.311
219.028
220.36
221.293
221.818
221.926
221.612
220.87
219.7
218.101
216.076
213.63
210.77
207.506
203.848
199.809
195.406
190.656
185.578
180.193
174.522
168.589
162.418
156.036
149.469
142.742
135.883
128.919
121.877
114.785
107.668
100.555
93.469
86.437
79.483
72.631
65.903
59.319
52.9
46.664
40.627
34.805
29.21
23.856
18.752
13.906
9.325
5.015
0.977
-2.785
-6.274
-9.489
-12.435
-15.117
-17.54
-19.712
-21.641
-23.337
-24.81
-26.071
-27.132
-28.006
-28.706
-29.244
-29.634
-29.89
-30.025
-30.053
-29.987
-29.84
-29.624
-29.351
-29.032
-28.68
-28.302
-27.91
-27.512
-27.116
-26.728
-26.356
-26.005
-25.68
-25.384
-25.12
-24.892
-24.7
-24.546
-24.43
-24.352
-24.311
-24.307
-24.337
-24.4
-24.493
-24.615
-24.761
-24.93
-25.118
-25.323
-25.54
-25.768
-26.004
-26.244
-26.486
-26.728
-26.967
-27.203
-27.432
-27.653
-27.866
-28.068
-28.261
-28.442
-28.613
-28.773
-28.923
-29.063
-29.195
-29.318
-29.435
-29.546
-29.652
-29.755
-29.856
-29.956
-30.057
-30.16
-30.267
-30.378
-30.495
-30.619
-30.75
-30.891
-31.041
-31.201
-31.371
-31.552
-31.744
-31.946
-32.16
-32.384
-32.619
-32.863
-33.116
-33.377
-33.646
-33.921
-34.201
-34.484
-34.771
-35.059
-35.347
-35.634
-35.919
-36.202
-36.48
-36.754
-37.021
-37.283
-37.537
-37.783
-38.02
-38.249
-38.469
-38.68
-38.882
-39.075
-39.26
-39.437
-39.608
-39.773
-39.932
-40.086
-40.236
-40.384
-40.531
-40.677
-40.825
-40.975
-41.129
-41.289
-41.457
-41.633
-41.819
-42.016
-42.223
-42.443
-42.674
-42.919
-43.176
-43.446
-43.728
-44.024
-44.331
-44.649
-44.976
-45.311
-45.651
-45.993
-46.333
-46.67
-46.998
-47.314
-47.615
-47.897
-48.156
-48.387
-48.587
-48.751
-48.873
-48.949
-48.973
-48.94
-48.845
-48.684
-48.452
-48.147
-47.765
-47.305
-46.763
-46.139
-45.43
-44.636
-43.755
-42.788
-41.736
-40.599
-39.382
-38.09
-36.727
-35.301
-33.821
-32.295
-30.733
-29.144
-27.535
-25.914
-24.291
-22.671
-21.064
-19.475
-17.914
-16.39
-14.918
-13.507
-12.171
-10.919
-9.76
-8.701
-7.755
-6.925
-6.212
-5.618
-5.146
-4.806
-4.617
-4.586
-4.711
-4.987
-5.403
-5.943
-6.594
-7.321
-8.073
-8.803
-9.458
-10.012
-10.467
-10.813
-11.033
-11.107
-10.993
-10.689
-10.233
-9.642
-8.93
-8.126
-7.257
-6.416
-5.776
-5.485
-5.683
-6.468
-7.864
-9.919
-12.692
-16.212
-20.492
-25.452
-30.93
-36.815
-43.047
-49.563
-56.258
-62.865
-68.96
-74.129
-77.993
-80.252
-80.61
-78.636
-74.087
-67.007
-57.722
-46.988
-35.553
-23.755
-12.043
-1.044
9.259
19.261
29.887
42.997
59.88
80.816
106.241
136.431
170.186
205.253
237.881
262.772
275.833
274.305
255.224
215.96
155.722
75.767
-19.758
-124.284
-232.12
-338.302
-437.141
-522.602
-589.206
-633.259
-654.398
-654.967
-637.15
-603.164
-556.168
-500.182
-440.684
-382.973
-329.777
-281.808
-239.696
-203.9
-174.752
-152.407
-134.871
-119.162
-103.934
-88.963
-74.301
-60.297
-46.686
-32.603
-18.661
-6.444
3.266
10.12
14.258
16.369
16.649
14.819
11.222
6.666
1.824
-2.593
-6.212
-9.062
-11.043
-11.973
-11.795
-10.523
-8.245
-5.15
-1.386
2.961
7.785
12.995
18.475
24.072
29.619
34.932
39.875
44.371
48.373
51.864
54.83
57.262
59.187
60.675
61.795
62.614
63.189
63.557
63.776
63.921
64.073
64.32
64.725
65.326
66.158
67.247
68.614
70.275
72.232
74.469
76.978
79.754
82.792
86.095
89.655
93.456
97.482
101.718
106.146
110.753
115.522
120.431
125.464
130.599
135.821
141.11
146.446
151.803
157.157
162.48
167.744
172.922
177.985
182.903
187.648
192.194
196.513
200.582
204.376
207.872
211.049
213.886
216.365
218.469
220.184
221.494
222.39
222.863
222.906
222.514
221.684
220.417
218.713
216.578
214.017
211.04
207.656
203.878
199.72
195.199
190.334
185.144
179.65
173.875
167.844
161.582
155.115
148.469
141.672
134.752
127.734
120.649
113.521
106.38
99.252
92.162
85.136
78.199
71.375
64.686
58.153
51.795
45.631
39.677
33.948
28.459
23.219
18.24
13.528
9.092
4.934
1.058
-2.535
-5.846
-8.876
-11.63
-14.113
-16.332
-18.294
-20.009
-21.487
-22.739
-23.776
-24.613
-25.262
-25.737
-26.053
-26.224
-26.266
-26.193
-26.02
-25.76
-25.429
-25.04
-24.605
-24.137
-23.648
-23.149
-22.648
-22.157
-21.682
-21.231
-20.812
-20.428
-20.085
-19.788
-19.538
-19.338
-19.189
-19.093
-19.049
-19.056
-19.114
-19.22
-19.371
-19.565
-19.799
-20.067
-20.367
-20.694
-21.043
-21.409
-21.788
-22.175
-22.565
-22.954
-23.338
-23.713
-24.075
-24.421
-24.748
-25.054
-25.337
-25.595
-25.826
-26.031
-26.207
-26.356
-26.476
-26.568
-26.632
-26.669
-26.681
-26.667
-26.629
-26.568
-26.486
-26.386
-26.268
-26.134
-25.988
-25.831
-25.666
-25.494
-25.319
-25.143
-24.967
-24.795
-24.627
-24.466
-24.314
-24.171
-24.039
-23.919
-23.812
-23.719
-23.639
-23.573
-23.522
-23.484
-23.46
-23.45
-23.453
-23.469
-23.499
-23.54
-23.594
-23.66
-23.737
-23.824
-23.921
-24.027
-24.141
-24.262
-24.389
-24.521
-24.658
-24.798
-24.941
-25.085
-25.23
-25.375
-25.518
-25.659
-25.797
-25.933
-26.064
-26.192
-26.316
-26.436
-26.552
-26.665
-26.776
-26.883
-26.988
-27.091
-27.192
-27.292
-27.391
-27.49
-27.59
-27.692
-27.796
-27.905
-28.018
-28.137
-28.261
-28.392
-28.53
-28.675
-28.827
-28.987
-29.156
-29.332
-29.518
-29.712
-29.915
-30.126
-30.343
-30.566
-30.792
-31.019
-31.246
-31.468
-31.683
-31.889
-32.084
-32.264
-32.427
-32.567
-32.683
-32.769
-32.821
-32.834
-32.803
-32.723
-32.59
-32.399
-32.149
-31.837
-31.46
-31.016
-30.503
-29.92
-29.265
-28.538
-27.737
-26.862
-25.914
-24.897
-23.812
-22.665
-21.46
-20.203
-18.904
-17.57
-16.207
-14.823
-13.423
-12.016
-10.607
-9.203
-7.81
-6.433
-5.082
-3.768
-2.502
-1.296
-0.159
0.902
1.877
2.759
3.542
4.225
4.81
5.298
5.684
5.958
6.105
6.117
6.0
5.759
5.399
4.935
4.387
3.795
3.218
2.702
2.273
1.94
1.703
1.564
1.54
1.652
1.908
2.304
2.831
3.491
4.29
5.207
6.176
7.068
7.707
7.955
7.718
6.939
5.575
3.588
0.942
-2.362
-6.24
-10.603
-15.377
-20.533
-26.078
-31.932
-37.873
-43.554
-48.553
-52.485
-55.068
-55.974
-54.765
-51.229
-45.405
-37.619
-28.641
-19.135
-9.365
0.254
9.161
17.412
25.434
34.224
45.664
61.006
80.51
104.597
133.51
166.1
200.155
231.9
256.093
268.67
266.868
247.808
208.867
149.1
69.728
-25.139
-129.264
-237.075
-343.745
-444.078
-531.928
-601.484
-649.177
-674.261
-678.17
-662.823
-629.854
-581.231
-521.339
-456.041
-390.234
-327.69
-270.546
-219.794
-177.052
-144.241
-121.003
-105.237
-94.603
-86.363
-79.038
-72.428
-65.617
-57.168
-46.734
-34.751
-22.282
-11.226
-2.519
3.937
8.027
9.602
8.764
5.676
0.992
-4.051
-8.643
-12.427
-15.148
-16.792
-17.325
-16.604
-14.668
-11.724
-7.953
-3.538
1.383
6.771
12.527
18.506
24.544
30.425
35.98
41.111
45.748
49.864
53.448
56.478
58.964
60.956
62.513
63.706
64.593
65.214
65.623
65.888
66.091
66.33
66.679
67.184
67.882
68.798
69.951
71.361
73.033
74.957
77.122
79.525
82.162
85.036
88.145
91.476
95.016
98.748
102.659
106.739
110.973
115.347
119.847
124.456
129.162
133.952
138.809
143.713
148.643
153.574
158.483
163.346
168.137
172.83
177.399
181.819
186.067
190.12
193.955
197.55
200.883
203.935
206.688
209.123
211.224
212.978
214.369
215.388
216.025
216.272
216.123
215.574
214.621
213.265
211.507
209.35
206.8
203.863
200.549
196.868
192.833
188.458
183.76
178.755
173.464
167.906
162.102
156.075
149.848
143.445
136.888
130.203
123.415
116.547
109.626
102.675
95.719
88.782
81.888
75.06
68.32
61.689
55.189
48.838
42.654
36.656
30.858
25.275
19.92
14.805
9.939
5.332
0.989
-3.084
-6.883
-10.407
-13.655
-16.629
-19.33
-21.763
-23.933
-25.846
-27.509
-28.931
-30.121
-31.09
-31.847
-32.406
-32.778
-32.976
-33.013
-32.903
-32.659
-32.296
-31.827
-31.266
-30.627
-29.923
-29.166
-28.37
-27.547
-26.708
-25.864
-25.024
-24.199
-23.397
-22.625
-21.891
-21.199
-20.556
-19.965
-19.43
-18.953
-18.538
-18.185
-17.894
-17.667
-17.503
-17.4
-17.356
-17.371
-17.44
-17.561
-17.729
-17.942
-18.194
-18.481
-18.798
-19.14
-19.501
-19.878
-20.264
-20.654
-21.043
-21.428
-21.803
-22.164
-22.508
-22.832
-23.132
-23.408
-23.656
-23.875
-24.065
-24.224
-24.352
-24.45
-24.516
-24.553
-24.559
-24.538
-24.489
-24.415
-24.317
-24.198
-24.06
-23.907
-23.74
-23.564
-23.382
-23.197
-23.014
-22.836
-22.666
-22.51
-22.37
-22.251
-22.155
-22.086
-22.046
-22.037
-22.062
-22.121
-22.216
-22.347
-22.514
-22.717
-22.955
-23.228
-23.535
-23.875
-24.246
-24.646
-25.073
-25.526
-26.002
-26.499
-27.013
-27.543
-28.084
-28.635
-29.19
-29.748
-30.303
-30.853
-31.393
-31.919
-32.429
-32.918
-33.383
-33.82
-34.227
-34.603
-34.944
-35.25
-35.52
-35.753
-35.951
-36.113
-36.241
-36.335
-36.398
-36.431
-36.436
-36.416
-36.373
-36.309
-36.228
-36.132
-36.024
-35.909
-35.788
-35.666
-35.546
-35.431
-35.324
-35.228
-35.147
-35.084
-35.042
-35.023
-35.031
-35.068
-35.135
-35.233
-35.363
-35.524
-35.715
-35.934
-36.178
-36.444
-36.727
-37.024
-37.33
-37.641
-37.952
-38.256
-38.549
-38.824
-39.074
-39.294
-39.476
-39.614
-39.699
-39.725
-39.687
-39.579
-39.395
-39.13
-38.778
-38.336
-37.798
-37.162
-36.424
-35.58
-34.63
-33.572
-32.408
-31.14
-29.773
-28.312
-26.765
-25.141
-23.447
-21.694
-19.891
-18.045
-16.167
-14.263
-12.341
-10.411
-8.481
-6.564
-4.674
-2.825
-1.03
0.698
2.347
3.905
5.36
6.701
7.929
9.035
10.015
10.856
11.537
12.046
12.384
12.553
12.564
12.431
12.164
11.793
11.368
10.934
10.541
10.217
9.958
9.77
9.672
9.683
9.843
10.161
10.59
11.106
11.691
12.311
12.949
13.521
13.865
13.843
13.324
12.21
10.484
8.108
5.016
1.176
-3.439
-8.779
-14.657
-20.935
-27.526
-34.33
-41.282
-48.172
-54.605
-60.207
-64.608
-67.464
-68.561
-67.569
-64.045
-57.863
-49.142
-38.332
-26.353
-13.88
-1.27
10.903
22.171
32.577
42.542
53.28
66.531
83.304
104.036
129.159
158.431
190.397
222.201
249.5
267.806
273.603
264.037
236.348
188.337
119.881
33.85
-64.502
-169.613
-276.245
-379.468
-473.708
-552.276
-610.176
-645.615
-659.324
-653.034
-628.817
-588.494
-535.141
-474.592
-412.512
-353.025
-298.505
-249.859
-207.779
-173.678
-148.326
-130.124
-116.599
-105.133
-94.125
-83.48
-73.2
-62.626
-50.89
-37.987
-24.828
-13.026
-3.687
3.129
7.667
10.152
10.503
8.653
5.055
0.651
-3.678
-7.396
-10.254
-12.24
-13.27
-13.184
-11.955
-9.681
-6.527
-2.695
1.668
6.481
11.66
17.108
22.706
28.288
33.673
38.721
43.336
47.471
51.11
54.232
56.824
58.901
60.513
61.735
62.643
63.295
63.733
64.011
64.193
64.365
64.617
65.015
65.604
66.414
67.47
68.797
70.414
72.325
74.522
76.993
79.731
82.736
86.007
89.54
93.319
97.328
101.549
105.966
110.566
115.333
120.246
125.288
130.438
135.68
140.996
146.365
151.762
157.161
162.536
167.858
173.1
178.234
183.231
188.064
192.704
197.128
201.311
205.23
208.861
212.184
215.18
217.829
220.117
222.027
223.547
224.666
225.376
225.669
225.54
224.987
224.009
222.607
220.784
218.546
215.9
212.857
209.426
205.622
201.46
196.957
192.13
187.001
181.59
175.918
170.01
163.89
157.58
151.107
144.495
137.769
130.955
124.076
117.158
110.225
103.3
96.407
89.569
82.807
76.142
69.595
63.183
56.924
50.835
44.931
39.224
33.727
28.452
23.405
18.596
14.03
9.712
5.644
1.828
-1.736
-5.049
-8.114
-10.934
-13.514
-15.861
-17.98
-19.879
-21.566
-23.052
-24.344
-25.454
-26.391
-27.168
-27.794
-28.281
-28.641
-28.885
-29.025
-29.072
-29.037
-28.931
-28.764
-28.546
-28.287
-27.996
-27.68
-27.349
-27.008
-26.665
-26.325
-25.994
-25.677
-25.377
-25.098
-24.844
-24.615
-24.415
-24.245
-24.105
-23.997
-23.92
-23.875
-23.86
-23.876
-23.92
-23.991
-24.088
-24.208
-24.35
-24.512
-24.69
-24.883
-25.089
-25.304
-25.528
-25.757
-25.989
-26.223
-26.456
-26.687
-26.914
-27.135
-27.35
-27.557
-27.755
-27.943
-28.121
-28.287
-28.442
-28.585
-28.715
-28.832
-28.936
-29.028
-29.107
-29.174
-29.229
-29.273
-29.307
-29.33
-29.345
-29.351
-29.351
-29.345
-29.334
-29.318
-29.3
-29.28
-29.26
-29.239
-29.22
-29.202
-29.188
-29.177
-29.17
-29.168
-29.172
-29.181
-29.197
-29.219
-29.248
-29.284
-29.328
-29.378
-29.436
-29.501
-29.573
-29.651
-29.735
-29.825
-29.919
-30.017
-30.118
-30.222
-30.326
-30.431
-30.535
-30.638
-30.738
-30.835
-30.928
-31.017
-31.1
-31.178
-31.25
-31.315
-31.374
-31.426
-31.472
-31.511
-31.544
-31.573
-31.596
-31.617
-31.635
-31.651
-31.667
-31.685
-31.704
-31.728
-31.757
-31.793
-31.839
-31.896
-31.966
-32.052
-32.155
-32.277
-32.42
-32.584
-32.771
-32.981
-33.215
-33.474
-33.757
-34.065
-34.396
-34.751
-35.128
-35.527
-35.945
-36.379
-36.826
-37.283
-37.747
-38.212
-38.674
-39.128
-39.57
-39.995
-40.399
-40.775
-41.119
-41.424
-41.685
-41.896
-42.05
-42.141
-42.162
-42.108
-41.975
-41.759
-41.458
-41.067
-40.586
-40.011
-39.342
-38.578
-37.719
-36.764
-35.713
-34.571
-33.34
-32.026
-30.633
-29.17
-27.645
-26.068
-24.449
-22.798
-21.124
-19.437
-17.744
-16.056
-14.381
-12.726
-11.098
-9.509
-7.97
-6.495
-5.095
-3.781
-2.561
-1.446
-0.442
0.442
1.205
1.849
2.375
2.778
3.049
3.172
3.14
2.96
2.637
2.176
1.593
0.909
0.163
-0.578
-1.265
-1.867
-2.371
-2.775
-3.074
-3.248
-3.274
-3.149
-2.878
-2.472
-1.935
-1.252
-0.447
0.415
1.209
1.752
1.897
1.551
0.655
-0.84
-2.966
-5.762
-9.22
-13.233
-17.692
-22.513
-27.647
-33.109
-38.81
-44.529
-49.931
-54.583
-58.094
-60.173
-60.47
-58.576
-54.335
-47.801
-39.342
-29.774
-19.735
-9.611
0.079
8.986
17.276
25.524
34.937
47.13
63.071
83.205
107.986
137.199
169.428
201.882
230.344
250.493
258.886
252.66
229.027
185.781
122.745
42.581
-49.756
-148.932
-249.748
-347.055
-435.106
-507.431
-559.626
-590.48
-600.906
-592.806
-568.693
-531.369
-484.979
-435.423
-387.204
-342.725
-303.231
-268.872
-239.437
-214.795
-193.774
-174.0
-153.956
-133.083
-111.375
-89.604
-68.485
-48.417
-30.139
-14.628
-2.402
6.378
11.853
14.557
14.985
13.544
10.726
7.024
2.836
-1.475
-5.59
-9.263
-12.269
-14.429
-15.637
-15.829
-14.98
-13.102
-10.255
-6.543
-2.111
2.887
8.311
14.018
19.873
25.723
31.396
36.741
41.657
46.076
49.966
53.312
56.105
58.361
60.129
61.474
62.468
63.177
63.655
63.966
64.177
64.366
64.618
65.0
65.556
66.326
67.336
68.609
70.163
72.007
74.131
76.531
79.203
82.143
85.354
88.832
92.564
96.537
100.737
105.149
109.762
114.559
119.523
124.638
129.885
135.247
140.707
146.244
151.834
157.45
163.065
168.65
174.177
179.616
184.936
190.107
195.1
199.889
204.444
208.741
212.753
216.455
219.825
222.841
225.484
227.734
229.575
230.992
231.975
232.512
232.597
232.223
231.387
230.089
228.33
226.114
223.447
220.337
216.794
212.831
208.464
203.708
198.582
193.108
187.306
181.2
174.817
168.18
161.317
154.256
147.023
139.648
132.158
124.583
116.95
109.288
101.625
93.987
86.401
78.893
71.488
64.208
57.075
50.109
43.332
36.758
30.406
24.29
18.421
12.812
7.472
2.409
-2.372
-6.865
-11.07
-14.984
-18.608
-21.945
-24.999
-27.774
-30.277
-32.515
-34.497
-36.233
-37.732
-39.008
-40.071
-40.934
-41.61
-42.112
-42.455
-42.651
-42.714
-42.656
-42.492
-42.234
-41.893
-41.483
-41.015
-40.498
-39.945
-39.365
-38.766
-38.157
-37.546
-36.94
-36.344
-35.765
-35.207
-34.674
-34.17
-33.698
-33.26
-32.857
-32.491
-32.161
-31.868
-31.612
-31.39
-31.202
-31.047
-30.922
-30.825
-30.754
-30.707
-30.682
-30.677
-30.689
-30.715
-30.755
-30.805
-30.863
-30.928
-30.998
-31.071
-31.146
-31.222
-31.297
-31.37
-31.442
-31.51
-31.575
-31.636
-31.692
-31.744
-31.792
-31.835
-31.874
-31.909
-31.941
-31.97
-31.998
-32.023
-32.048
-32.073
-32.098
-32.123
-32.15
-32.178
-32.209
-32.242
-32.278
-32.317
-32.36
-32.406
-32.455
-32.507
-32.563
-32.622
-32.684
-32.749
-32.816
-32.885
-32.957
-33.03
-33.105
-33.181
-33.258
-33.336
-33.415
-33.494
-33.574
-33.655
-33.735
-33.816
-33.897
-33.979
-34.061
-34.143
-34.227
-34.311
-34.398
-34.486
-34.578
-34.673
-34.773
-34.878
-34.989
-35.107
-35.232
-35.366
-35.509
-35.663
-35.828
-36.006
-36.196
-36.4
-36.619
-36.852
-37.101
-37.363
-37.64
-37.93
-38.233
-38.548
-38.874
-39.21
-39.553
-39.905
-40.262
-40.622
-40.983
-41.342
-41.697
-42.044
-42.379
-42.699
-43.0
-43.277
-43.528
-43.748
-43.934
-44.081
-44.185
-44.242
-44.248
-44.198
-44.088
-43.912
-43.667
-43.35
-42.96
-42.496
-41.955
-41.338
-40.643
-39.873
-39.027
-38.107
-37.114
-36.049
-34.914
-33.714
-32.454
-31.138
-29.773
-28.365
-26.924
-25.458
-23.978
-22.49
-21.004
-19.525
-18.062
-16.622
-15.213
-13.838
-12.505
-11.222
-9.997
-8.842
-7.764
-6.769
-5.863
-5.052
-4.337
-3.723
-3.206
-2.781
-2.446
-2.204
-2.059
-2.027
-2.11
-2.302
-2.601
-2.997
-3.468
-3.988
-4.509
-4.973
-5.346
-5.605
-5.731
-5.731
-5.593
-5.301
-4.86
-4.26
-3.489
-2.55
-1.434
-0.147
1.252
2.664
3.951
4.943
5.522
5.608
5.117
4.017
2.281
-0.097
-3.022
-6.416
-10.232
-14.434
-19.022
-23.944
-28.991
-33.865
-38.22
-41.654
-43.86
-44.506
-43.122
-39.525
-33.782
-26.217
-17.608
-8.618
0.487
9.296
17.255
24.425
31.232
38.659
48.568
62.215
79.88
101.946
128.616
158.747
190.151
219.328
241.387
252.235
249.049
228.866
189.002
128.999
50.566
-42.399
-143.879
-247.909
-349.191
-441.526
-518.134
-574.485
-608.479
-620.122
-611.777
-586.435
-547.08
-498.288
-446.022
-394.745
-347.33
-305.49
-269.246
-238.279
-212.401
-190.253
-169.534
-148.843
-127.552
-105.564
-83.664
-62.546
-42.605
-24.64
-9.605
2.021
10.089
14.788
16.689
16.29
14.017
10.411
5.997
1.231
-3.468
-7.805
-11.558
-14.513
-16.519
-17.467
-17.291
-15.992
-13.609
-10.219
-5.947
-0.941
4.65
10.648
16.887
23.197
29.387
35.308
40.836
45.873
50.371
54.297
57.634
60.392
62.608
64.327
65.618
66.548
67.174
67.57
67.809
67.971
68.148
68.412
68.814
69.396
70.188
71.212
72.487
74.021
75.808
77.843
80.123
82.644
85.407
88.408
91.637
95.08
98.721
102.547
106.546
110.707
115.013
119.451
124.006
128.663
133.41
138.229
143.099
147.998
152.901
157.782
162.617
167.379
172.041
176.576
180.958
185.164
189.169
192.952
196.489
199.759
202.743
205.421
207.778
209.798
211.466
212.77
213.701
214.249
214.41
214.177
213.548
212.523
211.101
209.287
207.085
204.502
201.547
198.23
194.565
190.566
186.25
181.633
176.736
171.578
166.181
160.569
154.763
148.787
142.665
136.42
130.078
123.662
117.196
110.702
104.205
97.726
91.287
84.909
78.613
72.418
66.341
60.4
54.611
48.99
43.549
38.3
33.256
28.425
23.816
19.434
15.286
11.374
7.702
4.268
1.074
-1.884
-4.609
-7.105
-9.377
-11.432
-13.278
-14.922
-16.373
-17.64
-18.734
-19.663
-20.438
-21.07
-21.569
-21.946
-22.211
-22.374
-22.446
-22.437
-22.357
-22.215
-22.021
-21.784
-21.511
-21.211
-20.891
-20.558
-20.218
-19.876
-19.538
-19.207
-18.888
-18.583
-18.295
-18.026
-17.776
-17.548
-17.34
-17.154
-16.989
-16.845
-16.721
-16.616
-16.529
-16.459
-16.405
-16.365
-16.339
-16.325
-16.322
-16.327
-16.341
-16.362
-16.389
-16.42
-16.455
-16.492
-16.532
-16.573
-16.614
-16.656
-16.698
-16.74
-16.782
-16.825
-16.868
-16.914
-16.961
-17.012
-17.067
-17.126
-17.191
-17.263
-17.342
-17.429
-17.525
-17.63
-17.746
-17.871
-18.008
-18.155
-18.313
-18.483
-18.664
-18.856
-19.058
-19.271
-19.494
-19.727
-19.968
-20.219
-20.477
-20.742
-21.013
-21.289
-21.569
-21.853
-22.137
-22.423
-22.707
-22.99
-23.269
-23.543
-23.812
-24.074
-24.327
-24.572
-24.806
-25.029
-25.24
-25.439
-25.625
-25.798
-25.957
-26.103
-26.236
-26.356
-26.463
-26.557
-26.639
-26.71
-26.77
-26.82
-26.862
-26.897
-26.926
-26.95
-26.973
-26.995
-27.017
-27.043
-27.073
-27.109
-27.154
-27.21
-27.278
-27.361
-27.46
-27.578
-27.716
-27.875
-28.058
-28.264
-28.494
-28.749
-29.03
-29.335
-29.666
-30.021
-30.401
-30.804
-31.229
-31.675
-32.138
-32.617
-33.109
-33.609
-34.115
-34.62
-35.121
-35.614
-36.093
-36.555
-36.994
-37.405
-37.782
-38.12
-38.414
-38.656
-38.842
-38.964
-39.017
-38.997
-38.9
-38.722
-38.459
-38.109
-37.67
-37.139
-36.515
-35.797
-34.985
-34.077
-33.075
-31.982
-30.802
-29.539
-28.199
-26.788
-25.316
-23.793
-22.227
-20.627
-19.0
-17.355
-15.7
-14.044
-12.393
-10.754
-9.136
-7.549
-6.007
-4.52
-3.099
-1.751
-0.486
0.688
1.76
2.728
3.592
4.352
5.004
5.536
5.931
6.183
6.293
6.268
6.116
5.846
5.476
5.041
4.593
4.191
3.87
3.644
3.514
3.491
3.591
3.844
4.268
4.846
5.561
6.399
7.355
8.417
9.526
10.556
11.339
11.714
11.563
10.827
9.457
7.395
4.594
1.03
-3.244
-8.102
-13.438
-19.202
-25.372
-31.88
-38.519
-44.933
-50.697
-55.401
-58.732
-60.359
-59.83
-56.892
-51.556
-44.111
-35.296
-25.841
-16.069
-6.427
2.485
10.735
18.795
27.7
39.408
55.264
75.599
100.902
131.471
166.108
202.5
236.701
263.22
277.806
277.537
259.363
220.533
160.051
79.169
-17.848
-124.501
-234.98
-344.233
-446.836
-536.449
-607.141
-655.304
-680.252
-683.576
-667.383
-633.489
-584.06
-523.642
-458.187
-392.621
-330.683
-274.427
-224.75
-183.158
-151.45
-129.159
-114.138
-104.037
-96.144
-89.016
-82.476
-75.641
-67.119
-56.607
-44.563
-32.053
-20.952
-12.181
-5.645
-1.463
0.209
-0.523
-3.492
-8.052
-12.982
-17.49
-21.225
-23.933
-25.597
-26.18
-25.54
-23.718
-20.916
-17.309
-13.073
-8.34
-3.148
2.407
8.181
14.013
19.69
25.042
29.975
34.417
38.342
41.739
44.586
46.894
48.712
50.099
51.126
51.851
52.313
52.566
52.681
52.739
52.84
53.059
53.445
54.036
54.857
55.93
57.274
58.897
60.787
62.935
65.337
67.99
70.897
74.055
77.452
81.073
84.901
88.92
93.119
97.483
101.995
106.638
111.395
116.251
121.193
126.2
131.252
136.325
141.393
146.431
151.412
156.311
161.099
165.75
170.237
174.536
178.624
182.476
186.072
189.389
192.409
195.112
197.482
199.505
201.166
202.454
203.359
203.874
203.994
203.714
203.033
201.95
200.469
198.594
196.332
193.689
190.677
187.306
183.591
179.548
175.193
170.544
165.621
160.445
155.038
149.423
143.622
137.661
131.562
125.35
119.05
112.686
106.281
99.86
93.445
87.059
80.724
74.462
68.292
62.234
56.304
50.521
44.899
39.452
34.193
29.134
24.283
19.65
15.241
11.062
7.117
3.407
-0.064
-3.298
-6.297
-9.062
-11.598
-13.91
-16.004
-17.887
-19.566
-21.051
-22.35
-23.473
-24.43
-25.232
-25.89
-26.414
-26.815
-27.104
-27.293
-27.391
-27.409
-27.356
-27.243
-27.077
-26.868
-26.623
-26.35
-26.055
-25.745
-25.425
-25.1
-24.775
-24.454
-24.14
-23.836
-23.544
-23.266
-23.004
-22.758
-22.529
-22.318
-22.123
-21.945
-21.784
-21.637
-21.505
-21.386
-21.278
-21.181
-21.093
-21.014
-20.941
-20.873
-20.812
-20.754
-20.7
-20.651
-20.605
-20.562
-20.523
-20.489
-20.458
-20.433
-20.414
-20.4
-20.394
-20.395
-20.405
-20.423
-20.451
-20.49
-20.539
-20.6
-20.672
-20.756
-20.853
-20.962
-21.083
-21.218
-21.365
-21.525
-21.696
-21.88
-22.074
-22.278
-22.491
-22.711
-22.938
-23.17
-23.404
-23.64
-23.875
-24.108
-24.337
-24.56
-24.775
-24.981
-25.174
-25.355
-25.522
-25.672
-25.806
-25.921
-26.018
-26.096
-26.154
-26.191
-26.207
-26.203
-26.177
-26.13
-26.062
-25.974
-25.865
-25.737
-25.59
-25.426
-25.246
-25.05
-24.841
-24.62
-24.388
-24.148
-23.901
-23.649
-23.395
-23.14
-22.886
-22.637
-22.394
-22.159
-21.934
-21.72
-21.52
-21.335
-21.166
-21.015
-20.883
-20.772
-20.682
-20.617
-20.576
-20.561
-20.572
-20.61
-20.675
-20.768
-20.889
-21.037
-21.212
-21.413
-21.641
-21.895
-22.173
-22.474
-22.796
-23.136
-23.493
-23.863
-24.242
-24.627
-25.015
-25.4
-25.781
-26.154
-26.516
-26.862
-27.187
-27.489
-27.762
-28.003
-28.205
-28.365
-28.475
-28.533
-28.535
-28.477
-28.357
-28.171
-27.917
-27.591
-27.193
-26.721
-26.172
-25.546
-24.841
-24.058
-23.199
-22.268
-21.268
-20.204
-19.083
-17.912
-16.698
-15.448
-14.167
-12.861
-11.535
-10.195
-8.846
-7.493
-6.142
-4.801
-3.481
-2.193
-0.946
0.252
1.393
2.47
3.475
4.402
5.253
6.025
6.714
7.312
7.799
8.165
8.411
8.541
8.563
8.492
8.336
8.126
7.909
7.729
7.633
7.645
7.756
7.975
8.314
8.791
9.444
10.272
11.232
12.304
13.471
14.702
15.969
17.174
18.143
18.728
18.789
18.231
17.034
15.141
12.486
9.038
4.778
-0.208
-5.753
-11.751
-18.149
-24.879
-31.834
-38.734
-45.14
-50.661
-54.927
-57.656
-58.567
-57.211
-53.341
-47.011
-38.55
-28.735
-18.323
-7.616
2.958
12.754
21.795
30.459
39.652
51.293
66.68
86.077
109.935
138.494
170.538
203.822
234.585
257.6
268.881
265.722
245.205
204.731
143.45
62.724
-33.177
-137.944
-246.07
-352.765
-452.578
-539.136
-606.478
-650.947
-672.191
-672.103
-652.654
-615.561
-563.383
-500.968
-434.784
-370.374
-310.832
-257.433
-211.046
-173.016
-144.666
-125.303
-111.939
-101.249
-91.332
-81.619
-72.089
-62.259
-50.951
-37.82
-24.063
-11.528
-1.456
5.804
10.555
13.11
13.276
10.998
6.831
1.766
-3.229
-7.547
-10.97
-13.486
-14.985
-15.321
-14.452
-12.47
-9.556
-5.892
-1.611
3.21
8.496
14.123
19.946
25.787
31.451
36.781
41.679
46.079
49.952
53.284
56.058
58.285
60.017
61.319
62.262
62.904
63.288
63.468
63.515
63.516
63.565
63.731
64.059
64.585
65.335
66.332
67.595
69.129
70.925
72.973
75.269
77.811
80.602
83.639
86.91
90.399
94.093
97.977
102.041
106.272
110.655
115.173
119.812
124.557
129.395
134.308
139.274
144.271
149.274
154.259
159.199
164.069
168.842
173.489
177.987
182.309
186.433
190.334
193.989
197.376
200.475
203.267
205.734
207.859
209.627
211.026
212.044
212.673
212.904
212.733
212.155
211.168
209.773
207.973
205.772
203.175
200.192
196.832
193.107
189.032
184.623
179.896
174.871
169.568
164.007
158.213
152.208
146.016
139.662
133.171
126.569
119.88
113.13
106.344
99.547
92.764
86.019
79.334
72.732
66.235
59.864
53.636
47.572
41.687
35.998
30.518
25.26
20.236
15.455
10.925
6.652
2.641
-1.104
-4.582
-7.793
-10.738
-13.42
-15.844
-18.015
-19.941
-21.628
-23.087
-24.326
-25.357
-26.191
-26.84
-27.317
-27.633
-27.803
-27.84
-27.756
-27.565
-27.281
-26.916
-26.483
-25.995
-25.462
-24.898
-24.312
-23.716
-23.117
-22.526
-21.95
-21.397
-20.874
-20.385
-19.937
-19.533
-19.177
-18.871
-18.617
-18.416
-18.268
-18.173
-18.13
-18.137
-18.194
-18.297
-18.443
-18.63
-18.854
-19.112
-19.399
-19.712
-20.047
-20.399
-20.764
-21.139
-21.519
-21.9
-22.279
-22.653
-23.017
-23.37
-23.708
-24.029
-24.33
-24.61
-24.867
-25.101
-25.31
-25.493
-25.651
-25.785
-25.893
-25.978
-26.039
-26.079
-26.098
-26.098
-26.081
-26.049
-26.004
-25.948
-25.884
-25.813
-25.737
-25.66
-25.584
-25.51
-25.44
-25.377
-25.323
-25.279
-25.247
-25.229
-25.225
-25.237
-25.266
-25.313
-25.377
-25.46
-25.56
-25.678
-25.814
-25.967
-26.135
-26.318
-26.516
-26.726
-26.947
-27.178
-27.416
-27.661
-27.91
-28.162
-28.413
-28.664
-28.911
-29.152
-29.387
-29.613
-29.829
-30.034
-30.225
-30.402
-30.564
-30.71
-30.838
-30.949
-31.043
-31.118
-31.177
-31.219
-31.246
-31.257
-31.256
-31.241
-31.216
-31.182
-31.141
-31.094
-31.044
-30.994
-30.945
-30.901
-30.865
-30.839
-30.825
-30.826
-30.844
-30.881
-30.938
-31.019
-31.123
-31.253
-31.409
-31.593
-31.806
-32.047
-32.316
-32.611
-32.932
-33.275
-33.64
-34.021
-34.416
-34.822
-35.234
-35.649
-36.062
-36.47
-36.867
-37.247
-37.605
-37.936
-38.232
-38.486
-38.693
-38.845
-38.938
-38.965
-38.922
-38.805
-38.608
-38.327
-37.959
-37.501
-36.949
-36.301
-35.555
-34.71
-33.769
-32.734
-31.608
-30.396
-29.106
-27.744
-26.319
-24.837
-23.307
-21.734
-20.126
-18.488
-16.828
-15.152
-13.468
-11.786
-10.119
-8.479
-6.878
-5.327
-3.837
-2.416
-1.078
0.17
1.328
2.388
3.347
4.194
4.907
5.476
5.901
6.184
6.334
6.364
6.282
6.118
5.92
5.728
5.591
5.536
5.556
5.659
5.86
6.176
6.644
7.269
8.008
8.839
9.748
10.707
11.696
12.632
13.354
13.723
13.609
12.913
11.612
9.658
6.982
3.547
-0.667
-5.597
-11.083
-17.009
-23.324
-29.976
-36.876
-43.792
-50.333
-56.116
-60.783
-64.045
-65.591
-64.976
-61.909
-56.37
-48.619
-39.339
-29.261
-18.756
-8.293
1.468
10.503
19.185
28.455
40.225
55.921
76.018
101.141
131.777
166.92
204.453
240.59
269.817
287.772
291.361
277.248
242.377
185.414
107.118
11.389
-95.187
-206.778
-318.178
-423.579
-516.672
-591.395
-643.48
-671.85
-678.279
-664.86
-633.786
-587.756
-530.642
-467.957
-404.995
-345.533
-291.331
-243.204
-201.877
-168.338
-143.008
-124.44
-110.28
-98.113
-86.662
-75.78
-65.382
-54.886
-43.41
-30.934
-18.392
-7.308
1.307
7.383
11.18
12.916
12.471
9.831
5.507
0.467
-4.358
-8.45
-11.595
-13.781
-14.937
-14.91
-13.674
-11.349
-8.13
-4.213
0.252
5.187
10.519
16.131
21.88
27.583
33.038
38.109
42.713
46.801
50.361
53.376
55.831
57.755
59.209
60.266
60.999
61.461
61.693
61.75
61.706
61.645
61.66
61.816
62.154
62.707
63.499
64.554
65.889
67.509
69.398
71.55
73.96
76.626
79.552
82.732
86.152
89.798
93.653
97.703
101.936
106.338
110.889
115.573
120.375
125.277
130.265
135.319
140.417
145.535
150.648
155.73
160.756
165.698
170.529
175.221
179.748
184.085
188.209
192.094
195.717
199.056
202.091
204.803
207.173
209.185
210.826
212.081
212.941
213.398
213.445
213.077
212.292
211.09
209.472
207.442
205.006
202.171
198.948
195.346
191.381
187.066
182.42
177.459
172.204
166.676
160.897
154.892
148.684
142.298
135.761
129.097
122.334
115.498
108.615
101.711
94.812
87.944
81.131
74.396
67.763
61.252
54.885
48.681
42.656
36.828
31.212
25.82
20.663
15.753
11.098
6.704
2.577
-1.28
-4.865
-8.178
-11.219
-13.992
-16.501
-18.751
-20.75
-22.505
-24.026
-25.323
-26.408
-27.292
-27.989
-28.511
-28.873
-29.088
-29.17
-29.133
-28.991
-28.758
-28.447
-28.071
-27.642
-27.171
-26.671
-26.15
-25.619
-25.087
-24.561
-24.049
-23.557
-23.09
-22.655
-22.254
-21.89
-21.566
-21.284
-21.045
-20.847
-20.692
-20.577
-20.5
-20.46
-20.453
-20.477
-20.527
-20.6
-20.692
-20.799
-20.916
-21.041
-21.169
-21.296
-21.419
-21.535
-21.64
-21.734
-21.812
-21.874
-21.918
-21.944
-21.949
-21.935
-21.901
-21.848
-21.776
-21.686
-21.581
-21.46
-21.327
-21.183
-21.031
-20.874
-20.713
-20.552
-20.394
-20.242
-20.098
-19.966
-19.848
-19.747
-19.666
-19.607
-19.572
-19.563
-19.582
-19.63
-19.708
-19.817
-19.958
-20.13
-20.334
-20.569
-20.835
-21.131
-21.455
-21.806
-22.183
-22.584
-23.006
-23.448
-23.908
-24.382
-24.868
-25.363
-25.866
-26.372
-26.88
-27.386
-27.887
-28.382
-28.866
-29.338
-29.796
-30.236
-30.658
-31.059
-31.437
-31.792
-32.122
-32.426
-32.704
-32.954
-33.176
-33.37
-33.537
-33.676
-33.787
-33.873
-33.934
-33.971
-33.986
-33.979
-33.954
-33.91
-33.851
-33.779
-33.694
-33.601
-33.5
-33.395
-33.287
-33.18
-33.076
-32.977
-32.885
-32.802
-32.729
-32.667
-32.619
-32.585
-32.565
-32.562
-32.575
-32.605
-32.652
-32.716
-32.796
-32.889
-32.995
-33.112
-33.237
-33.366
-33.497
-33.626
-33.75
-33.866
-33.972
-34.061
-34.131
-34.176
-34.193
-34.177
-34.122
-34.023
-33.874
-33.672
-33.413
-33.093
-32.71
-32.26
-31.74
-31.149
-30.485
-29.747
-28.933
-28.041
-27.072
-26.028
-24.91
-23.724
-22.474
-21.164
-19.805
-18.403
-16.968
-15.505
-14.023
-12.529
-11.029
-9.531
-8.038
-6.558
-5.098
-3.669
-2.282
-0.948
0.323
1.521
2.638
3.663
4.589
5.411
6.132
6.75
7.26
7.651
7.906
8.018
7.99
7.828
7.539
7.134
6.631
6.064
5.488
4.956
4.506
4.149
3.883
3.717
3.666
3.758
4.012
4.408
4.919
5.532
6.239
7.027
7.848
8.582
9.067
9.156
8.742
7.77
6.208
3.999
1.099
-2.52
-6.824
-11.671
-16.929
-22.519
-28.39
-34.499
-40.698
-46.664
-52.005
-56.358
-59.394
-60.885
-60.533
-57.886
-52.753
-45.224
-35.705
-25.068
-14.036
-2.901
7.885
17.699
26.5
34.626
43.059
53.78
68.215
86.766
109.911
137.936
169.659
202.804
233.718
257.223
268.968
265.934
244.929
203.083
139.928
57.255
-40.741
-147.588
-257.155
-363.952
-461.527
-542.907
-603.065
-639.458
-652.238
-644.039
-617.659
-576.089
-523.739
-466.296
-409.172
-356.195
-309.13
-268.112
-233.216
-204.326
-180.746
-160.963
-142.59
-124.022
-105.009
-85.941
-67.311
-49.592
-32.869
-17.341
-4.143
5.988
13.014
17.046
18.608
18.279
16.188
12.497
7.877
2.896
-1.976
-6.242
-9.761
-12.463
-14.153
-14.725
-14.181
-12.546
-9.928
-6.493
-2.35
2.378
7.558
13.068
18.758
24.457
29.989
35.195
39.972
44.253
48.005
51.213
53.866
55.983
57.616
58.837
59.718
60.326
60.712
60.933
61.064
61.188
61.392
61.748
62.301
63.086
64.133
65.462
67.092
69.027
71.256
73.77
76.563
79.63
82.971
86.58
90.443
94.545
98.866
103.393
108.111
113.004
118.052
123.238
128.541
133.946
139.434
144.985
150.574
156.174
161.759
167.299
172.768
178.136
183.373
188.449
193.339
198.013
202.448
206.618
210.499
214.068
217.305
220.188
222.702
224.828
226.553
227.863
228.748
229.201
229.213
228.782
227.905
226.581
224.813
222.606
219.966
216.901
213.422
209.541
205.274
200.638
195.65
190.331
184.701
178.785
172.607
166.191
159.563
152.751
145.78
138.677
131.471
124.188
116.856
109.5
102.147
94.824
87.555
80.365
73.277
66.313
59.493
52.839
46.368
40.097
34.042
28.216
22.631
17.299
12.228
7.425
2.896
-1.355
-5.327
-9.018
-12.431
-15.568
-18.433
-21.032
-23.372
-25.461
-27.307
-28.921
-30.314
-31.496
-32.481
-33.281
-33.909
-34.378
-34.701
-34.893
-34.967
-34.935
-34.812
-34.609
-34.34
-34.015
-33.646
-33.243
-32.818
-32.378
-31.932
-31.489
-31.054
-30.635
-30.236
-29.862
-29.517
-29.203
-28.922
-28.676
-28.466
-28.292
-28.153
-28.048
-27.976
-27.936
-27.925
-27.94
-27.979
-28.04
-28.118
-28.211
-28.316
-28.429
-28.548
-28.669
-28.79
-28.909
-29.024
-29.131
-29.23
-29.319
-29.396
-29.461
-29.512
-29.551
-29.576
-29.588
-29.588
-29.576
-29.553
-29.521
-29.481
-29.434
-29.382
-29.326
-29.268
-29.211
-29.154
-29.101
-29.053
-29.011
-28.978
-28.955
-28.943
-28.944
-28.957
-28.985
-29.028
-29.086
-29.161
-29.251
-29.357
-29.479
-29.617
-29.771
-29.939
-30.12
-30.314
-30.52
-30.735
-30.96
-31.193
-31.433
-31.678
-31.928
-32.183
-32.441
-32.702
-32.964
-33.228
-33.493
-33.758
-34.023
-34.288
-34.553
-34.819
-35.085
-35.353
-35.623
-35.896
-36.171
-36.45
-36.733
-37.02
-37.312
-37.608
-37.91
-38.218
-38.532
-38.853
-39.181
-39.516
-39.857
-40.203
-40.553
-40.905
-41.256
-41.603
-41.945
-42.277
-42.598
-42.904
-43.193
-43.46
-43.701
-43.912
-44.088
-44.225
-44.317
-44.358
-44.343
-44.268
-44.129
-43.922
-43.645
-43.294
-42.866
-42.359
-41.772
-41.103
-40.35
-39.511
-38.587
-37.578
-36.488
-35.32
-34.079
-32.77
-31.403
-29.984
-28.522
-27.025
-25.5
-23.954
-22.395
-20.831
-19.266
-17.708
-16.167
-14.652
-13.178
-11.756
-10.398
-9.114
-7.913
-6.806
-5.801
-4.903
-4.111
-3.426
-2.854
-2.403
-2.092
-1.929
-1.912
-2.037
-2.296
-2.679
-3.172
-3.742
-4.339
-4.908
-5.408
-5.823
-6.155
-6.395
-6.532
-6.544
-6.399
-6.113
-5.711
-5.202
-4.591
-3.884
-3.111
-2.372
-1.829
-1.638
-1.921
-2.752
-4.159
-6.198
-8.91
-12.32
-16.416
-21.066
-26.14
-31.552
-37.263
-43.252
-49.407
-55.455
-60.998
-65.63
-68.987
-70.796
-70.738
-68.393
-63.607
-56.477
-47.414
-37.274
-26.721
-16.103
-5.901
3.507
12.294
21.021
30.861
43.503
59.933
80.499
105.572
134.865
166.86
198.745
226.324
245.197
251.927
243.774
218.072
172.78
107.915
26.249
-67.191
-166.943
-267.757
-364.515
-451.528
-522.466
-573.1
-602.337
-611.197
-601.724
-576.534
-538.489
-491.734
-442.086
-393.93
-349.583
-310.24
-275.99
-246.564
-221.803
-200.543
-180.485
-160.207
-139.224
-117.533
-95.911
-75.063
-55.368
-37.559
-22.571
-10.874
-2.603
2.418
4.75
4.887
3.239
0.328
-3.352
-7.376
-11.348
-14.993
-18.103
-20.476
-21.974
-22.498
-21.986
-20.44
-17.894
-14.415
-10.126
-5.166
0.321
6.163
12.207
18.288
24.226
29.88
35.133
39.896
44.124
47.793
50.888
53.423
55.434
56.968
58.091
58.87
59.362
59.639
59.775
59.848
59.951
60.155
60.512
61.067
61.851
62.889
64.202
65.802
67.684
69.849
72.294
75.02
78.031
81.322
84.887
88.713
92.786
97.092
101.62
106.356
111.284
116.389
121.653
127.059
132.593
138.234
143.958
149.74
155.552
161.365
167.15
172.878
178.517
184.036
189.406
194.597
199.581
204.33
208.817
213.015
216.899
220.445
223.63
226.435
228.84
230.827
232.382
233.493
234.148
234.342
234.067
233.32
232.101
230.411
228.255
225.64
222.574
219.068
215.136
210.795
206.061
200.955
195.498
189.713
183.624
177.258
170.641
163.801
156.766
149.565
142.226
134.779
127.254
119.68
112.086
104.501
96.952
89.466
82.07
74.789
67.646
60.663
53.861
47.26
40.876
34.725
28.822
23.177
17.802
12.704
7.89
3.364
-0.871
-4.814
-8.467
-11.831
-14.91
-17.71
-20.238
-22.502
-24.511
-26.274
-27.804
-29.112
-30.21
-31.112
-31.832
-32.383
-32.779
-33.035
-33.164
-33.18
-33.097
-32.928
-32.686
-32.382
-32.028
-31.636
-31.215
-30.774
-30.321
-29.865
-29.412
-28.968
-28.538
-28.125
-27.735
-27.369
-27.029
-26.716
-26.432
-26.177
-25.95
-25.751
-25.578
-25.43
-25.306
-25.203
-25.12
-25.054
-25.003
-24.965
-24.938
-24.919
-24.907
-24.899
-24.894
-24.891
-24.887
-24.883
-24.876
-24.866
-24.854
-24.838
-24.82
-24.8
-24.777
-24.754
-24.731
-24.709
-24.69
-24.675
-24.665
-24.662
-24.666
-24.68
-24.704
-24.739
-24.786
-24.847
-24.92
-25.007
-25.107
-25.221
-25.348
-25.487
-25.638
-25.799
-25.971
-26.151
-26.338
-26.531
-26.728
-26.928
-27.128
-27.328
-27.526
-27.719
-27.905
-28.083
-28.252
-28.408
-28.551
-28.679
-28.792
-28.887
-28.964
-29.023
-29.062
-29.081
-29.081
-29.061
-29.023
-28.966
-28.892
-28.803
-28.7
-28.586
-28.462
-28.331
-28.195
-28.056
-27.917
-27.78
-27.648
-27.523
-27.408
-27.305
-27.216
-27.145
-27.094
-27.064
-27.057
-27.075
-27.117
-27.186
-27.28
-27.402
-27.549
-27.722
-27.921
-28.145
-28.392
-28.66
-28.948
-29.253
-29.571
-29.899
-30.233
-30.567
-30.897
-31.219
-31.527
-31.816
-32.083
-32.322
-32.528
-32.695
-32.818
-32.893
-32.913
-32.873
-32.768
-32.594
-32.347
-32.025
-31.627
-31.149
-30.592
-29.954
-29.236
-28.439
-27.562
-26.607
-25.574
-24.467
-23.291
-22.051
-20.753
-19.403
-18.011
-16.586
-15.139
-13.678
-12.213
-10.751
-9.302
-7.873
-6.473
-5.105
-3.778
-2.5
-1.281
-0.132
0.937
1.919
2.808
3.594
4.273
4.838
5.29
5.634
5.871
5.996
6.004
5.882
5.627
5.246
4.747
4.134
3.424
2.64
1.821
1.033
0.324
-0.28
-0.761
-1.115
-1.33
-1.382
-1.255
-0.957
-0.493
0.122
0.879
1.791
2.821
3.889
4.875
5.603
5.93
5.777
5.069
3.742
1.756
-0.936
-4.315
-8.25
-12.64
-17.401
-22.472
-27.86
-33.444
-38.96
-44.093
-48.428
-51.584
-53.292
-53.183
-50.817
-46.049
-38.952
-29.931
-19.858
-9.366
1.201
11.308
20.578
29.147
37.541
47.018
59.267
75.226
95.246
119.675
148.223
179.451
210.599
237.464
255.699
261.902
253.318
227.281
181.663
116.328
33.918
-60.698
-162.205
-265.403
-365.139
-455.577
-530.096
-584.151
-616.357
-627.44
-619.189
-594.071
-554.905
-506.002
-453.506
-402.142
-354.52
-312.056
-275.006
-243.242
-216.673
-194.07
-172.947
-151.698
-129.709
-106.952
-84.223
-62.243
-41.423
-22.529
-6.579
5.883
14.691
19.993
22.352
22.292
20.245
16.732
12.265
7.266
2.119
-2.828
-7.303
-11.065
-13.923
-15.768
-16.531
-16.183
-14.735
-12.25
-8.84
-4.66
0.132
5.391
10.974
16.739
22.526
28.148
33.444
38.305
42.659
46.473
49.728
52.414
54.547
56.177
57.374
58.212
58.758
59.066
59.196
59.218
59.211
59.263
59.441
59.79
60.347
61.138
62.183
63.499
65.092
66.949
69.06
71.419
74.022
76.869
79.952
83.26
86.777
90.488
94.377
98.434
102.641
106.983
111.444
116.005
120.653
125.372
130.144
134.946
139.755
144.547
149.297
153.979
158.568
163.037
167.358
171.509
175.465
179.205
182.705
185.944
188.903
191.563
193.907
195.918
197.584
198.89
199.826
200.384
200.556
200.337
199.725
198.717
197.314
195.519
193.336
190.773
187.838
184.54
180.891
176.907
172.601
167.992
163.096
157.935
152.529
146.9
141.07
135.062
128.901
122.61
116.212
109.733
103.196
96.625
90.043
83.473
76.939
70.461
64.061
57.759
51.574
45.524
39.627
33.897
28.349
22.997
17.851
12.923
8.22
3.751
-0.479
-4.465
-8.204
-11.695
-14.938
-17.933
-20.684
-23.193
-25.466
-27.509
-29.329
-30.932
-32.329
-33.528
-34.539
-35.372
-36.039
-36.551
-36.918
-37.152
-37.266
-37.27
-37.177
-36.997
-36.741
-36.421
-36.046
-35.627
-35.172
-34.692
-34.195
-33.688
-33.179
-32.675
-32.181
-31.704
-31.247
-30.816
-30.413
-30.041
-29.703
-29.4
-29.133
-28.903
-28.71
-28.554
-28.433
-28.346
-28.292
-28.27
-28.276
-28.308
-28.365
-28.442
-28.538
-28.65
-28.775
-28.909
-29.05
-29.196
-29.342
-29.487
-29.628
-29.763
-29.888
-30.002
-30.103
-30.189
-30.259
-30.311
-30.343
-30.356
-30.347
-30.318
-30.267
-30.196
-30.103
-29.989
-29.855
-29.702
-29.531
-29.343
-29.139
-28.921
-28.69
-28.449
-28.198
-27.939
-27.676
-27.409
-27.14
-26.873
-26.608
-26.349
-26.096
-25.853
-25.621
-25.403
-25.2
-25.014
-24.847
-24.7
-24.575
-24.473
-24.395
-24.343
-24.315
-24.315
-24.341
-24.394
-24.474
-24.582
-24.717
-24.879
-25.067
-25.282
-25.521
-25.783
-26.069
-26.376
-26.703
-27.049
-27.412
-27.791
-28.183
-28.589
-29.005
-29.429
-29.86
-30.294
-30.731
-31.166
-31.599
-32.028
-32.449
-32.862
-33.265
-33.655
-34.032
-34.392
-34.734
-35.055
-35.354
-35.628
-35.874
-36.09
-36.275
-36.426
-36.542
-36.622
-36.665
-36.668
-36.629
-36.548
-36.423
-36.251
-36.031
-35.761
-35.44
-35.068
-34.645
-34.171
-33.647
-33.072
-32.449
-31.777
-31.058
-30.292
-29.481
-28.625
-27.727
-26.79
-25.819
-24.818
-23.793
-22.75
-21.696
-20.638
-19.582
-18.533
-17.495
-16.473
-15.47
-14.489
-13.535
-12.611
-11.721
-10.876
-10.081
-9.342
-8.667
-8.057
-7.517
-7.053
-6.665
-6.349
-6.106
-5.933
-5.837
-5.834
-5.929
-6.12
-6.402
-6.763
-7.188
-7.668
-8.171
-8.648
-9.057
-9.349
-9.498
-9.511
-9.379
-9.088
-8.621
-7.94
-7.049
-5.988
-4.775
-3.428
-1.975
-0.441
1.073
2.396
3.379
3.882
3.803
3.116
1.757
-0.341
-3.213
-6.879
-11.253
-16.176
-21.551
-27.332
-33.461
-39.834
-46.175
-52.054
-57.079
-60.878
-63.165
-63.649
-61.873
-57.595
-50.878
-42.052
-31.907
-21.19
-10.202
0.638
10.698
19.993
28.908
38.351
50.237
65.907
85.658
109.959
139.083
171.813
205.84
237.443
261.42
273.515
270.821
250.24
208.912
146.224
63.923
-33.796
-140.645
-250.488
-358.118
-457.66
-542.117
-606.326
-647.64
-665.506
-661.771
-639.138
-599.674
-546.458
-485.163
-420.913
-357.721
-299.153
-246.719
-200.955
-163.343
-134.861
-114.155
-99.678
-89.63
-81.462
-74.192
-67.619
-60.665
-52.278
-42.452
-31.344
-19.797
-9.533
-1.233
5.098
9.205
10.983
10.54
7.982
3.922
-0.485
-4.514
-7.787
-10.04
-11.26
-11.411
-10.384
-8.244
-5.205
-1.455
2.833
7.531
12.611
17.994
23.552
29.137
34.556
39.649
44.324
48.519
52.21
55.384
58.028
60.159
61.827
63.101
64.049
64.729
65.179
65.45
65.606
65.726
65.901
66.203
66.676
67.357
68.271
69.439
70.881
72.603
74.595
76.847
79.354
82.115
85.13
88.397
91.902
95.631
99.568
103.698
108.009
112.486
117.112
121.869
126.742
131.713
136.769
141.888
147.05
152.229
157.399
162.535
167.61
172.595
177.463
182.185
186.735
191.086
195.214
199.094
202.701
206.014
209.01
211.671
213.979
215.917
217.471
218.628
219.379
219.714
219.629
219.118
218.179
216.813
215.021
212.808
210.179
207.144
203.712
199.895
195.708
191.167
186.289
181.094
175.604
169.839
163.824
157.585
151.145
144.532
137.773
130.893
123.921
116.883
109.808
102.721
95.649
88.617
81.65
74.773
68.008
61.376
54.899
48.595
42.483
36.578
30.895
25.449
20.25
15.308
10.633
6.231
2.106
-1.736
-5.296
-8.573
-11.568
-14.284
-16.726
-18.901
-20.814
-22.476
-23.895
-25.083
-26.051
-26.811
-27.376
-27.759
-27.975
-28.037
-27.96
-27.757
-27.443
-27.03
-26.534
-25.966
-25.339
-24.666
-23.958
-23.227
-22.483
-21.734
-20.991
-20.262
-19.554
-18.873
-18.225
-17.616
-17.049
-16.528
-16.055
-15.632
-15.26
-14.939
-14.67
-14.45
-14.279
-14.154
-14.074
-14.035
-14.034
-14.069
-14.136
-14.23
-14.35
-14.492
-14.651
-14.826
-15.011
-15.206
-15.406
-15.608
-15.811
-16.012
-16.208
-16.399
-16.582
-16.757
-16.922
-17.076
-17.22
-17.352
-17.474
-17.584
-17.683
-17.773
-17.854
-17.926
-17.992
-18.051
-18.106
-18.158
-18.208
-18.258
-18.308
-18.361
-18.416
-18.475
-18.539
-18.609
-18.685
-18.767
-18.856
-18.952
-19.055
-19.166
-19.283
-19.406
-19.535
-19.67
-19.809
-19.953
-20.099
-20.247
-20.396
-20.546
-20.696
-20.844
-20.991
-21.134
-21.274
-21.41
-21.54
-21.664
-21.783
-21.894
-21.998
-22.095
-22.185
-22.268
-22.345
-22.417
-22.485
-22.55
-22.612
-22.674
-22.736
-22.8
-22.867
-22.941
-23.021
-23.111
-23.213
-23.328
-23.458
-23.606
-23.772
-23.958
-24.164
-24.392
-24.642
-24.915
-25.211
-25.53
-25.872
-26.237
-26.625
-27.036
-27.467
-27.916
-28.383
-28.863
-29.355
-29.854
-30.356
-30.858
-31.354
-31.842
-32.316
-32.773
-33.207
-33.612
-33.983
-34.316
-34.603
-34.84
-35.019
-35.137
-35.187
-35.168
-35.075
-34.907
-34.659
-34.33
-33.918
-33.423
-32.843
-32.177
-31.425
-30.587
-29.667
-28.668
-27.594
-26.451
-25.245
-23.985
-22.679
-21.338
-19.967
-18.575
-17.17
-15.759
-14.35
-12.951
-11.565
-10.203
-8.874
-7.59
-6.361
-5.198
-4.107
-3.097
-2.177
-1.355
-0.634
-0.014
0.507
0.925
1.23
1.409
1.452
1.363
1.149
0.817
0.376
-0.158
-0.751
-1.354
-1.909
-2.374
-2.737
-2.992
-3.131
-3.139
-2.988
-2.661
-2.178
-1.558
-0.814
0.048
1.023
2.061
3.047
3.825
4.234
4.155
3.522
2.281
0.367
-2.264
-5.636
-9.701
-14.328
-19.405
-24.882
-30.739
-36.921
-43.241
-49.38
-54.946
-59.546
-62.879
-64.593
-64.217
-61.489
-56.389
-49.187
-40.596
-31.284
-21.556
-11.863
-2.797
5.66
13.854
22.858
34.656
50.389
70.316
94.803
123.977
157.032
192.199
225.626
251.925
267.377
269.304
255.122
222.611
169.835
96.868
7.55
-92.147
-197.223
-303.043
-405.104
-498.024
-574.738
-630.281
-663.375
-674.78
-665.963
-638.464
-593.426
-534.437
-468.25
-400.696
-336.016
-277.008
-224.762
-180.775
-147.462
-124.837
-110.385
-101.397
-94.809
-88.722
-82.977
-76.755
-68.483
-57.795
-45.236
-31.945
-19.981
-10.431
-3.193
1.604
3.798
3.529
0.949
-3.293
-7.94
-12.195
-15.702
-18.191
-19.656
-20.065
-19.269
-17.312
-14.396
-10.685
-6.359
-1.55
3.702
9.289
15.069
20.887
26.533
31.845
36.73
41.114
44.976
48.306
51.083
53.319
55.059
56.357
57.283
57.899
58.244
58.374
58.361
58.285
58.248
58.326
58.566
59.009
59.681
60.604
61.801
63.279
65.031
67.052
69.337
71.888
74.709
77.798
81.146
84.737
88.557
92.59
96.825
101.248
105.843
110.593
115.481
120.491
125.609
130.817
136.09
141.405
146.735
152.054
157.333
162.546
167.662
172.653
177.491
182.149
186.602
190.823
194.789
198.474
201.858
204.918
207.636
209.993
211.974
213.562
214.747
215.519
215.869
215.792
215.282
214.34
212.965
211.159
208.929
206.28
203.222
199.765
195.922
191.71
187.143
182.241
177.024
171.514
165.733
159.705
153.456
147.01
140.394
133.633
126.756
119.787
112.755
105.686
98.606
91.542
84.518
77.559
70.688
63.93
57.303
50.83
44.529
38.417
32.511
26.825
21.372
16.164
11.211
6.52
2.099
-2.047
-5.917
-9.508
-12.82
-15.854
-18.615
-21.107
-23.335
-25.306
-27.029
-28.513
-29.767
-30.804
-31.635
-32.271
-32.727
-33.015
-33.149
-33.142
-33.008
-32.76
-32.413
-31.979
-31.47
-30.901
-30.281
-29.624
-28.939
-28.237
-27.528
-26.82
-26.122
-25.44
-24.781
-24.151
-23.554
-22.995
-22.477
-22.003
-21.575
-21.193
-20.859
-20.572
-20.332
-20.137
-19.986
-19.877
-19.807
-19.774
-19.775
-19.807
-19.865
-19.948
-20.052
-20.173
-20.308
-20.454
-20.608
-20.767
-20.928
-21.089
-21.248
-21.402
-21.549
-21.69
-21.821
-21.943
-22.055
-22.156
-22.247
-22.328
-22.399
-22.46
-22.512
-22.557
-22.595
-22.628
-22.657
-22.683
-22.708
-22.734
-22.762
-22.793
-22.829
-22.872
-22.923
-22.982
-23.052
-23.133
-23.226
-23.333
-23.453
-23.587
-23.735
-23.898
-24.075
-24.265
-24.469
-24.685
-24.912
-25.149
-25.396
-25.65
-25.91
-26.175
-26.444
-26.714
-26.985
-27.254
-27.52
-27.782
-28.039
-28.288
-28.528
-28.759
-28.98
-29.19
-29.387
-29.572
-29.743
-29.901
-30.044
-30.173
-30.288
-30.389
-30.476
-30.551
-30.613
-30.665
-30.708
-30.744
-30.774
-30.8
-30.825
-30.85
-30.877
-30.91
-30.949
-30.997
-31.057
-31.13
-31.219
-31.326
-31.452
-31.598
-31.765
-31.955
-32.167
-32.401
-32.658
-32.937
-33.238
-33.559
-33.901
-34.263
-34.643
-35.038
-35.446
-35.865
-36.291
-36.72
-37.148
-37.57
-37.981
-38.377
-38.752
-39.103
-39.424
-39.709
-39.952
-40.15
-40.295
-40.382
-40.405
-40.359
-40.24
-40.044
-39.768
-39.411
-38.971
-38.446
-37.835
-37.14
-36.36
-35.497
-34.55
-33.521
-32.413
-31.231
-29.98
-28.666
-27.296
-25.878
-24.422
-22.941
-21.442
-19.934
-18.427
-16.929
-15.451
-14.0
-12.583
-11.206
-9.879
-8.613
-7.418
-6.307
-5.285
-4.36
-3.542
-2.836
-2.249
-1.782
-1.43
-1.191
-1.069
-1.069
-1.205
-1.483
-1.896
-2.438
-3.106
-3.884
-4.75
-5.667
-6.567
-7.4
-8.139
-8.761
-9.263
-9.637
-9.856
-9.91
-9.8
-9.524
-9.094
-8.514
-7.767
-6.886
-5.95
-5.074
-4.442
-4.198
-4.429
-5.217
-6.621
-8.682
-11.437
-14.849
-18.807
-23.227
-28.053
-33.267
-38.852
-44.656
-50.416
-55.798
-60.383
-63.84
-65.8
-65.773
-63.503
-58.969
-52.405
-44.485
-35.856
-26.821
-17.842
-9.508
-1.775
5.737
14.141
25.437
40.76
60.382
84.689
113.853
147.117
182.738
216.886
244.138
260.703
263.852
250.944
219.721
168.299
96.68
8.607
-89.739
-193.194
-296.95
-396.259
-486.029
-559.709
-612.389
-642.893
-652.553
-643.141
-616.763
-575.272
-521.544
-461.397
-400.424
-342.421
-289.502
-242.425
-201.721
-168.713
-144.188
-126.543
-113.374
-102.226
-91.567
-81.349
-71.616
-61.712
-50.776
-38.796
-26.641
-15.846
-7.448
-1.473
2.333
4.187
4.026
1.803
-1.998
-6.42
-10.647
-14.181
-16.798
-18.516
-19.245
-18.828
-17.265
-14.665
-11.199
-7.076
-2.432
2.661
8.093
13.751
19.489
25.107
30.459
35.434
39.945
43.966
47.483
50.473
52.945
54.932
56.477
57.657
58.54
59.172
59.613
59.928
60.191
60.501
60.935
61.544
62.368
63.432
64.756
66.364
68.264
70.451
72.919
75.663
78.679
81.97
85.532
89.355
93.424
97.721
102.228
106.935
111.825
116.883
122.091
127.432
132.888
138.445
144.084
149.78
155.508
161.241
166.95
172.608
178.187
183.654
188.982
194.141
199.104
203.845
208.338
212.557
216.478
220.079
223.337
226.235
228.752
230.874
232.584
233.871
234.725
235.138
235.103
234.616
233.675
232.281
230.435
228.143
225.41
222.247
218.663
214.671
210.288
205.531
200.417
194.969
189.208
183.158
176.844
170.292
163.527
156.576
149.468
142.228
134.886
127.469
120.003
112.516
105.035
97.586
90.194
82.883
75.676
68.597
61.666
54.903
48.327
41.956
35.804
29.886
24.215
18.802
13.656
8.785
4.195
-0.11
-4.129
-7.859
-11.303
-14.462
-17.341
-19.946
-22.283
-24.359
-26.183
-27.766
-29.118
-30.249
-31.172
-31.899
-32.443
-32.816
-33.031
-33.103
-33.043
-32.864
-32.581
-32.206
-31.75
-31.227
-30.648
-30.025
-29.368
-28.688
-27.994
-27.296
-26.602
-25.919
-25.255
-24.614
-24.002
-23.424
-22.883
-22.382
-21.922
-21.506
-21.134
-20.807
-20.524
-20.287
-20.092
-19.941
-19.83
-19.759
-19.725
-19.728
-19.764
-19.832
-19.929
-20.053
-20.201
-20.372
-20.562
-20.768
-20.988
-21.22
-21.46
-21.706
-21.956
-22.207
-22.458
-22.706
-22.951
-23.19
-23.422
-23.647
-23.864
-24.073
-24.272
-24.462
-24.642
-24.812
-24.972
-25.123
-25.263
-25.393
-25.513
-25.622
-25.722
-25.81
-25.888
-25.955
-26.012
-26.058
-26.093
-26.118
-26.133
-26.139
-26.136
-26.124
-26.106
-26.08
-26.049
-26.013
-25.973
-25.929
-25.881
-25.831
-25.779
-25.725
-25.671
-25.616
-25.562
-25.509
-25.458
-25.41
-25.366
-25.327
-25.295
-25.27
-25.253
-25.246
-25.251
-25.268
-25.3
-25.348
-25.414
-25.499
-25.605
-25.731
-25.878
-26.047
-26.238
-26.451
-26.686
-26.941
-27.218
-27.514
-27.831
-28.167
-28.52
-28.89
-29.273
-29.669
-30.073
-30.484
-30.898
-31.31
-31.718
-32.118
-32.506
-32.879
-33.231
-33.559
-33.858
-34.122
-34.346
-34.524
-34.652
-34.722
-34.73
-34.672
-34.545
-34.345
-34.069
-33.716
-33.282
-32.767
-32.17
-31.49
-30.725
-29.876
-28.944
-27.933
-26.846
-25.688
-24.464
-23.182
-21.85
-20.479
-19.075
-17.646
-16.201
-14.747
-13.292
-11.842
-10.404
-8.986
-7.597
-6.25
-4.957
-3.73
-2.579
-1.514
-0.546
0.317
1.07
1.708
2.235
2.649
2.945
3.113
3.137
3.012
2.744
2.337
1.8
1.147
0.4
-0.401
-1.196
-1.94
-2.606
-3.182
-3.671
-4.069
-4.359
-4.52
-4.542
-4.432
-4.207
-3.868
-3.412
-2.857
-2.261
-1.743
-1.468
-1.564
-2.117
-3.177
-4.773
-6.94
-9.706
-13.072
-16.971
-21.287
-25.919
-30.806
-35.919
-41.21
-46.517
-51.53
-55.877
-59.198
-61.184
-61.602
-60.145
-56.445
-50.405
-42.196
-32.314
-21.6
-10.671
0.165
10.45
19.768
28.216
36.299
45.189
56.562
71.405
90.028
112.727
139.264
168.2
196.869
221.301
237.203
241.187
230.627
203.012
156.451
91.136
9.884
-82.434
-180.431
-278.892
-372.792
-456.546
-524.062
-571.423
-597.751
-604.165
-592.773
-566.225
-527.385
-480.389
-430.935
-383.265
-339.57
-300.896
-267.233
-238.27
-213.839
-192.815
-172.942
-152.806
-131.917
-110.328
-88.876
-68.306
-49.019
-31.689
-17.173
-5.898
2.007
6.691
8.708
8.571
6.721
3.665
-0.176
-4.459
-8.848
-13.034
-16.757
-19.788
-21.976
-23.244
-23.528
-22.803
-21.07
-18.377
-14.846
-10.63
-5.882
-0.748
4.661
10.225
15.8
21.213
26.315
31.004
35.227
38.962
42.191
44.901
47.107
48.855
50.218
51.273
52.082
52.698
53.178
53.589
54.008
54.52
55.192
56.069
57.185
58.567
60.236
62.214
64.505
67.099
69.987
73.162
76.62
80.361
84.377
88.654
93.175
97.921
102.877
108.026
113.351
118.832
124.447
130.176
135.999
141.897
147.847
153.821
159.791
165.727
171.599
177.376
183.027
188.518
193.82
198.902
203.736
208.294
212.55
216.478
220.055
223.259
226.069
228.468
230.439
231.968
233.043
233.654
233.794
233.46
232.648
231.358
229.593
227.357
224.658
221.504
217.909
213.885
209.449
204.619
199.416
193.862
187.981
181.798
175.34
168.636
161.713
154.601
147.33
139.929
132.428
124.857
117.245
109.621
102.012
94.447
86.952
79.553
72.273
65.135
58.162
51.372
44.785
38.418
32.285
26.4
20.774
15.418
10.34
5.546
1.041
-3.173
-7.095
-10.726
-14.067
-17.124
-19.901
-22.406
-24.646
-26.632
-28.372
-29.877
-31.16
-32.232
-33.106
-33.795
-34.312
-34.67
-34.882
-34.962
-34.923
-34.776
-34.535
-34.211
-33.815
-33.359
-32.851
-32.303
-31.722
-31.117
-30.496
-29.865
-29.231
-28.599
-27.973
-27.358
-26.757
-26.171
-25.605
-25.057
-24.53
-24.024
-23.539
-23.075
-22.631
-22.206
-21.799
-21.409
-21.035
-20.676
-20.33
-19.996
-19.673
-19.359
-19.055
-18.758
-18.469
-18.187
-17.912
-17.643
-17.381
-17.124
-16.875
-16.632
-16.397
-16.17
-15.951
-15.742
-15.543
-15.356
-15.181
-15.02
-14.872
-14.739
-14.622
-14.522
-14.439
-14.373
-14.324
-14.294
-14.282
-14.289
-14.313
-14.354
-14.413
-14.487
-14.577
-14.681
-14.799
-14.928
-15.068
-15.217
-15.373
-15.536
-15.703
-15.872
-16.043
-16.213
-16.382
-16.546
-16.706
-16.858
-17.003
-17.14
-17.266
-17.381
-17.485
-17.576
-17.655
-17.722
-17.775
-17.815
-17.842
-17.857
-17.859
-17.85
-17.83
-17.799
-17.759
-17.711
-17.656
-17.594
-17.528
-17.457
-17.384
-17.31
-17.237
-17.165
-17.098
-17.036
-16.981
-16.934
-16.898
-16.872
-16.859
-16.86
-16.876
-16.908
-16.956
-17.021
-17.105
-17.208
-17.33
-17.471
-17.632
-17.811
-18.009
-18.225
-18.459
-18.708
-18.973
-19.252
-19.545
-19.85
-20.165
-20.49
-20.82
-21.155
-21.49
-21.824
-22.151
-22.468
-22.771
-23.058
-23.323
-23.564
-23.777
-23.958
-24.102
-24.207
-24.267
-24.28
-24.24
-24.144
-23.987
-23.767
-23.482
-23.131
-22.711
-22.221
-21.661
-21.03
-20.328
-19.555
-18.711
-17.796
-16.812
-15.762
-14.651
-13.482
-12.262
-10.997
-9.696
-8.369
-7.023
-5.666
-4.305
-2.949
-1.604
-0.277
1.026
2.3
3.539
4.732
5.87
6.943
7.942
8.861
9.693
10.43
11.064
11.595
12.024
12.353
12.58
12.695
12.682
12.536
12.26
11.86
11.347
10.728
10.026
9.277
8.536
7.863
7.298
6.856
6.542
6.363
6.336
6.489
6.837
7.362
8.044
8.871
9.837
10.924
12.073
13.154
13.995
14.429
14.332
13.638
12.296
10.25
7.463
3.921
-0.311
-5.102
-10.34
-15.968
-21.96
-28.235
-34.578
-40.639
-45.985
-50.205
-52.985
-53.976
-52.739
-49.04
-42.907
-34.652
-25.014
-14.698
-4.028
6.563
16.508
25.834
34.963
44.852
57.289
73.523
93.818
118.536
147.913
180.78
214.906
246.737
271.253
284.292
283.015
264.394
225.627
166.159
87.567
-6.308
-109.311
-215.399
-319.233
-414.501
-494.319
-554.003
-591.238
-605.871
-600.222
-577.249
-539.924
-492.865
-442.029
-391.93
-345.52
-304.54
-269.061
-238.792
-213.515
-191.833
-171.412
-150.794
-129.314
-106.898
-84.324
-62.303
-41.288
-22.108
-5.791
7.117
16.425
22.261
25.159
25.616
24.039
20.946
16.868
12.237
7.444
2.835
-1.349
-4.881
-7.564
-9.287
-9.971
-9.579
-8.123
-5.658
-2.278
1.874
6.646
11.896
17.469
23.216
28.979
34.574
39.849
44.699
49.051
52.871
56.142
58.852
61.015
62.681
63.909
64.768
65.325
65.633
65.755
65.764
65.737
65.763
65.908
66.221
66.738
67.486
68.485
69.755
71.3
73.112
75.183
77.51
80.089
82.92
86.0
89.317
92.856
96.601
100.538
104.656
108.938
113.37
117.933
122.612
127.39
132.253
137.182
142.154
147.145
152.131
157.083
161.978
166.788
171.484
176.039
180.428
184.625
188.608
192.353
195.837
199.038
201.938
204.517
206.759
208.647
210.168
211.31
212.063
212.418
212.37
211.915
211.05
209.775
208.092
206.005
203.52
200.646
197.392
193.769
189.793
185.478
180.842
175.904
170.683
165.202
159.482
153.547
147.422
141.129
134.695
128.144
121.5
114.79
108.037
101.266
94.501
87.765
81.082
74.472
67.958
61.559
55.293
49.179
43.233
37.469
31.901
26.542
21.401
16.488
11.81
7.374
3.183
-0.759
-4.452
-7.896
-11.091
-14.042
-16.752
-19.227
-21.473
-23.496
-25.307
-26.912
-28.323
-29.549
-30.6
-31.489
-32.225
-32.822
-33.29
-33.641
-33.886
-34.037
-34.105
-34.101
-34.035
-33.917
-33.756
-33.562
-33.342
-33.106
-32.859
-32.609
-32.361
-32.121
-31.893
-31.681
-31.489
-31.318
-31.173
-31.053
-30.961
-30.897
-30.862
-30.856
-30.878
-30.928
-31.005
-31.109
-31.237
-31.388
-31.561
-31.754
-31.967
-32.196
-32.441
-32.7
-32.972
-33.254
-33.547
-33.848
-34.156
-34.47
-34.789
-35.112
-35.439
-35.769
-36.101
-36.435
-36.77
-37.106
-37.443
-37.78
-38.118
-38.454
-38.791
-39.126
-39.46
-39.792
-40.123
-40.452
-40.779
-41.103
-41.424
-41.742
-42.057
-42.368
-42.674
-42.976
-43.274
-43.567
-43.854
-44.136
-44.413
-44.685
-44.951
-45.213
-45.469
-45.72
-45.967
-46.21
-46.449
-46.686
-46.92
-47.153
-47.385
-47.617
-47.851
-48.087
-48.327
-48.572
-48.823
-49.08
-49.346
-49.62
-49.905
-50.201
-50.51
-50.831
-51.166
-51.516
-51.882
-52.263
-52.662
-53.076
-53.508
-53.957
-54.423
-54.906
-55.405
-55.92
-56.45
-56.995
-57.554
-58.127
-58.711
-59.307
-59.914
-60.53
-61.155
-61.788
-62.426
-63.071
-63.719
-64.372
-65.028
-65.686
-66.345
-67.007
-67.669
-68.332
-68.996
-69.66
-70.324
-70.986
-71.648
-72.308
-72.967
-73.625
-74.281
-74.935
-75.589
-76.241
-76.892
-77.54
-78.186
-78.829
-79.467
-80.098
-80.722
-81.335
-81.937
-82.527
-83.101
-83.659
-84.198
-84.715
-85.207
-85.672
-86.105
-86.504
-86.863
-87.18
-87.45
-87.671
-87.841
-87.958
-88.019
-88.022
-87.965
-87.847
-87.666
-87.421
-87.11
-86.733
-86.29
-85.785
-85.218
-84.594
-83.919
-83.198
-82.437
-81.644
-80.826
-79.987
-79.134
-78.272
-77.407
-76.542
-75.685
-74.84
-74.015
-73.222
-72.47
-71.769
-71.128
-70.554
-70.054
-69.638
-69.312
-69.073
-68.925
-68.869
-68.915
-69.082
-69.379
-69.805
-70.355
-71.021
-71.788
-72.645
-73.562
-74.485
-75.368
-76.159
-76.832
-77.39
-77.824
-78.118
-78.253
-78.194
-77.94
-77.533
-76.995
-76.338
-75.593
-74.786
-74.017
-73.464
-73.281
-73.614
-74.568
-76.173
-78.486
-81.57
-85.454
-90.145
-95.553
-101.512
-107.91
-114.691
-121.794
-129.106
-136.345
-143.073
-148.868
-153.335
-156.171
-157.065
-155.559
-151.413
-144.686
-135.732
-125.347
-114.284
-102.859
-91.493
-80.798
-70.749
-60.937
-50.42
-37.316
-20.316
0.852
26.585
57.108
91.139
126.273
158.75
183.342
195.791
193.234
172.572
130.936
67.775
-15.114
-113.466
-220.839
-331.136
-439.227
-539.026
-623.468
-687.313
-727.775
-744.681
-740.31
-717.292
-677.71
-625.07
-565.177
-503.575
-444.739
-391.402
-344.284
-303.859
-271.314
-247.122
-229.728
-216.797
-205.748
-194.965
-184.333
-173.85
-162.908
-150.763
-137.505
-124.079
-112.059
-102.501
-95.461
-90.721
-88.105
-87.691
-89.451
-92.839
-96.867
-100.694
-103.859
-106.157
-107.578
-108.015
-107.305
-105.445
-102.556
-98.816
-94.406
-89.446
-83.995
-78.158
-72.077
-65.922
-59.898
-54.157
-48.809
-43.937
-39.581
-35.766
-32.51
-29.802
-27.606
-25.876
-24.55
-23.566
-22.878
-22.427
-22.145
-21.95
-21.744
-21.449
-21.012
-20.388
-19.549
-18.471
-17.131
-15.52
-13.642
-11.5
-9.095
-6.428
-3.493
-0.293
3.164
6.868
10.802
14.951
19.305
23.85
28.571
33.453
38.479
43.635
48.906
54.274
59.717
65.212
70.731
76.248
81.737
87.169
92.514
97.745
102.832
107.75
112.473
116.975
121.231
125.217
128.911
132.29
135.336
138.03
140.355
142.295
143.84
144.976
145.697
145.996
145.868
145.311
144.324
142.911
141.074
138.82
136.159
133.099
129.655
125.841
121.674
117.172
112.356
107.246
101.867
96.243
90.398
84.359
78.15
71.8
65.335
58.783
52.171
45.526
38.876
32.246
25.663
19.152
12.737
6.442
0.289
-5.701
-11.508
-17.115
-22.505
-27.661
-32.571
-37.223
-41.606
-45.712
-49.534
-53.068
-56.31
-59.259
-61.915
-64.281
-66.359
-68.155
-69.674
-70.926
-71.917
-72.658
-73.161
-73.435
-73.495
-73.352
-73.021
-72.516
-71.849
-71.037
-70.093
-69.03
-67.864
-66.608
-65.274
-63.876
-62.426
-60.935
-59.414
-57.874
-56.323
-54.77
-53.223
-51.687
-50.17
-48.675
-47.207
-45.768
-44.362
-42.99
-41.652
-40.349
-39.08
-37.843
-36.638
-35.461
-34.31
-33.181
-32.072
-30.979
-29.898
-28.824
-27.754
-26.684
-25.611
-24.529
-23.437
-22.33
-21.205
-20.06
-18.892
-17.699
-16.479
-15.231
-13.955
-12.648
-11.312
-9.945
-8.547
-7.12
-5.664
-4.178
-2.665
-1.126
0.439
2.026
3.636
5.265
6.912
8.575
10.252
11.942
13.643
15.353
17.071
18.796
20.526
22.26
23.997
25.737
27.479
29.223
30.969
32.718
34.471
36.229
37.992
39.762
41.538
43.323
45.116
46.918
48.727
50.544
52.37
54.205
56.05
57.905
59.77
61.646
63.533
65.431
67.34
69.257
71.183
73.114
75.052
76.994
78.942
80.893
82.847
84.804
86.764
88.726
90.687
92.647
94.603
96.553
98.499
100.439
102.375
104.308
106.242
108.182
110.133
112.099
114.085
116.092
118.124
120.184
122.273
124.391
126.538
128.718
130.937
133.203
135.528
137.917
140.38
142.927
145.567
148.308
151.153
154.097
157.136
160.274
163.515
166.874
170.355
173.953
177.657
181.46
185.345
189.288
193.246
197.155
200.953
204.598
208.07
211.367
214.483
217.408
220.136
222.662
225.008
227.195
229.23
231.102
232.812
234.394
235.922
237.516
239.279
241.271
243.521
246.039
248.826
251.86
255.085
258.396
261.656
264.744
267.578
270.112
272.276
273.957
274.994
275.187
274.363
272.39
269.139
264.485
258.337
250.663
241.513
231.018
219.334
206.593
192.907
178.366
163.092
