-64.356
-63.122
-61.827
-60.479
-59.084
-57.647
-56.176
-54.677
-53.157
-51.622
-50.078
-48.53
-46.985
-45.447
-43.921
-42.411
-40.921
-39.453
-38.01
-36.594
-35.206
-33.847
-32.515
-31.209
-29.928
-28.668
-27.425
-26.194
-24.97
-23.747
-22.517
-21.274
-20.009
-18.714
-17.381
-16.001
-14.565
-13.063
-11.488
-9.831
-8.083
-6.236
-4.284
-2.22
-0.039
2.266
4.696
7.256
9.948
12.771
15.727
18.814
22.028
25.367
28.824
32.394
36.068
39.836
43.688
47.612
51.595
55.621
59.677
63.745
67.808
71.847
75.844
79.78
83.634
87.387
91.018
94.507
97.833
100.978
103.922
106.647
109.134
111.368
113.331
115.01
116.391
117.461
118.211
118.63
118.71
118.446
117.834
116.869
115.553
113.884
111.867
109.505
106.804
103.773
100.421
96.759
92.8
88.557
84.047
79.287
74.293
69.086
63.686
58.112
52.387
46.532
40.57
34.522
28.411
22.26
16.091
9.924
3.783
-2.313
-8.344
-14.289
-20.131
-25.852
-31.435
-36.865
-42.127
-47.209
-52.099
-56.786
-61.26
-65.513
-69.54
-73.333
-76.889
-80.206
-83.281
-86.113
-88.704
-91.055
-93.168
-95.049
-96.7
-98.128
-99.338
-100.338
-101.135
-101.736
-102.15
-102.386
-102.451
-102.356
-102.11
-101.721
-101.199
-100.553
-99.793
-98.926
-97.962
-96.909
-95.775
-94.568
-93.296
-91.967
-90.586
-89.16
-87.697
-86.202
-84.679
-83.136
-81.576
-80.004
-78.424
-76.841
-75.258
-73.678
-72.106
-70.543
-68.993
-67.458
-65.941
-64.444
-62.969
-61.52
-60.097
-58.702
-57.339
-56.008
-54.712
-53.454
-52.234
-51.055
-49.92
-48.829
-47.785
-46.79
-45.846
-44.955
-44.117
-43.335
-42.61
-41.943
-41.334
-40.785
-40.295
-39.865
-39.495
-39.183
-38.93
-38.732
-38.59
-38.502
-38.466
-38.478
-38.538
-38.642
-38.786
-38.968
-39.184
-39.43
-39.701
-39.992
-40.3
-40.62
-40.946
-41.273
-41.597
-41.91
-42.209
-42.488
-42.743
-42.967
-43.157
-43.309
-43.42
-43.485
-43.504
-43.473
-43.393
-43.263
-43.083
-42.854
-42.578
-42.256
-41.891
-41.485
-41.042
-40.563
-40.053
-39.515
-38.953
-38.373
-37.779
-37.177
-36.571
-35.967
-35.372
-34.791
-34.229
-33.685
-33.163
-32.665
-32.195
-31.759
-31.359
-30.992
-30.657
-30.352
-30.074
-29.818
-29.571
-29.312
-29.026
-28.698
-28.322
-27.898
-27.419
-26.875
-26.258
-25.555
-24.767
-23.904
-22.964
-21.946
-20.863
-19.732
-18.598
-17.536
-16.597
-15.825
-15.256
-14.901
-14.799
-15.005
-15.561
-16.517
-17.9
-19.709
-21.994
-24.845
-28.261
-32.151
-36.293
-40.312
-43.903
-46.854
-48.901
-49.712
-49.056
-46.965
-43.802
-40.285
-37.17
-34.929
-33.969
-34.881
-38.046
-43.302
-49.965
-56.625
-61.517
-63.338
-60.803
-52.165
-36.097
-11.962
20.139
58.737
101.58
146.519
190.659
230.005
260.562
278.381
280.099
263.897
228.607
173.584
99.849
10.114
-91.687
-200.33
-310.461
-417.245
-515.344
-599.732
-666.601
-713.23
-738.749
-744.021
-730.24
-699.175
-653.968
-598.109
-535.391
-469.925
-404.56
-341.366
-282.771
-230.655
-186.088
-149.854
-121.603
-100.078
-84.545
-74.172
-67.448
-63.029
-59.481
-55.297
-49.964
-43.617
-36.255
-28.142
-19.827
-11.763
-4.681
0.592
3.852
5.251
5.046
3.699
1.656
-0.717
-2.918
-4.424
-4.972
-4.464
-2.933
-0.535
2.616
6.428
10.767
15.485
20.446
25.532
30.642
35.703
40.627
45.315
49.676
53.621
57.101
60.101
62.632
64.726
66.422
67.766
68.813
69.627
70.27
70.805
71.287
71.767
72.293
72.917
73.689
74.664
75.88
77.361
79.118
81.152
83.458
86.028
88.849
91.891
95.121
98.509
102.027
105.657
109.389
113.209
117.099
121.04
125.012
129.007
133.03
137.077
141.144
145.229
149.327
153.453
157.64
161.909
166.268
170.711
175.203
179.717
184.225
188.686
193.053
197.264
201.232
204.889
208.187
211.072
213.494
215.388
216.66
217.242
217.086
216.165
214.482
212.04
208.844
204.928
200.345
195.169
189.503
183.427
176.999
170.285
163.346
156.259
149.123
142.016
134.994
128.107
121.39
114.875
108.598
102.572
96.784
91.214
85.824
80.592
75.515
70.588
65.807
61.162
56.635
52.219
47.921
43.746
39.697
35.777
31.986
28.331
24.834
21.516
18.401
15.504
12.831
10.385
8.168
6.178
4.415
2.87
1.528
0.378
-0.591
-1.388
-2.023
-2.506
-2.855
-3.082
-3.204
-3.234
-3.183
-3.063
-2.886
-2.66
-2.393
-2.094
-1.765
-1.415
-1.048
-0.672
-0.291
0.088
0.462
0.826
1.177
1.511
1.826
2.123
2.399
2.657
2.897
3.119
3.326
3.521
3.706
3.883
4.056
4.228
4.402
4.581
4.769
4.969
5.182
5.412
5.66
5.929
6.219
6.532
6.869
7.23
7.614
8.023
8.455
8.91
9.386
9.883
10.399
10.933
11.483
12.046
12.621
13.205
13.794
14.388
14.982
15.575
16.161
16.74
17.309
17.863
18.402
18.924
19.425
19.906
20.365
20.801
21.215
21.606
21.974
22.322
22.651
22.962
23.258
23.541
23.816
24.085
24.353
24.622
24.897
25.181
25.476
25.788
26.117
26.466
26.837
27.231
27.65
28.095
28.568
29.069
29.598
30.156
30.743
31.358
31.999
32.664
33.348
34.048
34.761
35.481
36.203
36.924
37.636
38.333
39.013
39.668
40.294
40.881
41.421
41.905
42.333
42.704
43.022
43.291
43.516
43.704
43.874
44.035
44.201
44.38
44.574
44.786
45.025
45.295
45.612
45.982
46.398
46.855
47.339
47.826
48.301
48.73
49.058
49.238
49.224
48.96
48.423
47.581
46.398
44.858
42.922
40.553
37.735
34.441
30.663
26.427
21.721
16.523
10.914
5.043
-0.855
-6.423
-11.374
-15.506
-18.554
-20.19
-20.213
-18.676
-15.945
-12.711
-9.666
-7.228
-5.78
-5.895
-7.942
-11.779
-16.751
-21.533
-24.536
-24.647
-20.782
-11.419
4.594
27.782
58.005
93.86
133.246
174.23
214.229
249.606
276.715
291.919
291.988
275.14
240.297
186.735
115.261
28.317
-70.663
-176.951
-285.375
-391.293
-489.735
-575.771
-645.621
-696.505
-726.882
-736.974
-727.725
-700.517
-657.986
-603.39
-540.216
-472.409
-403.46
-336.029
-272.818
-216.174
-167.597
-128.148
-97.923
-75.954
-61.159
-52.404
-48.022
-46.359
-45.789
-44.628
-42.046
-37.982
-32.53
-26.024
-19.064
-12.21
-6.21
-1.945
0.28
0.58
-0.763
-3.26
-6.427
-9.86
-13.054
-15.464
-16.804
-16.977
-16.014
-14.082
-11.31
-7.799
-3.691
0.852
5.687
10.686
15.74
20.771
25.682
30.372
34.747
38.719
42.241
45.299
47.906
50.093
51.898
53.365
54.548
55.507
56.302
56.99
57.625
58.254
58.926
59.69
60.594
61.685
62.99
64.527
66.304
68.32
70.573
73.056
75.757
78.66
81.749
85.012
88.434
92.004
95.705
99.521
103.43
107.414
111.451
115.523
119.609
123.69
127.743
131.748
135.685
139.533
143.271
146.876
150.325
153.597
156.669
159.521
162.132
164.484
166.559
168.341
169.817
170.973
171.799
172.285
172.425
172.212
171.643
170.715
169.429
167.786
165.79
163.445
160.758
157.738
154.397
150.745
146.796
142.565
138.069
133.324
128.351
123.166
117.793
112.25
106.56
100.744
94.825
88.826
82.767
76.672
70.561
64.457
58.38
52.349
46.384
40.503
34.723
29.061
23.533
18.152
12.932
7.885
3.021
-1.649
-6.118
-10.379
-14.427
-18.256
-21.863
-25.248
-28.408
-31.345
-34.06
-36.556
-38.836
-40.904
-42.767
-44.429
-45.899
-47.182
-48.287
-49.222
-49.995
-50.615
-51.091
-51.431
-51.646
-51.744
-51.733
-51.624
-51.423
-51.141
-50.784
-50.36
-49.877
-49.341
-48.76
-48.139
-47.484
-46.8
-46.091
-45.362
-44.618
-43.86
-43.093
-42.319
-41.54
-40.758
-39.975
-39.193
-38.414
-37.638
-36.866
-36.102
-35.344
-34.595
-33.856
-33.128
-32.411
-31.708
-31.019
-30.347
-29.692
-29.056
-28.442
-27.851
-27.285
-26.747
-26.239
-25.763
-25.323
-24.92
-24.557
-24.238
-23.966
-23.742
-23.57
-23.453
-23.393
-23.392
-23.453
-23.577
-23.765
-24.019
-24.338
-24.722
-25.171
-25.684
-26.261
-26.898
-27.595
-28.35
-29.157
-30.016
-30.921
-31.869
-32.854
-33.871
-34.916
-35.981
-37.063
-38.153
-39.245
-40.334
-41.41
-42.468
-43.5
-44.499
-45.455
-46.364
-47.217
-48.008
-48.731
-49.38
-49.952
-50.442
-50.848
-51.168
-51.399
-51.541
-51.593
-51.555
-51.428
-51.212
-50.909
-50.521
-50.051
-49.504
-48.886
-48.202
-47.459
-46.662
-45.82
-44.938
-44.025
-43.087
-42.132
-41.167
-40.199
-39.238
-38.297
-37.384
-36.501
-35.65
-34.831
-34.041
-33.276
-32.527
-31.781
-31.025
-30.248
-29.441
-28.6
-27.719
-26.786
-25.791
-24.721
-23.569
-22.34
-21.043
-19.686
-18.288
-16.868
-15.457
-14.107
-12.867
-11.779
-10.886
-10.232
-9.857
-9.812
-10.139
-10.863
-12.012
-13.608
-15.664
-18.202
-21.229
-24.722
-28.672
-33.071
-37.821
-42.752
-47.619
-52.067
-55.796
-58.603
-60.195
-60.214
-58.574
-55.424
-51.191
-46.634
-42.302
-38.422
-35.438
-33.974
-34.207
-35.894
-38.203
-39.635
-39.028
-35.688
-28.546
-16.176
2.383
27.534
58.715
94.222
132.303
171.16
208.077
239.416
261.368
270.3
263.383
238.956
195.881
133.871
54.185
-40.246
-145.125
-255.324
-365.477
-470.303
-564.562
-643.605
-703.79
-742.905
-760.476
-757.157
-734.52
-695.109
-642.179
-579.5
-511.272
-441.389
-372.893
-308.583
-250.786
-201.102
-160.657
-129.569
-106.86
-91.28
-81.598
-76.192
-73.455
-71.796
-69.519
-65.761
-60.47
-53.803
-46.121
-38.009
-30.001
-22.82
-17.367
-13.983
-12.567
-12.859
-14.376
-16.64
-19.265
-21.742
-23.502
-24.239
-23.838
-22.307
-19.809
-16.468
-12.375
-7.678
-2.545
2.874
8.448
14.071
19.671
25.152
30.41
35.348
39.871
43.929
47.505
50.601
53.245
55.47
57.319
58.846
60.114
61.182
62.11
62.951
63.753
64.568
65.448
66.443
67.605
68.967
70.55
72.368
74.426
76.725
79.265
82.035
85.024
88.219
91.611
95.189
98.944
102.865
106.935
111.137
115.455
119.869
124.363
128.918
133.515
138.134
142.757
147.362
151.931
156.443
160.875
165.204
169.406
173.459
177.339
181.024
184.493
187.723
190.697
193.396
195.804
197.904
199.683
201.128
202.229
202.975
203.36
203.377
203.021
202.291
201.186
199.708
197.859
195.645
193.072
190.149
186.886
183.296
179.391
175.186
170.698
165.944
160.943
155.715
150.281
144.663
138.883
132.964
126.93
120.806
114.614
108.378
102.123
95.871
89.647
83.473
77.371
71.362
65.468
59.708
54.101
48.666
43.419
38.376
33.55
28.954
24.601
20.5
16.659
13.087
9.788
6.766
4.024
1.563
-0.618
-2.52
-4.147
-5.504
-6.597
-7.433
-8.021
-8.37
-8.49
-8.394
-8.092
-7.598
-6.925
-6.087
-5.098
-3.973
-2.727
-1.374
0.072
1.595
3.181
4.817
6.488
8.181
9.884
11.585
13.271
14.933
16.559
18.14
19.669
21.138
22.538
23.866
25.115
26.282
27.362
28.354
29.256
30.066
30.784
31.41
31.946
32.393
32.754
33.03
33.226
33.345
33.39
33.365
33.275
33.123
32.914
32.652
32.342
31.987
31.592
31.16
30.696
30.203
29.684
29.143
28.582
28.004
27.411
26.805
26.188
25.562
24.929
24.29
23.646
23.0
22.351
21.701
21.051
20.4
19.751
19.102
18.455
17.811
17.169
16.532
15.899
15.272
14.653
14.043
13.444
12.857
12.286
11.733
11.199
10.69
10.206
9.753
9.333
8.95
8.608
8.311
8.061
7.861
7.714
7.622
7.586
7.605
7.681
7.814
8.004
8.25
8.552
8.909
9.319
9.783
10.297
10.86
11.467
12.111
12.789
13.495
14.223
14.966
15.719
16.473
17.223
17.964
18.688
19.388
20.054
20.674
21.241
21.753
22.207
22.606
22.955
23.257
23.523
23.77
24.009
24.252
24.507
24.776
25.066
25.387
25.747
26.16
26.632
27.155
27.724
28.325
28.937
29.538
30.091
30.541
30.841
30.949
30.82
30.415
29.692
28.602
27.108
25.188
22.815
19.971
16.64
12.805
8.466
3.65
-1.621
-7.341
-13.418
-19.684
-25.894
-31.673
-36.685
-40.709
-43.432
-44.485
-43.812
-41.556
-38.12
-34.385
-31.006
-28.325
-26.962
-27.496
-29.932
-34.011
-38.83
-42.568
-43.878
-41.753
-34.613
-21.159
-0.704
27.129
61.411
99.897
140.6
181.166
218.069
247.747
266.504
270.644
257.994
227.502
178.259
110.626
26.632
-70.754
-177.04
-286.892
-395.596
-498.33
-590.015
-666.481
-724.463
-761.765
-778.162
-774.494
-751.889
-712.614
-659.804
-596.965
-528.25
-457.621
-388.034
-322.27
-262.903
-211.71
-169.927
-137.821
-114.402
-98.363
-88.458
-83.0
-80.256
-78.544
-76.115
-72.053
-66.308
-59.067
-50.724
-41.93
-33.289
-25.57
-19.686
-15.976
-14.332
-14.475
-15.906
-18.118
-20.685
-23.076
-24.717
-25.307
-24.733
-23.009
-20.295
-16.713
-12.361
-7.391
-1.974
3.741
9.622
15.561
21.479
27.273
32.834
38.061
42.857
47.173
50.989
54.309
57.159
59.574
61.597
63.284
64.698
65.901
66.952
67.906
68.813
69.725
70.696
71.777
73.017
74.45
76.095
77.964
80.06
82.381
84.925
87.68
90.63
93.762
97.063
100.521
104.123
107.856
111.7
115.637
119.646
123.708
127.804
131.913
136.016
140.09
144.115
148.07
151.936
155.691
159.313
162.777
166.062
169.146
172.008
174.627
176.984
179.061
180.842
182.311
183.457
184.269
184.736
184.852
184.61
184.007
183.041
181.712
180.022
177.974
175.575
172.832
169.755
166.353
162.642
158.634
154.346
149.794
144.998
139.976
134.75
129.339
123.767
118.055
112.226
106.303
100.31
94.269
88.203
82.135
76.087
70.08
64.134
58.27
52.506
46.86
41.348
35.987
30.79
25.77
20.941
16.31
11.889
7.685
3.703
-0.051
-3.574
-6.863
-9.919
-12.741
-15.33
-17.691
-19.826
-21.74
-23.439
-24.93
-26.22
-27.317
-28.23
-28.968
-29.541
-29.958
-30.231
-30.37
-30.385
-30.287
-30.087
-29.794
-29.42
-28.973
-28.465
-27.904
-27.299
-26.659
-25.992
-25.304
-24.603
-23.895
-23.185
-22.479
-21.782
-21.097
-20.428
-19.778
-19.15
-18.546
-17.968
-17.417
-16.895
-16.402
-15.94
-15.508
-15.106
-14.735
-14.395
-14.085
-13.806
-13.555
-13.334
-13.141
-12.977
-12.84
-12.73
-12.646
-12.59
-12.559
-12.556
-12.578
-12.628
-12.705
-12.81
-12.943
-13.105
-13.297
-13.52
-13.774
-14.06
-14.379
-14.732
-15.118
-15.539
-15.994
-16.482
-17.004
-17.557
-18.142
-18.756
-19.397
-20.065
-20.756
-21.468
-22.199
-22.946
-23.706
-24.474
-25.248
-26.024
-26.796
-27.561
-28.313
-29.049
-29.762
-30.448
-31.102
-31.717
-32.289
-32.811
-33.279
-33.686
-34.027
-34.296
-34.491
-34.606
-34.638
-34.585
-34.444
-34.214
-33.897
-33.493
-33.002
-32.426
-31.767
-31.028
-30.212
-29.322
-28.361
-27.334
-26.247
-25.106
-23.92
-22.695
-21.441
-20.165
-18.876
-17.582
-16.293
-15.017
-13.761
-12.534
-11.344
-10.201
-9.119
-8.106
-7.165
-6.298
-5.503
-4.775
-4.108
-3.492
-2.907
-2.341
-1.78
-1.213
-0.637
-0.042
0.582
1.247
1.969
2.758
3.61
4.523
5.49
6.492
7.508
8.504
9.427
10.226
10.863
11.293
11.476
11.376
10.945
10.147
8.962
7.358
5.312
2.804
-0.193
-3.677
-7.62
-12.005
-16.812
-21.956
-27.286
-32.552
-37.4
-41.517
-44.659
-46.544
-46.822
-45.298
-42.058
-37.477
-32.253
-27.098
-22.459
-18.815
-16.875
-17.064
-19.234
-22.718
-26.161
-27.964
-26.966
-21.906
-11.043
6.962
32.684
65.901
105.15
148.145
192.57
235.396
272.466
299.528
312.607
308.3
284.511
240.262
175.384
91.187
-9.124
-121.053
-239.197
-357.665
-470.711
-572.834
-659.045
-725.356
-769.33
-790.245
-788.648
-766.212
-725.622
-670.357
-604.507
-532.594
-458.85
-386.66
-319.101
-258.672
-207.061
-165.329
-133.442
-110.262
-94.324
-84.188
-78.029
-74.049
-70.561
-65.891
-59.264
-50.764
-40.703
-29.584
-18.133
-7.028
2.922
10.784
16.215
19.346
20.467
20.08
18.677
16.649
14.497
12.764
11.747
11.576
12.248
13.62
15.579
18.041
20.88
23.964
27.179
30.412
33.59
36.677
39.64
42.458
45.109
47.568
49.833
51.92
53.865
55.726
57.557
59.411
61.339
63.384
65.594
68.013
70.666
73.553
76.657
79.936
83.359
86.905
90.545
94.243
97.958
101.65
105.287
108.851
112.325
115.695
118.948
122.072
125.074
127.971
130.794
133.581
136.365
139.163
141.993
144.872
147.81
150.813
153.877
156.984
160.118
163.263
166.401
169.514
172.576
175.556
178.419
181.128
183.649
185.957
188.025
189.831
191.357
192.588
193.514
194.131
194.437
194.425
194.093
193.437
192.457
191.155
189.536
187.603
185.364
182.825
179.993
176.877
173.486
169.832
165.924
161.774
157.396
152.804
148.014
143.045
137.914
132.642
127.246
121.748
116.168
110.527
104.843
99.137
93.428
87.735
82.077
76.472
70.938
65.491
60.147
54.923
49.833
44.89
40.108
35.498
31.07
26.836
22.802
18.977
15.366
11.975
8.807
5.863
3.146
0.655
-1.613
-3.659
-5.488
-7.105
-8.516
-9.728
-10.749
-11.586
-12.25
-12.749
-13.093
-13.293
-13.36
-13.303
-13.135
-12.865
-12.506
-12.068
-11.561
-10.998
-10.388
-9.74
-9.065
-8.372
-7.669
-6.965
-6.266
-5.58
-4.913
-4.271
-3.658
-3.079
-2.537
-2.035
-1.575
-1.16
-0.789
-0.463
-0.184
0.05
0.239
0.384
0.486
0.547
0.568
0.551
0.499
0.413
0.297
0.151
-0.022
-0.219
-0.439
-0.68
-0.941
-1.219
-1.514
-1.824
-2.148
-2.486
-2.837
-3.2
-3.577
-3.967
-4.37
-4.786
-5.216
-5.661
-6.12
-6.594
-7.083
-7.586
-8.103
-8.634
-9.178
-9.734
-10.301
-10.878
-11.463
-12.056
-12.653
-13.253
-13.853
-14.451
-15.042
-15.625
-16.195
-16.748
-17.282
-17.79
-18.27
-18.716
-19.124
-19.488
-19.805
-20.07
-20.277
-20.422
-20.501
-20.511
-20.449
-20.313
-20.101
-19.813
-19.45
-19.012
-18.502
-17.921
-17.272
-16.557
-15.782
-14.949
-14.062
-13.128
-12.151
-11.139
-10.1
-9.042
-7.973
-6.9
-5.832
-4.777
-3.745
-2.744
-1.78
-0.861
0.006
0.81
1.541
2.192
2.761
3.248
3.656
3.988
4.248
4.448
4.603
4.729
4.839
4.947
5.055
5.174
5.315
5.49
5.716
5.999
6.336
6.718
7.138
7.583
8.036
8.465
8.817
9.043
9.097
8.93
8.507
7.784
6.72
5.286
3.446
1.17
-1.557
-4.748
-8.422
-12.565
-17.182
-22.298
-27.811
-33.552
-39.287
-44.65
-49.326
-53.101
-55.654
-56.605
-55.873
-53.574
-50.102
-46.304
-42.802
-39.918
-38.222
-38.278
-40.159
-43.67
-47.978
-51.383
-52.578
-50.608
-44.083
-31.756
-12.904
12.906
45.037
81.582
120.703
160.274
197.188
228.054
249.332
257.382
249.462
223.914
179.48
116.022
34.984
-60.961
-167.712
-280.163
-392.946
-500.531
-597.341
-678.527
-740.279
-780.091
-797.254
-792.275
-766.724
-723.405
-665.948
-598.497
-525.605
-451.48
-379.479
-312.704
-253.625
-203.777
-164.062
-134.299
-113.212
-99.31
-91.095
-86.644
-84.138
-81.918
-78.371
-72.799
-65.327
-56.256
-46.103
-35.628
-25.506
-16.535
-9.608
-5.02
-2.646
-2.196
-3.15
-5.009
-7.375
-9.754
-11.637
-12.745
-12.941
-12.229
-10.767
-8.664
-6.005
-2.892
0.592
4.355
8.303
12.356
16.437
20.475
24.413
28.191
31.748
35.049
38.059
40.796
43.329
45.706
47.968
50.133
52.185
54.14
56.038
57.914
59.809
61.753
63.762
65.869
68.115
70.528
73.127
75.901
78.806
81.818
84.932
88.155
91.518
95.038
98.713
102.548
106.543
110.69
114.984
119.397
123.89
128.43
132.99
137.551
142.115
146.675
151.222
155.741
160.203
164.577
168.829
172.924
176.834
180.541
184.032
187.312
190.39
193.272
195.973
198.495
200.828
202.95
204.823
206.404
207.667
208.597
209.193
209.457
209.376
208.926
208.082
206.802
205.054
202.804
200.01
196.643
192.697
188.18
183.137
177.618
171.66
165.287
158.509
151.335
143.806
135.975
127.908
119.689
111.388
103.08
94.849
86.765
78.883
71.245
63.862
56.742
49.906
43.386
37.235
31.495
26.181
21.288
16.792
12.65
8.831
5.303
2.025
-1.033
-3.894
-6.578
-9.08
-11.399
-13.545
-15.539
-17.42
-19.224
-20.965
-22.641
-24.24
-25.735
-27.109
-28.347
-29.431
-30.349
-31.098
-31.674
-32.091
-32.365
-32.5
-32.497
-32.35
-32.049
-31.6
-31.011
-30.299
-29.488
-28.596
-27.64
-26.64
-25.613
-24.572
-23.526
-22.479
-21.431
-20.387
-19.354
-18.34
-17.353
-16.402
-15.488
-14.617
-13.79
-13.011
-12.28
-11.598
-10.967
-10.387
-9.862
-9.397
-8.996
-8.663
-8.4
-8.211
-8.096
-8.056
-8.093
-8.204
-8.389
-8.646
-8.973
-9.37
-9.835
-10.363
-10.953
-11.599
-12.298
-13.045
-13.834
-14.658
-15.512
-16.389
-17.285
-18.192
-19.104
-20.013
-20.912
-21.796
-22.654
-23.479
-24.261
-24.989
-25.654
-26.249
-26.768
-27.201
-27.542
-27.787
-27.93
-27.972
-27.909
-27.738
-27.452
-27.046
-26.521
-25.885
-25.145
-24.303
-23.365
-22.34
-21.238
-20.078
-18.869
-17.61
-16.303
-14.945
-13.544
-12.118
-10.683
-9.251
-7.829
-6.414
-5.012
-3.644
-2.313
-1.017
0.254
1.523
2.788
4.025
5.221
6.368
7.465
8.525
9.549
10.524
11.442
12.291
13.072
13.805
14.482
15.077
15.566
15.909
16.093
16.142
16.042
15.764
15.291
14.6
13.684
12.561
11.228
9.665
7.852
5.761
3.382
0.739
-2.151
-5.272
-8.624
-12.23
-16.073
-20.111
-24.308
-28.66
-33.213
-37.942
-42.712
-47.302
-51.378
-54.65
-56.95
-58.023
-57.524
-55.414
-51.848
-47.235
-42.495
-38.332
-35.116
-33.48
-33.993
-36.64
-41.166
-46.676
-51.312
-53.645
-52.53
-46.269
-33.498
-13.495
14.113
48.426
87.257
128.566
169.791
207.205
237.099
255.719
259.485
246.282
215.026
164.976
96.871
13.236
-82.465
-185.42
-290.254
-392.316
-486.832
-569.002
-635.226
-683.163
-711.639
-721.339
-713.758
-690.26
-653.223
-605.75
-550.946
-492.113
-432.175
-372.96
-316.227
-264.14
-218.209
-179.424
-148.146
-123.746
-105.442
-92.744
-84.714
-79.877
-76.727
-73.708
-69.876
-65.128
-59.516
-53.105
-46.222
-39.366
-33.227
-28.665
-26.06
-25.294
-26.106
-28.093
-30.83
-33.939
-36.93
-39.235
-40.533
-40.713
-39.783
-37.883
-35.126
-31.588
-27.396
-22.708
-17.663
-12.388
-6.982
-1.519
3.907
9.188
14.224
18.914
23.202
27.065
30.502
33.537
36.199
38.523
40.561
42.37
44.008
45.531
46.99
48.428
49.895
51.438
53.107
54.947
56.99
59.254
61.753
64.492
67.473
70.691
74.132
77.773
81.588
85.552
89.635
93.811
98.054
102.34
106.651
110.979
115.314
119.652
123.98
128.276
132.524
136.705
140.809
144.828
148.763
152.621
156.414
160.163
163.873
167.54
171.141
174.635
177.974
181.099
183.965
186.539
188.792
190.699
192.236
193.379
194.095
194.347
194.089
193.264
191.835
189.779
187.103
183.837
180.031
175.754
171.066
166.021
160.665
155.037
149.176
143.118
136.905
130.581
124.203
117.838
111.547
105.377
99.359
93.504
87.805
82.242
76.798
71.46
66.221
61.084
56.054
51.139
46.347
41.69
37.168
32.775
28.503
24.346
20.307
16.395
12.625
9.018
5.594
2.368
-0.646
-3.441
-6.016
-8.371
-10.511
-12.446
-14.18
-15.719
-17.066
-18.224
-19.197
-19.992
-20.617
-21.083
-21.399
-21.575
-21.623
-21.551
-21.369
-21.083
-20.7
-20.226
-19.665
-19.025
-18.311
-17.532
-16.694
-15.804
-14.871
-13.901
-12.903
-11.883
-10.846
-9.8
-8.75
-7.701
-6.659
-5.629
-4.615
-3.624
-2.658
-1.723
-0.823
0.039
0.858
1.631
2.355
3.027
3.645
4.205
4.706
5.146
5.523
5.837
6.087
6.272
6.393
6.452
6.449
6.387
6.269
6.096
5.874
5.604
5.293
4.943
4.56
4.148
3.713
3.261
2.798
2.328
1.859
1.397
0.948
0.518
0.114
-0.258
-0.592
-0.881
-1.12
-1.303
-1.425
-1.482
-1.469
-1.383
-1.222
-0.984
-0.67
-0.28
0.184
0.721
1.326
1.998
2.731
3.52
4.361
5.248
6.174
7.133
8.116
9.115
10.121
11.126
12.12
13.094
14.04
14.945
15.803
16.605
17.346
18.016
18.608
19.11
19.514
19.82
20.026
20.131
20.14
20.056
19.888
19.655
19.374
19.062
18.733
18.394
18.054
17.726
17.423
17.162
16.952
16.79
16.673
16.598
16.556
16.531
16.489
16.375
16.13
15.696
15.023
14.071
12.801
11.183
9.181
6.753
3.869
0.512
-3.338
-7.678
-12.518
-17.895
-23.731
-29.851
-36.008
-41.834
-47.004
-51.31
-54.444
-56.039
-56.01
-54.446
-51.682
-48.495
-45.457
-42.862
-41.261
-41.177
-42.648
-45.487
-48.918
-51.328
-51.512
-48.535
-40.95
-27.525
-7.563
19.329
52.352
89.496
128.945
168.524
204.956
234.864
254.724
261.009
251.584
225.361
181.421
120.041
43.091
-46.611
-144.812
-246.438
-346.973
-441.806
-526.146
-596.114
-648.751
-682.179
-696.368
-692.272
-671.149
-635.302
-587.752
-531.761
-471.076
-409.14
-348.45
-291.368
-240.012
-195.763
-159.576
-131.56
-110.779
-96.127
-86.564
-80.645
-76.939
-74.049
-70.497
-65.572
-59.286
-51.805
-43.481
-34.872
-26.478
-18.967
-13.141
-9.289
-7.324
-7.011
-7.914
-9.607
-11.727
-13.804
-15.329
-15.995
-15.666
-14.33
-12.097
-9.06
-5.295
-0.92
3.927
9.116
14.538
20.1
25.73
31.352
36.873
42.205
47.265
51.983
56.319
60.262
63.819
67.01
69.869
72.431
74.741
76.855
78.824
80.697
82.518
84.326
86.162
88.07
90.089
92.258
94.601
97.13
99.85
102.759
105.857
109.137
112.589
116.199
119.947
123.816
127.791
131.859
136.0
140.195
144.421
148.652
152.873
157.069
161.225
165.327
169.352
173.276
177.078
180.735
184.235
187.564
190.701
193.625
196.325
198.784
200.998
202.964
204.652
206.037
207.097
207.81
208.17
208.175
207.815
207.086
205.98
204.489
202.618
200.372
197.746
194.739
191.345
187.555
183.401
178.916
174.123
169.058
163.738
158.181
152.419
146.481
140.395
134.188
127.884
121.503
115.084
108.66
102.272
95.959
89.732
83.603
77.587
71.699
65.957
60.382
54.982
49.765
44.748
39.945
35.37
31.039
26.952
23.11
19.514
16.161
13.056
10.208
7.615
5.278
3.193
1.355
-0.237
-1.588
-2.708
-3.611
-4.309
-4.818
-5.146
-5.308
-5.315
-5.182
-4.923
-4.555
-4.091
-3.546
-2.935
-2.27
-1.568
-0.841
-0.101
0.642
1.377
2.095
2.787
3.444
4.06
4.629
5.144
5.6
5.994
6.322
6.581
6.771
6.889
6.936
6.912
6.818
6.656
6.427
6.135
5.781
5.369
4.902
4.385
3.82
3.211
2.563
1.878
1.161
0.415
-0.356
-1.149
-1.961
-2.789
-3.629
-4.479
-5.336
-6.197
-7.061
-7.924
-8.784
-9.64
-10.489
-11.33
-12.16
-12.978
-13.781
-14.567
-15.335
-16.082
-16.806
-17.505
-18.177
-18.819
-19.428
-20.002
-20.538
-21.034
-21.485
-21.89
-22.243
-22.542
-22.784
-22.965
-23.082
-23.135
-23.119
-23.035
-22.88
-22.656
-22.363
-22.001
-21.571
-21.073
-20.51
-19.884
-19.197
-18.451
-17.649
-16.797
-15.899
-14.964
-13.998
-13.007
-12.0
-10.984
-9.967
-8.956
-7.959
-6.982
-6.033
-5.123
-4.26
-3.46
-2.729
-2.073
-1.493
-0.988
-0.554
-0.186
0.129
0.406
0.656
0.886
1.103
1.307
1.504
1.705
1.92
2.162
2.441
2.755
3.103
3.483
3.872
4.247
4.576
4.812
4.919
4.871
4.64
4.2
3.525
2.582
1.338
-0.227
-2.129
-4.382
-7.001
-10.008
-13.392
-17.142
-21.216
-25.576
-30.237
-35.131
-40.105
-44.937
-49.288
-52.848
-55.428
-56.748
-56.447
-54.478
-50.995
-46.406
-41.614
-37.304
-33.841
-31.872
-31.994
-34.218
-38.296
-43.322
-47.443
-49.27
-47.748
-41.246
-28.424
-8.542
18.818
52.762
91.097
131.866
172.711
210.125
240.539
260.228
265.499
254.154
225.045
177.232
111.096
28.669
-67.001
-171.362
-279.094
-385.416
-485.377
-573.891
-646.854
-701.135
-734.806
-747.854
-741.24
-716.334
-675.697
-622.651
-560.802
-494.257
-426.741
-361.03
-299.783
-245.312
-199.06
-161.95
-133.956
-113.952
-100.664
-92.843
-88.785
-86.847
-85.492
-83.163
-79.158
-73.54
-66.518
-58.515
-50.192
-42.129
-35.05
-29.788
-26.619
-25.424
-25.936
-27.681
-30.201
-33.109
-35.926
-38.137
-39.449
-39.738
-39.008
-37.387
-34.981
-31.875
-28.188
-24.06
-19.618
-14.972
-10.214
-5.413
-0.641
4.017
8.48
12.674
16.533
20.026
23.151
25.924
28.374
30.54
32.464
34.194
35.789
37.305
38.792
40.295
41.851
43.501
45.287
47.245
49.413
51.812
54.45
57.332
60.453
63.807
67.384
71.168
75.138
79.274
83.559
87.975
92.506
97.132
101.832
106.582
111.358
116.138
120.9
125.62
130.274
134.84
139.296
143.619
147.789
151.785
155.584
159.165
162.508
165.592
168.399
170.913
173.118
174.998
176.543
177.742
178.587
179.071
179.191
178.944
178.328
177.344
175.997
174.29
172.229
169.824
167.083
164.018
160.643
156.972
153.021
148.807
144.349
139.666
134.779
129.709
124.478
119.107
113.619
108.038
102.385
96.683
90.955
85.223
79.508
73.832
68.214
62.673
57.229
51.897
46.694
41.635
36.734
32.003
27.455
23.098
18.942
14.994
11.261
7.746
4.454
1.386
-1.458
-4.077
-6.475
-8.654
-10.619
-12.374
-13.927
-15.285
-16.456
-17.448
-18.272
-18.937
-19.454
-19.835
-20.089
-20.229
-20.265
-20.21
-20.075
-19.87
-19.606
-19.295
-18.946
-18.568
-18.173
-17.768
-17.361
-16.96
-16.573
-16.206
-15.863
-15.551
-15.273
-15.033
-14.834
-14.676
-14.563
-14.495
-14.472
-14.493
-14.559
-14.667
-14.816
-15.003
-15.227
-15.484
-15.771
-16.086
-16.424
-16.783
-17.16
-17.55
-17.951
-18.359
-18.773
-19.187
-19.601
-20.01
-20.413
-20.808
-21.193
-21.566
-21.926
-22.273
-22.604
-22.921
-23.223
-23.509
-23.78
-24.036
-24.277
-24.503
-24.714
-24.912
-25.097
-25.269
-25.429
-25.579
-25.718
-25.848
-25.968
-26.079
-26.181
-26.273
-26.357
-26.43
-26.493
-26.545
-26.586
-26.613
-26.626
-26.623
-26.603
-26.563
-26.501
-26.416
-26.304
-26.164
-25.994
-25.793
-25.559
-25.291
-24.989
-24.654
-24.285
-23.884
-23.45
-22.985
-22.49
-21.966
-21.415
-20.836
-20.234
-19.609
-18.964
-18.304
-17.632
-16.95
-16.262
-15.571
-14.882
-14.2
-13.528
-12.868
-12.222
-11.594
-10.987
-10.409
-9.863
-9.348
-8.861
-8.4
-7.96
-7.537
-7.12
-6.69
-6.233
-5.73
-5.171
-4.55
-3.862
-3.098
-2.247
-1.297
-0.244
0.902
2.133
3.441
4.809
6.219
7.631
8.984
10.213
11.253
12.046
12.548
12.714
12.508
11.887
10.803
9.219
7.114
4.463
1.261
-2.509
-6.902
-11.846
-17.154
-22.571
-27.705
-32.214
-35.887
-38.407
-39.386
-38.743
-36.593
-33.327
-29.817
-26.697
-24.278
-23.11
-23.705
-26.06
-29.94
-34.478
-37.924
-38.935
-36.512
-29.232
-15.883
4.164
31.239
64.593
102.213
142.181
182.276
219.313
249.907
270.604
277.922
269.325
243.355
198.909
135.981
56.104
-38.056
-142.489
-252.27
-362.309
-467.368
-562.123
-641.933
-703.106
-743.15
-761.31
-757.982
-734.508
-693.43
-638.124
-572.53
-501.103
-428.047
-356.749
-290.377
-231.543
-181.976
-142.772
-113.901
-94.158
-82.037
-75.992
-74.035
-74.232
-74.765
-73.857
-70.674
-65.24
-57.816
-48.906
-39.268
-29.612
-20.796
-13.773
-8.9
-6.089
-5.068
-5.354
-6.469
-8.01
-9.478
-10.338
-10.291
-9.226
-7.161
-4.246
-0.601
3.681
8.473
13.627
19.018
24.535
30.091
35.623
41.061
46.324
51.335
56.023
60.325
64.212
67.684
70.759
73.467
75.849
77.945
79.808
81.496
83.065
84.568
86.051
87.554
89.118
90.787
92.603
94.603
96.813
99.246
101.908
104.8
107.918
111.258
114.807
118.548
122.464
126.54
130.764
135.12
139.593
144.161
148.803
153.499
158.225
162.96
167.683
172.368
176.994
181.536
185.972
190.28
194.436
198.417
202.199
205.758
209.072
212.119
214.879
217.331
219.458
221.245
222.676
223.74
224.426
224.727
224.634
224.144
223.255
221.965
220.276
218.191
215.716
212.857
209.624
206.027
202.08
197.797
193.194
188.289
183.099
177.646
171.951
166.036
159.923
153.637
147.202
140.643
133.985
127.253
120.472
113.667
106.863
100.085
93.355
86.696
80.131
73.679
67.362
61.198
55.206
49.401
43.799
38.414
33.259
28.346
23.684
19.28
15.144
11.278
7.688
4.376
1.343
-1.412
-3.89
-6.094
-8.03
-9.702
-11.117
-12.283
-13.21
-13.906
-14.382
-14.65
-14.722
-14.609
-14.326
-13.884
-13.299
-12.583
-11.751
-10.817
-9.794
-8.697
-7.539
-6.333
-5.093
-3.83
-2.558
-1.287
-0.029
1.207
2.41
3.572
4.683
5.738
6.728
7.648
8.492
9.257
9.938
10.532
11.037
11.451
11.773
12.004
12.143
12.192
12.152
12.025
11.814
11.522
11.152
10.709
10.197
9.621
8.985
8.294
7.554
6.77
5.947
5.09
4.205
3.296
2.37
1.429
0.48
-0.473
-1.427
-2.377
-3.32
-4.253
-5.171
-6.074
-6.957
-7.818
-8.656
-9.469
-10.255
-11.014
-11.745
-12.446
-13.117
-13.76
-14.372
-14.955
-15.509
-16.034
-16.532
-17.002
-17.446
-17.865
-18.26
-18.632
-18.98
-19.308
-19.614
-19.899
-20.164
-20.408
-20.632
-20.836
-21.019
-21.181
-21.322
-21.44
-21.536
-21.608
-21.656
-21.679
-21.677
-21.648
-21.592
-21.509
-21.399
-21.263
-21.1
-20.912
-20.701
-20.468
-20.214
-19.942
-19.652
-19.348
-19.031
-18.703
-18.365
-18.018
-17.665
-17.31
-16.955
-16.602
-16.255
-15.918
-15.594
-15.288
-15.0
-14.73
-14.479
-14.245
-14.032
-13.844
-13.683
-13.549
-13.439
-13.354
-13.289
-13.238
-13.19
-13.12
-13.008
-12.839
-12.602
-12.295
-11.91
-11.44
-10.876
-10.209
-9.436
-8.562
-7.591
-6.526
-5.384
-4.19
-3.0
-1.901
-0.967
-0.265
0.149
0.245
-0.026
-0.727
-1.91
-3.627
-5.922
-8.803
-12.311
-16.535
-21.437
-26.878
-32.613
-38.212
-43.311
-47.682
-50.993
-52.854
-53.185
-52.077
-49.915
-47.569
-45.665
-44.506
-44.633
-46.513
-50.081
-55.029
-60.438
-64.521
-65.916
-63.589
-56.064
-42.122
-21.169
7.052
41.693
80.649
121.904
163.11
200.917
231.833
252.343
258.963
249.229
221.763
175.57
110.827
29.279
-66.243
-171.595
-281.776
-391.705
-496.151
-589.852
-668.319
-728.036
-766.673
-783.626
-779.385
-755.323
-713.998
-658.745
-593.384
-522.227
-449.328
-377.934
-311.106
-251.409
-200.552
-159.671
-128.829
-106.938
-92.621
-84.457
-80.572
-79.111
-78.296
-76.357
-72.435
-66.509
-58.794
-49.735
-40.034
-30.365
-21.57
-14.601
-9.834
-7.19
-6.407
-7.008
-8.513
-10.51
-12.492
-13.905
-14.435
-13.973
-12.548
-10.34
-7.514
-4.185
-0.494
3.41
7.414
11.427
15.387
19.274
23.051
26.66
30.049
33.155
35.924
38.357
40.49
42.391
44.16
45.878
47.612
49.432
51.386
53.511
55.824
58.307
60.946
63.744
66.707
69.862
73.231
76.809
80.577
84.502
88.531
92.623
96.747
100.865
104.956
109.013
113.044
117.081
121.152
125.268
129.43
133.626
137.838
142.057
146.271
150.464
154.631
158.76
162.839
166.859
170.803
174.643
178.346
181.87
185.171
188.217
190.978
193.433
195.562
197.348
198.779
199.849
200.549
200.874
200.816
200.369
199.53
198.3
196.683
194.688
192.323
189.601
186.531
183.128
179.405
175.375
171.055
166.459
161.603
156.505
151.186
145.668
139.972
134.121
128.14
122.052
115.882
109.653
103.39
97.115
90.85
84.619
78.441
72.338
66.329
60.433
54.666
49.047
43.59
38.309
33.218
28.327
23.648
19.188
14.956
10.958
7.199
3.682
0.409
-2.617
-5.398
-7.935
-10.23
-12.288
-14.113
-15.711
-17.09
-18.258
-19.224
-19.997
-20.588
-21.007
-21.265
-21.374
-21.344
-21.187
-20.915
-20.539
-20.072
-19.523
-18.906
-18.23
-17.506
-16.745
-15.955
-15.147
-14.329
-13.509
-12.695
-11.894
-11.113
-10.357
-9.633
-8.945
-8.297
-7.693
-7.134
-6.624
-6.164
-5.755
-5.396
-5.088
-4.83
-4.621
-4.459
-4.342
-4.269
-4.236
-4.24
-4.279
-4.35
-4.45
-4.575
-4.721
-4.887
-5.068
-5.262
-5.465
-5.674
-5.887
-6.101
-6.314
-6.522
-6.724
-6.917
-7.1
-7.271
-7.428
-7.57
-7.697
-7.808
-7.903
-7.983
-8.047
-8.097
-8.133
-8.157
-8.171
-8.176
-8.175
-8.169
-8.161
-8.153
-8.149
-8.15
-8.16
-8.18
-8.214
-8.262
-8.327
-8.411
-8.516
-8.642
-8.791
-8.963
-9.161
-9.384
-9.633
-9.908
-10.21
-10.539
-10.892
-11.27
-11.672
-12.095
-12.537
-12.996
-13.47
-13.955
-14.448
-14.946
-15.445
-15.94
-16.426
-16.899
-17.354
-17.786
-18.189
-18.561
-18.895
-19.189
-19.44
-19.644
-19.8
-19.907
-19.966
-19.974
-19.932
-19.84
-19.698
-19.509
-19.272
-18.989
-18.662
-18.294
-17.889
-17.453
-16.991
-16.508
-16.01
-15.504
-14.995
-14.491
-13.997
-13.518
-13.062
-12.636
-12.25
-11.915
-11.642
-11.43
-11.282
-11.196
-11.164
-11.178
-11.226
-11.287
-11.346
-11.391
-11.41
-11.4
-11.35
-11.247
-11.077
-10.825
-10.478
-10.036
-9.502
-8.882
-8.199
-7.483
-6.768
-6.107
-5.549
-5.135
-4.901
-4.881
-5.112
-5.63
-6.477
-7.684
-9.271
-11.252
-13.64
-16.446
-19.66
-23.262
-27.206
-31.447
-35.973
-40.692
-45.433
-49.956
-53.923
-57.034
-59.084
-59.79
-58.788
-55.998
-51.589
-46.009
-40.07
-34.399
-29.306
-25.309
-23.083
-22.81
-24.233
-26.491
-28.012
-27.548
-24.34
-17.26
-4.86
13.796
39.078
70.383
105.947
143.998
182.779
219.631
250.97
273.053
282.267
275.773
251.908
209.445
147.887
68.252
-26.737
-132.951
-245.299
-358.385
-466.92
-565.545
-649.34
-714.341
-757.993
-779.528
-779.46
-759.287
-721.428
-669.121
-606.228
-537.079
-465.795
-395.621
-329.475
-269.792
-218.32
-176.264
-143.767
-119.849
-103.164
-92.394
-85.86
-81.852
-78.679
-74.581
-68.665
-60.918
-51.581
-41.098
-30.135
-19.334
-9.518
-1.687
3.744
6.85
7.885
7.338
5.69
3.328
0.759
-1.452
-2.98
-3.671
-3.501
-2.592
-1.027
1.152
3.859
7.007
10.507
14.26
18.192
22.246
26.355
30.457
34.495
38.417
42.197
45.826
49.315
52.692
55.972
59.164
62.269
65.27
68.175
71.008
73.794
76.565
79.347
82.16
85.026
87.966
90.986
94.074
97.218
100.4
103.615
106.873
110.193
113.605
117.13
120.775
124.545
128.438
132.446
136.559
140.763
145.037
149.368
153.75
158.177
162.639
167.118
171.588
176.015
180.361
184.589
188.662
192.548
196.22
199.652
202.823
205.717
208.319
210.616
212.589
214.224
215.504
216.419
216.96
217.121
216.901
216.299
215.318
213.96
212.23
210.134
207.677
204.867
201.71
198.216
194.398
190.269
185.844
181.143
176.182
170.983
165.567
159.955
154.17
148.234
142.17
135.999
129.745
123.431
117.079
110.711
104.35
98.016
91.73
85.513
79.383
73.358
67.457
61.694
56.084
50.642
45.381
40.311
35.443
30.786
26.348
22.135
18.151
14.402
10.887
7.609
4.566
1.757
-0.821
-3.174
-5.305
-7.22
-8.927
-10.433
-11.745
-12.873
-13.826
-14.612
-15.243
-15.728
-16.079
-16.305
-16.417
-16.427
-16.343
-16.179
-15.942
-15.644
-15.294
-14.902
-14.476
-14.026
-13.559
-13.084
-12.606
-12.132
-11.668
-11.219
-10.789
-10.383
-10.003
-9.652
-9.333
-9.047
-8.795
-8.577
-8.395
-8.248
-8.136
-8.058
-8.012
-7.997
-8.013
-8.056
-8.126
-8.219
-8.334
-8.469
-8.621
-8.787
-8.965
-9.153
-9.347
-9.547
-9.748
-9.951
-10.151
-10.348
-10.539
-10.723
-10.899
-11.065
-11.221
-11.365
-11.497
-11.617
-11.724
-11.819
-11.901
-11.972
-12.03
-12.078
-12.116
-12.144
-12.163
-12.176
-12.182
-12.183
-12.181
-12.177
-12.173
-12.17
-12.17
-12.175
-12.185
-12.204
-12.232
-12.271
-12.322
-12.388
-12.47
-12.569
-12.686
-12.823
-12.981
-13.159
-13.358
-13.579
-13.821
-14.083
-14.365
-14.667
-14.987
-15.324
-15.676
-16.042
-16.42
-16.807
-17.201
-17.6
-17.999
-18.397
-18.789
-19.173
-19.545
-19.901
-20.237
-20.551
-20.838
-21.094
-21.316
-21.499
-21.639
-21.734
-21.78
-21.775
-21.715
-21.6
-21.428
-21.199
-20.914
-20.573
-20.177
-19.728
-19.227
-18.677
-18.081
-17.44
-16.759
-16.041
-15.291
-14.514
-13.717
-12.906
-12.088
-11.268
-10.454
-9.651
-8.867
-8.109
-7.381
-6.689
-6.038
-5.435
-4.888
-4.404
-3.982
-3.621
-3.316
-3.06
-2.85
-2.675
-2.516
-2.362
-2.197
-2.011
-1.799
-1.556
-1.272
-0.937
-0.534
-0.056
0.492
1.104
1.77
2.47
3.193
3.909
4.564
5.115
5.516
5.716
5.69
5.404
4.814
3.898
2.615
0.923
-1.194
-3.765
-6.804
-10.295
-14.255
-18.71
-23.577
-28.708
-33.869
-38.711
-42.942
-46.351
-48.652
-49.498
-48.695
-46.315
-42.741
-38.68
-34.832
-31.635
-29.523
-29.125
-30.838
-34.5
-39.406
-44.188
-47.212
-47.277
-43.179
-33.273
-16.284
8.317
40.306
78.245
119.873
162.93
204.524
240.686
267.372
280.783
277.631
255.917
214.702
153.778
74.376
-20.476
-126.52
-238.572
-350.993
-458.336
-555.359
-637.285
-700.316
-742.101
-761.966
-760.503
-739.306
-700.864
-648.406
-585.745
-517.16
-446.688
-377.502
-312.469
-253.983
-203.758
-163.007
-131.893
-109.43
-94.3
-85.216
-80.509
-78.495
-77.475
-75.647
-72.083
-66.712
-59.704
-51.447
-42.546
-33.583
-25.354
-18.837
-14.438
-12.102
-11.591
-12.431
-14.166
-16.408
-18.643
-20.291
-21.011
-20.657
-19.223
-16.851
-13.657
-9.729
-5.201
-0.229
5.045
10.499
16.039
21.594
27.091
32.436
37.543
42.329
46.728
50.703
54.25
57.382
60.127
62.523
64.613
66.45
68.092
69.597
71.017
72.4
73.786
75.22
76.745
78.405
80.239
82.27
84.513
86.974
89.653
92.545
95.645
98.941
102.413
106.047
109.828
113.741
117.773
121.908
126.126
130.408
134.732
139.079
143.428
147.759
152.052
156.285
160.438
164.491
168.424
172.217
175.85
179.301
182.55
185.576
188.363
190.891
193.145
195.109
196.769
198.115
199.135
199.823
200.17
200.172
199.827
199.131
198.086
196.694
194.959
192.885
190.479
187.751
184.71
181.369
177.739
173.835
169.674
165.271
160.644
155.812
150.793
145.609
140.278
134.823
129.263
123.621
117.916
112.171
106.406
100.641
94.897
89.192
83.546
77.975
72.498
67.13
61.886
56.78
51.826
47.036
42.42
37.988
33.749
29.71
25.877
22.254
18.846
15.655
12.681
9.924
7.383
5.055
2.937
1.024
-0.69
-2.211
-3.546
-4.705
-5.696
-6.528
-7.211
-7.757
-8.175
-8.478
-8.676
-8.781
-8.805
-8.759
-8.654
-8.501
-8.312
-8.096
-7.864
-7.627
-7.392
-7.169
-6.965
-6.788
-6.646
-6.543
-6.485
-6.476
-6.52
-6.621
-6.78
-6.998
-7.277
-7.616
-8.014
-8.471
-8.983
-9.549
-10.166
-10.829
-11.535
-12.279
-13.057
-13.863
-14.693
-15.542
-16.403
-17.272
-18.143
-19.012
-19.873
-20.721
-21.551
-22.36
-23.144
-23.898
-24.619
-25.305
-25.954
-26.562
-27.129
-27.653
-28.135
-28.573
-28.968
-29.321
-29.632
-29.904
-30.139
-30.338
-30.504
-30.64
-30.751
-30.837
-30.904
-30.955
-30.993
-31.022
-31.046
-31.067
-31.09
-31.117
-31.152
-31.198
-31.257
-31.331
-31.424
-31.535
-31.668
-31.822
-32.0
-32.201
-32.427
-32.676
-32.948
-33.243
-33.561
-33.899
-34.256
-34.631
-35.02
-35.422
-35.834
-36.252
-36.673
-37.095
-37.513
-37.925
-38.327
-38.716
-39.089
-39.442
-39.772
-40.076
-40.351
-40.594
-40.804
-40.976
-41.109
-41.202
-41.252
-41.257
-41.217
-41.13
-40.995
-40.81
-40.576
-40.291
-39.956
-39.569
-39.133
-38.648
-38.116
-37.538
-36.918
-36.259
-35.564
-34.836
-34.081
-33.301
-32.502
-31.687
-30.86
-30.024
-29.185
-28.346
-27.512
-26.687
-25.877
-25.085
-24.315
-23.571
-22.86
-22.184
-21.546
-20.947
-20.386
-19.866
-19.389
-18.958
-18.576
-18.239
-17.942
-17.681
-17.452
-17.246
-17.05
-16.841
-16.598
-16.304
-15.945
-15.518
-15.017
-14.43
-13.747
-12.958
-12.058
-11.057
-9.961
-8.773
-7.505
-6.18
-4.836
-3.544
-2.375
-1.388
-0.636
-0.155
0.024
-0.144
-0.709
-1.715
-3.203
-5.195
-7.696
-10.749
-14.417
-18.681
-23.414
-28.36
-33.152
-37.468
-41.084
-43.74
-45.103
-44.969
-43.392
-40.734
-37.69
-34.951
-32.895
-31.836
-32.259
-34.425
-38.137
-42.731
-46.862
-48.969
-48.007
-43.006
-32.604
-15.782
7.909
38.327
74.077
113.076
153.497
192.977
228.122
255.474
271.531
273.057
258.253
226.112
175.753
107.621
23.867
-72.409
-176.706
-283.841
-389.369
-488.678
-576.797
-649.722
-704.558
-739.44
-754.486
-750.82
-729.375
-692.149
-642.187
-582.773
-517.659
-450.457
-383.57
-319.234
-260.165
-208.371
-165.167
-131.043
-105.222
-86.583
-74.34
-67.264
-63.546
-61.356
-58.857
-54.951
-49.556
-42.835
-34.973
-26.408
-17.758
-9.844
-3.653
0.348
2.257
2.364
1.112
-1.047
-3.709
-6.36
-8.404
-9.475
-9.436
-8.286
-6.166
-3.196
0.541
4.917
9.774
14.97
20.381
25.901
31.454
36.958
42.315
47.433
52.224
56.615
60.568
64.077
67.157
69.836
72.154
74.151
75.879
77.397
78.765
80.037
81.26
82.479
83.736
85.079
86.553
88.197
90.038
92.087
94.35
96.827
99.514
102.404
105.483
108.733
112.139
115.684
119.356
123.141
127.023
130.982
134.999
139.054
143.127
147.2
151.253
155.266
159.22
163.096
166.875
170.539
174.07
177.446
180.65
183.66
186.46
189.031
191.357
193.422
195.212
196.715
197.92
198.818
199.403
199.667
199.606
199.219
198.503
197.46
196.092
194.404
192.399
190.086
187.472
184.568
181.384
177.933
174.228
170.283
166.114
161.737
157.169
152.427
147.529
142.495
137.343
132.092
126.761
121.368
115.933
110.474
105.008
99.554
94.128
88.745
83.422
78.173
73.011
67.95
63.001
58.175
53.482
48.93
44.528
40.283
36.201
32.286
28.543
24.975
21.584
18.372
15.34
12.486
9.81
7.31
4.984
2.828
0.84
-0.985
-2.652
-4.165
-5.529
-6.749
-7.832
-8.783
-9.607
-10.312
-10.901
-11.383
-11.761
-12.042
-12.232
-12.335
-12.357
-12.303
-12.177
-11.985
-11.73
-11.417
-11.05
-10.634
-10.171
-9.665
-9.12
-8.538
-7.924
-7.279
-6.607
-5.911
-5.194
-4.457
-3.705
-2.94
-2.165
-1.381
-0.593
0.197
0.987
1.774
2.556
3.328
4.09
4.839
5.571
6.285
6.977
7.646
8.29
8.905
9.491
10.044
10.564
11.05
11.498
11.909
12.28
12.612
12.904
13.155
13.365
13.534
13.663
13.752
13.803
13.815
13.791
13.733
13.641
13.517
13.365
13.185
12.98
12.752
12.503
12.237
11.954
11.658
11.35
11.032
10.706
10.375
10.039
9.699
9.358
9.017
8.675
8.335
7.995
7.658
7.321
6.987
6.653
6.32
5.986
5.653
5.317
4.98
4.639
4.295
3.946
3.591
3.23
2.862
2.486
2.102
1.709
1.307
0.896
0.477
0.05
-0.385
-0.825
-1.27
-1.718
-2.166
-2.614
-3.057
-3.494
-3.92
-4.334
-4.73
-5.105
-5.454
-5.775
-6.063
-6.314
-6.524
-6.692
-6.813
-6.887
-6.911
-6.885
-6.807
-6.676
-6.492
-6.256
-5.966
-5.625
-5.231
-4.786
-4.293
-3.754
-3.174
-2.557
-1.906
-1.227
-0.524
0.197
0.931
1.671
2.415
3.156
3.89
4.61
5.304
5.968
6.6
7.201
7.773
8.32
8.845
9.36
9.88
10.42
10.992
11.608
12.269
12.981
13.754
14.593
15.513
16.518
17.6
18.751
19.958
21.201
22.46
23.697
24.85
25.868
26.696
27.276
27.571
27.537
27.131
26.33
25.094
23.39
21.196
18.487
15.249
11.501
7.239
2.452
-2.761
-8.231
-13.702
-18.799
-23.212
-26.713
-29.024
-29.805
-28.886
-26.368
-22.645
-18.441
-14.443
-11.055
-8.709
-8.03
-9.386
-12.604
-16.985
-21.175
-23.627
-23.228
-18.781
-8.657
8.404
32.939
64.707
102.305
143.557
186.206
227.286
262.749
288.429
300.435
295.438
271.31
227.044
162.554
79.272
-19.481
-129.107
-244.191
-358.881
-467.412
-564.376
-645.051
-705.838
-744.754
-761.495
-756.886
-732.787
-692.056
-638.178
-575.068
-506.943
-437.594
-370.007
-306.975
-250.755
-202.833
-164.18
-134.773
-113.578
-99.344
-90.791
-86.192
-83.85
-82.14
-79.426
-74.945
-68.705
-60.905
-51.978
-42.6
-33.415
-25.225
-18.931
-14.857
-12.91
-12.829
-14.136
-16.358
-19.078
-21.775
-23.893
-25.106
-25.274
-24.387
-22.57
-19.922
-16.526
-12.505
-8.004
-3.157
1.923
7.142
12.427
17.7
22.866
27.833
32.513
36.829
40.739
44.232
47.315
50.013
52.36
54.393
56.163
57.73
59.148
60.47
61.744
63.009
64.311
65.695
67.206
68.886
70.762
72.849
75.154
77.678
80.418
83.368
86.517
89.844
93.335
96.975
100.751
104.649
108.653
112.744
116.903
121.109
125.341
129.581
133.807
137.999
142.137
146.2
150.168
154.023
157.745
161.311
164.701
167.895
170.872
173.614
176.102
178.318
180.248
181.877
183.194
184.187
184.848
185.17
185.147
184.776
184.053
182.978
181.554
179.782
177.668
175.217
172.437
169.339
165.933
162.231
158.248
153.998
149.498
144.766
139.82
134.678
129.361
123.89
118.285
112.568
106.76
100.884
94.96
89.009
83.054
77.113
71.207
65.355
59.574
53.883
48.297
42.833
37.504
32.324
27.306
22.461
17.798
13.326
9.053
4.985
1.127
-2.518
-5.946
-9.158
-12.153
-14.932
-17.497
-19.852
-22.002
-23.951
-25.707
-27.277
-28.668
-29.888
-30.948
-31.856
-32.621
-33.255
-33.768
-34.168
-34.468
-34.678
-34.807
-34.865
-34.864
-34.811
-34.717
-34.59
-34.438
-34.269
-34.09
-33.908
-33.73
-33.559
-33.403
-33.264
-33.147
-33.055
-32.989
-32.952
-32.945
-32.967
-33.02
-33.103
-33.214
-33.352
-33.516
-33.704
-33.913
-34.14
-34.383
-34.64
-34.905
-35.178
-35.453
-35.729
-36.001
-36.266
-36.522
-36.765
-36.993
-37.204
-37.394
-37.562
-37.705
-37.823
-37.913
-37.975
-38.008
-38.011
-37.984
-37.927
-37.842
-37.729
-37.588
-37.422
-37.232
-37.019
-36.785
-36.533
-36.265
-35.983
-35.69
-35.389
-35.082
-34.773
-34.464
-34.157
-33.857
-33.566
-33.286
-33.02
-32.771
-32.54
-32.331
-32.146
-31.985
-31.851
-31.746
-31.669
-31.621
-31.603
-31.614
-31.654
-31.722
-31.815
-31.934
-32.076
-32.24
-32.421
-32.619
-32.83
-33.05
-33.276
-33.504
-33.731
-33.95
-34.159
-34.353
-34.526
-34.675
-34.795
-34.88
-34.926
-34.929
-34.884
-34.787
-34.633
-34.419
-34.143
-33.8
-33.39
-32.912
-32.365
-31.75
-31.068
-30.321
-29.51
-28.639
-27.711
-26.729
-25.697
-24.619
-23.499
-22.344
-21.158
-19.949
-18.723
-17.487
-16.249
-15.016
-13.797
-12.601
-11.433
-10.298
-9.201
-8.148
-7.146
-6.205
-5.33
-4.523
-3.785
-3.116
-2.515
-1.977
-1.494
-1.044
-0.609
-0.173
0.275
0.741
1.23
1.754
2.325
2.957
3.654
4.414
5.232
6.108
7.032
7.985
8.926
9.789
10.499
10.998
11.233
11.16
10.75
9.95
8.704
6.967
4.694
1.865
-1.522
-5.504
-10.135
-15.379
-21.099
-27.033
-32.812
-38.119
-42.731
-46.379
-48.709
-49.486
-48.719
-46.706
-44.062
-41.39
-39.01
-37.229
-36.565
-37.349
-39.484
-42.428
-44.998
-45.801
-43.893
-38.274
-27.495
-10.43
13.513
44.298
80.679
120.793
162.839
204.233
241.322
270.362
287.546
289.543
274.373
240.6
187.372
115.534
27.617
-72.596
-180.032
-289.409
-395.784
-493.624
-577.736
-644.196
-690.261
-715.035
-719.208
-703.859
-670.792
-623.298
-565.217
-500.651
-433.771
-367.502
-304.225
-246.596
-196.678
-155.579
-123.539
-99.657
-82.481
-71.035
-64.099
-59.889
-56.669
-52.735
-47.093
-39.77
-31.108
-21.4
-11.136
-0.977
8.276
15.627
20.583
23.239
23.864
22.909
20.84
18.05
15.052
12.44
10.584
9.667
9.746
10.714
12.487
15.01
18.173
21.856
25.949
30.339
34.942
39.684
44.479
49.244
53.892
58.336
62.506
66.339
69.801
72.894
75.635
78.051
80.182
82.066
83.751
85.296
86.756
88.181
89.617
91.104
92.684
94.402
96.295
98.401
100.743
103.327
106.158
109.234
112.546
116.083
119.829
123.761
127.86
132.107
136.485
140.977
145.566
150.229
154.945
159.691
164.444
169.179
173.873
178.499
183.031
187.445
191.718
195.826
199.748
203.46
206.943
210.174
213.132
215.793
218.133
220.132
221.773
223.046
223.944
224.467
224.621
224.415
223.861
222.968
221.741
220.179
218.276
216.023
213.416
210.456
207.154
203.522
199.569
195.302
190.728
185.841
180.634
175.091
169.194
162.935
156.322
149.384
142.166
134.724
127.124
119.422
111.663
103.886
96.131
88.437
80.842
73.396
66.153
59.176
52.539
46.301
40.501
35.152
30.242
25.74
21.6
17.781
14.251
10.985
7.962
5.166
2.579
0.179
-2.058
-4.171
-6.211
-8.222
-10.234
-12.263
-14.303
-16.334
-18.325
-20.247
-22.077
-23.799
-25.407
-26.899
-28.277
-29.545
-30.707
-31.762
-32.697
-33.505
-34.176
-34.714
-35.126
-35.431
-35.648
-35.801
-35.907
-35.984
-36.042
-36.087
-36.122
-36.149
-36.163
-36.164
-36.156
-36.14
-36.121
-36.101
-36.079
-36.056
-36.027
-35.99
-35.942
-35.879
-35.8
-35.702
-35.587
-35.455
-35.308
-35.148
-34.978
-34.797
-34.607
-34.408
-34.2
-33.984
-33.759
-33.525
-33.283
-33.035
-32.78
-32.522
-32.26
-31.997
-31.734
-31.473
-31.215
-30.963
-30.716
-30.478
-30.249
-30.031
-29.827
-29.636
-29.462
-29.305
-29.166
-29.046
-28.946
-28.865
-28.803
-28.76
-28.735
-28.727
-28.736
-28.76
-28.799
-28.85
-28.914
-28.987
-29.069
-29.157
-29.249
-29.343
-29.435
-29.523
-29.605
-29.677
-29.736
-29.78
-29.805
-29.808
-29.786
-29.735
-29.653
-29.536
-29.383
-29.19
-28.956
-28.68
-28.361
-28.0
-27.598
-27.157
-26.676
-26.16
-25.609
-25.027
-24.417
-23.781
-23.122
-22.445
-21.752
-21.05
-20.343
-19.637
-18.937
-18.249
-17.578
-16.931
-16.314
-15.732
-15.189
-14.687
-14.233
-13.83
-13.489
-13.213
-13.001
-12.851
-12.763
-12.73
-12.748
-12.804
-12.879
-12.955
-13.014
-13.041
-13.032
-12.979
-12.87
-12.692
-12.432
-12.081
-11.649
-11.141
-10.561
-9.924
-9.25
-8.575
-7.963
-7.479
-7.184
-7.134
-7.374
-7.945
-8.883
-10.228
-12.024
-14.302
-17.08
-20.375
-24.19
-28.533
-33.442
-38.837
-44.527
-50.255
-55.644
-60.355
-64.172
-66.777
-67.783
-67.105
-64.847
-61.361
-57.465
-53.76
-50.552
-48.431
-47.949
-49.144
-51.836
-55.23
-57.649
-57.836
-54.793
-46.97
-33.079
-12.393
15.508
49.808
88.456
129.549
170.701
208.387
239.014
258.854
264.26
252.994
223.828
175.862
109.617
27.294
-67.881
-171.238
-277.431
-381.6
-478.7
-563.721
-632.781
-683.069
-713.055
-723.068
-714.309
-688.408
-648.142
-596.837
-537.937
-475.221
-411.941
-350.42
-292.915
-241.333
-196.816
-160.173
-131.402
-109.559
-93.686
-82.862
-75.708
-70.91
-67.158
-62.996
-57.741
-51.394
-44.027
-35.924
-27.594
-19.465
-12.169
-6.519
-2.799
-0.925
-0.681
-1.638
-3.38
-5.571
-7.753
-9.405
-10.218
-10.053
-8.899
-6.878
-4.091
-0.614
3.436
7.918
12.7
17.67
22.735
27.828
32.877
37.796
42.503
46.918
50.971
54.629
57.885
60.753
63.26
65.444
67.344
69.01
70.5
71.87
73.169
74.442
75.729
77.069
78.507
80.083
81.837
83.794
85.966
88.36
90.975
93.808
96.851
100.092
103.512
107.095
110.824
114.685
118.664
122.744
126.905
131.125
135.382
139.655
143.923
148.163
152.354
156.473
160.499
164.41
168.187
171.807
175.251
178.495
181.518
184.301
186.825
189.071
191.022
192.664
193.982
194.966
195.605
195.893
195.823
195.39
194.592
193.43
191.904
190.017
187.776
185.186
182.257
178.999
175.426
171.55
167.387
162.955
158.271
153.355
148.227
142.909
137.422
131.79
126.034
120.179
114.248
108.264
102.251
96.232
90.23
84.266
78.362
72.539
66.815
61.211
55.742
50.426
45.278
40.311
35.54
30.974
26.624
22.499
18.606
14.951
11.538
8.369
5.446
2.768
0.335
-1.858
-3.813
-5.536
-7.034
-8.314
-9.385
-10.255
-10.935
-11.435
-11.767
-11.942
-11.971
-11.868
-11.644
-11.312
-10.884
-10.373
-9.79
-9.147
-8.457
-7.73
-6.977
-6.208
-5.434
-4.664
-3.906
-3.168
-2.457
-1.78
-1.142
-0.549
-0.003
0.49
0.93
1.314
1.642
1.912
2.125
2.283
2.386
2.436
2.435
2.387
2.294
2.16
1.988
1.781
1.543
1.279
0.993
0.687
0.367
0.036
-0.302
-0.642
-0.983
-1.318
-1.647
-1.965
-2.27
-2.559
-2.831
-3.082
-3.312
-3.521
-3.706
-3.868
-4.006
-4.122
-4.215
-4.288
-4.341
-4.375
-4.393
-4.396
-4.386
-4.367
-4.339
-4.305
-4.269
-4.232
-4.196
-4.164
-4.139
-4.121
-4.113
-4.118
-4.135
-4.167
-4.215
-4.28
-4.362
-4.462
-4.581
-4.718
-4.873
-5.045
-5.233
-5.437
-5.654
-5.882
-6.118
-6.361
-6.606
-6.851
-7.093
-7.327
-7.55
-7.757
-7.944
-8.108
-8.243
-8.346
-8.412
-8.438
-8.42
-8.355
-8.242
-8.077
-7.861
-7.592
-7.271
-6.897
-6.47
-5.993
-5.465
-4.889
-4.267
-3.599
-2.89
-2.142
-1.36
-0.549
0.284
1.135
1.999
2.869
3.739
4.603
5.452
6.284
7.092
7.871
8.613
9.308
9.952
10.542
11.08
11.568
12.011
12.412
12.781
13.134
13.485
13.846
14.231
14.642
15.088
15.578
16.124
16.739
17.43
18.193
19.022
19.906
20.834
21.787
22.733
23.619
24.396
25.012
25.412
25.558
25.402
24.902
24.027
22.74
21.002
18.787
16.07
12.824
9.063
4.778
-0.062
-5.353
-10.917
-16.506
-21.724
-26.241
-29.85
-32.235
-33.025
-32.166
-29.788
-26.283
-22.524
-19.121
-16.367
-14.827
-15.02
-16.929
-20.302
-24.257
-27.018
-27.293
-24.13
-16.016
-1.728
19.381
47.682
82.286
121.038
162.034
202.977
240.396
270.779
290.458
295.726
284.322
255.011
206.735
139.768
56.087
-41.329
-147.966
-258.462
-367.939
-471.263
-563.094
-639.094
-695.918
-731.438
-745.484
-738.903
-713.042
-670.581
-615.065
-550.355
-480.822
-410.437
-342.215
-279.059
-223.434
-176.794
-139.955
-112.723
-93.784
-81.69
-75.002
-71.803
-70.292
-68.871
-66.027
-61.152
-54.408
-46.094
-36.729
-27.081
-17.826
-9.738
-3.638
0.233
2.021
2.016
0.705
-1.435
-3.997
-6.488
-8.404
-9.454
-9.524
-8.617
-6.856
-4.341
-1.153
2.592
6.76
11.228
15.893
20.664
25.473
30.249
34.904
39.357
43.525
47.338
50.756
53.772
56.396
58.656
60.585
62.222
63.616
64.826
65.907
66.91
67.882
68.86
69.888
71.009
72.266
73.699
75.337
77.192
79.27
81.574
84.099
86.839
89.782
92.909
96.202
99.646
103.228
106.934
110.746
114.646
118.613
122.624
126.66
130.699
134.721
138.704
142.626
146.467
150.207
153.826
157.303
160.619
163.751
166.679
169.384
171.847
174.05
175.977
177.612
178.943
179.959
180.649
181.007
181.027
180.702
180.032
179.016
177.653
175.947
173.902
171.524
168.821
165.801
162.476
158.857
154.959
150.796
146.384
141.74
136.884
131.832
126.606
121.225
115.71
110.083
104.364
98.575
92.737
86.871
80.999
75.141
69.315
63.542
57.839
52.224
46.713
41.322
36.066
30.957
26.009
21.233
16.638
12.235
8.031
4.033
0.246
-3.326
-6.679
-9.811
-12.722
-15.412
-17.883
-20.136
-22.175
-24.004
-25.629
-27.056
-28.291
-29.342
-30.217
-30.925
-31.474
-31.873
-32.133
-32.263
-32.272
-32.17
-31.968
-31.675
-31.299
-30.852
-30.342
-29.777
-29.167
-28.519
-27.842
-27.142
-26.426
-25.701
-24.972
-24.246
-23.528
-22.821
-22.13
-21.459
-20.81
-20.186
-19.589
-19.021
-18.483
-17.976
-17.5
-17.055
-16.641
-16.257
-15.903
-15.577
-15.279
-15.008
-14.761
-14.538
-14.337
-14.157
-13.996
-13.853
-13.727
-13.617
-13.521
-13.44
-13.372
-13.317
-13.274
-13.243
-13.224
-13.216
-13.221
-13.237
-13.266
-13.308
-13.363
-13.433
-13.517
-13.618
-13.737
-13.874
-14.03
-14.209
-14.41
-14.635
-14.886
-15.164
-15.471
-15.808
-16.175
-16.574
-17.005
-17.47
-17.967
-18.499
-19.063
-19.66
-20.289
-20.949
-21.637
-22.354
-23.095
-23.86
-24.645
-25.447
-26.264
-27.092
-27.928
-28.769
-29.61
-30.448
-31.278
-32.096
-32.897
-33.677
-34.43
-35.152
-35.837
-36.481
-37.08
-37.628
-38.12
-38.552
-38.919
-39.218
-39.445
-39.597
-39.67
-39.663
-39.574
-39.402
-39.147
-38.811
-38.393
-37.898
-37.327
-36.683
-35.971
-35.195
-34.36
-33.47
-32.531
-31.549
-30.528
-29.476
-28.399
-27.306
-26.202
-25.096
-23.995
-22.908
-21.841
-20.804
-19.803
-18.844
-17.929
-17.065
-16.257
-15.513
-14.838
-14.231
-13.689
-13.214
-12.8
-12.445
-12.138
-11.859
-11.59
-11.316
-11.025
-10.715
-10.379
-10.007
-9.587
-9.106
-8.557
-7.949
-7.29
-6.578
-5.82
-5.038
-4.263
-3.562
-3.005
-2.64
-2.512
-2.656
-3.091
-3.865
-5.03
-6.63
-8.708
-11.284
-14.356
-17.972
-22.195
-26.995
-32.239
-37.661
-42.873
-47.554
-51.479
-54.371
-55.881
-55.802
-54.197
-51.455
-48.305
-45.478
-43.406
-42.487
-43.305
-46.188
-50.924
-56.785
-62.35
-65.93
-66.283
-62.157
-51.886
-34.2
-8.571
24.772
64.363
107.906
153.098
196.979
235.508
264.554
280.237
279.217
259.445
219.955
160.532
82.398
-11.394
-116.528
-227.774
-339.441
-446.001
-542.177
-623.185
-685.214
-725.947
-744.736
-742.172
-719.931
-680.645
-627.67
-564.92
-496.716
-427.079
-359.214
-296.02
-239.81
-192.11
-153.859
-124.961
-104.268
-90.344
-81.768
-76.763
-73.61
-70.714
-66.507
-60.285
-52.162
-42.462
-31.699
-20.595
-9.815
-0.142
7.527
12.86
15.964
17.103
16.753
15.384
13.38
11.231
9.471
8.413
8.221
8.934
10.45
12.689
15.589
19.043
22.933
27.152
31.592
36.17
40.822
45.473
50.051
54.479
58.681
62.593
66.156
69.343
72.156
74.608
76.728
78.555
80.128
81.497
82.722
83.857
84.951
86.051
87.192
88.415
89.763
91.274
92.985
94.92
97.09
99.5
102.151
105.04
108.158
111.492
115.022
118.73
122.601
126.619
130.768
135.03
139.383
143.805
148.273
152.764
157.254
161.721
166.14
170.488
174.741
178.876
182.872
186.706
190.354
193.795
197.004
199.962
202.647
205.042
207.128
208.889
210.312
211.385
212.099
212.445
212.418
212.014
211.231
210.07
208.531
206.62
204.343
201.706
198.72
195.396
191.746
187.786
183.531
178.999
174.208
169.178
163.929
158.484
152.863
147.09
141.188
135.179
129.087
122.935
116.746
110.542
104.345
98.177
92.058
86.006
80.041
74.179
68.438
62.83
57.37
52.07
46.942
41.994
37.235
32.672
28.311
24.156
20.21
16.475
12.951
9.639
6.535
3.639
0.946
-1.549
-3.851
-5.965
-7.899
-9.66
-11.255
-12.693
-13.983
-15.133
-16.151
-17.047
-17.83
-18.507
-19.088
-19.581
-19.993
-20.332
-20.606
-20.82
-20.981
-21.095
-21.167
-21.203
-21.205
-21.18
-21.129
-21.056
-20.964
-20.855
-20.731
-20.594
-20.445
-20.286
-20.116
-19.937
-19.75
-19.554
-19.35
-19.138
-18.917
-18.689
-18.452
-18.207
-17.954
-17.693
-17.423
-17.145
-16.86
-16.567
-16.267
-15.96
-15.649
-15.332
-15.012
-14.688
-14.363
-14.037
-13.712
-13.388
-13.066
-12.749
-12.437
-12.13
-11.831
-11.54
-11.258
-10.987
-10.726
-10.476
-10.238
-10.013
-9.801
-9.602
-9.416
-9.246
-9.089
-8.949
-8.823
-8.714
-8.621
-8.545
-8.486
-8.445
-8.422
-8.417
-8.432
-8.467
-8.522
-8.598
-8.696
-8.816
-8.958
-9.124
-9.313
-9.524
-9.759
-10.017
-10.299
-10.602
-10.929
-11.278
-11.648
-12.04
-12.452
-12.882
-13.331
-13.795
-14.273
-14.763
-15.262
-15.768
-16.277
-16.787
-17.294
-17.794
-18.283
-18.757
-19.21
-19.639
-20.037
-20.4
-20.724
-21.005
-21.237
-21.417
-21.542
-21.61
-21.619
-21.568
-21.456
-21.28
-21.042
-20.74
-20.375
-19.947
-19.457
-18.906
-18.298
-17.635
-16.923
-16.167
-15.37
-14.541
-13.682
-12.801
-11.904
-10.997
-10.085
-9.176
-8.277
-7.397
-6.547
-5.736
-4.966
-4.241
-3.557
-2.911
-2.296
-1.703
-1.117
-0.528
0.075
0.7
1.35
2.029
2.746
3.506
4.323
5.205
6.15
7.154
8.202
9.267
10.328
11.348
12.274
13.061
13.666
14.041
14.154
13.974
13.462
12.592
11.339
9.673
7.573
5.018
1.999
-1.469
-5.357
-9.638
-14.296
-19.249
-24.344
-29.335
-33.889
-37.702
-40.551
-42.184
-42.271
-40.668
-37.462
-33.001
-28.064
-23.409
-19.514
-16.931
-16.242
-17.68
-21.131
-25.962
-30.66
-33.61
-33.51
-28.872
-18.31
-0.883
23.933
55.797
93.121
133.699
174.96
213.591
245.941
268.29
277.0
269.137
242.808
197.119
132.388
50.391
-45.801
-151.904
-262.826
-373.15
-477.321
-570.079
-647.005
-704.718
-741.2
-756.05
-749.924
-724.473
-682.495
-627.447
-563.196
-493.959
-423.552
-355.018
-291.233
-234.521
-186.371
-147.731
-118.53
-97.663
-83.839
-75.731
-71.56
-69.605
-68.227
-65.788
-61.534
-55.491
-47.863
-39.083
-29.834
-20.743
-12.597
-6.296
-2.161
-0.096
0.16
-0.922
-2.876
-5.309
-7.727
-9.592
-10.596
-10.615
-9.649
-7.833
-5.275
-2.06
1.693
5.841
10.258
14.835
19.481
24.13
28.713
33.144
37.344
41.236
44.756
47.87
50.578
52.897
54.859
56.504
57.876
59.027
60.02
60.914
61.763
62.616
63.515
64.505
65.631
66.937
68.465
70.24
72.277
74.581
77.153
79.99
83.084
86.421
89.983
93.751
97.709
101.84
106.13
110.558
115.103
119.741
124.447
129.199
133.973
138.744
143.487
148.176
152.788
157.299
161.685
165.921
169.984
173.849
177.49
180.887
184.015
186.856
189.39
191.598
193.466
194.98
196.129
196.903
197.296
197.301
196.916
196.139
194.971
193.415
191.476
189.16
186.476
183.435
180.049
176.331
172.299
167.968
163.357
158.486
153.375
148.047
142.524
136.829
130.985
125.017
118.949
112.805
106.609
100.385
94.157
87.948
81.779
75.672
69.648
63.725
57.922
52.256
46.743
41.397
36.233
31.262
26.495
21.941
17.609
13.504
9.633
5.998
2.602
-0.554
-3.47
-6.148
-8.591
-10.803
-12.788
-14.554
-16.107
-17.456
-18.608
-19.574
-20.364
-20.988
-21.457
-21.782
-21.975
-22.048
-22.012
-21.879
-21.66
-21.367
-21.01
-20.602
-20.151
-19.668
-19.164
-18.646
-18.123
-17.604
-17.095
-16.604
-16.136
-15.698
-15.293
-14.925
-14.599
-14.316
-14.079
-13.89
-13.748
-13.655
-13.609
-13.611
-13.658
-13.749
-13.882
-14.055
-14.264
-14.506
-14.778
-15.077
-15.4
-15.741
-16.098
-16.466
-16.842
-17.222
-17.602
-17.979
-18.349
-18.708
-19.054
-19.384
-19.694
-19.983
-20.249
-20.489
-20.703
-20.888
-21.044
-21.171
-21.269
-21.337
-21.376
-21.387
-21.37
-21.328
-21.262
-21.173
-21.064
-20.937
-20.794
-20.639
-20.473
-20.3
-20.122
-19.944
-19.768
-19.598
-19.437
-19.288
-19.154
-19.039
-18.946
-18.879
-18.839
-18.83
-18.855
-18.915
-19.013
-19.15
-19.328
-19.547
-19.807
-20.11
-20.453
-20.838
-21.261
-21.723
-22.222
-22.754
-23.319
-23.912
-24.532
-25.173
-25.834
-26.51
-27.195
-27.886
-28.578
-29.266
-29.945
-30.609
-31.252
-31.87
-32.456
-33.004
-33.509
-33.965
-34.366
-34.707
-34.985
-35.194
-35.331
-35.393
-35.378
-35.284
-35.113
-34.863
-34.536
-34.131
-33.652
-33.099
-32.475
-31.783
-31.026
-30.207
-29.331
-28.405
-27.435
-26.429
-25.393
-24.334
-23.261
-22.181
-21.102
-20.031
-18.974
-17.94
-16.936
-15.971
-15.056
-14.198
-13.398
-12.655
-11.968
-11.329
-10.73
-10.163
-9.61
-9.058
-8.498
-7.921
-7.324
-6.699
-6.038
-5.331
-4.567
-3.735
-2.839
-1.886
-0.884
0.145
1.176
2.183
3.122
3.951
4.643
5.162
5.476
5.563
5.392
4.928
4.158
3.051
1.581
-0.266
-2.514
-5.161
-8.177
-11.559
-15.316
-19.384
-23.633
-27.838
-31.662
-34.825
-37.13
-38.321
-38.078
-36.231
-32.879
-28.437
-23.648
-19.248
-15.675
-13.352
-12.894
-14.63
-18.341
-23.285
-28.032
-30.949
-30.908
-26.748
-16.872
-0.157
23.86
54.924
91.529
131.599
173.182
213.527
248.83
275.338
289.338
287.674
268.558
230.644
173.159
97.094
5.132
-98.832
-209.671
-322.136
-431.27
-531.393
-617.168
-684.573
-730.785
-754.901
-757.572
-739.773
-703.301
-651.58
-588.64
-518.829
-446.555
-374.942
-306.614
-244.546
-191.036
-147.335
-113.721
-89.236
-72.358
-62.008
-56.792
-54.694
-53.735
-52.025
-48.457
-42.993
-35.936
-27.553
-18.336
-9.005
-0.435
6.318
10.735
12.925
13.189
11.978
9.764
6.969
4.137
1.901
0.643
0.495
1.449
3.338
6.018
9.39
13.291
17.542
22.004
26.557
31.129
35.693
40.193
44.55
48.683
52.5
55.942
58.99
61.652
63.966
65.992
67.799
69.483
71.139
72.838
74.632
76.538
78.547
80.662
82.903
85.286
87.844
90.594
93.542
96.692
100.035
103.549
107.201
110.935
114.696
118.451
122.184
125.903
129.635
133.392
137.179
141.002
144.855
148.729
152.618
156.498
160.345
164.146
167.889
171.575
175.206
178.77
182.246
185.606
188.813
191.837
194.648
197.215
199.513
201.519
203.216
204.595
205.652
206.379
206.768
206.812
206.499
205.828
204.795
203.402
201.653
199.551
197.106
194.325
191.221
187.804
184.086
180.078
175.792
171.241
166.441
161.409
156.161
150.718
145.1
139.326
133.419
127.402
121.294
115.119
108.898
102.651
96.401
90.166
83.967
77.823
71.753
65.774
59.904
54.157
48.55
43.097
37.81
32.701
27.781
23.058
18.541
14.237
10.151
6.288
2.649
-0.762
-3.945
-6.901
-9.632
-12.14
-14.431
-16.509
-18.379
-20.05
-21.529
-22.823
-23.942
-24.894
-25.69
-26.339
-26.85
-27.235
-27.503
-27.666
-27.732
-27.713
-27.618
-27.457
-27.239
-26.973
-26.668
-26.331
-25.97
-25.592
-25.202
-24.808
-24.412
-24.021
-23.636
-23.262
-22.901
-22.553
-22.222
-21.906
-21.608
-21.325
-21.059
-20.807
-20.57
-20.346
-20.133
-19.929
-19.733
-19.543
-19.356
-19.171
-18.985
-18.797
-18.603
-18.404
-18.195
-17.977
-17.748
-17.506
-17.251
-16.981
-16.697
-16.398
-16.084
-15.757
-15.416
-15.063
-14.7
-14.328
-13.948
-13.564
-13.177
-12.789
-12.402
-12.02
-11.643
-11.275
-10.918
-10.573
-10.244
-9.933
-9.641
-9.37
-9.123
-8.9
-8.704
-8.535
-8.395
-8.285
-8.206
-8.159
-8.145
-8.164
-8.216
-8.302
-8.421
-8.573
-8.758
-8.974
-9.221
-9.497
-9.801
-10.131
-10.486
-10.865
-11.264
-11.683
-12.119
-12.569
-13.031
-13.503
-13.982
-14.466
-14.952
-15.437
-15.919
-16.397
-16.867
-17.327
-17.775
-18.208
-18.624
-19.021
-19.396
-19.746
-20.068
-20.361
-20.621
-20.846
-21.035
-21.185
-21.293
-21.359
-21.379
-21.353
-21.279
-21.156
-20.982
-20.759
-20.485
-20.162
-19.791
-19.374
-18.913
-18.411
-17.871
-17.296
-16.688
-16.052
-15.392
-14.709
-14.008
-13.293
-12.566
-11.833
-11.1
-10.37
-9.649
-8.941
-8.254
-7.592
-6.961
-6.366
-5.808
-5.288
-4.81
-4.377
-3.996
-3.669
-3.393
-3.166
-2.987
-2.852
-2.754
-2.681
-2.611
-2.524
-2.402
-2.235
-2.016
-1.741
-1.401
-0.984
-0.482
0.109
0.782
1.53
2.353
3.243
4.177
5.118
5.998
6.742
7.293
7.598
7.616
7.321
6.665
5.594
4.064
2.032
-0.527
-3.616
-7.278
-11.585
-16.508
-21.909
-27.521
-32.955
-37.881
-42.09
-45.32
-47.228
-47.623
-46.569
-44.443
-41.97
-39.817
-38.312
-37.748
-38.599
-41.106
-45.067
-49.794
-53.925
-55.962
-54.929
-49.847
-39.323
-22.307
1.705
32.571
68.92
108.783
150.349
191.093
227.419
255.649
272.039
273.234
257.263
222.796
168.935
96.419
7.695
-93.692
-202.839
-314.393
-423.417
-524.537
-612.502
-683.333
-734.145
-763.438
-771.481
-759.23
-728.258
-681.581
-622.84
-555.853
-484.81
-413.306
-344.158
-280.299
-224.113
-176.922
-139.486
-111.565
-91.923
-79.312
-72.355
-69.087
-67.68
-66.501
-64.03
-59.656
-53.478
-45.702
-36.799
-27.532
-18.593
-10.781
-4.907
-1.189
0.536
0.572
-0.589
-2.453
-4.599
-6.522
-7.717
-7.939
-7.114
-5.284
-2.604
0.808
4.859
9.418
14.342
19.506
24.798
30.126
35.421
40.6
45.568
50.237
54.52
58.369
61.771
64.737
67.297
69.488
71.348
72.93
74.294
75.498
76.598
77.644
78.68
79.754
80.912
82.204
83.676
85.36
87.273
89.424
91.816
94.445
97.307
100.39
103.675
107.147
110.792
114.594
118.543
122.622
126.81
131.089
135.435
139.828
144.247
148.67
153.075
157.44
161.743
165.963
170.079
174.068
177.909
181.578
185.051
188.306
191.323
194.081
196.56
198.742
200.612
202.154
203.356
204.208
204.699
204.823
204.574
203.948
202.943
201.559
199.798
197.663
195.159
192.295
189.079
185.523
181.638
177.438
172.94
168.16
163.115
157.826
152.313
146.596
140.698
134.642
128.449
122.145
115.753
109.295
102.797
96.282
89.771
83.289
76.856
70.493
64.222
58.061
52.029
46.143
40.42
34.875
29.521
24.372
19.439
14.731
10.256
6.023
2.037
-1.699
-5.182
-8.409
-11.382
-14.101
-16.569
-18.789
-20.768
-22.51
-24.023
-25.315
-26.395
-27.272
-27.957
-28.46
-28.792
-28.965
-28.991
-28.881
-28.648
-28.304
-27.861
-27.331
-26.726
-26.057
-25.335
-24.57
-23.774
-22.955
-22.123
-21.285
-20.451
-19.625
-18.816
-18.029
-17.269
-16.54
-15.846
-15.19
-14.574
-14.001
-13.47
-12.983
-12.54
-12.141
-11.785
-11.472
-11.199
-10.965
-10.768
-10.607
-10.479
-10.381
-10.312
-10.267
-10.246
-10.245
-10.262
-10.294
-10.339
-10.396
-10.462
-10.535
-10.614
-10.697
-10.784
-10.873
-10.964
-11.056
-11.147
-11.24
-11.332
-11.425
-11.518
-11.612
-11.707
-11.804
-11.903
-12.005
-12.111
-12.22
-12.333
-12.451
-12.575
-12.705
-12.841
-12.985
-13.136
-13.296
-13.464
-13.641
-13.827
-14.022
-14.226
-14.44
-14.663
-14.894
-15.135
-15.385
-15.644
-15.91
-16.185
-16.467
-16.757
-17.053
-17.355
-17.663
-17.975
-18.291
-18.61
-18.932
-19.254
-19.577
-19.899
-20.219
-20.537
-20.851
-21.16
-21.463
-21.758
-22.044
-22.32
-22.584
-22.834
-23.068
-23.286
-23.486
-23.665
-23.822
-23.954
-24.061
-24.138
-24.186
-24.201
-24.181
-24.124
-24.03
-23.896
-23.722
-23.508
-23.253
-22.959
-22.626
-22.256
-21.849
-21.407
-20.932
-20.426
-19.89
-19.327
-18.738
-18.127
-17.498
-16.855
-16.203
-15.545
-14.886
-14.231
-13.584
-12.95
-12.335
-11.74
-11.169
-10.626
-10.116
-9.648
-9.226
-8.848
-8.513
-8.217
-7.954
-7.718
-7.499
-7.278
-7.038
-6.766
-6.447
-6.076
-5.644
-5.14
-4.552
-3.866
-3.075
-2.184
-1.203
-0.141
0.985
2.155
3.332
4.458
5.478
6.335
6.972
7.343
7.395
7.082
6.366
5.207
3.568
1.429
-1.228
-4.42
-8.131
-12.363
-17.131
-22.327
-27.773
-33.218
-38.279
-42.621
-46.011
-48.11
-48.52
-47.153
-44.115
-39.783
-35.014
-30.451
-26.464
-23.709
-22.811
-23.852
-26.644
-30.356
-33.229
-33.912
-31.3
-23.707
-9.737
11.4
40.126
75.581
115.631
158.256
200.896
239.786
271.107
290.931
295.521
282.616
250.885
199.412
128.805
41.405
-59.208
-167.974
-279.391
-388.441
-489.673
-577.801
-648.645
-699.085
-727.858
-735.605
-723.492
-693.281
-648.143
-591.714
-528.015
-461.454
-395.167
-331.397
-272.653
-220.852
-177.059
-141.99
-115.182
-95.207
-81.18
-72.167
-66.593
-63.097
-60.258
-56.591
-51.635
-45.594
-38.521
-30.718
-22.762
-15.111
-8.491
-3.729
-1.015
-0.185
-0.975
-2.918
-5.562
-8.539
-11.34
-13.431
-14.539
-14.558
-13.511
-11.547
-8.771
-5.267
-1.163
3.394
8.271
13.347
18.527
23.738
28.889
33.88
38.612
42.991
46.964
50.512
53.641
56.379
58.759
60.822
62.62
64.211
65.657
67.014
68.333
69.661
71.045
72.538
74.19
76.05
78.151
80.51
83.14
86.04
89.207
92.635
96.31
100.212
104.324
108.629
113.113
117.763
122.561
127.488
132.522
137.641
142.821
148.039
153.27
158.486
163.662
168.772
173.789
178.689
183.447
188.038
192.436
196.616
200.551
204.214
207.575
210.609
213.293
215.611
217.551
219.107
220.28
221.074
221.494
221.545
221.227
220.535
219.458
217.986
216.109
213.826
211.145
208.075
204.625
200.802
196.61
192.046
187.101
181.761
176.01
169.841
163.267
156.315
149.036
141.488
133.743
125.862
117.893
109.884
101.877
93.918
86.052
78.332
70.819
63.583
56.703
50.242
44.247
38.736
33.703
29.123
24.95
21.148
17.687
14.544
11.702
9.144
6.856
4.814
2.995
1.36
-0.144
-1.56
-2.923
-4.249
-5.537
-6.771
-7.921
-8.961
-9.874
-10.647
-11.28
-11.774
-12.136
-12.376
-12.505
-12.525
-12.431
-12.221
-11.892
-11.451
-10.912
-10.296
-9.632
-8.945
-8.259
-7.594
-6.964
-6.379
-5.846
-5.367
-4.941
-4.57
-4.256
-4.004
-3.817
-3.698
-3.646
-3.66
-3.736
-3.869
-4.053
-4.285
-4.558
-4.87
-5.216
-5.595
-6.005
-6.444
-6.91
-7.401
-7.911
-8.438
-8.978
-9.526
-10.078
-10.63
-11.18
-11.723
-12.258
-12.783
-13.296
-13.795
-14.279
-14.747
-15.198
-15.632
-16.049
-16.449
-16.831
-17.197
-17.547
-17.882
-18.203
-18.511
-18.808
-19.096
-19.375
-19.646
-19.913
-20.176
-20.435
-20.694
-20.953
-21.213
-21.476
-21.744
-22.016
-22.294
-22.578
-22.87
-23.17
-23.477
-23.791
-24.113
-24.441
-24.774
-25.112
-25.453
-25.795
-26.137
-26.476
-26.81
-27.137
-27.454
-27.759
-28.048
-28.319
-28.568
-28.792
-28.987
-29.151
-29.279
-29.368
-29.417
-29.423
-29.383
-29.296
-29.161
-28.979
-28.749
-28.472
-28.148
-27.778
-27.364
-26.906
-26.407
-25.866
-25.288
-24.673
-24.028
-23.357
-22.664
-21.955
-21.235
-20.509
-19.782
-19.061
-18.35
-17.653
-16.977
-16.326
-15.708
-15.133
-14.607
-14.131
-13.704
-13.322
-12.977
-12.664
-12.37
-12.076
-11.77
-11.437
-11.068
-10.659
-10.201
-9.685
-9.102
-8.434
-7.673
-6.825
-5.894
-4.896
-3.857
-2.795
-1.75
-0.779
0.07
0.752
1.218
1.439
1.376
0.981
0.221
-0.939
-2.525
-4.553
-7.036
-9.98
-13.372
-17.185
-21.391
-25.962
-30.799
-35.736
-40.537
-44.864
-48.403
-50.923
-52.117
-51.609
-49.334
-45.421
-40.247
-34.665
-29.354
-24.733
-21.502
-20.324
-21.274
-24.152
-28.143
-31.493
-32.825
-30.978
-24.211
-11.13
9.01
36.573
70.68
109.236
150.207
190.942
227.64
256.547
273.868
276.08
261.052
227.469
174.583
103.281
16.144
-83.11
-189.474
-297.642
-402.67
-499.112
-581.866
-647.107
-692.196
-716.289
-720.121
-704.847
-672.337
-625.9
-569.361
-506.753
-442.129
-378.313
-317.573
-262.424
-214.772
-175.589
-145.015
-122.12
-105.484
-94.165
-87.002
-82.304
-78.45
-73.871
-67.678
-59.952
-51.052
-41.273
-31.088
-21.133
-12.165
-5.118
-0.446
1.959
2.365
1.209
-1.063
-4.073
-7.323
-10.24
-12.459
-13.794
-14.18
-13.708
-12.45
-10.451
-7.815
-4.65
-1.06
2.846
6.989
11.301
15.7
20.11
24.445
28.621
32.566
36.215
39.531
42.514
45.179
47.552
49.671
51.575
53.311
54.941
56.518
58.092
59.708
61.405
63.223
65.205
67.392
69.818
72.508
75.47
78.707
82.215
85.988
90.013
94.273
98.742
103.398
108.221
113.189
118.284
123.482
128.757
134.081
139.427
144.769
150.079
155.331
160.496
165.549
170.462
175.211
179.772
184.12
188.23
192.079
195.643
198.9
201.829
204.413
206.632
208.473
209.922
210.969
211.606
211.827
211.629
211.009
209.97
208.513
206.644
204.369
201.699
198.643
195.215
191.429
187.301
182.85
178.095
173.056
167.755
162.215
156.459
150.513
144.399
138.144
131.773
125.311
118.784
112.215
105.631
99.055
92.511
86.02
79.605
73.286
67.082
61.011
55.09
49.334
43.757
38.371
33.188
28.217
23.467
18.944
14.653
10.6
6.785
3.211
-0.123
-3.218
-6.077
-8.703
-11.101
-13.277
-15.238
-16.989
-18.541
-19.901
-21.079
-22.084
-22.927
-23.619
-24.17
-24.59
-24.891
-25.084
-25.18
-25.188
-25.12
-24.984
-24.792
-24.552
-24.273
-23.963
-23.63
-23.282
-22.925
-22.565
-22.208
-21.858
-21.521
-21.199
-20.897
-20.616
-20.36
-20.129
-19.925
-19.749
-19.602
-19.483
-19.391
-19.327
-19.288
-19.275
-19.284
-19.315
-19.365
-19.432
-19.514
-19.607
-19.71
-19.82
-19.934
-20.05
-20.165
-20.276
-20.382
-20.479
-20.567
-20.643
-20.705
-20.752
-20.782
-20.794
-20.788
-20.762
-20.716
-20.65
-20.562
-20.454
-20.325
-20.175
-20.006
-19.817
-19.611
-19.387
-19.147
-18.894
-18.628
-18.351
-18.067
-17.776
-17.481
-17.186
-16.893
-16.604
-16.322
-16.051
-15.793
-15.551
-15.329
-15.128
-14.952
-14.803
-14.684
-14.598
-14.546
-14.532
-14.557
-14.623
-14.732
-14.886
-15.084
-15.329
-15.62
-15.958
-16.343
-16.772
-17.246
-17.764
-18.322
-18.92
-19.553
-20.221
-20.918
-21.642
-22.387
-23.15
-23.926
-24.71
-25.496
-26.279
-27.054
-27.815
-28.555
-29.269
-29.95
-30.594
-31.192
-31.74
-32.23
-32.659
-33.019
-33.307
-33.517
-33.647
-33.693
-33.654
-33.528
-33.316
-33.016
-32.629
-32.157
-31.601
-30.964
-30.247
-29.455
-28.59
-27.659
-26.667
-25.623
-24.534
-23.408
-22.253
-21.077
-19.889
-18.698
-17.512
-16.338
-15.185
-14.061
-12.978
-11.948
-10.979
-10.076
-9.239
-8.468
-7.759
-7.108
-6.504
-5.934
-5.386
-4.85
-4.319
-3.792
-3.26
-2.716
-2.149
-1.543
-0.893
-0.203
0.523
1.275
2.033
2.779
3.481
4.088
4.559
4.858
4.947
4.795
4.365
3.612
2.504
1.015
-0.877
-3.189
-5.937
-9.136
-12.789
-16.871
-21.363
-26.266
-31.491
-36.886
-42.221
-47.14
-51.317
-54.527
-56.453
-56.711
-55.238
-52.169
-47.899
-43.308
-39.067
-35.553
-33.44
-33.372
-35.402
-39.291
-44.131
-48.067
-49.694
-47.904
-40.988
-27.502
-6.627
22.095
57.772
98.17
141.247
184.5
224.223
256.649
277.865
284.047
272.884
243.151
193.934
125.745
40.821
-57.543
-164.589
-274.847
-383.337
-484.852
-574.132
-646.987
-700.339
-732.416
-743.222
-733.691
-705.279
-660.748
-603.793
-538.398
-468.776
-398.66
-331.061
-268.836
-214.467
-169.453
-134.193
-108.111
-89.895
-78.106
-71.202
-67.292
-64.405
-60.769
-55.389
-48.111
-39.213
-29.17
-18.582
-8.198
1.078
8.279
12.945
15.157
15.212
13.608
10.851
7.402
3.833
0.771
-1.385
-2.462
-2.424
-1.376
0.584
3.398
6.947
11.081
15.664
20.564
25.676
30.917
36.189
41.379
46.375
51.068
55.366
59.222
62.614
65.542
68.031
70.11
71.819
73.211
74.347
75.288
76.092
76.812
77.497
78.199
78.972
79.868
80.935
82.205
83.697
85.42
87.379
89.574
91.999
94.644
97.492
100.53
103.744
107.123
110.655
114.325
118.115
122.008
125.982
130.02
134.103
138.212
142.326
146.427
150.493
154.506
158.446
162.292
166.023
169.616
173.048
176.299
179.348
182.174
184.757
187.081
189.128
190.884
192.336
193.473
194.284
194.761
194.898
194.689
194.132
193.224
191.967
190.362
188.413
186.124
183.504
180.561
177.306
173.749
169.904
165.786
161.41
156.794
151.956
146.915
141.69
136.302
130.773
125.124
119.378
113.555
107.679
101.772
95.854
89.947
84.072
78.248
72.494
66.828
61.269
55.832
50.533
45.386
40.405
35.601
30.985
26.567
22.356
18.359
14.581
11.026
7.699
4.601
1.732
-0.907
-3.32
-5.508
-7.476
-9.23
-10.775
-12.118
-13.269
-14.235
-15.026
-15.652
-16.123
-16.451
-16.646
-16.719
-16.682
-16.547
-16.325
-16.026
-15.661
-15.242
-14.779
-14.281
-13.759
-13.221
-12.675
-12.131
-11.594
-11.073
-10.572
-10.099
-9.657
-9.252
-8.885
-8.562
-8.282
-8.05
-7.865
-7.727
-7.638
-7.596
-7.6
-7.649
-7.741
-7.873
-8.044
-8.25
-8.489
-8.757
-9.052
-9.37
-9.708
-10.062
-10.43
-10.809
-11.195
-11.586
-11.979
-12.371
-12.761
-13.145
-13.523
-13.891
-14.25
-14.597
-14.931
-15.252
-15.559
-15.851
-16.128
-16.39
-16.638
-16.87
-17.089
-17.295
-17.488
-17.67
-17.841
-18.004
-18.158
-18.305
-18.446
-18.583
-18.717
-18.848
-18.979
-19.111
-19.244
-19.38
-19.52
-19.664
-19.815
-19.972
-20.136
-20.309
-20.491
-20.682
-20.885
-21.099
-21.326
-21.565
-21.817
-22.083
-22.362
-22.655
-22.962
-23.281
-23.612
-23.954
-24.307
-24.67
-25.041
-25.42
-25.805
-26.195
-26.588
-26.983
-27.378
-27.77
-28.157
-28.539
-28.911
-29.272
-29.62
-29.952
-30.264
-30.554
-30.819
-31.055
-31.259
-31.426
-31.553
-31.638
-31.675
-31.664
-31.601
-31.484
-31.312
-31.085
-30.803
-30.466
-30.073
-29.625
-29.124
-28.569
-27.964
-27.307
-26.602
-25.852
-25.059
-24.23
-23.37
-22.482
-21.573
-20.649
-19.714
-18.774
-17.835
-16.9
-15.976
-15.071
-14.194
-13.356
-12.564
-11.82
-11.127
-10.484
-9.885
-9.322
-8.786
-8.257
-7.725
-7.179
-6.611
-6.018
-5.392
-4.72
-3.993
-3.199
-2.327
-1.379
-0.361
0.724
1.85
2.987
4.1
5.134
6.044
6.794
7.342
7.651
7.68
7.385
6.721
5.66
4.179
2.263
-0.108
-2.954
-6.267
-10.029
-14.188
-18.696
-23.552
-28.668
-33.865
-38.885
-43.337
-46.874
-49.276
-50.243
-49.407
-46.734
-42.389
-36.811
-30.971
-25.611
-21.145
-18.259
-17.535
-18.928
-22.142
-26.231
-29.273
-29.81
-26.683
-18.167
-2.951
19.588
49.717
86.423
127.421
170.594
213.298
251.7
282.052
300.575
303.645
289.105
255.755
202.772
130.907
42.662
-58.473
-167.608
-279.271
-388.473
-489.879
-578.238
-649.541
-700.881
-730.703
-739.278
-727.649
-697.427
-651.611
-593.826
-527.874
-457.926
-387.568
-319.549
-256.673
-201.222
-154.479
-117.205
-89.196
-69.252
-56.161
-48.631
-44.816
-43.002
-41.632
-39.202
-35.088
-29.375
-22.246
-14.135
-5.751
2.274
9.187
14.188
17.056
17.956
17.189
15.25
12.632
9.754
7.118
5.241
4.379
4.615
5.916
8.129
11.136
14.845
19.121
23.813
28.788
33.927
39.128
44.314
49.392
54.26
58.821
62.984
66.699
69.95
72.743
75.108
77.078
78.695
80.011
81.084
81.977
82.744
83.44
84.111
84.807
85.579
86.478
87.553
88.837
90.35
92.102
94.097
96.334
98.811
101.516
104.435
107.554
110.86
114.341
117.988
121.785
125.715
129.76
133.898
138.11
142.378
146.681
150.998
155.307
159.588
163.819
167.979
172.046
175.996
179.805
183.449
186.904
190.147
193.157
195.91
198.388
200.57
202.442
203.987
205.192
206.045
206.536
206.656
206.4
205.763
204.742
203.338
201.55
199.384
196.843
193.936
190.672
187.061
183.116
178.852
174.284
169.43
164.309
158.94
153.345
147.544
141.562
135.42
129.144
122.757
116.284
109.749
103.177
96.593
90.018
83.478
76.993
70.586
64.278
58.087
52.033
46.133
40.403
34.858
29.512
24.376
19.463
14.78
10.336
6.137
2.188
-1.509
-4.95
-8.136
-11.068
-13.747
-16.177
-18.362
-20.309
-22.023
-23.512
-24.785
-25.851
-26.72
-27.403
-27.911
-28.254
-28.446
-28.498
-28.421
-28.228
-27.932
-27.542
-27.072
-26.532
-25.933
-25.286
-24.6
-23.885
-23.15
-22.402
-21.65
-20.899
-20.156
-19.427
-18.717
-18.028
-17.366
-16.733
-16.132
-15.564
-15.031
-14.533
-14.07
-13.644
-13.252
-12.894
-12.568
-12.273
-12.007
-11.768
-11.554
-11.362
-11.19
-11.035
-10.895
-10.768
-10.65
-10.54
-10.436
-10.334
-10.234
-10.134
-10.033
-9.929
-9.821
-9.709
-9.593
-9.472
-9.345
-9.213
-9.077
-8.937
-8.793
-8.648
-8.501
-8.354
-8.21
-8.069
-7.934
-7.806
-7.686
-7.578
-7.483
-7.403
-7.339
-7.295
-7.272
-7.272
-7.297
-7.349
-7.43
-7.541
-7.684
-7.86
-8.071
-8.317
-8.599
-8.919
-9.276
-9.672
-10.107
-10.58
-11.092
-11.642
-12.228
-12.85
-13.506
-14.194
-14.911
-15.654
-16.422
-17.211
-18.018
-18.839
-19.671
-20.511
-21.353
-22.195
-23.031
-23.858
-24.671
-25.466
-26.237
-26.981
-27.694
-28.369
-29.004
-29.593
-30.131
-30.615
-31.039
-31.4
-31.692
-31.912
-32.058
-32.126
-32.115
-32.022
-31.848
-31.593
-31.258
-30.846
-30.359
-29.798
-29.168
-28.472
-27.715
-26.9
-26.032
-25.116
-24.158
-23.163
-22.141
-21.097
-20.038
-18.972
-17.906
-16.847
-15.804
-14.784
-13.792
-12.834
-11.918
-11.05
-10.242
-9.499
-8.823
-8.213
-7.668
-7.181
-6.749
-6.359
-5.996
-5.642
-5.282
-4.903
-4.499
-4.059
-3.575
-3.033
-2.418
-1.721
-0.945
-0.096
0.818
1.78
2.775
3.766
4.698
5.52
6.18
6.618
6.802
6.685
6.225
5.399
4.166
2.489
0.346
-2.29
-5.433
-9.064
-13.189
-17.818
-22.855
-28.136
-33.408
-38.306
-42.529
-45.859
-48.022
-48.682
-47.658
-45.029
-41.164
-36.749
-32.436
-28.604
-25.655
-24.2
-24.619
-26.776
-30.028
-33.087
-34.471
-33.128
-27.939
-17.334
-0.088
24.332
55.735
92.754
133.273
175.162
215.595
250.677
276.409
289.002
285.206
263.044
221.516
160.384
80.93
-13.808
-119.518
-230.951
-342.608
-449.216
-545.546
-626.88
-689.603
-731.434
-751.881
-751.735
-732.289
-695.675
-645.027
-583.989
-516.589
-446.785
-377.474
-311.215
-250.778
-198.286
-155.084
-121.571
-96.941
-79.89
-69.394
-64.054
-61.9
-60.969
-59.366
-55.976
-50.721
-43.851
-35.642
-26.605
-17.476
-9.156
-2.693
1.404
3.238
3.123
1.519
-1.097
-4.297
-7.546
-10.23
-11.965
-12.613
-12.173
-10.782
-8.564
-5.59
-1.981
2.116
6.569
11.252
16.064
20.933
25.781
30.512
35.038
39.267
43.124
46.574
49.613
52.256
54.535
56.487
58.151
59.58
60.836
61.979
63.063
64.14
65.251
66.443
67.764
69.259
70.97
72.924
75.132
77.601
80.33
83.315
86.547
90.013
93.692
97.566
101.62
105.836
110.2
114.692
119.29
123.972
128.713
133.491
138.282
143.063
147.809
152.498
157.104
161.606
165.981
170.206
174.257
178.111
181.743
185.132
188.258
191.099
193.638
195.857
197.742
199.28
200.459
201.272
201.71
201.768
201.442
200.732
199.637
198.16
196.305
194.078
191.488
188.544
185.259
181.645
177.717
173.492
168.988
164.224
159.22
153.996
148.575
142.98
137.232
131.357
125.376
119.314
113.194
107.04
100.874
94.718
88.594
82.523
76.524
70.616
64.817
59.144
53.612
48.236
43.029
38.003
33.169
28.535
24.11
19.9
15.91
12.145
8.605
5.292
2.206
-0.654
-3.292
-5.711
-7.916
-9.913
-11.708
-13.309
-14.724
-15.962
-17.033
-17.945
-18.709
-19.335
-19.834
-20.216
-20.491
-20.67
-20.763
-20.779
-20.729
-20.623
-20.468
-20.274
-20.049
-19.801
-19.537
-19.263
-18.986
-18.71
-18.441
-18.183
-17.94
-17.714
-17.508
-17.324
-17.164
-17.029
-16.919
-16.834
-16.775
-16.74
-16.729
-16.741
-16.774
-16.827
-16.899
-16.987
-17.089
-17.204
-17.33
-17.465
-17.607
-17.753
-17.902
-18.052
-18.202
-18.349
-18.493
-18.631
-18.764
-18.889
-19.005
-19.113
-19.212
-19.301
-19.379
-19.447
-19.504
-19.551
-19.588
-19.614
-19.629
-19.636
-19.632
-19.62
-19.6
-19.571
-19.535
-19.493
-19.444
-19.39
-19.332
-19.27
-19.204
-19.136
-19.067
-18.996
-18.926
-18.857
-18.789
-18.724
-18.663
-18.606
-18.553
-18.507
-18.466
-18.433
-18.408
-18.391
-18.384
-18.387
-18.4
-18.425
-18.462
-18.512
-18.575
-18.651
-18.74
-18.843
-18.958
-19.086
-19.227
-19.378
-19.541
-19.713
-19.894
-20.083
-20.279
-20.479
-20.682
-20.886
-21.09
-21.291
-21.486
-21.674
-21.851
-22.016
-22.166
-22.298
-22.41
-22.498
-22.56
-22.593
-22.595
-22.563
-22.494
-22.387
-22.24
-22.052
-21.821
-21.549
-21.235
-20.88
-20.487
-20.056
-19.59
-19.09
-18.561
-18.004
-17.423
-16.819
-16.198
-15.563
-14.918
-14.268
-13.619
-12.975
-12.341
-11.722
-11.124
-10.553
-10.013
-9.504
-9.03
-8.592
-8.194
-7.843
-7.541
-7.284
-7.071
-6.898
-6.763
-6.658
-6.572
-6.483
-6.371
-6.221
-6.02
-5.764
-5.446
-5.057
-4.586
-4.02
-3.357
-2.602
-1.76
-0.83
0.178
1.245
2.336
3.387
4.327
5.101
5.659
5.963
5.985
5.679
4.993
3.882
2.301
0.227
-2.348
-5.467
-9.2
-13.525
-18.317
-23.321
-28.166
-32.529
-36.196
-38.908
-40.33
-40.265
-38.763
-36.187
-33.23
-30.557
-28.51
-27.382
-27.636
-29.517
-32.829
-36.911
-40.443
-41.945
-40.451
-35.041
-24.387
-7.476
16.179
46.474
82.095
121.11
161.799
201.826
237.782
266.13
283.204
285.603
271.309
238.98
187.566
117.522
31.007
-68.696
-176.835
-288.021
-397.328
-499.468
-589.125
-662.142
-715.431
-747.251
-757.765
-748.011
-719.535
-675.205
-618.57
-553.378
-483.799
-413.478
-345.162
-281.597
-225.099
-177.064
-138.397
-109.037
-87.876
-73.746
-65.428
-61.153
-59.223
-58.018
-55.907
-52.155
-46.773
-39.897
-31.919
-23.499
-15.244
-7.938
-2.46
0.896
2.235
1.829
0.157
-2.315
-5.185
-7.953
-10.089
-11.289
-11.436
-10.545
-8.757
-6.188
-2.931
0.891
5.131
9.66
14.366
19.15
23.942
28.67
33.246
37.59
41.626
45.288
48.547
51.405
53.881
56.009
57.83
59.386
60.729
61.921
63.017
64.072
65.132
66.237
67.428
68.749
70.24
71.938
73.866
76.035
78.447
81.101
83.991
87.109
90.439
93.963
97.661
101.517
105.517
109.644
113.881
118.207
122.599
127.037
131.498
135.961
140.404
144.806
149.143
153.394
157.538
161.555
165.424
169.123
172.631
175.926
178.99
181.803
184.347
186.606
188.566
190.212
191.534
192.522
193.169
193.468
193.416
193.01
192.248
191.134
189.668
187.855
185.702
183.216
180.406
177.284
173.86
170.15
166.168
161.93
157.453
152.756
147.856
142.774
137.53
132.144
126.637
121.031
115.345
109.601
103.82
98.022
92.228
86.455
80.723
75.049
69.451
63.944
58.543
53.262
48.114
43.111
38.263
33.58
29.072
24.745
20.605
16.658
12.907
9.356
6.005
2.856
-0.092
-2.84
-5.392
-7.75
-9.918
-11.902
-13.708
-15.341
-16.808
-18.117
-19.276
-20.292
-21.174
-21.929
-22.567
-23.096
-23.524
-23.86
-24.11
-24.284
-24.388
-24.43
-24.418
-24.357
-24.253
-24.114
-23.945
-23.75
-23.535
-23.303
-23.059
-22.807
-22.549
-22.288
-22.026
-21.765
-21.508
-21.255
-21.006
-20.764
-20.528
-20.298
-20.075
-19.859
-19.649
-19.445
-19.248
-19.055
-18.869
-18.687
-18.51
-18.337
-18.169
-18.005
-17.845
-17.69
-17.538
-17.391
-17.248
-17.11
-16.977
-16.849
-16.726
-16.609
-16.499
-16.395
-16.299
-16.21
-16.13
-16.059
-15.998
-15.947
-15.907
-15.879
-15.862
-15.858
-15.867
-15.889
-15.925
-15.974
-16.039
-16.118
-16.211
-16.32
-16.444
-16.584
-16.738
-16.909
-17.095
-17.296
-17.513
-17.746
-17.994
-18.258
-18.538
-18.834
-19.145
-19.471
-19.813
-20.168
-20.538
-20.921
-21.316
-21.722
-22.138
-22.563
-22.996
-23.435
-23.88
-24.328
-24.777
-25.227
-25.675
-26.118
-26.555
-26.982
-27.398
-27.8
-28.185
-28.55
-28.892
-29.209
-29.496
-29.75
-29.969
-30.148
-30.284
-30.374
-30.415
-30.404
-30.34
-30.221
-30.045
-29.812
-29.523
-29.178
-28.777
-28.321
-27.812
-27.252
-26.643
-25.986
-25.284
-24.54
-23.756
-22.938
-22.09
-21.218
-20.326
-19.42
-18.505
-17.586
-16.67
-15.762
-14.869
-13.993
-13.141
-12.32
-11.539
-10.804
-10.118
-9.478
-8.881
-8.324
-7.801
-7.302
-6.812
-6.315
-5.796
-5.243
-4.651
-4.012
-3.321
-2.562
-1.72
-0.789
0.229
1.32
2.469
3.662
4.874
6.067
7.183
8.16
8.938
9.462
9.693
9.581
9.084
8.164
6.775
4.882
2.461
-0.498
-4.004
-8.039
-12.599
-17.686
-23.182
-28.895
-34.561
-39.809
-44.315
-47.85
-50.093
-50.656
-49.458
-46.607
-42.468
-37.886
-33.503
-29.693
-27.104
-26.34
-27.454
-30.256
-33.944
-36.79
-37.447
-34.785
-27.115
-13.111
7.907
36.251
71.012
110.074
151.399
192.351
229.14
258.038
275.312
277.49
262.522
229.173
176.691
105.9
19.306
-79.456
-185.423
-293.324
-398.355
-495.237
-578.948
-645.628
-692.468
-718.451
-724.316
-711.203
-680.814
-636.207
-580.812
-518.391
-453.059
-387.695
-324.38
-265.544
-213.097
-168.18
-131.659
-103.25
-81.737
-66.409
-56.457
-50.388
-46.842
-44.327
-41.247
-37.011
-31.699
-25.269
-17.955
-10.285
-2.709
4.015
9.007
12.02
13.175
12.713
11.09
8.746
6.05
3.51
1.672
0.817
1.052
2.351
4.556
7.555
11.259
15.539
20.246
25.248
30.425
35.681
40.943
46.124
51.126
55.854
60.215
64.157
67.663
70.741
73.421
75.736
77.727
79.444
80.942
82.281
83.515
84.692
85.857
87.055
88.334
89.742
91.327
93.119
95.135
97.386
99.871
102.588
105.532
108.691
112.048
115.588
119.296
123.159
127.167
131.304
135.552
139.89
144.3
148.76
153.251
157.754
162.248
166.711
171.122
175.463
179.711
183.847
187.848
191.69
195.352
198.81
202.045
205.035
207.76
210.201
212.343
214.169
215.666
216.823
217.628
218.074
218.152
217.858
217.188
216.141
214.715
212.914
210.739
208.198
205.295
202.041
198.446
194.521
190.281
185.74
180.914
175.821
170.48
164.91
159.133
153.169
147.041
140.772
134.385
127.902
121.348
114.746
108.119
101.488
94.878
88.308
81.801
75.375
69.051
62.846
56.779
50.865
45.119
39.557
34.19
29.029
24.086
19.369
14.885
10.641
6.641
2.888
-0.615
-3.869
-6.874
-9.631
-12.145
-14.42
-16.462
-18.276
-19.872
-21.256
-22.439
-23.43
-24.24
-24.879
-25.358
-25.69
-25.885
-25.956
-25.913
-25.77
-25.537
-25.226
-24.848
-24.413
-23.932
-23.414
-22.868
-22.304
-21.729
-21.151
-20.576
-20.011
-19.461
-18.931
-18.424
-17.944
-17.494
-17.076
-16.69
-16.338
-16.02
-15.735
-15.483
-15.263
-15.073
-14.911
-14.775
-14.663
-14.573
-14.502
-14.448
-14.407
-14.377
-14.356
-14.342
-14.331
-14.323
-14.315
-14.306
-14.295
-14.28
-14.261
-14.237
-14.209
-14.176
-14.14
-14.1
-14.059
-14.017
-13.976
-13.937
-13.904
-13.877
-13.86
-13.853
-13.859
-13.88
-13.918
-13.974
-14.049
-14.144
-14.261
-14.4
-14.562
-14.747
-14.955
-15.185
-15.437
-15.709
-16.0
-16.307
-16.628
-16.961
-17.302
-17.647
-17.993
-18.336
-18.671
-18.993
-19.298
-19.58
-19.833
-20.053
-20.234
-20.37
-20.457
-20.49
-20.465
-20.379
-20.228
-20.012
-19.728
-19.377
-18.958
-18.471
-17.918
-17.299
-16.616
-15.872
-15.068
-14.21
-13.3
-12.345
-11.351
-10.325
-9.274
-8.204
-7.123
-6.039
-4.96
-3.895
-2.849
-1.829
-0.844
0.096
0.982
1.804
2.56
3.251
3.877
4.441
4.947
5.404
5.827
6.231
6.627
7.026
7.432
7.852
8.296
8.775
9.305
9.891
10.529
11.213
11.934
12.677
13.425
14.144
14.78
15.287
15.617
15.719
15.558
15.09
14.275
13.088
11.496
9.467
6.982
4.024
0.57
-3.362
-7.776
-12.697
-18.022
-23.585
-29.147
-34.326
-38.787
-42.305
-44.549
-45.134
-43.996
-41.257
-37.317
-33.066
-29.176
-26.036
-24.308
-24.599
-26.946
-31.09
-36.097
-40.095
-41.63
-39.535
-32.094
-17.894
3.827
33.431
69.953
111.091
154.704
198.215
237.886
269.969
290.661
296.265
284.587
254.527
205.285
137.45
53.314
-43.856
-149.38
-257.866
-364.45
-464.087
-551.696
-623.31
-676.017
-708.158
-719.923
-712.4
-687.135
-646.904
-595.133
-535.405
-471.673
-407.38
-345.039
-287.102
-235.606
-191.69
-156.054
-128.536
-107.996
-93.282
-83.296
-76.494
-71.461
-66.913
-61.515
-54.739
-46.752
-37.782
-28.247
-18.77
-9.845
-2.1
3.72
7.404
9.082
8.999
7.614
5.362
2.593
-0.234
-2.631
-4.313
-5.114
-4.992
-4.038
-2.317
0.102
3.111
6.591
10.426
14.514
18.771
23.127
27.507
31.838
36.042
40.046
43.791
47.216
50.293
53.025
55.424
57.522
59.36
60.975
62.42
63.753
65.024
66.284
67.574
68.93
70.391
71.996
73.779
75.775
78.006
80.478
83.196
86.157
89.352
92.774
96.404
100.221
104.204
108.337
112.599
116.975
121.444
125.982
130.565
135.17
139.772
144.347
148.871
153.32
157.67
161.897
165.98
169.896
173.623
177.14
180.425
183.456
186.214
188.68
190.837
192.67
194.165
195.309
196.094
196.511
196.555
196.221
195.508
194.415
192.944
191.098
188.883
186.306
183.375
180.102
176.499
172.579
168.358
163.852
159.08
154.061
148.814
143.361
137.723
131.923
125.982
119.924
113.771
107.548
101.275
94.975
88.671
82.383
76.133
69.94
63.822
57.799
51.887
46.101
40.458
34.97
29.649
24.508
19.557
14.804
10.256
5.921
1.804
-2.093
-5.766
-9.215
-12.439
-15.439
-18.218
-20.779
-23.127
-25.266
-27.202
-28.943
-30.495
-31.867
-33.067
-34.104
-34.986
-35.724
-36.326
-36.803
-37.163
-37.417
-37.574
-37.642
-37.632
-37.552
-37.411
-37.216
-36.977
-36.7
-36.392
-36.06
-35.711
-35.35
-34.982
-34.612
-34.244
-33.881
-33.528
-33.186
-32.857
-32.544
-32.246
-31.966
-31.703
-31.457
-31.229
-31.017
-30.82
-30.639
-30.471
-30.315
-30.17
-30.035
-29.907
-29.786
-29.668
-29.554
-29.441
-29.328
-29.213
-29.095
-28.972
-28.843
-28.708
-28.564
-28.411
-28.249
-28.075
-27.891
-27.694
-27.486
-27.267
-27.036
-26.794
-26.543
-26.282
-26.013
-25.738
-25.458
-25.174
-24.888
-24.603
-24.32
-24.041
-23.768
-23.505
-23.252
-23.013
-22.789
-22.581
-22.392
-22.224
-22.078
-21.954
-21.855
-21.782
-21.735
-21.715
-21.724
-21.761
-21.828
-21.924
-22.049
-22.203
-22.385
-22.593
-22.827
-23.083
-23.361
-23.657
-23.969
-24.294
-24.627
-24.965
-25.304
-25.64
-25.967
-26.282
-26.578
-26.853
-27.101
-27.319
-27.502
-27.648
-27.754
-27.819
-27.84
-27.815
-27.745
-27.626
-27.459
-27.243
-26.978
-26.662
-26.295
-25.88
-25.418
-24.914
-24.369
-23.789
-23.178
-22.54
-21.879
-21.202
-20.513
-19.815
-19.116
-18.42
-17.736
-17.073
-16.44
-15.838
-15.267
-14.727
-14.21
-13.712
-13.222
-12.724
-12.205
-11.653
-11.061
-10.425
-9.74
-8.996
-8.185
-7.295
-6.318
-5.259
-4.125
-2.925
-1.684
-0.426
0.811
1.972
3.009
3.879
4.538
4.945
5.063
4.845
4.256
3.271
1.861
0.003
-2.322
-5.135
-8.429
-12.172
-16.333
-20.894
-25.773
-30.831
-35.842
-40.462
-44.376
-47.349
-49.108
-49.329
-47.863
-44.771
-40.368
-35.383
-30.536
-26.316
-23.283
-22.007
-22.728
-25.316
-29.141
-32.769
-34.641
-33.472
-27.812
-16.286
2.024
27.576
59.993
97.69
138.468
179.819
218.512
250.968
273.577
282.801
275.784
250.74
206.825
144.292
64.8
-28.757
-132.31
-240.927
-349.342
-452.182
-544.313
-621.363
-679.931
-717.908
-734.765
-731.072
-708.438
-669.601
-617.972
-557.368
-491.924
-425.39
-360.744
-300.729
-247.468
-202.227
-165.72
-137.713
-117.051
-102.432
-92.577
-85.859
-80.777
-75.984
-70.164
-62.805
-54.101
-44.373
-34.104
-23.953
-14.48
-6.335
-0.257
3.533
5.205
5.052
3.558
1.194
-1.665
-4.556
-6.982
-8.651
-9.403
-9.199
-8.131
-6.273
-3.688
-0.483
3.226
7.324
11.698
16.251
20.907
25.581
30.193
34.661
38.904
42.857
46.462
49.691
52.549
55.048
57.22
59.102
60.735
62.172
63.472
64.69
65.878
67.08
68.333
69.68
71.161
72.813
74.67
76.752
79.07
81.626
84.42
87.445
90.693
94.148
97.791
101.603
105.569
109.672
113.895
118.222
122.629
127.097
131.601
136.12
140.632
145.114
149.544
153.898
158.155
162.292
166.29
170.126
173.779
177.226
180.447
183.421
186.129
188.553
190.677
192.484
193.962
195.099
195.887
196.317
196.384
196.083
195.412
194.37
192.96
191.182
189.044
186.55
183.71
180.534
177.033
173.22
169.111
164.721
160.067
155.169
150.045
144.716
139.203
133.527
127.71
121.776
115.746
109.643
103.491
97.312
91.127
84.96
78.83
72.757
66.763
60.863
55.078
49.422
43.911
38.56
33.382
28.389
23.591
18.998
14.617
10.457
6.521
2.814
-0.661
-3.903
-6.912
-9.688
-12.235
-14.554
-16.65
-18.529
-20.196
-21.658
-22.924
-24.002
-24.901
-25.63
-26.2
-26.622
-26.904
-27.059
-27.096
-27.027
-26.863
-26.612
-26.287
-25.897
-25.451
-24.96
-24.431
-23.874
-23.296
-22.704
-22.106
-21.507
-20.913
-20.33
-19.762
-19.212
-18.686
-18.185
-17.712
-17.268
-16.856
-16.477
-16.13
-15.815
-15.533
-15.283
-15.063
-14.873
-14.711
-14.575
-14.463
-14.375
-14.306
-14.257
-14.224
-14.206
-14.2
-14.205
-14.219
-14.241
-14.27
-14.303
-14.34
-14.381
-14.424
-14.469
-14.515
-14.564
-14.614
-14.665
-14.72
-14.777
-14.838
-14.904
-14.975
-15.054
-15.141
-15.237
-15.345
-15.466
-15.601
-15.751
-15.919
-16.106
-16.313
-16.542
-16.792
-17.065
-17.361
-17.68
-18.022
-18.387
-18.774
-19.182
-19.609
-20.056
-20.518
-20.996
-21.485
-21.984
-22.489
-22.998
-23.506
-24.009
-24.505
-24.988
-25.455
-25.901
-26.322
-26.713
-27.07
-27.387
-27.66
-27.885
-28.057
-28.173
-28.228
-28.221
-28.148
-28.008
-27.801
-27.526
-27.185
-26.777
-26.304
-25.769
-25.172
-24.517
-23.808
-23.047
-22.239
-21.39
-20.505
-19.591
-18.655
-17.705
-16.746
-15.787
-14.834
-13.894
-12.976
-12.086
-11.229
-10.41
-9.64
-8.926
-8.276
-7.689
-7.164
-6.698
-6.284
-5.919
-5.591
-5.286
-4.989
-4.686
-4.367
-4.026
-3.656
-3.25
-2.792
-2.265
-1.664
-0.988
-0.249
0.541
1.372
2.226
3.069
3.852
4.524
5.035
5.343
5.415
5.209
4.689
3.822
2.571
0.905
-1.2
-3.757
-6.781
-10.26
-14.197
-18.609
-23.391
-28.363
-33.269
-37.728
-41.401
-44.061
-45.386
-44.996
-42.85
-39.1
-34.171
-29.012
-24.348
-20.614
-18.504
-18.608
-20.893
-25.05
-30.125
-34.181
-35.696
-33.395
-25.456
-10.539
11.94
42.15
78.98
120.078
163.194
205.486
242.965
271.84
288.418
289.331
272.67
237.336
182.699
109.737
21.101
-79.518
-187.181
-296.688
-403.285
-501.655
-586.711
-654.554
-702.32
-728.904
-734.897
-721.254
-689.599
-643.086
-585.331
-520.303
-452.345
-384.563
-319.322
-259.372
-206.796
-162.702
-127.766
-101.45
-82.277
-69.294
-61.413
-56.846
-54.05
-51.515
-47.785
-42.479
-35.856
-28.038
-19.422
-10.68
-2.367
4.747
9.876
12.864
13.895
13.267
11.467
8.952
6.111
3.436
1.412
0.309
0.231
1.153
2.943
5.493
8.715
12.493
16.698
21.207
25.914
30.721
35.549
40.325
44.96
49.371
53.48
57.22
60.557
63.494
66.05
68.255
70.15
71.776
73.182
74.428
75.571
76.663
77.753
78.881
80.088
81.42
82.919
84.623
86.555
88.728
91.145
93.805
96.704
99.835
103.184
106.733
110.464
114.362
118.414
122.605
126.917
131.331
135.825
140.378
144.969
149.577
154.179
158.754
163.279
167.732
172.09
176.334
180.439
184.384
188.144
191.697
195.02
198.094
200.897
203.411
205.617
207.501
209.049
210.248
211.089
211.562
211.662
211.383
210.723
209.68
208.256
206.452
204.274
201.728
198.821
195.565
191.97
188.05
183.819
179.294
174.493
169.435
164.138
158.625
152.917
147.037
141.008
134.854
128.598
122.265
115.879
109.463
103.041
96.635
90.269
83.963
77.738
71.613
65.607
59.738
54.021
48.472
43.104
37.93
32.962
28.208
23.677
19.375
15.309
11.482
7.896
4.553
1.452
-1.409
-4.032
-6.422
-8.584
-10.525
-12.251
-13.772
-15.097
-16.236
-17.198
-17.996
-18.64
-19.142
-19.514
-19.767
-19.914
-19.966
-19.934
-19.829
-19.661
-19.442
-19.18
-18.886
-18.566
-18.23
-17.885
-17.537
-17.193
-16.856
-16.533
-16.225
-15.938
-15.671
-15.428
-15.209
-15.013
-14.841
-14.691
-14.562
-14.452
-14.358
-14.278
-14.207
-14.144
-14.084
-14.024
-13.961
-13.89
-13.809
-13.714
-13.602
-13.47
-13.317
-13.139
-12.935
-12.703
-12.442
-12.151
-11.829
-11.477
-11.095
-10.683
-10.242
-9.775
-9.283
-8.768
-8.234
-7.683
-7.118
-6.544
-5.965
-5.383
-4.805
-4.234
-3.675
-3.132
-2.611
-2.116
-1.651
-1.221
-0.83
-0.48
-0.177
0.079
0.284
0.435
0.533
0.574
0.56
0.488
0.359
0.174
-0.066
-0.361
-0.707
-1.104
-1.548
-2.036
-2.563
-3.126
-3.719
-4.339
-4.979
-5.633
-6.297
-6.963
-7.624
-8.275
-8.908
-9.516
-10.092
-10.63
-11.123
-11.566
-11.954
-12.282
-12.545
-12.742
-12.869
-12.927
-12.912
-12.824
-12.664
-12.431
-12.126
-11.751
-11.308
-10.797
-10.223
-9.591
-8.907
-8.177
-7.407
-6.603
-5.772
-4.923
-4.064
-3.203
-2.347
-1.502
-0.678
0.117
0.87
1.572
2.22
2.813
3.351
3.836
4.27
4.661
5.025
5.375
5.723
6.082
6.452
6.842
7.262
7.719
8.231
8.803
9.43
10.108
10.829
11.578
12.338
13.079
13.747
14.293
14.67
14.819
14.703
14.279
13.503
12.347
10.77
8.728
6.198
3.149
-0.439
-4.548
-9.188
-14.386
-20.061
-26.056
-32.127
-37.908
-43.091
-47.476
-50.789
-52.687
-52.972
-51.679
-49.146
-46.035
-42.953
-40.209
-38.096
-37.112
-37.571
-39.355
-41.867
-43.864
-43.955
-41.245
-34.859
-23.467
-6.003
18.096
48.807
84.896
124.493
165.912
206.801
243.705
273.009
290.939
293.993
280.056
247.7
195.86
125.042
37.491
-63.397
-172.747
-285.089
-395.386
-498.224
-588.231
-661.256
-714.265
-745.634
-755.627
-745.341
-716.441
-671.954
-615.538
-551.019
-482.568
-413.741
-347.205
-285.632
-231.194
-185.103
-148.094
-119.964
-99.537
-85.663
-77.156
-72.302
-69.513
-67.312
-64.213
-59.607
-53.578
-46.276
-38.089
-29.656
-21.536
-14.446
-9.197
-6.025
-4.794
-5.23
-6.861
-9.23
-11.953
-14.544
-16.493
-17.511
-17.485
-16.428
-14.476
-11.741
-8.313
-4.315
0.107
4.821
9.713
14.682
19.656
24.559
29.301
33.797
37.969
41.753
45.116
48.061
50.603
52.776
54.62
56.178
57.503
58.658
59.698
60.678
61.646
62.644
63.715
64.905
66.255
67.805
69.579
71.59
73.843
76.338
79.071
82.036
85.22
88.605
92.174
95.913
99.807
103.843
108.004
112.269
116.618
121.029
125.481
129.953
134.423
138.868
143.267
147.596
151.834
155.96
159.951
163.785
167.438
170.888
174.114
177.095
179.811
182.244
184.377
186.194
187.683
188.831
189.631
190.072
190.15
189.86
189.199
188.167
186.766
184.998
182.868
180.383
177.552
174.384
170.891
167.086
162.985
158.604
153.959
149.069
143.954
138.633
133.128
127.46
121.651
115.724
109.7
103.603
97.455
91.278
85.093
78.922
72.786
66.703
60.694
54.775
48.964
43.278
37.73
32.336
27.107
22.056
17.194
12.528
8.068
3.819
-0.212
-4.021
-7.606
-10.964
-14.096
-17.001
-19.681
-22.139
-24.379
-26.405
-28.222
-29.837
-31.256
-32.487
-33.539
-34.42
-35.138
-35.704
-36.125
-36.413
-36.576
-36.624
-36.567
-36.414
-36.175
-35.858
-35.472
-35.027
-34.531
-33.991
-33.415
-32.811
-32.184
-31.543
-30.891
-30.235
-29.58
-28.93
-28.289
-27.661
-27.049
-26.454
-25.881
-25.329
-24.801
-24.298
-23.82
-23.367
-22.939
-22.536
-22.158
-21.804
-21.472
-21.163
-20.875
-20.607
-20.357
-20.125
-19.908
-19.705
-19.515
-19.337
-19.168
-19.008
-18.856
-18.711
-18.571
-18.435
-18.304
-18.176
-18.05
-17.927
-17.806
-17.687
-17.569
-17.454
-17.342
-17.233
-17.129
-17.031
-16.939
-16.856
-16.782
-16.72
-16.67
-16.635
-16.616
-16.616
-16.637
-16.681
-16.749
-16.845
-16.97
-17.125
-17.314
-17.536
-17.793
-18.087
-18.417
-18.785
-19.19
-19.632
-20.112
-20.628
-21.18
-21.767
-22.387
-23.038
-23.718
-24.423
-25.151
-25.898
-26.659
-27.432
-28.21
-28.991
-29.767
-30.534
-31.285
-32.016
-32.719
-33.387
-34.015
-34.595
-35.122
-35.589
-35.991
-36.322
-36.58
-36.759
-36.858
-36.874
-36.806
-36.652
-36.411
-36.083
-35.667
-35.166
-34.579
-33.908
-33.156
-32.329
-31.431
-30.47
-29.45
-28.38
-27.266
-26.116
-24.938
-23.741
-22.53
-21.314
-20.103
-18.908
-17.743
-16.617
-15.537
-14.506
-13.524
-12.589
-11.697
-10.84
-10.003
-9.174
-8.344
-7.506
-6.657
-5.792
-4.903
-3.98
-3.012
-1.99
-0.92
0.194
1.342
2.5
3.644
4.734
5.716
6.541
7.166
7.547
7.638
7.403
6.795
5.781
4.341
2.445
0.072
-2.796
-6.178
-10.066
-14.421
-19.211
-24.42
-29.965
-35.7
-41.38
-46.634
-51.121
-54.586
-56.738
-57.233
-55.902
-52.804
-48.287
-43.14
-38.162
-33.903
-30.962
-29.952
-31.144
-34.397
-39.021
-43.462
-45.978
-45.137
-39.375
-27.185
-7.545
20.045
55.207
96.239
140.734
185.996
228.6
264.71
290.459
302.066
296.448
271.724
227.02
162.559
80.044
-17.496
-125.793
-239.623
-353.423
-461.609
-558.804
-640.371
-702.681
-743.416
-761.956
-758.886
-735.788
-695.347
-640.985
-576.609
-506.574
-434.928
-364.873
-299.367
-240.85
-190.961
-150.802
-120.41
-98.695
-84.3
-75.876
-71.657
-69.905
-68.924
-66.964
-63.179
-57.563
-50.325
-41.896
-32.932
-24.047
-16.037
-9.847
-5.836
-3.918
-3.826
-5.069
-7.172
-9.733
-12.235
-14.113
-15.038
-14.871
-13.612
-11.403
-8.359
-4.571
-0.174
4.679
9.842
15.198
20.645
26.112
31.52
36.775
41.791
46.485
50.792
54.675
58.131
61.173
63.828
66.136
68.138
69.884
71.436
72.848
74.175
75.466
76.766
78.12
79.575
81.176
82.963
84.961
87.185
89.641
92.329
95.244
98.381
101.733
105.289
109.04
112.97
117.063
121.299
125.65
130.088
134.584
139.102
143.614
148.097
152.533
156.917
161.245
165.505
169.679
173.741
177.665
181.436
185.042
188.473
191.733
194.822
197.744
200.521
203.163
205.659
207.988
210.101
211.941
213.468
214.655
215.482
215.941
216.008
215.663
214.891
213.668
211.969
209.766
207.008
203.66
199.724
195.219
190.2
184.743
178.905
172.736
166.284
159.588
152.691
145.641
138.469
131.212
123.916
116.636
109.445
102.409
95.566
88.936
82.52
76.294
70.253
64.394
58.708
53.199
47.867
42.717
37.764
33.023
28.501
24.195
20.092
16.177
12.448
8.908
5.566
2.44
-0.461
-3.13
-5.556
-7.737
-9.673
-11.369
-12.837
-14.095
-15.154
-16.026
-16.719
-17.241
-17.603
-17.817
-17.897
-17.856
-17.709
-17.47
-17.154
-16.776
-16.348
-15.881
-15.384
-14.865
-14.331
-13.79
-13.249
-12.714
-12.192
-11.688
-11.208
-10.756
-10.336
-9.952
-9.606
-9.298
-9.028
-8.798
-8.606
-8.451
-8.33
-8.243
-8.187
-8.159
-8.156
-8.177
-8.216
-8.273
-8.343
-8.423
-8.511
-8.603
-8.697
-8.791
-8.881
-8.965
-9.043
-9.112
-9.171
-9.218
-9.254
-9.278
-9.288
-9.286
-9.27
-9.241
-9.2
-9.149
-9.088
-9.018
-8.942
-8.862
-8.78
-8.698
-8.617
-8.542
-8.472
-8.412
-8.361
-8.323
-8.3
-8.292
-8.302
-8.331
-8.381
-8.452
-8.545
-8.662
-8.803
-8.968
-9.157
-9.372
-9.611
-9.874
-10.162
-10.473
-10.807
-11.163
-11.54
-11.935
-12.348
-12.777
-13.218
-13.67
-14.131
-14.596
-15.064
-15.532
-15.998
-16.457
-16.909
-17.349
-17.776
-18.186
-18.577
-18.946
-19.291
-19.608
-19.896
-20.152
-20.374
-20.56
-20.708
-20.815
-20.879
-20.899
-20.873
-20.8
-20.677
-20.506
-20.284
-20.013
-19.693
-19.326
-18.914
-18.46
-17.966
-17.436
-16.874
-16.283
-15.668
-15.034
-14.384
-13.721
-13.051
-12.378
-11.707
-11.043
-10.391
-9.755
-9.142
-8.555
-8.0
-7.484
-7.009
-6.578
-6.19
-5.85
-5.559
-5.324
-5.149
-5.028
-4.959
-4.937
-4.956
-5.011
-5.086
-5.159
-5.206
-5.21
-5.157
-5.041
-4.859
-4.596
-4.239
-3.775
-3.196
-2.511
-1.732
-0.86
0.095
1.107
2.137
3.11
3.945
4.588
4.989
5.111
4.936
4.412
3.483
2.103
0.227
-2.164
-5.061
-8.51
-12.574
-17.214
-22.282
-27.494
-32.438
-36.784
-40.31
-42.743
-43.744
-43.12
-40.947
-37.631
-33.922
-30.551
-27.927
-26.418
-26.561
-28.611
-32.307
-36.895
-40.945
-42.823
-41.409
-35.569
-23.773
-4.999
21.09
54.142
92.56
134.181
177.018
218.338
254.379
281.485
296.088
295.158
277.058
240.602
185.02
111.181
21.601
-80.059
-188.891
-299.8
-408.054
-508.237
-595.105
-664.586
-713.666
-741.161
-747.604
-733.921
-701.786
-654.453
-595.684
-529.617
-460.725
-392.207
-326.491
-266.343
-213.812
-169.936
-135.315
-109.336
-90.481
-77.782
-70.151
-65.816
-63.27
-61.054
-57.736
-52.938
-46.904
-39.724
-31.753
-23.642
-15.909
-9.294
-4.58
-1.91
-1.087
-1.824
-3.638
-6.068
-8.732
-11.135
-12.774
-13.407
-12.953
-11.453
-9.066
-5.907
-2.069
2.32
7.115
12.186
17.417
22.709
27.99
33.172
38.158
42.858
47.182
51.081
54.541
57.572
60.206
62.48
64.433
66.118
67.592
68.914
70.141
71.322
72.5
73.724
75.041
76.499
78.144
80.008
82.108
84.454
87.046
89.882
92.958
96.262
99.776
103.485
107.374
111.431
115.642
119.993
124.463
129.032
133.679
138.381
143.118
147.868
152.608
157.316
161.969
166.544
171.019
175.372
179.577
183.611
187.449
191.067
194.442
197.552
200.376
202.893
205.086
206.938
208.435
209.565
210.316
210.679
210.647
210.215
209.38
208.142
206.5
204.457
202.02
199.194
195.99
192.417
188.489
184.221
179.628
174.73
169.545
164.095
158.4
152.484
146.37
140.084
133.651
127.096
120.445
113.724
106.96
100.179
93.405
86.663
79.977
73.371
66.866
60.484
54.244
48.164
42.263
36.557
31.059
25.783
20.74
15.94
11.391
7.099
3.069
-0.696
-4.195
-7.428
-10.396
-13.103
-15.553
-17.753
-19.709
-21.429
-22.924
-24.203
-25.279
-26.162
-26.865
-27.402
-27.786
-28.03
-28.148
-28.154
-28.06
-27.88
-27.628
-27.315
-26.954
-26.557
-26.134
-25.695
-25.251
-24.809
-24.379
-23.965
-23.576
-23.216
-22.889
-22.6
-22.349
-22.141
-21.975
-21.852
-21.772
-21.733
-21.733
-21.771
-21.843
-21.947
-22.078
-22.232
-22.407
-22.597
-22.798
-23.007
-23.22
-23.431
-23.638
-23.837
-24.023
-24.193
-24.345
-24.474
-24.58
-24.659
-24.71
-24.732
-24.724
-24.685
-24.614
-24.513
-24.381
-24.22
-24.03
-23.813
-23.572
-23.308
-23.025
-22.725
-22.411
-22.086
-21.755
-21.42
-21.085
-20.752
-20.426
-20.108
-19.802
-19.511
-19.237
-18.983
-18.754
-18.55
-18.375
-18.231
-18.121
-18.047
-18.01
-18.013
-18.056
-18.142
-18.27
-18.442
-18.658
-18.918
-19.223
-19.572
-19.963
-20.396
-20.869
-21.379
-21.923
-22.498
-23.1
-23.726
-24.372
-25.035
-25.711
-26.399
-27.096
-27.798
-28.502
-29.207
-29.906
-30.594
-31.266
-31.913
-32.529
-33.107
-33.642
-34.129
-34.562
-34.937
-35.252
-35.505
-35.691
-35.807
-35.845
-35.796
-35.662
-35.445
-35.152
-34.796
-34.386
-33.931
-33.45
-32.952
-32.444
-31.929
-31.395
-30.83
-30.23
-29.597
-28.942
-28.277
-27.601
-26.907
-26.188
-25.43
-24.62
-23.747
-22.779
-21.69
-20.477
-19.147
-17.731
-16.273
-14.791
-13.292
-11.775
-10.239
-8.696
-7.169
-5.665
-4.202
-2.799
-1.477
-0.29
0.714
1.517
2.117
2.533
2.802
2.929
2.893
2.682
2.275
1.665
0.846
-0.215
-1.547
-3.169
-5.085
-7.257
-9.655
-12.287
-15.166
-18.322
-21.791
-25.553
-29.594
-33.95
-38.549
-43.243
-47.803
-51.861
-55.107
-57.371
-58.389
-57.839
-55.677
-52.07
-47.462
-42.651
-38.181
-34.264
-31.309
-29.859
-30.013
-31.476
-33.367
-34.157
-32.697
-28.338
-20.098
-6.666
12.805
38.644
70.272
105.984
144.1
182.992
220.128
252.053
275.141
285.838
281.323
259.969
220.5
162.327
86.459
-4.468
-106.412
-214.323
-323.025
-427.496
-522.453
-603.057
-665.568
-707.527
-728.351
-728.782
-710.043
-674.243
-624.561
-564.715
-498.791
-430.768
-363.5
-299.448
-241.223
-190.756
-149.209
-116.82
-92.681
-75.471
-64.209
-57.619
-53.925
-51.386
-48.314
-43.761
-37.749
-30.563
-22.462
-13.892
-5.479
2.001
7.615
10.928
12.092
11.433
9.408
6.475
3.033
-0.415
-3.278
-5.182
-5.989
-5.69
-4.416
-2.285
0.636
4.23
8.347
12.852
17.614
22.524
27.508
32.48
37.341
41.998
46.356
50.334
53.897
57.037
59.766
62.115
64.119
65.819
67.266
68.523
69.648
70.699
71.725
72.769
73.88
75.105
76.493
78.087
79.914
81.988
84.318
86.905
89.746
92.836
96.162
99.706
103.454
107.39
111.502
115.775
120.193
124.735
129.382
134.111
138.902
143.732
148.581
153.426
158.245
163.014
167.712
172.318
176.808
181.158
185.345
189.344
193.131
196.685
199.983
203.003
205.728
208.137
210.217
211.951
213.327
214.334
214.962
215.203
215.053
214.507
213.563
212.221
210.484
208.354
205.839
202.946
199.684
196.065
192.101
187.808
183.2
178.297
173.115
167.675
161.997
156.103
150.017
143.76
137.357
130.832
124.208
117.511
110.765
103.993
97.22
90.467
83.758
77.114
70.556
64.104
57.777
51.593
45.568
39.718
34.058
28.6
23.356
18.336
13.549
9.003
4.702
0.653
-3.142
-6.681
-9.964
-12.99
-15.763
-18.285
-20.561
-22.596
-24.397
-25.972
-27.328
-28.474
-29.421
-30.179
-30.757
-31.168
-31.423
-31.533
-31.51
-31.365
-31.11
-30.756
-30.316
-29.799
-29.217
-28.579
-27.897
-27.179
-26.435
-25.672
-24.9
-24.125
-23.355
-22.596
-21.854
-21.133
-20.439
-19.775
-19.144
-18.55
-17.995
-17.48
-17.007
-16.577
-16.189
-15.843
-15.54
-15.279
-15.059
-14.879
-14.737
-14.633
-14.564
-14.53
-14.528
-14.556
-14.613
-14.697
-14.805
-14.937
-15.091
-15.264
-15.455
-15.663
-15.886
-16.124
-16.374
-16.635
-16.908
-17.19
-17.482
-17.783
-18.093
-18.411
-18.738
-19.073
-19.416
-19.768
-20.128
-20.495
-20.87
-21.252
-21.64
-22.034
-22.432
-22.835
-23.24
-23.648
-24.058
-24.467
-24.875
-25.28
-25.681
-26.076
-26.463
-26.84
-27.206
-27.557
-27.891
-28.207
-28.501
-28.77
-29.012
-29.223
-29.399
-29.538
-29.636
-29.689
-29.695
-29.651
-29.555
-29.406
-29.201
-28.941
-28.625
-28.256
-27.832
-27.355
-26.826
-26.246
-25.619
-24.945
-24.226
-23.465
-22.665
-21.831
-20.968
-20.08
-19.174
-18.253
-17.324
-16.392
-15.464
-14.544
-13.638
-12.753
-11.893
-11.068
-10.287
-9.557
-8.88
-8.257
-7.685
-7.159
-6.672
-6.215
-5.77
-5.326
-4.87
-4.391
-3.883
-3.337
-2.744
-2.093
-1.367
-0.559
0.33
1.298
2.329
3.401
4.495
5.573
6.581
7.471
8.194
8.697
8.941
8.882
8.468
7.665
6.439
4.756
2.592
-0.076
-3.262
-6.959
-11.136
-15.768
-20.83
-26.215
-31.739
-37.138
-42.037
-46.104
-49.117
-50.779
-50.734
-48.942
-45.544
-40.923
-35.947
-31.271
-27.258
-24.535
-23.642
-24.528
-26.921
-29.986
-31.988
-31.619
-27.806
-18.935
-3.832
17.994
46.702
81.302
119.684
159.868
199.272
234.2
261.125
276.55
277.242
261.287
227.463
175.016
104.781
19.227
-78.135
-182.588
-289.145
-393.151
-489.332
-572.624
-639.127
-686.021
-712.215
-718.139
-704.601
-673.143
-626.858
-569.498
-505.179
-438.188
-371.635
-308.099
-250.453
-200.924
-160.697
-130.016
-107.913
-92.786
-83.475
-78.584
-76.144
-74.302
-71.341
-66.28
-59.186
-50.487
-40.566
-29.998
-19.539
-10.037
-2.466
2.7
5.571
6.442
5.767
4.022
1.612
-0.955
-3.121
-4.541
-5.055
-4.625
-3.354
-1.334
1.377
4.665
8.414
12.518
16.869
21.388
26.004
30.633
35.199
39.622
43.822
47.736
51.307
54.504
57.332
59.808
61.963
63.836
65.466
66.903
68.207
69.432
70.63
71.846
73.12
74.493
76.008
77.703
79.612
81.76
84.156
86.804
89.704
92.85
96.236
99.847
103.662
107.664
111.837
116.164
120.628
125.21
129.888
134.638
139.436
144.259
149.083
153.884
158.635
163.311
167.889
172.343
176.651
180.788
184.731
188.454
191.934
195.149
198.078
200.701
202.999
204.956
206.557
207.79
208.644
209.111
209.183
208.856
208.128
206.998
205.468
203.54
201.22
198.515
195.435
191.991
188.195
184.062
179.609
174.853
169.813
164.511
158.966
153.202
147.242
141.109
134.828
128.423
121.919
115.339
108.709
102.053
95.393
88.753
82.156
75.622
69.171
62.823
56.597
50.509
44.576
38.811
33.229
27.841
22.659
17.692
12.947
8.43
4.148
0.104
-3.701
-7.265
-10.589
-13.674
-16.525
-19.144
-21.537
-23.711
-25.671
-27.426
-28.984
-30.353
-31.544
-32.566
-33.429
-34.143
-34.719
-35.166
-35.496
-35.718
-35.842
-35.879
-35.839
-35.729
-35.56
-35.34
-35.077
-34.778
-34.451
-34.102
-33.736
-33.36
-32.977
-32.592
-32.208
-31.829
-31.456
-31.092
-30.737
-30.393
-30.06
-29.738
-29.427
-29.128
-28.838
-28.558
-28.287
-28.024
-27.768
-27.517
-27.27
-27.027
-26.786
-26.545
-26.305
-26.064
-25.821
-25.576
-25.327
-25.075
-24.819
-24.559
-24.295
-24.027
-23.756
-23.481
-23.204
-22.926
-22.647
-22.369
-22.094
-21.822
-21.556
-21.296
-21.044
-20.802
-20.57
-20.351
-20.145
-19.954
-19.78
-19.622
-19.484
-19.365
-19.266
-19.189
-19.135
-19.103
-19.095
-19.111
-19.152
-19.218
-19.31
-19.427
-19.571
-19.741
-19.938
-20.16
-20.407
-20.679
-20.975
-21.294
-21.633
-21.993
-22.37
-22.764
-23.174
-23.596
-24.03
-24.473
-24.923
-25.378
-25.836
-26.294
-26.749
-27.199
-27.641
-28.072
-28.489
-28.89
-29.272
-29.631
-29.964
-30.268
-30.54
-30.776
-30.973
-31.129
-31.239
-31.303
-31.318
-31.282
-31.196
-31.057
-30.869
-30.63
-30.342
-30.006
-29.625
-29.199
-28.731
-28.224
-27.679
-27.099
-26.488
-25.85
-25.189
-24.511
-23.819
-23.118
-22.413
-21.71
-21.014
-20.332
-19.664
-19.015
-18.389
-17.79
-17.229
-16.708
-16.227
-15.784
-15.378
-15.004
-14.658
-14.328
-13.996
-13.645
-13.257
-12.82
-12.328
-11.776
-11.154
-10.451
-9.655
-8.759
-7.773
-6.704
-5.561
-4.358
-3.116
-1.872
-0.691
0.362
1.221
1.829
2.14
2.115
1.721
0.917
-0.344
-2.097
-4.365
-7.173
-10.518
-14.417
-18.92
-23.946
-29.304
-34.731
-39.819
-44.22
-47.726
-50.026
-50.743
-49.816
-47.365
-43.783
-39.956
-36.512
-33.755
-32.246
-32.487
-34.444
-37.86
-41.836
-44.574
-44.745
-41.345
-32.843
-17.997
3.834
32.971
68.483
108.157
150.022
191.752
229.853
260.786
280.913
286.602
275.708
247.216
200.209
134.99
53.638
-40.861
-144.026
-250.467
-355.599
-454.822
-543.139
-616.516
-672.03
-707.687
-723.55
-720.893
-700.728
-665.076
-617.019
-559.665
-496.593
-431.459
-366.647
-304.175
-246.63
-195.823
-152.872
-118.591
-92.538
-73.61
-61.118
-54.043
-50.666
-49.463
-48.888
-47.444
-44.646
-40.552
-35.148
-28.734
-21.904
-15.19
-9.312
-5.031
-2.518
-1.603
-2.039
-3.402
-5.263
-7.276
-8.99
-9.939
-9.913
-8.866
-6.85
-4.031
-0.54
3.529
8.035
12.824
17.778
22.78
27.745
32.618
37.326
41.793
45.949
49.727
53.091
56.044
58.604
60.806
62.692
64.306
65.7
66.934
68.066
69.152
70.238
71.367
72.581
73.925
75.441
77.169
79.138
81.36
83.844
86.589
89.593
92.85
96.347
100.067
103.995
108.114
112.41
116.868
121.471
126.198
131.027
135.935
140.898
145.894
150.899
155.889
160.84
165.727
170.526
175.215
179.768
184.16
188.366
192.362
196.123
199.626
202.85
205.773
208.376
210.643
212.557
214.107
215.28
216.067
216.46
216.455
216.047
215.237
214.025
212.414
210.41
208.02
205.253
202.122
198.638
194.818
190.677
186.233
181.506
176.517
171.287
165.838
160.195
154.382
148.422
142.342
136.166
129.919
123.626
117.313
111.003
104.719
98.485
92.321
86.25
80.289
74.459
68.775
63.254
57.91
52.756
47.804
43.064
38.543
34.249
30.187
26.36
22.772
19.423
16.311
13.436
10.794
8.38
6.189
4.214
2.446
0.878
-0.5
-1.699
-2.729
-3.601
-4.327
-4.92
-5.389
-5.749
-6.01
-6.184
-6.284
-6.319
-6.301
-6.241
-6.147
-6.029
-5.897
-5.756
-5.616
-5.483
-5.361
-5.257
-5.175
-5.118
-5.09
-5.093
-5.128
-5.196
-5.297
-5.431
-5.598
-5.795
-6.02
-6.272
-6.547
-6.843
-7.156
-7.484
-7.823
-8.168
-8.517
-8.867
-9.213
-9.552
-9.881
-10.198
-10.498
-10.781
-11.042
-11.281
-11.496
-11.684
-11.844
-11.976
-12.078
-12.15
-12.191
-12.202
-12.182
-12.133
-12.054
-11.948
-11.816
-11.658
-11.478
-11.276
-11.055
-10.817
-10.564
-10.3
-10.025
-9.744
-9.457
-9.168
-8.879
-8.593
-8.312
-8.037
-7.772
-7.518
-7.278
-7.053
-6.846
-6.657
-6.49
-6.345
-6.225
-6.131
-6.065
-6.027
-6.019
-6.042
-6.097
-6.183
-6.301
-6.45
-6.63
-6.84
-7.079
-7.345
-7.637
-7.953
-8.29
-8.646
-9.02
-9.407
-9.805
-10.211
-10.622
-11.033
-11.442
-11.845
-12.237
-12.615
-12.974
-13.31
-13.619
-13.896
-14.136
-14.335
-14.488
-14.591
-14.641
-14.632
-14.562
-14.429
-14.23
-13.964
-13.63
-13.23
-12.763
-12.231
-11.637
-10.982
-10.269
-9.502
-8.684
-7.819
-6.911
-5.966
-4.988
-3.985
-2.964
-1.93
-0.89
0.148
1.178
2.189
3.176
4.132
5.054
5.934
6.766
7.54
8.25
8.897
9.48
10.003
10.467
10.877
11.24
11.574
11.896
12.222
12.565
12.927
13.317
13.743
14.219
14.759
15.369
16.039
16.759
17.521
18.314
19.127
19.924
20.647
21.239
21.64
21.805
21.699
21.283
20.524
19.382
17.807
15.77
13.257
10.245
6.739
2.716
-1.891
-7.006
-12.447
-17.96
-23.139
-27.647
-31.289
-33.736
-34.593
-33.789
-31.44
-27.987
-24.38
-21.31
-19.133
-18.427
-19.699
-22.92
-27.792
-33.323
-37.599
-39.107
-36.692
-28.835
-14.276
7.603
37.032
73.135
113.703
156.604
199.436
238.802
271.175
293.046
300.94
292.419
266.218
221.399
158.124
78.247
-15.346
-118.475
-226.042
-333.13
-434.824
-526.028
-602.455
-660.964
-699.489
-717.788
-716.771
-697.642
-662.575
-614.658
-557.296
-494.235
-429.076
-364.356
-302.373
-245.651
-196.069
-154.855
-122.4
-97.977
-80.497
-69.138
-62.686
-59.389
-57.462
-55.12
-51.315
-45.95
-39.196
-31.252
-22.546
-13.723
-5.624
0.746
4.891
6.894
7.032
5.729
3.422
0.507
-2.504
-5.009
-6.627
-7.218
-6.771
-5.417
-3.272
-0.401
3.082
7.032
11.321
15.828
20.453
25.128
29.777
34.308
38.631
42.656
46.303
49.538
52.355
54.767
56.805
58.503
59.899
61.046
62.004
62.831
63.582
64.305
65.044
65.844
66.754
67.822
69.093
70.594
72.34
74.34
76.595
79.104
81.861
84.853
88.063
91.475
95.074
98.847
102.779
106.853
111.048
115.344
119.717
124.145
128.607
133.079
137.539
141.964
146.33
150.615
154.797
158.853
162.758
166.49
170.025
173.339
176.41
179.218
181.742
183.964
185.868
187.438
188.663
189.529
190.029
190.155
189.9
189.262
188.239
186.83
185.038
182.868
180.325
177.416
174.152
170.544
166.604
162.348
157.791
152.95
147.844
142.493
136.916
131.136
125.173
119.052
112.794
106.423
99.963
93.436
86.866
80.277
73.689
67.126
60.609
54.158
47.793
41.532
35.392
29.392
23.545
17.866
12.367
7.062
1.959
-2.931
-7.602
-12.046
-16.26
-20.238
-23.979
-27.481
-30.745
-33.772
-36.564
-39.125
-41.459
-43.572
-45.47
-47.16
-48.65
-49.949
-51.066
-52.009
-52.79
-53.419
-53.905
-54.259
-54.492
-54.614
-54.636
-54.567
-54.418
-54.198
-53.916
-53.582
-53.204
-52.789
-52.347
-51.883
-51.405
-50.918
-50.429
-49.942
-49.462
-48.992
-48.537
-48.099
-47.681
-47.285
-46.912
-46.565
-46.244
-45.95
-45.684
-45.446
-45.235
-45.052
-44.897
-44.769
-44.669
-44.596
-44.55
-44.532
-44.541
-44.578
-44.642
-44.734
-44.854
-45.002
-45.179
-45.386
-45.621
-45.888
-46.185
-46.514
-46.875
-47.269
-47.697
-48.159
-48.656
-49.188
-49.754
-50.356
-50.993
-51.664
-52.37
-53.108
-53.878
-54.679
-55.507
-56.361
-57.237
-58.133
-59.044
-59.966
-60.896
-61.827
-62.757
-63.678
-64.587
-65.478
-66.345
-67.183
-67.986
-68.748
-69.464
-70.128
-70.735
-71.279
-71.756
-72.161
-72.49
-72.738
-72.901
-72.978
-72.964
-72.857
-72.656
