33.17
32.223
30.52
28.562
26.539
24.452
22.239
19.848
17.343
14.814
12.295
9.804
7.359
4.96
2.606
0.296
-1.985
-4.24
-6.462
-8.641
-10.767
-12.836
-14.843
-16.781
-18.645
-20.429
-22.132
-23.75
-25.284
-26.732
-28.094
-29.369
-30.558
-31.663
-32.685
-33.627
-34.49
-35.279
-35.997
-36.647
-37.234
-37.762
-38.236
-38.66
-39.039
-39.379
-39.685
-39.961
-40.213
-40.446
-40.666
-40.877
-41.085
-41.294
-41.509
-41.735
-41.975
-42.234
-42.515
-42.822
-43.157
-43.522
-43.919
-44.351
-44.818
-45.322
-45.862
-46.439
-47.053
-47.703
-48.389
-49.108
-49.861
-50.645
-51.458
-52.299
-53.165
-54.055
-54.965
-55.893
-56.837
-57.795
-58.762
-59.738
-60.719
-61.703
-62.686
-63.667
-64.643
-65.613
-66.573
-67.522
-68.459
-69.382
-70.29
-71.183
-72.059
-72.919
-73.762
-74.589
-75.399
-76.193
-76.973
-77.738
-78.491
-79.233
-79.965
-80.688
-81.405
-82.115
-82.822
-83.526
-84.228
-84.93
-85.632
-86.335
-87.04
-87.748
-88.46
-89.174
-89.893
-90.615
-91.34
-92.066
-92.794
-93.522
-94.247
-94.967
-95.681
-96.386
-97.078
-97.755
-98.413
-99.048
-99.656
-100.233
-100.774
-101.275
-101.731
-102.138
-102.493
-102.79
-103.027
-103.2
-103.308
-103.349
-103.322
-103.226
-103.062
-102.828
-102.526
-102.156
-101.721
-101.221
-100.659
-100.038
-99.361
-98.634
-97.862
-97.051
-96.207
-95.336
-94.445
-93.541
-92.632
-91.724
-90.824
-89.939
-89.076
-88.244
-87.453
-86.711
-86.02
-85.383
-84.797
-84.258
-83.763
-83.306
-82.87
-82.446
-82.022
-81.587
-81.142
-80.68
-80.194
-79.676
-79.112
-78.492
-77.823
-77.107
-76.355
-75.585
-74.811
-74.06
-73.381
-72.816
-72.407
-72.205
-72.231
-72.517
-73.096
-73.987
-75.23
-76.864
-78.906
-81.386
-84.314
-87.661
-91.434
-95.644
-100.202
-104.968
-109.713
-114.093
-117.851
-120.817
-122.771
-123.45
-122.692
-120.55
-117.362
-113.771
-110.367
-107.413
-105.143
-103.979
-104.181
-105.704
-107.801
-108.722
-106.798
-101.031
-91.314
-78.72
-64.15
-47.955
-29.726
-6.991
22.493
59.745
104.63
152.571
197.047
231.724
248.775
242.866
211.517
153.989
74.716
-19.018
-120.732
-225.396
-331.238
-438.278
-543.739
-640.538
-719.339
-771.277
-791.471
-781.912
-748.256
-696.815
-634.129
-563.519
-487.338
-409.722
-334.314
-266.208
-210.37
-167.901
-138.016
-117.948
-103.51
-92.667
-84.829
-79.539
-76.776
-75.429
-73.625
-70.25
-64.817
-57.47
-48.829
-39.69
-30.817
-23.009
-17.083
-13.324
-11.597
-11.608
-12.87
-14.893
-17.26
-19.469
-20.992
-21.562
-21.084
-19.578
-17.196
-14.048
-10.221
-5.851
-1.083
3.956
9.153
14.422
19.701
24.902
29.934
34.705
39.128
43.156
46.771
49.975
52.791
55.249
57.386
59.252
60.905
62.402
63.797
65.138
66.471
67.841
69.298
70.889
72.66
74.643
76.857
79.312
82.014
84.962
88.153
91.578
95.221
99.069
103.109
107.33
111.722
116.268
120.953
125.757
130.661
135.645
140.689
145.773
150.877
155.979
161.056
166.089
171.055
175.931
180.695
185.321
189.786
194.064
198.133
201.971
205.554
208.862
211.876
214.579
216.954
218.987
220.665
221.978
222.914
223.468
223.633
223.406
222.785
221.77
220.362
218.566
216.388
213.835
210.918
207.647
204.037
200.101
195.856
191.32
186.512
181.452
176.162
170.663
164.98
159.135
153.153
147.058
140.876
134.629
128.344
122.043
115.75
109.488
103.279
97.145
91.106
85.181
79.39
73.749
68.274
62.981
57.882
52.99
48.316
43.869
39.655
35.682
31.955
28.475
25.245
22.266
19.536
17.052
14.81
12.807
11.035
9.488
8.156
7.032
6.106
5.366
4.802
4.403
4.156
4.051
4.074
4.214
4.457
4.793
5.208
5.692
6.233
6.819
7.44
8.086
8.748
9.415
10.081
10.736
11.374
11.989
12.574
13.124
13.635
14.104
14.526
14.9
15.224
15.496
15.715
15.881
15.995
16.057
16.067
16.028
15.94
15.806
15.627
15.406
15.145
14.846
14.512
14.145
13.748
13.323
12.873
12.4
11.907
11.395
10.866
10.323
9.768
9.201
8.624
8.039
7.447
6.848
6.243
5.634
5.02
4.401
3.779
3.152
2.522
1.887
1.248
0.604
-0.045
-0.699
-1.359
-2.025
-2.697
-3.377
-4.064
-4.759
-5.462
-6.174
-6.894
-7.625
-8.365
-9.115
-9.876
-10.647
-11.429
-12.222
-13.026
-13.841
-14.667
-15.503
-16.349
-17.205
-18.071
-18.945
-19.827
-20.715
-21.609
-22.507
-23.408
-24.309
-25.21
-26.107
-27.0
-27.886
-28.763
-29.63
-30.482
-31.319
-32.137
-32.935
-33.708
-34.456
-35.173
-35.859
-36.508
-37.12
-37.69
-38.217
-38.696
-39.125
-39.501
-39.821
-40.084
-40.286
-40.427
-40.503
-40.515
-40.462
-40.344
-40.161
-39.915
-39.608
-39.242
-38.82
-38.345
-37.819
-37.248
-36.634
-35.982
-35.296
-34.579
-33.837
-33.076
-32.301
-31.517
-30.731
-29.949
-29.176
-28.419
-27.685
-26.979
-26.304
-25.662
-25.058
-24.496
-23.983
-23.523
-23.114
-22.753
-22.441
-22.171
-21.941
-21.739
-21.547
-21.345
-21.122
-20.865
-20.574
-20.243
-19.862
-19.42
-18.906
-18.313
-17.65
-16.926
-16.137
-15.292
-14.41
-13.523
-12.693
-11.983
-11.435
-11.091
-10.978
-11.115
-11.546
-12.318
-13.467
-15.035
-17.036
-19.462
-22.346
-25.733
-29.58
-33.759
-38.021
-42.008
-45.443
-48.151
-49.92
-50.486
-49.702
-47.639
-44.66
-41.439
-38.576
-36.33
-34.942
-34.813
-36.145
-38.831
-42.032
-43.943
-42.933
-37.94
-28.777
-16.436
-1.547
15.528
34.923
58.904
89.291
127.031
172.395
221.07
266.273
300.428
314.304
301.666
260.832
194.426
109.878
16.223
-79.956
-176.547
-274.215
-373.563
-471.408
-559.253
-626.943
-666.387
-675.518
-658.12
-620.622
-570.156
-510.943
-445.714
-378.078
-311.575
-250.902
-199.733
-158.653
-126.41
-100.279
-78.336
-60.156
-46.153
-37.244
-32.769
-31.01
-30.118
-28.106
-24.211
-18.661
-11.753
-3.998
3.915
11.439
17.906
22.598
25.338
26.283
25.692
23.994
21.622
18.945
16.417
14.504
13.435
13.285
14.037
15.566
17.78
20.609
23.936
27.633
31.586
35.695
39.882
44.09
48.243
52.256
56.045
59.53
62.666
65.438
67.848
69.919
71.678
73.159
74.409
75.484
76.435
77.316
78.17
79.039
79.966
80.997
82.175
83.547
85.141
86.976
89.063
91.406
94.004
96.855
99.948
103.269
106.804
110.54
114.465
118.566
122.83
127.237
131.77
136.406
141.125
145.908
150.732
155.576
160.418
165.235
170.004
174.706
179.315
183.808
188.16
192.347
196.344
200.129
203.677
206.969
209.982
212.698
215.099
217.171
218.898
220.27
221.274
221.902
222.147
222.005
221.471
220.545
219.227
217.52
215.428
212.958
210.117
206.916
203.366
199.48
195.275
190.764
185.967
180.903
175.59
170.05
164.306
158.378
152.292
146.069
139.734
133.311
126.823
120.295
113.749
107.207
100.693
94.228
87.832
81.524
75.325
69.251
63.32
57.547
51.946
46.531
41.313
36.304
31.511
26.944
22.608
18.508
14.649
11.032
7.658
4.528
1.639
-1.01
-3.424
-5.608
-7.567
-9.308
-10.84
-12.17
-13.307
-14.261
-15.043
-15.662
-16.129
-16.455
-16.651
-16.729
-16.699
-16.572
-16.359
-16.071
-15.718
-15.31
-14.857
-14.367
-13.85
-13.314
-12.766
-12.214
-11.664
-11.122
-10.594
-10.085
-9.598
-9.137
-8.707
-8.308
-7.944
-7.616
-7.324
-7.069
-6.851
-6.67
-6.525
-6.415
-6.339
-6.294
-6.279
-6.293
-6.332
-6.394
-6.476
-6.577
-6.694
-6.823
-6.963
-7.11
-7.263
-7.418
-7.574
-7.728
-7.878
-8.023
-8.159
-8.286
-8.403
-8.507
-8.597
-8.674
-8.735
-8.781
-8.81
-8.824
-8.821
-8.803
-8.769
-8.72
-8.657
-8.581
-8.494
-8.395
-8.287
-8.172
-8.05
-7.923
-7.794
-7.663
-7.533
-7.406
-7.284
-7.169
-7.062
-6.966
-6.883
-6.815
-6.763
-6.729
-6.716
-6.724
-6.755
-6.81
-6.891
-6.999
-7.133
-7.296
-7.486
-7.705
-7.951
-8.223
-8.522
-8.845
-9.191
-9.558
-9.945
-10.35
-10.77
-11.202
-11.643
-12.092
-12.544
-12.996
-13.444
-13.886
-14.316
-14.731
-15.128
-15.501
-15.848
-16.164
-16.445
-16.687
-16.887
-17.041
-17.146
-17.198
-17.196
-17.137
-17.019
-16.844
-16.609
-16.316
-15.967
-15.563
-15.107
-14.601
-14.049
-13.454
-12.821
-12.153
-11.455
-10.731
-9.986
-9.226
-8.459
-7.689
-6.923
-6.167
-5.428
-4.713
-4.03
-3.384
-2.778
-2.215
-1.7
-1.237
-0.835
-0.496
-0.219
-0.001
0.158
0.263
0.317
0.332
0.326
0.318
0.321
0.345
0.393
0.468
0.582
0.744
0.966
1.254
1.597
1.989
2.431
2.917
3.427
3.931
4.368
4.677
4.817
4.749
4.446
3.891
3.045
1.863
0.311
-1.65
-4.031
-6.826
-10.068
-13.803
-17.994
-22.514
-27.117
-31.444
-35.211
-38.233
-40.294
-41.127
-40.583
-38.742
-35.983
-33.005
-30.451
-28.628
-27.805
-28.404
-30.63
-34.352
-38.716
-41.905
-42.213
-38.512
-30.503
-18.959
-4.384
12.901
32.973
57.717
88.549
126.128
170.539
217.719
261.396
294.452
308.047
295.87
255.702
189.525
104.244
8.902
-89.338
-187.688
-286.406
-386.241
-484.703
-573.792
-643.373
-685.246
-696.785
-681.782
-647.194
-599.81
-543.64
-480.175
-411.361
-340.721
-273.339
-214.97
-168.667
-134.131
-109.053
-89.969
-74.68
-62.84
-54.823
-50.8
-49.831
-50.149
-49.86
-47.757
-43.712
-38.057
-31.283
-24.128
-17.224
-11.24
-6.924
-4.506
-3.84
-4.662
-6.515
-8.948
-11.573
-13.915
-15.52
-16.17
-15.801
-14.46
-12.29
-9.398
-5.881
-1.873
2.484
7.06
11.752
16.477
21.16
25.712
30.036
34.038
37.654
40.859
43.643
46.022
48.024
49.676
51.026
52.128
53.036
53.8
54.472
55.093
55.712
56.379
57.142
58.051
59.142
60.437
61.952
63.695
65.668
67.87
70.294
72.928
75.762
78.785
81.988
85.363
88.898
92.578
96.386
100.306
104.32
108.41
112.558
116.745
120.951
125.158
129.344
133.491
137.578
141.581
145.478
149.245
152.857
156.294
159.531
162.547
165.321
167.833
170.065
172.002
173.627
174.927
175.889
176.503
176.76
176.654
176.178
175.331
174.109
172.514
170.548
168.215
165.522
162.477
159.089
155.37
151.333
146.993
142.366
137.47
132.323
126.947
121.361
115.588
109.651
103.573
97.378
91.09
84.732
78.329
71.905
65.482
59.085
52.734
46.452
40.259
34.176
28.221
22.413
16.769
11.304
6.032
0.968
-3.879
-8.496
-12.875
-17.009
-20.892
-24.519
-27.886
-30.993
-33.839
-36.425
-38.754
-40.83
-42.656
-44.241
-45.59
-46.712
-47.615
-48.31
-48.807
-49.116
-49.249
-49.218
-49.034
-48.71
-48.257
-47.689
-47.017
-46.253
-45.409
-44.497
-43.528
-42.513
-41.462
-40.385
-39.292
-38.19
-37.089
-35.995
-34.915
-33.856
-32.823
-31.82
-30.851
-29.919
-29.028
-28.178
-27.372
-26.609
-25.89
-25.215
-24.583
-23.993
-23.444
-22.933
-22.459
-22.019
-21.611
-21.233
-20.882
-20.556
-20.251
-19.965
-19.695
-19.44
-19.195
-18.96
-18.732
-18.508
-18.288
-18.068
-17.849
-17.629
-17.408
-17.183
-16.957
-16.727
-16.495
-16.26
-16.025
-15.788
-15.552
-15.318
-15.086
-14.858
-14.637
-14.422
-14.216
-14.02
-13.836
-13.665
-13.509
-13.369
-13.247
-13.144
-13.061
-12.999
-12.959
-12.943
-12.952
-12.985
-13.044
-13.13
-13.241
-13.38
-13.545
-13.737
-13.956
-14.2
-14.471
-14.767
-15.088
-15.432
-15.801
-16.191
-16.604
-17.037
-17.49
-17.962
-18.452
-18.959
-19.483
-20.022
-20.576
-21.144
-21.724
-22.317
-22.92
-23.532
-24.153
-24.781
-25.413
-26.05
-26.689
-27.329
-27.968
-28.606
-29.239
-29.866
-30.486
-31.096
-31.694
-32.279
-32.847
-33.396
-33.924
-34.429
-34.907
-35.356
-35.774
-36.156
-36.501
-36.806
-37.067
-37.281
-37.446
-37.56
-37.62
-37.626
-37.574
-37.466
-37.302
-37.081
-36.805
-36.474
-36.091
-35.658
-35.176
-34.649
-34.079
-33.469
-32.821
-32.141
-31.433
-30.703
-29.955
-29.194
-28.428
-27.66
-26.898
-26.148
-25.417
-24.708
-24.026
-23.376
-22.763
-22.196
-21.68
-21.216
-20.802
-20.436
-20.115
-19.837
-19.591
-19.363
-19.137
-18.897
-18.635
-18.346
-18.025
-17.666
-17.256
-16.782
-16.24
-15.632
-14.969
-14.26
-13.511
-12.739
-11.976
-11.276
-10.695
-10.293
-10.112
-10.183
-10.545
-11.222
-12.258
-13.701
-15.586
-17.944
-20.793
-24.125
-27.957
-32.323
-37.151
-42.274
-47.434
-52.252
-56.435
-59.804
-62.13
-63.128
-62.664
-60.825
-58.003
-54.912
-52.16
-49.988
-48.646
-48.551
-49.89
-52.54
-55.565
-57.041
-55.332
-49.463
-39.428
-26.355
-10.771
7.215
28.148
54.432
87.385
127.149
172.955
219.963
262.037
292.728
304.079
290.412
249.294
182.025
94.881
-3.343
-105.256
-207.227
-309.429
-412.147
-510.09
-600.513
-682.166
-733.951
-737.483
-710.698
-675.411
-630.086
-572.24
-506.4
-434.465
-358.445
-283.502
-216.327
-162.447
-123.384
-97.569
-81.214
-69.724
-60.899
-54.232
-49.526
-46.97
-45.627
-43.789
-40.442
-35.123
-27.964
-19.626
-10.941
-2.669
4.439
9.683
12.882
14.209
13.977
12.667
10.754
8.634
6.771
5.626
5.421
6.219
7.979
10.551
13.82
17.692
22.037
26.714
31.599
36.582
41.575
46.511
51.306
55.875
60.136
64.011
67.462
70.476
73.061
75.245
77.06
78.545
79.749
80.73
81.543
82.243
82.878
83.494
84.137
84.854
85.689
86.687
87.878
89.28
90.904
92.756
94.835
97.14
99.665
102.397
105.326
108.441
111.732
115.191
118.806
122.561
126.44
130.425
134.499
138.645
142.845
147.078
151.324
155.564
159.777
163.943
168.04
172.045
175.934
179.684
183.271
186.673
189.867
192.832
195.547
197.993
200.153
202.01
203.55
204.76
205.629
206.145
206.301
206.092
205.511
204.558
203.229
201.528
199.456
197.018
194.222
191.075
187.588
183.773
179.642
175.212
170.498
165.519
160.293
154.84
149.182
143.34
137.337
131.195
124.938
118.59
112.174
105.714
99.232
92.751
86.293
79.88
73.533
67.272
61.116
55.083
49.19
43.453
37.888
32.508
27.326
22.352
17.595
13.065
8.768
4.71
0.894
-2.677
-6.002
-9.081
-11.915
-14.508
-16.863
-18.985
-20.882
-22.559
-24.026
-25.29
-26.361
-27.25
-27.967
-28.523
-28.93
-29.197
-29.339
-29.365
-29.288
-29.119
-28.87
-28.551
-28.174
-27.748
-27.285
-26.794
-26.283
-25.761
-25.237
-24.717
-24.208
-23.717
-23.249
-22.808
-22.399
-22.025
-21.688
-21.392
-21.136
-20.923
-20.752
-20.623
-20.536
-20.491
-20.484
-20.515
-20.582
-20.683
-20.815
-20.975
-21.161
-21.369
-21.598
-21.844
-22.105
-22.376
-22.657
-22.943
-23.232
-23.522
-23.811
-24.096
-24.374
-24.645
-24.907
-25.157
-25.396
-25.622
-25.835
-26.033
-26.216
-26.386
-26.541
-26.681
-26.808
-26.922
-27.024
-27.114
-27.193
-27.263
-27.324
-27.378
-27.425
-27.467
-27.505
-27.54
-27.573
-27.606
-27.639
-27.673
-27.71
-27.75
-27.794
-27.844
-27.9
-27.963
-28.033
-28.112
-28.199
-28.295
-28.401
-28.517
-28.642
-28.777
-28.922
-29.077
-29.241
-29.415
-29.598
-29.791
-29.992
-30.202
-30.42
-30.647
-30.881
-31.123
-31.372
-31.629
-31.892
-32.162
-32.439
-32.721
-33.01
-33.303
-33.602
-33.904
-34.21
-34.518
-34.826
-35.135
-35.442
-35.746
-36.045
-36.338
-36.624
-36.9
-37.165
-37.416
-37.652
-37.871
-38.07
-38.247
-38.399
-38.523
-38.617
-38.678
-38.703
-38.689
-38.633
-38.531
-38.382
-38.18
-37.925
-37.613
-37.241
-36.807
-36.31
-35.748
-35.12
-34.428
-33.67
-32.85
-31.968
-31.027
-30.029
-28.978
-27.876
-26.727
-25.535
-24.304
-23.037
-21.741
-20.42
-19.08
-17.729
-16.373
-15.018
-13.67
-12.338
-11.028
-9.748
-8.502
-7.295
-6.131
-5.019
-3.966
-2.979
-2.056
-1.197
-0.399
0.341
1.027
1.67
2.285
2.889
3.499
4.125
4.77
5.442
6.148
6.901
7.717
8.599
9.542
10.535
11.571
12.64
13.728
14.799
15.797
16.668
17.353
17.812
18.012
17.914
17.487
16.687
15.465
13.792
11.64
8.996
5.868
2.241
-1.913
-6.52
-11.414
-16.347
-20.966
-24.988
-28.234
-30.464
-31.39
-30.857
-28.94
-25.997
-22.692
-19.61
-16.997
-15.11
-14.38
-15.035
-16.991
-19.437
-20.638
-19.022
-13.617
-4.262
8.181
23.154
40.371
60.055
84.277
114.551
151.367
194.438
239.249
279.551
309.293
320.772
308.699
270.97
207.404
122.864
24.891
-80.14
-187.237
-295.231
-403.565
-506.081
-600.109
-683.995
-737.028
-741.893
-715.48
-678.774
-631.387
-571.514
-503.63
-430.153
-353.4
-278.939
-213.688
-161.936
-124.064
-97.244
-77.169
-61.146
-48.907
-41.973
-40.685
-42.895
-45.436
-44.401
-38.395
-29.179
-18.682
-9.115
-1.567
4.663
9.744
13.54
16.001
16.738
15.823
13.766
11.041
8.153
5.602
3.793
2.944
3.136
4.329
6.372
9.155
12.588
16.545
20.895
25.511
30.272
35.084
39.872
44.548
49.017
53.191
56.984
60.352
63.279
65.771
67.854
69.56
70.926
72.004
72.85
73.522
74.076
74.563
75.027
75.518
76.083
76.77
77.624
78.675
79.943
81.439
83.165
85.124
87.313
89.724
92.343
95.16
98.164
101.345
104.693
108.198
111.843
115.612
119.487
123.453
127.491
131.585
135.715
139.862
144.007
148.131
152.214
156.236
160.174
164.006
167.709
171.261
174.64
177.825
180.796
183.532
186.015
188.23
190.161
191.794
193.116
194.118
194.789
195.123
195.114
194.756
194.049
192.991
191.584
189.829
187.734
185.302
182.544
179.468
176.086
172.411
168.458
164.241
159.779
155.088
150.189
145.101
139.846
134.443
128.916
123.287
117.577
111.809
106.005
100.187
94.375
88.591
82.855
77.185
71.602
66.121
60.761
55.536
50.461
45.55
40.815
36.267
31.916
27.769
23.834
20.117
16.622
13.352
10.308
7.49
4.898
2.53
0.381
-1.552
-3.276
-4.796
-6.122
-7.26
-8.22
-9.011
-9.644
-10.129
-10.477
-10.698
-10.804
-10.805
-10.714
-10.54
-10.295
-9.989
-9.631
-9.233
-8.802
-8.348
-7.88
-7.404
-6.929
-6.461
-6.006
-5.568
-5.154
-4.767
-4.41
-4.087
-3.799
-3.549
-3.336
-3.162
-3.027
-2.93
-2.87
-2.847
-2.858
-2.902
-2.976
-3.079
-3.208
-3.36
-3.533
-3.725
-3.932
-4.152
-4.384
-4.624
-4.87
-5.121
-5.373
-5.627
-5.879
-6.13
-6.376
-6.618
-6.855
-7.085
-7.309
-7.527
-7.737
-7.94
-8.137
-8.327
-8.51
-8.688
-8.86
-9.028
-9.191
-9.352
-9.51
-9.666
-9.821
-9.976
-10.131
-10.288
-10.445
-10.605
-10.767
-10.933
-11.102
-11.274
-11.451
-11.631
-11.816
-12.006
-12.199
-12.396
-12.598
-12.803
-13.011
-13.224
-13.44
-13.659
-13.882
-14.109
-14.34
-14.575
-14.814
-15.057
-15.306
-15.561
-15.821
-16.089
-16.364
-16.648
-16.942
-17.245
-17.56
-17.886
-18.224
-18.574
-18.938
-19.314
-19.703
-20.106
-20.521
-20.95
-21.391
-21.845
-22.311
-22.788
-23.276
-23.774
-24.279
-24.79
-25.307
-25.825
-26.344
-26.861
-27.373
-27.878
-28.371
-28.849
-29.309
-29.746
-30.157
-30.537
-30.881
-31.187
-31.45
-31.667
-31.835
-31.952
-32.015
-32.025
-31.981
-31.881
-31.726
-31.514
-31.248
-30.927
-30.552
-30.124
-29.646
-29.118
-28.547
-27.936
-27.29
-26.614
-25.913
-25.193
-24.459
-23.718
-22.976
-22.236
-21.506
-20.793
-20.104
-19.451
-18.841
-18.275
-17.755
-17.279
-16.841
-16.437
-16.056
-15.684
-15.309
-14.922
-14.517
-14.089
-13.635
-13.145
-12.611
-12.023
-11.372
-10.661
-9.896
-9.084
-8.247
-7.409
-6.598
-5.86
-5.235
-4.754
-4.455
-4.372
-4.53
-4.963
-5.702
-6.763
-8.179
-9.976
-12.169
-14.785
-17.82
-21.236
-25.024
-29.174
-33.614
-38.216
-42.761
-46.92
-50.433
-53.123
-54.772
-55.119
-54.012
-51.526
-48.019
-44.155
-40.563
-37.545
-35.372
-34.487
-35.125
-37.179
-39.905
-41.612
-40.649
-36.018
-27.424
-15.498
-0.917
15.985
35.336
58.752
87.818
123.189
164.637
208.291
248.534
279.975
295.683
290.408
261.098
205.768
127.54
33.153
-70.792
-178.045
-286.522
-395.941
-500.907
-600.445
-694.728
-760.599
-775.751
-756.908
-725.484
-678.758
-616.195
-544.653
-467.372
-387.7
-309.925
-239.767
-182.693
-139.996
-110.608
-91.344
-77.649
-67.32
-59.859
-54.992
-52.805
-52.166
-51.09
-48.36
-43.453
-36.537
-28.268
-19.467
-10.915
-3.427
2.155
5.534
6.844
6.385
4.655
2.155
-0.698
-3.391
-5.386
-6.407
-6.358
-5.262
-3.273
-0.508
2.944
6.943
11.338
15.995
20.799
25.661
30.518
35.282
39.857
44.153
48.08
51.59
54.668
57.311
59.546
61.4
62.912
64.134
65.123
65.937
66.631
67.256
67.855
68.478
69.172
69.984
70.963
72.14
73.533
75.155
77.009
79.097
81.415
83.954
86.7
89.64
92.762
96.056
99.512
103.116
106.852
110.704
114.652
118.68
122.769
126.902
131.061
135.225
139.375
143.493
147.561
151.557
155.461
159.251
162.904
166.4
169.717
172.836
175.736
178.398
180.807
182.944
184.798
186.354
187.601
188.529
189.129
189.394
189.32
188.901
188.138
187.027
185.573
183.776
181.641
179.176
176.387
173.283
169.876
166.177
162.2
157.958
153.469
148.749
143.815
138.686
133.382
127.922
122.327
116.617
110.814
104.939
99.012
93.055
87.087
81.129
75.201
69.321
63.508
57.779
52.151
46.641
41.263
36.031
30.959
26.059
21.34
16.813
12.487
8.368
4.463
0.776
-2.688
-5.928
-8.942
-11.73
-14.293
-16.633
-18.754
-20.66
-22.356
-23.847
-25.142
-26.247
-27.17
-27.921
-28.509
-28.942
-29.232
-29.388
-29.42
-29.339
-29.155
-28.878
-28.52
-28.088
-27.594
-27.047
-26.456
-25.829
-25.174
-24.501
-23.815
-23.125
-22.435
-21.753
-21.082
-20.429
-19.797
-19.189
-18.61
-18.061
-17.544
-17.061
-16.614
-16.202
-15.825
-15.485
-15.179
-14.908
-14.669
-14.463
-14.287
-14.139
-14.018
-13.922
-13.849
-13.797
-13.763
-13.747
-13.747
-13.76
-13.785
-13.82
-13.865
-13.917
-13.976
-14.04
-14.11
-14.183
-14.26
-14.34
-14.423
-14.508
-14.596
-14.687
-14.781
-14.878
-14.979
-15.085
-15.195
-15.312
-15.435
-15.566
-15.705
-15.853
-16.011
-16.181
-16.363
-16.557
-16.766
-16.989
-17.227
-17.481
-17.751
-18.038
-18.342
-18.662
-19.001
-19.356
-19.73
-20.12
-20.529
-20.954
-21.398
-21.858
-22.335
-22.83
-23.34
-23.867
-24.41
-24.968
-25.542
-26.13
-26.732
-27.349
-27.978
-28.619
-29.272
-29.934
-30.606
-31.285
-31.97
-32.66
-33.352
-34.046
-34.74
-35.431
-36.119
-36.801
-37.476
-38.142
-38.795
-39.435
-40.058
-40.662
-41.245
-41.803
-42.334
-42.836
-43.305
-43.738
-44.132
-44.483
-44.79
-45.048
-45.254
-45.405
-45.5
-45.536
-45.511
-45.425
-45.277
-45.066
-44.796
-44.465
-44.077
-43.631
-43.131
-42.578
-41.975
-41.325
-40.631
-39.894
-39.12
-38.314
-37.482
-36.629
-35.761
-34.883
-34.002
-33.123
-32.255
-31.403
-30.572
-29.766
-28.993
-28.257
-27.571
-26.938
-26.36
-25.836
-25.361
-24.933
-24.544
-24.187
-23.842
-23.496
-23.136
-22.75
-22.337
-21.889
-21.398
-20.857
-20.25
-19.575
-18.836
-18.042
-17.202
-16.333
-15.452
-14.592
-13.811
-13.153
-12.667
-12.404
-12.394
-12.677
-13.291
-14.255
-15.607
-17.375
-19.575
-22.232
-25.356
-28.925
-32.936
-37.386
-42.171
-47.13
-52.013
-56.467
-60.212
-63.052
-64.757
-65.059
-63.839
-61.208
-57.557
-53.568
-49.832
-46.607
-44.185
-43.02
-43.333
-45.009
-47.229
-48.269
-46.623
-41.346
-32.186
-19.925
-5.102
11.956
31.268
54.695
83.774
119.185
160.969
205.246
245.929
276.14
287.3
272.745
229.752
160.06
70.365
-30.024
-133.692
-237.707
-342.542
-448.049
-547.804
-637.956
-717.161
-764.194
-761.212
-727.68
-685.92
-634.24
-569.674
-497.507
-421.924
-345.572
-273.887
-212.714
-164.161
-127.911
-101.566
-81.376
-65.421
-53.26
-45.006
-40.722
-39.256
-38.744
-37.37
-33.995
-28.564
-21.473
-13.288
-4.849
3.129
9.938
14.85
17.688
18.649
18.047
16.361
14.067
11.571
9.344
7.849
7.304
7.764
9.177
11.391
14.289
17.781
21.739
26.027
30.525
35.125
39.74
44.303
48.732
52.942
56.851
60.381
63.492
66.173
68.437
70.314
71.839
73.053
74.007
74.758
75.364
75.88
76.355
76.833
77.36
77.983
78.748
79.698
80.862
82.259
83.898
85.782
87.911
90.282
92.885
95.708
98.737
101.961
105.369
108.952
112.695
116.584
120.6
124.725
128.942
133.231
137.575
141.953
146.345
150.731
155.089
159.4
163.642
167.792
171.826
175.722
179.457
183.007
186.352
189.47
192.34
194.946
197.269
199.295
201.009
202.398
203.451
204.16
204.516
204.514
204.148
203.418
202.321
200.859
199.035
196.853
194.321
191.445
188.238
184.708
180.871
176.741
172.333
167.665
162.756
157.624
152.292
146.779
141.108
135.301
129.382
123.372
117.297
111.177
105.037
98.897
92.782
86.71
80.704
74.784
68.967
63.273
57.719
52.32
47.092
42.049
37.202
32.564
28.144
23.95
19.989
16.268
12.789
9.556
6.57
3.83
1.336
-0.915
-2.928
-4.708
-6.26
-7.592
-8.713
-9.63
-10.355
-10.896
-11.265
-11.473
-11.531
-11.452
-11.248
-10.93
-10.51
-10.001
-9.414
-8.761
-8.053
-7.301
-6.515
-5.706
-4.883
-4.054
-3.228
-2.412
-1.614
-0.839
-0.094
0.619
1.293
1.926
2.515
3.059
3.554
4.002
4.4
4.75
5.051
5.306
5.515
5.681
5.804
5.889
5.937
5.95
5.933
5.888
5.817
5.724
5.612
5.484
5.342
5.19
5.029
4.863
4.693
4.521
4.348
4.177
4.009
3.844
3.683
3.526
3.374
3.226
3.083
2.944
2.809
2.677
2.547
2.417
2.287
2.156
2.021
1.882
1.736
1.583
1.419
1.245
1.057
0.854
0.635
0.398
0.141
-0.136
-0.436
-0.759
-1.106
-1.478
-1.874
-2.294
-2.739
-3.208
-3.7
-4.213
-4.746
-5.298
-5.867
-6.451
-7.048
-7.656
-8.273
-8.895
-9.519
-10.143
-10.763
-11.376
-11.978
-12.564
-13.132
-13.678
-14.196
-14.684
-15.137
-15.551
-15.922
-16.246
-16.519
-16.739
-16.902
-17.006
-17.048
-17.029
-16.947
-16.802
-16.597
-16.331
-16.007
-15.626
-15.191
-14.706
-14.172
-13.594
-12.974
-12.316
-11.625
-10.907
-10.166
-9.411
-8.645
-7.876
-7.11
-6.353
-5.614
-4.899
-4.211
-3.556
-2.938
-2.363
-1.84
-1.373
-0.963
-0.606
-0.299
-0.041
0.175
0.358
0.525
0.693
0.875
1.083
1.317
1.584
1.89
2.246
2.666
3.152
3.696
4.288
4.918
5.58
6.26
6.924
7.518
7.991
8.29
8.38
8.236
7.822
7.112
6.069
4.652
2.836
0.604
-2.053
-5.129
-8.638
-12.608
-16.97
-21.562
-26.148
-30.399
-34.052
-36.944
-38.859
-39.531
-38.832
-36.857
-33.97
-30.827
-28.003
-25.733
-24.26
-23.974
-25.064
-27.445
-30.365
-32.157
-31.264
-26.673
-18.106
-6.439
7.476
23.083
40.283
61.06
87.53
120.924
161.705
206.117
247.64
278.934
291.171
277.86
236.842
170.371
85.254
-9.62
-107.375
-205.786
-304.983
-405.015
-502.519
-588.819
-654.244
-691.607
-699.43
-681.786
-644.616
-594.085
-533.882
-466.712
-396.813
-328.641
-267.207
-215.992
-174.986
-142.267
-115.045
-91.664
-72.099
-57.156
-47.74
-43.036
-41.189
-40.222
-38.161
-34.262
-28.732
-21.835
-14.046
-6.038
1.633
8.284
13.182
16.135
17.291
16.9
15.387
13.19
10.682
8.32
6.575
5.676
5.695
6.609
8.287
10.631
13.565
16.97
20.714
24.681
28.771
32.903
37.019
41.04
44.882
48.46
51.693
54.539
56.982
59.027
60.7
62.03
63.055
63.823
64.389
64.81
65.137
65.418
65.695
66.012
66.416
66.953
67.668
68.594
69.748
71.142
72.781
74.665
76.793
79.155
81.737
84.525
87.509
90.676
94.017
97.517
101.159
104.925
108.796
112.75
116.77
120.836
124.925
129.016
133.087
137.118
141.086
144.97
148.745
152.388
155.873
159.177
162.278
165.152
167.778
170.135
172.205
173.97
175.415
176.525
177.289
177.695
177.734
177.4
176.687
175.591
174.112
172.25
170.007
167.387
164.397
161.045
157.341
153.296
148.924
144.239
139.26
134.002
128.486
122.733
116.763
110.599
104.265
97.785
91.182
84.483
77.711
70.892
64.05
57.211
50.397
43.633
36.94
30.342
23.859
17.511
11.318
5.297
-0.535
-6.162
-11.57
-16.747
-21.68
-26.36
-30.779
-34.929
-38.806
-42.405
-45.723
-48.761
-51.518
-53.997
-56.201
-58.135
-59.805
-61.217
-62.38
-63.303
-63.996
-64.47
-64.736
-64.807
-64.695
-64.412
-63.973
-63.39
-62.676
-61.846
-60.912
-59.888
-58.786
-57.619
-56.4
-55.14
-53.849
-52.54
-51.222
-49.904
-48.596
-47.305
-46.039
-44.804
-43.606
-42.451
-41.343
-40.284
-39.279
-38.33
-37.437
-36.602
-35.826
-35.107
-34.445
-33.838
-33.286
-32.785
-32.334
-31.93
-31.569
-31.249
-30.966
-30.717
-30.499
-30.307
-30.139
-29.992
-29.861
-29.744
-29.637
-29.539
-29.445
-29.354
-29.264
-29.172
-29.077
-28.977
-28.871
-28.759
-28.639
-28.512
-28.377
-28.234
-28.085
-27.928
-27.766
-27.599
-27.429
-27.256
-27.083
-26.911
-26.742
-26.577
-26.42
-26.271
-26.133
-26.008
-25.898
-25.805
-25.73
-25.676
-25.644
-25.637
-25.654
-25.699
-25.771
-25.872
-26.002
-26.16
-26.348
-26.565
-26.81
-27.081
-27.378
-27.7
-28.045
-28.41
-28.794
-29.195
-29.609
-30.035
-30.469
-30.908
-31.348
-31.785
-32.217
-32.639
-33.046
-33.436
-33.803
-34.144
-34.454
-34.728
-34.963
-35.154
-35.298
-35.391
-35.429
-35.41
-35.332
-35.192
-34.992
-34.729
-34.405
-34.021
-33.578
-33.078
-32.523
-31.916
-31.26
-30.557
-29.811
-29.025
-28.205
-27.355
-26.481
-25.59
-24.687
-23.778
-22.869
-21.967
-21.08
-20.215
-19.374
-18.564
-17.788
-17.054
-16.371
-15.743
-15.17
-14.651
-14.184
-13.764
-13.388
-13.047
-12.724
-12.404
-12.072
-11.719
-11.342
-10.935
-10.493
-10.004
-9.453
-8.837
-8.163
-7.439
-6.676
-5.883
-5.073
-4.281
-3.558
-2.959
-2.539
-2.336
-2.377
-2.699
-3.324
-4.294
-5.655
-7.436
-9.665
-12.354
-15.495
-19.106
-23.22
-27.772
-32.603
-37.47
-42.023
-45.982
-49.178
-51.387
-52.331
-51.862
-50.055
-47.277
-44.21
-41.462
-39.29
-37.942
-37.828
-39.168
-41.876
-45.151
-47.218
-46.412
-41.668
-32.734
-20.494
-5.678
11.291
30.482
53.986
83.732
120.637
164.92
212.408
256.472
290.402
305.651
296.071
259.501
196.268
111.846
14.436
-89.533
-195.642
-302.888
-410.477
-511.653
-602.782
-682.303
-730.743
-732.125
-704.562
-669.03
-623.777
-565.883
-499.361
-426.94
-351.91
-280.037
-217.456
-167.452
-129.723
-101.912
-80.597
-63.531
-50.278
-41.101
-36.051
-34.09
-33.375
-31.97
-28.647
-23.289
-16.263
-8.094
0.435
8.641
15.81
21.144
24.39
25.7
25.355
23.822
21.573
19.007
16.609
14.885
14.09
14.305
15.503
17.54
20.307
23.717
27.643
31.942
36.486
41.165
45.894
50.607
55.222
59.647
63.794
67.58
70.958
73.912
76.445
78.583
80.356
81.799
82.961
83.899
84.669
85.323
85.909
86.47
87.051
87.699
88.46
89.379
90.486
91.799
93.329
95.08
97.051
99.24
101.636
104.227
106.998
109.939
113.037
116.285
119.667
123.169
126.773
130.461
134.215
138.018
141.851
145.697
149.535
153.346
157.113
160.816
164.436
167.952
171.343
174.587
177.663
180.552
183.234
185.69
187.902
189.854
191.531
192.92
194.01
194.79
195.251
195.386
195.189
194.656
193.785
192.575
191.027
189.145
186.931
184.393
181.538
178.374
174.913
171.167
167.149
162.874
158.358
153.617
148.67
143.534
138.231
132.779
127.2
121.514
115.743
109.907
104.028
98.127
92.224
86.34
80.494
74.704
68.99
63.368
57.855
52.467
47.219
42.124
37.196
32.444
27.881
23.514
19.352
15.401
11.667
8.154
4.864
1.8
-1.039
-3.654
-6.045
-8.218
-10.174
-11.921
-13.463
-14.808
-15.964
-16.938
-17.74
-18.378
-18.864
-19.208
-19.419
-19.508
-19.486
-19.364
-19.152
-18.862
-18.503
-18.086
-17.621
-17.116
-16.582
-16.027
-15.458
-14.885
-14.313
-13.75
-13.202
-12.673
-12.169
-11.694
-11.251
-10.843
-10.472
-10.14
-9.849
-9.598
-9.389
-9.22
-9.091
-9.0
-8.947
-8.929
-8.943
-8.989
-9.063
-9.162
-9.284
-9.425
-9.583
-9.754
-9.937
-10.127
-10.322
-10.519
-10.715
-10.909
-11.097
-11.279
-11.451
-11.612
-11.761
-11.896
-12.018
-12.124
-12.215
-12.291
-12.352
-12.398
-12.43
-12.448
-12.455
-12.45
-12.435
-12.413
-12.384
-12.35
-12.313
-12.276
-12.241
-12.209
-12.183
-12.165
-12.158
-12.164
-12.185
-12.223
-12.28
-12.359
-12.461
-12.588
-12.742
-12.923
-13.134
-13.375
-13.646
-13.948
-14.281
-14.644
-15.036
-15.456
-15.903
-16.375
-16.871
-17.389
-17.927
-18.481
-19.05
-19.629
-20.217
-20.81
-21.404
-21.995
-22.579
-23.152
-23.711
-24.25
-24.766
-25.253
-25.708
-26.125
-26.501
-26.832
-27.112
-27.339
-27.509
-27.62
-27.669
-27.655
-27.576
-27.434
-27.228
-26.961
-26.633
-26.246
-25.803
-25.307
-24.76
-24.168
-23.531
-22.856
-22.145
-21.406
-20.643
-19.864
-19.073
-18.278
-17.485
-16.701
-15.933
-15.189
-14.472
-13.786
-13.137
-12.531
-11.976
-11.478
-11.036
-10.646
-10.307
-10.015
-9.765
-9.546
-9.342
-9.137
-8.914
-8.664
-8.384
-8.068
-7.71
-7.296
-6.814
-6.261
-5.644
-4.972
-4.257
-3.507
-2.734
-1.976
-1.284
-0.713
-0.317
-0.132
-0.187
-0.517
-1.146
-2.116
-3.47
-5.234
-7.435
-10.082
-13.169
-16.713
-20.748
-25.205
-29.926
-34.666
-39.072
-42.864
-45.871
-47.865
-48.566
-47.828
-45.738
-42.679
-39.356
-36.39
-34.042
-32.57
-32.399
-33.755
-36.541
-39.906
-42.016
-41.212
-36.481
-27.691
-15.784
-1.332
15.456
34.947
59.344
90.183
127.85
171.922
217.811
259.301
290.464
303.674
293.527
257.652
195.504
111.679
13.722
-91.827
-199.743
-308.686
-418.002
-521.273
-615.919
-700.609
-753.86
-757.594
-729.769
-692.378
-644.436
-583.455
-513.903
-438.342
-359.34
-282.891
-216.285
-163.808
-125.886
-99.901
-81.145
-66.377
-54.58
-45.942
-41.061
-39.22
-38.644
-37.413
-34.134
-28.655
-21.451
-13.132
-4.583
3.453
10.274
15.121
17.781
18.451
17.458
15.302
12.479
9.411
6.587
4.501
3.398
3.351
4.324
6.169
8.774
12.048
15.859
20.062
24.528
29.145
33.818
38.477
43.031
47.388
51.456
55.15
58.425
61.262
63.667
65.666
67.288
68.571
69.565
70.327
70.913
71.377
71.769
72.133
72.515
72.963
73.523
74.24
75.143
76.25
77.571
79.109
80.862
82.828
84.997
87.355
89.889
92.588
95.442
98.44
101.571
104.818
108.167
111.598
115.095
118.643
122.223
125.819
129.412
132.983
136.516
139.992
143.393
146.698
149.887
152.939
155.834
158.553
161.075
163.384
165.46
167.289
168.855
170.146
171.15
171.855
172.254
172.337
172.098
171.534
170.64
169.416
167.86
165.976
163.765
161.232
158.385
155.23
151.777
148.037
144.021
139.744
135.219
130.463
125.491
120.322
114.974
109.465
103.815
98.045
92.174
86.222
80.211
74.16
68.089
62.018
55.967
49.953
43.996
38.113
32.321
26.636
21.073
15.648
10.373
5.262
0.325
-4.426
-8.982
-13.334
-17.476
-21.401
-25.105
-28.584
-31.834
-34.855
-37.646
-40.207
-42.541
-44.649
-46.534
-48.202
-49.656
-50.902
-51.946
-52.795
-53.456
-53.935
-54.242
-54.383
-54.367
-54.202
-53.897
-53.459
-52.899
-52.223
-51.44
-50.559
-49.588
-48.535
-47.407
-46.212
-44.957
-43.65
-42.296
-40.902
-39.474
-38.017
-36.537
-35.039
-33.528
-32.007
-30.482
-28.955
-27.43
-25.912
-24.402
-22.904
-21.42
-19.954
-18.507
-17.082
-15.682
-14.307
-12.962
-11.646
-10.362
-9.112
-7.897
-6.718
-5.577
-4.475
-3.412
-2.39
-1.409
-0.47
0.426
1.278
2.087
2.852
3.572
4.248
4.88
5.467
6.01
6.508
6.963
7.374
7.742
8.068
8.351
8.594
8.796
8.96
9.085
9.174
9.227
9.245
9.23
9.182
9.104
8.994
8.856
8.688
8.493
8.271
8.023
7.748
7.449
7.124
6.775
6.402
6.005
5.584
5.139
4.672
4.183
3.672
3.14
2.589
2.019
1.43
0.825
0.205
-0.431
-1.079
-1.74
-2.411
-3.091
-3.778
-4.469
-5.163
-5.856
-6.547
-7.232
-7.909
-8.574
-9.224
-9.855
-10.464
-11.047
-11.6
-12.118
-12.597
-13.034
-13.426
-13.768
-14.058
-14.293
-14.473
-14.595
-14.66
-14.668
-14.618
-14.511
-14.347
-14.129
-13.858
-13.535
-13.162
-12.741
-12.276
-11.772
-11.234
-10.666
-10.074
-9.463
-8.839
-8.209
-7.578
-6.953
-6.339
-5.74
-5.163
-4.615
-4.107
-3.644
-3.226
-2.855
-2.527
-2.238
-1.983
-1.754
-1.533
-1.307
-1.065
-0.794
-0.493
-0.155
0.228
0.664
1.168
1.744
2.386
3.087
3.837
4.618
5.412
6.185
6.883
7.456
7.857
8.033
7.955
7.579
6.868
5.796
4.328
2.432
0.09
-2.721
-6.013
-9.765
-13.974
-18.636
-23.653
-28.867
-34.036
-38.81
-42.903
-46.109
-48.191
-48.868
-47.993
-45.664
-42.251
-38.429
-34.812
-31.69
-29.366
-28.334
-28.872
-30.902
-33.603
-35.196
-34.089
-29.31
-20.712
-9.17
4.878
21.311
40.538
64.797
95.485
132.83
176.265
221.023
260.878
289.958
300.689
287.811
249.136
184.403
98.398
-1.389
-108.684
-218.702
-330.112
-441.638
-546.053
-639.764
-721.087
-769.668
-768.892
-737.481
-697.565
-648.01
-585.99
-515.435
-438.714
-358.747
-281.829
-215.34
-163.51
-126.396
-101.109
-82.961
-68.78
-57.707
-49.991
-46.045
-45.015
-45.061
-44.241
-41.228
-35.907
-28.73
-20.312
-11.573
-3.289
3.809
8.954
11.944
12.98
12.382
10.639
8.248
5.627
3.259
1.626
0.956
1.306
2.629
4.768
7.609
11.059
14.989
19.257
23.744
28.341
32.961
37.538
41.99
46.229
50.172
53.738
56.885
59.602
61.897
63.799
65.343
66.569
67.526
68.273
68.867
69.363
69.811
70.254
70.738
71.312
72.021
72.909
74.009
75.337
76.904
78.713
80.765
83.057
85.579
88.318
91.26
94.394
97.708
101.193
104.835
108.617
112.522
116.531
120.626
124.788
128.998
133.236
137.482
141.714
145.913
150.059
154.129
158.102
161.954
165.662
169.204
172.557
175.7
178.612
181.274
183.666
185.773
187.58
189.072
190.238
191.066
191.549
191.678
191.449
190.857
189.9
188.579
186.894
184.849
182.45
179.702
176.615
173.199
169.465
165.427
161.1
156.499
151.641
146.545
141.231
135.718
130.027
124.181
118.2
112.108
105.927
99.679
93.387
87.074
80.762
74.471
68.223
62.038
55.935
49.934
44.053
38.307
32.713
27.286
22.04
16.986
12.136
7.5
3.087
-1.097
-5.045
-8.754
-12.219
-15.439
-18.414
-21.144
-23.631
-25.878
-27.89
-29.672
-31.23
-32.571
-33.704
-34.637
-35.38
-35.942
-36.335
-36.568
-36.653
-36.602
-36.425
-36.135
-35.743
-35.261
-34.698
-34.068
-33.38
-32.645
-31.873
-31.073
-30.255
-29.427
-28.597
-27.773
-26.96
-26.167
-25.397
-24.657
-23.949
-23.279
-22.648
-22.06
-21.516
-21.018
-20.566
-20.16
-19.801
-19.488
-19.219
-18.993
-18.809
-18.665
-18.558
-18.487
-18.448
-18.439
-18.457
-18.499
-18.563
-18.646
-18.744
-18.855
-18.977
-19.106
-19.241
-19.379
-19.517
-19.654
-19.787
-19.916
-20.038
-20.152
-20.257
-20.352
-20.436
-20.508
-20.569
-20.617
-20.652
-20.675
-20.686
-20.685
-20.672
-20.648
-20.614
-20.57
-20.518
-20.458
-20.391
-20.318
-20.24
-20.159
-20.075
-19.99
-19.904
-19.82
-19.738
-19.659
-19.585
-19.518
-19.457
-19.406
-19.365
-19.334
-19.317
-19.313
-19.325
-19.352
-19.398
-19.462
-19.545
-19.65
-19.775
-19.923
-20.093
-20.285
-20.499
-20.736
-20.994
-21.272
-21.571
-21.89
-22.227
-22.581
-22.951
-23.334
-23.731
-24.137
-24.552
-24.971
-25.394
-25.816
-26.236
-26.649
-27.052
-27.442
-27.816
-28.168
-28.495
-28.793
-29.057
-29.283
-29.468
-29.606
-29.695
-29.732
-29.714
-29.639
-29.505
-29.313
-29.063
-28.754
-28.386
-27.961
-27.48
-26.944
-26.356
-25.717
-25.029
-24.297
-23.525
-22.719
-21.885
-21.028
-20.156
-19.273
-18.388
-17.506
-16.636
-15.782
-14.951
-14.15
-13.39
-12.68
-12.029
-11.439
-10.911
-10.445
-10.035
-9.677
-9.36
-9.07
-8.794
-8.521
-8.243
-7.956
-7.654
-7.327
-6.966
-6.558
-6.095
-5.581
-5.022
-4.425
-3.809
-3.197
-2.619
-2.127
-1.764
-1.568
-1.579
-1.831
-2.356
-3.197
-4.385
-5.939
-7.888
-10.25
-13.038
-16.278
-19.961
-24.054
-28.53
-33.354
-38.436
-43.629
-48.701
-53.323
-57.216
-60.187
-62.021
-62.46
-61.377
-58.87
-55.288
-51.273
-47.409
-43.956
-41.186
-39.56
-39.317
-40.375
-41.992
-42.481
-40.277
-34.452
-24.854
-12.428
2.018
18.096
36.094
58.302
86.758
122.282
164.657
209.391
250.049
280.541
293.276
282.886
247.085
185.395
102.21
4.752
-100.579
-209.112
-318.963
-429.268
-536.374
-632.235
-706.829
-751.87
-764.045
-746.92
-707.466
-652.457
-587.255
-514.072
-435.343
-355.632
-280.04
-214.805
-163.605
-125.941
-99.357
-79.77
-64.243
-52.152
-43.77
-39.376
-38.079
-38.006
-37.154
-34.195
-29.019
-22.073
-13.951
-5.529
2.46
9.301
14.214
16.981
17.799
16.994
15.066
12.515
9.758
7.281
5.572
4.87
5.238
6.633
8.896
11.908
15.572
19.752
24.302
29.091
34.005
38.949
43.85
48.619
53.164
57.4
61.246
64.66
67.629
70.163
72.29
74.045
75.467
76.607
77.523
78.271
78.908
79.484
80.045
80.637
81.307
82.102
83.066
84.226
85.601
87.2
89.025
91.076
93.349
95.836
98.523
101.398
104.449
107.667
111.042
114.561
118.208
121.968
125.822
129.754
133.746
137.782
141.842
145.908
149.961
153.981
157.95
161.848
165.652
169.342
172.894
176.288
179.502
182.516
185.309
187.863
190.16
192.185
193.923
195.36
196.485
197.287
197.758
197.89
197.678
197.118
196.207
194.946
193.335
191.377
189.076
186.44
183.475
180.191
176.599
172.712
168.544
164.108
159.422
154.504
149.37
144.042
138.538
132.879
127.087
121.183
115.188
109.124
103.014
96.878
90.737
84.611
78.522
72.488
66.527
60.659
54.9
49.267
43.774
38.436
33.266
28.276
23.477
18.878
14.488
10.313
6.361
2.634
-0.863
-4.128
-7.161
-9.962
-12.533
-14.877
-16.996
-18.896
-20.583
-22.063
-23.344
-24.432
-25.338
-26.07
-26.637
-27.05
-27.318
-27.451
-27.461
-27.358
-27.151
-26.852
-26.471
-26.017
-25.5
-24.93
-24.316
-23.666
-22.99
-22.293
-21.585
-20.872
-20.16
-19.455
-18.762
-18.088
-17.434
-16.807
-16.208
-15.64
-15.106
-14.607
-14.146
-13.722
-13.336
-12.989
-12.681
-12.411
-12.178
-11.982
-11.821
-11.696
-11.603
-11.542
-11.511
-11.509
-11.535
-11.585
-11.66
-11.757
-11.875
-12.012
-12.166
-12.337
-12.522
-12.721
-12.931
-13.152
-13.382
-13.62
-13.865
-14.117
-14.373
-14.634
-14.898
-15.165
-15.433
-15.703
-15.974
-16.245
-16.516
-16.786
-17.056
-17.325
-17.593
-17.86
-18.125
-18.388
-18.65
-18.91
-19.167
-19.423
-19.677
-19.929
-20.179
-20.427
-20.674
-20.921
-21.167
-21.412
-21.658
-21.905
-22.153
-22.404
-22.657
-22.914
-23.175
-23.442
-23.713
-23.992
-24.276
-24.568
-24.867
-25.173
-25.486
-25.805
-26.13
-26.461
-26.797
-27.137
-27.48
-27.825
-28.171
-28.516
-28.859
-29.198
-29.532
-29.857
-30.172
-30.474
-30.761
-31.029
-31.276
-31.499
-31.694
-31.858
-31.987
-32.078
-32.128
-32.132
-32.087
-31.991
-31.841
-31.634
-31.37
-31.046
-30.663
-30.221
-29.721
-29.163
-28.549
-27.881
-27.16
-26.389
-25.571
-24.707
-23.8
-22.856
-21.878
-20.871
-19.842
-18.796
-17.739
-16.676
-15.612
-14.556
-13.512
-12.487
-11.485
-10.51
-9.572
-8.678
-7.835
-7.045
-6.304
-5.61
-4.958
-4.345
-3.761
-3.19
-2.619
-2.034
-1.425
-0.789
-0.12
0.589
1.35
2.178
3.076
4.04
5.056
6.111
7.192
8.279
9.338
10.315
11.16
11.821
12.257
12.433
12.306
11.839
10.999
9.752
8.066
5.921
3.309
0.223
-3.317
-7.296
-11.712
-16.456
-21.349
-26.145
-30.498
-34.116
-36.823
-38.369
-38.44
-37.008
-34.211
-30.433
-26.476
-22.866
-19.853
-17.922
-17.494
-18.609
-20.888
-23.069
-23.301
-20.3
-13.702
-4.061
7.993
22.088
38.511
59.296
86.172
120.017
161.125
205.815
248.158
282.068
299.462
294.15
263.318
206.095
126.908
33.557
-67.372
-170.619
-274.986
-380.578
-481.653
-576.855
-666.689
-727.975
-738.62
-717.016
-685.532
-640.413
-579.806
-510.292
-435.699
-359.962
-287.988
-225.174
-174.861
-136.634
-108.321
-86.569
-68.922
-54.877
-44.836
-39.091
-36.738
-35.921
-34.592
-31.377
-26.125
-19.234
-11.207
-2.786
5.375
12.584
17.996
21.301
22.634
22.264
20.656
18.279
15.528
12.897
10.918
9.869
9.848
10.84
12.698
15.314
18.604
22.433
26.654
31.136
35.762
40.448
45.127
49.716
54.12
58.247
62.008
65.356
68.274
70.761
72.84
74.541
75.898
76.963
77.793
78.445
78.972
79.423
79.843
80.282
80.791
81.419
82.214
83.209
84.423
85.871
87.559
89.487
91.652
94.044
96.652
99.47
102.494
105.713
109.116
112.681
116.387
120.213
124.138
128.137
132.18
136.245
140.315
144.385
148.449
152.495
156.504
160.446
164.291
168.019
171.617
175.077
178.386
181.529
184.495
187.288
189.92
192.385
194.657
196.687
198.428
199.85
200.937
201.682
202.078
202.106
201.745
200.98
199.806
198.214
196.19
193.702
190.713
187.214
183.229
178.814
174.022
168.889
163.444
157.711
151.721
145.516
139.131
132.592
125.92
119.145
112.308
105.467
98.685
91.999
85.425
78.953
72.582
66.317
60.173
54.159
48.281
42.539
36.948
31.526
26.296
21.272
16.456
11.842
7.42
3.191
-0.835
-4.641
-8.215
-11.551
-14.646
-17.493
-20.086
-22.423
-24.508
-26.353
-27.971
-29.37
-30.56
-31.544
-32.331
-32.93
-33.353
-33.613
-33.72
-33.687
-33.527
-33.254
-32.881
-32.421
-31.885
-31.283
-30.622
-29.912
-29.164
-28.385
-27.583
-26.767
-25.944
-25.122
-24.308
-23.507
-22.726
-21.969
-21.24
-20.542
-19.878
-19.25
-18.661
-18.111
-17.601
-17.133
-16.705
-16.319
-15.973
-15.666
-15.397
-15.166
-14.97
-14.809
-14.679
-14.579
-14.507
-14.461
-14.44
-14.441
-14.463
-14.503
-14.56
-14.633
-14.718
-14.815
-14.922
-15.037
-15.16
-15.287
-15.42
-15.556
-15.694
-15.835
-15.976
-16.119
-16.261
-16.403
-16.545
-16.686
-16.826
-16.966
-17.106
-17.245
-17.385
-17.526
-17.669
-17.814
-17.962
-18.114
-18.272
-18.435
-18.606
-18.786
-18.975
-19.175
-19.387
-19.612
-19.85
-20.103
-20.372
-20.655
-20.955
-21.271
-21.603
-21.952
-22.317
-22.699
-23.097
-23.51
-23.938
-24.38
-24.835
-25.3
-25.776
-26.259
-26.749
-27.242
-27.736
-28.229
-28.718
-29.199
-29.669
-30.125
-30.562
-30.977
-31.365
-31.724
-32.05
-32.339
-32.59
-32.799
-32.967
-33.09
-33.17
-33.206
-33.196
-33.141
-33.042
-32.899
-32.712
-32.483
-32.213
-31.904
-31.561
-31.187
-30.786
-30.362
-29.921
-29.467
-29.005
-28.54
-28.078
-27.622
-27.178
-26.753
-26.353
-25.99
-25.668
-25.391
-25.158
-24.967
-24.813
-24.69
-24.589
-24.496
-24.398
-24.286
-24.15
-23.989
-23.792
-23.554
-23.265
-22.91
-22.482
-21.984
-21.417
-20.796
-20.141
-19.471
-18.818
-18.231
-17.751
-17.419
-17.281
-17.366
-17.709
-18.353
-19.327
-20.663
-22.392
-24.533
-27.109
-30.131
-33.593
-37.465
-41.725
-46.347
-51.231
-56.217
-61.062
-65.44
-69.07
-71.781
-73.333
-73.431
-72.049
-69.316
-65.59
-61.661
-58.057
-54.955
-52.787
-51.968
-52.424
-54.036
-55.911
-55.984
-52.972
-46.044
-34.632
-19.902
-2.978
15.664
35.561
58.171
85.609
118.802
157.486
198.011
234.243
258.956
264.013
243.672
195.711
122.521
31.641
-68.557
-171.718
-275.105
-379.207
-482.732
-580.017
-662.17
-719.34
-745.724
-742.167
-713.341
-666.323
-608.089
-542.842
-474.413
-406.105
-340.579
-281.395
-230.769
-189.437
-156.711
-130.288
-108.684
-91.284
-78.429
-70.733
-67.113
-65.592
-64.084
-60.974
-56.013
-49.604
-42.04
-33.818
-25.6
-18.126
-12.344
-8.735
-7.174
-7.364
-8.881
-11.277
-14.163
-17.036
-19.303
-20.617
-20.867
-20.06
-18.338
-15.819
-12.563
-8.698
-4.375
0.273
5.118
10.061
15.04
19.962
24.725
29.23
33.377
37.109
40.407
43.268
45.714
47.776
49.485
50.89
52.051
53.022
53.86
54.617
55.338
56.071
56.868
57.78
58.856
60.131
61.626
63.353
65.317
67.521
69.962
72.632
75.517
78.606
81.887
85.35
88.986
92.782
96.72
100.785
104.958
109.219
113.552
117.937
122.354
126.785
131.208
135.603
139.952
144.232
148.421
152.495
156.431
160.207
163.799
167.186
170.347
173.262
175.911
178.278
180.348
182.106
183.539
184.636
185.387
185.786
185.824
185.499
184.808
183.749
182.324
180.537
178.392
175.895
173.056
169.883
166.39
162.589
158.495
154.124
149.494
144.622
139.53
134.236
128.763
123.131
117.364
111.483
105.513
99.474
93.391
87.285
81.178
75.092
69.047
63.065
57.164
51.363
45.68
40.132
34.735
29.502
24.448
19.585
14.923
10.472
6.24
2.234
-1.54
-5.078
-8.379
-11.439
-14.259
-16.84
-19.184
-21.294
-23.175
-24.832
-26.272
-27.501
-28.527
-29.359
-30.005
-30.477
-30.783
-30.933
-30.939
-30.811
-30.561
-30.198
-29.735
-29.181
-28.548
-27.846
-27.086
-26.276
-25.426
-24.545
-23.642
-22.725
-21.801
-20.877
-19.959
-19.053
-18.164
-17.297
-16.456
-15.644
-14.864
-14.12
-13.412
-12.742
-12.112
-11.522
-10.972
-10.463
-9.993
-9.563
-9.171
-8.816
-8.496
-8.211
-7.957
-7.733
-7.536
-7.365
-7.218
-7.091
-6.982
-6.89
-6.811
-6.745
-6.688
-6.638
-6.594
-6.554
-6.517
-6.48
-6.442
-6.402
-6.359
-6.311
-6.259
-6.201
-6.137
-6.066
-5.987
-5.9
-5.806
-5.704
-5.594
-5.476
-5.351
-5.219
-5.081
-4.938
-4.79
-4.638
-4.485
-4.33
-4.176
-4.024
-3.874
-3.73
-3.593
-3.463
-3.344
-3.236
-3.141
-3.06
-2.994
-2.945
-2.913
-2.9
-2.904
-2.928
-2.971
-3.033
-3.115
-3.216
-3.336
-3.474
-3.63
-3.803
-3.991
-4.194
-4.41
-4.636
-4.871
-5.112
-5.357
-5.603
-5.847
-6.086
-6.315
-6.533
-6.733
-6.913
-7.069
-7.196
-7.292
-7.352
-7.374
-7.355
-7.293
-7.187
-7.037
-6.842
-6.601
-6.315
-5.985
-5.61
-5.193
-4.734
-4.235
-3.696
-3.121
-2.514
-1.88
-1.223
-0.548
0.139
0.834
1.53
2.222
2.905
3.576
4.227
4.851
5.441
5.988
6.484
6.928
7.32
7.662
7.961
8.223
8.46
8.689
8.92
9.164
9.427
9.714
10.031
10.391
10.804
11.283
11.839
12.469
13.17
13.936
14.744
15.567
16.377
17.123
17.767
18.276
18.617
18.758
18.667
18.299
17.609
16.563
15.133
13.301
11.046
8.343
5.196
1.618
-2.342
-6.63
-11.236
-16.077
-20.989
-25.739
-29.975
-33.385
-35.783
-36.925
-36.496
-34.482
-31.037
-26.559
-21.903
-17.652
-14.107
-11.82
-11.229
-12.326
-14.681
-16.976
-17.292
-14.296
-7.577
2.405
15.116
30.207
47.987
70.412
98.924
134.066
175.752
220.05
261.208
293.481
309.128
302.101
269.248
209.27
126.346
28.14
-78.671
-188.538
-299.875
-412.229
-518.951
-616.985
-704.974
-761.963
-770.656
-748.167
-714.792
-669.826
-611.864
-546.796
-478.268
-407.941
-339.576
-276.412
-220.314
-172.58
-132.287
-98.75
-72.112
-51.76
-38.448
-32.215
-30.462
-30.956
-30.88
-27.533
-21.533
-13.881
-5.435
2.304
9.421
16.058
21.617
25.838
28.32
28.932
28.059
26.152
23.69
21.128
18.902
17.43
16.943
17.499
19.035
21.395
24.455
28.117
32.249
36.713
41.377
46.12
50.85
55.5
59.989
64.229
68.141
71.645
74.703
77.313
79.49
81.267
82.684
83.783
84.618
85.251
85.743
86.149
86.523
86.907
87.349
87.896
88.594
89.488
90.606
91.964
93.571
95.429
97.537
99.891
102.48
105.29
108.305
111.515
114.906
118.467
122.185
126.04
130.016
134.09
138.245
142.461
146.717
150.992
155.266
159.516
163.721
167.861
171.913
175.853
179.659
183.305
186.77
190.03
193.064
195.85
198.369
200.603
202.535
204.15
205.436
206.379
206.97
207.2
207.063
206.554
205.669
204.407
202.769
200.757
198.375
195.631
192.531
189.085
185.305
181.203
176.795
172.096
167.122
161.893
156.428
150.747
144.871
138.823
132.625
126.299
119.87
113.36
106.793
100.192
93.579
86.977
80.407
73.892
67.45
61.101
54.865
48.759
42.799
37.002
31.382
25.951
20.722
15.705
10.91
6.344
2.013
-2.078
-5.924
-9.523
-12.876
-15.98
-18.84
-21.457
-23.835
-25.979
-27.896
-29.592
-31.075
-32.355
-33.44
-34.339
-35.064
-35.625
-36.033
-36.299
-36.435
-36.452
-36.362
-36.175
-35.903
-35.558
-35.149
-34.688
-34.183
-33.645
-33.082
-32.503
-31.916
-31.328
-30.746
-30.177
-29.625
-29.095
-28.593
-28.121
-27.682
-27.28
-26.916
-26.59
-26.305
-26.06
-25.856
-25.691
-25.565
-25.476
-25.423
-25.404
-25.417
-25.46
-25.53
-25.624
-25.74
-25.875
-26.025
-26.19
-26.365
-26.547
-26.735
-26.926
-27.117
-27.306
-27.49
-27.669
-27.839
-28.0
-28.149
-28.287
-28.411
-28.521
-28.617
-28.697
-28.764
-28.815
-28.852
-28.876
-28.887
-28.887
-28.875
-28.855
-28.827
-28.792
-28.753
-28.712
-28.67
-28.63
-28.593
-28.563
-28.541
-28.531
-28.533
-28.551
-28.586
-28.642
-28.721
-28.824
-28.954
-29.113
-29.304
-29.527
-29.784
-30.077
-30.406
-30.772
-31.175
-31.615
-32.092
-32.605
-33.152
-33.734
-34.347
-34.991
-35.663
-36.36
-37.081
-37.82
-38.576
-39.344
-40.12
-40.9
-41.679
-42.453
-43.217
-43.965
-44.693
-45.395
-46.065
-46.698
-47.288
-47.829
-48.315
-48.741
-49.103
-49.395
-49.614
-49.756
-49.818
-49.799
-49.698
-49.514
-49.247
-48.897
-48.465
-47.952
-47.36
-46.691
-45.948
-45.133
-44.25
-43.307
-42.308
-41.26
-40.169
-39.043
-37.887
-36.71
-35.519
-34.32
-33.12
-31.927
-30.749
-29.594
-28.476
-27.4
-26.369
-25.387
-24.451
-23.555
-22.697
-21.866
-21.051
-20.24
-19.423
-18.593
-17.747
-16.877
-15.975
-15.034
-14.038
-12.98
-11.864
-10.691
-9.477
-8.243
-7.006
-5.8
-4.672
-3.665
-2.817
-2.175
-1.77
-1.639
-1.829
-2.371
-3.298
-4.639
-6.417
-8.66
-11.378
-14.569
-18.202
-22.253
-26.708
-31.476
-36.388
-41.193
-45.538
-49.121
-51.757
-53.199
-53.122
-51.493
-48.465
-44.446
-40.285
-36.548
-33.49
-31.613
-31.366
-32.763
-35.385
-37.887
-38.293
-35.265
-28.51
-18.603
-6.083
8.829
26.755
49.825
79.383
115.764
158.532
203.573
245.328
278.515
295.997
292.202
263.943
209.128
130.977
36.593
-67.137
-173.701
-280.895
-388.766
-492.37
-591.388
-686.744
-755.216
-774.37
-760.397
-733.947
-693.04
-637.591
-575.083
-508.781
-439.309
-368.299
-298.828
-235.014
-180.26
-136.43
-103.293
-78.642
-60.287
-46.791
-37.514
-32.143
-29.63
-28.403
-26.755
-23.451
-18.299
-11.572
-3.74
4.395
12.132
18.766
23.532
26.22
27.027
26.258
24.398
21.935
19.281
16.921
15.348
14.797
15.323
16.879
19.305
22.48
26.308
30.646
35.341
40.258
45.27
50.285
55.233
60.026
64.573
68.788
72.591
75.943
78.84
81.292
83.333
84.999
86.333
87.388
88.228
88.913
89.502
90.048
90.595
91.193
91.892
92.737
93.774
95.032
96.526
98.268
100.259
102.497
104.98
107.696
110.631
113.77
117.101
120.613
124.293
128.128
132.099
136.187
140.374
144.639
148.963
153.327
157.709
162.088
166.442
170.75
174.992
179.144
183.182
187.084
190.825
194.382
197.731
200.851
203.721
206.321
208.632
210.637
212.321
213.67
214.673
215.317
215.595
215.499
215.024
214.166
212.923
211.295
209.285
206.896
204.134
201.006
197.522
193.692
189.53
185.049
180.264
175.193
169.855
164.267
158.452
152.429
146.221
139.851
133.341
126.716
119.998
113.212
106.38
99.526
92.673
85.843
79.058
72.34
65.707
59.181
52.78
46.521
40.422
34.498
28.764
23.232
17.915
12.823
7.965
3.35
-1.017
-5.13
-8.985
-12.581
-15.916
-18.99
-21.806
-24.365
-26.673
-28.734
-30.553
-32.138
-33.497
-34.638
-35.57
-36.303
-36.848
-37.215
-37.415
-37.459
-37.36
-37.128
-36.776
-36.315
-35.757
-35.113
-34.395
-33.614
-32.78
-31.904
-30.995
-30.063
-29.117
-28.165
-27.216
-26.276
-25.352
-24.45
-23.576
-22.734
-21.93
-21.166
-20.446
-19.774
-19.15
-18.578
-18.058
-17.591
-17.177
-16.818
-16.512
-16.259
-16.059
-15.909
-15.81
-15.758
-15.753
-15.792
-15.874
-15.996
-16.156
-16.352
-16.58
-16.839
-17.127
-17.44
-17.777
-18.135
-18.512
-18.906
-19.314
-19.735
-20.167
-20.607
-21.054
-21.506
-21.961
-22.418
-22.876
-23.332
-23.786
-24.236
-24.682
-25.122
-25.556
-25.982
-26.401
-26.81
-27.21
-27.601
-27.981
-28.351
-28.711
-29.061
-29.401
-29.73
-30.05
-30.361
-30.662
-30.956
-31.241
-31.519
-31.791
-32.057
-32.317
-32.574
-32.827
-33.078
-33.327
-33.574
-33.821
-34.067
-34.313
-34.559
-34.805
-35.05
-35.295
-35.539
-35.783
-36.025
-36.266
-36.503
-36.737
-36.967
-37.19
-37.406
-37.612
-37.807
-37.988
-38.155
-38.303
-38.432
-38.537
-38.618
-38.67
-38.691
-38.677
-38.627
-38.535
-38.402
-38.223
-37.997
-37.723
-37.4
-37.027
-36.605
-36.135
-35.618
-35.055
-34.446
-33.795
-33.102
-32.37
-31.601
-30.797
-29.962
-29.102
-28.222
-27.328
-26.424
-25.518
-24.613
-23.717
-22.836
-21.974
-21.138
-20.333
-19.564
-18.839
-18.168
-17.557
-17.007
-16.516
-16.082
-15.697
-15.358
-15.052
-14.763
-14.48
-14.19
-13.885
-13.561
-13.209
-12.819
-12.38
-11.878
-11.305
-10.665
-9.963
-9.211
-8.425
-7.624
-6.84
-6.12
-5.505
-5.033
-4.743
-4.671
-4.856
-5.346
-6.179
-7.385
-8.992
-11.024
-13.501
-16.443
-19.854
-23.707
-27.982
-32.671
-37.678
-42.846
-47.939
-52.589
-56.491
-59.462
-61.233
-61.495
-60.225
-57.558
-53.901
-50.111
-46.755
-44.026
-42.361
-42.165
-43.337
-45.69
-48.205
-48.706
-45.836
-38.773
-27.08
-11.891
5.828
25.742
47.634
72.869
102.861
137.757
176.713
215.713
249.313
271.895
276.306
257.715
213.767
144.337
54.848
-47.997
-158.783
-272.443
-386.97
-499.814
-604.184
-692.335
-755.831
-788.488
-791.277
-768.782
-727.189
-673.743
-612.116
-544.076
-472.354
-398.787
-326.74
-261.137
-204.593
-158.852
-123.764
-96.685
-76.17
-61.091
-51.185
-46.884
-46.183
-46.758
-45.986
-41.397
-33.787
-24.336
-14.154
-5.055
2.95
9.81
14.834
18.174
19.703
19.396
17.823
15.435
12.684
10.144
8.286
7.367
7.503
8.666
10.709
13.507
16.969
20.969
25.368
30.044
34.882
39.777
44.653
49.433
54.025
58.345
62.318
65.878
68.998
71.681
73.948
75.833
77.378
78.628
79.636
80.464
81.171
81.813
82.44
83.095
83.825
84.676
85.69
86.907
88.351
90.035
91.964
94.139
96.558
99.214
102.097
105.189
108.477
111.948
115.589
119.388
123.329
127.395
131.567
135.825
140.149
144.521
148.922
153.328
157.721
162.078
166.379
170.604
174.73
178.735
182.596
186.289
189.794
193.088
196.152
198.964
201.508
203.765
205.72
207.361
208.674
209.65
210.278
210.553
210.467
210.019
209.205
208.025
206.48
204.574
202.312
199.701
196.748
193.464
189.861
185.951
181.749
177.272
172.535
167.557
162.357
156.956
151.373
145.63
139.749
133.752
127.662
121.501
115.291
109.055
102.814
96.589
90.401
84.27
78.215
72.256
66.408
60.69
55.116
49.701
44.459
39.402
34.54
29.884
25.442
21.22
17.225
13.46
9.93
6.636
3.579
0.758
-1.829
-4.184
-6.312
-8.218
-9.906
-11.385
-12.661
-13.744
-14.64
-15.361
-15.916
-16.314
-16.566
-16.683
-16.675
-16.553
-16.328
-16.01
-15.609
-15.136
-14.601
-14.013
-13.381
-12.715
-12.022
-11.311
-10.588
-9.861
-9.137
-8.42
-7.717
-7.032
-6.369
-5.732
-5.125
-4.55
-4.009
-3.504
-3.037
-2.608
-2.218
-1.868
-1.557
-1.285
-1.051
-0.855
-0.695
-0.571
-0.48
-0.421
-0.393
-0.394
-0.422
-0.475
-0.552
-0.65
-0.768
-0.904
-1.057
-1.223
-1.403
-1.593
-1.793
-2.0
-2.214
-2.432
-2.654
-2.877
-3.101
-3.323
-3.544
-3.761
-3.974
-4.181
-4.382
-4.576
-4.763
-4.94
-5.109
-5.268
-5.418
-5.558
-5.687
-5.806
-5.915
-6.014
-6.103
-6.183
-6.253
-6.315
-6.369
-6.415
-6.455
-6.49
-6.521
-6.549
-6.575
-6.601
-6.628
-6.659
-6.694
-6.736
-6.787
-6.848
-6.921
-7.008
-7.11
-7.23
-7.368
-7.524
-7.701
-7.898
-8.116
-8.355
-8.616
-8.898
-9.201
-9.525
-9.869
-10.232
-10.612
-11.007
-11.417
-11.839
-12.27
-12.708
-13.15
-13.593
-14.033
-14.468
-14.892
-15.302
-15.694
-16.062
-16.402
-16.709
-16.98
-17.21
-17.395
-17.531
-17.617
-17.65
-17.629
-17.552
-17.42
-17.232
-16.986
-16.685
-16.329
-15.918
-15.453
-14.937
-14.371
-13.761
-13.112
-12.428
-11.716
-10.98
-10.228
-9.464
-8.697
-7.931
-7.172
-6.427
-5.703
-5.01
-4.358
-3.757
-3.207
-2.712
-2.27
-1.876
-1.526
-1.209
-0.909
-0.615
-0.319
-0.014
0.301
0.634
0.992
1.387
1.83
2.327
2.876
3.473
4.11
4.769
5.427
6.05
6.593
7.018
7.291
7.385
7.274
6.919
6.286
5.336
4.037
2.377
0.336
-2.104
-4.959
-8.24
-11.932
-15.989
-20.368
-25.056
-29.982
-35.008
-39.908
-44.352
-48.054
-50.826
-52.459
-52.69
-51.403
-48.715
-45.002
-40.961
-37.221
-34.063
-31.791
-30.875
-31.541
-33.695
-36.528
-38.237
-37.171
-32.319
-23.506
-11.791
1.933
17.187
34.2
55.509
83.372
118.807
161.8
207.5
248.866
279.182
290.023
275.893
235.052
167.436
78.304
-24.951
-136.569
-250.963
-366.207
-479.951
-583.65
-675.238
-754.66
-801.843
-800.214
-767.743
-726.705
-676.352
-614.551
-547.69
-478.307
-406.432
-335.163
-268.741
-210.823
-164.103
-128.753
-102.543
-83.193
-68.946
-59.012
-53.281
-50.795
-49.912
-48.772
-45.901
-40.987
-34.321
-26.375
-17.94
-9.732
-2.511
2.83
5.962
7.017
6.293
4.292
1.525
-1.584
-4.513
-6.708
-7.885
-7.946
-6.923
-4.977
-2.232
1.218
5.231
9.652
14.343
19.181
24.067
28.93
33.675
38.204
42.42
46.235
49.6
52.499
54.94
56.952
58.573
59.844
60.82
61.562
62.131
62.586
62.982
63.365
63.788
64.3
64.953
65.797
66.864
68.174
69.738
71.56
73.638
75.971
78.548
81.353
84.375
87.599
91.016
94.614
98.38
102.296
106.345
110.508
114.764
119.096
123.484
127.907
132.346
136.778
141.184
145.544
149.835
154.033
158.116
162.06
165.84
169.435
172.822
175.98
178.888
181.527
183.881
185.934
187.672
189.082
190.153
190.875
191.242
191.247
190.886
190.156
189.058
187.591
185.76
183.569
181.026
178.137
174.914
171.368
167.513
163.363
158.935
154.245
149.312
144.157
138.798
133.258
127.558
121.72
115.768
109.725
103.612
97.453
91.27
85.085
78.919
72.793
66.728
60.742
54.855
49.083
43.444
37.952
32.624
27.47
22.505
17.738
13.178
8.834
4.712
0.817
-2.846
-6.276
-9.47
-12.43
-15.156
-17.651
-19.918
-21.964
-23.793
-25.413
-26.831
-28.055
-29.096
-29.961
-30.661
-31.207
-31.609
-31.877
-32.024
-32.059
-31.994
-31.84
-31.606
-31.303
-30.942
-30.532
-30.081
-29.6
-29.095
-28.576
-28.048
-27.519
-26.994
-26.479
-25.979
-25.497
-25.038
-24.604
-24.197
-23.819
-23.471
-23.155
-22.869
-22.615
-22.392
-22.199
-22.034
-21.897
-21.786
-21.7
-21.636
-21.594
-21.57
-21.564
-21.573
-21.596
-21.63
-21.675
-21.728
-21.788
-21.854
-21.925
-21.999
-22.076
-22.155
-22.234
-22.315
-22.396
-22.477
-22.558
-22.639
-22.721
-22.803
-22.887
-22.972
-23.059
-23.149
-23.242
-23.338
-23.438
-23.543
-23.653
-23.768
-23.888
-24.014
-24.146
-24.284
-24.428
-24.579
-24.735
-24.897
-25.064
-25.237
-25.414
-25.596
-25.782
-25.972
-26.166
-26.363
-26.564
-26.767
-26.972
-27.18
-27.39
-27.603
-27.817
-28.034
-28.253
-28.474
-28.699
-28.927
-29.159
-29.395
-29.636
-29.882
-30.134
-30.391
-30.654
-30.924
-31.199
-31.48
-31.768
-32.061
-32.361
-32.666
-32.976
-33.291
-33.61
-33.932
-34.256
-34.58
-34.903
-35.223
-35.537
-35.845
-36.144
-36.431
-36.703
-36.957
-37.19
-37.398
-37.579
-37.728
-37.842
-37.918
-37.952
-37.943
-37.887
-37.782
-37.629
-37.426
-37.173
-36.869
-36.516
-36.113
-35.662
-35.163
-34.617
-34.026
-33.392
-32.718
-32.007
-31.264
-30.494
-29.702
-28.893
-28.072
-27.244
-26.416
-25.593
-24.779
-23.981
-23.205
-22.457
-21.748
-21.085
-20.469
-19.9
-19.375
-18.89
-18.438
-18.011
-17.593
-17.173
-16.74
-16.284
-15.803
-15.289
-14.733
-14.127
-13.454
-12.709
-11.896
-11.018
-10.092
-9.138
-8.174
-7.233
-6.366
-5.617
-5.025
-4.636
-4.48
-4.594
-5.026
-5.809
-6.975
-8.553
-10.56
-13.019
-15.937
-19.306
-23.092
-27.259
-31.777
-36.546
-41.395
-46.081
-50.267
-53.654
-56.064
-57.26
-56.94
-55.083
-51.836
-47.578
-43.113
-38.98
-35.427
-32.951
-31.983
-32.543
-34.261
-35.868
-35.447
-31.655
-24.108
-13.478
-0.715
13.519
29.44
49.448
75.952
110.332
152.981
199.679
243.699
278.396
295.493
289.192
257.172
198.977
119.239
25.281
-76.964
-183.03
-291.371
-401.46
-508.651
-604.404
-678.676
-722.863
-734.998
-719.12
-681.815
-630.411
-569.36
-501.322
-429.641
-357.826
-290.776
-232.575
-184.652
-146.645
-116.08
-91.008
-70.74
-55.236
-45.382
-40.589
-39.052
-38.789
-37.532
-34.26
-29.121
-22.414
-14.642
-6.496
1.453
8.472
13.706
16.876
18.11
17.673
16.025
13.633
10.886
8.28
6.341
5.335
5.354
6.381
8.269
10.911
14.222
18.069
22.306
26.804
31.45
36.157
40.862
45.479
49.916
54.083
57.893
61.301
64.288
66.857
69.032
70.845
72.332
73.543
74.537
75.37
76.097
76.767
77.422
78.112
78.882
79.782
80.857
82.14
83.648
85.396
87.387
89.62
92.095
94.802
97.727
100.858
104.182
107.69
111.37
115.21
119.193
123.302
127.518
131.822
136.197
140.622
145.079
149.546
154.004
158.431
162.809
167.114
171.325
175.418
179.37
183.157
186.757
190.147
193.308
196.217
198.857
201.21
203.261
204.995
206.399
207.462
208.175
208.53
208.52
208.141
207.391
206.269
204.776
202.914
200.69
198.108
195.178
191.909
188.313
184.403
180.193
175.701
170.942
165.936
160.701
155.259
149.63
143.837
137.902
131.847
125.696
119.471
113.197
106.894
100.586
94.295
88.041
81.845
75.727
69.706
63.8
58.026
52.399
46.936
41.649
36.551
31.653
26.965
22.496
18.251
14.238
10.46
6.921
3.622
0.564
-2.255
-4.835
-7.182
-9.298
-11.19
-12.863
-14.325
-15.584
-16.649
-17.529
-18.234
-18.773
-19.158
-19.399
-19.507
-19.492
-19.367
-19.142
-18.826
-18.432
-17.969
-17.448
-16.876
-16.265
-15.622
-14.956
-14.275
-13.584
-12.892
-12.204
-11.526
-10.862
-10.216
-9.594
-8.997
-8.428
-7.89
-7.384
-6.911
-6.473
-6.068
-5.698
-5.362
-5.06
-4.79
-4.551
-4.342
-4.162
-4.009
-3.882
-3.778
-3.697
-3.635
-3.592
-3.566
-3.555
-3.558
-3.573
-3.598
-3.633
-3.676
-3.726
-3.782
-3.842
-3.907
-3.975
-4.047
-4.12
-4.196
-4.273
-4.353
-4.433
-4.516
-4.601
-4.687
-4.776
-4.867
-4.961
-5.058
-5.158
-5.263
-5.371
-5.485
-5.604
-5.729
-5.861
-5.999
-6.146
-6.3
-6.464
-6.636
-6.819
-7.012
-7.216
-7.431
-7.659
-7.899
-8.152
-8.417
-8.694
-8.985
-9.287
-9.6
-9.924
-10.258
-10.601
-10.951
-11.308
-11.67
-12.035
-12.403
-12.771
-13.138
-13.501
-13.858
-14.206
-14.544
-14.867
-15.174
-15.462
-15.726
-15.966
-16.176
-16.353
-16.495
-16.597
-16.656
-16.67
-16.634
-16.546
-16.404
-16.206
-15.951
-15.638
-15.267
-14.84
-14.357
-13.82
-13.23
-12.59
-11.901
-11.168
-10.392
-9.576
-8.725
-7.843
-6.935
-6.007
-5.065
-4.116
-3.165
-2.218
-1.282
-0.364
0.529
1.391
2.219
3.005
3.741
4.419
5.032
5.579
6.062
6.483
6.847
7.16
7.431
7.675
7.906
8.138
8.38
8.638
8.917
9.222
9.569
9.969
10.43
10.949
11.513
12.11
12.727
13.345
13.933
14.438
14.812
15.004
14.974
14.69
14.116
13.219
11.969
10.333
8.281
5.791
2.857
-0.53
-4.347
-8.584
-13.244
-18.221
-23.339
-28.349
-32.909
-36.736
-39.665
-41.457
-41.803
-40.672
-38.202
-34.779
-31.202
-27.99
-25.372
-23.801
-23.68
-25.037
-27.514
-29.872
-30.281
-27.484
-21.119
-11.68
0.251
14.379
31.015
51.973
78.743
111.994
151.931
195.247
236.551
270.251
288.716
285.758
258.142
204.544
128.818
38.327
-60.167
-161.437
-263.719
-367.501
-470.642
-566.784
-646.744
-701.016
-724.418
-718.195
-687.381
-639.159
-580.182
-514.387
-445.524
-376.758
-311.033
-252.377
-202.901
-163.223
-132.623
-108.548
-89.31
-74.181
-63.138
-56.462
-53.243
-51.704
-49.87
-46.332
-40.863
-33.833
-25.692
-17.09
-8.636
-1.03
4.831
8.553
10.224
10.1
8.63
6.259
3.361
0.415
-2.032
-3.646
-4.292
-3.96
-2.772
-0.836
1.783
4.97
8.59
12.52
16.649
20.883
25.159
29.406
33.535
37.463
41.108
44.399
47.304
49.814
51.942
53.715
55.166
56.334
57.268
58.027
58.665
59.235
59.783
60.35
60.98
61.718
62.607
63.688
64.987
66.518
68.29
70.304
72.559
75.051
77.769
80.698
83.823
87.132
90.612
94.252
98.036
101.945
105.962
110.065
114.236
118.454
122.699
126.95
131.186
135.384
139.524
143.585
147.545
151.381
155.069
158.587
161.913
165.024
167.9
170.521
172.869
174.925
176.676
178.107
179.206
179.963
180.369
180.418
180.103
179.422
178.373
176.957
175.175
173.033
170.535
167.69
164.507
160.997
157.173
153.05
148.641
143.966
139.042
133.888
128.524
122.972
117.253
111.389
105.404
99.319
93.16
86.947
80.705
74.456
68.222
62.023
55.882
49.818
43.85
37.996
32.274
26.699
21.286
16.048
10.999
6.15
1.509
-2.914
-7.113
-11.082
-14.817
-18.314
-21.573
-24.593
-27.375
-29.922
-32.236
-34.322
-36.186
-37.834
-39.273
-40.511
-41.558
-42.422
-43.113
-43.641
-44.018
-44.253
-44.357
-44.342
-44.217
-43.995
-43.685
-43.297
-42.842
-42.328
-41.766
-41.164
-40.53
-39.872
-39.196
-38.51
-37.82
-37.13
-36.445
-35.77
-35.109
-34.464
-33.838
-33.233
-32.651
-32.092
-31.557
-31.047
-30.561
-30.1
-29.661
-29.245
-28.85
-28.475
-28.117
-27.777
-27.452
-27.14
-26.84
-26.55
-26.269
-25.995
-25.728
-25.465
-25.206
-24.95
-24.696
-24.444
-24.193
-23.942
-23.692
-23.443
-23.194
-22.946
-22.699
-22.453
-22.21
-21.969
-21.731
-21.497
-21.268
-21.044
-20.827
-20.616
-20.414
-20.221
-20.037
-19.865
-19.704
-19.555
-19.42
-19.298
-19.192
-19.1
-19.025
-18.965
-18.923
-18.897
-18.89
-18.9
-18.928
-18.974
-19.039
-19.123
-19.226
-19.348
-19.489
-19.65
-19.831
-20.031
-20.252
-20.493
-20.755
-21.037
-21.339
-21.662
-22.005
-22.367
-22.749
-23.149
-23.567
-24.0
-24.449
-24.912
-25.387
-25.872
-26.367
-26.869
-27.377
-27.888
-28.4
-28.911
-29.418
-29.918
-30.409
-30.887
-31.35
-31.794
-32.215
-32.611
-32.978
-33.311
-33.607
-33.863
-34.074
-34.236
-34.347
-34.403
-34.402
-34.341
-34.218
-34.032
-33.784
-33.473
-33.099
-32.665
-32.171
-31.619
-31.011
-30.35
-29.638
-28.877
-28.073
-27.227
-26.347
-25.436
-24.502
-23.55
-22.586
-21.615
-20.645
-19.682
-18.734
-17.803
-16.898
-16.022
-15.184
-14.392
-13.653
-12.966
-12.332
-11.747
-11.206
-10.705
-10.236
-9.783
-9.333
-8.873
-8.392
-7.888
-7.352
-6.775
-6.151
-5.462
-4.702
-3.875
-2.989
-2.053
-1.088
-0.105
0.868
1.778
2.584
3.238
3.69
3.914
3.873
3.524
2.843
1.786
0.31
-1.603
-3.982
-6.841
-10.16
-13.948
-18.219
-22.882
-27.789
-32.71
-37.295
-41.274
-44.466
-46.63
-47.481
-46.87
-44.87
-41.85
-38.486
-35.377
-32.8
-31.025
-30.5
-31.471
-33.839
-36.778
-38.53
-37.474
-32.606
-23.73
-11.627
3.202
20.534
40.604
65.279
95.836
132.52
174.918
218.877
258.65
288.626
301.323
290.927
254.511
191.246
105.584
5.426
-102.12
-211.479
-321.117
-430.216
-531.852
-624.724
-709.906
-763.768
-765.627
-737.372
-704.755
-664.595
-611.609
-549.993
-481.072
-405.555
-329.27
-259.315
-200.642
-155.718
-122.738
-97.654
-78.004
-62.276
-51.084
-45.743
-44.563
-45.249
-44.894
-40.722
-33.474
-24.376
-14.505
-5.599
2.373
9.383
14.672
18.302
20.113
20.055
18.674
16.402
13.665
11.037
9.03
7.932
7.883
8.88
10.776
13.455
16.828
20.763
25.113
29.746
34.54
39.394
44.236
48.988
53.556
57.857
61.81
65.349
68.444
71.09
73.303
75.113
76.561
77.689
78.552
79.21
79.722
80.143
80.524
80.908
81.342
81.873
82.544
83.396
84.455
85.736
87.248
88.994
90.972
93.18
95.608
98.242
101.071
104.084
107.269
110.617
114.115
117.746
121.494
125.341
129.27
133.264
137.303
141.37
145.444
149.506
153.536
157.514
161.42
165.232
168.927
172.483
175.877
179.09
182.099
184.884
187.428
189.711
191.718
193.434
194.846
195.942
196.711
197.143
197.233
196.973
196.361
195.393
194.069
192.39
190.359
187.98
185.26
182.207
178.83
175.141
171.151
166.875
162.328
157.527
152.489
147.233
141.778
136.144
130.353
124.426
118.384
112.249
106.044
99.79
93.508
87.221
80.948
74.711
68.528
62.42
56.405
50.5
44.721
39.085
33.606
28.298
23.172
18.241
13.513
8.997
4.701
0.63
-3.211
-6.818
-10.19
-13.326
-16.226
-18.892
-21.327
-23.535
-25.52
-27.288
-28.846
-30.202
-31.362
-32.337
-33.135
-33.765
-34.238
-34.563
-34.751
-34.813
-34.758
-34.597
-34.341
-33.999
-33.582
-33.099
-32.559
-31.972
-31.345
-30.687
-30.006
-29.308
-28.599
-27.887
-27.176
-26.47
-25.776
-25.095
-24.432
-23.789
-23.169
-22.573
-22.002
-21.458
-20.942
-20.453
-19.991
-19.557
-19.15
-18.769
-18.413
-18.081
-17.772
-17.486
-17.219
-16.973
-16.744
-16.532
-16.335
-16.154
-15.985
-15.829
-15.684
-15.55
-15.426
-15.31
-15.203
-15.105
-15.014
-14.93
-14.853
-14.784
-14.721
-14.665
-14.616
-14.574
-14.54
-14.512
-14.492
-14.479
-14.475
-14.478
-14.489
-14.509
-14.538
-14.576
-14.624
-14.68
-14.747
-14.823
-14.908
-15.003
-15.108
-15.223
-15.347
-15.481
-15.625
-15.778
-15.941
-16.114
-16.296
-16.487
-16.688
-16.899
-17.12
-17.35
-17.591
-17.842
-18.104
-18.376
-18.659
-18.953
-19.257
-19.571
-19.895
-20.228
-20.569
-20.918
-21.273
-21.633
-21.997
-22.364
-22.732
-23.101
-23.467
-23.831
-24.188
-24.539
-24.879
-25.207
-25.521
-25.817
-26.093
-26.347
-26.574
-26.772
-26.938
-27.068
-27.158
-27.205
-27.205
-27.154
-27.05
-26.889
-26.669
-26.389
-26.047
-25.642
-25.176
-24.648
-24.06
-23.412
-22.707
-21.946
-21.132
-20.267
-19.353
-18.393
-17.392
-16.356
-15.29
-14.2
-13.093
-11.976
-10.855
-9.737
-8.629
-7.538
-6.468
-5.428
-4.425
-3.47
-2.573
-1.742
-0.98
-0.289
0.333
0.891
1.392
1.848
2.276
2.688
3.095
3.504
3.919
4.349
4.806
5.302
5.849
6.458
7.129
7.857
8.64
9.452
10.266
11.051
11.754
12.333
12.754
12.981
12.981
12.717
12.149
11.231
9.932
8.229
6.106
3.545
0.524
-2.951
-6.859
-11.146
-15.751
-20.664
-25.796
-30.976
-35.957
-40.376
-43.917
-46.394
-47.559
-47.093
-44.976
-41.367
-36.685
-31.8
-27.3
-23.476
-20.872
-19.934
-20.662
-22.608
-24.419
-24.178
-20.611
-13.441
-3.152
9.918
25.696
44.799
69.122
99.568
136.14
178.229
221.806
261.722
293.003
308.685
303.343
273.508
216.867
137.015
41.196
-63.048
-168.499
-273.986
-380.206
-482.937
-583.521
-682.378
-753.974
-773.685
-758.695
-733.112
-694.634
-641.392
-580.209
-512.067
-437.073
-359.052
-283.292
-216.459
-162.725
-122.358
-93.451
-72.245
-55.873
-43.415
-34.747
-29.879
-27.892
-27.091
-25.703
-22.513
-17.383
-10.65
-2.85
5.148
12.61
18.838
23.11
25.271
25.551
24.278
21.941
19.04
15.995
13.29
11.402
10.55
10.778
12.032
14.154
17.021
20.537
24.56
28.94
33.542
38.245
42.952
47.596
52.088
56.338
60.26
63.775
66.844
69.463
71.644
73.42
74.826
75.905
76.711
77.306
77.751
78.105
78.419
78.739
79.113
79.591
80.218
81.04
82.085
83.369
84.901
86.685
88.717
90.995
93.507
96.239
99.177
102.308
105.621
109.105
112.745
116.523
120.422
124.422
128.504
132.65
136.839
141.052
145.267
149.465
153.623
157.723
161.743
165.658
169.447
173.086
176.551
179.822
182.877
185.695
188.257
190.546
192.544
194.237
195.613
196.659
197.365
197.723
197.726
197.369
196.648
195.562
194.112
192.298
190.126
187.6
184.728
181.518
177.982
174.132
169.981
165.544
160.837
155.879
150.687
145.281
139.681
133.909
127.987
121.935
115.777
109.536
103.232
96.89
90.53
84.174
77.843
71.558
65.338
59.202
53.168
47.254
41.476
35.849
30.388
25.105
20.013
15.122
10.441
5.978
1.74
-2.268
-6.041
-9.576
-12.873
-15.93
-18.749
-21.333
-23.683
-25.805
-27.704
-29.386
-30.859
-32.129
-33.205
-34.097
-34.813
-35.363
-35.758
-36.008
-36.124
-36.115
-35.993
-35.769
-35.452
-35.053
-34.583
-34.051
-33.467
-32.839
-32.177
-31.49
-30.784
-30.068
-29.348
-28.631
-27.923
-27.228
-26.553
-25.9
-25.275
-24.679
-24.115
-23.586
-23.094
-22.64
-22.224
-21.848
-21.511
-21.214
-20.956
-20.736
-20.555
-20.41
-20.301
-20.226
-20.184
-20.174
-20.193
-20.241
-20.314
-20.413
-20.534
-20.676
-20.837
-21.016
-21.21
-21.418
-21.639
-21.87
-22.11
-22.358
-22.611
-22.87
-23.131
-23.395
-23.66
-23.924
-24.187
-24.447
-24.704
-24.957
-25.205
-25.446
-25.681
-25.908
-26.127
-26.336
-26.537
-26.727
-26.907
-27.076
-27.233
-27.38
-27.515
-27.639
-27.752
-27.852
-27.942
-28.021
-28.089
-28.147
-28.195
-28.234
-28.265
-28.288
-28.304
-28.315
-28.321
-28.323
-28.323
-28.321
-28.319
-28.318
-28.319
-28.324
-28.334
-28.35
-28.373
-28.405
-28.446
-28.497
-28.559
-28.631
-28.715
-28.809
-28.915
-29.03
-29.157
-29.293
-29.438
-29.591
-29.751
-29.918
-30.088
-30.26
-30.433
-30.604
-30.771
-30.931
-31.082
-31.221
-31.344
-31.45
-31.534
-31.594
-31.626
-31.627
-31.593
-31.522
-31.41
-31.255
-31.056
-30.811
-30.518
-30.179
-29.793
-29.361
-28.885
-28.365
-27.803
-27.202
-26.562
-25.887
-25.179
-24.441
-23.677
-22.892
-22.091
-21.279
-20.463
-19.647
-18.837
-18.038
-17.257
-16.5
-15.769
-15.07
-14.406
-13.784
-13.213
-12.696
-12.234
-11.824
-11.46
-11.138
-10.85
-10.586
-10.329
-10.064
-9.778
-9.459
-9.103
-8.703
-8.252
-7.739
-7.15
-6.478
-5.727
-4.907
-4.027
-3.104
-2.155
-1.21
-0.322
0.464
1.101
1.541
1.751
1.69
1.319
0.612
-0.468
-1.957
-3.879
-6.258
-9.105
-12.396
-16.125
-20.302
-24.842
-29.595
-34.317
-38.648
-42.292
-45.052
-46.7
-46.956
-45.698
-43.007
-39.257
-35.198
-31.45
-28.384
-26.395
-25.852
-26.979
-29.458
-32.097
-33.238
-31.403
-26.113
-18.119
-7.89
4.987
21.607
44.258
74.408
111.065
152.463
195.47
235.666
269.655
292.472
297.422
278.942
232.68
159.473
65.988
-39.044
-147.081
-254.912
-362.7
-466.851
-567.177
-669.692
-757.973
-794.695
-779.734
-748.898
-714.236
-666.347
-605.967
-537.753
-462.834
-384.009
-306.771
-237.933
-181.853
-139.296
-108.609
-86.011
-68.56
-55.139
-45.537
-39.931
-37.498
-36.505
-35.062
-31.789
-26.447
-19.377
-11.103
-2.465
5.801
12.95
18.157
21.165
22.141
21.405
19.458
16.806
13.879
11.185
9.248
8.331
8.511
9.748
11.878
14.778
18.353
22.466
26.966
31.72
36.611
41.54
46.435
51.208
55.76
59.999
63.84
67.233
70.165
72.646
74.707
76.384
77.72
78.768
79.589
80.244
80.791
81.283
81.767
82.293
82.91
83.669
84.617
85.787
87.197
88.858
90.773
92.942
95.361
98.02
100.905
104.003
107.3
110.785
114.449
118.278
122.255
126.362
130.58
134.89
139.274
143.712
148.185
152.671
157.149
161.6
166.004
170.337
174.577
178.7
182.683
186.501
190.133
193.557
196.749
199.69
202.361
204.744
206.825
208.587
210.018
211.106
211.841
212.216
212.223
211.858
211.117
210.0
208.506
206.639
204.402
201.802
198.845
195.543
191.905
187.944
183.676
179.114
174.277
169.182
163.849
158.298
152.55
146.627
140.552
134.346
128.034
121.639
115.183
108.69
102.182
95.681
89.211
82.79
76.441
70.182
64.033
58.011
52.134
46.418
40.876
35.522
30.37
25.428
20.707
16.216
11.96
7.945
4.175
0.653
-2.621
-5.646
-8.424
-10.958
-13.251
-15.309
-17.138
-18.744
-20.135
-21.321
-22.31
-23.112
-23.738
-24.198
-24.504
-24.667
-24.698
-24.609
-24.412
-24.118
-23.738
-23.283
-22.765
-22.193
-21.578
-20.929
-20.256
-19.567
-18.871
-18.174
-17.484
-16.807
-16.149
-15.515
-14.909
-14.335
-13.796
-13.295
-12.834
-12.415
-12.038
-11.705
-11.414
-11.167
-10.962
-10.798
-10.673
-10.587
-10.538
-10.524
-10.542
-10.591
-10.668
-10.771
-10.897
-11.045
-11.211
-11.394
-11.592
-11.801
-12.02
-12.247
-12.48
-12.718
-12.957
-13.198
-13.439
-13.677
-13.913
-14.145
-14.372
-14.594
-14.81
-15.019
-15.221
-15.416
-15.604
-15.785
-15.959
-16.126
-16.286
-16.441
-16.589
-16.732
-16.871
-17.005
-17.136
-17.265
-17.391
-17.517
-17.642
-17.768
-17.896
-18.025
-18.159
-18.296
-18.439
-18.589
-18.746
-18.911
-19.086
-19.272
-19.47
-19.68
-19.903
-20.141
-20.394
-20.663
-20.949
-21.252
-21.573
-21.912
-22.268
-22.643
-23.035
-23.444
-23.868
-24.308
-24.76
-25.225
-25.7
-26.184
-26.675
-27.17
-27.668
-28.166
-28.66
-29.149
-29.629
-30.096
-30.548
-30.981
-31.391
-31.774
-32.128
-32.448
-32.73
-32.97
-33.164
-33.309
-33.401
-33.436
-33.411
-33.323
-33.171
-32.952
-32.665
-32.311
-31.889
-31.401
-30.849
-30.234
-29.558
-28.826
-28.039
-27.202
-26.318
-25.391
-24.426
-23.429
-22.405
-21.361
-20.305
-19.244
-18.183
-17.131
-16.094
-15.079
-14.096
-13.148
-12.242
-11.385
-10.584
-9.849
-9.186
-8.597
-8.079
-7.629
-7.243
-6.915
-6.636
-6.39
-6.163
-5.942
-5.715
-5.478
-5.225
-4.948
-4.633
-4.265
-3.838
-3.353
-2.821
-2.255
-1.665
-1.069
-0.499
-0.004
0.367
0.564
0.548
0.286
-0.257
-1.115
-2.318
-3.901
-5.895
-8.322
-11.193
-14.521
-18.285
-22.482
-27.113
-32.071
-37.178
-42.188
-46.741
-50.539
-53.408
-55.094
-55.287
-53.969
-51.274
-47.585
-43.759
-40.37
-37.627
-35.997
-35.9
-37.27
-39.981
-43.005
-44.109
-41.875
-35.295
-24.105
-9.745
6.874
25.252
46.169
72.201
104.936
145.073
189.953
233.233
268.611
288.436
286.357
259.487
206.287
129.944
37.603
-63.964
-168.562
-273.946
-379.951
-481.643
-578.418
-670.822
-736.114
-752.145
-735.331
-706.55
-662.787
-603.16
-534.387
-460.222
-384.131
-310.54
-245.039
-191.569
-150.671
-120.857
-98.617
-81.08
-67.205
-57.074
-51.185
-48.795
-48.052
-46.846
-43.606
-38.073
-30.698
-22.016
-12.798
-3.762
4.345
10.596
14.599
16.465
16.48
15.12
12.861
10.106
7.352
5.15
3.827
3.507
4.188
5.738
8.043
11.026
14.569
18.531
22.789
27.228
31.755
36.303
40.796
45.145
49.267
53.079
56.513
59.538
62.148
64.356
66.191
67.687
68.886
69.838
70.601
71.232
71.785
72.307
72.842
73.435
74.131
74.976
76.009
77.257
78.735
80.452
82.409
84.608
87.044
89.708
92.585
95.664
98.933
102.38
105.995
109.765
113.671
117.697
121.824
126.033
130.306
134.624
138.966
143.312
147.64
151.93
156.161
160.311
164.357
168.275
172.041
175.633
179.029
182.205
185.141
187.817
190.214
192.316
194.107
195.573
196.701
197.48
197.903
197.96
197.647
196.959
195.895
194.454
192.639
190.452
187.9
184.989
181.728
178.129
174.203
169.964
165.429
160.613
155.535
150.214
144.671
138.927
133.004
126.925
120.713
114.392
107.987
101.52
95.016
88.498
81.99
75.514
69.092
62.746
56.496
50.361
44.361
38.514
32.835
27.34
22.042
16.956
12.092
7.459
3.066
-1.079
-4.971
-8.607
-11.983
-15.099
-17.954
-20.55
-22.89
-24.979
-26.822
-28.425
-29.796
-30.943
-31.877
-32.606
-33.142
-33.496
-33.679
-33.705
-33.584
-33.33
-32.956
-32.473
-31.894
-31.231
-30.497
-29.702
-28.858
-27.976
-27.066
-26.138
-25.2
-24.261
-23.329
-22.411
-21.513
-20.641
-19.8
-18.995
-18.228
-17.502
-16.821
-16.184
-15.594
-15.051
-14.554
-14.102
-13.695
-13.332
-13.009
-12.726
-12.479
-12.267
-12.086
-11.934
-11.807
-11.703
-11.619
-11.553
-11.501
-11.462
-11.433
-11.411
-11.396
-11.384
-11.376
-11.368
-11.362
-11.355
-11.347
-11.34
-11.331
-11.323
-11.315
-11.309
-11.306
-11.306
-11.311
-11.324
-11.345
-11.377
-11.421
-11.481
-11.557
-11.652
-11.769
-11.908
-12.073
-12.264
-12.484
-12.734
-13.015
-13.329
-13.677
-14.059
-14.475
-14.927
-15.412
-15.932
-16.485
-17.069
-17.683
-18.325
-18.993
-19.683
-20.395
-21.123
-21.866
-22.619
-23.379
-24.142
-24.903
-25.659
-26.404
-27.135
-27.846
-28.532
-29.19
-29.814
-30.401
-30.944
-31.44
-31.884
-32.273
-32.602
-32.868
-33.068
-33.2
-33.262
-33.251
-33.169
-33.014
-32.788
-32.493
-32.131
-31.705
-31.218
-30.674
-30.076
-29.43
-28.74
-28.011
-27.247
-26.456
-25.642
-24.815
-23.981
-23.147
-22.319
-21.504
-20.71
-19.944
-19.215
-18.525
-17.879
-17.282
-16.739
-16.26
-15.85
-15.505
-15.223
-15.003
-14.838
-14.726
-14.656
-14.61
-14.571
-14.524
-14.455
-14.363
-14.241
-14.077
-13.859
-13.572
-13.208
-12.777
-12.288
-11.742
-11.15
-10.528
-9.906
-9.339
-8.887
-8.594
-8.504
-8.651
-9.062
-9.772
-10.819
-12.242
-14.078
-16.34
-19.04
-22.176
-25.756
-29.809
-34.249
-38.893
-43.483
-47.662
-51.131
-53.735
-55.234
-55.318
-53.981
-51.362
-47.837
-44.251
-41.156
-38.72
-37.38
-37.516
-38.986
-41.62
-44.46
-45.36
-42.922
-36.192
-24.616
-9.38
8.12
27.016
47.227
70.573
99.774
136.574
179.665
224.002
261.869
284.191
283.505
255.873
201.301
124.674
33.719
-64.61
-165.757
-268.588
-373.356
-476.818
-571.604
-647.791
-696.075
-713.419
-702.673
-669.826
-622.225
-564.529
-499.836
-431.943
-364.447
-301.859
-247.615
-202.334
-165.192
-133.988
-107.251
-84.889
-67.361
-55.614
-49.141
-46.217
-44.838
-42.81
-39.115
-33.827
-27.199
-19.64
-11.707
-3.906
3.063
8.32
11.522
12.768
12.297
10.545
7.961
4.916
1.905
-0.513
-2.033
-2.54
-2.029
-0.637
1.533
4.416
7.887
11.8
16.032
20.46
24.992
29.567
34.094
38.475
42.616
46.418
49.826
52.82
55.4
57.585
59.406
60.895
62.099
63.077
63.882
64.57
65.191
65.786
66.403
67.092
67.902
68.882
70.066
71.472
73.113
74.994
77.116
79.475
82.064
84.867
87.871
91.065
94.437
97.979
101.675
105.51
109.466
113.523
117.662
121.866
126.114
130.387
134.664
138.926
143.15
147.319
151.41
155.4
159.266
162.985
166.533
169.889
173.031
175.936
178.586
180.962
183.047
184.826
186.285
187.411
188.194
188.625
188.697
188.404
187.742
186.71
185.307
183.536
181.4
178.906
176.059
172.87
169.35
165.51
161.366
156.932
152.226
147.266
142.071
136.661
131.058
125.284
119.361
113.313
107.163
100.934
94.651
88.336
82.012
75.703
69.43
63.214
57.076
51.035
45.111
39.321
33.682
28.21
22.918
17.821
12.928
8.252
3.8
-0.419
-4.4
-8.138
-11.629
-14.872
-17.867
-20.614
-23.115
-25.374
-27.396
-29.185
-30.749
-32.096
-33.234
-34.172
-34.921
-35.49
-35.891
-36.136
-36.235
-36.201
-36.045
-35.78
-35.417
-34.968
-34.444
-33.857
-33.217
-32.534
-31.819
-31.081
-30.329
-29.57
-28.814
-28.066
-27.333
-26.62
-25.934
-25.278
-24.655
-24.07
-23.523
-23.018
-22.555
-22.135
-21.758
-21.424
-21.132
-20.88
-20.667
-20.492
-20.351
-20.243
-20.165
-20.114
-20.087
-20.082
-20.095
-20.124
-20.165
-20.215
-20.273
-20.335
-20.398
-20.461
-20.522
-20.577
-20.627
-20.668
-20.7
-20.722
-20.733
-20.733
-20.72
-20.695
-20.659
-20.611
-20.552
-20.483
-20.404
-20.316
-20.221
-20.12
-20.014
-19.905
-19.795
-19.685
-19.578
-19.474
-19.377
-19.288
-19.209
-19.141
-19.088
-19.05
-19.03
-19.029
-19.048
-19.09
-19.155
-19.245
-19.36
-19.501
-19.668
-19.862
-20.081
-20.325
-20.593
-20.885
-21.198
-21.532
-21.884
-22.252
-22.636
-23.031
-23.435
-23.845
-24.259
-24.671
-25.079
-25.479
-25.866
-26.237
-26.587
-26.912
-27.207
-27.467
-27.688
-27.865
-27.993
-28.067
-28.083
-28.038
-27.928
-27.749
-27.5
-27.179
-26.785
-26.319
-25.78
-25.17
-24.49
-23.741
-22.926
-22.047
-21.106
-20.107
-19.053
-17.949
-16.8
-15.614
-14.398
-13.158
-11.902
-10.637
-9.369
-8.108
-6.861
-5.634
-4.435
-3.27
-2.15
-1.087
-0.087
0.848
1.715
2.518
3.26
3.947
4.587
5.196
5.786
6.368
6.949
7.534
8.13
8.747
9.394
10.088
10.833
11.625
12.459
13.325
14.205
15.08
15.919
16.673
17.301
17.767
18.029
18.052
17.796
17.21
16.259
14.916
13.155
10.957
8.298
5.161
1.545
-2.518
-7.001
-11.896
-17.112
-22.491
-27.788
-32.639
-36.732
-39.881
-41.827
-42.253
-41.126
-38.593
-35.064
-31.376
-28.071
-25.386
-23.805
-23.763
-25.281
-27.928
-30.322
-30.488
-27.128
-20.043
-9.965
2.454
17.003
34.424
57.082
86.528
123.193
166.558
212.215
254.361
287.633
304.958
301.184
273.263
218.864
141.25
47.24
-55.916
-160.903
-265.957
-371.554
-474.251
-574.817
-672.798
-745.622
-770.916
-762.312
-739.728
-701.257
-647.222
-584.897
-516.601
-444.19
-370.371
-298.885
-234.873
-181.005
-138.3
-106.144
-81.783
-63.298
-49.665
-40.336
-35.141
-32.977
-32.109
-30.765
-27.673
-22.622
-15.908
-8.018
0.233
8.132
14.941
19.857
22.643
23.471
22.638
20.625
17.923
14.947
12.2
10.196
9.185
9.233
10.301
12.231
14.908
18.24
22.088
26.299
30.739
35.287
39.854
44.373
48.76
52.92
56.765
60.211
63.215
65.77
67.884
69.588
70.917
71.912
72.628
73.128
73.474
73.723
73.93
74.139
74.401
74.767
75.286
76.006
76.96
78.164
79.631
81.365
83.365
85.628
88.146
90.901
93.882
97.075
100.469
104.052
107.811
111.726
115.78
119.951
124.221
128.57
132.977
137.42
141.879
146.332
150.756
155.131
159.433
163.639
167.724
171.664
175.434
179.01
182.371
185.494
188.359
190.946
193.237
195.218
196.873
198.191
199.159
199.769
200.013
199.886
199.384
198.504
197.248
195.616
193.613
191.243
188.516
185.439
182.024
178.284
174.231
169.883
165.255
160.366
155.236
149.884
144.331
138.601
132.715
126.696
120.569
114.355
108.08
101.765
95.434
89.109
82.812
76.564
70.387
64.298
58.318
52.464
46.752
41.198
35.817
30.622
25.624
20.834
16.261
11.914
7.797
3.917
0.277
-3.12
-6.275
-9.186
-11.857
-14.289
-16.487
-18.456
-20.203
-21.733
-23.056
-24.181
-25.115
-25.87
-26.456
-26.883
-27.162
-27.305
-27.323
-27.227
-27.029
-26.738
-26.368
-25.927
-25.427
-24.876
-24.286
-23.665
-23.021
-22.362
-21.696
-21.03
-20.37
-19.722
-19.09
-18.479
-17.892
-17.334
-16.805
-16.309
-15.846
-15.417
-15.023
-14.663
-14.337
-14.044
-13.783
-13.552
-13.349
-13.173
-13.021
-12.891
-12.781
-12.688
-12.609
-12.543
-12.487
-12.439
-12.396
-12.356
-12.318
-12.279
-12.238
-12.194
-12.144
-12.089
-12.028
-11.959
-11.883
-11.8
-11.71
-11.612
-11.509
-11.399
-11.285
-11.167
-11.047
-10.926
-10.805
-10.686
-10.572
-10.463
-10.363
-10.272
-10.193
-10.128
-10.078
-10.047
-10.036
-10.047
-10.081
-10.142
-10.23
-10.348
-10.496
-10.676
-10.888
-11.134
-11.413
-11.725
-12.07
-12.447
-12.855
-13.293
-13.76
-14.254
-14.773
-15.314
-15.876
-16.456
-17.05
-17.654
-18.267
-18.882
-19.498
-20.108
-20.71
-21.298
-21.868
-22.415
-22.934
-23.42
-23.867
-24.27
-24.625
-24.925
-25.167
-25.347
-25.461
-25.507
-25.481
-25.383
-25.213
-24.97
-24.655
-24.268
-23.811
-23.285
-22.693
-22.037
-21.319
-20.543
-19.713
-18.836
-17.918
-16.966
-15.986
-14.986
-13.972
-12.952
-11.934
-10.924
-9.929
-8.958
-8.018
-7.118
-6.272
-5.486
-4.763
-4.106
-3.511
-2.973
-2.488
-2.047
-1.634
-1.238
-0.849
-0.46
-0.067
0.338
0.762
1.213
1.708
2.254
2.847
3.483
4.148
4.82
5.479
6.094
6.614
6.997
7.203
7.19
6.927
6.38
5.505
4.274
2.656
0.625
-1.839
-4.756
-8.14
-11.986
-16.263
-20.949
-26.025
-31.396
-36.894
-42.266
-47.149
-51.23
-54.32
-56.163
-56.441
-55.136
-52.407
-48.668
-44.825
-41.508
-38.942
-37.622
-38.006
-40.014
-43.473
-47.284
-49.082
-47.373
-41.164
-30.193
-15.868
0.96
19.928
41.842
69.154
103.164
144.099
189.015
231.373
265.113
283.603
281.075
255.154
204.128
129.216
36.283
-68.883
-180.627
-294.639
-409.209
-518.567
-620.349
-715.286
-782.657
-801.866
-789.122
-764.135
-724.112
-668.875
-604.684
-534.019
-459.575
-384.557
-313.054
-250.092
-197.735
-156.399
-125.167
-101.292
-83.06
-69.701
-60.738
-55.862
-53.87
-53.014
-51.568
-48.375
-43.298
-36.629
-28.86
-20.814
-13.192
-6.704
-2.113
0.394
1.019
0.07
-1.967
-4.599
-7.417
-9.929
-11.641
-12.324
-11.923
-10.487
-8.177
-5.114
-1.393
2.843
7.44
12.262
17.187
22.12
26.994
31.723
36.215
40.387
44.157
47.488
50.376
52.833
54.892
56.592
57.973
59.092
60.013
60.797
61.503
62.184
62.886
63.657
64.547
65.602
66.869
68.375
70.136
72.163
74.457
77.015
79.834
82.902
86.202
89.721
93.444
97.358
101.451
105.706
110.104
114.626
119.25
123.955
128.721
133.525
138.346
143.16
147.945
152.678
157.337
161.898
166.335
170.625
174.741
178.66
182.359
185.813
189.002
191.904
194.502
196.777
198.716
200.303
201.528
202.379
202.849
202.931
202.62
201.915
200.814
199.318
197.432
195.161
192.511
189.493
186.116
182.394
178.341
173.974
169.309
164.364
159.162
153.721
148.064
142.215
136.195
130.031
123.745
117.362
110.907
104.404
97.878
91.352
84.849
78.391
72.0
65.698
59.503
53.436
47.513
41.751
36.167
30.773
25.583
20.609
15.859
11.343
7.068
3.039
-0.74
-4.265
-7.536
-10.552
-13.315
-15.828
-18.093
-20.117
-21.905
-23.464
-24.802
-25.928
-26.85
-27.578
-28.124
-28.497
-28.709
-28.771
-28.694
-28.491
-28.171
-27.748
-27.232
-26.634
-25.965
-25.234
-24.453
-23.63
-22.775
-21.895
-20.999
-20.095
-19.188
-18.285
-17.392
-16.513
-15.653
-14.815
-14.003
-13.219
-12.466
-11.745
-11.057
-10.404
-9.785
-9.201
-8.651
-8.136
-7.653
-7.203
-6.783
-6.393
-6.03
-5.694
-5.383
-5.095
-4.828
-4.58
-4.351
-4.138
-3.939
-3.754
-3.58
-3.418
-3.265
-3.12
-2.983
-2.853
-2.73
-2.613
-2.502
-2.396
-2.295
-2.2
-2.11
-2.025
-1.945
-1.871
-1.804
-1.742
-1.688
-1.641
-1.601
-1.571
-1.55
-1.538
-1.538
-1.548
-1.571
-1.607
-1.657
-1.722
-1.802
-1.898
-2.01
-2.14
-2.287
-2.452
-2.634
-2.833
-3.048
-3.279
-3.524
-3.784
-4.057
-4.342
-4.638
-4.942
-5.255
-5.573
-5.895
-6.218
-6.54
-6.859
-7.172
-7.476
-7.768
-8.045
-8.304
-8.541
-8.753
-8.937
-9.087
-9.202
-9.275
-9.305
-9.288
-9.22
-9.1
-8.924
-8.693
-8.404
-8.059
-7.657
-7.2
-6.687
-6.121
-5.502
-4.834
-4.118
-3.356
-2.553
-1.711
-0.836
0.066
0.988
1.926
2.872
3.82
4.764
5.696
6.61
7.501
8.361
9.184
9.961
10.682
11.338
11.93
12.454
12.914
13.315
13.66
13.961
14.231
14.486
14.734
14.985
15.244
15.517
15.815
16.149
16.53
16.969
17.462
18.004
18.588
19.196
19.808
20.393
20.902
21.29
21.519
21.547
21.334
20.843
20.028
18.849
17.284
15.3
12.874
9.985
6.606
2.744
-1.573
-6.318
-11.466
-16.932
-22.563
-28.108
-33.232
-37.646
-41.141
-43.49
-44.406
-43.728
-41.568
-38.311
-34.599
-31.012
-27.858
-25.452
-24.312
-24.806
-26.598
-28.568
-29.204
-27.016
-21.712
-14.046
-4.235
7.839
22.956
42.859
69.107
102.282
141.984
186.563
231.5
270.93
298.653
306.932
290.228
246.282
175.842
84.882
-18.627
-127.963
-239.722
-352.731
-463.181
-571.429
-677.267
-757.532
-789.176
-785.602
-766.939
-732.321
-681.81
-622.106
-554.631
-479.825
-401.194
-323.991
-254.86
-198.045
-154.358
-122.339
-98.456
-79.994
-65.932
-56.102
-50.613
-48.521
-47.971
-46.945
-44.006
-38.91
-32.001
-23.813
-15.183
-6.856
0.386
5.652
8.63
9.456
8.435
6.076
2.883
-0.709
-4.183
-6.998
-8.849
-9.624
-9.343
-8.148
-6.161
-3.474
-0.218
3.461
7.429
11.572
15.791
20.009
24.148
28.116
31.826
35.203
38.181
40.732
42.858
44.576
45.922
46.935
47.661
48.152
48.472
48.679
48.828
48.972
49.155
49.427
49.837
50.43
51.245
52.309
53.634
55.229
57.093
59.222
61.609
64.243
67.113
70.211
73.527
77.046
80.749
84.613
88.611
92.719
96.908
101.147
105.41
109.674
113.925
118.163
122.376
126.548
130.656
134.665
138.551
142.3
145.9
149.343
152.621
155.725
158.657
161.436
164.059
166.514
168.764
170.75
172.431
173.781
174.782
175.429
175.709
175.596
175.075
174.132
172.752
170.922
168.612
165.773
162.388
158.465
154.04
149.183
143.949
138.374
132.496
126.348
119.968
113.4
106.68
99.83
92.886
85.887
78.888
71.963
65.161
58.51
52.019
45.672
39.463
33.403
27.493
21.736
16.138
10.701
5.438
0.375
-4.476
-9.107
-13.522
-17.736
-21.754
-25.571
-29.176
-32.553
-35.69
-38.582
-41.222
-43.601
-45.718
-47.572
-49.172
-50.533
-51.667
-52.584
-53.293
-53.8
-54.113
-54.245
-54.209
-54.017
-53.683
-53.221
-52.644
-51.968
-51.207
-50.374
-49.479
-48.53
-47.538
-46.511
-45.459
-44.389
-43.311
-42.231
-41.158
-40.098
-39.058
-38.044
-37.06
-36.11
-35.197
-34.323
-33.49
-32.699
-31.95
-31.244
-30.579
-29.955
-29.37
-28.824
-28.313
-27.835
-27.388
-26.97
-26.577
-26.206
-25.854
-25.519
-25.197
-24.885
-24.582
-24.284
-23.989
-23.694
-23.398
-23.099
-22.794
-22.482
-22.16
-21.829
-21.487
-21.132
-20.766
-20.387
-19.997
-19.595
-19.183
-18.761
-18.33
-17.892
-17.449
-17.001
-16.552
-16.102
-15.656
-15.213
-14.779
-14.353
-13.94
-13.542
-13.162
-12.801
-12.463
-12.149
-11.863
-11.607
-11.382
-11.192
-11.038
-10.921
-10.844
-10.808
-10.813
-10.86
-10.949
-11.08
-11.252
-11.466
-11.719
-12.011
-12.34
-12.704
-13.101
-13.529
-13.984
-14.464
-14.965
-15.484
-16.016
-16.557
-17.102
-17.648
-18.189
-18.72
-19.237
-19.734
-20.206
-20.647
-21.052
-21.415
-21.733
-21.999
-22.211
-22.364
-22.455
-22.482
-22.443
-22.339
-22.167
-21.929
-21.625
-21.255
-20.821
-20.326
-19.77
-19.155
-18.486
-17.765
-16.999
-16.192
-15.351
-14.482
-13.59
-12.682
-11.766
-10.847
-9.934
-9.031
-8.144
-7.28
-6.446
-5.653
-4.908
-4.211
-3.561
-2.957
-2.396
-1.872
-1.376
-0.894
-0.409
0.089
0.612
1.163
1.75
2.38
3.066
3.821
4.649
5.546
6.501
7.504
8.543
9.597
10.634
11.601
12.446
13.122
13.577
13.773
13.667
13.213
12.379
11.126
9.419
7.24
4.57
1.39
-2.28
-6.437
-11.09
-16.126
-21.374
-26.589
-31.395
-35.49
-38.692
-40.723
-41.264
-40.279
-37.881
-34.461
-30.859
-27.61
-24.887
-23.109
-22.675
-23.529
-25.556
-27.758
-27.916
-24.632
-17.036
-4.802
10.564
27.809
46.474
66.502
90.026
119.353
155.389
197.703
241.83
281.164
308.227
314.26
293.589
244.139
168.209
73.64
-31.0
-139.003
-247.517
-356.689
-461.944
-561.13
-660.485
-744.116
-775.686
-757.38
-725.551
-691.394
-644.541
-584.993
-517.507
-443.59
-366.425
-291.422
-224.675
-169.959
-127.394
-95.007
-69.867
-50.039
-35.499
-27.415
-25.46
-27.193
-29.439
-28.352
-22.578
-13.784
-3.685
5.674
13.222
19.637
25.012
29.097
31.806
32.732
31.923
29.891
27.114
24.102
21.382
19.401
18.397
18.46
19.547
21.493
24.176
27.505
31.352
35.581
40.065
44.681
49.332
53.948
58.443
62.724
66.699
70.284
73.431
76.131
78.395
80.255
81.747
82.914
83.807
84.487
85.012
85.44
85.823
86.208
86.646
87.189
87.887
88.788
89.925
91.318
92.976
94.902
97.094
99.546
102.251
105.195
108.37
111.769
115.378
119.184
123.166
127.294
131.541
135.877
140.27
144.69
149.116
153.529
157.922
162.291
166.621
170.896
175.087
179.165
183.114
186.917
190.564
194.054
197.383
200.553
203.58
206.47
209.211
211.778
214.124
216.189
217.935
219.333
220.361
221.008
221.25
221.063
220.433
219.334
217.741
215.624
212.934
209.638
205.734
201.24
196.207
190.707
184.792
178.509
171.904
165.015
157.883
150.554
143.058
135.434
127.727
119.99
112.295
104.708
97.265
89.992
82.889
75.94
69.142
62.496
55.999
49.655
43.473
37.458
31.629
26.005
20.595
15.402
10.415
5.627
1.037
-3.348
-7.514
-11.443
-15.122
-18.541
-21.689
-24.558
-27.15
-29.465
-31.515
-33.313
-34.87
-36.197
-37.301
-38.19
-38.873
-39.365
-39.676
-39.824
-39.821
-39.684
-39.428
-39.069
-38.622
-38.099
-37.512
-36.869
-36.181
-35.458
-34.71
-33.944
-33.172
-32.399
-31.636
-30.89
-30.167
-29.473
-28.813
-28.191
-27.61
-27.072
-26.578
-26.13
-25.728
-25.372
-25.061
-24.793
-24.568
-24.383
-24.235
-24.123
-24.043
-23.992
-23.968
-23.966
-23.984
-24.018
-24.067
-24.125
-24.193
-24.265
-24.341
-24.418
-24.495
-24.568
-24.638
-24.702
-24.76
-24.81
-24.852
-24.886
-24.913
-24.933
-24.946
-24.955
-24.959
-24.961
-24.962
-24.964
-24.969
-24.978
-24.994
-25.019
-25.054
-25.1
-25.16
-25.235
-25.325
-25.432
-25.555
-25.696
-25.853
-26.028
-26.218
-26.425
-26.646
-26.881
-27.127
-27.383
-27.646
-27.915
-28.186
-28.456
-28.721
-28.979
-29.226
-29.458
-29.671
-29.861
-30.023
-30.154
-30.25
-30.306
-30.319
-30.285
-30.202
-30.067
-29.877
-29.633
-29.333
-28.979
-28.571
-28.109
-27.597
-27.035
-26.426
-25.773
-25.08
-24.349
-23.585
-22.791
-21.975
-21.141
-20.296
-19.448
-18.601
-17.763
-16.94
-16.138
-15.366
-14.629
-13.93
-13.276
-12.674
-12.132
-11.656
-11.247
-10.902
-10.617
-10.388
-10.208
-10.068
-9.952
-9.844
-9.729
-9.596
-9.437
-9.247
-9.016
-8.729
-8.371
-7.934
-7.42
-6.839
-6.203
-5.522
-4.812
-4.107
-3.456
-2.91
-2.519
-2.327
-2.366
-2.682
-3.31
-4.287
-5.649
-7.429
-9.653
-12.331
-15.474
-19.061
-23.079
-27.526
-32.293
-37.198
-41.987
-46.307
-49.864
-52.487
-53.934
-53.894
-52.338
-49.406
-45.484
-41.379
-37.609
-34.406
-32.236
-31.495
-32.21
-33.986
-35.525
-34.963
-31.007
-23.345
-12.687
0.201
14.882
31.675
52.777
80.085
114.632
156.716
202.671
246.447
281.068
297.802
289.816
253.969
191.286
107.963
13.036
-86.045
-186.243
-287.842
-392.03
-496.076
-591.059
-666.38
-713.519
-729.845
-720.022
-690.768
-647.704
-595.093
-534.663
-468.575
-401.445
-336.972
-278.085
-226.628
-181.493
-141.797
-107.697
-79.436
-57.992
-43.761
-35.784
-32.096
-30.418
-28.949
-26.415
-22.439
-17.249
-10.923
-3.75
3.616
10.595
16.466
20.51
22.612
22.98
21.885
19.781
17.121
14.283
11.742
9.959
9.14
9.339
10.507
12.493
15.184
18.49
22.279
26.412
30.762
35.214
39.679
44.093
48.375
52.44
56.211
59.61
62.603
65.186
67.374
69.2
70.7
71.917
72.902
73.715
74.413
75.054
75.688
76.358
77.112
77.997
79.055
80.33
81.848
83.625
85.668
87.977
90.547
93.371
96.442
99.744
103.267
106.996
110.909
114.988
119.214
123.563
128.013
132.534
137.096
141.676
146.259
150.831
155.38
159.885
164.315
168.644
172.843
176.89
180.776
184.484
187.988
191.275
194.334
197.158
199.754
202.104
204.169
205.913
207.303
208.317
208.954
209.206
209.062
208.512
207.537
206.131
204.301
202.039
199.333
196.166
192.512
188.383
183.825
178.879
173.584
167.972
162.059
155.873
149.453
142.83
136.037
129.099
122.035
114.879
107.678
100.479
93.336
86.276
79.298
72.408
65.618
58.939
52.392
45.99
39.736
33.641
27.724
22.004
16.502
11.227
6.177
1.351
-3.253
-7.633
-11.771
-15.658
-19.29
-22.661
-25.771
-28.618
-31.197
-33.51
-35.568
-37.381
-38.961
-40.317
-41.457
-42.386
-43.117
-43.66
-44.029
-44.235
-44.291
-44.209
-44.003
-43.686
-43.273
-42.776
-42.205
-41.569
-40.879
-40.144
-39.375
-38.581
-37.768
-36.947
-36.123
-35.305
-34.499
-33.711
-32.946
-32.207
-31.498
-30.822
-30.181
-29.577
-29.011
-28.483
-27.994
-27.543
-27.13
-26.753
-26.411
-26.104
-25.828
-25.582
-25.365
-25.172
-25.004
-24.856
-24.728
-24.617
-24.52
-24.437
-24.365
-24.303
-24.248
-24.201
-24.159
-24.121
-24.085
-24.053
-24.022
-23.993
-23.966
-23.941
-23.918
-23.898
-23.883
-23.871
-23.866
-23.868
-23.878
-23.898
-23.929
-23.973
-24.031
-24.104
-24.194
-24.302
-24.428
-24.573
-24.737
-24.922
-25.125
-25.349
-25.591
-25.851
-26.13
-26.424
-26.734
-27.058
-27.393
-27.739
-28.092
-28.451
-28.811
-29.171
-29.526
-29.874
-30.21
-30.532
-30.834
-31.114
-31.365
-31.585
-31.768
-31.911
-32.01
-32.06
-32.059
-32.003
-31.89
-31.718
-31.487
-31.197
-30.847
-30.438
-29.971
-29.448
-28.869
-28.238
-27.557
-26.828
-26.054
-25.239
-24.389
-23.51
-22.606
-21.685
-20.752
-19.813
-18.875
-17.945
-17.031
-16.137
-15.27
-14.435
-13.64
-12.895
-12.206
-11.575
-11.001
-10.481
-10.011
-9.586
-9.199
-8.832
-8.474
-8.11
-7.729
-7.329
-6.901
-6.437
-5.93
-5.36
-4.722
-4.021
-3.262
-2.458
-1.627
-0.784
0.043
0.801
1.446
1.931
2.203
2.236
1.995
1.439
0.543
-0.737
-2.445
-4.596
-7.218
-10.322
-13.885
-17.914
-22.423
-27.313
-32.431
-37.547
-42.32
-46.478
-49.834
-52.148
-53.133
-52.643
-50.753
-47.804
-44.425
-41.238
-38.553
-36.597
-35.798
-36.396
-38.211
-40.768
-42.669
-41.986
-37.632
-28.666
-15.021
1.66
20.316
40.06
61.414
87.275
119.44
158.548
201.816
242.705
274.751
290.403
283.487
251.091
192.027
110.105
12.753
-93.383
-202.606
-313.31
-425.068
-531.079
-629.123
-718.762
-777.147
-784.858
-760.602
-726.64
-681.831
-624.173
-559.258
-490.227
-417.83
-345.514
-278.169
-219.037
-170.483
-132.595
-103.238
-80.779
-63.669
-51.218
-43.694
-40.173
-39.143
-38.944
-37.632
-34.473
-29.69
-23.532
-16.599
-9.559
-2.917
2.619
6.387
8.246
8.384
7.133
4.991
2.425
-0.166
-2.306
-3.576
-3.782
-2.889
-0.976
1.798
5.296
9.399
13.955
18.806
23.819
28.883
33.906
38.808
43.501
47.889
51.885
55.436
58.521
61.143
63.328
65.11
66.529
67.64
68.504
69.18
69.725
70.192
70.629
71.088
71.623
72.285
73.123
74.171
75.451
76.976
78.752
80.778
83.049
85.556
88.284
91.225
94.376
97.727
101.266
104.975
108.827
112.799
116.865
121.0
125.172
129.357
133.532
137.687
141.82
145.923
149.98
153.969
157.854
161.613
165.232
168.699
172.007
175.15
178.117
180.912
183.554
186.043
188.364
190.484
192.344
193.901
195.131
196.017
196.553
196.727
196.514
195.898
194.868
193.408
191.504
189.13
186.234
182.801
178.841
174.387
169.512
164.27
158.697
152.831
146.706
140.357
133.83
127.16
120.369
113.493
106.568
99.65
92.813
86.104
79.55
73.16
66.915
60.812
54.856
49.052
43.4
37.904
32.567
27.4
22.427
17.661
13.106
8.76
4.605
0.636
-3.143
-6.723
-10.089
-13.228
-16.137
-18.809
-21.237
-23.418
-25.354
-27.052
-28.527
-29.793
-30.859
-31.732
-32.418
-32.927
-33.268
-33.455
-33.5
-33.416
-33.215
-32.91
-32.516
-32.046
-31.511
-30.922
-30.286
-29.612
-28.907
-28.18
-27.439
-26.69
-25.941
-25.197
-24.467
-23.755
-23.066
-22.405
-21.775
-21.178
-20.617
-20.093
-19.608
-19.161
-18.754
-18.386
-18.057
-17.766
-17.511
-17.291
-17.106
-16.952
-16.829
-16.733
-16.664
-16.618
-16.593
-16.589
-16.602
-16.63
-16.672
-16.727
-16.792
-16.867
-16.949
-17.038
-17.133
-17.231
-17.332
-17.435
-17.539
-17.645
-17.751
-17.857
-17.963
-18.071
-18.178
-18.287
-18.398
-18.51
-18.625
-18.743
-18.865
-18.992
-19.125
-19.264
-19.41
-19.566
-19.73
-19.904
-20.088
-20.283
-20.488
-20.705
-20.932
-21.169
-21.416
-21.671
-21.935
-22.206
-22.483
-22.766
-23.051
-23.339
-23.626
-23.912
-24.193
-24.468
-24.735
-24.989
-25.23
-25.453
-25.655
-25.835
-25.988
-26.11
-26.199
-26.25
-26.26
-26.225
-26.143
-26.01
-25.824
-25.582
-25.283
-24.926
-24.51
-24.036
-23.506
-22.918
-22.276
-21.581
-20.835
-20.041
-19.201
-18.319
-17.396
-16.439
-15.452
-14.441
-13.413
-12.372
-11.326
-10.28
-9.242
-8.218
-7.215
-6.237
-5.292
-4.384
-3.521
-2.714
-1.967
-1.283
-0.66
-0.095
0.418
0.883
1.309
1.713
2.108
2.506
2.918
3.346
3.797
4.28
4.803
5.383
6.027
6.729
7.484
8.28
9.096
9.92
10.722
11.451
12.063
12.516
12.758
12.769
12.516
11.959
11.077
9.828
8.172
6.093
3.564
0.574
-2.85
-6.716
-11.036
-15.723
-20.636
-25.551
-30.129
-34.109
-37.313
-39.508
-40.42
-39.883
-37.952
-34.97
-31.591
-28.421
-25.752
-23.845
-23.143
-23.912
-26.086
-28.924
-30.73
-29.866
-25.362
-17.01
-5.559
8.36
24.553
43.361
66.615
95.837
131.449
172.948
216.327
256.117
287.144
302.586
296.994
266.884
210.044
129.696
32.925
-73.382
-182.944
-294.071
-406.531
-513.649
-614.012
-707.787
-770.108
-778.998
-755.013
-723.106
-680.582
-624.423
-560.236
-489.903
-414.841
-339.032
-267.839
-206.642
-157.924
-121.816
-96.367
-77.907
-64.16
-54.191
-47.317
-43.42
-41.383
-39.282
-35.916
-30.669
-23.569
-15.147
-6.095
2.864
10.881
17.003
20.817
22.396
22.021
20.195
17.412
14.084
10.741
7.973
6.134
5.373
5.698
6.966
9.055
11.884
15.323
19.222
23.448
27.875
32.399
36.949
41.443
45.785
49.887
53.659
57.03
59.967
62.466
64.543
66.229
67.564
68.591
69.366
69.95
70.406
70.79
71.154
71.545
72.01
72.599
73.359
74.332
75.547
77.018
78.753
80.754
83.019
85.545
88.32
91.328
94.555
97.987
101.613
105.42
109.392
113.511
117.757
122.109
126.548
131.053
135.603
140.176
144.75
149.302
153.811
158.253
162.607
166.847
170.948
174.887
178.639
182.181
185.49
188.545
191.326
193.813
195.99
197.842
199.354
200.515
201.314
201.743
201.795
201.464
200.748
199.646
198.158
196.286
194.036
191.415
188.429
185.09
181.41
177.401
173.079
168.461
163.564
158.407
153.011
147.396
141.585
135.6
129.466
123.204
116.84
110.398
103.901
97.373
90.838
84.318
77.835
71.411
65.067
58.824
52.699
46.71
40.876
35.212
29.731
24.448
19.374
14.52
9.895
5.507
1.361
-2.536
-6.183
-9.577
-12.717
-15.603
-18.239
-20.627
-22.772
-24.678
-26.354
-27.806
-29.042
-30.072
-30.905
-31.552
-32.023
-32.329
-32.482
-32.494
-32.375
-32.137
-31.793
-31.354
-30.831
-30.235
-29.577
-28.867
-28.116
-27.333
-26.528
-25.707
-24.88
-24.054
-23.236
-22.431
-21.645
-20.883
-20.149
-19.447
-18.779
-18.148
-17.556
-17.005
-16.494
-16.024
-15.595
-15.207
-14.858
-14.548
-14.274
-14.036
-13.831
-13.658
-13.513
-13.395
-13.301
-13.228
-13.175
-13.139
-13.117
-13.107
-13.107
-13.115
-13.129
-13.147
-13.167
-13.187
-13.207
-13.226
-13.241
-13.252
-13.26
-13.262
-13.26
-13.253
-13.242
-13.226
-13.208
-13.186
-13.163
-13.139
-13.116
-13.095
-13.078
-13.067
-13.063
-13.068
-13.084
-13.114
-13.159
-13.221
-13.301
-13.401
-13.523
-13.668
-13.836
-14.029
-14.247
-14.492
-14.763
-15.061
-15.385
-15.736
-16.113
-16.515
-16.942
-17.39
-17.86
-18.348
-18.853
-19.371
-19.9
-20.437
-20.978
-21.519
-22.057
-22.585
-23.101
-23.599
-24.074
-24.52
-24.933
-25.309
-25.644
-25.932
-26.171
-26.358
-26.491
-26.569
-26.588
-26.549
-26.45
-26.29
-26.068
-25.786
-25.442
-25.038
-24.575
-24.056
-23.487
-22.872
-22.214
-21.52
-20.796
-20.046
-19.278
-18.496
-17.705
-16.913
-16.126
-15.355
-14.609
-13.898
-13.224
-12.588
-11.992
-11.431
-10.898
-10.386
-9.878
-9.364
-8.837
-8.293
-7.731
-7.145
-6.528
-5.87
-5.16
-4.394
-3.573
-2.703
-1.79
-0.851
0.087
0.99
1.81
2.51
3.058
3.427
3.59
3.508
3.141
2.448
1.397
-0.028
-1.848
-4.086
-6.769
-9.903
-13.472
-17.423
-21.702
-26.308
-31.179
-36.18
-41.088
-45.553
-49.269
-52.039
-53.646
-53.809
-52.407
-49.522
-45.508
-41.116
-37.001
-33.561
-31.242
-30.459
-31.433
-33.846
-36.505
-37.706
-35.86
-30.449
-22.326
-12.108
0.229
15.546
36.74
65.988
103.331
147.943
195.74
240.873
278.259
301.144
303.328
280.793
230.814
155.743
62.166
-42.65
-151.571
-261.957
-373.185
-480.316
-584.211
-686.416
-762.158
-786.852
-777.278
-755.854
-719.858
-667.846
-606.547
-537.611
-461.665
-382.464
-305.501
-237.529
-182.607
-141.141
-111.295
-89.227
-72.084
-58.932
-49.648
-44.324
-42.063
-41.1
-39.567
-36.17
-30.73
-23.602
-15.33
-6.776
1.313
8.193
13.068
15.713
16.318
15.211
12.902
9.902
6.65
3.658
1.438
0.248
0.158
1.127
2.997
5.645
8.979
12.863
17.15
21.709
26.424
31.197
35.954
40.605
45.051
49.199
52.962
56.291
59.173
61.616
63.65
65.31
66.639
67.687
68.515
69.182
69.746
70.259
70.771
71.331
71.992
72.801
73.808
75.043
76.526
78.268
80.268
82.524
85.031
87.779
90.758
93.958
97.369
100.972
104.75
108.68
112.743
116.914
121.166
125.468
129.797
134.134
138.472
142.805
147.118
151.389
155.591
159.693
163.673
167.52
171.223
174.767
178.137
181.322
184.325
187.154
189.803
192.246
194.434
196.319
197.871
199.074
199.92
200.401
200.501
200.197
199.475
198.327
196.749
194.724
192.221
189.205
185.666
181.629
177.15
172.281
167.061
161.518
155.676
149.57
143.238
136.719
130.039
123.221
116.295
109.302
102.303
95.359
88.512
81.774
75.142
68.612
62.193
55.898
49.74
43.723
37.851
32.136
26.601
21.267
16.148
11.248
6.561
2.078
-2.199
-6.261
-10.091
-13.678
-17.014
-20.097
-22.922
-25.482
-27.776
-29.808
-31.59
-33.137
-34.459
-35.564
-36.459
-37.152
-37.653
-37.977
-38.135
-38.142
-38.009
-37.752
-37.384
-36.92
-36.375
-35.76
-35.084
-34.358
-33.592
-32.795
-31.977
-31.147
-30.313
-29.481
-28.66
-27.858
-27.079
-26.329
-25.611
-24.929
-24.286
-23.684
-23.123
-22.605
-22.13
-21.696
-21.305
-20.953
-20.64
-20.363
-20.121
-19.91
-19.729
-19.574
-19.443
-19.332
-19.238
-19.159
-19.092
-19.034
-18.982
-18.935
-18.889
-18.843
-18.796
-18.745
-18.689
-18.627
-18.558
-18.481
-18.397
-18.304
-18.204
-18.097
-17.983
-17.864
-17.741
-17.614
-17.487
-17.359
-17.232
-17.109
-16.99
-16.879
-16.776
-16.684
-16.604
-16.538
-16.489
-16.457
-16.445
-16.454
-16.486
-16.542
-16.622
-16.729
-16.864
-17.027
-17.218
-17.438
-17.687
-17.965
-18.27
-18.603
-18.961
-19.344
-19.748
-20.174
-20.618
-21.078
-21.551
-22.036
-22.53
-23.028
-23.529
-24.03
-24.525
-25.013
-25.489
-25.95
-26.392
-26.811
-27.204
-27.565
-27.893
-28.181
-28.427
-28.625
-28.773
-28.866
-28.9
-28.874
-28.783
-28.627
-28.404
-28.113
-27.754
-27.329
-26.839
-26.285
-25.669
-24.993
-24.26
-23.474
-22.636
-21.751
-20.822
-19.854
-18.854
-17.827
-16.781
-15.721
-14.655
-13.589
-12.53
-11.485
-10.46
-9.461
-8.495
-7.569
-6.69
-5.871
-5.116
-4.428
-3.806
-3.247
-2.744
-2.292
-1.878
-1.489
-1.112
-0.735
-0.35
0.047
0.463
0.908
1.389
1.924
2.52
3.172
3.879
4.627
5.392
6.159
6.895
7.552
8.088
8.467
8.646
8.596
8.285
7.668
6.718
5.404
3.701
1.588
-0.96
-3.955
-7.392
-11.244
-15.486
-20.106
-25.018
-30.058
-34.975
-39.422
-43.101
-45.837
-47.39
-47.448
-45.979
-43.137
-39.349
-35.474
-32.078
-29.409
-27.936
-28.082
-29.869
-32.911
-35.849
-36.653
-34.017
-27.618
-17.991
-5.834
8.857
26.881
49.911
79.277
114.77
155.371
198.163
238.324
271.607
292.078
292.788
269.189
217.894
140.534
44.85
-61.194
-170.39
-279.703
-389.287
-494.594
-595.246
-691.846
-760.703
-779.158
-764.619
-739.718
-702.227
-650.469
-590.376
-522.984
-448.738
-371.386
-296.11
-229.355
-175.197
-134.078
-104.357
-82.469
-65.595
-52.741
-43.682
-38.393
-35.965
-34.727
-32.918
-29.315
-23.769
-16.615
-8.383
0.064
7.989
14.688
19.414
21.989
22.632
21.66
19.561
16.837
13.909
11.273
9.426
8.6
8.853
10.141
12.31
15.244
18.852
22.996
27.524
32.304
37.214
42.161
47.078
51.874
56.457
60.738
64.631
68.093
71.116
73.709
75.901
77.723
79.215
80.428
81.424
82.26
82.993
83.674
84.348
85.064
85.876
86.829
87.973
89.338
90.939
92.788
94.887
97.233
99.821
102.641
105.681
108.932
112.387
116.033
119.856
123.834
127.939
132.143
136.42
140.734
145.06
149.376
153.665
157.922
162.142
166.314
170.422
174.438
178.336
182.099
185.716
189.174
192.477
195.62
198.608
201.459
204.18
206.759
209.175
211.378
213.313
214.942
216.235
217.174
217.748
217.934
217.708
217.056
215.952
214.373
212.289
209.649
206.421
202.604
198.214
193.304
187.943
182.184
176.072
169.654
162.963
156.043
148.936
141.674
134.291
126.833
119.352
111.918
104.596
97.42
90.415
83.579
76.895
70.36
63.973
57.729
51.634
45.693
39.911
34.308
28.901
23.699
18.702
13.903
9.29
4.866
0.636
-3.387
-7.182
-10.738
-14.045
-17.089
-19.865
-22.372
-24.611
-26.592
-28.328
-29.83
-31.106
-32.164
-33.009
-33.652
-34.104
-34.377
-34.485
-34.443
-34.263
-33.962
-33.555
-33.055
-32.475
-31.825
-31.114
-30.352
-29.549
-28.714
-27.856
-26.985
-26.109
-25.236
-24.375
-23.534
-22.718
-21.932
-21.183
-20.473
-19.805
-19.184
-18.61
-18.085
-17.61
-17.185
-16.81
-16.485
-16.209
-15.981
-15.798
-15.659
-15.562
-15.504
-15.483
-15.495
-15.538
-15.609
-15.705
-15.824
-15.962
-16.117
-16.287
-16.468
-16.658
-16.855
-17.055
-17.257
-17.459
-17.659
-17.855
-18.045
-18.229
-18.406
-18.575
-18.736
-18.889
-19.033
-19.169
-19.297
-19.418
-19.532
-19.642
-19.747
-19.85
-19.952
-20.053
-20.157
-20.265
-20.377
-20.497
-20.626
-20.766
-20.918
-21.084
-21.264
-21.461
-21.675
-21.908
-22.158
-22.427
-22.715
-23.022
-23.348
-23.692
-24.053
-24.431
-24.824
-25.231
-25.65
-26.078
-26.514
-26.954
-27.396
-27.837
-28.273
-28.7
-29.115
-29.514
-29.893
-30.246
-30.571
-30.862
-31.115
-31.326
-31.491
-31.606
-31.668
-31.675
-31.624
-31.515
-31.346
-31.119
-30.832
-30.487
-30.084
-29.624
-29.108
-28.54
-27.919
-27.25
-26.536
-25.782
-24.994
-24.176
-23.336
-22.48
-21.614
-20.743
-19.876
-19.018
-18.175
-17.354
-16.562
-15.807
-15.099
-14.446
-13.849
-13.309
-12.823
-12.384
-11.989
-11.626
-11.281
-10.943
-10.599
-10.243
-9.872
-9.476
-9.049
-8.583
-8.06
-7.474
-6.829
-6.128
-5.386
-4.623
-3.857
-3.119
-2.459
-1.918
-1.534
-1.348
-1.387
-1.685
-2.285
-3.217
-4.511
-6.192
-8.28
-10.794
-13.744
-17.122
-20.896
-25.032
-29.505
-34.219
-39.011
-43.639
-47.772
-51.122
-53.516
-54.726
-54.455
-52.684
-49.565
-45.483
-41.246
-37.394
-34.168
-32.049
-31.453
-32.384
-34.458
-36.406
-36.324
-32.9
-25.762
-15.51
-2.966
11.339
27.632
47.989
74.38
107.87
148.808
193.533
235.975
269.816
286.85
280.774
248.795
190.46
110.713
17.645
-82.166
-183.806
-286.446
-390.312
-489.242
-580.594
-663.732
-718.293
-727.238
-707.565
-678.357
-637.509
-583.327
-521.884
-457.915
-394.261
-333.676
-278.218
-228.392
-183.918
-144.967
-111.909
-85.393
-66.112
-53.975
-47.839
-45.597
-44.776
-43.362
-40.353
-35.641
-29.488
-22.113
-13.891
-5.467
2.308
8.425
12.373
14.22
14.233
12.829
10.44
7.457
4.388
1.826
0.14
-0.532
-0.182
1.06
3.077
5.804
9.127
12.902
17.004
21.314
25.736
30.206
34.65
38.977
43.104
46.943
50.424
53.514
56.208
58.52
60.478
62.115
63.47
64.592
65.538
66.363
67.122
67.862
68.626
69.462
70.418
71.539
72.867
74.43
76.241
78.309
80.632
83.208
86.034
89.101
92.398
95.916
99.641
103.556
107.642
111.872
116.218
120.652
125.139
129.65
134.162
138.658
143.13
147.572
151.971
156.308
160.556
164.687
168.686
172.537
176.23
179.763
183.134
186.343
189.408
192.334
195.108
197.707
200.082
202.177
203.954
205.382
206.444
207.127
207.408
207.266
206.684
205.639
204.107
202.058
199.445
196.234
192.426
188.038
183.122
177.748
171.97
165.833
159.384
152.658
145.7
138.552
131.246
123.818
116.315
108.787
101.307
93.938
86.718
79.669
72.792
66.071
59.501
53.084
46.813
40.696
34.736
28.939
23.323
17.907
12.697
7.696
2.894
-1.721
-6.148
-10.38
-14.405
-18.206
-21.77
-25.088
-28.148
-30.945
-33.479
-35.75
-37.769
-39.551
-41.105
-42.442
-43.567
-44.488
-45.214
-45.758
-46.13
-46.345
-46.416
-46.357
-46.182
-45.907
-45.543
-45.103
-44.596
-44.031
-43.416
-42.76
-42.072
-41.359
-40.63
-39.891
-39.151
-38.416
-37.693
-36.986
-36.301
-35.64
-35.007
-34.403
-33.832
-33.294
-32.789
-32.318
-31.88
-31.476
-31.104
-30.764
-30.453
-30.171
-29.916
-29.685
-29.477
-29.289
-29.121
-28.968
-28.831
-28.707
-28.594
-28.491
-28.397
-28.31
-28.231
-28.156
-28.087
-28.022
-27.96
-27.902
-27.846
-27.794
-27.745
-27.7
-27.661
-27.628
-27.602
-27.584
-27.577
-27.58
-27.597
-27.627
-27.673
-27.737
-27.818
-27.92
-28.043
-28.188
-28.357
-28.55
-28.768
-29.011
-29.279
-29.572
-29.889
-30.229
-30.592
-30.975
-31.377
-31.797
-32.233
-32.682
-33.143
-33.612
-34.086
-34.562
-35.038
-35.509
-35.972
-36.422
-36.856
-37.271
-37.661
-38.023
-38.352
-38.646
-38.899
-39.108
-39.269
-39.379
-39.434
-39.433
-39.372
-39.25
-39.066
-38.821
-38.514
-38.147
-37.722
-37.241
-36.706
-36.121
-35.488
-34.81
-34.093
-33.339
-32.553
-31.739
-30.904
-30.055
-29.197
-28.336
-27.478
-26.63
-25.798
-24.99
-24.213
-23.468
-22.76
-22.094
-21.474
-20.91
-20.405
-19.956
-19.563
-19.223
-18.93
-18.682
-18.466
-18.265
-18.061
-17.84
-17.588
-17.3
-16.972
-16.591
-16.147
-15.629
-15.03
-14.359
-13.621
-12.82
-11.967
-11.078
-10.184
-9.343
-8.61
-8.04
-7.683
-7.58
-7.769
-8.283
-9.161
-10.444
-12.164
-14.345
-17.005
-20.146
-23.776
-27.933
-32.537
-37.412
-42.313
-46.868
-50.769
-53.846
-55.838
-56.429
-55.596
-53.463
-50.397
-47.226
-44.478
-42.298
-41.11
-41.299
-42.752
-45.327
-48.048
-48.75
-46.071
-39.172
-27.646
-12.777
4.129
22.479
42.393
65.759
95.15
132.041
175.041
219.202
257.198
280.331
281.11
255.302
202.01
125.235
32.764
-67.731
-170.159
-272.656
-375.474
-474.527
-569.731
-661.77
-728.352
-747.929
-736.634
-715.49
-682.041
-634.269
-577.846
-514.568
-445.36
-374.503
-307.065
-247.406
-198.174
-158.755
-126.988
-101.378
-80.712
-64.933
-54.726
-49.136
-46.508
-45.082
-42.778
-38.73
-33.09
-26.049
-18.081
-9.9
-2.083
4.652
9.513
12.288
13.135
12.337
10.364
7.691
4.722
1.948
-0.128
-1.255
-1.352
-0.45
1.308
3.811
6.973
10.666
14.747
19.09
23.582
28.13
32.665
37.1
41.338
45.291
48.871
52.031
54.758
57.059
58.965
60.508
61.731
62.686
63.431
64.027
64.53
64.991
65.456
65.974
66.595
67.367
68.338
69.54
70.992
72.705
74.682
76.922
79.42
82.167
85.147
88.346
91.749
95.345
99.123
103.067
107.158
111.377
115.704
120.117
124.597
129.122
133.671
138.22
142.749
147.234
151.654
155.986
160.206
164.289
168.209
171.944
175.47
178.763
181.803
184.568
187.039
189.2
191.035
192.53
193.673
194.454
194.864
194.895
194.545
193.809
192.686
191.177
189.286
187.017
184.376
181.374
178.019
174.324
170.303
165.972
161.346
156.446
151.289
145.896
140.289
134.489
128.521
122.407
116.172
109.84
103.434
96.98
90.5
84.019
77.558
71.141
64.789
58.523
52.361
46.323
40.427
34.689
29.124
23.747
18.57
13.604
8.86
4.345
0.067
-3.968
-7.757
-11.297
-14.585
-17.623
-20.411
-22.952
-25.248
-27.306
-29.131
-30.73
-32.11
-33.28
-34.248
-35.026
-35.622
-36.048
-36.314
-36.432
-36.413
-36.267
-36.008
-35.645
-35.189
-34.652
-34.044
-33.375
-32.654
-31.892
-31.095
-30.273
-29.434
-28.583
-27.728
-26.875
-26.028
-25.193
-24.374
-23.573
-22.794
-22.04
-21.313
-20.613
-19.941
-19.299
-18.686
-18.103
-17.548
-17.022
-16.522
-16.047
-15.597
-15.17
-14.764
-14.378
-14.009
-13.656
-13.318
-12.993
-12.68
-12.376
-12.082
-11.795
-11.515
-11.241
-10.972
-10.708
-10.448
-10.193
-9.941
-9.694
-9.452
-9.215
-8.983
-8.757
-8.538
-8.327
-8.124
-7.93
-7.747
-7.576
-7.417
-7.271
-7.141
-7.027
-6.93
-6.852
-6.793
-6.755
-6.739
-6.745
-6.775
-6.829
-6.908
-7.013
-7.144
-7.301
-7.486
-7.696
-7.932
-8.194
-8.481
-8.791
-9.123
-9.475
-9.847
-10.235
-10.639
-11.056
-11.483
-11.918
-12.358
-12.801
-13.244
-13.683
-14.114
-14.535
-14.942
-15.331
-15.698
-16.04
-16.352
-16.631
-16.872
-17.072
-17.226
-17.33
-17.381
-17.375
-17.308
-17.18
-16.986
-16.726
-16.398
-16.003
-15.542
-15.015
-14.423
-13.768
-13.053
-12.279
-11.451
-10.57
-9.64
-8.665
-7.65
-6.6
-5.523
-4.424
-3.31
-2.186
-1.061
0.059
1.167
2.256
3.32
4.354
5.35
6.302
7.2
8.038
8.815
9.531
10.191
10.799
11.36
11.883
12.385
12.877
13.374
13.886
14.415
14.97
15.557
16.186
16.871
17.621
18.431
19.294
20.201
21.129
22.069
22.99
23.842
24.583
25.167
25.546
25.695
25.583
25.171
24.441
23.352
21.863
19.958
17.606
14.797
11.554
7.87
3.73
-0.776
-5.504
-10.217
-14.56
-18.264
-21.156
-23.008
-23.55
-22.636
-20.347
-17.061
-13.473
-10.21
-7.552
-5.76
-5.268
-6.307
-8.761
-11.787
-13.56
-12.395
-7.293
1.894
14.259
29.109
46.168
65.764
89.971
120.385
157.501
200.805
245.759
286.378
316.886
329.98
320.541
285.929
225.234
142.822
46.062
-58.52
-165.477
-273.517
-382.338
-485.53
-580.965
-667.936
-724.661
-732.819
-710.591
-680.145
-640.094
-587.118
-525.547
-456.943
-382.034
-306.238
-236.177
-176.636
-130.373
-95.887
-69.14
-47.649
-30.18
-17.405
-11.268
-10.756
-12.685
-13.608
-9.9
-1.141
10.366
22.686
33.501
41.828
48.339
52.968
55.897
57.414
57.226
55.558
52.92
49.714
46.552
44.041
42.455
41.914
42.436
43.886
46.144
49.134
52.733
56.8
61.218
65.866
70.634
75.446
80.216
84.845
89.241
93.312
96.982
100.214
103.001
105.357
107.311
108.899
110.164
111.158
111.943
112.578
113.119
113.619
114.122
114.678
115.336
116.144
117.145
118.368
119.828
121.533
123.488
125.691
128.138
130.82
133.722
136.83
140.134
143.623
147.285
151.107
155.071
159.161
163.356
167.639
171.991
176.393
180.824
185.264
189.693
194.089
198.433
202.701
206.871
210.92
214.822
218.555
222.097
225.424
228.516
231.353
233.915
236.185
238.149
239.79
241.098
242.059
242.666
242.909
242.784
242.285
241.41
240.158
238.531
236.531
234.164
231.437
228.357
224.935
221.184
217.115
212.746
208.091
203.169
197.999
192.6
186.994
181.202
175.247
169.153
162.941
156.636
150.262
143.842
137.399
130.955
124.534
118.157
111.845
105.619
99.497
93.499
87.643
81.943
76.417
71.077
65.937
61.008
56.301
51.823
47.581
43.583
39.832
36.331
33.082
30.085
27.338
24.84
22.587
20.574
18.796
17.244
15.913
14.793
13.874
13.148
12.604
12.23
12.016
11.951
12.023
12.219
12.529
12.941
13.444
14.025
14.675
15.382
16.136
16.927
17.746
18.583
19.431
20.282
21.127
21.961
22.777
23.569
24.334
25.066
25.762
26.418
27.032
27.603
28.127
28.605
29.036
29.419
29.754
30.042
30.284
30.48
30.632
30.742
30.81
30.839
30.83
30.785
30.707
30.598
30.458
30.292
30.101
29.886
29.65
29.396
29.125
28.838
28.539
28.229
27.909
27.581
27.247
26.908
26.566
26.222
25.876
25.531
25.187
24.844
24.504
24.166
23.833
23.503
23.178
22.858
22.543
22.233
21.928
21.629
21.334
21.045
20.759
20.478
20.2
19.925
19.651
19.378
19.105
18.831
18.553
18.272
17.985
17.691
17.389
17.077
16.754
16.419
16.07
15.708
15.33
14.936
14.527
14.102
13.66
13.202
12.727
12.236
11.73
11.208
10.672
10.124
9.563
8.993
8.415
7.831
7.244
6.656
6.07
5.489
4.917
4.357
3.813
3.29
2.792
2.323
1.887
1.488
1.13
0.816
0.548
0.33
0.162
0.046
-0.018
-0.03
0.01
0.103
0.247
0.44
0.683
0.973
1.308
1.685
2.099
2.545
3.017
3.511
4.02
4.538
5.06
5.577
6.084
6.575
7.044
7.482
7.881
8.231
8.525
8.76
8.935
9.051
9.115
9.13
9.106
9.057
8.995
8.926
8.861
8.803
8.756
8.73
8.735
8.78
8.875
9.019
9.206
9.429
9.669
9.9
10.099
10.221
10.226
10.082
9.751
9.197
8.393
7.303
5.892
4.141
2.016
-0.516
-3.473
-6.887
-10.756
-15.045
-19.747
-24.853
-30.284
-35.903
-41.476
-46.662
-51.189
-54.884
-57.522
-58.838
-58.694
-57.178
-54.665
-51.837
-49.316
-47.374
-46.275
-46.461
-48.134
-51.151
-54.701
-57.011
-56.417
-51.923
-43.27
-31.258
-16.728
-0.171
18.463
41.05
69.459
104.534
146.09
189.873
229.753
259.73
272.287
261.983
226.047
163.529
78.796
-20.648
-128.212
-238.406
-349.728
-461.602
-567.181
-663.906
-751.271
-807.597
-814.648
-791.721
-761.452
-722.535
-672.247
-613.949
-548.091
-474.704
-397.578
-323.799
-260.213
-210.807
-176.158
-153.149
-137.268
-125.654
-117.117
-111.436
-108.733
-107.889
-107.014
-104.842
-100.714
-94.706
-87.365
-79.372
-71.467
-64.516
-59.463
-56.713
-56.189
-57.599
-60.435
-64.208
-68.497
-72.773
-76.452
-79.186
-80.832
-81.386
-80.995
-79.779
-77.822
-75.255
-72.227
-68.871
-65.313
-61.655
-57.971
-54.348
-50.882
-47.665
-44.787
-42.322
-40.306
-38.746
-37.629
-36.928
-36.606
-36.624
-36.932
-37.47
-38.184
-39.017
-39.922
-40.855
-41.771
-42.621
-43.36
-43.947
-44.354
-44.566
-44.575
-44.377
-43.971
-43.359
-42.549
-41.551
-40.376
-39.03
-37.52
-35.848
-34.024
-32.058
-29.962
-27.746
-25.422
-22.996
-20.479
-17.881
-15.211
-12.472
-9.672
-6.813
-3.904
-0.965
1.983
4.93
7.849
10.704
13.475
16.135
18.666
21.09
23.416
25.631
27.78
29.963
32.216
34.511
36.848
39.062
41.077
43.384
45.938
48.312
50.29
49.648
46.106
43.483
38.769
26.536
18.458
33.195
