24.047
24.994
25.971
26.97
27.982
28.998
30.014
31.023
32.019
32.992
33.932
34.83
35.684
36.492
37.253
37.969
38.64
39.271
39.878
40.474
41.075
41.69
42.32
42.97
43.647
44.36
45.127
45.949
46.821
47.731
48.673
49.636
50.608
51.554
52.416
53.136
53.651
53.918
53.902
53.566
52.877
51.795
50.271
48.273
45.785
42.787
39.288
35.272
30.69
25.626
20.272
14.881
9.843
5.478
1.965
-0.397
-1.254
-0.556
1.585
4.798
8.247
11.34
13.792
15.085
14.808
13.057
10.107
6.816
4.866
5.52
9.793
19.133
34.573
56.539
85.148
119.417
157.286
196.847
235.713
270.503
297.949
314.819
318.096
306.013
277.549
232.01
170.037
93.792
6.421
-87.759
-184.103
-278.38
-365.946
-442.286
-503.854
-548.061
-573.905
-581.989
-573.34
-549.457
-513.015
-467.057
-414.936
-360.319
-305.762
-253.042
-204.165
-160.707
-123.602
-93.575
-70.374
-52.905
-40.547
-32.663
-28.056
-25.658
-24.258
-22.481
-19.816
-16.341
-12.006
-6.976
-1.675
3.57
8.133
11.226
12.616
12.388
10.712
7.959
4.492
0.598
-3.282
-6.654
-9.26
-10.989
-11.848
-11.969
-11.44
-10.324
-8.734
-6.797
-4.627
-2.324
0.036
2.407
4.718
6.891
8.846
10.5
11.81
12.761
13.357
13.624
13.592
13.294
12.776
12.093
11.295
10.432
9.549
8.681
7.871
7.162
6.598
6.226
6.075
6.166
6.509
7.11
7.968
9.083
10.444
12.039
13.854
15.878
18.101
20.511
23.097
25.842
28.729
31.738
34.85
38.049
41.315
44.627
47.968
51.316
54.653
57.961
61.22
64.408
67.505
70.489
73.34
76.038
78.564
80.898
83.024
84.924
86.585
87.993
89.137
90.006
90.591
90.885
90.883
90.58
89.973
89.062
87.847
86.331
84.517
82.412
80.021
77.353
74.418
71.227
67.793
64.128
60.248
56.166
51.901
47.468
42.885
38.17
33.343
28.421
23.424
18.371
13.282
8.173
3.065
-2.025
-7.079
-12.08
-17.013
-21.861
-26.609
-31.244
-35.752
-40.121
-44.34
-48.4
-52.29
-56.003
-59.532
-62.872
-66.019
-68.968
-71.718
-74.267
-76.615
-78.763
-80.714
-82.47
-84.035
-85.414
-86.612
-87.636
-88.492
-89.188
-89.732
-90.133
-90.399
-90.54
-90.564
-90.482
-90.304
-90.038
-89.695
-89.284
-88.815
-88.297
-87.738
-87.148
-86.534
-85.904
-85.265
-84.624
-83.988
-83.362
-82.752
-82.162
-81.596
-81.057
-80.55
-80.077
-79.639
-79.238
-78.875
-78.551
-78.266
-78.02
-77.813
-77.642
-77.508
-77.408
-77.341
-77.305
-77.298
-77.316
-77.358
-77.421
-77.502
-77.599
-77.709
-77.829
-77.956
-78.089
-78.224
-78.36
-78.493
-78.623
-78.747
-78.863
-78.97
-79.067
-79.152
-79.225
-79.283
-79.328
-79.357
-79.37
-79.368
-79.35
-79.315
-79.264
-79.197
-79.114
-79.016
-78.903
-78.776
-78.635
-78.482
-78.317
-78.141
-77.956
-77.762
-77.561
-77.354
-77.142
-76.926
-76.707
-76.486
-76.266
-76.046
-75.828
-75.612
-75.401
-75.194
-74.994
-74.801
-74.615
-74.438
-74.27
-74.113
-73.967
-73.832
-73.71
-73.6
-73.504
-73.421
-73.351
-73.294
-73.25
-73.218
-73.196
-73.184
-73.181
-73.184
-73.192
-73.203
-73.215
-73.226
-73.233
-73.235
-73.228
-73.209
-73.176
-73.125
-73.054
-72.958
-72.835
-72.681
-72.492
-72.266
-71.998
-71.684
-71.321
-70.906
-70.434
-69.903
-69.309
-68.65
-67.923
-67.127
-66.26
-65.324
-64.317
-63.241
-62.098
-60.89
-59.619
-58.287
-56.899
-55.458
-53.968
-52.432
-50.856
-49.243
-47.602
-45.937
-44.255
-42.564
-40.869
-39.178
-37.498
-35.838
-34.204
-32.603
-31.039
-29.519
-28.051
-26.645
-25.306
-24.035
-22.834
-21.701
-20.633
-19.628
-18.675
-17.757
-16.859
-15.964
-15.062
-14.147
-13.212
-12.248
-11.245
-10.186
-9.067
-7.891
-6.665
-5.397
-4.095
-2.774
-1.473
-0.247
0.844
1.737
2.387
2.759
2.815
2.528
1.861
0.765
-0.788
-2.82
-5.355
-8.39
-11.953
-16.095
-20.739
-25.697
-30.712
-35.403
-39.469
-42.734
-44.899
-45.599
-44.739
-42.445
-39.152
-35.637
-32.451
-29.822
-28.151
-27.97
-29.378
-32.07
-35.142
-37.036
-36.509
-32.774
-24.764
-11.139
8.919
35.625
68.28
105.066
144.162
183.789
221.313
253.284
276.226
286.89
282.835
262.788
225.806
171.569
101.259
17.535
-75.753
-173.969
-272.504
-366.947
-452.683
-525.504
-582.209
-620.772
-640.803
-643.029
-628.539
-599.16
-557.649
-507.214
-451.389
-393.604
-336.308
-281.619
-231.807
-188.562
-152.885
-124.987
-104.066
-88.919
-78.662
-72.162
-67.837
-64.169
-59.716
-53.673
-46.114
-37.383
-27.791
-17.814
-8.088
0.669
7.614
12.346
14.976
15.75
15.055
13.298
10.833
8.101
5.61
3.672
2.437
1.98
2.243
3.171
4.741
6.862
9.433
12.37
15.581
18.997
22.561
26.196
29.828
33.395
36.824
40.061
43.056
45.756
48.141
50.214
51.989
53.494
54.763
55.829
56.74
57.547
58.298
59.036
59.801
60.625
61.545
62.595
63.808
65.217
66.842
68.693
70.776
73.092
75.637
78.406
81.388
84.565
87.924
91.451
95.133
98.957
102.907
106.967
111.117
115.338
119.61
123.915
128.231
132.539
136.817
141.046
145.205
149.276
153.239
157.073
160.758
164.272
167.598
170.715
173.605
176.252
178.638
180.75
182.575
184.1
185.317
186.216
186.791
187.035
186.945
186.518
185.753
184.651
183.215
181.446
179.352
176.939
174.215
171.191
167.876
164.284
160.428
156.323
151.984
147.428
142.673
137.736
132.637
127.393
122.025
116.553
110.997
105.376
99.71
94.02
88.323
82.64
76.989
71.387
65.851
60.397
55.042
49.8
44.685
39.71
34.887
30.226
25.739
21.432
17.314
13.391
9.668
6.149
2.837
-0.267
-3.162
-5.848
-8.327
-10.602
-12.676
-14.553
-16.24
-17.741
-19.065
-20.217
-21.207
-22.042
-22.732
-23.286
-23.713
-24.023
-24.225
-24.33
-24.347
-24.287
-24.158
-23.971
-23.734
-23.457
-23.149
-22.818
-22.471
-22.116
-21.761
-21.411
-21.073
-20.751
-20.452
-20.178
-19.935
-19.725
-19.55
-19.414
-19.316
-19.26
-19.245
-19.271
-19.337
-19.444
-19.59
-19.772
-19.99
-20.242
-20.524
-20.834
-21.168
-21.525
-21.9
-22.29
-22.692
-23.101
-23.515
-23.929
-24.34
-24.745
-25.14
-25.521
-25.886
-26.231
-26.553
-26.85
-27.119
-27.358
-27.564
-27.736
-27.872
-27.97
-28.029
-28.05
-28.03
-27.969
-27.868
-27.727
-27.546
-27.326
-27.069
-26.774
-26.445
-26.083
-25.69
-25.268
-24.82
-24.349
-23.856
-23.346
-22.821
-22.284
-21.739
-21.188
-20.634
-20.081
-19.533
-18.992
-18.462
-17.946
-17.447
-16.968
-16.512
-16.081
-15.679
-15.307
-14.969
-14.665
-14.399
-14.172
-13.984
-13.836
-13.73
-13.664
-13.638
-13.652
-13.703
-13.791
-13.913
-14.067
-14.251
-14.461
-14.696
-14.95
-15.222
-15.506
-15.799
-16.097
-16.393
-16.685
-16.966
-17.233
-17.48
-17.701
-17.891
-18.046
-18.159
-18.225
-18.238
-18.192
-18.084
-17.907
-17.658
-17.334
-16.932
-16.448
-15.884
-15.238
-14.512
-13.706
-12.821
-11.86
-10.824
-9.718
-8.544
-7.305
-6.006
-4.653
-3.253
-1.812
-0.34
1.156
2.668
4.188
5.706
7.214
8.703
10.165
11.593
12.975
14.301
15.558
16.736
17.83
18.838
19.76
20.601
21.365
22.061
22.707
23.315
23.896
24.458
25.006
25.547
26.092
26.651
27.236
27.859
28.518
29.209
29.93
30.659
31.371
32.035
32.605
33.036
33.292
33.335
33.123
32.63
31.82
30.665
29.154
27.259
24.955
22.23
19.061
15.459
11.464
7.091
2.345
-2.698
-7.899
-13.02
-17.71
-21.677
-24.715
-26.567
-26.921
-25.588
-22.637
-18.446
-13.712
-9.15
-5.198
-2.263
-0.937
-1.56
-3.954
-7.45
-10.714
-12.163
-10.689
-5.183
5.881
23.59
48.388
80.05
117.117
157.516
199.319
239.896
275.607
302.851
318.075
318.244
301.714
267.348
214.449
143.885
58.1
-39.318
-143.57
-249.708
-353.215
-448.987
-532.127
-598.834
-646.294
-673.444
-680.859
-669.436
-640.675
-597.51
-543.337
-481.943
-417.497
-352.99
-290.687
-233.219
-182.637
-140.099
-106.339
-80.903
-62.4
-49.914
-42.414
-38.19
-35.733
-33.543
-30.171
-25.208
-18.887
-11.325
-2.898
5.741
14.038
21.226
26.521
29.751
31.082
30.786
29.323
27.126
24.572
22.138
20.298
19.309
19.274
20.168
21.864
24.261
27.27
30.781
34.664
38.802
43.093
47.448
51.797
56.071
60.188
64.071
67.647
70.856
73.665
76.077
78.109
79.794
81.17
82.277
83.166
83.896
84.524
85.1
85.673
86.282
86.97
87.78
88.755
89.933
91.34
92.988
94.884
97.03
99.424
102.059
104.927
108.009
111.29
114.758
118.4
122.201
126.147
130.219
134.395
138.657
142.982
147.35
151.74
156.13
160.496
164.816
169.068
173.231
177.281
181.195
184.949
188.52
191.885
195.021
197.91
200.529
202.861
204.888
206.597
207.973
209.006
209.684
210.0
209.947
209.521
208.718
207.538
205.981
204.05
201.749
199.085
196.065
192.699
188.998
184.974
180.644
176.021
171.122
165.967
160.574
154.964
149.156
143.174
137.038
130.772
124.399
117.941
111.421
104.861
98.284
91.712
85.165
78.664
72.228
65.878
59.629
53.501
47.507
41.664
35.985
30.482
25.167
20.05
15.139
10.443
5.967
1.716
-2.306
-6.097
-9.656
-12.984
-16.081
-18.951
-21.597
-24.024
-26.238
-28.244
-30.051
-31.666
-33.098
-34.355
-35.448
-36.385
-37.177
-37.834
-38.365
-38.781
-39.092
-39.308
-39.437
-39.489
-39.473
-39.398
-39.271
-39.1
-38.892
-38.654
-38.392
-38.111
-37.816
-37.512
-37.203
-36.891
-36.579
-36.269
-35.963
-35.662
-35.366
-35.077
-34.792
-34.512
-34.237
-33.964
-33.692
-33.421
-33.147
-32.87
-32.588
-32.298
-32.0
-31.69
-31.369
-31.034
-30.684
-30.317
-29.933
-29.531
-29.111
-28.671
-28.211
-27.732
-27.233
-26.715
-26.178
-25.623
-25.051
-24.463
-23.859
-23.242
-22.612
-21.97
-21.32
-20.661
-19.995
-19.325
-18.651
-17.976
-17.301
-16.628
-15.958
-15.292
-14.633
-13.981
-13.338
-12.704
-12.08
-11.468
-10.869
-10.282
-9.71
-9.152
-8.608
-8.081
-7.569
-7.073
-6.594
-6.131
-5.685
-5.257
-4.846
-4.453
-4.077
-3.72
-3.382
-3.062
-2.762
-2.481
-2.22
-1.98
-1.761
-1.562
-1.385
-1.23
-1.097
-0.987
-0.899
-0.834
-0.792
-0.772
-0.775
-0.798
-0.843
-0.906
-0.988
-1.086
-1.199
-1.326
-1.463
-1.609
-1.762
-1.919
-2.076
-2.231
-2.381
-2.521
-2.647
-2.757
-2.845
-2.908
-2.942
-2.941
-2.902
-2.82
-2.691
-2.509
-2.272
-1.974
-1.611
-1.181
-0.681
-0.107
0.541
1.264
2.063
2.937
3.883
4.901
5.989
7.142
8.357
9.631
10.959
12.337
13.759
15.22
16.712
18.228
19.76
21.302
22.845
24.38
25.9
27.394
28.854
30.273
31.644
32.96
34.213
35.39
36.485
37.495
38.419
39.257
40.009
40.678
41.269
41.799
42.283
42.736
43.17
43.591
44.004
44.42
44.851
45.315
45.817
46.352
46.912
47.49
48.075
48.656
49.197
49.641
49.93
49.997
49.793
49.279
48.41
47.15
45.453
43.26
40.539
37.265
33.412
28.985
23.961
18.275
12.006
5.34
-1.465
-8.003
-13.937
-19.071
-23.072
-25.535
-26.363
-25.637
-23.748
-21.565
-19.702
-18.448
-18.326
-19.827
-22.955
-27.465
-32.462
-36.176
-37.245
-34.663
-27.045
-13.182
7.582
35.569
70.045
108.99
150.462
192.277
231.28
264.05
287.069
296.747
290.397
266.476
223.783
162.154
83.027
-10.971
-115.829
-226.49
-337.711
-444.171
-540.437
-621.754
-684.368
-725.751
-745.168
-743.128
-721.092
-681.661
-628.25
-564.789
-495.679
-425.045
-356.14
-291.939
-234.862
-186.489
-147.825
-118.831
-98.356
-84.98
-77.298
-73.518
-71.913
-70.857
-68.725
-64.752
-58.976
-51.647
-43.215
-34.364
-25.723
-18.06
-12.257
-8.619
-7.025
-7.199
-8.655
-10.908
-13.547
-16.051
-17.861
-18.681
-18.401
-17.03
-14.715
-11.565
-7.663
-3.15
1.82
7.105
12.583
18.162
23.772
29.323
34.711
39.838
44.607
48.966
52.892
56.386
59.47
62.173
64.532
66.599
68.434
70.095
71.64
73.119
74.576
76.061
77.626
79.319
81.192
83.278
85.596
88.159
90.972
94.035
97.344
100.89
104.655
108.626
112.789
117.132
121.644
126.309
131.109
136.025
141.035
146.118
151.255
156.424
161.604
166.773
171.908
176.988
181.992
186.896
191.677
196.311
200.771
205.036
209.08
212.882
216.42
219.673
222.621
225.248
227.539
229.479
231.055
232.258
233.077
233.507
233.542
233.179
232.416
231.255
229.698
227.75
225.417
222.709
219.634
216.207
212.439
208.347
203.948
199.26
194.302
189.095
183.661
178.022
172.201
166.222
160.11
153.889
147.582
141.216
134.813
128.397
121.992
115.62
109.302
103.06
96.913
90.88
84.978
79.225
73.635
68.222
62.998
57.974
53.16
48.563
44.189
40.043
36.128
32.445
28.994
25.774
22.782
20.013
17.462
15.122
12.985
11.042
9.283
7.698
6.274
5.001
3.865
2.853
1.954
1.153
0.437
-0.206
-0.79
-1.326
-1.828
-2.307
-2.774
-3.24
-3.715
-4.207
-4.726
-5.277
-5.869
-6.506
-7.194
-7.935
-8.734
-9.591
-10.508
-11.485
-12.522
-13.616
-14.765
-15.967
-17.218
-18.514
-19.849
-21.219
-22.619
-24.042
-25.483
-26.935
-28.393
-29.85
-31.301
-32.738
-34.156
-35.55
-36.914
-38.244
-39.533
-40.779
-41.978
-43.125
-44.219
-45.256
-46.236
-47.156
-48.016
-48.815
-49.554
-50.232
-50.852
-51.415
-51.921
-52.375
-52.777
-53.132
-53.441
-53.708
-53.937
-54.131
-54.292
-54.426
-54.534
-54.621
-54.69
-54.744
-54.785
-54.818
-54.845
-54.868
-54.889
-54.912
-54.937
-54.966
-55.001
-55.043
-55.093
-55.151
-55.219
-55.295
-55.381
-55.476
-55.58
-55.693
-55.814
-55.942
-56.077
-56.218
-56.364
-56.514
-56.668
-56.824
-56.983
-57.144
-57.306
-57.47
-57.634
-57.8
-57.967
-58.135
-58.305
-58.478
-58.652
-58.831
-59.013
-59.2
-59.392
-59.591
-59.797
-60.011
-60.233
-60.465
-60.706
-60.957
-61.218
-61.487
-61.766
-62.054
-62.349
-62.652
-62.96
-63.273
-63.589
-63.907
-64.223
-64.535
-64.841
-65.137
-65.42
-65.686
-65.931
-66.152
-66.346
-66.506
-66.63
-66.713
-66.75
-66.738
-66.672
-66.548
-66.363
-66.113
-65.796
-65.409
-64.95
-64.42
-63.818
-63.144
-62.401
-61.589
-60.711
-59.77
-58.769
-57.711
-56.602
-55.444
-54.243
-53.004
-51.733
-50.438
-49.126
-47.802
-46.475
-45.153
-43.844
-42.557
-41.299
-40.073
-38.885
-37.74
-36.646
-35.611
-34.64
-33.735
-32.895
-32.123
-31.415
-30.767
-30.17
-29.604
-29.049
-28.49
-27.915
-27.32
-26.698
-26.039
-25.332
-24.564
-23.73
-22.834
-21.882
-20.873
-19.814
-18.725
-17.645
-16.638
-15.778
-15.123
-14.726
-14.627
-14.855
-15.459
-16.496
-18.009
-20.044
-22.625
-25.757
-29.48
-33.858
-38.86
-44.346
-50.048
-55.579
-60.604
-64.898
-68.185
-70.109
-70.462
-69.289
-66.949
-64.138
-61.516
-59.431
-58.204
-58.347
-60.126
-63.342
-67.321
-70.721
-72.037
-70.265
-64.386
-52.947
-34.897
-9.781
22.203
59.618
100.449
142.847
184.234
220.954
249.318
265.608
266.568
250.347
215.598
161.391
88.412
-0.977
-103.142
-213.069
-325.478
-435.484
-537.545
-626.282
-697.441
-747.804
-776.07
-782.764
-768.839
-735.963
-687.365
-626.803
-558.487
-487.04
-415.801
-347.296
-284.393
-229.282
-183.175
-146.827
-119.707
-100.284
-87.523
-80.265
-76.64
-75.005
-73.742
-71.263
-67.081
-61.403
-54.315
-46.18
-37.683
-29.395
-22.116
-16.701
-13.332
-11.812
-11.87
-13.028
-14.821
-16.87
-18.665
-19.685
-19.691
-18.613
-16.498
-13.517
-9.789
-5.41
-0.521
4.723
10.187
15.747
21.309
26.81
32.164
37.282
42.076
46.461
50.396
53.873
56.904
59.522
61.762
63.667
65.29
66.693
67.937
69.08
70.174
71.262
72.393
73.616
74.978
76.528
78.296
80.299
82.549
85.049
87.798
90.794
94.026
97.48
101.141
104.998
109.038
113.251
117.621
122.131
126.762
131.494
136.305
141.177
146.088
151.017
155.942
160.84
165.69
170.469
175.156
179.725
184.153
188.414
192.484
196.34
199.959
203.32
206.4
209.183
211.649
213.783
215.572
217.001
218.062
218.743
219.039
218.943
218.453
217.567
216.285
214.609
212.544
210.096
207.273
204.085
200.544
196.663
192.457
187.941
183.134
178.055
172.723
167.159
161.385
155.424
149.299
143.033
136.65
130.174
123.63
117.039
110.427
103.815
97.226
90.682
84.202
77.809
71.52
65.353
59.327
53.456
47.755
42.238
36.917
31.803
26.905
22.231
17.787
13.579
9.611
5.885
2.403
-0.837
-3.834
-6.592
-9.114
-11.405
-13.471
-15.318
-16.954
-18.386
-19.623
-20.675
-21.552
-22.262
-22.817
-23.226
-23.501
-23.653
-23.69
-23.625
-23.467
-23.227
-22.913
-22.537
-22.105
-21.628
-21.113
-20.568
-20.0
-19.415
-18.819
-18.218
-17.617
-17.02
-16.431
-15.853
-15.289
-14.741
-14.211
-13.7
-13.209
-12.74
-12.291
-11.864
-11.459
-11.073
-10.708
-10.362
-10.034
-9.723
-9.429
-9.15
-8.884
-8.631
-8.39
-8.16
-7.939
-7.727
-7.523
-7.327
-7.137
-6.954
-6.777
-6.606
-6.44
-6.281
-6.128
-5.982
-5.842
-5.71
-5.585
-5.469
-5.361
-5.263
-5.174
-5.096
-5.029
-4.974
-4.931
-4.9
-4.882
-4.877
-4.886
-4.908
-4.944
-4.993
-5.056
-5.132
-5.221
-5.323
-5.436
-5.561
-5.696
-5.841
-5.995
-6.156
-6.324
-6.497
-6.675
-6.855
-7.038
-7.221
-7.404
-7.585
-7.765
-7.94
-8.112
-8.278
-8.439
-8.593
-8.74
-8.88
-9.012
-9.136
-9.252
-9.361
-9.462
-9.557
-9.645
-9.728
-9.806
-9.88
-9.952
-10.024
-10.096
-10.17
-10.249
-10.333
-10.426
-10.528
-10.642
-10.77
-10.912
-11.071
-11.248
-11.443
-11.658
-11.893
-12.148
-12.424
-12.72
-13.037
-13.373
-13.728
-14.101
-14.489
-14.893
-15.308
-15.733
-16.165
-16.601
-17.038
-17.472
-17.899
-18.315
-18.716
-19.097
-19.452
-19.778
-20.068
-20.317
-20.52
-20.672
-20.768
-20.806
-20.78
-20.688
-20.528
-20.3
-20.001
-19.633
-19.193
-18.685
-18.107
-17.464
-16.755
-15.983
-15.152
-14.265
-13.328
-12.346
-11.327
-10.276
-9.2
-8.107
-7.004
-5.9
-4.803
-3.719
-2.657
-1.624
-0.629
0.314
1.196
2.016
2.769
3.458
4.085
4.653
5.17
5.651
6.11
6.56
7.012
7.468
7.936
8.425
8.941
9.502
10.118
10.782
11.491
12.232
12.983
13.729
14.439
15.052
15.52
15.79
15.8
15.523
14.921
13.951
12.591
10.798
8.528
5.762
2.474
-1.347
-5.672
-10.509
-15.876
-21.674
-27.735
-33.804
-39.502
-44.533
-48.687
-51.682
-53.175
-52.968
-51.113
-47.977
-44.241
-40.566
-37.335
-34.926
-33.916
-34.658
-36.999
-40.29
-43.241
-44.345
-42.571
-36.852
-25.665
-7.921
16.835
48.397
85.336
125.639
167.421
208.009
243.66
270.677
285.389
284.63
266.614
230.002
173.954
99.337
8.686
-94.253
-204.454
-316.711
-426.164
-527.231
-614.571
-684.063
-732.658
-759.204
-764.271
-748.769
-714.4
-664.489
-602.874
-533.782
-461.789
-390.175
-321.493
-258.681
-203.938
-158.406
-122.73
-96.289
-77.524
-65.388
-58.665
-55.416
-53.958
-52.697
-50.127
-45.84
-40.081
-32.96
-24.869
-16.519
-8.504
-1.613
3.352
6.252
7.309
6.814
5.245
3.072
0.678
-1.437
-2.773
-3.105
-2.374
-0.634
1.949
5.254
9.188
13.612
18.375
23.344
28.398
33.445
38.421
43.242
47.819
52.069
55.908
59.296
62.227
64.715
66.794
68.5
69.878
70.979
71.868
72.606
73.252
73.856
74.465
75.127
75.89
76.804
77.915
79.256
80.844
82.69
84.797
87.167
89.796
92.675
95.788
99.123
102.667
106.41
110.339
114.441
118.699
123.092
127.603
132.21
136.894
141.635
146.411
151.201
155.983
160.734
165.435
170.061
174.589
178.994
183.252
187.338
191.23
194.904
198.337
201.509
204.401
206.995
209.273
211.222
212.828
214.08
214.967
215.482
215.618
215.37
214.737
213.717
212.311
210.523
208.357
205.82
202.92
199.668
196.076
192.157
187.925
183.397
178.59
173.524
168.217
162.69
156.965
151.064
145.01
138.825
132.533
126.158
119.722
113.249
106.761
100.281
93.83
87.43
81.1
74.861
68.731
62.728
56.868
51.168
45.64
40.299
35.156
30.221
25.504
21.013
16.753
12.731
8.948
5.409
2.113
-0.939
-3.749
-6.319
-8.655
-10.76
-12.64
-14.303
-15.757
-17.009
-18.068
-18.945
-19.65
-20.193
-20.584
-20.835
-20.957
-20.962
-20.859
-20.661
-20.378
-20.021
-19.6
-19.125
-18.606
-18.051
-17.469
-16.869
-16.258
-15.642
-15.029
-14.423
-13.831
-13.257
-12.704
-12.176
-11.676
-11.206
-10.768
-10.363
-9.991
-9.653
-9.348
-9.077
-8.837
-8.629
-8.45
-8.299
-8.173
-8.072
-7.992
-7.932
-7.89
-7.862
-7.848
-7.845
-7.851
-7.863
-7.88
-7.901
-7.923
-7.945
-7.965
-7.983
-7.997
-8.006
-8.009
-8.007
-7.998
-7.981
-7.958
-7.928
-7.891
-7.847
-7.796
-7.74
-7.679
-7.613
-7.543
-7.47
-7.395
-7.319
-7.242
-7.165
-7.09
-7.017
-6.946
-6.88
-6.819
-6.763
-6.713
-6.671
-6.637
-6.611
-6.595
-6.588
-6.593
-6.61
-6.639
-6.681
-6.737
-6.808
-6.895
-6.998
-7.118
-7.254
-7.409
-7.582
-7.774
-7.986
-8.217
-8.468
-8.74
-9.033
-9.347
-9.682
-10.04
-10.419
-10.821
-11.246
-11.693
-12.162
-12.655
-13.171
-13.71
-14.271
-14.856
-15.462
-16.089
-16.736
-17.403
-18.086
-18.785
-19.496
-20.219
-20.95
-21.687
-22.428
-23.169
-23.907
-24.64
-25.364
-26.075
-26.77
-27.445
-28.097
-28.721
-29.313
-29.869
-30.386
-30.859
-31.283
-31.655
-31.97
-32.224
-32.411
-32.528
-32.569
-32.532
-32.413
-32.209
-31.918
-31.538
-31.07
-30.513
-29.868
-29.137
-28.321
-27.423
-26.444
-25.387
-24.256
-23.054
-21.784
-20.451
-19.062
-17.624
-16.145
-14.631
-13.091
-11.532
-9.962
-8.389
-6.822
-5.265
-3.727
-2.217
-0.745
0.675
2.035
3.332
4.564
5.731
6.839
7.896
8.913
9.908
10.895
11.886
12.887
13.901
14.934
15.996
17.097
18.251
19.463
20.729
22.044
23.396
24.766
26.125
27.432
28.636
29.691
30.56
31.214
31.628
31.763
31.588
31.066
30.169
28.894
27.233
25.175
22.711
19.842
16.587
13.001
9.128
4.972
0.593
-3.878
-8.22
-12.091
-15.185
-17.281
-18.133
-17.423
-14.989
-10.951
-5.718
-0.057
5.247
9.696
12.793
13.87
12.54
8.978
3.896
-1.285
-4.89
-5.707
-2.491
6.434
22.377
45.928
76.91
113.9
154.651
196.941
237.924
273.656
300.056
313.225
309.758
287.562
245.633
183.689
102.852
6.076
-102.382
-217.259
-332.762
-443.282
-543.429
-628.268
-693.819
-737.581
-758.773
-757.942
-736.74
-697.745
-644.306
-580.391
-510.417
-438.552
-368.104
-302.043
-242.808
-192.129
-151.181
-120.052
-97.713
-82.795
-73.946
-69.439
-67.53
-66.487
-64.509
-60.692
-54.994
-47.622
-38.995
-29.754
-20.525
-12.134
-5.581
-1.283
0.84
1.052
-0.153
-2.291
-4.96
-7.63
-9.704
-10.824
-10.842
-9.75
-7.692
-4.787
-1.117
3.191
7.982
13.119
18.472
23.936
29.437
34.893
40.204
45.278
50.022
54.359
58.251
61.692
64.693
67.285
69.503
71.387
72.989
74.37
75.588
76.7
77.753
78.791
79.861
81.011
82.287
83.732
85.375
87.228
89.301
91.596
94.111
96.841
99.776
102.9
106.198
109.659
113.271
117.024
120.902
124.889
128.967
133.117
137.321
141.56
145.817
150.07
154.301
158.49
162.618
166.665
170.613
174.438
178.12
181.637
184.968
188.093
190.993
193.647
196.039
198.152
199.972
201.486
202.682
203.549
204.08
204.266
204.103
203.586
202.714
201.485
199.9
197.963
195.677
193.049
190.086
186.797
183.193
179.286
175.089
170.617
165.886
160.912
155.714
150.309
144.718
138.961
133.058
127.03
120.899
114.686
108.413
102.101
95.77
89.441
83.134
76.869
70.665
64.539
58.51
52.593
46.804
41.157
35.667
30.347
25.206
20.256
15.505
10.961
6.631
2.52
-1.368
-5.03
-8.465
-11.672
-14.652
-17.408
-19.941
-22.257
-24.361
-26.258
-27.956
-29.461
-30.784
-31.932
-32.915
-33.742
-34.425
-34.974
-35.399
-35.711
-35.921
-36.04
-36.078
-36.047
-35.955
-35.814
-35.634
-35.422
-35.189
-34.942
-34.69
-34.44
-34.2
-33.974
-33.77
-33.591
-33.444
-33.331
-33.256
-33.221
-33.23
-33.282
-33.379
-33.522
-33.71
-33.942
-34.219
-34.537
-34.895
-35.292
-35.724
-36.189
-36.684
-37.207
-37.753
-38.321
-38.905
-39.504
-40.114
-40.731
-41.352
-41.975
-42.595
-43.21
-43.817
-44.412
-44.994
-45.56
-46.107
-46.633
-47.136
-47.615
-48.067
-48.491
-48.887
-49.252
-49.588
-49.892
-50.164
-50.406
-50.616
-50.794
-50.942
-51.06
-51.147
-51.206
-51.237
-51.24
-51.217
-51.168
-51.095
-50.999
-50.881
-50.742
-50.584
-50.407
-50.214
-50.006
-49.784
-49.549
-49.305
-49.051
-48.791
-48.525
-48.256
-47.986
-47.715
-47.447
-47.182
-46.923
-46.671
-46.427
-46.194
-45.972
-45.765
-45.572
-45.396
-45.238
-45.101
-44.984
-44.891
-44.822
-44.78
-44.765
-44.779
-44.823
-44.898
-45.006
-45.148
-45.323
-45.534
-45.779
-46.059
-46.373
-46.721
-47.102
-47.513
-47.954
-48.423
-48.916
-49.433
-49.971
-50.526
-51.096
-51.679
-52.269
-52.864
-53.46
-54.053
-54.639
-55.212
-55.77
-56.306
-56.816
-57.296
-57.74
-58.143
-58.501
-58.808
-59.059
-59.251
-59.379
-59.439
-59.427
-59.343
-59.183
-58.946
-58.634
-58.246
-57.785
-57.252
-56.65
-55.981
-55.249
-54.457
-53.611
-52.713
-51.768
-50.783
-49.763
-48.715
-47.647
-46.567
-45.48
-44.395
-43.32
-42.264
-41.234
-40.236
-39.275
-38.357
-37.489
-36.682
-35.94
-35.265
-34.655
-34.106
-33.616
-33.18
-32.788
-32.42
-32.06
-31.688
-31.294
-30.873
-30.419
-29.924
-29.373
-28.751
-28.056
-27.292
-26.473
-25.606
-24.701
-23.772
-22.858
-22.015
-21.303
-20.782
-20.492
-20.466
-20.742
-21.346
-22.317
-23.702
-25.524
-27.807
-30.562
-33.781
-37.487
-41.724
-46.422
-51.404
-56.406
-61.048
-65.01
-68.078
-69.964
-70.31
-68.942
-65.958
-61.774
-57.15
-52.81
-49.165
-46.639
-45.829
-47.047
-50.076
-54.151
-57.831
-59.497
-57.996
-52.13
-40.294
-21.328
5.205
38.984
78.499
121.543
165.931
208.747
245.976
273.709
288.317
286.41
265.935
225.886
165.641
87.334
-5.066
-108.54
-218.247
-330.812
-443.428
-547.472
-635.87
-701.548
-737.813
-747.788
-735.271
-704.18
-660.924
-606.42
-542.145
-472.052
-398.715
-326.42
-259.419
-199.902
-149.598
-109.393
-78.928
-57.16
-42.753
-34.206
-29.663
-27.379
-25.718
-23.053
-18.642
-12.526
-4.943
3.625
12.458
20.925
28.259
33.59
36.637
37.542
36.602
34.332
31.244
27.765
24.43
21.805
20.188
19.694
20.312
21.895
24.331
27.535
31.366
35.67
40.304
45.145
50.092
55.072
59.989
64.738
69.217
73.326
77.012
80.252
83.047
85.424
87.413
89.053
90.397
91.509
92.447
93.271
94.033
94.779
95.561
96.431
97.439
98.638
100.06
101.726
103.647
105.827
108.266
110.958
113.894
117.057
120.432
124.006
127.766
131.704
135.803
140.046
144.415
148.889
153.45
158.08
162.758
167.465
172.18
176.884
181.555
186.176
190.725
195.179
199.516
203.712
207.745
211.593
215.235
218.649
221.816
224.717
227.336
229.657
231.666
233.351
234.7
235.703
236.353
236.644
236.569
236.126
235.314
234.131
232.581
230.666
228.392
225.766
222.795
219.489
215.861
211.923
207.689
203.175
198.397
193.372
188.12
182.659
177.01
171.193
165.23
159.142
152.951
146.678
140.344
133.972
127.582
121.195
114.83
108.508
102.247
96.066
89.981
84.01
78.168
72.471
66.931
61.561
56.373
51.377
46.581
41.994
37.622
33.47
29.541
25.839
22.365
19.118
16.098
13.303
10.729
8.372
6.227
4.288
2.547
0.997
-0.37
-1.563
-2.592
-3.465
-4.193
-4.786
-5.255
-5.609
-5.859
-6.016
-6.09
-6.09
-6.027
-5.911
-5.75
-5.554
-5.33
-5.087
-4.832
-4.571
-4.311
-4.058
-3.816
-3.591
-3.385
-3.202
-3.046
-2.917
-2.818
-2.749
-2.712
-2.706
-2.73
-2.785
-2.869
-2.98
-3.118
-3.281
-3.466
-3.671
-3.894
-4.133
-4.385
-4.647
-4.918
-5.194
-5.472
-5.752
-6.03
-6.304
-6.572
-6.833
-7.085
-7.326
-7.554
-7.769
-7.969
-8.154
-8.323
-8.475
-8.611
-8.729
-8.831
-8.916
-8.985
-9.037
-9.075
-9.097
-9.105
-9.1
-9.082
-9.052
-9.011
-8.961
-8.901
-8.834
-8.759
-8.678
-8.592
-8.502
-8.408
-8.312
-8.214
-8.115
-8.017
-7.92
-7.825
-7.733
-7.646
-7.563
-7.487
-7.417
-7.355
-7.302
-7.258
-7.225
-7.204
-7.195
-7.2
-7.22
-7.256
-7.309
-7.38
-7.471
-7.583
-7.717
-7.874
-8.055
-8.263
-8.498
-8.761
-9.053
-9.376
-9.731
-10.117
-10.535
-10.985
-11.467
-11.98
-12.523
-13.095
-13.695
-14.323
-14.975
-15.65
-16.346
-17.061
-17.79
-18.532
-19.283
-20.038
-20.795
-21.548
-22.294
-23.027
-23.744
-24.439
-25.107
-25.742
-26.339
-26.893
-27.398
-27.847
-28.237
-28.563
-28.819
-29.003
-29.111
-29.142
-29.094
-28.967
-28.76
-28.474
-28.108
-27.664
-27.144
-26.55
-25.883
-25.147
-24.345
-23.484
-22.57
-21.608
-20.605
-19.568
-18.503
-17.418
-16.322
-15.222
-14.125
-13.037
-11.967
-10.924
-9.92
-8.964
-8.059
-7.206
-6.405
-5.654
-4.951
-4.287
-3.647
-3.019
-2.39
-1.75
-1.096
-0.423
0.279
1.017
1.805
2.647
3.536
4.463
5.415
6.376
7.325
8.226
9.022
9.659
10.084
10.241
10.09
9.585
8.685
7.361
5.581
3.314
0.543
-2.747
-6.572
-10.915
-15.773
-21.169
-26.992
-33.061
-39.125
-44.792
-49.726
-53.709
-56.422
-57.49
-56.851
-54.636
-51.242
-47.54
-44.156
-41.409
-39.882
-40.121
-42.147
-45.728
-49.998
-53.193
-54.011
-51.488
-44.109
-30.6
-10.245
17.395
51.493
89.945
130.881
172.049
210.018
241.249
262.0
268.468
258.298
230.195
183.039
117.037
34.117
-62.735
-168.943
-279.033
-388.043
-490.807
-581.965
-657.167
-713.082
-747.626
-760.726
-753.368
-726.985
-684.27
-628.737
-564.19
-494.915
-424.792
-356.702
-293.395
-237.244
-189.699
-151.644
-122.989
-102.536
-88.955
-80.944
-76.726
-74.597
-72.974
-70.286
-65.843
-59.724
-52.154
-43.578
-34.687
-26.098
-18.568
-12.944
-9.498
-8.103
-8.479
-10.137
-12.603
-15.469
-18.235
-20.375
-21.587
-21.75
-20.866
-19.066
-16.456
-13.123
-9.192
-4.804
-0.091
4.834
9.874
14.956
20.0
24.914
29.613
34.014
38.048
41.682
44.91
47.748
50.224
52.377
54.248
55.888
57.357
58.712
60.005
61.284
62.591
63.969
65.464
67.118
68.971
71.048
73.362
75.919
78.72
81.762
85.039
88.538
92.243
96.138
100.21
104.446
108.833
113.356
117.997
122.735
127.551
132.425
137.339
142.27
147.2
152.105
156.966
161.762
166.473
171.076
175.55
179.872
184.019
187.97
191.703
195.197
198.434
201.394
204.06
206.417
208.451
210.15
211.501
212.495
213.125
213.383
213.265
212.768
211.89
210.632
208.994
206.982
204.6
201.856
198.759
195.318
191.546
187.456
183.062
178.382
173.431
168.227
162.791
157.141
151.298
145.284
139.119
132.826
126.426
119.942
113.396
106.809
100.202
93.598
87.016
80.477
74.0
67.604
61.307
55.126
49.078
43.177
37.438
31.874
26.496
21.315
16.34
11.579
7.038
2.723
-1.362
-5.214
-8.833
-12.217
-15.369
-18.289
-20.981
-23.448
-25.696
-27.73
-29.557
-31.183
-32.617
-33.866
-34.94
-35.847
-36.597
-37.199
-37.664
-38.001
-38.221
-38.334
-38.348
-38.275
-38.124
-37.904
-37.623
-37.292
-36.916
-36.505
-36.065
-35.603
-35.125
-34.636
-34.142
-33.646
-33.153
-32.665
-32.187
-31.721
-31.268
-30.831
-30.41
-30.008
-29.625
-29.26
-28.915
-28.589
-28.282
-27.993
-27.721
-27.465
-27.225
-26.999
-26.787
-26.586
-26.395
-26.213
-26.039
-25.871
-25.708
-25.549
-25.393
-25.239
-25.087
-24.935
-24.784
-24.633
-24.482
-24.331
-24.18
-24.029
-23.878
-23.728
-23.579
-23.432
-23.288
-23.147
-23.01
-22.879
-22.753
-22.636
-22.526
-22.427
-22.339
-22.264
-22.202
-22.157
-22.129
-22.12
-22.133
-22.168
-22.228
-22.314
-22.428
-22.572
-22.747
-22.954
-23.195
-23.472
-23.784
-24.134
-24.522
-24.949
-25.414
-25.918
-26.461
-27.042
-27.659
-28.311
-28.996
-29.712
-30.457
-31.228
-32.022
-32.836
-33.665
-34.506
-35.354
-36.204
-37.052
-37.892
-38.719
-39.525
-40.306
-41.055
-41.766
-42.432
-43.047
-43.605
-44.097
-44.519
-44.863
-45.122
-45.292
-45.366
-45.34
-45.209
-44.97
-44.621
-44.159
-43.586
-42.901
-42.106
-41.201
-40.189
-39.075
-37.86
-36.549
-35.147
-33.659
-32.092
-30.453
-28.752
-26.998
-25.201
-23.37
-21.515
-19.648
-17.78
-15.92
-14.079
-12.269
-10.5
-8.784
-7.137
-5.57
-4.09
-2.702
-1.406
-0.2
0.918
1.957
2.932
3.854
4.736
5.589
6.418
7.233
8.044
8.862
9.705
10.582
11.491
12.43
13.384
14.331
15.251
16.108
16.844
17.408
17.75
17.816
17.567
16.958
15.936
14.466
12.514
10.05
7.057
3.518
-0.571
-5.197
-10.321
-15.904
-21.907
-28.205
-34.603
-40.827
-46.492
-51.256
-54.884
-57.066
-57.44
-55.964
-52.774
-48.251
-43.261
-38.459
-34.218
-31.187
-29.927
-30.414
-32.401
-35.074
-36.728
-36.07
-32.019
-22.941
-7.651
14.36
43.246
78.014
116.557
156.852
196.23
230.899
257.244
271.706
271.034
253.309
217.306
162.344
89.416
1.181
-98.656
-205.18
-313.267
-418.151
-514.47
-597.2
-662.595
-708.001
-732.533
-736.936
-722.26
-690.251
-644.142
-587.52
-524.225
-458.362
-392.781
-329.638
-271.484
-220.221
-176.838
-141.978
-115.168
-95.096
-80.98
-71.884
-66.183
-62.465
-59.314
-55.31
-50.028
-43.637
-36.173
-27.943
-19.549
-11.487
-4.488
0.664
3.802
5.093
4.805
3.397
1.318
-1.058
-3.237
-4.714
-5.237
-4.718
-3.188
-0.797
2.346
6.158
10.513
15.272
20.311
25.515
30.79
36.064
41.25
46.251
50.973
55.322
59.246
62.726
65.77
68.408
70.672
72.602
74.246
75.663
76.911
78.045
79.115
80.164
81.241
82.394
83.674
85.131
86.798
88.696
90.836
93.222
95.854
98.729
101.838
105.164
108.696
112.419
116.324
120.401
124.636
129.011
133.509
138.11
142.795
147.544
152.339
157.158
161.981
166.786
171.554
176.264
180.894
185.422
189.823
194.075
198.153
202.034
205.698
209.12
212.282
215.164
217.748
220.019
221.962
223.564
224.815
225.703
226.221
226.364
226.125
225.503
224.497
223.107
221.337
219.191
216.675
213.798
210.569
207.0
203.104
198.896
194.391
189.606
184.559
179.27
173.759
168.047
162.155
156.107
149.925
143.632
137.252
130.806
124.318
117.811
111.306
104.824
98.387
92.014
85.725
79.537
73.469
67.536
61.753
56.135
50.694
45.441
40.387
35.539
30.907
26.495
22.309
18.351
14.625
11.131
7.869
4.838
2.034
-0.546
-2.906
-5.053
-6.994
-8.734
-10.284
-11.65
-12.843
-13.872
-14.747
-15.477
-16.073
-16.546
-16.905
-17.16
-17.322
-17.399
-17.402
-17.339
-17.218
-17.049
-16.838
-16.592
-16.319
-16.025
-15.715
-15.394
-15.068
-14.74
-14.413
-14.091
-13.776
-13.471
-13.177
-12.895
-12.626
-12.37
-12.127
-11.897
-11.679
-11.473
-11.277
-11.09
-10.911
-10.74
-10.574
-10.412
-10.253
-10.097
-9.942
-9.787
-9.632
-9.475
-9.317
-9.157
-8.995
-8.831
-8.665
-8.496
-8.327
-8.155
-7.983
-7.811
-7.64
-7.469
-7.301
-7.135
-6.974
-6.818
-6.668
-6.526
-6.392
-6.269
-6.158
-6.059
-5.975
-5.906
-5.853
-5.817
-5.8
-5.802
-5.823
-5.866
-5.93
-6.016
-6.125
-6.257
-6.412
-6.59
-6.793
-7.02
-7.272
-7.549
-7.851
-8.179
-8.532
-8.911
-9.316
-9.747
-10.203
-10.683
-11.188
-11.715
-12.264
-12.834
-13.422
-14.027
-14.647
-15.281
-15.926
-16.58
-17.24
-17.904
-18.57
-19.233
-19.892
-20.542
-21.181
-21.804
-22.408
-22.99
-23.545
-24.07
-24.559
-25.008
-25.413
-25.769
-26.071
-26.316
-26.499
-26.616
-26.664
-26.641
-26.545
-26.374
-26.128
-25.808
-25.413
-24.945
-24.406
-23.796
-23.119
-22.378
-21.573
-20.71
-19.792
-18.825
-17.814
-16.765
-15.684
-14.577
-13.452
-12.314
-11.173
-10.035
-8.907
-7.793
-6.7
-5.637
-4.614
-3.64
-2.717
-1.844
-1.021
-0.246
0.483
1.174
1.843
2.507
3.179
3.869
4.581
5.318
6.087
6.901
7.772
8.705
9.694
10.725
11.785
12.861
13.935
14.964
15.89
16.648
17.169
17.408
17.329
16.891
16.065
14.803
13.054
10.786
7.972
4.605
0.693
-3.782
-8.861
-14.483
-20.484
-26.603
-32.471
-37.774
-42.292
-45.741
-47.76
-48.107
-46.806
-44.197
-40.957
-37.794
-35.141
-33.401
-33.186
-34.912
-38.494
-43.342
-48.163
-51.345
-51.729
-48.147
-38.958
-22.911
0.62
31.585
68.633
109.686
152.76
195.095
232.8
261.963
278.646
279.399
262.23
225.718
168.976
92.866
0.002
-105.706
-218.962
-334.241
-446.414
-549.711
-638.663
-709.094
-757.981
-784.272
-788.735
-772.528
-737.561
-687.307
-625.667
-556.86
-485.392
-414.437
-346.387
-284.011
-229.376
-183.566
-147.253
-119.897
-100.047
-86.777
-79.001
-74.895
-72.86
-71.314
-68.698
-64.527
-58.97
-52.062
-44.132
-35.844
-27.759
-20.672
-15.436
-12.23
-10.865
-11.076
-12.393
-14.35
-16.567
-18.53
-19.712
-19.869
-18.93
-16.943
-14.077
-10.454
-6.166
-1.358
3.814
9.213
14.711
20.214
25.654
30.944
35.991
40.706
45.001
48.833
52.195
55.098
57.575
59.662
61.401
62.846
64.06
65.104
66.035
66.906
67.761
68.649
69.621
70.725
72.009
73.503
75.227
77.191
79.397
81.847
84.537
87.458
90.595
93.934
97.465
101.177
105.059
109.098
113.277
117.58
121.986
126.477
131.036
135.643
140.278
144.922
149.553
154.152
158.698
163.172
167.549
171.807
175.922
179.873
183.637
187.192
190.517
193.594
196.404
198.93
201.158
203.074
204.665
205.921
206.833
207.394
207.597
207.439
206.917
206.031
204.781
203.171
201.205
198.888
196.23
193.239
189.926
186.304
182.386
178.187
173.724
169.013
164.074
158.925
153.586
148.077
142.421
136.637
130.747
124.774
118.738
112.66
106.561
100.461
94.381
88.34
82.356
76.447
70.63
64.921
59.337
53.89
48.595
43.464
38.507
33.735
29.156
24.777
20.605
16.645
12.901
9.374
6.068
2.98
0.112
-2.54
-4.978
-7.206
-9.23
-11.056
-12.689
-14.136
-15.406
-16.507
-17.447
-18.236
-18.882
-19.394
-19.784
-20.059
-20.231
-20.308
-20.301
-20.218
-20.069
-19.862
-19.607
-19.311
-18.982
-18.629
-18.257
-17.874
-17.486
-17.098
-16.715
-16.342
-15.982
-15.64
-15.319
-15.02
-14.746
-14.499
-14.28
-14.089
-13.928
-13.796
-13.693
-13.619
-13.573
-13.554
-13.562
-13.594
-13.65
-13.728
-13.826
-13.943
-14.077
-14.226
-14.388
-14.562
-14.746
-14.938
-15.136
-15.34
-15.548
-15.758
-15.97
-16.183
-16.395
-16.606
-16.815
-17.023
-17.228
-17.43
-17.629
-17.826
-18.02
-18.212
-18.402
-18.591
-18.779
-18.967
-19.155
-19.345
-19.538
-19.734
-19.935
-20.142
-20.355
-20.577
-20.808
-21.051
-21.304
-21.571
-21.851
-22.145
-22.454
-22.778
-23.116
-23.469
-23.835
-24.215
-24.608
-25.013
-25.428
-25.853
-26.286
-26.724
-27.167
-27.611
-28.055
-28.494
-28.927
-29.351
-29.761
-30.155
-30.529
-30.879
-31.201
-31.491
-31.744
-31.956
-32.122
-32.237
-32.299
-32.303
-32.246
-32.124
-31.937
-31.681
-31.358
-30.968
-30.509
-29.983
-29.391
-28.734
-28.014
-27.233
-26.394
-25.5
-24.554
-23.563
-22.532
-21.469
-20.381
-19.275
-18.158
-17.038
-15.923
-14.822
-13.738
-12.682
-11.663
-10.69
-9.778
-8.935
-8.167
-7.474
-6.859
-6.316
-5.84
-5.421
-5.043
-4.693
-4.361
-4.04
-3.728
-3.416
-3.092
-2.745
-2.358
-1.922
-1.436
-0.905
-0.334
0.259
0.848
1.4
1.863
2.194
2.358
2.321
2.053
1.511
0.652
-0.569
-2.188
-4.227
-6.701
-9.634
-13.043
-16.927
-21.277
-26.044
-31.179
-36.69
-42.489
-48.415
-54.242
-59.592
-64.132
-67.651
-69.835
-70.308
-69.002
-66.029
-61.778
-57.125
-52.719
-48.915
-46.341
-45.577
-46.668
-49.393
-52.887
-55.403
-55.607
-52.489
-44.57
-30.562
-9.747
18.252
52.703
91.592
132.973
174.565
213.065
244.93
266.508
274.116
265.064
237.768
191.09
125.094
41.483
-56.841
-165.576
-279.472
-393.143
-501.069
-597.742
-678.501
-739.754
-779.2
-796.346
-791.833
-767.236
-725.325
-669.606
-604.017
-532.918
-460.313
-389.348
-322.998
-263.706
-213.07
-172.165
-141.002
-118.485
-103.302
-94.116
-89.13
-86.589
-84.789
-81.988
-77.362
-70.909
-62.824
-53.541
-43.732
-34.026
-25.242
-18.329
-13.646
-11.109
-10.457
-11.202
-12.87
-15.058
-17.245
-18.862
-19.575
-19.241
-17.858
-15.564
-12.472
-8.668
-4.282
0.537
5.65
10.941
16.315
21.701
27.026
32.199
37.133
41.743
45.958
49.739
53.08
55.996
58.516
60.677
62.525
64.11
65.497
66.745
67.909
69.04
70.178
71.372
72.668
74.113
75.75
77.61
79.708
82.052
84.646
87.488
90.573
93.89
97.422
101.153
105.07
109.159
113.408
117.801
122.318
126.94
131.646
136.414
141.225
146.056
150.886
155.692
160.452
165.145
169.749
174.242
178.6
182.801
186.82
190.635
194.224
197.565
200.638
203.424
205.907
208.069
209.899
211.383
212.511
213.274
213.665
213.678
213.31
212.56
211.427
209.914
208.024
205.763
203.138
200.159
196.837
193.183
189.212
184.939
180.381
175.555
170.481
165.179
159.668
153.972
148.111
142.109
135.987
129.77
123.48
117.141
110.774
104.401
98.046
91.727
85.466
79.283
73.195
67.221
61.377
55.678
50.139
44.774
39.594
34.61
29.83
25.264
20.916
16.793
12.898
9.234
5.8
2.598
-0.375
-3.121
-5.645
-7.95
-10.044
-11.933
-13.625
-15.128
-16.451
-17.604
-18.597
-19.441
-20.146
-20.723
-21.183
-21.538
-21.797
-21.972
-22.073
-22.11
-22.094
-22.034
-21.938
-21.815
-21.674
-21.52
-21.361
-21.202
-21.048
-20.905
-20.775
-20.662
-20.567
-20.494
-20.444
-20.415
-20.41
-20.427
-20.466
-20.525
-20.603
-20.697
-20.805
-20.925
-21.054
-21.189
-21.327
-21.466
-21.601
-21.731
-21.853
-21.962
-22.058
-22.137
-22.198
-22.238
-22.256
-22.25
-22.219
-22.163
-22.082
-21.976
-21.844
-21.688
-21.509
-21.308
-21.086
-20.846
-20.588
-20.315
-20.03
-19.734
-19.431
-19.123
-18.814
-18.504
-18.199
-17.901
-17.611
-17.334
-17.073
-16.829
-16.607
-16.408
-16.234
-16.09
-15.976
-15.894
-15.846
-15.834
-15.858
-15.919
-16.016
-16.149
-16.319
-16.523
-16.76
-17.03
-17.33
-17.658
-18.012
-18.39
-18.789
-19.205
-19.637
-20.079
-20.529
-20.983
-21.436
-21.885
-22.326
-22.754
-23.164
-23.552
-23.914
-24.244
-24.537
-24.788
-24.994
-25.15
-25.251
-25.294
-25.278
-25.198
-25.055
-24.847
-24.574
-24.238
-23.839
-23.378
-22.858
-22.28
-21.647
-20.961
-20.226
-19.445
-18.622
-17.762
-16.87
-15.954
-15.017
-14.067
-13.109
-12.15
-11.198
-10.259
-9.339
-8.441
-7.572
-6.739
-5.953
-5.218
-4.537
-3.907
-3.325
-2.789
-2.294
-1.829
-1.377
-0.92
-0.443
0.065
0.606
1.186
1.808
2.487
3.236
4.059
4.949
5.893
6.876
7.886
8.905
9.89
10.78
11.511
12.016
12.251
12.183
11.776
11.006
9.829
8.193
6.068
3.428
0.26
-3.425
-7.651
-12.465
-17.804
-23.497
-29.274
-34.749
-39.602
-43.617
-46.514
-47.935
-47.664
-45.762
-42.618
-38.972
-35.568
-32.84
-31.2
-31.254
-33.362
-37.364
-42.558
-47.529
-50.591
-50.55
-46.195
-35.87
-18.372
6.824
39.523
78.213
120.719
164.983
208.163
246.307
275.504
291.888
292.133
274.375
237.264
179.97
103.427
10.304
-95.47
-208.645
-323.789
-435.838
-539.018
-627.842
-698.11
-746.765
-772.706
-776.603
-759.491
-723.229
-671.337
-607.82
-537.022
-463.583
-390.818
-321.292
-257.947
-202.929
-157.274
-121.509
-94.926
-75.914
-63.39
-56.1
-52.066
-49.611
-47.199
-43.412
-37.917
-31.007
-22.828
-13.809
-4.7
3.888
11.179
16.412
19.486
20.648
20.205
18.649
16.467
14.058
11.93
10.58
10.233
10.948
12.677
15.26
18.583
22.555
27.041
31.891
36.974
42.17
47.384
52.55
57.58
62.382
66.864
70.938
74.559
77.717
80.423
82.709
84.611
86.169
87.438
88.48
89.358
90.131
90.85
91.56
92.31
93.151
94.132
95.302
96.694
98.326
100.208
102.346
104.737
107.379
110.262
113.368
116.683
120.195
123.891
127.759
131.786
135.951
140.236
144.621
149.085
153.607
158.168
162.745
167.317
171.862
176.358
180.786
185.122
189.343
193.426
197.346
201.08
204.607
207.903
210.948
213.723
216.208
218.388
220.248
221.775
222.956
223.783
224.246
224.339
224.057
223.397
222.359
220.942
219.148
216.983
214.453
211.564
208.327
204.752
200.852
196.641
192.134
187.349
182.302
177.012
171.499
165.783
159.885
153.827
147.631
141.319
134.913
128.436
121.909
115.355
108.794
102.247
95.735
89.276
82.89
76.595
70.407
64.342
58.416
52.642
47.034
41.603
36.358
31.31
26.466
21.833
17.416
13.219
9.245
5.496
1.973
-1.327
-4.403
-7.259
-9.899
-12.328
-14.55
-16.573
-18.404
-20.049
-21.518
-22.818
-23.959
-24.95
-25.8
-26.519
-27.117
-27.604
-27.988
-28.28
-28.489
-28.624
-28.694
-28.707
-28.672
-28.595
-28.485
-28.347
-28.189
-28.016
-27.833
-27.644
-27.456
-27.27
-27.09
-26.919
-26.758
-26.611
-26.477
-26.358
-26.255
-26.167
-26.094
-26.036
-25.993
-25.962
-25.943
-25.935
-25.936
-25.945
-25.959
-25.978
-25.999
-26.021
-26.042
-26.06
-26.075
-26.084
-26.087
-26.082
-26.068
-26.045
-26.012
-25.968
-25.914
-25.848
-25.772
-25.685
-25.587
-25.48
-25.365
-25.241
-25.11
-24.974
-24.833
-24.69
-24.544
-24.398
-24.254
-24.113
-23.977
-23.848
-23.728
-23.618
-23.521
-23.439
-23.373
-23.325
-23.297
-23.292
-23.31
-23.353
-23.424
-23.522
-23.651
-23.81
-24.002
-24.225
-24.482
-24.771
-25.093
-25.448
-25.834
-26.252
-26.699
-27.176
-27.679
-28.209
-28.762
-29.338
-29.933
-30.546
-31.174
-31.813
-32.462
-33.115
-33.771
-34.425
-35.074
-35.714
-36.34
-36.949
-37.535
-38.094
-38.622
-39.115
-39.568
-39.977
-40.338
-40.647
-40.903
-41.102
-41.243
-41.324
-41.346
-41.308
-41.211
-41.053
-40.838
-40.565
-40.236
-39.853
-39.417
-38.93
-38.394
-37.815
-37.195
-36.54
-35.852
-35.137
-34.4
-33.645
-32.879
-32.106
-31.33
-30.553
-29.779
-29.015
-28.267
-27.54
-26.833
-26.143
-25.465
-24.797
-24.133
-23.462
-22.769
-22.037
-21.25
-20.402
-19.49
-18.51
-17.459
-16.324
-15.094
-13.768
-12.354
-10.866
-9.32
-7.725
-6.1
-4.486
-2.938
-1.517
-0.284
0.722
1.469
1.92
2.05
1.812
1.157
0.053
-1.529
-3.603
-6.166
-9.25
-12.907
-17.085
-21.628
-26.29
-30.712
-34.598
-37.75
-39.901
-40.702
-39.941
-37.679
-34.289
-30.482
-26.976
-24.181
-22.489
-22.5
-24.594
-28.629
-33.941
-39.164
-42.658
-43.287
-39.904
-30.867
-14.936
8.453
39.166
75.78
116.184
158.441
199.882
236.632
264.76
280.525
280.679
263.116
226.426
169.749
93.468
1.129
-102.476
-213.579
-326.998
-439.999
-549.821
-647.483
-726.28
-779.64
-801.591
-796.662
-769.658
-725.182
-670.795
-607.864
-538.137
-465.731
-392.556
-322.569
-259.729
-205.617
-161.365
-127.228
-102.115
-84.594
-73.447
-67.072
-63.68
-61.783
-59.872
-56.637
-51.705
-45.258
-37.524
-29.054
-20.51
-12.435
-5.578
-0.639
2.234
3.231
2.683
1.094
-1.064
-3.397
-5.413
-6.634
-6.828
-5.93
-3.993
-1.178
2.388
6.604
11.329
16.411
21.716
27.12
32.527
37.867
43.053
47.993
52.599
56.79
60.521
63.787
66.601
68.996
71.01
72.686
74.08
75.254
76.269
77.184
78.05
78.913
79.821
80.823
81.967
83.299
84.849
86.633
88.662
90.937
93.457
96.218
99.209
102.414
105.819
109.412
113.181
117.115
121.2
125.416
129.747
134.172
138.673
143.23
147.823
152.432
157.036
161.614
166.146
170.611
174.988
179.253
183.384
187.357
191.149
194.739
198.106
201.228
204.086
206.662
208.941
210.907
212.548
213.852
214.807
215.407
215.643
215.512
215.009
214.132
212.883
211.262
209.274
206.925
204.22
201.169
197.783
194.073
190.053
185.739
181.145
176.29
171.193
165.871
160.347
154.64
148.772
142.766
136.644
130.428
124.142
117.806
111.444
105.078
98.727
92.415
86.159
79.981
73.898
67.928
62.088
56.394
50.86
45.501
40.327
35.35
30.58
26.026
21.693
17.588
13.715
10.077
6.675
3.51
0.581
-2.115
-4.581
-6.822
-8.843
-10.65
-12.251
-13.654
-14.868
-15.902
-16.767
-17.473
-18.031
-18.452
-18.747
-18.927
-19.003
-18.988
-18.892
-18.727
-18.502
-18.229
-17.917
-17.576
-17.215
-16.843
-16.467
-16.095
-15.733
-15.388
-15.064
-14.767
-14.5
-14.267
-14.071
-13.913
-13.795
-13.718
-13.682
-13.688
-13.734
-13.819
-13.942
-14.101
-14.293
-14.517
-14.769
-15.047
-15.348
-15.668
-16.004
-16.353
-16.712
-17.076
-17.443
-17.81
-18.173
-18.53
-18.877
-19.212
-19.534
-19.839
-20.125
-20.393
-20.638
-20.862
-21.063
-21.239
-21.392
-21.52
-21.624
-21.704
-21.761
-21.796
-21.808
-21.801
-21.774
-21.729
-21.668
-21.593
-21.505
-21.407
-21.3
-21.187
-21.07
-20.951
-20.833
-20.718
-20.608
-20.506
-20.414
-20.333
-20.266
-20.214
-20.179
-20.161
-20.162
-20.182
-20.222
-20.282
-20.362
-20.463
-20.584
-20.725
-20.885
-21.063
-21.257
-21.467
-21.691
-21.926
-22.172
-22.425
-22.684
-22.945
-23.206
-23.465
-23.716
-23.958
-24.187
-24.398
-24.589
-24.756
-24.895
-25.005
-25.082
-25.125
-25.133
-25.103
-25.037
-24.935
-24.796
-24.621
-24.411
-24.168
-23.892
-23.586
-23.25
-22.887
-22.501
-22.094
-21.671
-21.236
-20.794
-20.347
-19.902
-19.46
-19.029
-18.612
-18.213
-17.835
-17.482
-17.159
-16.876
-16.634
-16.434
-16.27
-16.139
-16.033
-15.945
-15.865
-15.775
-15.66
-15.505
-15.298
-15.033
-14.703
-14.301
-13.812
-13.222
-12.525
-11.722
-10.828
-9.858
-8.825
-7.75
-6.669
-5.636
-4.704
-3.929
-3.361
-3.036
-2.999
-3.287
-3.934
-4.979
-6.459
-8.399
-10.816
-13.725
-17.116
-20.997
-25.395
-30.208
-35.25
-40.255
-44.827
-48.627
-51.433
-52.925
-52.713
-50.748
-47.191
-42.488
-37.608
-33.27
-29.851
-28.004
-28.32
-30.767
-35.044
-40.18
-44.201
-45.631
-43.344
-35.613
-21.066
0.939
30.713
67.251
108.193
151.464
194.555
233.64
264.893
284.588
289.069
275.948
243.978
192.176
120.664
32.663
-67.587
-176.551
-288.982
-402.19
-513.64
-614.539
-698.31
-758.388
-788.357
-792.107
-773.902
-737.545
-689.759
-631.67
-564.658
-492.693
-418.174
-345.165
-277.959
-218.837
-169.398
-130.367
-101.241
-80.827
-67.823
-60.708
-57.457
-56.21
-55.292
-53.114
-49.027
-43.129
-35.64
-27.069
-18.202
-9.724
-2.432
2.839
5.867
6.831
6.056
4.07
1.398
-1.519
-4.153
-5.971
-6.71
-6.287
-4.741
-2.234
1.109
5.189
9.864
14.977
20.389
25.975
31.631
37.277
42.816
48.143
53.161
57.776
61.938
65.63
68.861
71.66
74.063
76.114
77.864
79.375
80.708
81.922
83.068
84.195
85.351
86.588
87.955
89.5
91.254
93.237
95.456
97.914
100.608
103.533
106.679
110.029
113.568
117.283
121.161
125.193
129.364
133.656
138.051
142.529
147.073
151.663
156.281
160.907
165.521
170.104
174.635
179.096
183.465
187.721
191.842
195.805
199.587
203.168
206.527
209.644
212.5
215.077
217.36
219.335
220.989
222.309
223.285
223.91
224.176
224.079
223.613
222.778
221.572
219.998
218.058
215.758
213.103
210.101
206.763
203.1
199.123
194.847
190.288
185.461
180.384
175.075
169.555
163.843
157.959
151.926
145.764
139.497
133.145
126.73
120.275
113.8
107.326
100.874
94.465
88.116
81.848
75.677
69.62
63.695
57.915
52.294
46.845
41.58
36.509
31.641
26.984
22.545
18.328
14.339
10.578
7.049
3.751
0.683
-2.157
-4.772
-7.167
-9.347
-11.318
-13.087
-14.662
-16.051
-17.263
-18.309
-19.197
-19.938
-20.543
-21.022
-21.386
-21.646
-21.813
-21.897
-21.909
-21.859
-21.756
-21.61
-21.431
-21.226
-21.005
-20.775
-20.543
-20.315
-20.097
-19.896
-19.716
-19.56
-19.433
-19.337
-19.275
-19.249
-19.261
-19.31
-19.397
-19.523
-19.686
-19.886
-20.121
-20.389
-20.689
-21.018
-21.374
-21.754
-22.156
-22.577
-23.014
-23.464
-23.925
-24.393
-24.867
-25.343
-25.82
-26.294
-26.763
-27.226
-27.681
-28.126
-28.559
-28.98
-29.388
-29.781
-30.158
-30.521
-30.868
-31.199
-31.515
-31.816
-32.104
-32.379
-32.642
-32.895
-33.139
-33.376
-33.608
-33.836
-34.063
-34.291
-34.522
-34.757
-35.0
-35.251
-35.513
-35.787
-36.075
-36.379
-36.698
-37.035
-37.389
-37.761
-38.152
-38.56
-38.986
-39.43
-39.89
-40.365
-40.855
-41.358
-41.871
-42.393
-42.92
-43.451
-43.981
-44.508
-45.028
-45.537
-46.031
-46.506
-46.956
-47.379
-47.768
-48.119
-48.426
-48.687
-48.896
-49.049
-49.143
-49.175
-49.143
-49.045
-48.881
-48.649
-48.351
-47.985
-47.553
-47.056
-46.495
-45.872
-45.189
-44.448
-43.653
-42.809
-41.921
-40.996
-40.037
-39.051
-38.045
-37.025
-35.997
-34.969
-33.946
-32.933
-31.938
-30.968
-30.034
-29.141
-28.292
-27.486
-26.721
-25.99
-25.292
-24.615
-23.944
-23.267
-22.57
-21.844
-21.085
-20.287
-19.443
-18.545
-17.577
-16.532
-15.415
-14.233
-12.998
-11.733
-10.453
-9.188
-7.993
-6.913
-5.999
-5.306
-4.861
-4.7
-4.863
-5.372
-6.27
-7.602
-9.388
-11.659
-14.427
-17.671
-21.409
-25.673
-30.387
-35.406
-40.491
-45.278
-49.477
-52.883
-55.224
-56.159
-55.47
-53.199
-49.718
-45.732
-41.95
-38.79
-36.618
-36.015
-37.384
-40.6
-45.025
-49.327
-51.881
-51.594
-47.427
-37.828
-21.577
1.919
32.637
69.248
109.694
152.172
194.202
232.065
261.906
279.899
282.583
267.701
233.681
179.377
104.911
13.507
-90.248
-202.481
-317.945
-433.824
-547.108
-648.667
-731.648
-789.25
-815.477
-814.738
-791.402
-749.633
-696.793
-634.369
-564.261
-490.877
-416.22
-344.088
-278.843
-222.527
-176.412
-140.913
-114.958
-96.916
-85.65
-79.71
-76.964
-75.634
-74.104
-70.927
-65.795
-59.044
-50.857
-41.734
-32.504
-23.834
-16.537
-11.388
-8.47
-7.518
-8.207
-10.023
-12.459
-15.092
-17.399
-18.878
-19.31
-18.639
-16.92
-14.314
-10.938
-6.886
-2.3
2.669
7.888
13.233
18.608
23.942
29.144
34.118
38.77
43.012
46.799
50.12
52.986
55.43
57.486
59.196
60.615
61.806
62.833
63.754
64.623
65.484
66.39
67.389
68.533
69.87
71.431
73.234
75.29
77.602
80.17
82.989
86.049
89.334
92.829
96.522
100.4
104.452
108.664
113.016
117.492
122.069
126.73
131.453
136.22
141.008
145.797
150.566
155.294
159.96
164.543
169.018
173.364
177.556
181.572
185.389
188.986
192.343
195.439
198.258
200.782
202.998
204.892
206.452
207.668
208.532
209.037
209.177
208.951
208.354
207.389
206.055
204.358
202.301
199.893
197.14
194.055
190.647
186.931
182.92
178.631
174.08
169.284
164.264
159.037
153.626
148.049
142.329
136.488
130.546
124.526
118.449
112.337
106.21
100.089
93.993
87.944
81.958
76.055
70.251
64.564
59.008
53.6
48.351
43.276
38.385
33.688
29.195
24.914
20.852
17.013
13.402
10.022
6.876
3.962
1.282
-1.167
-3.388
-5.383
-7.157
-8.716
-10.066
-11.213
-12.164
-12.929
-13.515
-13.93
-14.185
-14.288
-14.25
-14.079
-13.787
-13.382
-12.875
-12.276
-11.594
-10.84
-10.021
-9.148
-8.229
-7.272
-6.286
-5.277
-4.254
-3.222
-2.188
-1.157
-0.135
0.874
1.865
2.835
3.78
4.698
5.586
6.442
7.265
8.052
8.804
9.519
10.197
10.839
11.443
12.012
12.544
13.041
13.503
13.932
14.329
14.694
15.03
15.337
15.616
15.869
16.097
16.301
16.482
16.642
16.781
16.901
17.002
17.086
17.153
17.203
17.239
17.259
17.265
17.256
17.233
17.195
17.144
17.078
16.997
16.902
16.792
16.666
16.524
16.365
16.19
15.997
15.786
15.558
15.312
15.047
14.765
14.466
14.149
13.816
13.468
13.103
12.725
12.332
11.927
11.51
11.083
10.646
10.202
9.751
9.298
8.842
8.387
7.935
7.488
7.049
6.621
6.208
5.811
5.435
5.082
4.756
4.461
4.199
3.973
3.785
3.637
3.53
3.464
3.439
3.455
3.512
3.607
3.742
3.913
4.12
4.362
4.636
4.94
5.272
5.627
6.0
6.386
6.782
7.18
7.578
7.97
8.35
8.713
9.056
9.374
9.661
9.911
10.115
10.268
10.369
10.422
10.429
10.399
10.336
10.254
10.169
10.095
10.044
10.025
10.044
10.111
10.235
10.428
10.706
11.075
11.531
12.069
12.681
13.347
14.048
14.754
15.415
15.99
16.441
16.726
16.806
16.637
16.169
15.364
14.196
12.634
10.658
8.242
5.365
2.019
-1.776
-6.011
-10.699
-15.758
-21.033
-26.279
-31.11
-35.183
-38.272
-40.057
-40.155
-38.509
-35.268
-30.86
-26.218
-22.039
-18.694
-16.827
-17.036
-19.321
-23.397
-28.315
-32.167
-33.522
-31.298
-23.831
-9.743
11.708
40.93
77.006
117.649
160.817
204.05
243.646
275.845
296.728
302.373
290.416
259.615
208.937
138.762
51.261
-50.351
-161.252
-275.76
-388.792
-495.061
-589.115
-666.583
-724.124
-759.646
-773.107
-765.496
-738.233
-694.04
-636.468
-569.361
-497.119
-423.75
-352.277
-285.64
-226.403
-176.191
-136.05
-105.985
-84.815
-71.181
-63.706
-60.484
-59.647
-59.427
-58.068
-54.755
-49.506
-42.52
-34.25
-25.424
-16.725
-9.003
-3.199
0.355
1.767
1.321
-0.481
-3.142
-6.232
-9.22
-11.548
-12.897
-13.143
-12.302
-10.515
-7.903
-4.558
-0.612
3.786
8.5
13.414
18.43
23.473
28.464
33.308
37.917
42.208
46.112
49.593
52.65
55.3
57.574
59.512
61.156
62.56
63.785
64.888
65.925
66.945
67.989
69.104
70.335
71.727
73.321
75.141
77.202
79.508
82.061
84.857
87.89
91.147
94.612
98.268
102.103
106.102
110.254
114.542
118.947
123.451
128.033
132.672
137.35
142.046
146.739
151.406
156.028
160.582
165.047
169.403
173.626
177.691
181.578
185.261
188.721
191.936
194.885
197.549
199.912
201.956
203.668
205.036
206.047
206.693
206.965
206.857
206.365
205.486
204.218
202.564
200.524
198.105
195.311
192.15
188.633
184.771
180.576
176.062
171.245
166.143
160.773
155.155
149.309
143.256
137.018
130.619
124.079
117.424
110.677
103.86
96.997
90.112
83.227
76.363
69.543
62.787
56.115
49.546
43.1
36.792
30.64
24.658
18.86
13.259
7.865
2.69
-2.259
-6.975
-11.451
-15.684
-19.67
-23.409
-26.899
-30.143
-33.141
-35.899
-38.421
-40.712
-42.78
-44.632
-46.276
-47.721
-48.978
-50.056
-50.966
-51.718
-52.324
-52.795
-53.142
-53.376
-53.508
-53.55
-53.511
-53.402
-53.233
-53.014
-52.753
-52.459
-52.14
-51.803
-51.456
-51.103
-50.752
-50.407
-50.073
-49.752
-49.448
-49.164
-48.901
-48.662
-48.446
-48.254
-48.088
-47.945
-47.827
-47.733
-47.661
-47.61
-47.581
-47.57
-47.578
-47.603
-47.643
-47.698
-47.767
-47.848
-47.94
-48.044
-48.159
-48.284
-48.419
-48.565
-48.72
-48.887
-49.064
-49.254
-49.456
-49.672
-49.903
-50.151
-50.416
-50.7
-51.005
-51.332
-51.682
-52.055
-52.453
-52.876
-53.324
-53.797
-54.296
-54.819
-55.366
-55.936
-56.528
-57.14
-57.77
-58.417
-59.078
-59.75
-60.431
-61.116
-61.804
-62.49
-63.17
-63.84
-64.498
-65.137
-65.754
-66.345
-66.903
-67.425
-67.906
-68.341
-68.725
-69.055
-69.328
-69.54
-69.689
-69.773
-69.792
-69.746
-69.634
-69.459
-69.22
-68.921
-68.561
-68.145
-67.676
-67.154
-66.585
-65.973
-65.324
-64.642
-63.935
-63.208
-62.467
-61.718
-60.967
-60.22
-59.486
-58.767
-58.07
-57.4
-56.765
-56.173
-55.632
-55.141
-54.697
-54.296
-53.933
-53.6
-53.286
-52.975
-52.648
-52.292
-51.894
-51.447
-50.946
-50.381
-49.736
-48.997
-48.155
-47.21
-46.176
-45.066
-43.892
-42.676
-41.451
-40.275
-39.201
-38.283
-37.568
-37.088
-36.882
-36.983
-37.422
-38.235
-39.453
-41.098
-43.178
-45.706
-48.667
-52.064
-55.913
-60.107
-64.459
-68.712
-72.498
-75.502
-77.522
-78.264
-77.354
-74.745
-70.582
-65.279
-59.733
-54.603
-50.224
-47.197
-46.088
-46.912
-49.438
-52.79
-55.151
-55.154
-51.752
-43.354
-28.68
-7.045
21.934
57.37
97.109
139.181
181.156
219.46
250.507
270.591
276.071
264.728
235.33
186.948
120.095
36.977
-59.177
-163.692
-271.204
-376.826
-475.422
-561.862
-632.142
-683.339
-713.835
-723.865
-714.539
-687.448
-645.408
-591.87
-530.448
-465.105
-399.272
-335.481
-276.209
-223.52
-178.605
-142.194
-114.146
-93.36
-78.71
-69.073
-62.862
-58.589
-54.88
-50.344
-44.401
-37.151
-28.779
-19.676
-10.47
-1.693
5.984
11.802
15.539
17.33
17.438
16.321
14.426
12.131
9.904
8.242
7.432
7.597
8.743
10.751
13.526
16.989
21.023
25.494
30.276
35.258
40.348
45.475
50.565
55.53
60.286
64.756
68.87
72.594
75.924
78.872
81.469
83.751
85.761
87.549
89.177
90.7
92.173
93.642
95.15
96.738
98.453
100.337
102.431
104.76
107.339
110.173
113.264
116.608
120.198
124.021
128.06
132.295
136.713
141.299
146.036
150.908
155.894
160.972
166.118
171.31
176.527
181.744
186.939
192.086
197.163
202.146
207.013
211.74
216.303
220.677
224.838
228.763
232.43
235.817
238.903
241.671
244.103
246.184
247.901
249.243
250.199
250.762
250.926
250.688
250.044
248.994
247.541
245.688
243.441
240.806
237.794
234.414
230.681
226.607
222.209
217.505
212.512
207.25
201.74
196.004
190.063
183.941
177.662
171.249
164.726
158.118
151.449
144.742
138.021
131.309
124.627
117.998
111.442
104.978
98.627
92.404
86.328
80.413
74.674
69.124
63.774
58.635
53.716
49.024
44.566
40.345
36.366
32.631
29.14
25.892
22.887
20.12
17.588
15.285
13.205
11.342
9.686
8.23
6.965
5.88
4.965
4.209
3.603
3.134
2.792
2.565
2.442
2.413
2.466
2.591
2.779
3.018
3.301
3.617
3.959
4.319
4.689
5.062
5.434
5.797
6.147
6.479
6.79
7.077
7.336
7.566
7.764
7.93
8.063
8.163
8.229
8.262
8.262
8.231
8.168
8.076
7.956
7.809
7.636
7.439
7.219
6.978
6.717
6.438
6.14
5.826
5.496
5.151
4.793
4.421
4.036
3.64
3.234
2.817
2.392
1.958
1.517
1.069
0.615
0.155
-0.309
-0.777
-1.248
-1.72
-2.192
-2.664
-3.132
-3.596
-4.054
-4.503
-4.943
-5.369
-5.781
-6.175
-6.549
-6.9
-7.224
-7.519
-7.781
-8.009
-8.198
-8.349
-8.457
-8.523
-8.546
-8.526
-8.464
-8.359
-8.213
-8.026
-7.801
-7.538
-7.24
-6.908
-6.545
-6.154
-5.739
-5.306
-4.859
-4.403
-3.941
-3.481
-3.026
-2.583
-2.158
-1.754
-1.375
-1.026
-0.715
-0.449
-0.235
-0.071
0.044
0.112
0.137
0.126
0.088
0.039
-0.004
-0.028
-0.021
0.025
0.118
0.268
0.487
0.791
1.186
1.67
2.235
2.874
3.572
4.312
5.061
5.767
6.377
6.84
7.1
7.116
6.838
6.224
5.242
3.855
2.024
-0.273
-3.057
-6.349
-10.135
-14.42
-19.228
-24.456
-29.928
-35.399
-40.487
-44.866
-48.326
-50.55
-51.165
-50.105
-47.486
-43.684
-39.539
-35.652
-32.326
-30.136
-29.62
-30.805
-33.474
-36.795
-39.057
-38.995
-35.649
-27.513
-13.339
7.564
35.6
69.93
108.475
149.349
190.238
227.683
258.154
277.965
283.442
272.334
243.414
195.711
129.621
47.227
-48.368
-152.565
-260.005
-365.832
-465.006
-552.42
-624.03
-676.831
-709.072
-720.913
-713.466
-688.257
-647.979
-595.984
-535.814
-471.414
-406.26
-342.863
-283.625
-230.606
-185.062
-147.839
-118.92
-97.283
-81.842
-71.562
-64.968
-60.648
-57.234
-53.258
-48.05
-41.651
-34.2
-26.034
-17.714
-9.718
-2.699
2.538
5.726
6.973
6.524
4.833
2.339
-0.595
-3.493
-5.83
-7.299
-7.761
-7.203
-5.747
-3.492
-0.515
3.064
7.103
11.469
16.048
20.745
25.487
30.2
34.793
39.18
43.281
47.025
50.378
53.333
55.904
58.12
60.018
61.641
63.039
64.275
65.404
66.479
67.547
68.649
69.829
71.131
72.597
74.268
76.168
78.31
80.701
83.34
86.223
89.343
92.686
96.233
99.969
103.875
107.939
112.145
116.476
120.912
125.431
130.011
134.63
139.268
143.903
148.511
153.072
157.561
161.96
166.245
170.396
174.389
178.202
181.813
185.2
188.343
191.222
193.817
196.113
198.094
199.746
201.057
202.018
202.62
202.855
202.719
202.21
201.324
200.063
198.429
196.426
194.059
191.335
188.264
184.856
181.122
177.077
172.735
168.112
163.225
158.093
152.734
147.168
141.416
135.499
129.439
123.257
116.976
110.618
104.204
97.757
91.298
84.847
78.426
72.053
65.747
59.527
53.409
47.41
41.545
35.827
30.271
24.887
19.687
14.679
9.873
5.276
0.892
-3.272
-7.214
-10.931
-14.422
-17.686
-20.726
-23.543
-26.141
-28.522
-30.693
-32.658
-34.425
-36.0
-37.391
-38.607
-39.655
-40.546
-41.287
-41.889
-42.361
-42.711
-42.95
-43.087
-43.131
-43.091
-42.975
-42.793
-42.551
-42.258
-41.921
-41.548
-41.144
-40.715
-40.268
-39.808
-39.34
-38.867
-38.394
-37.925
-37.463
-37.01
-36.569
-36.142
-35.73
-35.336
-34.96
-34.603
-34.266
-33.949
-33.652
-33.377
-33.122
-32.887
-32.674
-32.482
-32.312
-32.163
-32.035
-31.929
-31.845
-31.784
-31.746
-31.73
-31.739
-31.771
-31.829
-31.911
-32.019
-32.153
-32.313
-32.499
-32.712
-32.95
-33.213
-33.501
-33.813
-34.148
-34.505
-34.882
-35.279
-35.693
-36.124
-36.568
-37.025
-37.49
-37.962
-38.437
-38.912
-39.385
-39.85
-40.304
-40.745
-41.166
-41.566
-41.938
-42.278
-42.583
-42.848
-43.069
-43.242
-43.363
-43.43
-43.44
-43.392
-43.284
-43.115
-42.887
-42.6
-42.255
-41.853
-41.397
-40.889
-40.332
-39.729
-39.084
-38.399
-37.68
-36.933
-36.162
-35.375
-34.577
-33.775
-32.975
-32.183
-31.409
-30.658
-29.936
-29.246
-28.595
-27.989
-27.437
-26.946
-26.514
-26.14
-25.822
-25.556
-25.337
-25.155
-24.993
-24.832
-24.657
-24.456
-24.224
-23.956
-23.642
-23.27
-22.823
-22.296
-21.691
-21.02
-20.292
-19.517
-18.709
-17.907
-17.166
-16.546
-16.112
-15.906
-15.962
-16.317
-16.997
-18.046
-19.519
-21.448
-23.866
-26.786
-30.202
-34.138
-38.644
-43.66
-49.018
-54.458
-59.602
-64.143
-67.88
-70.544
-71.794
-71.429
-69.507
-66.399
-62.81
-59.426
-56.627
-54.778
-54.427
-55.889
-58.998
-63.09
-66.831
-68.672
-67.544
-62.357
-51.596
-34.172
-9.619
21.861
58.838
99.285
141.302
182.216
218.291
245.818
261.103
260.953
243.557
207.568
152.141
78.132
-11.918
-114.241
-223.771
-335.259
-443.814
-543.879
-630.167
-698.632
-746.335
-772.241
-777.049
-761.81
-728.313
-679.885
-620.291
-553.626
-484.28
-415.353
-349.193
-288.516
-235.357
-190.782
-155.446
-128.811
-109.446
-96.428
-88.695
-84.472
-82.213
-80.402
-77.551
-73.213
-67.584
-60.718
-52.947
-44.918
-37.171
-30.465
-25.611
-22.769
-21.746
-22.273
-23.889
-26.138
-28.647
-30.916
-32.428
-32.942
-32.383
-30.791
-28.324
-25.097
-21.195
-16.754
-11.923
-6.833
-1.606
3.667
8.922
14.075
19.036
23.715
28.023
31.913
35.376
38.421
41.078
43.381
45.368
47.091
48.611
49.987
51.275
52.525
53.778
55.082
56.483
58.031
59.771
61.734
63.938
66.392
69.098
72.056
75.259
78.698
82.354
86.212
90.258
94.48
98.864
103.395
108.055
112.823
117.677
122.597
127.563
132.553
137.546
142.518
147.448
152.315
157.097
161.771
166.314
170.702
174.91
178.916
182.696
186.23
189.495
192.473
195.145
197.496
199.512
201.178
202.486
203.424
203.986
204.167
203.962
203.37
202.39
201.025
199.279
197.156
194.665
191.815
188.617
185.083
181.228
177.067
172.617
167.897
162.926
157.724
152.314
146.716
140.954
135.051
129.031
122.916
116.732
110.5
104.245
97.988
91.751
85.556
79.422
73.37
67.418
61.582
55.88
50.327
44.936
39.72
34.692
29.86
25.233
20.82
16.625
12.654
8.909
5.394
2.107
-0.951
-3.783
-6.391
-8.78
-10.956
-12.924
-14.691
-16.266
-17.657
-18.873
-19.923
-20.818
-21.567
-22.18
-22.669
-23.043
-23.312
-23.487
-23.577
-23.593
-23.542
-23.435
-23.279
-23.082
-22.853
-22.598
-22.323
-22.035
-21.739
-21.44
-21.142
-20.849
-20.564
-20.29
-20.028
-19.78
-19.549
-19.333
-19.135
-18.953
-18.788
-18.64
-18.508
-18.391
-18.289
-18.2
-18.123
-18.059
-18.006
-17.963
-17.929
-17.906
-17.891
-17.885
-17.888
-17.9
-17.922
-17.953
-17.994
-18.045
-18.109
-18.184
-18.273
-18.377
-18.496
-18.632
-18.785
-18.956
-19.146
-19.357
-19.587
-19.838
-20.109
-20.4
-20.711
-21.041
-21.39
-21.757
-22.14
-22.538
-22.949
-23.37
-23.799
-24.234
-24.671
-25.106
-25.536
-25.958
-26.367
-26.76
-27.132
-27.478
-27.794
-28.076
-28.318
-28.518
-28.67
-28.771
-28.817
-28.806
-28.736
-28.604
-28.41
-28.154
-27.836
-27.457
-27.018
-26.52
-25.966
-25.359
-24.7
-23.993
-23.241
-22.448
-21.62
-20.763
-19.882
-18.982
-18.071
-17.155
-16.241
-15.335
-14.446
-13.577
-12.733
-11.918
-11.141
-10.409
-9.727
-9.096
-8.514
-7.978
-7.485
-7.032
-6.607
-6.195
-5.779
-5.342
-4.874
-4.372
-3.828
-3.237
-2.585
-1.857
-1.05
-0.169
0.776
1.775
2.818
3.892
4.96
5.965
6.849
7.549
8.022
8.235
8.148
7.733
6.947
5.736
4.067
1.91
-0.752
-3.917
-7.614
-11.892
-16.692
-21.844
-27.09
-32.051
-36.417
-39.984
-42.476
-43.545
-43.0
-40.918
-37.686
-34.032
-30.64
-27.889
-26.151
-25.982
-27.698
-31.117
-35.535
-39.576
-41.668
-40.705
-35.576
-24.75
-7.055
18.012
50.236
88.207
129.766
172.798
214.546
251.169
278.707
293.355
291.757
271.839
232.507
173.329
95.306
1.257
-104.703
-217.412
-331.174
-440.477
-539.933
-624.54
-690.228
-734.367
-756.06
-755.78
-735.092
-696.473
-643.211
-579.249
-509.035
-436.807
-365.929
-299.389
-239.647
-188.464
-147.038
-115.477
-92.743
-77.426
-68.154
-63.206
-60.843
-59.346
-56.922
-52.669
-46.552
-38.797
-29.832
-20.293
-10.806
-2.185
4.578
9.07
11.373
11.756
10.709
8.718
6.186
3.636
1.665
0.627
0.67
1.803
3.884
6.793
10.453
14.735
19.486
24.57
29.86
35.251
40.671
46.038
51.254
56.231
60.876
65.118
68.922
72.284
75.218
77.755
79.934
81.796
83.396
84.796
86.055
87.23
88.371
89.523
90.734
92.052
93.524
95.193
97.084
99.213
101.586
104.205
107.068
110.169
113.496
117.032
120.762
124.673
128.75
132.98
137.348
141.833
146.416
151.074
155.787
160.535
165.296
170.047
174.767
179.432
184.021
188.513
192.885
197.113
201.173
205.041
208.695
212.114
215.275
218.159
220.748
223.024
224.974
226.583
227.84
228.736
229.262
229.412
229.182
228.569
227.573
226.195
224.438
222.306
219.808
216.95
213.744
210.202
206.336
202.162
197.695
192.954
187.957
182.724
177.274
171.63
165.812
159.844
153.748
147.547
141.264
134.921
128.541
122.146
115.757
109.396
103.082
96.835
90.674
84.616
78.678
72.875
67.223
61.734
56.42
51.293
46.362
41.635
37.119
32.821
28.744
24.892
21.267
17.869
14.698
11.752
9.028
6.522
4.23
2.146
0.263
-1.426
-2.929
-4.255
-5.412
-6.411
-7.26
-7.97
-8.552
-9.016
-9.371
-9.629
-9.8
-9.894
-9.921
-9.89
-9.811
-9.693
-9.543
-9.371
-9.183
-8.987
-8.789
-8.594
-8.408
-8.236
-8.082
-7.949
-7.84
-7.757
-7.702
-7.677
-7.683
-7.719
-7.786
-7.883
-8.01
-8.165
-8.348
-8.555
-8.786
-9.038
-9.31
-9.598
-9.902
-10.217
-10.543
-10.876
-11.214
-11.556
-11.898
-12.24
-12.579
-12.914
-13.244
-13.569
-13.887
-14.198
-14.502
-14.799
-15.09
-15.375
-15.655
-15.931
-16.205
-16.478
-16.751
-17.028
-17.309
-17.596
-17.891
-18.195
-18.511
-18.84
-19.182
-19.539
-19.913
-20.303
-20.711
-21.138
-21.583
-22.046
-22.529
-23.028
-23.545
-24.076
-24.621
-25.178
-25.743
-26.314
-26.888
-27.461
-28.03
-28.589
-29.136
-29.664
-30.168
-30.643
-31.083
-31.483
-31.839
-32.144
-32.396
-32.588
-32.719
-32.785
-32.785
-32.717
-32.58
-32.372
-32.093
-31.743
-31.323
-30.834
-30.275
-29.649
-28.959
-28.209
-27.406
-26.554
-25.659
-24.728
-23.768
-22.785
-21.788
-20.784
-19.778
-18.78
-17.797
-16.84
-15.922
-15.051
-14.231
-13.464
-12.749
-12.082
-11.458
-10.867
-10.294
-9.727
-9.157
-8.577
-7.982
-7.369
-6.727
-6.048
-5.321
-4.534
-3.691
-2.798
-1.862
-0.905
0.046
0.96
1.788
2.485
3.015
3.338
3.415
3.217
2.709
1.856
0.64
-0.973
-3.012
-5.493
-8.441
-11.847
-15.674
-19.913
-24.561
-29.544
-34.721
-39.86
-44.616
-48.704
-51.913
-53.977
-54.561
-53.454
-50.711
-46.694
-42.086
-37.594
-33.642
-30.638
-29.207
-29.753
-32.142
-35.746
-39.257
-41.101
-40.205
-35.485
-25.353
-8.596
15.342
46.365
83.116
123.567
165.877
207.464
244.54
273.225
289.764
290.881
274.453
239.002
183.585
108.603
17.515
-84.931
-194.824
-307.059
-418.918
-527.504
-624.074
-702.243
-755.749
-779.084
-776.82
-753.357
-712.842
-662.502
-603.655
-537.894
-469.182
-399.111
-331.09
-269.168
-215.196
-170.358
-135.132
-108.611
-89.408
-76.659
-69.165
-65.03
-62.645
-60.458
-56.999
-51.881
-45.327
-37.414
-28.548
-19.455
-10.728
-3.172
2.406
5.864
7.393
7.289
6.039
4.119
1.93
-0.017
-1.222
-1.449
-0.628
1.192
3.849
7.228
11.231
15.728
20.578
25.653
30.841
36.047
41.2
46.216
51.0
55.465
59.525
63.133
66.277
68.972
71.252
73.157
74.731
76.027
77.107
78.034
78.867
79.658
80.456
81.308
82.267
83.382
84.703
86.264
88.084
90.175
92.54
95.18
98.09
101.261
104.676
108.321
112.18
116.241
120.489
124.909
129.478
134.176
138.979
143.865
148.812
153.798
158.799
163.792
168.754
173.661
178.49
183.215
187.807
192.239
196.482
200.509
204.297
207.821
211.056
213.983
216.583
218.841
220.739
222.261
223.389
224.107
224.409
224.293
223.763
222.829
221.501
219.791
217.721
215.305
212.556
209.482
206.08
202.35
198.299
193.943
189.308
184.421
179.297
173.949
168.39
162.622
156.65
150.477
144.091
137.49
130.698
123.75
116.706
109.638
102.601
95.638
88.785
82.068
75.529
69.206
63.134
57.355
51.913
46.856
42.255
38.163
34.597
31.559
29.013
26.901
25.186
23.837
22.82
22.116
21.694
21.523
21.586
21.857
22.302
22.879
23.522
24.175
24.809
25.409
25.98
26.549
27.125
27.713
28.322
28.952
29.6
30.261
30.92
31.558
32.167
32.746
33.304
33.852
34.386
34.9
35.377
35.794
36.136
36.39
36.539
36.573
36.487
36.277
35.951
35.518
34.983
34.352
33.626
32.807
31.9
30.913
29.852
28.727
27.546
26.32
25.059
23.774
22.473
21.163
19.851
18.54
17.235
15.943
14.666
13.409
12.177
10.974
9.804
8.67
7.576
6.523
5.514
4.547
3.625
2.745
1.907
1.11
0.35
-0.374
-1.065
-1.726
-2.361
-2.973
-3.566
-4.145
-4.712
-5.273
-5.833
-6.394
-6.963
-7.542
-8.135
-8.746
-9.378
-10.034
-10.717
-11.427
-12.167
-12.939
-13.742
-14.58
-15.451
-16.355
-17.293
-18.263
-19.264
-20.293
-21.349
-22.428
-23.527
-24.642
-25.769
-26.904
-28.043
-29.18
-30.31
-31.428
-32.528
-33.604
-34.65
-35.66
-36.628
-37.548
-38.414
-39.223
-39.968
-40.647
-41.256
-41.793
-42.256
-42.645
-42.958
-43.194
-43.355
-43.441
-43.453
-43.393
-43.263
-43.065
-42.804
-42.485
-42.113
-41.694
-41.235
-40.742
-40.223
-39.683
-39.132
-38.576
-38.022
-37.477
-36.949
-36.446
-35.98
-35.561
-35.188
-34.864
-34.587
-34.353
-34.157
-33.991
-33.839
-33.688
-33.526
-33.341
-33.132
-32.891
-32.611
-32.285
-31.894
-31.432
-30.905
-30.315
-29.675
-29.009
-28.331
-27.673
-27.094
-26.637
-26.355
-26.305
-26.514
-27.018
-27.857
-29.048
-30.634
-32.659
-35.141
-38.108
-41.574
-45.512
-49.935
-54.868
-60.227
-65.858
-71.514
-76.824
-81.49
-85.306
-88.0
-89.234
-88.803
-86.759
-83.473
-79.647
-75.972
-72.849
-70.645
-69.918
-71.03
-73.836
-77.685
-81.25
-82.959
-81.744
-76.58
-65.982
-48.815
-24.543
6.742
43.672
84.193
126.452
167.934
205.018
234.02
251.178
253.058
237.67
203.699
150.162
77.659
-11.492
-113.866
-224.598
-338.265
-449.89
-554.046
-645.297
-719.399
-773.176
-804.853
-814.534
-803.13
-772.189
-724.742
-664.558
-595.67
-522.533
-449.006
-378.086
-312.803
-255.6
-207.822
-170.199
-142.411
-123.1
-110.896
-104.359
-101.485
-100.438
-99.599
-97.45
-93.409
-87.621
-80.319
-71.985
-63.382
-55.183
-48.167
-43.141
-40.311
-39.491
-40.364
-42.424
-45.168
-48.172
-50.927
-52.915
-53.883
-53.754
-52.567
-50.481
-47.618
-44.072
-39.976
-35.482
-30.719
-25.806
-20.839
-15.889
-11.045
-6.403
-2.056
1.907
5.436
8.518
11.162
13.401
15.271
16.816
18.088
19.15
20.063
20.886
21.671
22.465
23.315
24.273
25.388
26.712
28.276
30.1
32.196
34.565
37.209
40.122
43.296
46.712
50.357
54.217
58.279
62.534
66.965
71.555
76.284
81.131
86.076
91.097
96.175
101.286
106.408
111.52
116.597
121.62
126.564
131.405
136.119
140.68
145.063
149.245
153.203
156.915
160.358
163.513
166.363
168.891
171.082
172.923
174.402
175.51
176.237
176.579
176.531
176.089
175.253
174.024
172.405
170.401
168.02
165.269
162.16
158.704
154.916
150.81
146.404
141.715
136.764
131.569
126.152
120.536
114.744
108.797
102.721
96.539
90.275
83.953
77.596
71.228
64.871
58.547
52.278
46.086
39.988
34.006
28.156
22.457
16.923
11.569
6.409
1.455
-3.282
-7.795
-12.073
-16.113
-19.907
-23.454
-26.751
-29.796
-32.592
-35.14
-37.442
-39.504
-41.332
-42.93
-44.308
-45.473
-46.434
-47.202
-47.785
-48.196
-48.444
-48.541
-48.499
-48.329
-48.043
-47.652
-47.168
-46.603
-45.966
-45.27
-44.523
-43.737
-42.92
-42.081
-41.229
-40.371
-39.514
-38.665
-37.83
-37.014
-36.221
-35.454
-34.718
-34.015
-33.346
-32.713
-32.117
-31.559
-31.037
-30.553
-30.104
-29.69
-29.309
-28.96
-28.641
-28.349
-28.083
-27.841
-27.62
-27.418
-27.232
-27.061
-26.902
-26.754
-26.613
-26.479
-26.35
-26.224
-26.099
-25.974
-25.849
-25.723
-25.594
-25.463
-25.33
-25.194
-25.055
-24.914
-24.771
-24.628
-24.483
-24.339
-24.197
-24.056
-23.919
-23.787
-23.66
-23.54
-23.428
-23.324
-23.231
-23.149
-23.078
-23.02
-22.976
-22.947
-22.932
-22.933
-22.949
-22.982
-23.031
-23.095
-23.175
-23.268
-23.376
-23.495
-23.625
-23.764
-23.91
-24.063
-24.219
-24.376
-24.533
-24.686
-24.833
-24.972
-25.099
-25.21
-25.304
-25.377
-25.425
-25.446
-25.437
-25.393
-25.312
-25.19
-25.024
-24.812
-24.549
-24.234
-23.865
-23.439
-22.955
-22.412
-21.81
-21.151
-20.435
-19.664
-18.84
-17.966
-17.044
-16.077
-15.07
-14.024
-12.945
-11.835
-10.7
-9.545
-8.377
-7.201
-6.024
-4.851
-3.688
-2.541
-1.419
-0.326
0.734
1.756
2.737
3.671
4.55
5.37
6.131
6.838
7.494
8.104
8.675
9.216
9.747
10.285
10.847
11.444
12.08
12.762
13.497
14.299
15.182
16.15
17.199
18.317
19.491
20.712
21.965
23.212
24.396
25.46
26.341
26.999
27.402
27.513
27.307
26.741
25.766
24.353
22.473
20.114
17.279
13.942
10.055
5.675
0.963
-3.823
-8.306
-12.17
-15.194
-17.095
-17.517
-16.256
-13.391
-9.322
-4.796
-0.576
2.882
5.144
5.585
3.85
0.148
-4.781
-9.487
-12.254
-11.877
-7.13
3.682
21.757
47.545
80.753
119.807
162.48
206.722
249.719
287.482
316.067
331.817
331.646
313.584
276.303
219.069
142.429
50.087
-53.07
-163.308
-275.549
-387.098
-495.194
-590.916
-667.636
-718.961
-739.07
-732.414
-703.734
-657.639
-601.702
-537.473
-466.881
-393.968
-320.619
-251.01
-189.185
-136.845
-95.231
-64.188
-42.22
-27.833
-19.649
-15.768
-14.275
-13.377
-11.286
-7.13
-0.948
6.966
16.158
25.91
35.521
44.153
50.805
55.074
57.069
57.076
55.603
53.156
50.159
47.147
44.715
43.216
42.792
43.448
45.043
47.459
50.615
54.383
58.614
63.176
67.945
72.819
77.727
82.587
87.302
91.783
95.94
99.698
103.021
105.906
108.367
110.434
112.147
113.548
114.692
115.641
116.456
117.194
117.906
118.639
119.439
120.356
121.438
122.73
124.258
126.037
128.077
130.379
132.941
135.758
138.819
142.106
145.604
149.301
153.182
157.236
161.445
165.791
170.253
174.811
179.442
184.127
188.844
193.569
198.281
202.956
207.573
212.107
216.537
220.837
224.982
228.947
232.708
236.242
239.525
242.536
245.254
247.661
249.739
251.474
252.85
253.857
254.483
254.72
254.562
254.003
253.04
251.673
249.902
247.729
245.161
242.202
238.862
235.151
231.081
226.665
221.92
216.862
211.51
205.882
199.999
193.884
187.559
181.048
174.374
167.562
160.638
153.625
146.55
139.436
132.309
125.192
118.108
111.082
104.133
97.285
90.557
83.969
77.539
71.283
65.219
59.359
53.719
48.308
43.137
38.215
33.55
29.145
25.007
21.136
17.534
14.201
11.134
8.33
5.785
3.492
1.445
-0.366
-1.948
-3.312
-4.47
-5.431
-6.209
-6.816
-7.265
-7.569
-7.741
-7.795
-7.744
-7.602
-7.382
-7.097
-6.759
-6.381
-5.974
-5.55
-5.118
-4.688
-4.27
-3.872
-3.501
-3.164
-2.867
-2.614
-2.411
-2.259
-2.163
-2.123
-2.14
-2.216
-2.348
-2.537
-2.781
-3.078
-3.425
-3.819
-4.256
-4.734
-5.247
-5.792
-6.364
-6.959
-7.571
-8.197
-8.831
-9.47
-10.107
-10.741
-11.365
-11.977
-12.574
-13.151
-13.706
-14.238
-14.743
-15.22
-15.668
-16.087
-16.475
-16.834
-17.162
-17.462
-17.733
-17.978
-18.197
-18.394
-18.57
-18.728
-18.871
-19.001
-19.122
-19.238
-19.351
-19.466
-19.585
-19.714
-19.855
-20.013
-20.19
-20.391
-20.619
-20.877
-21.168
-21.494
-21.858
-22.261
-22.704
-23.188
-23.714
-24.282
-24.891
-25.541
-26.231
-26.96
-27.724
-28.524
-29.354
-30.214
-31.098
-32.004
-32.926
-33.861
-34.804
-35.75
-36.693
-37.628
-38.548
-39.449
-40.323
-41.163
-41.965
-42.72
-43.424
-44.07
-44.653
-45.168
-45.612
-45.98
-46.271
-46.482
-46.614
-46.664
-46.633
-46.52
-46.328
-46.057
-45.709
-45.286
-44.79
-44.227
-43.602
-42.92
-42.188
-41.412
-40.6
-39.758
-38.894
-38.015
-37.129
-36.242
-35.363
-34.5
-33.661
-32.861
-32.107
-31.401
-30.748
-30.143
-29.583
-29.064
-28.576
-28.106
-27.642
-27.173
-26.692
-26.195
-25.674
-25.121
-24.526
-23.874
-23.154
-22.371
-21.525
-20.63
-19.71
-18.781
-17.877
-17.05
-16.342
-15.799
-15.466
-15.379
-15.576
-16.105
-16.999
-18.294
-20.024
-22.213
-24.89
-28.068
-31.745
-35.9
-40.517
-45.59
-51.024
-56.642
-62.186
-67.286
-71.61
-74.931
-76.932
-77.215
-75.714
-72.565
-68.171
-63.444
-59.073
-55.431
-53.198
-53.018
-54.905
-58.614
-63.253
-66.936
-68.251
-66.08
-58.65
-44.546
-23.065
6.158
42.18
82.753
125.855
168.909
207.999
239.191
258.619
262.611
248.734
215.522
161.945
88.207
-2.356
-105.15
-216.306
-330.532
-445.021
-556.868
-657.077
-738.925
-795.735
-821.588
-820.948
-798.243
-757.627
-706.378
-645.863
-577.835
-506.564
-433.925
-363.575
-299.725
-244.32
-198.613
-163.065
-136.691
-117.948
-105.791
-98.879
-95.216
-93.139
-91.096
-87.645
-82.45
-75.818
-67.897
-59.147
-50.337
-42.076
-35.136
-30.285
-27.613
-26.865
-27.724
-29.683
-32.242
-34.99
-37.412
-39.002
-39.538
-38.954
-37.3
-34.735
-31.375
-27.315
-22.697
-17.676
-12.39
-6.965
-1.501
3.929
9.23
14.307
19.064
23.415
27.315
30.754
33.744
36.314
38.503
40.351
41.916
43.26
44.447
45.537
46.582
47.631
48.733
49.94
51.299
52.86
54.651
56.69
58.988
61.546
64.362
67.433
70.747
74.287
78.038
81.986
86.119
90.423
94.884
99.481
104.195
109.004
113.888
118.826
123.797
128.779
133.75
138.686
143.566
148.367
153.068
157.642
162.066
166.315
170.365
174.193
177.776
181.094
184.125
186.851
189.256
191.325
193.045
194.403
195.389
195.995
196.215
196.045
195.482
194.524
193.174
191.434
189.31
186.807
183.936
180.707
177.131
173.223
168.997
164.471
159.663
154.592
149.278
143.742
138.008
132.097
126.033
119.839
113.541
107.161
100.723
94.252
87.77
81.299
74.863
68.482
62.177
55.967
49.872
43.909
38.094
32.443
26.971
21.689
16.61
11.744
7.099
2.684
-1.496
-5.436
-9.134
-12.586
-15.793
-18.755
-21.474
-23.954
-26.2
-28.215
-30.008
-31.585
-32.954
-34.125
-35.106
-35.908
-36.541
-37.016
-37.344
-37.535
-37.601
-37.554
-37.403
-37.16
-36.836
-36.44
-35.983
-35.475
-34.924
-34.339
-33.728
-33.099
-32.46
-31.816
-31.173
-30.537
-29.913
-29.304
-28.714
-28.147
-27.603
-27.086
-26.596
-26.135
-25.702
-25.298
-24.922
-24.574
-24.252
-23.956
-23.684
-23.434
-23.206
-22.998
-22.807
-22.633
-22.474
-22.328
-22.194
-22.07
-21.956
-21.85
-21.751
-21.659
-21.572
-21.491
-21.416
-21.345
-21.279
-21.218
-21.163
-21.114
-21.071
-21.036
-21.009
-20.992
-20.986
-20.991
-21.011
-21.045
-21.096
-21.165
-21.253
-21.362
-21.493
-21.648
-21.828
-22.034
-22.267
-22.527
-22.816
-23.134
-23.48
-23.854
-24.257
-24.686
-25.142
-25.622
-26.125
-26.649
-27.194
-27.755
-28.331
-28.92
-29.518
-30.122
-30.729
-31.335
-31.936
-32.528
-33.107
-33.668
-34.206
-34.718
-35.198
-35.641
-36.042
-36.397
-36.7
-36.946
-37.132
-37.252
-37.302
-37.28
-37.182
-37.006
-36.751
-36.415
-36.0
-35.506
-34.934
-34.285
-33.561
-32.765
-31.899
-30.967
-29.972
-28.917
-27.807
-26.649
-25.45
-24.217
-22.957
-21.676
-20.383
-19.086
-17.793
-16.513
-15.25
-14.014
-12.811
-11.649
-10.54
-9.492
-8.507
-7.584
-6.721
-5.914
-5.16
-4.449
-3.763
-3.091
-2.418
-1.733
-1.034
-0.314
0.436
1.224
2.066
2.97
3.93
4.938
5.984
7.047
8.113
9.153
10.11
10.938
11.591
12.017
12.19
12.076
11.636
10.848
9.674
8.074
6.038
3.543
0.578
-2.832
-6.7
-11.046
-15.776
-20.736
-25.689
-30.28
-34.225
-37.321
-39.291
-39.797
-38.655
-35.935
-32.014
-27.59
-23.33
-19.636
-16.913
-15.754
-16.542
-19.137
-22.874
-26.442
-28.301
-27.34
-22.437
-12.04
5.083
29.483
60.995
98.29
139.248
181.736
222.988
259.169
286.311
300.625
298.786
278.695
239.298
180.299
102.847
9.9
-94.325
-204.665
-315.452
-421.151
-516.461
-596.588
-657.757
-697.689
-715.786
-712.692
-690.124
-650.746
-597.925
-535.556
-467.928
-398.987
-331.83
-269.257
-213.495
-166.031
-127.843
-98.894
-78.094
-64.109
-55.634
-50.995
-48.585
-46.854
-44.191
-39.838
-33.821
-26.352
-17.851
-8.943
-0.192
7.667
13.75
17.731
19.702
19.911
18.824
16.889
14.483
12.095
10.263
9.307
9.363
10.437
12.4
15.146
18.593
22.617
27.071
31.82
36.75
41.766
46.803
51.787
56.631
61.249
65.564
69.508
73.048
76.177
78.908
81.27
83.3
85.041
86.544
87.871
89.078
90.219
91.342
92.488
93.703
95.031
96.516
98.199
100.105
102.251
104.644
107.286
110.175
113.307
116.671
120.25
124.029
127.994
132.133
136.433
140.877
145.447
150.122
154.881
159.704
164.569
169.456
174.34
179.2
184.013
188.756
193.407
197.942
202.338
206.569
210.612
214.442
218.037
221.374
224.433
227.193
229.637
231.747
233.51
234.912
235.941
236.587
236.844
236.704
236.164
235.221
233.875
232.128
229.983
227.446
224.524
221.226
217.564
213.551
209.2
204.527
199.551
194.291
188.765
182.995
177.003
170.813
164.447
157.931
151.287
144.542
137.72
130.846
123.943
117.038
110.152
103.309
96.531
89.84
83.256
76.799
70.487
64.338
58.368
52.592
47.023
41.673
36.554
31.674
27.041
22.661
18.539
14.678
11.079
7.744
4.671
1.856
-0.702
-3.01
-5.074
-6.901
-8.499
-9.877
-11.046
-12.015
-12.797
-13.403
-13.844
-14.133
-14.284
-14.307
-14.217
-14.024
-13.743
-13.385
-12.961
-12.483
-11.962
-11.409
-10.833
-10.244
-9.649
-9.058
-8.477
-7.913
-7.372
-6.859
-6.377
-5.932
-5.526
-5.162
-4.841
-4.564
-4.333
-4.147
-4.005
-3.908
-3.853
-3.839
-3.864
-3.926
-4.022
-4.151
-4.309
-4.494
-4.704
-4.936
-5.188
-5.457
-5.741
-6.038
-6.346
-6.664
-6.99
-7.324
-7.663
-8.009
-8.359
-8.714
-9.073
-9.436
-9.802
-10.172
-10.545
-10.92
-11.298
-11.678
-12.06
-12.445
-12.831
-13.219
-13.608
-13.998
-14.388
-14.777
-15.164
-15.547
-15.926
-16.299
-16.662
-17.016
-17.356
-17.681
-17.986
-18.271
-18.53
-18.76
-18.958
-19.119
-19.24
-19.319
-19.351
-19.334
-19.265
-19.144
-18.97
-18.742
-18.461
-18.126
-17.739
-17.3
-16.811
-16.275
-15.693
-15.066
-14.399
-13.695
-12.96
-12.2
-11.421
-10.628
-9.827
-9.027
-8.233
-7.454
-6.697
-5.967
-5.27
-4.614
-4.008
-3.463
-2.985
-2.578
-2.239
-1.969
-1.762
-1.615
-1.519
-1.458
-1.418
-1.389
-1.359
-1.327
-1.287
-1.23
-1.147
-1.023
-0.851
-0.636
-0.384
-0.103
0.192
0.487
0.753
0.94
1.007
0.913
0.612
0.078
-0.721
-1.819
-3.236
-5.002
-7.152
-9.701
-12.672
-16.081
-19.913
-24.18
-28.912
-34.043
-39.435
-44.867
-50.004
-54.558
-58.326
-61.054
-62.416
-62.213
-60.491
-57.61
-54.245
-51.072
-48.481
-46.812
-46.602
-48.206
-51.497
-55.849
-59.95
-62.234
-61.636
-57.153
-47.345
-31.073
-7.743
22.626
58.729
98.56
140.318
181.595
218.945
248.787
267.402
271.408
258.84
228.364
178.989
111.179
27.016
-70.138
-175.465
-283.743
-390.16
-489.405
-576.258
-646.518
-697.004
-726.367
-735.114
-724.304
-695.604
-652.067
-597.271
-535.202
-470.217
-405.446
-343.135
-285.76
-235.239
-192.633
-158.623
-132.727
-113.507
-100.056
-91.431
-86.062
-82.586
-79.598
-75.65
-70.32
-63.837
-56.281
-47.976
-39.517
-31.366
-24.249
-18.983
-15.76
-14.435
-14.761
-16.287
-18.586
-21.306
-23.962
-26.05
-27.287
-27.549
-26.843
-25.296
-23.003
-20.045
-16.536
-12.606
-8.38
-3.962
0.557
5.107
9.618
14.003
18.181
22.075
25.617
28.775
31.546
33.947
36.008
37.768
39.267
40.554
41.69
42.731
43.727
44.725
45.766
46.892
48.148
49.576
51.215
53.091
55.216
57.596
60.232
63.12
66.252
69.616
73.194
76.968
80.923
85.045
89.318
93.724
98.244
102.855
107.534
112.259
117.008
121.757
126.483
131.161
135.769
140.283
144.681
148.939
153.031
156.935
160.626
164.081
167.278
170.195
172.812
175.111
177.076
178.691
179.944
180.824
181.322
181.431
181.145
180.461
179.379
177.897
176.019
173.75
171.095
168.063
164.664
160.909
156.814
152.391
147.659
142.634
137.337
131.788
126.007
120.018
113.844
107.507
101.033
94.445
87.768
81.027
74.246
67.449
60.66
53.901
47.194
40.561
34.021
27.595
21.301
15.155
9.173
3.371
-2.239
-7.645
-12.835
-17.801
-22.535
-27.03
-31.281
-35.286
-39.041
-42.545
-45.8
-48.806
-51.566
-54.086
-56.369
-58.421
-60.251
-61.865
-63.273
-64.484
-65.507
-66.352
-67.031
-67.554
-67.932
-68.176
-68.297
-68.306
-68.212
-68.028
-67.761
-67.423
-67.022
-66.568
-66.067
-65.529
-64.959
-64.365
-63.752
-63.126
-62.491
-61.851
-61.21
-60.571
-59.936
-59.306
-58.683
-58.068
-57.46
-56.859
-56.265
-55.677
-55.094
-54.513
-53.934
-53.354
-52.771
-52.185
-51.592
-50.991
-50.38
-49.757
-49.122
-48.473
-47.809
-47.128
-46.431
-45.717
-44.985
-44.237
-43.471
-42.69
-41.894
-41.084
-40.261
-39.428
-38.586
-37.737
-36.884
-36.029
-35.174
-34.323
-33.478
-32.642
-31.819
-31.01
-30.218
-29.447
-28.698
-27.973
-27.275
-26.605
-25.964
-25.353
-24.772
-24.222
-23.704
-23.216
-22.758
-22.33
-21.931
-21.558
-21.21
-20.885
-20.579
-20.292
-20.019
-19.756
-19.502
-19.251
-19.0
-18.744
-18.48
-18.202
-17.905
-17.587
-17.24
-16.862
-16.448
-15.995
-15.498
-14.956
-14.367
-13.729
-13.043
-12.308
-11.525
-10.694
-9.817
-8.896
-7.933
-6.93
-5.889
-4.814
-3.708
-2.577
-1.427
-0.263
0.909
2.082
3.249
4.405
5.541
6.651
7.729
8.768
9.764
10.708
11.589
12.4
13.142
13.812
14.416
14.958
15.443
15.881
16.291
16.686
17.081
17.488
17.912
18.36
18.843
19.368
19.954
20.609
21.326
22.098
22.913
23.748
24.588
25.401
26.125
26.712
27.112
27.269
27.154
26.729
25.95
24.793
23.215
21.18
18.676
15.68
12.185
8.213
3.759
-1.188
-6.532
-12.114
-17.692
-22.912
-27.471
-31.138
-33.614
-34.548
-33.739
-31.259
-27.48
-23.096
-18.812
-15.095
-12.41
-11.413
-12.51
-15.538
-19.807
-23.978
-26.43
-25.945
-21.281
-10.771
6.847
32.058
64.598
103.021
145.061
188.427
230.174
266.302
292.785
305.899
302.457
280.525
239.224
178.432
99.461
5.411
-99.437
-209.957
-320.603
-425.99
-520.969
-600.898
-662.106
-702.396
-721.204
-719.148
-697.866
-659.905
-608.506
-547.442
-480.889
-412.711
-345.959
-283.404
-227.292
-179.171
-140.082
-110.059
-88.113
-72.985
-63.428
-57.827
-54.58
-52.114
-48.801
-43.855
-37.275
-29.267
-20.233
-10.787
-1.52
6.801
13.256
17.478
19.557
19.75
18.525
16.343
13.594
10.785
8.486
7.045
6.612
7.203
8.696
10.987
14.009
17.646
21.759
26.223
30.917
35.743
40.634
45.511
50.281
54.853
59.135
63.047
66.55
69.635
72.312
74.607
76.554
78.191
79.569
80.748
81.786
82.736
83.648
84.562
85.527
86.59
87.8
89.2
90.82
92.676
94.777
97.125
99.721
102.558
105.626
108.908
112.389
116.055
119.894
123.895
128.04
132.312
136.689
141.153
145.681
150.255
154.852
159.45
164.029
168.565
173.038
177.426
181.707
185.858
189.854
193.673
197.291
200.685
203.835
206.72
209.32
211.619
213.599
215.248
216.553
217.503
218.089
218.304
218.142
217.6
216.676
215.369
213.682
211.618
209.183
206.383
203.228
199.729
195.897
191.747
187.293
182.553
177.544
172.285
166.795
161.096
155.21
149.157
142.962
136.646
130.234
123.747
117.21
110.644
104.072
97.515
90.994
84.529
78.141
71.846
65.664
59.609
53.699
47.947
42.366
36.969
31.766
26.766
21.979
17.41
13.066
8.95
5.066
1.415
-2.002
-5.186
-8.139
-10.864
-13.365
-15.647
-17.715
-19.578
-21.241
-22.714
-24.005
-25.123
-26.078
-26.878
-27.535
-28.058
-28.457
-28.742
-28.924
-29.012
-29.016
-28.946
-28.81
-28.618
-28.377
-28.097
-27.784
-27.446
-27.09
-26.723
-26.349
-25.974
-25.603
-25.24
-24.89
-24.554
-24.236
-23.939
-23.663
-23.411
-23.183
-22.98
-22.802
-22.65
-22.524
-22.422
-22.344
-22.29
-22.258
-22.249
-22.26
-22.29
-22.34
-22.407
-22.49
-22.59
-22.703
-22.83
-22.969
-23.119
-23.28
-23.45
-23.63
-23.818
-24.013
-24.217
-24.428
-24.646
-24.871
-25.103
-25.342
-25.589
-25.844
-26.107
-26.378
-26.658
-26.948
-27.247
-27.556
-27.876
-28.206
-28.545
-28.894
-29.253
-29.62
-29.995
-30.376
-30.763
-31.155
-31.551
-31.949
-32.348
-32.745
-33.141
-33.532
-33.916
-34.291
-34.656
-35.006
-35.341
-35.656
-35.95
-36.219
-36.46
-36.67
-36.846
-36.985
-37.083
-37.138
-37.146
-37.106
-37.015
-36.872
-36.676
-36.426
-36.123
-35.769
-35.364
-34.911
-34.41
-33.866
-33.28
-32.656
-31.997
-31.305
-30.585
-29.841
-29.078
-28.302
-27.519
-26.734
-25.953
-25.181
-24.426
-23.693
-22.99
-22.32
-21.686
-21.093
-20.548
-20.059
-19.63
-19.261
-18.948
-18.688
-18.476
-18.308
-18.171
-18.047
-17.919
-17.768
-17.583
-17.36
-17.092
-16.771
-16.383
-15.912
-15.352
-14.708
-13.99
-13.209
-12.373
-11.5
-10.626
-9.808
-9.108
-8.589
-8.295
-8.258
-8.515
-9.089
-10.026
-11.378
-13.177
-15.456
-18.229
-21.489
-25.264
-29.602
-34.442
-39.613
-44.846
-49.754
-54.016
-57.422
-59.693
-60.48
-59.587
-57.094
-53.396
-49.237
-45.346
-42.139
-40.021
-39.578
-41.122
-44.445
-48.818
-52.822
-54.817
-53.653
-48.129
-36.621
-18.007
8.15
41.549
80.633
123.256
167.364
210.092
247.497
275.728
291.042
290.271
271.62
233.785
176.048
99.401
6.592
-98.445
-210.591
-324.438
-434.855
-536.136
-622.917
-691.033
-737.583
-761.478
-763.235
-744.148
-706.399
-653.561
-589.698
-519.227
-446.657
-375.417
-308.311
-247.902
-195.945
-153.343
-120.408
-96.342
-79.619
-68.96
-62.86
-59.591
-57.692
-55.704
-52.379
-47.365
-40.856
-33.098
-24.62
-16.058
-7.957
-1.048
3.99
7.013
8.201
7.874
6.515
4.576
2.44
0.582
-0.538
-0.693
0.179
2.026
4.694
8.063
12.037
16.483
21.256
26.229
31.286
36.339
41.323
46.159
50.759
55.04
58.92
62.359
65.35
67.905
70.057
71.842
73.302
74.49
75.469
76.298
77.034
77.729
78.425
79.17
80.012
81.0
82.18
83.582
85.226
87.121
89.271
91.676
94.333
97.232
100.357
103.696
107.234
110.961
114.865
118.931
123.141
127.475
131.914
136.437
141.023
145.652
150.301
154.948
159.572
164.15
168.66
173.08
177.386
181.552
185.556
189.372
192.979
196.353
199.473
202.318
204.872
207.116
209.035
210.616
211.848
212.719
213.223
213.351
213.101
212.469
211.454
210.058
208.284
206.138
203.625
200.756
197.54
193.99
190.12
185.945
181.483
176.75
171.766
166.552
161.129
155.518
149.742
143.824
137.788
131.657
125.454
119.203
112.927
106.648
100.39
94.172
88.017
81.943
75.971
70.116
64.398
58.831
53.429
48.207
43.176
38.346
33.727
29.325
25.148
21.201
17.486
14.006
10.761
7.751
4.974
2.426
0.104
-1.998
-3.885
-5.566
-7.048
-8.34
-9.451
-10.391
-11.17
-11.799
-12.288
-12.649
-12.892
-13.029
-13.071
-13.028
-12.91
-12.729
-12.493
-12.212
-11.896
-11.551
-11.187
-10.809
-10.425
-10.041
-9.661
-9.291
-8.934
-8.593
-8.271
-7.97
-7.692
-7.438
-7.208
-7.001
-6.819
-6.66
-6.523
-6.407
-6.311
-6.232
-6.168
-6.118
-6.08
-6.051
-6.03
-6.014
-6.001
-5.991
-5.98
-5.968
-5.954
-5.936
-5.914
-5.887
-5.855
-5.818
-5.776
-5.731
-5.682
-5.63
-5.577
-5.524
-5.472
-5.423
-5.379
-5.342
-5.313
-5.294
-5.288
-5.295
-5.319
-5.361
-5.423
-5.507
-5.614
-5.745
-5.904
-6.089
-6.303
-6.547
-6.821
-7.125
-7.459
-7.823
-8.217
-8.638
-9.087
-9.56
-10.056
-10.573
-11.108
-11.658
-12.221
-12.793
-13.372
-13.953
-14.533
-15.109
-15.676
-16.23
-16.768
-17.285
-17.776
-18.238
-18.667
-19.057
-19.406
-19.708
-19.96
-20.157
-20.296
-20.372
-20.383
-20.326
-20.198
-19.998
-19.725
-19.377
-18.957
-18.466
-17.906
-17.278
-16.585
-15.831
-15.019
-14.152
-13.235
-12.272
-11.268
-10.227
-9.158
-8.068
-6.963
-5.851
-4.739
-3.634
-2.543
-1.476
-0.439
0.562
1.521
2.432
3.286
4.074
4.789
5.431
6.002
6.503
6.941
7.32
7.651
7.951
8.235
8.515
8.805
9.107
9.429
9.783
10.178
10.63
11.147
11.726
12.362
13.049
13.772
14.518
15.261
15.951
16.548
17.008
17.284
17.345
17.156
16.679
15.894
14.765
13.252
11.333
8.979
6.167
2.905
-0.827
-5.068
-9.761
-14.768
-19.856
-24.673
-28.913
-32.374
-34.79
-35.819
-35.253
-33.152
-29.901
-26.225
-22.835
-20.119
-18.416
-18.281
-20.076
-23.646
-28.308
-32.644
-34.995
-34.263
-29.432
-18.988
-1.7
23.044
55.223
93.451
135.567
179.704
223.408
263.021
294.699
314.634
319.326
306.528
274.912
223.474
152.346
64.715
-35.095
-143.472
-255.232
-367.72
-478.445
-578.741
-662.158
-722.287
-752.892
-757.964
-741.81
-708.22
-663.809
-609.553
-546.649
-478.835
-408.313
-338.96
-274.891
-218.326
-170.877
-133.329
-105.3
-85.718
-73.374
-66.845
-64.206
-63.634
-63.457
-62.057
-58.723
-53.504
-46.587
-38.449
-29.86
-21.501
-14.18
-8.763
-5.509
-4.275
-4.777
-6.519
-8.999
-11.793
-14.379
-16.223
-17.063
-16.812
-15.5
-13.283
-10.276
-6.573
-2.312
2.356
7.298
12.397
17.561
22.719
27.784
32.657
37.246
41.459
45.248
48.597
51.511
54.018
56.15
57.948
59.461
60.75
61.872
62.884
63.836
64.77
65.736
66.782
67.957
69.309
70.87
72.658
74.684
76.951
79.457
82.199
85.166
88.341
91.709
95.256
98.972
102.843
106.856
110.992
115.232
119.557
123.945
128.379
132.838
137.301
141.748
146.158
150.51
154.787
158.965
163.025
166.942
170.695
174.261
177.62
180.751
183.634
186.25
188.584
190.619
192.342
193.74
194.804
195.524
195.892
195.903
195.553
194.839
193.76
192.318
190.516
188.357
185.848
182.996
179.811
176.304
172.486
168.371
163.974
159.311
154.398
149.253
143.895
138.344
132.619
126.742
120.734
114.615
108.409
102.135
95.816
89.472
83.125
76.794
70.499
64.26
58.094
52.02
46.053
40.211
34.508
28.957
23.573
18.366
13.347
8.527
3.912
-0.49
-4.673
-8.632
-12.363
-15.865
-19.136
-22.175
-24.985
-27.566
-29.923
-32.058
-33.978
-35.689
-37.196
-38.507
-39.63
-40.574
-41.346
-41.958
-42.418
-42.735
-42.921
-42.985
-42.937
-42.787
-42.546
-42.222
-41.825
-41.365
-40.851
-40.29
-39.692
-39.063
-38.412
-37.745
-37.068
-36.389
-35.711
-35.04
-34.38
-33.735
-33.109
-32.503
-31.922
-31.365
-30.836
-30.334
-29.86
-29.416
-28.999
-28.611
-28.25
-27.916
-27.607
-27.322
-27.06
-26.819
-26.598
-26.394
-26.207
-26.036
-25.877
-25.731
-25.595
-25.469
-25.35
-25.239
-25.133
-25.033
-24.936
-24.843
-24.753
-24.665
-24.579
-24.496
-24.414
-24.335
-24.259
-24.186
-24.117
-24.052
-23.993
-23.941
-23.895
-23.859
-23.832
-23.817
-23.814
-23.826
-23.852
-23.895
-23.955
-24.032
-24.129
-24.245
-24.381
-24.537
-24.712
-24.907
-25.122
-25.356
-25.609
-25.88
-26.168
-26.473
-26.792
-27.125
-27.469
-27.824
-28.186
-28.554
-28.925
-29.296
-29.665
-30.029
-30.383
-30.725
-31.051
-31.356
-31.638
-31.891
-32.113
-32.3
-32.448
-32.555
-32.618
-32.636
-32.607
-32.53
-32.406
-32.235
-32.015
-31.748
-31.434
-31.075
-30.672
-30.224
-29.735
-29.207
-28.644
-28.049
-27.428
-26.784
-26.121
-25.445
-24.761
-24.074
-23.389
-22.71
-22.042
-21.39
-20.76
-20.162
-19.602
-19.078
-18.592
-18.137
-17.709
-17.302
-16.906
-16.504
-16.082
-15.626
-15.126
-14.58
-13.981
-13.32
-12.591
-11.777
-10.87
-9.879
-8.809
-7.675
-6.501
-5.303
-4.115
-2.996
-1.992
-1.156
-0.545
-0.186
-0.116
-0.378
-0.997
-2.019
-3.488
-5.424
-7.855
-10.791
-14.211
-18.128
-22.566
-27.444
-32.618
-37.852
-42.798
-47.169
-50.752
-53.265
-54.359
-53.8
-51.615
-48.149
-44.07
-40.073
-36.596
-34.043
-33.046
-34.055
-36.982
-41.228
-45.513
-48.224
-48.237
-44.439
-35.189
-19.202
4.142
34.816
71.494
112.102
154.755
196.84
234.511
263.829
280.959
282.516
266.323
230.887
175.223
99.677
7.655
-96.118
-207.684
-321.853
-435.838
-546.661
-645.458
-725.677
-780.847
-805.308
-803.531
-779.857
-738.403
-686.398
-625.242
-556.691
-484.943
-411.816
-340.911
-276.449
-220.42
-174.109
-138.035
-111.264
-92.315
-80.191
-73.567
-70.412
-69.002
-67.708
-65.004
-60.492
-54.421
-46.899
-38.364
-29.587
-21.196
-14.009
-8.843
-5.826
-4.727
-5.245
-6.882
-9.145
-11.628
-13.808
-15.172
-15.489
-14.696
-12.845
-10.103
-6.589
-2.397
2.332
7.444
12.805
18.29
23.804
29.277
34.622
39.743
44.549
48.949
52.897
56.385
59.422
62.039
64.272
66.16
67.756
69.123
70.321
71.407
72.433
73.442
74.483
75.605
76.856
78.285
79.921
81.783
83.88
86.215
88.787
91.592
94.619
97.851
101.276
104.88
108.652
112.58
116.652
120.85
125.155
129.549
134.013
138.528
143.077
147.638
152.193
156.721
161.203
165.621
169.954
174.181
178.279
182.226
186.002
189.586
192.957
196.095
198.983
201.603
203.941
205.982
207.714
209.126
210.208
210.953
211.353
211.404
211.101
210.445
209.433
208.068
206.353
204.293
201.893
199.162
196.109
192.746
189.083
185.136
180.917
176.444
171.733
166.801
161.667
156.351
150.872
145.25
139.506
133.66
127.735
121.749
115.725
109.681
103.638
97.616
91.633
85.707
79.857
74.098
68.449
62.922
57.534
52.297
47.224
42.326
37.612
33.092
28.772
24.661
20.762
17.079
13.616
10.373
7.351
4.549
1.965
-0.404
-2.562
-4.514
-6.265
-7.824
-9.196
-10.39
-11.415
-12.279
-12.993
-13.565
-14.006
-14.326
-14.537
-14.647
-14.668
-14.61
-14.483
-14.298
-14.063
-13.789
-13.484
-13.156
-12.815
-12.466
-12.118
-11.776
-11.446
-11.133
-10.843
-10.578
-10.342
-10.137
-9.966
-9.831
-9.731
-9.667
-9.64
-9.649
-9.693
-9.77
-9.879
-10.018
-10.184
-10.376
-10.591
-10.826
-11.078
-11.345
-11.624
-11.911
-12.205
-12.503
-12.802
-13.099
-13.394
-13.683
-13.966
-14.241
-14.506
-14.761
-15.006
-15.24
-15.464
-15.678
-15.883
-16.08
-16.269
-16.454
-16.636
-16.816
-16.997
-17.181
-17.372
-17.572
-17.782
-18.006
-18.246
-18.504
-18.783
-19.084
-19.408
-19.758
-20.134
-20.536
-20.967
-21.426
-21.914
-22.429
-22.972
-23.541
-24.136
-24.754
-25.392
-26.049
-26.722
-27.406
-28.098
-28.795
-29.491
-30.181
-30.862
-31.526
-32.169
-32.784
-33.365
-33.907
-34.403
-34.849
-35.239
-35.568
-35.834
-36.032
-36.16
-36.217
-36.202
-36.112
-35.948
-35.708
-35.394
-35.005
-34.542
-34.008
-33.404
-32.735
-32.006
-31.225
-30.395
-29.524
-28.619
-27.686
-26.734
-25.77
-24.798
-23.828
-22.867
-21.927
-21.02
-20.155
-19.337
-18.567
-17.844
-17.167
-16.528
-15.918
-15.321
-14.725
-14.122
-13.507
-12.878
-12.228
-11.551
-10.834
-10.067
-9.244
-8.367
-7.442
-6.477
-5.489
-4.504
-3.556
-2.695
-1.96
-1.386
-1.0
-0.83
-0.915
-1.291
-1.997
-3.064
-4.504
-6.331
-8.565
-11.222
-14.311
-17.816
-21.695
-25.91
-30.465
-35.301
-40.274
-45.159
-49.613
-53.33
-56.089
-57.634
-57.629
-55.902
-52.564
-48.005
-42.953
-38.133
-33.974
-30.941
-29.694
-30.614
-33.538
-37.779
-41.976
-44.564
-44.452
-40.464
-30.948
-14.61
9.123
40.048
76.773
117.126
158.953
199.458
234.635
260.297
272.657
268.454
245.413
202.442
139.28
56.734
-41.174
-149.121
-263.109
-377.636
-489.33
-595.516
-687.846
-760.066
-806.433
-821.747
-810.422
-777.467
-727.927
-669.147
-602.706
-530.596
-456.598
-382.587
-312.724
-250.815
-198.336
-156.511
-125.184
-102.869
-88.2
-79.774
-75.608
-73.825
-72.678
-70.409
-66.19
-60.062
-52.265
-43.262
-33.797
-24.551
-16.341
-10.114
-6.206
-4.495
-4.688
-6.267
-8.719
-11.617
-14.43
-16.583
-17.754
-17.813
-16.766
-14.764
-11.928
-8.353
-4.178
0.44
5.358
10.451
15.616
20.775
25.843
30.724
35.327
39.57
43.385
46.739
49.631
52.081
54.123
55.8
57.162
58.264
59.174
59.954
60.662
61.354
62.076
62.877
63.809
64.917
66.244
67.818
69.655
71.763
74.143
76.795
79.713
82.887
86.301
89.94
93.792
97.844
102.083
106.494
111.06
115.759
120.572
125.479
130.46
135.493
140.558
145.631
150.69
155.713
160.678
165.561
170.338
174.984
179.475
183.785
187.892
191.773
195.406
198.769
201.843
204.612
207.059
209.169
210.929
212.329
213.358
214.009
214.276
214.155
213.642
212.738
211.444
209.762
207.699
205.26
202.454
199.291
195.784
191.945
187.789
183.333
178.595
173.592
168.344
162.873
157.2
151.346
145.336
139.191
132.935
126.592
120.186
113.738
107.272
100.811
94.376
87.99
81.671
75.442
69.319
63.323
57.469
51.775
46.254
40.921
35.788
30.867
26.167
21.696
17.462
13.471
9.727
6.232
2.989
-0.002
-2.743
-5.235
-7.483
-9.49
-11.263
-12.809
-14.134
-15.248
-16.159
-16.878
-17.414
-17.779
-17.984
-18.04
-17.959
-17.753
-17.434
-17.014
-16.505
-15.917
-15.263
-14.554
-13.801
-13.013
-12.201
-11.374
-10.541
-9.71
-8.889
-8.085
-7.305
-6.554
-5.836
-5.158
-4.521
-3.931
-3.387
-2.894
-2.451
-2.06
-1.721
-1.433
-1.197
-1.009
-0.87
-0.777
-0.728
-0.721
-0.754
-0.823
-0.926
-1.061
-1.224
-1.412
-1.623
-1.854
-2.102
-2.364
-2.637
-2.919
-3.209
-3.502
-3.799
-4.096
-4.394
-4.689
-4.982
-5.272
-5.557
-5.838
-6.116
-6.389
-6.658
-6.925
-7.19
-7.454
-7.718
-7.982
-8.249
-8.52
-8.794
-9.073
-9.357
-9.647
-9.944
-10.247
-10.557
-10.873
-11.197
-11.526
-11.862
-12.203
-12.548
-12.897
-13.248
-13.599
-13.948
-14.294
-14.633
-14.964
-15.284
-15.589
-15.877
-16.143
-16.383
-16.594
-16.771
-16.909
-17.005
-17.053
-17.052
-16.996
-16.883
-16.711
-16.477
-16.182
-15.826
-15.407
-14.926
-14.383
-13.78
-13.117
-12.397
-11.62
-10.789
-9.908
-8.98
-8.013
-7.011
-5.981
-4.928
-3.858
-2.779
-1.698
-0.621
0.447
1.498
2.524
3.515
4.461
5.352
6.185
6.96
7.677
8.343
8.963
9.548
10.113
10.672
11.235
11.81
12.401
13.014
13.657
14.341
15.076
15.872
16.726
17.629
18.574
19.536
20.485
21.391
22.202
22.871
23.362
23.633
23.646
23.371
22.773
21.817
20.485
18.747
16.576
13.962
10.882
7.348
3.397
-0.957
-5.713
-10.802
-16.095
-21.362
-26.264
-30.511
-33.889
-36.134
-36.913
-36.001
-33.448
-29.615
-25.197
-20.93
-17.264
-14.596
-13.545
-14.536
-17.467
-21.731
-26.016
-28.694
-28.664
-24.906
-15.871
-0.3
22.456
52.456
88.44
128.364
170.454
212.328
250.345
280.668
299.456
303.122
289.297
256.462
203.44
130.26
40.086
-62.692
-174.364
-289.589
-405.516
-519.326
-621.914
-706.486
-766.316
-795.002
-796.599
-775.476
-735.671
-684.283
-622.698
-552.534
-477.947
-401.361
-326.949
-259.151
-200.234
-151.657
-113.919
-86.268
-67.349
-55.764
-49.852
-47.424
-46.536
-45.545
-43.001
-38.418
-32.003
-24.04
-15.099
-6.047
2.37
9.366
14.18
16.682
17.118
15.832
13.349
10.204
6.847
3.803
1.586
0.429
0.394
1.439
3.408
6.186
9.683
13.754
18.246
23.022
27.955
32.95
37.933
42.809
47.478
51.843
55.81
59.331
62.395
65.009
67.201
69.005
70.462
71.627
72.563
73.334
73.999
74.612
75.217
75.866
76.61
77.499
78.582
79.892
81.444
83.25
85.311
87.625
90.189
92.99
96.009
99.231
102.642
106.229
109.981
113.88
117.91
122.049
126.279
130.578
134.929
139.31
143.702
148.083
152.433
156.732
160.961
165.099
169.124
173.013
176.745
180.296
183.647
186.778
189.668
192.3
194.657
196.724
198.488
199.938
201.061
201.85
202.298
202.398
202.147
201.543
200.583
199.27
197.605
195.592
193.238
190.55
187.535
184.205
180.57
176.645
172.442
167.977
163.267
158.329
153.18
147.841
142.329
136.665
130.87
124.964
118.967
112.901
106.786
100.641
94.487
88.342
82.226
76.157
70.151
64.227
58.399
52.682
47.092
41.642
36.343
31.207
26.244
21.463
16.873
12.479
8.289
4.305
0.531
-3.03
-6.377
-9.511
-12.433
-15.144
-17.648
-19.948
-22.05
-23.959
-25.681
-27.224
-28.593
-29.797
-30.845
-31.744
-32.503
-33.131
-33.636
-34.029
-34.317
-34.51
-34.616
-34.644
-34.602
-34.498
-34.341
-34.138
-33.895
-33.621
-33.319
-32.998
-32.662
-32.315
-31.963
-31.609
-31.257
-30.91
-30.57
-30.239
-29.92
-29.613
-29.32
-29.041
-28.776
-28.527
-28.292
-28.072
-27.867
-27.676
-27.498
-27.334
-27.182
-27.042
-26.914
-26.796
-26.689
-26.592
-26.505
-26.426
-26.357
-26.296
-26.244
-26.202
-26.168
-26.144
-26.13
-26.127
-26.136
-26.158
-26.193
-26.243
-26.309
-26.393
-26.496
-26.619
-26.763
-26.93
-27.121
-27.338
-27.58
-27.85
-28.146
-28.47
-28.822
-29.201
-29.607
-30.039
-30.495
-30.975
-31.477
-31.999
-32.54
-33.098
-33.669
-34.252
-34.844
-35.441
-36.04
-36.637
-37.229
-37.811
-38.379
-38.93
-39.458
-39.958
-40.427
-40.858
-41.248
-41.591
-41.882
-42.118
-42.294
-42.408
-42.455
-42.433
-42.342
-42.179
-41.946
-41.644
-41.271
-40.83
-40.324
-39.753
-39.121
-38.43
-37.684
-36.885
-36.038
-35.149
-34.223
-33.267
-32.286
-31.287
-30.275
-29.26
-28.248
-27.247
-26.262
-25.297
-24.358
-23.454
-22.595
-21.787
-21.031
-20.325
-19.669
-19.058
-18.489
-17.953
-17.431
-16.907
-16.365
-15.795
-15.193
-14.555
-13.874
-13.137
-12.33
-11.45
-10.503
-9.501
-8.458
-7.384
-6.298
-5.24
-4.268
-3.445
-2.836
-2.485
-2.422
-2.687
-3.304
-4.315
-5.771
-7.7
-10.128
-13.064
-16.496
-20.446
-24.958
-29.969
-35.311
-40.724
-45.835
-50.337
-54.027
-56.639
-57.833
-57.4
-55.396
-52.187
-48.475
-44.959
-42.031
-40.057
-39.589
-40.966
-44.053
-48.214
-52.134
-54.256
-53.504
-48.801
-38.642
-21.91
1.925
32.741
69.175
109.239
151.063
192.035
228.466
256.648
272.826
273.692
257.321
222.29
167.677
94.263
4.531
-97.771
-207.525
-319.353
-428.231
-528.482
-614.723
-682.847
-729.886
-754.805
-758.36
-741.723
-706.834
-657.164
-596.587
-529.249
-459.543
-390.546
-324.547
-264.169
-211.316
-166.925
-131.562
-104.656
-84.792
-71.092
-62.55
-57.468
-54.401
-51.932
-48.635
-44.093
-38.494
-31.867
-24.511
-17.032
-9.912
-3.851
0.381
2.65
3.165
2.198
0.214
-2.328
-5.065
-7.505
-9.144
-9.747
-9.241
-7.67
-5.196
-1.938
2.011
6.51
11.403
16.549
21.819
27.114
32.361
37.472
42.351
46.909
51.063
54.77
58.023
60.835
63.24
65.273
66.977
68.407
69.626
70.693
71.666
72.598
73.532
74.517
75.603
76.834
78.256
79.898
81.776
83.898
86.265
88.876
91.725
94.802
98.089
101.573
105.241
109.079
113.077
117.218
121.485
125.859
130.319
134.846
139.421
144.022
148.63
153.222
157.779
162.278
166.698
171.019
175.216
179.266
183.145
186.832
190.303
193.537
196.514
199.214
201.619
203.714
205.485
206.917
208.0
208.724
209.081
209.064
208.67
207.896
206.74
205.205
203.293
201.008
198.358
195.351
191.996
188.306
184.294
179.975
175.364
170.48
165.341
159.966
154.377
148.594
142.641
136.539
130.312
123.983
117.576
111.114
104.62
98.118
91.63
85.177
78.781
72.462
66.241
60.135
54.163
48.342
42.686
37.211
31.929
26.853
21.993
17.358
12.957
8.795
4.877
1.208
-2.21
-5.376
-8.291
-10.955
-13.372
-15.545
-17.48
-19.181
-20.657
-21.915
-22.964
-23.813
-24.471
-24.951
-25.261
-25.413
-25.419
-25.291
-25.039
-24.676
-24.213
-23.661
-23.032
-22.336
-21.585
-20.787
-19.954
-19.094
-18.216
-17.329
-16.44
-15.556
-14.686
-13.833
-13.006
-12.207
-11.443
-10.716
-10.03
-9.388
-8.792
-8.243
-7.744
-7.295
-6.895
-6.546
-6.248
-5.999
-5.799
-5.646
-5.541
-5.481
-5.465
-5.492
-5.56
-5.668
-5.813
-5.996
-6.213
-6.464
-6.746
-7.059
-7.4
-7.767
-8.159
-8.573
-9.007
-9.458
-9.926
-10.407
-10.899
-11.4
-11.909
-12.422
-12.937
-13.452
-13.965
-14.472
-14.972
-15.462
-15.938
-16.398
-16.839
-17.258
-17.652
-18.017
-18.349
-18.646
-18.903
-19.118
-19.286
-19.403
-19.468
-19.478
-19.429
-19.321
-19.152
-18.922
-18.632
-18.282
-17.874
-17.408
-16.886
-16.311
-15.685
-15.01
-14.289
-13.525
-12.722
-11.885
-11.02
-10.133
-9.229
-8.315
-7.397
-6.481
-5.575
-4.687
-3.82
-2.982
-2.178
-1.416
-0.707
-0.057
0.532
1.059
1.529
1.945
2.311
2.636
2.938
3.231
3.527
3.84
4.173
4.531
4.926
5.365
5.864
6.433
7.063
7.749
8.478
9.23
9.99
10.726
11.382
11.907
12.254
12.366
12.216
11.767
10.976
9.818
8.251
6.234
3.753
0.787
-2.674
-6.607
-11.019
-15.924
-21.225
-26.761
-32.296
-37.481
-42.039
-45.776
-48.421
-49.646
-49.27
-47.349
-44.236
-40.582
-36.996
-33.827
-31.433
-30.36
-30.96
-33.112
-36.213
-39.058
-40.248
-38.803
-33.729
-23.608
-7.318
15.647
45.159
79.988
118.19
157.823
196.305
230.019
255.21
268.247
265.917
246.205
208.012
150.914
75.98
-14.018
-115.055
-222.073
-329.687
-432.722
-526.022
-604.909
-665.825
-706.482
-726.35
-726.333
-707.878
-673.251
-625.678
-568.656
-505.952
-441.353
-377.553
-316.666
-261.002
-212.141
-170.935
-137.89
-112.482
-93.532
-80.255
-71.673
-66.215
-62.554
-59.4
-55.491
-50.473
-44.501
-37.609
-30.102
-22.559
-15.446
-9.401
-5.101
-2.646
-1.828
-2.39
-3.896
-5.922
-8.123
-10.049
-11.238
-11.48
-10.714
-8.982
-6.433
-3.178
0.699
5.067
9.781
14.712
19.739
24.769
29.737
34.562
39.156
43.435
47.32
50.77
53.782
56.367
58.557
60.388
61.899
63.145
64.184
65.075
65.875
66.633
67.39
68.194
69.091
70.128
71.348
72.78
74.442
76.342
78.483
80.865
83.483
86.327
89.383
92.636
96.074
99.686
103.459
107.38
111.431
115.592
119.845
124.168
128.544
132.951
137.368
141.774
146.148
150.469
154.715
158.866
162.898
166.788
170.513
174.05
177.379
180.477
183.325
185.903
188.195
190.185
191.859
193.203
194.208
194.864
195.164
195.1
194.671
193.872
192.704
191.169
189.269
187.01
184.399
181.445
178.158
174.55
170.635
166.427
161.944
157.203
152.222
147.021
141.621
136.042
130.306
124.435
118.452
112.379
106.24
100.055
93.848
87.639
81.451
75.304
69.217
63.21
57.301
51.507
45.845
40.329
34.974
29.792
24.796
19.994
15.397
11.012
6.845
2.9
-0.818
-4.307
-7.568
-10.599
-13.403
-15.982
-18.34
-20.482
-22.413
-24.139
-25.669
-27.01
-28.171
-29.16
-29.987
-30.662
-31.195
-31.596
-31.875
-32.044
-32.111
-32.087
-31.983
-31.807
-31.569
-31.278
-30.943
-30.572
-30.171
-29.749
-29.312
-28.866
-28.416
-27.966
-27.522
-27.086
-26.662
-26.252
-25.858
-25.482
-25.125
-24.787
-24.47
-24.172
-23.895
-23.636
-23.396
-23.174
-22.968
-22.777
-22.599
-22.434
-22.28
-22.135
-21.999
-21.87
-21.747
-21.629
-21.515
-21.405
-21.298
-21.194
-21.092
-20.992
-20.895
-20.801
-20.711
-20.625
-20.543
-20.468
-20.4
-20.339
-20.286
-20.242
-20.207
-20.182
-20.168
-20.164
-20.171
-20.189
-20.217
-20.257
-20.308
-20.369
-20.44
-20.518
-20.605
-20.697
-20.793
-20.892
-20.991
-21.088
-21.181
-21.268
-21.345
-21.409
-21.459
-21.489
-21.498
-21.482
-21.437
-21.361
-21.253
-21.108
-20.927
-20.708
-20.451
-20.156
-19.825
-19.457
-19.053
-18.617
-18.148
-17.649
-17.124
-16.572
-15.997
-15.403
-14.793
-14.174
-13.548
-12.922
-12.299
-11.685
-11.085
-10.506
-9.953
-9.428
-8.934
-8.475
-8.057
-7.687
-7.37
-7.104
-6.886
-6.715
-6.585
-6.491
-6.422
-6.359
-6.283
-6.177
-6.029
-5.833
-5.585
-5.272
-4.885
-4.411
-3.844
-3.194
-2.469
-1.674
-0.823
0.064
0.95
1.772
2.465
2.965
3.218
3.177
2.801
2.055
0.899
-0.712
-2.812
-5.421
-8.561
-12.234
-16.456
-21.275
-26.613
-32.278
-38.001
-43.375
-48.048
-51.797
-54.298
-55.157
-54.306
-51.872
-48.258
-44.366
-40.855
-38.054
-36.569
-36.946
-39.169
-42.992
-47.525
-50.949
-51.902
-49.328
-41.603
-27.41
-6.053
22.849
58.403
98.429
140.94
183.465
222.319
253.777
273.99
279.161
266.965
236.098
185.548
115.783
29.052
-71.332
-180.529
-292.955
-403.519
-506.838
-597.489
-671.216
-724.85
-756.587
-766.576
-755.883
-726.133
-680.328
-622.179
-555.613
-484.955
-413.961
-345.47
-282.278
-226.664
-179.891
-142.679
-114.775
-94.911
-81.798
-74.105
-69.989
-67.749
-65.854
-62.823
-58.054
-51.652
-43.823
-35.009
-25.925
-17.195
-9.568
-3.848
-0.258
1.362
1.299
0.038
-1.939
-4.222
-6.312
-7.689
-8.096
-7.446
-5.77
-3.22
0.09
4.072
8.592
13.499
18.662
23.964
29.309
34.627
39.828
44.815
49.493
53.77
57.596
60.953
63.85
66.313
68.376
70.079
71.474
72.621
73.581
74.41
75.16
75.876
76.608
77.406
78.32
79.4
80.681
82.182
83.916
85.886
88.095
90.539
93.209
96.091
99.171
102.439
105.882
109.493
113.256
117.157
121.178
125.299
129.502
133.77
138.083
142.421
146.765
151.095
155.391
159.634
163.803
167.876
171.83
175.643
179.293
182.757
186.016
189.047
191.832
194.354
196.595
198.541
200.18
201.498
202.486
203.134
203.437
203.388
202.983
202.221
201.102
199.626
197.798
195.621
193.104
190.254
187.081
183.597
179.814
175.747
171.41
166.822
161.998
156.958
151.722
146.309
140.74
135.037
129.22
123.313
117.336
111.311
105.26
99.203
93.16
87.153
81.199
75.318
69.526
63.842
58.281
52.857
47.585
42.476
37.543
32.795
28.242
23.89
19.746
15.815
12.101
8.606
5.331
2.277
-0.557
-3.175
-5.579
-7.774
-9.766
-11.56
-13.163
-14.584
-15.831
-16.912
-17.838
-18.617
-19.26
-19.778
-20.18
-20.478
-20.68
-20.798
-20.842
-20.82
-20.743
-20.619
-20.456
-20.264
-20.049
-19.818
-19.578
-19.335
-19.094
-18.86
-18.637
-18.429
-18.239
-18.069
-17.922
-17.799
-17.701
-17.629
-17.583
-17.563
-17.569
-17.599
-17.652
-17.727
-17.823
-17.937
-18.069
-18.215
-18.375
-18.546
-18.728
-18.917
-19.113
-19.315
-19.521
-19.729
-19.94
-20.152
-20.365
-20.579
-20.793
-21.006
-21.22
-21.433
-21.645
-21.857
-22.068
-22.278
-22.486
-22.691
-22.894
-23.095
-23.291
-23.484
-23.673
-23.856
-24.033
-24.203
-24.365
-24.517
-24.658
-24.786
-24.898
-24.994
-25.07
-25.125
-25.155
-25.158
-25.131
-25.071
-24.974
-24.838
-24.659
-24.435
-24.163
-23.841
-23.467
-23.04
-22.56
-22.026
-21.441
-20.805
-20.12
-19.387
-18.609
-17.788
-16.928
-16.031
-15.1
-14.14
-13.155
-12.15
-11.131
-10.105
-9.077
-8.053
-7.039
-6.042
-5.067
-4.122
-3.212
-2.341
-1.515
-0.741
-0.029
0.617
1.196
1.711
2.166
2.567
2.919
3.233
3.526
3.813
4.109
4.427
4.772
5.153
5.577
6.06
6.616
7.254
7.972
8.757
9.598
10.48
11.387
12.283
13.116
13.834
14.38
14.708
14.78
14.553
13.991
13.061
11.724
9.942
7.691
4.958
1.726
-1.99
-6.199
-10.924
-16.061
-21.423
-26.742
-31.632
-35.768
-38.942
-40.844
-41.093
-39.635
-36.619
-32.468
-28.104
-24.185
-21.028
-19.23
-19.354
-21.392
-25.089
-29.548
-32.921
-33.866
-31.4
-23.936
-10.172
10.556
38.634
73.186
112.028
153.279
194.644
232.512
263.177
282.939
288.09
276.131
245.678
195.598
125.82
39.398
-59.536
-167.503
-279.24
-392.039
-503.366
-604.331
-688.266
-748.507
-778.559
-782.383
-764.346
-728.335
-681.144
-623.874
-557.873
-487.084
-413.843
-342.159
-276.25
-218.321
-169.925
-131.761
-103.318
-83.417
-70.787
-63.954
-60.951
-59.968
-59.36
-57.544
-53.865
-48.407
-41.369
-33.227
-24.739
-16.558
-9.466
-4.302
-1.297
-0.283
-0.952
-2.793
-5.299
-8.046
-10.522
-12.198
-12.813
-12.287
-10.66
-8.095
-4.719
-0.63
4.03
9.103
14.452
19.952
25.501
31.023
36.425
41.608
46.478
50.947
54.967
58.524
61.629
64.313
66.614
68.574
70.247
71.694
72.976
74.151
75.271
76.383
77.536
78.778
80.159
81.723
83.503
85.514
87.767
90.262
92.996
95.964
99.156
102.554
106.143
109.909
113.84
117.925
122.147
126.489
130.932
135.455
140.038
144.662
149.308
153.953
158.576
163.157
167.675
172.108
176.435
180.632
184.677
188.546
192.216
195.666
198.874
201.82
204.484
206.851
208.903
210.627
212.01
213.042
213.713
214.015
213.943
213.492
212.662
211.45
209.859
207.891
205.553
202.85
199.791
196.388
192.651
188.595
184.235
179.588
174.671
169.503
164.105
158.497
152.702
146.742
140.64
134.419
128.103
121.716
115.281
108.822
102.36
95.92
89.522
83.187
76.936
70.788
64.761
58.873
53.14
47.577
42.198
37.015
32.039
27.281
22.748
18.447
14.383
10.561
6.982
3.648
0.557
-2.29
-4.899
-7.272
-9.416
-11.338
-13.044
-14.543
-15.845
-16.96
-17.898
-18.671
-19.289
-19.765
-20.111
-20.339
-20.46
-20.488
-20.433
-20.307
-20.122
-19.889
-19.617
-19.317
-18.998
-18.669
-18.336
-18.009
-17.692
-17.392
-17.113
-16.861
-16.637
-16.445
-16.288
-16.165
-16.079
-16.028
-16.013
-16.033
-16.085
-16.169
-16.282
-16.422
-16.586
-16.772
-16.976
-17.196
-17.428
-17.671
-17.92
-18.173
-18.429
-18.683
-18.935
-19.183
-19.425
-19.66
-19.888
-20.108
-20.32
-20.525
-20.722
-20.915
-21.102
-21.287
-21.471
-21.657
-21.846
-22.04
-22.244
-22.458
-22.685
-22.928
-23.189
-23.468
-23.769
-24.092
-24.438
-24.809
-25.204
-25.624
-26.069
-26.539
-27.033
-27.549
-28.086
-28.642
-29.214
-29.8
-30.397
-30.999
-31.605
-32.208
-32.806
-33.392
-33.962
-34.51
-35.03
-35.517
-35.965
-36.368
-36.72
-37.018
-37.255
-37.428
-37.533
-37.568
-37.531
-37.421
-37.237
-36.979
-36.648
-36.245
-35.771
-35.228
-34.618
-33.945
-33.21
-32.42
-31.579
-30.694
-29.77
-28.815
-27.834
-26.835
-25.825
-24.811
-23.802
-22.804
-21.823
-20.865
-19.941
-19.061
-18.231
-17.454
-16.73
-16.054
-15.424
-14.835
-14.278
-13.737
-13.197
-12.645
-12.069
-11.463
-10.822
-10.137
-9.395
-8.581
-7.687
-6.715
-5.68
-4.594
-3.471
-2.332
-1.212
-0.167
0.749
1.478
1.97
2.189
2.088
1.63
0.781
-0.501
-2.251
-4.493
-7.242
-10.51
-14.282
-18.562
-23.367
-28.589
-34.035
-39.435
-44.398
-48.591
-51.795
-53.693
-53.894
-52.342
-49.18
-44.829
-40.21
-35.992
-32.52
-30.412
-30.25
-32.034
-35.5
-39.749
-42.921
-43.642
-40.886
-33.026
-18.726
2.683
31.529
66.887
106.538
148.519
190.459
228.687
259.398
278.817
283.401
270.811
239.528
188.463
117.676
30.065
-69.088
-175.352
-284.784
-395.132
-506.321
-612.148
-702.63
-768.876
-801.103
-799.203
-771.676
-725.971
-671.566
-613.301
-549.779
-482.191
-412.066
-341.755
-276.502
-219.645
-172.358
-135.345
-107.865
-88.452
-76.04
-69.283
-66.134
-64.79
-63.676
-61.298
-57.087
-51.166
-43.707
-35.175
-26.362
-17.951
-10.717
-5.463
-2.385
-1.3
-1.902
-3.689
-6.158
-8.878
-11.341
-13.03
-13.693
-13.257
-11.759
-9.358
-6.172
-2.295
2.139
6.981
12.098
17.374
22.709
28.03
33.248
38.262
42.978
47.305
51.194
54.628
57.617
60.19
62.384
64.238
65.804
67.144
68.316
69.378
70.381
71.371
72.396
73.505
74.748
76.174
77.814
79.687
81.803
84.163
86.765
89.606
92.673
95.95
99.421
103.073
106.892
110.868
114.985
119.225
123.568
127.995
132.484
137.017
141.574
146.132
150.672
155.172
159.611
163.969
168.224
172.353
176.332
180.138
183.747
187.139
190.29
193.18
195.79
198.101
200.098
201.765
203.09
204.062
204.67
204.907
204.767
204.245
203.339
202.048
200.373
198.316
195.883
193.08
189.914
186.396
182.537
178.349
173.848
169.05
163.97
158.628
153.044
147.237
141.228
135.041
128.697
122.221
115.635
108.963
102.228
95.455
88.666
81.883
75.128
68.424
61.789
55.245
48.808
42.499
36.332
30.324
24.488
18.839
13.388
8.146
3.121
-1.678
-6.244
-10.573
-14.66
-18.504
-22.102
-25.455
-28.565
-31.434
-34.066
-36.466
-38.64
-40.595
-42.339
-43.881
-45.23
-46.395
-47.388
-48.217
-48.896
-49.433
-49.842
-50.131
-50.313
-50.398
-50.397
-50.32
-50.176
-49.976
-49.728
-49.441
-49.123
-48.781
-48.422
-48.053
-47.68
-47.307
-46.939
-46.58
-46.233
-45.902
-45.587
-45.292
-45.016
-44.761
-44.525
-44.31
-44.114
-43.937
-43.776
-43.632
-43.502
-43.384
-43.278
-43.181
-43.092
-43.01
-42.932
-42.858
-42.785
-42.714
-42.642
-42.57
-42.497
-42.422
-42.346
-42.268
-42.189
-42.109
-42.028
-41.948
-41.869
-41.793
-41.721
-41.655
-41.596
-41.545
-41.505
-41.477
-41.462
-41.463
-41.479
-41.512
-41.564
-41.633
-41.721
-41.827
-41.951
-42.094
-42.254
-42.43
-42.622
-42.827
-43.044
-43.271
-43.505
-43.744
-43.985
-44.226
-44.462
-44.69
-44.908
-45.11
-45.293
-45.453
-45.585
-45.684
-45.747
-45.769
-45.745
-45.671
-45.546
-45.364
-45.124
-44.824
-44.463
-44.041
-43.557
-43.013
-42.41
-41.748
-41.029
-40.257
-39.432
-38.558
-37.638
-36.676
-35.677
-34.648
-33.595
-32.525
-31.443
-30.357
-29.273
-28.199
-27.142
-26.106
-25.099
-24.129
-23.204
-22.333
-21.525
-20.781
-20.1
-19.482
-18.918
-18.403
-17.926
-17.471
-17.025
-16.578
-16.12
-15.648
-15.155
-14.631
-14.065
-13.447
-12.766
-12.022
-11.225
-10.379
-9.509
-8.64
-7.798
-7.03
-6.38
-5.879
-5.567
-5.479
-5.642
-6.09
-6.862
-7.975
-9.466
-11.363
-13.681
-16.446
-19.65
-23.263
-27.279
-31.7
-36.46
-41.429
-46.391
-51.019
-55.042
-58.257
-60.405
-61.158
-60.305
-57.897
-54.282
-50.123
-46.106
-42.649
-40.149
-39.23
-40.306
-43.271
-47.533
-51.824
-54.603
-54.823
-51.418
-42.806
-27.748
-5.625
23.541
58.47
97.201
137.941
178.17
214.157
242.037
258.031
258.797
242.094
206.384
150.705
75.339
-16.318
-119.568
-230.608
-344.2
-457.409
-567.274
-664.886
-743.538
-796.782
-818.841
-813.96
-786.767
-741.762
-686.319
-622.109
-551.223
-477.82
-403.928
-333.687
-271.092
-217.9
-175.415
-143.535
-120.792
-105.664
-96.766
-92.234
-90.177
-88.796
-86.275
-81.711
-75.133
-66.844
-57.297
-47.186
-37.192
-28.144
-21.052
-16.332
-13.88
-13.404
-14.394
-16.345
-18.839
-21.345
-23.258
-24.221
-24.089
-22.853
-20.66
-17.632
-13.853
-9.454
-4.59
0.601
5.99
11.471
16.971
22.405
27.677
32.695
37.369
41.623
45.422
48.761
51.654
54.135
56.241
58.017
59.518
60.808
61.949
62.999
64.01
65.028
66.101
67.279
68.611
70.139
71.894
73.889
76.134
78.63
81.378
84.371
87.6
91.047
94.697
98.539
102.558
106.744
111.08
115.547
120.127
124.797
129.539
134.331
139.153
143.983
148.799
153.579
158.301
162.944
167.485
171.9
176.165
180.257
184.152
187.828
191.263
194.437
197.329
199.922
202.2
204.149
205.756
207.009
207.899
208.419
208.562
208.323
207.702
206.697
205.31
203.544
201.404
198.897
196.032
192.82
189.271
185.401
181.224
176.756
172.015
167.02
161.791
156.349
150.714
144.91
138.958
132.883
126.707
120.453
114.146
107.807
101.46
95.127
88.829
82.587
76.422
70.353
64.398
58.575
52.9
47.389
42.056
36.913
31.974
27.246
22.741
18.465
14.425
10.625
7.07
3.762
0.701
-2.113
-4.681
-7.005
-9.09
-10.941
-12.563
-13.963
-15.149
-16.129
-16.911
-17.506
-17.923
-18.172
-18.265
-18.211
-18.022
-17.709
-17.282
-16.753
-16.131
-15.427
-14.651
-13.813
-12.921
-11.985
-11.012
-10.01
-8.987
-7.948
-6.9
-5.849
-4.799
-3.755
-2.719
-1.696
-0.688
0.303
1.276
2.229
3.161
4.072
4.962
5.83
6.679
7.507
8.316
9.108
9.882
10.64
11.383
12.111
12.827
13.529
14.219
14.897
15.562
16.215
16.855
17.481
18.092
18.688
19.267
19.827
20.367
20.884
21.378
21.845
22.283
22.69
23.065
23.405
23.708
23.973
24.197
24.38
24.519
24.615
24.667
24.673
24.634
24.55
24.42
24.247
24.032
23.775
23.481
23.152
22.79
22.401
21.987
21.555
21.108
20.652
20.192
19.736
19.287
18.854
18.442
18.058
17.708
17.397
17.131
16.916
16.756
16.655
16.616
16.642
16.735
16.896
17.127
