-11.304
-11.704
-12.184
-12.747
-13.389
-14.108
-14.901
-15.763
-16.691
-17.679
-18.72
-19.809
-20.938
-22.099
-23.286
-24.49
-25.703
-26.917
-28.122
-29.311
-30.475
-31.606
-32.696
-33.736
-34.719
-35.637
-36.483
-37.25
-37.932
-38.523
-39.017
-39.411
-39.701
-39.883
-39.957
-39.922
-39.779
-39.529
-39.174
-38.716
-38.161
-37.51
-36.77
-35.945
-35.041
-34.063
-33.018
-31.913
-30.757
-29.559
-28.326
-27.069
-25.794
-24.512
-23.231
-21.959
-20.706
-19.48
-18.288
-17.136
-16.034
-14.994
-14.021
-13.118
-12.284
-11.517
-10.813
-10.166
-9.569
-9.006
-8.464
-7.93
-7.394
-6.85
-6.292
-5.712
-5.096
-4.43
-3.705
-2.922
-2.091
-1.223
-0.328
0.579
1.467
2.29
3.001
3.553
3.907
4.034
3.897
3.467
2.711
1.596
0.091
-1.828
-4.173
-6.957
-10.163
-13.788
-17.838
-22.212
-26.741
-31.179
-35.178
-38.449
-40.822
-42.056
-41.85
-40.177
-37.161
-33.183
-29.086
-25.431
-22.415
-20.476
-20.011
-20.969
-23.261
-25.848
-26.486
-23.844
-16.979
-5.69
8.462
24.91
43.594
65.075
91.83
124.637
163.141
205.473
246.223
280.51
302.447
304.957
283.82
236.182
163.58
73.186
-27.609
-132.682
-239.025
-346.71
-453.434
-552.412
-633.98
-688.29
-710.166
-701.234
-667.109
-615.119
-551.832
-481.701
-409.059
-338.262
-273.454
-217.881
-172.519
-136.324
-106.785
-82.095
-61.572
-45.395
-34.673
-28.933
-26.44
-25.188
-22.815
-18.289
-11.808
-3.742
5.363
14.83
24.09
32.408
38.911
43.276
45.63
46.241
45.562
44.042
42.059
40.088
38.655
38.064
38.426
39.746
41.899
44.78
48.321
52.407
56.903
61.692
66.66
71.718
76.801
81.836
86.736
91.422
95.813
99.842
103.477
106.711
109.555
112.036
114.187
116.045
117.657
119.082
120.376
121.592
122.775
123.968
125.212
126.551
128.029
129.684
131.54
133.609
135.897
138.407
141.142
144.103
147.278
150.646
154.183
157.87
161.691
165.628
169.66
173.757
177.896
182.062
186.248
190.449
194.65
198.829
202.954
206.992
210.924
214.737
218.425
221.971
225.361
228.583
231.641
234.541
237.272
239.8
242.07
244.031
245.654
246.924
247.841
248.407
248.616
248.459
247.928
247.02
245.724
244.012
241.842
239.161
235.953
232.241
228.078
223.51
218.568
213.267
207.612
201.609
195.265
188.578
181.55
174.19
166.53
158.634
150.591
142.505
134.446
126.451
118.531
110.701
102.986
95.42
88.042
80.891
74.016
67.484
61.357
55.682
50.475
45.721
41.376
37.38
33.69
30.282
27.142
24.264
21.634
19.24
17.067
15.099
13.306
11.638
10.049
8.499
6.971
5.467
4.006
2.619
1.329
0.153
-0.897
-1.821
-2.618
-3.297
-3.865
-4.333
-4.704
-4.971
-5.127
-5.166
-5.092
-4.917
-4.657
-4.336
-3.976
-3.596
-3.215
-2.844
-2.492
-2.163
-1.858
-1.575
-1.316
-1.081
-0.873
-0.697
-0.554
-0.442
-0.362
-0.31
-0.282
-0.275
-0.284
-0.307
-0.342
-0.388
-0.444
-0.511
-0.589
-0.679
-0.781
-0.893
-1.016
-1.147
-1.286
-1.432
-1.585
-1.744
-1.909
-2.08
-2.258
-2.443
-2.636
-2.839
-3.053
-3.279
-3.519
-3.774
-4.046
-4.337
-4.646
-4.977
-5.329
-5.704
-6.101
-6.522
-6.966
-7.433
-7.923
-8.434
-8.966
-9.518
-10.087
-10.672
-11.271
-11.881
-12.5
-13.126
-13.755
-14.385
-15.012
-15.633
-16.243
-16.838
-17.415
-17.967
-18.491
-18.981
-19.433
-19.841
-20.2
-20.507
-20.756
-20.945
-21.07
-21.128
-21.119
-21.041
-20.895
-20.68
-20.397
-20.047
-19.63
-19.151
-18.609
-18.008
-17.35
-16.639
-15.882
-15.084
-14.253
-13.394
-12.515
-11.623
-10.727
-9.834
-8.951
-8.084
-7.24
-6.43
-5.665
-4.957
-4.315
-3.744
-3.247
-2.825
-2.473
-2.186
-1.955
-1.763
-1.598
-1.454
-1.326
-1.213
-1.114
-1.014
-0.904
-0.772
-0.606
-0.408
-0.182
0.07
0.329
0.569
0.759
0.852
0.807
0.599
0.202
-0.401
-1.226
-2.311
-3.692
-5.401
-7.468
-9.892
-12.67
-15.819
-19.325
-23.169
-27.321
-31.691
-36.214
-40.88
-45.597
-50.221
-54.542
-58.208
-60.933
-62.551
-62.823
-61.579
-58.855
-54.805
-49.954
-45.069
-40.641
-37.138
-35.048
-34.545
-35.666
-37.754
-39.071
-38.094
-33.585
-25.37
-14.955
-2.817
10.887
27.034
48.846
77.287
112.316
152.596
192.387
226.311
248.034
249.715
227.36
179.351
108.183
21.745
-72.708
-170.095
-267.918
-366.387
-463.252
-551.977
-624.369
-672.345
-691.701
-684.095
-653.422
-605.126
-545.562
-479.613
-413.428
-352.877
-300.475
-257.43
-221.985
-190.65
-162.284
-136.789
-115.09
-99.132
-89.171
-83.877
-81.452
-79.62
-76.731
-72.342
-66.566
-59.729
-52.197
-44.43
-36.918
-30.289
-25.298
-22.217
-20.939
-21.258
-22.76
-25.022
-27.698
-30.331
-32.422
-33.707
-34.076
-33.514
-32.144
-30.054
-27.302
-24.004
-20.28
-16.237
-11.98
-7.583
-3.107
1.361
5.733
9.917
13.82
17.388
20.598
23.441
25.935
28.107
29.983
31.609
33.036
34.312
35.487
36.608
37.713
38.848
40.059
41.389
42.887
44.581
46.488
48.62
50.98
53.57
56.39
59.435
62.687
66.132
69.751
73.522
77.423
81.426
85.497
89.609
93.737
97.863
101.979
106.075
110.144
114.173
118.14
122.026
125.816
129.496
133.054
136.489
139.803
143.008
146.122
149.148
152.082
154.902
157.569
160.04
162.26
164.187
165.792
167.048
167.934
168.429
168.513
168.156
167.326
165.983
164.077
161.575
158.461
154.742
150.453
145.644
140.383
134.732
128.744
122.467
115.942
109.21
102.309
95.283
88.178
81.05
73.969
66.993
60.174
53.542
47.11
40.877
34.826
28.943
23.22
17.652
12.244
7.001
1.933
-2.95
-7.639
-12.131
-16.435
-20.556
-24.501
-28.271
-31.856
-35.245
-38.421
-41.368
-44.072
-46.526
-48.727
-50.676
-52.378
-53.842
-55.08
-56.103
-56.919
-57.536
-57.961
-58.203
-58.273
-58.184
-57.947
-57.578
-57.089
-56.494
-55.806
-55.036
-54.193
-53.286
-52.322
-51.308
-50.251
-49.158
-48.037
-46.894
-45.736
-44.57
-43.401
-42.236
-41.079
-39.933
-38.803
-37.691
-36.599
-35.53
-34.484
-33.463
-32.469
-31.501
-30.561
-29.648
-28.764
-27.907
-27.08
-26.281
-25.51
-24.768
-24.055
-23.371
-22.717
-22.092
-21.498
-20.936
-20.406
-19.91
-19.449
-19.023
-18.634
-18.283
-17.971
-17.698
-17.466
-17.276
-17.129
-17.026
-16.969
-16.958
-16.995
-17.08
-17.215
-17.4
-17.633
-17.916
-18.248
-18.628
-19.054
-19.526
-20.04
-20.595
-21.188
-21.816
-22.477
-23.165
-23.878
-24.611
-25.359
-26.116
-26.879
-27.641
-28.396
-29.139
-29.864
-30.565
-31.236
-31.87
-32.461
-33.003
-33.49
-33.916
-34.275
-34.562
-34.772
-34.901
-34.944
-34.899
-34.764
-34.538
-34.219
-33.81
-33.309
-32.718
-32.039
-31.275
-30.428
-29.503
-28.503
-27.432
-26.296
-25.101
-23.854
-22.564
-21.236
-19.879
-18.501
-17.111
-15.718
-14.332
-12.957
-11.601
-10.271
-8.978
-7.731
-6.538
-5.401
-4.323
-3.305
-2.345
-1.442
-0.588
0.233
1.033
1.826
2.621
3.418
4.223
5.044
5.889
6.77
7.689
8.637
9.609
10.599
11.598
12.586
13.527
14.364
15.04
15.502
15.705
15.613
15.189
14.404
13.22
11.602
9.525
6.97
3.921
0.376
-3.676
-8.254
-13.269
-18.533
-23.796
-28.715
-33.01
-36.518
-38.99
-40.113
-39.822
-38.25
-35.788
-33.145
-30.765
-28.718
-27.298
-26.956
-27.756
-29.579
-31.464
-31.47
-28.419
-21.712
-11.304
1.61
16.253
32.359
50.029
71.453
98.747
132.836
173.458
216.196
254.76
282.383
291.256
275.847
233.775
166.915
81.62
-13.792
-112.556
-212.8
-314.874
-418.24
-518.615
-606.017
-669.764
-702.829
-704.465
-679.68
-635.432
-578.861
-514.253
-444.642
-374.123
-305.983
-244.508
-193.161
-152.252
-120.628
-95.634
-75.033
-58.235
-45.777
-38.349
-35.053
-33.933
-32.794
-29.943
-25.111
-18.711
-11.056
-2.676
5.754
13.489
19.526
23.342
25.037
24.882
23.309
20.779
17.691
14.555
11.981
10.329
9.722
10.173
11.538
13.704
16.609
20.129
24.119
28.454
33.014
37.708
42.472
47.209
51.814
56.186
60.22
63.855
67.068
69.846
72.211
74.191
75.818
77.138
78.205
79.072
79.791
80.411
80.974
81.529
82.127
82.815
83.645
84.65
85.851
87.261
88.884
90.719
92.764
95.01
97.442
100.046
102.812
105.727
108.783
111.966
115.261
118.649
122.113
125.635
129.197
132.781
136.369
139.942
143.482
146.969
150.386
153.713
156.93
160.016
162.95
165.71
168.278
170.633
172.757
174.633
176.244
177.576
178.617
179.356
179.782
179.888
179.667
179.114
178.227
177.004
175.445
173.553
171.331
168.785
165.922
162.751
159.283
155.529
151.503
147.22
142.696
137.947
132.992
127.849
122.539
117.083
111.499
105.812
100.041
94.208
88.336
82.445
76.557
70.692
64.87
59.109
53.429
47.847
42.38
37.043
31.85
26.816
21.952
17.269
12.778
8.487
4.402
0.531
-3.123
-6.556
-9.766
-12.752
-15.515
-18.056
-20.378
-22.484
-24.38
-26.07
-27.563
-28.864
-29.982
-30.925
-31.704
-32.326
-32.803
-33.145
-33.36
-33.462
-33.459
-33.362
-33.181
-32.927
-32.61
-32.238
-31.822
-31.369
-30.889
-30.388
-29.875
-29.356
-28.836
-28.322
-27.819
-27.331
-26.861
-26.413
-25.991
-25.595
-25.228
-24.891
-24.585
-24.31
-24.066
-23.854
-23.672
-23.521
-23.399
-23.305
-23.237
-23.195
-23.177
-23.182
-23.207
-23.252
-23.314
-23.392
-23.486
-23.593
-23.714
-23.846
-23.99
-24.144
-24.309
-24.485
-24.67
-24.866
-25.073
-25.291
-25.521
-25.764
-26.02
-26.291
-26.577
-26.878
-27.194
-27.527
-27.876
-28.241
-28.622
-29.018
-29.428
-29.852
-30.288
-30.736
-31.194
-31.66
-32.133
-32.61
-33.089
-33.567
-34.041
-34.508
-34.966
-35.409
-35.835
-36.24
-36.619
-36.968
-37.283
-37.559
-37.792
-37.976
-38.108
-38.183
-38.197
-38.148
-38.032
-37.847
-37.592
-37.266
-36.87
-36.405
-35.871
-35.271
-34.605
-33.878
-33.091
-32.249
-31.353
-30.41
-29.423
-28.4
-27.347
-26.272
-25.182
-24.085
-22.988
-21.899
-20.826
-19.776
-18.758
-17.778
-16.844
-15.966
-15.156
-14.42
-13.761
-13.182
-12.677
-12.243
-11.876
-11.564
-11.294
-11.055
-10.835
-10.626
-10.426
-10.225
-10.014
-9.786
-9.522
-9.214
-8.866
-8.48
-8.068
-7.651
-7.242
-6.871
-6.587
-6.426
-6.423
-6.616
-7.031
-7.699
-8.663
-9.95
-11.59
-13.604
-16.011
-18.831
-22.073
-25.729
-29.766
-34.151
-38.863
-43.808
-48.827
-53.678
-58.026
-61.577
-64.158
-65.534
-65.401
-63.737
-60.694
-56.667
-52.475
-48.662
-45.482
-43.441
-42.987
-44.147
-46.486
-48.631
-48.645
-45.239
-38.25
-28.515
-16.73
-3.134
13.088
34.656
63.408
99.892
143.553
189.601
231.88
264.782
281.144
275.936
246.546
191.425
114.167
21.602
-80.097
-185.188
-292.236
-400.855
-503.943
-600.316
-690.713
-749.802
-755.044
-727.671
-693.161
-648.162
-588.62
-519.995
-445.099
-366.526
-290.444
-223.961
-171.334
-132.996
-106.205
-86.448
-70.705
-58.072
-48.959
-44.014
-42.444
-42.375
-41.743
-39.067
-34.161
-27.473
-19.554
-11.213
-3.154
3.913
9.152
12.273
13.427
12.904
11.183
8.745
5.99
3.413
1.533
0.619
0.758
1.922
3.962
6.763
10.241
14.261
18.679
23.368
28.218
33.142
38.078
42.944
47.648
52.103
56.223
59.962
63.302
66.245
68.812
71.032
72.94
74.585
76.024
77.313
78.504
79.646
80.783
81.96
83.225
84.621
86.189
87.957
89.943
92.159
94.611
97.301
100.221
103.358
106.694
110.209
113.881
117.682
121.577
125.536
129.535
133.554
137.58
141.601
145.604
149.575
153.505
157.384
161.208
164.967
168.647
172.245
175.763
179.219
182.647
186.062
189.46
192.828
196.138
199.358
202.455
205.384
208.084
210.506
212.604
214.341
215.702
216.652
217.147
217.133
216.538
215.314
213.442
210.914
207.735
203.931
199.534
194.602
189.222
183.466
177.395
171.061
164.497
157.75
150.882
143.958
137.052
130.227
123.526
116.989
110.651
104.528
98.629
92.94
87.422
82.051
76.816
71.714
66.75
61.928
57.241
52.684
48.252
43.943
39.757
35.69
31.739
27.907
24.202
20.641
17.251
14.05
11.047
8.246
5.648
3.249
1.05
-0.956
-2.78
-4.431
-5.915
-7.241
-8.412
-9.435
-10.322
-11.082
-11.729
-12.273
-12.726
-13.096
-13.391
-13.619
-13.788
-13.902
-13.965
-13.98
-13.952
-13.885
-13.785
-13.656
-13.501
-13.326
-13.133
-12.926
-12.707
-12.478
-12.24
-11.994
-11.742
-11.482
-11.216
-10.944
-10.666
-10.382
-10.092
-9.796
-9.494
-9.186
-8.872
-8.553
-8.229
-7.899
-7.565
-7.227
-6.887
-6.544
-6.202
-5.861
-5.524
-5.192
-4.867
-4.55
-4.244
-3.951
-3.673
-3.413
-3.172
-2.953
-2.761
-2.597
-2.464
-2.367
-2.307
-2.288
-2.311
-2.379
-2.494
-2.657
-2.871
-3.135
-3.451
-3.82
-4.241
-4.716
-5.244
-5.823
-6.452
-7.13
-7.855
-8.624
-9.435
-10.283
-11.166
-12.081
-13.024
-13.99
-14.976
-15.976
-16.985
-17.999
-19.01
-20.011
-20.995
-21.955
-22.885
-23.779
-24.632
-25.436
-26.188
-26.883
-27.519
-28.095
-28.605
-29.045
-29.413
-29.702
-29.917
-30.059
-30.127
-30.124
-30.052
-29.915
-29.72
-29.477
-29.185
-28.845
-28.457
-28.019
-27.543
-27.035
-26.5
-25.95
-25.387
-24.81
-24.234
-23.666
-23.103
-22.545
-21.982
-21.393
-20.789
-20.171
-19.534
-18.88
-18.199
-17.481
-16.731
-15.947
-15.127
-14.273
-13.374
-12.421
-11.431
-10.419
-9.409
-8.446
-7.545
-6.724
-6.03
-5.495
-5.156
-5.053
-5.208
-5.649
-6.411
-7.53
-9.037
-10.96
-13.299
-16.06
-19.249
-22.836
-26.807
-31.122
-35.72
-40.593
-45.658
-50.754
-55.659
-60.06
-63.664
-66.295
-67.714
-67.592
-65.883
-62.722
-58.49
-53.987
-49.748
-46.037
-43.39
-42.313
-42.928
-44.872
-46.788
-46.789
-43.629
-37.186
-28.383
-17.857
-5.686
9.053
29.218
56.841
92.723
136.711
184.227
228.872
264.491
283.2
279.719
251.464
197.032
120.503
28.619
-71.912
-175.067
-279.69
-386.499
-494.123
-597.219
-685.107
-747.029
-776.18
-772.459
-741.906
-691.778
-628.952
-557.365
-479.784
-400.515
-324.206
-256.974
-203.064
-162.959
-134.712
-113.969
-97.383
-83.816
-73.531
-67.432
-64.963
-64.264
-63.158
-59.943
-54.337
-46.857
-38.073
-28.797
-19.761
-11.695
-5.509
-1.579
0.238
0.245
-1.07
-3.213
-5.771
-8.236
-10.044
-10.889
-10.672
-9.407
-7.246
-4.307
-0.666
3.543
8.169
13.084
18.163
23.312
28.465
33.533
38.417
43.023
47.256
51.062
54.427
57.351
59.856
61.975
63.742
65.209
66.434
67.476
68.391
69.232
70.042
70.872
71.773
72.793
73.982
75.372
76.982
78.823
80.901
83.215
85.763
88.535
91.515
94.691
98.051
101.582
105.273
109.111
113.077
117.154
121.32
125.557
129.846
134.166
138.496
142.816
147.105
151.341
155.503
159.571
163.52
167.327
170.969
174.422
177.665
180.676
183.435
185.922
188.12
190.013
191.587
192.829
193.729
194.278
194.468
194.293
193.751
192.839
191.557
189.907
187.893
185.52
182.797
179.731
176.333
172.617
168.595
164.284
159.699
154.859
149.781
144.487
138.997
133.332
127.514
121.565
115.508
109.366
103.162
96.917
90.654
84.395
78.159
71.969
65.843
59.801
53.859
48.036
42.347
36.807
31.429
26.228
21.213
16.396
11.784
7.387
3.21
-0.741
-4.462
-7.951
-11.205
-14.225
-17.011
-19.565
-21.89
-23.989
-25.868
-27.532
-28.988
-30.242
-31.302
-32.176
-32.874
-33.404
-33.775
-33.997
-34.08
-34.034
-33.869
-33.594
-33.22
-32.757
-32.213
-31.599
-30.924
-30.196
-29.423
-28.615
-27.779
-26.921
-26.05
-25.172
-24.293
-23.418
-22.554
-21.703
-20.872
-20.064
-19.283
-18.531
-17.812
-17.128
-16.482
-15.875
-15.308
-14.784
-14.303
-13.865
-13.471
-13.122
-12.818
-12.558
-12.342
-12.171
-12.043
-11.958
-11.916
-11.916
-11.957
-12.04
-12.162
-12.325
-12.526
-12.765
-13.042
-13.356
-13.707
-14.093
-14.513
-14.968
-15.456
-15.975
-16.524
-17.102
-17.708
-18.338
-18.992
-19.666
-20.36
-21.069
-21.793
-22.528
-23.271
-24.021
-24.773
-25.524
-26.272
-27.013
-27.743
-28.459
-29.156
-29.831
-30.479
-31.096
-31.679
-32.222
-32.721
-33.172
-33.57
-33.911
-34.189
-34.402
-34.546
-34.618
-34.614
-34.533
-34.374
-34.137
-33.82
-33.427
-32.956
-32.41
-31.79
-31.099
-30.339
-29.513
-28.623
-27.673
-26.669
-25.615
-24.518
-23.383
-22.219
-21.032
-19.827
-18.614
-17.399
-16.189
-14.991
-13.811
-12.658
-11.539
-10.468
-9.45
-8.488
-7.585
-6.738
-5.943
-5.196
-4.486
-3.801
-3.127
-2.455
-1.777
-1.089
-0.385
0.343
1.104
1.911
2.771
3.677
4.626
5.603
6.59
7.565
8.491
9.316
9.996
10.486
10.745
10.736
10.418
9.745
8.684
7.207
5.291
2.919
0.069
-3.267
-7.09
-11.359
-16.029
-21.068
-26.361
-31.735
-36.951
-41.65
-45.507
-48.338
-49.893
-49.875
-48.298
-45.298
-41.235
-36.946
-33.006
-29.663
-27.458
-26.853
-27.781
-30.112
-32.838
-33.796
-31.675
-25.487
-15.001
-1.659
13.686
30.541
49.881
74.545
106.165
145.244
188.595
229.058
259.675
273.12
263.822
230.465
173.527
96.182
4.606
-96.654
-204.761
-317.244
-432.583
-545.219
-644.874
-721.056
-765.114
-774.786
-755.043
-713.466
-657.358
-591.24
-516.627
-435.727
-353.018
-274.851
-208.227
-156.833
-120.023
-94.365
-75.232
-59.84
-47.778
-39.663
-35.843
-35.211
-35.711
-35.237
-32.47
-27.349
-20.334
-12.024
-3.303
5.08
12.387
17.822
21.167
22.611
22.465
21.232
19.41
17.421
15.759
14.888
15.014
16.18
18.316
21.257
24.879
29.074
33.697
38.606
43.671
48.788
53.872
58.847
63.624
68.106
72.203
75.853
79.033
81.738
83.991
85.824
87.273
88.392
89.239
89.874
90.354
90.736
91.068
91.402
91.793
92.29
92.944
93.792
94.855
96.152
97.69
99.477
101.514
103.795
106.304
109.024
111.935
115.014
118.238
121.578
125.009
128.509
132.061
135.657
139.29
142.954
146.636
150.316
153.975
157.595
161.165
164.673
168.116
171.499
174.83
178.125
181.388
184.61
187.768
190.818
193.713
196.392
198.81
200.933
202.729
204.172
205.239
205.902
206.131
205.886
205.124
203.789
201.844
199.269
196.067
192.27
187.925
183.1
177.855
172.242
166.308
160.093
153.636
146.976
140.155
133.218
126.223
119.24
112.328
105.539
98.906
92.443
86.148
80.004
73.999
68.125
62.378
56.763
51.289
45.965
40.803
35.815
31.004
26.365
21.892
17.581
13.432
9.455
5.664
2.078
-1.285
-4.412
-7.292
-9.922
-12.302
-14.436
-16.334
-18.007
-19.466
-20.719
-21.776
-22.642
-23.329
-23.849
-24.214
-24.439
-24.54
-24.532
-24.43
-24.249
-24.0
-23.697
-23.35
-22.966
-22.556
-22.128
-21.69
-21.252
-20.822
-20.408
-20.017
-19.656
-19.332
-19.05
-18.813
-18.626
-18.492
-18.41
-18.385
-18.415
-18.5
-18.641
-18.836
-19.084
-19.383
-19.729
-20.122
-20.557
-21.031
-21.542
-22.084
-22.656
-23.252
-23.869
-24.503
-25.152
-25.81
-26.475
-27.144
-27.813
-28.479
-29.14
-29.792
-30.434
-31.061
-31.674
-32.269
-32.846
-33.402
-33.938
-34.452
-34.945
-35.415
-35.864
-36.291
-36.697
-37.082
-37.447
-37.792
-38.117
-38.424
-38.712
-38.982
-39.234
-39.469
-39.687
-39.888
-40.072
-40.239
-40.39
-40.524
-40.64
-40.739
-40.82
-40.881
-40.922
-40.941
-40.938
-40.911
-40.858
-40.778
-40.669
-40.53
-40.357
-40.149
-39.904
-39.62
-39.295
-38.927
-38.516
-38.06
-37.559
-37.014
-36.425
-35.794
-35.122
-34.413
-33.667
-32.889
-32.079
-31.243
-30.382
-29.5
-28.6
-27.687
-26.766
-25.842
-24.921
-24.009
-23.112
-22.234
-21.381
-20.559
-19.776
-19.034
-18.339
-17.693
-17.105
-16.581
-16.128
-15.744
-15.426
-15.171
-14.973
-14.825
-14.718
-14.635
-14.56
-14.477
-14.376
-14.249
-14.09
-13.89
-13.634
-13.307
-12.903
-12.424
-11.883
-11.291
-10.661
-10.01
-9.372
-8.8
-8.343
-8.055
-7.98
-8.152
-8.616
-9.41
-10.57
-12.133
-14.13
-16.586
-19.512
-22.92
-26.789
-31.108
-35.874
-40.97
-46.212
-51.349
-56.009
-59.88
-62.778
-64.44
-64.552
-63.103
-60.229
-56.311
-52.211
-48.51
-45.425
-43.439
-42.977
-43.965
-46.263
-48.832
-49.424
-46.616
-39.397
-27.561
-12.658
4.325
22.843
43.811
70.127
103.483
144.439
190.06
233.341
267.556
285.477
280.992
252.057
198.113
121.527
28.702
-75.157
-185.908
-300.601
-417.335
-527.827
-627.702
-716.5
-772.002
-775.127
-746.409
-709.223
-660.993
-598.474
-526.378
-447.748
-366.271
-288.659
-222.081
-170.401
-133.24
-107.315
-88.056
-72.625
-60.412
-51.9
-47.511
-46.231
-46.073
-45.008
-41.702
-36.081
-28.653
-20.028
-11.083
-2.571
4.78
10.178
13.389
14.601
14.133
12.477
10.129
7.508
5.106
3.421
2.699
3.009
4.315
6.463
9.339
12.853
16.868
21.242
25.848
30.575
35.338
40.07
44.688
49.102
53.227
56.981
60.322
63.235
65.726
67.82
69.548
70.95
72.077
72.99
73.747
74.405
75.015
75.626
76.286
77.045
77.948
79.039
80.346
81.889
83.681
85.732
88.041
90.605
93.412
96.443
99.682
103.105
106.686
110.391
114.189
118.056
121.971
125.923
129.895
133.874
137.846
141.798
145.719
149.601
153.434
157.2
160.894
164.514
168.074
171.605
175.119
178.608
182.056
185.433
188.704
191.836
194.78
197.475
199.87
201.916
203.578
204.837
205.657
205.995
205.797
204.99
203.528
201.392
198.575
195.082
190.937
186.174
180.851
175.055
168.858
162.323
155.502
148.431
141.16
133.752
126.274
118.802
111.403
104.119
96.997
90.073
83.368
76.894
70.643
64.579
58.684
52.949
47.375
41.973
36.746
31.692
26.81
22.097
17.553
13.179
8.976
4.94
1.076
-2.607
-6.093
-9.355
-12.375
-15.146
-17.663
-19.929
-21.946
-23.718
-25.253
-26.565
-27.664
-28.561
-29.268
-29.791
-30.142
-30.336
-30.386
-30.311
-30.126
-29.845
-29.482
-29.05
-28.561
-28.026
-27.455
-26.854
-26.232
-25.597
-24.957
-24.321
-23.695
-23.086
-22.501
-21.946
-21.425
-20.942
-20.5
-20.1
-19.745
-19.434
-19.168
-18.946
-18.767
-18.63
-18.531
-18.47
-18.444
-18.449
-18.483
-18.541
-18.621
-18.719
-18.831
-18.954
-19.084
-19.218
-19.353
-19.485
-19.614
-19.735
-19.847
-19.947
-20.034
-20.106
-20.162
-20.2
-20.221
-20.224
-20.208
-20.176
-20.128
-20.065
-19.988
-19.9
-19.801
-19.695
-19.582
-19.465
-19.345
-19.224
-19.104
-18.988
-18.877
-18.773
-18.678
-18.593
-18.519
-18.458
-18.41
-18.376
-18.356
-18.35
-18.358
-18.379
-18.412
-18.457
-18.51
-18.571
-18.637
-18.704
-18.771
-18.833
-18.887
-18.93
-18.957
-18.965
-18.951
-18.912
-18.846
-18.75
-18.623
-18.464
-18.272
-18.046
-17.785
-17.488
-17.156
-16.788
-16.384
-15.945
-15.472
-14.968
-14.437
-13.883
-13.309
-12.719
-12.12
-11.514
-10.908
-10.305
-9.709
-9.126
-8.563
-8.027
-7.529
-7.075
-6.666
-6.303
-5.984
-5.703
-5.452
-5.222
-4.996
-4.762
-4.514
-4.244
-3.953
-3.634
-3.279
-2.878
-2.421
-1.899
-1.316
-0.679
0.007
0.715
1.42
2.091
2.679
3.145
3.461
3.598
3.531
3.233
2.668
1.8
0.601
-0.95
-2.864
-5.155
-7.841
-10.914
-14.36
-18.128
-22.161
-26.447
-30.901
-35.373
-39.649
-43.392
-46.308
-48.234
-48.945
-48.161
-45.896
-42.301
-37.752
-33.108
-28.961
-25.539
-23.34
-22.782
-23.771
-26.161
-28.908
-29.758
-27.27
-20.411
-9.085
4.93
20.414
36.634
54.717
78.177
109.382
149.483
195.528
239.802
274.59
291.772
285.193
253.604
197.873
121.741
31.855
-67.191
-172.795
-282.849
-396.103
-506.822
-604.635
-679.396
-722.513
-732.113
-712.947
-671.257
-614.541
-548.493
-476.874
-405.177
-338.134
-278.933
-229.633
-188.627
-153.016
-121.548
-93.852
-70.97
-54.678
-44.967
-40.244
-38.414
-37.062
-34.543
-30.466
-24.983
-18.421
-11.203
-3.879
3.003
8.766
12.685
14.573
14.59
13.012
10.308
6.941
3.305
-0.112
-2.809
-4.534
-5.191
-4.79
-3.464
-1.311
1.589
5.105
9.095
13.431
17.995
22.693
27.453
32.182
36.783
41.159
45.221
48.92
52.235
55.168
57.741
59.981
61.926
63.623
65.129
66.498
67.783
69.03
70.281
71.581
72.976
74.508
76.22
78.138
80.276
82.641
85.231
88.04
91.061
94.28
97.676
101.232
104.932
108.76
112.702
116.741
120.855
125.024
129.227
133.442
137.649
141.828
145.957
150.016
153.985
157.842
161.57
165.149
168.557
171.773
174.779
177.553
180.079
182.339
184.317
185.998
187.371
188.425
189.151
189.541
189.591
189.296
188.654
187.666
186.333
184.658
182.646
180.303
177.638
174.661
171.383
167.817
163.977
159.879
155.538
150.973
146.203
141.246
136.123
130.854
125.46
119.962
114.382
108.74
103.058
97.357
91.656
85.975
80.334
74.749
69.239
63.819
58.505
53.311
48.25
43.333
38.571
33.975
29.553
25.311
21.257
17.394
13.727
10.258
6.988
3.919
1.048
-1.626
-4.105
-6.394
-8.497
-10.419
-12.166
-13.746
-15.164
-16.429
-17.549
-18.532
-19.386
-20.12
-20.742
-21.262
-21.688
-22.027
-22.287
-22.478
-22.606
-22.677
-22.7
-22.681
-22.625
-22.539
-22.426
-22.294
-22.145
-21.983
-21.812
-21.636
-21.456
-21.275
-21.095
-20.917
-20.743
-20.573
-20.409
-20.251
-20.099
-19.953
-19.814
-19.681
-19.554
-19.433
-19.319
-19.209
-19.106
-19.009
-18.918
-18.834
-18.757
-18.688
-18.629
-18.578
-18.539
-18.512
-18.498
-18.5
-18.518
-18.554
-18.609
-18.687
-18.788
-18.913
-19.065
-19.245
-19.453
-19.691
-19.959
-20.257
-20.586
-20.945
-21.334
-21.753
-22.201
-22.676
-23.178
-23.703
-24.251
-24.819
-25.403
-26.0
-26.607
-27.22
-27.835
-28.447
-29.052
-29.644
-30.22
-30.773
-31.298
-31.79
-32.242
-32.65
-33.008
-33.312
-33.556
-33.737
-33.852
-33.898
-33.873
-33.776
-33.608
-33.368
-33.056
-32.674
-32.223
-31.706
-31.124
-30.48
-29.778
-29.022
-28.218
-27.373
-26.495
-25.589
-24.665
-23.731
-22.795
-21.865
-20.95
-20.055
-19.191
-18.367
-17.594
-16.885
-16.25
-15.691
-15.213
-14.816
-14.496
-14.247
-14.061
-13.921
-13.816
-13.739
-13.679
-13.636
-13.602
-13.564
-13.511
-13.431
-13.311
-13.153
-12.959
-12.731
-12.49
-12.261
-12.072
-11.969
-11.992
-12.17
-12.535
-13.116
-13.94
-15.046
-16.471
-18.243
-20.383
-22.904
-25.82
-29.148
-32.879
-36.991
-41.429
-46.131
-51.072
-56.155
-61.218
-66.039
-70.282
-73.654
-75.99
-77.065
-76.604
-74.606
-71.2
-66.729
-61.991
-57.527
-53.539
-50.489
-48.765
-48.297
-48.987
-49.898
-48.959
-44.88
-36.719
-24.4
-9.646
6.426
23.126
41.399
64.539
94.671
132.812
176.489
218.712
252.572
270.712
266.95
239.448
188.193
115.891
28.774
-68.336
-172.224
-280.073
-390.459
-498.108
-593.47
-667.152
-710.823
-722.313
-705.718
-666.621
-611.994
-547.269
-476.188
-404.361
-336.904
-277.425
-228.294
-188.11
-153.835
-123.971
-97.977
-76.761
-62.115
-54.041
-50.862
-50.376
-50.041
-48.155
-44.327
-38.733
-31.75
-23.86
-15.68
-7.838
-1.066
3.891
6.829
7.895
7.35
5.642
3.224
0.49
-2.078
-3.994
-5.02
-5.072
-4.164
-2.425
0.052
3.193
6.875
10.968
15.354
19.932
24.622
29.364
34.075
38.665
43.042
47.118
50.844
54.197
57.173
59.79
62.074
64.057
65.785
67.311
68.689
69.971
71.202
72.426
73.685
75.024
76.486
78.116
79.947
82.002
84.293
86.82
89.578
92.56
95.748
99.12
102.647
106.296
110.034
113.84
117.696
121.591
125.512
129.441
133.361
137.256
141.12
144.95
148.74
152.48
156.164
159.791
163.38
166.964
170.567
174.19
177.816
181.412
184.946
188.388
191.701
194.84
197.747
200.367
202.66
204.606
206.178
207.335
208.009
208.107
207.554
206.308
204.353
201.699
198.357
194.34
189.68
184.435
178.673
172.455
165.819
158.774
151.346
143.588
135.586
127.457
119.312
111.23
103.273
95.487
87.913
80.592
73.546
66.767
60.246
53.988
48.021
42.402
37.176
32.351
27.91
23.807
19.988
16.42
13.076
9.931
6.967
4.165
1.517
-0.963
-3.263
-5.39
-7.363
-9.229
-11.027
-12.773
-14.467
-16.095
-17.63
-19.061
-20.376
-21.559
-22.603
-23.508
-24.275
-24.922
-25.467
-25.917
-26.276
-26.533
-26.681
-26.723
-26.666
-26.525
-26.32
-26.066
-25.779
-25.477
-25.173
-24.875
-24.592
-24.321
-24.059
-23.806
-23.564
-23.335
-23.123
-22.928
-22.749
-22.584
-22.431
-22.284
-22.142
-21.998
-21.848
-21.689
-21.519
-21.337
-21.143
-20.937
-20.718
-20.487
-20.243
-19.984
-19.712
-19.425
-19.124
-18.808
-18.478
-18.136
-17.784
-17.423
-17.055
-16.684
-16.312
-15.942
-15.578
-15.222
-14.879
-14.552
-14.244
-13.96
-13.702
-13.475
-13.28
-13.122
-13.003
-12.925
-12.889
-12.898
-12.951
-13.05
-13.194
-13.385
-13.62
-13.899
-14.221
-14.584
-14.986
-15.424
-15.895
-16.396
-16.922
-17.468
-18.031
-18.603
-19.181
-19.758
-20.327
-20.883
-21.42
-21.93
-22.409
-22.848
-23.244
-23.589
-23.88
-24.112
-24.28
-24.384
-24.419
-24.386
-24.284
-24.113
-23.872
-23.563
-23.188
-22.748
-22.246
-21.684
-21.065
-20.394
-19.676
-18.918
-18.125
-17.303
-16.46
-15.602
-14.738
-13.876
-13.023
-12.186
-11.368
-10.578
-9.824
-9.114
-8.458
-7.854
-7.304
-6.809
-6.365
-5.97
-5.618
-5.29
-4.972
-4.65
-4.314
-3.962
-3.588
-3.183
-2.74
-2.245
-1.695
-1.098
-0.462
0.209
0.904
1.605
2.278
2.869
3.318
3.57
3.574
3.29
2.681
1.716
0.36
-1.428
-3.682
-6.42
-9.659
-13.393
-17.622
-22.382
-27.597
-33.081
-38.572
-43.692
-48.12
-51.682
-54.123
-55.108
-54.592
-52.705
-49.839
-46.814
-44.148
-42.037
-40.926
-41.21
-42.908
-45.609
-47.946
-47.986
-44.461
-37.2
-27.024
-14.629
-0.217
16.95
39.373
68.875
106.026
150.377
197.495
240.996
275.072
293.081
290.17
264.458
214.896
143.338
55.281
-44.115
-150.491
-260.241
-372.233
-483.302
-585.543
-669.752
-726.635
-750.349
-742.793
-709.712
-657.839
-594.254
-522.482
-445.458
-367.767
-293.648
-228.659
-176.543
-137.288
-108.983
-87.809
-70.829
-57.191
-47.128
-41.154
-38.495
-37.277
-35.422
-31.453
-25.205
-17.195
-8.014
1.523
10.677
18.713
24.763
28.486
30.033
29.717
28.026
25.449
22.4
19.379
16.921
15.344
14.767
15.189
16.483
18.543
21.294
24.62
28.386
32.474
36.769
41.18
45.637
50.064
54.373
58.479
62.298
65.759
68.829
71.499
73.78
75.7
77.289
78.586
79.641
80.513
81.261
81.937
82.589
83.26
83.992
84.83
85.817
86.991
88.375
89.979
91.812
93.877
96.179
98.715
101.47
104.421
107.545
110.818
114.225
117.741
121.34
124.996
128.688
132.404
136.143
139.898
143.652
147.384
151.061
154.662
158.177
161.596
164.915
168.128
171.223
174.203
177.085
179.866
182.528
185.034
187.322
189.345
191.078
192.498
193.596
194.357
194.752
194.76
194.367
193.552
192.298
190.573
188.325
185.53
182.196
178.352
174.066
169.387
164.347
158.982
153.319
147.393
141.246
134.908
128.401
121.756
115.01
108.216
101.445
94.745
88.142
81.645
75.237
68.913
62.683
56.55
50.516
44.588
38.769
33.074
27.528
22.147
16.938
11.901
7.023
2.302
-2.254
-6.634
-10.815
-14.784
-18.533
-22.049
-25.321
-28.344
-31.112
-33.63
-35.909
-37.957
-39.78
-41.381
-42.762
-43.93
-44.891
-45.655
-46.233
-46.634
-46.868
-46.947
-46.885
-46.692
-46.38
-45.958
-45.433
-44.813
-44.107
-43.323
-42.471
-41.558
-40.592
-39.582
-38.536
-37.463
-36.368
-35.26
-34.144
-33.026
-31.91
-30.802
-29.707
-28.627
-27.567
-26.531
-25.52
-24.538
-23.588
-22.671
-21.789
-20.943
-20.136
-19.367
-18.639
-17.952
-17.306
-16.702
-16.14
-15.622
-15.147
-14.716
-14.328
-13.986
-13.687
-13.433
-13.223
-13.057
-12.936
-12.858
-12.823
-12.832
-12.885
-12.981
-13.121
-13.303
-13.529
-13.797
-14.107
-14.459
-14.852
-15.284
-15.755
-16.264
-16.809
-17.388
-18.0
-18.642
-19.312
-20.007
-20.726
-21.465
-22.221
-22.991
-23.773
-24.562
-25.355
-26.148
-26.938
-27.72
-28.49
-29.245
-29.979
-30.688
-31.368
-32.014
-32.621
-33.185
-33.701
-34.164
-34.571
-34.916
-35.198
-35.412
-35.556
-35.628
-35.627
-35.552
-35.404
-35.183
-34.89
-34.527
-34.095
-33.597
-33.036
-32.415
-31.736
-31.003
-30.221
-29.395
-28.533
-27.639
-26.72
-25.784
-24.836
-23.884
-22.936
-21.999
-21.078
-20.181
-19.315
-18.485
-17.704
-16.977
-16.305
-15.689
-15.126
-14.612
-14.143
-13.712
-13.302
-12.903
-12.503
-12.091
-11.665
-11.221
-10.749
-10.243
-9.689
-9.078
-8.419
-7.719
-6.989
-6.249
-5.511
-4.801
-4.171
-3.664
-3.322
-3.192
-3.297
-3.67
-4.352
-5.365
-6.748
-8.537
-10.746
-13.398
-16.5
-20.033
-23.997
-28.4
-33.151
-38.104
-43.031
-47.595
-51.528
-54.647
-56.723
-57.479
-56.755
-54.628
-51.467
-47.948
-44.688
-41.96
-40.04
-39.398
-40.36
-42.925
-46.162
-48.112
-47.131
-42.175
-33.679
-23.322
-11.279
2.68
20.285
45.626
79.594
121.63
169.683
216.608
256.557
284.365
293.139
279.38
240.853
177.156
93.361
-3.863
-108.609
-216.767
-327.275
-438.855
-546.233
-640.288
-710.332
-748.008
-752.118
-727.423
-681.372
-622.282
-554.727
-480.867
-404.064
-327.582
-256.778
-197.663
-152.254
-120.096
-98.173
-82.024
-69.601
-60.457
-54.631
-52.194
-51.73
-51.085
-48.798
-44.111
-37.115
-28.426
-18.762
-9.033
-0.23
6.7
11.3
13.646
14.039
12.953
10.868
8.219
5.543
3.407
2.165
1.942
2.738
4.421
6.876
10.034
13.778
17.97
22.491
27.23
32.098
37.027
41.938
46.74
51.344
55.663
59.626
63.195
66.358
69.122
71.514
73.561
75.301
76.778
78.048
79.166
80.183
81.148
82.104
83.096
84.169
85.369
86.734
88.286
90.042
92.008
94.188
96.587
99.202
102.021
105.029
108.209
111.54
115.0
118.562
122.19
125.858
129.541
133.22
136.889
140.535
144.148
147.723
151.243
154.694
158.068
161.349
164.526
167.598
170.567
173.454
176.286
179.071
181.804
184.473
187.042
189.478
191.737
193.762
195.51
196.944
198.028
198.743
199.07
198.973
198.417
197.35
195.709
193.46
190.584
187.074
182.953
178.256
173.033
167.364
161.319
154.955
148.327
141.473
134.43
127.251
119.987
112.7
105.464
98.336
91.364
84.594
78.047
71.732
65.646
59.762
54.056
48.519
43.145
37.939
32.911
28.062
23.395
18.913
14.609
10.479
6.521
2.727
-0.9
-4.353
-7.619
-10.678
-13.508
-16.102
-18.452
-20.56
-22.429
-24.065
-25.476
-26.676
-27.676
-28.485
-29.115
-29.572
-29.867
-30.013
-30.024
-29.914
-29.701
-29.398
-29.018
-28.575
-28.08
-27.544
-26.975
-26.38
-25.767
-25.142
-24.513
-23.887
-23.271
-22.672
-22.094
-21.542
-21.023
-20.538
-20.09
-19.681
-19.311
-18.982
-18.692
-18.441
-18.229
-18.052
-17.91
-17.8
-17.72
-17.667
-17.638
-17.631
-17.642
-17.669
-17.708
-17.758
-17.815
-17.877
-17.942
-18.007
-18.072
-18.135
-18.195
-18.251
-18.301
-18.346
-18.386
-18.419
-18.447
-18.47
-18.49
-18.506
-18.523
-18.54
-18.561
-18.587
-18.622
-18.668
-18.728
-18.804
-18.899
-19.016
-19.155
-19.32
-19.512
-19.733
-19.984
-20.266
-20.579
-20.924
-21.301
-21.709
-22.148
-22.617
-23.114
-23.637
-24.184
-24.753
-25.34
-25.943
-26.557
-27.178
-27.803
-28.426
-29.043
-29.648
-30.235
-30.799
-31.334
-31.834
-32.292
-32.705
-33.065
-33.369
-33.613
-33.791
-33.902
-33.944
-33.914
-33.812
-33.637
-33.388
-33.067
-32.673
-32.207
-31.671
-31.067
-30.398
-29.669
-28.885
-28.051
-27.174
-26.259
-25.314
-24.346
-23.362
-22.369
-21.372
-20.38
-19.401
-18.446
-17.526
-16.649
-15.819
-15.038
-14.307
-13.62
-12.973
-12.357
-11.756
-11.162
-10.567
-9.963
-9.35
-8.721
-8.065
-7.373
-6.633
-5.834
-4.981
-4.078
-3.134
-2.171
-1.216
-0.298
0.534
1.238
1.783
2.137
2.272
2.155
1.743
0.991
-0.138
-1.666
-3.607
-5.975
-8.791
-12.048
-15.73
-19.783
-24.141
-28.792
-33.647
-38.547
-43.265
-47.449
-50.784
-53.087
-54.113
-53.555
-51.406
-47.825
-43.217
-38.426
-34.02
-30.295
-27.82
-27.071
-28.085
-30.369
-32.469
-32.434
-28.949
-21.938
-12.398
-0.899
12.417
28.528
50.58
80.361
118.238
163.575
210.992
253.677
285.459
298.501
287.689
251.233
188.812
105.056
7.219
-98.738
-207.846
-318.786
-430.478
-535.48
-631.257
-717.339
-770.798
-771.91
-740.863
-701.646
-651.758
-587.648
-514.472
-435.56
-354.612
-278.702
-215.114
-167.427
-134.745
-113.04
-97.239
-84.516
-74.516
-67.735
-64.493
-63.522
-62.566
-59.979
-54.895
-47.389
-38.131
-27.864
-17.5
-8.049
-0.483
4.715
7.6
8.469
7.808
6.099
3.78
1.396
-0.463
-1.429
-1.36
-0.248
1.776
4.597
8.148
12.307
16.931
21.895
27.079
32.39
37.764
43.118
48.357
53.392
58.131
62.501
66.462
69.998
73.116
75.841
78.201
80.237
81.997
83.538
84.917
86.191
87.408
88.616
89.861
91.189
92.646
94.275
96.106
98.16
100.449
102.972
105.726
108.702
111.884
115.25
118.776
122.43
126.184
130.011
133.89
137.81
141.753
145.702
149.64
153.544
157.404
161.222
164.997
168.72
172.391
176.006
179.576
183.133
186.696
190.275
193.862
197.422
200.924
204.347
207.657
210.82
213.791
216.497
218.886
220.927
222.579
223.802
224.534
224.676
224.148
222.901
220.907
218.173
214.711
210.517
205.615
200.043
193.853
187.125
179.913
172.24
164.143
155.677
146.926
138.017
129.071
120.17
111.384
102.759
94.335
86.171
78.298
70.727
63.463
56.5
49.853
43.578
37.711
32.26
27.214
22.517
18.111
13.968
10.064
6.378
2.896
-0.405
-3.538
-6.49
-9.257
-11.835
-14.238
-16.51
-18.687
-20.778
-22.786
-24.69
-26.46
-28.085
-29.558
-30.863
-31.998
-32.96
-33.75
-34.386
-34.887
-35.264
-35.521
-35.65
-35.645
-35.512
-35.263
-34.914
-34.49
-34.007
-33.482
-32.935
-32.382
-31.834
-31.301
-30.783
-30.28
-29.793
-29.327
-28.886
-28.476
-28.099
-27.754
-27.442
-27.16
-26.905
-26.674
-26.462
-26.263
-26.076
-25.897
-25.724
-25.557
-25.395
-25.235
-25.076
-24.916
-24.753
-24.584
-24.408
-24.221
-24.022
-23.809
-23.581
-23.339
-23.081
-22.807
-22.518
-22.214
-21.896
-21.566
-21.225
-20.875
-20.518
-20.157
-19.795
-19.434
-19.079
-18.732
-18.397
-18.079
-17.78
-17.505
-17.258
-17.042
-16.86
-16.718
-16.617
-16.561
-16.552
-16.594
-16.687
-16.835
-17.039
-17.298
-17.614
-17.988
-18.417
-18.903
-19.444
-20.037
-20.68
-21.371
-22.106
-22.882
-23.695
-24.54
-25.411
-26.305
-27.215
-28.136
-29.061
-29.984
-30.898
-31.795
-32.67
-33.513
-34.317
-35.076
-35.781
-36.426
-37.004
-37.511
-37.939
-38.286
-38.548
-38.722
-38.806
-38.798
-38.695
-38.499
-38.208
-37.823
-37.344
-36.772
-36.111
-35.364
-34.537
-33.637
-32.67
-31.642
-30.562
-29.437
-28.277
-27.089
-25.879
-24.654
-23.425
-22.207
-21.013
-19.855
-18.74
-17.674
-16.658
-15.695
-14.78
-13.904
-13.051
-12.21
-11.373
-10.538
-9.708
-8.88
-8.05
-7.206
-6.336
-5.435
-4.504
-3.546
-2.566
-1.576
-0.601
0.315
1.121
1.775
2.241
2.498
2.527
2.302
1.797
0.981
-0.183
-1.719
-3.644
-5.961
-8.671
-11.778
-15.267
-19.09
-23.195
-27.504
-31.954
-36.551
-41.212
-45.761
-49.977
-53.495
-55.993
-57.325
-57.26
-55.494
-52.048
-47.115
-41.146
-35.07
-29.534
-24.881
-21.709
-20.522
-21.363
-23.668
-25.952
-26.326
-23.38
-17.203
-8.847
1.85
15.011
32.118
56.744
89.171
128.682
173.553
217.305
254.248
279.164
285.411
269.192
228.964
165.105
81.572
-15.574
-121.518
-233.519
-349.096
-465.492
-576.242
-670.404
-737.692
-770.888
-769.376
-738.91
-687.147
-622.075
-548.431
-469.515
-389.755
-313.297
-246.01
-192.075
-151.714
-123.039
-101.772
-84.501
-70.206
-59.218
-52.414
-49.244
-47.84
-45.996
-42.037
-35.735
-27.634
-18.322
-8.601
0.809
9.173
15.566
19.593
21.389
21.266
19.716
17.228
14.214
11.181
8.699
7.115
6.564
7.056
8.462
10.672
13.614
17.173
21.206
25.589
30.203
34.952
39.767
44.571
49.269
53.773
57.993
61.854
65.317
68.37
71.02
73.292
75.218
76.836
78.197
79.36
80.386
81.328
82.236
83.153
84.126
85.199
86.418
87.819
89.429
91.261
93.327
95.632
98.177
100.957
103.957
107.157
110.53
114.051
117.693
121.429
125.231
129.077
132.949
136.836
140.729
144.623
148.504
152.35
156.142
159.863
163.499
167.04
170.487
173.842
177.116
180.326
183.475
186.558
189.553
192.419
195.109
197.569
199.753
201.63
203.173
204.358
205.161
205.561
205.527
205.025
204.012
202.437
200.265
197.477
194.081
190.106
185.602
180.635
175.267
169.548
163.526
157.241
150.731
144.035
137.194
130.254
123.27
116.311
109.435
102.691
96.112
89.711
83.485
77.417
71.494
65.708
60.053
54.534
49.158
43.934
38.872
33.982
29.266
24.719
20.333
16.102
12.028
8.118
4.386
0.848
-2.478
-5.578
-8.445
-11.073
-13.465
-15.624
-17.558
-19.279
-20.797
-22.12
-23.254
-24.208
-24.988
-25.606
-26.074
-26.404
-26.609
-26.705
-26.702
-26.615
-26.454
-26.228
-25.946
-25.615
-25.242
-24.834
-24.397
-23.94
-23.469
-22.99
-22.509
-22.032
-21.564
-21.109
-20.671
-20.253
-19.856
-19.483
-19.133
-18.809
-18.511
-18.237
-17.988
-17.764
-17.562
-17.383
-17.223
-17.083
-16.96
-16.852
-16.757
-16.674
-16.6
-16.533
-16.472
-16.415
-16.36
-16.307
-16.253
-16.197
-16.139
-16.076
-16.008
-15.934
-15.853
-15.765
-15.668
-15.563
-15.449
-15.328
-15.199
-15.063
-14.921
-14.773
-14.62
-14.463
-14.304
-14.144
-13.984
-13.825
-13.67
-13.52
-13.376
-13.24
-13.115
-13.001
-12.9
-12.815
-12.746
-12.696
-12.666
-12.657
-12.672
-12.711
-12.775
-12.865
-12.982
-13.127
-13.298
-13.497
-13.724
-13.977
-14.256
-14.561
-14.89
-15.243
-15.617
-16.012
-16.425
-16.853
-17.295
-17.748
-18.208
-18.672
-19.137
-19.6
-20.056
-20.502
-20.933
-21.345
-21.733
-22.094
-22.423
-22.716
-22.968
-23.177
-23.339
-23.451
-23.512
-23.519
-23.472
-23.37
-23.214
-23.002
-22.736
-22.417
-22.045
-21.623
-21.151
-20.632
-20.068
-19.464
-18.822
-18.149
-17.447
-16.722
-15.98
-15.226
-14.466
-13.707
-12.952
-12.205
-11.471
-10.756
-10.068
-9.413
-8.792
-8.202
-7.643
-7.113
-6.608
-6.121
-5.638
-5.143
-4.623
-4.069
-3.48
-2.852
-2.181
-1.455
-0.663
0.196
1.114
2.077
3.075
4.098
5.131
6.136
7.058
7.841
8.425
8.771
8.844
8.604
8.021
7.049
5.643
3.771
1.409
-1.455
-4.815
-8.688
-13.102
-17.986
-23.173
-28.413
-33.353
-37.711
-41.309
-43.914
-45.236
-45.126
-43.671
-41.246
-38.535
-36.127
-34.255
-33.171
-33.3
-34.862
-37.777
-41.179
-43.252
-42.438
-37.79
-29.261
-17.904
-4.24
11.562
29.877
53.113
82.935
119.777
163.178
208.217
248.037
276.184
285.29
270.658
231.38
168.66
86.87
-7.636
-109.998
-218.231
-330.019
-440.317
-548.778
-654.822
-734.795
-764.161
-757.098
-734.326
-693.216
-634.115
-565.268
-490.761
-414.106
-339.762
-273.214
-218.562
-176.134
-144.132
-118.966
-98.1
-81.201
-68.888
-62.025
-59.706
-59.623
-59.35
-57.068
-52.356
-45.579
-37.225
-27.966
-18.59
-9.991
-3.181
1.334
3.621
3.957
2.803
0.627
-2.148
-4.986
-7.293
-8.697
-9.064
-8.389
-6.803
-4.425
-1.32
2.392
6.567
11.08
15.812
20.675
25.599
30.505
35.298
39.887
44.186
48.121
51.659
54.787
57.515
59.871
61.887
63.603
65.068
66.341
67.478
68.533
69.557
70.595
71.697
72.91
74.279
75.845
77.634
79.666
81.952
84.497
87.297
90.341
93.616
97.1
100.773
104.61
108.581
112.657
116.809
121.015
125.261
129.529
133.8
138.056
142.275
146.447
150.572
154.646
158.66
162.611
166.494
170.319
174.114
177.893
181.657
185.399
189.089
192.703
196.223
199.617
202.851
205.881
208.648
211.108
213.233
214.982
216.309
217.153
217.431
217.079
216.057
214.334
211.889
208.711
204.791
200.142
194.8
188.803
182.196
175.015
167.286
159.054
150.388
141.367
132.091
122.65
113.125
103.606
94.192
84.965
75.999
67.345
59.034
51.104
43.601
36.57
30.052
24.072
18.627
13.711
9.311
5.398
1.942
-1.113
-3.842
-6.303
-8.538
-10.582
-12.454
-14.188
-15.833
-17.426
-18.997
-20.566
-22.141
-23.734
-25.357
-27.009
-28.673
-30.319
-31.902
-33.393
-34.778
-36.047
-37.194
-38.212
-39.081
-39.796
-40.364
-40.79
-41.079
-41.236
-41.261
-41.165
-40.968
-40.694
-40.371
-40.021
-39.654
-39.283
-38.919
-38.568
-38.24
-37.938
-37.658
-37.398
-37.159
-36.942
-36.749
-36.578
-36.425
-36.285
-36.154
-36.027
-35.902
-35.777
-35.648
-35.514
-35.373
-35.227
-35.075
-34.918
-34.755
-34.586
-34.409
-34.223
-34.029
-33.825
-33.61
-33.384
-33.147
-32.9
-32.642
-32.377
-32.103
-31.823
-31.538
-31.251
-30.963
-30.676
-30.392
-30.115
-29.846
-29.588
-29.344
-29.117
-28.908
-28.72
-28.555
-28.416
-28.305
-28.222
-28.169
-28.147
-28.156
-28.199
-28.273
-28.38
-28.519
-28.689
-28.891
-29.123
-29.383
-29.67
-29.981
-30.314
-30.666
-31.035
-31.416
-31.806
-32.2
-32.595
-32.987
-33.371
-33.742
-34.095
-34.425
-34.727
-34.995
-35.225
-35.411
-35.548
-35.633
-35.661
-35.628
-35.531
-35.37
-35.141
-34.845
-34.482
-34.052
-33.555
-32.993
-32.367
-31.679
-30.933
-30.129
-29.271
-28.364
-27.414
-26.426
-25.407
-24.364
-23.303
-22.232
-21.157
-20.088
-19.03
-17.991
-16.978
-16.0
-15.065
-14.187
-13.373
-12.626
-11.949
-11.341
-10.797
-10.313
-9.88
-9.484
-9.112
-8.755
-8.403
-8.054
-7.7
-7.333
-6.945
-6.519
-6.048
-5.536
-4.983
-4.404
-3.819
-3.247
-2.719
-2.286
-1.99
-1.872
-1.976
-2.329
-2.966
-3.927
-5.24
-6.934
-9.037
-11.565
-14.536
-17.956
-21.814
-26.075
-30.705
-35.668
-40.855
-46.099
-51.161
-55.712
-59.478
-62.294
-63.927
-64.086
-62.763
-60.083
-56.388
-52.46
-48.812
-45.598
-43.26
-42.231
-42.447
-43.816
-45.439
-45.169
-41.629
-33.947
-21.887
-7.164
8.486
24.212
40.635
60.859
88.647
126.206
171.705
218.823
258.765
281.872
280.981
252.973
198.401
122.372
32.231
-65.771
-167.422
-271.582
-378.049
-482.722
-577.629
-652.778
-698.987
-713.592
-699.787
-663.225
-611.268
-549.38
-481.356
-412.48
-347.259
-288.861
-239.488
-198.003
-161.98
-130.461
-103.153
-80.894
-65.265
-56.242
-52.306
-51.439
-51.183
-49.718
-46.483
-41.526
-35.142
-27.73
-19.818
-11.956
-4.872
0.609
4.194
5.97
6.156
5.177
3.455
1.35
-0.662
-2.07
-2.61
-2.185
-0.803
1.396
4.311
7.866
11.932
16.368
21.048
25.865
30.738
35.615
40.418
45.061
49.458
53.525
57.217
60.517
63.423
65.955
68.137
70.001
71.597
72.978
74.199
75.311
76.361
77.39
78.444
79.572
80.816
82.221
83.813
85.613
87.634
89.886
92.371
95.083
98.011
101.136
104.443
107.913
111.523
115.242
119.039
122.887
126.768
130.669
134.575
138.469
142.333
146.151
149.918
153.633
157.29
160.88
164.396
167.839
171.225
174.583
177.933
181.271
184.579
187.83
191.0
194.068
197.007
199.778
202.322
204.592
206.551
208.17
209.411
210.219
210.514
210.213
209.255
207.615
205.289
202.275
198.57
194.187
189.145
183.492
177.298
170.601
163.436
155.848
147.891
139.659
131.273
122.844
114.457
106.176
98.046
90.121
82.455
75.082
68.03
61.305
54.906
48.869
43.229
38.0
33.178
28.725
24.573
20.677
17.01
13.548
10.279
7.18
4.23
1.423
-1.239
-3.756
-6.131
-8.397
-10.585
-12.708
-14.764
-16.733
-18.575
-20.274
-21.821
-23.201
-24.41
-25.444
-26.299
-26.987
-27.526
-27.924
-28.187
-28.308
-28.278
-28.104
-27.796
-27.373
-26.859
-26.272
-25.628
-24.947
-24.243
-23.528
-22.814
-22.101
-21.389
-20.681
-19.982
-19.3
-18.641
-18.009
-17.407
-16.834
-16.291
-15.777
-15.29
-14.828
-14.386
-13.963
-13.559
-13.173
-12.806
-12.459
-12.13
-11.819
-11.524
-11.244
-10.977
-10.721
-10.473
-10.231
-9.994
-9.76
-9.528
-9.297
-9.066
-8.834
-8.601
-8.365
-8.127
-7.887
-7.643
-7.397
-7.148
-6.898
-6.647
-6.397
-6.149
-5.904
-5.664
-5.431
-5.207
-4.993
-4.792
-4.606
-4.436
-4.285
-4.155
-4.049
-3.968
-3.915
-3.892
-3.9
-3.943
-4.021
-4.135
-4.286
-4.474
-4.701
-4.965
-5.266
-5.604
-5.978
-6.388
-6.831
-7.305
-7.81
-8.341
-8.897
-9.474
-10.068
-10.676
-11.293
-11.916
-12.539
-13.158
-13.768
-14.362
-14.936
-15.485
-16.001
-16.48
-16.915
-17.302
-17.636
-17.911
-18.125
-18.274
-18.355
-18.368
-18.31
-18.182
-17.981
-17.709
-17.365
-16.951
-16.467
-15.916
-15.299
-14.62
-13.883
-13.093
-12.256
-11.378
-10.464
-9.519
-8.553
-7.57
-6.58
-5.588
-4.599
-3.621
-2.663
-1.736
-0.847
0.001
0.808
1.573
2.298
2.986
3.645
4.286
4.922
5.563
6.217
6.887
7.576
8.291
9.042
9.838
10.684
11.573
12.497
13.444
14.401
15.35
16.26
17.08
17.763
18.264
18.534
18.538
18.232
17.579
16.552
15.12
13.252
10.927
8.126
4.83
1.059
-3.18
-7.901
-13.001
-18.316
-23.602
-28.479
-32.631
-35.874
-37.943
-38.532
-37.617
-35.322
-32.043
-28.652
-25.726
-23.479
-22.374
-22.814
-24.733
-28.002
-31.488
-32.836
-30.662
-24.034
-12.811
1.37
17.969
37.07
59.421
87.608
122.286
162.743
206.57
247.843
281.555
302.046
302.698
279.933
231.031
157.289
65.743
-36.496
-142.759
-249.896
-357.472
-460.258
-557.959
-651.913
-718.101
-732.771
-713.717
-683.342
-637.948
-576.204
-505.234
-429.096
-351.595
-277.694
-213.565
-163.26
-126.903
-102.302
-85.111
-71.972
-61.725
-54.458
-50.805
-50.091
-50.516
-50.105
-47.362
-42.12
-34.941
-26.462
-17.572
-9.044
-1.584
4.011
7.469
8.956
8.776
7.404
5.317
2.925
0.706
-0.847
-1.487
-1.138
0.17
2.292
5.123
8.577
12.523
16.82
21.344
25.991
30.681
35.356
39.936
44.335
48.466
52.25
55.643
58.628
61.204
63.389
65.211
66.705
67.92
68.913
69.74
70.454
71.106
71.738
72.4
73.138
73.994
75.014
76.226
77.653
79.313
81.213
83.352
85.727
88.325
91.13
94.123
97.281
100.572
103.967
107.441
110.975
114.559
118.177
121.815
125.456
129.086
132.699
136.296
139.872
143.415
146.919
150.382
153.818
157.259
160.727
164.221
167.728
171.216
174.657
178.022
181.278
184.373
187.238
189.812
192.047
193.913
195.381
196.401
196.908
196.818
196.067
194.626
192.484
189.646
186.12
181.92
177.079
171.664
165.767
159.459
152.797
145.818
138.557
131.085
123.49
115.866
108.29
100.811
93.468
86.3
79.346
72.632
66.173
59.945
53.911
48.064
42.404
36.951
31.727
26.713
21.883
17.221
12.714
8.369
4.19
0.169
-3.702
-7.423
-10.984
-14.36
-17.523
-20.468
-23.197
-25.721
-28.054
-30.186
-32.106
-33.817
-35.324
-36.638
-37.77
-38.721
-39.49
-40.09
-40.537
-40.848
-41.043
-41.13
-41.115
-41.006
-40.81
-40.541
-40.216
-39.843
-39.431
-38.989
-38.523
-38.046
-37.57
-37.098
-36.635
-36.183
-35.747
-35.332
-34.944
-34.584
-34.255
-33.957
-33.69
-33.454
-33.249
-33.072
-32.923
-32.798
-32.694
-32.61
-32.545
-32.496
-32.46
-32.434
-32.416
-32.404
-32.393
-32.383
-32.369
-32.35
-32.323
-32.286
-32.239
-32.179
-32.105
-32.015
-31.911
-31.789
-31.651
-31.496
-31.325
-31.138
-30.936
-30.721
-30.495
-30.259
-30.014
-29.765
-29.512
-29.259
-29.008
-28.762
-28.524
-28.296
-28.082
-27.885
-27.707
-27.552
-27.422
-27.32
-27.249
-27.21
-27.206
-27.238
-27.307
-27.414
-27.559
-27.743
-27.964
-28.224
-28.52
-28.851
-29.217
-29.614
-30.04
-30.493
-30.97
-31.467
-31.98
-32.505
-33.039
-33.576
-34.113
-34.643
-35.164
-35.668
-36.15
-36.606
-37.029
-37.413
-37.753
-38.043
-38.278
-38.454
-38.566
-38.611
-38.587
-38.491
-38.323
-38.082
-37.767
-37.38
-36.921
-36.391
-35.792
-35.127
-34.397
-33.606
-32.759
-31.861
-30.919
-29.939
-28.929
-27.896
-26.847
-25.79
-24.734
-23.684
-22.646
-21.629
-20.644
-19.698
-18.806
-17.975
-17.209
-16.51
-15.878
-15.308
-14.793
-14.324
-13.885
-13.465
-13.057
-12.656
-12.26
-11.865
-11.459
-11.034
-10.579
-10.084
-9.55
-8.983
-8.384
-7.776
-7.184
-6.639
-6.185
-5.859
-5.685
-5.691
-5.899
-6.336
-7.034
-8.026
-9.335
-10.977
-12.962
-15.305
-18.029
-21.125
-24.575
-28.332
-32.344
-36.614
-41.076
-45.577
-49.892
-53.681
-56.643
-58.614
-59.363
-58.575
-56.234
-52.507
-47.822
-43.067
-38.851
-35.477
-33.506
-33.418
-35.23
-38.449
-41.595
-42.628
-40.179
-34.059
-25.023
-13.49
0.533
18.051
41.767
73.034
111.961
157.662
205.065
248.17
281.596
298.395
293.992
265.96
212.7
137.483
46.487
-54.345
-159.7
-267.382
-377.007
-485.581
-585.891
-668.028
-722.533
-744.166
-734.868
-700.679
-648.271
-584.123
-511.481
-433.325
-354.583
-280.128
-215.955
-165.785
-129.191
-103.666
-84.949
-69.939
-57.858
-49.074
-44.153
-42.33
-41.759
-40.432
-36.941
-31.185
-23.706
-15.121
-6.291
2.048
9.206
14.398
17.374
18.318
17.544
15.538
12.793
9.729
6.842
4.643
3.395
3.182
3.986
5.669
8.127
11.28
14.998
19.14
23.58
28.209
32.942
37.715
42.44
47.025
51.375
55.4
59.051
62.305
65.161
67.636
69.755
71.55
73.067
74.364
75.495
76.514
77.47
78.404
79.367
80.407
81.574
82.913
84.455
86.215
88.207
90.436
92.908
95.621
98.564
101.717
105.063
108.584
112.261
116.072
119.979
123.948
127.948
131.959
135.968
139.962
143.924
147.836
151.681
155.454
159.154
162.779
166.317
169.759
173.104
176.368
179.584
182.778
185.953
189.088
192.152
195.118
197.963
200.657
203.159
205.402
207.33
208.905
210.104
210.902
211.253
211.082
210.298
208.836
206.666
203.786
200.211
195.948
191.01
185.427
179.263
172.605
165.524
158.061
150.237
142.09
133.694
125.16
116.611
108.133
99.786
91.611
83.646
75.94
68.531
61.437
54.642
48.119
41.865
35.912
30.305
25.065
20.177
15.588
11.249
7.138
3.249
-0.422
-3.891
-7.178
-10.295
-13.234
-15.972
-18.492
-20.796
-22.915
-24.884
-26.723
-28.426
-29.965
-31.327
-32.511
-33.525
-34.371
-35.046
-35.544
-35.873
-36.055
-36.113
-36.066
-35.92
-35.672
-35.318
-34.864
-34.326
-33.726
-33.082
-32.404
-31.703
-30.994
-30.291
-29.61
-28.957
-28.329
-27.728
-27.155
-26.616
-26.117
-25.663
-25.253
-24.889
-24.567
-24.288
-24.05
-23.849
-23.682
-23.543
-23.43
-23.339
-23.269
-23.219
-23.187
-23.169
-23.162
-23.165
-23.174
-23.187
-23.201
-23.213
-23.22
-23.221
-23.213
-23.196
-23.167
-23.126
-23.072
-23.004
-22.922
-22.824
-22.712
-22.586
-22.446
-22.293
-22.129
-21.953
-21.768
-21.575
-21.376
-21.173
-20.968
-20.761
-20.556
-20.355
-20.159
-19.971
-19.792
-19.624
-19.47
-19.331
-19.21
-19.108
-19.028
-18.971
-18.939
-18.934
-18.955
-19.006
-19.085
-19.195
-19.334
-19.504
-19.703
-19.931
-20.189
-20.475
-20.788
-21.127
-21.492
-21.879
-22.288
-22.717
-23.162
-23.623
-24.095
-24.576
-25.063
-25.551
-26.039
-26.522
-26.995
-27.455
-27.898
-28.317
-28.71
-29.07
-29.395
-29.679
-29.918
-30.11
-30.25
-30.336
-30.367
-30.341
-30.256
-30.113
-29.911
-29.649
-29.328
-28.949
-28.512
-28.018
-27.469
-26.866
-26.214
-25.517
-24.779
-24.004
-23.198
-22.366
-21.512
-20.645
-19.77
-18.892
-18.017
-17.15
-16.3
-15.477
-14.688
-13.934
-13.217
-12.534
-11.883
-11.26
-10.659
-10.063
-9.463
-8.845
-8.201
-7.528
-6.822
-6.076
-5.284
-4.432
-3.516
-2.542
-1.52
-0.463
0.605
1.67
2.7
3.636
4.43
5.03
5.383
5.457
5.216
4.614
3.625
2.204
0.314
-2.062
-4.947
-8.35
-12.247
-16.636
-21.519
-26.797
-32.307
-37.804
-42.936
-47.421
-51.066
-53.626
-54.816
-54.471
-52.665
-49.762
-46.428
-43.261
-40.534
-38.508
-37.623
-38.181
-40.158
-42.676
-43.938
-42.382
-36.965
-27.929
-16.578
-3.043
12.677
31.769
57.486
90.488
130.416
175.609
219.818
257.482
283.466
291.553
278.254
241.657
181.589
101.461
6.903
-97.13
-207.438
-321.537
-437.251
-548.788
-646.082
-718.923
-758.977
-764.563
-740.448
-693.914
-633.413
-564.096
-489.09
-412.25
-337.145
-269.187
-212.785
-168.882
-136.329
-111.43
-91.311
-75.22
-63.373
-56.666
-54.309
-54.068
-53.612
-51.086
-46.035
-38.877
-30.152
-20.587
-11.025
-2.371
4.377
8.721
10.747
10.754
9.217
6.618
3.398
0.104
-2.666
-4.534
-5.357
-5.127
-3.966
-1.985
0.754
4.137
8.024
12.291
16.823
21.529
26.342
31.18
35.949
40.556
44.911
48.935
52.589
55.859
58.751
61.289
63.503
65.43
67.117
68.622
70.002
71.312
72.599
73.911
75.292
76.791
78.455
80.325
82.425
84.769
87.365
90.216
93.325
96.687
100.287
104.108
108.128
112.326
116.678
121.155
125.72
130.343
134.999
139.666
144.334
148.987
153.612
158.196
162.718
167.164
171.522
175.773
179.902
183.904
187.782
191.552
195.24
198.849
202.367
205.772
209.028
212.104
214.964
217.557
219.843
221.789
223.366
224.565
225.373
225.751
225.651
225.007
223.75
221.848
219.293
216.083
212.242
207.792
202.766
197.237
191.267
184.9
178.168
171.081
163.662
155.976
148.108
140.153
132.204
124.325
116.56
108.958
101.553
94.376
87.44
80.724
74.218
67.932
61.902
56.178
50.79
45.728
40.952
36.431
32.137
28.057
24.185
20.502
16.993
13.652
10.487
7.523
4.774
2.233
-0.129
-2.347
-4.443
-6.409
-8.224
-9.874
-11.355
-12.667
-13.812
-14.782
-15.569
-16.182
-16.638
-16.96
-17.163
-17.252
-17.223
-17.07
-16.798
-16.422
-15.963
-15.436
-14.854
-14.227
-13.571
-12.902
-12.234
-11.574
-10.923
-10.282
-9.653
-9.043
-8.461
-7.911
-7.397
-6.921
-6.482
-6.082
-5.722
-5.401
-5.116
-4.866
-4.648
-4.463
-4.31
-4.192
-4.106
-4.052
-4.029
-4.034
-4.068
-4.127
-4.209
-4.312
-4.433
-4.572
-4.725
-4.893
-5.071
-5.26
-5.458
-5.663
-5.874
-6.09
-6.309
-6.532
-6.756
-6.982
-7.21
-7.44
-7.67
-7.902
-8.137
-8.373
-8.613
-8.857
-9.105
-9.359
-9.619
-9.887
-10.163
-10.45
-10.748
-11.059
-11.386
-11.728
-12.089
-12.469
-12.869
-13.29
-13.734
-14.2
-14.689
-15.201
-15.736
-16.293
-16.874
-17.476
-18.099
-18.743
-19.405
-20.084
-20.779
-21.486
-22.204
-22.93
-23.66
-24.392
-25.122
-25.847
-26.561
-27.262
-27.945
-28.604
-29.236
-29.834
-30.394
-30.911
-31.381
-31.8
-32.163
-32.469
-32.714
-32.897
-33.018
-33.074
-33.064
-32.99
-32.85
-32.645
-32.376
-32.043
-31.647
-31.192
-30.682
-30.12
-29.512
-28.863
-28.178
-27.463
-26.723
-25.966
-25.196
-24.419
-23.642
-22.872
-22.117
-21.388
-20.693
-20.034
-19.414
-18.83
-18.279
-17.758
-17.259
-16.768
-16.275
-15.772
-15.252
-14.715
-14.154
-13.562
-12.932
-12.252
-11.516
-10.732
-9.906
-9.049
-8.18
-7.319
-6.497
-5.763
-5.155
-4.711
-4.468
-4.459
-4.723
-5.305
-6.241
-7.558
-9.278
-11.42
-14.004
-17.042
-20.535
-24.454
-28.77
-33.475
-38.486
-43.654
-48.751
-53.441
-57.424
-60.512
-62.449
-62.908
-61.838
-59.372
-55.901
-52.218
-48.86
-46.084
-44.401
-44.297
-45.865
-48.699
-51.429
-52.164
-49.614
-43.545
-34.7
-23.587
-10.299
5.785
27.064
55.36
91.44
135.438
183.353
228.654
264.904
284.4
281.504
254.445
202.903
129.727
41.12
-57.823
-163.321
-272.351
-384.137
-495.542
-598.397
-683.413
-741.384
-766.36
-760.087
-727.848
-675.699
-610.597
-536.384
-456.751
-377.382
-303.022
-239.087
-188.769
-151.154
-123.81
-102.993
-86.052
-72.593
-63.179
-58.276
-56.974
-57.246
-56.854
-54.284
-49.376
-42.602
-34.517
-25.91
-17.472
-9.928
-4.177
-0.561
1.047
0.923
-0.461
-2.63
-5.184
-7.624
-9.4
-10.228
-10.009
-8.76
-6.634
-3.743
-0.169
3.951
8.467
13.246
18.175
23.171
28.173
33.101
37.863
42.368
46.531
50.304
53.671
56.63
59.202
61.415
63.303
64.916
66.314
67.552
68.687
69.767
70.839
71.95
73.15
74.486
76.004
77.731
79.687
81.883
84.324
87.017
89.959
93.138
96.538
100.141
103.928
107.875
111.956
116.136
120.388
124.686
129.013
133.358
137.707
142.049
146.371
150.655
154.885
159.049
163.131
167.114
170.995
174.774
178.468
182.102
185.679
189.189
192.607
195.895
199.018
201.937
204.601
206.971
209.013
210.697
212.015
212.95
213.468
213.523
213.044
211.955
210.218
207.814
204.746
201.035
196.703
191.786
186.349
180.443
174.115
167.394
160.282
152.797
144.993
136.94
128.745
120.513
112.315
104.212
96.248
88.457
80.873
73.513
66.363
59.422
52.702
46.235
40.087
34.296
28.87
23.792
19.013
14.493
10.211
6.15
2.291
-1.376
-4.865
-8.173
-11.277
-14.165
-16.841
-19.327
-21.672
-23.902
-26.024
-28.031
-29.895
-31.6
-33.142
-34.512
-35.701
-36.705
-37.521
-38.159
-38.644
-38.993
-39.212
-39.303
-39.253
-39.062
-38.741
-38.303
-37.769
-37.159
-36.484
-35.762
-35.01
-34.245
-33.477
-32.713
-31.95
-31.193
-30.445
-29.712
-29.004
-28.325
-27.677
-27.063
-26.483
-25.938
-25.428
-24.951
-24.506
-24.09
-23.703
-23.345
-23.018
-22.722
-22.457
-22.223
-22.02
-21.846
-21.7
-21.582
-21.489
-21.419
-21.372
-21.347
-21.341
-21.355
-21.387
-21.436
-21.501
-21.582
-21.678
-21.788
-21.912
-22.049
-22.2
-22.364
-22.542
-22.732
-22.936
-23.153
-23.383
-23.627
-23.885
-24.157
-24.442
-24.74
-25.052
-25.376
-25.712
-26.06
-26.417
-26.785
-27.161
-27.544
-27.933
-28.328
-28.726
-29.126
-29.526
-29.924
-30.317
-30.703
-31.08
-31.444
-31.794
-32.126
-32.437
-32.724
-32.984
-33.214
-33.41
-33.569
-33.689
-33.765
-33.795
-33.777
-33.707
-33.583
-33.405
-33.171
-32.88
-32.533
-32.13
-31.673
-31.162
-30.601
-29.99
-29.332
-28.63
-27.887
-27.106
-26.29
-25.443
-24.57
-23.676
-22.767
-21.847
-20.922
-19.997
-19.078
-18.173
-17.287
-16.424
-15.587
-14.782
-14.014
-13.292
-12.621
-12.0
-11.428
-10.904
-10.425
-9.988
-9.586
-9.2
-8.818
-8.423
-8.007
-7.566
-7.097
-6.589
-6.033
-5.417
-4.733
-3.994
-3.211
-2.388
-1.538
-0.679
0.155
0.905
1.511
1.925
2.099
1.996
1.586
0.829
-0.312
-1.878
-3.902
-6.397
-9.372
-12.822
-16.745
-21.156
-25.969
-30.998
-35.996
-40.616
-44.566
-47.683
-49.734
-50.425
-49.738
-47.788
-44.908
-41.882
-39.23
-37.121
-35.972
-36.142
-37.541
-40.067
-42.788
-43.615
-41.159
-34.388
-23.187
-9.287
5.95
21.617
38.761
60.807
90.368
129.041
174.064
218.073
253.353
271.076
264.978
233.533
177.524
102.144
14.757
-79.328
-176.596
-276.072
-377.485
-476.386
-564.632
-633.091
-674.021
-685.668
-671.628
-636.957
-587.53
-527.9
-461.461
-393.483
-329.308
-272.93
-226.806
-189.716
-158.514
-131.115
-106.561
-85.705
-70.477
-61.05
-56.021
-53.201
-49.914
-44.886
-38.126
-29.882
-20.67
-10.998
-1.354
7.488
14.607
19.56
22.376
23.264
22.626
20.873
18.352
15.556
13.055
11.209
10.205
10.111
10.847
12.351
14.585
17.449
20.82
24.589
28.642
32.899
37.301
41.768
46.222
50.578
54.751
58.671
62.281
65.541
68.443
70.995
73.218
75.144
76.811
78.268
79.571
80.772
81.92
83.064
84.243
85.5
86.878
88.417
90.157
92.126
94.341
96.805
99.517
102.472
105.655
109.049
112.625
116.353
120.205
124.157
128.188
132.278
136.406
140.55
144.687
148.793
152.853
156.86
160.811
164.706
168.553
172.361
176.147
179.935
183.738
187.559
191.397
195.24
199.075
202.881
206.634
210.309
213.874
217.291
220.512
223.471
226.096
228.314
230.046
231.204
231.718
231.527
230.577
228.83
226.263
222.87
218.655
213.626
207.793
201.169
193.791
185.731
177.073
167.909
158.339
148.47
138.41
128.273
118.175
108.215
98.469
89.0
79.86
71.105
62.802
55.018
47.796
41.142
35.051
29.507
24.495
19.985
15.933
12.274
8.93
5.846
2.984
0.32
-2.169
-4.515
-6.761
-8.958
-11.132
-13.294
-15.45
-17.603
-19.759
-21.915
-24.049
-26.12
-28.082
-29.903
-31.57
-33.078
-34.423
-35.596
-36.585
-37.38
-37.982
-38.399
-38.634
-38.694
-38.579
-38.301
-37.88
-37.343
-36.725
-36.048
-35.328
-34.578
-33.808
-33.031
-32.257
-31.492
-30.738
-29.997
-29.273
-28.573
-27.902
-27.263
-26.657
-26.081
-25.533
-25.012
-24.518
-24.05
-23.609
-23.194
-22.807
-22.45
-22.125
-21.835
-21.579
-21.359
-21.173
-21.022
-20.904
-20.818
-20.764
-20.739
-20.744
-20.777
-20.838
-20.927
-21.042
-21.183
-21.348
-21.538
-21.752
-21.988
-22.245
-22.523
-22.822
-23.139
-23.476
-23.83
-24.201
-24.588
-24.99
-25.405
-25.833
-26.271
-26.717
-27.17
-27.628
-28.088
-28.549
-29.008
-29.464
-29.915
-30.359
-30.794
-31.217
-31.626
-32.02
-32.395
-32.749
-33.079
-33.382
-33.657
-33.9
-34.11
-34.283
-34.418
-34.512
-34.562
-34.566
-34.524
-34.432
-34.289
-34.094
-33.847
-33.548
-33.198
-32.797
-32.348
-31.853
-31.314
-30.736
-30.121
-29.473
-28.795
-28.092
-27.369
-26.628
-25.873
-25.112
-24.347
-23.586
-22.834
-22.097
-21.38
-20.688
-20.028
-19.406
-18.827
-18.294
-17.81
-17.378
-17.003
-16.692
-16.45
-16.272
-16.157
-16.099
-16.094
-16.135
-16.212
-16.306
-16.397
-16.47
-16.511
-16.517
-16.481
-16.391
-16.235
-15.999
-15.673
-15.269
-14.798
-14.26
-13.669
-13.042
-12.413
-11.841
-11.385
-11.095
-11.017
-11.186
-11.633
-12.396
-13.512
-15.021
-16.957
-19.333
-22.159
-25.432
-29.153
-33.343
-37.914
-42.68
-47.388
-51.682
-55.258
-57.951
-59.517
-59.65
-58.334
-55.697
-52.098
-48.366
-45.054
-42.352
-40.72
-40.554
-41.756
-44.194
-46.864
-47.597
-45.045
-38.235
-26.977
-12.742
3.496
21.17
41.242
66.478
98.663
138.613
183.213
225.535
258.604
274.378
267.249
235.652
179.847
104.452
16.232
-79.639
-179.292
-281.651
-386.509
-489.574
-582.993
-657.13
-703.168
-718.557
-706.299
-671.729
-621.736
-561.474
-494.552
-425.983
-360.303
-300.881
-250.18
-207.527
-170.748
-138.865
-111.501
-89.298
-73.673
-64.571
-60.468
-59.337
-58.744
-56.896
-53.242
-47.861
-41.085
-33.347
-25.205
-17.24
-10.178
-4.818
-1.431
0.093
-0.007
-1.291
-3.321
-5.72
-8.005
-9.669
-10.454
-10.263
-9.105
-7.113
-4.388
-1.004
2.909
7.211
11.778
16.502
21.301
26.117
30.869
35.467
39.822
43.846
47.493
50.743
53.593
56.061
58.172
59.961
61.475
62.771
63.903
64.923
65.88
66.815
67.778
68.813
69.964
71.277
72.782
74.499
76.447
78.631
81.049
83.696
86.558
89.616
92.851
96.238
99.746
103.345
107.011
110.725
114.477
118.25
122.029
125.797
129.537
133.244
136.917
140.552
144.137
147.667
151.14
154.573
157.997
161.434
164.886
168.333
171.743
175.088
178.343
181.478
184.451
187.198
189.662
191.804
193.602
195.029
196.038
196.558
196.496
195.79
194.409
192.348
189.622
186.234
182.194
177.53
172.299
166.585
160.453
153.939
147.061
139.855
132.388
124.77
117.114
109.505
101.998
94.632
87.442
80.474
73.768
67.337
61.167
55.233
49.532
44.095
38.967
34.169
29.684
25.461
21.451
17.636
14.006
10.558
7.279
4.148
1.154
-1.696
-4.378
-6.874
-9.187
-11.346
-13.385
-15.321
-17.147
-18.835
-20.367
-21.742
-22.965
-24.036
-24.95
-25.698
-26.287
-26.735
-27.064
-27.289
-27.415
-27.435
-27.345
-27.148
-26.859
-26.497
-26.078
-25.612
-25.109
-24.58
-24.041
-23.505
-22.977
-22.455
-21.939
-21.432
-20.937
-20.461
-20.01
-19.584
-19.183
-18.806
-18.454
-18.124
-17.817
-17.528
-17.254
-16.992
-16.741
-16.501
-16.273
-16.056
-15.847
-15.646
-15.452
-15.263
-15.08
-14.9
-14.722
-14.544
-14.367
-14.191
-14.014
-13.838
-13.662
-13.486
-13.312
-13.14
-12.97
-12.805
-12.645
-12.492
-12.348
-12.215
-12.095
-11.989
-11.901
-11.832
-11.786
-11.764
-11.769
-11.802
-11.865
-11.96
-12.089
-12.252
-12.45
-12.683
-12.952
-13.256
-13.596
-13.971
-14.38
-14.822
-15.296
-15.8
-16.331
-16.888
-17.468
-18.066
-18.681
-19.307
-19.942
-20.581
-21.22
-21.853
-22.477
-23.085
-23.673
-24.234
-24.765
-25.257
-25.707
-26.11
-26.46
-26.753
-26.987
-27.157
-27.262
-27.3
-27.27
-27.173
-27.006
-26.771
-26.467
-26.096
-25.66
-25.158
-24.594
-23.971
-23.293
-22.566
-21.796
-20.989
-20.15
-19.286
-18.404
-17.512
-16.614
-15.716
-14.825
-13.95
-13.1
-12.287
-11.518
-10.796
-10.122
-9.496
-8.912
-8.366
-7.845
-7.334
-6.821
-6.297
-5.757
-5.199
-4.616
-3.998
-3.334
-2.612
-1.826
-0.978
-0.074
0.881
1.865
2.856
3.819
4.703
5.467
6.078
6.504
6.719
6.687
6.359
5.698
4.672
3.27
1.485
-0.701
-3.308
-6.327
-9.747
-13.501
-17.518
-21.799
-26.252
-30.705
-34.94
-38.591
-41.329
-43.006
-43.382
-42.137
-39.299
-35.05
-29.768
-24.286
-19.217
-14.872
-11.83
-10.7
-11.25
-12.603
-13.596
-12.453
-8.628
-3.332
3.068
11.312
22.787
40.835
68.293
104.459
147.552
194.199
238.334
275.499
301.294
309.602
296.525
259.195
196.915
114.476
18.436
-84.776
-191.331
-299.987
-406.396
-512.04
-619.153
-701.689
-732.17
-726.263
-705.896
-667.521
-610.687
-543.642
-470.264
-393.401
-317.529
-248.799
-192.045
-148.438
-116.509
-92.315
-72.892
-57.433
-46.276
-40.431
-39.112
-40.03
-40.742
-39.287
-35.148
-28.713
-20.512
-11.269
-1.821
6.907
13.876
18.551
20.981
21.439
20.387
18.291
15.574
12.771
10.476
9.059
8.655
9.264
10.753
13.004
15.948
19.469
23.423
27.689
32.15
36.721
41.339
45.927
50.397
54.662
58.639
62.256
65.48
68.299
70.722
72.777
74.495
75.911
77.075
78.04
78.863
79.598
80.293
80.992
81.743
82.59
83.579
84.754
86.139
87.748
89.59
91.666
93.979
96.529
99.308
102.302
105.493
108.865
112.396
116.064
119.84
123.693
127.595
131.523
135.46
139.399
143.33
147.242
151.12
154.943
158.69
162.346
165.895
169.325
172.634
175.828
178.92
181.925
184.846
187.668
190.367
192.907
195.247
197.341
199.155
200.661
201.842
202.689
203.186
203.312
203.032
202.29
201.033
199.207
196.777
193.74
190.103
185.89
181.139
175.906
170.237
164.173
157.741
150.943
143.803
136.358
128.673
120.841
112.95
105.085
97.316
89.693
82.255
75.038
68.056
61.302
54.784
48.508
42.505
36.838
31.54
26.622
22.071
17.84
13.892
10.201
6.738
3.484
0.422
-2.465
-5.178
-7.699
-10.026
-12.16
-14.126
-15.974
-17.731
-19.406
-20.997
-22.479
-23.836
-25.064
-26.157
-27.106
-27.907
-28.559
-29.071
-29.468
-29.765
-29.971
-30.086
-30.098
-30.007
-29.822
-29.555
-29.229
-28.86
-28.459
-28.042
-27.625
-27.222
-26.842
-26.488
-26.158
-25.851
-25.57
-25.317
-25.1
-24.921
-24.778
-24.672
-24.6
-24.56
-24.55
-24.565
-24.601
-24.653
-24.718
-24.795
-24.884
-24.983
-25.091
-25.205
-25.323
-25.445
-25.568
-25.69
-25.808
-25.92
-26.026
-26.123
-26.212
-26.291
-26.359
-26.417
-26.465
-26.501
-26.528
-26.545
-26.553
-26.554
-26.548
-26.539
-26.526
-26.513
-26.501
-26.493
-26.49
-26.495
-26.51
-26.537
-26.578
-26.635
-26.71
-26.805
-26.92
-27.058
-27.218
-27.402
-27.609
-27.842
-28.099
-28.379
-28.684
-29.012
-29.361
-29.732
-30.122
-30.529
-30.951
-31.385
-31.83
-32.282
-32.737
-33.192
-33.644
-34.089
-34.522
-34.939
-35.336
-35.708
-36.051
-36.36
-36.631
-36.858
-37.037
-37.166
-37.24
-37.256
-37.212
-37.107
-36.939
-36.708
-36.414
-36.059
-35.642
-35.165
-34.629
-34.037
-33.392
-32.694
-31.948
-31.158
-30.328
-29.465
-28.574
-27.661
-26.733
-25.794
-24.852
-23.913
-22.985
-22.072
-21.182
-20.318
-19.491
-18.709
-17.979
-17.303
-16.68
-16.106
-15.578
-15.091
-14.636
-14.198
-13.764
-13.321
-12.86
-12.376
-11.866
-11.321
-10.731
-10.081
-9.365
-8.586
-7.756
-6.89
-6.001
-5.108
-4.245
-3.464
-2.816
-2.352
-2.116
-2.14
-2.464
-3.123
-4.148
-5.575
-7.436
-9.757
-12.546
-15.812
-19.533
-23.697
-28.311
-33.268
-38.383
-43.4
-47.959
-51.76
-54.63
-56.318
-56.489
-55.109
-52.323
-48.539
-44.603
-41.064
-38.169
-36.419
-36.272
-37.783
-40.506
-43.03
-43.37
-40.182
-33.301
-23.57
-11.584
2.504
19.543
42.278
72.462
110.517
155.752
203.196
246.246
279.02
294.855
289.229
260.573
208.195
134.236
44.066
-57.611
-166.958
-280.233
-395.359
-507.722
-608.234
-687.871
-738.794
-757.227
-746.719
-713.353
-663.031
-601.212
-530.059
-452.027
-372.037
-295.591
-229.489
-178.04
-141.167
-116.098
-98.025
-83.501
-71.552
-62.667
-57.719
-56.076
-55.892
-55.064
-52.041
-46.654
-39.433
-30.981
-22.154
-13.679
-6.262
-0.726
2.647
4.024
3.706
2.173
-0.092
-2.682
-5.102
-6.836
-7.617
-7.361
-6.094
-3.963
-1.077
2.481
6.576
11.065
15.818
20.726
25.705
30.694
35.609
40.358
44.852
49.002
52.762
56.113
59.052
61.6
63.783
65.636
67.209
68.56
69.743
70.815
71.823
72.813
73.835
74.935
76.16
77.556
79.153
80.973
83.034
85.341
87.891
90.68
93.692
96.907
100.308
103.87
107.563
111.362
115.237
119.165
123.135
127.129
131.13
135.12
139.077
142.993
146.869
150.704
154.493
158.235
161.925
165.579
169.225
172.881
176.557
180.242
183.905
187.52
191.066
194.512
197.828
200.967
203.863
206.468
208.747
210.654
212.146
213.151
213.573
213.338
212.393
210.714
208.303
205.159
201.281
196.689
191.415
185.504
179.023
172.014
164.508
156.556
148.22
139.596
130.809
121.975
113.182
104.499
95.978
87.67
79.629
71.887
64.465
57.377
50.632
44.265
38.314
32.801
27.724
23.056
18.742
14.724
10.965
7.433
4.104
0.96
-2.021
-4.847
-7.518
-10.038
-12.416
-14.682
-16.866
-18.992
-21.064
-23.075
-25.001
-26.811
-28.484
-30.003
-31.354
-32.532
-33.536
-34.369
-35.044
-35.57
-35.954
-36.19
-36.276
-36.21
-35.996
-35.65
-35.188
-34.635
-34.012
-33.339
-32.636
-31.916
-31.19
-30.463
-29.741
-29.023
-28.313
-27.617
-26.939
-26.287
-25.662
-25.068
-24.503
-23.968
-23.459
-22.973
-22.509
-22.063
-21.634
-21.222
-20.826
-20.448
-20.087
-19.744
-19.417
-19.107
-18.81
-18.526
-18.253
-17.989
-17.731
-17.48
-17.233
-16.991
-16.751
-16.514
-16.278
-16.045
-15.812
-15.58
-15.349
-15.119
-14.89
-14.662
-14.437
-14.214
-13.996
-13.783
-13.576
-13.376
-13.186
-13.005
-12.836
-12.681
-12.539
-12.414
-12.305
-12.216
-12.146
-12.098
-12.073
-12.073
-12.098
-12.149
-12.227
-12.333
-12.465
-12.625
-12.812
-13.024
-13.261
-13.523
-13.808
-14.115
-14.442
-14.787
-15.149
-15.525
-15.914
-16.311
-16.714
-17.12
-17.526
-17.929
-18.324
-18.707
-19.076
-19.425
-19.751
-20.048
-20.313
-20.542
-20.731
-20.875
-20.971
-21.017
-21.011
-20.95
-20.834
-20.663
-20.437
-20.156
-19.822
-19.435
-18.997
-18.51
-17.976
-17.398
-16.777
-16.117
-15.424
-14.703
-13.959
-13.198
-12.425
-11.647
-10.87
-10.099
-9.342
-8.602
-7.888
-7.205
-6.559
-5.962
-5.419
-4.932
-4.501
-4.122
-3.788
-3.496
-3.234
-2.988
-2.746
-2.497
-2.231
-1.946
-1.631
-1.28
-0.882
-0.422
0.107
0.701
1.356
2.057
2.783
3.517
4.227
4.865
5.389
5.761
5.94
5.897
5.595
4.988
4.041
2.723
1.007
-1.124
-3.694
-6.712
-10.171
-14.04
-18.282
-22.877
-27.732
-32.68
-37.48
-41.788
-45.307
-47.855
-49.191
-49.0
-47.256
-44.114
-39.979
-35.682
-31.772
-28.515
-26.445
-26.036
-27.339
-29.869
-32.174
-32.327
-29.071
-22.352
-13.152
-2.016
11.064
27.129
49.123
78.756
116.192
160.452
206.474
247.891
279.136
293.724
286.876
256.496
201.563
124.459
31.188
-73.117
-183.995
-298.499
-414.73
-524.38
-623.663
-712.575
-768.438
-771.813
-742.3
-702.369
-650.53
-584.57
-510.541
-432.982
-354.529
-280.706
-217.592
-167.599
-130.738
-104.395
-84.444
-68.773
-56.762
-48.669
-44.816
-44.039
-44.348
-43.774
-41.025
-36.032
-29.276
-21.343
-13.08
-5.209
1.551
6.411
9.145
9.937
9.103
7.139
4.536
1.706
-0.865
-2.683
-3.51
-3.275
-2.02
0.099
2.965
6.485
10.525
14.94
19.606
24.41
29.264
34.101
38.837
43.383
47.653
51.569
55.087
58.194
60.895
63.216
65.19
66.854
68.259
69.463
70.523
71.493
72.425
73.363
74.355
75.447
76.684
78.104
79.736
81.595
83.695
86.04
88.631
91.462
94.518
97.784
101.237
104.856
108.613
112.473
116.403
120.379
124.38
128.394
132.406
136.402
140.369
144.296
148.171
151.99
155.742
159.409
162.988
166.48
169.9
173.283
176.641
179.971
183.258
186.473
189.582
192.552
195.335
197.868
200.099
201.979
203.471
204.557
205.201
205.36
204.977
203.977
202.313
199.964
196.921
193.191
188.797
183.772
178.177
172.102
165.623
158.803
151.697
144.34
136.784
129.094
121.336
113.591
105.923
98.38
91.007
83.841
76.905
70.21
63.745
57.474
51.375
45.44
39.668
34.069
28.647
23.399
18.323
13.418
8.683
4.12
-0.271
-4.494
-8.543
-12.41
-16.075
-19.51
-22.698
-25.627
-28.294
-30.699
-32.844
-34.732
-36.37
-37.771
-38.945
-39.902
-40.653
-41.204
-41.565
-41.75
-41.774
-41.653
-41.403
-41.038
-40.57
-40.015
-39.382
-38.685
-37.931
-37.13
-36.289
-35.417
-34.523
-33.616
-32.705
-31.797
-30.899
-30.019
-29.163
-28.337
-27.544
-26.788
-26.073
-25.4
-24.772
-24.19
-23.654
-23.165
-22.723
-22.328
-21.978
-21.674
-21.413
-21.194
-21.015
-20.874
-20.769
-20.696
-20.655
-20.642
-20.655
-20.692
-20.75
-20.827
-20.921
-21.028
-21.147
-21.275
-21.41
-21.55
-21.692
-21.835
-21.977
-22.117
-22.253
-22.384
-22.51
-22.63
-22.743
-22.849
-22.947
-23.038
-23.12
-23.196
-23.263
-23.324
-23.377
-23.425
-23.468
-23.506
-23.541
-23.573
-23.604
-23.634
-23.665
-23.698
-23.732
-23.77
-23.811
-23.856
-23.906
-23.961
-24.021
-24.087
-24.157
-24.233
-24.314
-24.399
-24.488
-24.58
-24.675
-24.77
-24.866
-24.961
-25.053
-25.14
-25.222
-25.295
-25.357
-25.407
-25.441
-25.457
-25.451
-25.422
-25.365
-25.278
-25.158
-25.002
-24.809
-24.578
-24.305
-23.992
-23.638
-23.245
-22.811
-22.338
-21.827
-21.279
-20.696
-20.079
-19.43
-18.751
-18.045
-17.317
-16.571
-15.811
-15.042
-14.269
-13.498
-12.732
-11.978
-11.241
-10.524
-9.834
-9.176
-8.556
-7.985
-7.468
-7.006
-6.599
-6.244
-5.934
-5.665
-5.426
-5.202
-4.982
-4.754
-4.51
-4.247
-3.956
-3.631
-3.262
-2.835
-2.342
-1.789
-1.177
-0.523
0.152
0.832
1.485
2.06
2.519
2.822
2.927
2.807
2.426
1.744
0.731
-0.644
-2.405
-4.569
-7.157
-10.179
-13.627
-17.472
-21.684
-26.239
-31.038
-35.919
-40.649
-44.892
-48.358
-50.875
-52.208
-52.072
-50.461
-47.521
-43.622
-39.59
-35.99
-33.031
-31.17
-30.823
-31.913
-34.296
-36.985
-37.828
-35.43
-28.775
-17.659
-3.611
12.271
29.218
48.034
71.723
102.348
141.036
185.25
227.959
262.073
279.957
275.526
247.206
195.224
122.546
35.388
-61.573
-165.244
-273.066
-383.843
-492.527
-589.619
-665.249
-710.597
-723.213
-707.193
-669.057
-616.471
-554.368
-485.811
-414.705
-344.848
-281.169
-227.421
-184.158
-150.126
-122.345
-98.758
-79.023
-63.581
-53.534
-48.355
-46.246
-45.232
-43.173
-39.2
-33.544
-26.537
-18.684
-10.643
-2.936
3.772
8.71
11.658
12.767
12.301
10.707
8.432
5.848
3.425
1.661
0.806
0.948
2.074
4.048
6.771
10.166
14.105
18.447
23.067
27.855
32.726
37.618
42.448
47.126
51.563
55.675
59.415
62.765
65.724
68.313
70.557
72.493
74.169
75.642
76.966
78.197
79.382
80.566
81.795
83.119
84.578
86.218
88.068
90.146
92.471
95.045
97.866
100.926
104.209
107.694
111.361
115.186
119.135
123.182
127.294
131.45
135.637
139.836
144.029
148.197
152.318
156.38
160.388
164.339
168.227
172.052
175.809
179.514
183.197
186.879
190.565
194.246
197.885
201.458
204.944
208.312
211.534
214.56
217.318
219.763
221.856
223.551
224.803
225.536
225.647
225.066
223.748
221.675
218.858
215.297
210.991
205.964
200.248
193.898
186.994
179.577
171.683
163.371
154.71
145.812
136.818
127.833
118.931
110.176
101.607
93.277
85.243
77.531
70.159
63.134
56.456
50.161
44.29
38.848
33.827
29.182
24.841
20.764
16.928
13.312
9.905
6.687
3.635
0.751
-1.96
-4.498
-6.87
-9.108
-11.249
-13.302
-15.268
-17.125
-18.838
-20.393
-21.784
-23.0
-24.039
-24.9
-25.582
-26.102
-26.48
-26.727
-26.85
-26.845
-26.705
-26.438
-26.058
-25.583
-25.039
-24.445
-23.818
-23.178
-22.542
-21.921
-21.326
-20.761
-20.222
-19.715
-19.243
-18.814
-18.433
-18.103
-17.826
-17.601
-17.426
-17.299
-17.217
-17.175
-17.168
-17.193
-17.247
-17.328
-17.435
-17.565
-17.717
-17.889
-18.077
-18.277
-18.488
-18.705
-18.925
-19.146
-19.364
-19.577
-19.783
-19.981
-20.169
-20.346
-20.511
-20.662
-20.801
-20.926
-21.037
-21.136
-21.222
-21.297
-21.362
-21.418
-21.467
-21.51
-21.551
-21.589
-21.629
-21.671
-21.718
-21.77
-21.831
-21.9
-21.98
-22.071
-22.174
-22.289
-22.417
-22.559
-22.714
-22.882
-23.063
-23.255
-23.457
-23.668
-23.887
-24.11
-24.336
-24.563
-24.786
-25.004
-25.214
-25.411
-25.593
-25.757
-25.897
-26.011
-26.094
-26.143
-26.154
-26.124
-26.049
-25.926
-25.753
-25.528
-25.25
-24.917
-24.531
-24.091
-23.6
-23.057
-22.466
-21.828
-21.146
-20.423
-19.663
-18.868
-18.043
-17.192
-16.32
-15.435
-14.541
-13.645
-12.752
-11.87
-11.004
-10.164
-9.354
-8.579
-7.843
-7.152
-6.512
-5.931
-5.414
-4.96
-4.568
-4.238
-3.966
-3.749
-3.575
-3.429
-3.296
-3.161
-3.013
-2.851
-2.666
-2.452
-2.199
-1.898
-1.543
-1.142
-0.702
-0.224
0.282
0.8
1.295
1.715
2.006
2.117
2.003
1.628
0.956
-0.039
-1.389
-3.127
-5.279
-7.864
-10.902
-14.396
-18.36
-22.816
-27.688
-32.8
-37.9
-42.644
-46.741
-50.016
-52.227
-53.072
-52.492
-50.639
-47.921
-45.074
-42.589
-40.577
-39.349
-39.363
-40.702
-43.231
-45.914
-46.748
-44.499
-38.446
-28.69
-16.534
-2.34
13.714
32.259
56.109
86.394
123.352
165.614
207.042
242.045
265.134
269.56
252.188
211.036
145.871
62.226
-33.8
-137.334
-243.784
-351.797
-458.594
-556.393
-636.385
-690.018
-712.258
-705.602
-675.793
-628.42
-569.261
-501.718
-429.057
-357.294
-291.798
-236.537
-193.47
-160.365
-133.519
-110.758
-90.914
-74.647
-63.744
-57.879
-55.449
-54.415
-52.275
-48.004
-41.843
-34.154
-25.467
-16.424
-7.562
0.411
6.599
10.658
12.688
12.922
11.8
9.763
7.175
4.512
2.309
0.877
0.35
0.749
1.956
3.875
6.443
9.55
13.074
16.907
20.947
25.116
29.352
33.584
37.729
41.707
45.436
48.847
51.902
54.588
56.916
58.91
60.602
62.029
63.236
64.275
65.2
66.061
66.905
67.771
68.701
69.738
70.923
72.296
73.882
75.694
77.737
80.012
82.52
85.261
88.229
91.405
94.771
98.305
101.982
105.781
109.677
113.637
117.633
121.64
125.643
129.635
133.612
137.561
141.462
145.288
149.014
152.628
156.116
159.469
162.688
165.769
168.715
171.544
174.261
176.854
179.296
181.539
183.526
185.218
186.586
187.611
188.279
188.569
188.456
187.926
186.954
185.515
183.579
181.098
178.036
174.395
170.193
165.479
160.325
154.782
148.897
142.716
136.273
129.611
122.774
115.79
108.698
101.541
94.371
87.259
80.268
73.434
66.78
60.303
53.988
47.829
41.827
35.974
30.276
24.735
19.357
14.158
9.155
4.355
-0.242
-4.648
-8.875
-12.922
-16.785
-20.453
-23.909
-27.14
-30.141
-32.899
-35.409
-37.673
-39.692
-41.478
-43.045
-44.404
-45.565
-46.535
-47.321
-47.933
-48.382
-48.681
-48.844
-48.883
-48.813
-48.647
-48.401
-48.085
-47.713
-47.291
-46.829
-46.334
-45.815
-45.279
-44.732
-44.183
-43.637
-43.101
-42.582
-42.083
-41.609
-41.163
-40.748
-40.366
-40.017
-39.702
-39.421
-39.173
-38.957
-38.773
-38.617
-38.489
-38.385
-38.304
-38.241
-38.195
-38.162
-38.139
-38.122
-38.109
-38.096
-38.081
-38.06
-38.031
-37.992
-37.941
-37.875
-37.793
-37.693
-37.575
-37.436
-37.276
-37.094
-36.89
-36.664
-36.417
-36.15
-35.862
-35.557
-35.234
-34.898
-34.548
-34.188
-33.82
-33.447
-33.072
-32.696
-32.324
-31.958
-31.602
-31.258
-30.93
-30.621
-30.333
-30.07
-29.834
-29.628
-29.453
-29.311
-29.204
-29.132
-29.097
-29.099
-29.138
-29.213
-29.326
-29.474
-29.656
-29.871
-30.116
-30.391
-30.69
-31.013
-31.355
-31.712
-32.08
-32.456
-32.833
-33.209
-33.577
-33.932
-34.268
-34.579
-34.86
-35.104
-35.306
-35.459
-35.559
-35.601
-35.579
-35.489
-35.329
-35.096
-34.788
-34.404
-33.944
-33.405
-32.789
-32.096
-31.327
-30.484
-29.568
-28.582
-27.529
-26.415
-25.245
-24.026
-22.763
-21.463
-20.134
-18.783
-17.418
-16.046
-14.674
-13.31
-11.963
-10.642
-9.36
-8.124
-6.938
-5.804
-4.723
-3.689
-2.699
-1.745
-0.816
0.099
1.006
1.913
2.819
3.729
4.651
5.59
6.558
7.561
8.596
9.654
10.725
11.789
12.821
13.795
14.669
15.403
15.965
16.323
16.446
16.31
15.883
15.13
14.031
12.559
10.693
8.422
5.726
2.613
-0.887
-4.758
-8.985
-13.496
-18.161
-22.761
-26.983
-30.556
-33.289
-34.956
-35.286
-34.126
-31.571
-28.001
-24.096
-20.507
-17.565
-15.589
-15.071
-16.308
-19.233
-22.946
-25.634
-25.693
-22.008
-14.64
-4.604
8.173
23.716
43.02
68.942
101.755
141.005
185.302
228.75
266.276
292.913
301.723
288.778
251.606
189.725
108.002
12.93
-89.871
-196.563
-306.096
-417.073
-524.004
-617.507
-686.911
-724.248
-728.667
-705.213
-661.407
-604.873
-539.594
-467.849
-392.857
-318.431
-250.419
-193.583
-149.357
-116.718
-91.984
-72.313
-56.807
-45.597
-39.579
-37.957
-38.519
-38.919
-37.244
-32.967
-26.448
-18.194
-8.918
0.548
9.287
16.273
20.98
23.457
23.973
22.987
20.967
18.336
15.63
13.436
12.122
11.82
12.53
14.119
16.47
19.514
23.132
27.182
31.541
36.093
40.754
45.457
50.125
54.666
58.993
63.02
66.678
69.933
72.773
75.208
77.265
78.977
80.387
81.543
82.502
83.322
84.056
84.757
85.469
86.238
87.108
88.124
89.328
90.748
92.408
94.316
96.474
98.879
101.524
104.394
107.47
110.726
114.127
117.645
121.257
124.945
128.698
132.501
136.336
140.187
144.04
147.889
151.731
155.561
159.366
163.136
166.871
170.584
174.301
178.043
181.807
185.579
189.327
193.024
196.639
200.13
203.447
206.52
209.286
211.694
213.711
215.301
216.419
217.004
216.979
216.285
214.89
212.782
209.964
206.441
202.233
197.378
191.942
186.015
179.673
172.975
165.971
158.708
151.245
143.658
136.029
128.426
120.9
113.493
106.241
99.18
92.335
85.711
79.291
73.042
66.946
61.0
55.208
49.576
44.103
38.782
33.606
28.579
23.708
18.996
14.448
10.061
5.843
1.806
-2.025
-5.626
-8.979
-12.077
-14.918
-17.501
-19.825
-21.895
-23.715
-25.3
-26.661
-27.809
-28.754
-29.503
-30.068
-30.465
-30.709
-30.816
-30.802
-30.68
-30.464
-30.167
-29.801
-29.378
-28.906
-28.393
-27.848
-27.28
-26.697
-26.108
-25.521
-24.944
-24.382
-23.844
-23.334
-22.857
-22.417
-22.017
-21.658
-21.342
-21.07
-20.843
-20.661
-20.522
-20.426
-20.371
-20.356
-20.378
-20.435
-20.525
-20.644
-20.789
-20.958
-21.147
-21.354
-21.575
-21.808
-22.049
-22.296
-22.547
-22.797
-23.046
-23.289
-23.525
-23.752
-23.966
-24.167
-24.352
-24.521
-24.672
-24.805
-24.918
-25.012
-25.087
-25.143
-25.179
-25.197
-25.197
-25.179
-25.145
-25.096
-25.034
-24.959
-24.874
-24.78
-24.679
-24.572
-24.463
-24.353
-24.244
-24.138
-24.039
-23.947
-23.866
-23.797
-23.744
-23.708
-23.691
-23.695
-23.722
-23.773
-23.849
-23.951
-24.079
-24.235
-24.418
-24.629
-24.867
-25.132
-25.424
-25.741
-26.082
-26.446
-26.831
-27.235
-27.655
-28.089
-28.533
-28.984
-29.438
-29.893
-30.342
-30.783
-31.21
-31.618
-32.003
-32.358
-32.679
-32.961
-33.199
-33.39
-33.529
-33.614
-33.642
-33.612
-33.522
-33.371
-33.159
-32.884
-32.547
-32.148
-31.689
-31.168
-30.588
-29.952
-29.263
-28.526
-27.745
-26.927
-26.075
-25.196
-24.296
-23.382
-22.46
-21.535
-20.614
-19.705
-18.816
-17.96
-17.144
-16.37
-15.64
-14.953
-14.305
-13.693
-13.109
-12.536
-11.965
-11.383
-10.785
-10.168
-9.525
-8.849
-8.129
-7.354
-6.517
-5.625
-4.687
-3.712
-2.72
-1.728
-0.769
0.106
0.851
1.428
1.795
1.918
1.759
1.272
0.42
-0.824
-2.483
-4.574
-7.109
-10.104
-13.561
-17.453
-21.76
-26.457
-31.445
-36.563
-41.57
-46.13
-49.954
-52.858
-54.587
-54.833
-53.529
-50.82
-47.125
-43.189
-39.519
-36.255
-33.732
-32.466
-32.587
-33.978
-35.583
-35.344
-31.998
-24.862
-14.235
-1.621
12.594
28.359
46.726
70.941
102.145
140.285
183.606
225.608
260.823
284.306
289.737
273.877
234.147
169.638
84.937
-13.593
-120.014
-229.973
-342.273
-455.511
-564.187
-658.887
-728.628
-764.877
-766.34
-737.75
-686.629
-621.726
-548.172
-469.185
-389.269
-311.964
-242.641
-186.71
-145.123
-116.827
-98.482
-85.228
-74.888
-67.071
-61.643
-58.861
-57.612
-55.838
-52.29
-46.446
-38.536
-29.268
-19.457
-9.908
-1.459
5.009
9.14
11.062
11.094
9.735
7.475
4.729
1.999
-0.168
-1.443
-1.701
-0.938
0.713
3.142
6.274
9.994
14.164
18.663
23.376
28.208
33.094
37.957
42.708
47.26
51.528
55.44
58.96
62.078
64.801
67.153
69.164
70.87
72.32
73.571
74.68
75.701
76.682
77.667
78.703
79.835
81.109
82.563
84.221
86.096
88.197
90.529
93.094
95.891
98.905
102.122
105.523
109.09
112.8
116.626
120.533
124.495
128.487
132.491
136.498
140.494
144.467
148.406
152.294
156.116
159.864
163.518
167.067
170.506
173.84
177.088
180.276
183.403
186.459
189.425
192.268
194.96
197.464
199.732
201.722
203.405
204.757
205.764
206.407
206.642
206.412
205.654
204.301
202.32
199.703
196.442
192.549
188.047
182.969
177.378
171.334
164.868
157.998
150.747
143.148
135.274
127.224
119.089
110.957
102.897
94.955
87.185
79.632
72.323
65.268
58.46
51.894
45.597
39.621
34.002
28.751
23.849
19.244
14.903
10.802
6.919
3.24
-0.256
-3.591
-6.767
-9.771
-12.592
-15.224
-17.687
-20.025
-22.261
-24.403
-26.441
-28.344
-30.097
-31.7
-33.143
-34.421
-35.525
-36.453
-37.212
-37.826
-38.31
-38.673
-38.916
-39.027
-39.006
-38.864
-38.614
-38.28
-37.878
-37.419
-36.92
-36.397
-35.864
-35.333
-34.809
-34.288
-33.773
-33.268
-32.778
-32.312
-31.873
-31.463
-31.082
-30.73
-30.406
-30.111
-29.84
-29.591
-29.361
-29.148
-28.952
-28.773
-28.612
-28.466
-28.336
-28.219
-28.114
-28.02
-27.935
-27.855
-27.779
-27.706
-27.633
-27.56
-27.485
-27.407
-27.325
-27.238
-27.145
-27.045
-26.937
-26.821
-26.696
-26.563
-26.421
-26.271
-26.113
-25.947
-25.774
-25.594
-25.409
-25.218
-25.022
-24.823
-24.62
-24.414
-24.207
-23.998
-23.789
-23.581
-23.374
-23.169
-22.969
-22.773
-22.584
-22.401
-22.226
-22.06
-21.903
-21.758
-21.624
-21.501
-21.393
-21.297
-21.217
-21.151
-21.1
-21.064
-21.044
-21.038
-21.047
-21.07
-21.107
-21.157
-21.219
-21.292
-21.376
-21.47
-21.572
-21.681
-21.795
-21.913
-22.033
-22.152
-22.269
-22.38
-22.484
-22.579
-22.66
-22.726
-22.773
-22.799
-22.801
-22.776
-22.722
-22.635
-22.514
-22.357
-22.162
-21.929
-21.656
-21.344
-20.993
-20.605
-20.181
-19.721
-19.229
-18.705
-18.152
-17.573
-16.969
-16.342
-15.697
-15.035
-14.362
-13.682
-12.999
-12.317
-11.642
-10.977
-10.33
-9.704
-9.1
-8.521
-7.969
-7.448
-6.965
-6.522
-6.118
-5.749
-5.416
-5.112
-4.835
-4.572
-4.305
-4.014
-3.685
-3.308
-2.882
-2.402
-1.859
-1.242
-0.542
0.244
1.103
2.027
3.014
4.055
5.126
6.189
7.176
8.018
8.668
9.078
9.211
9.04
8.513
7.579
6.202
4.341
1.985
-0.861
-4.229
-8.16
-12.607
-17.429
-22.371
-27.07
-31.244
-34.696
-37.195
-38.448
-38.282
-36.758
-34.225
-31.347
-28.718
-26.588
-25.213
-25.035
-26.294
-28.946
-32.176
-34.166
-33.329
-28.682
-20.17
-8.925
4.495
20.016
38.216
61.723
92.322
130.536
175.944
223.856
267.753
300.673
314.126
301.793
260.945
192.977
104.258
3.807
-100.894
-206.654
-314.0
-423.059
-527.574
-623.764
-709.646
-762.147
-761.791
-728.047
-684.314
-630.002
-562.95
-488.965
-412.028
-334.025
-260.504
-198.082
-149.628
-115.6
-93.198
-77.426
-65.599
-56.693
-50.538
-47.557
-46.595
-45.584
-43.078
-38.154
-30.823
-21.76
-11.718
-1.648
7.417
14.521
19.194
21.5
21.744
20.415
18.008
14.971
11.859
9.259
7.543
6.852
7.195
8.446
10.495
13.276
16.675
20.554
24.793
29.277
33.917
38.645
43.381
48.027
52.491
56.682
60.521
63.966
67.001
69.632
71.883
73.782
75.367
76.684
77.788
78.735
79.579
80.371
81.155
81.979
82.889
83.933
85.154
86.582
88.233
90.112
92.224
94.565
97.138
99.938
102.954
106.167
109.56
113.111
116.801
120.612
124.516
128.482
132.485
136.503
140.525
144.553
148.576
152.578
156.536
160.42
164.207
167.887
171.449
174.885
178.188
181.347
184.365
187.259
190.025
192.647
195.086
197.282
199.19
200.784
202.043
202.96
203.519
203.693
203.463
202.816
201.731
200.195
198.175
195.62
192.51
188.853
184.683
180.068
175.06
169.696
164.011
158.037
151.81
145.374
138.763
131.999
125.117
118.155
111.169
104.233
97.396
90.684
84.108
77.652
71.311
65.095
59.006
53.049
47.228
41.548
36.021
30.673
25.519
20.565
15.809
11.236
6.843
2.634
-1.378
-5.178
-8.751
-12.093
-15.196
-18.049
-20.651
-23.001
-25.106
-26.981
-28.637
-30.083
-31.327
-32.374
-33.232
-33.913
-34.429
-34.792
-35.015
-35.11
-35.092
-34.975
-34.772
-34.496
-34.155
-33.759
-33.316
-32.835
-32.324
-31.79
-31.242
-30.686
-30.129
-29.577
-29.037
-28.513
-28.01
-27.529
-27.075
-26.648
-26.25
-25.881
-25.542
-25.232
-24.951
-24.697
-24.469
-24.265
-24.083
-23.921
-23.777
-23.647
-23.529
-23.421
-23.319
-23.222
-23.126
-23.029
-22.929
-22.825
-22.714
-22.595
-22.468
-22.33
-22.181
-22.019
-21.846
-21.66
-21.462
-21.252
-21.032
-20.801
-20.562
-20.315
-20.063
-19.808
-19.551
-19.295
-19.042
-18.794
-18.553
-18.324
-18.107
-17.906
-17.723
-17.561
-17.422
-17.308
-17.222
-17.166
-17.142
-17.151
-17.195
-17.276
-17.393
-17.548
-17.742
-17.973
-18.242
-18.548
-18.889
-19.265
-19.673
-20.112
-20.579
-21.071
-21.587
-22.122
-22.674
-23.239
-23.813
-24.393
-24.973
-25.55
-26.119
-26.676
-27.215
-27.732
-28.222
-28.68
-29.102
-29.482
-29.815
-30.098
-30.326
-30.495
-30.602
-30.643
-30.616
-30.52
-30.353
-30.116
-29.808
-29.432
-28.988
-28.478
-27.906
-27.273
-26.583
-25.84
-25.046
-24.205
-23.324
-22.407
-21.46
-20.491
-19.505
-18.51
-17.511
-16.516
-15.532
-14.566
-13.624
-12.71
-11.831
-10.994
-10.208
-9.478
-8.806
-8.19
-7.627
-7.112
-6.641
-6.205
-5.79
-5.38
-4.961
-4.523
-4.059
-3.563
-3.028
-2.438
-1.78
-1.048
-0.245
0.616
1.523
2.464
3.422
4.362
5.233
5.984
6.565
6.929
7.039
6.848
6.316
5.406
4.082
2.31
0.063
-2.67
-5.902
-9.607
-13.767
-18.388
-23.361
-28.504
-33.562
-38.167
-42.004
-44.893
-46.582
-46.736
-45.323
-42.484
-38.61
-34.545
-30.842
-27.759
-25.797
-25.426
-26.715
-29.142
-31.299
-31.323
-27.858
-21.033
-11.9
-0.499
13.214
30.718
55.383
87.671
127.205
172.226
216.339
254.208
280.584
289.378
278.118
245.273
191.019
118.815
32.284
-65.32
-172.058
-286.794
-406.444
-523.903
-628.113
-707.347
-753.022
-763.288
-742.49
-698.101
-638.368
-568.617
-492.527
-414.095
-337.198
-267.62
-209.834
-164.937
-131.832
-106.456
-85.714
-68.827
-56.031
-48.46
-45.482
-44.805
-43.982
-41.058
-35.536
-27.86
-18.635
-8.606
1.405
10.487
17.631
22.318
24.61
24.799
23.365
20.796
17.532
14.128
11.196
9.126
8.073
8.056
8.957
10.67
13.136
16.239
19.838
23.808
28.031
32.416
36.898
41.395
45.81
50.049
54.017
57.632
60.853
63.663
66.065
68.081
69.74
71.08
72.149
73.007
73.713
74.322
74.884
75.447
76.059
76.772
77.634
78.687
79.96
81.471
83.232
85.252
87.529
90.059
92.826
95.812
98.996
102.356
105.865
109.49
113.199
116.97
120.781
124.621
128.475
132.327
136.162
139.964
143.722
147.428
151.071
154.633
158.11
161.501
164.821
168.104
171.36
174.58
177.744
180.816
183.765
186.562
189.166
191.528
193.607
195.363
196.777
197.838
198.514
198.761
198.508
197.669
196.189
194.048
191.241
187.78
183.68
178.963
173.676
167.883
161.636
154.973
147.909
140.454
132.651
124.571
116.312
107.995
99.709
91.519
83.479
75.631
68.015
60.664
53.581
46.757
40.2
33.935
28.018
22.5
17.395
12.693
8.358
4.33
0.574
-2.936
-6.227
-9.317
-12.225
-14.962
-17.518
-19.881
-22.053
-24.054
-25.926
-27.711
-29.423
-31.064
-32.618
-34.06
-35.374
-36.55
-37.573
-38.436
-39.136
-39.676
-40.071
-40.341
-40.495
-40.536
-40.456
-40.249
-39.917
-39.472
-38.93
-38.311
-37.634
-36.915
-36.173
-35.426
-34.683
-33.954
-33.24
-32.541
-31.858
-31.196
-30.56
-29.956
-29.386
-28.852
-28.354
-27.889
-27.457
-27.055
-26.68
-26.327
-25.995
-25.683
-25.388
-25.114
-24.858
-24.621
-24.402
-24.2
-24.012
-23.839
-23.677
-23.526
-23.384
-23.249
-23.121
-23.0
-22.884
-22.775
-22.67
-22.571
-22.477
-22.389
-22.307
-22.232
-22.165
-22.107
-22.059
-22.022
-21.997
-21.986
-21.989
-22.008
-22.044
-22.097
-22.167
-22.255
-22.361
-22.486
-22.628
-22.787
-22.963
-23.156
-23.365
-23.589
-23.826
-24.076
-24.336
-24.604
-24.879
-25.158
-25.438
-25.716
-25.99
-26.255
-26.508
-26.746
-26.965
-27.16
-27.328
-27.464
-27.565
-27.628
-27.649
-27.626
-27.558
-27.442
-27.279
-27.068
-26.81
-26.503
-26.15
-25.75
-25.306
-24.817
-24.286
-23.715
-23.106
-22.465
-21.795
-21.102
-20.389
-19.664
-18.929
-18.192
-17.456
-16.729
-16.013
-15.315
-14.641
-13.997
-13.395
-12.84
-12.332
-11.872
-11.456
-11.078
-10.732
-10.408
-10.091
-9.77
-9.434
-9.075
-8.689
-8.27
-7.808
-7.297
-6.721
-6.074
-5.359
-4.581
-3.754
-2.902
-2.04
-1.203
-0.438
0.213
0.711
1.014
1.092
0.91
0.425
-0.394
-1.576
-3.149
-5.131
-7.549
-10.414
-13.726
-17.457
-21.585
-26.095
-30.894
-35.818
-40.619
-44.935
-48.457
-51.001
-52.318
-52.102
-50.341
-47.191
-43.071
-38.888
-35.267
-32.443
-30.906
-31.094
-32.921
-36.216
-39.854
-41.482
-39.677
-33.421
-22.377
-7.95
9.328
29.259
52.178
80.333
114.29
153.517
196.002
235.809
267.801
286.71
285.86
262.171
213.479
139.656
46.856
-58.885
-172.13
-287.789
-403.639
-513.04
-613.47
-706.572
-770.172
-782.102
-760.71
-727.699
-679.491
-615.101
-541.184
-461.708
-380.803
-303.623
-236.54
-183.733
-145.167
-118.404
-98.927
-83.293
-70.452
-60.702
-54.798
-52.129
-50.891
-49.038
-45.07
-38.835
-30.881
-21.836
-12.563
-3.794
3.777
9.338
12.618
13.793
13.185
11.294
8.613
5.558
2.622
0.318
-1.062
-1.408
-0.731
0.841
3.201
6.261
9.896
13.964
18.334
22.895
27.555
32.24
36.873
41.365
45.63
49.592
53.189
56.387
59.18
61.583
63.623
65.339
66.774
67.979
69.016
69.942
70.809
71.668
72.559
73.528
74.617
75.867
77.315
78.985
80.888
83.03
85.411
88.026
90.868
93.925
97.177
100.609
104.205
107.951
111.831
115.829
119.923
124.094
128.32
132.579
136.85
141.112
145.342
149.518
153.617
157.619
161.501
165.241
168.816
172.204
175.383
178.33
181.027
183.453
185.591
187.424
188.938
190.119
190.958
191.445
191.572
191.335
190.729
189.753
188.408
186.695
184.618
182.183
179.397
176.27
172.814
169.041
164.965
160.601
155.968
151.084
145.967
140.639
135.12
129.432
123.598
117.64
111.582
105.446
99.257
93.036
86.806
80.589
74.408
68.281
62.229
56.272
50.426
44.709
39.137
33.724
28.484
23.428
18.569
13.916
9.476
5.258
1.267
-2.494
-6.02
-9.311
-12.366
-15.185
-17.772
-20.128
-22.257
-24.166
-25.86
-27.345
-28.63
-29.723
-30.633
-31.368
-31.939
-32.355
-32.627
-32.765
-32.779
-32.68
-32.478
-32.183
-31.805
-31.354
-30.839
-30.27
-29.656
-29.004
-28.322
-27.619
-26.901
-26.175
-25.446
-24.72
-24.001
-23.296
-22.606
-21.936
-21.288
-20.665
-20.069
-19.501
-18.963
-18.456
-17.979
-17.534
-17.121
-16.739
-16.388
-16.068
-15.778
-15.518
-15.287
-15.085
-14.911
-14.764
-14.644
-14.55
-14.481
-14.436
-14.415
-14.417
-14.44
-14.483
-14.546
-14.627
-14.726
-14.839
-14.968
-15.109
-15.263
-15.427
-15.6
-15.781
-15.969
-16.162
-16.358
-16.555
-16.751
-16.945
-17.134
-17.317
-17.489
-17.649
-17.794
-17.921
-18.026
-18.107
-18.16
-18.182
-18.169
-18.121
-18.032
-17.903
-17.731
-17.514
-17.254
-16.949
-16.602
-16.212
-15.781
-15.309
-14.8
-14.255
-13.675
-13.062
-12.42
-11.751
-11.06
-10.351
-9.631
-8.902
-8.171
-7.443
-6.723
-6.017
-5.329
-4.663
-4.027
-3.424
-2.862
-2.351
-1.894
-1.493
-1.147
-0.851
-0.599
-0.385
-0.196
-0.018
0.162
0.357
0.575
0.82
1.103
1.43
1.813
2.266
2.799
3.404
4.079
4.807
5.567
6.341
7.095
7.779
8.353
8.778
9.011
9.023
8.779
8.231
7.348
6.097
4.452
2.397
-0.09
-3.017
-6.377
-10.14
-14.275
-18.765
-23.521
-28.38
-33.101
-37.343
-40.802
-43.289
-44.552
-44.265
-42.397
-39.109
-34.821
-30.384
-26.386
-23.126
-21.157
-20.974
-22.623
-25.629
-28.585
-29.574
-27.305
-21.553
-12.915
-1.612
12.492
30.207
53.738
84.131
121.242
164.234
208.816
249.311
280.527
296.166
291.18
263.137
210.781
135.966
44.282
-59.287
-170.799
-286.852
-405.758
-522.184
-626.406
-708.143
-757.829
-772.51
-756.271
-716.059
-660.532
-595.213
-522.671
-446.231
-368.807
-295.172
-231.175
-179.32
-140.13
-111.67
-90.059
-73.208
-60.287
-51.28
-46.475
-44.735
-44.083
-42.558
-38.826
-32.791
-24.962
-15.954
-6.615
2.311
10.077
15.853
19.36
20.749
20.329
18.594
16.023
13.032
10.114
7.778
6.317
5.844
6.348
7.705
9.809
12.578
15.896
19.629
23.656
27.875
32.201
36.567
40.906
45.134
49.172
52.944
56.384
59.457
62.158
64.499
66.507
68.219
69.676
70.927
72.032
73.045
74.019
75.0
76.027
77.141
78.385
79.8
81.423
83.28
85.382
87.735
90.337
93.184
96.268
99.575
103.085
106.779
110.64
114.651
118.798
123.061
127.417
131.846
136.321
140.822
145.324
149.805
154.24
158.605
162.877
167.032
171.049
174.905
178.576
182.039
185.27
188.248
190.952
193.363
195.462
197.233
198.66
199.732
200.437
200.769
200.718
200.282
199.456
198.241
196.638
194.65
192.283
189.543
186.439
182.983
179.187
175.065
170.634
165.911
160.915
155.666
150.184
144.492
138.613
132.569
126.386
120.087
113.696
107.239
100.74
94.222
87.71
81.227
74.795
68.435
62.168
56.013
49.99
44.115
38.404
32.871
27.531
22.396
17.475
12.778
8.313
4.086
0.102
-3.635
-7.125
-10.366
-13.359
-16.107
-18.611
-20.878
-22.912
-24.721
-26.31
-27.689
-28.867
-29.853
-30.657
-31.29
-31.764
-32.088
-32.276
-32.337
-32.284
-32.128
-31.881
-31.553
-31.156
-30.699
-30.194
-29.65
-29.077
-28.483
-27.876
-27.265
-26.656
-26.056
-25.471
-24.907
-24.367
-23.857
-23.38
-22.938
-22.535
-22.173
-21.853
-21.578
-21.347
-21.162
-21.023
-20.93
-20.884
-20.882
-20.926
-21.014
-21.145
-21.319
-21.535
-21.79
-22.084
-22.415
-22.781
-23.18
-23.61
-24.069
-24.554
-25.064
-25.595
-26.146
-26.714
-27.297
-27.892
-28.498
-29.11
-29.727
-30.347
-30.964
-31.578
-32.184
-32.779
-33.36
-33.922
-34.463
-34.978
-35.463
-35.914
-36.327
-36.698
-37.022
-37.295
-37.514
-37.674
-37.774
-37.809
-37.779
-37.681
-37.515
-37.282
-36.981
-36.614
-36.181
-35.683
-35.123
-34.502
-33.823
-33.088
-32.299
-31.462
-30.581
-29.662
-28.711
-27.735
-26.738
-25.728
-24.711
-23.696
-22.689
-21.696
-20.723
-19.776
-18.865
-17.999
-17.186
-16.427
-15.723
-15.071
-14.469
-13.913
-13.394
-12.896
-12.406
-11.913
-11.406
-10.882
-10.336
-9.759
-9.144
-8.477
-7.754
-6.979
-6.16
-5.308
-4.437
-3.565
-2.725
-1.971
-1.351
-0.913
-0.71
-0.775
-1.148
-1.871
-2.966
-4.47
-6.415
-8.821
-11.716
-15.11
-18.984
-23.335
-28.157
-33.353
-38.763
-44.13
-49.091
-53.349
-56.695
-58.896
-59.671
-58.874
-56.602
-53.242
-49.484
-45.949
-42.918
-40.674
-39.689
-40.247
-42.282
-44.878
-46.185
-44.649
-39.256
-30.209
-18.759
-4.969
11.223
30.989
57.502
91.287
131.709
176.813
220.199
256.228
280.004
285.718
270.018
231.179
168.971
86.337
-11.319
-119.323
-234.685
-354.192
-474.475
-588.516
-684.931
-753.489
-787.052
-785.179
-753.823
-700.471
-633.12
-556.755
-475.111
-393.39
-316.137
-249.011
-195.681
-155.592
-126.443
-104.181
-85.793
-70.729
-59.594
-53.111
-50.526
-49.803
-48.587
-45.219
-39.494
-31.923
-23.077
-13.737
-4.608
3.556
9.787
13.665
15.314
15.038
13.329
10.681
7.505
4.317
1.7
0.01
-0.618
-0.179
1.189
3.368
6.284
9.814
13.81
18.142
22.689
27.351
32.063
36.745
41.302
45.647
49.691
53.361
56.623
59.467
61.903
63.955
65.66
67.057
68.2
69.149
69.963
70.696
71.401
72.121
72.904
73.795
74.836
76.066
77.51
79.186
81.106
83.273
85.683
88.329
91.199
94.269
97.517
100.916
104.429
108.028
111.692
115.4
119.14
122.897
126.657
130.409
134.14
137.841
141.507
145.126
148.682
152.17
155.592
158.964
162.316
165.663
168.998
172.308
175.564
178.733
181.782
184.662
187.311
189.678
191.715
193.384
194.666
195.528
195.923
195.798
195.08
193.721
191.7
189.007
185.645
181.637
177.01
171.825
166.165
160.104
153.701
147.008
140.06
132.903
125.6
118.215
110.824
103.489
96.255
89.165
82.257
75.551
69.061
62.775
56.658
50.689
44.86
39.171
33.63
28.244
23.008
17.921
12.982
8.192
3.552
-0.936
-5.276
-9.462
-13.485
-17.325
-20.955
-24.355
-27.516
-30.429
-33.095
-35.515
-37.689
-39.623
-41.327
-42.812
-44.084
-45.152
-46.022
-46.702
-47.204
-47.54
-47.725
-47.774
-47.697
-47.508
-47.217
-46.834
-46.371
-45.834
-45.23
-44.565
-43.849
-43.087
-42.289
-41.461
-40.61
-39.743
-38.867
-37.988
-37.11
-36.239
-35.379
-34.532
-33.702
-32.892
-32.104
-31.341
-30.603
-29.893
-29.211
-28.56
-27.94
-27.352
-26.796
-26.273
-25.783
-25.326
-24.902
-24.511
-24.153
-23.827
-23.534
-23.272
-23.042
-22.842
-22.672
-22.531
-22.419
-22.334
-22.274
-22.238
-22.225
-22.233
-22.26
-22.305
-22.365
-22.439
-22.523
-22.616
-22.715
-22.817
-22.918
-23.016
-23.106
-23.186
-23.251
-23.297
-23.323
-23.323
-23.295
-23.237
-23.147
-23.022
-22.863
-22.667
-22.435
-22.166
-21.859
-21.515
-21.134
-20.717
-20.262
-19.772
-19.249
-18.696
-18.115
-17.511
-16.888
-16.249
-15.598
-14.939
-14.278
-13.618
-12.964
-12.32
-11.691
-11.084
-10.508
-9.968
-9.465
-8.999
-8.565
-8.157
-7.771
-7.397
-7.019
-6.628
-6.212
-5.765
-5.284
-4.763
-4.193
-3.568
-2.874
-2.104
-1.265
-0.362
0.589
1.565
2.547
3.504
4.385
5.15
5.76
6.173
6.36
6.287
5.907
5.189
4.1
2.611
0.704
-1.64
-4.434
-7.674
-11.336
-15.395
-19.83
-24.549
-29.399
-34.148
-38.461
-42.037
-44.691
-46.167
-46.154
-44.627
-41.723
-37.824
-33.78
-30.186
-27.275
-25.547
-25.487
-27.071
-30.191
-33.795
-35.585
-34.099
-28.31
-18.04
-4.877
10.236
26.825
45.928
70.714
103.223
144.288
190.911
235.655
271.022
289.277
284.929
256.732
205.103
132.734
44.258
-56.531
-166.769
-284.16
-405.105
-520.737
-626.036
-719.787
-780.882
-789.341
-764.325
-728.352
-677.705
-610.603
-533.258
-449.772
-365.405
-286.442
-219.386
-167.833
-130.623
-104.442
-84.853
-68.905
-56.192
-47.371
-42.881
-41.712
-41.758
-40.8
-37.438
-31.625
-23.919
-14.98
-5.7
3.161
10.853
16.536
19.939
21.238
20.759
19.006
16.475
13.587
10.833
8.72
7.528
7.356
8.18
9.863
12.291
15.374
18.988
22.993
27.264
31.696
36.197
40.699
45.129
49.403
53.445
57.181
60.553
63.532
66.118
68.328
70.193
71.752
73.049
74.136
75.072
75.914
76.715
77.523
78.378
79.323
80.399
81.647
83.101
84.784
86.707
88.874
91.283
93.93
96.806
99.898
103.188
106.657
110.289
114.069
117.982
122.009
126.13
130.321
134.562
138.83
143.103
147.358
151.572
155.722
159.785
163.738
167.56
171.227
174.716
178.005
181.071
183.891
186.447
188.718
190.687
192.336
193.652
194.622
195.237
195.486
195.363
194.865
193.986
192.728
191.09
189.076
186.69
183.94
180.834
177.383
173.598
169.494
165.086
160.39
155.426
150.212
144.77
139.119
133.283
127.284
121.146
114.892
108.546
102.132
95.674
89.195
82.72
76.269
69.866
63.531
57.285
51.147
45.134
39.265
33.555
28.018
22.669
17.519
12.579
7.86
3.368
-0.889
-4.906
-8.679
-12.206
-15.485
-18.516
-21.3
-23.84
-26.14
-28.203
-30.036
-31.645
-33.038
-34.221
-35.205
-35.998
-36.611
-37.053
-37.334
-37.467
-37.461
-37.327
-37.077
-36.721
-36.269
-35.734
-35.124
-34.45
-33.723
-32.95
-32.142
-31.306
-30.452
-29.586
-28.716
-27.848
-26.988
-26.142
-25.315
-24.511
-23.734
-22.989
-22.278
-21.604
-20.97
-20.378
-19.829
-19.324
-18.866
-18.454
-18.089
-17.772
-17.503
-17.281
-17.108
-16.981
-16.901
-16.866
-16.875
-16.928
-17.021
-17.154
-17.323
-17.528
-17.766
-18.034
-18.331
-18.653
-18.998
-19.363
-19.746
-20.142
-20.55
-20.965
-21.383
-21.802
-22.217
-22.624
-23.019
-23.398
-23.756
-24.089
-24.392
-24.66
-24.888
-25.072
-25.205
-25.285
-25.308
-25.268
-25.164
-24.993
-24.754
-24.445
-24.066
-23.617
-23.098
-22.51
-21.853
-21.129
-20.339
-19.484
-18.568
-17.594
-16.566
-15.491
-14.374
-13.221
-12.039
-10.835
-9.615
-8.387
-7.158
-5.933
-4.72
-3.528
-2.368
-1.25
-0.185
0.825
1.777
2.67
3.509
4.299
5.047
5.77
6.479
7.18
7.881
8.58
9.285
10.005
10.75
11.531
12.355
13.217
14.112
15.032
15.955
16.859
17.708
18.45
19.043
19.452
19.644
19.593
19.26
18.6
17.574
16.151
14.314
12.059
9.371
6.234
2.653
-1.362
-5.747
-10.429
-15.386
-20.516
-25.65
-30.564
-34.888
-38.286
-40.587
-41.551
-40.903
-38.686
-35.057
-30.389
-25.55
-21.139
-17.42
-14.938
-14.127
-14.882
-17.031
-19.546
-20.23
-17.644
-10.752
0.609
14.917
31.022
48.198
67.649
92.495
124.721
165.264
210.706
253.028
284.439
296.807
284.33
246.712
185.829
105.685
12.644
-89.306
-198.347
-311.836
-426.972
-536.912
-630.456
-697.955
-732.614
-734.164
-708.526
-662.207
-602.017
-532.765
-457.58
-381.937
-311.213
-249.477
-199.452
-159.653
-126.646
-98.425
-74.037
-54.392
-41.456
-35.029
-33.183
-33.369
-32.705
-29.847
-24.839
-17.96
-9.721
-0.723
8.356
16.594
22.977
27.037
28.856
28.706
27.047
24.347
21.037
17.66
14.817
12.877
11.976
12.127
13.207
15.107
17.762
21.055
24.843
29.0
33.409
37.975
42.626
47.277
51.829
56.188
60.261
63.972
67.284
70.181
72.672
74.781
76.538
77.981
79.157
80.121
80.929
81.634
82.287
82.932
83.616
84.387
85.29
86.367
87.641
89.127
90.831
92.754
94.896
97.258
99.832
102.602
105.553
108.667
111.922
115.294
118.756
122.273
125.82
129.371
132.911
136.431
139.926
143.389
146.807
150.161
153.434
156.609
159.674
162.62
165.444
168.154
170.761
173.284
175.731
178.098
180.365
182.494
184.441
186.153
187.586
188.712
189.505
189.943
190.005
189.671
188.911
187.694
185.976
183.708
180.856
177.401
173.353
168.742
163.621
158.059
152.119
145.853
139.31
132.531
125.556
118.424
111.178
103.863
96.537
89.268
82.116
75.131
68.344
61.769
55.401
49.223
43.219
37.381
31.702
26.186
20.839
15.67
10.686
5.899
1.31
-3.09
-7.307
-11.348
-15.214
-18.898
-22.386
-25.662
-28.71
-31.517
-34.075
-36.38
-38.434
-40.243
-41.815
-43.165
-44.302
-45.236
-45.975
-46.526
-46.9
-47.109
-47.165
-47.082
-46.876
-46.562
-46.154
-45.666
-45.11
-44.498
-43.839
-43.141
-42.414
-41.665
-40.902
-40.135
-39.371
-38.618
-37.883
-37.174
-36.498
-35.859
-35.263
-34.714
-34.214
-33.767
-33.376
-33.041
-32.765
-32.547
-32.388
-32.288
-32.247
-32.261
-32.331
-32.454
-32.626
-32.846
-33.109
-33.413
-33.754
-34.128
-34.532
-34.961
-35.411
-35.879
-36.361
-36.85
-37.344
-37.837
-38.324
-38.801
-39.261
-39.702
-40.116
-40.5
-40.849
-41.158
-41.421
-41.635
-41.795
-41.897
-41.937
-41.912
-41.819
-41.657
-41.424
-41.119
-40.743
-40.298
-39.783
-39.201
-38.553
-37.842
-37.07
-36.241
-35.357
-34.421
-33.439
-32.416
-31.359
-30.275
-29.169
-28.049
-26.923
-25.798
-24.681
-23.579
-22.499
-21.448
-20.435
-19.469
-18.564
-17.726
-16.959
-16.266
-15.645
-15.091
-14.603
-14.169
-13.773
-13.406
-13.058
-12.721
-12.393
-12.065
-11.726
-11.367
-10.97
-10.528
-10.045
-9.522
-8.967
-8.402
-7.843
-7.321
-6.891
-6.59
-6.456
-6.527
-6.823
-7.383
-8.255
-9.474
-11.082
-13.093
-15.509
-18.349
-21.619
-25.311
-29.421
-33.886
-38.623
-43.591
-48.67
-53.675
-58.396
-62.492
-65.673
-67.767
-68.527
-67.765
-65.554
-62.079
-57.754
-53.243
-48.904
-45.039
-42.195
-40.624
-40.288
-40.642
-40.206
-37.519
-31.656
-22.423
-10.971
1.593
14.607
28.192
45.217
68.671
100.311
140.444
184.239
224.162
252.234
259.612
240.908
195.09
125.029
38.111
-57.909
-157.808
-259.565
-363.15
-465.497
-559.42
-635.044
-682.898
-699.999
-689.245
-656.212
-608.028
-549.655
-484.531
-417.868
-354.591
-298.383
-251.684
-213.171
-179.781
-149.994
-123.257
-100.497
-83.689
-73.153
-67.59
-65.077
-63.144
-60.011
-55.194
-48.795
-41.165
-32.71
-23.915
-15.316
-7.615
-1.629
2.328
4.332
4.593
3.529
1.554
-0.98
-3.606
-5.815
-7.3
-7.922
-7.651
-6.593
-4.834
-2.427
0.524
3.907
7.622
11.571
15.682
19.895
24.142
28.345
32.422
36.29
39.877
43.142
46.069
48.664
50.953
52.961
54.725
56.286
57.698
59.011
60.274
61.53
62.816
64.17
65.634
67.249
69.054
71.072
73.316
75.794
78.505
81.455
84.64
88.045
91.648
95.424
99.347
103.392
107.536
111.747
115.995
120.258
124.515
128.76
132.987
137.181
141.324
145.388
149.344
153.179
156.884
160.448
163.871
167.152
170.292
173.309
176.208
178.976
181.588
183.993
186.134
187.973
189.481
190.637
191.431
191.839
191.838
191.414
190.543
189.199
187.355
184.961
181.985
178.426
174.303
169.668
164.592
159.127
153.319
147.215
140.85
134.268
127.512
120.611
113.604
106.534
99.452
92.431
85.534
78.795
72.237
65.86
59.645
53.589
47.69
41.941
36.347
30.911
25.636
20.54
15.638
10.936
6.434
2.119
-2.02
-5.984
-9.768
-13.362
-16.749
-19.917
-22.858
-25.561
-28.022
-30.24
-32.217
-33.963
-35.493
-36.816
-37.941
-38.874
-39.622
-40.192
-40.595
-40.843
-40.946
-40.918
-40.771
-40.517
-40.17
-39.74
-39.238
-38.672
-38.047
-37.372
-36.654
-35.9
-35.116
-34.31
-33.487
-32.656
-31.821
-30.99
-30.168
-29.358
-28.565
-27.792
-27.044
-26.321
-25.628
-24.967
-24.338
-23.744
-23.187
-22.668
-22.188
-21.748
-21.349
-20.992
-20.676
-20.403
-20.171
-19.982
-19.834
-19.727
-19.661
-19.634
-19.645
-19.693
-19.778
-19.896
-20.046
-20.226
-20.434
-20.666
-20.919
-21.191
-21.478
-21.776
-22.083
-22.393
-22.704
-23.01
-23.31
-23.596
-23.866
-24.114
-24.335
-24.526
-24.681
-24.796
-24.866
-24.887
-24.857
-24.772
-24.629
-24.428
-24.165
-23.843
-23.46
-23.017
-22.516
-21.957
-21.343
-20.675
-19.957
-19.191
-18.38
-17.529
-16.643
-15.727
-14.788
-13.832
-12.864
-11.891
-10.918
-9.954
-9.006
-8.079
-7.179
-6.312
-5.485
-4.71
-3.992
-3.333
-2.731
-2.186
-1.692
-1.246
-0.841
-0.459
-0.088
0.286
0.675
1.083
1.515
1.984
2.5
3.078
3.726
4.435
5.191
5.989
6.812
7.636
8.43
9.133
9.69
10.059
10.186
10.029
9.549
8.694
7.439
5.758
3.613
0.999
-2.087
-5.663
-9.685
-14.126
-18.978
-24.102
-29.3
-34.329
-38.804
-42.417
-44.977
-46.186
-45.814
-43.893
-40.589
-36.402
-32.074
-28.117
-24.988
-23.188
-22.999
-24.148
-25.665
-26.15
-24.171
-19.258
-12.056
-2.858
8.769
23.863
44.631
72.69
107.432
147.454
189.681
228.811
260.311
278.989
278.587
256.07
210.131
141.837
57.403
-37.722
-139.999
-246.015
-354.867
-462.959
-561.609
-641.563
-693.784
-713.461
-702.941
-667.635
-614.45
-550.064
-479.0
-405.887
-335.526
-272.182
-218.997
-176.609
-143.408
-116.496
-93.962
-75.21
-60.64
-51.465
-47.169
-45.971
-45.864
-44.567
-41.134
-35.811
-28.982
-21.199
-13.161
-5.425
1.323
6.291
9.242
10.326
9.813
8.153
5.799
3.136
0.636
-1.199
-2.119
-2.04
-0.974
0.945
3.621
6.975
10.88
15.194
19.791
24.563
29.425
34.311
39.138
43.812
48.242
52.345
56.073
59.406
62.343
64.903
67.109
68.995
70.609
72.003
73.23
74.34
75.379
76.387
77.408
78.488
79.67
80.995
82.491
84.175
86.056
88.136
90.414
92.886
95.541
98.364
101.341
104.459
107.707
111.073
114.542
118.098
121.722
125.397
129.103
132.823
136.538
140.23
143.879
147.467
150.975
154.385
157.677
160.832
163.829
166.647
169.268
171.671
173.841
175.759
177.41
178.779
179.855
180.626
181.084
181.221
181.03
180.507
179.651
178.459
176.933
175.075
172.89
170.384
167.563
164.439
161.02
157.32
153.352
149.132
144.674
139.997
135.119
130.058
124.835
119.47
113.984
108.398
102.734
97.013
91.257
85.486
79.722
73.985
68.294
62.668
57.125
51.681
46.354
41.158
36.107
31.213
26.49
21.946
17.592
13.435
9.481
5.737
2.207
-1.108
-4.205
-7.084
-9.745
-12.191
-14.425
-16.45
-18.273
-19.898
-21.332
-22.584
-23.661
-24.572
-25.326
-25.933
-26.403
-26.746
-26.972
-27.092
-27.115
-27.053
-26.914
-26.709
-26.447
-26.137
-25.789
-25.411
-25.01
-24.595
-24.171
-23.747
-23.326
-22.915
-22.519
-22.141
-21.786
-21.457
-21.156
-20.885
-20.647
-20.443
-20.273
-20.139
-20.039
-19.975
-19.945
-19.949
-19.987
-20.057
-20.158
-20.288
-20.447
-20.632
-20.842
-21.074
-21.327
-21.598
-21.885
-22.185
-22.497
-22.818
-23.145
-23.477
-23.812
-24.147
-24.481
-24.811
-25.134
-25.449
-25.754
-26.045
-26.322
-26.58
-26.819
-27.036
-27.228
-27.393
-27.527
-27.629
-27.695
-27.722
-27.708
-27.651
-27.547
-27.395
-27.195
-26.943
-26.641
-26.288
-25.885
-25.435
-24.936
-24.392
-23.804
-23.173
-22.503
-21.796
-21.053
-20.278
-19.475
-18.648
-17.802
-16.944
-16.077
-15.209
-14.342
-13.485
-12.643
-11.822
-11.026
-10.26
-9.529
-8.841
-8.205
-7.626
-7.106
-6.643
-6.234
-5.873
-5.555
-5.272
-5.005
-4.741
-4.467
-4.172
-3.853
-3.504
-3.118
-2.686
-2.191
-1.63
-1.006
-0.326
0.396
1.145
1.901
2.631
3.282
3.808
4.16
4.287
4.157
3.73
2.968
1.847
0.332
-1.613
-4.012
-6.885
-10.237
-14.043
-18.285
-22.968
-28.007
-33.245
-38.434
-43.214
-47.286
-50.452
-52.485
-53.094
-52.139
-49.691
-46.115
-42.147
-38.412
-35.293
-33.205
-32.564
-33.651
-36.137
-38.757
-39.824
-37.852
-32.455
-24.608
-14.823
-2.522
13.649
36.401
67.594
106.287
150.489
196.672
239.439
274.513
297.034
300.592
281.001
235.72
165.357
75.922
-25.516
-133.195
-243.756
-356.565
-469.877
-577.67
-669.921
-735.832
-767.903
-765.86
-735.452
-684.53
-621.273
-550.146
-473.508
-395.082
-318.201
-248.185
-190.668
-147.177
-117.132
-97.537
-83.649
-73.138
-65.411
-60.199
-57.752
-57.004
-55.907
-53.188
-48.25
-41.23
-32.772
-23.643
-14.615
-6.534
-0.321
3.634
5.431
5.364
3.93
1.612
-1.184
-3.954
-6.135
-7.395
-7.605
-6.763
-5.013
-2.473
0.778
4.615
8.896
13.493
18.289
23.188
28.124
33.022
37.794
42.357
46.629
50.543
54.067
57.195
59.938
62.324
64.384
66.155
67.688
69.038
70.262
71.412
72.537
73.679
74.882
76.19
77.645
79.284
81.13
83.191
85.472
87.973
90.694
93.633
96.779
100.117
103.629
107.297
111.099
115.01
119.002
123.04
127.098
131.151
135.181
139.177
143.129
147.028
150.86
154.604
158.242
161.757
165.133
168.361
171.441
174.38
177.187
179.875
182.446
184.893
187.201
189.344
191.283
192.97
194.37
195.461
196.23
196.663
196.738
196.422
195.675
194.457
192.732
190.458
187.614
184.182
180.159
175.565
170.445
164.862
158.865
152.487
145.746
138.672
131.317
123.754
116.06
108.3
100.537
92.838
85.263
77.875
70.724
63.836
57.214
50.852
44.753
38.947
33.472
28.35
23.573
19.107
14.921
11.003
7.343
3.925
0.729
-2.272
-5.095
-7.739
-10.192
-12.443
-14.498
-16.381
-18.123
-19.74
-21.225
-22.557
-23.72
-24.716
-25.549
-26.221
-26.725
-27.058
-27.223
-27.24
-27.13
-26.907
-26.58
-26.144
-25.598
-24.949
-24.212
-23.411
-22.564
-21.682
-20.778
-19.865
-18.959
-18.075
-17.218
-16.39
-15.591
-14.823
-14.093
-13.409
-12.777
-12.197
-11.673
-11.202
-10.786
-10.424
-10.115
-9.856
-9.645
-9.478
-9.354
-9.275
-9.24
-9.249
-9.299
-9.389
-9.518
-9.684
-9.886
-10.121
-10.386
-10.678
-10.997
-11.339
-11.704
-12.089
-12.493
-12.912
-13.346
-13.793
-14.25
-14.716
-15.188
-15.666
-16.146
-16.628
-17.109
-17.588
-18.061
-18.527
-18.984
-19.429
-19.859
-20.271
-20.662
-21.029
-21.367
-21.674
-21.945
-22.177
-22.367
-22.511
-22.607
-22.654
-22.648
-22.588
-22.476
-22.309
-22.088
-21.812
-21.482
-21.099
-20.663
-20.174
-19.635
-19.046
-18.41
-17.73
-17.012
-16.259
-15.475
-14.666
-13.836
-12.991
-12.135
-11.275
-10.414
-9.56
-8.718
-7.896
-7.104
-6.349
-5.632
-4.956
-4.316
-3.706
-3.124
-2.557
-1.993
-1.42
-0.829
-0.212
0.433
1.113
1.835
2.604
3.438
4.34
5.305
6.329
7.393
8.476
9.555
10.597
11.549
12.367
13.011
13.436
13.61
13.497
13.049
12.236
11.026
9.393
7.318
4.775
1.758
-1.729
-5.652
-9.976
-14.688
-19.697
-24.834
-29.846
-34.375
-38.103
-40.845
-42.348
-42.267
-40.56
-37.384
-33.165
-28.786
-24.859
-21.671
-19.761
-19.675
-21.508
-24.72
-27.814
-28.782
-26.184
-20.176
-11.824
-1.059
12.384
30.325
56.306
90.614
132.503
179.708
225.55
264.833
292.884
304.375
297.149
269.263
219.501
149.562
62.181
-39.15
-150.889
-270.624
-394.165
-511.826
-619.746
-718.013
-782.612
-790.467
-761.542
-719.707
-662.037
-587.967
-506.635
-424.576
-345.507
-273.6
-213.262
-165.634
-129.746
-103.348
-82.904
-66.643
-54.254
-45.956
-41.902
-40.872
-40.839
-39.809
-36.542
-31.02
-23.754
-15.357
-6.68
1.564
8.665
13.827
16.826
17.855
17.231
15.45
13.006
10.307
7.844
6.118
5.375
5.687
7.017
9.208
12.146
15.74
19.854
24.34
29.07
33.931
38.834
43.714
48.489
53.068
57.366
61.301
64.828
67.934
70.624
72.924
74.862
76.479
77.825
78.959
79.94
80.826
81.666
82.506
83.395
84.38
85.508
86.82
88.346
90.1
92.093
94.332
96.819
99.553
102.522
105.709
109.097
112.664
116.387
120.238
124.18
128.185
132.229
136.289
140.355
144.415
148.456
152.469
156.435
160.339
164.17
167.911
171.546
175.072
178.491
181.818
185.078
188.276
191.405
194.45
197.374
200.141
202.707
205.013
207.016
208.679
209.962
210.848
211.315
211.328
210.851
209.833
208.211
205.951
203.037
199.46
195.245
190.426
185.052
179.203
172.947
166.343
159.444
152.29
144.917
137.378
129.727
122.022
114.34
106.739
99.265
91.964
84.86
77.963
71.272
64.761
58.409
52.209
46.156
40.258
34.526
28.963
23.573
18.361
13.323
8.456
3.759
-0.773
-5.136
-9.321
-13.313
-17.091
-20.633
-23.928
-26.968
-29.752
-32.282
-34.563
-36.6
-38.405
-39.988
-41.355
-42.517
-43.48
-44.251
-44.843
-45.268
-45.54
-45.675
-45.687
-45.587
-45.388
-45.102
-44.739
-44.308
-43.816
-43.27
-42.68
-42.052
-41.395
-40.718
-40.027
-39.33
-38.633
-37.945
-37.269
-36.611
-35.974
-35.363
-34.781
-34.23
-33.712
-33.23
-32.785
-32.377
-32.009
-31.681
-31.393
-31.145
-30.937
-30.77
-30.641
-30.552
-30.502
-30.489
-30.514
-30.576
-30.674
-30.809
-30.979
-31.184
-31.422
-31.694
-31.997
-32.331
-32.693
-33.083
-33.498
-33.937
-34.398
-34.88
-35.381
-35.898
-36.432
-36.978
-37.536
-38.103
-38.677
-39.255
-39.834
-40.412
-40.985
-41.552
-42.107
-42.65
-43.174
-43.678
-44.156
-44.605
-45.021
-45.401
-45.739
-46.032
-46.278
-46.473
-46.615
-46.703
-46.734
-46.71
-46.629
-46.492
-46.3
-46.051
-45.749
-45.394
-44.987
-44.53
-44.025
-43.475
-42.883
-42.255
-41.594
-40.906
-40.194
-39.463
-38.72
-37.969
-37.217
-36.467
-35.725
-34.996
-34.286
-33.606
-32.96
-32.351
-31.775
-31.231
-30.714
-30.218
-29.736
-29.252
-28.754
-28.228
-27.665
-27.062
-26.417
-25.722
-24.967
-24.141
-23.238
-22.265
-21.239
-20.174
-19.087
-18.0
-16.948
-15.988
-15.173
-14.557
-14.184
-14.09
-14.316
-14.9
-15.876
-17.278
-19.14
-21.484
-24.321
-27.658
-31.475
-35.761
-40.522
-45.652
-50.969
-56.209
-61.009
-65.062
-68.187
-70.126
-70.546
-69.4
-66.832
-63.272
-59.587
-56.34
-53.792
-52.438
-52.727
-54.736
-58.055
-61.227
-62.218
-59.737
-53.595
-44.548
-33.199
-19.258
-1.52
22.166
53.191
91.05
134.021
178.292
218.373
249.647
267.156
265.633
242.114
194.689
123.614
33.364
-71.187
-185.88
-306.911
-430.43
-547.99
-655.216
-751.635
-815.403
-825.178
-800.16
-763.285
-710.797
-641.298
-561.547
-475.863
-389.465
-308.643
-240.266
-188.267
-151.652
-126.979
-109.214
-94.9
-83.337
-75.114
-70.929
-69.953
-70.158
-69.371
-66.106
-60.291
-52.54
-43.547
-34.267
-25.5
-17.976
-12.507
-9.33
-8.234
-8.877
-10.743
-13.315
-16.161
-18.776
-20.649
-21.53
-21.348
-20.139
-18.061
-15.23
-11.737
-7.718
-3.32
1.327
6.113
10.95
15.773
20.498
25.033
29.291
33.188
36.68
39.752
42.406
44.669
46.57
48.149
49.459
50.559
51.51
52.37
53.189
54.016
54.899
55.887
57.027
58.361
59.918
61.716
63.77
66.086
68.665
71.502
74.582
77.889
81.4
85.094
88.942
92.908
96.96
101.074
105.228
109.408
113.599
117.784
121.951
126.086
130.176
134.215
138.191
142.086
145.895
149.617
153.266
156.874
160.453
163.994
167.483
170.89
174.179
177.317
180.256
182.934
185.299
187.303
188.91
190.102
190.842
191.089
190.786
189.861
188.267
185.986
183.009
179.345
175.017
170.059
164.531
158.521
152.103
145.34
138.286
130.978
123.465
115.812
108.087
100.368
92.721
85.191
77.824
70.657
63.712
57.002
50.517
44.223
38.099
32.14
26.344
20.725
15.286
10.025
4.942
0.035
-4.697
-9.249
-13.622
-17.818
-21.831
-25.651
-29.26
-32.63
-35.743
-38.59
-41.164
-43.467
-45.501
-47.268
-48.776
-50.036
-51.059
-51.856
-52.435
-52.804
-52.974
-52.958
-52.77
-52.428
-51.947
-51.341
-50.624
-49.81
-48.91
-47.938
-46.902
-45.812
-44.675
-43.502
-42.302
-41.085
-39.861
-38.637
-37.423
-36.225
-35.053
-33.911
-32.806
-31.742
-30.723
-29.752
-28.834
-27.97
-27.162
-26.412
-25.721
-25.089
-24.518
-24.008
-23.558
-23.167
-22.836
-22.562
-22.346
-22.185
-22.078
-22.024
-22.022
-22.069
-22.165
-22.308
-22.496
-22.726
-22.997
-23.306
-23.651
-24.028
-24.435
-24.869
-25.328
-25.808
-26.307
-26.823
-27.352
-27.893
-28.441
-28.996
-29.552
-30.109
-30.662
-31.208
-31.745
-32.269
-32.776
-33.264
-33.729
-34.167
-34.575
-34.95
-35.287
-35.584
-35.836
-36.039
-36.192
-36.291
-36.333
-36.317
-36.242
-36.107
-35.911
-35.656
-35.342
-34.972
-34.545
-34.065
-33.532
-32.95
-32.321
-31.647
-30.932
-30.179
-29.394
-28.583
-27.752
-26.905
-26.05
-25.192
-24.338
-23.494
-22.666
-21.86
-21.08
-20.334
-19.63
-18.977
-18.381
-17.843
-17.363
-16.938
-16.562
-16.23
-15.929
-15.646
-15.368
-15.085
-14.788
-14.475
-14.138
-13.77
-13.363
-12.904
-12.389
-11.823
-11.213
-10.574
-9.922
-9.28
-8.683
-8.182
-7.819
-7.635
-7.664
-7.939
-8.5
-9.388
-10.632
-12.253
-14.262
-16.676
-19.511
-22.774
-26.468
-30.549
-34.968
-39.705
-44.656
-49.651
-54.452
-58.696
-62.059
-64.373
-65.403
-64.863
-62.788
-59.363
-55.019
-50.629
-46.774
-43.765
-42.167
-42.43
-44.536
-47.962
-51.266
-52.521
-50.372
-44.544
-35.762
-24.388
-10.607
6.164
28.558
57.979
94.698
138.4
184.216
225.582
256.223
267.959
255.223
216.384
152.209
68.294
-27.687
-130.134
-235.98
-344.413
-453.976
-558.835
-648.929
-713.532
-745.392
-744.439
-716.206
-667.778
-606.626
-537.568
-463.955
-391.248
-324.097
-266.034
-219.63
-183.221
-153.286
-127.813
-105.522
-86.928
-74.124
-67.091
-64.025
-62.699
-60.442
-56.004
-49.642
-41.799
-32.891
-23.452
-14.105
-5.631
1.007
5.357
7.565
7.927
6.876
4.863
2.288
-0.359
-2.5
-3.782
-4.078
-3.371
-1.779
0.589
3.678
7.377
11.556
16.097
20.891
25.847
30.898
35.962
40.947
45.765
50.328
54.562
58.432
61.921
65.042
67.822
70.294
72.496
74.474
76.285
77.982
79.617
81.236
82.881
84.595
86.42
88.401
90.575
92.968
95.591
98.45
101.543
104.866
108.411
112.164
116.106
120.22
124.488
128.897
133.428
138.066
142.787
147.569
152.391
157.227
162.057
166.858
171.605
176.274
180.843
185.287
189.585
193.713
197.648
201.364
204.839
208.051
210.977
213.599
215.896
217.853
219.453
220.683
221.533
221.993
222.056
221.717
220.973
219.822
218.266
216.308
213.952
211.207
208.08
204.584
200.73
196.535
192.013
187.184
182.067
176.683
171.055
165.204
159.156
152.935
146.567
140.078
133.493
126.841
120.145
113.433
106.73
100.061
93.45
86.92
80.493
74.191
68.032
62.036
56.219
50.598
45.186
39.996
35.04
30.326
25.862
21.655
17.709
14.026
10.609
7.455
4.564
1.931
-0.448
-2.58
-4.473
-6.136
-7.578
-8.811
-9.847
-10.698
-11.379
-11.902
-12.283
-12.535
-12.674
-12.714
-12.67
-12.557
-12.389
-12.18
-11.943
-11.692
-11.439
