-316.72
-335.019
-352.378
-368.719
-384.001
-398.191
-411.286
-423.328
-434.375
-444.497
-453.766
-462.218
-469.877
-476.782
-482.979
-488.532
-493.5
-497.911
-501.775
-505.097
-507.865
-510.07
-511.695
-512.692
-513.019
-512.65
-511.574
-509.819
-507.427
-504.434
-500.874
-496.776
-492.17
-487.119
-481.694
-475.969
-470.034
-463.976
-457.886
-451.878
-446.044
-440.457
-435.17
-430.207
-425.572
-421.276
-417.316
-413.683
-410.371
-407.35
-404.586
-402.039
-399.645
-397.345
-395.078
-392.769
-390.36
-387.803
-385.052
-382.08
-378.875
-375.421
-371.723
-367.79
-363.626
-359.243
-354.663
-349.915
-345.05
-340.118
-335.156
-330.204
-325.296
-320.466
-315.763
-311.225
-306.87
-302.716
-298.763
-295.01
-291.456
-288.093
-284.889
-281.794
-278.735
-275.636
-272.439
-269.09
-265.53
-261.69
-257.483
-252.841
-247.712
-242.055
-235.837
-229.017
-221.564
-213.468
-204.757
-195.494
-185.762
-175.658
-165.269
-154.684
-144.006
-133.359
-122.866
-112.631
-102.743
-93.279
-84.326
-75.985
-68.345
-61.47
-55.385
-50.085
-45.55
-41.749
-38.64
-36.172
-34.274
-32.858
-31.852
-31.206
-30.875
-30.821
-30.99
-31.309
-31.722
-32.183
-32.663
-33.14
-33.596
-34.022
-34.427
-34.839
-35.295
-35.836
-36.489
-37.259
-38.161
-39.206
-40.403
-41.768
-43.305
-45.011
-46.899
-48.994
-51.316
-53.873
-56.65
-59.615
-62.74
-65.995
-69.349
-72.767
-76.194
-79.578
-82.88
-86.077
-89.149
-92.07
-94.788
-97.228
-99.326
-101.032
-102.309
-103.124
-103.436
-103.203
-102.413
-101.082
-99.256
-96.981
-94.281
-91.172
-87.67
-83.809
-79.644
-75.258
-70.722
-66.107
-61.498
-56.985
-52.682
-48.698
-45.099
-41.919
-39.169
-36.855
-34.996
-33.618
-32.737
-32.356
-32.474
-33.068
-34.117
-35.587
-37.412
-39.518
-41.81
-44.204
-46.649
-49.116
-51.587
-54.057
-56.52
-58.966
-61.395
-63.799
-66.161
-68.474
-70.73
-72.934
-75.103
-77.24
-79.327
-81.333
-83.198
-84.856
-86.25
-87.273
-87.787
-87.64
-86.652
-84.671
-81.585
-77.22
-71.334
-63.786
-54.586
-43.957
-32.386
-20.34
-8.128
3.886
15.193
25.486
34.84
43.831
53.675
65.511
79.805
96.809
116.814
139.542
163.882
187.722
207.605
220.057
222.834
213.799
190.632
152.059
97.827
30.042
-46.009
-126.194
-208.246
-290.359
-372.074
-448.537
-511.303
-553.569
-568.761
-556.945
-524.439
-477.263
-423.411
-367.764
-310.188
-251.48
-192.252
-134.344
-82.671
-40.588
-8.969
12.573
25.79
32.145
32.517
28.382
22.173
16.467
12.886
12.015
13.694
17.608
23.529
31.008
39.027
46.265
51.932
55.822
58.116
59.232
59.499
59.201
58.814
58.925
59.883
61.817
64.679
68.271
72.441
77.1
82.109
87.313
92.582
97.81
102.927
107.894
112.652
117.128
121.251
124.97
128.263
131.133
133.594
135.675
137.409
138.837
140.006
140.96
141.742
142.395
142.956
143.466
143.966
144.496
145.098
145.809
146.65
147.639
148.788
150.103
151.59
153.25
155.079
157.078
159.244
161.578
164.078
166.743
169.566
172.542
175.662
178.918
182.3
185.801
189.411
193.12
196.919
200.797
204.743
208.746
212.794
216.87
220.96
225.047
229.112
233.138
237.107
241.002
244.807
248.506
252.083
255.522
258.813
261.94
264.891
267.651
270.201
272.529
274.629
276.497
278.133
279.539
280.713
281.66
282.388
282.9
283.199
283.277
283.121
282.723
282.085
281.212
280.12
278.818
277.304
275.576
273.631
271.467
269.084
266.474
263.617
260.51
257.166
253.613
249.904
246.077
242.159
238.171
234.125
230.04
225.947
221.873
217.838
213.872
210.0
206.261
202.715
199.394
196.309
193.449
190.774
188.258
185.891
183.662
181.564
179.588
177.716
175.941
174.264
172.677
171.166
169.705
168.249
166.777
165.281
163.771
162.277
160.817
159.398
158.03
156.723
155.482
154.315
153.219
152.181
151.194
150.258
149.378
148.571
147.841
147.183
146.589
146.042
145.528
145.04
144.565
144.092
143.61
143.112
142.596
142.068
141.527
140.973
140.4
139.806
139.185
138.537
137.863
137.161
136.432
135.675
134.892
134.086
133.258
132.408
131.536
130.641
129.722
128.78
127.815
126.827
125.819
124.79
123.743
122.68
121.604
120.516
119.419
118.313
117.201
116.084
114.963
113.839
112.713
111.585
110.456
109.327
108.197
107.068
105.939
104.812
103.685
102.561
101.437
100.316
99.196
98.077
96.96
95.843
94.727
93.611
92.493
91.374
90.252
89.127
87.995
86.857
85.71
84.551
83.381
82.196
80.996
79.778
78.543
77.289
76.017
74.726
73.416
72.088
70.743
69.381
68.003
66.61
65.204
63.786
62.357
60.919
59.473
58.021
56.565
55.107
53.649
52.193
50.74
49.295
47.858
46.433
45.023
43.631
42.26
40.913
39.594
38.306
37.052
35.836
34.659
33.525
32.434
31.388
30.388
29.434
28.525
27.661
26.84
26.061
25.321
24.618
23.95
23.314
22.708
22.129
21.575
21.043
20.528
20.027
19.536
19.05
18.566
18.078
17.582
17.071
16.542
15.991
15.413
14.804
14.157
13.465
12.721
11.925
11.075
10.173
9.219
8.217
7.175
6.108
5.027
3.947
2.877
1.824
0.796
-0.194
-1.131
-2.001
-2.791
-3.498
-4.121
-4.653
-5.097
-5.458
-5.754
-6.018
-6.283
-6.585
-6.955
-7.425
-8.031
-8.813
-9.816
-11.087
-12.667
-14.589
-16.884
-19.588
-22.729
-26.318
-30.348
-34.784
-39.565
-44.607
-49.818
-55.09
-60.312
-65.388
-70.181
-74.532
-78.264
-81.176
-83.075
-83.792
-83.107
-80.74
-76.543
-70.554
-63.033
-54.519
-45.549
-36.501
-27.806
-20.023
-13.428
-7.825
-2.494
3.962
12.892
24.948
40.546
60.08
83.16
108.359
133.184
153.801
166.22
167.558
155.261
126.868
81.189
18.527
-59.094
-147.491
-241.762
-337.546
-429.938
-513.454
-583.328
-635.651
-668.138
-680.586
-673.483
-647.631
-605.412
-550.606
-487.505
-420.84
-354.62
-291.913
-235.999
-189.8
-154.641
-130.494
-116.294
-110.042
-109.849
-113.897
-119.597
-124.38
-126.702
-125.85
-121.897
-115.553
-107.459
-98.298
-89.292
-81.73
-76.348
-73.424
-72.782
-73.92
-76.404
-79.832
-83.612
-87.105
-89.886
-91.713
-92.543
-92.483
-91.616
-90.002
-87.745
-84.968
-81.785
-78.299
-74.588
-70.708
-66.732
-62.745
-58.832
-55.08
-51.56
-48.33
-45.421
-42.846
-40.598
-38.657
-36.999
-35.593
-34.399
-33.369
-32.457
-31.618
-30.811
-29.997
-29.137
-28.189
-27.118
-25.892
-24.493
-22.909
-21.135
-19.168
-17.008
-14.655
-12.117
-9.402
-6.517
-3.469
-0.265
3.088
6.579
10.195
13.922
17.748
21.665
25.663
29.733
33.862
38.035
42.235
46.442
50.629
54.772
58.84
62.807
66.652
70.359
73.917
77.32
80.559
83.625
86.5
89.172
91.629
93.861
95.862
97.634
99.191
100.551
101.743
102.786
103.691
104.459
105.08
105.538
105.805
105.862
105.697
105.297
104.653
103.756
102.598
101.158
99.402
97.287
94.754
91.759
88.27
84.266
79.744
74.716
69.219
63.287
56.958
50.273
43.269
35.99
28.479
20.796
13.014
5.225
-2.461
-9.943
-17.134
-23.953
-30.329
-36.211
-41.575
-46.401
-50.684
-54.423
-57.62
-60.282
-62.423
-64.072
-65.27
-66.077
-66.572
-66.826
-66.906
-66.873
-66.789
-66.702
-66.647
-66.647
-66.715
-66.862
-67.096
-67.424
-67.847
-68.359
-68.948
-69.59
-70.253
-70.912
-71.544
-72.13
-72.653
-73.1
-73.464
-73.745
-73.952
-74.092
-74.172
-74.2
-74.183
-74.131
-74.058
-73.979
-73.91
-73.866
-73.854
-73.884
-73.96
-74.086
-74.264
-74.491
-74.762
-75.072
-75.416
-75.791
-76.192
-76.616
-77.055
-77.505
-77.959
-78.413
-78.861
-79.3
-79.725
-80.135
-80.525
-80.895
-81.243
-81.567
-81.866
-82.138
-82.381
-82.593
-82.774
-82.923
-83.039
-83.121
-83.17
-83.186
-83.17
-83.123
-83.045
-82.938
-82.802
-82.639
-82.449
-82.235
-81.997
-81.737
-81.455
-81.152
-80.83
-80.489
-80.131
-79.756
-79.364
-78.956
-78.533
-78.095
-77.643
-77.176
-76.695
-76.201
-75.692
-75.169
-74.632
-74.081
-73.514
-72.931
-72.332
-71.716
-71.082
-70.429
-69.758
-69.066
-68.354
-67.622
-66.868
-66.094
-65.298
-64.482
-63.644
-62.786
-61.908
-61.009
-60.092
-59.156
-58.202
-57.231
-56.243
-55.239
-54.22
-53.185
-52.136
-51.073
-49.996
-48.906
-47.803
-46.687
-45.56
-44.422
-43.273
-42.113
-40.943
-39.763
-38.573
-37.372
-36.16
-34.937
-33.701
-32.452
-31.19
-29.912
-28.619
-27.308
-25.979
-24.631
-23.261
-21.87
-20.455
-19.016
-17.552
-16.062
-14.548
-13.009
-11.446
-9.862
-8.258
-6.636
-5.001
-3.353
-1.697
-0.035
1.628
3.29
4.946
6.594
8.228
9.841
11.426
12.977
14.487
15.948
17.355
18.699
19.974
21.174
22.296
23.336
24.285
25.137
25.88
26.51
27.024
27.426
27.717
27.904
27.993
27.996
27.93
27.812
27.651
27.453
27.219
26.953
26.667
26.379
26.107
25.863
25.649
25.464
25.307
25.174
25.053
24.921
24.743
24.488
24.138
23.683
23.118
22.433
21.603
20.582
19.333
17.825
16.052
14.032
11.769
9.264
6.518
3.535
0.336
-3.016
-6.489
-10.103
-13.787
-17.399
-20.676
-23.178
-24.496
-24.356
-22.569
-19.032
-13.918
-7.596
-0.666
5.903
11.131
14.21
14.664
12.452
8.167
2.881
-2.137
-5.235
-4.431
2.261
16.403
39.028
69.188
104.235
141.979
179.545
215.89
252.325
286.707
315.277
330.691
320.846
279.783
207.624
111.165
5.09
-99.757
-197.378
-285.225
-364.7
-434.336
-490.523
-530.393
-551.435
-553.813
-539.305
-509.324
-466.602
-414.725
-357.154
-297.468
-238.557
-182.286
-130.762
-86.567
-50.938
-23.906
-4.912
7.342
14.054
16.088
15.066
13.377
12.565
13.348
15.972
20.004
25.054
30.944
36.955
41.89
45.059
46.226
45.467
43.303
40.192
36.43
32.523
29.101
26.556
25.103
24.789
25.449
26.955
29.23
32.137
35.525
39.261
43.21
47.269
51.368
55.415
59.305
62.943
66.231
69.115
71.569
73.59
75.191
76.399
77.246
77.777
78.038
78.078
77.946
77.687
77.343
76.962
76.589
76.269
76.044
75.943
75.984
76.177
76.528
77.038
77.708
78.534
79.509
80.627
81.886
83.282
84.813
86.469
88.242
90.121
92.099
94.171
96.33
98.567
100.87
103.227
105.625
108.052
110.49
112.91
115.286
117.591
119.807
121.923
123.929
125.811
127.558
129.156
130.601
131.903
133.068
134.096
134.991
135.754
136.405
136.983
137.52
138.043
138.566
139.086
139.603
140.123
140.638
141.137
141.586
141.929
142.123
142.138
141.94
141.501
140.766
139.653
138.091
136.024
133.406
130.219
126.436
122.023
116.975
111.31
105.073
98.341
91.179
83.64
75.786
67.679
59.406
51.089
42.838
34.756
26.936
19.455
12.397
5.857
-0.104
-5.453
-10.178
-14.301
-17.837
-20.796
-23.197
-25.069
-26.461
-27.443
-28.089
-28.468
-28.651
-28.695
-28.668
-28.639
-28.665
-28.778
-29.0
-29.332
-29.777
-30.341
-31.022
-31.813
-32.695
-33.642
-34.621
-35.601
-36.552
-37.45
-38.272
-38.993
-39.596
-40.072
-40.42
-40.646
-40.758
-40.761
-40.662
-40.471
-40.202
-39.872
-39.497
-39.098
-38.689
-38.282
-37.889
-37.518
-37.175
-36.865
-36.589
-36.344
-36.129
-35.943
-35.786
-35.657
-35.553
-35.471
-35.409
-35.363
-35.33
-35.307
-35.293
-35.286
-35.286
-35.29
-35.299
-35.312
-35.329
-35.35
-35.372
-35.393
-35.412
-35.428
-35.439
-35.443
-35.439
-35.427
-35.404
-35.371
-35.328
-35.274
-35.208
-35.13
-35.04
-34.939
-34.826
-34.702
-34.566
-34.42
-34.263
-34.096
-33.92
-33.735
-33.543
-33.343
-33.136
-32.924
-32.707
-32.486
-32.263
-32.038
-31.813
-31.588
-31.365
-31.144
-30.927
-30.715
-30.509
-30.309
-30.116
-29.931
-29.754
-29.586
-29.426
-29.276
-29.134
-29.001
-28.878
-28.764
-28.66
-28.565
-28.479
-28.403
-28.336
-28.278
-28.229
-28.189
-28.157
-28.133
-28.116
-28.107
-28.104
-28.107
-28.116
-28.13
-28.149
-28.172
-28.198
-28.227
-28.258
-28.289
-28.32
-28.351
-28.378
-28.402
-28.421
-28.434
-28.438
-28.434
-28.418
-28.389
-28.345
-28.284
-28.205
-28.105
-27.982
-27.834
-27.659
-27.455
-27.219
-26.951
-26.647
-26.306
-25.926
-25.504
-25.04
-24.531
-23.976
-23.375
-22.725
-22.027
-21.281
-20.486
-19.645
-18.758
-17.826
-16.854
-15.843
-14.797
-13.722
-12.621
-11.498
-10.36
-9.211
-8.057
-6.903
-5.756
-4.62
-3.501
-2.405
-1.338
-0.308
0.68
1.621
2.508
3.338
4.102
4.796
5.415
5.958
6.422
6.805
7.102
7.309
7.428
7.462
7.415
7.296
7.112
6.873
6.596
6.299
6.003
5.729
5.491
5.299
5.166
5.102
5.123
5.245
5.47
5.798
6.228
6.743
7.327
7.953
8.572
9.131
9.573
9.821
9.818
9.517
8.879
7.892
6.534
4.753
2.514
-0.23
-3.511
-7.262
-11.436
-16.032
-20.911
-25.866
-30.604
-34.581
-37.334
-38.716
-38.577
-36.829
-33.681
-29.249
-23.897
-18.633
-14.325
-11.422
-10.208
-10.406
-11.209
-12.177
-12.575
-10.784
-5.122
6.116
24.293
49.433
79.766
113.069
147.405
180.708
213.092
245.393
275.089
297.074
302.35
280.33
226.792
145.762
48.029
-53.625
-150.507
-240.241
-324.376
-402.423
-471.131
-526.32
-563.83
-582.582
-584.085
-569.32
-539.267
-496.335
-443.626
-384.749
-323.452
-262.382
-203.364
-148.978
-102.254
-64.76
-36.793
-17.766
-6.286
-1.123
-1.263
-4.785
-8.971
-12.003
-12.979
-11.597
-8.299
-3.532
2.421
8.702
13.953
17.373
18.67
17.878
15.515
12.062
7.839
3.404
-0.563
-3.652
-5.644
-6.494
-6.375
-5.419
-3.697
-1.356
1.451
4.595
7.944
11.412
14.945
18.455
21.844
25.018
27.882
30.383
32.507
34.247
35.623
36.665
37.406
37.895
38.185
38.325
38.368
38.359
38.344
38.371
38.49
38.749
39.197
39.868
40.782
41.955
43.393
45.099
47.076
49.317
51.812
54.556
57.541
60.76
64.206
67.869
71.736
75.792
80.022
84.411
88.946
93.61
98.39
103.269
108.233
113.264
118.347
123.462
128.587
133.699
138.776
143.793
148.728
153.557
158.259
162.812
167.198
171.397
175.39
179.157
182.674
185.925
188.894
191.566
193.933
195.989
197.732
199.168
200.305
201.147
201.695
201.947
201.893
201.528
200.845
199.84
198.513
196.866
194.899
192.617
190.026
187.12
183.891
180.321
176.385
172.076
167.399
162.367
157.012
151.37
145.486
139.415
133.207
126.902
120.544
114.167
107.802
101.498
95.303
89.28
83.504
78.024
72.881
68.105
63.701
59.664
55.979
52.605
49.51
46.672
44.073
41.704
39.56
37.623
35.873
34.284
32.816
31.441
30.141
28.896
27.706
26.579
25.533
24.604
23.822
23.205
22.767
22.509
22.429
22.529
22.809
23.265
23.903
24.723
25.723
26.903
28.255
29.763
31.408
33.162
34.997
36.892
38.829
40.793
42.774
44.76
46.743
48.716
50.674
52.606
54.506
56.361
58.166
59.913
61.599
63.221
64.777
66.264
67.681
69.025
70.293
71.482
72.59
73.613
74.548
75.394
76.149
76.814
77.39
77.878
78.278
78.594
78.826
78.978
79.05
79.045
78.964
78.809
78.583
78.288
77.926
77.498
77.008
76.456
75.845
75.177
74.453
73.675
72.844
71.963
71.031
70.052
69.024
67.951
66.832
65.668
64.461
63.211
61.918
60.583
59.207
57.789
56.331
54.833
53.294
51.717
50.102
48.45
46.762
45.04
43.285
41.5
39.685
37.845
35.981
34.097
32.195
30.279
28.353
26.42
24.487
22.556
20.633
18.722
16.828
14.957
13.114
11.305
9.534
7.809
6.134
4.514
2.957
1.466
0.048
-1.295
-2.556
-3.733
-4.82
-5.815
-6.715
-7.516
-8.217
-8.815
-9.31
-9.701
-9.989
-10.174
-10.259
-10.247
-10.141
-9.946
-9.667
-9.31
-8.879
-8.383
-7.827
-7.22
-6.568
-5.881
-5.166
-4.432
-3.69
-2.95
-2.22
-1.511
-0.831
-0.187
0.411
0.954
1.434
1.845
2.179
2.431
2.59
2.651
2.607
2.458
2.205
1.853
1.408
0.878
0.275
-0.388
-1.095
-1.828
-2.573
-3.315
-4.044
-4.744
-5.399
-5.988
-6.499
-6.926
-7.27
-7.542
-7.757
-7.941
-8.133
-8.381
-8.734
-9.253
-10.003
-11.036
-12.402
-14.138
-16.255
-18.796
-21.812
-25.348
-29.453
-34.119
-39.26
-44.817
-50.763
-56.967
-63.23
-69.188
-74.257
-78.074
-80.542
-81.602
-81.21
-79.353
-76.046
-71.754
-67.571
-64.279
-62.077
-60.796
-59.913
-59.009
-57.812
-55.518
-50.29
-40.186
-24.103
-1.862
25.892
57.423
91.249
126.798
161.234
192.662
219.721
236.901
241.092
228.801
195.243
143.009
75.968
-1.414
-82.439
-164.936
-247.795
-328.499
-404.294
-470.514
-523.201
-560.587
-582.127
-588.617
-580.494
-557.85
-522.512
-477.382
-425.699
-370.862
-315.466
-261.411
-211.29
-168.152
-133.576
-107.877
-90.522
-80.141
-75.51
-75.624
-78.604
-81.845
-83.606
-83.021
-79.84
-74.56
-67.657
-59.448
-50.795
-43.008
-36.921
-32.894
-30.958
-30.695
-31.696
-33.686
-36.195
-38.626
-40.603
-41.919
-42.508
-42.496
-42.001
-41.083
-39.853
-38.436
-36.903
-35.317
-33.71
-32.07
-30.429
-28.837
-27.325
-25.934
-24.691
-23.595
-22.646
-21.832
-21.098
-20.397
-19.687
-18.922
-18.086
-17.166
-16.153
-15.057
-13.877
-12.605
-11.237
-9.757
-8.149
-6.408
-4.535
-2.535
-0.438
1.733
3.963
6.237
8.559
10.939
13.386
15.929
18.593
21.385
24.31
27.353
30.488
33.698
36.967
40.285
43.653
47.072
50.536
54.044
57.589
61.16
64.743
68.312
71.831
75.282
78.656
81.959
85.223
88.463
91.683
94.887
98.065
101.201
104.275
107.247
110.062
112.667
115.012
117.058
118.786
120.167
121.163
121.726
121.784
121.286
120.194
118.469
116.087
113.03
109.301
104.936
100.013
94.613
88.815
82.702
76.328
69.754
63.047
56.276
49.52
42.85
36.329
30.024
24.005
18.337
13.064
8.199
3.712
-0.437
-4.29
-7.899
-11.295
-14.508
-17.567
-20.493
-23.305
-26.019
-28.652
-31.224
-33.767
-36.316
-38.895
-41.511
-44.148
-46.778
-49.369
-51.879
-54.279
-56.541
-58.645
-60.581
-62.35
-63.952
-65.388
-66.663
-67.771
-68.701
-69.449
-70.011
-70.393
-70.609
-70.675
-70.614
-70.449
-70.197
-69.876
-69.496
-69.064
-68.584
-68.058
-67.487
-66.873
-66.222
-65.54
-64.834
-64.109
-63.367
-62.613
-61.845
-61.063
-60.266
-59.455
-58.627
-57.785
-56.928
-56.058
-55.18
-54.293
-53.401
-52.505
-51.604
-50.698
-49.788
-48.874
-47.954
-47.03
-46.099
-45.165
-44.226
-43.285
-42.343
-41.401
-40.461
-39.524
-38.591
-37.665
-36.748
-35.84
-34.943
-34.061
-33.194
-32.345
-31.516
-30.709
-29.926
-29.17
-28.441
-27.742
-27.073
-26.436
-25.832
-25.262
-24.728
-24.229
-23.769
-23.347
-22.965
-22.624
-22.324
-22.065
-21.849
-21.674
-21.54
-21.448
-21.397
-21.385
-21.413
-21.479
-21.583
-21.721
-21.894
-22.099
-22.334
-22.598
-22.889
-23.205
-23.545
-23.907
-24.291
-24.693
-25.115
-25.553
-26.007
-26.476
-26.959
-27.454
-27.959
-28.475
-28.998
-29.529
-30.065
-30.605
-31.147
-31.691
-32.233
-32.772
-33.307
-33.834
-34.353
-34.861
-35.357
-35.838
-36.304
-36.751
-37.18
-37.586
-37.969
-38.327
-38.656
-38.954
-39.218
-39.446
-39.636
-39.783
-39.887
-39.944
-39.951
-39.906
-39.807
-39.652
-39.438
-39.164
-38.828
-38.43
-37.97
-37.448
-36.865
-36.223
-35.523
-34.77
-33.965
-33.111
-32.213
-31.272
-30.294
-29.281
-28.238
-27.17
-26.082
-24.979
-23.867
-22.754
-21.645
-20.547
-19.466
-18.408
-17.378
-16.383
-15.426
-14.516
-13.657
-12.855
-12.117
-11.447
-10.846
-10.315
-9.852
-9.452
-9.109
-8.812
-8.549
-8.311
-8.088
-7.871
-7.65
-7.41
-7.139
-6.822
-6.445
-5.999
-5.477
-4.876
-4.195
-3.441
-2.628
-1.783
-0.944
-0.141
0.592
1.224
1.714
2.0
2.026
1.741
1.11
0.132
-1.222
-2.994
-5.225
-7.959
-11.179
-14.783
-18.693
-22.895
-27.287
-31.716
-35.846
-39.121
-41.197
-41.988
-41.467
-39.602
-36.365
-31.779
-26.318
-21.057
-16.761
-13.664
-11.64
-10.24
-9.179
-8.242
-6.598
-2.498
5.811
19.526
39.13
64.209
93.53
125.232
157.342
187.492
215.258
241.81
265.619
282.256
282.596
255.977
198.365
114.027
14.237
-88.537
-186.548
-277.606
-362.306
-439.23
-504.708
-554.482
-584.991
-595.331
-586.22
-558.626
-515.044
-459.362
-395.775
-328.889
-262.637
-199.963
-144.062
-97.913
-62.926
-39.105
-25.456
-20.056
-21.034
-26.604
-34.138
-40.911
-45.243
-46.304
-44.031
-39.024
-31.845
-23.118
-14.087
-6.138
-0.083
3.739
5.441
5.49
4.269
2.118
-0.399
-2.655
-4.247
-4.963
-4.81
-3.968
-2.577
-0.737
1.422
3.772
6.2
8.614
10.959
13.212
15.354
17.37
19.234
20.908
22.372
23.609
24.644
25.539
26.355
27.153
27.984
28.875
29.869
31.016
32.348
33.888
35.634
37.553
39.629
41.862
44.241
46.758
49.384
52.059
54.743
57.408
60.03
62.598
65.086
67.451
69.662
71.687
73.513
75.151
76.608
77.886
79.003
79.986
80.875
81.725
82.574
83.438
84.337
85.285
86.315
87.473
88.815
90.405
92.308
94.578
97.256
100.366
103.897
107.819
112.081
116.614
121.363
126.288
131.341
136.472
141.625
146.727
151.69
156.402
160.735
164.544
167.708
170.134
171.765
172.571
172.538
171.669
169.964
167.427
164.069
159.903
154.941
149.203
142.737
135.616
127.946
119.868
111.51
102.977
94.362
85.743
77.2
68.811
60.649
52.779
45.254
38.137
31.495
25.395
19.877
14.963
10.639
6.866
3.606
0.826
-1.508
-3.435
-5.007
-6.283
-7.323
-8.171
-8.868
-9.459
-9.999
-10.538
-11.117
-11.76
-12.473
-13.252
-14.094
-14.995
-15.947
-16.93
-17.92
-18.885
-19.79
-20.613
-21.341
-21.955
-22.439
-22.78
-22.969
-23.007
-22.903
-22.667
-22.307
-21.831
-21.253
-20.589
-19.859
-19.084
-18.287
-17.486
-16.694
-15.924
-15.186
-14.488
-13.834
-13.227
-12.664
-12.145
-11.67
-11.237
-10.848
-10.499
-10.186
-9.907
-9.656
-9.43
-9.224
-9.036
-8.863
-8.701
-8.547
-8.401
-8.261
-8.126
-7.994
-7.862
-7.728
-7.591
-7.448
-7.298
-7.139
-6.97
-6.79
-6.599
-6.398
-6.187
-5.967
-5.739
-5.503
-5.261
-5.015
-4.765
-4.514
-4.263
-4.014
-3.768
-3.528
-3.295
-3.071
-2.857
-2.656
-2.469
-2.297
-2.142
-2.004
-1.885
-1.785
-1.704
-1.644
-1.603
-1.582
-1.581
-1.599
-1.635
-1.687
-1.756
-1.839
-1.934
-2.041
-2.157
-2.28
-2.409
-2.541
-2.676
-2.812
-2.946
-3.079
-3.209
-3.335
-3.456
-3.572
-3.682
-3.786
-3.883
-3.973
-4.058
-4.136
-4.209
-4.277
-4.342
-4.404
-4.465
-4.525
-4.586
-4.65
-4.716
-4.788
-4.865
-4.949
-5.04
-5.141
-5.252
-5.374
-5.507
-5.651
-5.807
-5.975
-6.153
-6.341
-6.538
-6.743
-6.953
-7.167
-7.384
-7.6
-7.813
-8.021
-8.221
-8.409
-8.583
-8.739
-8.874
-8.986
-9.07
-9.125
-9.149
-9.139
-9.094
-9.014
-8.897
-8.744
-8.555
-8.33
-8.068
-7.773
-7.444
-7.084
-6.695
-6.278
-5.836
-5.372
-4.89
-4.393
-3.886
-3.371
-2.853
-2.335
-1.823
-1.324
-0.839
-0.372
0.075
0.5
0.898
1.262
1.593
1.891
2.158
2.398
2.615
2.813
3.006
3.207
3.43
3.695
4.011
4.382
4.813
5.311
5.886
6.554
7.322
8.188
9.154
10.213
11.355
12.563
13.799
15.017
16.16
17.163
17.977
18.562
18.897
18.977
18.77
18.217
17.248
15.793
13.807
11.32
8.345
4.858
0.966
-3.163
-7.224
-10.687
-13.235
-14.816
-15.379
-14.941
-13.637
-11.453
-8.675
-6.152
-4.239
-2.928
-2.168
-1.403
-0.105
1.795
4.797
10.043
18.125
29.669
45.327
64.755
87.682
114.057
143.165
173.88
204.99
234.217
258.642
275.877
283.371
278.935
260.759
227.007
176.801
110.861
32.376
-54.559
-146.766
-240.527
-333.183
-421.401
-497.736
-556.731
-593.673
-604.597
-592.573
-560.635
-512.69
-455.507
-391.603
-323.883
-256.145
-190.481
-131.214
-82.456
-45.5
-20.457
-6.066
0.101
0.02
-4.367
-10.207
-14.79
-16.495
-14.553
-9.104
-0.982
9.056
20.182
31.032
40.244
47.031
51.084
52.578
52.017
49.868
46.592
42.809
39.173
36.109
33.85
32.465
31.873
32.007
32.82
34.213
36.065
38.285
40.79
43.514
46.415
49.418
52.433
55.386
58.195
60.793
63.127
65.142
66.804
68.112
69.074
69.711
70.054
70.133
69.989
69.672
69.229
68.709
68.157
67.612
67.118
66.713
66.433
66.313
66.381
66.656
67.152
67.875
68.826
70.003
71.399
73.003
74.798
76.763
78.881
81.131
83.5
85.983
88.57
91.25
94.015
96.851
99.755
102.735
105.792
108.926
112.138
115.425
118.796
122.277
125.879
129.609
133.458
137.398
141.402
145.447
149.501
153.525
157.466
161.246
164.807
168.105
171.094
173.734
175.973
177.736
178.973
179.658
179.775
179.333
178.333
176.767
174.648
172.008
168.892
165.372
161.494
157.276
152.746
147.932
142.871
137.621
132.208
126.626
120.877
114.953
108.867
102.653
96.326
89.884
83.332
76.663
69.903
63.11
56.326
49.585
42.92
36.356
29.943
23.764
17.885
12.355
7.21
2.456
-1.89
-5.803
-9.278
-12.325
-14.972
-17.28
-19.288
-21.02
-22.509
-23.78
-24.878
-25.87
-26.804
-27.71
-28.612
-29.52
-30.448
-31.414
-32.415
-33.434
-34.443
-35.403
-36.289
-37.092
-37.802
-38.409
-38.901
-39.258
-39.472
-39.548
-39.487
-39.294
-38.975
-38.532
-37.975
-37.328
-36.614
-35.858
-35.08
-34.291
-33.503
-32.725
-31.965
-31.233
-30.532
-29.861
-29.222
-28.619
-28.054
-27.534
-27.058
-26.627
-26.24
-25.894
-25.591
-25.33
-25.111
-24.934
-24.8
-24.709
-24.663
-24.662
-24.707
-24.798
-24.932
-25.107
-25.322
-25.573
-25.86
-26.177
-26.524
-26.897
-27.295
-27.715
-28.154
-28.61
-29.081
-29.563
-30.055
-30.552
-31.053
-31.553
-32.051
-32.543
-33.025
-33.496
-33.952
-34.391
-34.809
-35.206
-35.579
-35.926
-36.245
-36.537
-36.799
-37.032
-37.235
-37.409
-37.554
-37.67
-37.759
-37.822
-37.86
-37.873
-37.865
-37.835
-37.787
-37.721
-37.641
-37.547
-37.443
-37.33
-37.211
-37.089
-36.965
-36.843
-36.725
-36.613
-36.511
-36.419
-36.34
-36.277
-36.23
-36.201
-36.191
-36.2
-36.23
-36.28
-36.35
-36.44
-36.549
-36.677
-36.824
-36.987
-37.166
-37.358
-37.563
-37.777
-37.998
-38.223
-38.45
-38.676
-38.898
-39.111
-39.314
-39.502
-39.673
-39.822
-39.947
-40.042
-40.106
-40.133
-40.121
-40.066
-39.966
-39.817
-39.616
-39.361
-39.05
-38.68
-38.25
-37.757
-37.199
-36.575
-35.884
-35.124
-34.295
-33.398
-32.432
-31.398
-30.299
-29.137
-27.914
-26.635
-25.301
-23.917
-22.488
-21.017
-19.508
-17.966
-16.396
-14.803
-13.192
-11.57
-9.942
-8.315
-6.695
-5.088
-3.501
-1.938
-0.406
1.091
2.548
3.958
5.314
6.611
7.842
9.004
10.096
11.115
12.062
12.944
13.764
14.535
15.268
15.972
16.656
17.329
17.998
18.681
19.387
20.125
20.909
21.74
22.62
23.556
24.544
25.567
26.615
27.657
28.649
29.567
30.374
31.032
31.505
31.734
31.663
31.257
30.482
29.343
27.823
25.873
23.449
20.51
17.047
13.148
8.885
4.267
-0.601
-5.569
-10.345
-14.389
-17.369
-19.207
-19.844
-19.337
-17.758
-15.026
-11.521
-8.155
-5.471
-3.733
-2.895
-2.331
-1.616
-0.712
1.024
4.835
11.883
23.384
39.845
60.756
85.638
114.172
145.603
178.482
210.352
237.817
257.813
268.05
266.559
251.362
220.339
172.097
108.118
32.612
-50.137
-136.651
-226.634
-321.007
-415.839
-503.109
-571.527
-610.181
-615.907
-592.985
-550.283
-497.979
-442.861
-387.08
-329.809
-270.616
-210.767
-153.548
-103.916
-64.544
-35.411
-15.603
-3.278
3.155
4.579
2.785
0.515
-0.471
0.637
4.087
9.299
15.743
23.162
30.689
36.964
41.189
43.044
42.575
40.33
36.786
32.261
27.307
22.599
18.595
15.577
13.638
12.65
12.512
13.165
14.491
16.358
18.641
21.219
24.002
26.925
29.913
32.877
35.73
38.389
40.788
42.876
44.63
46.051
47.154
47.971
48.539
48.896
49.089
49.171
49.189
49.194
49.228
49.331
49.544
49.909
50.462
51.236
52.253
53.522
55.051
56.842
58.894
61.199
63.749
66.53
69.53
72.743
76.159
79.765
83.544
87.477
91.541
95.714
99.971
104.28
108.61
112.931
117.214
121.442
125.597
129.66
133.611
137.429
141.098
144.613
147.977
151.188
154.247
157.154
159.913
162.549
165.087
167.539
169.918
172.218
174.427
176.542
178.56
180.469
182.246
183.847
185.212
186.296
187.054
187.443
187.418
186.908
185.84
184.159
181.826
178.82
175.13
170.74
165.626
159.795
153.273
146.114
138.406
130.223
121.635
112.72
103.567
94.289
85.012
75.847
66.884
58.201
49.871
41.971
34.594
27.801
21.626
16.082
11.147
6.805
3.044
-0.159
-2.849
-5.086
-6.947
-8.508
-9.819
-10.927
-11.88
-12.73
-13.543
-14.369
-15.234
-16.156
-17.135
-18.172
-19.274
-20.441
-21.653
-22.886
-24.108
-25.282
-26.392
-27.427
-28.375
-29.223
-29.955
-30.561
-31.042
-31.407
-31.664
-31.824
-31.893
-31.879
-31.8
-31.678
-31.533
-31.388
-31.258
-31.151
-31.078
-31.047
-31.063
-31.131
-31.249
-31.413
-31.621
-31.871
-32.161
-32.489
-32.849
-33.235
-33.639
-34.055
-34.476
-34.897
-35.31
-35.711
-36.094
-36.455
-36.791
-37.098
-37.373
-37.611
-37.81
-37.964
-38.071
-38.128
-38.133
-38.082
-37.976
-37.814
-37.595
-37.321
-36.992
-36.611
-36.179
-35.7
-35.176
-34.61
-34.006
-33.368
-32.702
-32.011
-31.301
-30.577
-29.846
-29.113
-28.384
-27.664
-26.961
-26.28
-25.626
-25.006
-24.426
-23.89
-23.403
-22.972
-22.6
-22.292
-22.051
-21.88
-21.783
-21.761
-21.817
-21.951
-22.164
-22.456
-22.827
-23.275
-23.801
-24.4
-25.073
-25.815
-26.623
-27.495
-28.426
-29.412
-30.447
-31.528
-32.649
-33.805
-34.99
-36.198
-37.424
-38.662
-39.906
-41.151
-42.39
-43.619
-44.832
-46.023
-47.188
-48.321
-49.419
-50.477
-51.491
-52.456
-53.369
-54.227
-55.027
-55.766
-56.442
-57.052
-57.595
-58.069
-58.474
-58.809
-59.072
-59.265
-59.386
-59.436
-59.415
-59.325
-59.166
-58.94
-58.647
-58.289
-57.867
-57.384
-56.84
-56.238
-55.58
-54.868
-54.104
-53.292
-52.435
-51.537
-50.602
-49.632
-48.634
-47.61
-46.566
-45.505
-44.432
-43.35
-42.262
-41.173
-40.088
-39.01
-37.943
-36.893
-35.864
-34.86
-33.886
-32.946
-32.044
-31.18
-30.358
-29.582
-28.855
-28.183
-27.571
-27.02
-26.529
-26.099
-25.726
-25.407
-25.131
-24.883
-24.649
-24.416
-24.173
-23.914
-23.628
-23.303
-22.925
-22.477
-21.944
-21.319
-20.594
-19.761
-18.827
-17.794
-16.684
-15.545
-14.416
-13.338
-12.354
-11.495
-10.799
-10.321
-10.111
-10.226
-10.723
-11.64
-13.027
-14.925
-17.351
-20.315
-23.786
-27.666
-31.86
-36.26
-40.751
-45.252
-49.642
-53.742
-57.364
-60.293
-62.309
-63.231
-62.815
-60.743
-56.824
-51.031
-43.555
-34.889
-25.521
-15.786
-6.093
3.024
11.273
18.755
26.085
34.526
45.302
59.014
76.035
96.752
120.917
147.277
173.53
196.068
211.031
215.588
207.286
183.611
143.074
85.739
13.341
-70.193
-160.01
-252.001
-341.665
-423.654
-493.148
-546.296
-580.725
-596.329
-593.912
-573.855
-537.882
-489.402
-432.311
-370.906
-308.948
-248.884
-193.254
-145.282
-106.807
-78.117
-58.644
-46.739
-40.739
-39.474
-41.021
-42.665
-42.603
-39.956
-34.48
-26.811
-17.597
-7.251
3.25
12.498
19.62
24.214
26.248
26.176
24.424
21.3
17.325
13.156
9.227
5.808
3.029
0.846
-0.76
-1.766
-2.209
-2.173
-1.727
-0.932
0.164
1.546
3.17
4.974
6.912
8.948
11.062
13.238
15.447
17.64
19.78
21.838
23.782
25.602
27.298
28.877
30.361
31.784
33.175
34.562
35.964
37.389
38.834
40.301
41.8
43.353
44.986
46.73
48.62
50.686
52.947
55.417
58.096
60.976
64.047
67.299
70.719
74.302
78.046
81.946
85.994
90.177
94.472
98.855
103.295
107.759
112.218
116.642
121.006
125.287
129.465
133.519
137.43
141.178
144.74
148.094
151.22
154.098
156.711
159.041
161.068
162.78
164.168
165.224
165.942
166.318
166.351
166.045
165.413
164.467
163.214
161.657
159.792
157.622
155.147
152.372
149.303
145.937
142.269
138.301
134.036
129.48
124.631
119.474
113.984
108.14
101.943
95.406
88.556
81.422
74.037
66.443
58.692
50.851
42.986
35.147
27.379
19.723
12.233
4.976
-1.963
-8.518
-14.641
-20.302
-25.486
-30.179
-34.381
-38.108
-41.398
-44.308
-46.885
-49.16
-51.155
-52.893
-54.403
-55.732
-56.934
-58.049
-59.104
-60.121
-61.116
-62.104
-63.09
-64.064
-64.998
-65.853
-66.604
-67.238
-67.75
-68.139
-68.4
-68.521
-68.494
-68.319
-68.0
-67.538
-66.938
-66.202
-65.336
-64.358
-63.293
-62.167
-61.0
-59.808
-58.598
-57.381
-56.163
-54.951
-53.75
-52.557
-51.374
-50.201
-49.042
-47.899
-46.774
-45.666
-44.57
-43.485
-42.409
-41.34
-40.278
-39.224
-38.176
-37.135
-36.105
-35.087
-34.084
-33.096
-32.124
-31.169
-30.231
-29.31
-28.406
-27.52
-26.651
-25.8
-24.969
-24.157
-23.368
-22.6
-21.857
-21.139
-20.448
-19.785
-19.151
-18.549
-17.978
-17.442
-16.939
-16.473
-16.042
-15.648
-15.29
-14.969
-14.683
-14.433
-14.218
-14.036
-13.887
-13.769
-13.682
-13.624
-13.594
-13.592
-13.615
-13.664
-13.737
-13.833
-13.949
-14.085
-14.239
-14.409
-14.593
-14.788
-14.992
-15.204
-15.42
-15.638
-15.855
-16.068
-16.276
-16.474
-16.661
-16.834
-16.99
-17.128
-17.246
-17.341
-17.41
-17.453
-17.468
-17.452
-17.404
-17.323
-17.205
-17.05
-16.857
-16.623
-16.348
-16.032
-15.673
-15.273
-14.83
-14.347
-13.823
-13.261
-12.66
-12.023
-11.351
-10.647
-9.911
-9.147
-8.358
-7.545
-6.713
-5.865
-5.006
-4.137
-3.261
-2.383
-1.506
-0.632
0.235
1.093
1.941
2.771
3.581
4.366
5.126
5.862
6.578
7.278
7.969
8.662
9.367
10.096
10.863
11.676
12.547
13.486
14.5
15.606
16.815
18.137
19.574
21.122
22.772
24.508
26.3
28.104
29.874
31.558
33.102
34.453
35.537
36.299
36.689
36.658
36.176
35.187
33.623
31.445
28.649
25.273
21.428
17.202
12.589
7.744
2.961
-1.454
-5.102
-7.789
-9.624
-10.523
-10.1
-8.198
-4.959
-0.681
3.919
8.517
13.555
19.14
24.901
30.679
36.581
43.082
51.529
62.977
77.437
95.168
116.594
141.062
167.075
192.796
215.861
236.322
256.323
275.32
289.015
288.082
261.891
205.774
123.715
27.284
-71.419
-164.407
-249.067
-326.611
-396.047
-454.24
-498.038
-524.497
-533.162
-525.339
-501.846
-464.495
-416.609
-361.725
-303.434
-244.585
-186.954
-132.417
-83.635
-42.819
-10.752
12.848
28.984
38.578
42.322
41.384
37.859
34.094
31.591
30.965
32.231
35.237
39.858
45.755
52.018
57.42
61.236
63.277
63.707
62.922
61.262
59.033
56.74
54.991
54.152
54.366
55.607
57.693
60.49
63.91
67.814
72.042
76.458
80.948
85.43
89.851
94.133
98.184
101.917
105.265
108.199
110.713
112.819
114.544
115.919
116.985
117.79
118.377
118.792
119.075
119.266
119.407
119.541
119.713
119.97
120.347
120.87
121.555
122.412
123.443
124.651
126.032
127.581
129.296
131.174
133.209
135.396
137.727
140.188
142.766
145.44
148.186
150.983
153.812
156.653
159.493
162.314
165.098
167.834
170.503
173.093
175.602
178.03
180.38
182.665
184.899
187.095
189.285
191.487
193.717
195.989
198.306
200.673
203.094
205.564
208.075
210.609
213.129
215.581
217.905
220.019
221.849
223.316
224.328
224.804
224.67
223.86
222.33
220.036
216.943
213.017
208.243
202.623
196.187
188.995
181.127
172.689
163.786
154.527
145.039
135.449
125.883
116.449
107.241
98.339
89.829
81.801
74.327
67.463
61.239
55.652
50.685
46.298
42.451
39.092
36.154
33.562
31.238
29.12
27.162
25.327
23.571
21.842
20.092
18.291
16.422
14.485
12.485
10.434
8.346
6.248
4.173
2.162
0.258
-1.512
-3.132
-4.591
-5.878
-6.979
-7.88
-8.581
-9.086
-9.406
-9.55
-9.527
-9.349
-9.035
-8.611
-8.102
-7.536
-6.935
-6.313
-5.684
-5.062
-4.458
-3.882
-3.34
-2.835
-2.371
-1.951
-1.582
-1.267
-1.008
-0.804
-0.652
-0.553
-0.503
-0.504
-0.552
-0.647
-0.787
-0.973
-1.203
-1.478
-1.795
-2.153
-2.549
-2.98
-3.442
-3.932
-4.446
-4.981
-5.533
-6.098
-6.673
-7.256
-7.843
-8.431
-9.017
-9.599
-10.175
-10.742
-11.299
-11.845
-12.377
-12.896
-13.4
-13.889
-14.364
-14.823
-15.266
-15.695
-16.109
-16.509
-16.895
-17.268
-17.63
-17.982
-18.325
-18.66
-18.99
-19.316
-19.639
-19.96
-20.282
-20.604
-20.928
-21.256
-21.588
-21.926
-22.272
-22.625
-22.986
-23.356
-23.736
-24.125
-24.523
-24.929
-25.344
-25.766
-26.194
-26.629
-27.069
-27.514
-27.962
-28.413
-28.864
-29.313
-29.761
-30.202
-30.637
-31.061
-31.474
-31.872
-32.255
-32.622
-32.971
-33.303
-33.616
-33.911
-34.187
-34.442
-34.675
-34.881
-35.059
-35.207
-35.322
-35.403
-35.448
-35.459
-35.438
-35.387
-35.309
-35.204
-35.074
-34.915
-34.728
-34.515
-34.28
-34.029
-33.773
-33.527
-33.306
-33.127
-33.004
-32.945
-32.953
-33.023
-33.151
-33.33
-33.555
-33.83
-34.159
-34.543
-34.988
-35.491
-36.039
-36.61
-37.176
-37.7
-38.153
-38.512
-38.763
-38.91
-38.965
-38.954
-38.898
-38.811
-38.701
-38.569
-38.414
-38.235
-38.05
-37.884
-37.777
-37.787
-37.968
-38.371
-39.043
-40.003
-41.249
-42.767
-44.536
-46.54
-48.777
-51.248
-53.964
-56.963
-60.256
-63.847
-67.72
-71.794
-76.004
-80.305
-84.641
-89.006
-93.412
-97.789
-102.109
-106.403
-110.575
-114.5
-117.951
-120.429
-121.5
-121.018
-118.862
-115.046
-109.871
-103.537
-96.483
-89.748
-84.265
-80.573
-78.999
-79.263
-80.545
-82.353
-83.899
-83.545
-79.568
-70.373
-54.698
-32.45
-4.523
28.412
65.158
103.282
139.621
170.239
190.993
198.818
191.728
167.642
125.291
65.019
-11.487
-100.628
-197.492
-297.344
-395.53
-486.572
-565.376
-627.873
-670.802
-692.97
-694.701
-676.524
-640.171
-589.166
-527.477
-459.418
-389.751
-322.086
-259.629
-206.027
-163.369
-131.987
-111.546
-100.614
-96.917
-98.61
-103.336
-107.91
-110.361
-109.798
-105.782
-98.818
-89.79
-79.329
-68.576
-59.165
-51.984
-47.381
-45.412
-45.583
-47.366
-50.385
-54.028
-57.549
-60.499
-62.604
-63.736
-64.001
-63.471
-62.175
-60.222
-57.738
-54.82
-51.573
-48.076
-44.372
-40.539
-36.668
-32.837
-29.134
-25.627
-22.368
-19.407
-16.772
-14.468
-12.484
-10.798
-9.381
-8.2
-7.213
-6.371
-5.627
-4.933
-4.247
-3.53
-2.74
-1.84
-0.795
0.425
1.84
3.462
5.299
7.352
9.62
12.099
14.782
17.657
20.712
23.936
27.32
30.853
34.522
38.314
42.213
46.204
50.271
54.398
58.57
62.769
66.979
71.182
75.361
79.499
83.577
87.576
91.477
95.259
98.902
102.387
105.696
108.81
111.713
114.387
116.819
118.996
120.903
122.531
123.87
124.909
125.643
126.066
126.172
125.96
125.427
124.574
123.402
121.914
120.114
118.008
115.603
112.906
109.927
106.676
103.164
99.405
95.412
91.2
86.784
82.182
77.41
72.487
67.429
62.257
56.988
51.641
46.235
40.788
35.319
29.847
24.389
18.962
13.584
8.27
3.038
-2.1
-7.128
-12.035
-16.806
-21.432
-25.901
-30.204
-34.332
-38.277
-42.034
-45.595
-48.957
-52.116
-55.07
-57.818
-60.359
-62.694
-64.825
-66.755
-68.487
-70.025
-71.375
-72.542
-73.533
-74.355
-75.016
-75.523
-75.886
-76.113
-76.214
-76.196
-76.07
-75.844
-75.527
-75.13
-74.659
-74.125
-73.536
-72.9
-72.226
-71.521
-70.792
-70.048
-69.294
-68.537
-67.782
-67.036
-66.302
-65.585
-64.889
-64.217
-63.573
-62.959
-62.376
-61.826
-61.311
-60.83
-60.384
-59.972
-59.595
-59.25
-58.937
-58.654
-58.4
-58.172
-57.97
-57.789
-57.63
-57.488
-57.362
-57.249
-57.148
-57.055
-56.969
-56.886
-56.806
-56.725
-56.643
-56.556
-56.463
-56.363
-56.254
-56.135
-56.005
-55.862
-55.706
-55.537
-55.353
-55.155
-54.941
-54.713
-54.471
-54.214
-53.944
-53.662
-53.368
-53.064
-52.75
-52.429
-52.102
-51.769
-51.432
-51.091
-50.75
-50.408
-50.068
-49.73
-49.396
-49.068
-48.747
-48.433
-48.128
-47.832
-47.547
-47.272
-47.008
-46.756
-46.517
-46.289
-46.073
-45.869
-45.677
-45.497
-45.328
-45.168
-45.017
-44.872
-44.732
-44.594
-44.456
-44.316
-44.172
-44.022
-43.866
-43.7
-43.524
-43.335
-43.133
-42.913
-42.673
-42.408
-42.113
-41.786
-41.425
-41.026
-40.588
-40.109
-39.588
-39.026
-38.424
-37.781
-37.096
-36.362
-35.577
-34.744
-33.87
-32.964
-32.033
-31.081
-30.118
-29.158
-28.208
-27.275
-26.355
-25.435
-24.51
-23.581
-22.653
-21.742
-20.851
-19.973
-19.102
-18.23
-17.351
-16.467
-15.56
-14.6
-13.57
-12.471
-11.316
-10.14
-8.959
-7.768
-6.561
-5.327
-4.066
-2.796
-1.522
-0.239
1.051
2.355
3.653
4.891
6.05
7.133
8.154
9.152
10.134
11.068
11.927
12.69
13.335
13.86
14.236
14.411
14.337
13.961
13.265
12.279
11.007
9.435
7.532
5.223
2.49
-0.602
-3.97
-7.493
-11.087
-14.78
-18.435
-21.712
-24.284
-25.759
-25.946
-25.029
-22.969
-19.379
-14.136
-7.429
0.346
8.298
15.915
23.534
31.228
38.608
45.452
51.852
58.449
66.748
78.185
93.206
111.815
134.317
160.239
187.63
215.044
240.444
262.157
281.292
295.072
296.732
279.21
234.281
162.389
73.26
-23.361
-118.053
-209.027
-300.762
-392.338
-478.156
-547.421
-587.747
-594.671
-571.603
-527.212
-471.721
-412.503
-352.512
-291.2
-228.549
-165.918
-106.38
-55.087
-14.843
14.39
33.497
44.454
49.053
48.317
44.199
39.637
36.525
35.737
37.555
41.392
46.693
53.182
59.945
65.544
69.144
70.428
69.457
66.816
63.024
58.425
53.608
49.291
45.927
43.767
42.867
43.054
44.194
46.209
48.957
52.276
56.024
60.062
64.288
68.633
73.001
77.279
81.36
85.137
88.549
91.567
94.182
96.407
98.265
99.791
101.027
102.023
102.827
103.486
104.047
104.553
105.053
105.594
106.225
106.993
107.933
109.064
110.401
111.947
113.703
115.667
117.834
120.193
122.734
125.448
128.329
131.375
134.581
137.938
141.43
145.039
148.744
152.526
156.368
160.249
164.146
168.04
171.917
175.772
179.604
183.406
187.164
190.858
194.458
197.947
201.311
204.543
207.633
210.577
213.367
216.008
218.514
220.882
223.095
225.122
226.913
228.436
229.673
230.612
231.254
231.596
231.63
231.355
230.772
229.872
228.646
227.065
225.088
222.698
219.904
216.727
213.206
209.365
205.215
200.766
196.024
190.993
185.666
180.036
174.097
167.857
161.346
154.615
147.728
140.734
133.674
126.581
119.491
112.452
105.514
98.723
92.122
85.762
79.715
74.047
68.818
64.068
59.812
56.049
52.766
49.954
47.589
45.644
44.077
42.831
41.865
41.139
40.615
40.252
39.989
39.769
39.544
39.283
38.964
38.574
38.1
37.533
36.879
36.154
35.38
34.59
33.802
33.027
32.275
31.559
30.892
30.291
29.76
29.297
28.898
28.561
28.284
28.065
27.892
27.75
27.623
27.489
27.337
27.159
26.949
26.699
26.408
26.073
25.695
25.282
24.837
24.364
23.866
23.344
22.806
22.256
21.702
21.15
20.605
20.072
19.555
19.059
18.586
18.138
17.716
17.32
16.952
16.611
16.298
16.015
15.761
15.536
15.341
15.176
15.039
14.931
14.849
14.794
14.763
14.755
14.768
14.8
14.851
14.916
14.996
15.086
15.185
15.289
15.397
15.505
15.612
15.713
15.808
15.893
15.966
16.025
16.067
16.092
16.096
16.079
16.039
15.975
15.887
15.774
15.636
15.471
15.281
15.065
14.823
14.555
14.261
13.941
13.594
13.222
12.824
12.402
11.957
11.488
10.999
10.489
9.961
9.415
8.855
8.28
7.695
7.1
6.5
5.895
5.29
4.688
4.091
3.502
2.925
2.362
1.815
1.287
0.78
0.296
-0.161
-0.59
-0.988
-1.351
-1.678
-1.965
-2.21
-2.412
-2.568
-2.677
-2.739
-2.752
-2.717
-2.634
-2.503
-2.326
-2.102
-1.833
-1.52
-1.167
-0.776
-0.349
0.111
0.598
1.107
1.633
2.17
2.713
3.257
3.797
4.327
4.841
5.337
5.81
6.254
6.663
7.027
7.34
7.599
7.803
7.95
8.047
8.097
8.108
8.094
8.063
8.024
7.983
7.942
7.904
7.876
7.864
7.883
7.947
8.059
8.23
8.465
8.75
9.077
9.427
9.765
10.072
10.332
10.519
10.622
10.627
10.514
10.27
9.871
9.273
8.441
7.32
5.875
4.113
2.037
-0.321
-2.933
-5.823
-8.978
-12.328
-15.811
-19.32
-22.795
-26.309
-29.731
-32.738
-35.031
-36.216
-36.126
-34.977
-32.684
-28.855
-23.54
-17.038
-9.873
-3.104
2.865
8.515
13.788
18.258
22.041
25.4
29.208
35.525
45.637
59.591
77.865
100.064
124.24
148.979
172.634
194.815
217.371
239.306
254.763
252.842
221.922
158.296
68.393
-34.116
-136.427
-234.277
-329.853
-425.568
-517.789
-594.545
-642.677
-654.965
-633.338
-588.24
-531.24
-470.548
-409.559
-347.025
-282.486
-217.642
-156.064
-103.302
-62.419
-33.475
-15.469
-6.28
-3.969
-7.247
-13.876
-20.693
-25.611
-27.622
-26.411
-22.584
-16.759
-9.324
-1.325
5.648
10.638
13.244
13.469
11.875
8.974
5.113
0.898
-2.929
-5.907
-7.785
-8.508
-8.261
-7.18
-5.341
-2.891
0.011
3.229
6.634
10.138
13.688
17.201
20.576
23.717
26.527
28.95
30.968
32.575
33.786
34.629
35.14
35.364
35.352
35.153
34.817
34.393
33.924
33.461
33.052
32.747
32.595
32.633
32.884
33.364
34.078
35.031
36.224
37.651
39.305
41.177
43.259
45.544
48.028
50.705
53.57
56.611
59.81
63.146
66.603
70.163
73.808
77.517
81.264
85.031
88.802
92.572
96.331
100.067
103.758
107.375
110.891
114.287
117.552
120.678
123.651
126.46
129.096
131.562
133.867
136.006
137.957
139.68
141.135
142.298
143.156
143.704
143.935
143.835
143.386
142.577
141.403
139.859
137.931
135.595
132.819
129.598
125.951
121.925
117.564
112.9
107.954
102.749
97.311
91.674
85.868
79.915
73.834
67.649
61.394
55.118
48.874
42.694
36.59
30.558
24.594
18.707
12.909
7.209
1.611
-3.879
-9.252
-14.488
-19.567
-24.477
-29.213
-33.781
-38.184
-42.42
-46.479
-50.347
-54.01
-57.463
-60.699
-63.713
-66.497
-69.048
-71.367
-73.462
-75.343
-77.015
-78.484
-79.752
-80.825
-81.708
-82.411
-82.943
-83.311
-83.525
-83.594
-83.528
-83.339
-83.037
-82.628
-82.122
-81.525
-80.843
-80.086
-79.261
-78.374
-77.432
-76.442
-75.411
-74.346
-73.252
-72.136
-71.002
-69.855
-68.7
-67.54
-66.379
-65.22
-64.066
-62.921
-61.786
-60.664
-59.557
-58.469
-57.4
-56.352
-55.329
-54.33
-53.358
-52.414
-51.5
-50.617
-49.766
-48.949
-48.168
-47.423
-46.717
-46.05
-45.424
-44.84
-44.299
-43.801
-43.347
-42.937
-42.573
-42.255
-41.983
-41.757
-41.578
-41.446
-41.361
-41.321
-41.328
-41.378
-41.473
-41.609
-41.787
-42.004
-42.259
-42.55
-42.875
-43.232
-43.62
-44.035
-44.476
-44.94
-45.424
-45.926
-46.444
-46.974
-47.515
-48.064
-48.618
-49.176
-49.734
-50.289
-50.84
-51.384
-51.918
-52.44
-52.948
-53.439
-53.912
-54.364
-54.793
-55.2
-55.58
-55.934
-56.259
-56.555
-56.819
-57.051
-57.249
-57.412
-57.54
-57.63
-57.684
-57.698
-57.674
-57.608
-57.501
-57.351
-57.158
-56.921
-56.638
-56.31
-55.937
-55.52
-55.058
-54.552
-54.004
-53.415
-52.785
-52.117
-51.413
-50.674
-49.904
-49.104
-48.279
-47.433
-46.57
-45.694
-44.811
-43.924
-43.038
-42.158
-41.287
-40.43
-39.589
-38.77
-37.976
-37.215
-36.489
-35.804
-35.163
-34.572
-34.033
-33.55
-33.124
-32.754
-32.442
-32.187
-31.995
-31.87
-31.814
-31.826
-31.905
-32.045
-32.242
-32.486
-32.763
-33.054
-33.34
-33.603
-33.83
-34.008
-34.121
-34.15
-34.071
-33.861
-33.504
-32.986
-32.302
-31.454
-30.452
-29.321
-28.103
-26.851
-25.625
-24.486
-23.494
-22.714
-22.212
-22.059
-22.33
-23.088
-24.382
-26.246
-28.682
-31.669
-35.164
-39.096
-43.373
-47.877
-52.465
-56.968
-61.188
-64.896
-67.864
-69.821
-70.454
-69.516
-66.827
-62.367
-56.388
-49.251
-41.322
-33.046
-24.858
-17.087
-9.992
-3.276
4.126
13.461
25.955
41.792
59.957
79.761
101.156
125.747
155.523
188.862
219.65
237.037
229.491
191.365
124.877
39.953
-51.866
-142.734
-229.357
-312.638
-392.003
-463.731
-523.186
-565.724
-589.244
-594.483
-582.735
-555.248
-514.418
-463.55
-406.277
-346.416
-287.046
-230.267
-178.447
-134.42
-99.6
-74.061
-57.158
-47.382
-43.276
-43.716
-46.808
-49.946
-51.469
-50.609
-47.152
-41.65
-34.64
-26.476
-18.063
-10.722
-5.242
-1.929
-0.739
-1.169
-2.772
-5.234
-8.034
-10.546
-12.355
-13.23
-13.119
-12.164
-10.483
-8.14
-5.246
-1.924
1.718
5.572
9.556
13.618
17.688
21.68
25.507
29.083
32.333
35.216
37.72
39.847
41.617
43.056
44.193
45.067
45.721
46.199
46.544
46.796
46.992
47.174
47.385
47.671
48.074
48.623
49.339
50.233
51.314
52.586
54.049
55.697
57.524
59.523
61.693
64.032
66.54
69.207
72.025
74.979
78.053
81.228
84.477
87.773
91.094
94.421
97.741
101.048
104.333
107.586
110.8
113.96
117.052
120.065
122.984
125.795
128.494
131.083
133.576
135.994
138.342
140.616
142.804
144.877
146.807
148.559
150.083
151.344
152.311
152.953
153.253
153.195
152.749
151.884
150.56
148.725
146.35
143.421
139.933
135.905
131.363
126.348
120.926
115.155
109.08
102.749
96.195
89.447
82.552
75.555
68.505
61.467
54.49
47.614
40.879
34.307
27.908
21.686
15.62
9.696
3.912
-1.734
-7.233
-12.573
-17.75
-22.757
-27.589
-32.248
-36.734
-41.045
-45.185
-49.149
-52.93
-56.514
-59.884
-63.022
-65.919
-68.57
-70.976
-73.139
-75.065
-76.76
-78.237
-79.505
-80.575
-81.454
-82.153
-82.681
-83.05
-83.275
-83.369
-83.349
-83.228
-83.019
-82.736
-82.389
-81.989
-81.545
-81.065
-80.555
-80.023
-79.477
-78.923
-78.368
-77.818
-77.278
-76.753
-76.245
-75.758
-75.293
-74.851
-74.432
-74.035
-73.659
-73.303
-72.963
-72.638
-72.325
-72.019
-71.718
-71.417
-71.114
-70.802
-70.48
-70.143
-69.787
-69.41
-69.008
-68.579
-68.121
-67.633
-67.113
-66.559
-65.973
-65.352
-64.698
-64.011
-63.292
-62.542
-61.764
-60.959
-60.13
-59.281
-58.416
-57.538
-56.651
-55.759
-54.868
-53.982
-53.106
-52.245
-51.403
-50.587
-49.799
-49.046
-48.332
-47.66
-47.035
-46.46
-45.937
-45.469
-45.058
-44.706
-44.414
-44.181
-44.008
-43.895
-43.841
-43.844
-43.902
-44.012
-44.173
-44.379
-44.628
-44.916
-45.237
-45.587
-45.961
-46.353
-46.757
-47.168
-47.578
-47.982
-48.373
-48.744
-49.089
-49.401
-49.674
-49.902
-50.079
-50.2
-50.259
-50.252
-50.175
-50.025
-49.798
-49.492
-49.107
-48.64
-48.093
-47.466
-46.76
-45.979
-45.123
-44.196
-43.201
-42.14
-41.017
-39.836
-38.6
-37.313
-35.982
-34.613
-33.212
-31.786
-30.341
-28.884
-27.423
-25.964
-24.51
-23.067
-21.639
-20.236
-18.866
-17.539
-16.258
-15.027
-13.848
-12.719
-11.635
-10.586
-9.555
-8.526
-7.484
-6.417
-5.321
-4.187
-3.003
-1.752
-0.416
1.024
2.573
4.235
6.017
7.913
9.897
11.932
13.954
15.899
17.717
19.357
20.768
21.898
22.68
23.052
22.954
22.33
21.13
19.32
16.878
13.819
10.218
6.179
1.833
-2.685
-7.252
-11.719
-15.944
-19.769
-22.989
-25.393
-26.739
-26.71
-25.006
-21.451
-15.844
-8.165
1.076
11.37
22.286
33.028
43.781
54.946
65.46
75.538
84.662
92.063
101.265
113.919
131.544
156.468
184.909
215.432
247.574
276.593
299.111
306.414
287.142
237.101
158.485
61.621
-40.069
-137.683
-227.964
-311.551
-387.468
-452.323
-502.048
-532.697
-543.564
-536.011
-510.885
-470.438
-418.375
-358.451
-294.843
-231.251
-169.963
-113.416
-64.818
-25.979
2.853
22.214
33.697
38.965
39.188
36.317
33.14
31.51
32.346
35.965
41.804
49.261
57.955
66.918
74.742
80.572
84.036
85.136
84.378
82.231
79.032
75.338
71.811
68.871
66.76
65.547
65.097
65.31
66.142
67.492
69.254
71.351
73.696
76.228
78.913
81.685
84.469
87.204
89.834
92.332
94.697
96.932
99.051
101.077
103.025
104.905
106.719
108.455
110.117
111.72
113.281
114.828
116.385
117.97
119.6
121.281
123.005
124.764
126.55
128.352
130.174
132.027
133.928
135.912
138.003
140.218
142.567
145.053
147.672
150.427
153.314
156.326
159.464
162.728
166.112
169.614
173.221
176.913
180.667
184.449
188.228
191.976
195.668
199.283
202.8
206.2
209.465
212.584
215.539
218.313
220.892
223.257
225.394
227.292
228.94
230.33
231.457
232.314
232.895
233.195
233.209
232.935
232.369
231.508
230.352
228.902
227.16
225.134
222.828
220.252
217.415
214.328
211.002
207.452
203.69
199.731
195.59
191.284
186.827
182.238
177.533
172.729
167.845
162.898
157.906
152.885
147.853
142.827
137.823
132.859
127.948
123.108
118.35
113.691
109.142
104.715
100.421
96.27
92.271
88.432
84.759
81.258
77.931
74.783
71.814
69.025
66.417
63.986
61.731
59.648
57.734
55.982
54.387
52.943
51.642
50.477
49.441
48.524
47.717
47.013
46.401
45.873
45.42
45.031
44.7
44.416
44.171
43.958
43.769
43.596
43.433
43.274
43.112
42.944
42.765
42.57
42.358
42.125
41.869
41.59
41.288
40.961
40.611
40.239
39.845
39.433
39.004
38.561
38.106
37.643
37.174
36.704
36.235
35.77
35.313
34.867
34.434
34.018
33.621
33.245
32.892
32.564
32.262
31.986
31.739
31.52
31.329
31.165
31.028
30.916
30.827
30.76
30.712
30.68
30.662
30.654
30.652
30.654
30.654
30.65
30.637
30.612
30.57
30.508
30.421
30.307
30.162
29.984
29.769
29.515
29.22
28.881
28.498
28.07
27.594
27.071
26.501
25.884
25.22
24.511
23.758
22.962
22.126
21.252
20.344
19.403
18.434
17.442
16.429
15.4
14.361
13.316
12.27
11.228
10.196
9.177
8.177
7.201
6.253
5.337
4.458
3.621
2.828
2.084
1.392
0.755
0.176
-0.342
-0.798
-1.189
-1.514
-1.772
-1.963
-2.085
-2.138
-2.124
-2.043
-1.898
-1.689
-1.421
-1.097
-0.722
-0.3
0.162
0.659
1.186
1.736
2.305
2.885
3.473
4.063
4.649
5.225
5.786
6.324
6.834
7.31
7.747
8.139
8.482
8.773
9.009
9.189
9.307
9.361
9.345
9.257
9.096
8.865
8.565
8.202
7.788
7.336
6.865
6.391
5.929
5.492
5.092
4.742
4.462
4.268
4.171
4.185
4.315
4.564
4.938
5.43
6.009
6.643
7.279
7.868
8.376
8.758
8.964
8.937
8.604
7.916
6.844
5.358
3.452
1.102
-1.755
-5.12
-8.927
-13.092
-17.456
-21.924
-26.532
-31.118
-35.342
-38.874
-41.284
-42.376
-42.322
-41.008
-38.01
-33.324
-27.26
-20.411
-13.93
-8.309
-3.104
1.693
5.667
8.913
11.929
15.96
23.352
35.469
52.008
72.741
97.649
126.021
156.385
185.939
210.125
224.872
227.971
217.549
191.633
149.152
90.228
16.65
-67.366
-156.856
-247.981
-336.771
-418.404
-488.464
-543.231
-580.001
-598.333
-599.005
-582.272
-549.241
-502.754
-446.216
-383.54
-318.836
-255.054
-194.713
-141.083
-96.754
-62.706
-38.977
-24.564
-17.771
-17.201
-21.229
-27.323
-33.067
-36.999
-38.39
-37.28
-34.178
-29.496
-23.799
-18.18
-13.815
-11.358
-10.987
-12.477
-15.344
-19.178
-23.6
-28.054
-31.931
-34.86
-36.685
-37.421
-37.233
-36.242
-34.529
-32.229
-29.499
-26.475
-23.279
-20.003
-16.701
-13.455
-10.358
-7.492
-4.939
-2.745
-0.919
0.541
1.654
2.45
2.963
3.234
3.313
3.249
3.088
2.876
2.652
2.461
2.345
2.346
2.503
2.845
3.385
4.133
5.091
6.259
7.633
9.206
10.968
12.91
15.022
17.296
19.725
22.299
25.004
27.829
30.757
33.776
36.873
40.033
43.242
46.485
49.747
53.012
56.266
59.491
62.67
65.785
68.816
71.745
74.555
77.226
79.742
82.086
84.24
86.19
87.922
89.423
90.678
91.678
92.412
92.871
93.047
92.933
92.526
91.822
90.818
89.514
87.911
86.012
83.82
81.34
78.58
75.546
72.25
68.7
64.909
60.89
56.656
52.222
47.604
42.818
37.88
32.809
27.623
22.339
16.977
11.555
6.092
0.607
-4.883
-10.357
-15.8
-21.192
-26.518
-31.761
-36.906
-41.939
-46.845
-51.613
-56.23
-60.686
-64.972
-69.078
-72.999
-76.728
-80.261
-83.592
-86.721
-89.645
-92.364
-94.878
-97.19
-99.301
-101.215
-102.937
-104.471
-105.824
-107.002
-108.012
-108.862
-109.561
-110.118
-110.54
-110.839
-111.022
-111.1
-111.082
-110.977
-110.794
-110.542
-110.23
-109.864
-109.452
-109.003
-108.521
-108.014
-107.486
-106.943
-106.389
-105.828
-105.264
-104.699
-104.136
-103.578
-103.026
-102.481
-101.944
-101.417
-100.9
-100.392
-99.893
-99.404
-98.922
-98.447
-97.977
-97.512
-97.049
-96.587
-96.124
-95.66
-95.192
-94.72
-94.242
-93.759
-93.269
-92.773
-92.27
-91.761
-91.247
-90.728
-90.205
-89.678
-89.151
-88.622
-88.095
-87.571
-87.049
-86.533
-86.023
-85.519
-85.024
-84.536
-84.058
-83.59
-83.132
-82.685
-82.25
-81.828
-81.418
-81.023
-80.643
-80.277
-79.925
-79.588
-79.265
-78.956
-78.659
-78.373
-78.097
-77.83
-77.571
-77.317
-77.069
-76.823
-76.578
-76.332
-76.084
-75.831
-75.573
-75.307
-75.033
-74.749
-74.457
-74.155
-73.844
-73.524
-73.194
-72.855
-72.506
-72.147
-71.776
-71.393
-70.997
-70.588
-70.165
-69.728
-69.278
-68.816
-68.344
-67.861
-67.371
-66.873
-66.365
-65.847
-65.318
-64.776
-64.219
-63.646
-63.054
-62.441
-61.81
-61.161
-60.492
-59.801
-59.082
-58.331
-57.547
-56.731
-55.883
-55.007
-54.105
-53.189
-52.275
-51.382
-50.524
-49.709
-48.935
-48.201
-47.509
-46.857
-46.243
-45.658
-45.084
-44.51
-43.929
-43.331
-42.7
-42.006
-41.201
-40.244
-39.099
-37.741
-36.16
-34.349
-32.304
-30.041
-27.588
-24.988
-22.299
-19.563
-16.807
-14.069
-11.39
-8.831
-6.472
-4.383
-2.618
-1.231
-0.266
0.241
0.266
-0.176
-1.043
-2.274
-3.789
-5.53
-7.461
-9.534
-11.699
-13.898
-16.061
-18.138
-20.106
-21.939
-23.595
-25.032
-26.219
-27.155
-27.904
-28.566
-29.234
-29.957
-30.737
-31.535
-32.37
-33.34
-34.4
-35.339
-35.913
-35.822
-34.97
-33.562
-31.591
-28.72
-24.845
-20.108
-14.78
-9.569
-4.827
-0.146
4.564
8.964
13.029
16.864
20.827
26.366
34.782
46.407
61.838
80.861
102.007
124.366
147.363
171.501
198.441
227.149
252.08
263.157
249.417
205.496
134.055
45.171
-49.775
-143.405
-232.935
-319.151
-401.068
-474.758
-535.481
-578.394
-601.271
-604.37
-588.319
-554.59
-506.14
-446.588
-380.046
-310.965
-242.838
-178.608
-121.676
-74.758
-38.914
-14.09
0.807
7.653
8.102
3.983
-2.009
-7.303
-10.354
-10.429
-7.588
-2.425
4.549
12.683
20.78
27.554
32.292
34.774
35.208
34.1
31.887
28.966
25.925
23.406
21.798
21.273
21.823
23.281
25.524
28.472
31.99
35.924
40.144
44.528
48.994
53.486
57.921
62.202
66.239
69.939
73.251
76.159
78.657
80.76
82.496
83.895
84.997
85.851
86.502
86.995
87.372
87.674
87.945
88.231
88.579
89.034
89.628
90.382
91.312
92.423
93.717
95.192
96.843
98.662
100.642
102.784
105.083
107.533
110.124
112.847
115.686
118.625
121.64
124.702
127.789
130.886
133.978
137.061
140.126
143.162
146.162
149.116
152.016
154.859
157.636
160.332
162.945
165.481
167.953
170.394
172.814
175.205
177.557
179.851
182.068
184.189
186.184
188.007
189.624
191.008
192.135
192.991
193.542
193.736
193.515
192.818
191.605
189.868
187.601
184.798
181.469
177.626
173.304
168.566
163.449
157.972
152.164
146.048
139.683
133.155
126.544
119.923
113.351
106.864
100.501
94.31
88.32
82.547
76.996
71.652
66.526
61.658
57.068
52.767
48.739
44.933
41.316
37.871
34.58
31.435
28.422
25.518
22.718
20.031
17.462
15.022
12.702
10.466
8.3
6.2
4.177
2.262
0.472
-1.191
-2.722
-4.114
-5.362
-6.459
-7.411
-8.236
-8.946
-9.547
-10.042
-10.419
-10.678
-10.829
-10.883
-10.862
-10.779
-10.643
-10.468
-10.266
-10.05
-9.829
-9.607
-9.382
-9.155
-8.93
-8.713
-8.509
-8.325
-8.16
-8.015
-7.89
-7.786
-7.701
-7.635
-7.583
-7.545
-7.518
-7.503
-7.5
-7.509
-7.531
-7.562
-7.603
-7.653
-7.711
-7.774
-7.841
-7.911
-7.983
-8.056
-8.131
-8.207
-8.284
-8.362
-8.441
-8.522
-8.605
-8.689
-8.776
-8.867
-8.961
-9.06
-9.165
-9.277
-9.396
-9.524
-9.661
-9.808
-9.967
-10.136
-10.318
-10.512
-10.719
-10.938
-11.17
-11.415
-11.673
-11.942
-12.224
-12.517
-12.819
-13.13
-13.449
-13.774
-14.103
-14.435
-14.768
-15.099
-15.428
-15.752
-16.069
-16.377
-16.676
-16.963
-17.237
-17.497
-17.741
-17.969
-18.179
-18.372
-18.547
-18.704
-18.842
-18.963
-19.065
-19.15
-19.219
-19.271
-19.308
-19.33
-19.34
-19.337
-19.323
-19.3
-19.27
-19.232
-19.19
-19.144
-19.096
-19.048
-19.001
-18.956
-18.913
-18.874
-18.839
-18.809
-18.782
-18.759
-18.74
-18.723
-18.708
-18.693
-18.676
-18.657
-18.633
-18.603
-18.565
-18.516
-18.456
-18.383
-18.294
-18.189
-18.066
-17.925
-17.765
-17.586
-17.389
-17.174
-16.941
-16.69
-16.423
-16.139
-15.84
-15.526
-15.199
-14.862
-14.518
-14.169
-13.819
-13.472
-13.133
-12.804
-12.489
-12.191
-11.913
-11.657
-11.428
-11.228
-11.063
-10.936
-10.85
-10.804
-10.794
-10.817
-10.867
-10.935
-11.01
-11.079
-11.131
-11.158
-11.152
-11.108
-11.012
-10.852
-10.615
-10.288
-9.864
-9.343
-8.728
-8.023
-7.238
-6.388
-5.505
-4.63
-3.793
-3.027
-2.358
-1.819
-1.473
-1.376
-1.58
-2.121
-3.001
-4.227
-5.826
-7.825
-10.255
-13.119
-16.334
-19.824
-23.587
-27.519
-31.453
-35.117
-37.995
-39.62
-39.827
-38.507
-35.556
-31.156
-25.538
-19.121
-13.001
-8.257
-5.317
-4.37
-5.24
-7.105
-9.341
-11.233
-10.769
-5.674
5.53
23.976
48.956
77.903
109.272
142.232
176.643
213.001
249.356
279.888
295.173
285.645
245.984
177.645
90.587
-2.843
-95.305
-184.43
-273.21
-365.471
-456.737
-537.267
-597.292
-627.639
-627.684
-604.193
-563.15
-512.197
-456.305
-395.527
-332.081
-268.185
-206.354
-151.734
-107.455
-74.087
-51.402
-37.791
-30.892
-29.062
-30.301
-31.7
-31.435
-28.683
-22.988
-14.786
-4.922
6.051
17.122
26.742
34.094
38.862
40.964
40.866
39.055
35.868
31.899
27.886
24.288
21.382
19.284
17.899
17.17
17.084
17.556
18.474
19.738
21.259
22.982
24.889
26.956
29.126
31.335
33.526
35.655
37.71
39.706
41.651
43.557
45.448
47.338
49.255
51.236
53.296
55.447
57.687
59.996
62.366
64.811
67.332
69.935
72.607
75.32
78.059
80.818
83.587
86.363
89.138
91.897
94.645
97.403
100.196
103.062
106.018
109.069
112.221
115.475
118.83
122.289
125.832
129.436
133.081
136.756
140.455
144.17
147.885
151.572
155.203
158.755
162.213
165.563
168.789
171.876
174.824
177.642
180.359
182.997
185.56
188.037
190.411
192.666
194.782
196.74
198.508
200.045
201.319
202.308
203.001
203.38
203.406
203.027
202.18
200.815
198.906
196.437
193.394
189.77
185.574
180.827
175.579
169.88
163.758
157.232
150.321
143.052
135.485
127.69
119.74
111.706
103.65
95.642
87.766
80.091
72.664
65.517
58.66
52.111
45.916
40.118
34.754
29.847
25.395
21.392
17.834
14.706
11.979
9.61
7.532
5.694
4.066
2.625
1.358
0.241
-0.771
-1.715
-2.614
-3.491
-4.352
-5.211
-6.086
-6.98
-7.883
-8.77
-9.606
-10.366
-11.043
-11.631
-12.127
-12.527
-12.815
-12.99
-13.057
-13.022
-12.893
-12.673
-12.363
-11.97
-11.514
-11.015
-10.496
-9.978
-9.469
-8.981
-8.523
-8.103
-7.729
-7.404
-7.123
-6.886
-6.694
-6.546
-6.444
-6.387
-6.371
-6.391
-6.443
-6.525
-6.633
-6.766
-6.921
-7.095
-7.288
-7.499
-7.729
-7.976
-8.24
-8.52
-8.813
-9.119
-9.436
-9.762
-10.096
-10.435
-10.778
-11.124
-11.473
-11.823
-12.173
-12.523
-12.873
-13.223
-13.573
-13.924
-14.274
-14.626
-14.979
-15.334
-15.691
-16.051
-16.414
-16.78
-17.15
-17.523
-17.9
-18.28
-18.663
-19.05
-19.44
-19.832
-20.226
-20.622
-21.021
-21.421
-21.823
-22.228
-22.635
-23.044
-23.457
-23.872
-24.291
-24.713
-25.137
-25.564
-25.993
-26.423
-26.855
-27.288
-27.721
-28.156
-28.59
-29.026
-29.461
-29.897
-30.332
-30.768
-31.204
-31.64
-32.077
-32.515
-32.954
-33.394
-33.837
-34.281
-34.727
-35.175
-35.623
-36.071
-36.517
-36.96
-37.396
-37.825
-38.246
-38.656
-39.055
-39.44
-39.812
-40.172
-40.519
-40.851
-41.167
-41.464
-41.738
-41.988
-42.21
-42.399
-42.55
-42.662
-42.731
-42.758
-42.741
-42.678
-42.565
-42.397
-42.171
-41.888
-41.549
-41.155
-40.71
-40.223
-39.707
-39.181
-38.66
-38.152
-37.661
-37.185
-36.723
-36.273
-35.831
-35.395
-34.958
-34.513
-34.057
-33.588
-33.096
-32.566
-31.973
-31.28
-30.461
-29.504
-28.405
-27.171
-25.813
-24.347
-22.794
-21.186
-19.549
-17.908
-16.282
-14.683
-13.132
-11.657
-10.295
-9.095
-8.096
-7.32
-6.782
-6.485
-6.419
-6.57
-6.914
-7.422
-8.065
-8.82
-9.676
-10.631
-11.681
-12.824
-14.046
-15.329
-16.666
-18.054
-19.504
-21.039
-22.681
-24.464
-26.421
-28.574
-30.947
-33.541
-36.319
-39.23
-42.207
-45.171
-48.062
-50.817
-53.332
-55.485
-57.115
-58.037
-58.066
-56.986
-54.536
-50.513
-44.817
-37.561
-29.127
-19.966
-10.477
-1.06
7.875
16.001
23.207
30.091
38.01
48.209
61.655
78.224
96.662
117.106
139.787
164.881
193.42
221.117
240.424
244.218
223.464
176.382
109.21
28.576
-56.326
-139.82
-222.451
-302.913
-378.414
-444.878
-496.583
-530.722
-547.466
-547.912
-533.218
-504.529
-464.001
-415.125
-361.898
-307.301
-253.317
-201.538
-154.026
-113.346
-80.871
-56.379
-38.817
-27.237
-20.86
-18.942
-20.092
-21.934
-22.827
-22.239
-20.141
-16.828
-12.596
-7.587
-2.383
1.818
4.297
4.886
3.679
1.166
-2.193
-6.105
-10.078
-13.493
-15.97
-17.313
-17.473
-16.609
-14.845
-12.256
-8.989
-5.197
-1.013
3.428
8.034
12.722
17.384
21.904
26.17
30.093
33.629
36.756
39.467
41.776
43.707
45.296
46.594
47.645
48.49
49.176
49.743
50.239
50.716
51.224
51.814
52.525
53.383
54.405
55.603
56.98
58.54
60.279
62.187
64.261
66.498
68.895
71.448
74.154
77.003
79.987
83.095
86.318
89.647
93.07
96.576
100.156
103.798
107.492
111.225
114.985
118.754
122.518
126.258
129.957
133.595
137.151
140.606
143.94
147.136
150.176
153.041
155.716
158.182
160.425
162.432
164.188
165.678
166.887
167.801
168.409
168.711
168.703
168.382
167.746
166.796
165.534
163.971
162.109
159.944
157.476
154.701
151.626
148.266
144.637
140.753
136.626
132.259
127.66
122.847
117.831
112.62
107.22
101.63
95.866
89.972
83.982
77.935
71.86
65.77
59.687
53.633
47.634
41.723
35.923
30.247
24.721
19.378
14.252
9.385
4.791
0.454
-3.637
-7.492
-11.113
-14.493
-17.632
-20.54
-23.223
-25.685
-27.929
-29.949
-31.756
-33.372
-34.817
-36.122
-37.295
-38.322
-39.198
-39.919
-40.488
-40.915
-41.203
-41.348
-41.357
-41.242
-41.016
-40.697
-40.292
-39.802
-39.229
-38.573
-37.842
-37.056
-36.229
-35.37
-34.493
-33.606
-32.72
-31.849
-31.001
-30.177
-29.381
-28.615
-27.88
-27.186
-26.535
-25.932
-25.379
-24.875
-24.421
-24.019
-23.667
-23.365
-23.112
-22.903
-22.737
-22.615
-22.535
-22.494
-22.492
-22.525
-22.59
-22.686
-22.809
-22.956
-23.123
-23.307
-23.505
-23.714
-23.931
-24.152
-24.374
-24.595
-24.811
-25.02
-25.218
-25.404
-25.574
-25.727
-25.86
-25.972
-26.061
-26.126
-26.165
-26.178
-26.164
-26.123
-26.054
-25.96
-25.839
-25.693
-25.523
-25.331
-25.119
-24.887
-24.639
-24.376
-24.1
-23.815
-23.522
-23.225
-22.926
-22.629
-22.336
-22.051
-21.776
-21.515
-21.271
-21.046
-20.844
-20.667
-20.518
-20.399
-20.312
-20.26
-20.244
-20.265
-20.324
-20.421
-20.557
-20.731
-20.942
-21.188
-21.468
-21.778
-22.117
-22.482
-22.869
-23.276
-23.698
-24.131
-24.572
-25.016
-25.458
-25.892
-26.315
-26.721
-27.104
-27.459
-27.782
-28.067
-28.31
-28.504
-28.646
-28.732
-28.756
-28.715
-28.605
-28.424
-28.169
-27.839
-27.433
-26.953
-26.398
-25.77
-25.074
-24.312
-23.488
-22.606
-21.671
-20.689
-19.665
-18.605
-17.516
-16.404
-15.276
-14.141
-13.006
-11.88
-10.77
-9.686
-8.633
-7.62
-6.655
-5.744
-4.897
-4.118
-3.414
-2.788
-2.248
-1.797
-1.438
-1.171
-0.991
-0.895
-0.877
-0.927
-1.033
-1.182
-1.361
-1.557
-1.753
-1.939
-2.105
-2.24
-2.333
-2.373
-2.351
-2.262
-2.107
-1.885
-1.603
-1.284
-0.954
-0.647
-0.399
-0.246
-0.237
-0.416
-0.819
-1.468
-2.362
-3.52
-4.99
-6.826
-9.09
-11.81
-14.938
-18.425
-22.263
-26.343
-30.506
-34.47
-37.745
-40.038
-41.307
-41.511
-40.674
-38.91
-36.214
-32.889
-29.74
-27.124
-25.078
-23.616
-22.312
-20.735
-18.798
-15.992
-11.246
-3.978
6.546
21.264
40.069
62.765
88.605
115.405
142.102
168.273
193.606
219.296
242.428
256.352
254.304
227.551
174.312
101.821
18.617
-65.329
-145.437
-226.333
-312.121
-402.033
-489.133
-559.503
-600.579
-608.136
-586.124
-544.633
-494.55
-442.987
-391.968
-339.82
-285.55
-229.963
-176.078
-128.967
-91.344
-63.29
-44.024
-31.708
-24.828
-22.603
-23.357
-24.558
-24.589
-22.675
-18.583
-12.862
-6.009
1.715
9.486
16.037
20.615
22.93
23.033
21.427
18.575
14.808
10.663
6.806
3.688
1.565
0.521
0.439
1.212
2.786
5.047
7.854
11.083
14.616
18.355
22.242
26.195
30.107
33.88
37.414
40.628
43.478
45.946
48.025
49.735
51.104
52.165
52.961
53.542
53.953
54.244
54.459
54.642
54.838
55.094
55.457
55.968
56.656
57.536
58.621
59.914
61.417
63.127
65.039
67.143
69.43
71.896
74.531
77.331
80.286
83.384
86.613
89.958
93.405
96.941
100.552
104.223
107.939
111.686
115.449
119.212
122.961
126.68
130.349
133.95
137.464
140.871
144.152
147.289
150.262
153.053
155.645
158.022
160.171
162.08
163.735
165.123
166.228
167.038
167.549
167.753
167.651
167.242
166.528
165.518
164.23
162.679
160.881
158.845
156.573
154.07
151.343
148.398
145.246
141.891
138.324
134.543
130.549
126.341
121.921
117.274
112.373
107.197
101.738
95.998
90.003
83.776
77.339
70.724
63.972
57.134
50.283
43.476
36.757
30.177
23.778
17.624
11.795
6.356
1.352
-3.184
-7.244
-10.823
-13.914
-16.533
-18.711
-20.498
-21.962
-23.155
-24.109
-24.864
-25.456
-25.932
-26.359
-26.786
-27.244
-27.76
-28.348
-29.023
-29.799
-30.673
-31.626
-32.629
-33.642
-34.638
-35.607
-36.537
-37.416
-38.231
-38.962
-39.597
-40.137
-40.581
-40.929
-41.182
-41.334
-41.394
-41.376
-41.297
-41.179
-41.033
-40.866
-40.685
-40.494
-40.296
-40.095
-39.891
-39.677
-39.452
-39.214
-38.963
-38.699
-38.422
-38.127
-37.811
-37.47
-37.103
-36.709
-36.288
-35.84
-35.364
-34.864
-34.343
-33.803
-33.248
-32.681
-32.104
-31.519
-30.93
-30.338
-29.748
-29.16
-28.577
-28.003
-27.441
-26.893
-26.362
-25.851
-25.362
-24.899
-24.464
-24.058
-23.684
-23.344
-23.039
-22.771
-22.54
-22.347
-22.193
-22.078
-22.0
-21.96
-21.956
-21.988
-22.054
-22.152
-22.28
-22.437
-22.619
-22.825
-23.052
-23.297
-23.558
-23.833
-24.118
-24.412
-24.712
-25.017
-25.325
-25.633
-25.94
-26.244
-26.544
-26.838
-27.124
-27.402
-27.67
-27.927
-28.172
-28.405
-28.626
-28.836
-29.034
-29.221
-29.399
-29.567
-29.728
-29.882
-30.032
-30.179
-30.325
-30.472
-30.622
-30.778
-30.943
-31.117
-31.302
-31.5
-31.71
-31.934
-32.171
-32.42
-32.68
-32.95
-33.231
-33.521
-33.82
-34.127
-34.442
-34.765
-35.095
-35.432
-35.773
-36.115
-36.453
-36.786
-37.107
-37.414
-37.699
-37.958
-38.185
-38.379
-38.536
-38.65
-38.715
-38.723
-38.668
-38.547
-38.361
-38.11
-37.796
-37.426
-37.008
-36.562
-36.103
-35.643
-35.184
-34.722
-34.257
-33.786
-33.31
-32.828
-32.334
-31.815
-31.265
-30.679
-30.055
-29.38
-28.629
-27.765
-26.755
-25.584
-24.253
-22.776
-21.169
-19.453
-17.65
-15.794
-13.932
-12.107
-10.346
-8.667
-7.082
-5.61
-4.293
-3.187
-2.339
-1.776
-1.501
-1.499
-1.76
-2.258
-2.959
-3.819
-4.769
-5.755
-6.75
-7.742
-8.735
-9.739
-10.737
-11.697
-12.612
-13.473
-14.304
-15.163
-16.08
-17.104
-18.274
-19.608
-21.179
-23.063
-25.303
-27.949
-30.98
-34.287
-37.831
-41.64
-45.622
-49.642
-53.374
-56.251
-57.941
-58.382
-57.54
-55.396
-51.945
-47.206
-41.672
-36.478
-32.44
-29.806
-28.417
-27.73
-27.329
-26.917
-25.686
-21.795
-13.251
1.107
21.524
47.445
77.17
109.277
143.349
176.609
207.284
234.135
251.398
255.733
243.341
208.944
155.178
86.085
6.149
-77.713
-163.324
-249.616
-333.638
-412.013
-479.731
-532.608
-568.415
-586.443
-587.217
-570.777
-537.972
-491.694
-435.308
-372.628
-307.926
-244.269
-184.526
-132.387
-90.111
-58.234
-36.679
-24.182
-18.669
-18.565
-21.746
-25.205
-27.05
-26.363
-22.628
-16.262
-8.042
1.518
11.398
20.102
26.823
31.233
33.266
33.383
32.067
29.646
26.678
23.849
21.564
20.06
19.425
19.509
20.196
21.421
23.051
24.955
27.032
29.181
31.339
33.481
35.571
37.578
39.472
41.206
42.755
44.107
45.267
46.281
47.205
48.093
48.998
49.954
50.995
52.165
53.493
54.991
56.652
58.447
60.358
62.389
64.54
66.808
69.181
71.615
74.077
76.547
79.004
81.44
83.846
86.202
88.505
90.773
93.035
95.331
97.691
100.122
102.625
105.199
107.849
110.586
113.41
116.307
119.26
122.258
125.296
128.373
131.482
134.594
137.672
140.677
143.575
146.345
148.979
151.461
153.77
155.896
157.833
159.586
161.167
162.564
163.748
164.691
165.367
165.767
165.893
165.744
165.315
164.598
163.58
162.258
160.637
158.709
156.46
153.873
150.924
147.619
143.994
140.08
135.905
131.493
126.854
122.009
116.986
111.809
106.5
101.078
95.554
89.954
84.313
78.667
73.057
67.505
62.007
56.566
51.189
45.884
40.667
35.548
30.528
25.616
20.827
16.178
11.685
7.358
3.198
-0.796
-4.624
-8.28
-11.749
-15.021
-18.088
-20.946
-23.59
-26.017
-28.22
-30.199
-31.961
-33.512
-34.861
-36.012
-36.971
-37.742
-38.333
-38.752
-39.008
-39.113
-39.073
-38.901
-38.606
-38.199
-37.693
-37.097
-36.42
-35.671
-34.86
-33.995
-33.087
-32.145
-31.176
-30.19
-29.195
-28.199
-27.209
-26.234
-25.278
-24.348
-23.449
-22.584
-21.758
-20.973
-20.231
-19.535
-18.885
-18.281
-17.725
-17.216
-16.752
-16.334
-15.961
-15.63
-15.341
-15.091
-14.879
-14.702
-14.558
-14.445
-14.361
-14.303
-14.268
-14.256
-14.262
-14.286
-14.325
-14.375
-14.436
-14.505
-14.58
-14.66
-14.743
-14.828
-14.913
-14.999
-15.085
-15.171
-15.256
-15.341
-15.426
-15.512
-15.597
-15.684
-15.771
-15.86
-15.95
-16.043
-16.139
-16.238
-16.341
-16.448
-16.559
-16.676
-16.797
-16.923
-17.055
-17.19
-17.331
-17.476
-17.625
-17.778
-17.935
-18.094
-18.256
-18.42
-18.584
-18.748
-18.91
-19.07
-19.226
-19.378
-19.525
-19.666
-19.8
-19.928
-20.049
-20.164
-20.271
-20.37
-20.462
-20.545
-20.621
-20.687
-20.745
-20.795
-20.836
-20.87
-20.897
-20.917
-20.931
-20.941
-20.946
-20.948
-20.948
-20.947
-20.945
-20.945
-20.947
-20.954
-20.965
-20.983
-21.009
-21.042
-21.083
-21.133
-21.189
-21.251
-21.318
-21.388
-21.459
-21.53
-21.601
-21.669
-21.736
-21.8
-21.862
-21.921
-21.976
-22.024
-22.064
-22.092
-22.104
-22.096
-22.066
-22.01
-21.924
-21.809
-21.663
-21.484
-21.272
-21.021
-20.727
-20.387
-20.002
-19.571
-19.099
-18.591
-18.059
-17.517
-16.982
-16.465
-15.975
-15.513
-15.075
-14.658
-14.257
-13.865
-13.483
-13.11
-12.742
-12.38
-12.016
-11.639
-11.232
-10.766
-10.208
-9.541
-8.751
-7.837
-6.815
-5.7
-4.512
-3.285
-2.031
-0.76
0.513
1.786
3.052
4.293
5.489
6.613
7.624
8.504
9.238
9.819
10.268
10.6
10.839
11.022
11.156
11.231
11.241
11.16
10.962
10.636
10.16
9.507
8.666
7.607
6.301
4.725
2.827
0.566
-2.088
-5.169
-8.651
-12.458
-16.507
-20.691
-24.899
-29.046
-32.995
-36.569
-39.597
-41.871
-43.185
-43.352
-42.088
-39.062
-34.095
-27.137
-18.34
-8.182
2.853
14.389
25.902
36.799
46.833
56.037
64.794
74.407
86.318
101.181
119.719
141.78
165.316
189.331
212.949
234.932
256.084
273.007
278.029
263.469
220.682
149.347
58.077
-43.689
-145.09
-240.713
-330.743
-412.547
-483.107
-538.939
-575.441
-591.58
-588.291
-565.934
-526.694
-474.313
-412.72
-346.513
-279.826
-215.302
-155.665
-104.347
-63.306
-32.868
-12.439
-0.226
5.58
6.219
3.689
0.811
-0.537
0.561
4.369
10.23
17.499
25.808
34.224
41.353
46.345
48.837
48.853
46.937
43.602
39.207
34.336
29.701
25.785
22.888
21.125
20.381
20.556
21.592
23.366
25.732
28.568
31.751
35.185
38.811
42.541
46.274
49.914
53.365
56.546
59.398
61.883
63.987
65.72
67.109
68.184
68.985
69.552
69.936
70.186
70.348
70.468
70.586
70.745
70.989
71.359
71.889
72.605
73.522
74.646
75.984
77.536
79.298
81.264
83.425
85.772
88.3
91.003
93.872
96.896
100.057
103.339
106.724
110.192
113.718
117.278
120.85
124.413
127.948
131.44
134.872
138.226
141.48
144.622
147.646
150.55
153.338
156.013
158.577
161.039
163.416
165.726
167.98
170.184
172.341
174.447
176.503
178.509
180.459
182.336
184.104
185.716
187.123
188.273
189.116
189.601
189.663
189.238
188.273
186.723
184.548
181.716
178.195
173.953
168.978
163.282
156.895
149.876
142.294
134.219
125.73
116.915
107.869
98.699
89.505
80.386
71.445
62.778
54.479
46.65
39.363
32.671
26.609
21.184
16.388
12.21
8.623
5.592
3.075
1.016
-0.645
-1.969
-3.034
-3.912
-4.671
-5.386
-6.115
-6.899
-7.776
-8.764
-9.866
-11.09
-12.429
-13.871
-15.408
-17.019
-18.68
-20.363
-22.03
-23.648
-25.191
-26.631
-27.948
-29.131
-30.169
-31.061
-31.815
-32.435
-32.931
-33.314
-33.591
-33.775
-33.88
-33.922
-33.919
-33.888
-33.839
-33.781
-33.723
-33.667
-33.619
-33.577
-33.539
-33.501
-33.463
-33.421
-33.375
-33.324
-33.265
-33.196
-33.113
-33.015
-32.9
-32.769
-32.621
-32.456
-32.275
-32.079
-31.869
-31.648
-31.417
-31.175
-30.924
-30.665
-30.398
-30.124
-29.844
-29.558
-29.269
-28.976
-28.683
-28.389
-28.097
-27.807
-27.522
-27.242
-26.968
-26.702
-26.444
-26.195
-25.955
-25.726
-25.506
-25.297
-25.098
-24.909
-24.73
-24.562
-24.403
-24.254
-24.115
-23.985
-23.866
-23.756
-23.656
-23.567
-23.488
-23.421
-23.365
-23.32
-23.288
-23.269
-23.262
-23.267
-23.286
-23.317
-23.36
-23.417
-23.487
-23.57
-23.666
-23.777
-23.901
-24.041
-24.195
-24.366
-24.552
-24.755
-24.976
-25.215
-25.472
-25.748
-26.044
-26.36
-26.696
-27.051
-27.426
-27.82
-28.231
-28.659
-29.102
-29.559
-30.03
-30.512
-31.004
-31.507
-32.018
-32.538
-33.064
-33.596
-34.132
-34.673
-35.217
-35.763
-36.31
-36.857
-37.404
-37.951
-38.494
-39.034
-39.569
-40.095
-40.612
-41.117
-41.605
-42.076
-42.526
-42.954
-43.357
-43.736
-44.088
-44.413
-44.714
-44.988
-45.236
-45.456
-45.645
-45.802
-45.924
-46.007
-46.047
-46.042
-45.988
-45.883
-45.726
-45.517
-45.251
-44.926
-44.535
-44.074
-43.545
-42.948
-42.285
-41.563
-40.79
-39.979
-39.154
-38.329
-37.513
-36.709
-35.916
-35.13
-34.35
-33.574
-32.796
-32.013
-31.217
-30.404
-29.576
-28.724
-27.831
-26.871
-25.803
-24.6
-23.255
-21.765
-20.145
-18.413
-16.589
-14.705
-12.807
-10.928
-9.098
-7.337
-5.647
-4.044
-2.555
-1.219
-0.088
0.802
1.443
1.83
1.967
1.874
1.575
1.116
0.57
-0.014
-0.607
-1.19
-1.775
-2.373
-2.973
-3.572
-4.166
-4.761
-5.4
-6.114
-6.919
-7.84
-8.893
-10.136
-11.685
-13.639
-16.051
-18.931
-22.198
-25.797
-29.749
-33.981
-38.299
-42.347
-45.686
-48.071
-49.525
-50.108
-49.725
-48.236
-45.605
-42.252
-38.861
-35.842
-33.181
-30.478
-27.487
-24.241
-20.724
-16.39
-10.256
-1.265
11.322
27.459
47.067
70.103
96.301
125.049
154.899
183.387
207.638
225.061
233.098
229.776
213.181
181.171
132.971
69.323
-6.862
-90.623
-178.183
-266.945
-354.542
-439.737
-517.359
-579.146
-618.504
-628.657
-609.269
-567.12
-509.409
-445.14
-379.915
-314.526
-250.513
-189.493
-134.523
-89.792
-56.782
-35.036
-23.066
-18.117
-18.038
-20.812
-23.544
-24.312
-22.299
-17.139
-9.374
0.029
10.417
20.774
29.606
36.117
40.024
41.298
40.469
38.092
34.553
30.458
26.533
23.227
20.833
19.48
19.058
19.494
20.746
22.7
25.233
28.231
31.572
35.17
38.958
42.852
46.76
50.586
54.232
57.615
60.667
63.345
65.636
67.539
69.072
70.263
71.143
71.755
72.15
72.379
72.488
72.525
72.528
72.541
72.608
72.772
73.07
73.532
74.17
74.999
76.026
77.255
78.687
80.318
82.136
84.132
86.299
88.634
91.132
93.788
96.586
99.513
102.555
105.696
108.92
112.205
115.521
118.842
122.147
125.419
128.651
131.829
134.94
137.969
140.9
143.727
146.447
149.055
151.542
153.902
156.136
158.257
160.286
162.243
164.137
165.96
167.699
169.342
170.873
172.278
173.537
174.614
175.477
176.099
176.452
176.512
176.246
175.604
174.528
172.964
170.868
168.218
165.007
161.226
156.88
151.976
146.524
140.563
134.129
127.256
119.992
112.381
104.476
96.355
88.11
79.83
71.616
63.544
55.672
48.061
40.76
33.819
27.29
21.199
15.565
10.406
5.727
1.528
-2.192
-5.461
-8.326
-10.838
-13.067
-15.068
-16.874
-18.528
-20.061
-21.509
-22.919
-24.317
-25.721
-27.148
-28.608
-30.11
-31.669
-33.275
-34.91
-36.547
-38.148
-39.687
-41.153
-42.531
-43.814
-44.993
-46.05
-46.984
-47.799
-48.498
-49.086
-49.567
-49.942
-50.219
-50.419
-50.559
-50.664
-50.752
-50.832
-50.914
-51.008
-51.119
-51.254
-51.415
-51.598
-51.802
-52.026
-52.271
-52.536
-52.819
-53.115
-53.418
-53.721
-54.021
-54.314
-54.594
-54.859
-55.104
-55.328
-55.53
-55.708
-55.862
-55.989
-56.087
-56.155
-56.189
-56.188
-56.152
-56.077
-55.964
-55.81
-55.616
-55.382
-55.108
-54.794
-54.442
-54.052
-53.626
-53.165
-52.673
-52.151
-51.603
-51.031
-50.439
-49.831
-49.211
-48.581
-47.947
-47.311
-46.678
-46.05
-45.431
-44.825
-44.233
-43.661
-43.109
-42.582
-42.08
-41.608
-41.166
-40.757
-40.382
-40.043
-39.739
-39.473
-39.243
-39.051
-38.896
-38.777
-38.693
-38.643
-38.627
-38.64
-38.683
-38.752
-38.843
-38.956
-39.085
-39.23
-39.385
-39.549
-39.718
-39.889
-40.06
-40.228
-40.391
-40.545
-40.689
-40.82
-40.938
-41.039
-41.124
-41.19
-41.238
-41.267
-41.276
-41.267
-41.239
-41.192
-41.128
-41.047
-40.951
-40.841
-40.72
-40.588
-40.449
-40.305
-40.159
-40.012
-39.868
-39.728
-39.594
-39.469
-39.355
-39.252
-39.162
-39.086
-39.025
-38.979
-38.948
-38.933
-38.934
-38.948
-38.975
-39.014
-39.063
-39.119
-39.18
-39.243
-39.305
-39.363
-39.414
-39.454
-39.48
-39.488
-39.472
-39.431
-39.359
-39.252
-39.107
-38.92
-38.688
-38.408
-38.079
-37.7
-37.269
-36.786
-36.254
-35.672
-35.043
-34.368
-33.65
-32.892
-32.097
-31.267
-30.407
-29.519
-28.609
-27.682
-26.744
-25.8
-24.856
-23.92
-22.995
-22.09
-21.21
-20.358
-19.538
-18.756
-18.019
-17.335
-16.713
-16.157
-15.669
-15.25
-14.898
-14.607
-14.369
-14.163
-13.976
-13.791
-13.595
-13.382
-13.141
-12.858
-12.515
-12.09
-11.563
-10.925
-10.167
-9.28
-8.267
-7.149
-5.958
-4.753
-3.589
-2.513
-1.571
-0.81
-0.278
-0.036
-0.145
-0.664
-1.652
-3.155
-5.208
-7.844
-11.057
-14.783
-18.933
-23.375
-27.975
-32.634
-37.218
-41.562
-45.478
-48.738
-51.114
-52.401
-52.327
-50.567
-46.923
-41.317
-33.914
-25.193
-15.645
-5.656
4.302
13.718
22.382
30.366
38.248
47.483
59.362
74.485
93.485
115.941
140.711
167.348
193.614
217.523
237.334
247.706
244.533
222.946
178.291
113.876
34.304
-54.446
-144.512
-233.818
-320.004
-398.389
-465.606
-517.225
-550.299
-565.198
-562.761
-543.56
-509.241
-462.649
-407.412
-347.677
-286.717
-226.67
-169.728
-118.783
-76.273
-43.244
-19.439
-3.613
5.331
8.252
6.486
2.225
-2.04
-4.675
-5.078
-3.341
0.292
5.606
12.199
19.122
25.046
29.162
31.26
31.492
30.279
27.995
24.954
21.68
18.846
16.87
15.937
16.063
17.075
18.845
21.305
24.319
27.735
31.428
35.279
39.211
43.18
47.108
50.906
54.49
57.768
60.691
63.243
65.416
67.232
68.722
69.915
70.855
71.587
72.154
72.6
72.964
73.281
73.594
73.946
74.379
74.94
75.661
76.562
77.659
78.956
80.456
82.16
84.058
86.143
88.409
90.85
93.467
96.257
99.212
102.323
105.577
108.956
112.441
116.008
119.629
123.284
126.956
130.631
134.305
137.97
141.619
145.245
148.835
152.375
155.857
159.266
162.589
165.824
168.972
172.049
175.077
178.06
180.995
183.872
186.661
189.335
191.859
194.186
196.278
198.104
199.633
200.847
201.729
202.248
202.372
202.058
201.251
199.923
198.056
195.641
192.695
189.24
185.314
180.98
176.29
171.289
166.019
160.508
154.785
148.89
142.865
136.757
130.626
124.516
118.465
112.51
106.668
100.948
95.35
89.851
84.435
79.094
73.828
68.643
63.55
58.551
53.653
48.861
44.174
39.593
35.118
30.749
26.49
22.353
18.35
14.504
10.834
7.353
4.069
0.986
-1.897
-4.579
-7.063
-9.359
-11.47
-13.403
-15.163
-16.753
-18.18
-19.451
-20.576
-21.566
-22.432
-23.185
-23.833
-24.389
-24.859
-25.252
-25.576
-25.836
-26.038
-26.188
-26.294
-26.362
-26.398
-26.409
-26.4
-26.376
-26.344
-26.307
-26.269
-26.233
-26.201
-26.176
-26.159
-26.151
-26.154
-26.167
-26.192
-26.227
-26.273
-26.33
-26.397
-26.472
-26.554
-26.643
-26.737
-26.834
-26.933
-27.033
-27.133
-27.232
-27.327
-27.42
-27.508
-27.591
-27.668
-27.737
-27.8
-27.855
-27.901
-27.939
-27.968
-27.989
-28.003
-28.009
-28.008
-28.0
-27.987
-27.969
-27.945
-27.918
-27.887
-27.854
-27.819
-27.782
-27.745
-27.708
-27.672
-27.638
-27.606
-27.578
-27.552
-27.53
-27.513
-27.501
-27.494
-27.494
-27.499
-27.511
-27.53
-27.555
-27.587
-27.626
-27.671
-27.722
-27.778
-27.84
-27.907
-27.98
-28.058
-28.143
-28.234
-28.333
-28.438
-28.551
-28.671
-28.8
-28.936
-29.081
-29.235
-29.397
-29.568
-29.747
-29.935
-30.131
-30.334
-30.543
-30.758
-30.975
-31.195
-31.415
-31.632
-31.846
-32.054
-32.255
-32.449
-32.633
-32.807
-32.97
-33.119
-33.251
-33.363
-33.451
-33.508
-33.529
-33.511
-33.45
-33.341
-33.182
-32.968
-32.701
-32.379
-31.999
-31.558
-31.051
-30.472
-29.823
-29.106
-28.328
-27.498
-26.624
-25.715
-24.787
-23.848
-22.905
-21.959
-21.003
-20.028
-19.033
-18.019
-16.999
-15.982
-14.966
-13.949
-12.929
-11.897
-10.847
-9.77
-8.639
-7.436
-6.161
-4.819
-3.441
-2.057
-0.681
0.677
2.014
3.325
4.594
5.804
6.951
8.023
9.008
9.886
10.611
11.149
11.494
11.648
11.636
11.491
11.211
10.8
10.27
9.629
8.891
8.063
7.127
6.069
4.885
3.582
2.179
0.69
-0.906
-2.633
-4.517
-6.589
-8.847
-11.29
-13.934
-16.782
-19.809
-22.956
-26.135
-29.239
-32.193
-34.94
-37.385
-39.407
-40.84
-41.501
-41.225
-39.878
-37.292
-33.232
-27.546
-20.243
-11.56
-1.981
8.005
18.04
27.757
36.647
44.4
51.136
57.462
64.569
73.623
85.179
99.585
117.261
138.006
160.617
182.859
201.344
212.641
214.266
203.853
178.896
137.826
81.431
13.059
-62.729
-142.006
-224.393
-310.708
-397.89
-478.83
-542.284
-577.495
-580.993
-556.802
-514.406
-464.08
-412.563
-362.009
-310.798
-257.625
-203.168
-149.955
-102.434
-63.593
-33.855
-12.551
1.7
9.912
12.653
11.088
7.332
3.602
1.239
0.731
2.003
4.875
9.232
14.722
20.428
25.183
28.324
29.709
29.538
28.216
26.063
23.37
20.624
18.399
17.04
16.685
17.3
18.709
20.789
23.458
26.59
30.035
33.667
37.374
41.08
44.731
48.255
51.565
54.577
57.229
59.493
61.367
62.865
64.015
64.849
65.408
65.74
65.891
65.904
65.822
65.682
65.526
65.397
65.34
65.4
65.611
65.998
66.575
67.352
68.333
69.521
70.91
72.492
74.262
76.217
78.357
80.682
83.184
85.852
88.672
91.63
94.709
97.888
101.138
104.434
107.749
111.067
114.378
117.671
120.933
124.152
127.311
130.403
133.43
136.388
139.273
142.08
144.805
147.458
150.062
152.635
155.187
157.719
160.209
162.641
164.994
167.239
169.344
171.265
172.942
174.328
175.393
176.103
176.438
176.365
175.832
174.798
173.234
171.114
168.442
165.22
161.45
157.155
152.364
147.122
141.496
135.541
129.295
122.792
116.049
109.085
101.941
94.655
87.268
79.822
72.349
64.884
57.474
50.157
42.971
35.942
29.07
22.36
15.834
9.519
3.46
-2.287
-7.688
-12.718
-17.358
-21.599
-25.435
-28.871
-31.932
-34.653
-37.079
-39.246
-41.167
-42.854
-44.326
-45.61
-46.747
-47.786
-48.763
-49.706
-50.64
-51.584
-52.554
-53.557
-54.583
-55.606
-56.592
-57.518
-58.373
-59.155
-59.861
-60.485
-61.015
-61.442
-61.764
-61.981
-62.092
-62.097
-61.995
-61.79
-61.495
-61.132
-60.726
-60.292
-59.845
-59.392
-58.94
-58.495
-58.063
-57.647
-57.243
-56.851
-56.472
-56.107
-55.761
-55.432
-55.122
-54.825
-54.54
-54.265
-53.999
-53.742
-53.492
-53.249
-53.015
-52.79
-52.577
-52.379
-52.194
-52.024
-51.868
-51.727
-51.599
-51.484
-51.381
-51.289
-51.207
-51.135
-51.071
-51.017
-50.97
-50.93
-50.898
-50.872
-50.852
-50.838
-50.828
-50.823
-50.822
-50.823
-50.827
-50.833
-50.84
-50.848
-50.856
-50.863
-50.87
-50.875
-50.879
-50.881
-50.88
-50.877
-50.872
-50.865
-50.857
-50.848
-50.839
-50.831
-50.826
-50.824
-50.827
-50.835
-50.85
-50.874
-50.907
-50.95
-51.005
-51.072
-51.153
-51.248
-51.359
-51.486
-51.63
-51.791
-51.97
-52.166
-52.38
-52.612
-52.861
-53.127
-53.41
-53.71
-54.025
-54.356
-54.7
-55.058
-55.428
-55.809
-56.198
-56.594
-56.996
-57.4
-57.805
-58.209
-58.608
-59.002
-59.387
-59.76
-60.12
-60.463
-60.788
-61.091
-61.371
-61.625
-61.851
-62.048
-62.212
-62.343
-62.439
-62.498
-62.519
-62.499
-62.438
-62.334
-62.185
-61.989
-61.745
-61.452
-61.109
-60.714
-60.268
-59.768
-59.216
-58.61
-57.951
-57.239
-56.475
-55.659
-54.794
-53.879
-52.919
-51.914
-50.868
-49.784
-48.665
-47.516
-46.341
-45.143
-43.926
-42.695
-41.453
-40.204
-38.952
-37.702
-36.458
-35.225
-34.01
-32.819
-31.655
-30.527
-29.439
-28.397
-27.405
-26.466
-25.584
-24.761
-24.003
-23.318
-22.708
-22.177
-21.725
-21.351
-21.05
-20.818
-20.643
-20.507
-20.393
-20.287
-20.176
-20.053
-19.908
-19.728
-19.498
-19.195
-18.806
-18.318
-17.723
-17.016
-16.194
-15.266
-14.264
-13.234
-12.228
-11.291
-10.462
-9.776
-9.281
-9.028
-9.076
-9.482
-10.298
-11.573
-13.353
-15.672
-18.55
-21.969
-25.849
-30.08
-34.544
-39.118
-43.705
-48.186
-52.402
-56.175
-59.303
-61.565
-62.749
-62.591
-60.772
-57.064
-51.377
-43.823
-34.826
-24.897
-14.46
-3.989
5.999
15.166
23.416
31.237
39.934
50.898
65.102
82.412
101.769
122.384
143.732
167.009
193.646
221.407
244.686
253.317
235.945
187.8
112.076
19.044
-78.889
-173.632
-262.802
-347.063
-425.268
-493.671
-547.608
-583.028
-599.006
-596.565
-576.371
-540.143
-491.006
-432.738
-369.734
-305.657
-242.918
-183.914
-131.702
-88.73
-55.943
-32.928
-18.185
-10.329
-8.276
-10.497
-14.662
-18.311
-19.906
-18.959
-15.738
-10.648
-4.019
3.629
11.292
17.689
22.062
24.246
24.467
23.194
20.828
17.718
14.39
11.478
9.395
8.329
8.291
9.125
10.704
12.954
15.75
18.95
22.43
26.08
29.816
33.585
37.315
40.921
44.326
47.452
50.235
52.647
54.676
56.335
57.653
58.664
59.402
59.908
60.23
60.413
60.504
60.545
60.575
60.632
60.759
60.997
61.384
61.946
62.701
63.658
64.82
66.191
67.77
69.555
71.543
73.727
76.1
78.655
81.385
84.277
87.316
90.48
93.744
97.087
100.487
103.924
107.382
110.84
114.279
117.686
121.041
124.333
127.556
130.707
133.79
136.816
139.798
142.754
145.706
148.671
151.662
154.693
157.763
160.875
164.027
167.208
170.412
173.62
176.8
179.906
182.875
185.629
188.095
190.198
191.856
192.999
193.554
193.463
192.686
191.191
188.957
185.968
182.204
177.662
172.367
166.369
159.748
152.606
145.038
137.144
129.038
120.83
112.644
104.583
96.724
89.139
81.891
75.044
68.678
62.854
57.602
52.93
48.816
45.221
42.116
39.457
37.185
35.233
33.52
31.983
30.586
29.296
28.083
26.907
25.713
24.462
23.135
21.722
20.23
18.667
17.037
15.357
13.656
11.972
10.348
8.816
7.387
6.067
4.866
3.793
2.868
2.101
1.487
1.025
0.709
0.534
0.501
0.598
0.808
1.11
1.481
1.904
2.372
2.876
3.411
3.969
4.544
5.133
5.737
6.356
6.987
7.628
8.273
8.922
9.576
10.236
10.905
11.582
12.267
12.959
13.659
14.364
15.073
15.783
16.489
17.189
17.88
18.56
19.228
19.881
20.518
21.137
21.736
22.315
22.87
23.401
23.906
24.382
24.829
25.247
25.633
25.987
26.31
26.602
26.862
27.091
27.29
27.458
27.597
27.708
27.79
27.846
27.875
27.881
27.863
27.824
27.766
27.691
27.601
27.498
27.383
27.258
27.126
26.989
26.847
26.702
26.558
26.414
26.273
26.137
26.006
25.882
25.766
25.659
25.56
25.471
25.392
25.322
25.261
25.211
25.17
25.139
25.118
25.106
25.105
25.113
25.13
25.155
25.188
25.229
25.275
25.328
25.387
25.451
25.52
25.594
25.672
25.756
25.844
25.935
26.03
26.129
26.23
26.335
26.443
26.555
26.672
26.793
26.921
27.055
27.197
27.346
27.504
27.672
27.849
28.036
28.235
28.446
28.671
28.912
29.17
29.447
29.747
30.069
30.417
30.79
31.19
31.617
32.072
32.554
33.065
33.605
34.178
34.787
35.434
36.122
36.856
37.636
38.464
39.341
40.267
41.239
42.257
43.321
44.43
45.588
46.795
48.051
49.351
50.688
52.052
53.43
54.807
56.167
57.495
58.781
60.021
61.22
62.38
63.506
64.597
65.645
66.646
67.598
68.5
69.352
70.161
70.936
71.696
72.471
73.281
74.135
75.028
75.944
76.863
77.76
78.621
79.435
80.187
80.862
81.451
81.949
82.35
82.642
82.789
82.745
82.466
81.932
81.138
80.087
78.782
77.228
75.421
73.361
71.058
68.507
65.691
62.582
59.13
55.31
51.124
46.602
41.801
36.734
31.378
25.717
19.722
13.412
6.887
0.191
-6.683
-13.63
-20.505
-26.983
-32.488
-36.691
-39.526
-40.957
-41.076
-39.968
-37.571
-34.345
-31.31
-29.11
-28.098
-28.228
-28.813
-29.431
-30.042
-29.91
-27.646
-21.913
-11.339
4.547
25.037
49.508
77.533
108.117
139.467
168.835
192.616
207.784
212.385
204.854
183.449
146.599
93.866
26.357
-52.082
-136.914
-225.335
-313.885
-400.093
-481.078
-549.703
-600.968
-630.757
-635.411
-618.382
-583.38
-534.89
-479.927
-420.776
-359.865
-300.39
-244.016
-194.725
-155.611
-126.967
-108.417
-98.445
-94.67
-95.411
-98.758
-101.941
-103.215
-101.856
-97.542
-90.768
-82.382
-72.942
-63.4
-55.201
-49.116
-45.422
-44.163
-44.856
-47.003
-50.269
-54.089
-57.771
-60.884
-63.141
-64.42
-64.826
-64.425
-63.251
-61.405
-58.992
-56.114
-52.876
-49.356
-45.607
-41.706
-37.737
-33.792
-29.97
-26.357
-23.025
-20.02
-17.36
-15.049
-13.076
-11.419
-10.054
-8.946
-8.049
-7.322
-6.723
-6.213
-5.756
-5.31
-4.83
-4.275
-3.608
-2.798
-1.831
-0.692
0.627
2.131
3.819
5.69
7.738
9.958
12.352
14.915
17.642
20.526
23.554
26.71
29.979
33.339
36.768
40.245
43.75
47.267
50.781
54.276
57.736
61.147
64.488
67.749
70.924
74.009
77.007
79.931
82.79
85.602
88.394
91.177
93.959
96.749
99.54
102.335
105.13
107.915
110.68
113.414
116.086
118.66
121.092
123.313
125.262
126.874
128.072
128.805
129.025
128.682
127.743
126.178
123.951
121.049
117.458
113.158
108.165
102.508
96.23
89.414
82.134
74.467
66.512
58.351
50.065
41.749
33.484
25.352
17.454
9.871
2.682
-4.022
-10.183
-15.763
-20.736
-25.11
-28.896
-32.103
-34.765
-36.915
-38.582
-39.82
-40.677
-41.203
-41.478
-41.567
-41.534
-41.452
-41.372
-41.331
-41.365
-41.485
-41.697
-42.012
-42.423
-42.922
-43.505
-44.155
-44.852
-45.575
-46.284
-46.948
-47.543
-48.041
-48.424
-48.683
-48.809
-48.801
-48.669
-48.418
-48.055
-47.594
-47.042
-46.409
-45.711
-44.963
-44.184
-43.392
-42.599
-41.814
-41.046
-40.297
-39.573
-38.874
-38.194
-37.533
-36.886
-36.25
-35.626
-35.01
-34.399
-33.789
-33.176
-32.557
-31.929
-31.29
-30.64
-29.976
-29.299
-28.609
-27.906
-27.194
-26.471
-25.738
-24.996
-24.246
-23.488
-22.724
-21.954
-21.18
-20.403
-19.625
-18.849
-18.078
-17.312
-16.556
-15.811
-15.08
-14.365
-13.67
-12.997
-12.349
-11.727
-11.136
-10.577
-10.052
-9.564
-9.115
-8.707
-8.34
-8.016
-7.736
-7.501
-7.311
-7.167
-7.068
-7.014
-7.004
-7.037
-7.113
-7.229
-7.385
-7.577
-7.806
-8.067
-8.359
-8.68
-9.026
-9.394
-9.784
-10.19
-10.611
-11.043
-11.485
-11.933
-12.385
-12.838
-13.291
-13.741
-14.186
-14.625
-15.056
-15.476
-15.886
-16.284
-16.669
-17.041
-17.399
-17.744
-18.077
-18.398
-18.709
-19.01
-19.304
-19.591
-19.875
-20.156
-20.437
-20.72
-21.009
-21.304
-21.609
-21.926
-22.257
-22.605
-22.971
-23.357
-23.765
-24.194
-24.647
-25.123
-25.622
-26.144
-26.688
-27.256
-27.846
-28.458
-29.091
-29.747
-30.423
-31.118
-31.831
-32.558
-33.294
-34.035
-34.775
-35.51
-36.234
-36.941
-37.627
-38.289
-38.922
-39.524
-40.089
-40.612
-41.085
-41.504
-41.865
-42.168
-42.417
-42.615
-42.774
-42.904
-43.014
-43.113
-43.204
-43.285
-43.351
-43.394
-43.405
-43.382
-43.328
-43.246
-43.138
-43.003
-42.834
-42.616
-42.332
-41.96
-41.476
-40.87
-40.137
-39.283
-38.328
-37.299
-36.228
-35.141
-34.046
-32.941
-31.827
-30.708
-29.595
-28.513
-27.487
-26.542
-25.71
-25.008
-24.444
-24.024
-23.733
-23.537
-23.4
-23.296
-23.224
-23.214
-23.297
-23.494
-23.824
-24.294
-24.915
-25.709
-26.697
-27.91
-29.379
-31.113
-33.126
-35.441
-38.091
-41.121
-44.553
-48.331
-52.362
-56.521
-60.72
-64.962
-69.154
-73.02
-76.137
-78.026
-78.403
-77.326
-74.836
-70.692
-64.815
-57.422
-49.275
-41.633
-35.276
-30.131
-25.864
-22.425
-19.687
-17.332
-14.123
-7.627
4.071
21.531
44.553
72.029
102.01
133.793
165.926
196.33
224.861
247.521
257.961
250.204
216.169
154.742
72.747
-22.158
-120.521
-216.707
-310.727
-400.418
-481.826
-550.335
-600.343
-629.119
-636.633
-623.358
-590.42
-540.407
-477.35
-405.992
-331.436
-257.906
-188.643
-127.176
-76.643
-38.45
-12.485
2.514
8.736
8.203
2.86
-4.49
-11.041
-15.076
-15.781
-13.204
-8.038
-0.904
7.526
16.002
23.157
28.226
30.945
31.504
30.442
28.22
25.248
22.139
19.561
17.916
17.386
17.959
19.456
21.741
24.724
28.259
32.178
36.337
40.61
44.913
49.191
53.361
57.328
61.005
64.305
67.181
69.623
71.627
73.214
74.415
75.265
75.811
76.106
76.203
76.153
76.007
75.809
75.609
75.456
75.398
75.482
75.74
76.192
76.855
77.736
78.839
80.167
81.717
83.481
85.456
87.637
90.019
92.596
95.362
98.307
101.419
104.685
108.094
111.632
115.286
119.042
122.884
126.797
130.764
134.769
138.793
142.815
146.814
150.77
154.659
158.462
162.154
165.716
169.126
172.364
175.41
178.247
180.855
183.219
185.322
187.15
188.691
189.931
190.861
191.473
191.758
191.712
191.33
190.611
189.554
188.161
186.433
184.376
181.994
179.297
176.291
172.989
169.4
165.539
161.42
157.057
152.467
147.668
142.676
137.512
132.192
126.738
121.169
115.504
109.763
103.967
98.135
92.287
86.442
80.619
74.836
69.111
63.46
57.9
52.446
47.112
41.911
36.857
31.96
27.231
22.68
18.314
14.141
10.167
6.396
2.832
-0.522
-3.666
-6.599
-9.321
-11.836
-14.144
-16.251
-18.16
-19.877
-21.408
-22.758
-23.936
-24.949
-25.805
-26.511
-27.078
-27.513
-27.825
-28.023
-28.116
-28.112
-28.021
-27.852
-27.612
-27.311
-26.956
-26.556
-26.119
-25.651
-25.16
-24.652
-24.134
-23.61
-23.086
-22.567
-22.057
-21.558
-21.076
-20.611
-20.168
-19.746
-19.349
-18.976
-18.628
-18.307
-18.011
-17.742
-17.498
-17.279
-17.085
-16.916
-16.769
-16.644
-16.541
-16.457
-16.391
-16.343
-16.31
-16.29
-16.283
-16.285
-16.297
-16.316
-16.341
-16.371
-16.404
-16.44
-16.477
-16.515
-16.553
-16.591
-16.628
-16.666
-16.702
-16.739
-16.776
-16.814
-16.852
-16.893
-16.936
-16.982
-17.031
-17.083
-17.141
-17.203
-17.27
-17.344
-17.425
-17.513
-17.61
-17.716
-17.832
-17.958
-18.095
-18.244
-18.405
-18.578
-18.764
-18.964
-19.176
-19.402
-19.641
-19.893
-20.158
-20.434
-20.722
-21.019
-21.327
-21.642
-21.965
-22.294
-22.628
-22.966
-23.307
-23.651
-23.995
-24.339
-24.683
-25.024
-25.363
-25.698
-26.029
-26.354
-26.674
-26.987
-27.292
-27.591
-27.881
-28.163
-28.437
-28.701
-28.956
-29.201
-29.435
-29.659
-29.872
-30.073
-30.263
-30.441
-30.606
-30.76
-30.901
-31.03
-31.146
-31.25
-31.339
-31.415
-31.476
-31.523
-31.553
-31.568
-31.565
-31.544
-31.504
-31.443
-31.361
-31.257
-31.127
-30.973
-30.79
-30.58
-30.339
-30.069
-29.767
-29.434
-29.07
-28.677
-28.255
-27.806
-27.332
-26.835
-26.317
-25.781
-25.228
-24.662
-24.083
-23.494
-22.9
-22.304
-21.711
-21.126
-20.552
-19.994
-19.458
-18.948
-18.468
-18.022
-17.612
-17.24
-16.913
-16.637
-16.421
-16.269
-16.181
-16.153
-16.185
-16.272
-16.408
-16.58
-16.771
-16.964
-17.149
-17.322
-17.479
-17.611
-17.702
-17.733
-17.685
-17.548
-17.324
-17.012
-16.61
-16.123
-15.563
-14.957
-14.353
-13.792
-13.299
-12.897
-12.606
-12.455
-12.499
-12.805
-13.419
-14.382
-15.701
-17.36
-19.382
-21.788
-24.596
-27.815
-31.373
-35.147
-39.074
-43.15
-47.283
-51.313
-54.866
-57.36
-58.449
-58.059
-56.191
-52.85
-48.032
-41.801
-34.726
-28.027
-22.624
-18.813
-16.429
-14.955
-14.037
-13.452
-12.292
-8.507
-0.118
14.028
34.193
59.553
89.267
122.773
158.539
193.305
223.084
244.077
253.162
248.75
229.444
193.355
139.796
70.181
-12.386
-103.529
-198.583
-293.929
-385.436
-467.684
-535.825
-586.315
-617.253
-628.734
-621.491
-595.741
-553.157
-497.462
-432.921
-364.072
-294.848
-227.858
-165.899
-112.527
-69.807
-38.039
-16.602
-3.793
2.139
2.417
-0.904
-4.85
-7.428
-7.64
-5.13
-0.462
5.785
13.297
21.14
27.868
32.608
34.994
35.045
33.328
30.349
26.457
22.239
18.411
15.447
13.613
12.978
13.374
14.664
16.765
19.535
22.812
26.453
30.325
34.324
38.384
42.423
46.338
50.037
53.426
56.435
59.029
61.199
62.955
64.324
65.344
66.055
66.505
66.749
66.84
66.83
66.768
66.701
66.674
66.734
66.928
67.293
67.857
68.635
69.635
70.86
72.311
73.985
75.877
77.976
80.274
82.764
85.438
88.289
91.308
94.482
97.798
101.241
104.8
108.46
112.207
116.027
119.904
123.822
127.765
131.718
135.663
139.582
143.456
147.265
150.993
154.619
158.126
161.496
164.713
167.759
170.619
173.278
175.722
177.938
179.912
181.634
183.093
184.279
185.185
185.803
186.127
186.154
185.88
185.305
184.427
183.25
181.774
180.006
177.949
175.612
173.002
170.128
167.001
163.632
160.034
156.218
152.198
147.989
143.605
139.061
134.374
129.558
124.631
119.609
114.509
109.349
104.145
98.915
93.676
88.446
83.24
78.077
72.971
67.938
62.994
58.153
53.427
48.83
44.373
40.067
35.922
31.944
28.143
24.524
21.091
17.85
14.803
11.952
9.299
6.845
4.587
2.526
0.658
-1.019
-2.51
-3.819
-4.952
-5.916
-6.717
-7.364
-7.864
-8.226
-8.46
-8.575
-8.581
-8.489
-8.308
-8.05
-7.724
-7.34
-6.91
-6.441
-5.944
-5.426
-4.896
-4.362
-3.83
-3.307
-2.799
-2.312
-1.851
-1.421
-1.025
-0.668
-0.352
-0.08
0.146
0.324
0.453
0.532
0.561
0.541
0.471
0.353
0.188
-0.022
-0.274
-0.566
-0.895
-1.258
-1.651
-2.072
-2.516
-2.981
-3.464
-3.962
-4.473
-4.992
-5.519
-6.051
-6.586
-7.122
-7.657
-8.19
-8.721
-9.247
-9.768
-10.283
-10.791
-11.291
-11.783
-12.267
-12.741
-13.205
-13.659
-14.104
-14.539
-14.966
-15.384
-15.794
-16.199
-16.598
-16.994
-17.387
-17.777
-18.167
-18.557
-18.949
-19.342
-19.738
-20.139
-20.543
-20.953
-21.368
-21.789
-22.215
-22.647
-23.085
-23.528
-23.977
-24.431
-24.892
-25.358
-25.83
-26.308
-26.792
-27.282
-27.777
-28.277
-28.78
-29.286
-29.792
-30.297
-30.798
-31.295
-31.785
-32.266
-32.739
-33.2
-33.648
-34.083
-34.501
-34.901
-35.279
-35.631
-35.953
-36.244
-36.499
-36.718
-36.897
-37.034
-37.128
-37.179
-37.185
-37.145
-37.054
-36.905
-36.694
-36.422
-36.094
-35.716
-35.297
-34.839
-34.352
-33.847
-33.331
-32.81
-32.28
-31.728
-31.149
-30.544
-29.92
-29.291
-28.663
-28.032
-27.392
-26.735
-26.053
-25.341
-24.585
-23.758
-22.85
-21.863
-20.819
-19.762
-18.721
-17.711
-16.74
-15.808
-14.922
-14.105
-13.376
-12.748
-12.236
-11.851
-11.618
-11.58
-11.754
-12.131
-12.672
-13.308
-13.987
-14.674
-15.342
-15.969
-16.527
-16.976
-17.288
-17.444
-17.433
-17.251
-16.881
-16.296
-15.5
-14.52
-13.428
-12.327
-11.308
-10.462
-9.859
-9.552
-9.603
-10.06
-10.972
-12.411
-14.396
-16.896
-19.881
-23.268
-27.005
-31.13
-35.47
-39.672
-43.396
-46.208
-47.888
-48.549
-48.038
-45.917
-42.147
-36.983
-30.967
-25.193
-20.128
-15.355
-10.867
-7.004
-3.695
-0.618
3.47
11.046
23.489
40.771
62.27
86.552
113.112
141.635
171.286
201.383
227.478
243.111
242.042
216.315
164.552
92.626
7.079
-82.768
-170.889
-257.273
-339.929
-415.385
-479.678
-527.641
-556.64
-567.185
-560.468
-537.542
-500.53
-452.769
-397.983
-340.151
-282.566
-227.181
-176.023
-131.756
-95.778
-68.118
-48.172
-34.521
-25.855
-21.404
-19.717
-18.569
-16.543
-13.006
-7.79
-1.412
5.684
13.32
20.807
27.015
31.277
33.35
33.299
31.611
28.725
24.943
20.767
16.838
13.6
11.316
10.081
9.795
10.363
11.743
13.831
16.492
19.601
23.038
26.702
30.531
34.437
38.313
42.056
45.562
48.742
51.551
53.964
55.974
57.598
58.864
59.804
60.463
60.891
61.137
61.25
61.277
61.262
61.25
61.291
61.429
61.708
62.157
62.794
63.634
64.681
65.938
67.408
69.084
70.96
73.031
75.29
77.73
80.347
83.135
86.086
89.194
92.445
95.824
99.319
102.912
106.585
110.32
114.088
117.863
121.62
125.335
128.991
132.572
136.058
139.432
142.672
145.765
148.709
151.505
154.153
156.655
159.014
161.235
163.345
165.368
167.318
169.208
171.033
172.784
174.459
176.053
177.556
178.942
180.168
181.18
181.935
182.39
182.504
182.232
181.505
180.252
178.423
175.969
172.866
169.097
164.64
159.475
153.608
147.065
139.899
132.187
123.993
115.384
106.436
97.224
87.857
78.448
69.101
59.918
50.99
42.394
34.219
26.555
19.459
12.97
7.104
1.848
-2.804
-6.864
-10.352
-13.297
-15.751
-17.777
-19.439
-20.806
-21.944
-22.908
-23.764
-24.579
-25.402
-26.271
-27.21
-28.222
-29.314
-30.493
-31.758
-33.103
-34.511
-35.959
-37.419
-38.859
-40.251
-41.574
-42.806
-43.924
-44.914
-45.767
-46.48
-47.062
-47.52
-47.859
-48.088
-48.215
-48.254
-48.219
-48.13
-48.003
-47.853
-47.692
-47.527
-47.367
-47.216
-47.077
-46.948
-46.826
-46.708
-46.591
-46.473
-46.352
-46.225
-46.089
-45.939
-45.772
-45.586
-45.379
-45.15
-44.899
-44.626
-44.331
-44.018
-43.687
-43.34
-42.979
-42.604
-42.217
-41.818
-41.408
-40.99
-40.564
-40.133
-39.698
-39.263
-38.83
-38.402
-37.983
-37.574
-37.179
-36.801
-36.442
-36.104
-35.789
-35.5
-35.238
-35.005
-34.801
-34.627
-34.482
-34.368
-34.282
-34.224
-34.194
-34.189
-34.209
-34.252
-34.318
-34.406
-34.513
-34.639
-34.783
-34.943
-35.116
-35.302
-35.498
-35.702
-35.912
-36.125
-36.34
-36.555
-36.766
-36.974
-37.175
-37.369
-37.554
-37.73
-37.895
-38.05
-38.194
-38.328
-38.452
-38.568
-38.675
-38.776
-38.871
-38.961
-39.048
-39.133
-39.215
-39.296
-39.376
-39.455
-39.533
-39.611
-39.689
-39.767
-39.845
-39.924
-40.003
-40.083
-40.162
-40.241
-40.318
-40.394
-40.466
-40.533
-40.596
-40.651
-40.697
-40.733
-40.756
-40.764
-40.754
-40.725
-40.673
-40.595
-40.492
-40.36
-40.198
-40.007
-39.787
-39.536
-39.258
-38.952
-38.621
-38.266
-37.889
-37.493
-37.08
-36.653
-36.215
-35.769
-35.317
-34.863
-34.412
-33.966
-33.529
-33.104
-32.694
-32.302
-31.935
-31.595
-31.283
-31.002
-30.751
-30.531
-30.346
-30.197
-30.081
-29.997
-29.94
-29.905
-29.889
-29.885
-29.878
-29.854
-29.795
-29.686
-29.519
-29.289
-28.988
-28.613
-28.152
-27.595
-26.946
-26.204
-25.366
-24.444
-23.443
-22.384
-21.307
-20.262
-19.306
-18.495
-17.874
-17.47
-17.297
-17.369
-17.719
-18.396
-19.444
-20.918
-22.837
-25.209
-28.078
-31.37
-34.895
-38.382
-41.402
-43.524
-44.467
-44.014
-41.99
-38.616
-34.31
-29.553
-25.202
-22.026
-20.56
-21.288
-24.316
-28.916
-33.978
-38.403
-40.625
-39.192
-32.703
-19.561
1.123
28.945
62.703
101.025
141.912
182.973
221.099
252.131
272.285
279.051
270.533
244.932
201.42
140.016
63.197
-23.375
-115.289
-209.457
-303.54
-397.035
-484.563
-556.833
-606.24
-625.192
-613.55
-578.915
-528.802
-472.391
-415.11
-356.939
-298.935
-242.125
-188.922
-143.858
-108.933
-84.029
-68.104
-58.704
-53.848
-52.038
-50.955
-48.537
-43.692
-35.885
-25.371
-13.096
0.178
13.58
25.756
35.73
43.045
47.499
49.367
49.159
47.271
44.239
40.775
37.344
34.218
31.572
29.379
27.621
26.353
25.538
25.098
24.981
25.13
25.52
26.172
27.076
28.181
29.44
30.797
32.224
33.738
35.341
37.03
38.791
40.596
42.434
44.312
46.24
48.216
50.234
52.268
54.293
56.309
58.32
60.328
62.326
64.282
66.172
67.989
69.737
71.429
73.073
74.668
76.219
77.749
79.29
80.882
82.565
84.355
86.265
88.299
90.466
92.777
95.235
97.833
100.56
103.409
106.381
109.479
112.7
116.021
119.41
122.831
126.256
129.665
133.045
136.389
139.691
142.946
146.166
149.356
152.508
155.601
158.591
161.427
164.071
166.495
168.682
170.617
172.278
173.639
174.682
175.379
175.702
175.618
175.077
174.041
172.499
170.457
167.949
165.027
161.727
158.08
154.118
149.864
145.35
140.604
135.649
130.509
125.217
119.813
114.353
108.888
103.446
98.045
92.684
87.349
82.037
76.75
71.484
66.247
61.047
55.89
50.797
45.787
40.872
36.059
31.344
26.726
22.211
17.81
13.539
9.42
5.47
1.703
-1.864
-5.223
-8.364
-11.286
-13.989
-16.48
-18.764
-20.841
-22.715
-24.387
-25.859
-27.14
-28.236
-29.156
-29.91
-30.508
-30.961
-31.282
-31.48
-31.566
-31.55
-31.438
-31.241
-30.967
-30.625
-30.225
-29.774
-29.282
-28.757
-28.209
-27.645
-27.072
-26.497
-25.927
-25.366
-24.821
-24.294
-23.791
-23.315
-22.868
-22.452
-22.07
-21.722
-21.409
-21.132
-20.889
-20.68
-20.504
-20.36
-20.244
-20.155
-20.091
-20.049
-20.027
-20.022
-20.031
-20.053
-20.086
-20.126
-20.172
-20.222
-20.274
-20.326
-20.376
-20.422
-20.463
-20.498
-20.526
-20.545
-20.556
-20.557
-20.548
-20.531
-20.504
-20.47
-20.428
-20.38
-20.327
-20.271
-20.213
-20.157
-20.103
-20.055
-20.014
-19.983
-19.964
-19.959
-19.971
-20.0
-20.049
-20.118
-20.209
-20.323
-20.46
-20.621
-20.807
-21.019
-21.256
-21.518
-21.807
-22.122
-22.463
-22.83
-23.221
-23.636
-24.075
-24.535
-25.015
-25.515
-26.032
-26.565
-27.111
-27.669
-28.236
-28.809
-29.386
-29.964
-30.542
-31.115
-31.683
-32.244
-32.795
-33.334
-33.861
-34.373
-34.87
-35.349
-35.809
-36.248
-36.664
-37.056
-37.421
-37.757
-38.063
-38.337
-38.578
-38.783
-38.953
-39.085
-39.178
-39.232
-39.245
-39.217
-39.144
-39.026
-38.861
-38.647
-38.385
-38.074
-37.713
-37.302
-36.839
-36.326
-35.764
-35.153
-34.49
-33.774
-33.001
-32.174
-31.3
-30.386
-29.435
-28.453
-27.448
-26.426
-25.4
-24.375
-23.348
-22.317
-21.277
-20.231
-19.191
-18.165
-17.165
-16.193
-15.242
-14.312
-13.409
-12.529
-11.669
-10.819
-9.96
-9.098
-8.256
-7.454
-6.717
-6.054
-5.458
-4.928
-4.466
-4.07
-3.746
-3.488
-3.276
-3.111
-2.998
-2.947
-2.978
-3.077
-3.197
-3.306
-3.369
-3.365
-3.295
-3.149
-2.91
-2.581
-2.176
-1.725
-1.278
-0.862
-0.485
-0.162
0.087
0.199
0.093
-0.295
-0.998
-2.024
-3.386
-5.128
-7.311
-9.973
-13.07
-16.48
-20.103
-23.927
-27.878
-31.8
-35.334
-37.871
-39.016
-38.692
-36.888
-33.597
-28.834
-22.654
-15.645
-9.114
-4.067
-0.861
0.637
0.996
0.607
-0.198
-0.283
2.549
10.658
25.559
47.326
75.175
107.633
143.055
180.1
215.274
245.611
268.769
279.691
275.19
250.813
202.053
132.269
46.958
-45.889
-138.093
-228.608
-317.461
-404.171
-484.785
-550.394
-593.542
-608.523
-596.318
-563.701
-517.128
-464.665
-410.924
-355.85
-300.203
-244.216
-189.299
-139.761
-98.417
-65.918
-41.869
-24.67
-13.162
-6.836
-4.645
-4.672
-4.79
-3.679
-0.948
3.207
8.528
14.87
21.931
28.889
34.567
38.28
39.895
39.602
37.84
34.97
31.275
27.247
23.515
20.486
18.371
17.198
16.803
17.069
17.931
19.27
20.97
22.923
25.034
27.255
29.555
31.878
34.168
36.358
38.376
40.187
41.77
43.138
44.348
45.449
46.488
47.514
48.553
49.631
50.771
51.968
53.225
54.55
55.95
57.446
59.065
60.813
62.696
64.701
66.795
68.955
71.163
73.398
75.658
77.943
80.26
82.637
85.099
87.657
90.319
93.082
95.936
98.878
101.909
105.024
108.222
111.498
114.84
118.235
121.666
125.108
128.529
131.89
135.155
138.301
141.314
144.187
146.909
149.466
151.838
154.01
155.977
157.737
159.288
160.636
161.784
162.738
163.521
164.151
164.629
164.951
165.095
165.032
164.75
164.245
163.514
162.558
161.36
159.899
158.158
156.11
153.735
151.013
147.906
144.388
140.456
136.118
131.401
126.345
120.967
115.275
109.286
103.016
96.503
89.799
82.953
76.027
69.081
62.172
55.372
48.743
42.327
36.154
30.244
24.607
19.272
14.281
9.658
5.425
1.583
-1.883
-4.994
-7.785
-10.292
-12.546
-14.585
-16.441
-18.134
-19.678
-21.084
-22.362
-23.532
-24.629
-25.676
-26.694
-27.693
-28.669
-29.612
-30.505
-31.33
-32.072
-32.72
-33.268
-33.717
-34.071
-34.337
-34.524
-34.634
-34.663
-34.61
-34.474
-34.258
-33.973
-33.633
-33.254
-32.854
-32.449
-32.051
-31.669
-31.307
-30.97
-30.656
-30.363
-30.092
-29.842
-29.615
-29.414
-29.238
-29.085
-28.954
-28.84
-28.738
-28.644
-28.553
-28.461
-28.364
-28.261
-28.148
-28.026
-27.894
-27.75
-27.593
-27.421
-27.233
-27.027
-26.802
-26.556
-26.289
-26.001
-25.692
-25.362
-25.014
-24.649
-24.267
-23.872
-23.464
-23.046
-22.62
-22.187
-21.751
-21.313
-20.877
-20.444
-20.018
-19.601
-19.196
-18.805
-18.432
-18.079
-17.747
-17.44
-17.159
-16.906
-16.683
-16.491
-16.331
-16.205
-16.114
-16.058
-16.038
-16.053
-16.104
-16.189
-16.307
-16.457
-16.638
-16.847
-17.084
-17.347
-17.634
-17.942
-18.27
-18.616
-18.978
-19.354
-19.74
-20.137
-20.54
-20.948
-21.358
-21.769
-22.179
-22.584
-22.984
-23.376
-23.758
-24.129
-24.487
-24.831
-25.159
-25.471
-25.765
-26.041
-26.3
-26.539
-26.761
-26.963
-27.147
-27.313
-27.46
-27.588
-27.699
-27.79
-27.864
-27.919
-27.956
-27.974
-27.973
-27.953
-27.914
-27.856
-27.778
-27.679
-27.559
-27.419
-27.258
-27.075
-26.87
-26.643
-26.393
-26.12
-25.824
-25.503
-25.157
-24.785
-24.388
-23.965
-23.516
-23.041
-22.541
-22.019
-21.475
-20.911
-20.33
-19.733
-19.123
-18.503
-17.876
-17.242
-16.604
-15.965
-15.328
-14.697
-14.075
-13.466
-12.874
-12.303
-11.757
-11.238
-10.751
-10.295
-9.872
-9.486
-9.14
-8.842
-8.597
-8.409
-8.278
-8.204
-8.183
-8.209
-8.268
-8.341
-8.41
-8.458
-8.47
-8.437
-8.349
-8.19
-7.946
-7.593
-7.113
-6.496
-5.735
-4.825
-3.776
-2.613
-1.377
-0.137
1.041
2.096
2.966
3.595
3.928
3.898
3.444
2.504
1.016
-1.06
-3.752
-7.082
-11.026
-15.511
-20.433
-25.635
-30.95
-36.249
-41.377
-46.165
-50.424
-53.908
-56.365
-57.58
-57.311
-55.24
-51.129
-44.869
-36.597
-26.802
-16.073
-4.882
6.324
16.92
26.362
34.575
42.176
50.574
61.346
74.622
89.299
104.99
122.151
143.287
171.523
205.721
239.42
261.246
259.056
225.832
163.027
80.659
-9.93
-100.471
-187.403
-272.688
-356.529
-434.896
-502.501
-553.553
-584.764
-596.419
-589.582
-564.895
-524.237
-471.064
-409.436
-343.822
-278.091
-214.779
-156.603
-107.018
-67.965
-39.666
-21.434
-11.498
-8.045
-9.772
-14.58
-19.521
-22.654
-23.043
-20.397
-15.336
-8.497
-0.27
8.354
15.921
21.551
24.866
25.877
25.117
23.062
20.05
16.64
13.514
11.122
9.716
9.354
9.881
11.168
13.143
15.682
18.644
21.911
25.368
28.935
32.56
36.179
39.705
43.055
46.143
48.896
51.28
53.282
54.908
56.18
57.129
57.791
58.208
58.43
58.505
58.481
58.404
58.313
58.253
58.269
58.407
58.709
59.203
59.908
60.835
61.989
63.375
64.993
66.837
68.898
71.169
73.643
76.312
79.171
82.21
85.417
88.777
92.277
95.902
99.639
103.471
107.383
111.358
115.378
119.427
123.487
127.539
131.563
135.539
139.445
143.26
146.964
150.537
153.958
157.209
160.269
163.123
165.753
168.145
170.283
172.154
173.747
175.05
176.055
176.753
177.137
177.203
176.948
176.368
175.464
174.237
172.689
170.825
168.649
166.17
163.394
160.333
156.997
153.398
149.55
145.465
141.16
136.649
131.95
127.079
122.054
116.893
111.614
106.236
100.776
95.253
89.686
84.093
78.492
72.9
67.335
61.813
56.351
50.964
45.668
40.476
35.402
30.458
25.656
21.006
16.518
12.2
8.06
4.105
0.338
-3.234
-6.61
-9.786
-12.762
-15.538
-18.113
-20.489
-22.669
-24.657
-26.455
-28.069
-29.504
-30.766
-31.862
-32.799
-33.584
-34.224
-34.729
-35.106
-35.364
-35.511
-35.557
-35.51
-35.379
-35.173
-34.899
-34.566
-34.182
-33.754
-33.291
-32.798
-32.283
-31.751
-31.209
-30.661
-30.112
-29.568
-29.031
-28.507
-27.996
-27.504
-27.031
-26.579
-26.15
-25.745
-25.365
-25.01
-24.68
-24.376
-24.095
-23.839
-23.606
-23.396
-23.206
-23.037
-22.886
-22.753
-22.637
-22.535
-22.447
-22.372
-22.309
-22.255
-22.211
-22.175
-22.147
-22.126
-22.11
-22.1
-22.096
-22.096
-22.101
-22.11
-22.124
-22.142
-22.165
-22.193
-22.227
-22.266
-22.312
-22.364
-22.423
-22.489
-22.563
-22.645
-22.735
-22.834
-22.94
-23.055
-23.179
-23.31
-23.449
-23.596
-23.75
-23.912
-24.08
-24.254
-24.435
-24.62
-24.811
-25.006
-25.205
-25.407
-25.611
-25.818
-26.027
-26.237
-26.448
-26.658
-26.868
-27.077
-27.285
-27.491
-27.695
-27.896
-28.095
-28.292
-28.486
-28.679
-28.87
-29.06
-29.249
-29.438
-29.628
-29.818
-30.008
-30.2
-30.394
-30.59
-30.787
-30.987
-31.188
-31.392
-31.596
-31.801
-32.005
-32.208
-32.408
-32.604
-32.794
-32.977
-33.151
-33.316
-33.468
-33.606
-33.729
-33.833
-33.916
-33.977
-34.011
-34.016
-33.991
-33.931
-33.834
-33.699
-33.521
-33.299
-33.031
-32.715
-32.349
-31.93
-31.458
-30.933
-30.353
-29.719
-29.032
-28.294
-27.506
-26.672
-25.795
-24.879
-23.927
-22.945
-21.935
-20.904
-19.856
-18.795
-17.727
-16.656
-15.589
-14.532
-13.493
-12.477
-11.491
-10.542
-9.637
-8.782
-7.983
-7.243
-6.566
-5.957
-5.422
-4.968
-4.6
-4.319
-4.126
-4.02
-3.998
-4.055
-4.179
-4.352
-4.559
-4.783
-5.013
-5.241
-5.456
-5.644
-5.789
-5.872
-5.882
-5.809
-5.643
-5.377
-5.009
-4.541
-3.999
-3.426
-2.864
-2.354
-1.931
-1.626
-1.482
-1.545
-1.862
-2.481
-3.442
-4.778
-6.53
-8.735
-11.41
-14.554
-18.118
-22.001
-26.102
-30.308
-34.507
-38.607
-42.477
-45.963
-48.895
-51.082
-52.333
-52.465
-51.248
-48.413
-43.769
-37.272
-29.128
-19.826
-9.876
0.286
10.222
19.453
27.6
34.568
41.003
48.303
57.697
70.082
85.375
102.434
121.284
142.016
164.457
189.392
213.013
228.02
227.396
202.347
150.694
79.257
-3.788
-89.591
-173.433
-257.812
-345.074
-431.322
-508.241
-566.164
-596.309
-598.725
-580.026
-545.469
-501.609
-452.357
-397.459
-338.652
-277.597
-216.046
-157.998
-107.165
-65.76
-34.566
-12.828
0.936
7.822
8.804
5.453
0.138
-4.733
-7.677
-8.174
-6.41
-2.694
2.706
9.26
15.933
21.487
25.203
26.934
26.924
25.612
23.371
20.545
17.646
15.277
13.807
13.374
13.948
15.347
17.437
20.135
23.315
26.83
30.556
34.384
38.23
42.047
45.765
49.301
52.577
55.517
58.079
60.253
62.045
63.479
64.589
65.408
65.978
66.347
66.562
66.67
66.715
66.737
66.779
66.883
67.093
67.451
67.986
68.715
69.651
70.797
72.156
73.727
75.507
77.486
79.659
82.018
84.558
87.274
90.157
93.197
96.383
99.702
103.141
106.69
110.335
114.062
117.857
121.706
125.593
129.502
133.417
137.318
141.187
145.002
148.744
152.392
155.927
159.328
162.575
165.649
168.533
171.209
173.66
175.872
177.829
179.519
180.93
182.05
182.871
183.383
183.581
183.459
183.013
182.24
181.139
179.71
177.955
175.878
173.483
170.776
167.766
164.461
160.871
157.01
152.889
148.523
143.927
139.117
134.111
128.927
123.582
118.096
112.489
106.779
100.986
95.13
89.231
83.308
77.379
71.464
65.58
59.746
53.979
48.294
42.708
37.236
31.892
26.689
21.64
16.755
12.045
7.519
3.184
-0.954
-4.887
-8.614
-12.13
-15.433
-18.524
-21.403
-24.071
-26.532
-28.788
-30.845
-32.708
-34.382
-35.875
-37.194
-38.346
-39.339
-40.182
-40.883
-41.451
-41.895
-42.223
-42.446
-42.571
-42.608
-42.565
-42.452
-42.276
-42.045
-41.767
-41.45
-41.101
-40.726
-40.331
-39.922
-39.504
-39.083
-38.661
-38.243
-37.831
-37.429
-37.038
-36.66
-36.297
-35.949
-35.618
-35.303
-35.006
-34.727
-34.465
-34.22
-33.992
-33.782
-33.588
-33.41
-33.248
-33.101
-32.97
-32.853
-32.749
-32.66
-32.583
-32.519
-32.467
-32.427
-32.398
-32.379
-32.372
-32.375
-32.389
-32.413
-32.448
-32.494
-32.551
-32.619
-32.7
-32.793
-32.898
-33.016
-33.147
-33.291
-33.449
-33.619
-33.802
-33.998
-34.206
-34.426
-34.657
-34.899
-35.15
-35.41
-35.679
-35.955
-36.239
-36.529
-36.824
-37.125
-37.431
-37.741
-38.054
-38.371
-38.69
-39.01
-39.333
-39.656
-39.98
-40.305
-40.629
-40.953
-41.275
-41.597
-41.917
-42.236
-42.554
-42.87
-43.185
-43.499
-43.812
-44.126
-44.44
-44.754
-45.07
-45.386
-45.704
-46.022
-46.342
-46.662
-46.983
-47.302
-47.62
-47.936
-48.249
-48.557
-48.859
-49.155
-49.441
-49.716
-49.979
-50.228
-50.46
-50.674
-50.866
-51.036
-51.181
-51.298
-51.385
-51.439
-51.459
-51.44
-51.382
-51.282
-51.137
-50.945
-50.706
-50.418
-50.081
-49.695
-49.258
-48.774
-48.243
-47.666
-47.046
-46.386
-45.686
-44.95
-44.181
-43.381
-42.555
-41.706
-40.837
-39.953
-39.061
-38.163
-37.266
-36.374
-35.491
-34.621
-33.77
-32.941
-32.139
-31.368
-30.632
-29.938
-29.289
-28.688
-28.134
-27.627
-27.162
-26.733
-26.33
-25.943
-25.56
-25.174
-24.774
-24.352
-23.898
-23.397
-22.842
-22.222
-21.526
-20.751
-19.896
-18.957
-17.948
-16.89
-15.815
-14.765
-13.777
-12.883
-12.118
-11.531
-11.18
-11.12
-11.391
-12.011
-12.991
-14.359
-16.156
-18.44
-21.216
-24.419
-27.937
-31.677
-35.62
-39.703
-43.72
-47.281
-49.945
-51.439
-51.766
-51.0
-48.983
-45.538
-40.769
-35.223
-29.836
-25.362
-21.868
-18.957
-16.509
-14.565
-12.89
-10.664
-6.093
2.854
17.02
36.213
59.539
85.26
112.752
141.41
170.045
198.646
223.535
238.312
236.971
211.479
160.145
89.385
6.338
-79.631
-162.571
-243.066
-320.062
-390.804
-451.596
-497.255
-525.449
-536.775
-532.493
-513.791
-481.852
-438.923
-388.465
-334.243
-279.026
-224.65
-172.646
-125.112
-84.649
-52.577
-28.665
-11.966
-1.576
3.31
3.517
0.622
-2.825
-5.097
-5.589
-4.194
-1.185
3.138
8.585
14.473
19.489
22.833
24.276
23.871
22.086
19.358
15.957
12.359
9.19
6.831
5.473
5.164
5.728
7.032
9.008
11.524
14.449
17.678
21.098
24.637
28.24
31.824
35.299
38.58
41.576
44.238
46.545
48.489
50.09
51.379
52.386
53.155
53.729
54.146
54.45
54.68
54.873
55.07
55.314
55.647
56.115
56.75
57.572
58.597
59.832
61.279
62.942
64.818
66.898
69.175
71.647
74.308
77.162
80.201
83.416
86.795
90.322
93.981
97.757
101.63
105.572
109.558
113.562
117.565
121.559
125.528
129.458
133.33
137.126
140.833
144.451
147.978
151.405
154.729
157.942
161.053
164.081
167.042
169.947
172.795
175.566
178.249
180.833
183.302
185.643
187.822
189.787
191.496
192.915
194.015
194.765
195.121
195.017
194.402
193.23
191.47
189.111
186.131
182.507
178.232
173.303
167.749
161.628
154.985
147.861
140.3
132.349
124.08
115.582
106.939
98.232
89.542
80.942
72.529
64.396
56.621
49.278
42.409
36.032
30.17
24.844
20.067
15.845
12.163
8.986
6.288
4.033
2.178
0.669
-0.571
-1.616
-2.528
-3.37
-4.182
-4.99
-5.827
-6.715
-7.666
-8.693
-9.795
-10.962
-12.194
-13.481
-14.802
-16.135
-17.435
-18.669
-19.809
-20.831
-21.719
-22.465
-23.06
-23.502
-23.8
-23.96
-23.991
-23.906
-23.711
-23.417
-23.04
-22.596
-22.109
-21.596
-21.072
-20.548
-20.033
-19.534
-19.058
-18.606
-18.175
-17.765
-17.375
-17.005
-16.655
-16.327
-16.019
-15.729
-15.457
-15.201
-14.961
-14.739
-14.532
-14.344
-14.172
-14.02
-13.887
-13.775
-13.683
-13.611
-13.557
-13.52
-13.497
-13.489
-13.491
-13.503
-13.522
-13.546
-13.575
-13.605
-13.637
-13.667
-13.695
-13.72
-13.739
-13.752
-13.758
-13.755
-13.742
-13.719
-13.684
-13.636
-13.575
-13.499
-13.408
-13.302
-13.18
-13.043
-12.892
-12.726
-12.549
-12.36
-12.163
-11.96
-11.754
-11.546
-11.341
-11.141
-10.95
-10.77
-10.605
-10.458
-10.332
-10.229
-10.153
-10.105
-10.088
-10.104
-10.155
-10.241
-10.365
-10.527
-10.728
-10.968
-11.248
-11.567
-11.926
-12.323
-12.757
-13.227
-13.731
-14.265
-14.828
-15.415
-16.022
-16.645
-17.28
-17.921
-18.564
-19.202
-19.83
-20.444
-21.036
-21.602
-22.136
-22.633
-23.087
-23.494
-23.85
-24.15
-24.392
-24.572
-24.688
-24.737
-24.718
-24.63
-24.472
-24.245
-23.947
-23.582
-23.149
-22.651
-22.091
-21.473
-20.801
-20.082
-19.321
-18.525
-17.7
-16.853
-15.992
-15.123
-14.254
-13.39
-12.538
-11.705
-10.897
-10.123
-9.388
-8.699
-8.061
-7.48
-6.96
-6.504
-6.114
-5.791
-5.535
-5.349
-5.236
-5.203
-5.254
-5.387
-5.599
-5.884
-6.234
-6.638
-7.081
-7.538
-7.988
-8.412
-8.791
-9.111
-9.358
-9.507
-9.534
-9.412
-9.119
-8.648
-8.001
-7.184
-6.217
-5.128
-3.967
-2.8
-1.701
-0.738
0.023
0.521
0.69
0.452
-0.268
-1.53
-3.381
-5.833
-8.862
-12.43
-16.47
-20.89
-25.593
-30.439
-35.255
-39.851
-43.999
-47.448
-49.971
-51.3
-51.077
-49.035
-45.051
-39.232
-32.019
-23.926
-15.306
-6.513
1.899
9.496
16.305
23.005
31.066
42.077
56.214
72.581
90.902
111.374
135.793
166.26
200.863
233.494
254.231
252.651
223.029
166.597
91.687
8.052
-77.037
-159.984
-241.754
-322.028
-396.945
-461.72
-511.276
-542.704
-556.289
-552.988
-533.247
-498.59
-451.941
-396.817
-337.283
-276.896
-218.011
-163.241
-115.935
-78.12
-50.312
-32.111
-21.947
-18.176
-19.564
-24.075
-28.89
-32.07
-32.58
-30.039
-24.986
-18.029
-9.594
-0.689
7.26
13.354
17.157
18.615
18.179
16.296
13.303
9.766
6.359
3.529
1.549
0.516
0.314
0.852
2.07
3.856
6.078
8.634
11.424
14.379
17.459
20.595
23.707
26.716
29.542
32.118
34.394
36.34
37.947
39.225
40.199
40.898
41.354
41.606
41.696
41.667
41.56
41.414
41.264
41.149
41.11
41.182
41.399
41.784
42.354
43.116
44.079
45.244
46.611
48.176
49.934
51.882
54.019
56.34
58.841
61.513
64.342
67.313
70.408
73.605
76.877
80.2
83.552
86.911
90.261
93.581
96.854
100.064
103.191
106.222
109.154
111.983
114.714
117.361
119.937
122.465
124.975
127.484
130.009
132.56
135.139
137.749
140.389
143.045
145.706
148.353
150.95
153.457
155.821
157.966
159.823
161.317
162.362
162.898
162.868
162.214
160.896
158.876
156.124
152.632
148.395
143.408
137.694
131.29
124.256
116.682
108.66
100.281
91.651
82.858
73.995
65.164
56.46
47.973
39.79
31.98
24.609
17.752
11.458
5.756
0.658
-3.861
-7.821
-11.249
-14.178
-16.643
-18.688
-20.368
-21.743
-22.875
-23.825
-24.641
-25.375
-26.087
-26.821
-27.611
-28.475
-29.414
-30.427
-31.516
-32.677
-33.902
-35.176
-36.477
-37.779
-39.05
-40.266
-41.407
-42.453
-43.383
-44.182
-44.841
-45.358
-45.741
-45.998
-46.133
-46.155
-46.072
-45.898
-45.648
-45.341
-44.995
-44.624
-44.241
-43.854
-43.472
-43.1
-42.742
-42.398
-42.066
-41.746
-41.439
-41.146
-40.869
-40.609
-40.364
-40.133
-39.915
-39.707
-39.509
-39.319
-39.139
-38.971
-38.821
-38.694
-38.591
-38.511
-38.452
-38.404
-38.356
-38.295
-38.208
-38.084
-37.917
-37.706
-37.458
-37.182
-36.886
-36.574
-36.244
-35.892
-35.518
-35.124
-34.715
-34.302
-33.901
-33.535
-33.23
-33.004
-32.863
-32.798
-32.785
-32.787
-32.762
-32.68
-32.52
-32.265
-31.908
-31.439
-30.859
-30.163
-29.347
-28.395
-27.283
-25.997
-24.534
-22.915
-21.178
-19.383
-17.596
-15.871
-14.25
-12.762
-11.413
-10.203
-9.114
-8.115
-7.173
-6.265
-5.379
-4.516
-3.669
-2.825
-1.963
-1.047
-0.043
1.059
2.252
3.499
4.725
5.84
6.725
7.226
7.182
6.428
4.809
2.198
-1.514
-6.434
-12.657
-20.288
-29.411
-40.073
-52.287
-66.027
-81.221
-97.772
