-1022.127
-996.325
-954.08
-899.494
-836.979
-771.013
-705.096
-642.11
-584.952
-535.911
-496.363
-466.667
-445.891
-432.368
-424.801
-421.709
-421.119
-421.143
-419.957
-416.488
-410.762
-403.193
-394.167
-384.256
-374.196
-364.845
-357.249
-351.943
-348.848
-347.694
-348.035
-349.402
-351.412
-353.559
-355.255
-356.138
-356.04
-354.918
-352.897
-350.08
-346.536
-342.391
-337.779
-332.82
-327.636
-322.318
-316.941
-311.596
-306.366
-301.337
-296.596
-292.215
-288.255
-284.751
-281.7
-279.081
-276.863
-275.002
-273.455
-272.168
-271.077
-270.121
-269.246
-268.399
-267.534
-266.601
-265.549
-264.328
-262.893
-261.206
-259.249
-257.006
-254.468
-251.635
-248.508
-245.094
-241.402
-237.44
-233.215
-228.739
-224.023
-219.083
-213.938
-208.613
-203.137
-197.55
-191.888
-186.183
-180.459
-174.733
-169.024
-163.352
-157.735
-152.195
-146.745
-141.391
-136.141
-131.01
-126.01
-121.147
-116.413
-111.779
-107.219
-102.727
-98.309
-93.986
-89.777
-85.696
-81.758
-77.994
-74.452
-71.187
-68.248
-65.669
-63.481
-61.729
-60.473
-59.8
-59.793
-60.499
-61.942
-64.134
-67.08
-70.791
-75.274
-80.5
-86.407
-92.926
-99.983
-107.518
-115.473
-123.764
-132.285
-140.902
-149.475
-157.9
-166.097
-173.988
-181.502
-188.556
-195.066
-200.989
-206.317
-211.046
-215.185
-218.734
-221.692
-224.088
-225.98
-227.441
-228.559
-229.398
-229.999
-230.409
-230.675
-230.849
-230.997
-231.153
-231.329
-231.536
-231.778
-232.064
-232.407
-232.797
-233.202
-233.589
-233.91
-234.138
-234.26
-234.262
-234.13
-233.849
-233.399
-232.775
-231.985
-231.036
-229.933
-228.683
-227.288
-225.763
-224.133
-222.422
-220.659
-218.865
-217.054
-215.237
-213.427
-211.634
-209.866
-208.127
-206.417
-204.734
-203.082
-201.462
-199.876
-198.323
-196.799
-195.299
-193.818
-192.352
-190.896
-189.449
-188.004
-186.561
-185.115
-183.666
-182.211
-180.749
-179.276
-177.787
-176.278
-174.744
-173.18
-171.583
-169.945
-168.263
-166.531
-164.746
-162.903
-160.997
-159.025
-156.983
-154.867
-152.673
-150.399
-148.041
-145.599
-143.07
-140.453
-137.747
-134.953
-132.071
-129.103
-126.049
-122.912
-119.694
-116.399
-113.03
-109.592
-106.09
-102.528
-98.913
-95.251
-91.55
-87.815
-84.054
-80.275
-76.487
-72.696
-68.911
-65.139
-61.39
-57.672
-53.992
-50.36
-46.782
-43.268
-39.823
-36.456
-33.174
-29.981
-26.885
-23.889
-20.999
-18.218
-15.55
-12.997
-10.56
-8.24
-6.038
-3.952
-1.981
-0.124
1.622
3.261
4.794
6.226
7.559
8.799
9.947
11.008
11.985
12.882
13.703
14.453
15.136
15.755
16.316
16.823
17.282
17.695
18.066
18.397
18.69
18.949
19.176
19.373
19.541
19.681
19.793
19.883
19.95
19.999
20.026
20.03
20.01
19.973
19.923
19.869
19.817
19.777
19.76
19.787
19.874
20.04
20.293
20.637
21.079
21.626
22.286
23.074
23.993
25.036
26.199
27.469
28.833
30.275
31.76
33.234
34.645
35.934
37.056
37.977
38.662
39.087
39.215
38.999
38.403
37.395
35.947
34.06
31.713
28.856
25.528
21.855
18.056
14.477
11.441
9.175
7.96
8.116
9.841
13.169
17.803
23.1
28.373
33.053
36.635
38.578
38.493
36.321
32.58
28.42
25.366
24.963
28.564
37.698
53.926
78.233
110.773
150.877
195.866
242.56
289.169
332.139
369.457
399.452
415.306
412.446
386.125
331.487
252.754
155.287
45.006
-69.445
-184.708
-297.628
-402.714
-495.766
-571.13
-624.084
-653.173
-658.265
-640.518
-602.206
-546.664
-478.149
-401.734
-322.635
-245.021
-172.514
-108.289
-54.676
-13.02
16.63
35.633
46.054
49.836
49.219
46.524
43.891
43.294
45.718
51.102
58.957
68.614
79.18
89.738
99.291
106.765
111.701
114.199
114.583
113.381
111.132
108.304
105.451
103.163
101.781
101.427
102.094
103.638
105.936
108.905
112.415
116.324
120.507
124.852
129.267
133.691
138.05
142.257
146.23
149.886
153.156
156.008
158.436
160.454
162.092
163.385
164.376
165.118
165.673
166.101
166.458
166.796
167.159
167.595
168.153
168.881
169.823
171.008
172.456
174.177
176.177
178.458
181.019
183.852
186.945
190.284
193.859
197.661
201.677
205.896
210.299
214.87
219.587
224.432
229.384
234.424
239.528
244.674
249.838
254.996
260.125
265.2
270.194
275.079
279.829
284.414
288.809
292.986
296.919
300.583
303.954
307.01
309.729
312.093
314.083
315.681
316.875
317.651
317.998
317.906
317.37
316.383
314.942
313.047
310.699
307.901
304.657
300.975
296.865
292.336
287.403
282.079
276.381
270.328
263.939
257.235
250.238
242.972
235.461
227.73
219.806
211.716
203.485
195.141
186.711
178.222
169.7
161.172
152.663
144.198
135.802
127.497
119.307
111.252
103.353
95.628
88.095
80.771
73.67
66.805
60.188
53.829
47.737
41.918
36.379
31.123
26.151
21.464
17.063
12.943
9.103
5.536
2.236
-0.803
-3.591
-6.135
-8.447
-10.537
-12.416
-14.095
-15.586
-16.902
-18.055
-19.056
-19.918
-20.653
-21.273
-21.789
-22.212
-22.552
-22.822
-23.029
-23.183
-23.294
-23.368
-23.413
-23.436
-23.443
-23.439
-23.428
-23.416
-23.404
-23.397
-23.396
-23.403
-23.418
-23.443
-23.477
-23.521
-23.573
-23.633
-23.7
-23.773
-23.85
-23.931
-24.014
-24.098
-24.181
-24.262
-24.341
-24.417
-24.488
-24.554
-24.615
-24.671
-24.721
-24.766
-24.805
-24.841
-24.872
-24.9
-24.926
-24.95
-24.975
-25.001
-25.03
-25.063
-25.102
-25.148
-25.203
-25.268
-25.345
-25.436
-25.541
-25.662
-25.799
-25.955
-26.129
-26.322
-26.534
-26.766
-27.018
-27.289
-27.579
-27.888
-28.214
-28.558
-28.918
-29.293
-29.682
-30.083
-30.495
-30.917
-31.346
-31.78
-32.219
-32.66
-33.102
-33.541
-33.976
-34.406
-34.826
-35.236
-35.633
-36.015
-36.378
-36.721
-37.042
-37.338
-37.608
-37.848
-38.058
-38.235
-38.378
-38.484
-38.552
-38.58
-38.566
-38.509
-38.407
-38.258
-38.061
-37.816
-37.519
-37.172
-36.772
-36.319
-35.812
-35.252
-34.636
-33.967
-33.245
-32.471
-31.647
-30.774
-29.855
-28.895
-27.895
-26.861
-25.797
-24.706
-23.594
-22.465
-21.323
-20.172
-19.018
-17.863
-16.715
-15.577
-14.455
-13.354
-12.279
-11.237
-10.232
-9.269
-8.351
-7.477
-6.65
-5.87
-5.138
-4.46
-3.838
-3.267
-2.747
-2.276
-1.847
-1.453
-1.081
-0.704
-0.305
0.135
0.627
1.175
1.788
2.476
3.248
4.117
5.087
6.156
7.323
8.593
9.951
11.378
12.828
14.223
15.498
16.596
17.464
18.078
18.394
18.353
17.906
16.997
15.589
13.672
11.2
8.086
4.333
0.045
-4.554
-9.078
-13.184
-16.636
-19.145
-20.352
-20.018
-18.163
-15.124
-11.592
-8.274
-5.577
-3.869
-3.713
-5.458
-8.952
-13.538
-17.859
-20.277
-19.642
-14.796
-4.096
13.747
39.405
72.855
112.734
156.927
203.441
249.539
291.308
324.722
345.675
350.495
336.996
303.681
249.573
175.31
83.357
-22.475
-136.95
-254.306
-369.089
-475.353
-567.343
-640.367
-691.013
-717.761
-720.802
-701.364
-661.613
-605.161
-536.472
-460.545
-382.415
-306.036
-234.791
-171.6
-118.557
-76.82
-46.331
-25.756
-13.202
-6.958
-5.037
-5.411
-6.197
-5.564
-2.61
2.594
9.644
17.999
26.907
35.646
43.378
49.103
52.428
53.498
52.635
50.374
47.253
43.704
40.271
37.564
35.908
35.419
36.087
37.745
40.263
43.558
47.482
51.87
56.579
61.472
66.443
71.421
76.309
81.0
85.397
89.399
92.949
96.032
98.65
100.827
102.599
104.004
105.097
105.942
106.601
107.135
107.601
108.047
108.527
109.095
109.803
110.704
111.833
113.212
114.855
116.766
118.949
121.402
124.117
127.081
130.283
133.711
137.358
141.214
145.266
149.5
153.899
158.443
163.117
167.902
172.779
177.729
182.731
187.765
192.81
197.845
202.846
207.79
212.65
217.402
222.019
226.476
230.748
234.81
238.637
242.208
245.5
248.494
251.17
253.51
255.498
257.117
258.355
259.2
259.64
259.667
259.273
258.454
257.205
255.526
253.415
250.876
247.912
244.529
240.734
236.538
231.95
226.983
221.652
215.973
209.962
203.638
197.02
190.129
182.987
175.616
168.038
160.278
152.358
144.302
136.136
127.883
119.568
111.214
102.846
94.487
86.161
77.89
69.697
61.602
53.628
45.792
38.115
30.612
23.302
16.198
9.316
2.667
-3.738
-9.888
-15.776
-21.394
-26.736
-31.799
-36.58
-41.076
-45.289
-49.218
-52.867
-56.238
-59.336
-62.165
-64.734
-67.048
-69.116
-70.947
-72.551
-73.937
-75.116
-76.101
-76.901
-77.53
-77.999
-78.322
-78.509
-78.574
-78.528
-78.384
-78.153
-77.848
-77.478
-77.054
-76.588
-76.088
-75.563
-75.023
-74.475
-73.926
-73.385
-72.856
-72.346
-71.859
-71.401
-70.975
-70.585
-70.233
-69.921
-69.652
-69.426
-69.244
-69.106
-69.012
-68.961
-68.952
-68.983
-69.053
-69.159
-69.299
-69.47
-69.67
-69.897
-70.147
-70.418
-70.708
-71.013
-71.331
-71.659
-71.995
-72.337
-72.682
-73.029
-73.375
-73.719
-74.06
-74.396
-74.727
-75.051
-75.367
-75.675
-75.975
-76.267
-76.55
-76.825
-77.092
-77.353
-77.607
-77.858
-78.105
-78.351
-78.597
-78.845
-79.097
-79.354
-79.617
-79.887
-80.168
-80.459
-80.764
-81.082
-81.417
-81.769
-82.139
-82.53
-82.942
-83.375
-83.83
-84.306
-84.805
-85.326
-85.869
-86.432
-87.016
-87.619
-88.241
-88.879
-89.532
-90.197
-90.871
-91.551
-92.233
-92.913
-93.587
-94.251
-94.902
-95.536
-96.15
-96.741
-97.306
-97.842
-98.346
-98.813
-99.237
-99.613
-99.932
-100.19
-100.381
-100.499
-100.543
-100.508
-100.391
-100.194
-99.915
-99.554
-99.109
-98.572
-97.94
-97.216
-96.404
-95.513
-94.559
-93.55
-92.502
-91.432
-90.355
-89.279
-88.209
-87.134
-86.045
-84.941
-83.824
-82.709
-81.607
-80.516
-79.432
-78.352
-77.263
-76.154
-75.012
-73.798
-72.488
-71.077
-69.567
-67.99
-66.378
-64.745
-63.099
-61.443
-59.779
-58.126
-56.499
-54.904
-53.359
-51.882
-50.502
-49.283
-48.271
-47.483
-46.93
-46.599
-46.468
-46.549
-46.85
-47.37
-48.119
-49.098
-50.322
-51.82
-53.611
-55.701
-58.064
-60.663
-63.476
-66.513
-69.781
-73.288
-77.022
-80.966
-85.158
-89.571
-94.083
-98.476
-102.37
-105.406
-107.346
-107.914
-106.778
-103.832
-99.2
-93.29
-87.015
-81.247
-76.552
-73.572
-72.898
-74.676
-78.654
-84.001
-88.95
-91.643
-90.558
-83.961
-70.282
-48.553
-18.369
19.736
63.878
111.55
159.927
205.312
243.595
270.818
283.359
278.134
253.034
207.161
140.529
55.598
-42.585
-149.835
-262.255
-376.417
-491.053
-600.064
-693.277
-761.852
-796.368
-795.279
-765.919
-715.59
-653.306
-584.774
-510.262
-431.918
-352.544
-275.812
-207.206
-150.129
-105.843
-74.286
-53.825
-42.436
-38.068
-38.228
-40.45
-42.499
-42.5
-39.603
-33.821
-25.56
-15.58
-4.845
5.692
14.998
22.101
26.653
28.794
28.879
27.483
25.179
22.467
19.932
18.157
17.445
17.892
19.468
22.011
25.396
29.531
34.272
39.456
44.945
50.606
56.338
62.069
67.7
73.124
78.241
82.952
87.202
90.974
94.269
97.11
99.528
101.56
103.259
104.688
105.907
106.978
107.956
108.889
109.833
110.841
111.967
113.262
114.762
116.489
118.458
120.675
123.143
125.863
128.829
132.028
135.45
139.086
142.928
146.968
151.195
155.594
160.149
164.843
169.659
174.581
179.591
184.669
189.796
194.952
200.117
205.269
210.387
215.446
220.422
225.289
230.021
234.594
238.983
243.163
247.11
250.803
254.219
257.339
260.144
262.616
264.739
266.5
267.883
268.88
269.479
269.673
269.456
268.825
267.778
266.314
264.435
262.147
259.453
256.363
252.886
249.034
244.818
240.255
235.361
230.152
224.649
218.871
212.84
206.578
200.107
193.453
186.638
179.688
172.627
165.479
158.27
151.024
143.764
136.516
129.302
122.144
115.065
108.085
101.224
94.501
87.934
81.539
75.331
69.323
63.528
57.956
52.617
47.518
42.665
38.064
33.717
29.627
25.793
22.216
18.892
15.818
12.989
10.4
8.044
5.912
3.996
2.287
0.774
-0.553
-1.706
-2.697
-3.537
-4.239
-4.815
-5.276
-5.636
-5.907
-6.098
-6.223
-6.292
-6.314
-6.3
-6.258
-6.198
-6.127
-6.052
-5.981
-5.918
-5.87
-5.841
-5.835
-5.856
-5.906
-5.987
-6.102
-6.251
-6.435
-6.654
-6.908
-7.196
-7.517
-7.87
-8.253
-8.664
-9.102
-9.564
-10.048
-10.552
-11.074
-11.612
-12.164
-12.73
-13.308
-13.897
-14.495
-15.104
-15.721
-16.347
-16.983
-17.627
-18.281
-18.946
-19.621
-20.308
-21.008
-21.721
-22.449
-23.192
-23.952
-24.73
-25.526
-26.342
-27.178
-28.036
-28.916
-29.819
-30.745
-31.696
-32.67
-33.668
-34.69
-35.734
-36.8
-37.886
-38.991
-40.113
-41.249
-42.397
-43.554
-44.718
-45.885
-47.053
-48.218
-49.377
-50.527
-51.663
-52.784
-53.885
-54.964
-56.018
-57.044
-58.039
-59.001
-59.927
-60.816
-61.664
-62.47
-63.232
-63.947
-64.613
-65.229
-65.794
-66.306
-66.765
-67.171
-67.524
-67.822
-68.067
-68.259
-68.399
-68.487
-68.524
-68.51
-68.447
-68.336
-68.179
-67.975
-67.726
-67.432
-67.095
-66.714
-66.291
-65.823
-65.313
-64.758
-64.161
-63.521
-62.839
-62.116
-61.353
-60.552
-59.715
-58.846
-57.945
-57.015
-56.059
-55.077
-54.074
-53.051
-52.009
-50.952
-49.882
-48.804
-47.722
-46.641
-45.565
-44.498
-43.445
-42.409
-41.396
-40.41
-39.453
-38.53
-37.647
-36.809
-36.024
-35.299
-34.632
-34.023
-33.466
-32.955
-32.481
-32.033
-31.592
-31.145
-30.681
-30.191
-29.669
-29.111
-28.505
-27.842
-27.112
-26.303
-25.418
-24.461
-23.439
-22.371
-21.285
-20.206
-19.18
-18.25
-17.447
-16.809
-16.373
-16.165
-16.218
-16.563
-17.214
-18.203
-19.56
-21.303
-23.461
-26.029
-28.977
-32.302
-36.014
-40.053
-44.295
-48.519
-52.388
-55.628
-58.046
-59.396
-59.358
-57.719
-54.522
-50.12
-45.189
-40.426
-36.235
-32.978
-31.244
-31.44
-33.469
-36.743
-39.98
-41.607
-40.58
-35.886
-25.99
-9.635
13.869
44.596
81.326
122.109
165.222
208.285
247.686
279.584
300.077
305.6
293.775
262.968
212.013
140.922
52.686
-48.305
-158.158
-271.502
-385.104
-495.685
-594.503
-674.771
-729.983
-754.45
-751.796
-726.195
-681.782
-625.44
-559.146
-485.442
-408.881
-332.027
-259.21
-194.563
-140.111
-97.308
-66.142
-45.13
-32.528
-26.689
-25.52
-26.862
-28.689
-29.032
-26.861
-22.158
-15.279
-6.749
2.639
12.075
20.634
27.251
31.479
33.426
33.402
31.937
29.576
26.776
24.103
22.171
21.307
21.62
23.089
25.541
28.84
32.895
37.552
42.643
48.027
53.567
59.161
64.733
70.184
75.407
80.301
84.769
88.756
92.245
95.239
97.763
99.853
101.548
102.9
103.971
104.819
105.504
106.079
106.59
107.087
107.625
108.256
109.031
109.987
111.148
112.53
114.143
115.991
118.08
120.404
122.95
125.711
128.681
131.857
135.241
138.826
142.599
146.544
150.645
154.885
159.24
163.683
168.173
172.681
177.181
181.657
186.1
190.496
194.827
199.077
203.23
207.274
211.201
215.0
218.649
222.144
225.487
228.699
231.819
234.862
237.823
240.682
243.411
245.98
248.364
250.525
252.408
253.967
255.161
255.969
256.379
256.358
255.853
254.788
253.075
250.662
247.531
243.685
239.132
233.885
227.965
221.42
214.325
206.745
198.72
190.264
181.398
172.171
162.668
153.006
143.295
133.618
124.032
114.579
105.308
96.264
87.475
78.943
70.651
62.597
54.81
47.349
40.257
33.54
27.173
21.099
15.278
9.69
4.321
-0.842
-5.817
-10.622
-15.258
-19.704
-23.94
-27.963
-31.791
-35.47
-39.025
-42.459
-45.758
-48.887
-51.828
-54.577
-57.125
-59.461
-61.577
-63.467
-65.139
-66.617
-67.917
-69.048
-70.008
-70.784
-71.377
-71.795
-72.056
-72.183
-72.193
-72.099
-71.918
-71.67
-71.37
-71.032
-70.662
-70.258
-69.825
-69.369
-68.897
-68.421
-67.946
-67.477
-67.018
-66.571
-66.138
-65.723
-65.326
-64.946
-64.583
-64.24
-63.919
-63.623
-63.355
-63.117
-62.909
-62.734
-62.591
-62.482
-62.405
-62.361
-62.347
-62.364
-62.412
-62.49
-62.597
-62.733
-62.898
-63.089
-63.307
-63.551
-63.818
-64.109
-64.422
-64.755
-65.108
-65.479
-65.866
-66.268
-66.684
-67.111
-67.548
-67.994
-68.447
-68.905
-69.366
-69.829
-70.293
-70.756
-71.218
-71.676
-72.131
-72.581
-73.025
-73.465
-73.897
-74.323
-74.742
-75.153
-75.556
-75.95
-76.336
-76.712
-77.08
-77.437
-77.784
-78.122
-78.449
-78.765
-79.071
-79.366
-79.65
-79.924
-80.187
-80.439
-80.68
-80.909
-81.126
-81.331
-81.522
-81.698
-81.857
-81.999
-82.122
-82.224
-82.303
-82.356
-82.382
-82.379
-82.343
-82.274
-82.167
-82.022
-81.836
-81.607
-81.335
-81.018
-80.656
-80.248
-79.795
-79.297
-78.755
-78.17
-77.542
-76.873
-76.165
-75.419
-74.635
-73.815
-72.963
-72.079
-71.169
-70.235
-69.281
-68.311
-67.327
-66.337
-65.343
-64.351
-63.36
-62.372
-61.389
-60.416
-59.459
-58.52
-57.597
-56.686
-55.787
-54.894
-54.004
-53.106
-52.178
-51.203
-50.167
-49.061
-47.885
-46.635
-45.302
-43.878
-42.352
-40.721
-38.998
-37.194
-35.309
-33.356
-31.357
-29.35
-27.406
-25.597
-23.973
-22.578
-21.448
-20.605
-20.098
-19.982
-20.296
-21.085
-22.367
-24.141
-26.451
-29.36
-32.838
-36.748
-40.833
-44.71
-48.06
-50.672
-52.29
-52.572
-51.31
-48.555
-44.652
-40.315
-36.287
-32.956
-30.649
-29.924
-31.114
-34.068
-38.207
-42.176
-44.238
-43.3
-38.446
-28.02
-10.573
14.513
47.507
86.438
127.274
168.336
208.394
246.156
282.664
313.484
329.73
323.614
286.429
217.259
124.755
19.074
-89.828
-197.26
-304.974
-414.993
-523.416
-620.617
-695.323
-737.059
-744.679
-725.262
-686.089
-635.77
-578.804
-514.633
-445.129
-372.646
-300.167
-233.014
-174.617
-126.419
-89.267
-62.447
-44.372
-33.588
-28.438
-26.735
-26.53
-26.146
-24.048
-19.642
-13.113
-4.802
4.707
14.553
23.988
32.215
38.42
42.392
44.32
44.524
43.517
41.808
39.826
38.073
37.051
37.002
37.995
39.993
42.839
46.413
50.618
55.31
60.335
65.556
70.855
76.137
81.328
86.341
91.081
95.459
99.393
102.842
105.792
108.25
110.247
111.816
113.001
113.857
114.447
114.834
115.077
115.232
115.349
115.481
115.68
115.998
116.484
117.173
118.088
119.245
120.652
122.314
124.233
126.405
128.82
131.471
134.349
137.449
140.765
144.285
147.998
151.889
155.943
160.143
164.474
168.917
173.455
178.067
182.734
187.433
192.143
196.842
201.504
206.104
210.614
215.008
219.26
223.343
227.232
230.902
234.328
237.488
240.36
242.924
245.161
247.053
248.584
249.739
250.506
250.873
250.832
250.374
249.494
248.189
246.456
244.298
241.715
238.714
235.3
231.483
227.274
222.685
217.731
212.429
206.796
200.853
194.62
188.12
181.375
174.411
167.253
159.925
152.455
144.869
137.192
129.452
121.675
113.886
106.112
98.377
90.706
83.122
75.649
68.309
61.122
54.108
47.286
40.672
34.283
28.132
22.232
16.593
11.225
6.135
1.328
-3.192
-7.422
-11.362
-15.013
-18.377
-21.46
-24.266
-26.801
-29.074
-31.094
-32.869
-34.412
-35.733
-36.843
-37.756
-38.484
-39.039
-39.436
-39.687
-39.806
-39.806
-39.7
-39.501
-39.222
-38.875
-38.471
-38.022
-37.538
-37.03
-36.505
-35.972
-35.44
-34.914
-34.4
-33.904
-33.429
-32.98
-32.559
-32.169
-31.81
-31.483
-31.19
-30.929
-30.7
-30.502
-30.334
-30.195
-30.084
-29.997
-29.934
-29.893
-29.872
-29.867
-29.878
-29.903
-29.939
-29.984
-30.037
-30.096
-30.16
-30.228
-30.299
-30.373
-30.448
-30.525
-30.603
-30.683
-30.764
-30.847
-30.933
-31.022
-31.116
-31.214
-31.318
-31.429
-31.547
-31.672
-31.805
-31.946
-32.093
-32.247
-32.407
-32.572
-32.74
-32.911
-33.084
-33.256
-33.426
-33.592
-33.751
-33.9
-34.038
-34.16
-34.265
-34.348
-34.407
-34.439
-34.441
-34.41
-34.344
-34.238
-34.091
-33.9
-33.663
-33.377
-33.042
-32.655
-32.218
-31.729
-31.189
-30.601
-29.966
-29.289
-28.573
-27.821
-27.039
-26.23
-25.401
-24.556
-23.699
-22.835
-21.968
-21.105
-20.252
-19.414
-18.599
-17.813
-17.063
-16.353
-15.691
-15.079
-14.518
-14.009
-13.553
-13.153
-12.816
-12.548
-12.351
-12.226
-12.172
-12.186
-12.259
-12.377
-12.514
-12.652
-12.769
-12.853
-12.899
-12.897
-12.84
-12.719
-12.515
-12.216
-11.816
-11.309
-10.696
-9.991
-9.22
-8.441
-7.735
-7.17
-6.814
-6.714
-6.91
-7.464
-8.429
-9.859
-11.817
-14.33
-17.451
-21.274
-25.784
-30.861
-36.298
-41.731
-46.822
-51.369
-55.053
-57.473
-58.515
-58.265
-57.094
-55.726
-54.621
-53.893
-53.858
-54.985
-57.326
-60.592
-63.909
-65.768
-65.094
-61.298
-53.465
-40.342
-21.036
4.886
36.95
73.551
113.108
154.073
194.013
229.53
256.915
272.428
272.988
256.689
222.074
168.381
96.368
8.502
-91.275
-197.914
-305.941
-409.965
-504.531
-584.636
-646.261
-686.804
-705.441
-702.672
-680.091
-640.303
-586.731
-523.376
-454.667
-384.744
-316.899
-254.106
-198.723
-152.284
-115.728
-88.926
-70.659
-59.427
-53.734
-51.696
-51.52
-51.536
-50.085
-46.41
-40.579
-32.865
-23.767
-14.012
-4.262
4.677
11.883
17.006
20.108
21.412
21.36
20.387
18.845
17.204
15.967
15.415
15.69
16.808
18.649
21.122
24.15
27.615
31.394
35.375
39.462
43.583
47.685
51.707
55.587
59.263
62.675
65.774
68.513
70.871
72.856
74.485
75.791
76.816
77.596
78.181
78.627
78.983
79.296
79.604
79.94
80.341
80.848
81.498
82.327
83.363
84.621
86.114
87.848
89.828
92.052
94.511
97.194
100.09
103.197
106.509
110.023
113.726
117.602
121.636
125.804
130.083
134.441
138.836
143.234
147.61
151.941
156.215
160.42
164.54
168.559
172.465
176.245
179.892
183.394
186.732
189.902
192.906
195.763
198.509
201.164
203.726
206.186
208.52
210.698
212.694
214.462
215.946
217.098
217.875
218.245
218.193
217.69
216.694
215.156
213.004
210.196
206.716
202.558
197.731
192.264
186.192
179.579
172.515
165.079
157.334
149.336
141.122
132.745
124.267
115.758
107.296
98.946
90.755
82.766
75.016
67.527
60.309
53.349
46.612
40.074
33.729
27.572
21.614
15.859
10.3
4.936
-0.237
-5.221
-10.015
-14.623
-19.047
-23.286
-27.331
-31.166
-34.764
-38.109
-41.193
-44.012
-46.569
-48.868
-50.913
-52.712
-54.279
-55.625
-56.762
-57.7
-58.447
-59.013
-59.414
-59.663
-59.778
-59.774
-59.666
-59.466
-59.189
-58.844
-58.444
-57.997
-57.51
-56.991
-56.447
-55.887
-55.318
-54.749
-54.185
-53.634
-53.1
-52.59
-52.107
-51.655
-51.236
-50.853
-50.505
-50.196
-49.924
-49.69
-49.494
-49.335
-49.211
-49.123
-49.067
-49.044
-49.049
-49.083
-49.142
-49.225
-49.33
-49.455
-49.597
-49.756
-49.93
-50.117
-50.316
-50.525
-50.742
-50.967
-51.198
-51.433
-51.673
-51.916
-52.162
-52.41
-52.661
-52.914
-53.171
-53.432
-53.697
-53.968
-54.246
-54.532
-54.828
-55.135
-55.454
-55.787
-56.134
-56.498
-56.879
-57.278
-57.696
-58.133
-58.589
-59.066
-59.562
-60.079
-60.616
-61.172
-61.748
-62.343
-62.955
-63.583
-64.226
-64.882
-65.549
-66.225
-66.907
-67.591
-68.276
-68.956
-69.629
-70.29
-70.935
-71.558
-72.155
-72.722
-73.253
-73.744
-74.19
-74.589
-74.935
-75.228
-75.464
-75.643
-75.762
-75.819
-75.813
-75.745
-75.612
-75.416
-75.155
-74.83
-74.442
-73.993
-73.487
-72.926
-72.314
-71.654
-70.95
-70.206
-69.429
-68.622
-67.79
-66.937
-66.069
-65.192
-64.317
-63.45
-62.593
-61.747
-60.91
-60.077
-59.246
-58.407
-57.544
-56.645
-55.696
-54.686
-53.612
-52.468
-51.246
-49.939
-48.53
-47.012
-45.391
-43.673
-41.871
-40.01
-38.105
-36.193
-34.335
-32.583
-30.994
-29.633
-28.534
-27.738
-27.294
-27.228
-27.588
-28.425
-29.76
-31.623
-34.026
-36.945
-40.386
-44.364
-48.782
-53.477
-58.198
-62.581
-66.335
-69.248
-71.047
-71.392
-70.064
-67.097
-62.806
-57.806
-52.731
-47.951
-43.79
-40.811
-39.409
-39.478
-40.49
-41.307
-40.463
-36.953
-29.91
-17.965
0.16
25.044
56.615
93.933
134.229
174.912
214.681
250.187
279.805
302.426
311.836
303.884
274.129
217.626
138.172
42.078
-64.01
-172.935
-281.915
-390.393
-495.828
-590.904
-668.123
-720.012
-741.106
-735.266
-706.979
-660.851
-603.988
-538.105
-465.523
-390.551
-315.402
-244.317
-181.365
-128.351
-86.562
-55.877
-34.73
-21.459
-14.545
-11.985
-11.787
-12.126
-11.21
-8.154
-3.014
3.873
12.016
20.665
29.113
36.545
42.015
45.176
46.165
45.291
43.08
40.061
36.671
33.454
30.99
29.582
29.339
30.242
32.128
34.87
38.37
42.473
47.008
51.826
56.793
61.809
66.795
71.654
76.279
80.572
84.441
87.839
90.748
93.171
95.135
96.672
97.825
98.65
99.209
99.559
99.761
99.869
99.933
100.008
100.148
100.406
100.834
101.469
102.333
103.444
104.807
106.423
108.291
110.406
112.762
115.354
118.178
121.225
124.486
127.951
131.6
135.412
139.356
143.393
147.494
151.635
155.798
159.973
164.149
168.312
172.452
176.558
180.618
184.627
188.571
192.431
196.201
199.882
203.491
207.063
210.613
214.138
217.626
221.049
224.374
227.569
230.585
233.359
235.838
237.972
239.724
241.075
241.988
242.418
242.306
241.578
240.182
238.098
235.316
231.839
227.691
222.904
217.539
211.684
205.416
198.797
191.881
184.704
177.316
169.779
162.163
154.546
146.991
139.546
132.253
125.149
118.257
111.585
105.122
98.83
92.684
86.677
80.806
75.081
69.505
64.075
58.788
53.642
48.637
43.773
39.051
34.466
30.024
25.735
21.615
17.694
13.991
10.516
7.272
4.26
1.476
-1.081
-3.419
-5.551
-7.486
-9.235
-10.808
-12.209
-13.45
-14.542
-15.499
-16.336
-17.069
-17.708
-18.267
-18.755
-19.184
-19.561
-19.896
-20.191
-20.454
-20.691
-20.907
-21.11
-21.304
-21.495
-21.688
-21.886
-22.094
-22.312
-22.544
-22.789
-23.047
-23.319
-23.603
-23.898
-24.202
-24.514
-24.832
-25.154
-25.477
-25.799
-26.119
-26.435
-26.743
-27.044
-27.334
-27.614
-27.882
-28.137
-28.38
-28.609
-28.825
-29.029
-29.219
-29.397
-29.563
-29.718
-29.863
-29.998
-30.126
-30.247
-30.364
-30.478
-30.593
-30.71
-30.834
-30.965
-31.109
-31.266
-31.442
-31.637
-31.855
-32.099
-32.37
-32.67
-33.0
-33.362
-33.755
-34.18
-34.636
-35.123
-35.638
-36.182
-36.752
-37.346
-37.963
-38.599
-39.253
-39.922
-40.602
-41.29
-41.982
-42.675
-43.365
-44.046
-44.716
-45.368
-45.998
-46.601
-47.17
-47.701
-48.187
-48.623
-49.003
-49.322
-49.575
-49.759
-49.869
-49.904
-49.861
-49.741
-49.543
-49.268
-48.916
-48.49
-47.99
-47.419
-46.779
-46.073
-45.304
-44.476
-43.595
-42.667
-41.7
-40.7
-39.675
-38.632
-37.578
-36.523
-35.473
-34.435
-33.418
-32.43
-31.484
-30.592
-29.764
-29.006
-28.319
-27.705
-27.158
-26.674
-26.24
-25.838
-25.457
-25.084
-24.713
-24.341
-23.959
-23.554
-23.116
-22.631
-22.09
-21.495
-20.848
-20.154
-19.431
-18.708
-18.021
-17.423
-16.956
-16.655
-16.552
-16.675
-17.067
-17.767
-18.811
-20.227
-22.022
-24.209
-26.806
-29.829
-33.279
-37.132
-41.331
-45.817
-50.594
-55.59
-60.649
-65.531
-69.844
-73.24
-75.491
-76.324
-75.401
-72.596
-68.018
-62.055
-55.583
-49.424
-44.096
-40.203
-38.321
-38.627
-40.925
-44.452
-47.55
-48.514
-45.982
-38.389
-24.281
-2.727
26.719
63.589
106.125
152.002
198.584
242.394
279.499
306.037
318.422
313.568
289.319
244.686
179.645
96.629
0.649
-104.176
-214.069
-325.935
-438.76
-546.406
-639.012
-707.839
-743.536
-745.308
-720.561
-676.4
-621.823
-561.765
-495.598
-424.973
-351.929
-279.303
-212.488
-154.899
-107.814
-71.901
-46.318
-29.478
-20.052
-16.394
-16.219
-17.506
-18.544
-17.813
-14.759
-9.555
-2.486
5.872
14.617
22.961
30.079
35.169
38.046
38.912
38.096
36.115
33.491
30.661
28.123
26.359
25.588
25.86
27.12
29.204
31.985
35.362
39.197
43.344
47.677
52.083
56.469
60.764
64.884
68.739
72.249
75.335
77.96
80.115
81.815
83.094
83.99
84.548
84.822
84.872
84.76
84.545
84.281
84.016
83.8
83.684
83.716
83.945
84.404
85.115
86.089
87.335
88.855
90.649
92.713
95.037
97.61
100.425
103.474
106.749
110.24
113.933
117.813
121.862
126.063
130.4
134.853
139.404
144.03
148.711
153.425
158.15
162.863
167.538
172.15
176.671
181.076
185.338
189.431
193.33
197.009
200.446
203.617
206.503
209.082
211.336
213.248
214.802
215.985
216.785
217.19
217.192
216.784
215.963
214.724
213.068
210.996
208.512
205.62
202.328
198.647
194.586
190.16
185.383
180.272
174.844
169.12
163.12
156.865
150.38
143.688
136.814
129.782
122.619
115.349
107.999
100.595
93.162
85.726
78.311
70.942
63.643
56.437
49.345
42.389
35.589
28.964
22.53
16.305
10.302
4.535
-0.984
-6.246
-11.243
-15.967
-20.414
-24.581
-28.466
-32.068
-35.391
-38.436
-41.208
-43.713
-45.958
-47.95
-49.701
-51.219
-52.515
-53.603
-54.494
-55.201
-55.738
-56.118
-56.355
-56.464
-56.458
-56.351
-56.157
-55.889
-55.56
-55.183
-54.771
-54.333
-53.881
-53.425
-52.974
-52.536
-52.118
-51.727
-51.367
-51.045
-50.763
-50.524
-50.33
-50.182
-50.081
-50.025
-50.014
-50.044
-50.114
-50.22
-50.359
-50.526
-50.717
-50.927
-51.152
-51.386
-51.624
-51.861
-52.091
-52.31
-52.511
-52.69
-52.843
-52.966
-53.053
-53.104
-53.113
-53.08
-53.003
-52.88
-52.71
-52.492
-52.227
-51.914
-51.556
-51.154
-50.71
-50.227
-49.708
-49.158
-48.581
-47.981
-47.363
-46.731
-46.091
-45.447
-44.805
-44.17
-43.546
-42.939
-42.354
-41.797
-41.273
-40.784
-40.337
-39.933
-39.576
-39.268
-39.01
-38.803
-38.647
-38.543
-38.491
-38.492
-38.546
-38.653
-38.81
-39.019
-39.275
-39.575
-39.916
-40.288
-40.686
-41.102
-41.529
-41.962
-42.394
-42.82
-43.234
-43.634
-44.017
-44.377
-44.707
-44.996
-45.236
-45.423
-45.559
-45.646
-45.693
-45.706
-45.694
-45.671
-45.647
-45.626
-45.606
-45.572
-45.511
-45.416
-45.287
-45.131
-44.956
-44.756
-44.528
-44.268
-43.96
-43.592
-43.141
-42.567
-41.843
-40.959
-39.915
-38.734
-37.447
-36.07
-34.614
-33.087
-31.496
-29.856
-28.178
-26.466
-24.735
-23.011
-21.329
-19.755
-18.34
-17.113
-16.1
-15.308
-14.729
-14.368
-14.233
-14.322
-14.647
-15.221
-16.064
-17.209
-18.684
-20.49
-22.611
-25.011
-27.666
-30.569
-33.702
-37.052
-40.587
-44.296
-48.214
-52.284
-56.36
-60.202
-63.438
-65.734
-66.882
-66.597
-64.539
-60.705
-55.277
-48.702
-41.933
-35.675
-30.307
-26.465
-24.687
-24.901
-26.797
-29.462
-31.069
-30.305
-26.136
-16.931
-1.446
20.918
50.421
86.127
125.971
168.134
210.241
248.59
279.541
299.49
304.837
293.132
262.608
211.723
141.457
55.759
-41.183
-145.311
-255.088
-371.012
-489.327
-601.057
-692.278
-749.133
-765.775
-745.788
-700.724
-642.993
-580.453
-515.884
-448.06
-376.872
-304.821
-236.056
-175.474
-125.952
-88.064
-61.12
-43.296
-32.67
-27.651
-26.152
-26.108
-25.792
-23.669
-19.142
-12.429
-3.951
5.688
15.644
25.134
33.345
39.44
43.175
44.731
44.433
42.8
40.34
37.487
34.75
32.644
31.454
31.288
32.134
33.862
36.363
39.548
43.288
47.44
51.873
56.474
61.152
65.832
70.436
74.874
79.06
82.916
86.376
89.405
91.996
94.163
95.931
97.339
98.429
99.251
99.866
100.328
100.691
101.002
101.305
101.645
102.069
102.623
103.348
104.275
105.424
106.806
108.43
110.294
112.398
114.735
117.298
120.083
123.083
126.291
129.697
133.287
137.044
140.949
144.974
149.087
153.256
157.448
161.641
165.822
169.978
174.091
178.148
182.13
186.027
189.844
193.578
197.223
200.777
204.236
207.614
210.943
214.248
217.542
220.825
224.072
227.26
230.369
233.365
236.21
238.846
241.194
243.193
244.798
245.961
246.639
246.77
246.27
245.073
243.136
240.434
236.971
232.753
227.787
222.106
215.765
208.839
201.431
193.621
185.471
177.044
168.403
159.624
150.806
142.026
133.341
124.802
116.444
108.302
100.415
92.793
85.431
78.308
71.389
64.655
58.106
51.739
45.552
39.541
33.69
27.995
22.467
17.112
11.937
6.948
2.144
-2.463
-6.851
-10.997
-14.877
-18.473
-21.78
-24.794
-27.512
-29.936
-32.068
-33.917
-35.498
-36.824
-37.907
-38.759
-39.389
-39.812
-40.046
-40.109
-40.02
-39.794
-39.447
-38.996
-38.456
-37.842
-37.165
-36.438
-35.671
-34.875
-34.062
-33.242
-32.427
-31.627
-30.851
-30.107
-29.405
-28.75
-28.149
-27.606
-27.124
-26.706
-26.354
-26.069
-25.85
-25.698
-25.611
-25.588
-25.626
-25.723
-25.874
-26.077
-26.328
-26.621
-26.954
-27.322
-27.719
-28.142
-28.586
-29.047
-29.519
-29.999
-30.482
-30.963
-31.439
-31.906
-32.359
-32.795
-33.212
-33.607
-33.978
-34.322
-34.64
-34.93
-35.193
-35.428
-35.636
-35.818
-35.977
-36.113
-36.228
-36.326
-36.409
-36.479
-36.539
-36.591
-36.639
-36.685
-36.732
-36.781
-36.837
-36.901
-36.975
-37.062
-37.163
-37.282
-37.419
-37.575
-37.752
-37.949
-38.168
-38.408
-38.668
-38.947
-39.244
-39.557
-39.883
-40.219
-40.563
-40.911
-41.258
-41.6
-41.933
-42.252
-42.552
-42.829
-43.078
-43.296
-43.48
-43.625
-43.73
-43.793
-43.811
-43.782
-43.705
-43.578
-43.4
-43.171
-42.888
-42.551
-42.162
-41.72
-41.229
-40.691
-40.108
-39.483
-38.819
-38.121
-37.393
-36.641
-35.865
-35.069
-34.257
-33.434
-32.612
-31.794
-30.981
-30.174
-29.371
-28.569
-27.765
-26.948
-26.101
-25.206
-24.249
-23.22
-22.118
-20.939
-19.677
-18.325
-16.871
-15.313
-13.659
-11.923
-10.113
-8.247
-6.352
-4.473
-2.68
-1.045
0.36
1.478
2.259
2.659
2.642
2.16
1.17
-0.367
-2.481
-5.183
-8.47
-12.349
-16.84
-21.867
-27.248
-32.701
-37.848
-42.358
-45.996
-48.489
-49.476
-48.725
-46.268
-42.407
-37.801
-33.097
-28.63
-24.78
-22.191
-21.323
-22.215
-24.39
-26.569
-27.344
-25.887
-21.04
-10.996
5.871
30.773
62.958
99.337
137.188
175.137
214.174
256.103
298.442
333.599
349.063
332.133
277.606
189.192
78.845
-39.738
-157.457
-270.386
-378.954
-482.226
-575.841
-654.167
-711.393
-744.501
-753.619
-739.973
-705.602
-653.667
-588.139
-513.593
-434.958
-356.497
-281.734
-214.055
-156.241
-109.896
-75.333
-51.675
-37.216
-30.127
-28.43
-29.719
-31.63
-32.171
-30.232
-25.696
-18.937
-10.522
-1.199
8.091
16.283
22.327
25.746
26.671
25.471
22.683
18.862
14.516
10.257
6.73
4.298
3.074
3.042
4.046
5.963
8.715
12.162
16.134
20.486
25.076
29.794
34.564
39.278
43.816
48.067
51.916
55.298
58.192
60.595
62.526
64.017
65.103
65.836
66.28
66.497
66.55
66.493
66.378
66.258
66.192
66.235
66.444
66.859
67.504
68.398
69.55
70.966
72.647
74.59
76.781
79.212
81.873
84.757
87.859
91.173
94.691
98.403
102.295
106.35
110.55
114.871
119.282
123.755
128.257
132.759
137.241
141.685
146.079
150.413
154.677
158.853
162.919
166.85
170.628
174.236
177.664
180.91
183.982
186.893
189.664
192.304
194.809
197.161
199.322
201.247
202.884
204.191
205.138
205.701
205.859
205.59
204.876
203.688
201.994
199.752
196.912
193.44
189.322
184.568
179.213
173.311
166.935
160.149
153.009
145.568
137.868
129.951
121.86
113.639
105.336
97.011
88.737
80.576
72.578
64.778
57.189
49.809
42.623
35.617
28.782
22.116
15.625
9.315
3.198
-2.716
-8.414
-13.895
-19.166
-24.232
-29.1
-33.768
-38.23
-42.473
-46.478
-50.23
-53.716
-56.929
-59.866
-62.53
-64.929
-67.072
-68.974
-70.648
-72.104
-73.352
-74.401
-75.263
-75.95
-76.477
-76.861
-77.116
-77.26
-77.309
-77.276
-77.175
-77.018
-76.815
-76.575
-76.306
-76.016
-75.713
-75.406
-75.101
-74.806
-74.526
-74.267
-74.034
-73.829
-73.656
-73.516
-73.41
-73.337
-73.296
-73.287
-73.308
-73.355
-73.427
-73.521
-73.632
-73.759
-73.896
-74.041
-74.189
-74.337
-74.48
-74.616
-74.741
-74.851
-74.943
-75.014
-75.063
-75.086
-75.083
-75.051
-74.989
-74.897
-74.773
-74.617
-74.43
-74.211
-73.962
-73.683
-73.377
-73.047
-72.693
-72.32
-71.93
-71.526
-71.113
-70.692
-70.267
-69.842
-69.419
-69.002
-68.594
-68.196
-67.812
-67.443
-67.093
-66.761
-66.451
-66.164
-65.9
-65.66
-65.444
-65.254
-65.087
-64.945
-64.825
-64.727
-64.649
-64.589
-64.545
-64.513
-64.491
-64.475
-64.462
-64.447
-64.425
-64.393
-64.346
-64.28
-64.191
-64.075
-63.929
-63.75
-63.537
-63.288
-63.002
-62.679
-62.318
-61.919
-61.482
-61.007
-60.495
-59.947
-59.363
-58.746
-58.099
-57.425
-56.728
-56.013
-55.282
-54.541
-53.794
-53.047
-52.303
-51.568
-50.845
-50.138
-49.455
-48.804
-48.19
-47.613
-47.072
-46.561
-46.075
-45.606
-45.145
-44.673
-44.174
-43.634
-43.04
-42.389
-41.672
-40.88
-40.006
-39.032
-37.952
-36.773
-35.503
-34.156
-32.754
-31.312
-29.864
-28.467
-27.169
-26.019
-25.071
-24.352
-23.896
-23.742
-23.91
-24.436
-25.357
-26.684
-28.437
-30.624
-33.222
-36.238
-39.693
-43.5
-47.503
-51.46
-55.01
-57.851
-59.773
-60.512
-59.743
-57.289
-53.245
-48.006
-42.297
-36.852
-32.108
-28.431
-26.381
-26.299
-27.979
-30.747
-33.272
-33.918
-31.524
-25.13
-13.34
5.129
30.787
63.464
102.134
143.822
185.704
226.361
262.329
291.977
314.372
323.091
313.792
282.315
223.738
143.059
47.819
-56.256
-162.226
-269.411
-379.679
-487.608
-584.319
-659.57
-702.226
-711.121
-693.488
-656.459
-608.815
-555.027
-494.074
-427.52
-357.576
-287.106
-221.374
-163.782
-115.792
-78.317
-50.77
-31.689
-19.696
-13.248
-10.312
-9.058
-7.871
-5.231
-0.521
6.101
14.301
23.517
32.945
41.879
49.545
55.132
58.401
59.51
58.77
56.682
53.738
50.363
47.059
44.339
42.494
41.643
41.783
42.794
44.577
47.047
50.085
53.552
57.319
61.28
65.343
69.441
73.499
77.43
81.151
84.586
87.668
90.363
92.666
94.59
96.164
97.426
98.421
99.202
99.831
100.368
100.868
101.381
101.949
102.62
103.438
104.45
105.694
107.201
108.985
111.055
113.415
116.064
118.997
122.204
125.669
129.377
133.316
137.472
141.832
146.382
151.103
155.973
160.973
166.08
171.275
176.534
181.834
187.152
192.464
197.746
202.975
208.125
213.172
218.087
222.845
227.419
231.785
235.917
239.792
243.385
246.677
249.646
252.275
254.547
256.446
257.958
259.072
259.776
260.063
259.926
259.359
258.36
256.928
255.065
252.773
250.058
246.926
243.386
239.45
235.13
230.439
225.395
220.014
214.315
208.319
202.047
195.521
188.764
181.801
174.656
167.355
159.923
152.384
144.766
137.093
129.39
121.682
113.994
106.349
98.772
91.283
83.906
76.66
69.565
62.639
55.899
49.362
43.041
36.949
31.099
25.5
20.161
15.089
10.289
5.765
1.52
-2.445
-6.132
-9.541
-12.675
-15.54
-18.141
-20.483
-22.576
-24.426
-26.044
-27.439
-28.622
-29.604
-30.397
-31.012
-31.461
-31.758
-31.913
-31.94
-31.851
-31.658
-31.371
-31.004
-30.567
-30.07
-29.524
-28.939
-28.323
-27.687
-27.037
-26.38
-25.725
-25.077
-24.441
-23.823
-23.226
-22.655
-22.113
-21.602
-21.125
-20.684
-20.279
-19.912
-19.583
-19.292
-19.038
-18.822
-18.642
-18.498
-18.388
-18.312
-18.267
-18.253
-18.269
-18.313
-18.383
-18.479
-18.6
-18.744
-18.91
-19.098
-19.305
-19.533
-19.779
-20.044
-20.326
-20.626
-20.942
-21.275
-21.623
-21.987
-22.365
-22.757
-23.162
-23.579
-24.008
-24.448
-24.898
-25.358
-25.826
-26.301
-26.782
-27.269
-27.76
-28.254
-28.748
-29.242
-29.734
-30.222
-30.703
-31.175
-31.637
-32.085
-32.518
-32.932
-33.326
-33.695
-34.038
-34.352
-34.634
-34.882
-35.095
-35.27
-35.406
-35.503
-35.561
-35.579
-35.56
-35.503
-35.411
-35.284
-35.124
-34.934
-34.716
-34.471
-34.2
-33.908
-33.597
-33.272
-32.936
-32.595
-32.253
-31.913
-31.582
-31.262
-30.96
-30.679
-30.424
-30.197
-30.002
-29.843
-29.726
-29.656
-29.629
-29.642
-29.688
-29.759
-29.849
-29.945
-30.03
-30.089
-30.108
-30.073
-29.979
-29.819
-29.585
-29.266
-28.847
-28.319
-27.687
-26.959
-26.149
-25.277
-24.356
-23.412
-22.496
-21.653
-20.929
-20.378
-20.026
-19.907
-20.059
-20.508
-21.296
-22.466
-24.042
-26.047
-28.496
-31.37
-34.684
-38.482
-42.685
-47.135
-51.589
-55.656
-59.013
-61.46
-62.709
-62.41
-60.422
-56.837
-52.063
-46.983
-42.392
-38.763
-36.618
-36.473
-38.498
-42.486
-47.644
-52.277
-54.619
-53.282
-46.753
-33.63
-13.006
15.551
51.599
93.415
138.671
184.751
228.229
265.199
291.825
304.581
300.347
276.81
232.871
168.341
85.577
-10.188
-114.77
-224.529
-336.535
-449.924
-558.325
-651.267
-719.396
-753.167
-752.263
-724.781
-678.513
-623.286
-564.211
-500.604
-434.166
-366.212
-298.945
-237.529
-184.869
-141.798
-108.765
-84.504
-67.147
-55.791
-49.249
-45.597
-43.342
-41.081
-37.45
-32.173
-25.588
-17.819
-9.269
-0.662
7.467
14.39
19.323
22.154
23.1
22.439
20.652
18.206
15.471
12.944
11.132
10.274
10.454
11.641
13.678
16.46
19.901
23.872
28.228
32.84
37.592
42.39
47.167
51.836
56.304
60.479
64.273
67.636
70.551
73.025
75.087
76.768
78.109
79.157
79.971
80.606
81.121
81.565
81.983
82.424
82.938
83.575
84.386
85.408
86.663
88.161
89.908
91.905
94.156
96.658
99.402
102.375
105.564
108.956
112.538
116.293
120.193
124.201
128.283
132.405
136.543
140.685
144.816
148.917
152.973
156.966
160.888
164.745
168.535
172.252
175.893
179.455
182.95
186.414
189.869
193.329
196.792
200.231
203.622
206.943
210.159
213.23
216.098
218.68
220.916
222.759
224.162
225.08
225.45
225.184
224.217
222.504
220.022
216.776
212.772
208.019
202.554
196.432
189.732
182.558
174.992
167.094
158.931
150.565
142.073
133.557
125.094
116.742
108.551
100.555
92.786
85.282
78.051
71.083
64.354
57.827
51.479
45.309
39.311
33.481
27.812
22.286
16.897
11.654
6.561
1.624
-3.152
-7.768
-12.212
-16.461
-20.493
-24.282
-27.809
-31.068
-34.055
-36.765
-39.199
-41.358
-43.248
-44.883
-46.275
-47.432
-48.364
-49.079
-49.589
-49.911
-50.059
-50.05
-49.899
-49.618
-49.222
-48.724
-48.137
-47.472
-46.738
-45.944
-45.101
-44.219
-43.308
-42.378
-41.44
-40.501
-39.572
-38.661
-37.776
-36.923
-36.107
-35.334
-34.607
-33.931
-33.307
-32.738
-32.226
-31.772
-31.377
-31.041
-30.763
-30.544
-30.383
-30.277
-30.225
-30.226
-30.277
-30.376
-30.521
-30.709
-30.938
-31.205
-31.509
-31.845
-32.212
-32.607
-33.027
-33.47
-33.934
-34.415
-34.913
-35.424
-35.948
-36.484
-37.03
-37.587
-38.153
-38.729
-39.315
-39.911
-40.517
-41.133
-41.761
-42.399
-43.049
-43.712
-44.388
-45.078
-45.783
-46.502
-47.236
-47.985
-48.75
-49.529
-50.323
-51.131
-51.951
-52.783
-53.625
-54.474
-55.329
-56.187
-57.047
-57.906
-58.76
-59.606
-60.442
-61.263
-62.065
-62.843
-63.59
-64.3
-64.968
-65.589
-66.159
-66.672
-67.123
-67.508
-67.824
-68.071
-68.246
-68.343
-68.359
-68.286
-68.125
-67.883
-67.565
-67.174
-66.713
-66.186
-65.6
-64.97
-64.299
-63.585
-62.823
-62.008
-61.142
-60.238
-59.308
-58.366
-57.414
-56.443
-55.452
-54.448
-53.432
-52.402
-51.352
-50.255
-49.112
-47.949
-46.784
-45.639
-44.519
-43.402
-42.279
-41.144
-39.996
-38.846
-37.698
-36.536
-35.36
-34.18
-33.01
-31.896
-30.847
-29.836
-28.85
-27.883
-26.945
-26.091
-25.362
-24.787
-24.411
-24.27
-24.408
-24.886
-25.734
-26.971
-28.629
-30.702
-33.213
-36.223
-39.741
-43.795
-48.442
-53.586
-59.059
-64.636
-69.917
-74.553
-78.329
-80.889
-81.817
-81.042
-78.667
-75.108
-71.256
-67.706
-64.728
-62.844
-62.555
-63.845
-66.427
-69.345
-70.771
-69.354
-64.155
-53.823
-37.132
-13.433
17.574
55.138
97.197
141.818
186.907
229.316
265.49
291.869
304.956
301.886
280.791
240.317
179.848
101.311
9.102
-93.086
-201.659
-313.774
-428.771
-540.466
-638.642
-714.114
-756.878
-765.543
-747.239
-708.718
-658.536
-601.487
-536.898
-466.573
-392.98
-319.241
-250.944
-191.765
-143.258
-106.322
-80.252
-63.415
-54.273
-51.039
-51.352
-53.103
-54.48
-53.848
-50.588
-44.894
-37.147
-28.001
-18.384
-9.114
-1.051
4.942
8.622
10.155
9.871
8.29
5.921
3.2
0.624
-1.307
-2.322
-2.325
-1.341
0.491
3.058
6.267
9.997
14.112
18.49
23.029
27.64
32.259
36.821
41.245
45.456
49.383
52.963
56.164
58.984
61.439
63.56
65.382
66.945
68.298
69.501
70.606
71.666
72.722
73.814
74.983
76.271
77.722
79.378
81.267
83.404
85.797
88.45
91.363
94.531
97.942
101.578
105.426
109.476
113.721
118.154
122.76
127.517
132.401
137.382
142.434
147.527
152.63
157.712
162.752
167.729
172.638
177.472
182.217
186.852
191.348
195.677
199.822
203.773
207.522
211.071
214.421
217.572
220.541
223.334
225.941
228.344
230.503
232.374
233.929
235.151
236.035
236.582
236.772
236.58
235.977
234.923
233.384
231.329
228.712
225.505
221.701
217.309
212.369
206.932
201.032
194.691
187.917
180.721
173.141
165.229
157.049
148.685
140.21
131.697
123.231
114.882
106.705
98.743
91.01
83.514
76.278
69.335
62.738
56.534
50.739
45.352
40.353
35.7
31.364
27.317
23.519
19.942
16.565
13.37
10.362
7.546
4.913
2.442
0.096
-2.159
-4.338
-6.44
-8.454
-10.352
-12.118
-13.741
-15.2
-16.488
-17.601
-18.539
-19.315
-19.946
-20.44
-20.801
-21.022
-21.097
-21.031
-20.837
-20.53
-20.137
-19.675
-19.163
-18.622
-18.068
-17.512
-16.966
-16.431
-15.907
-15.397
-14.904
-14.435
-13.998
-13.594
-13.226
-12.893
-12.596
-12.331
-12.098
-11.892
-11.709
-11.548
-11.408
-11.286
-11.186
-11.105
-11.043
-11.0
-10.974
-10.961
-10.962
-10.973
-10.992
-11.016
-11.045
-11.076
-11.109
-11.143
-11.179
-11.215
-11.251
-11.288
-11.326
-11.366
-11.408
-11.454
-11.504
-11.56
-11.624
-11.697
-11.782
-11.88
-11.994
-12.125
-12.276
-12.448
-12.644
-12.864
-13.112
-13.388
-13.694
-14.032
-14.404
-14.811
-15.254
-15.735
-16.254
-16.813
-17.41
-18.045
-18.718
-19.428
-20.173
-20.95
-21.758
-22.596
-23.459
-24.345
-25.251
-26.174
-27.11
-28.054
-29.002
-29.951
-30.895
-31.83
-32.751
-33.653
-34.532
-35.383
-36.201
-36.98
-37.717
-38.406
-39.043
-39.623
-40.142
-40.595
-40.981
-41.295
-41.537
-41.705
-41.798
-41.817
-41.764
-41.638
-41.443
-41.181
-40.855
-40.468
-40.023
-39.524
-38.974
-38.379
-37.743
-37.073
-36.375
-35.654
-34.916
-34.168
-33.419
-32.674
-31.939
-31.218
-30.514
-29.832
-29.178
-28.56
-27.982
-27.446
-26.952
-26.499
-26.085
-25.706
-25.352
-25.001
-24.635
-24.237
-23.796
-23.307
-22.764
-22.156
-21.47
-20.697
-19.831
-18.878
-17.844
-16.728
-15.541
-14.305
-13.058
-11.869
-10.812
-9.946
-9.327
-8.999
-8.994
-9.365
-10.167
-11.446
-13.245
-15.587
-18.473
-21.939
-26.039
-30.738
-35.896
-41.256
-46.44
-51.116
-55.061
-58.014
-59.624
-59.675
-58.19
-55.464
-52.137
-48.863
-45.953
-43.666
-42.497
-42.732
-44.251
-46.545
-48.4
-48.318
-45.458
-39.119
-27.883
-10.504
13.593
44.652
80.87
118.693
156.797
194.317
230.139
265.388
296.089
313.848
311.445
280.054
217.655
132.027
32.407
-71.329
-173.948
-278.794
-389.317
-503.52
-613.018
-702.236
-756.765
-771.372
-749.886
-703.911
-645.821
-583.1
-518.341
-450.6
-379.855
-308.576
-240.952
-181.729
-133.604
-97.052
-71.266
-54.341
-44.36
-39.742
-38.402
-38.335
-37.916
-35.72
-31.233
-24.727
-16.634
-7.553
1.669
10.283
17.538
22.66
25.464
26.175
25.133
22.865
19.893
16.652
13.644
11.381
10.112
9.919
10.778
12.542
15.101
18.367
22.204
26.464
31.013
35.734
40.535
45.343
50.069
54.614
58.885
62.792
66.285
69.346
71.977
74.202
76.051
77.563
78.79
79.793
80.632
81.365
82.045
82.716
83.43
84.237
85.187
86.328
87.693
89.302
91.168
93.298
95.692
98.349
101.261
104.414
107.796
111.394
115.198
119.198
123.378
127.722
132.212
136.827
141.549
146.362
151.245
156.181
161.15
166.133
171.11
176.061
180.963
185.791
190.518
195.118
199.564
203.831
207.895
211.732
215.319
218.638
221.669
224.393
226.79
228.838
230.519
231.821
232.733
233.251
233.377
233.117
232.481
231.482
230.128
228.427
226.379
223.978
221.22
218.099
214.617
210.788
206.623
202.133
197.327
192.214
186.79
181.05
174.981
168.567
161.803
154.699
147.284
139.602
131.711
123.676
115.555
107.393
99.232
91.112
83.071
75.152
67.403
59.881
52.649
45.781
39.337
33.358
27.862
22.839
18.263
14.088
10.277
6.798
3.628
0.747
-1.86
-4.211
-6.328
-8.237
-9.975
-11.594
-13.137
-14.638
-16.113
-17.562
-18.969
-20.304
-21.541
-22.662
-23.654
-24.514
-25.243
-25.846
-26.329
-26.703
-26.966
-27.114
-27.14
-27.041
-26.821
-26.492
-26.073
-25.59
-25.065
-24.522
-23.977
-23.443
-22.93
-22.442
-21.981
-21.546
-21.136
-20.755
-20.407
-20.095
-19.822
-19.587
-19.389
-19.226
-19.094
-18.99
-18.908
-18.847
-18.804
-18.779
-18.77
-18.779
-18.806
-18.852
-18.916
-18.997
-19.094
-19.204
-19.327
-19.461
-19.605
-19.756
-19.914
-20.079
-20.251
-20.43
-20.615
-20.807
-21.007
-21.214
-21.43
-21.655
-21.89
-22.136
-22.393
-22.663
-22.947
-23.244
-23.558
-23.887
-24.234
-24.599
-24.982
-25.384
-25.805
-26.246
-26.707
-27.188
-27.69
-28.214
-28.759
-29.327
-29.918
-30.533
-31.171
-31.834
-32.521
-33.233
-33.968
-34.727
-35.508
-36.311
-37.134
-37.976
-38.836
-39.711
-40.6
-41.501
-42.411
-43.328
-44.25
-45.173
-46.096
-47.015
-47.928
-48.83
-49.72
-50.594
-51.448
-52.278
-53.081
-53.854
-54.591
-55.289
-55.944
-56.55
-57.104
-57.601
-58.037
-58.407
-58.708
-58.937
-59.091
-59.167
-59.165
-59.083
-58.923
-58.684
-58.366
-57.972
-57.502
-56.959
-56.346
-55.664
-54.916
-54.106
-53.237
-52.315
-51.347
-50.337
-49.292
-48.218
-47.121
-46.009
-44.889
-43.768
-42.651
-41.546
-40.459
-39.397
-38.373
-37.393
-36.458
-35.57
-34.725
-33.917
-33.143
-32.392
-31.647
-30.895
-30.121
-29.315
-28.475
-27.593
-26.663
-25.679
-24.625
-23.494
-22.295
-21.033
-19.724
-18.393
-17.056
-15.748
-14.527
-13.442
-12.546
-11.896
-11.521
-11.452
-11.728
-12.362
-13.391
-14.856
-16.772
-19.167
-22.048
-25.388
-29.2
-33.511
-38.235
-43.208
-48.169
-52.725
-56.567
-59.49
-61.221
-61.424
-59.908
-56.767
-52.433
-47.695
-43.312
-39.72
-37.31
-36.676
-38.173
-41.597
-46.181
-50.44
-52.657
-51.683
-46.392
-35.184
-16.856
9.118
42.501
81.757
124.708
169.394
213.178
252.247
282.653
300.554
302.762
287.25
252.407
197.276
122.192
30.234
-73.055
-182.981
-295.446
-407.661
-518.566
-621.809
-707.645
-767.638
-793.096
-783.94
-748.157
-693.329
-629.051
-560.849
-488.88
-415.223
-341.832
-271.753
-210.013
-159.408
-120.699
-93.512
-75.914
-65.776
-61.42
-60.641
-61.206
-61.267
-59.242
-54.511
-47.338
-38.243
-27.886
-17.177
-6.998
1.77
8.247
12.156
13.697
13.231
11.298
8.436
5.112
1.852
-0.807
-2.563
-3.305
-3.042
-1.902
0.004
2.597
5.758
9.352
13.258
17.363
21.573
25.814
30.007
34.061
37.888
41.403
44.53
47.236
49.514
51.376
52.852
53.979
54.796
55.357
55.724
55.955
56.107
56.233
56.378
56.593
56.929
57.437
58.165
59.148
60.406
61.954
63.795
65.933
68.366
71.088
74.093
77.368
80.903
84.683
88.696
92.923
97.343
101.927
106.638
111.444
116.312
121.215
126.139
131.063
135.966
140.829
145.63
150.353
154.998
159.557
164.023
168.391
172.655
176.824
180.924
184.969
188.968
192.919
196.796
200.575
204.242
207.771
211.138
214.312
217.228
219.834
222.086
223.93
225.319
226.188
226.445
226.017
224.853
222.915
220.2
216.71
212.437
207.393
201.593
195.055
187.846
180.032
171.667
162.826
153.589
144.05
134.345
124.601
114.918
105.387
96.071
87.017
78.294
69.958
62.058
54.649
47.749
41.362
35.506
30.176
25.354
21.012
17.081
13.479
10.153
7.057
4.162
1.452
-1.105
-3.544
-5.892
-8.187
-10.449
-12.686
-14.918
-17.156
-19.395
-21.628
-23.819
-25.919
-27.897
-29.736
-31.424
-32.963
-34.35
-35.574
-36.635
-37.533
-38.267
-38.843
-39.261
-39.521
-39.634
-39.614
-39.483
-39.277
-39.018
-38.724
-38.41
-38.084
-37.754
-37.429
-37.115
-36.81
-36.517
-36.239
-35.979
-35.743
-35.533
-35.348
-35.185
-35.039
-34.908
-34.788
-34.677
-34.573
-34.474
-34.38
-34.29
-34.207
-34.131
-34.063
-34.001
-33.944
-33.891
-33.84
-33.792
-33.744
-33.695
-33.645
-33.593
-33.539
-33.484
-33.427
-33.368
-33.308
-33.247
-33.185
-33.123
-33.061
-32.999
-32.94
-32.882
-32.829
-32.78
-32.737
-32.702
-32.675
-32.658
-32.651
-32.656
-32.674
-32.706
-32.751
-32.812
-32.89
-32.985
-33.098
-33.231
-33.384
-33.559
-33.757
-33.977
-34.221
-34.489
-34.781
-35.097
-35.438
-35.803
-36.193
-36.607
-37.045
-37.506
-37.989
-38.494
-39.019
-39.563
-40.124
-40.7
-41.288
-41.886
-42.492
-43.104
-43.718
-44.333
-44.944
-45.55
-46.145
-46.727
-47.293
-47.838
-48.358
-48.849
-49.308
-49.73
-50.111
-50.447
-50.735
-50.969
-51.147
-51.265
-51.318
-51.304
-51.219
-51.061
-50.828
-50.519
-50.134
-49.671
-49.133
-48.521
-47.837
-47.083
-46.263
-45.38
-44.438
-43.441
-42.394
-41.301
-40.166
-38.997
-37.798
-36.578
-35.343
-34.099
-32.853
-31.614
-30.388
-29.183
-28.007
-26.861
-25.751
-24.681
-23.658
-22.689
-21.778
-20.925
-20.128
-19.387
-18.699
-18.059
-17.457
-16.873
-16.29
-15.693
-15.071
-14.423
-13.742
-13.02
-12.246
-11.409
-10.505
-9.539
-8.515
-7.433
-6.3
-5.131
-3.958
-2.841
-1.845
-1.018
-0.404
-0.034
0.073
-0.12
-0.658
-1.583
-2.933
-4.733
-6.986
-9.733
-13.043
-16.906
-21.204
-25.688
-29.985
-33.753
-36.768
-38.784
-39.461
-38.587
-36.218
-32.704
-28.79
-25.28
-22.607
-21.107
-21.325
-23.563
-27.64
-32.931
-37.987
-40.955
-40.653
-36.102
-25.655
-7.923
17.714
51.483
91.326
133.228
175.477
216.834
256.057
294.219
326.889
345.454
342.763
310.221
246.711
159.94
57.826
-49.992
-157.388
-263.868
-367.26
-464.004
-549.337
-616.945
-662.991
-686.441
-687.7
-668.465
-631.057
-578.756
-515.695
-446.5
-375.643
-306.557
-242.205
-185.144
-137.209
-99.431
-71.741
-52.934
-41.382
-35.634
-33.935
-34.472
-35.515
-35.339
-33.074
-28.735
-22.608
-15.126
-6.945
1.285
8.763
14.513
18.134
19.721
19.53
18.028
15.687
12.892
10.151
8.041
6.873
6.752
7.67
9.467
12.021
15.257
19.04
23.218
27.662
32.25
36.893
41.536
46.096
50.485
54.614
58.393
61.772
64.742
67.305
69.489
71.327
72.855
74.124
75.192
76.115
76.948
77.741
78.537
79.385
80.336
81.44
82.75
84.302
86.117
88.21
90.589
93.256
96.209
99.442
102.942
106.702
110.718
114.982
119.487
124.218
129.155
134.27
139.531
144.904
150.358
155.861
161.389
166.921
172.446
177.953
183.436
188.876
194.247
199.522
204.676
209.69
214.548
219.245
223.782
228.166
232.413
236.528
240.507
244.325
247.939
251.298
254.337
257.013
259.3
261.174
262.613
263.596
264.104
264.111
263.593
262.506
260.791
258.402
255.312
251.525
247.082
242.04
236.476
230.452
224.006
217.182
210.026
202.57
194.846
186.884
178.705
170.371
161.98
153.617
145.357
137.246
129.293
121.5
113.856
106.36
99.022
91.85
84.845
78.031
71.441
65.115
59.104
53.416
48.011
42.861
37.939
33.235
28.762
24.529
20.54
16.802
13.324
10.112
7.179
4.515
2.091
-0.122
-2.167
-4.058
-5.778
-7.317
-8.67
-9.837
-10.831
-11.658
-12.314
-12.81
-13.164
-13.395
-13.524
-13.562
-13.508
-13.361
-13.12
-12.791
-12.394
-11.947
-11.46
-10.947
-10.418
-9.885
-9.365
-8.867
-8.39
-7.938
-7.508
-7.105
-6.733
-6.398
-6.1
-5.842
-5.622
-5.44
-5.295
-5.188
-5.115
-5.075
-5.063
-5.079
-5.121
-5.191
-5.286
-5.405
-5.546
-5.709
-5.891
-6.091
-6.308
-6.539
-6.782
-7.036
-7.299
-7.571
-7.849
-8.133
-8.422
-8.715
-9.012
-9.313
-9.617
-9.925
-10.236
-10.552
-10.872
-11.197
-11.528
-11.866
-12.21
-12.563
-12.924
-13.294
-13.675
-14.067
-14.47
-14.886
-15.315
-15.759
-16.216
-16.689
-17.178
-17.683
-18.206
-18.745
-19.303
-19.877
-20.469
-21.077
-21.702
-22.343
-22.999
-23.668
-24.351
-25.046
-25.751
-26.465
-27.185
-27.91
-28.636
-29.363
-30.086
-30.804
-31.514
-32.212
-32.896
-33.563
-34.21
-34.833
-35.429
-35.995
-36.527
-37.024
-37.483
-37.901
-38.277
-38.609
-38.896
-39.14
-39.339
-39.494
-39.606
-39.676
-39.705
-39.696
-39.65
-39.568
-39.453
-39.308
-39.136
-38.941
-38.728
-38.501
-38.263
-38.02
-37.777
-37.539
-37.311
-37.093
-36.889
-36.702
-36.535
-36.396
-36.287
-36.207
-36.156
-36.133
-36.134
-36.156
-36.188
-36.212
-36.211
-36.17
-36.079
-35.935
-35.733
-35.465
-35.121
-34.69
-34.169
-33.563
-32.878
-32.114
-31.281
-30.397
-29.495
-28.64
-27.898
-27.325
-26.971
-26.874
-27.057
-27.564
-28.447
-29.75
-31.517
-33.773
-36.522
-39.808
-43.694
-48.169
-53.107
-58.258
-63.248
-67.744
-71.514
-74.292
-75.727
-75.587
-73.909
-71.04
-67.679
-64.544
-62.043
-60.524
-60.544
-62.439
-66.046
-70.713
-75.066
-77.46
-76.761
-71.843
-61.11
-43.322
-17.868
15.192
54.48
97.892
143.498
188.676
229.62
262.395
283.148
288.477
276.162
244.748
193.326
122.212
34.685
-64.693
-172.033
-282.089
-391.754
-497.909
-592.075
-667.833
-719.087
-740.47
-735.838
-709.519
-665.799
-611.66
-548.972
-480.004
-408.91
-337.858
-270.857
-211.701
-162.057
-123.091
-94.638
-75.23
-63.297
-57.395
-55.637
-56.132
-57.14
-56.938
-54.664
-50.356
-44.327
-37.035
-29.19
-21.481
-14.7
-9.797
-7.143
-6.605
-7.884
-10.474
-13.86
-17.616
-21.213
-24.066
-25.861
-26.485
-25.947
-24.402
-21.971
-18.735
-14.835
-10.432
-5.663
-0.661
4.468
9.649
14.782
19.759
24.481
28.849
32.809
36.343
39.451
42.156
44.489
46.485
48.194
49.673
50.978
52.164
53.28
54.37
55.483
56.669
57.977
59.453
61.131
63.029
65.16
67.53
70.139
72.985
76.06
79.349
82.84
86.525
90.398
94.457
98.692
103.088
107.63
112.298
117.068
121.917
126.81
131.712
136.596
141.44
146.225
150.945
155.589
160.144
164.599
168.933
173.13
177.176
181.053
184.747
188.258
191.588
194.762
197.812
200.75
203.574
206.272
208.803
211.133
213.224
215.025
216.503
217.631
218.379
218.738
218.703
218.248
217.337
215.914
213.895
211.234
207.912
203.921
199.299
194.084
188.315
182.065
175.392
168.339
160.951
153.244
145.218
136.911
128.374
119.691
110.986
102.349
93.843
85.529
77.426
69.556
61.94
54.566
47.425
40.53
33.893
27.56
21.602
16.049
10.908
6.163
1.75
-2.372
-6.223
-9.83
-13.202
-16.347
-19.276
-21.979
-24.434
-26.643
-28.616
-30.384
-32.004
-33.506
-34.903
-36.193
-37.35
-38.355
-39.207
-39.896
-40.417
-40.769
-40.953
-40.982
-40.886
-40.679
-40.37
-39.962
-39.44
-38.806
-38.07
-37.244
-36.353
-35.416
-34.448
-33.466
-32.49
-31.535
-30.614
-29.731
-28.884
-28.076
-27.31
-26.591
-25.928
-25.324
-24.781
-24.3
-23.881
-23.523
-23.226
-22.987
-22.803
-22.671
-22.59
-22.56
-22.581
-22.653
-22.776
-22.949
-23.171
-23.439
-23.753
-24.112
-24.511
-24.949
-25.424
-25.934
-26.476
-27.049
-27.651
-28.28
-28.933
-29.609
-30.305
-31.02
-31.753
-32.501
-33.263
-34.037
-34.821
-35.615
-36.415
-37.221
-38.03
-38.841
-39.652
-40.461
-41.266
-42.065
-42.856
-43.636
-44.405
-45.159
-45.897
-46.617
-47.318
-47.998
-48.656
-49.291
-49.901
-50.487
-51.046
-51.58
-52.086
-52.565
-53.017
-53.441
-53.836
-54.203
-54.542
-54.852
-55.133
-55.385
-55.608
-55.803
-55.969
-56.108
-56.218
-56.302
-56.358
-56.389
-56.393
-56.372
-56.326
-56.255
-56.16
-56.04
-55.895
-55.726
-55.532
-55.312
-55.066
-54.792
-54.489
-54.156
-53.792
-53.395
-52.965
-52.5
-52.001
-51.468
-50.9
-50.299
-49.668
-49.006
-48.315
-47.597
-46.854
-46.088
-45.301
-44.494
-43.67
-42.831
-41.982
-41.126
-40.268
-39.412
-38.562
-37.722
-36.897
-36.091
-35.308
-34.553
-33.829
-33.139
-32.49
-31.889
-31.342
-30.847
-30.404
-30.006
-29.646
-29.319
-29.013
-28.711
-28.398
-28.06
-27.684
-27.265
-26.796
-26.269
-25.673
-24.992
-24.217
-23.354
-22.412
-21.404
-20.354
-19.281
-18.215
-17.214
-16.325
-15.601
-15.097
-14.845
-14.88
-15.246
-15.969
-17.09
-18.651
-20.669
-23.167
-26.155
-29.604
-33.517
-37.921
-42.731
-47.79
-52.863
-57.552
-61.515
-64.515
-66.238
-66.313
-64.56
-61.022
-56.058
-50.532
-45.309
-40.952
-38.068
-37.277
-38.861
-42.705
-48.094
-53.321
-56.408
-55.852
-50.076
-37.323
-16.419
13.198
51.491
95.827
142.765
190.564
235.865
276.718
311.584
333.439
336.988
317.194
269.087
196.553
104.538
-1.521
-113.559
-228.478
-342.807
-450.971
-548.687
-630.203
-690.644
-728.005
-741.63
-732.198
-701.794
-653.57
-591.475
-520.063
-444.203
-368.187
-295.541
-229.652
-173.036
-127.025
-92.207
-67.975
-52.693
-44.651
-42.058
-42.631
-44.368
-45.603
-44.873
-41.702
-36.36
-29.233
-20.967
-12.461
-4.479
2.186
6.78
9.167
9.573
8.354
6.057
3.212
0.27
-2.26
-3.924
-4.523
-4.015
-2.465
-0.034
3.157
6.996
11.337
16.029
20.934
25.938
30.947
35.87
40.609
45.059
49.117
52.716
55.83
58.45
60.598
62.304
63.603
64.544
65.187
65.589
65.807
65.894
65.897
65.868
65.865
65.94
66.15
66.539
67.134
67.956
69.017
70.323
71.877
73.675
75.706
77.963
80.441
83.137
86.054
89.187
92.527
96.059
99.767
103.626
107.611
111.694
115.843
120.034
124.245
128.46
132.674
136.88
141.07
145.23
149.336
153.367
157.303
161.128
164.829
168.405
171.861
175.211
178.472
181.653
184.751
187.744
190.594
193.256
195.673
197.8
199.606
201.064
202.15
202.842
203.117
202.946
202.293
201.114
199.357
196.986
193.983
190.353
186.128
181.361
176.121
170.472
164.468
158.157
151.582
144.781
137.796
130.669
123.447
116.187
108.959
101.823
94.832
88.018
81.392
74.954
68.684
62.569
56.598
50.768
45.083
39.551
34.18
28.981
23.966
19.139
14.492
10.019
5.716
1.582
-2.373
-6.135
-9.684
-13.003
-16.077
-18.895
-21.453
-23.752
-25.794
-27.589
-29.148
-30.48
-31.594
-32.496
-33.192
-33.693
-34.007
-34.148
-34.128
-33.962
-33.664
-33.247
-32.726
-32.111
-31.413
-30.641
-29.802
-28.905
-27.958
-26.967
-25.942
-24.89
-23.818
-22.735
-21.647
-20.561
-19.483
-18.418
-17.369
-16.342
-15.339
-14.363
-13.416
-12.502
-11.621
-10.775
-9.966
-9.193
-8.459
-7.763
-7.106
-6.488
-5.908
-5.367
-4.863
-4.398
-3.97
-3.579
-3.226
-2.91
-2.631
-2.39
-2.185
-2.017
-1.884
-1.787
-1.724
-1.694
-1.697
-1.732
-1.799
-1.895
-2.021
-2.176
-2.358
-2.567
-2.801
-3.06
-3.342
-3.645
-3.969
-4.312
-4.672
-5.049
-5.441
-5.846
-6.263
-6.689
-7.124
-7.566
-8.012
-8.462
-8.912
-9.362
-9.81
-10.255
-10.695
-11.129
-11.557
-11.976
-12.387
-12.79
-13.182
-13.565
-13.937
-14.3
-14.652
-14.994
-15.327
-15.652
-15.967
-16.275
-16.575
-16.868
-17.154
-17.433
-17.706
-17.972
-18.232
-18.486
-18.734
-18.977
-19.214
-19.445
-19.67
-19.889
-20.1
-20.303
-20.497
-20.679
-20.848
-21.003
-21.141
-21.261
-21.36
-21.434
-21.482
-21.501
-21.488
-21.438
-21.35
-21.22
-21.046
-20.825
-20.555
-20.236
-19.866
-19.445
-18.975
-18.453
-17.883
-17.264
-16.598
-15.887
-15.131
-14.334
-13.495
-12.619
-11.708
-10.766
-9.797
-8.805
-7.795
-6.772
-5.742
-4.711
-3.683
-2.66
-1.646
-0.643
0.341
1.301
2.23
3.129
3.996
4.831
5.635
6.412
7.171
7.93
8.71
9.526
10.389
11.302
12.271
13.303
14.409
15.597
16.87
18.221
19.643
21.132
22.678
24.257
25.829
27.322
28.658
29.77
30.6
31.1
31.239
30.968
30.229
28.974
27.156
24.75
21.753
18.127
13.809
8.832
3.345
-2.37
-7.898
-12.878
-17.06
-20.152
-21.782
-21.742
-20.103
-17.258
-13.953
-10.91
-8.519
-7.146
-7.348
-9.385
-12.992
-17.398
-21.14
-22.593
-20.662
-14.203
-1.624
18.185
45.623
80.35
120.778
164.744
210.247
254.501
293.555
323.48
340.593
341.785
325.052
288.996
232.839
157.15
65.509
-37.33
-147.51
-259.92
-371.507
-479.059
-573.951
-649.755
-700.405
-720.502
-713.873
-684.764
-637.563
-579.573
-512.881
-439.964
-365.163
-290.845
-221.381
-160.879
-111.054
-72.913
-46.023
-28.604
-18.819
-14.919
-14.637
-15.804
-16.58
-15.347
-11.46
-5.153
3.086
12.602
22.488
31.899
39.98
45.869
49.3
50.453
49.666
47.471
44.393
40.891
37.483
34.686
32.789
31.9
32.008
32.988
34.732
37.152
40.122
43.506
47.18
51.04
54.998
58.984
62.924
66.731
70.323
73.621
76.559
79.1
81.237
82.985
84.369
85.429
86.208
86.757
87.138
87.41
87.626
87.833
88.073
88.391
88.832
89.442
90.264
91.327
92.65
94.246
96.12
98.277
100.715
103.424
106.391
109.601
113.048
116.726
120.626
124.734
129.03
133.494
138.101
142.828
147.646
152.516
157.402
162.268
167.088
171.846
176.524
181.1
185.555
189.862
194.008
197.991
201.809
205.454
208.926
212.22
215.349
218.345
221.231
224.025
226.731
229.328
231.802
234.139
236.32
238.328
240.127
241.655
242.861
243.701
244.127
244.098
243.554
242.411
240.597
238.047
234.723
230.62
225.731
220.051
213.588
206.349
198.375
189.739
180.514
170.77
160.586
150.031
139.207
128.24
117.256
106.382
95.722
85.347
75.333
65.753
56.675
48.172
40.284
33.017
26.376
20.357
14.954
10.162
5.948
2.25
-1.001
-3.887
-6.469
-8.786
-10.884
-12.808
-14.607
-16.337
-18.034
-19.711
-21.381
-23.053
-24.736
-26.444
-28.17
-29.888
-31.567
-33.167
-34.662
-36.043
-37.298
-38.418
-39.393
-40.205
-40.853
-41.348
-41.696
-41.907
-41.987
-41.94
-41.781
-41.534
-41.224
-40.879
-40.521
-40.161
-39.813
-39.489
-39.196
-38.945
-38.737
-38.571
-38.446
-38.363
-38.323
-38.328
-38.376
-38.463
-38.582
-38.73
-38.901
-39.093
-39.302
-39.525
-39.759
-40.004
-40.259
-40.524
-40.8
-41.084
-41.375
-41.671
-41.971
-42.273
-42.577
-42.88
-43.182
-43.482
-43.781
-44.078
-44.373
-44.667
-44.96
-45.253
-45.545
-45.839
-46.133
-46.431
-46.731
-47.035
-47.345
-47.66
-47.983
-48.313
-48.652
-48.999
-49.356
-49.722
-50.096
-50.48
-50.872
-51.273
-51.683
-52.101
-52.527
-52.96
-53.4
-53.847
-54.299
-54.756
-55.217
-55.681
-56.145
-56.61
-57.074
-57.535
-57.993
-58.447
-58.895
-59.336
-59.77
-60.196
-60.614
-61.023
-61.422
-61.812
-62.192
-62.562
-62.923
-63.275
-63.618
-63.953
-64.28
-64.6
-64.912
-65.217
-65.515
-65.806
-66.091
-66.368
-66.638
-66.901
-67.156
-67.404
-67.644
-67.877
-68.101
-68.316
-68.521
-68.716
-68.899
-69.07
-69.227
-69.368
-69.491
-69.594
-69.677
-69.735
-69.767
-69.77
-69.742
-69.679
-69.579
-69.44
-69.259
-69.033
-68.763
-68.445
-68.081
-67.669
-67.21
-66.705
-66.157
-65.566
-64.934
-64.263
-63.557
-62.817
-62.047
-61.248
-60.425
-59.58
-58.719
-57.846
-56.967
-56.086
-55.208
-54.337
-53.48
-52.643
-51.832
-51.049
-50.297
-49.58
-48.902
-48.272
-47.692
-47.162
-46.677
-46.233
-45.826
-45.45
-45.097
-44.748
-44.387
-43.995
-43.561
-43.08
-42.546
-41.953
-41.286
-40.531
-39.681
-38.743
-37.727
-36.646
-35.507
-34.324
-33.129
-31.977
-30.928
-30.045
-29.377
-28.959
-28.83
-29.02
-29.573
-30.543
-31.969
-33.881
-36.295
-39.206
-42.64
-46.661
-51.218
-56.142
-61.161
-65.852
-69.834
-72.861
-74.61
-74.683
-72.925
-69.423
-64.587
-59.366
-54.664
-51.069
-49.259
-49.845
-52.97
-58.389
-65.207
-71.503
-75.29
-74.856
-68.209
-53.672
-30.245
2.49
43.764
91.373
142.591
194.192
241.882
281.225
307.989
318.289
309.305
279.395
227.922
155.339
65.071
-38.113
-150.213
-265.722
-381.233
-493.453
-593.691
-675.196
-731.491
-756.883
-755.076
-730.359
-686.993
-631.996
-567.325
-495.495
-421.05
-346.488
-276.1
-213.91
-161.775
-121.006
-91.454
-71.536
-59.456
-53.576
-51.869
-52.31
-53.048
-52.266
-49.06
-43.508
-36.014
-27.111
-17.568
-8.14
0.324
6.814
10.918
12.768
12.669
11.133
8.686
5.759
2.894
0.703
-0.488
-0.564
0.467
2.446
5.247
8.792
12.939
17.525
22.411
27.465
32.588
37.713
42.746
47.583
52.126
56.272
59.968
63.196
65.958
68.278
70.187
71.723
72.938
73.895
74.653
75.273
75.807
76.304
76.817
77.402
78.114
79.01
80.126
81.487
83.107
84.996
87.158
89.594
92.296
95.252
98.452
101.893
105.574
109.492
113.632
117.975
122.496
127.169
131.973
136.881
141.863
146.892
151.947
157.015
162.096
167.182
172.253
177.283
182.235
187.082
191.809
196.402
200.851
205.148
209.279
213.246
217.067
220.739
224.244
227.545
230.575
233.289
235.658
237.659
239.285
240.518
241.33
241.7
241.613
241.048
239.991
238.407
236.242
233.477
230.117
226.197
221.788
216.945
211.702
206.099
200.167
193.943
187.473
180.792
173.923
166.901
159.766
152.573
145.4
138.297
131.292
124.394
117.587
110.867
104.243
97.718
91.297
84.987
78.789
72.721
66.808
61.066
55.504
50.12
44.899
39.838
34.945
30.23
25.714
21.411
17.327
13.472
9.857
6.485
3.36
0.474
-2.186
-4.63
-6.866
-8.901
-10.737
-12.383
-13.848
-15.143
-16.28
-17.269
-18.122
-18.852
-19.472
-19.995
-20.432
-20.791
-21.08
-21.307
-21.479
-21.604
-21.689
-21.74
-21.765
-21.768
-21.758
-21.738
-21.714
-21.69
-21.668
-21.651
-21.641
-21.64
-21.649
-21.669
-21.7
-21.741
-21.794
-21.858
-21.931
-22.014
-22.106
-22.205
-22.312
-22.424
-22.541
-22.662
-22.786
-22.913
-23.041
-23.172
-23.303
-23.436
-23.571
-23.708
-23.848
-23.991
-24.138
-24.289
-24.446
-24.609
-24.779
-24.959
-25.148
-25.349
-25.563
-25.79
-26.034
-26.294
-26.572
-26.869
-27.186
-27.523
-27.881
-28.261
-28.663
-29.087
-29.532
-30.0
-30.489
-30.998
-31.528
-32.077
-32.644
-33.228
-33.827
-34.44
-35.065
-35.699
-36.342
-36.99
-37.643
-38.297
-38.951
-39.603
-40.251
-40.892
-41.526
-42.149
-42.761
-43.361
-43.945
-44.515
-45.068
-45.605
-46.123
-46.624
-47.106
-47.57
-48.015
-48.441
-48.849
-49.239
-49.61
-49.962
-50.297
-50.613
-50.912
-51.193
-51.457
-51.704
-51.934
-52.148
-52.345
-52.526
-52.69
-52.837
-52.967
-53.079
-53.173
-53.246
-53.299
-53.331
-53.339
-53.322
-53.278
-53.205
-53.101
-52.964
-52.792
-52.583
-52.334
-52.045
-51.713
-51.338
-50.92
-50.46
-49.957
-49.413
-48.83
-48.208
-47.55
-46.859
-46.136
-45.384
-44.606
-43.804
-42.983
-42.147
-41.301
-40.45
-39.598
-38.751
-37.914
-37.094
-36.295
-35.525
-34.787
-34.084
-33.421
-32.803
-32.239
-31.734
-31.286
-30.894
-30.555
-30.265
-30.019
-29.806
-29.61
-29.412
-29.196
-28.949
-28.667
-28.342
-27.967
-27.527
-27.006
-26.399
-25.71
-24.947
-24.121
-23.241
-22.321
-21.397
-20.525
-19.764
-19.175
-18.803
-18.68
-18.846
-19.326
-20.162
-21.402
-23.075
-25.209
-27.817
-30.892
-34.457
-38.553
-43.116
-47.978
-52.878
-57.441
-61.346
-64.373
-66.24
-66.597
-65.256
-62.301
-58.124
-53.449
-48.991
-45.171
-42.406
-41.287
-42.129
-44.718
-48.322
-51.548
-52.789
-50.893
-44.685
-32.575
-13.408
13.208
46.957
86.366
129.235
173.43
216.145
253.427
281.408
296.67
296.032
277.346
239.611
182.242
106.924
18.363
-79.591
-183.47
-290.216
-399.162
-504.722
-597.05
-667.385
-706.469
-713.098
-694.5
-657.614
-610.833
-558.826
-500.765
-438.024
-372.529
-306.793
-245.742
-192.481
-148.21
-113.69
-88.282
-70.605
-59.502
-53.623
-51.106
-50.32
-49.81
-48.126
-44.669
-39.535
-32.924
-25.273
-17.283
-9.545
-2.758
2.277
5.326
6.529
6.136
4.604
2.386
-0.146
-2.519
-4.221
-4.998
-4.758
-3.519
-1.428
1.409
4.91
8.942
13.358
18.028
22.838
27.7
32.553
37.315
41.895
46.207
50.162
53.717
56.853
59.575
61.906
63.878
65.526
66.901
68.06
69.058
69.948
70.778
71.585
72.414
73.312
74.324
75.497
76.866
78.45
80.266
82.32
84.618
87.163
89.95
92.965
96.197
99.639
103.287
107.138
111.187
115.416
119.81
124.349
129.013
133.783
138.627
143.51
148.394
153.251
158.061
162.815
167.496
172.086
176.566
180.915
185.127
189.2
193.127
196.896
200.499
203.937
207.233
210.423
213.535
216.574
219.523
222.357
225.059
227.608
229.98
232.137
234.019
235.577
236.781
237.608
238.032
238.002
237.441
236.26
234.4
231.833
228.564
224.602
219.947
214.613
208.634
202.066
194.996
187.481
179.547
171.23
162.578
153.677
144.653
135.625
126.677
117.874
109.257
100.87
92.772
84.999
77.565
70.465
63.683
57.232
51.164
45.51
40.273
35.427
30.903
26.652
22.655
18.894
15.357
12.029
8.88
5.902
3.109
0.511
-1.884
-4.092
-6.161
-8.116
-9.961
-11.684
-13.249
-14.639
-15.853
-16.89
-17.742
-18.407
-18.88
-19.17
-19.303
-19.298
-19.165
-18.906
-18.511
-17.979
-17.324
-16.563
-15.723
-14.823
-13.876
-12.898
-11.909
-10.924
-9.958
-9.014
-8.092
-7.194
-6.325
-5.492
-4.704
-3.965
-3.277
-2.64
-2.056
-1.522
-1.038
-0.601
-0.207
0.148
0.465
0.746
0.989
1.197
1.37
1.511
1.621
1.703
1.758
1.79
1.802
1.797
1.778
1.745
1.702
1.651
1.592
1.527
1.457
1.384
1.307
1.227
1.144
1.057
0.966
0.87
0.768
0.658
0.538
0.407
0.263
0.104
-0.073
-0.268
-0.483
-0.72
-0.98
-1.264
-1.573
-1.907
-2.268
-2.655
-3.07
-3.512
-3.982
-4.479
-5.002
-5.551
-6.125
-6.721
-7.338
-7.973
-8.624
-9.286
-9.957
-10.634
-11.311
-11.986
-12.652
-13.305
-13.941
-14.553
-15.137
-15.688
-16.202
-16.673
-17.098
-17.473
-17.796
-18.064
-18.277
-18.433
-18.533
-18.576
-18.563
-18.494
-18.373
-18.199
-17.977
-17.707
-17.392
-17.038
-16.65
-16.234
-15.795
-15.341
-14.879
-14.415
-13.958
-13.516
-13.096
-12.705
-12.35
-12.039
-11.779
-11.583
-11.457
-11.403
-11.422
-11.512
-11.668
-11.887
-12.159
-12.467
-12.799
-13.141
-13.48
-13.814
-14.133
-14.43
-14.693
-14.907
-15.061
-15.16
-15.206
-15.209
-15.186
-15.147
-15.122
-15.163
-15.314
-15.622
-16.139
-16.891
-17.912
-19.244
-20.907
-22.942
-25.384
-28.25
-31.563
-35.336
-39.545
-44.198
-49.309
-54.783
-60.458
-66.092
-71.327
-75.864
-79.491
-81.931
-82.833
-82.012
-79.535
-75.739
-71.303
-66.899
-62.885
-59.68
-57.92
-57.98
-59.767
-62.689
-65.404
-66.366
-64.617
-59.039
-47.834
-29.659
-3.883
29.553
68.205
109.018
151.046
191.542
228.817
261.45
282.145
285.743
267.223
221.247
151.82
63.937
-36.721
-141.577
-247.772
-352.696
-451.639
-541.044
-615.49
-670.319
-703.859
-715.776
-707.02
-679.308
-635.093
-577.868
-511.742
-441.112
-369.945
-301.503
-238.825
-184.566
-140.43
-106.94
-83.519
-68.757
-61.015
-58.537
-59.214
-60.853
-61.481
-59.932
-55.942
-49.748
-41.845
-32.891
-23.712
-15.307
-8.733
-4.515
-2.616
-2.769
-4.494
-7.283
-10.682
-14.111
-16.938
-18.804
-19.578
-19.257
-17.983
-15.872
-12.99
-9.474
-5.482
-1.147
3.401
8.071
12.796
17.479
22.011
26.286
30.199
33.691
36.742
39.344
41.517
43.288
44.691
45.776
46.601
47.22
47.69
48.062
48.382
48.705
49.087
49.581
50.246
51.119
52.228
53.593
55.226
57.128
59.304
61.748
64.453
67.417
70.636
74.099
77.799
81.719
85.842
90.149
94.61
99.192
103.862
108.59
113.352
118.139
122.933
127.717
132.473
137.179
141.823
146.403
150.912
155.34
159.68
163.925
168.088
172.2
176.279
180.333
184.353
188.307
192.174
195.933
199.549
202.989
206.205
209.131
211.732
213.976
215.824
217.235
218.141
218.451
218.1
217.037
215.232
212.68
209.374
205.311
200.522
195.047
188.936
182.253
175.023
167.269
159.042
150.398
141.423
132.229
122.91
113.557
104.268
95.119
86.181
77.519
69.159
61.123
53.433
46.11
39.209
32.78
26.844
21.415
16.486
12.027
8.015
4.408
1.138
-1.847
-4.591
-7.129
-9.467
-11.615
-13.594
-15.425
-17.149
-18.803
-20.404
-21.971
-23.518
-25.046
-26.551
-28.011
-29.381
-30.628
-31.733
-32.682
-33.48
-34.129
-34.623
-34.961
-35.141
-35.16
-35.024
-34.734
-34.288
-33.696
-32.968
-32.127
-31.204
-30.227
-29.211
-28.173
-27.121
-26.063
-25.009
-23.965
-22.932
-21.911
-20.906
-19.919
-18.959
-18.026
-17.123
-16.247
-15.395
-14.565
-13.757
-12.97
-12.203
-11.457
-10.732
-10.031
-9.356
-8.71
-8.094
-7.509
-6.956
-6.433
-5.941
-5.481
-5.052
-4.653
-4.283
-3.944
-3.634
-3.355
-3.106
-2.886
-2.696
-2.534
-2.402
-2.298
-2.222
-2.173
-2.152
-2.157
-2.189
-2.247
-2.33
-2.438
-2.57
-2.725
-2.903
-3.102
-3.322
-3.561
-3.818
-4.093
-4.385
-4.692
-5.015
-5.353
-5.705
-6.072
-6.452
-6.845
-7.25
-7.668
-8.098
-8.54
-8.993
-9.457
-9.933
-10.419
-10.917
-11.425
-11.943
-12.47
-13.007
-13.552
-14.103
-14.661
-15.225
-15.792
-16.362
-16.934
-17.506
-18.077
-18.645
-19.209
-19.765
-20.313
-20.85
-21.372
-21.878
-22.364
-22.829
-23.268
-23.68
-24.061
-24.407
-24.716
-24.984
-25.208
-25.385
-25.512
-25.588
-25.609
-25.576
-25.486
-25.341
-25.141
-24.887
-24.58
-24.221
-23.814
-23.36
-22.862
-22.323
-21.746
-21.133
-20.49
-19.821
-19.132
-18.429
-17.717
-17.0
-16.286
-15.58
-14.89
-14.221
-13.575
-12.958
-12.374
-11.829
-11.331
-10.883
-10.486
-10.136
-9.831
-9.567
-9.338
-9.134
-8.938
-8.734
-8.504
-8.239
-7.932
-7.575
-7.158
-6.672
-6.1
-5.439
-4.694
-3.869
-2.972
-2.014
-1.008
0.013
0.998
1.895
2.647
3.204
3.53
3.585
3.339
2.755
1.789
0.408
-1.418
-3.711
-6.478
-9.741
-13.551
-17.877
-22.575
-27.405
-32.008
-36.032
-39.219
-41.273
-41.818
-40.627
-37.76
-33.597
-28.879
-24.421
-20.749
-18.339
-17.852
-19.657
-23.543
-28.748
-33.763
-36.75
-36.371
-31.303
-19.777
-0.53
26.927
62.315
103.999
149.617
197.014
243.328
284.515
316.661
336.117
339.656
325.356
291.855
238.048
165.242
77.506
-20.79
-125.49
-234.905
-349.29
-465.111
-574.089
-663.496
-720.712
-740.307
-725.413
-686.324
-634.094
-575.924
-514.531
-449.09
-379.911
-309.552
-242.05
-182.217
-133.026
-95.282
-68.525
-51.094
-41.11
-37.016
-36.766
-38.25
-39.626
-39.204
-36.245
-30.894
-23.555
-14.803
-5.456
3.682
11.738
17.764
21.408
22.814
22.29
20.34
17.466
14.091
10.732
7.944
6.052
5.176
5.317
6.341
8.135
10.626
13.698
17.213
21.052
25.102
29.272
33.497
37.707
41.814
45.734
49.379
52.676
55.588
58.105
60.238
62.012
63.46
64.62
65.541
66.282
66.898
67.441
67.956
68.483
69.065
69.747
70.572
71.585
72.815
74.281
75.994
77.959
80.178
82.651
85.367
88.315
91.483
94.859
98.433
102.197
106.144
110.268
114.557
118.989
123.545
128.198
132.922
137.693
142.485
147.263
152.003
156.683
161.291
165.825
170.274
174.618
178.833
182.884
186.748
190.411
193.866
197.108
200.132
202.934
205.522
207.917
210.125
212.131
213.905
215.385
216.533
217.324
217.742
217.785
217.44
216.683
215.499
213.879
211.806
209.268
206.238
202.664
198.531
193.849
188.656
183.028
177.021
170.675
164.03
157.12
149.984
142.671
135.215
127.641
119.985
112.286
104.601
97.006
89.554
82.27
75.164
68.219
61.429
54.804
48.347
42.061
35.95
30.018
24.278
18.756
13.465
8.412
3.594
-1.008
-5.398
-9.573
-13.523
-17.232
-20.688
-23.889
-26.828
-29.499
-31.9
-34.032
-35.906
-37.54
-38.946
-40.137
-41.121
-41.906
-42.501
-42.922
-43.181
-43.293
-43.272
-43.134
-42.893
-42.567
-42.17
-41.717
-41.217
-40.682
-40.119
-39.54
-38.953
-38.367
-37.789
-37.227
-36.686
-36.175
-35.699
-35.262
-34.867
-34.517
-34.214
-33.958
-33.75
-33.591
-33.478
-33.412
-33.39
-33.411
-33.473
-33.573
-33.71
-33.879
-34.079
-34.306
-34.557
-34.83
-35.12
-35.426
-35.744
-36.072
-36.408
-36.75
-37.095
-37.443
-37.792
-38.14
-38.487
-38.832
-39.174
-39.512
-39.846
-40.177
-40.506
-40.831
-41.155
-41.478
-41.802
-42.126
-42.452
-42.78
-43.112
-43.448
-43.789
-44.135
-44.487
-44.845
-45.21
-45.582
-45.961
-46.347
-46.739
-47.139
-47.545
-47.957
-48.375
-48.799
-49.227
-49.659
-50.096
-50.536
-50.979
-51.425
-51.872
-52.322
-52.771
-53.22
-53.669
-54.115
-54.559
-55.0
-55.436
-55.868
-56.294
-56.715
-57.13
-57.538
-57.94
-58.335
-58.723
-59.104
-59.478
-59.844
-60.203
-60.553
-60.895
-61.228
-61.551
-61.864
-62.165
-62.453
-62.727
-62.984
-63.224
-63.444
-63.642
-63.818
-63.968
-64.093
-64.191
-64.261
-64.303
-64.318
-64.305
-64.266
-64.2
-64.108
-63.99
-63.848
-63.681
-63.491
-63.279
-63.045
-62.793
-62.524
-62.243
-61.951
-61.652
-61.347
-61.042
-60.738
-60.441
-60.153
-59.877
-59.616
-59.375
-59.161
-58.979
-58.829
-58.708
-58.611
-58.532
-58.465
-58.401
-58.324
-58.22
-58.076
-57.878
-57.623
-57.303
-56.911
-56.439
-55.87
-55.197
-54.424
-53.56
-52.619
-51.624
-50.595
-49.56
-48.576
-47.691
-46.958
-46.438
-46.167
-46.183
-46.531
-47.237
-48.345
-49.903
-51.934
-54.467
-57.518
-61.06
-65.101
-69.676
-74.7
-80.015
-85.368
-90.35
-94.61
-97.908
-99.928
-100.302
-98.864
-95.679
-91.136
-86.11
-81.437
-77.677
-75.421
-75.24
-77.35
-81.548
-87.019
-92.041
-94.727
-93.519
-86.767
-72.941
-51.03
-20.573
17.96
62.734
111.203
160.502
207.016
246.759
275.741
290.078
286.596
263.296
219.237
154.666
71.386
-27.44
-137.425
-253.255
-369.159
-479.159
-577.504
-659.254
-720.581
-759.104
-774.008
-765.646
-735.655
-687.128
-624.186
-551.506
-474.0
-396.127
-321.761
-254.535
-197.283
-151.625
-117.865
-95.077
-81.537
-75.316
-74.292
-75.987
-77.986
-78.251
-75.675
-70.156
-62.097
-52.149
-41.122
-29.992
-19.858
-11.813
-6.374
-3.467
-2.767
-3.744
-5.86
-8.628
-11.462
-13.745
-15.101
-15.389
-14.605
-12.881
-10.335
-7.04
-3.123
1.271
6.012
10.977
16.071
21.221
26.341
31.331
36.095
40.538
44.58
48.181
51.327
54.025
56.302
58.189
59.724
60.958
61.95
62.756
63.432
64.027
64.587
65.163
65.807
66.571
67.503
68.638
70.0
71.603
73.457
75.566
77.928
80.538
83.385
86.465
89.776
93.314
97.071
101.036
105.194
109.526
114.008
118.609
123.291
128.02
132.773
137.529
142.278
147.006
151.7
156.347
160.934
165.448
169.882
174.22
178.445
182.549
186.533
190.413
194.226
197.988
201.696
205.337
208.884
212.305
215.567
218.623
221.408
223.872
225.964
227.649
228.909
229.709
230.003
229.736
228.832
227.242
224.947
221.938
218.221
213.822
208.775
203.144
197.021
190.484
183.6
176.423
168.993
161.36
153.591
145.757
137.938
130.202
122.596
115.167
107.954
100.979
94.254
87.768
81.483
75.377
69.443
63.679
58.095
52.697
47.481
42.445
37.588
32.908
28.409
24.089
19.943
15.978
12.201
8.631
5.295
2.213
-0.608
-3.163
-5.454
-7.485
-9.26
-10.787
-12.081
-13.154
-14.019
-14.685
-15.163
-15.463
-15.6
-15.592
-15.455
-15.208
-14.864
-14.438
-13.945
-13.397
-12.806
-12.182
-11.533
-10.866
-10.192
-9.517
-8.851
-8.201
-7.574
-6.977
-6.415
-5.892
-5.414
-4.983
-4.6
-4.267
-3.983
-3.75
-3.566
-3.43
-3.34
-3.294
-3.29
-3.326
-3.397
-3.502
-3.637
-3.798
-3.983
-4.187
-4.408
-4.643
-4.887
-5.139
-5.395
-5.653
-5.91
-6.164
-6.412
-6.653
-6.885
-7.105
-7.313
-7.506
-7.683
-7.845
-7.989
-8.117
-8.228
-8.322
-8.399
-8.46
-8.505
-8.536
-8.551
-8.553
-8.541
-8.517
-8.481
-8.434
-8.377
-8.31
-8.234
-8.151
-8.059
-7.961
-7.857
-7.747
-7.633
-7.515
-7.394
-7.271
-7.146
-7.021
-6.897
-6.774
-6.654
-6.538
-6.426
-6.32
-6.221
-6.13
-6.048
-5.977
-5.918
-5.872
-5.84
-5.825
-5.826
-5.846
-5.886
-5.946
-6.028
-6.132
-6.259
-6.408
-6.581
-6.778
-6.998
-7.241
-7.506
-7.793
-8.1
-8.426
-8.769
-9.126
-9.495
-9.874
-10.259
-10.648
-11.036
-11.421
-11.797
-12.161
-12.508
-12.833
-13.131
-13.397
-13.626
-13.813
-13.953
-14.042
-14.076
-14.052
-13.967
-13.819
-13.607
-13.329
-12.983
-12.57
-12.089
-11.541
-10.926
-10.245
-9.5
-8.692
-7.827
-6.909
-5.942
-4.931
-3.883
-2.801
-1.693
-0.567
0.572
1.718
2.865
4.005
5.13
6.227
7.289
8.313
9.298
10.244
11.153
12.029
12.88
13.722
14.567
15.429
16.318
17.239
18.197
19.201
20.262
21.393
22.599
23.874
25.209
26.589
27.998
29.411
30.79
32.073
33.202
34.121
34.766
35.094
35.056
34.606
33.713
32.34
30.451
28.028
25.058
21.522
17.445
12.832
7.664
2.06
-3.784
-9.602
-14.982
-19.568
-23.123
-25.306
-25.714
-24.27
-21.099
-16.618
-11.729
-7.101
-3.087
-0.292
0.702
-0.138
-2.555
-5.641
-7.58
-6.981
-2.829
6.365
21.909
44.476
74.371
110.799
151.664
194.995
238.566
279.075
312.898
336.47
346.391
339.983
315.471
271.635
208.124
127.097
33.161
-69.86
-178.454
-289.866
-403.386
-512.856
-608.147
-680.234
-719.359
-724.195
-701.797
-658.925
-604.301
-543.049
-474.845
-401.597
-325.757
-250.685
-182.225
-124.274
-78.457
-45.175
-23.159
-10.555
-5.643
-6.287
-9.838
-13.768
-15.956
-15.225
-11.432
-4.948
3.621
13.458
23.519
32.653
39.739
44.239
46.229
46.037
44.197
41.254
37.714
34.172
31.238
29.281
28.424
28.658
29.834
31.825
34.546
37.864
41.63
45.716
50.003
54.396
58.824
63.198
67.422
71.402
75.05
78.293
81.095
83.445
85.357
86.859
87.989
88.787
89.305
89.602
89.738
89.77
89.751
89.728
89.751
89.871
90.137
90.596
91.279
92.206
93.389
94.834
96.546
98.523
100.762
103.252
105.983
108.948
112.139
115.549
119.168
122.983
126.978
131.137
135.444
139.884
144.438
149.088
153.815
158.596
163.413
168.245
173.067
177.857
182.589
187.236
191.775
196.177
200.42
204.476
208.321
211.933
215.288
218.367
221.149
223.617
225.752
227.539
228.966
230.019
230.688
230.964
230.841
230.313
229.378
228.035
226.285
224.13
221.576
218.63
215.301
211.599
207.537
203.129
198.391
193.34
187.995
182.376
176.503
170.4
164.088
157.593
150.937
144.146
137.244
130.257
123.209
116.124
109.027
101.942
94.892
87.899
80.985
74.172
67.479
60.925
54.528
48.304
42.269
36.436
30.817
25.423
20.264
15.346
10.677
6.26
2.1
-1.802
-5.446
-8.834
-11.966
-14.848
-17.484
-19.88
-22.043
-23.982
-25.705
-27.222
-28.543
-29.678
-30.639
-31.437
-32.084
-32.592
-32.972
-33.237
-33.398
-33.468
-33.457
-33.377
-33.238
-33.051
-32.824
-32.567
-32.289
-31.997
-31.699
-31.402
-31.11
-30.831
-30.568
-30.325
-30.106
-29.914
-29.751
-29.618
-29.517
-29.447
-29.41
-29.405
-29.431
-29.487
-29.572
-29.685
-29.823
-29.985
-30.168
-30.369
-30.587
-30.819
-31.061
-31.313
-31.571
-31.832
-32.095
-32.358
-32.618
-32.873
-33.122
-33.363
-33.595
-33.815
-34.024
-34.219
-34.4
-34.567
-34.717
-34.852
-34.97
-35.072
-35.157
-35.225
-35.276
-35.31
-35.327
-35.328
-35.313
-35.283
-35.239
-35.18
-35.109
-35.025
-34.931
-34.827
-34.714
-34.594
-34.467
-34.336
-34.201
-34.064
-33.927
-33.789
-33.654
-33.521
-33.394
-33.273
-33.16
-33.056
-32.964
-32.884
-32.819
-32.77
-32.739
-32.728
-32.738
-32.772
-32.832
-32.918
-33.033
-33.178
-33.354
-33.564
-33.807
-34.085
-34.397
-34.744
-35.126
-35.542
-35.991
-36.473
-36.987
-37.531
-38.104
-38.704
-39.329
-39.977
-40.646
-41.332
-42.033
-42.746
-43.467
-44.192
-44.918
-45.641
-46.356
-47.06
-47.747
-48.412
-49.052
-49.659
-50.231
-50.76
-51.243
-51.676
-52.054
-52.374
-52.633
-52.829
-52.96
-53.027
-53.029
-52.967
-52.84
-52.65
-52.399
-52.088
-51.719
-51.295
-50.818
-50.293
-49.724
-49.119
-48.482
-47.821
-47.141
-46.45
-45.754
-45.061
-44.378
-43.709
-43.063
-42.446
-41.868
-41.34
-40.87
-40.458
-40.107
-39.813
-39.57
-39.371
-39.206
-39.059
-38.916
-38.766
-38.601
-38.417
-38.206
-37.96
-37.669
-37.319
-36.901
-36.417
-35.872
-35.273
-34.644
-34.007
-33.391
-32.844
-32.407
-32.114
-32.003
-32.107
-32.451
-33.069
-33.994
-35.243
-36.847
-38.828
-41.2
-43.983
-47.172
-50.735
-54.66
-58.943
-63.516
-68.247
-72.914
-77.184
-80.759
-83.423
-84.919
-84.912
-83.196
-79.832
-75.164
-69.893
-64.793
-60.323
-56.89
-55.146
-55.513
-57.882
-61.682
-65.568
-67.764
-67.115
-62.658
-52.689
-35.702
-11.035
21.586
60.282
101.103
142.256
182.459
220.193
256.151
286.127
301.509
294.892
258.125
190.012
98.657
-6.204
-115.113
-223.244
-331.915
-442.957
-552.348
-650.459
-726.128
-768.847
-777.302
-758.527
-719.784
-669.633
-612.655
-548.342
-478.599
-405.845
-333.02
-265.38
-206.322
-157.308
-119.304
-91.7
-72.972
-61.752
-56.505
-55.164
-55.879
-56.965
-56.731
-54.443
-50.184
-44.18
-36.908
-29.119
-21.456
-14.698
-9.758
-6.931
-6.075
-6.906
-8.922
-11.628
-14.631
-17.422
-19.447
-20.425
-20.262
-18.987
-16.774
-13.751
-10.013
-5.709
-1.002
3.962
9.056
14.18
19.264
24.218
28.947
33.359
37.367
40.923
44.015
46.647
48.849
50.654
52.101
53.243
54.137
54.84
55.407
55.889
56.331
56.784
57.296
57.918
58.698
59.671
60.86
62.281
63.938
65.833
67.969
70.343
72.951
75.789
78.848
82.12
85.597
89.264
93.107
97.1
101.212
105.412
109.67
113.966
118.288
122.623
126.955
131.27
135.552
139.791
143.994
148.158
152.277
156.347
160.364
164.339
168.302
172.274
176.268
180.28
184.283
188.253
192.167
195.992
199.686
203.192
206.426
209.326
211.843
213.928
215.536
216.606
217.05
216.803
215.82
214.075
211.571
208.31
204.296
199.561
194.156
188.152
181.652
174.734
167.458
159.887
152.081
144.115
136.086
128.07
120.122
112.293
104.617
97.128
89.865
82.842
76.052
69.477
63.082
56.847
50.773
44.855
39.093
33.482
28.005
22.66
17.457
12.402
7.502
2.763
-1.817
-6.225
-10.441
-14.443
-18.205
-21.709
-24.95
-27.923
-30.624
-33.054
-35.213
-37.11
-38.758
-40.17
-41.355
-42.325
-43.087
-43.655
-44.046
-44.275
-44.36
-44.316
-44.156
-43.896
-43.549
-43.128
-42.644
-42.108
-41.527
-40.912
-40.272
-39.618
-38.957
-38.299
-37.652
-37.024
-36.422
-35.852
-35.318
-34.827
-34.38
-33.98
-33.629
-33.329
-33.08
-32.884
-32.738
-32.644
-32.599
-32.603
-32.653
-32.747
-32.883
-33.057
-33.269
-33.513
-33.789
-34.093
-34.422
-34.774
-35.147
-35.537
-35.943
-36.362
-36.791
-37.228
-37.671
-38.118
-38.566
-39.014
-39.462
-39.906
-40.348
-40.785
-41.218
-41.645
-42.068
-42.485
-42.897
-43.304
-43.706
-44.105
-44.5
-44.893
-45.284
-45.674
-46.065
-46.457
-46.851
-47.248
-47.648
-48.053
-48.463
-48.88
-49.303
-49.733
-50.171
-50.617
-51.072
-51.537
-52.011
-52.494
-52.986
-53.487
-53.997
-54.515
-55.04
-55.571
-56.107
-56.646
-57.189
-57.733
-58.276
-58.817
-59.353
-59.883
-60.405
-60.914
-61.41
-61.889
-62.349
-62.786
-63.199
-63.584
-63.938
-64.26
-64.545
-64.791
-64.996
-65.157
-65.272
-65.337
-65.353
-65.317
-65.229
-65.088
-64.894
-64.647
-64.349
-64.001
-63.606
-63.165
-62.682
-62.159
-61.6
-61.008
-60.386
-59.738
-59.067
-58.379
-57.677
-56.968
-56.257
-55.548
-54.848
-54.162
-53.497
-52.856
-52.24
-51.651
-51.093
-50.568
-50.084
-49.644
-49.248
-48.895
-48.586
-48.316
-48.081
-47.867
-47.651
-47.417
-47.147
-46.83
-46.465
-46.044
-45.559
-45.0
-44.355
-43.616
-42.789
-41.872
-40.866
-39.782
-38.642
-37.492
-36.413
-35.473
-34.729
-34.232
-34.003
-34.083
-34.532
-35.398
-36.734
-38.578
-40.936
-43.848
-47.397
-51.575
-56.273
-61.263
-66.16
-70.626
-74.445
-77.351
-79.012
-79.218
-77.99
-75.654
-72.874
-70.283
-68.205
-66.92
-66.872
-68.321
-71.1
-74.577
-77.481
-78.359
-76.26
-70.263
-59.02
-41.464
-17.028
14.26
51.149
91.758
134.407
176.774
215.465
246.909
267.343
273.329
262.823
234.36
186.835
120.639
37.803
-58.316
-162.879
-270.62
-376.656
-475.538
-561.908
-631.446
-680.889
-708.825
-715.603
-702.138
-670.047
-622.448
-563.204
-496.65
-427.35
-358.653
-293.267
-234.09
-183.416
-142.562
-111.841
-90.283
-76.237
-68.481
-65.578
-65.532
-66.388
-66.245
-63.971
-59.523
-53.25
-45.481
-36.743
-27.768
-19.439
-12.836
-8.517
-6.415
-6.259
-7.598
-9.966
-12.962
-16.064
-18.663
-20.381
-21.076
-20.733
-19.493
-17.478
-14.756
-11.45
-7.7
-3.627
0.653
5.054
9.513
13.952
18.285
22.427
26.292
29.813
32.957
35.716
38.106
40.163
41.922
43.427
44.729
45.886
46.955
47.988
49.034
50.135
51.337
52.688
54.237
56.027
58.089
60.443
63.101
66.072
69.357
72.953
76.853
81.043
85.516
90.264
95.281
100.552
106.061
111.787
117.706
123.794
130.018
136.34
142.724
149.133
155.538
161.922
168.262
174.536
180.721
186.789
192.723
198.518
204.165
209.653
214.978
220.13
225.12
229.974
234.707
239.329
243.837
248.207
252.417
256.45
260.278
263.878
267.214
270.228
272.873
275.11
276.887
278.161
278.871
278.93
278.275
276.85
274.616
271.566
267.702
263.022
257.545
251.292
244.29
236.599
228.279
219.387
209.999
200.189
190.051
179.709
169.282
158.886
148.63
138.59
128.829
119.415
110.401
101.843
93.802
86.304
79.368
73.012
67.234
62.035
57.397
53.27
49.594
46.297
43.316
40.611
38.154
35.912
33.854
31.943
30.134
28.405
26.739
25.119
23.536
21.977
20.44
18.942
17.518
16.209
15.045
14.042
13.205
12.537
12.044
11.734
11.613
11.674
11.911
12.315
12.88
13.601
14.468
15.458
16.541
17.685
18.864
20.058
21.253
22.437
23.597
24.722
25.805
26.844
27.838
28.783
29.673
30.505
31.276
31.986
32.641
33.243
33.796
34.302
34.762
35.18
35.556
35.893
36.189
36.445
36.66
36.835
36.973
37.077
37.148
37.188
37.201
37.189
37.155
37.1
37.026
36.936
36.83
36.709
36.576
36.43
36.274
36.107
35.93
35.744
35.548
35.342
35.126
34.898
34.66
34.409
34.145
33.867
33.575
33.268
32.945
32.606
32.25
31.877
31.485
31.076
30.647
30.198
29.73
29.242
28.733
28.205
27.658
27.093
26.51
25.913
25.301
24.677
24.042
23.4
22.752
22.1
21.449
20.8
20.157
19.525
18.905
18.303
17.721
17.165
16.638
16.143
15.685
15.268
14.895
14.57
14.298
14.082
13.924
13.83
13.8
13.837
13.944
14.12
14.368
14.685
15.072
15.527
16.048
16.633
17.278
17.98
18.735
19.538
20.385
21.271
22.191
23.137
24.105
25.086
26.075
27.063
28.045
29.012
29.956
30.87
31.746
32.582
33.371
34.109
34.791
35.408
35.956
36.437
36.85
37.197
37.48
37.704
37.877
38.018
38.143
38.269
38.404
38.553
38.722
38.921
39.163
39.464
39.828
40.255
40.743
41.29
41.894
42.547
43.219
43.856
44.397
44.792
45.002
45.008
44.788
44.307
43.511
42.345
40.77
38.754
36.29
33.335
29.803
25.691
21.118
16.336
11.713
7.576
4.117
1.552
0.217
0.314
1.793
4.293
7.063
9.397
10.961
11.496
10.603
8.071
4.108
-0.555
-4.459
-5.993
-4.079
2.214
14.082
32.556
58.137
90.654
128.842
170.749
214.6
258.29
298.799
332.649
356.39
366.939
361.894
339.509
298.553
238.589
161.633
72.215
-25.969
-129.603
-236.175
-345.315
-451.167
-543.797
-614.363
-653.208
-659.086
-639.229
-600.4
-551.107
-496.158
-434.758
-368.334
-298.95
-229.57
-165.643
-110.82
-66.679
-33.715
-10.885
3.382
10.553
12.467
11.417
9.666
9.195
11.133
15.68
22.564
31.263
41.066
51.083
60.26
67.525
72.351
74.777
75.08
73.748
71.28
68.133
64.874
62.115
60.232
59.373
59.55
60.639
62.527
65.147
68.376
72.07
76.101
80.345
84.712
89.134
93.527
97.794
101.844
105.583
108.935
111.862
114.348
116.402
118.049
119.319
120.248
120.887
121.292
121.519
121.623
121.651
121.648
121.664
121.749
121.956
122.332
122.91
123.713
124.753
126.04
127.578
129.368
131.402
133.67
136.164
138.88
141.817
144.976
148.343
151.903
155.635
159.511
163.508
167.601
171.758
175.953
180.164
184.377
188.589
192.796
196.987
201.142
205.233
209.23
213.117
216.882
220.513
224.011
227.374
230.604
233.721
236.733
239.625
242.373
244.925
247.221
249.219
250.889
252.208
253.162
253.724
253.868
253.577
252.822
251.574
249.802
247.449
244.479
240.89
236.697
231.952
226.725
221.067
215.025
208.644
201.958
195.01
187.843
180.486
172.975
165.356
157.68
150.02
142.442
134.981
127.66
120.477
113.414
106.467
99.637
92.917
86.313
79.832
73.479
67.276
61.241
55.384
49.707
44.201
38.856
33.675
28.666
23.843
19.227
14.833
10.671
6.757
3.098
-0.305
-3.45
-6.348
-9.01
-11.446
-13.664
-15.668
-17.465
-19.061
-20.469
-21.698
-22.762
-23.673
-24.445
-25.092
-25.629
-26.068
-26.42
-26.696
-26.902
-27.049
-27.146
-27.199
-27.219
-27.213
-27.189
-27.154
-27.117
-27.084
-27.061
-27.052
-27.062
-27.094
-27.151
-27.237
-27.352
-27.498
-27.678
-27.89
-28.138
-28.42
-28.736
-29.088
-29.473
-29.892
-30.344
-30.828
-31.343
-31.887
-32.46
-33.06
-33.686
-34.339
-35.016
-35.717
-36.441
-37.188
-37.957
-38.747
-39.558
-40.388
-41.238
-42.107
-42.995
-43.903
-44.829
-45.775
-46.74
-47.725
-48.729
-49.754
-50.797
-51.86
-52.942
-54.042
-55.161
-56.298
-57.452
-58.624
-59.812
-61.017
-62.238
-63.474
-64.724
-65.988
-67.265
-68.555
-69.856
-71.168
-72.489
-73.82
-75.16
-76.507
-77.86
-79.219
-80.582
-81.948
-83.315
-84.682
-86.047
-87.409
-88.766
-90.117
-91.46
-92.795
-94.119
-95.432
-96.733
-98.02
-99.292
-100.547
-101.783
-103.0
-104.195
-105.368
-106.515
-107.637
-108.73
-109.794
-110.826
-111.824
-112.785
-113.709
-114.592
-115.434
-116.232
-116.986
-117.694
-118.358
-118.978
-119.553
-120.088
-120.583
-121.039
-121.46
-121.847
-122.203
-122.531
-122.835
-123.116
-123.377
-123.625
-123.862
-124.096
-124.331
-124.572
-124.824
-125.092
-125.382
-125.701
-126.054
-126.444
-126.873
-127.347
-127.872
-128.454
-129.098
-129.802
-130.562
-131.375
-132.238
-133.144
-134.083
-135.037
-135.99
-136.927
-137.838
-138.72
-139.567
-140.371
-141.122
-141.806
-142.42
-142.968
-143.454
-143.886
-144.271
-144.62
-144.962
-145.347
-145.822
-146.441
-147.246
-148.264
-149.526
-151.054
-152.876
-155.038
-157.57
-160.502
-163.858
-167.644
-171.891
-176.66
-181.923
-187.534
-193.252
-198.71
-203.58
-207.643
-210.65
-212.27
-212.311
-210.853
-208.292
-205.372
-202.85
-201.165
-200.646
-201.767
-204.797
-209.513
-215.188
-220.414
-223.481
-223.135
-218.351
-207.877
-190.55
-165.64
-133.217
-94.378
-51.859
-9.347
31.023
67.169
97.93
124.29
142.157
144.369
124.454
74.221
-6.262
-108.184
-222.887
-339.723
-452.179
-559.974
-660.405
-749.897
-824.231
-877.694
-907.563
-913.88
-897.642
-861.078
-807.601
-741.209
-666.765
-589.482
-513.527
-442.425
-379.267
-326.345
-284.99
-255.318
-236.063
-225.186
-220.781
-220.694
-222.69
-224.731
-224.916
-222.265
-216.813
-209.036
-199.573
-189.287
-179.06
-169.838
-162.651
-157.93
-155.556
-155.205
-156.35
-158.437
-160.994
-163.46
-165.232
-165.993
-165.638
-164.181
-161.78
-158.557
-154.594
-150.033
-145.028
-139.709
-134.203
-128.602
-122.973
-117.411
-112.019
-106.898
-102.149
-97.829
-93.957
-90.533
-87.537
-84.939
-82.705
-80.785
-79.119
-77.65
-76.322
-75.084
-73.89
-72.688
-71.423
-70.038
-68.481
-66.711
-64.702
-62.436
-59.9
-57.088
-54.0
-50.641
-47.019
-43.14
-39.002
-34.609
-29.968
-25.088
-19.986
-14.677
-9.183
-3.533
2.238
8.095
14.009
19.959
25.933
31.918
37.898
43.855
49.773
55.644
61.462
67.219
72.901
78.496
84.0
89.426
94.805
100.161
105.499
110.803
116.048
121.208
126.251
131.139
135.82
140.223
144.283
147.952
151.194
153.976
156.252
157.959
159.017
159.366
158.973
157.824
155.925
153.281
149.917
145.875
141.228
136.071
130.486
124.537
118.277
111.757
105.039
98.202
91.336
84.509
77.778
71.188
64.775
58.58
52.624
46.913
41.425
36.129
31.002
26.041
21.25
16.634
12.194
7.923
3.812
-0.134
-3.909
-7.51
-10.933
-14.181
-17.248
-20.118
-22.769
-25.175
-27.318
-29.193
-30.797
-32.132
-33.2
-34.007
-34.561
-34.878
-34.974
-34.861
-34.553
-34.061
-33.398
-32.585
-31.639
-30.583
-29.433
-28.209
-26.926
-25.602
-24.253
-22.893
-21.535
-20.189
-18.867
-17.58
-16.34
-15.158
-14.044
-13.007
-12.056
-11.198
-10.441
-9.79
-9.248
-8.818
-8.503
-8.303
-8.218
-8.249
-8.393
-8.648
-9.013
-9.484
-10.057
-10.729
-11.495
-12.35
-13.289
-14.306
-15.397
-16.555
-17.775
-19.051
-20.379
-21.751
-23.164
-24.612
-26.089
-27.592
-29.114
-30.651
-32.2
-33.755
-35.314
-36.872
-38.427
-39.977
-41.519
-43.053
-44.576
-46.087
-47.587
-49.074
-50.547
-52.007
-53.454
-54.887
-56.306
-57.713
-59.108
-60.492
-61.865
-63.228
-64.583
-65.93
-67.27
-68.605
-69.935
-71.261
-72.586
-73.909
-75.231
-76.555
-77.88
-79.208
-80.538
-81.873
-83.21
-84.552
-85.896
-87.242
-88.589
-89.936
-91.281
-92.623
-93.961
-95.291
-96.613
-97.925
-99.223
-100.505
-101.768
-103.009
-104.224
-105.411
-106.565
-107.682
-108.759
-109.791
-110.774
-111.703
-112.573
-113.381
-114.12
-114.785
-115.372
-115.874
-116.288
-116.609
-116.833
-116.956
-116.975
-116.888
-116.693
-116.391
-115.979
-115.458
-114.828
-114.089
-113.243
-112.289
-111.231
-110.069
-108.806
-107.445
-105.991
-104.45
-102.827
-101.127
-99.357
-97.523
-95.63
-93.686
-91.697
-89.668
-87.605
-85.515
-83.408
-81.293
-79.177
-77.061
-74.946
-72.83
-70.705
-68.568
-66.409
-64.211
-61.962
-59.653
-57.276
-54.829
-52.305
-49.696
-46.994
-44.188
-41.27
-38.248
-35.127
-31.919
-28.643
-25.321
-21.984
-18.681
-15.455
-12.342
-9.38
-6.605
-4.05
-1.758
0.239
1.921
3.264
4.249
4.857
5.064
4.871
4.3
3.357
2.047
0.436
-1.336
-3.027
-4.296
-4.835
-4.416
-2.781
0.404
5.304
11.787
19.434
27.491
35.206
42.147
47.854
51.652
53.176
52.615
50.694
48.843
48.674
51.306
57.959
70.33
89.726
116.743
151.201
191.71
236.131
282.325
327.416
367.299
397.796
415.124
415.753
397.17
358.157
298.09
218.676
124.829
20.751
-89.74
-203.07
-317.917
-428.15
-523.412
-594.586
-632.25
-634.973
-609.859
-563.983
-506.155
-441.812
-370.947
-295.548
-218.083
-141.809
-72.403
-13.596
33.123
67.47
90.8
104.995
111.746
113.137
111.76
110.073
110.143
113.118
119.121
127.789
138.561
150.653
163.057
174.651
184.325
191.551
196.414
199.232
200.511
200.782
200.519
200.301
200.732
202.14
204.611
208.11
212.461
217.519
223.193
229.332
235.768
242.36
248.973
255.509
261.891
268.017
273.779
279.074
283.802
287.91
291.378
294.205
296.417
298.048
299.132
299.719
299.862
299.617
299.046
298.203
297.145
295.936
294.647
293.355
292.14
291.058
290.147
289.436
288.935
288.655
288.601
288.77
289.165
289.795
290.668
291.794
293.178
294.803
296.644
298.651
300.767
302.949
305.156
307.363
309.568
311.78
314.028
316.354
318.779
321.316
323.967
326.733
329.63
332.694
335.968
339.523
343.453
347.846
352.802
358.395
364.646
371.546
379.041
387.052
395.519
404.387
413.597
423.09
432.786
442.588
452.41
462.125
471.567
480.546
488.835
496.243
502.64
507.933
512.079
515.055
516.831
517.396
516.758
514.934
511.957
507.854
502.637
496.359
489.131
481.113
472.517
463.523
454.274
444.898
435.501
426.192
417.076
408.224
399.674
391.463
383.631
376.241
369.379
363.092
357.38
352.201
347.476
343.144
339.158
335.459
331.977
328.629
325.344
322.091
318.863
315.653
312.438
309.176
305.807
302.299
298.646
294.854
290.942
286.92
282.802
278.619
274.418
270.26
266.185
262.21
258.337
254.565
250.903
247.368
243.978
240.733
237.631
234.668
231.841
229.15
226.587
224.135
221.765
219.446
217.155
214.879
212.612
210.346
208.072
205.784
203.479
201.158
198.823
196.472
194.103
191.712
189.297
186.863
184.412
181.952
179.483
177.009
174.532
172.052
169.573
167.093
164.611
162.124
159.63
157.129
154.62
152.103
149.577
147.042
144.498
141.945
139.383
136.81
134.226
131.63
129.019
126.393
123.751
121.091
118.412
115.712
112.991
110.248
107.482
104.691
101.874
99.031
96.16
93.261
90.335
87.38
84.397
81.387
78.351
75.291
72.207
69.103
65.98
62.839
59.684
56.516
53.338
50.152
46.961
43.767
40.574
37.384
34.2
31.025
27.862
24.713
21.58
18.466
15.374
12.305
9.261
6.246
3.26
0.307
-2.612
-5.496
-8.341
-11.148
-13.914
-16.639
-19.322
-21.961
-24.558
-27.11
-29.619
-32.082
-34.501
-36.875
-39.203
-41.485
-43.721
-45.91
-48.052
-50.147
-52.193
-54.189
-56.133
-58.026
-59.864
-61.646
-63.371
-65.036
-66.641
-68.184
-69.665
-71.083
-72.437
-73.728
-74.956
-76.121
-77.224
-78.264
-79.242
-80.159
-81.015
-81.81
-82.543
-83.217
-83.832
-84.39
-84.892
-85.339
-85.733
-86.074
-86.366
-86.612
-86.812
-86.967
-87.076
-87.143
-87.168
-87.157
-87.112
-87.028
-86.904
-86.735
-86.516
-86.242
-85.904
-85.484
-84.968
-84.34
-83.589
-82.712
-81.703
-80.556
-79.262
-77.811
-76.201
-74.443
-72.548
-70.526
-68.394
-66.172
-63.898
-61.633
-59.438
-57.378
-55.512
-53.889
-52.553
-51.542
-50.899
-50.674
-50.906
-51.626
-52.864
-54.632
-56.955
-59.894
-63.389
-67.266
-71.276
-75.019
-78.133
-80.384
-81.438
-80.893
-78.686
-74.959
-70.132
-65.154
-60.752
-57.33
-55.571
-56.067
-58.787
-63.43
-68.995
-73.491
-75.376
-73.415
-65.795
-51.075
-28.525
2.209
40.091
82.712
127.868
172.884
213.889
247.047
268.466
274.365
262.503
231.716
181.114
111.245
24.384
-76.195
-185.775
-298.915
-410.618
-515.556
-608.28
-684.409
-740.644
-774.989
-787.239
-778.132
-749.079
-703.014
-643.908
-576.075
-504.12
-432.135
-363.495
-301.45
-248.68
-206.639
-175.566
-154.612
-142.14
-136.421
-135.591
-137.385
-139.599
-140.394
-138.783
-134.71
-128.578
-120.96
-112.577
-104.324
-97.189
-92.149
-89.651
-89.573
-91.574
-95.139
-99.741
-104.902
-110.057
-114.616
-118.22
-120.736
-122.157
-122.611
-122.209
-121.024
-119.183
-116.83
-114.096
-111.104
-107.953
-104.721
-101.5
-98.393
-95.496
-92.902
-90.689
-88.895
-87.534
-86.595
-86.049
-85.863
-85.994
-86.388
-86.985
-87.722
-88.542
-89.392
-90.224
-90.988
-91.633
-92.11
-92.375
-92.396
-92.157
-91.643
-90.848
-89.767
-88.398
-86.749
-84.83
-82.653
-80.224
-77.553
-74.649
-71.526
-68.2
-64.686
-60.995
-57.136
-53.123
-48.979
-44.729
-40.395
-36.0
-31.566
-27.121
-22.697
-18.324
-14.025
-9.811
-5.695
-1.691
2.173
5.866
9.357
12.628
15.671
18.481
21.043
23.342
25.369
27.132
28.651
29.93
30.957
31.7
32.13
32.237
32.022
31.489
30.633
29.431
27.857
25.887
23.514
20.736
17.543
13.903
9.776
5.149
0.03
-5.547
-11.557
-17.995
-24.858
-32.132
-39.775
-47.724
-55.907
-64.252
-72.705
-81.213
-89.715
-98.132
-106.385
-114.415
-122.178
-129.647
-136.781
-143.517
-149.801
-155.596
-160.898
-165.728
-170.113
-174.09
-177.687
-180.93
-183.849
-186.477
-188.847
-190.979
-192.888
-194.586
-196.099
-197.471
-198.74
-199.933
-201.055
-202.099
-203.047
-203.876
-204.567
-205.104
-205.473
-205.669
-205.691
-205.546
-205.242
-204.794
-204.203
-203.465
-202.58
-201.546
-200.374
-199.079
-197.682
-196.208
-194.681
-193.125
-191.558
-189.994
-188.445
-186.915
-185.408
-183.924
-182.466
-181.038
-179.645
-178.291
-176.98
-175.711
-174.483
-173.294
-172.14
-171.016
-169.918
-168.842
-167.786
-166.746
-165.722
-164.713
-163.719
-162.737
-161.767
-160.807
-159.852
-158.902
-157.954
-157.005
-156.052
-155.096
-154.133
-153.164
-152.188
-151.205
-150.216
-149.219
-148.216
-147.207
-146.193
-145.175
-144.153
-143.129
-142.103
-141.079
-140.057
-139.039
-138.027
-137.023
-136.029
-135.046
-134.076
-133.119
-132.179
-131.254
-130.345
-129.454
-128.581
-127.724
-126.886
-126.064
-125.26
-124.472
-123.699
-122.941
-122.195
-121.459
-120.733
-120.012
-119.296
-118.582
-117.866
-117.147
-116.421
-115.685
-114.937
-114.173
-113.39
-112.585
-111.754
-110.895
-110.003
-109.077
-108.114
-107.111
-106.067
-104.982
-103.854
-102.683
-101.472
-100.22
-98.93
-97.603
-96.242
-94.849
-93.429
-91.984
-90.516
-89.031
-87.532
-86.023
-84.511
-82.999
-81.494
-79.999
-78.522
-77.068
-75.643
-74.252
-72.898
-71.583
-70.313
-69.09
-67.924
-66.817
-65.77
-64.781
-63.85
-62.975
-62.15
-61.365
-60.601
-59.838
-59.062
-58.261
-57.429
-56.561
-55.645
-54.671
-53.625
-52.5
-51.3
-50.028
-48.684
-47.276
-45.821
-44.353
-42.936
-41.638
-40.517
-39.62
-38.984
-38.633
-38.612
-38.973
-39.762
-41.023
-42.78
-45.039
-47.84
-51.244
-55.231
-59.674
-64.32
-68.808
-72.821
-76.145
-78.543
-79.693
-79.383
-77.648
-74.8
-71.467
-68.287
-65.593
-63.618
-62.803
-63.41
-65.276
-67.853
-69.942
-70.059
-67.191
-60.515
-48.811
-30.906
-6.215
25.247
62.575
103.008
143.953
184.223
220.754
252.208
277.54
290.411
286.824
262.407
212.137
140.152
51.665
-47.797
-149.986
-252.205
-352.129
-444.966
-527.077
-593.509
-640.173
-666.127
-671.711
-657.998
-626.883
-581.306
-524.893
-461.796
-396.252
-331.283
-269.303
-212.919
-164.19
-124.281
-93.442
-70.731
-54.613
-44.031
-37.754
-34.045
-31.205
-27.557
-22.124
-14.952
-6.42
3.152
13.283
23.331
32.531
39.909
44.976
47.824
48.717
48.086
46.376
43.956
41.311
39.02
37.444
36.757
37.013
38.107
39.954
42.501
45.638
49.242
53.2
57.399
61.754
66.199
70.651
75.028
79.249
83.23
86.905
90.215
93.128
95.644
97.779
99.56
101.025
102.212
103.167
103.947
104.605
105.189
105.746
106.316
106.942
107.668
108.539
109.594
110.863
112.362
114.101
116.088
118.327
120.82
123.567
126.558
129.781
133.225
136.878
140.727
144.753
148.929
153.224
157.609
162.06
166.555
171.074
175.594
180.089
184.54
188.922
193.222
197.433
201.55
205.572
209.512
213.386
217.217
221.038
224.863
228.698
232.545
236.398
240.255
244.11
247.941
251.728
255.448
259.067
262.546
265.827
268.819
271.43
273.566
275.124
276.026
276.211
275.613
274.184
271.89
268.71
264.647
259.707
253.885
247.185
239.63
231.28
222.245
212.642
202.583
192.197
181.599
170.906
160.253
149.751
139.484
129.521
119.917
110.729
102.037
93.924
86.442
79.611
73.407
67.797
62.759
58.251
54.224
50.609
47.315
44.276
41.456
38.829
36.373
34.06
31.836
29.645
27.452
25.244
23.02
20.784
18.531
16.269
14.022
11.831
9.751
7.816
6.036
4.414
2.95
1.65
0.526
-0.409
-1.161
-1.736
-2.141
-2.385
-2.472
-2.412
-2.23
-1.957
-1.629
-1.273
-0.904
-0.534
-0.176
0.158
0.459
0.72
0.94
1.117
1.249
1.329
1.354
1.321
1.233
1.094
0.91
0.685
0.421
0.122
-0.208
-0.566
-0.948
-1.355
-1.784
-2.234
-2.702
-3.184
-3.675
-4.172
-4.671
-5.168
-5.657
-6.135
-6.598
-7.042
-7.465
-7.863
-8.234
-8.575
-8.884
-9.158
-9.395
-9.594
-9.753
-9.871
-9.947
-9.981
-9.973
-9.923
-9.831
-9.698
-9.526
-9.316
-9.068
-8.785
-8.468
-8.119
-7.741
-7.336
-6.907
-6.456
-5.987
-5.503
-5.007
-4.502
-3.99
-3.476
-2.962
-2.451
-1.945
-1.448
-0.961
-0.487
-0.029
0.412
0.834
1.235
1.615
1.971
2.303
2.61
2.892
3.148
3.379
3.584
3.766
3.925
4.061
4.179
4.278
4.363
4.436
4.499
4.557
4.613
4.67
4.733
4.806
4.893
4.998
5.125
5.279
5.463
5.681
5.936
6.232
6.57
6.953
7.382
7.858
8.382
8.955
9.578
10.25
10.971
11.741
12.56
13.426
14.338
15.294
16.289
17.321
18.385
19.479
20.598
21.737
22.891
24.054
25.224
26.399
27.575
28.746
29.906
31.051
32.181
33.299
34.407
35.509
36.607
37.71
38.832
39.99
41.199
42.467
43.798
45.193
46.661
48.21
49.852
51.59
53.412
55.308
57.267
59.278
61.327
63.38
65.378
67.26
68.964
70.441
71.653
72.558
73.121
73.299
73.037
72.299
71.058
69.287
66.985
64.123
60.628
56.568
52.129
47.57
43.315
39.711
36.941
35.319
35.243
36.774
39.801
43.9
48.083
51.661
54.347
55.6
54.939
52.418
48.27
43.459
40.033
39.474
42.72
51.308
66.6
89.427
120.503
158.302
198.902
239.531
278.463
315.755
353.159
388.898
416.314
424.817
403.707
348.159
261.804
156.081
43.24
-68.379
-175.063
-277.566
-375.197
-463.888
-538.666
-594.311
-627.813
-639.258
-629.697
-600.725
-555.125
-496.343
-428.314
-355.588
-282.247
-211.486
-146.497
-89.987
-43.553
-8.054
16.759
32.313
40.202
42.084
40.18
36.579
33.078
31.305
31.93
34.818
39.67
45.919
52.685
59.179
64.566
68.032
69.384
68.823
66.665
63.429
59.639
55.742
52.259
49.656
48.129
47.714
48.34
49.842
52.094
54.985
58.361
62.063
65.957
69.925
73.882
77.748
81.429
84.828
87.851
90.437
92.566
94.24
95.479
96.316
96.788
96.945
96.847
96.553
96.122
95.609
95.06
94.529
94.07
93.736
93.579
93.639
93.941
94.5
95.328
96.427
97.801
99.446
101.35
103.507
105.91
108.552
111.428
114.529
117.843
121.356
125.054
128.922
132.945
137.107
141.392
145.782
150.259
154.804
159.4
164.025
168.657
173.272
177.846
182.353
186.769
191.07
195.228
199.222
203.025
206.617
209.975
213.079
215.908
218.445
220.672
222.573
224.135
225.344
226.189
226.662
226.754
226.461
225.777
224.702
223.235
221.377
219.133
216.507
213.506
210.14
206.418
202.353
197.959
193.251
188.245
182.961
177.416
171.632
165.63
159.433
153.063
146.543
139.898
133.15
126.324
119.444
112.532
105.612
98.706
91.837
85.026
78.293
71.657
65.137
58.75
52.513
46.44
40.544
34.839
29.336
24.042
18.968
14.119
9.5
5.116
0.967
-2.944
-6.619
-10.061
-13.272
-16.258
-19.025
-21.581
-23.932
-26.089
-28.06
-29.857
-31.491
-32.972
-34.312
-35.523
-36.616
-37.604
-38.498
-39.309
-40.048
-40.727
-41.354
-41.941
-42.495
-43.027
-43.543
-44.052
-44.56
-45.074
-45.598
-46.138
-46.697
-47.279
-47.886
-48.52
-49.181
-49.871
-50.588
-51.332
-52.1
-52.892
-53.703
-54.532
-55.376
-56.23
-57.091
-57.957
-58.822
-59.684
-60.539
-61.383
-62.214
-63.029
-63.824
-64.598
-65.348
-66.072
-66.77
-67.438
-68.077
-68.686
-69.264
-69.811
-70.326
-70.811
-71.267
-71.693
-72.091
-72.464
-72.812
-73.138
-73.444
-73.732
-74.005
-74.265
-74.516
-74.76
-75.0
-75.239
-75.479
-75.723
-75.973
-76.233
-76.502
-76.785
-77.083
-77.397
-77.729
-78.08
-78.451
-78.844
-79.259
-79.696
-80.158
-80.643
-81.153
-81.687
-82.245
-82.829
-83.436
-84.067
-84.721
-85.398
-86.095
-86.811
-87.546
-88.297
-89.061
-89.838
-90.625
-91.419
-92.219
-93.021
-93.824
-94.624
-95.419
-96.206
-96.981
-97.742
-98.486
-99.208
-99.906
-100.576
-101.214
-101.818
-102.383
-102.905
-103.381
-103.806
-104.177
-104.49
-104.742
-104.929
-105.049
-105.1
-105.079
-104.988
-104.825
-104.591
-104.285
-103.91
-103.466
-102.955
-102.379
-101.741
-101.042
-100.285
-99.475
-98.616
-97.714
-96.773
-95.799
-94.799
-93.777
-92.741
-91.7
-90.658
-89.62
-88.592
-87.579
-86.589
-85.632
-84.715
-83.839
-83.005
-82.212
-81.458
-80.741
-80.051
-79.373
-78.69
-77.987
-77.252
-76.483
-75.67
-74.806
-73.882
-72.882
-71.802
-70.646
-69.419
-68.129
-66.788
-65.411
-64.035
-62.717
-61.518
-60.505
-59.737
-59.256
-59.108
-59.324
-59.945
-61.026
-62.606
-64.72
-67.393
-70.628
-74.446
-78.901
-83.944
-89.408
-95.024
-100.39
-105.143
-109.037
-111.779
-112.987
-112.438
-110.181
-106.59
-102.402
-98.349
-94.831
-92.218
-91.068
-91.694
-93.894
-96.94
-99.389
-99.577
-96.385
-88.712
-74.992
-54.053
-25.394
10.795
53.008
99.046
146.955
194.107
236.66
270.667
292.291
298.125
285.985
254.425
202.428
130.166
40.8
-61.196
-171.952
-286.185
-400.766
-512.467
-612.548
-694.194
-750.848
-776.724
-775.328
-750.715
-706.944
-650.914
-584.646
-510.771
-433.981
-356.989
-284.268
-220.032
-166.285
-124.36
-94.102
-73.879
-61.772
-55.979
-54.282
-54.473
-54.596
-52.852
-48.394
-41.368
-32.28
-21.781
-10.749
-0.052
9.413
16.674
21.358
23.626
23.834
22.529
20.265
17.518
14.837
12.803
11.754
11.815
12.988
15.136
18.142
21.922
26.347
31.267
36.549
42.068
47.72
53.428
59.105
64.648
69.962
74.953
79.544
83.695
87.396
90.654
93.494
95.948
98.058
99.875
101.46
102.872
104.166
105.393
106.598
107.83
109.137
110.568
112.164
113.954
115.954
118.176
120.624
123.3
126.2
129.318
132.64
136.157
139.858
143.737
147.783
151.987
156.334
160.81
165.399
170.086
174.855
179.691
184.576
189.493
194.422
199.346
204.247
209.103
213.894
218.596
223.187
227.644
231.945
236.067
239.988
243.686
247.142
250.336
253.251
255.87
258.176
260.156
261.795
263.083
264.008
264.562
264.737
264.528
263.93
262.941
261.56
259.788
257.628
255.084
252.162
248.87
245.218
241.216
236.878
232.218
227.251
221.995
216.469
210.691
204.683
198.466
192.062
185.494
178.786
171.961
165.043
158.056
151.023
143.968
136.914
129.885
122.902
115.988
109.163
102.448
95.863
89.426
83.155
77.065
71.173
65.491
60.032
54.807
49.826
45.097
40.626
36.417
32.475
28.8
25.393
22.253
19.375
16.757
14.393
12.275
10.396
8.746
7.317
6.097
5.075
4.239
3.576
3.074
2.719
2.498
2.397
2.403
2.502
2.68
2.925
3.223
3.561
3.928
4.31
4.699
5.081
5.449
5.792
6.102
6.372
6.595
6.765
6.878
6.93
6.917
6.838
6.691
6.475
6.191
5.839
5.42
4.938
4.394
3.791
3.133
2.423
1.666
0.866
0.026
-0.847
-1.75
-2.677
-3.624
-4.584
-5.555
-6.53
-7.504
-8.473
-9.434
-10.38
-11.309
-12.217
-13.101
-13.957
-14.784
-15.578
-16.339
-17.065
-17.756
-18.409
-19.027
-19.607
-20.153
-20.663
-21.139
-21.584
-21.997
-22.382
-22.74
-23.073
-23.384
-23.675
-23.948
-24.206
-24.452
-24.688
-24.918
-25.145
-25.371
-25.599
-25.832
-26.073
-26.324
-26.588
-26.867
-27.165
-27.482
-27.82
-28.182
-28.57
-28.983
-29.422
-29.89
-30.384
-30.905
-31.453
-32.026
-32.624
-33.244
-33.885
-34.545
-35.222
-35.913
-36.616
-37.328
-38.046
-38.767
-39.486
-40.201
-40.908
-41.602
-42.279
-42.935
-43.565
-44.167
-44.734
-45.262
-45.747
-46.185
-46.57
-46.899
-47.168
-47.372
-47.509
-47.575
-47.57
-47.491
-47.338
-47.11
-46.81
-46.438
-45.996
-45.487
-44.912
-44.275
-43.581
-42.832
-42.032
-41.187
-40.3
-39.38
-38.433
-37.464
-36.482
-35.491
-34.501
-33.517
-32.549
-31.604
-30.686
-29.801
-28.954
-28.152
-27.406
-26.719
-26.091
-25.522
-25.009
-24.549
-24.14
-23.771
-23.426
-23.09
-22.747
-22.388
-22.007
-21.598
-21.152
-20.66
-20.106
-19.489
-18.813
-18.083
-17.308
-16.497
-15.66
-14.83
-14.057
-13.391
-12.89
-12.598
-12.552
-12.787
-13.329
-14.213
-15.485
-17.175
-19.314
-21.922
-25.004
-28.587
-32.73
-37.399
-42.444
-47.614
-52.532
-56.85
-60.332
-62.694
-63.567
-62.737
-60.287
-56.627
-52.548
-48.857
-46.026
-44.482
-44.841
-47.436
-52.036
-57.848
-63.312
-66.607
-66.477
-61.667
-50.458
-31.616
-4.627
30.285
71.515
116.774
164.024
210.466
252.058
284.886
305.238
309.634
295.884
262.591
208.509
134.838
45.969
-54.577
-163.394
-277.468
-396.628
-514.856
-620.88
-704.651
-755.231
-770.158
-756.837
-722.206
-674.559
-619.135
-555.226
-484.559
-410.005
-334.758
-264.475
-203.095
-152.422
-113.443
-85.491
-66.916
-56.021
-51.057
-49.834
-50.293
-50.626
-49.152
-45.154
-38.815
-30.565
-21.019
-11.031
-1.38
7.101
13.483
17.44
19.139
18.907
17.275
14.766
11.81
8.919
6.647
5.307
5.014
5.762
7.407
9.829
12.946
16.63
20.737
25.137
29.709
34.354
38.998
43.56
47.948
52.073
55.849
59.206
62.11
64.554
66.554
68.137
69.341
70.207
70.788
71.146
71.341
71.428
71.46
71.481
71.54
71.686
71.968
72.428
73.098
73.995
75.131
76.513
78.143
80.023
82.146
84.502
87.082
89.879
92.886
96.096
99.501
103.086
106.839
110.745
114.789
118.956
123.23
127.595
132.031
136.522
141.047
145.588
150.125
154.634
159.094
163.479
167.767
171.934
175.957
179.812
183.477
186.93
190.151
193.121
195.821
198.235
200.346
202.139
203.602
204.722
205.49
205.896
205.933
205.597
204.883
203.791
202.319
200.47
198.247
195.656
192.704
189.4
185.755
181.781
177.491
172.902
168.029
162.891
157.506
151.896
146.081
140.083
133.924
127.627
121.216
114.714
108.143
101.529
94.893
88.258
81.648
75.085
68.59
62.183
55.885
49.716
43.692
37.831
32.149
26.66
21.377
16.312
11.475
6.875
2.52
-1.586
-5.436
-9.03
-12.366
-15.443
-18.264
-20.831
-23.148
-25.221
-27.057
-28.662
-30.045
-31.216
-32.184
-32.959
-33.554
-33.979
-34.246
-34.368
-34.356
-34.224
-33.983
-33.646
-33.225
-32.732
-32.178
-31.574
-30.931
-30.259
-29.568
-28.867
-28.163
-27.465
-26.78
-26.112
-25.469
-24.854
-24.272
-23.726
-23.219
-22.753
-22.329
-21.948
-21.611
-21.318
-21.068
-20.861
-20.695
-20.569
-20.481
-20.43
-20.414
-20.43
-20.477
-20.552
-20.652
-20.777
-20.923
-21.088
-21.27
-21.468
-21.679
-21.901
-22.134
-22.376
-22.626
-22.882
-23.144
-23.412
-23.684
-23.961
-24.242
-24.526
-24.815
-25.108
-25.404
-25.705
-26.01
-26.32
-26.634
-26.953
-27.277
-27.605
-27.939
-28.277
-28.621
-28.969
-29.323
-29.68
-30.043
-30.41
-30.781
-31.157
-31.537
-31.921
-32.309
-32.701
-33.098
-33.498
-33.902
-34.31
-34.722
-35.139
-35.561
-35.987
-36.42
-36.859
-37.304
-37.758
-38.22
-38.692
-39.173
-39.665
-40.169
-40.685
-41.214
-41.755
-42.31
-42.879
-43.461
-44.057
-44.666
-45.288
-45.921
-46.565
-47.218
-47.878
-48.545
-49.215
-49.886
-50.556
-51.221
-51.878
-52.524
-53.155
-53.767
-54.355
-54.914
-55.44
-55.928
-56.372
-56.767
-57.109
-57.392
-57.614
-57.768
-57.852
-57.864
-57.801
-57.662
-57.446
-57.152
-56.78
-56.331
-55.805
-55.203
-54.527
-53.779
-52.963
-52.083
-51.146
-50.157
-49.123
-48.052
-46.95
-45.826
-44.688
-43.543
-42.397
-41.26
-40.143
-39.054
-38.01
-37.018
-36.084
-35.213
-34.405
-33.657
-32.963
-32.317
-31.702
-31.107
-30.525
-29.949
-29.376
-28.801
-28.212
-27.599
-26.948
-26.248
-25.5
-24.71
-23.883
-23.042
-22.215
-21.435
-20.755
-20.221
-19.868
-19.733
-19.85
-20.254
-20.99
-22.105
-23.631
-25.596
-28.012
-30.895
-34.26
-38.095
-42.381
-47.063
-52.082
-57.422
-62.99
-68.616
-74.054
-78.919
-82.859
-85.625
-86.88
-86.237
-83.638
-79.208
-73.369
-67.074
-61.055
-55.795
-52.088
-50.613
-51.43
-54.316
-58.328
-61.514
-62.462
-59.981
-52.023
-37.0
-14.162
17.137
55.116
96.606
140.464
184.06
225.404
263.04
289.973
300.218
287.984
247.641
182.88
99.467
3.556
-97.867
-206.07
-323.355
-447.08
-570.136
-676.801
-751.116
-785.648
-782.238
-752.134
-707.704
-656.514
-601.136
-539.585
-471.406
-399.285
-327.473
-261.705
-205.824
-161.182
-127.853
-104.63
-89.893
-82.112
-79.402
-79.467
-80.098
-79.388
-76.299
-70.721
-62.972
-53.607
-43.355
-33.116
-23.925
-16.828
-12.317
-10.307
-10.483
-12.333
-15.333
-19.01
-22.777
-26.0
-28.284
-29.469
-29.533
-28.596
-26.765
-24.101
-20.725
-16.786
-12.419
-7.755
-2.897
2.077
7.074
11.984
16.701
21.117
25.143
28.734
31.866
34.541
36.779
38.608
40.063
41.194
42.059
42.713
43.212
43.606
43.941
44.268
44.641
45.111
45.729
46.528
47.532
48.758
50.213
51.903
53.831
55.993
58.384
61.002
63.844
66.906
70.181
73.66
77.326
81.16
85.14
89.237
93.424
97.678
101.973
106.292
110.616
114.931
119.22
123.462
127.645
131.765
135.82
139.816
143.76
147.659
151.53
155.399
159.286
163.205
167.16
171.145
175.146
179.142
183.108
187.015
190.819
194.462
197.877
200.985
203.712
205.991
207.746
208.895
209.366
209.103
208.067
206.239
203.61
200.188
195.989
191.043
185.401
179.131
172.319
165.062
157.456
149.584
141.539
133.417
125.305
117.279
109.403
101.723
94.277
87.099
80.214
73.638
67.373
61.41
55.727
50.294
45.087
40.09
35.286
30.657
26.191
21.878
17.718
13.719
9.887
6.226
2.744
-0.556
-3.66
-6.557
-9.231
-11.664
-13.847
-15.774
-17.444
-18.859
-20.023
-20.943
-21.633
-22.111
-22.392
-22.492
-22.426
-22.208
-21.854
-21.384
-20.812
-20.158
-19.437
-18.664
-17.853
-17.019
-16.171
-15.322
-14.482
-13.656
-12.855
-12.084
-11.352
-10.665
-10.029
-9.448
-8.925
-8.465
-8.069
-7.737
-7.47
-7.265
-7.121
-7.036
-7.005
-7.025
-7.092
-7.201
-7.348
-7.527
-7.733
-7.962
-8.208
-8.465
-8.729
-8.995
-9.259
-9.515
-9.761
-9.991
-10.204
-10.396
-10.564
-10.706
-10.821
-10.907
-10.964
-10.991
-10.989
-10.958
-10.9
-10.817
-10.71
-10.584
-10.44
-10.283
-10.116
-9.943
-9.768
-9.594
-9.425
-9.265
-9.116
-8.982
-8.867
-8.771
-8.699
-8.651
-8.631
-8.639
-8.676
-8.744
-8.842
-8.97
-9.129
-9.315
-9.529
-9.768
-10.029
-10.309
-10.605
-10.913
-11.228
-11.546
-11.86
-12.166
-12.457
-12.728
-12.973
-13.186
-13.362
-13.495
-13.582
-13.618
-13.601
-13.528
-13.398
-13.208
-12.957
-12.645
-12.272
-11.839
-11.344
-10.79
-10.178
-9.51
-8.79
-8.024
-7.214
-6.366
-5.486
-4.58
-3.654
-2.715
-1.771
-0.827
0.11
1.032
1.932
2.799
3.625
4.408
5.148
5.846
6.504
7.124
7.714
8.288
8.859
9.437
10.033
10.649
11.291
11.968
12.689
13.467
14.308
15.204
16.148
17.131
18.135
19.149
20.144
21.066
21.873
22.52
22.957
23.158
23.086
22.701
21.979
20.888
19.391
17.476
15.125
12.317
9.067
5.356
1.151
-3.444
-8.258
-13.048
-17.453
-21.182
-24.052
-25.754
-25.908
-24.425
-21.452
-17.432
-13.165
-9.216
-5.835
-3.492
-2.824
-4.006
-6.769
-10.191
-12.642
-12.861
-10.025
-2.862
10.184
30.202
57.679
91.916
131.056
173.318
216.764
258.344
294.152
320.003
331.981
327.47
304.886
263.021
201.732
122.589
28.989
-74.064
-181.011
-286.665
-385.631
-472.584
-543.01
-593.457
-622.512
-630.723
-619.299
-590.059
-546.071
-490.954
-428.789
-364.03
-299.892
-238.669
-182.837
-134.291
-94.054
-62.714
-39.689
-23.444
-12.935
-7.089
-4.221
-2.877
-1.637
0.892
5.087
10.679
17.536
25.285
33.278
40.997
47.714
52.657
55.675
56.939
56.705
55.413
53.491
51.29
49.276
47.924
47.458
47.956
49.383
51.593
54.486
57.974
61.932
66.223
70.726
75.334
79.961
84.545
89.007
93.264
97.234
100.839
104.038
106.815
109.18
111.161
112.788
114.101
115.149
115.986
116.669
117.253
117.785
118.309
118.87
119.514
120.29
121.242
122.404
123.795
125.43
127.315
129.456
131.852
134.5
137.387
140.506
143.848
147.403
151.164
155.118
159.252
163.55
167.994
172.569
177.257
182.042
186.905
191.828
196.791
201.773
206.753
211.706
216.606
221.427
226.14
230.72
235.139
239.374
243.398
247.191
250.729
253.992
256.954
259.593
261.887
263.819
265.377
266.554
267.347
267.76
267.799
267.474
266.792
265.756
264.365
262.61
260.483
257.979
255.098
251.852
248.25
244.304
240.022
235.408
230.463
225.178
219.543
213.539
207.164
200.428
193.36
186.009
178.431
170.694
162.855
154.962
147.056
139.18
131.373
123.679
116.148
108.837
101.812
95.148
88.905
83.125
77.825
72.997
68.613
64.629
61.008
57.719
54.739
52.048
49.631
47.469
45.54
43.82
42.267
40.831
39.468
38.143
36.838
35.555
34.309
33.127
32.035
31.051
30.185
29.44
28.814
28.3
27.892
27.58
27.361
27.244
27.231
27.327
27.528
27.82
28.184
28.597
29.034
29.474
29.9
30.3
30.665
30.992
31.28
31.531
31.746
31.922
32.059
32.153
32.203
32.212
32.181
32.115
32.018
31.897
31.756
31.599
31.429
31.249
31.06
30.862
30.655
30.44
30.217
29.989
29.756
29.519
29.281
29.043
28.805
28.569
28.334
28.101
27.868
27.634
27.399
27.161
26.918
26.668
26.409
26.139
25.856
25.556
25.238
24.899
24.537
24.148
23.732
23.285
22.807
22.295
21.747
21.164
20.544
19.888
19.195
18.466
17.702
16.904
16.073
15.21
14.318
13.397
12.452
11.483
10.495
9.489
8.471
7.443
6.411
5.377
4.348
3.327
2.32
1.331
0.366
-0.571
-1.474
-2.338
-3.159
-3.932
-4.652
-5.317
-5.921
-6.463
-6.939
-7.347
-7.688
-7.96
-8.163
-8.299
-8.371
-8.379
-8.327
-8.22
-8.06
-7.852
-7.6
-7.311
-6.988
-6.637
-6.263
-5.874
-5.475
-5.074
-4.678
-4.295
-3.931
-3.596
-3.295
-3.035
-2.819
-2.65
-2.532
-2.469
-2.47
-2.537
-2.67
-2.871
-3.139
-3.472
-3.863
-4.3
-4.762
-5.231
-5.691
-6.131
-6.549
-6.938
-7.287
-7.586
-7.823
-7.988
-8.085
-8.11
-8.057
-7.936
-7.762
-7.576
-7.452
-7.451
-7.627
-8.025
-8.663
-9.577
-10.827
-12.461
-14.533
-17.086
-20.127
-23.706
-27.915
-32.753
-38.118
-43.783
-49.355
-54.496
-58.989
-62.566
-64.884
-65.744
-65.188
-63.579
-61.634
-60.034
-59.133
-59.242
-60.839
-64.169
-69.003
-74.614
-79.598
-82.373
-81.878
-77.075
-66.491
-49.014
-24.122
8.057
46.11
87.989
131.85
175.162
214.297
245.526
265.017
269.334
256.492
225.065
174.009
103.843
16.778
-83.669
-192.54
-304.512
-414.628
-517.276
-606.936
-679.169
-730.616
-759.82
-767.076
-753.217
-719.886
-670.377
-608.786
-539.702
-467.95
-397.109
-330.112
-270.095
-219.445
-179.4
-150.138
-130.515
-118.682
-113.23
-112.536
-114.408
-116.818
-117.941
-116.732
-113.253
-107.969
-101.282
-93.798
-86.339
-79.796
-75.177
-72.96
-72.986
-74.903
-78.236
-82.483
-87.201
-91.854
-95.834
-98.791
-100.611
-101.3
-101.004
-99.844
-97.891
-95.275
-92.144
-88.625
-84.834
-80.865
-76.787
-72.691
-68.681
-64.869
-61.369
-58.266
-55.617
-53.452
-51.776
-50.58
-49.843
-49.534
-49.609
-50.024
-50.739
-51.716
-52.909
-54.272
-55.754
-57.291
-58.83
-60.318
-61.7
-62.951
-64.045
-64.968
-65.724
-66.307
-66.721
-66.973
-67.052
-66.962
-66.722
-66.32
-65.744
-64.98
-63.969
-62.728
-61.282
-59.498
-57.277
-54.511
-51.056
-46.978
-42.33
-36.899
-30.565
-23.522
-15.999
-8.518
-1.685
4.422
9.611
13.264
14.949
14.658
12.715
10.023
7.815
6.787
7.532
11.006
16.698
22.237
25.398
24.42
20.411
17.086
14.361
5.964
-20.367
-77.443
-169.503
