233.063
219.489
186.765
134.57
63.116
-24.696
-124.216
-231.934
-342.805
-453.643
-561.657
-658.489
-737.493
-792.159
-816.742
-815.124
-791.762
-751.143
-700.374
-641.078
-575.437
-507.674
-440.007
-376.731
-321.859
-277.15
-243.876
-221.835
-209.432
-204.952
-206.747
-212.69
-220.644
-228.62
-234.676
-237.804
-237.971
-235.469
-230.791
-224.712
-217.989
-211.484
-206.21
-202.59
-200.532
-199.78
-199.834
-200.176
-200.422
-200.107
-198.746
-196.126
-192.204
-187.039
-180.836
-173.761
-165.939
-157.547
-148.753
-139.691
-130.497
-121.279
-112.135
-103.189
-94.538
-86.25
-78.382
-70.955
-63.975
-57.444
-51.336
-45.613
-40.241
-35.18
-30.397
-25.862
-21.533
-17.366
-13.318
-9.342
-5.403
-1.477
2.456
6.409
10.384
14.383
18.402
22.429
26.46
30.492
34.515
38.523
42.506
46.455
50.358
54.203
57.975
61.658
65.246
68.732
72.108
75.371
78.506
81.498
84.333
86.994
89.471
91.759
93.84
95.699
97.33
98.72
99.867
100.773
101.412
101.759
101.796
101.501
100.868
99.895
98.573
96.897
94.859
92.448
89.668
86.525
83.008
79.118
74.845
70.179
65.149
59.787
54.115
48.165
41.953
35.496
28.823
21.964
14.943
7.79
0.526
-6.83
-14.237
-21.661
-29.063
-36.4
-43.661
-50.833
-57.897
-64.837
-71.632
-78.257
-84.701
-90.953
-96.99
-102.796
-108.352
-113.639
-118.651
-123.383
-127.83
-131.993
-135.859
-139.419
-142.668
-145.605
-148.228
-150.539
-152.54
-154.23
-155.62
-156.722
-157.547
-158.11
-158.422
-158.495
-158.344
-157.985
-157.435
-156.712
-155.834
-154.818
-153.683
-152.448
-151.132
-149.753
-148.328
-146.873
-145.404
-143.936
-142.484
-141.061
-139.68
-138.353
-137.09
-135.902
-134.796
-133.78
-132.86
-132.04
-131.324
-130.714
-130.21
-129.811
-129.516
-129.322
-129.225
-129.218
-129.297
-129.453
-129.678
-129.965
-130.302
-130.681
-131.09
-131.519
-131.957
-132.391
-132.812
-133.206
-133.563
-133.871
-134.12
-134.298
-134.397
-134.405
-134.315
-134.117
-133.804
-133.369
-132.805
-132.109
-131.274
-130.298
-129.177
-127.912
-126.5
-124.943
-123.242
-121.399
-119.418
-117.302
-115.056
-112.685
-110.197
-107.597
-104.893
-102.094
-99.207
-96.241
-93.207
-90.113
-86.97
-83.786
-80.573
-77.34
-74.097
-70.853
-67.617
-64.399
-61.206
-58.047
-54.929
-51.86
-48.846
-45.894
-43.007
-40.191
-37.449
-34.784
-32.199
-29.694
-27.27
-24.928
-22.668
-20.488
-18.386
-16.361
-14.41
-12.53
-10.716
-8.966
-7.273
-5.634
-4.045
-2.5
-0.994
0.476
1.914
3.324
4.708
6.069
7.41
8.732
10.037
11.326
12.601
13.861
15.108
16.341
17.559
18.758
19.936
21.089
22.214
23.306
24.361
25.376
26.345
27.263
28.128
28.936
29.683
30.362
30.964
31.485
31.923
32.281
32.562
32.77
32.913
33.003
33.057
33.093
33.128
33.174
33.24
33.335
33.469
33.658
33.916
34.255
34.674
35.164
35.717
36.317
36.937
37.537
38.054
38.423
38.585
38.476
38.043
37.234
35.999
34.301
32.106
29.375
26.087
22.232
17.794
12.801
7.286
1.262
-5.133
-11.679
-18.103
-23.985
-28.919
-32.622
-34.712
-34.782
-32.784
-28.822
-23.265
-17.012
-10.793
-5.175
-1.041
0.9
0.576
-1.791
-5.318
-8.225
-9.002
-6.067
2.725
19.061
43.768
76.935
117.429
162.886
210.694
257.309
297.958
327.944
343.051
339.72
315.661
269.906
202.155
115.063
13.414
-98.754
-215.782
-333.937
-449.832
-554.44
-640.36
-700.385
-728.354
-727.9
-703.412
-659.345
-602.864
-535.971
-461.446
-384.229
-307.164
-234.915
-171.721
-119.499
-79.591
-51.77
-34.251
-24.984
-22.026
-23.068
-25.897
-28.567
-29.245
-27.054
-22.13
-14.988
-6.294
3.054
12.205
20.281
26.313
29.935
31.312
30.792
28.929
26.285
23.33
20.618
18.707
17.879
18.219
19.69
22.13
25.412
29.442
34.068
39.131
44.489
50.015
55.615
61.206
66.686
71.943
76.869
81.385
85.455
89.071
92.246
95.006
97.384
99.426
101.193
102.747
104.15
105.465
106.745
108.04
109.405
110.889
112.538
114.385
116.436
118.686
121.125
123.738
126.516
129.45
132.515
135.691
138.951
142.271
145.639
149.049
152.494
155.969
159.481
163.046
166.7
170.49
174.447
178.592
182.923
187.43
192.104
196.929
201.887
206.952
212.08
217.217
222.314
227.308
232.118
236.65
240.772
244.34
247.235
249.353
250.614
250.962
250.349
248.744
246.138
242.531
237.941
232.397
225.921
218.555
210.362
201.421
191.859
181.823
171.446
160.866
150.215
139.596
129.106
118.817
108.78
99.04
89.639
80.61
72.001
63.847
56.173
49.006
42.338
36.133
30.358
24.959
19.868
15.043
10.452
6.071
1.904
-2.053
-5.806
-9.349
-12.692
-15.845
-18.822
-21.651
-24.349
-26.91
-29.326
-31.569
-33.597
-35.387
-36.924
-38.194
-39.202
-39.953
-40.451
-40.715
-40.759
-40.594
-40.225
-39.649
-38.861
-37.87
-36.691
-35.345
-33.864
-32.27
-30.586
-28.834
-27.031
-25.192
-23.327
-21.442
-19.536
-17.615
-15.686
-13.755
-11.834
-9.927
-8.039
-6.169
-4.32
-2.489
-0.676
1.123
2.91
4.686
6.454
8.213
9.96
11.696
13.42
15.133
16.834
18.525
20.206
21.878
23.542
25.2
26.851
28.496
30.135
31.767
33.391
35.007
36.612
38.207
39.79
41.359
42.913
44.449
45.966
47.462
48.934
50.38
51.797
53.183
54.535
55.851
57.13
58.368
59.564
60.718
61.827
62.892
63.911
64.884
65.811
66.69
67.522
68.307
69.045
69.737
70.383
70.985
71.543
72.06
72.536
72.973
73.373
73.738
74.07
74.37
74.642
74.887
75.108
75.306
75.484
75.645
75.79
75.921
76.039
76.147
76.245
76.336
76.419
76.497
76.569
76.637
76.702
76.766
76.829
76.894
76.96
77.031
77.107
77.191
77.285
77.389
77.507
77.641
77.791
77.962
78.155
78.372
78.616
78.889
79.196
79.538
79.917
80.338
80.803
81.316
81.878
82.492
83.158
83.881
84.662
85.504
86.407
87.371
88.393
89.471
90.604
91.789
93.021
94.296
95.609
96.958
98.346
99.774
101.243
102.751
104.296
105.881
107.513
109.197
110.933
112.717
114.547
116.421
118.338
120.294
122.274
124.258
126.221
128.142
130.004
131.786
133.472
135.03
136.427
137.632
138.619
139.379
139.908
140.215
140.324
140.271
140.087
139.82
139.544
139.253
138.892
138.329
137.333
135.7
133.308
130.082
125.974
121.131
115.855
110.589
106.014
102.769
101.31
101.828
104.189
107.793
111.699
114.799
115.691
112.966
105.342
91.878
72.324
47.244
17.739
-14.768
-48.574
-81.999
-113.1
-139.821
-160.65
-174.68
-181.379
-180.728
-172.746
-157.019
-133.75
-103.792
-68.072
-27.982
14.824
58.904
102.005
140.51
170.832
189.586
193.589
180.547
148.696
96.692
24.485
-64.735
-166.47
-276.985
-390.978
-505.394
-617.067
-716.864
-797.75
-853.004
-876.651
-872.633
-845.451
-799.509
-742.084
-675.135
-601.159
-524.714
-448.22
-375.986
-312.039
-258.172
-215.682
-184.384
-162.635
-148.681
-140.945
-137.451
-136.277
-135.638
-133.725
-129.668
-123.56
-115.775
-106.817
-97.401
-88.201
-80.019
-73.853
-70.107
-68.678
-69.28
-71.406
-74.558
-78.315
-82.133
-85.394
-87.738
-89.019
-89.231
-88.54
-87.078
-84.951
-82.324
-79.376
-76.247
-73.047
-69.835
-66.631
-63.48
-60.454
-57.626
-55.072
-52.843
-50.949
-49.377
-48.082
-47.0
-46.053
-45.131
-44.135
-42.986
-41.629
-40.044
-38.239
-36.205
-33.925
-31.383
-28.549
-25.407
-21.955
-18.19
-14.124
-9.782
-5.202
-0.445
4.43
9.385
14.399
19.474
24.63
29.873
35.201
40.614
46.099
51.641
57.225
62.82
68.398
73.934
79.412
84.825
90.168
95.422
100.56
105.548
110.344
114.91
119.214
123.22
126.898
130.223
133.176
135.745
137.926
139.709
141.087
142.051
142.593
142.711
142.406
141.679
140.539
138.994
137.053
134.731
132.043
129.006
125.634
121.946
117.956
113.685
109.154
104.382
99.395
94.216
88.869
83.381
77.778
72.087
66.333
60.541
54.737
48.945
43.188
37.489
31.869
26.349
20.947
15.682
10.57
5.629
0.871
-3.691
-8.043
-12.177
-16.084
-19.756
-23.188
-26.376
-29.315
-32.005
-34.445
-36.636
-38.58
-40.28
-41.741
-42.968
-43.968
-44.749
-45.319
-45.688
-45.865
-45.86
-45.685
-45.35
-44.866
-44.245
-43.497
-42.634
-41.666
-40.604
-39.46
-38.244
-36.965
-35.634
-34.261
-32.852
-31.419
-29.967
-28.504
-27.038
-25.574
-24.118
-22.676
-21.251
-19.848
-18.47
-17.12
-15.801
-14.514
-13.262
-12.045
-10.864
-9.719
-8.611
-7.54
-6.505
-5.506
-4.544
-3.616
-2.722
-1.862
-1.035
-0.239
0.525
1.259
1.964
2.638
3.285
3.902
4.491
5.051
5.583
6.085
6.557
6.999
7.41
7.788
8.134
8.445
8.721
8.961
9.165
9.332
9.46
9.552
9.605
9.621
9.6
9.542
9.448
9.318
9.153
8.955
8.725
8.465
8.176
7.86
7.52
7.159
6.779
6.384
5.976
5.561
5.14
4.72
4.303
3.895
3.501
3.124
2.769
2.441
2.144
1.881
1.655
1.469
1.325
1.222
1.162
1.145
1.17
1.238
1.346
1.494
1.68
1.904
2.164
2.458
2.784
3.138
3.516
3.917
4.335
4.768
5.208
5.652
6.095
6.537
6.975
7.406
7.825
8.224
8.597
8.947
9.272
9.574
9.857
10.123
10.386
10.667
10.988
11.367
11.817
12.341
12.945
13.641
14.438
15.351
16.384
17.526
18.769
20.105
21.518
22.98
24.444
25.825
27.036
28.006
28.666
28.971
28.882
28.343
27.296
25.686
23.47
20.631
17.175
13.076
8.292
2.87
-3.03
-9.11
-14.945
-20.157
-24.472
-27.584
-29.109
-28.848
-26.831
-23.359
-19.196
-15.073
-11.437
-8.827
-7.82
-8.635
-11.179
-14.857
-18.177
-19.597
-17.863
-11.36
1.438
21.596
49.749
85.496
127.14
172.51
219.016
262.932
300.068
326.118
337.029
329.692
301.861
252.337
180.972
90.404
-13.877
-127.087
-244.74
-363.624
-482.68
-595.206
-690.44
-758.907
-790.877
-785.934
-752.715
-699.269
-635.564
-567.388
-494.758
-419.863
-344.788
-272.548
-208.309
-155.084
-113.869
-84.486
-65.045
-53.354
-47.774
-46.254
-46.667
-47.154
-45.95
-42.245
-36.2
-28.291
-19.106
-9.445
-0.097
8.077
14.094
17.573
18.674
17.738
15.306
11.916
8.015
4.145
0.909
-1.34
-2.468
-2.469
-1.487
0.355
2.98
6.255
10.026
14.158
18.522
23.012
27.555
32.068
36.449
40.607
44.448
47.896
50.917
53.504
55.671
57.451
58.882
60.013
60.9
61.61
62.206
62.747
63.284
63.861
64.526
65.33
66.32
67.545
69.032
70.795
72.84
75.164
77.756
80.598
83.659
86.9
90.293
93.814
97.449
101.191
105.026
108.944
112.932
116.972
121.047
125.145
129.245
133.33
137.398
141.447
145.495
149.569
153.671
157.79
161.908
165.981
169.967
173.814
177.453
180.829
183.895
186.603
188.926
190.835
192.285
193.23
193.611
193.355
192.42
190.78
188.42
185.357
181.619
177.252
172.334
166.932
161.101
154.895
148.35
141.503
134.404
127.109
119.675
112.182
104.686
97.239
89.889
82.663
75.574
68.623
61.786
55.044
48.392
41.83
35.368
29.024
22.802
16.714
10.768
4.966
-0.692
-6.199
-11.558
-16.759
-21.789
-26.629
-31.25
-35.625
-39.738
-43.576
-47.132
-50.406
-53.395
-56.102
-58.535
-60.699
-62.599
-64.241
-65.627
-66.764
-67.66
-68.325
-68.773
-69.015
-69.065
-68.935
-68.635
-68.176
-67.569
-66.823
-65.945
-64.941
-63.822
-62.596
-61.271
-59.857
-58.363
-56.796
-55.166
-53.481
-51.747
-49.973
-48.163
-46.325
-44.463
-42.584
-40.693
-38.794
-36.892
-34.991
-33.097
-31.212
-29.341
-27.488
-25.657
-23.85
-22.071
-20.323
-18.61
-16.934
-15.298
-13.704
-12.156
-10.657
-9.208
-7.812
-6.472
-5.189
-3.965
-2.801
-1.7
-0.663
0.311
1.221
2.065
2.845
3.559
4.21
4.798
5.324
5.79
6.196
6.547
6.843
7.087
7.284
7.435
7.546
7.619
7.659
7.67
7.657
7.625
7.577
7.52
7.457
7.395
7.337
7.289
7.255
7.241
7.251
7.289
7.359
7.465
7.607
7.79
8.012
8.275
8.578
8.918
9.294
9.704
10.146
10.616
11.11
11.624
12.155
12.698
13.246
13.791
14.326
14.842
15.33
15.783
16.192
16.548
16.843
17.07
17.224
17.295
17.277
17.158
16.929
16.582
16.116
15.531
14.831
14.024
13.119
12.129
11.075
9.971
8.83
7.664
6.476
5.281
4.093
2.93
1.811
0.751
-0.247
-1.18
-2.048
-2.863
-3.643
-4.415
-5.222
-6.095
-7.06
-8.142
-9.363
-10.764
-12.384
-14.265
-16.443
-18.934
-21.758
-24.942
-28.508
-32.463
-36.805
-41.49
-46.486
-51.821
-57.423
-63.134
-68.717
-73.776
-77.964
-81.074
-82.785
-82.706
-80.772
-77.114
-72.16
-66.86
-61.907
-57.662
-54.755
-53.765
-54.704
-57.32
-60.695
-62.974
-62.75
-58.969
-50.082
-34.749
-12.224
17.926
54.995
96.945
141.806
187.197
229.607
265.264
290.233
300.532
293.195
266.325
218.531
149.825
62.017
-41.73
-156.729
-277.353
-397.729
-511.622
-612.857
-696.271
-757.902
-795.369
-808.183
-796.966
-763.616
-711.639
-645.383
-569.656
-489.587
-409.65
-333.479
-264.583
-205.516
-157.546
-121.162
-95.644
-79.253
-70.25
-66.804
-66.572
-67.526
-67.996
-66.519
-62.659
-56.71
-49.048
-40.301
-31.365
-22.996
-15.983
-11.082
-8.413
-7.722
-8.637
-10.601
-13.074
-15.603
-17.676
-18.828
-18.858
-17.731
-15.521
-12.403
-8.507
-3.951
1.115
6.53
12.154
17.865
23.567
29.167
34.568
39.665
44.356
48.58
52.309
55.541
58.3
60.625
62.555
64.146
65.463
66.567
67.521
68.384
69.206
70.042
70.948
71.977
73.182
74.599
76.253
78.158
80.318
82.733
85.4
88.307
91.439
94.781
98.319
102.04
105.93
109.975
114.155
118.45
122.839
127.299
131.811
136.351
140.897
145.427
149.917
154.345
158.688
162.923
167.023
170.964
174.72
178.267
181.582
184.641
187.423
189.907
192.076
193.914
195.407
196.543
197.311
197.702
197.712
197.336
196.572
195.42
193.882
191.964
189.67
187.01
183.993
180.632
176.941
172.934
168.628
164.043
159.197
154.113
148.811
143.315
137.648
131.835
125.901
119.869
113.766
107.616
101.443
95.272
89.126
83.027
76.996
71.054
65.221
59.514
53.95
48.545
43.313
38.266
33.416
28.772
24.343
20.136
16.155
12.406
8.891
5.61
2.565
-0.248
-2.829
-5.184
-7.318
-9.235
-10.945
-12.454
-13.772
-14.909
-15.873
-16.677
-17.331
-17.846
-18.233
-18.505
-18.672
-18.745
-18.736
-18.655
-18.512
-18.316
-18.077
-17.803
-17.502
-17.182
-16.848
-16.508
-16.166
-15.827
-15.494
-15.173
-14.864
-14.571
-14.294
-14.035
-13.794
-13.57
-13.364
-13.173
-12.997
-12.833
-12.68
-12.534
-12.393
-12.256
-12.118
-11.977
-11.831
-11.677
-11.512
-11.335
-11.143
-10.934
-10.709
-10.465
-10.203
-9.922
-9.622
-9.305
-8.971
-8.622
-8.259
-7.886
-7.504
-7.117
-6.727
-6.338
-5.954
-5.579
-5.217
-4.871
-4.547
-4.248
-3.978
-3.741
-3.542
-3.383
-3.268
-3.199
-3.181
-3.214
-3.302
-3.445
-3.645
-3.903
-4.218
-4.591
-5.019
-5.503
-6.038
-6.623
-7.255
-7.929
-8.641
-9.387
-10.16
-10.955
-11.766
-12.586
-13.407
-14.223
-15.026
-15.808
-16.562
-17.281
-17.958
-18.585
-19.158
-19.67
-20.118
-20.496
-20.801
-21.029
-21.178
-21.245
-21.229
-21.128
-20.941
-20.667
-20.308
-19.866
-19.342
-18.74
-18.063
-17.316
-16.503
-15.63
-14.703
-13.73
-12.714
-11.662
-10.579
-9.473
-8.355
-7.234
-6.113
-4.993
-3.875
-2.76
-1.647
-0.53
0.603
1.767
2.976
4.238
5.553
6.925
8.36
9.866
11.458
13.136
14.892
16.711
18.577
20.476
22.386
24.26
26.035
27.639
28.996
30.052
30.761
31.072
30.946
30.325
29.149
27.377
24.977
21.931
18.244
13.893
8.84
3.158
-2.968
-9.26
-15.32
-20.81
-25.491
-29.045
-31.081
-31.362
-29.928
-27.134
-23.677
-20.243
-17.233
-15.062
-14.355
-15.504
-18.374
-22.304
-25.963
-27.786
-26.653
-21.393
-10.362
7.718
33.409
66.566
105.864
149.209
194.509
238.875
278.257
308.628
326.037
326.71
307.983
268.058
206.802
126.799
31.929
-74.3
-190.729
-317.25
-450.485
-581.386
-694.54
-774.449
-813.069
-812.318
-783.419
-738.672
-685.878
-627.698
-562.17
-489.16
-411.783
-334.478
-263.196
-201.853
-151.745
-113.324
-85.709
-67.209
-56.262
-51.081
-49.325
-48.977
-48.33
-45.842
-40.99
-34.022
-25.325
-15.551
-5.61
3.728
11.642
17.295
20.49
21.438
20.487
18.189
15.074
11.591
8.266
5.63
3.969
3.391
3.878
5.289
7.512
10.455
13.988
17.964
22.246
26.717
31.28
35.857
40.37
44.724
48.833
52.617
56.01
58.982
61.531
63.677
65.453
66.904
68.079
69.039
69.851
70.579
71.281
72.01
72.813
73.738
74.831
76.134
77.685
79.512
81.632
84.056
86.783
89.803
93.099
96.649
100.427
104.41
108.571
112.882
117.317
121.859
126.498
131.222
136.013
140.845
145.681
150.488
155.238
159.917
164.511
169.001
173.37
177.6
181.69
185.642
189.443
193.056
196.423
199.486
202.205
204.555
206.522
208.089
209.234
209.926
210.144
209.877
209.112
207.828
205.989
203.553
200.506
196.872
192.707
188.064
182.982
177.49
171.613
165.387
158.856
152.061
145.031
137.794
130.384
122.849
115.255
107.673
100.148
92.701
85.331
78.041
70.845
63.763
56.812
50.003
43.345
36.856
30.563
24.494
18.669
13.096
7.771
2.69
-2.142
-6.711
-10.996
-14.984
-18.664
-22.032
-25.08
-27.803
-30.197
-32.267
-34.028
-35.495
-36.681
-37.597
-38.25
-38.654
-38.822
-38.771
-38.52
-38.085
-37.485
-36.738
-35.864
-34.884
-33.818
-32.681
-31.49
-30.259
-29.005
-27.742
-26.485
-25.247
-24.042
-22.881
-21.777
-20.741
-19.782
-18.907
-18.125
-17.439
-16.855
-16.374
-15.999
-15.73
-15.566
-15.505
-15.545
-15.683
-15.913
-16.232
-16.633
-17.109
-17.655
-18.263
-18.924
-19.631
-20.376
-21.15
-21.945
-22.753
-23.567
-24.377
-25.178
-25.962
-26.723
-27.454
-28.15
-28.804
-29.413
-29.971
-30.475
-30.923
-31.312
-31.642
-31.911
-32.122
-32.275
-32.373
-32.417
-32.411
-32.359
-32.264
-32.131
-31.965
-31.771
-31.554
-31.319
-31.074
-30.822
-30.57
-30.323
-30.085
-29.862
-29.657
-29.473
-29.315
-29.182
-29.078
-29.004
-28.963
-28.954
-28.981
-29.044
-29.144
-29.282
-29.456
-29.665
-29.904
-30.168
-30.451
-30.746
-31.044
-31.34
-31.626
-31.896
-32.144
-32.365
-32.556
-32.708
-32.815
-32.866
-32.854
-32.772
-32.621
-32.402
-32.123
-31.794
-31.429
-31.04
-30.639
-30.23
-29.812
-29.376
-28.912
-28.407
-27.857
-27.267
-26.641
-25.979
-25.279
-24.533
-23.723
-22.828
-21.82
-20.668
-19.352
-17.858
-16.195
-14.384
-12.459
-10.463
-8.42
-6.339
-4.228
-2.094
0.052
2.189
4.291
6.325
8.249
10.015
11.581
12.911
13.994
14.839
15.468
15.916
16.192
16.271
16.132
15.739
15.056
14.062
12.734
11.05
9.024
6.663
3.971
0.955
-2.402
-6.125
-10.226
-14.748
-19.736
-25.125
-30.761
-36.391
-41.642
-46.181
-49.746
-52.028
-52.653
-51.425
-48.451
-44.139
-39.234
-34.484
-30.361
-27.362
-26.211
-27.347
-30.608
-35.274
-39.921
-42.868
-42.856
-38.498
-27.918
-9.66
16.907
51.576
92.922
138.668
186.419
232.912
273.718
304.456
320.999
319.558
297.5
253.263
187.136
102.186
2.719
-107.305
-226.304
-353.775
-485.759
-613.128
-720.822
-793.907
-825.243
-817.084
-780.683
-728.549
-668.447
-603.329
-532.012
-454.573
-374.351
-296.312
-226.106
-167.398
-121.438
-87.949
-65.414
-52.004
-45.749
-44.247
-45.112
-46.111
-45.288
-41.752
-35.468
-26.79
-16.469
-5.458
5.298
14.733
21.793
26.068
27.655
26.882
24.342
20.626
16.252
11.842
8.027
5.18
3.458
2.873
3.293
4.603
6.724
9.523
12.85
16.575
20.571
24.742
29.008
33.274
37.434
41.386
45.033
48.294
51.131
53.53
55.505
57.088
58.319
59.244
59.92
60.414
60.79
61.108
61.424
61.789
62.256
62.877
63.704
64.783
66.142
67.799
69.76
72.026
74.593
77.451
80.585
83.975
87.601
91.445
95.487
99.713
104.103
108.632
113.279
118.017
122.823
127.674
132.545
137.409
142.239
147.006
151.684
156.247
160.669
164.921
168.979
172.813
176.399
179.716
182.74
185.45
187.822
189.828
191.452
192.682
193.512
193.944
193.977
193.611
192.853
191.716
190.206
188.329
186.082
183.451
180.434
177.04
173.281
169.187
164.776
160.054
155.029
149.708
144.096
138.204
132.033
125.566
118.813
111.799
104.569
97.202
89.754
82.266
74.776
67.307
59.891
52.575
45.398
38.394
31.603
25.063
18.828
12.977
7.551
2.567
-1.986
-6.159
-9.982
-13.468
-16.631
-19.482
-22.035
-24.314
-26.331
-28.089
-29.603
-30.893
-31.999
-32.979
-33.871
-34.685
-35.416
-36.036
-36.528
-36.891
-37.119
-37.208
-37.158
-36.967
-36.645
-36.218
-35.698
-35.094
-34.404
-33.616
-32.728
-31.753
-30.707
-29.615
-28.5
-27.375
-26.257
-25.168
-24.121
-23.128
-22.193
-21.313
-20.488
-19.723
-19.023
-18.393
-17.84
-17.363
-16.963
-16.638
-16.387
-16.209
-16.099
-16.052
-16.064
-16.132
-16.252
-16.425
-16.648
-16.916
-17.228
-17.578
-17.963
-18.379
-18.82
-19.281
-19.756
-20.241
-20.731
-21.223
-21.711
-22.192
-22.664
-23.121
-23.563
-23.985
-24.386
-24.762
-25.113
-25.437
-25.732
-25.997
-26.232
-26.437
-26.61
-26.754
-26.868
-26.954
-27.011
-27.042
-27.047
-27.029
-26.989
-26.927
-26.847
-26.75
-26.638
-26.513
-26.378
-26.234
-26.084
-25.928
-25.769
-25.608
-25.446
-25.283
-25.119
-24.954
-24.788
-24.621
-24.452
-24.28
-24.102
-23.918
-23.726
-23.523
-23.308
-23.077
-22.828
-22.559
-22.267
-21.95
-21.607
-21.234
-20.831
-20.397
-19.932
-19.434
-18.904
-18.34
-17.743
-17.112
-16.449
-15.753
-15.024
-14.264
-13.474
-12.658
-11.818
-10.956
-10.077
-9.182
-8.276
-7.365
-6.453
-5.541
-4.631
-3.727
-2.833
-1.956
-1.101
-0.266
0.551
1.35
2.135
2.908
3.675
4.455
5.261
6.108
7.008
7.962
8.973
10.052
11.208
12.449
13.781
15.187
16.655
18.179
19.742
21.321
22.877
24.343
25.654
26.748
27.566
28.054
28.167
27.86
27.088
25.805
23.973
21.572
18.578
14.99
10.803
5.986
0.637
-5.041
-10.772
-16.133
-20.735
-24.322
-26.534
-26.973
-25.612
-22.602
-18.363
-13.859
-9.83
-6.743
-5.362
-6.275
-9.388
-14.346
-20.158
-24.859
-26.871
-24.773
-16.571
-0.785
23.146
55.284
94.53
138.406
184.351
229.157
268.282
297.389
312.819
311.029
289.391
246.898
183.135
100.149
3.46
-102.512
-214.009
-327.724
-442.491
-551.936
-645.517
-713.849
-747.747
-746.794
-718.662
-670.907
-612.998
-550.159
-482.305
-411.493
-339.343
-268.507
-204.374
-150.162
-107.062
-75.273
-53.161
-38.722
-30.776
-27.734
-27.389
-27.751
-26.963
-23.947
-18.777
-11.899
-3.669
5.326
14.272
22.28
28.303
31.835
33.042
32.278
30.027
26.807
23.07
19.364
16.336
14.358
13.546
13.899
15.262
17.509
20.574
24.324
28.594
33.249
38.152
43.199
48.323
53.426
58.398
63.136
67.533
71.529
75.106
78.26
81.014
83.4
85.454
87.226
88.778
90.166
91.45
92.683
93.909
95.179
96.544
98.054
99.758
101.688
103.859
106.281
108.953
111.87
115.025
118.403
121.983
125.746
129.675
133.753
137.965
142.29
146.706
151.19
155.717
160.265
164.809
169.328
173.796
178.19
182.488
186.665
190.7
194.569
198.248
201.713
204.939
207.903
210.583
212.959
215.01
216.72
218.071
219.051
219.648
219.853
219.657
219.054
218.042
216.617
214.782
212.537
209.887
206.839
203.401
199.583
195.396
190.855
185.974
180.77
175.262
169.469
163.412
157.113
150.595
143.882
136.999
129.97
122.822
115.58
108.27
100.919
93.551
86.191
78.864
71.593
64.401
57.308
50.336
43.503
36.829
30.328
24.018
17.912
12.023
6.363
0.941
-4.235
-9.156
-13.819
-18.217
-22.349
-26.214
-29.811
-33.143
-36.212
-39.022
-41.579
-43.891
-45.964
-47.809
-49.436
-50.854
-52.076
-53.113
-53.979
-54.685
-55.244
-55.671
-55.978
-56.178
-56.284
-56.309
-56.266
-56.167
-56.023
-55.846
-55.648
-55.438
-55.226
-55.023
-54.836
-54.674
-54.545
-54.454
-54.409
-54.415
-54.475
-54.594
-54.775
-55.019
-55.328
-55.702
-56.142
-56.646
-57.214
-57.843
-58.532
-59.277
-60.077
-60.928
-61.827
-62.771
-63.754
-64.774
-65.826
-66.907
-68.012
-69.137
-70.277
-71.428
-72.585
-73.744
-74.9
-76.049
-77.186
-78.307
-79.407
-80.481
-81.526
-82.537
-83.51
-84.442
-85.329
-86.168
-86.956
-87.691
-88.368
-88.987
-89.543
-90.036
-90.462
-90.82
-91.107
-91.32
-91.458
-91.52
-91.503
-91.406
-91.227
-90.966
-90.621
-90.193
-89.681
-89.085
-88.406
-87.645
-86.804
-85.884
-84.889
-83.822
-82.686
-81.486
-80.227
-78.915
-77.554
-76.15
-74.708
-73.235
-71.736
-70.216
-68.679
-67.132
-65.58
-64.03
-62.488
-60.961
-59.455
-57.977
-56.533
-55.13
-53.772
-52.459
-51.194
-49.977
-48.812
-47.707
-46.661
-45.674
-44.745
-43.872
-43.051
-42.275
-41.528
-40.786
-40.03
-39.241
-38.409
-37.532
-36.6
-35.601
-34.528
-33.371
-32.13
-30.813
-29.417
-27.943
-26.408
-24.839
-23.288
-21.838
-20.552
-19.487
-18.699
-18.218
-18.097
-18.396
-19.159
-20.433
-22.247
-24.6
-27.535
-31.122
-35.328
-40.024
-44.971
-49.791
-54.172
-57.893
-60.66
-62.112
-62.03
-60.451
-57.701
-54.424
-51.234
-48.471
-46.503
-45.895
-47.005
-49.714
-53.417
-56.906
-58.785
-58.041
-53.556
-43.766
-27.403
-3.847
26.812
63.439
104.165
146.966
188.998
226.315
254.888
270.872
270.695
251.652
212.008
151.897
74.09
-17.241
-118.185
-227.493
-345.052
-467.215
-585.293
-684.737
-750.977
-777.469
-767.231
-731.576
-682.863
-629.037
-572.649
-511.891
-446.482
-378.359
-310.766
-248.707
-195.196
-150.952
-116.245
-90.019
-70.647
-57.36
-49.131
-44.215
-41.234
-38.8
-35.464
-30.827
-25.103
-18.316
-10.782
-3.126
4.19
10.455
14.839
17.176
17.655
16.536
14.301
11.416
8.242
5.288
3.095
1.929
1.89
2.954
4.96
7.797
11.379
15.573
20.228
25.208
30.386
35.66
40.953
46.171
51.214
55.985
60.391
64.382
67.939
71.071
73.808
76.183
78.236
80.017
81.584
82.992
84.297
85.548
86.786
88.06
89.415
90.896
92.547
94.396
96.459
98.74
101.237
103.945
106.853
109.948
113.21
116.619
120.159
123.815
127.573
131.417
135.328
139.286
143.272
147.265
151.249
155.202
159.103
162.932
166.664
170.282
173.765
177.093
180.248
183.207
185.953
188.469
190.738
192.744
194.468
195.892
196.997
197.777
198.227
198.349
198.151
197.638
196.821
195.715
194.333
192.683
190.766
188.578
186.109
183.365
180.355
177.1
173.621
169.928
166.028
161.929
157.627
153.123
148.413
143.479
138.317
132.944
127.391
121.713
115.979
110.238
104.529
98.886
93.33
87.9
82.631
77.554
72.709
68.137
63.884
60.018
56.59
53.616
51.095
48.99
47.244
45.819
44.683
43.804
43.163
42.729
42.474
42.381
42.428
42.581
42.801
43.026
43.203
43.307
43.326
43.27
43.169
43.036
42.88
42.715
42.545
42.371
42.195
42.004
41.787
41.538
41.264
40.977
40.692
40.413
40.135
39.847
39.532
39.179
38.778
38.318
37.792
37.199
36.538
35.82
35.055
34.253
33.417
32.553
31.663
30.751
29.825
28.893
27.961
27.04
26.136
25.259
24.416
23.615
22.859
22.152
21.494
20.888
20.334
19.834
19.388
18.997
18.659
18.376
18.146
17.968
17.839
17.756
17.715
17.713
17.747
17.81
17.901
18.013
18.144
18.29
18.446
18.609
18.776
18.943
19.106
19.265
19.416
19.557
19.687
19.806
19.912
20.007
20.09
20.162
20.225
20.281
20.332
20.382
20.434
20.492
20.561
20.646
20.752
20.885
21.05
21.254
21.501
21.797
22.146
22.552
23.019
23.55
24.146
24.811
25.545
26.351
27.23
28.181
29.205
30.303
31.473
32.711
34.014
35.377
36.794
38.259
39.766
41.307
42.875
44.461
46.061
47.668
49.272
50.863
52.424
53.942
55.413
56.83
58.193
59.502
60.76
61.978
63.175
64.366
65.561
66.765
67.974
69.186
70.406
71.641
72.903
74.197
75.517
76.857
78.209
79.559
80.879
82.13
83.246
84.174
84.881
85.346
85.561
85.519
85.203
84.594
83.672
82.425
80.841
78.92
76.664
74.087
71.215
68.087
64.774
61.333
57.811
54.223
50.531
46.76
43.018
39.506
36.553
34.487
33.553
34.022
36.233
40.275
45.97
52.842
59.87
66.044
70.635
72.847
71.983
67.869
60.789
51.655
42.388
35.004
31.28
33.309
42.844
60.949
88.038
123.378
164.933
210.109
255.711
297.445
330.986
352.247
357.411
343.69
309.15
252.738
176.013
83.501
-19.917
-129.828
-244.679
-364.933
-486.846
-601.443
-694.411
-751.565
-767.065
-744.842
-697.372
-637.966
-575.005
-511.347
-445.313
-376.262
-306.272
-239.19
-179.769
-130.75
-92.609
-64.621
-44.984
-31.976
-24.321
-20.257
-18.058
-16.223
-13.264
-8.593
-2.404
5.003
13.185
21.482
29.327
36.031
40.747
43.22
43.623
42.259
39.641
36.248
32.455
28.748
25.671
23.525
22.42
22.323
23.044
24.433
26.388
28.766
31.409
34.171
36.915
39.542
41.991
44.203
46.116
47.679
48.845
49.606
50.01
50.143
50.119
50.043
50.002
50.08
50.359
50.925
51.859
53.216
55.028
57.313
60.09
63.363
67.131
71.36
75.972
80.881
85.993
91.228
96.528
101.839
107.103
112.272
117.307
122.18
126.884
131.408
135.733
139.852
143.761
147.477
151.036
154.47
157.802
161.045
164.198
167.26
170.227
173.088
175.819
178.398
180.794
182.984
184.952
186.676
188.133
189.295
190.128
190.604
190.706
190.417
189.73
188.639
187.139
185.235
182.938
180.258
177.207
173.796
170.036
165.939
161.52
156.799
151.792
146.519
140.999
135.251
129.296
123.155
116.848
110.397
103.82
97.137
90.37
83.541
76.671
69.782
62.895
56.03
49.207
42.447
35.767
29.184
22.713
16.371
10.17
4.123
-1.758
-7.463
-12.982
-18.308
-23.432
-28.35
-33.055
-37.544
-41.814
-45.862
-49.688
-53.292
-56.673
-59.835
-62.779
-65.509
-68.03
-70.345
-72.46
-74.383
-76.12
-77.678
-79.065
-80.289
-81.359
-82.285
-83.075
-83.738
-84.284
-84.721
-85.059
-85.307
-85.475
-85.57
-85.602
-85.579
-85.51
-85.402
-85.263
-85.1
-84.921
-84.732
-84.539
-84.348
-84.165
-83.995
-83.843
-83.712
-83.608
-83.533
-83.49
-83.483
-83.514
-83.585
-83.699
-83.855
-84.057
-84.304
-84.597
-84.938
-85.326
-85.76
-86.241
-86.768
-87.34
-87.957
-88.617
-89.319
-90.062
-90.845
-91.667
-92.527
-93.423
-94.354
-95.32
-96.32
-97.352
-98.416
-99.512
-100.639
-101.796
-102.984
-104.201
-105.447
-106.722
-108.024
-109.354
-110.708
-112.087
-113.488
-114.91
-116.352
-117.811
-119.286
-120.775
-122.276
-123.786
-125.305
-126.828
-128.355
-129.88
-131.403
-132.92
-134.426
-135.92
-137.396
-138.851
-140.28
-141.678
-143.04
-144.361
-145.635
-146.857
-148.02
-149.119
-150.15
-151.108
-151.987
-152.786
-153.501
-154.13
-154.673
-155.128
-155.495
-155.773
-155.963
-156.065
-156.081
-156.011
-155.857
-155.622
-155.31
-154.926
-154.473
-153.959
-153.387
-152.764
-152.096
-151.391
-150.656
-149.897
-149.12
-148.333
-147.547
-146.773
-146.02
-145.293
-144.593
-143.921
-143.272
-142.646
-142.034
-141.421
-140.795
-140.146
-139.462
-138.743
-137.986
-137.183
-136.329
-135.409
-134.418
-133.365
-132.259
-131.119
-129.97
-128.832
-127.744
-126.769
-125.961
-125.376
-125.073
-125.083
-125.444
-126.202
-127.377
-129.013
-131.149
-133.8
-136.988
-140.72
-144.964
-149.727
-155.019
-160.742
-166.724
-172.709
-178.315
-183.23
-187.221
-189.982
-191.149
-190.505
-188.117
-184.374
-180.001
-175.727
-172.008
-169.29
-168.24
-169.273
-172.222
-176.372
-180.316
-182.404
-181.505
-176.45
-165.54
-147.533
-121.908
-88.9
-50.03
-7.41
37.074
80.736
119.604
149.781
167.566
169.63
153.86
118.55
62.252
-13.727
-105.029
-207.178
-315.991
-430.185
-550.635
-673.316
-788.761
-882.498
-939.995
-955.476
-932.921
-884.123
-821.903
-754.189
-683.588
-608.951
-530.303
-450.444
-374.071
-306.603
-251.333
-209.13
-179.42
-160.343
-149.881
-146.283
-147.176
-150.126
-153.01
-153.912
-151.971
-147.286
-140.228
-131.407
-121.756
-112.184
-103.676
-97.254
-93.265
-91.549
-91.766
-93.354
-95.746
-98.461
-100.929
-102.57
-103.101
-102.441
-100.638
-97.874
-94.285
-89.976
-85.102
-79.821
-74.273
-68.575
-62.823
-57.086
-51.452
-46.018
-40.87
-36.09
-31.717
-27.761
-24.208
-21.023
-18.165
-15.587
-13.23
-11.029
-8.921
-6.847
-4.75
-2.583
-0.292
2.171
4.854
7.798
11.031
14.57
18.424
22.595
27.072
31.838
36.869
42.144
47.637
53.326
59.187
65.191
71.318
77.553
83.879
90.28
96.732
103.201
109.652
116.051
122.372
128.602
134.721
140.701
146.524
152.173
157.639
162.92
167.987
172.783
177.261
181.376
185.099
188.427
191.353
193.872
195.982
197.672
198.939
199.791
200.212
200.171
199.637
198.563
196.95
194.842
192.279
189.294
185.911
182.134
177.969
173.428
168.51
163.208
157.524
151.464
145.067
138.41
131.576
124.666
117.746
110.838
103.974
97.182
90.496
83.962
77.624
71.523
65.72
60.294
55.309
50.814
46.823
43.312
40.242
37.553
35.204
33.175
31.443
29.994
28.811
27.877
27.172
26.677
26.354
26.144
25.996
25.87
25.746
25.628
25.53
25.481
25.505
25.617
25.826
26.135
26.54
27.033
27.604
28.243
28.946
29.723
30.58
31.522
32.546
33.64
34.787
35.962
37.144
38.311
39.447
40.539
41.581
42.568
43.501
44.383
45.214
45.994
46.721
47.393
48.008
48.57
49.081
49.546
49.971
50.362
50.725
51.064
51.384
51.688
51.978
52.253
52.517
52.769
53.01
53.244
53.472
53.696
53.919
54.142
54.368
54.598
54.833
55.075
55.325
55.582
55.848
56.123
56.407
56.701
57.005
57.319
57.643
57.976
58.318
58.668
59.026
59.391
59.762
60.137
60.516
60.897
61.28
61.663
62.046
62.429
62.81
63.189
63.565
63.938
64.306
64.669
65.027
65.378
65.724
66.063
66.395
66.721
67.041
67.354
67.662
67.963
68.259
68.549
68.833
69.114
69.39
69.664
69.936
70.208
70.482
70.76
71.044
71.336
71.638
71.954
72.285
72.634
73.005
73.399
73.818
74.267
74.746
75.259
75.806
76.389
77.009
77.665
78.359
79.088
79.852
80.649
81.479
82.339
83.228
84.145
85.088
86.054
87.041
88.048
89.069
90.101
91.137
92.174
93.208
94.232
95.243
96.234
97.198
98.132
99.034
99.898
100.719
101.487
102.196
102.849
103.446
103.99
104.488
104.944
105.367
105.776
106.189
106.618
107.078
107.574
108.111
108.705
109.367
110.11
110.941
111.848
112.819
113.848
114.914
115.988
117.03
117.969
118.74
119.29
119.552
119.468
118.979
118.019
116.549
114.533
111.931
108.733
104.918
100.46
95.393
89.747
83.553
76.966
70.187
63.488
57.309
52.037
47.987
45.559
45.014
46.365
49.507
53.926
58.801
63.487
67.278
69.424
69.61
67.864
64.561
60.927
58.491
58.667
63.298
74.091
92.043
117.69
150.672
189.314
231.407
274.107
313.248
344.509
363.962
367.549
352.059
315.812
257.745
179.333
85.558
-19.741
-133.097
-251.312
-373.878
-494.074
-600.002
-680.918
-725.311
-731.421
-707.556
-661.823
-604.223
-540.348
-469.399
-393.109
-313.905
-235.334
-163.686
-102.956
-54.708
-19.223
5.0
19.98
27.55
29.91
29.701
29.391
31.016
35.658
43.354
53.616
65.753
78.892
91.966
103.827
113.369
120.059
123.985
125.474
125.051
123.266
120.615
117.686
115.1
113.227
112.227
112.158
112.93
114.462
116.711
119.557
122.871
126.545
130.475
134.577
138.79
143.027
147.197
151.228
155.042
158.577
161.787
164.619
167.056
169.107
170.793
172.151
173.225
174.059
174.711
175.241
175.707
176.164
176.658
177.23
177.922
178.772
179.815
181.085
182.599
184.366
186.39
188.666
191.186
193.943
196.918
200.091
203.444
206.961
210.623
214.416
218.321
222.315
226.375
230.476
234.592
238.699
242.769
246.778
250.7
254.511
258.188
261.711
265.056
268.2
271.116
273.777
276.156
278.235
279.996
281.428
282.523
283.283
283.71
283.811
283.59
283.047
282.176
280.966
279.406
277.485
275.2
272.558
269.565
266.229
262.552
258.537
254.177
249.461
244.372
238.888
233.003
226.721
220.07
213.092
205.845
198.393
190.793
183.09
175.327
167.541
159.775
152.069
144.473
137.044
129.848
122.96
116.44
110.329
104.647
99.383
94.512
89.987
85.771
81.835
78.156
74.718
71.506
68.504
65.693
63.052
60.543
58.118
55.737
53.367
50.996
48.627
46.281
43.99
41.782
39.679
37.696
35.839
34.109
32.503
31.015
29.639
28.376
27.235
26.221
25.343
24.595
23.967
23.441
22.993
22.599
22.237
21.89
21.545
21.193
20.828
20.449
20.057
19.65
19.225
18.777
18.302
17.797
17.262
16.698
16.107
15.493
14.86
14.212
13.552
12.883
12.205
11.52
10.827
10.126
9.417
8.702
7.981
7.258
6.535
5.812
5.094
4.383
3.679
2.986
2.304
1.635
0.979
0.337
-0.289
-0.9
-1.496
-2.077
-2.644
-3.196
-3.736
-4.264
-4.783
-5.294
-5.8
-6.303
-6.804
-7.307
-7.813
-8.326
-8.847
-9.379
-9.924
-10.485
-11.064
-11.664
-12.287
-12.936
-13.614
-14.323
-15.066
-15.845
-16.661
-17.518
-18.415
-19.355
-20.339
-21.366
-22.437
-23.551
-24.708
-25.905
-27.141
-28.413
-29.718
-31.053
-32.414
-33.797
-35.197
-36.611
-38.032
-39.457
-40.879
-42.293
-43.692
-45.072
-46.425
-47.745
-49.025
-50.26
-51.442
-52.565
-53.622
-54.608
-55.515
-56.339
-57.073
-57.713
-58.252
-58.689
-59.02
-59.242
-59.355
-59.359
-59.253
-59.041
-58.725
-58.307
-57.793
-57.187
-56.493
-55.719
-54.87
-53.951
-52.971
-51.936
-50.856
-49.738
-48.594
-47.43
-46.258
-45.086
-43.926
-42.787
-41.678
-40.605
-39.573
-38.59
-37.664
-36.804
-36.017
-35.303
-34.663
-34.098
-33.605
-33.181
-32.815
-32.486
-32.175
-31.867
-31.551
-31.223
-30.878
-30.502
-30.084
-29.611
-29.077
-28.485
-27.839
-27.136
-26.382
-25.596
-24.812
-24.098
-23.523
-23.139
-22.997
-23.133
-23.574
-24.368
-25.573
-27.234
-29.399
-32.098
-35.336
-39.164
-43.652
-48.769
-54.372
-60.186
-65.816
-70.925
-75.286
-78.613
-80.533
-80.832
-79.571
-77.138
-74.263
-71.641
-69.63
-68.58
-69.061
-71.384
-75.334
-80.17
-84.449
-86.557
-85.433
-79.988
-68.63
-50.158
-24.069
9.365
48.584
91.413
135.888
179.36
217.947
247.611
264.483
265.394
248.304
211.551
154.117
76.218
-19.013
-125.667
-239.057
-355.395
-472.273
-589.51
-700.61
-794.347
-860.9
-889.755
-880.162
-841.448
-782.34
-713.731
-641.906
-566.369
-488.922
-411.542
-337.457
-272.47
-219.849
-180.44
-153.851
-137.879
-130.111
-128.68
-131.134
-135.002
-138.25
-139.119
-136.894
-131.835
-124.471
-115.492
-105.867
-96.515
-88.359
-82.334
-78.72
-77.306
-77.726
-79.415
-81.809
-84.438
-86.754
-88.211
-88.548
-87.694
-85.696
-82.731
-78.933
-74.41
-69.317
-63.816
-58.05
-52.142
-46.187
-40.26
-34.451
-28.861
-23.581
-18.698
-14.258
-10.276
-6.747
-3.643
-0.931
1.43
3.495
5.324
6.976
8.509
9.974
11.419
12.89
14.438
16.109
17.947
19.981
22.228
24.697
27.388
30.299
33.424
36.75
40.26
43.939
47.772
51.743
55.84
60.045
64.337
68.697
73.101
77.527
81.954
86.36
90.722
95.016
99.22
103.311
107.266
111.063
114.676
118.083
121.258
124.18
126.826
129.176
131.21
132.911
134.264
135.254
135.871
136.104
135.947
135.392
134.438
133.083
131.328
129.177
126.633
123.706
120.404
116.74
112.727
108.38
103.718
98.759
93.523
88.033
82.313
76.386
70.278
64.014
57.622
51.128
44.56
37.944
31.307
24.676
18.077
11.535
5.074
-1.282
-7.512
-13.594
-19.51
-25.239
-30.767
-36.078
-41.157
-45.993
-50.576
-54.898
-58.951
-62.731
-66.234
-69.459
-72.407
-75.078
-77.478
-79.61
-81.482
-83.1
-84.475
-85.617
-86.536
-87.245
-87.756
-88.083
-88.239
-88.239
-88.097
-87.828
-87.444
-86.962
-86.395
-85.756
-85.06
-84.32
-83.547
-82.753
-81.951
-81.149
-80.358
-79.586
-78.842
-78.131
-77.46
-76.833
-76.255
-75.729
-75.257
-74.84
-74.478
-74.17
-73.916
-73.713
-73.558
-73.45
-73.384
-73.356
-73.363
-73.399
-73.462
-73.545
-73.645
-73.756
-73.875
-73.996
-74.114
-74.226
-74.327
-74.413
-74.48
-74.525
-74.544
-74.535
-74.496
-74.424
-74.317
-74.175
-73.995
-73.779
-73.525
-73.234
-72.908
-72.546
-72.15
-71.723
-71.266
-70.78
-70.269
-69.733
-69.177
-68.601
-68.008
-67.4
-66.78
-66.149
-65.511
-64.868
-64.221
-63.573
-62.927
-62.284
-61.647
-61.019
-60.4
-59.793
-59.2
-58.622
-58.062
-57.52
-56.999
-56.5
-56.024
-55.571
-55.144
-54.742
-54.367
-54.019
-53.698
-53.406
-53.142
-52.907
-52.702
-52.527
-52.383
-52.269
-52.187
-52.136
-52.115
-52.126
-52.166
-52.235
-52.331
-52.453
-52.599
-52.767
-52.954
-53.159
-53.378
-53.609
-53.847
-54.09
-54.334
-54.575
-54.808
-55.03
-55.235
-55.42
-55.58
-55.711
-55.806
-55.862
-55.874
-55.836
-55.743
-55.589
-55.371
-55.082
-54.718
-54.274
-53.748
-53.136
-52.436
-51.646
-50.767
-49.798
-48.742
-47.599
-46.373
-45.065
-43.681
-42.222
-40.695
-39.103
-37.453
-35.752
-34.007
-32.229
-30.427
-28.611
-26.791
-24.978
-23.181
-21.411
-19.678
-17.99
-16.358
-14.794
-13.31
-11.921
-10.637
-9.464
-8.404
-7.459
-6.623
-5.893
-5.259
-4.705
-4.22
-3.795
-3.425
-3.109
-2.839
-2.603
-2.389
-2.18
-1.967
-1.751
-1.533
-1.317
-1.117
-0.955
-0.858
-0.873
-1.032
-1.358
-1.876
-2.606
-3.582
-4.844
-6.429
-8.368
-10.671
-13.351
-16.424
-19.91
-23.812
-28.123
-32.799
-37.805
-43.165
-48.811
-54.592
-60.274
-65.461
-69.796
-73.057
-74.92
-74.988
-73.215
-69.753
-65.043
-60.066
-55.558
-51.927
-49.882
-50.051
-52.415
-56.663
-61.78
-65.777
-67.194
-64.891
-57.08
-42.295
-19.745
10.972
48.885
91.714
137.499
183.804
226.787
262.549
287.163
296.647
288.344
260.505
211.432
141.88
55.711
-42.963
-150.066
-264.078
-385.782
-511.459
-631.553
-731.021
-794.693
-815.994
-798.581
-754.596
-697.021
-633.868
-567.823
-497.594
-423.263
-347.753
-275.648
-212.189
-160.479
-121.161
-93.488
-75.486
-64.944
-60.011
-58.422
-57.967
-56.856
-53.561
-47.52
-39.048
-28.732
-17.306
-5.714
5.165
14.482
21.395
25.653
27.49
27.291
25.617
23.025
19.986
17.029
14.695
13.293
12.937
13.626
15.234
17.654
20.809
24.578
28.825
33.422
38.251
43.213
48.232
53.224
58.095
62.751
67.104
71.078
74.634
77.765
80.481
82.81
84.788
86.457
87.871
89.095
90.189
91.211
92.21
93.231
94.321
95.527
96.895
98.465
100.265
102.306
104.597
107.137
109.922
112.944
116.191
119.64
123.275
127.08
131.036
135.13
139.342
143.65
148.031
152.462
156.919
161.38
165.821
170.218
174.546
178.781
182.901
186.883
190.703
194.339
197.765
200.959
203.899
206.566
208.938
210.999
212.732
214.123
215.161
215.834
216.136
216.061
215.604
214.764
213.54
211.934
209.951
207.597
204.878
201.805
198.389
194.644
190.583
186.225
181.585
176.684
171.542
166.179
160.619
154.883
148.995
142.978
136.857
130.655
124.395
118.101
111.796
105.503
99.243
93.036
86.902
80.86
74.928
69.122
63.458
57.949
52.608
47.447
42.477
37.706
33.143
28.794
24.664
20.757
17.076
13.622
10.396
7.396
4.62
2.066
-0.27
-2.393
-4.31
-6.026
-7.548
-8.885
-10.043
-11.032
-11.86
-12.536
-13.068
-13.465
-13.737
-13.892
-13.937
-13.883
-13.736
-13.505
-13.198
-12.82
-12.381
-11.885
-11.339
-10.749
-10.121
-9.46
-8.77
-8.055
-7.321
-6.57
-5.806
-5.032
-4.251
-3.463
-2.673
-1.881
-1.088
-0.297
0.493
1.279
2.062
2.84
3.612
4.378
5.136
5.888
6.63
7.364
8.087
8.8
9.502
10.192
10.868
11.531
12.179
12.813
13.43
14.032
14.617
15.185
15.737
16.271
16.787
17.286
17.768
18.232
18.679
19.109
19.521
19.917
20.297
20.661
21.01
21.344
21.666
21.974
22.271
22.556
22.832
23.099
23.359
23.612
23.859
24.103
24.343
24.581
24.817
25.053
25.289
25.525
25.761
25.998
26.235
26.472
26.71
26.948
27.184
27.42
27.654
27.884
28.111
28.332
28.547
28.754
28.952
29.139
29.314
29.475
29.62
29.748
29.858
29.946
30.013
30.055
30.072
30.062
30.024
29.958
29.863
29.739
29.586
29.405
29.196
28.96
28.699
28.412
28.103
27.772
27.422
27.053
26.67
26.274
25.868
25.455
25.04
24.624
24.213
23.808
23.416
23.038
22.68
22.346
22.041
21.768
21.533
21.339
21.191
21.093
21.046
21.054
21.118
21.239
21.416
21.649
21.936
22.277
22.671
23.114
23.606
24.145
24.727
25.351
26.013
26.707
27.427
28.168
28.923
29.686
30.451
31.21
31.958
32.686
33.391
34.065
34.701
35.289
35.819
36.282
36.677
37.001
37.259
37.457
37.599
37.698
37.773
37.838
37.907
37.991
38.095
38.227
38.398
38.618
38.904
39.262
39.687
40.173
40.707
41.269
41.835
42.368
42.811
43.113
43.229
43.113
42.723
42.017
40.944
39.47
37.569
35.22
32.405
29.11
25.322
21.046
16.317
11.163
5.595
-0.284
-6.296
-12.182
-17.548
-22.042
-25.433
-27.393
-27.536
-25.809
-22.357
-17.605
-12.479
-7.675
-3.575
-0.863
-0.173
-1.528
-4.664
-8.661
-11.651
-12.268
-9.421
-1.389
13.243
35.243
64.993
101.584
142.875
186.959
231.393
272.359
306.009
328.495
336.0
325.908
296.39
245.865
175.244
88.526
-9.803
-115.518
-227.141
-345.277
-466.651
-582.297
-677.392
-737.332
-755.397
-734.913
-688.601
-629.915
-567.592
-504.921
-440.093
-372.473
-304.329
-239.612
-183.291
-138.167
-104.496
-81.321
-66.627
-58.406
-55.06
-54.509
-54.753
-54.208
-51.536
-46.331
-38.95
-29.891
-19.796
-9.537
0.106
8.362
14.458
18.203
19.817
19.626
18.128
15.806
13.05
10.323
8.1
6.644
6.075
6.405
7.519
9.323
11.729
14.602
17.794
21.164
24.584
27.961
31.237
34.363
37.305
40.037
42.523
44.731
46.63
48.215
49.507
50.541
51.376
52.087
52.759
53.502
54.417
55.584
57.057
58.859
60.987
63.425
66.164
69.199
72.529
76.15
80.051
84.218
88.631
93.263
98.067
102.98
107.936
112.88
117.771
122.588
127.325
131.989
136.586
141.122
145.605
150.035
154.409
158.713
162.925
167.019
170.984
174.824
178.543
182.15
185.651
189.048
192.345
195.532
198.592
201.488
204.175
206.607
208.738
210.549
212.026
213.156
213.921
214.292
214.24
213.73
212.718
211.156
208.984
206.154
202.641
198.455
193.618
188.162
182.126
175.518
168.358
160.683
152.53
143.955
135.018
125.785
116.345
106.81
97.299
87.919
78.758
69.866
61.289
53.072
45.256
37.905
31.066
24.757
19.0
13.802
9.155
5.046
1.436
-1.754
-4.593
-7.139
-9.438
-11.507
-13.373
-15.067
-16.622
-18.081
-19.476
-20.825
-22.146
-23.458
-24.763
-26.061
-27.332
-28.528
-29.614
-30.572
-31.389
-32.069
-32.613
-33.014
-33.271
-33.384
-33.354
-33.188
-32.891
-32.463
-31.916
-31.263
-30.528
-29.748
-28.948
-28.148
-27.362
-26.601
-25.873
-25.189
-24.554
-23.97
-23.439
-22.963
-22.546
-22.194
-21.909
-21.69
-21.535
-21.437
-21.393
-21.399
-21.453
-21.552
-21.692
-21.872
-22.092
-22.35
-22.648
-22.982
-23.351
-23.751
-24.179
-24.631
-25.105
-25.596
-26.102
-26.62
-27.145
-27.677
-28.212
-28.747
-29.28
-29.808
-30.328
-30.838
-31.336
-31.819
-32.285
-32.732
-33.161
-33.568
-33.954
-34.317
-34.657
-34.973
-35.266
-35.535
-35.78
-36.001
-36.199
-36.374
-36.527
-36.66
-36.773
-36.869
-36.949
-37.015
-37.07
-37.115
-37.152
-37.184
-37.212
-37.239
-37.265
-37.294
-37.327
-37.365
-37.409
-37.461
-37.523
-37.594
-37.677
-37.771
-37.877
-37.994
-38.122
-38.26
-38.408
-38.564
-38.726
-38.893
-39.063
-39.232
-39.399
-39.559
-39.708
-39.844
-39.961
-40.055
-40.121
-40.153
-40.149
-40.102
-40.01
-39.868
-39.673
-39.423
-39.116
-38.751
-38.327
-37.841
-37.296
-36.689
-36.022
-35.295
-34.51
-33.667
-32.77
-31.823
-30.832
-29.802
-28.739
-27.649
-26.54
-25.418
-24.293
-23.169
-22.055
-20.957
-19.886
-18.853
-17.872
-16.952
-16.099
-15.314
-14.6
-13.952
-13.364
-12.827
-12.324
-11.845
-11.381
-10.928
-10.485
-10.046
-9.604
-9.148
-8.666
-8.154
-7.612
-7.045
-6.462
-5.881
-5.329
-4.849
-4.486
-4.278
-4.258
-4.451
-4.878
-5.576
-6.571
-7.892
-9.568
-11.601
-14.005
-16.797
-19.986
-23.574
-27.541
-31.831
-36.408
-41.282
-46.398
-51.625
-56.746
-61.406
-65.294
-68.192
-69.827
-69.863
-68.122
-64.711
-60.053
-54.942
-50.196
-46.345
-43.896
-43.519
-45.578
-49.84
-55.512
-61.085
-64.779
-65.309
-61.397
-51.312
-33.771
-8.282
24.918
64.33
107.655
152.73
196.709
235.502
265.073
281.775
282.103
263.666
225.303
166.168
87.926
-4.438
-107.143
-216.731
-330.3
-447.707
-562.675
-664.005
-741.536
-784.339
-791.206
-770.53
-730.347
-680.413
-625.723
-564.97
-499.456
-431.03
-362.492
-299.381
-244.966
-200.36
-166.11
-141.206
-123.992
-113.105
-106.97
-103.535
-101.076
-98.159
-93.462
-86.574
-77.78
-67.467
-56.238
-44.925
-34.209
-24.793
-17.431
-12.319
-9.276
-8.017
-8.07
-8.954
-10.301
-11.686
-12.664
-13.007
-12.624
-11.49
-9.72
-7.43
-4.706
-1.683
1.507
4.77
8.02
11.183
14.209
17.043
19.645
22.011
24.145
26.049
27.73
29.197
30.489
31.696
32.905
34.198
35.648
37.307
39.227
41.47
44.081
47.076
50.452
54.175
58.199
62.5
67.06
71.852
76.838
81.949
87.122
92.311
97.472
102.57
107.559
112.39
117.027
121.47
125.731
129.835
133.817
137.691
141.464
145.154
148.781
152.367
155.927
159.462
162.976
166.484
170.019
173.602
177.24
180.911
184.576
188.196
191.723
195.114
198.325
201.298
203.977
206.315
208.273
209.811
210.885
211.427
211.353
210.593
209.104
206.86
203.858
200.104
195.607
190.387
184.478
177.92
170.76
163.048
154.829
146.165
137.135
127.836
118.395
108.93
99.541
90.314
81.315
72.599
64.221
56.229
48.661
41.559
34.953
28.862
23.303
18.279
13.771
9.743
6.135
2.871
-0.108
-2.849
-5.389
-7.747
-9.953
-12.035
-14.02
-15.94
-17.823
-19.685
-21.544
-23.412
-25.288
-27.16
-28.998
-30.755
-32.398
-33.908
-35.271
-36.486
-37.551
-38.459
-39.208
-39.796
-40.222
-40.489
-40.599
-40.551
-40.354
-40.022
-39.577
-39.051
-38.469
-37.847
-37.2
-36.536
-35.863
-35.189
-34.519
-33.854
-33.195
-32.545
-31.908
-31.289
-30.691
-30.113
-29.553
-29.007
-28.471
-27.943
-27.421
-26.905
-26.393
-25.884
-25.379
-24.881
-24.392
-23.91
-23.436
-22.968
-22.506
-22.049
-21.596
-21.147
-20.7
-20.255
-19.811
-19.369
-18.929
-18.491
-18.054
-17.618
-17.182
-16.748
-16.314
-15.881
-15.448
-15.016
-14.585
-14.156
-13.729
-13.304
-12.883
-12.465
-12.051
-11.642
-11.237
-10.838
-10.444
-10.056
-9.674
-9.299
-8.932
-8.573
-8.221
-7.879
-7.547
-7.224
-6.912
-6.61
-6.319
-6.038
-5.77
-5.515
-5.272
-5.044
-4.83
-4.633
-4.452
-4.288
-4.143
-4.016
-3.908
-3.819
-3.751
-3.704
-3.679
-3.677
-3.698
-3.744
-3.815
-3.912
-4.034
-4.181
-4.355
-4.554
-4.779
-5.03
-5.307
-5.608
-5.934
-6.285
-6.659
-7.054
-7.469
-7.901
-8.349
-8.809
-9.277
-9.751
-10.227
-10.703
-11.177
-11.646
-12.108
-12.558
-12.996
-13.418
-13.819
-14.194
-14.535
-14.838
-15.097
-15.307
-15.466
-15.569
-15.612
-15.595
-15.518
-15.38
-15.18
-14.915
-14.575
-14.158
-13.667
-13.11
-12.496
-11.836
-11.137
-10.41
-9.674
-8.94
-8.215
-7.496
-6.769
-6.026
-5.269
-4.507
-3.758
-3.028
-2.312
-1.607
-0.904
-0.199
0.514
1.255
2.065
2.961
3.952
5.021
6.13
7.26
8.408
9.571
10.758
11.965
13.173
14.373
15.559
16.722
17.852
18.91
19.829
20.571
21.11
21.44
21.591
21.555
21.308
20.835
20.109
19.105
17.817
16.223
14.29
12.014
9.38
6.39
3.078
-0.554
-4.499
-8.735
-13.288
-18.201
-23.415
-28.801
-34.129
-39.012
-43.119
-46.223
-48.014
-48.126
-46.403
-42.946
-38.195
-33.072
-28.453
-24.897
-22.997
-23.361
-26.215
-31.329
-37.844
-43.952
-47.693
-47.508
-41.718
-28.691
-7.329
22.877
61.504
106.695
155.88
206.26
254.198
295.5
326.057
342.022
339.98
317.578
273.732
208.239
123.489
24.615
-84.24
-199.141
-316.75
-435.907
-549.957
-648.356
-721.777
-760.327
-763.07
-737.633
-691.485
-634.163
-571.095
-502.05
-428.976
-354.076
-280.568
-214.189
-158.485
-114.716
-82.972
-61.714
-49.004
-43.249
-42.476
-44.216
-46.207
-46.565
-44.286
-39.389
-32.299
-23.56
-13.924
-4.331
4.194
10.613
14.467
15.906
15.279
13.117
9.969
6.32
2.758
-0.087
-1.864
-2.46
-1.884
-0.29
2.199
5.511
9.506
14.025
18.934
24.1
29.427
34.842
40.242
45.515
50.554
55.249
59.538
63.398
66.82
69.824
72.442
74.705
76.665
78.38
79.907
81.303
82.619
83.901
85.201
86.568
88.056
89.713
91.575
93.659
95.978
98.535
101.326
104.348
107.587
111.024
114.646
118.436
122.38
126.465
130.675
134.989
139.388
143.85
148.352
152.874
157.394
161.892
166.343
170.727
175.021
179.204
183.255
187.149
190.863
194.373
197.656
200.69
203.454
205.928
208.094
209.934
211.434
212.581
213.365
213.775
213.805
213.449
212.702
211.565
210.038
208.122
205.823
203.146
200.1
196.694
192.942
188.855
184.449
179.741
174.748
169.491
163.989
158.263
152.337
146.234
139.976
133.589
127.097
120.525
113.898
107.239
100.574
93.925
87.316
80.768
74.304
67.944
61.706
55.61
49.671
43.907
38.331
32.957
27.796
22.859
18.155
13.692
9.476
5.511
1.801
-1.652
-4.848
-7.787
-10.471
-12.904
-15.089
-17.034
-18.743
-20.226
-21.49
-22.545
-23.4
-24.068
-24.559
-24.884
-25.055
-25.086
-24.988
-24.773
-24.455
-24.044
-23.554
-22.996
-22.381
-21.721
-21.026
-20.305
-19.57
-18.828
-18.087
-17.357
-16.644
-15.954
-15.294
-14.669
-14.083
-13.54
-13.044
-12.597
-12.201
-11.857
-11.567
-11.33
-11.147
-11.016
-10.936
-10.906
-10.924
-10.987
-11.092
-11.238
-11.42
-11.636
-11.884
-12.158
-12.457
-12.778
-13.116
-13.47
-13.836
-14.211
-14.592
-14.977
-15.364
-15.749
-16.131
-16.507
-16.876
-17.236
-17.584
-17.919
-18.241
-18.547
-18.837
-19.109
-19.363
-19.598
-19.813
-20.009
-20.185
-20.341
-20.476
-20.591
-20.685
-20.758
-20.81
-20.841
-20.85
-20.839
-20.806
-20.751
-20.675
-20.578
-20.459
-20.318
-20.156
-19.973
-19.77
-19.546
-19.304
-19.042
-18.763
-18.467
-18.157
-17.832
-17.494
-17.145
-16.787
-16.421
-16.049
-15.672
-15.294
-14.915
-14.538
-14.165
-13.8
-13.443
-13.098
-12.768
-12.455
-12.162
-11.892
-11.647
-11.429
-11.242
-11.087
-10.967
-10.882
-10.835
-10.826
-10.855
-10.923
-11.029
-11.172
-11.352
-11.567
-11.814
-12.093
-12.4
-12.733
-13.088
-13.463
-13.853
-14.256
-14.665
-15.078
-15.489
-15.893
-16.287
-16.664
-17.019
-17.347
-17.642
-17.899
-18.114
-18.279
-18.392
-18.448
-18.442
-18.372
-18.236
-18.033
-17.761
-17.423
-17.019
-16.551
-16.021
-15.433
-14.79
-14.096
-13.357
-12.575
-11.757
-10.91
-10.039
-9.155
-8.263
-7.373
-6.492
-5.627
-4.786
-3.978
-3.21
-2.489
-1.821
-1.213
-0.673
-0.211
0.168
0.462
0.675
0.81
0.873
0.871
0.813
0.717
0.597
0.468
0.342
0.223
0.121
0.045
0.011
0.037
0.132
0.295
0.516
0.786
1.094
1.426
1.753
2.027
2.203
2.237
2.091
1.738
1.141
0.268
-0.912
-2.433
-4.323
-6.605
-9.287
-12.385
-15.889
-19.81
-24.171
-28.879
-33.763
-38.579
-42.958
-46.566
-49.173
-50.442
-49.964
-47.68
-43.74
-38.579
-33.164
-28.243
-24.272
-22.01
-22.148
-24.73
-29.471
-35.387
-40.468
-43.16
-42.16
-35.51
-21.632
0.301
30.651
68.405
111.244
157.041
203.074
245.215
279.398
301.673
308.208
296.493
264.851
211.86
138.665
49.453
-51.306
-159.272
-272.666
-391.82
-512.883
-626.798
-719.588
-777.4
-794.436
-774.332
-728.696
-669.983
-606.121
-540.01
-470.574
-397.827
-324.348
-254.352
-192.813
-142.696
-104.672
-78.101
-61.139
-51.845
-48.613
-49.305
-51.777
-54.171
-54.763
-52.805
-48.428
-41.982
-34.016
-25.358
-16.789
-9.178
-3.478
-0.008
1.378
0.972
-0.718
-3.188
-6.02
-8.694
-10.656
-11.637
-11.553
-10.441
-8.475
-5.781
-2.456
1.355
5.493
9.823
14.228
18.622
22.944
27.115
31.043
34.646
37.842
40.592
42.89
44.747
46.195
47.273
48.028
48.52
48.814
48.975
49.06
49.124
49.215
49.387
49.696
50.195
50.93
51.93
53.211
54.781
56.64
58.775
61.166
63.785
66.602
69.597
72.763
76.089
79.564
83.174
86.9
90.732
94.675
98.727
102.883
107.14
111.49
115.946
120.536
125.279
130.182
135.238
140.409
145.664
150.971
156.286
161.56
166.725
171.686
176.371
180.722
184.678
188.187
191.173
193.541
195.217
196.148
196.301
195.672
194.258
192.055
189.088
185.401
181.06
176.161
170.776
164.96
158.773
152.271
145.525
138.632
131.663
124.673
117.708
110.801
103.985
97.299
90.756
84.351
78.067
71.869
65.742
59.688
53.705
47.794
41.953
36.167
30.437
24.776
19.195
13.705
8.316
3.03
-2.135
-7.155
-12.001
-16.645
-21.063
-25.244
-29.178
-32.857
-36.274
-39.424
-42.31
-44.94
-47.32
-49.455
-51.35
-53.009
-54.441
-55.657
-56.669
-57.49
-58.13
-58.602
-58.915
-59.082
-59.112
-59.014
-58.797
-58.468
-58.035
-57.508
-56.895
-56.207
-55.452
-54.638
-53.775
-52.871
-51.934
-50.972
-49.99
-48.995
-47.992
-46.987
-45.984
-44.987
-44.002
-43.03
-42.075
-41.14
-40.227
-39.338
-38.475
-37.638
-36.829
-36.049
-35.297
-34.575
-33.882
-33.218
-32.584
-31.979
-31.403
-30.855
-30.335
-29.842
-29.375
-28.933
-28.515
-28.121
-27.748
-27.397
-27.067
-26.756
-26.464
-26.19
-25.934
-25.695
-25.471
-25.264
-25.071
-24.893
-24.73
-24.58
-24.444
-24.321
-24.211
-24.114
-24.029
-23.957
-23.898
-23.85
-23.814
-23.79
-23.777
-23.775
-23.784
-23.803
-23.832
-23.87
-23.918
-23.973
-24.037
-24.108
-24.185
-24.268
-24.356
-24.448
-24.543
-24.641
-24.741
-24.842
-24.942
-25.041
-25.138
-25.232
-25.322
-25.407
-25.486
-25.558
-25.622
-25.677
-25.722
-25.756
-25.779
-25.79
-25.787
-25.77
-25.74
-25.694
-25.634
-25.559
-25.469
-25.364
-25.244
-25.111
-24.963
-24.803
-24.63
-24.446
-24.251
-24.046
-23.833
-23.613
-23.387
-23.156
-22.922
-22.685
-22.446
-22.208
-21.97
-21.734
-21.499
-21.268
-21.04
-20.816
-20.596
-20.382
-20.173
-19.969
-19.771
-19.576
-19.386
-19.199
-19.014
-18.829
-18.643
-18.454
-18.26
-18.06
-17.85
-17.629
-17.392
-17.139
-16.864
-16.566
-16.24
-15.886
-15.5
-15.079
-14.623
-14.13
-13.599
-13.031
-12.426
-11.783
-11.104
-10.389
-9.64
-8.858
-8.045
-7.201
-6.328
-5.431
-4.512
-3.576
-2.627
-1.668
-0.706
0.257
1.214
2.159
3.087
3.997
4.884
5.745
6.573
7.36
8.101
8.795
9.445
10.054
10.624
11.162
11.676
12.184
12.705
13.254
13.843
14.474
15.153
15.886
16.687
17.567
18.536
19.586
20.708
21.893
23.127
24.391
25.645
26.828
27.872
28.708
29.282
29.55
29.473
29.018
28.141
26.79
24.921
22.505
19.528
15.99
11.882
7.161
1.891
-3.744
-9.464
-14.855
-19.549
-23.294
-25.781
-26.623
-25.646
-22.907
-18.741
-13.979
-9.397
-5.488
-2.867
-2.136
-3.514
-6.88
-11.533
-15.847
-18.143
-16.968
-10.508
2.842
24.18
54.1
92.09
136.361
184.606
233.908
280.188
319.176
346.645
358.432
351.397
323.326
272.774
200.974
112.194
10.843
-98.783
-214.992
-338.189
-463.776
-582.031
-678.432
-738.348
-756.418
-737.057
-692.251
-635.096
-573.348
-509.352
-442.009
-371.235
-299.715
-231.905
-172.591
-124.493
-88.055
-62.377
-45.537
-35.556
-30.783
-29.137
-28.609
-27.551
-24.527
-19.042
-11.401
-2.097
8.231
18.728
28.604
37.057
43.259
46.965
48.391
47.885
45.97
43.163
39.901
36.693
34.077
32.363
31.666
31.988
33.208
35.222
37.961
41.31
45.135
49.312
53.728
58.288
62.922
67.554
72.09
76.441
80.518
84.241
87.573
90.5
93.031
95.19
97.008
98.527
99.799
100.886
101.848
102.742
103.617
104.516
105.486
106.574
107.821
109.27
110.95
112.877
115.067
117.523
120.243
123.22
126.44
129.876
133.503
137.286
141.192
145.197
149.276
153.408
157.583
161.785
166.002
170.224
174.432
178.611
182.747
186.82
190.816
194.733
198.572
202.35
206.094
209.806
213.479
217.096
220.618
224.006
227.211
230.169
232.83
235.152
237.095
238.634
239.746
240.391
240.528
240.1
239.041
237.311
234.888
231.761
227.95
223.488
218.423
212.838
206.801
200.371
193.603
186.537
179.209
171.672
163.982
156.198
148.398
140.642
132.98
125.458
118.103
110.926
103.926
97.076
90.354
83.753
77.268
70.909
64.688
58.609
52.677
46.901
41.276
35.802
30.481
25.308
20.289
15.436
10.765
6.302
2.071
-1.914
-5.644
-9.114
-12.326
-15.281
-17.984
-20.445
-22.674
-24.676
-26.459
-28.029
-29.392
-30.559
-31.543
-32.356
-33.013
-33.527
-33.91
-34.174
-34.33
-34.389
-34.358
-34.246
-34.059
-33.805
-33.493
-33.132
-32.728
-32.291
-31.826
-31.342
-30.845
-30.341
-29.833
-29.327
-28.824
-28.33
-27.845
-27.371
-26.911
-26.465
-26.035
-25.62
-25.222
-24.84
-24.475
-24.127
-23.794
-23.477
-23.176
-22.889
-22.617
-22.359
-22.114
-21.882
-21.663
-21.457
-21.263
-21.081
-20.91
-20.751
-20.604
-20.467
-20.342
-20.228
-20.126
-20.036
-19.959
-19.896
-19.849
-19.818
-19.804
-19.808
-19.833
-19.877
-19.944
-20.032
-20.144
-20.278
-20.437
-20.62
-20.826
-21.056
-21.31
-21.587
-21.885
-22.206
-22.547
-22.907
-23.285
-23.681
-24.091
-24.516
-24.953
-25.4
-25.856
-26.319
-26.787
-27.257
-27.728
-28.197
-28.662
-29.121
-29.571
-30.01
-30.437
-30.849
-31.245
-31.623
-31.982
-32.321
-32.64
-32.937
-33.213
-33.467
-33.7
-33.912
-34.104
-34.276
-34.431
-34.567
-34.688
-34.794
-34.886
-34.966
-35.035
-35.095
-35.146
-35.19
-35.228
-35.262
-35.291
-35.316
-35.339
-35.36
-35.379
-35.397
-35.414
-35.429
-35.442
-35.452
-35.458
-35.459
-35.452
-35.436
-35.407
-35.364
-35.303
-35.221
-35.115
-34.982
-34.818
-34.619
-34.383
-34.107
-33.786
-33.419
-33.002
-32.535
-32.016
-31.443
-30.817
-30.137
-29.406
-28.624
-27.794
-26.918
-25.998
-25.039
-24.044
-23.017
-21.962
-20.882
-19.783
-18.669
-17.548
-16.425
-15.307
-14.2
-13.113
-12.052
-11.026
-10.04
-9.095
-8.196
-7.345
-6.549
-5.814
-5.144
-4.54
-4.003
-3.535
-3.134
-2.797
-2.514
-2.264
-2.03
-1.798
-1.56
-1.315
-1.055
-0.771
-0.456
-0.102
0.294
0.727
1.2
1.719
2.275
2.85
3.402
3.858
4.162
4.262
4.114
3.693
2.959
1.859
0.353
-1.598
-4.027
-6.938
-10.375
-14.434
-19.085
-24.204
-29.568
-34.77
-39.464
-43.437
-46.342
-47.774
-47.654
-46.08
-43.449
-40.675
-38.439
-37.119
-37.364
-39.744
-44.231
-50.509
-57.59
-63.55
-66.894
-66.394
-60.254
-46.971
-25.754
3.717
40.479
82.261
126.942
171.945
213.413
247.324
269.75
277.17
267.24
238.457
189.926
121.85
37.254
-58.378
-160.495
-265.086
-369.604
-473.648
-571.226
-652.589
-709.347
-732.63
-722.53
-687.738
-636.245
-577.807
-517.769
-455.536
-392.404
-329.605
-269.444
-216.364
-172.722
-139.03
-114.886
-98.523
-88.162
-82.591
-80.169
-79.246
-78.424
-76.352
-72.473
-66.983
-60.217
-52.592
-44.732
-37.214
-30.693
-25.962
-23.279
-22.47
-23.255
-25.178
-27.785
-30.719
-33.515
-35.647
-36.838
-36.988
-36.103
-34.325
-31.76
-28.474
-24.592
-20.258
-15.597
-10.728
-5.745
-0.708
4.297
9.179
13.848
18.212
22.22
25.857
29.124
32.043
34.644
36.961
39.04
40.937
42.709
44.409
46.084
47.775
49.526
51.382
53.386
55.582
57.999
60.651
63.541
66.672
70.042
73.649
77.484
81.527
85.754
90.144
94.68
99.344
104.113
108.963
113.859
118.779
123.706
128.628
133.533
138.399
143.194
147.89
152.459
156.879
161.144
165.235
169.128
172.804
176.254
179.468
182.455
185.192
187.634
189.745
191.485
192.831
193.78
194.322
194.443
194.13
193.364
192.134
190.448
188.297
185.664
182.532
178.873
174.698
170.056
164.988
159.536
153.734
147.598
141.159
134.458
127.529
120.407
113.121
105.691
98.155
90.564
82.969
75.429
67.975
60.608
53.337
46.176
39.139
32.251
25.526
18.97
12.596
6.427
0.481
-5.216
-10.655
-15.836
-20.76
-25.431
-29.842
-33.979
-37.831
-41.394
-44.663
-47.641
-50.325
-52.712
-54.806
-56.62
-58.168
-59.463
-60.519
-61.344
-61.949
-62.348
-62.556
-62.589
-62.463
-62.194
-61.797
-61.29
-60.689
-60.012
-59.274
-58.488
-57.667
-56.822
-55.966
-55.111
-54.267
-53.444
-52.65
-51.894
-51.184
-50.526
-49.925
-49.386
-48.912
-48.504
-48.165
-47.895
-47.693
-47.559
-47.49
-47.484
-47.539
-47.649
-47.813
-48.024
-48.279
-48.572
-48.897
-49.25
-49.625
-50.017
-50.418
-50.825
-51.232
-51.633
-52.023
-52.399
-52.754
-53.086
-53.391
-53.665
-53.905
-54.108
-54.273
-54.397
-54.479
-54.519
-54.515
-54.468
-54.378
-54.245
-54.071
-53.856
-53.603
-53.311
-52.984
-52.624
-52.232
-51.811
-51.363
-50.891
-50.398
-49.886
-49.358
-48.816
-48.264
-47.705
-47.141
-46.574
-46.009
-45.447
-44.891
-44.343
-43.807
-43.283
-42.775
-42.283
-41.81
-41.358
-40.928
-40.521
-40.138
-39.781
-39.451
-39.147
-38.871
-38.623
-38.404
-38.213
-38.049
-37.914
-37.805
-37.722
-37.664
-37.63
-37.618
-37.627
-37.654
-37.697
-37.755
-37.823
-37.899
-37.98
-38.062
-38.141
-38.214
-38.276
-38.323
-38.352
-38.356
-38.332
-38.275
-38.181
-38.044
-37.86
-37.623
-37.331
-36.978
-36.561
-36.077
-35.522
-34.894
-34.192
-33.413
-32.559
-31.629
-30.624
-29.545
-28.393
-27.17
-25.88
-24.525
-23.109
-21.635
-20.109
-18.538
-16.928
-15.287
-13.622
-11.942
-10.254
-8.567
-6.891
-5.235
-3.606
-2.012
-0.462
1.033
2.463
3.819
5.097
6.296
7.415
8.456
9.422
10.319
11.159
11.954
12.715
13.451
14.166
14.868
15.563
16.264
16.984
17.734
18.51
19.308
20.117
20.922
21.708
22.452
23.102
23.613
23.936
24.019
23.828
23.324
22.464
21.217
19.542
17.393
14.747
11.586
7.888
3.669
-1.079
-6.396
-12.177
-18.241
-24.344
-30.09
-35.144
-39.299
-42.206
-43.454
-42.959
-40.819
-37.422
-33.648
-30.131
-27.216
-25.537
-25.677
-27.662
-31.248
-35.506
-38.599
-39.149
-36.042
-27.584
-12.38
10.34
40.946
78.509
120.865
166.065
211.659
253.887
288.93
312.993
322.355
314.524
287.856
240.912
174.508
92.37
-1.211
-102.105
-208.597
-320.967
-436.155
-545.885
-636.641
-695.152
-715.194
-699.789
-660.38
-608.92
-553.248
-496.335
-436.659
-373.881
-310.104
-248.836
-194.585
-150.041
-115.703
-90.966
-74.155
-63.484
-57.626
-54.867
-53.492
-52.04
-49.111
-44.134
-37.311
-29.025
-19.783
-10.282
-1.177
6.825
12.889
16.713
18.445
18.35
16.896
14.547
11.679
8.766
6.337
4.707
4.009
4.269
5.372
7.223
9.765
12.89
16.474
20.407
24.582
28.92
33.359
37.829
42.244
46.524
50.583
54.35
57.786
60.878
63.636
66.087
68.261
70.198
71.945
73.558
75.091
76.592
78.107
79.674
81.332
83.125
85.094
87.278
89.703
92.382
95.32
98.515
101.963
105.655
109.576
113.704
118.019
122.504
127.14
131.911
136.796
141.772
146.813
151.895
156.993
162.08
167.133
172.125
177.029
181.821
186.475
190.969
195.276
199.373
203.233
206.834
210.151
213.163
215.849
218.191
220.171
221.775
222.99
223.806
224.215
224.212
223.793
222.956
221.702
220.036
217.96
215.484
212.615
209.366
205.749
201.778
197.472
192.847
187.924
182.724
177.268
171.58
165.684
159.604
153.368
146.999
140.525
133.972
127.366
120.733
114.099
107.49
100.929
94.44
88.044
81.763
75.617
69.624
63.801
58.163
52.726
47.501
42.499
37.732
33.206
28.929
24.905
21.138
17.63
14.382
11.393
8.662
6.185
3.956
1.972
0.225
-1.294
-2.592
-3.68
-4.569
-5.268
-5.792
-6.151
-6.358
-6.426
-6.368
-6.196
-5.924
-5.563
-5.126
-4.626
-4.072
-3.477
-2.851
-2.205
-1.547
-0.886
-0.231
0.411
1.033
1.629
2.194
2.723
3.212
3.658
4.057
4.407
4.708
4.958
5.158
5.308
5.41
5.465
5.475
5.444
5.373
5.267
5.129
4.963
4.771
4.559
4.33
4.089
3.838
3.582
3.324
3.068
2.817
2.575
2.343
2.125
1.923
1.739
1.574
1.431
1.311
1.215
1.144
1.098
1.078
1.084
1.115
1.17
1.25
1.351
1.473
1.615
1.773
1.947
2.134
2.333
2.54
2.754
2.974
3.196
3.42
3.642
3.863
4.08
4.292
4.498
4.697
4.889
5.073
5.249
5.417
5.575
5.725
5.867
6.0
6.125
6.242
6.352
6.456
6.554
6.648
6.738
6.826
6.913
7.0
7.088
7.179
7.272
7.37
7.473
7.58
7.693
7.811
7.934
8.062
8.193
8.327
8.462
8.597
8.73
8.858
8.98
9.093
9.196
9.285
9.36
9.417
9.455
9.472
9.467
9.439
9.384
9.304
9.195
9.057
8.89
8.692
8.464
8.206
7.918
7.602
7.259
6.891
6.499
6.088
5.66
5.218
4.767
4.31
3.854
3.402
2.961
2.536
2.134
1.759
1.418
1.116
0.857
0.646
0.488
0.384
0.337
0.349
0.421
0.555
0.752
1.011
1.332
1.714
2.157
2.658
3.215
3.822
4.475
5.169
5.897
6.653
7.432
8.226
9.026
9.825
10.617
11.394
12.148
12.87
13.548
14.174
14.743
15.254
15.708
16.104
16.446
16.741
17.004
17.246
17.482
17.723
17.975
18.246
18.545
18.886
19.282
19.743
20.266
20.846
21.476
22.142
22.826
23.497
24.101
24.585
24.893
24.963
24.748
24.196
23.261
21.912
20.109
17.809
14.984
11.61
7.663
3.164
-1.887
-7.514
-13.601
-19.953
-26.285
-32.157
-37.195
-41.159
-43.708
-44.453
-43.336
-40.485
-36.312
-31.742
-27.447
-23.778
-21.349
-20.679
-21.708
-24.143
-27.058
-28.608
-27.42
-22.41
-11.944
5.218
29.659
61.627
100.121
142.912
187.957
232.701
273.376
306.245
327.482
333.37
321.589
290.705
239.657
168.829
80.426
-22.148
-134.034
-249.607
-363.502
-469.897
-563.001
-637.969
-691.204
-720.873
-726.899
-710.417
-673.539
-619.844
-553.849
-480.642
-405.364
-332.136
-264.453
-205.194
-156.329
-118.818
-92.378
-75.482
-66.053
-62.208
-61.843
-62.916
-63.646
-62.402
-58.491
-52.146
-43.914
-34.461
-24.629
-15.199
-6.993
-0.929
2.657
3.923
3.19
0.992
-2.143
-5.783
-9.409
-12.471
-14.647
-15.803
-15.926
-15.143
-13.564
-11.26
-8.352
-4.967
-1.221
2.777
6.942
11.205
15.488
19.699
23.751
27.556
31.038
34.157
36.898
39.271
41.306
43.035
44.499
45.749
46.841
47.831
48.773
49.713
50.693
51.757
52.951
54.318
55.901
57.728
59.813
62.163
64.778
67.656
70.787
74.16
77.754
81.551
85.533
89.685
93.993
98.438
102.998
107.652
112.376
117.148
121.944
126.743
131.517
136.242
140.891
145.442
149.871
154.156
158.27
162.19
165.89
169.347
172.544
175.457
178.064
180.341
182.268
183.831
185.024
185.843
186.279
186.33
185.994
185.274
184.18
182.714
180.872
178.649
176.042
173.057
169.713
166.028
162.022
157.708
153.086
148.17
142.979
137.526
131.823
125.875
119.679
113.258
106.663
99.939
93.135
86.284
79.405
72.521
65.662
58.859
52.151
45.566
39.121
32.846
26.78
20.965
15.453
10.26
5.364
0.749
-3.598
-7.685
-11.501
-15.049
-18.342
-21.389
-24.198
-26.771
-29.104
-31.209
-33.114
-34.847
-36.445
-37.919
-39.25
-40.43
-41.455
-42.324
-43.05
-43.636
-44.075
-44.373
-44.544
-44.603
-44.568
-44.449
-44.243
-43.949
-43.566
-43.102
-42.578
-42.009
-41.407
-40.784
-40.148
-39.51
-38.886
-38.283
-37.7
-37.139
-36.597
-36.079
-35.589
-35.133
-34.713
-34.33
-33.982
-33.671
-33.397
-33.159
-32.955
-32.783
-32.64
-32.526
-32.439
-32.381
-32.35
-32.345
-32.365
-32.408
-32.474
-32.56
-32.665
-32.786
-32.922
-33.07
-33.23
-33.402
-33.582
-33.772
-33.97
-34.175
-34.388
-34.608
-34.834
-35.066
-35.304
-35.546
-35.794
-36.047
-36.303
-36.563
-36.827
-37.093
-37.362
-37.633
-37.906
-38.179
-38.453
-38.727
-39.0
-39.273
-39.545
-39.816
-40.085
-40.354
-40.621
-40.887
-41.151
-41.413
-41.673
-41.93
-42.183
-42.431
-42.674
-42.911
-43.14
-43.361
-43.574
-43.776
-43.968
-44.147
-44.314
-44.468
-44.607
-44.732
-44.841
-44.934
-45.012
-45.073
-45.117
-45.144
-45.153
-45.144
-45.116
-45.068
-45.001
-44.913
-44.805
-44.675
-44.524
-44.351
-44.158
-43.945
-43.711
-43.459
-43.19
-42.904
-42.604
-42.291
-41.967
-41.634
-41.295
-40.951
-40.606
-40.261
-39.919
-39.581
-39.25
-38.927
-38.614
-38.312
-38.022
-37.747
-37.488
-37.245
-37.02
-36.814
-36.629
-36.465
-36.323
-36.203
-36.105
-36.029
-35.974
-35.938
-35.921
-35.921
-35.935
-35.962
-35.997
-36.037
-36.079
-36.119
-36.151
-36.173
-36.178
-36.164
-36.127
-36.062
-35.966
-35.838
-35.674
-35.475
-35.239
-34.964
-34.65
-34.297
-33.904
-33.473
-33.003
-32.493
-31.946
-31.363
-30.747
-30.101
-29.43
-28.737
-28.025
-27.3
-26.568
-25.833
-25.103
-24.379
-23.666
-22.969
-22.295
-21.654
-21.052
-20.487
-19.959
-19.467
-19.006
-18.575
-18.162
-17.75
-17.324
-16.868
-16.374
-15.84
-15.259
-14.624
-13.924
-13.148
-12.291
-11.362
-10.368
-9.321
-8.231
-7.117
-6.017
-4.989
-4.091
-3.385
-2.917
-2.727
-2.855
-3.33
-4.193
-5.491
-7.258
-9.52
-12.297
-15.591
-19.425
-23.846
-28.809
-34.152
-39.619
-44.837
-49.455
-53.222
-55.835
-56.897
-56.164
-53.691
-49.854
-45.402
-41.13
-37.528
-35.073
-34.465
-36.121
-39.88
-45.014
-50.016
-53.073
-52.879
-48.075
-36.785
-17.639
9.969
45.864
88.458
135.428
184.616
232.995
276.245
310.208
330.993
335.011
319.987
284.467
227.275
149.884
56.997
-47.637
-160.343
-277.988
-400.152
-520.335
-627.182
-710.651
-759.947
-773.068
-757.479
-720.204
-669.872
-611.882
-545.843
-473.733
-398.408
-323.182
-253.821
-194.213
-146.004
-109.853
-84.763
-68.878
-60.396
-57.443
-57.662
-58.907
-59.416
-57.699
-53.264
-46.438
-37.733
-27.842
-17.706
-8.169
-0.061
5.794
9.183
10.34
9.633
7.606
4.796
1.655
-1.309
-3.585
-4.895
-5.147
-4.36
-2.666
-0.18
3.015
6.796
11.03
15.593
20.375
25.278
30.229
35.151
39.952
44.55
48.863
52.822
56.395
59.577
62.38
64.835
66.976
68.843
70.486
71.965
73.337
74.658
75.978
77.339
78.785
80.361
82.11
84.07
86.269
88.716
91.414
94.364
97.563
101.008
104.693
108.6
112.706
116.988
121.425
126.001
130.693
135.474
140.313
145.181
150.062
154.947
159.828
164.687
169.498
174.228
178.846
183.332
187.673
191.86
195.878
199.713
203.355
206.804
210.069
213.133
215.963
218.511
220.731
222.602
224.113
225.264
226.053
226.476
226.518
226.163
225.397
224.191
222.519
220.342
217.624
214.368
210.602
206.372
201.724
196.681
191.257
185.466
179.319
172.817
165.983
158.843
151.441
143.859
136.172
128.459
120.795
113.221
105.762
98.434
91.249
84.229
77.409
70.817
64.495
58.508
52.894
47.679
42.86
38.392
34.238
30.368
26.753
23.378
20.236
17.316
14.619
12.148
9.894
7.844
5.972
4.225
2.569
0.987
-0.523
-1.932
-3.221
-4.386
-5.417
-6.31
-7.065
-7.68
-8.168
-8.552
-8.846
-9.059
-9.193
-9.236
-9.185
-9.049
-8.842
-8.588
-8.308
-8.013
-7.721
-7.449
-7.21
-7.016
-6.869
-6.765
-6.702
-6.683
-6.71
-6.788
-6.92
-7.103
-7.335
-7.612
-7.93
-8.284
-8.67
-9.079
-9.504
-9.941
-10.387
-10.838
-11.291
-11.743
-12.19
-12.628
-13.052
-13.459
-13.846
-14.207
-14.537
-14.834
-15.096
-15.318
-15.5
-15.639
-15.733
-15.781
-15.783
-15.739
-15.649
-15.512
-15.332
-15.109
-14.845
-14.543
-14.207
-13.838
-13.442
-13.021
-12.579
-12.121
-11.65
-11.171
-10.686
-10.201
-9.718
-9.241
-8.775
-8.321
-7.885
-7.469
-7.077
-6.712
-6.377
-6.074
-5.807
-5.577
-5.387
-5.239
-5.132
-5.07
-5.052
-5.078
-5.149
-5.265
-5.423
-5.623
-5.864
-6.142
-6.456
-6.803
-7.179
-7.583
-8.011
-8.459
-8.925
-9.405
-9.896
-10.395
-10.899
-11.405
-11.909
-12.408
-12.9
-13.382
-13.85
-14.303
-14.737
-15.151
-15.541
-15.907
-16.245
-16.556
-16.837
-17.087
-17.307
-17.496
-17.653
-17.781
-17.879
-17.95
-17.995
-18.016
-18.016
-17.997
-17.962
-17.914
-17.855
-17.789
-17.717
-17.642
-17.567
-17.493
-17.424
-17.359
-17.303
-17.255
-17.218
-17.193
-17.181
-17.182
-17.198
-17.228
-17.273
-17.331
-17.403
-17.488
-17.584
-17.69
-17.804
-17.922
-18.043
-18.163
-18.277
-18.382
-18.473
-18.545
-18.593
-18.614
-18.602
-18.554
-18.467
-18.336
-18.161
-17.939
-17.67
-17.354
-16.989
-16.575
-16.114
-15.606
-15.053
-14.454
-13.813
-13.132
-12.415
-11.667
-10.894
-10.101
-9.293
-8.477
-7.659
-6.846
-6.044
-5.259
-4.498
-3.769
-3.081
-2.447
-1.875
-1.37
-0.934
-0.565
-0.257
-0.004
0.204
0.386
0.554
0.722
0.9
1.091
1.304
1.547
1.829
2.167
2.571
3.037
3.562
4.129
4.71
5.281
5.801
6.206
6.444
6.467
6.221
5.674
4.788
3.514
1.823
-0.316
-2.931
-6.031
-9.633
-13.738
-18.318
-23.332
-28.733
-34.471
-40.446
-46.491
-52.349
-57.662
-62.073
-65.286
-66.983
-66.789
-64.544
-60.332
-54.494
-47.869
-41.335
-35.568
-31.375
-29.534
-30.341
-33.671
-38.823
-44.129
-47.78
-48.102
-43.032
-30.801
-10.287
18.992
56.408
100.072
147.469
195.369
239.414
275.194
298.523
305.518
293.308
259.861
204.139
127.788
35.327
-68.419
-178.918
-294.221
-414.127
-534.236
-645.671
-735.12
-789.497
-803.634
-781.168
-733.287
-672.299
-606.29
-538.476
-468.076
-395.179
-322.559
-254.595
-196.299
-150.573
-117.456
-95.669
-83.169
-77.831
-77.701
-80.372
-83.308
-84.415
-82.596
-77.727
-70.201
-60.678
-49.948
-38.993
-28.985
-21.055
-15.747
-13.009
-12.524
-13.772
-16.226
-19.397
-22.679
-25.433
-27.268
-28.039
-27.737
-26.491
-24.415
-21.573
-18.09
-14.115
-9.778
-5.2
-0.473
4.338
9.147
13.855
18.365
22.58
26.421
29.85
32.851
35.428
37.607
39.417
40.897
42.1
43.084
43.911
44.635
45.31
45.982
46.702
47.521
48.491
49.655
51.046
52.68
54.57
56.719
59.128
61.794
64.706
67.848
71.208
74.77
78.523
82.453
86.543
90.774
95.124
99.573
104.098
108.677
113.288
117.906
122.508
127.07
131.566
135.973
140.265
144.416
148.399
152.187
155.753
159.074
162.124
164.88
167.32
169.425
171.177
172.559
173.559
174.165
174.366
174.155
173.528
172.481
171.013
169.127
166.825
164.115
161.004
157.502
153.624
149.382
144.794
139.877
134.653
129.143
123.37
117.36
111.137
104.729
98.163
91.469
84.676
77.812
70.907
63.991
57.093
50.242
43.466
36.792
30.246
23.852
17.636
11.619
5.823
0.267
-5.031
-10.055
-14.789
-19.222
-23.34
-27.136
-30.601
-33.73
-36.52
-38.966
-41.071
-42.835
-44.261
-45.355
-46.123
-46.573
-46.715
-46.56
-46.121
-45.411
-44.444
-43.237
-41.805
-40.166
-38.337
-36.335
-34.18
-31.888
-29.478
-26.967
-24.373
-21.714
-19.006
-16.266
-13.509
-10.751
-8.005
-5.287
-2.607
0.021
2.587
5.081
7.493
9.815
12.041
14.163
16.178
18.08
19.868
21.538
23.09
24.524
25.841
27.042
28.129
29.106
29.977
30.745
31.415
31.992
32.482
32.889
33.221
33.483
33.68
33.819
33.907
33.949
33.952
33.92
33.86
33.777
33.677
33.564
33.444
33.32
33.197
33.078
32.967
32.866
32.779
32.705
32.649
32.609
32.587
32.583
32.597
32.629
32.677
32.741
32.819
32.91
33.011
33.121
33.238
33.358
33.48
33.602
33.719
33.831
33.934
34.026
34.103
34.164
34.207
34.227
34.224
34.195
34.137
34.049
33.93
33.777
33.589
33.366
33.107
32.811
32.478
32.107
31.7
31.256
30.776
30.26
29.71
29.126
28.51
27.864
27.188
26.485
25.757
25.006
24.232
23.439
22.629
21.802
20.963
20.112
19.253
18.386
17.516
16.643
15.769
14.897
14.027
13.163
12.304
11.452
10.608
9.774
8.949
8.134
7.33
6.537
5.754
4.983
4.223
3.473
2.733
2.002
1.281
0.568
-0.136
-0.832
-1.521
-2.202
-2.875
-3.542
-4.201
-4.854
-5.5
-6.139
-6.772
-7.398
-8.016
-8.625
-9.225
-9.815
-10.392
-10.955
-11.503
-12.034
-12.544
-13.033
-13.497
-13.933
-14.338
-14.71
-15.045
-15.341
-15.595
-15.803
-15.964
-16.077
-16.14
-16.152
-16.114
-16.026
-15.89
-15.704
-15.472
-15.194
-14.873
-14.511
-14.108
-13.669
-13.196
-12.696
-12.173
-11.633
-11.082
-10.525
-9.969
-9.419
-8.883
-8.367
-7.876
-7.415
-6.992
-6.612
-6.287
-6.022
-5.818
-5.676
-5.591
-5.558
-5.573
-5.625
-5.697
-5.776
-5.848
-5.901
-5.933
-5.934
-5.895
-5.807
-5.651
-5.419
-5.114
-4.739
-4.306
-3.834
-3.336
-2.841
-2.406
-2.076
-1.899
-1.93
-2.196
-2.735
-3.588
-4.779
-6.35
-8.345
-10.785
-13.697
-17.097
-20.963
-25.311
-30.164
-35.437
-40.97
-46.511
-51.685
-56.18
-59.764
-62.13
-62.898
-61.842
-59.024
-54.838
-50.021
-45.321
-41.211
-38.168
-36.9
-37.87
-40.929
-45.353
-49.693
-52.202
-51.598
-46.562
-35.247
-16.209
11.164
46.69
88.875
135.34
183.751
231.027
272.772
304.607
322.609
323.125
303.673
263.115
200.795
118.534
21.508
-86.009
-200.172
-317.564
-437.413
-553.589
-655.212
-732.577
-775.421
-782.304
-761.135
-719.548
-666.836
-608.261
-543.0
-472.676
-399.551
-326.572
-259.385
-201.567
-154.447
-118.737
-93.547
-77.156
-68.072
-64.552
-64.278
-65.245
-65.774
-64.366
-60.496
-54.399
-46.442
-37.253
-27.753
-18.731
-11.002
-5.379
-2.052
-0.814
-1.339
-3.104
-5.588
-8.352
-10.881
-12.665
-13.463
-13.203
-11.921
-9.769
-6.858
-3.278
0.837
5.339
10.102
15.014
19.986
24.954
29.832
34.528
38.951
43.012
46.666
49.894
52.701
55.114
57.162
58.883
60.329
61.559
62.636
63.617
64.555
65.496
66.489
67.585
68.832
70.28
71.961
73.891
76.081
78.533
81.251
84.237
87.482
90.965
94.665
98.559
102.623
106.843
111.194
115.645
120.169
124.744
129.355
133.999
138.666
143.335
147.978
152.558
157.05
161.44
165.718
169.877
173.907
177.794
181.534
185.139
188.6
191.898
194.991
197.817
200.334
202.523
204.38
205.915
207.122
207.977
208.459
208.544
208.203
207.41
206.119
204.271
201.839
198.818
195.241
191.169
186.638
181.658
176.226
170.325
163.965
157.177
149.991
142.45
134.611
126.543
118.353
110.153
102.024
94.026
86.184
78.497
70.995
63.726
56.748
50.133
43.928
38.161
32.864
28.048
23.705
19.804
16.274
13.043
10.064
7.306
4.757
2.421
0.278
-1.7
-3.543
-5.296
-6.993
-8.659
-10.324
-12.004
-13.7
-15.393
-17.043
-18.609
-20.069
-21.411
-22.633
-23.742
-24.736
-25.615
-26.382
-27.034
-27.569
-27.984
-28.276
-28.445
-28.502
-28.466
-28.362
-28.219
-28.052
-27.877
-27.702
-27.533
-27.376
-27.233
-27.1
-26.978
-26.868
-26.771
-26.689
-26.625
-26.575
-26.537
-26.506
-26.476
-26.444
-26.405
-26.356
-26.295
-26.221
-26.133
-26.032
-25.919
-25.795
-25.659
-25.511
-25.35
-25.176
-24.988
-24.786
-24.57
-24.34
-24.098
-23.843
-23.578
-23.303
-23.019
-22.729
-22.434
-22.135
-21.835
-21.536
-21.239
-20.946
-20.66
-20.382
-20.115
-19.859
-19.618
-19.392
-19.183
-18.991
-18.819
-18.666
-18.532
-18.419
-18.326
-18.253
-18.2
-18.167
-18.153
-18.157
-18.18
-18.221
-18.278
-18.35
-18.436
-18.535
-18.645
-18.766
-18.894
-19.029
-19.168
-19.311
-19.456
-19.6
-19.742
-19.882
-20.016
-20.144
-20.265
-20.376
-20.478
-20.569
-20.649
-20.717
-20.773
-20.816
-20.847
-20.864
-20.869
-20.862
-20.843
-20.812
-20.771
-20.72
-20.66
-20.591
-20.516
-20.434
-20.349
-20.259
-20.168
-20.077
-19.986
-19.899
-19.815
-19.737
-19.666
-19.603
-19.55
-19.508
-19.477
-19.457
-19.45
-19.455
-19.472
-19.501
-19.542
-19.594
-19.655
-19.726
-19.806
-19.891
-19.982
-20.077
-20.172
-20.267
-20.358
-20.444
-20.52
-20.585
-20.635
-20.667
-20.677
-20.662
-20.619
-20.542
-20.43
-20.277
-20.082
-19.841
-19.551
-19.211
-18.819
-18.373
-17.875
-17.324
-16.722
-16.07
-15.369
-14.623
-13.833
-13.003
-12.135
-11.233
-10.3
-9.34
-8.359
-7.361
-6.352
-5.339
-4.328
-3.325
-2.337
-1.374
-0.439
0.461
1.324
2.143
2.913
3.623
4.269
4.85
5.365
5.817
6.206
6.536
6.818
7.07
7.312
7.559
7.819
8.096
8.394
8.722
9.092
9.519
10.007
10.548
11.137
11.769
12.437
13.126
13.798
14.385
14.817
15.039
15.005
14.691
14.068
13.09
11.7
9.846
7.489
4.607
1.198
-2.775
-7.381
-12.612
-18.333
-24.276
-30.068
-35.371
-39.976
-43.65
-46.024
-46.843
-46.119
-44.147
-41.616
-39.252
-37.406
-36.34
-36.577
-38.458
-41.889
-46.36
-50.519
-52.622
-51.615
-46.657
-36.167
-18.684
6.54
39.916
79.542
121.434
164.028
206.369
247.34
288.062
324.087
346.37
347.118
317.193
255.037
167.977
64.917
-43.408
-151.899
-260.359
-368.862
-476.525
-575.04
-655.414
-710.173
-733.6
-729.852
-704.014
-660.803
-607.389
-545.501
-477.382
-407.239
-337.154
-271.246
-213.358
-165.09
-127.559
-100.467
-82.174
-70.998
-65.445
-63.591
-63.565
-63.674
-62.252
-58.53
-52.639
-44.973
-36.052
-26.629
-17.418
-9.209
-2.955
0.971
2.693
2.486
0.854
-1.692
-4.74
-7.774
-10.228
-11.771
-12.271
-11.709
-10.22
-7.919
-4.876
-1.221
2.91
7.398
12.128
17.012
21.981
26.954
31.839
36.549
41.0
45.12
48.875
52.253
55.269
57.953
60.342
62.477
64.409
66.194
67.889
69.544
71.207
72.92
74.725
76.665
78.784
81.12
83.697
86.529
89.619
92.966
96.564
100.405
104.475
108.753
113.222
117.863
122.659
127.596
132.653
137.807
143.036
148.314
153.617
158.923
164.205
169.438
174.597
179.657
184.593
189.381
193.995
198.411
202.602
206.544
210.212
213.585
216.64
219.357
221.718
223.707
225.309
226.512
227.307
227.685
227.64
227.17
226.272
224.947
223.199
221.03
218.45
215.465
212.088
208.331
204.208
199.735
194.931
189.815
184.408
178.732
172.81
166.665
160.324
153.811
147.152
140.374
133.503
126.565
119.588
112.596
105.614
98.669
91.782
84.976
78.274
71.695
65.259
58.983
52.884
46.978
41.277
35.795
30.542
25.527
20.759
16.244
11.986
7.99
4.256
0.785
-2.424
-5.373
-8.066
-10.508
-12.704
-14.663
-16.391
-17.899
-19.195
-20.292
-21.199
-21.928
-22.492
-22.902
-23.171
-23.311
-23.335
-23.253
-23.079
-22.823
-22.497
-22.112
-21.678
-21.205
-20.702
-20.179
-19.643
-19.101
-18.561
-18.029
-17.51
-17.009
-16.53
-16.077
-15.652
-15.258
-14.896
-14.567
-14.271
-14.009
-13.779
-13.58
-13.411
-13.269
-13.153
-13.06
-12.988
-12.934
-12.895
-12.869
-12.852
-12.843
-12.838
-12.835
-12.831
-12.824
-12.812
-12.794
-12.767
-12.73
-12.683
-12.625
-12.554
-12.471
-12.375
-12.267
-12.148
-12.017
-11.875
-11.725
-11.566
-11.402
-11.233
-11.062
-10.89
-10.72
-10.555
-10.396
-10.245
-10.106
-9.98
-9.87
-9.779
-9.708
-9.66
-9.638
-9.643
-9.677
-9.743
-9.842
-9.975
-10.144
-10.35
-10.593
-10.874
-11.195
-11.554
-11.952
-12.39
-12.866
-13.379
-13.929
-14.514
-15.132
-15.782
-16.462
-17.168
-17.898
-18.65
-19.421
-20.207
-21.006
-21.813
-22.625
-23.437
-24.246
-25.047
-25.835
-26.606
-27.355
-28.077
-28.769
-29.424
-30.04
-30.61
-31.131
-31.599
-32.009
-32.357
-32.64
-32.854
-32.998
-33.07
-33.067
-32.989
-32.837
-32.611
-32.313
-31.944
-31.506
-31.002
-30.434
-29.807
-29.124
-28.389
-27.605
-26.78
-25.92
-25.031
-24.121
-23.197
-22.267
-21.338
-20.417
-19.514
-18.635
-17.787
-16.976
-16.209
-15.495
-14.842
-14.26
-13.749
-13.308
-12.935
-12.625
-12.373
-12.171
-12.003
-11.852
-11.706
-11.551
-11.382
-11.191
-10.97
-10.703
-10.374
-9.972
-9.498
-8.963
-8.378
-7.755
-7.112
-6.486
-5.929
-5.497
-5.248
-5.229
-5.479
-6.044
-6.963
-8.274
-10.019
-12.233
-14.944
-18.162
-21.899
-26.137
-30.872
-36.107
-41.726
-47.535
-53.268
-58.544
-63.024
-66.476
-68.573
-68.924
-67.47
-64.326
-59.87
-54.979
-50.317
-46.286
-43.573
-42.778
-43.905
-46.724
-50.387
-53.121
-53.566
-50.524
-42.189
-27.222
-4.999
24.722
60.97
101.631
144.697
187.421
225.748
255.875
274.235
277.307
262.73
229.067
175.186
102.545
15.751
-81.675
-186.342
-295.423
-408.806
-520.38
-619.299
-696.053
-740.352
-750.634
-734.645
-699.512
-653.751
-602.379
-544.468
-481.327
-415.05
-348.207
-285.828
-231.237
-185.811
-150.254
-123.838
-105.134
-92.866
-85.716
-81.918
-79.829
-77.975
-74.914
-70.056
-63.543
-55.654
-46.841
-37.788
-29.102
-21.492
-15.789
-12.274
-10.799
-11.09
-12.677
-15.095
-17.966
-20.812
-23.104
-24.534
-24.976
-24.421
-22.991
-20.787
-17.877
-14.373
-10.408
-6.102
-1.569
3.099
7.835
12.566
17.205
21.669
25.873
29.747
33.258
36.4
39.186
41.642
43.805
45.712
47.414
48.97
50.435
51.863
53.298
54.781
56.355
58.064
59.95
62.053
64.396
66.992
69.847
72.96
76.326
79.939
83.784
87.84
92.091
96.519
101.107
105.84
110.698
115.658
120.696
125.788
130.91
136.037
141.146
146.209
151.204
156.103
160.882
165.519
169.987
174.262
178.318
182.131
185.676
188.932
191.877
194.49
196.753
198.651
200.168
201.292
202.013
202.323
202.215
201.685
200.732
199.355
197.558
195.344
192.721
189.698
186.285
182.495
178.344
173.848
169.025
163.895
158.479
152.801
146.882
140.748
134.424
127.937
121.312
114.576
107.757
100.881
93.975
87.065
80.177
73.337
66.57
59.897
53.343
46.928
40.673
34.597
28.716
23.047
17.604
12.4
7.446
2.75
-1.678
-5.834
-9.713
-13.312
-16.63
-19.667
-22.426
-24.911
-27.125
-29.075
-30.77
-32.216
-33.424
-34.405
-35.169
-35.729
-36.097
-36.286
-36.311
-36.186
-35.923
-35.539
-35.047
-34.462
-33.796
-33.065
-32.28
-31.454
-30.6
-29.728
-28.849
-27.973
-27.109
-26.265
-25.449
-24.666
-23.924
-23.226
-22.576
-21.979
-21.435
-20.948
-20.517
-20.143
-19.825
-19.563
-19.355
-19.199
-19.092
-19.032
-19.014
-19.036
-19.094
-19.182
-19.297
-19.434
-19.589
-19.758
-19.936
-20.12
-20.306
-20.49
-20.669
-20.84
-21.0
-21.147
-21.279
-21.393
-21.488
-21.563
-21.617
-21.65
-21.661
-21.651
-21.619
-21.567
-21.495
-21.404
-21.295
-21.17
-21.031
-20.879
-20.716
-20.544
-20.367
-20.186
-20.004
-19.823
-19.646
-19.475
-19.312
-19.16
-19.02
-18.894
-18.785
-18.693
-18.622
-18.571
-18.544
-18.542
-18.564
-18.614
-18.692
-18.798
-18.934
-19.099
-19.296
-19.524
-19.783
-20.075
-20.399
-20.755
-21.143
-21.562
-22.012
-22.49
-22.996
-23.527
-24.082
-24.659
-25.254
-25.865
-26.491
-27.127
-27.771
-28.419
-29.069
-29.716
-30.357
-30.988
-31.604
-32.201
-32.774
-33.32
-33.834
-34.31
-34.744
-35.132
-35.468
-35.746
-35.963
-36.113
-36.19
-36.191
-36.111
-35.947
-35.697
-35.356
-34.926
-34.403
-33.79
-33.087
-32.297
-31.421
-30.463
-29.424
-28.31
-27.125
-25.873
-24.559
-23.19
-21.772
-20.314
-18.825
-17.314
-15.789
-14.262
-12.74
-11.233
-9.752
-8.306
-6.903
-5.554
-4.268
-3.057
-1.934
-0.907
0.019
0.842
1.566
2.195
2.734
3.195
3.592
3.939
4.247
4.525
4.778
5.018
5.253
5.494
5.762
6.067
6.406
6.781
7.18
7.58
7.967
8.309
8.555
8.666
8.603
8.323
7.796
6.988
5.855
4.372
2.512
0.249
-2.434
-5.561
-9.141
-13.17
-17.617
-22.464
-27.702
-33.233
-38.878
-44.362
-49.294
-53.318
-56.208
-57.649
-57.258
-55.005
-51.063
-45.889
-40.469
-35.549
-31.533
-29.108
-28.878
-30.778
-34.47
-38.959
-42.254
-42.889
-39.705
-30.917
-15.173
8.142
39.268
77.139
119.458
164.209
208.83
249.394
282.107
303.26
309.167
297.405
266.32
214.394
142.654
55.126
-44.079
-150.909
-263.803
-383.328
-505.437
-620.826
-715.389
-774.978
-793.915
-775.971
-732.527
-675.936
-613.799
-548.728
-479.826
-407.292
-333.936
-264.182
-202.931
-153.038
-115.058
-88.197
-70.528
-59.998
-54.897
-53.092
-52.518
-51.495
-48.563
-43.214
-35.769
-26.761
-16.855
-6.924
2.244
9.866
15.137
17.84
18.219
16.66
13.721
9.946
5.792
1.775
-1.565
-3.919
-5.167
-5.306
-4.46
-2.732
-0.197
3.026
6.799
10.994
15.489
20.177
24.979
29.806
34.556
39.135
43.447
47.413
50.994
54.177
56.971
59.403
61.504
63.315
64.887
66.281
67.555
68.764
69.957
71.177
72.468
73.878
75.449
77.222
79.222
81.46
83.941
86.664
89.623
92.811
96.212
99.806
103.576
107.506
111.579
115.782
120.095
124.499
128.972
133.491
138.036
142.586
147.118
151.612
156.044
160.393
164.638
168.759
172.733
176.537
180.15
183.548
186.711
189.618
192.25
194.589
196.617
198.319
199.684
200.699
201.355
201.645
201.561
201.1
200.259
199.038
197.438
195.462
193.115
190.404
187.338
183.928
180.185
176.124
171.76
167.111
162.194
157.029
151.637
146.04
140.26
134.321
128.247
122.062
115.79
109.456
103.085
96.701
90.328
83.99
77.708
71.506
65.404
59.422
53.581
47.897
42.388
37.07
31.957
27.063
22.398
17.974
13.798
9.878
6.219
2.826
-0.3
-3.157
-5.747
-8.07
-10.132
-11.936
-13.489
-14.799
-15.873
-16.722
-17.355
-17.785
-18.021
-18.078
-17.967
-17.702
-17.296
-16.763
-16.117
-15.372
-14.54
-13.636
-12.672
-11.663
-10.619
-9.554
-8.478
-7.402
-6.337
-5.293
-4.276
-3.297
-2.36
-1.474
-0.642
0.13
0.839
1.482
2.057
2.563
2.999
3.366
3.664
3.895
4.061
4.163
4.205
4.191
4.122
4.005
3.841
3.637
3.396
3.122
2.822
2.499
2.158
1.804
1.441
1.075
0.709
0.348
-0.005
-0.345
-0.67
-0.977
-1.262
-1.523
-1.757
-1.964
-2.142
-2.289
-2.405
-2.489
-2.541
-2.561
-2.551
-2.509
-2.438
-2.338
-2.211
-2.059
-1.882
-1.684
-1.466
-1.231
-0.98
-0.718
-0.445
-0.166
0.118
0.403
0.686
0.965
1.237
1.498
1.747
1.981
2.197
2.392
2.564
2.71
2.83
2.92
2.978
3.004
2.997
2.954
2.875
2.759
2.607
2.417
2.19
1.927
1.627
1.292
0.923
0.522
0.089
-0.372
-0.858
-1.369
-1.899
-2.446
-3.007
-3.578
-4.155
-4.735
-5.313
-5.886
-6.45
-6.999
-7.529
-8.036
-8.516
-8.964
-9.375
-9.745
-10.07
-10.346
-10.569
-10.736
-10.843
-10.885
-10.862
-10.77
-10.606
-10.369
-10.058
-9.672
-9.212
-8.679
-8.074
-7.401
-6.662
-5.861
-5.003
-4.092
-3.133
-2.132
-1.095
-0.026
1.068
2.18
3.303
4.429
5.55
6.658
7.744
8.801
9.821
10.796
11.718
12.58
13.377
14.104
14.758
15.331
15.815
16.207
16.51
16.727
16.865
16.929
16.927
16.871
16.781
16.674
16.566
16.469
16.387
16.327
16.297
16.312
16.387
16.528
16.729
16.981
17.273
17.599
17.945
18.276
18.542
18.692
18.675
18.457
18.015
17.317
16.344
15.06
13.425
11.415
9.008
6.19
2.963
-0.702
-4.856
-9.457
-14.355
-19.312
-23.968
-28.002
-31.173
-33.183
-33.652
-32.349
-29.36
-25.105
-20.374
-16.024
-12.63
-10.74
-11.11
-14.204
-19.83
-27.185
-34.678
-40.325
-42.621
-40.062
-30.653
-12.885
13.829
49.239
91.694
138.586
187.418
235.003
276.868
308.659
326.548
326.997
307.727
267.797
206.601
125.961
31.042
-74.069
-185.734
-300.832
-419.091
-534.564
-636.246
-714.215
-757.79
-765.419
-745.228
-704.917
-653.732
-596.699
-532.613
-462.886
-389.714
-315.974
-247.296
-187.322
-137.578
-99.102
-71.288
-52.61
-41.721
-37.07
-36.539
-38.222
-40.364
-41.168
-39.822
-36.362
-30.991
-24.19
-16.727
-9.266
-2.62
2.257
5.048
5.88
5.026
3.005
0.321
-2.618
-5.283
-7.135
-7.909
-7.527
-6.038
-3.623
-0.417
3.47
7.883
12.652
17.631
22.696
27.755
32.731
37.535
42.066
46.225
49.948
53.209
56.003
58.351
60.289
61.853
63.095
64.079
64.866
65.516
66.089
66.632
67.201
67.848
68.625
69.585
70.766
72.189
73.867
75.809
78.015
80.49
83.23
86.216
89.431
92.854
96.46
100.23
104.138
108.151
112.241
116.386
120.566
124.78
129.022
133.278
137.527
141.74
145.888
149.96
153.94
157.818
161.592
165.257
168.814
172.285
175.671
178.953
182.098
185.047
187.736
190.129
192.199
193.922
195.287
196.268
196.844
197.007
196.728
195.97
194.69
192.82
190.321
187.198
183.472
179.202
174.456
169.274
163.694
157.766
151.516
144.979
138.182
131.131
123.862
116.449
108.969
101.52
94.179
86.979
79.942
73.074
66.366
59.83
53.473
47.286
41.284
35.494
29.947
24.699
19.77
15.131
10.757
6.613
2.671
-1.065
-4.596
-7.928
-11.054
-13.968
-16.667
-19.13
-21.362
-23.387
-25.232
-26.938
-28.525
-29.978
-31.289
-32.456
-33.473
-34.354
-35.102
-35.714
-36.198
-36.57
-36.849
-37.056
-37.205
-37.294
-37.323
-37.288
-37.196
-37.065
-36.911
-36.742
-36.57
-36.402
-36.249
-36.126
-36.04
-35.99
-35.976
-35.996
-36.05
-36.143
-36.276
-36.451
-36.665
-36.915
-37.198
-37.511
-37.85
-38.212
-38.59
-38.978
-39.373
-39.771
-40.17
-40.566
-40.957
-41.338
-41.705
-42.057
-42.39
-42.701
-42.987
-43.245
-43.474
-43.672
-43.836
-43.966
-44.06
-44.117
-44.138
-44.121
-44.067
-43.976
-43.85
-43.688
-43.493
-43.267
-43.011
-42.728
-42.42
-42.09
-41.741
-41.376
-40.997
-40.607
-40.209
-39.806
-39.4
-38.995
-38.592
-38.194
-37.803
-37.42
-37.048
-36.688
-36.341
-36.01
-35.694
-35.395
-35.114
-34.85
-34.605
-34.378
-34.169
-33.978
-33.806
-33.65
-33.51
-33.386
-33.275
-33.177
-33.09
-33.012
-32.942
-32.877
-32.816
-32.757
-32.699
-32.638
-32.575
-32.506
-32.43
-32.347
-32.255
-32.153
-32.04
-31.916
-31.781
-31.634
-31.475
-31.306
-31.125
-30.935
-30.735
-30.527
-30.311
-30.089
-29.862
-29.632
-29.399
-29.166
-28.934
-28.704
-28.478
-28.258
-28.044
-27.838
-27.642
-27.455
-27.28
-27.118
-26.97
-26.835
-26.715
-26.61
-26.519
-26.443
-26.379
-26.328
-26.287
-26.255
-26.23
-26.209
-26.191
-26.172
-26.15
-26.121
-26.081
-26.028
-25.958
-25.868
-25.754
-25.614
-25.444
-25.244
-25.011
-24.744
-24.443
-24.107
-23.737
-23.331
-22.892
-22.419
-21.914
-21.378
-20.811
-20.217
-19.597
-18.955
-18.295
-17.621
-16.938
-16.25
-15.561
-14.878
-14.205
-13.549
-12.913
-12.3
-11.714
-11.162
-10.651
-10.187
-9.767
-9.392
-9.056
-8.758
-8.492
-8.249
-8.014
-7.769
-7.501
-7.2
-6.863
-6.485
-6.06
-5.577
-5.021
-4.389
-3.686
-2.924
-2.112
-1.261
-0.386
0.475
1.268
1.935
2.414
2.665
2.654
2.344
1.708
0.703
-0.722
-2.601
-4.963
-7.826
-11.188
-15.079
-19.547
-24.536
-29.881
-35.326
-40.499
-45.085
-48.866
-51.554
-52.78
-52.333
-50.282
-47.013
-43.258
-39.738
-36.876
-35.099
-35.041
-37.087
-41.069
-46.255
-51.218
-54.285
-54.256
-49.912
-39.549
-21.828
3.819
37.172
76.779
120.401
165.882
210.395
249.841
280.057
297.291
298.121
280.197
242.165
183.122
104.773
12.018
-90.219
-197.685
-308.956
-424.727
-541.311
-649.684
-735.701
-785.348
-793.638
-765.256
-712.91
-650.458
-585.805
-521.06
-454.53
-385.282
-315.496
-249.518
-192.027
-145.506
-110.348
-85.656
-69.555
-60.377
-56.594
-56.047
-56.743
-57.044
-55.494
-51.604
-45.603
-37.812
-28.798
-19.425
-10.46
-2.718
2.988
6.464
7.904
7.617
6.098
3.847
1.279
-1.105
-2.795
-3.552
-3.303
-2.084
-0.05
2.689
6.049
9.901
14.103
18.531
23.077
27.659
32.217
36.671
40.935
44.922
48.548
51.769
54.573
56.968
58.983
60.651
62.013
63.119
64.032
64.809
65.508
66.178
66.864
67.612
68.472
69.492
70.719
72.185
73.911
75.906
78.175
80.717
83.529
86.599
89.911
93.449
97.199
101.146
105.279
109.579
114.027
118.601
123.278
128.035
132.85
137.699
142.559
147.404
152.209
156.951
161.607
166.151
170.557
174.799
178.852
182.69
186.289
189.626
192.678
195.423
197.844
199.923
201.645
202.997
203.968
204.548
204.729
204.507
203.88
202.845
201.405
199.562
197.322
194.692
191.683
188.305
184.572
180.499
176.102
171.4
166.412
161.159
155.664
149.948
144.036
137.952
131.72
125.367
118.918
112.398
105.832
99.246
92.665
86.111
79.609
73.18
66.845
60.626
54.54
48.606
42.841
37.258
31.873
26.697
21.741
17.015
12.525
8.279
4.28
0.532
-2.964
-6.208
-9.2
-11.943
-14.441
-16.699
-18.723
-20.52
-22.098
-23.466
-24.634
-25.611
-26.409
-27.04
-27.515
-27.845
-28.043
-28.121
-28.091
-27.964
-27.753
-27.468
-27.121
-26.722
-26.281
-25.808
-25.311
-24.798
-24.278
-23.757
-23.24
-22.734
-22.243
-21.772
-21.323
-20.899
-20.502
-20.135
-19.797
-19.489
-19.211
-18.962
-18.741
-18.547
-18.377
-18.23
-18.102
-17.993
-17.898
-17.815
-17.741
-17.674
-17.609
-17.546
-17.48
-17.409
-17.331
-17.244
-17.145
-17.033
-16.906
-16.763
-16.604
-16.426
-16.231
-16.018
-15.787
-15.538
-15.272
-14.989
-14.691
-14.38
-14.056
-13.721
-13.377
-13.026
-12.669
-12.309
-11.949
-11.589
-11.232
-10.88
-10.536
-10.201
-9.877
-9.567
-9.271
-8.992
-8.732
-8.491
-8.272
-8.075
-7.902
-7.752
-7.628
-7.53
-7.457
-7.41
-7.388
-7.392
-7.421
-7.475
-7.551
-7.65
-7.77
-7.91
-8.068
-8.242
-8.432
-8.634
-8.847
-9.07
-9.3
-9.536
-9.776
-10.018
-10.26
-10.501
-10.739
-10.972
-11.198
-11.417
-11.626
-11.825
-12.012
-12.186
-12.346
-12.492
-12.623
-12.739
-12.84
-12.925
-12.995
-13.051
-13.094
-13.124
-13.143
-13.153
-13.155
-13.151
-13.143
-13.134
-13.125
-13.119
-13.117
-13.121
-13.134
-13.157
-13.191
-13.237
-13.297
-13.372
-13.462
-13.569
-13.692
-13.832
-13.988
-14.161
-14.35
-14.553
-14.771
-15.0
-15.239
-15.487
-15.739
-15.994
-16.248
-16.497
-16.736
-16.961
-17.167
-17.349
-17.501
-17.618
-17.694
-17.725
-17.704
-17.628
-17.492
-17.293
-17.027
-16.693
-16.29
-15.816
-15.269
-14.651
-13.96
-13.197
-12.364
-11.461
-10.488
-9.451
-8.351
-7.196
-5.99
-4.739
-3.449
-2.128
-0.783
0.578
1.948
3.321
4.687
6.036
7.358
8.638
9.867
11.038
12.149
13.196
14.184
15.116
16.0
16.854
17.686
18.505
19.319
20.129
20.943
21.771
22.624
23.516
24.456
25.444
26.474
27.542
28.621
29.683
30.693
31.594
32.339
32.884
33.19
33.217
32.924
32.262
31.18
29.638
27.607
25.068
22.003
18.395
14.25
9.586
4.456
-1.074
-6.982
-13.16
-19.425
-25.524
-31.063
-35.659
-39.041
-40.85
-40.687
-38.507
-34.449
-28.914
-22.844
-17.006
-11.931
-8.467
-7.319
-8.486
-11.665
-15.915
-19.302
-20.271
-17.43
-8.733
7.412
31.679
64.256
104.078
148.661
195.526
241.554
282.225
313.202
330.67
330.847
311.093
270.357
208.047
126.14
30.042
-76.13
-188.708
-304.563
-423.338
-538.735
-639.595
-715.902
-756.922
-761.545
-738.255
-695.133
-642.006
-583.997
-519.842
-450.879
-379.01
-307.039
-240.611
-183.173
-135.959
-99.667
-73.407
-55.556
-44.799
-39.579
-37.766
-37.534
-37.315
-35.622
-31.908
-26.359
-19.249
-11.107
-2.747
5.157
11.858
16.543
19.015
19.469
18.215
15.767
12.632
9.225
6.05
3.633
2.233
1.933
2.706
4.395
6.883
10.084
13.859
18.056
22.542
27.197
31.926
36.662
41.317
45.795
50.005
53.857
57.303
60.327
62.933
65.149
67.006
68.544
69.814
70.875
71.789
72.613
73.4
74.194
75.045
76.001
77.109
78.417
79.955
81.739
83.777
86.071
88.622
91.432
94.493
97.785
101.29
104.984
108.84
112.838
116.95
121.14
125.378
129.64
133.907
138.174
142.435
146.676
150.878
155.012
159.051
162.982
166.792
170.469
174.016
177.429
180.71
183.878
186.939
189.88
192.672
195.264
197.594
199.62
201.31
202.644
203.607
204.175
204.322
204.032
203.278
202.033
200.265
197.92
194.963
191.392
187.227
182.522
177.352
171.774
165.835
159.586
153.063
146.313
139.381
132.299
125.107
117.852
110.587
103.39
96.328
89.439
82.746
76.249
69.927
63.776
57.793
51.972
46.316
40.829
35.514
30.389
25.471
20.765
16.271
11.976
7.866
3.939
0.199
-3.344
-6.672
-9.774
-12.644
-15.27
-17.649
-19.783
-21.676
-23.34
-24.792
-26.046
-27.111
-27.999
-28.715
-29.273
-29.684
-29.963
-30.125
-30.183
-30.152
-30.048
-29.887
-29.68
-29.439
-29.174
-28.892
-28.6
-28.307
-28.018
-27.742
-27.483
-27.247
-27.04
-26.866
-26.728
-26.63
-26.573
-26.557
-26.582
-26.648
-26.753
-26.894
-27.07
-27.277
-27.512
-27.77
-28.049
-28.343
-28.649
-28.961
-29.277
-29.59
-29.898
-30.195
-30.477
-30.741
-30.984
-31.201
-31.39
-31.55
-31.676
-31.769
-31.826
-31.845
-31.827
-31.771
-31.675
-31.54
-31.368
-31.157
-30.911
-30.631
-30.318
-29.975
-29.604
-29.209
-28.793
-28.357
-27.906
-27.443
-26.97
-26.492
-26.01
-25.528
-25.049
-24.576
-24.111
-23.657
-23.215
-22.789
-22.38
-21.99
-21.619
-21.269
-20.94
-20.634
-20.351
-20.092
-19.855
-19.642
-19.451
-19.283
-19.137
-19.011
-18.905
-18.818
-18.749
-18.695
-18.656
-18.629
-18.613
-18.607
-18.608
-18.617
-18.631
-18.649
-18.67
-18.693
-18.717
-18.742
-18.767
-18.791
-18.815
-18.838
-18.86
-18.884
-18.908
-18.934
-18.963
-18.997
-19.036
-19.081
-19.134
-19.195
-19.265
-19.346
-19.438
-19.543
-19.66
-19.791
-19.937
-20.099
-20.276
-20.469
-20.677
-20.9
-21.138
-21.39
-21.653
-21.927
-22.209
-22.499
-22.794
-23.092
-23.389
-23.684
-23.972
-24.251
-24.515
-24.758
-24.977
-25.164
-25.316
-25.428
-25.497
-25.517
-25.486
-25.4
-25.26
-25.064
-24.81
-24.494
-24.115
-23.668
-23.156
-22.585
-21.955
-21.267
-20.526
-19.735
-18.906
-18.048
-17.162
-16.249
-15.311
-14.346
-13.368
-12.383
-11.399
-10.426
-9.465
-8.52
-7.605
-6.73
-5.89
-5.087
-4.307
-3.535
-2.779
-2.039
-1.307
-0.586
0.137
0.867
1.601
2.34
3.086
3.839
4.615
5.419
6.238
7.059
7.861
8.609
9.292
9.884
10.344
10.644
10.755
10.648
10.316
9.733
8.869
7.699
6.186
4.313
2.088
-0.492
-3.427
-6.701
-10.304
-14.21
-18.35
-22.703
-27.287
-32.033
-36.8
-41.358
-45.345
-48.439
-50.436
-51.035
-49.864
-46.872
-42.21
-36.318
-30.151
-24.452
-19.655
-16.465
-15.533
-16.894
-20.296
-24.816
-28.527
-29.966
-27.966
-20.743
-6.815
14.624
44.02
80.491
121.81
165.972
210.498
251.588
285.335
307.828
315.275
305.116
275.861
226.459
156.928
70.342
-28.953
-137.198
-248.972
-361.087
-470.45
-568.257
-647.688
-702.198
-725.928
-722.679
-696.927
-653.107
-598.399
-534.758
-464.607
-392.352
-320.374
-252.89
-193.74
-144.504
-106.224
-78.541
-59.782
-48.188
-42.146
-39.664
-38.855
-38.066
-35.735
-31.19
-24.634
-16.523
-7.426
1.887
10.7
18.243
23.631
26.55
27.167
25.812
23.0
19.245
14.973
10.703
7.005
4.222
2.498
1.855
2.173
3.352
5.326
7.982
11.184
14.806
18.731
22.86
27.122
31.438
35.711
39.847
43.748
47.334
50.56
53.411
55.894
58.031
59.85
61.387
62.693
63.826
64.844
65.8
66.744
67.719
68.771
69.95
71.303
72.873
74.685
76.752
79.083
81.682
84.551
87.687
91.074
94.691
98.519
102.537
106.721
111.042
115.459
119.936
124.444
128.96
133.471
137.962
142.416
146.817
151.151
155.407
159.579
163.657
167.621
171.466
175.191
178.813
182.367
185.87
189.314
192.683
195.946
199.066
202.013
204.743
207.194
209.314
211.055
212.384
213.286
213.732
213.674
213.051
211.784
209.817
207.138
203.74
199.634
194.85
189.416
183.387
176.859
169.908
162.595
154.972
147.066
138.914
130.6
122.205
113.822
105.533
97.383
89.416
81.676
74.188
66.972
60.028
53.317
46.815
40.529
34.465
28.652
23.115
17.831
12.782
7.957
3.339
-1.069
-5.265
-9.265
-13.071
-16.678
-20.073
-23.227
-26.117
-28.75
-31.13
-33.275
-35.206
-36.913
-38.393
-39.656
-40.708
-41.559
-42.222
-42.699
-42.994
-43.124
-43.107
-42.965
-42.72
-42.38
-41.955
-41.452
-40.879
-40.252
-39.588
-38.894
-38.181
-37.459
-36.736
-36.025
-35.338
-34.678
-34.049
-33.455
-32.898
-32.383
-31.915
-31.493
-31.12
-30.796
-30.517
-30.284
-30.095
-29.946
-29.835
-29.757
-29.709
-29.686
-29.687
-29.708
-29.744
-29.793
-29.85
-29.913
-29.977
-30.041
-30.1
-30.152
-30.195
-30.227
-30.246
-30.251
-30.241
-30.214
-30.17
-30.109
-30.03
-29.936
-29.826
-29.701
-29.563
-29.414
-29.256
-29.091
-28.921
-28.749
-28.578
-28.41
-28.249
-28.097
-27.958
-27.835
-27.729
-27.645
-27.584
-27.548
-27.541
-27.563
-27.617
-27.703
-27.824
-27.98
-28.171
-28.397
-28.659
-28.955
-29.285
-29.646
-30.036
-30.454
-30.896
-31.36
-31.842
-32.34
-32.849
-33.367
-33.888
-34.408
-34.922
-35.427
-35.917
-36.386
-36.83
-37.244
-37.623
-37.961
-38.254
-38.498
-38.686
-38.817
-38.884
-38.884
-38.814
-38.671
-38.452
-38.155
-37.78
-37.327
-36.797
-36.192
-35.514
-34.768
-33.955
-33.081
-32.149
-31.165
-30.134
-29.06
-27.949
-26.808
-25.644
-24.465
-23.28
-22.098
-20.927
-19.774
-18.648
-17.558
-16.513
-15.519
-14.583
-13.71
-12.909
-12.191
-11.563
-11.026
-10.579
-10.219
-9.94
-9.737
-9.598
-9.505
-9.439
-9.384
-9.323
-9.248
-9.151
-9.02
-8.838
-8.587
-8.26
-7.857
-7.39
-6.87
-6.308
-5.724
-5.158
-4.668
-4.314
-4.15
-4.232
-4.6
-5.307
-6.397
-7.907
-9.87
-12.319
-15.272
-18.738
-22.729
-27.224
-32.202
-37.657
-43.456
-49.394
-55.205
-60.478
-64.842
-68.037
-69.701
-69.454
-67.267
-63.279
-57.897
-52.042
-46.429
-41.564
-38.243
-37.105
-38.146
-41.058
-44.886
-47.787
-48.252
-44.803
-35.43
-18.575
6.479
39.746
80.045
125.0
172.063
217.826
257.713
287.251
302.401
299.74
277.073
233.447
168.58
85.161
-12.077
-119.276
-231.039
-344.121
-455.581
-556.484
-639.795
-698.49
-726.521
-728.287
-708.363
-671.088
-623.678
-567.394
-503.967
-437.651
-370.291
-305.433
-247.026
-196.762
-155.728
-124.254
-101.266
-85.157
-74.85
-69.093
-66.066
-64.312
-62.467
-59.197
-54.236
-47.936
-40.457
-32.231
-23.96
-16.148
-9.493
-4.747
-2.013
-1.08
-1.676
-3.329
-5.59
-8.103
-10.391
-11.964
-12.594
-12.194
-10.797
-8.548
-5.549
-1.882
2.327
6.94
11.83
16.885
22.019
27.163
32.238
37.153
41.821
46.157
50.112
53.671
56.841
59.65
62.128
64.314
66.256
68.011
69.635
71.184
72.703
74.233
75.82
77.509
79.345
81.374
83.624
86.112
88.846
91.828
95.053
98.514
102.198
106.085
110.159
114.402
118.802
123.343
128.011
132.786
137.649
142.577
147.55
152.543
157.534
162.496
167.405
172.234
176.958
181.553
185.994
190.257
194.32
198.156
201.741
205.048
208.05
210.723
213.048
215.008
216.592
217.793
218.611
219.056
219.139
218.867
218.243
217.265
215.925
214.218
212.14
209.684
206.856
203.66
200.098
196.182
191.918
187.306
182.338
176.994
171.245
165.086
158.527
151.587
144.311
136.747
128.952
121.0
112.953
104.867
96.799
88.788
80.875
73.118
65.577
58.328
51.462
45.038
39.099
33.678
28.775
24.378
20.461
16.962
13.833
11.038
8.542
6.327
4.378
2.661
1.139
-0.228
-1.504
-2.729
-3.938
-5.163
-6.414
-7.689
-8.973
-10.228
-11.42
-12.532
-13.553
-14.482
-15.326
-16.084
-16.756
-17.346
-17.847
-18.255
-18.57
-18.788
-18.914
-18.962
-18.949
-18.904
-18.854
-18.817
-18.807
-18.831
-18.894
-18.998
-19.144
-19.327
-19.545
-19.797
-20.081
-20.399
-20.749
-21.128
-21.529
-21.946
-22.37
-22.795
-23.216
-23.625
-24.02
-24.396
-24.752
-25.086
-25.399
-25.688
-25.951
-26.186
-26.391
-26.563
-26.7
-26.801
-26.864
-26.889
-26.874
-26.821
-26.731
-26.604
-26.442
-26.246
-26.019
-25.763
-25.48
-25.172
-24.842
-24.492
-24.126
-23.747
-23.356
-22.957
-22.553
-22.145
-21.737
-21.331
-20.928
-20.531
-20.141
-19.759
-19.388
-19.03
-18.685
-18.357
-18.045
-17.753
-17.482
-17.232
-17.007
-16.805
-16.629
-16.48
-16.357
-16.262
-16.195
-16.156
-16.146
-16.166
-16.214
-16.291
-16.398
-16.532
-16.695
-16.885
-17.102
-17.345
-17.613
-17.905
-18.22
-18.557
-18.915
-19.292
-19.686
-20.096
-20.519
-20.952
-21.393
-21.839
-22.286
-22.731
-23.17
-23.6
-24.016
-24.414
-24.79
-25.139
-25.456
-25.737
-25.977
-26.171
-26.314
-26.404
-26.436
-26.407
-26.314
-26.154
-25.927
-25.631
-25.266
-24.833
-24.33
-23.758
-23.12
-22.416
-21.648
-20.819
-19.931
-18.988
-17.995
-16.959
-15.885
-14.781
-13.651
-12.505
-11.348
-10.191
-9.039
-7.9
-6.781
-5.69
-4.635
-3.629
-2.679
-1.789
-0.959
-0.189
0.524
1.185
1.801
2.389
2.96
3.529
4.104
4.689
5.29
5.915
6.571
7.276
8.038
8.853
9.717
10.62
11.54
12.465
13.362
14.175
14.855
15.351
15.604
15.585
15.259
14.584
13.537
12.075
10.154
7.752
4.84
1.402
-2.538
-6.993
-11.986
-17.422
-23.135
-28.868
-34.241
-38.952
-42.781
-45.435
-46.547
-45.9
-43.548
-39.863
-35.55
-31.293
-27.501
-24.592
-23.215
-23.804
-26.225
-29.802
-33.172
-34.706
-33.236
-27.572
-16.007
2.831
29.535
63.943
104.64
149.343
195.809
241.145
281.217
311.724
328.755
328.894
309.781
270.283
210.057
129.891
33.763
-73.087
-186.602
-301.198
-413.316
-520.034
-612.959
-685.813
-732.903
-748.975
-738.082
-705.012
-654.749
-594.806
-527.274
-454.475
-380.406
-307.42
-239.986
-182.122
-135.388
-100.381
-76.231
-61.082
-53.16
-50.537
-50.861
-51.789
-51.305
-48.29
-42.581
-34.543
-24.808
-14.121
-3.39
6.307
13.891
18.839
21.21
21.324
19.711
16.901
13.377
9.737
6.627
4.451
3.375
3.424
4.475
6.421
9.197
12.68
16.717
21.172
25.913
30.841
35.884
40.953
45.943
50.753
55.278
59.432
63.172
66.475
69.342
71.795
73.859
75.573
76.985
78.157
79.148
80.015
80.811
81.583
82.382
83.259
84.263
85.44
86.819
88.416
90.241
92.297
94.586
97.111
99.866
102.832
105.992
109.324
112.804
116.411
120.118
123.893
127.707
131.537
135.367
139.194
143.015
146.817
150.585
154.291
157.909
161.429
164.84
168.132
171.308
174.367
177.31
180.16
182.923
185.586
188.122
190.479
192.596
194.432
195.957
197.147
197.991
198.462
198.536
198.194
197.409
196.154
194.396
192.079
189.167
185.657
181.567
176.95
171.879
166.408
160.583
154.451
148.049
141.42
134.607
127.641
120.559
113.407
106.237
99.125
92.137
85.309
78.664
72.199
65.894
59.744
53.746
47.893
42.188
36.636
31.239
26.016
20.984
16.15
11.513
7.061
2.782
-1.325
-5.254
-8.993
-12.522
-15.83
-18.907
-21.74
-24.324
-26.657
-28.743
-30.591
-32.217
-33.632
-34.845
-35.864
-36.696
-37.35
-37.84
-38.177
-38.377
-38.452
-38.418
-38.291
-38.086
-37.815
-37.491
-37.124
-36.723
-36.296
-35.852
-35.399
-34.946
-34.5
-34.068
-33.657
-33.275
-32.927
-32.618
-32.352
-32.131
-31.958
-31.833
-31.758
-31.732
-31.755
-31.824
-31.939
-32.097
-32.295
-32.53
-32.798
-33.096
-33.418
-33.762
-34.121
-34.491
-34.868
-35.246
-35.621
-35.988
-36.343
-36.683
-37.002
-37.298
-37.567
-37.805
-38.01
-38.177
-38.306
-38.392
-38.436
-38.435
-38.389
-38.296
-38.158
-37.975
-37.747
-37.475
-37.161
-36.806
-36.413
-35.984
-35.521
-35.028
-34.507
-33.962
-33.396
-32.813
-32.216
-31.61
-30.997
-30.382
-29.769
-29.161
-28.562
-27.976
-27.406
-26.856
-26.329
-25.828
-25.357
-24.918
-24.513
-24.146
-23.817
-23.529
-23.282
-23.077
-22.917
-22.799
-22.726
-22.695
-22.706
-22.759
-22.851
-22.98
-23.144
-23.34
-23.566
-23.818
-24.093
-24.387
-24.697
-25.019
-25.348
-25.68
-26.011
-26.336
-26.649
-26.946
-27.221
-27.471
-27.689
-27.871
-28.012
-28.108
-28.153
-28.145
-28.079
-27.951
-27.758
-27.499
-27.17
-26.772
-26.304
-25.765
-25.158
-24.483
-23.745
-22.946
-22.091
-21.182
-20.225
-19.226
-18.188
-17.117
-16.019
-14.9
-13.766
-12.625
-11.485
-10.352
-9.234
-8.14
-7.077
-6.054
-5.077
-4.149
-3.274
-2.456
-1.701
-1.017
-0.409
0.125
0.585
0.972
1.289
1.541
1.74
1.909
2.066
2.226
2.399
2.587
2.795
3.035
3.321
3.664
4.074
4.543
5.066
5.65
6.287
6.959
7.627
8.217
8.664
8.924
8.963
8.763
8.295
7.497
6.316
4.698
2.602
0.026
-3.063
-6.756
-11.062
-15.898
-21.059
-26.169
-30.885
-34.987
-38.206
-40.223
-40.839
-39.986
-37.949
-35.404
-33.002
-31.259
-30.642
-31.574
-34.345
-38.975
-44.845
-50.708
-55.107
-56.552
-53.69
-45.145
-29.584
-6.144
25.207
63.595
107.353
154.245
201.698
246.397
284.365
311.721
325.079
321.447
298.545
255.242
191.19
108.632
12.8
-92.368
-203.538
-318.078
-435.915
-550.75
-651.299
-727.464
-768.158
-771.957
-747.416
-702.639
-647.732
-588.24
-522.919
-453.042
-380.533
-308.462
-242.918
-187.723
-144.193
-112.521
-91.212
-78.319
-72.223
-70.905
-71.837
-72.722
-71.696
-67.783
-61.025
-51.905
-41.053
-29.295
-17.644
-7.171
1.094
6.683
9.716
10.526
9.627
7.546
4.75
1.805
-0.707
-2.436
-3.227
-3.05
-2.014
-0.207
2.311
5.425
9.01
12.953
17.14
21.489
25.932
30.386
34.771
39.006
43.009
46.716
50.073
53.047
55.639
57.865
59.753
61.342
62.673
63.8
64.785
65.684
66.551
67.435
68.377
69.421
70.611
71.986
73.583
75.427
77.529
79.895
82.528
85.423
88.572
91.963
95.577
99.395
103.402
107.581
111.916
116.389
120.976
125.655
130.403
135.195
140.009
144.818
149.599
154.325
158.971
163.513
167.927
172.188
176.272
180.154
183.809
187.213
190.346
193.187
195.715
197.912
199.764
201.256
202.377
203.118
203.469
203.426
202.985
202.144
200.904
199.266
197.235
194.817
192.02
188.853
185.33
181.463
177.267
172.759
167.958
162.882
157.553
151.992
146.221
140.264
134.145
127.887
121.515
115.053
108.526
101.958
95.372
88.793
82.242
75.742
69.314
62.978
56.753
50.657
44.707
38.919
33.308
27.886
22.666
17.659
12.873
8.318
3.999
-0.078
-3.909
-7.493
-10.828
-13.915
-16.755
-19.352
-21.708
-23.83
-25.723
-27.393
-28.85
-30.101
-31.156
-32.023
-32.715
-33.241
-33.612
-33.839
-33.934
-33.907
-33.771
-33.535
-33.211
-32.811
-32.343
-31.82
-31.25
-30.642
-30.007
-29.352
-28.686
-28.016
-27.348
-26.689
-26.044
-25.418
-24.817
-24.242
-23.698
-23.187
-22.711
-22.271
-21.869
-21.505
-21.178
-20.889
-20.637
-20.42
-20.238
-20.088
-19.969
-19.878
-19.815
-19.777
-19.76
-19.765
-19.786
-19.824
-19.874
-19.935
-20.005
-20.081
-20.161
-20.244
-20.328
-20.411
-20.491
-20.567
-20.639
-20.705
-20.765
-20.817
-20.862
-20.9
-20.929
-20.952
-20.967
-20.976
-20.98
-20.979
-20.974
-20.967
-20.958
-20.948
-20.939
-20.931
-20.927
-20.926
-20.931
-20.942
-20.96
-20.986
-21.022
-21.068
-21.124
-21.191
-21.269
-21.358
-21.458
-21.569
-21.69
-21.821
-21.961
-22.11
-22.267
-22.429
-22.595
-22.764
-22.933
-23.1
-23.262
-23.417
-23.561
-23.692
-23.806
-23.9
-23.971
-24.016
-24.03
-24.011
-23.956
-23.86
-23.72
-23.535
-23.302
-23.018
-22.683
-22.296
-21.856
-21.364
-20.821
-20.228
-19.586
-18.898
-18.165
-17.389
-16.574
-15.721
-14.835
-13.918
-12.978
-12.018
-11.046
-10.067
-9.086
-8.11
-7.144
-6.196
-5.273
-4.379
-3.519
-2.699
-1.925
-1.207
-0.55
0.044
0.579
1.057
1.483
1.864
2.208
2.533
2.854
3.188
3.547
3.938
4.37
4.851
5.396
6.024
6.741
7.547
8.43
9.376
10.374
11.403
12.425
13.386
14.225
14.883
15.306
15.45
15.263
14.701
13.722
12.281
10.336
7.856
4.826
1.229
-2.919
-7.614
-12.868
-18.557
-24.477
-30.346
-35.75
-40.332
-43.852
-45.969
-46.284
-44.749
-41.499
-36.942
-32.008
-27.381
-23.448
-20.891
-20.29
-21.603
-24.54
-28.19
-30.695
-30.674
-26.962
-17.768
-1.775
21.6
52.534
89.975
131.721
175.737
219.298
258.312
288.888
307.32
310.023
294.602
259.342
202.852
126.502
34.694
-68.172
-177.846
-292.662
-412.975
-534.395
-647.653
-739.12
-795.252
-811.004
-790.427
-744.761
-686.334
-622.793
-556.786
-487.494
-414.99
-341.874
-272.463
-211.553
-161.909
-124.036
-97.124
-79.29
-68.633
-63.566
-61.972
-61.785
-61.281
-58.936
-54.203
-47.345
-38.788
-29.135
-19.237
-9.866
-1.833
4.027
7.493
8.767
8.191
6.301
3.614
0.571
-2.309
-4.503
-5.723
-5.859
-4.926
-3.059
-0.367
3.057
7.081
11.56
16.356
21.355
26.458
31.589
36.666
41.595
46.29
50.668
54.663
58.241
61.396
64.143
66.51
68.539
70.274
71.768
73.086
74.288
75.429
76.56
77.725
78.97
80.342
81.883
83.632
85.614
87.843
90.323
93.055
96.035
99.255
102.701
106.354
110.198
114.215
118.39
122.706
127.147
131.689
136.31
140.987
145.697
150.417
155.123
159.791
164.396
168.913
173.319
177.59
181.701
185.627
189.343
192.825
196.049
198.993
201.636
203.958
205.941
207.569
208.828
209.708
210.197
210.289
209.977
209.257
208.129
206.593
204.651
202.309
199.572
196.45
192.953
189.095
184.888
180.351
175.499
170.353
164.932
159.26
153.358
147.25
140.962
134.518
127.944
121.266
114.509
107.7
100.864
94.025
87.209
80.439
73.738
67.128
60.628
54.259
48.038
41.984
36.111
30.433
24.963
19.713
14.691
9.908
5.368
1.077
-2.961
-6.744
-10.271
-13.542
-16.561
-19.331
-21.856
-24.142
-26.197
-28.028
-29.645
-31.057
-32.274
-33.309
-34.172
-34.875
-35.43
-35.85
-36.146
-36.331
-36.417
-36.416
-36.338
-36.196
-36.0
-35.76
-35.485
-35.183
-34.865
-34.536
-34.203
-33.873
-33.551
-33.242
-32.95
-32.678
-32.428
-32.202
-32.001
-31.826
-31.676
-31.55
-31.448
-31.366
-31.303
-31.256
-31.223
-31.201
-31.186
-31.176
-31.168
-31.158
-31.143
-31.121
-31.087
-31.039
-30.975
-30.892
-30.79
-30.667
-30.521
-30.353
-30.163
-29.951
-29.718
-29.464
-29.19
-28.897
-28.588
-28.265
-27.929
-27.583
-27.231
-26.874
-26.517
-26.162
-25.814
-25.473
-25.143
-24.826
-24.524
-24.239
-23.972
-23.724
-23.497
-23.292
-23.112
-22.957
-22.829
-22.727
-22.652
-22.602
-22.577
-22.572
-22.582
-22.602
-22.628
-22.657
-22.684
-22.706
-22.719
-22.721
-22.711
-22.687
-22.647
-22.584
-22.487
-22.351
-22.175
-21.964
-21.725
-21.463
-21.184
-20.895
-20.613
-20.345
-20.096
-19.859
-19.617
-19.36
-19.089
-18.808
-18.529
-18.259
-17.99
-17.72
-17.444
-17.152
-16.836
-16.472
-16.018
-15.453
-14.77
-13.975
-13.101
-12.165
-11.172
-10.128
-9.036
-7.901
-6.74
-5.559
-4.358
-3.151
-1.96
-0.825
0.186
1.025
1.669
2.094
2.303
2.293
2.046
1.555
0.821
-0.164
-1.41
-2.939
-4.794
-6.994
-9.535
-12.391
-15.513
-18.877
-22.467
-26.26
-30.244
-34.382
-38.653
-43.095
-47.66
-52.208
-56.514
-60.192
-62.861
-64.289
-64.151
-62.079
-58.078
-52.343
-45.354
-38.157
-31.599
-26.243
-22.957
-22.457
-24.729
-29.438
-35.545
-40.979
-44.077
-43.361
-36.684
-22.317
0.559
32.248
71.711
116.407
163.842
210.914
253.058
285.795
305.067
306.788
288.113
247.894
185.339
102.155
3.518
-106.522
-224.061
-345.358
-469.469
-589.84
-694.899
-774.378
-817.346
-821.861
-796.054
-748.09
-687.789
-621.045
-547.754
-470.017
-390.742
-313.894
-245.417
-188.893
-145.604
-115.424
-96.53
-86.686
-83.634
-84.696
-87.261
-89.028
-88.133
-83.801
-76.168
-65.801
-53.62
-40.737
-28.222
-17.182
-8.625
-2.922
0.048
0.628
-0.593
-3.028
-6.167
-9.417
-12.202
-14.19
-15.213
-15.236
-14.359
-12.663
-10.214
-7.13
-3.532
0.471
4.769
9.281
13.934
18.641
23.317
27.874
32.226
36.302
40.039
43.398
46.376
48.983
51.248
53.207
54.902
56.385
57.717
58.957
60.157
61.368
62.63
63.988
65.487
67.167
69.065
71.206
73.601
76.255
79.169
82.336
85.747
89.388
93.239
97.278
101.49
105.856
110.359
114.98
119.696
124.483
129.317
134.173
139.029
143.859
148.639
153.343
157.947
162.427
166.76
170.921
174.886
178.631
182.132
185.365
188.311
190.947
193.257
195.221
196.827
198.06
198.911
199.371
199.433
199.093
198.348
197.198
195.645
193.693
191.347
188.614
185.506
182.033
178.208
174.046
169.563
164.779
159.71
154.379
148.807
143.017
137.031
130.874
124.57
118.145
111.623
105.03
98.392
91.731
85.075
78.446
71.868
65.362
58.952
52.657
46.496
40.488
34.65
28.996
23.543
18.301
13.283
8.499
3.956
-0.337
-4.377
-8.157
-11.677
-14.934
-17.929
-20.663
-23.139
-25.361
-27.334
-29.064
-30.558
-31.825
-32.874
-33.713
-34.354
-34.808
-35.085
-35.199
-35.161
-34.984
-34.68
-34.262
-33.743
-33.134
-32.449
-31.698
-30.892
-30.044
-29.162
-28.257
-27.338
-26.413
-25.49
-24.576
-23.678
-22.802
-21.953
-21.136
-20.354
-19.611
-18.909
-18.25
-17.636
-17.068
-16.547
-16.071
-15.642
-15.258
-14.918
-14.62
-14.362
-14.143
-13.959
-13.809
-13.69
-13.6
-13.535
-13.493
-13.473
-13.472
-13.489
-13.52
-13.565
-13.622
-13.689
-13.764
-13.847
-13.936
-14.028
-14.124
-14.222
-14.322
-14.421
-14.52
-14.618
-14.713
-14.804
-14.89
-14.97
-15.043
-15.108
-15.162
-15.204
-15.234
-15.249
-15.248
-15.228
-15.187
-15.122
-15.03
-14.909
-14.753
-14.561
-14.328
-14.052
-13.729
-13.357
-12.933
-12.455
-11.923
-11.337
-10.695
-9.997
-9.243
-8.433
-7.568
-6.649
-5.676
-4.651
-3.577
-2.459
-1.3
-0.108
1.112
2.355
3.614
4.881
6.151
7.417
8.674
9.917
11.135
12.317
13.449
14.522
15.532
16.476
17.352
18.164
18.918
19.625
20.303
20.965
21.619
22.268
22.911
23.555
24.208
24.884
25.597
26.352
27.149
27.988
28.861
29.758
30.647
31.485
32.22
32.81
33.225
33.44
33.435
33.173
32.619
31.735
30.485
28.851
26.825
24.396
21.545
18.267
14.58
10.523
6.17
1.554
-3.349
-8.462
-13.621
-18.562
-22.878
-26.213
-28.352
-28.985
-27.733
-24.571
-19.686
-13.571
-7.281
-1.624
2.945
5.716
6.091
4.153
0.274
-4.487
-8.06
-8.919
-5.884
2.846
18.636
42.108
73.494
111.683
154.301
199.32
244.235
285.152
318.256
339.801
346.036
334.515
303.572
251.599
179.46
91.137
-9.096
-117.185
-231.817
-354.001
-480.366
-601.474
-702.038
-766.691
-788.523
-771.104
-727.009
-669.53
-606.981
-542.146
-473.338
-400.3
-325.677
-253.846
-190.123
-137.727
-97.427
-68.638
-49.499
-37.962
-32.38
-30.651
-30.66
-30.59
-28.752
-24.425
-17.795
-9.307
0.436
10.603
20.406
28.999
35.443
39.408
41.074
40.783
39.076
36.488
33.458
30.516
28.242
26.964
26.805
27.763
29.69
32.464
36.002
40.171
44.817
49.804
55.0
60.301
65.63
70.902
76.019
80.889
85.423
89.547
93.229
96.459
99.252
101.635
103.645
105.324
106.726
107.915
108.953
109.899
110.806
111.722
112.697
113.778
115.013
116.443
118.093
119.977
122.103
124.476
127.099
129.969
133.075
136.396
139.914
143.603
147.439
151.396
155.442
159.55
163.695
167.862
172.041
176.224
180.404
184.565
188.681
192.732
196.699
200.567
204.324
207.968
211.503
214.94
218.298
221.58
224.777
227.857
230.775
233.484
235.927
238.067
239.881
241.35
242.459
243.198
243.554
243.495
242.984
241.958
240.348
238.108
235.216
231.684
227.55
222.857
217.664
212.024
205.967
199.521
192.704
185.517
177.973
170.113
161.993
153.709
145.379
137.093
128.925
120.921
113.101
105.484
98.074
90.874
83.901
77.182
70.759
64.698
59.055
53.851
49.09
44.737
40.726
37.014
33.565
30.353
27.369
24.605
22.057
19.735
17.638
15.754
14.057
12.494
11.018
9.609
8.253
6.963
5.773
4.701
3.759
2.964
2.319
1.824
1.475
1.254
1.142
1.131
1.216
1.406
1.71
2.126
2.644
3.247
3.911
4.616
5.344
6.074
6.788
7.475
8.125
8.737
9.312
9.849
10.346
10.796
11.195
11.539
11.83
12.066
12.251
12.386
12.474
12.52
12.528
12.501
12.442
12.351
12.228
12.073
11.888
11.674
11.432
11.164
10.871
10.556
10.22
9.867
9.497
9.112
8.713
8.3
7.875
7.439
6.991
6.532
6.061
5.579
5.086
4.581
4.065
3.536
2.995
2.442
1.877
1.299
0.709
0.106
-0.508
-1.134
-1.77
-2.416
-3.07
-3.73
-4.395
-5.062
-5.728
-6.393
-7.053
-7.706
-8.349
-8.979
-9.592
-10.184
-10.752
-11.291
-11.798
-12.267
-12.696
-13.08
-13.415
-13.7
-13.93
-14.104
-14.221
-14.279
-14.279
-14.219
-14.101
-13.925
-13.691
-13.402
-13.06
-12.665
-12.221
-11.733
-11.204
-10.642
-10.052
-9.44
-8.814
-8.178
-7.54
-6.908
-6.287
-5.683
-5.103
-4.556
-4.047
-3.59
-3.192
-2.854
-2.577
-2.358
-2.191
-2.07
-1.984
-1.917
-1.858
-1.796
-1.723
-1.635
-1.525
-1.386
-1.208
-0.975
-0.678
-0.319
0.1
0.564
1.049
1.536
1.989
2.355
2.591
2.657
2.507
2.11
1.43
0.42
-0.952
-2.72
-4.917
-7.565
-10.691
-14.312
-18.414
-22.973
-27.964
-33.366
-39.105
-45.03
-50.889
-56.329
-61.001
-64.629
-66.904
-67.442
-66.066
-62.852
-58.141
-52.761
-47.555
-43.12
-40.176
-39.453
-41.241
-45.412
-51.264
-57.119
-61.199
-61.95
-57.425
-45.878
-26.122
2.468
39.378
82.771
130.242
178.777
224.179
262.057
288.069
297.975
288.582
257.635
203.736
128.104
34.941
-71.174
-185.795
-306.976
-434.634
-564.276
-686.427
-786.617
-850.48
-872.065
-854.868
-810.636
-752.339
-688.225
-621.405
-550.813
-476.226
-400.426
-328.028
-264.105
-211.455
-170.292
-139.601
-117.876
-104.093
-97.112
-94.972
-95.866
-98.263
-100.865
-103.007
-103.754
-101.389
-94.782
-83.283
