41.88
41.682
41.388
40.997
40.511
39.932
39.263
38.508
37.672
36.762
35.787
34.754
33.671
32.547
31.388
30.204
29.003
27.794
26.585
25.384
24.198
23.036
21.907
20.816
19.77
18.771
17.824
16.93
16.09
15.302
14.564
13.87
13.218
12.604
12.025
11.475
10.949
10.442
9.951
9.471
8.993
8.507
8.003
7.471
6.902
6.287
5.617
4.883
4.078
3.197
2.243
1.213
0.099
-1.109
-2.427
-3.864
-5.413
-7.071
-8.836
-10.694
-12.625
-14.593
-16.536
-18.411
-20.197
-21.879
-23.456
-24.92
-26.247
-27.425
-28.458
-29.353
-30.124
-30.78
-31.313
-31.757
-32.197
-32.746
-33.573
-34.807
-36.515
-38.761
-41.591
-45.031
-49.116
-53.815
-58.999
-64.568
-70.439
-76.548
-82.889
-89.335
-95.627
-101.458
-106.433
-110.198
-112.511
-113.047
-111.426
-107.537
-101.478
-93.646
-84.855
-75.702
-66.502
-57.728
-49.735
-42.408
-35.271
-27.214
-16.722
-2.927
14.454
35.688
60.52
87.605
114.421
137.221
152.055
155.813
146.052
120.438
77.154
16.298
-59.56
-145.919
-237.802
-330.373
-418.942
-498.269
-562.578
-608.083
-633.843
-640.791
-630.819
-606.371
-570.123
-525.966
-479.307
-434.201
-392.783
-356.143
-324.371
-297.224
-274.566
-255.344
-237.395
-219.375
-200.819
-181.712
-162.783
-144.688
-127.755
-112.625
-100.129
-90.668
-84.355
-81.029
-80.138
-81.203
-83.816
-87.471
-91.751
-96.3
-100.76
-104.89
-108.487
-111.359
-113.398
-114.529
-114.693
-113.889
-112.141
-109.503
-106.106
-102.091
-97.594
-92.78
-87.773
-82.706
-77.748
-73.024
-68.641
-64.684
-61.181
-58.148
-55.607
-53.547
-51.938
-50.74
-49.885
-49.308
-48.958
-48.772
-48.684
-48.625
-48.509
-48.272
-47.868
-47.258
-46.417
-45.325
-43.961
-42.318
-40.399
-38.207
-35.746
-33.019
-30.022
-26.76
-23.243
-19.481
-15.492
-11.287
-6.878
-2.277
2.5
7.44
12.527
17.746
23.085
28.525
34.046
39.625
45.238
50.859
56.463
62.023
67.513
72.904
78.17
83.287
88.229
92.972
97.492
101.766
105.771
109.487
112.895
115.977
118.714
121.093
123.099
124.722
125.953
126.784
127.208
127.223
126.826
126.017
124.799
123.176
121.154
118.741
115.948
112.787
109.271
105.417
101.241
96.764
92.004
86.983
81.723
76.248
70.581
64.746
58.767
52.67
46.479
40.221
33.919
27.598
21.282
14.996
8.762
2.602
-3.463
-9.412
-15.226
-20.888
-26.38
-31.688
-36.797
-41.696
-46.372
-50.816
-55.022
-58.981
-62.69
-66.145
-69.344
-72.287
-74.975
-77.41
-79.596
-81.537
-83.239
-84.709
-85.954
-86.983
-87.805
-88.43
-88.867
-89.127
-89.221
-89.16
-88.955
-88.618
-88.158
-87.588
-86.917
-86.155
-85.314
-84.402
-83.428
-82.401
-81.328
-80.218
-79.077
-77.911
-76.725
-75.525
-74.316
-73.1
-71.881
-70.662
-69.444
-68.231
-67.022
-65.819
-64.622
-63.431
-62.247
-61.068
-59.896
-58.727
-57.563
-56.403
-55.244
-54.088
-52.932
-51.777
-50.621
-49.465
-48.307
-47.149
-45.99
-44.83
-43.67
-42.51
-41.352
-40.196
-39.043
-37.894
-36.752
-35.617
-34.492
-33.377
-32.275
-31.187
-30.115
-29.061
-28.026
-27.011
-26.019
-25.05
-24.106
-23.188
-22.297
-21.432
-20.596
-19.789
-19.01
-18.259
-17.537
-16.843
-16.176
-15.536
-14.922
-14.332
-13.766
-13.222
-12.698
-12.193
-11.706
-11.234
-10.775
-10.328
-9.89
-9.46
-9.036
-8.616
-8.198
-7.783
-7.367
-6.95
-6.532
-6.111
-5.687
-5.259
-4.826
-4.389
-3.948
-3.502
-3.052
-2.599
-2.143
-1.686
-1.229
-0.771
-0.315
0.14
0.591
1.039
1.483
1.92
2.351
2.774
3.188
3.593
3.986
4.369
4.741
5.103
5.455
5.799
6.136
6.468
6.797
7.126
7.456
7.789
8.128
8.477
8.838
9.214
9.609
10.028
10.474
10.953
11.468
12.024
12.622
13.266
13.958
14.702
15.5
16.353
17.264
18.233
19.265
20.359
21.516
22.736
24.016
25.354
26.745
28.186
29.668
31.185
32.729
34.295
35.877
37.468
39.063
40.655
42.24
43.814
45.369
46.895
48.381
49.818
51.195
52.505
53.738
54.885
55.937
56.889
57.742
58.493
59.138
59.663
60.05
60.293
60.389
60.346
60.168
59.863
59.444
58.945
58.414
57.906
57.455
57.072
56.754
56.507
56.343
56.285
56.35
56.511
56.737
57.011
57.321
57.653
57.959
58.118
57.972
57.367
56.191
54.386
51.916
48.723
44.772
40.042
34.575
28.532
22.048
15.21
8.083
0.708
-6.759
-13.999
-20.635
-26.281
-30.591
-33.317
-34.14
-32.643
-28.699
-22.432
-14.287
-5.134
4.385
13.96
23.12
31.47
39.123
46.559
54.919
65.844
80.266
98.458
120.679
146.628
174.875
202.8
226.507
241.857
245.617
235.273
208.428
163.249
99.883
21.035
-68.601
-163.856
-259.714
-351.302
-433.163
-499.254
-545.621
-571.272
-577.14
-565.141
-537.768
-497.768
-449.225
-397.854
-347.95
-301.8
-260.585
-224.433
-193.158
-166.682
-143.907
-122.547
-101.156
-79.211
-56.729
-34.515
-13.274
6.627
24.516
39.515
51.176
59.361
64.219
66.311
66.15
64.174
60.888
56.713
51.995
47.074
42.256
37.801
33.936
30.81
28.502
27.072
26.547
26.922
28.147
30.096
32.617
35.557
38.78
42.18
45.649
49.049
52.219
55.017
57.35
59.172
60.469
61.229
61.446
61.141
60.369
59.209
57.743
56.042
54.16
52.158
50.102
48.072
46.154
44.414
42.898
41.642
40.672
40.013
39.686
39.698
40.041
40.704
41.683
42.974
44.578
46.487
48.689
51.169
53.909
56.894
60.111
63.544
67.173
70.981
74.947
79.055
83.287
87.623
92.037
96.505
101.0
105.495
109.963
114.376
118.706
122.924
127.004
130.922
134.652
138.171
141.455
144.483
147.236
149.693
151.839
153.657
155.134
156.256
157.014
157.401
157.409
157.035
156.276
155.131
153.602
151.693
149.409
146.758
143.747
140.389
136.697
132.684
128.368
123.764
118.893
113.773
108.427
102.875
97.141
91.248
85.218
79.076
72.846
66.55
60.214
53.861
47.514
41.195
34.928
28.734
22.634
16.647
10.793
5.09
-0.446
-5.799
-10.955
-15.901
-20.625
-25.118
-29.369
-33.373
-37.123
-40.615
-43.846
-46.814
-49.519
-51.962
-54.147
-56.075
-57.753
-59.186
-60.381
-61.345
-62.088
-62.618
-62.945
-63.08
-63.034
-62.818
-62.443
-61.922
-61.266
-60.487
-59.598
-58.61
-57.534
-56.382
-55.166
-53.894
-52.579
-51.228
-49.853
-48.461
-47.061
-45.66
-44.265
-42.882
-41.518
-40.178
-38.866
-37.587
-36.343
-35.138
-33.974
-32.854
-31.779
-30.749
-29.766
-28.83
-27.94
-27.098
-26.301
-25.55
-24.843
-24.18
-23.558
-22.977
-22.435
-21.931
-21.463
-21.029
-20.629
-20.261
-19.923
-19.615
-19.334
-19.08
-18.851
-18.647
-18.466
-18.307
-18.17
-18.054
-17.957
-17.881
-17.822
-17.782
-17.759
-17.753
-17.762
-17.788
-17.828
-17.883
-17.951
-18.033
-18.128
-18.234
-18.352
-18.481
-18.62
-18.767
-18.922
-19.085
-19.254
-19.428
-19.606
-19.788
-19.972
-20.156
-20.341
-20.525
-20.706
-20.884
-21.058
-21.226
-21.388
-21.543
-21.691
-21.83
-21.96
-22.081
-22.193
-22.295
-22.386
-22.468
-22.539
-22.6
-22.651
-22.692
-22.724
-22.748
-22.765
-22.775
-22.78
-22.781
-22.778
-22.774
-22.768
-22.763
-22.76
-22.76
-22.764
-22.775
-22.793
-22.821
-22.859
-22.909
-22.971
-23.046
-23.133
-23.234
-23.349
-23.476
-23.616
-23.768
-23.931
-24.106
-24.291
-24.484
-24.683
-24.887
-25.092
-25.295
-25.494
-25.685
-25.863
-26.025
-26.169
-26.29
-26.385
-26.449
-26.48
-26.472
-26.421
-26.323
-26.174
-25.968
-25.702
-25.374
-24.98
-24.52
-23.992
-23.395
-22.729
-21.994
-21.191
-20.321
-19.385
-18.383
-17.319
-16.196
-15.021
-13.798
-12.534
-11.237
-9.916
-8.581
-7.241
-5.906
-4.583
-3.281
-2.008
-0.772
0.419
1.56
2.645
3.662
4.604
5.46
6.219
6.876
7.423
7.855
8.168
8.358
8.425
8.376
8.212
7.929
7.524
6.984
6.304
5.493
4.554
3.497
2.345
1.125
-0.12
-1.33
-2.468
-3.509
-4.435
-5.25
-5.945
-6.505
-6.929
-7.205
-7.323
-7.283
-7.074
-6.694
-6.189
-5.643
-5.178
-4.955
-5.088
-5.657
-6.738
-8.356
-10.536
-13.279
-16.506
-20.144
-24.139
-28.456
-33.103
-38.048
-43.123
-48.076
-52.587
-56.269
-58.833
-59.925
-59.081
-56.115
-51.052
-44.189
-36.248
-27.815
-19.136
-10.627
-2.81
4.36
11.229
18.874
29.196
43.22
61.152
83.245
109.541
139.308
170.898
200.779
223.996
237.062
237.506
222.987
191.527
141.504
73.092
-10.245
-102.839
-199.809
-296.686
-388.794
-471.113
-537.689
-584.132
-609.485
-615.19
-603.14
-575.397
-534.536
-484.081
-429.329
-375.418
-325.318
-280.175
-240.337
-206.061
-177.424
-154.139
-134.779
-117.037
-99.577
-82.245
-65.359
-49.331
-34.472
-20.673
-8.02
2.464
10.129
14.983
17.208
17.358
16.015
13.327
9.41
4.905
0.403
-3.672
-6.894
-9.183
-10.558
-10.885
-10.069
-8.15
-5.187
-1.314
3.263
8.425
14.056
19.999
26.129
32.281
38.251
43.891
49.094
53.784
57.933
61.528
64.549
67.004
68.936
70.401
71.468
72.2
72.647
72.865
72.919
72.888
72.86
72.905
73.069
73.387
73.885
74.584
75.503
76.651
78.02
79.606
81.405
83.417
85.647
88.095
90.753
93.609
96.653
99.875
103.268
106.823
110.528
114.372
118.345
122.437
126.639
130.937
135.316
139.756
144.238
148.742
153.246
157.729
162.167
166.536
170.815
174.981
179.013
182.89
186.591
190.095
193.382
196.433
199.232
201.76
204.002
205.943
207.57
208.872
209.838
210.461
210.732
210.647
210.202
209.394
208.224
206.693
204.804
202.562
199.973
197.048
193.794
190.226
186.355
182.196
177.767
173.083
168.165
163.03
157.7
152.193
146.533
140.741
134.838
128.848
122.793
116.695
110.576
104.46
98.367
92.319
86.336
80.438
74.645
68.974
63.443
58.067
52.862
47.841
43.018
38.402
34.004
29.832
25.892
22.191
18.732
15.517
12.548
9.824
7.343
5.103
3.1
1.327
-0.22
-1.55
-2.671
-3.591
-4.321
-4.871
-5.251
-5.473
-5.548
-5.488
-5.306
-5.013
-4.621
-4.143
-3.589
-2.971
-2.301
-1.589
-0.845
-0.08
0.699
1.481
2.259
3.026
3.775
4.5
5.195
5.857
6.482
7.066
7.606
8.102
8.552
8.955
9.311
9.621
9.885
10.106
10.284
10.422
10.521
10.586
10.618
10.62
10.596
10.549
10.481
10.395
10.296
10.185
10.067
9.943
9.816
9.69
9.565
9.445
9.33
9.224
9.127
9.04
8.964
8.901
8.849
8.811
8.784
8.77
8.768
8.777
8.797
8.826
8.863
8.908
8.959
9.014
9.074
9.135
9.196
9.257
9.316
9.371
9.421
9.465
9.502
9.53
9.549
9.557
9.553
9.538
9.51
9.468
9.412
9.342
9.258
9.16
9.047
8.919
8.778
8.622
8.453
8.271
8.076
7.869
7.649
7.419
7.178
6.927
6.668
6.399
6.122
5.837
5.546
5.247
4.941
4.629
4.31
3.984
3.653
3.315
2.972
2.622
2.266
1.904
1.536
1.161
0.778
0.389
-0.009
-0.413
-0.825
-1.244
-1.67
-2.102
-2.539
-2.981
-3.428
-3.878
-4.331
-4.787
-5.243
-5.698
-6.15
-6.597
-7.036
-7.465
-7.88
-8.277
-8.654
-9.008
-9.335
-9.632
-9.897
-10.124
-10.312
-10.455
-10.551
-10.595
-10.583
-10.511
-10.377
-10.178
-9.914
-9.581
-9.18
-8.709
-8.169
-7.559
-6.882
-6.137
-5.324
-4.445
-3.505
-2.506
-1.455
-0.355
0.785
1.96
3.158
4.369
5.587
6.804
8.011
9.201
10.366
11.499
12.597
13.651
14.654
15.597
16.469
17.262
17.969
18.584
19.099
19.51
19.811
20.001
20.087
20.068
19.94
19.697
19.326
18.825
18.2
17.461
16.611
15.669
14.655
13.608
12.589
11.644
10.794
10.056
9.431
8.93
8.579
8.393
8.366
8.493
8.76
9.156
9.692
10.33
10.988
11.551
11.85
11.754
11.193
10.102
8.428
6.131
3.169
-0.439
-4.572
-9.133
-14.045
-19.251
-24.75
-30.42
-36.003
-41.193
-45.594
-48.85
-50.712
-50.838
-48.827
-44.546
-38.071
-29.798
-20.55
-10.938
-1.306
7.834
16.108
23.62
30.87
39.049
49.749
63.903
81.888
104.083
130.293
159.155
188.023
212.886
229.562
234.782
225.886
200.252
155.807
92.43
12.642
-78.766
-176.55
-275.844
-371.734
-458.67
-530.498
-582.622
-613.438
-623.851
-615.698
-591.0
-552.342
-503.429
-449.6
-396.116
-346.232
-301.283
-261.715
-227.869
-199.842
-177.299
-158.735
-141.701
-124.701
-107.504
-90.418
-73.874
-58.228
-43.416
-29.582
-17.837
-8.908
-2.858
0.447
1.547
1.025
-0.987
-4.398
-8.602
-13.062
-17.348
-20.974
-23.815
-25.845
-26.903
-26.888
-25.814
-23.699
-20.644
-16.842
-12.415
-7.494
-2.221
3.306
8.958
14.575
19.995
25.069
29.698
33.834
37.452
40.531
43.058
45.045
46.536
47.606
48.326
48.759
48.952
48.955
48.834
48.667
48.533
48.494
48.593
48.858
49.315
49.984
50.886
52.026
53.397
54.989
56.8
58.827
61.075
63.539
66.21
69.074
72.121
75.339
78.72
82.254
85.928
89.728
93.643
97.659
101.766
105.949
110.189
114.466
118.758
123.044
127.302
131.508
135.637
139.666
143.573
147.334
150.929
154.336
157.533
160.5
163.219
165.671
167.839
169.708
171.262
172.489
173.378
173.918
174.103
173.925
173.38
172.463
171.174
169.514
167.485
165.091
162.337
159.232
155.785
152.008
147.912
143.514
138.829
133.873
128.666
123.228
117.579
111.739
105.731
99.578
93.301
86.925
80.472
73.967
67.431
60.889
54.362
47.874
41.446
35.098
28.852
22.726
16.738
10.907
5.247
-0.226
-5.498
-10.558
-15.393
-19.996
-24.357
-28.471
-32.332
-35.936
-39.282
-42.368
-45.196
-47.766
-50.083
-52.151
-53.975
-55.561
-56.918
-58.053
-58.976
-59.697
-60.226
-60.574
-60.752
-60.772
-60.646
-60.387
-60.004
-59.512
-58.922
-58.245
-57.493
-56.678
-55.809
-54.897
-53.952
-52.984
-52.001
-51.012
-50.024
-49.044
-48.079
-47.135
-46.217
-45.329
-44.475
-43.659
-42.884
-42.151
-41.463
-40.82
-40.224
-39.673
-39.17
-38.712
-38.299
-37.931
-37.605
-37.32
-37.075
-36.868
-36.697
-36.559
-36.454
-36.379
-36.331
-36.31
-36.312
-36.337
-36.381
-36.444
-36.524
-36.619
-36.727
-36.847
-36.978
-37.118
-37.267
-37.424
-37.587
-37.756
-37.93
-38.108
-38.29
-38.476
-38.666
-38.858
-39.053
-39.251
-39.451
-39.654
-39.859
-40.066
-40.275
-40.486
-40.699
-40.913
-41.13
-41.348
-41.567
-41.788
-42.011
-42.235
-42.461
-42.688
-42.916
-43.145
-43.376
-43.608
-43.841
-44.075
-44.311
-44.548
-44.787
-45.028
-45.27
-45.514
-45.76
-46.009
-46.259
-46.513
-46.769
-47.028
-47.291
-47.559
-47.831
-48.109
-48.393
-48.683
-48.98
-49.284
-49.596
-49.917
-50.246
-50.585
-50.934
-51.293
-51.663
-52.045
-52.437
-52.841
-53.255
-53.679
-54.113
-54.556
-55.007
-55.465
-55.931
-56.402
-56.878
-57.358
-57.839
-58.321
-58.799
-59.274
-59.741
-60.197
-60.639
-61.065
-61.471
-61.854
-62.213
-62.544
-62.842
-63.107
-63.333
-63.519
-63.659
-63.752
-63.793
-63.781
-63.713
-63.59
-63.409
-63.171
-62.875
-62.521
-62.111
-61.645
-61.124
-60.549
-59.922
-59.245
-58.524
-57.763
-56.968
-56.144
-55.299
-54.442
-53.583
-52.728
-51.885
-51.06
-50.26
-49.494
-48.766
-48.082
-47.445
-46.864
-46.347
-45.903
-45.54
-45.262
-45.074
-44.983
-44.994
-45.109
-45.33
-45.649
-46.066
-46.585
-47.212
-47.958
-48.825
-49.805
-50.89
-52.076
-53.345
-54.676
-56.031
-57.35
-58.589
-59.727
-60.749
-61.651
-62.424
-63.039
-63.482
-63.76
-63.878
-63.847
-63.677
-63.356
-62.921
-62.452
-62.065
-61.921
-62.149
-62.815
-63.984
-65.709
-68.027
-70.979
-74.54
-78.587
-83.027
-87.785
-92.809
-98.102
-103.543
-108.874
-113.793
-117.912
-120.873
-122.431
-122.244
-119.91
-115.296
-108.493
-99.911
-90.392
-80.556
-70.735
-61.429
-53.007
-45.327
-37.839
-29.295
-18.028
-3.051
16.039
39.644
67.559
98.365
129.304
156.239
174.9
181.943
174.658
150.41
107.083
44.575
-34.358
-124.655
-221.016
-318.465
-412.105
-496.529
-565.283
-613.517
-639.903
-645.632
-632.469
-602.536
-558.155
-502.552
-441.758
-381.736
-325.65
-274.893
-230.234
-192.053
-161.139
-138.048
-120.489
-105.215
-90.661
-76.219
-61.914
-48.148
-34.488
-20.02
-5.446
7.6
18.236
26.013
31.099
34.18
35.438
34.642
32.139
28.764
25.236
22.214
20.028
18.625
18.065
18.526
20.07
22.655
26.181
30.458
35.327
40.711
46.513
52.608
58.869
65.121
71.172
76.878
82.137
86.883
91.09
94.747
97.835
100.364
102.378
103.934
105.101
105.939
106.492
106.811
106.964
107.033
107.106
107.255
107.525
107.951
108.559
109.368
110.401
111.664
113.148
114.849
116.761
118.886
121.228
123.785
126.548
129.505
132.642
135.95
139.418
143.037
146.793
150.673
154.666
158.758
162.941
167.199
171.515
175.869
180.24
184.606
188.945
193.234
197.449
201.567
205.563
209.418
213.108
216.613
219.913
222.986
225.814
228.38
230.667
232.659
234.341
235.701
236.727
237.411
237.745
237.721
237.336
236.585
235.469
233.988
232.144
229.942
227.387
224.487
221.252
217.692
213.821
209.653
205.204
200.491
195.533
190.348
184.958
179.384
173.647
167.768
161.772
155.68
149.515
143.3
137.059
130.813
124.584
118.396
112.267
106.22
100.272
94.444
88.752
83.212
77.841
72.652
67.658
62.87
58.299
53.952
49.838
45.962
42.328
38.939
35.796
32.899
30.246
27.835
25.661
23.719
22.004
20.507
19.221
18.137
17.244
16.532
15.991
15.609
15.374
15.276
15.301
15.438
15.675
15.999
16.401
16.867
17.388
17.953
18.551
19.173
19.81
20.454
21.097
21.731
22.351
22.95
23.523
24.066
24.575
25.047
25.479
25.87
26.219
26.525
26.787
27.006
27.182
27.318
27.413
27.47
27.49
27.476
27.429
27.353
27.249
27.119
26.967
26.793
26.601
26.393
26.17
25.934
25.686
25.429
25.164
24.892
24.613
24.329
24.04
23.748
23.451
23.15
22.846
22.538
22.225
21.908
21.586
21.259
20.925
20.585
20.238
19.883
19.52
19.148
18.767
18.377
17.977
17.568
17.149
16.72
16.282
15.836
15.381
14.918
14.449
13.973
13.492
13.006
12.517
12.025
11.532
11.039
10.547
10.056
9.569
9.085
8.606
8.133
7.667
7.208
6.756
6.313
5.879
5.455
5.039
4.633
4.236
3.848
3.468
3.095
2.729
2.367
2.009
1.653
1.298
0.942
0.583
0.22
-0.15
-0.529
-0.918
-1.32
-1.736
-2.17
-2.622
-3.093
-3.586
-4.101
-4.638
-5.199
-5.784
-6.393
-7.026
-7.682
-8.362
-9.065
-9.789
-10.532
-11.294
-12.07
-12.859
-13.657
-14.46
-15.262
-16.061
-16.852
-17.631
-18.392
-19.131
-19.843
-20.522
-21.164
-21.761
-22.31
-22.803
-23.236
-23.602
-23.899
-24.123
-24.272
-24.342
-24.33
-24.236
-24.059
-23.798
-23.452
-23.021
-22.506
-21.908
-21.232
-20.48
-19.659
-18.772
-17.829
-16.837
-15.808
-14.747
-13.664
-12.565
-11.46
-10.357
-9.262
-8.181
-7.121
-6.091
-5.101
-4.162
-3.285
-2.475
-1.742
-1.093
-0.535
-0.074
0.288
0.556
0.73
0.804
0.771
0.62
0.344
-0.048
-0.55
-1.159
-1.859
-2.629
-3.435
-4.214
-4.923
-5.54
-6.049
-6.447
-6.724
-6.855
-6.825
-6.64
-6.304
-5.831
-5.231
-4.491
-3.646
-2.772
-1.979
-1.432
-1.258
-1.528
-2.309
-3.655
-5.601
-8.192
-11.409
-15.134
-19.273
-23.751
-28.51
-33.551
-38.76
-43.891
-48.651
-52.657
-55.555
-57.096
-56.937
-54.68
-50.196
-43.557
-35.144
-25.762
-16.012
-6.242
3.028
11.423
19.059
26.443
34.776
45.647
59.992
78.224
100.756
127.404
156.86
186.502
212.326
230.18
236.757
229.318
205.198
162.284
100.42
22.16
-67.772
-164.226
-262.146
-356.485
-441.564
-511.054
-560.658
-589.169
-597.463
-587.386
-561.428
-522.422
-474.547
-423.702
-374.397
-329.048
-288.919
-254.204
-224.708
-200.302
-179.835
-160.896
-141.942
-122.4
-102.192
-82.061
-62.685
-44.402
-27.914
-14.156
-3.596
3.623
7.658
9.1
8.46
6.167
2.768
-1.285
-5.606
-9.815
-13.658
-16.928
-19.424
-21.029
-21.667
-21.274
-19.851
-17.427
-14.064
-9.902
-5.095
0.206
5.822
11.615
17.442
23.122
28.521
33.525
38.04
42.033
45.486
48.373
50.702
52.504
53.816
54.709
55.252
55.495
55.509
55.361
55.123
54.884
54.711
54.654
54.751
55.032
55.515
56.225
57.17
58.349
59.76
61.403
63.275
65.384
67.728
70.299
73.09
76.087
79.28
82.661
86.223
89.954
93.843
97.878
102.049
106.346
110.755
115.26
119.84
124.473
129.138
133.812
138.471
143.09
147.642
152.105
156.453
160.664
164.714
168.581
172.241
175.672
178.854
181.768
184.394
186.714
188.713
190.376
191.691
192.646
193.233
193.442
193.269
192.708
191.758
190.419
188.692
186.58
184.089
181.226
178.001
174.424
170.51
166.272
161.727
156.892
151.787
146.431
140.846
135.053
129.075
122.934
116.655
110.261
103.776
97.225
90.631
84.019
77.412
70.833
64.305
57.849
51.486
45.237
39.119
33.152
27.351
21.733
16.31
11.097
6.103
1.339
-3.187
-7.468
-11.499
-15.277
-18.8
-22.066
-25.076
-27.833
-30.34
-32.601
-34.622
-36.41
-37.972
-39.317
-40.454
-41.394
-42.147
-42.723
-43.135
-43.394
-43.512
-43.501
-43.373
-43.139
-42.812
-42.404
-41.925
-41.386
-40.798
-40.172
-39.516
-38.84
-38.152
-37.461
-36.772
-36.094
-35.432
-34.792
-34.177
-33.593
-33.042
-32.528
-32.052
-31.617
-31.223
-30.872
-30.563
-30.296
-30.071
-29.887
-29.743
-29.637
-29.568
-29.534
-29.533
-29.564
-29.623
-29.709
-29.819
-29.952
-30.104
-30.275
-30.461
-30.66
-30.871
-31.092
-31.321
-31.556
-31.796
-32.039
-32.284
-32.529
-32.774
-33.017
-33.258
-33.497
-33.732
-33.963
-34.191
-34.414
-34.634
-34.849
-35.059
-35.266
-35.469
-35.667
-35.863
-36.055
-36.246
-36.434
-36.621
-36.809
-36.997
-37.186
-37.377
-37.571
-37.769
-37.972
-38.181
-38.396
-38.618
-38.85
-39.091
-39.344
-39.609
-39.886
-40.177
-40.48
-40.797
-41.129
-41.474
-41.833
-42.205
-42.592
-42.992
-43.405
-43.832
-44.269
-44.717
-45.174
-45.637
-46.105
-46.575
-47.043
-47.508
-47.966
-48.416
-48.853
-49.276
-49.68
-50.062
-50.418
-50.744
-51.036
-51.29
-51.5
-51.663
-51.776
-51.838
-51.845
-51.795
-51.687
-51.52
-51.291
-51.001
-50.649
-50.233
-49.753
-49.211
-48.608
-47.948
-47.234
-46.471
-45.663
-44.819
-43.946
-43.05
-42.136
-41.212
-40.282
-39.352
-38.429
-37.515
-36.616
-35.74
-34.894
-34.09
-33.335
-32.639
-32.006
-31.445
-30.961
-30.559
-30.242
-30.004
-29.846
-29.77
-29.787
-29.908
-30.142
-30.484
-30.928
-31.471
-32.1
-32.797
-33.529
-34.238
-34.879
-35.428
-35.874
-36.218
-36.458
-36.577
-36.557
-36.396
-36.1
-35.683
-35.151
-34.494
-33.735
-32.936
-32.211
-31.727
-31.623
-31.982
-32.86
-34.305
-36.348
-39.027
-42.339
-46.191
-50.485
-55.143
-60.121
-65.425
-70.973
-76.563
-81.889
-86.559
-90.215
-92.587
-93.353
-92.138
-88.791
-83.345
-76.111
-67.804
-58.987
-50.02
-41.385
-33.409
-25.968
-18.578
-10.181
0.63
14.691
32.415
54.234
79.965
108.38
137.01
162.077
179.753
186.981
181.153
159.714
120.622
63.601
-9.05
-92.926
-183.331
-275.649
-365.215
-446.785
-514.397
-563.881
-593.955
-605.279
-599.372
-578.356
-544.693
-502.115
-456.031
-410.641
-368.236
-330.073
-296.421
-267.2
-242.368
-220.9
-200.629
-180.151
-158.953
-137.015
-115.038
-93.674
-73.297
-54.607
-38.542
-25.617
-16.0
-9.581
-5.876
-4.43
-4.868
-6.723
-9.516
-12.855
-16.386
-19.792
-22.832
-25.286
-26.974
-27.787
-27.66
-26.56
-24.494
-21.513
-17.709
-13.216
-8.177
-2.727
2.995
8.852
14.698
20.358
25.687
30.582
34.978
38.84
42.153
44.906
47.115
48.823
50.092
50.99
51.578
51.909
52.044
52.052
52.009
52.001
52.095
52.336
52.766
53.411
54.295
55.44
56.852
58.529
60.465
62.66
65.115
67.833
70.814
74.049
77.528
81.239
85.171
89.316
93.661
98.192
102.897
107.761
112.769
117.91
123.165
128.514
133.933
139.399
144.885
150.367
155.816
161.205
166.505
171.69
176.734
181.61
186.293
190.758
194.981
198.939
202.609
205.972
209.008
211.698
214.026
215.979
217.542
218.706
219.462
219.802
219.721
219.216
218.287
216.934
215.161
212.973
210.378
207.384
204.004
200.251
196.139
191.686
186.91
181.831
176.47
170.849
164.99
158.918
152.657
146.23
139.664
132.984
126.214
119.38
112.508
105.622
98.746
91.905
85.121
78.417
71.814
65.333
58.993
52.813
46.809
40.997
35.391
30.005
24.85
19.935
15.268
10.858
6.709
2.824
-0.793
-4.142
-7.223
-10.039
-12.591
-14.885
-16.924
-18.716
-20.267
-21.585
-22.679
-23.559
-24.233
-24.712
-25.007
-25.13
-25.091
-24.901
-24.574
-24.119
-23.548
-22.874
-22.106
-21.257
-20.336
-19.355
-18.323
-17.249
-16.144
-15.014
-13.869
-12.716
-11.562
-10.413
-9.275
-8.154
-7.055
-5.981
-4.938
-3.928
-2.953
-2.018
-1.123
-0.271
0.537
1.3
2.017
2.689
3.315
3.894
4.429
4.918
5.364
5.766
6.126
6.446
6.727
6.97
7.177
7.35
7.49
7.598
7.678
7.73
7.757
7.76
7.74
7.701
7.643
7.568
7.478
7.375
7.259
7.133
6.998
6.856
6.706
6.552
6.394
6.232
6.068
5.902
5.736
5.568
5.401
5.234
5.066
4.9
4.734
4.568
4.402
4.236
4.07
3.902
3.732
3.56
3.384
3.204
3.018
2.825
2.626
2.418
2.201
1.974
1.735
1.485
1.221
0.944
0.651
0.343
0.019
-0.321
-0.676
-1.047
-1.433
-1.833
-2.247
-2.673
-3.11
-3.557
-4.013
-4.476
-4.944
-5.416
-5.887
-6.356
-6.819
-7.274
-7.715
-8.14
-8.545
-8.926
-9.282
-9.607
-9.899
-10.154
-10.368
-10.538
-10.659
-10.727
-10.74
-10.692
-10.583
-10.41
-10.173
-9.87
-9.501
-9.066
-8.566
-8.001
-7.373
-6.682
-5.93
-5.119
-4.253
-3.336
-2.374
-1.373
-0.339
0.72
1.795
2.877
3.959
5.034
6.095
7.136
8.149
9.13
10.075
10.975
11.825
12.615
13.337
13.981
14.544
15.017
15.397
15.68
15.864
15.949
15.941
15.841
15.646
15.348
14.939
14.415
13.782
13.045
12.212
11.302
10.342
9.374
8.451
7.605
6.856
6.216
5.683
5.265
4.976
4.817
4.791
4.9
5.14
5.515
6.026
6.626
7.231
7.716
7.933
7.773
7.165
6.041
4.367
2.117
-0.722
-4.092
-7.896
-12.068
-16.553
-21.322
-26.371
-31.57
-36.67
-41.376
-45.314
-48.149
-49.636
-49.432
-47.171
-42.763
-36.349
-28.393
-19.706
-10.865
-2.158
5.97
13.162
19.564
25.732
32.889
42.67
56.009
73.184
94.449
119.557
147.114
174.513
197.878
213.051
216.76
206.5
179.869
134.996
72.017
-6.405
-95.622
-190.409
-285.684
-376.552
-457.534
-522.609
-567.875
-592.359
-597.03
-583.924
-555.657
-515.092
-466.391
-415.246
-365.9
-320.591
-280.451
-245.569
-215.706
-190.705
-169.425
-149.61
-129.853
-109.694
-89.166
-69.005
-49.854
-32.028
-16.151
-3.073
6.794
13.357
16.812
17.751
16.696
14.074
10.396
6.115
1.619
-2.698
-6.545
-9.736
-12.104
-13.555
-14.04
-13.508
-11.961
-9.451
-6.061
-1.931
2.788
7.955
13.413
19.018
24.622
30.041
35.129
39.783
43.93
47.542
50.609
53.114
55.068
56.515
57.507
58.114
58.4
58.415
58.22
57.884
57.483
57.101
56.805
56.64
56.643
56.84
57.25
57.892
58.774
59.887
61.227
62.791
64.576
66.585
68.817
71.261
73.905
76.737
79.744
82.917
86.245
89.715
93.312
97.025
100.842
104.75
108.736
112.781
116.866
120.968
125.067
129.14
133.165
137.117
140.973
144.711
148.309
151.747
155.003
158.058
160.892
163.488
165.827
167.896
169.678
171.161
172.331
173.18
173.699
173.881
173.721
173.214
172.359
171.156
169.606
167.712
165.479
162.913
160.022
156.817
153.308
149.509
145.433
141.096
136.514
131.707
126.692
121.489
116.117
110.599
104.953
99.201
93.366
87.468
81.528
75.568
69.609
63.671
57.775
51.939
46.183
40.524
34.979
29.565
24.296
19.187
14.249
9.496
4.937
0.582
-3.562
-7.486
-11.188
-14.661
-17.905
-20.916
-23.695
-26.244
-28.564
-30.659
-32.533
-34.192
-35.642
-36.89
-37.945
-38.814
-39.507
-40.034
-40.405
-40.63
-40.72
-40.687
-40.54
-40.291
-39.951
-39.531
-39.04
-38.49
-37.891
-37.251
-36.581
-35.89
-35.185
-34.475
-33.766
-33.067
-32.382
-31.717
-31.078
-30.468
-29.891
-29.351
-28.85
-28.39
-27.971
-27.596
-27.264
-26.975
-26.728
-26.522
-26.357
-26.23
-26.139
-26.082
-26.057
-26.061
-26.09
-26.144
-26.217
-26.308
-26.413
-26.53
-26.655
-26.786
-26.918
-27.051
-27.18
-27.304
-27.419
-27.524
-27.617
-27.695
-27.757
-27.801
-27.826
-27.831
-27.816
-27.779
-27.72
-27.639
-27.536
-27.412
-27.266
-27.099
-26.913
-26.708
-26.485
-26.246
-25.991
-25.723
-25.443
-25.152
-24.851
-24.544
-24.231
-23.914
-23.596
-23.279
-22.965
-22.656
-22.355
-22.063
-21.782
-21.514
-21.261
-21.026
-20.809
-20.612
-20.438
-20.287
-20.161
-20.061
-19.988
-19.942
-19.922
-19.93
-19.964
-20.025
-20.11
-20.22
-20.353
-20.508
-20.685
-20.88
-21.093
-21.321
-21.56
-21.809
-22.064
-22.321
-22.576
-22.825
-23.064
-23.29
-23.499
-23.687
-23.849
-23.982
-24.082
-24.143
-24.162
-24.133
-24.053
-23.918
-23.725
-23.473
-23.159
-22.784
-22.345
-21.844
-21.28
-20.654
-19.968
-19.222
-18.417
-17.556
-16.642
-15.681
-14.678
-13.638
-12.567
-11.475
-10.371
-9.263
-8.159
-7.068
-5.995
-4.949
-3.938
-2.967
-2.042
-1.169
-0.357
0.387
1.052
1.63
2.116
2.504
2.791
2.973
3.049
3.019
2.892
2.668
2.345
1.918
1.375
0.714
-0.059
-0.939
-1.916
-2.97
-4.075
-5.187
-6.25
-7.23
-8.106
-8.86
-9.498
-10.006
-10.366
-10.577
-10.626
-10.504
-10.211
-9.74
-9.092
-8.32
-7.516
-6.808
-6.353
-6.26
-6.599
-7.446
-8.831
-10.787
-13.328
-16.378
-19.861
-23.735
-27.966
-32.553
-37.452
-42.474
-47.333
-51.706
-55.214
-57.572
-58.472
-57.476
-54.388
-49.242
-42.312
-34.303
-25.847
-17.198
-8.775
-1.141
5.745
12.26
19.328
28.752
41.732
58.557
79.694
105.46
134.872
165.965
195.304
217.994
230.214
229.334
212.508
177.156
122.303
48.882
-39.417
-136.595
-237.405
-337.208
-430.641
-511.915
-575.602
-617.894
-638.191
-638.543
-620.866
-587.175
-540.434
-484.493
-424.803
-366.745
-313.161
-264.895
-222.7
-187.107
-158.511
-137.13
-120.931
-106.863
-93.52
-80.565
-67.953
-55.968
-44.262
-31.922
-19.559
-8.751
-0.268
5.532
8.8
10.219
9.961
7.748
3.93
-0.671
-5.359
-9.464
-12.66
-15.014
-16.46
-16.828
-16.068
-14.222
-11.409
-7.836
-3.668
1.009
6.096
11.481
17.034
22.578
27.927
32.93
37.488
41.539
45.056
48.024
50.429
52.281
53.627
54.534
55.071
55.3
55.27
55.032
54.653
54.216
53.809
53.503
53.341
53.359
53.581
54.03
54.725
55.674
56.869
58.301
59.967
61.867
64.004
66.376
68.973
71.782
74.791
77.988
81.364
84.907
88.604
92.443
96.407
100.487
104.67
108.939
113.277
117.662
122.071
126.482
130.873
135.218
139.493
143.674
147.737
151.66
155.42
158.997
162.368
165.515
168.418
171.059
173.423
175.494
177.258
178.704
179.819
180.597
181.031
181.114
180.843
180.215
179.232
177.894
176.206
174.173
171.8
169.097
166.075
162.745
159.121
155.218
151.052
146.64
142.001
137.153
132.118
126.916
121.566
116.091
110.511
104.849
99.125
93.36
87.576
81.793
76.03
70.309
64.646
59.06
53.567
48.185
42.927
37.807
32.84
28.035
23.403
18.954
14.695
10.632
6.772
3.118
-0.327
-3.563
-6.588
-9.404
-12.013
-14.419
-16.624
-18.635
-20.457
-22.097
-23.561
-24.859
-25.997
-26.985
-27.832
-28.547
-29.139
-29.617
-29.992
-30.271
-30.465
-30.582
-30.63
-30.619
-30.556
-30.448
-30.304
-30.129
-29.929
-29.712
-29.481
-29.241
-28.997
-28.753
-28.51
-28.273
-28.042
-27.82
-27.608
-27.407
-27.217
-27.038
-26.87
-26.713
-26.565
-26.426
-26.295
-26.171
-26.051
-25.936
-25.823
-25.712
-25.601
-25.488
-25.373
-25.255
-25.132
-25.004
-24.87
-24.728
-24.58
-24.423
-24.258
-24.085
-23.904
-23.714
-23.517
-23.311
-23.099
-22.879
-22.653
-22.421
-22.184
-21.943
-21.699
-21.452
-21.204
-20.955
-20.707
-20.46
-20.215
-19.974
-19.736
-19.502
-19.274
-19.051
-18.836
-18.627
-18.427
-18.236
-18.055
-17.885
-17.726
-17.58
-17.446
-17.327
-17.221
-17.132
-17.058
-17.001
-16.963
-16.944
-16.945
-16.967
-17.011
-17.077
-17.166
-17.278
-17.412
-17.57
-17.75
-17.954
-18.18
-18.428
-18.7
-18.993
-19.307
-19.641
-19.993
-20.361
-20.743
-21.137
-21.54
-21.948
-22.358
-22.768
-23.174
-23.574
-23.963
-24.337
-24.691
-25.023
-25.325
-25.594
-25.823
-26.008
-26.145
-26.23
-26.26
-26.232
-26.144
-25.992
-25.775
-25.492
-25.141
-24.72
-24.228
-23.665
-23.033
-22.334
-21.57
-20.746
-19.866
-18.937
-17.966
-16.96
-15.925
-14.868
-13.795
-12.71
-11.622
-10.534
-9.453
-8.385
-7.338
-6.322
-5.347
-4.424
-3.557
-2.756
-2.028
-1.376
-0.805
-0.316
0.096
0.427
0.674
0.827
0.874
0.811
0.642
0.371
0.006
-0.437
-0.931
-1.435
-1.897
-2.285
-2.581
-2.773
-2.866
-2.851
-2.712
-2.446
-2.048
-1.514
-0.85
-0.05
0.885
1.91
2.936
3.838
4.464
4.704
4.489
3.756
2.467
0.593
-1.886
-4.916
-8.407
-12.29
-16.51
-21.043
-25.882
-30.889
-35.809
-40.332
-44.074
-46.699
-47.952
-47.486
-44.921
-40.141
-33.272
-24.772
-15.453
-5.904
3.553
12.435
20.354
27.424
34.196
41.921
52.268
66.22
84.157
106.464
132.952
162.21
191.499
216.683
233.441
238.391
228.797
201.99
155.834
90.212
7.866
-86.14
-186.485
-288.168
-386.231
-475.174
-548.428
-601.016
-631.517
-641.03
-631.209
-604.09
-561.946
-508.028
-448.476
-389.382
-334.008
-283.822
-239.671
-202.007
-171.683
-149.269
-132.425
-117.831
-103.866
-89.928
-76.072
-62.729
-49.498
-35.472
-21.385
-8.913
1.038
7.996
12.121
14.126
14.217
12.16
8.313
3.5
-1.577
-6.203
-10.001
-12.994
-15.085
-16.092
-15.95
-14.678
-12.361
-9.183
-5.298
-0.796
4.207
9.602
15.267
21.046
26.768
32.251
37.359
42.008
46.151
49.769
52.845
55.366
57.357
58.88
60.003
60.794
61.307
61.58
61.673
61.657
61.612
61.622
61.747
62.025
62.485
63.154
64.051
65.193
66.582
68.204
70.053
72.124
74.417
76.934
79.67
82.612
85.748
89.066
92.552
96.198
99.991
103.916
107.958
112.105
116.344
120.661
125.04
129.462
133.906
138.35
142.771
147.147
151.452
155.663
159.756
163.707
167.495
171.097
174.493
177.662
180.584
183.241
185.616
187.693
189.457
190.895
191.994
192.746
193.141
193.173
192.838
192.13
191.05
189.598
187.777
185.589
183.042
180.143
176.901
173.328
169.437
165.242
160.76
156.008
151.005
145.77
140.325
134.692
128.892
122.948
116.883
110.721
104.485
98.198
91.885
85.568
79.27
73.013
66.82
60.711
54.706
48.825
43.086
37.505
32.1
26.884
21.871
17.072
12.499
8.16
4.063
0.214
-3.383
-6.725
-9.811
-12.64
-15.214
-17.536
-19.61
-21.442
-23.037
-24.404
-25.551
-26.487
-27.223
-27.769
-28.137
-28.339
-28.387
-28.293
-28.071
-27.733
-27.292
-26.761
-26.152
-25.477
-24.748
-23.977
-23.174
-22.351
-21.517
-20.681
-19.851
-19.036
-18.243
-17.478
-16.747
-16.054
-15.405
-14.802
-14.248
-13.745
-13.295
-12.898
-12.555
-12.265
-12.027
-11.84
-11.703
-11.612
-11.566
-11.562
-11.596
-11.666
-11.769
-11.901
-12.058
-12.237
-12.435
-12.648
-12.873
-13.108
-13.348
-13.591
-13.835
-14.077
-14.316
-14.548
-14.773
-14.988
-15.193
-15.387
-15.568
-15.736
-15.891
-16.033
-16.161
-16.277
-16.381
-16.473
-16.554
-16.624
-16.686
-16.739
-16.785
-16.825
-16.861
-16.894
-16.925
-16.956
-16.989
-17.025
-17.066
-17.113
-17.166
-17.228
-17.299
-17.38
-17.473
-17.579
-17.698
-17.832
-17.982
-18.147
-18.328
-18.526
-18.738
-18.967
-19.21
-19.467
-19.738
-20.02
-20.315
-20.62
-20.934
-21.257
-21.585
-21.918
-22.251
-22.584
-22.913
-23.234
-23.545
-23.842
-24.122
-24.383
-24.623
-24.836
-25.022
-25.175
-25.293
-25.372
-25.409
-25.398
-25.338
-25.223
-25.054
-24.828
-24.544
-24.201
-23.798
-23.335
-22.813
-22.231
-21.59
-20.891
-20.134
-19.322
-18.458
-17.547
-16.594
-15.603
-14.583
-13.541
-12.485
-11.422
-10.358
-9.299
-8.253
-7.223
-6.217
-5.237
-4.289
-3.38
-2.517
-1.711
-0.969
-0.298
0.297
0.809
1.235
1.57
1.815
1.976
2.055
2.05
1.952
1.751
1.442
1.03
0.521
-0.078
-0.753
-1.483
-2.232
-2.944
-3.577
-4.104
-4.516
-4.815
-4.995
-5.043
-4.94
-4.68
-4.266
-3.708
-3.008
-2.158
-1.181
-0.138
0.85
1.62
2.039
2.017
1.494
0.427
-1.224
-3.499
-6.397
-9.846
-13.761
-18.077
-22.766
-27.837
-33.219
-38.713
-44.006
-48.711
-52.468
-55.011
-56.019
-55.079
-51.983
-46.75
-39.682
-31.497
-22.83
-13.962
-5.32
2.543
9.65
16.401
23.767
33.56
47.047
64.577
86.639
113.612
144.506
177.279
208.376
232.71
246.264
246.267
229.724
193.88
137.683
62.039
-29.269
-129.967
-234.59
-338.307
-435.507
-520.189
-586.718
-631.108
-652.735
-653.732
-636.073
-601.859
-554.179
-496.984
-435.891
-376.435
-321.499
-271.972
-228.643
-192.041
-162.568
-140.435
-123.536
-108.756
-94.668
-80.922
-67.48
-54.642
-42.06
-28.832
-15.611
-4.026
5.113
11.446
15.139
16.891
16.886
14.854
11.156
6.648
2.053
-1.949
-5.027
-7.246
-8.545
-8.741
-7.777
-5.694
-2.607
1.274
5.782
10.831
16.322
22.135
28.134
34.138
39.949
45.416
50.436
54.947
58.919
62.34
65.192
67.487
69.272
70.612
71.577
72.23
72.616
72.789
72.817
72.784
72.781
72.878
73.121
73.544
74.173
75.029
76.13
77.484
79.079
80.907
82.965
85.249
87.762
90.503
93.459
96.617
99.963
103.484
107.17
111.009
114.986
119.088
123.299
127.606
131.999
136.46
140.97
145.508
150.051
154.576
159.06
163.479
167.806
172.018
176.091
180.003
183.73
187.253
190.548
193.598
196.381
198.882
201.083
202.969
204.526
205.741
206.605
207.107
207.242
207.004
206.387
205.391
204.015
202.261
200.132
197.634
194.773
191.558
187.999
184.11
179.904
175.396
170.604
165.544
160.237
154.703
148.963
143.037
136.949
130.721
124.375
117.934
111.422
104.862
98.276
91.687
85.117
78.588
72.122
65.738
59.456
53.294
47.271
41.403
35.706
30.193
24.878
19.773
14.887
10.231
5.811
1.634
-2.296
-5.976
-9.403
-12.578
-15.5
-18.173
-20.598
-22.782
-24.728
-26.443
-27.934
-29.21
-30.279
-31.15
-31.834
-32.34
-32.679
-32.863
-32.903
-32.81
-32.595
-32.271
-31.847
-31.337
-30.75
-30.097
-29.389
-28.636
-27.848
-27.032
-26.199
-25.356
-24.511
-23.67
-22.84
-22.026
-21.233
-20.467
-19.731
-19.029
-18.363
-17.735
-17.148
-16.604
-16.102
-15.644
-15.23
-14.86
-14.533
-14.248
-14.005
-13.803
-13.639
-13.512
-13.42
-13.362
-13.335
-13.337
-13.366
-13.419
-13.494
-13.589
-13.702
-13.831
-13.972
-14.125
-14.287
-14.456
-14.63
-14.808
-14.988
-15.168
-15.347
-15.523
-15.696
-15.865
-16.028
-16.184
-16.334
-16.476
-16.609
-16.734
-16.85
-16.957
-17.055
-17.144
-17.224
-17.296
-17.361
-17.419
-17.472
-17.521
-17.567
-17.611
-17.654
-17.698
-17.744
-17.795
-17.852
-17.916
-17.99
-18.075
-18.173
-18.287
-18.417
-18.565
-18.732
-18.919
-19.127
-19.358
-19.611
-19.887
-20.186
-20.51
-20.858
-21.231
-21.627
-22.045
-22.483
-22.941
-23.415
-23.904
-24.402
-24.908
-25.419
-25.93
-26.439
-26.942
-27.434
-27.911
-28.369
-28.803
-29.208
-29.578
-29.908
-30.194
-30.431
-30.615
-30.744
-30.815
-30.824
-30.769
-30.648
-30.461
-30.205
-29.88
-29.483
-29.017
-28.483
-27.883
-27.222
-26.504
-25.735
-24.922
-24.073
-23.197
-22.299
-21.386
-20.466
-19.545
-18.629
-17.724
-16.835
-15.97
-15.139
-14.351
-13.618
-12.948
-12.348
-11.825
-11.387
-11.042
-10.793
-10.637
-10.574
-10.607
-10.747
-11.008
-11.396
-11.906
-12.53
-13.257
-14.08
-14.981
-15.928
-16.871
-17.76
-18.556
-19.252
-19.846
-20.328
-20.684
-20.881
-20.898
-20.754
-20.476
-20.077
-19.568
-18.956
-18.287
-17.673
-17.265
-17.206
-17.604
-18.509
-19.956
-22.008
-24.713
-28.107
-32.172
-36.768
-41.775
-47.123
-52.755
-58.645
-64.649
-70.463
-75.728
-80.072
-83.16
-84.754
-84.533
-82.077
-77.236
-70.093
-61.058
-50.974
-40.481
-29.938
-19.884
-10.736
-2.405
5.598
14.484
25.934
40.948
60.001
83.59
111.543
142.478
173.596
200.613
219.145
225.737
217.532
191.725
146.039
80.21
-3.042
-98.586
-200.97
-305.041
-405.909
-498.046
-574.795
-631.144
-665.251
-677.807
-670.534
-645.503
-604.566
-550.801
-489.985
-427.729
-368.1
-313.418
-264.585
-222.29
-187.905
-162.178
-143.535
-129.542
-117.684
-106.46
-95.759
-85.569
-75.233
-63.872
-51.508
-39.065
-28.095
-19.661
-13.804
-10.249
-8.771
-9.447
-12.287
-16.801
-22.018
-27.019
-31.289
-34.604
-36.949
-38.25
-38.348
-37.211
-34.95
-31.749
-27.805
-23.266
-18.215
-12.734
-6.944
-0.987
4.95
10.663
16.016
20.918
25.319
29.202
32.546
35.332
37.584
39.357
40.719
41.741
42.473
42.954
43.239
43.399
43.517
43.684
43.963
44.392
45.003
45.819
46.861
48.146
49.676
51.438
53.424
55.631
58.057
60.706
63.573
66.646
69.912
73.358
76.97
80.74
84.654
88.698
92.859
97.123
101.476
105.909
110.403
114.94
119.499
124.058
128.595
133.086
137.509
141.836
146.046
150.115
154.021
157.742
161.258
164.546
167.589
170.367
172.864
175.063
176.949
178.51
179.732
180.608
181.127
181.285
181.075
180.494
179.541
178.217
176.525
174.467
172.051
169.283
166.174
162.734
158.977
154.917
150.57
145.954
141.087
135.989
130.682
125.185
119.522
113.715
107.786
101.759
95.657
89.503
83.32
77.131
70.958
64.824
58.75
52.756
46.862
41.087
35.449
29.963
24.647
19.514
14.578
9.85
5.34
1.057
-2.99
-6.796
-10.357
-13.67
-16.732
-19.544
-22.106
-24.422
-26.494
-28.328
-29.929
-31.304
-32.461
-33.408
-34.155
-34.712
-35.089
-35.297
-35.346
-35.25
-35.018
-34.663
-34.197
-33.631
-32.977
-32.245
-31.448
-30.595
-29.697
-28.764
-27.805
-26.83
-25.846
-24.861
-23.883
-22.918
-21.972
-21.051
-20.159
-19.301
-18.479
-17.698
-16.96
-16.265
-15.617
-15.016
-14.463
-13.957
-13.499
-13.088
-12.724
-12.406
-12.132
-11.9
-11.711
-11.561
-11.449
-11.373
-11.331
-11.321
-11.341
-11.389
-11.463
-11.56
-11.68
-11.818
-11.975
-12.147
-12.334
-12.532
-12.741
-12.958
-13.182
-13.413
-13.648
-13.886
-14.126
-14.368
-14.609
-14.85
-15.089
-15.325
-15.558
-15.787
-16.013
-16.233
-16.449
-16.661
-16.869
-17.072
-17.272
-17.468
-17.661
-17.852
-18.042
-18.231
-18.42
-18.61
-18.804
-19.001
-19.204
-19.414
-19.633
-19.86
-20.098
-20.346
-20.607
-20.88
-21.166
-21.467
-21.781
-22.111
-22.457
-22.818
-23.194
-23.584
-23.986
-24.401
-24.824
-25.255
-25.691
-26.127
-26.562
-26.994
-27.418
-27.831
-28.229
-28.608
-28.964
-29.291
-29.585
-29.84
-30.05
-30.211
-30.318
-30.367
-30.356
-30.28
-30.135
-29.92
-29.631
-29.267
-28.826
-28.306
-27.705
-27.023
-26.262
-25.424
-24.512
-23.53
-22.483
-21.378
-20.223
-19.024
-17.788
-16.52
-15.228
-13.919
-12.598
-11.271
-9.943
-8.624
-7.322
-6.05
-4.818
-3.635
-2.507
-1.444
-0.454
0.455
1.279
2.02
2.676
3.243
3.709
4.056
4.279
4.38
4.368
4.25
4.035
3.738
3.392
3.046
2.749
2.533
2.407
2.368
2.425
2.591
2.897
3.366
3.975
4.7
5.524
6.435
7.419
8.424
9.33
9.979
10.226
9.965
9.146
7.736
5.679
2.937
-0.527
-4.682
-9.388
-14.529
-20.024
-25.807
-31.842
-37.972
-43.871
-49.164
-53.463
-56.422
-57.814
-57.333
-54.574
-49.422
-41.994
-32.74
-22.55
-12.079
-1.68
8.116
16.887
24.742
32.187
40.442
51.225
65.542
83.814
106.473
133.318
162.891
192.355
217.462
233.799
237.91
227.037
198.517
150.221
82.131
-2.794
-99.268
-201.722
-304.914
-403.786
-492.772
-565.239
-616.283
-644.605
-651.46
-638.75
-608.745
-563.882
-507.562
-446.003
-385.282
-328.65
-277.517
-232.631
-194.376
-163.501
-140.491
-122.997
-107.71
-93.04
-78.439
-63.988
-50.13
-36.494
-22.171
-7.876
4.73
14.781
21.834
26.069
28.221
28.49
26.624
22.974
18.353
13.458
9.007
5.374
2.523
0.557
-0.339
-0.105
1.245
3.619
6.824
10.705
15.169
20.101
25.399
30.945
36.579
42.136
47.432
52.332
56.757
60.659
64.02
66.824
69.061
70.759
71.984
72.808
73.299
73.516
73.497
73.303
73.01
72.697
72.451
72.334
72.384
72.634
73.11
73.832
74.819
76.071
77.576
79.326
81.318
83.55
86.025
88.737
91.673
94.821
98.168
101.699
105.406
109.274
113.287
117.431
121.69
126.051
130.499
135.018
139.585
144.18
148.777
153.355
157.887
162.35
166.717
170.962
175.063
178.996
182.738
186.267
189.563
192.604
195.373
197.852
200.024
201.875
203.39
204.557
205.368
205.813
205.886
205.583
204.898
203.833
202.386
200.562
198.364
195.798
192.872
189.597
185.983
182.044
177.794
173.25
168.43
163.352
158.036
152.504
146.776
140.874
134.822
128.641
122.356
115.989
109.564
103.103
96.63
90.166
83.735
77.358
71.055
64.847
58.752
52.789
46.974
41.324
35.854
30.576
25.503
20.646
16.014
11.615
7.456
3.542
-0.124
-3.539
-6.703
-9.616
-12.28
-14.698
-16.874
-18.814
-20.523
-22.009
-23.279
-24.344
-25.211
-25.892
-26.397
-26.736
-26.922
-26.965
-26.878
-26.672
-26.359
-25.951
-25.459
-24.894
-24.267
-23.59
-22.871
-22.122
-21.351
-20.567
-19.778
-18.992
-18.215
-17.455
-16.716
-16.005
-15.325
-14.68
-14.074
-13.51
-12.989
-12.514
-12.085
-11.703
-11.369
-11.082
-10.841
-10.646
-10.496
-10.388
-10.321
-10.293
-10.302
-10.345
-10.421
-10.525
-10.657
-10.813
-10.991
-11.188
-11.401
-11.629
-11.869
-12.118
-12.375
-12.637
-12.902
-13.169
-13.436
-13.702
-13.964
-14.223
-14.477
-14.724
-14.965
-15.198
-15.423
-15.64
-15.849
-16.05
-16.243
-16.429
-16.609
-16.784
-16.955
-17.123
-17.289
-17.455
-17.622
-17.791
-17.965
-18.145
-18.333
-18.531
-18.74
-18.964
-19.203
-19.459
-19.735
-20.03
-20.346
-20.685
-21.048
-21.434
-21.846
-22.283
-22.747
-23.237
-23.754
-24.297
-24.864
-25.454
-26.065
-26.695
-27.341
-27.999
-28.666
-29.339
-30.013
-30.685
-31.351
-32.005
-32.644
-33.261
-33.851
-34.409
-34.928
-35.403
-35.827
-36.196
-36.505
-36.75
-36.927
-37.032
-37.061
-37.012
-36.882
-36.669
-36.37
-35.983
-35.508
-34.945
-34.297
-33.567
-32.759
-31.877
-30.929
-29.922
-28.863
-27.76
-26.618
-25.445
-24.247
-23.032
-21.805
-20.571
-19.341
-18.123
-16.929
-15.772
-14.659
-13.599
-12.6
-11.673
-10.825
-10.06
-9.379
-8.782
-8.275
-7.871
-7.585
-7.425
-7.389
-7.47
-7.66
-7.952
-8.331
-8.767
-9.211
-9.614
-9.941
-10.186
-10.349
-10.421
-10.388
-10.222
-9.9
-9.445
-8.881
-8.223
-7.481
-6.663
-5.818
-5.058
-4.536
-4.391
-4.73
-5.602
-7.041
-9.107
-11.843
-15.28
-19.389
-24.03
-29.083
-34.476
-40.155
-46.089
-52.13
-57.974
-63.259
-67.621
-70.729
-72.347
-72.16
-69.759
-65.006
-58.012
-49.209
-39.453
-29.387
-19.357
-9.874
-1.352
6.311
13.627
21.805
32.542
46.856
65.181
87.964
115.018
144.923
174.908
200.783
218.21
223.784
214.71
188.262
142.273
76.62
-5.886
-100.059
-200.491
-302.106
-399.87
-488.241
-560.622
-612.051
-641.173
-649.214
-637.98
-609.647
-566.598
-512.138
-452.397
-393.411
-338.382
-288.717
-245.173
-208.105
-178.285
-156.233
-139.628
-125.223
-111.453
-97.715
-84.061
-70.918
-57.883
-44.081
-30.236
-17.974
-8.172
-1.271
2.915
5.08
5.424
3.74
0.391
-3.79
-8.081
-11.826
-14.697
-16.737
-17.884
-17.96
-16.897
-14.738
-11.583
-7.616
-3.003
2.177
7.82
13.793
19.963
26.153
32.167
37.857
43.122
47.89
52.135
55.844
58.997
61.603
63.705
65.359
66.632
67.585
68.263
68.719
69.02
69.249
69.495
69.83
70.299
70.937
71.769
72.815
74.095
75.615
77.368
79.344
81.542
83.958
86.597
89.456
92.524
95.789
99.235
102.85
106.623
110.542
114.593
118.761
123.032
127.394
131.834
136.337
140.884
145.453
150.022
154.568
159.068
163.499
167.835
172.051
176.124
180.031
183.752
187.263
190.546
193.578
196.341
198.819
200.995
202.852
204.378
205.561
206.389
206.855
206.951
206.672
206.015
204.977
203.559
201.762
199.591
197.051
194.147
190.89
187.291
183.361
179.114
174.566
169.734
164.634
159.288
153.714
147.933
141.968
135.839
129.569
123.181
116.697
110.14
103.533
96.898
90.258
83.634
77.048
70.521
64.071
57.719
51.482
45.378
39.423
33.632
28.018
22.595
17.373
12.363
7.573
3.012
-1.316
-5.405
-9.253
-12.857
-16.216
-19.332
-22.206
-24.841
-27.241
-29.41
-31.355
-33.083
-34.601
-35.917
-37.04
-37.978
-38.743
-39.343
-39.79
-40.093
-40.264
-40.312
-40.248
-40.084
-39.829
-39.493
-39.087
-38.62
-38.101
-37.538
-36.941
-36.317
-35.673
-35.017
-34.355
-33.692
-33.034
-32.386
-31.751
-31.134
-30.538
-29.965
-29.417
-28.897
-28.405
-27.942
-27.509
-27.106
-26.732
-26.389
-26.074
-25.787
-25.527
-25.292
-25.082
-24.894
-24.728
-24.582
-24.453
-24.342
-24.246
-24.163
-24.093
-24.034
-23.985
-23.944
-23.911
-23.884
-23.863
-23.847
-23.835
-23.827
-23.823
-23.823
-23.827
-23.835
-23.848
-23.866
-23.89
-23.919
-23.955
-23.999
-24.051
-24.112
-24.183
-24.266
-24.361
-24.47
-24.593
-24.732
-24.886
-25.055
-25.241
-25.443
-25.662
-25.896
-26.146
-26.411
-26.692
-26.987
-27.295
-27.615
-27.945
-28.282
-28.624
-28.968
-29.312
-29.65
-29.981
-30.301
-30.607
-30.895
-31.161
-31.403
-31.615
-31.793
-31.933
-32.029
-32.077
-32.073
-32.012
-31.892
-31.71
-31.463
-31.15
-30.768
-30.317
-29.795
-29.202
-28.537
-27.8
-26.991
-26.113
-25.169
-24.162
-23.096
-21.979
-20.815
-19.615
-18.385
-17.133
-15.866
-14.59
-13.313
-12.04
-10.777
-9.531
-8.307
-7.115
-5.964
-4.864
-3.826
-2.857
-1.966
-1.16
-0.443
0.18
0.708
1.145
1.488
1.734
1.874
1.897
1.798
1.581
1.248
0.808
0.277
-0.32
-0.942
-1.54
-2.08
-2.544
-2.92
-3.21
-3.407
-3.499
-3.481
-3.349
-3.098
-2.733
-2.248
-1.644
-0.961
-0.276
0.296
0.611
0.565
0.088
-0.879
-2.368
-4.402
-6.998
-10.106
-13.644
-17.544
-21.749
-26.227
-30.969
-35.856
-40.659
-45.098
-48.816
-51.496
-52.893
-52.679
-50.507
-46.268
-40.053
-32.257
-23.604
-14.632
-5.679
2.771
10.365
17.197
23.749
31.162
40.931
53.957
70.671
91.494
116.282
143.812
171.605
195.867
212.642
218.748
211.527
188.399
147.324
88.134
13.264
-72.787
-165.128
-258.943
-349.426
-431.191
-498.206
-546.378
-574.566
-583.595
-575.206
-551.733
-515.817
-471.372
-423.928
-377.707
-334.977
-296.89
-263.583
-234.864
-210.603
-189.707
-169.978
-150.008
-129.279
-107.808
-86.348
-65.581
-45.901
-27.995
-12.76
-0.673
8.117
13.739
16.693
17.451
16.404
14.021
10.76
6.998
3.079
-0.681
-4.033
-6.76
-8.691
-9.725
-9.806
-8.902
-7.025
-4.228
-0.613
3.684
8.516
13.752
19.26
24.91
30.554
36.023
41.169
45.893
50.13
53.85
57.037
59.682
61.799
63.437
64.657
65.528
66.112
66.46
66.629
66.686
66.705
66.768
66.939
67.261
67.772
68.496
69.456
70.668
72.14
73.862
75.83
78.038
80.485
83.171
86.094
89.242
92.602
96.161
99.906
103.826
107.908
112.136
116.494
120.967
125.54
130.198
134.923
139.693
144.485
149.273
154.032
158.738
163.362
167.877
172.257
176.475
180.506
184.326
187.911
191.238
194.284
197.03
199.455
201.542
203.275
204.638
205.618
206.204
206.388
206.163
205.522
204.463
202.985
201.089
198.777
196.056
192.933
189.415
185.516
181.249
176.628
171.671
166.396
160.825
154.977
148.877
142.548
136.015
129.303
122.438
115.446
108.354
101.188
93.975
86.74
79.511
72.311
65.168
58.103
51.141
44.303
37.611
31.084
24.742
18.6
12.676
6.983
1.535
-3.658
-8.587
-13.242
-17.618
-21.711
-25.518
-29.036
-32.268
-35.213
-37.876
-40.261
-42.374
-44.222
-45.813
-47.156
-48.262
-49.141
-49.805
-50.266
-50.536
-50.629
-50.557
-50.335
-49.974
-49.49
-48.895
-48.201
-47.423
-46.572
-45.66
-44.7
-43.702
-42.676
-41.633
-40.582
-39.532
-38.49
-37.463
-36.458
-35.482
-34.538
-33.631
-32.765
-31.943
-31.168
-30.44
-29.761
-29.132
-28.552
-28.022
-27.541
-27.106
-26.718
-26.374
-26.071
-25.808
-25.583
-25.392
-25.233
-25.103
-25.0
-24.92
-24.861
-24.82
-24.794
-24.78
-24.777
-24.782
-24.792
-24.805
-24.82
-24.835
-24.847
-24.857
-24.862
-24.862
-24.856
-24.842
-24.821
-24.792
-24.755
-24.71
-24.658
-24.598
-24.532
-24.461
-24.386
-24.308
-24.227
-24.146
-24.066
-23.987
-23.913
-23.844
-23.782
-23.729
-23.687
-23.657
-23.643
-23.646
-23.666
-23.706
-23.766
-23.847
-23.951
-24.077
-24.228
-24.402
-24.601
-24.825
-25.074
-25.347
-25.644
-25.962
-26.301
-26.658
-27.031
-27.417
-27.812
-28.213
-28.616
-29.02
-29.419
-29.81
-30.188
-30.549
-30.888
-31.199
-31.478
-31.719
-31.915
-32.061
-32.155
-32.191
-32.166
-32.078
-31.922
-31.696
-31.398
-31.026
-30.578
-30.053
-29.449
-28.767
-28.008
-27.176
-26.273
-25.304
-24.275
-23.193
-22.066
-20.901
-19.702
-18.479
-17.236
-15.981
-14.721
-13.459
-12.203
-10.96
-9.742
-8.559
-7.423
-6.341
-5.324
-4.38
-3.516
-2.74
-2.054
-1.457
-0.95
-0.537
-0.229
-0.039
0.025
-0.036
-0.217
-0.516
-0.921
-1.412
-1.954
-2.495
-2.99
-3.415
-3.758
-4.018
-4.196
-4.278
-4.25
-4.11
-3.862
-3.513
-3.066
-2.513
-1.875
-1.211
-0.636
-0.304
-0.348
-0.858
-1.896
-3.508
-5.72
-8.554
-11.993
-15.951
-20.339
-25.086
-30.155
-35.546
-41.185
-46.872
-52.311
-57.131
-60.969
-63.561
-64.575
-63.584
-60.426
-55.152
-48.096
-40.007
-31.465
-22.707
-14.136
-6.249
0.959
7.812
15.315
25.275
38.714
55.828
76.853
101.822
129.975
159.658
187.512
208.834
220.09
218.757
202.445
169.109
117.52
48.325
-35.018
-127.05
-222.631
-316.954
-404.894
-480.882
-539.666
-578.146
-595.888
-594.495
-576.351
-544.136
-501.407
-453.014
-403.839
-357.278
-315.262
-278.386
-246.476
-219.299
-195.969
-174.618
-153.611
-132.113
-109.907
-87.488
-65.607
-44.786
-25.728
-9.392
3.647
13.181
19.275
22.379
23.009
21.592
18.634
14.678
10.136
5.387
0.783
-3.432
-7.029
-9.809
-11.658
-12.496
-12.278
-11.013
-8.753
-5.587
-1.657
2.889
7.906
13.241
18.749
24.274
29.632
34.673
39.29
43.408
46.99
50.017
52.475
54.376
55.764
56.7
57.249
57.475
57.43
57.174
56.779
56.321
55.885
55.541
55.332
55.298
55.466
55.855
56.486
57.365
58.483
59.835
61.418
63.228
65.271
67.542
70.033
72.73
75.622
78.697
81.946
85.356
88.915
92.61
96.428
100.355
104.383
108.494
112.672
116.895
121.142
125.39
129.618
133.801
137.914
141.933
145.835
149.597
153.198
156.616
159.83
162.819
165.565
168.049
170.255
172.166
173.769
175.05
175.998
176.604
176.86
176.76
176.299
175.475
174.286
172.734
170.822
168.555
165.937
162.978
159.688
156.078
152.162
147.955
143.472
138.732
133.752
128.553
123.156
117.581
111.85
105.985
100.008
93.943
87.811
81.636
75.439
69.243
63.069
56.94
50.875
44.894
39.016
33.259
27.639
22.174
16.876
11.76
6.837
2.119
-2.385
-6.668
-10.722
-14.543
-18.126
-21.47
-24.574
-27.437
-30.062
-32.451
-34.607
-36.537
-38.246
-39.74
-41.027
-42.116
-43.016
-43.736
-44.286
-44.676
-44.918
-45.021
-44.996
-44.855
-44.608
-44.266
-43.838
-43.337
-42.77
-42.148
-41.479
-40.772
-40.035
-39.276
-38.501
-37.717
-36.929
-36.143
-35.363
-34.594
-33.838
-33.1
-32.381
-31.683
-31.008
-30.357
-29.73
-29.128
-28.551
-27.999
-27.471
-26.966
-26.483
-26.022
-25.58
-25.158
-24.753
-24.363
-23.988
-23.626
-23.276
-22.937
-22.607
-22.285
-21.971
-21.664
-21.363
-21.068
-20.778
-20.493
-20.213
-19.937
-19.666
-19.4
-19.14
-18.885
-18.637
-18.395
-18.162
-17.936
-17.72
-17.513
-17.317
-17.131
-16.958
-16.798
-16.652
-16.521
-16.406
-16.309
-16.23
-16.171
-16.133
-16.116
-16.121
-16.149
-16.202
-16.279
-16.381
-16.51
-16.665
-16.848
-17.06
-17.299
-17.567
-17.862
-18.184
-18.534
-18.909
-19.31
-19.736
-20.185
-20.657
-21.151
-21.665
-22.197
-22.746
-23.307
-23.88
-24.46
-25.044
-25.627
-26.207
-26.779
-27.339
-27.885
-28.412
-28.915
-29.389
-29.832
-30.237
-30.601
-30.917
-31.181
-31.389
-31.536
-31.62
-31.639
-31.59
-31.469
-31.277
-31.01
-30.67
-30.254
-29.762
-29.193
-28.549
-27.832
-27.044
-26.191
-25.278
-24.309
-23.293
-22.239
-21.154
-20.045
-18.918
-17.78
-16.639
-15.5
-14.368
-13.249
-12.15
-11.081
-10.052
-9.073
-8.152
-7.295
-6.509
-5.801
-5.178
-4.642
-4.19
-3.822
-3.541
-3.357
-3.285
-3.329
-3.485
-3.743
-4.094
-4.529
-5.028
-5.56
-6.073
-6.515
-6.851
-7.071
-7.177
-7.157
-6.997
-6.666
-6.143
-5.451
-4.616
-3.653
-2.572
-1.386
-0.144
1.034
1.992
2.585
2.707
2.307
1.349
-0.229
-2.47
-5.408
-9.01
-13.135
-17.66
-22.511
-27.638
-33.006
-38.462
-43.692
-48.324
-51.988
-54.356
-55.197
-54.206
-50.972
-45.365
-37.509
-27.854
-17.277
-6.423
4.393
14.694
24.074
32.638
40.873
49.942
61.524
76.582
95.426
118.37
145.129
174.224
202.933
227.201
242.785
246.427
235.561
207.706
160.923
95.251
13.484
-79.351
-177.987
-277.534
-373.217
-459.754
-530.834
-581.712
-611.079
-620.067
-610.371
-584.018
-543.209
-491.061
-433.489
-376.35
-322.776
-274.185
-231.38
-194.788
-165.256
-143.377
-126.923
-112.72
-99.23
-85.849
-72.608
-59.901
-47.3
-33.914
-20.443
-8.503
1.032
7.718
11.729
13.749
13.969
12.181
8.741
4.479
0.107
-3.725
-6.696
-8.854
-10.143
-10.387
-9.525
-7.597
-4.704
-1.03
3.265
8.101
13.374
18.951
24.698
30.44
35.982
41.183
45.941
50.19
53.906
57.077
59.688
61.746
63.296
64.393
65.105
65.492
65.601
65.487
65.218
64.878
64.558
64.33
64.241
64.328
64.616
65.129
65.886
66.898
68.157
69.658
71.401
73.384
75.614
78.089
80.8
83.735
86.879
90.222
93.752
97.459
101.327
105.343
109.492
113.761
118.138
122.606
127.144
131.731
136.344
140.957
145.548
150.091
154.558
158.924
163.163
167.252
171.167
174.884
178.38
181.633
184.624
187.332
189.739
191.828
193.584
194.993
196.043
196.724
197.028
196.949
196.483
195.626
194.379
192.742
190.721
188.319
185.543
182.404
178.911
175.079
170.921
166.453
161.693
156.661
151.376
145.859
140.134
134.223
128.149
121.936
115.608
109.191
102.709
96.185
89.645
83.112
76.611
70.164
63.793
57.519
51.364
45.346
39.484
33.794
28.293
22.994
17.911
13.056
8.438
4.066
-0.053
-3.912
-7.51
-10.842
-13.907
-16.707
-19.244
-21.519
-23.538
-25.306
-26.831
-28.119
-29.18
-30.023
-30.658
-31.097
-31.351
-31.433
-31.353
-31.125
-30.762
-30.277
-29.681
-28.988
-28.21
-27.36
-26.448
-25.487
-24.486
-23.458
-22.411
-21.355
-20.299
-19.25
-18.216
-17.204
-16.22
-15.268
-14.355
-13.484
-12.658
-11.88
-11.153
-10.478
-9.855
-9.287
-8.772
-8.311
-7.903
-7.547
-7.241
-6.983
-6.773
-6.609
-6.487
-6.405
-6.362
-6.356
-6.383
-6.441
-6.528
-6.643
-6.781
-6.943
-7.124
-7.325
-7.541
-7.773
-8.018
-8.274
-8.54
-8.816
-9.099
-9.389
-9.684
-9.984
-10.288
-10.595
-10.904
-11.216
-11.528
-11.841
-12.155
-12.468
-12.781
-13.093
-13.405
-13.715
-14.024
-14.331
-14.637
-14.94
-15.24
-15.539
-15.834
-16.127
-16.417
-16.704
-16.989
-17.272
-17.554
-17.833
-18.111
-18.388
-18.664
-18.94
-19.216
-19.493
-19.771
-20.051
-20.334
-20.621
-20.912
-21.207
-21.507
-21.812
-22.121
-22.436
-22.756
-23.081
-23.41
-23.743
-24.081
-24.422
-24.767
-25.114
-25.461
-25.807
-26.15
-26.488
-26.819
-27.138
-27.443
-27.731
-28.001
-28.248
-28.47
-28.662
-28.822
-28.945
-29.027
-29.065
-29.054
-28.989
-28.867
-28.685
-28.44
-28.132
-27.757
-27.314
-26.802
-26.22
-25.568
-24.846
-24.053
-23.189
-22.257
-21.258
-20.197
-19.078
-17.906
-16.686
-15.428
-14.139
-12.826
-11.497
-10.158
-8.817
-7.479
-6.153
-4.844
-3.555
-2.296
-1.074
0.099
1.215
2.266
3.245
4.148
4.965
5.692
6.325
6.868
7.321
7.683
7.942
8.087
8.111
8.017
7.813
7.507
7.109
6.635
6.118
5.608
5.157
4.798
4.544
4.395
4.362
4.459
4.715
5.147
5.74
6.475
7.341
8.33
9.431
10.587
11.679
12.549
13.047
13.063
12.54
11.431
9.682
7.246
4.1
0.294
-4.057
-8.854
-14.05
-19.624
-25.51
-31.513
-37.301
-42.478
-46.665
-49.572
-50.884
-50.188
-47.252
-42.086
-34.968
-26.588
-17.619
-8.366
0.749
9.164
16.928
24.459
32.705
43.447
57.906
76.35
99.193
126.728
157.86
190.488
221.058
244.526
257.01
255.9
238.378
201.89
145.553
70.382
-19.826
-118.886
-221.452
-322.848
-417.668
-500.142
-564.879
-608.098
-629.245
-630.418
-613.568
-580.745
-534.929
-479.94
-421.177
-363.945
-311.019
-263.249
-221.386
-185.944
-157.321
-135.729
-119.161
-104.637
-90.796
-77.314
-64.167
-51.644
-39.412
-26.6
-13.836
-2.695
6.042
12.028
15.422
16.899
16.636
14.375
10.468
5.75
0.924
-3.349
-6.746
-9.327
-11.029
-11.673
-11.2
-9.65
-7.13
-3.84
0.06
4.49
9.355
14.536
19.904
25.279
30.47
35.327
39.752
43.683
47.094
49.972
52.303
54.095
55.398
56.274
56.792
57.013
56.983
56.754
56.396
55.991
55.631
55.387
55.305
55.42
55.756
56.337
57.18
58.293
59.666
61.29
63.161
65.278
67.643
70.252
73.095
76.158
79.424
82.881
86.518
90.321
94.275
98.365
102.576
106.892
111.303
115.789
120.332
124.909
129.497
134.071
138.607
143.082
147.467
151.738
155.87
159.841
163.628
167.208
170.561
173.665
176.503
179.055
181.306
183.24
184.844
186.105
187.013
187.56
187.74
187.547
186.979
186.033
184.71
183.013
180.946
178.514
175.727
172.591
169.12
165.326
161.224
156.829
152.158
147.23
142.065
136.684
131.107
125.357
119.455
113.424
107.287
101.068
94.788
88.47
82.138
75.813
69.518
63.272
57.097
51.012
45.035
39.185
33.477
27.927
22.551
17.359
12.365
7.579
3.01
-1.334
-5.447
-9.324
-12.962
-16.358
-19.512
-22.424
-25.096
-27.531
-29.734
-31.709
-33.462
-35.002
-36.335
-37.471
-38.418
-39.187
-39.789
-40.233
-40.531
-40.694
-40.733
-40.659
-40.484
-40.219
-39.875
-39.462
-38.991
-38.471
-37.912
-37.324
-36.715
-36.092
-35.464
-34.837
-34.218
-33.612
-33.025
-32.46
-31.922
-31.415
-30.94
-30.5
-30.096
-29.729
-29.401
-29.111
-28.858
-28.642
-28.463
-28.318
-28.206
-28.126
-28.075
-28.052
-28.053
-28.078
-28.123
-28.187
-28.266
-28.36
-28.464
-28.578
-28.699
-28.826
-28.955
-29.086
-29.217
-29.346
-29.471
-29.593
-29.709
-29.818
-29.92
-30.014
-30.1
-30.176
-30.242
-30.299
-30.345
-30.382
-30.409
-30.426
-30.433
-30.432
-30.421
-30.402
-30.374
-30.339
-30.296
-30.246
-30.191
-30.129
-30.063
-29.992
-29.918
-29.841
-29.761
-29.679
-29.597
-29.514
-29.431
-29.349
-29.269
-29.191
-29.116
-29.047
-28.982
-28.924
-28.874
-28.832
-28.799
-28.776
-28.765
-28.765
-28.778
-28.805
-28.846
-28.902
-28.975
-29.065
-29.172
-29.297
-29.439
-29.599
-29.776
-29.969
-30.179
-30.404
-30.643
-30.896
-31.163
-31.441
-31.73
-32.027
-32.33
-32.637
-32.945
-33.252
-33.552
-33.844
-34.122
-34.385
-34.629
-34.851
-35.046
-35.21
-35.341
-35.434
-35.484
-35.489
-35.442
-35.341
-35.182
-34.964
-34.683
-34.34
-33.932
-33.458
-32.919
-32.313
-31.643
-30.907
-30.107
-29.242
-28.317
-27.335
-26.3
-25.218
-24.093
-22.934
-21.749
-20.547
-19.335
-18.12
-16.908
-15.708
-14.526
-13.368
-12.238
-11.141
-10.086
-9.081
-8.135
-7.257
-6.451
-5.724
-5.082
-4.531
-4.073
-3.71
-3.436
-3.25
-3.158
-3.164
-3.282
-3.516
-3.856
-4.295
-4.828
-5.438
-6.104
-6.788
-7.428
-7.981
-8.426
-8.749
-8.948
-9.015
-8.924
-8.661
-8.231
-7.642
-6.907
-6.039
-5.029
-3.918
-2.789
-1.764
-1.01
-0.661
-0.787
-1.454
-2.715
-4.607
-7.172
-10.387
-14.131
-18.309
-22.846
-27.685
-32.827
-38.147
-43.382
-48.223
-52.269
-55.159
-56.64
-56.367
-53.941
-49.235
-42.335
-33.653
-24.029
-14.082
-4.152
5.248
13.746
21.458
28.908
37.311
48.288
62.78
81.148
103.753
130.387
159.657
188.863
213.938
230.64
235.66
226.341
200.088
154.832
90.51
9.729
-82.637
-181.201
-280.966
-376.959
-463.589
-534.667
-585.642
-614.966
-623.606
-613.555
-586.971
-546.532
-496.032
-440.827
-386.145
-335.206
-289.294
-248.799
-214.032
-185.054
-161.507
-141.926
-123.912
-106.04
-88.162
-70.587
-53.735
-37.96
-23.171
-9.504
1.947
10.488
16.087
18.893
19.465
18.389
15.791
11.788
7.007
2.013
-2.719
-6.723
-9.895
-12.214
-13.536
-13.763
-12.902
-10.989
-8.146
-4.56
-0.355
4.346
9.412
14.733
20.168
25.547
30.688
35.455
39.76
43.557
46.828
49.557
51.733
53.378
54.555
55.334
55.786
55.973
55.938
55.738
55.444
55.134
54.894
54.786
54.85
55.118
55.615
56.362
57.377
58.663
60.21
62.007
64.053
66.344
68.885
71.669
74.685
77.918
81.357
84.987
88.799
92.778
96.909
101.176
105.565
110.061
114.651
119.317
124.038
128.792
133.555
138.304
143.015
147.662
152.219
156.661
160.964
165.103
169.057
172.803
176.32
179.586
182.584
185.294
187.699
189.785
191.536
192.941
193.99
194.673
194.984
194.917
194.469
193.638
192.426
190.834
188.867
186.53
183.832
180.782
177.391
173.674
169.644
165.318
160.714
155.85
150.748
145.427
139.909
134.218
128.375
122.404
116.328
110.172
103.958
97.711
91.452
85.206
78.995
72.841
66.764
60.785
54.923
49.196
43.621
38.215
32.992
27.965
23.146
18.546
14.174
10.038
6.145
2.497
-0.9
-4.045
-6.938
-9.579
-11.972
-14.118
-16.023
-17.692
-19.133
-20.352
-21.358
-22.16
-22.768
-23.193
-23.445
-23.535
-23.475
-23.277
-22.952
-22.512
-21.968
-21.333
-20.617
-19.831
-18.986
-18.092
-17.159
-16.196
-15.211
-14.214
-13.211
-12.209
-11.215
-10.234
-9.272
-8.333
-7.421
-6.539
-5.69
-4.877
-4.1
-3.362
-2.664
-2.005
-1.386
-0.806
-0.265
0.237
0.702
1.131
1.526
1.887
2.216
2.515
2.785
3.028
3.245
3.438
3.608
3.755
3.882
3.99
4.078
4.149
4.202
4.238
4.257
4.26
4.247
4.219
4.175
4.115
4.04
3.949
3.843
3.721
3.584
3.43
3.26
3.075
2.873
2.655
2.422
2.172
1.907
1.625
1.328
1.016
0.689
0.347
-0.01
-0.381
-0.764
-1.161
-1.569
-1.988
-2.417
-2.855
-3.302
-3.756
-4.218
-4.685
-5.159
-5.637
-6.12
-6.607
-7.096
-7.588
-8.081
-8.576
-9.073
-9.57
-10.068
-10.566
-11.066
-11.565
-12.064
-12.561
-13.057
-13.55
-14.041
-14.527
-15.008
-15.483
-15.952
-16.415
-16.869
-17.315
-17.751
-18.175
-18.586
-18.981
-19.36
-19.719
-20.056
-20.368
-20.653
-20.911
-21.137
-21.33
-21.487
-21.605
-21.683
-21.716
-21.703
-21.64
-21.524
-21.353
-21.126
-20.843
-20.504
-20.108
-19.655
-19.146
-18.584
-17.968
-17.3
-16.583
-15.816
-15.006
-14.155
-13.269
-12.355
-11.417
-10.463
-9.505
-8.549
-7.605
-6.678
-5.778
-4.91
-4.082
-3.3
-2.569
-1.893
-1.281
-0.741
-0.282
0.087
0.363
0.539
0.608
0.568
0.414
0.148
-0.224
-0.701
-1.285
-1.981
-2.8
-3.744
-4.803
-5.969
-7.235
-8.583
-9.991
-11.421
-12.81
-14.114
-15.308
-16.377
-17.316
-18.114
-18.744
-19.19
-19.454
-19.541
-19.465
-19.234
-18.839
-18.314
-17.739
-17.225
-16.939
-17.011
-17.514
-18.512
-20.06
-22.196
-24.969
-28.365
-32.268
-36.584
-41.236
-46.165
-51.375
-56.749
-62.038
-66.943
-71.074
-74.075
-75.696
-75.594
-73.369
-68.879
-62.179
-53.639
-44.065
-34.063
-24.002
-14.428
-5.714
2.24
9.925
18.534
29.644
44.196
62.647
85.467
112.493
142.403
172.535
198.8
217.011
223.864
216.577
192.4
149.117
86.461
6.911
-84.693
-183.123
-283.488
-380.808
-469.459
-543.111
-596.983
-629.366
-641.114
-634.035
-610.142
-572.021
-523.392
-469.647
-416.097
-366.042
-320.846
-280.941
-246.652
-218.04
-194.719
-175.191
-157.028
-138.76
-120.181
-101.609
-83.491
-66.221
-49.789
-34.396
-21.184
-10.885
-3.567
0.871
2.944
3.206
1.769
-1.227
-5.135
-9.404
-13.574
-17.16
-20.027
-22.119
-23.25
-23.317
-22.325
-20.293
-17.325
-13.589
-9.193
-4.256
1.087
6.723
12.503
18.259
23.816
29.02
33.767
37.994
41.666
44.767
47.287
49.238
50.671
51.656
52.26
52.547
52.566
52.373
52.039
51.646
51.28
51.01
50.88
50.929
51.183
51.667
52.4
53.389
54.626
56.106
57.824
59.783
61.984
64.425
67.099
69.992
73.093
76.392
79.878
83.541
87.368
91.346
95.46
99.698
104.048
108.495
113.018
117.597
122.208
126.829
131.435
136.002
140.503
144.914
149.21
153.368
157.364
161.176
164.782
168.161
171.292
174.157
176.738
179.018
180.984
182.62
183.916
184.861
185.449
185.671
185.523
185.001
184.106
182.838
181.199
179.195
176.83
174.114
171.056
167.669
163.966
159.961
155.671
151.113
146.307
141.272
136.029
130.598
125.002
119.263
113.403
107.445
101.412
95.326
89.209
83.085
76.974
70.898
64.877
58.931
53.08
47.341
41.731
36.266
30.962
25.831
20.887
16.14
11.6
7.275
3.173
-0.7
-4.34
-7.745
-10.913
-13.842
-16.535
-18.992
-21.218
-23.216
-24.991
-26.55
-27.899
-29.046
-29.999
-30.767
-31.359
-31.785
-32.055
-32.178
-32.166
-32.029
-31.777
-31.42
-30.969
-30.434
-29.824
-29.15
-28.42
-27.644
-26.83
-25.985
-25.119
-24.237
-23.348
-22.456
-21.568
-20.69
-19.825
-18.979
-18.156
-17.358
-16.588
-15.85
-15.146
-14.476
-13.843
-13.248
-12.691
-12.174
-11.695
-11.257
-10.858
-10.498
-10.177
-9.895
-9.651
-9.443
-9.272
-9.137
-9.036
-8.969
-8.934
-8.931
-8.958
-9.013
-9.097
-9.206
-9.34
-9.498
-9.677
-9.876
-10.095
-10.33
-10.58
-10.843
-11.119
-11.404
-11.698
-11.999
-12.304
-12.612
-12.921
-13.229
-13.535
-13.837
-14.132
-14.42
-14.699
-14.966
-15.221
-15.463
-15.689
-15.899
-16.091
-16.266
-16.422
-16.559
-16.676
-16.773
-16.85
-16.908
-16.946
-16.966
-16.969
-16.955
-16.927
-16.886
-16.834
-16.772
-16.703
-16.628
-16.55
-16.472
-16.395
-16.322
-16.255
-16.198
-16.153
-16.122
-16.108
-16.113
-16.138
-16.185
-16.255
-16.35
-16.47
-16.617
-16.79
-16.991
-17.218
-17.473
-17.754
-18.059
-18.387
-18.736
-19.102
-19.482
-19.872
-20.268
-20.667
-21.062
-21.452
-21.83
-22.192
-22.532
-22.846
-23.127
-23.37
-23.57
-23.719
-23.812
-23.844
-23.81
-23.708
-23.534
-23.286
-22.96
-22.555
-22.07
-21.504
-20.856
-20.125
-19.312
-18.418
-17.447
-16.402
-15.29
-14.116
-12.886
-11.611
-10.299
-8.96
-7.6
-6.229
-4.853
-3.482
-2.123
-0.781
0.535
1.816
3.052
4.23
5.339
6.372
7.319
8.174
8.93
9.581
10.127
10.57
10.912
11.149
11.272
11.267
11.128
10.859
10.467
9.958
9.345
8.65
7.909
7.178
6.504
5.91
5.409
4.999
4.687
4.488
4.427
4.509
4.733
5.089
5.577
6.204
6.95
7.752
8.485
8.986
9.121
8.807
7.99
6.627
4.68
2.111
-1.08
-4.809
-8.983
-13.531
-18.421
-23.657
-29.16
-34.713
-39.982
-44.583
-48.162
-50.462
-51.185
-49.918
-46.463
-40.859
-33.42
-24.896
-15.946
-6.842
2.001
10.026
17.262
24.094
31.453
41.154
54.453
71.663
93.245
119.509
149.404
180.858
210.346
232.878
244.54
242.656
224.353
187.044
129.871
53.943
-36.86
-136.35
-239.121
-340.429
-434.806
-516.389
-579.807
-621.384
-640.67
-639.875
-621.056
-586.327
-538.758
-482.291
-422.353
-364.255
-310.763
-262.634
-220.553
-185.012
-156.36
-134.78
-118.276
-103.848
-90.137
-76.858
-64.001
-51.861
-40.109
-27.837
-15.634
-5.056
3.145
8.63
11.559
12.625
12.006
9.431
5.252
0.296
-4.735
-9.161
-12.647
-15.256
-16.917
-17.458
-16.829
-15.071
-12.3
-8.726
-4.516
0.244
5.456
11.005
16.76
22.541
28.156
33.45
38.316
42.694
46.551
49.872
52.641
54.866
56.594
57.891
58.828
59.463
59.844
60.02
60.057
60.037
60.048
60.159
60.415
60.847
61.48
62.335
63.429
64.768
66.341
68.138
70.155
72.388
74.84
77.508
80.382
83.446
86.689
90.097
93.662
97.372
101.215
105.176
109.242
113.402
117.645
121.956
126.317
130.707
135.105
139.489
143.838
148.128
152.335
156.435
160.406
164.226
167.875
171.332
174.575
177.585
180.345
182.838
185.046
186.956
188.553
189.825
190.762
191.356
191.598
191.484
191.008
190.168
188.964
187.397
185.468
183.184
180.549
177.572
174.262
170.631
166.693
162.46
157.949
153.178
148.164
142.927
137.488
131.866
126.083
120.161
114.123
107.99
101.785
95.53
89.249
82.962
76.692
70.46
64.287
58.192
52.195
46.314
40.566
34.967
29.534
24.279
19.215
14.355
9.708
5.283
1.088
-2.872
-6.591
-10.067
-13.299
-16.285
-19.026
-21.526
-23.786
-25.813
-27.611
-29.187
-30.549
-31.705
-32.665
-33.437
-34.033
-34.463
-34.739
-34.87
-34.87
-34.749
-34.519
-34.192
-33.779
-33.291
-32.739
-32.134
-31.486
-30.805
-30.099
-29.379
-28.652
-27.926
-27.208
-26.505
-25.822
-25.165
-24.537
-23.944
-23.389
-22.873
-22.4
-21.971
-21.586
-21.247
-20.952
-20.703
-20.498
-20.337
-20.217
-20.138
-20.097
-20.093
-20.123
-20.186
-20.278
-20.399
-20.545
-20.714
-20.904
-21.112
-21.337
-21.575
-21.826
-22.087
-22.356
-22.631
-22.911
-23.194
-23.478
-23.762
-24.046
-24.326
-24.604
-24.878
-25.146
-25.409
-25.666
-25.915
-26.157
-26.39
-26.615
-26.831
-27.037
-27.233
-27.419
-27.594
-27.759
-27.911
-28.051
-28.179
-28.294
-28.396
-28.483
-28.557
-28.617
-28.661
-28.691
-28.706
-28.706
-28.691
-28.66
-28.614
-28.553
-28.478
-28.387
-28.283
-28.165
-28.034
-27.892
-27.74
-27.578
-27.408
-27.23
-27.047
-26.859
-26.669
-26.477
-26.286
-26.096
-25.911
-25.732
-25.561
-25.4
-25.25
-25.112
-24.988
-24.879
-24.786
-24.71
-24.651
-24.611
-24.59
-24.589
-24.608
-24.647
-24.704
-24.78
-24.873
-24.981
-25.102
-25.233
-25.372
-25.516
-25.662
-25.807
-25.948
-26.082
-26.205
-26.313
-26.402
-26.468
-26.506
-26.511
-26.48
-26.407
-26.291
-26.129
-25.918
-25.656
-25.341
-24.971
-24.545
-24.063
-23.524
-22.925
-22.268
-21.553
-20.784
-19.963
-19.094
-18.181
-17.23
-16.249
-15.247
-14.228
-13.2
-12.167
-11.137
-10.116
-9.109
-8.12
-7.154
-6.218
-5.32
-4.47
-3.676
-2.943
-2.277
-1.685
-1.172
-0.742
-0.398
-0.133
0.051
0.151
0.158
0.061
-0.146
-0.456
-0.861
-1.36
-1.936
-2.567
-3.219
-3.83
-4.357
-4.781
-5.087
-5.273
-5.333
-5.241
-4.986
-4.576
-4.018
-3.326
-2.512
-1.568
-0.533
0.508
1.437
2.086
2.324
2.079
1.285
-0.112
-2.142
-4.845
-8.192
-12.059
-16.349
-20.987
-25.914
-31.129
-36.509
-41.795
-46.68
-50.771
-53.706
-55.238
-55.027
-52.679
-48.082
-41.34
-32.869
-23.51
-13.878
-4.292
4.759
12.912
20.31
27.48
35.623
46.354
60.593
78.648
100.812
126.835
155.318
183.609
207.764
223.632
227.942
218.141
191.788
146.959
83.752
4.868
-84.973
-180.503
-276.599
-368.319
-450.148
-516.002
-561.927
-586.945
-592.048
-579.313
-551.397
-511.186
-462.849
-412.082
-363.136
-318.25
-278.544
-244.081
-214.593
-189.9
-168.859
-149.224
-129.599
-109.529
-89.054
-68.917
-49.775
-31.958
-16.096
-3.039
6.804
13.347
16.789
17.72
16.662
14.041
10.373
6.112
1.643
-2.639
-6.447
-9.592
-11.906
-13.288
-13.686
-13.047
-11.375
-8.72
-5.167
-0.855
4.065
9.448
15.135
20.982
26.839
32.523
37.885
42.824
47.264
51.174
54.542
57.351
59.61
61.361
62.657
63.564
64.147
64.455
64.549
64.498
64.377
64.27
64.245
64.346
64.611
65.065
65.728
66.621
67.751
69.112
70.698
72.508
74.541
76.801
79.286
81.989
84.897
87.999
91.284
94.743
98.367
102.141
106.055
110.094
114.248
118.507
122.855
127.274
131.744
136.244
140.753
145.246
149.702
154.094
158.398
162.59
166.648
170.55
174.271
177.792
181.089
184.143
186.934
189.444
191.656
193.553
195.121
196.347
197.221
197.732
197.873
197.637
197.02
196.02
194.637
192.871
190.725
188.205
185.317
182.07
178.475
174.543
170.289
165.728
160.877
155.755
150.38
144.773
138.956
132.95
126.778
120.464
114.029
107.5
100.898
94.248
87.573
80.898
74.246
67.637
61.096
54.641
48.294
42.074
35.999
30.085
24.349
18.804
13.465
8.342
3.447
-1.213
-5.628
-9.795
-13.707
-17.363
-20.76
-23.899
-26.781
-29.407
-31.782
-33.911
-35.8
-37.454
-38.882
-40.093
-41.096
-41.899
-42.515
-42.953
-43.225
-43.342
-43.315
-43.156
-42.877
-42.488
-42.001
-41.427
-40.776
-40.059
-39.287
-38.468
-37.612
-36.727
-35.821
-34.902
-33.978
-33.053
-32.135
-31.228
-30.337
-29.466
-28.62
-27.8
-27.01
-26.252
-25.528
-24.838
-24.184
-23.567
-22.987
-22.444
-21.938
-21.468
-21.035
-20.636
-20.272
-19.942
-19.645
-19.378
-19.142
-18.936
-18.757
-18.605
-18.478
-18.376
-18.297
-18.241
-18.205
-18.189
-18.191
-18.211
-18.248
-18.301
-18.369
-18.451
-18.546
-18.654
-18.774
-18.905
-19.047
-19.199
-19.359
-19.528
-19.705
-19.889
-20.08
-20.277
-20.481
-20.69
-20.905
-21.125
-21.352
-21.584
-21.821
-22.065
-22.314
-22.569
-22.83
-23.098
-23.372
-23.655
-23.946
-24.245
-24.553
-24.869
-25.193
-25.526
-25.867
-26.215
-26.571
-26.933
-27.301
-27.676
-28.056
-28.441
-28.829
-29.219
-29.61
-29.999
-30.385
-30.764
-31.134
-31.491
-31.834
-32.158
-32.462
-32.741
-32.993
-33.214
-33.399
-33.546
-33.65
-33.707
-33.712
-33.662
-33.555
-33.388
-33.161
-32.872
-32.52
-32.105
-31.626
-31.084
-30.48
-29.813
-29.085
-28.296
-27.452
-26.555
-25.61
-24.623
-23.599
-22.546
-21.474
-20.39
-19.302
-18.217
-17.142
-16.085
-15.053
-14.053
-13.089
-12.169
-11.3
-10.491
-9.753
-9.093
-8.516
-8.028
-7.636
-7.341
-7.147
-7.053
-7.053
-7.146
-7.336
-7.627
-8.034
-8.558
-9.193
-9.937
-10.778
-11.698
-12.671
-13.652
-14.582
-15.428
-16.169
-16.787
-17.287
-17.656
-17.876
-17.95
-17.866
-17.615
-17.204
-16.62
-15.869
-15.005
-14.12
-13.349
-12.857
-12.755
-13.117
-14.017
-15.48
-17.532
-20.18
-23.331
-26.907
-30.856
-35.134
-39.747
-44.642
-49.631
-54.436
-58.705
-62.04
-64.138
-64.663
-63.21
-59.646
-54.037
-46.711
-38.407
-29.706
-20.934
-12.563
-4.926
2.158
9.225
17.397
28.187
42.434
60.464
82.635
108.704
137.36
166.078
191.02
208.225
214.583
207.542
184.624
143.89
85.21
11.004
-74.231
-165.628
-258.416
-347.871
-428.732
-495.085
-542.906
-571.059
-580.325
-572.41
-549.606
-514.489
-470.882
-424.217
-378.63
-336.347
-298.549
-265.404
-236.757
-212.518
-191.621
-171.898
-151.975
-131.353
-110.041
-88.771
-68.202
-48.706
-30.965
-15.875
-3.913
4.774
10.317
13.216
13.935
12.858
10.446
7.155
3.359
-0.596
-4.399
-7.809
-10.609
-12.628
-13.765
-13.958
-13.178
-11.435
-8.782
-5.317
-1.176
3.499
8.58
13.938
19.445
24.957
30.305
35.345
39.978
44.14
47.8
50.941
53.555
55.654
57.286
58.513
59.403
60.017
60.403
60.62
60.731
60.809
60.936
61.175
61.569
62.153
62.953
63.99
65.281
66.833
68.637
70.685
72.974
75.499
78.263
81.262
84.484
87.917
91.547
95.362
99.351
103.5
107.796
112.222
116.763
121.406
126.135
130.935
135.783
140.658
145.536
150.392
155.202
159.94
164.58
169.096
173.462
177.655
181.652
185.43
188.965
192.238
195.229
197.917
200.287
202.323
204.009
205.332
206.282
206.85
207.028
206.811
206.195
205.177
203.758
201.941
199.729
197.129
194.147
190.795
187.084
183.027
178.639
173.938
168.942
163.669
158.142
152.383
146.413
140.256
133.937
127.479
120.907
114.246
107.52
100.754
93.973
87.201
80.46
73.775
67.168
60.658
54.268
48.016
41.92
35.998
30.264
24.734
19.421
14.334
9.486
4.884
0.535
-3.556
-7.384
-10.948
-14.246
-17.279
-20.049
-22.559
-24.814
-26.819
-28.582
-30.109
-31.409
-32.492
-33.368
-34.047
-34.54
-34.859
-35.016
-35.023
-34.892
-34.635
-34.263
-33.79
-33.227
-32.585
-31.875
-31.108
-30.294
-29.443
-28.564
-27.666
-26.757
-25.844
-24.934
-24.033
-23.147
-22.279
-21.436
-20.619
-19.833
-19.078
-18.358
-17.674
-17.026
-16.414
-15.84
-15.301
-14.799
-14.331
-13.897
-13.494
-13.123
-12.78
-12.465
-12.176
-11.91
-11.666
-11.443
-11.239
-11.051
-10.88
-10.723
-10.579
-10.447
-10.326
-10.215
-10.114
-10.022
-9.938
-9.863
-9.796
-9.736
-9.685
-9.642
-9.607
-9.581
-9.563
-9.555
-9.556
-9.567
-9.588
-9.62
-9.662
-9.715
-9.779
-9.855
-9.941
-10.039
-10.147
-10.267
-10.396
-10.536
-10.686
-10.845
-11.012
-11.188
-11.37
-11.56
-11.755
-11.955
-12.16
-12.368
-12.579
-12.792
-13.005
-13.219
-13.432
-13.645
-13.855
-14.064
-14.27
-14.474
-14.676
-14.875
-15.073
-15.268
-15.462
-15.654
-15.846
-16.038
-16.23
-16.424
-16.62
-16.82
-17.024
-17.234
-17.45
-17.672
-17.901
-18.137
-18.381
-18.633
-18.893
-19.161
-19.437
-19.722
-20.015
-20.315
-20.621
-20.933
-21.248
-21.565
-21.881
-22.194
-22.5
-22.796
-23.08
-23.349
-23.599
-23.828
-24.03
-24.202
-24.341
-24.442
-24.5
-24.511
-24.471
-24.375
-24.223
-24.01
-23.735
-23.397
-22.992
-22.522
-21.985
-21.381
-20.71
-19.972
-19.166
-18.296
-17.365
-16.377
-15.336
-14.247
-13.118
-11.958
-10.775
-9.576
-8.368
-7.159
-5.955
-4.765
-3.595
-2.45
-1.335
-0.261
0.765
1.732
2.63
3.454
4.196
4.848
5.405
5.863
6.218
6.476
6.636
6.694
6.641
6.467
6.164
5.742
5.207
4.563
3.825
3.016
2.171
1.352
0.601
-0.061
-0.62
-1.073
-1.413
-1.613
-1.662
-1.564
-1.324
-0.957
-0.473
0.136
0.834
1.536
2.127
2.441
2.348
1.778
0.668
-1.036
-3.365
-6.358
-9.99
-14.138
-18.706
-23.616
-28.811
-34.288
-39.924
-45.456
-50.579
-54.901
-58.062
-59.819
-59.832
-57.706
-53.325
-46.788
-38.506
-29.318
-19.833
-10.368
-1.41
6.676
14.02
21.132
29.197
39.826
53.934
71.828
93.794
119.571
147.768
175.765
199.651
215.298
219.463
209.599
183.269
138.58
75.616
-2.961
-92.488
-187.808
-283.898
-375.872
-458.246
-524.952
-572.003
-598.38
-604.996
-593.766
-567.188
-528.024
-480.372
-429.956
-381.078
-336.029
-295.985
-261.066
-231.062
-205.873
-184.377
-164.271
-144.091
-123.299
-101.897
-80.679
-60.341
-41.246
-24.057
-9.648
1.544
9.389
14.041
16.065
15.976
14.209
11.269
7.577
3.476
-0.702
-4.657
-8.136
-10.92
-12.862
-13.892
-13.953
-13.028
-11.129
-8.313
-4.712
-0.484
4.211
9.229
14.458
19.785
25.065
30.136
34.853
39.116
42.873
46.105
48.793
50.926
52.519
53.619
54.299
54.636
54.693
54.521
54.175
53.717
53.222
52.768
52.417
52.211
52.182
52.355
52.751
53.391
54.279
55.409
56.772
58.364
60.183
62.232
64.506
66.995
69.687
72.57
75.633
78.868
82.263
85.805
89.481
93.277
97.18
101.181
105.262
109.405
113.59
117.795
122.0
126.182
130.317
134.382
138.354
142.209
145.927
149.486
152.866
156.046
159.008
161.732
164.202
166.402
168.317
169.933
171.239
172.224
172.881
173.201
173.179
172.812
172.096
171.032
169.621
167.866
165.771
163.344
160.591
157.524
154.154
150.493
146.557
142.361
137.922
133.258
128.389
123.334
118.113
112.748
107.258
101.668
95.997
90.267
84.502
78.721
72.946
67.199
61.499
55.867
50.321
44.879
39.559
34.376
29.346
24.482
19.799
15.306
11.014
6.931
3.067
-0.575
-3.99
-7.173
-10.124
-12.843
-15.329
-17.586
-19.617
-21.426
-23.019
-24.402
-25.584
-26.573
-27.377
-28.006
-28.472
-28.783
-28.952
-28.99
-28.908
-28.719
-28.432
-28.061
-27.616
-27.108
-26.548
-25.947
-25.314
-24.659
-23.99
-23.316
-22.645
-21.983
-21.336
-20.711
-20.112
-19.542
-19.007
-18.508
-18.048
-17.628
-17.249
-16.911
-16.614
-16.357
-16.139
-15.959
-15.814
-15.702
-15.621
-15.568
-15.539
-15.532
-15.544
-15.572
-15.612
-15.661
-15.716
-15.774
-15.833
-15.889
-15.941
-15.987
-16.023
-16.05
-16.065
-16.067
-16.055
-16.029
-15.988
-15.933
-15.863
-15.779
-15.682
-15.572
-15.451
-15.319
-15.179
-15.032
-14.878
-14.721
-14.561
-14.401
-14.241
-14.085
-13.933
-13.787
-13.649
-13.521
-13.403
-13.298
-13.207
-13.131
-13.07
-13.027
-13.0
-12.992
-13.003
-13.033
-13.082
-13.151
-13.239
-13.346
-13.473
-13.618
-13.781
-13.962
-14.159
-14.373
-14.601
-14.844
-15.1
-15.369
-15.65
-15.943
-16.246
-16.56
-16.884
-17.216
-17.557
-17.905
-18.26
-18.622
-18.99
-19.365
-19.745
-20.13
-20.522
-20.919
-21.32
-21.726
-22.135
-22.546
-22.96
-23.376
-23.792
-24.207
-24.622
-25.036
-25.448
-25.857
-26.261
-26.659
-27.05
-27.43
-27.799
-28.152
-28.487
-28.802
-29.094
-29.36
-29.599
-29.807
-29.981
-30.119
-30.216
-30.271
-30.278
-30.235
-30.137
-29.982
-29.768
-29.494
-29.16
-28.763
-28.304
-27.783
-27.199
-26.554
-25.848
-25.081
-24.253
-23.369
-22.43
-21.442
-20.41
-19.339
-18.236
-17.109
-15.967
-14.818
-13.667
-12.522
-11.389
-10.275
-9.185
-8.125
-7.099
-6.114
-5.181
-4.308
-3.504
-2.776
-2.13
-1.572
-1.107
-0.74
-0.469
-0.289
-0.199
-0.201
-0.302
-0.515
-0.845
-1.285
-1.829
-2.472
-3.2
-3.992
-4.813
-5.601
-6.308
-6.909
-7.39
-7.751
-7.987
-8.079
-8.007
-7.77
-7.372
-6.826
-6.138
-5.295
-4.319
-3.276
-2.287
-1.528
-1.142
-1.221
-1.827
-3.015
-4.821
-7.286
-10.412
-14.095
-18.239
-22.763
-27.627
-32.842
-38.326
-43.865
-49.137
-53.728
-57.26
-59.448
-59.945
-58.344
-54.486
-48.42
-40.498
-31.504
-22.044
-12.479
-3.311
5.115
12.951
20.732
29.621
41.17
56.275
75.324
98.728
126.254
156.563
187.014
213.564
232.086
239.325
232.563
209.129
166.884
105.56
27.596
-62.331
-159.197
-258.078
-354.016
-441.403
-513.835
-566.826
-598.961
-610.886
-604.198
-581.158
-544.402
-497.985
-447.809
-398.457
-352.462
-311.241
-275.132
-244.08
-218.07
-195.968
-175.366
-154.696
-133.353
-111.275
-89.194
-67.783
-47.409
-28.811
-13.002
-0.531
8.419
13.978
16.685
17.041
15.454
12.429
8.469
3.99
-0.633
-5.067
-9.06
-12.384
-14.854
-16.365
-16.847
-16.27
-14.646
-12.034
-8.54
-4.311
0.498
5.746
11.289
16.989
22.692
28.219
33.416
38.179
42.438
46.161
49.329
51.932
53.984
55.532
56.643
57.386
57.828
58.02
58.022
57.903
57.739
57.615
57.595
57.724
58.038
58.563
59.319
60.324
61.583
63.088
64.831
66.806
69.011
71.448
74.112
76.993
80.077
83.352
86.805
90.426
94.204
98.124
102.173
106.336
110.601
114.957
119.386
123.87
128.389
132.92
137.44
141.927
146.358
150.707
154.95
159.065
163.029
166.82
170.419
173.804
176.955
179.853
182.483
184.827
186.87
188.599
190.001
191.066
191.786
192.154
192.163
191.81
191.092
190.01
188.564
186.759
184.599
182.09
179.241
176.062
172.565
168.764
164.672
160.306
155.684
150.824
145.746
140.469
135.014
129.403
123.656
117.797
111.846
105.827
99.761
93.67
87.575
81.499
75.461
69.482
63.581
57.777
52.087
46.527
41.115
35.862
30.784
25.892
21.197
16.709
12.435
8.382
4.555
0.959
-2.404
-5.533
-8.428
-11.089
-13.521
-15.724
-17.706
-19.47
-21.024
-22.373
-23.528
-24.495
-25.284
-25.904
-26.366
-26.679
-26.855
-26.903
-26.834
-26.658
-26.387
-26.03
-25.598
-25.099
-24.545
-23.943
-23.302
-22.631
-21.938
-21.229
-20.511
-19.791
-19.073
-18.363
-17.665
-16.983
-16.321
-15.681
-15.067
-14.479
-13.919
-13.389
-12.888
-12.419
-11.98
-11.572
-11.194
-10.846
-10.526
-10.235
-9.97
-9.731
-9.518
-9.327
-9.159
-9.012
-8.884
-8.775
-8.684
-8.609
-8.549
-8.504
-8.472
-8.453
-8.445
-8.449
-8.462
-8.486
-8.519
-8.561
-8.612
-8.67
-8.736
-8.809
-8.889
-8.976
-9.068
-9.167
-9.271
-9.38
-9.493
-9.611
-9.733
-9.858
-9.986
-10.116
-10.247
-10.38
-10.514
-10.647
-10.78
-10.912
-11.042
-11.17
-11.295
-11.417
-11.536
-11.65
-11.76
-11.865
-11.965
-12.06
-12.15
-12.235
-12.315
-12.391
-12.462
-12.529
-12.592
-12.652
-12.709
-12.764
-12.817
-12.87
-12.923
-12.977
-13.033
-13.092
-13.156
-13.225
-13.302
-13.388
-13.483
-13.588
-13.706
-13.837
-13.982
-14.143
-14.32
-14.515
-14.728
-14.961
-15.214
-15.487
-15.779
-16.092
-16.423
-16.774
-17.142
-17.527
-17.928
-18.344
-18.773
-19.215
-19.667
-20.126
-20.591
-21.058
-21.525
-21.987
-22.442
-22.883
-23.309
-23.714
-24.096
-24.45
-24.773
-25.059
-25.304
-25.505
-25.657
-25.756
-25.796
-25.774
-25.687
-25.532
-25.308
-25.013
-24.646
-24.206
-23.693
-23.108
-22.451
-21.723
-20.925
-20.057
-19.125
-18.131
-17.081
-15.98
-14.835
-13.653
-12.444
-11.217
-9.981
-8.742
-7.51
-6.29
-5.092
-3.923
-2.786
-1.689
-0.64
0.352
1.278
2.127
2.896
3.577
4.164
4.652
5.036
5.315
5.495
5.577
5.557
5.428
5.178
4.805
4.317
3.722
3.023
2.238
1.389
0.513
-0.33
-1.093
-1.758
-2.307
-2.738
-3.04
-3.186
-3.161
-2.971
-2.622
-2.126
-1.494
-0.715
0.173
1.086
1.907
2.468
2.638
2.348
1.529
0.126
-1.901
-4.599
-7.949
-11.83
-16.148
-20.832
-25.826
-31.134
-36.634
-42.06
-47.103
-51.364
-54.48
-56.205
-56.193
-54.036
-49.599
-42.957
-34.507
-25.083
-15.295
-5.47
3.883
12.395
20.184
27.753
36.303
47.442
62.087
80.603
103.36
130.131
159.527
188.819
213.903
230.569
235.534
226.179
199.946
154.738
90.411
9.621
-82.74
-181.424
-281.488
-378.321
-466.685
-540.256
-594.301
-627.069
-639.182
-632.276
-608.305
-568.982
-517.211
-458.5
-398.218
-340.286
-286.97
-239.178
-197.626
-163.701
-138.189
-119.617
-105.645
-93.829
-82.702
-72.135
-62.093
-51.913
-40.706
-28.469
-16.1
-5.124
3.411
9.45
13.254
15.032
14.694
12.216
8.073
3.212
-1.467
-5.46
-8.553
-10.734
-11.934
-11.997
-10.89
-8.721
-5.671
-1.93
2.359
7.12
12.278
17.718
23.305
28.858
34.181
39.14
43.65
47.663
51.165
54.133
56.553
58.446
59.869
60.888
61.573
61.973
62.127
62.087
61.924
61.719
61.561
61.514
61.616
61.898
62.385
63.096
64.05
65.25
66.683
68.341
70.221
72.322
74.648
77.195
79.951
82.902
86.037
89.342
92.808
96.423
100.172
104.042
108.019
112.091
116.247
120.469
124.74
129.04
133.345
137.636
141.888
146.079
150.184
154.179
158.043
161.753
165.289
168.629
171.754
174.644
177.281
179.649
181.732
183.515
184.984
186.129
186.94
187.408
187.526
187.29
186.696
185.741
184.428
182.756
180.73
178.355
175.638
172.587
169.213
165.528
161.546
157.281
152.75
147.971
142.962
137.744
132.336
126.76
121.036
115.188
109.236
103.204
97.113
90.986
84.845
78.711
72.607
66.552
60.567
54.672
48.884
43.222
37.701
32.338
27.147
22.141
17.332
12.731
8.346
4.186
0.258
-3.435
-6.888
-10.099
-13.068
-15.795
-18.282
-20.532
-22.549
-24.34
-25.91
-27.267
-28.419
-29.374
-30.144
-30.737
-31.165
-31.438
-31.568
-31.567
-31.446
-31.217
-30.891
-30.481
-29.998
-29.452
-28.854
-28.215
-27.546
-26.854
-26.15
-25.441
-24.736
-24.041
-23.364
-22.709
-22.083
-21.488
-20.93
-20.411
-19.934
-19.5
-19.111
-18.767
-18.469
-18.216
-18.007
-17.842
-17.719
-17.635
-17.589
-17.579
-17.602
-17.655
-17.735
-17.841
-17.968
-18.114
-18.277
-18.452
-18.639
-18.833
-19.033
-19.237
-19.441
-19.644
-19.844
-20.04
-20.229
-20.412
-20.586
-20.751
-20.907
-21.052
-21.187
-21.312
-21.427
-21.531
-21.625
-21.71
-21.786
-21.854
-21.914
-21.968
-22.016
-22.058
-22.096
-22.13
-22.161
-22.19
-22.218
-22.245
-22.271
-22.298
-22.325
-22.354
-22.385
-22.418
-22.453
-22.49
-22.53
-22.572
-22.616
-22.662
-22.71
-22.76
-22.81
-22.862
-22.914
-22.966
-23.018
-23.07
-23.12
-23.169
-23.216
-23.26
-23.302
-23.342
-23.379
-23.413
-23.444
-23.473
-23.5
-23.525
-23.547
-23.569
-23.589
-23.608
-23.628
-23.648
-23.67
-23.694
-23.721
-23.753
-23.792
-23.837
-23.891
-23.954
-24.028
-24.113
-24.212
-24.325
-24.453
-24.598
-24.76
-24.941
-25.143
-25.365
-25.608
-25.872
-26.156
-26.461
-26.787
-27.131
-27.494
-27.874
-28.271
-28.683
-29.109
-29.547
-29.994
-30.447
-30.905
-31.363
-31.818
-32.265
-32.7
-33.12
-33.52
-33.896
-34.244
-34.561
-34.841
-35.079
-35.272
-35.415
-35.502
-35.529
-35.49
-35.383
-35.203
-34.948
-34.618
-34.209
-33.721
-33.153
-32.505
-31.776
-30.968
-30.08
-29.114
-28.072
-26.959
-25.779
-24.538
-23.242
-21.898
-20.516
-19.106
-17.676
-16.232
-14.784
-13.339
-11.905
-10.489
-9.096
-7.733
-6.409
-5.134
-3.919
-2.775
-1.709
-0.73
0.154
0.938
1.616
2.186
2.651
3.014
3.27
3.411
3.426
3.309
3.063
2.695
2.211
1.623
0.953
0.237
-0.47
-1.124
-1.698
-2.178
-2.565
-2.855
-3.034
-3.086
-3.004
-2.792
-2.458
-2.005
-1.425
-0.736
0.002
0.676
1.129
1.228
0.884
0.035
-1.362
-3.339
-5.924
-9.111
-12.821
-16.969
-21.484
-26.329
-31.508
-36.953
-42.471
-47.763
-52.457
-56.192
-58.706
-59.673
-58.675
-55.536
-50.287
-43.244
-35.135
-26.551
-17.74
-9.125
-1.235
5.941
12.726
20.144
30.044
43.454
60.585
81.751
107.081
135.87
166.499
195.431
217.699
229.842
229.4
214.004
181.654
130.685
61.215
-23.133
-116.515
-214.148
-311.574
-404.228
-487.291
-554.517
-601.197
-626.539
-632.13
-619.578
-590.871
-548.186
-494.492
-435.786
-377.957
-323.989
-275.194
-232.336
-195.799
-166.373
-144.634
-128.305
-114.194
-100.794
-87.516
-74.413
-61.896
-49.546
-36.463
-23.327
-11.724
-2.488
3.963
7.823
9.791
10.046
8.355
5.057
0.961
-3.232
-6.874
-9.649
-11.614
-12.707
-12.75
-11.685
-9.549
-6.451
-2.583
1.891
6.89
12.314
18.04
23.937
29.833
35.535
40.899
45.826
50.251
54.144
57.492
60.276
62.505
64.222
65.487
66.365
66.916
67.185
67.223
67.097
66.89
66.691
66.57
66.572
66.734
67.08
67.634
68.416
69.434
70.68
72.148
73.837
75.746
77.88
80.239
82.814
85.593
88.565
91.718
95.044
98.533
102.172
105.947
109.848
113.862
117.979
122.184
126.459
130.785
135.139
139.501
143.848
148.156
152.401
156.558
160.605
164.519
168.278
171.861
175.246
178.413
181.344
184.019
186.422
188.537
190.348
191.843
193.011
193.84
194.324
194.456
194.229
193.642
192.692
191.381
189.709
187.682
185.304
182.583
179.528
176.15
172.462
168.477
164.211
159.68
154.903
149.899
144.687
139.287
133.721
128.01
122.175
116.239
110.224
104.152
98.044
91.923
85.81
79.726
73.692
67.727
61.85
56.08
50.432
44.924
39.571
34.385
29.381
24.568
19.958
15.559
11.379
7.422
3.694
0.199
-3.063
-6.091
-8.885
-11.448
-13.782
-15.891
-17.782
-19.458
-20.929
-22.2
-23.281
-24.18
-24.906
-25.47
-25.882
-26.151
-26.289
-26.306
-26.213
-26.019
-25.737
-25.375
-24.943
-24.452
-23.911
-23.328
-22.712
-22.07
-21.41
-20.74
-20.065
-19.39
-18.721
-18.063
-17.42
-16.795
-16.19
-15.609
-15.053
-14.525
-14.024
-13.552
-13.109
-12.696
-12.311
-11.954
-11.625
-11.323
-11.046
-10.794
-10.566
-10.359
-10.172
-10.005
-9.856
-9.723
-9.605
-9.501
-9.41
-9.33
-9.262
-9.202
-9.152
-9.111
-9.077
-9.05
-9.031
-9.018
-9.013
-9.013
-9.021
-9.035
-9.055
-9.083
-9.117
-9.158
-9.207
-9.263
-9.327
-9.399
-9.478
-9.566
-9.662
-9.765
-9.877
-9.997
-10.125
-10.26
-10.404
-10.554
-10.713
-10.878
-11.05
-11.228
-11.412
-11.601
-11.795
-11.994
-12.196
-12.401
-12.609
-12.818
-13.029
-13.24
-13.452
-13.662
-13.872
-14.08
-14.285
-14.488
-14.688
-14.884
-15.076
-15.264
-15.448
-15.627
-15.802
-15.972
-16.138
-16.299
-16.456
-16.609
-16.759
-16.904
-17.046
-17.186
-17.323
-17.458
-17.592
-17.726
-17.861
-17.998
-18.137
-18.281
-18.43
-18.585
-18.748
-18.919
-19.1
-19.292
-19.496
-19.714
-19.947
-20.195
-20.461
-20.745
-21.047
-21.369
-21.709
-22.067
-22.445
-22.842
-23.256
-23.687
-24.135
-24.6
-25.079
-25.571
-26.075
-26.589
-27.108
-27.631
-28.154
-28.673
-29.184
-29.683
-30.166
-30.629
-31.068
-31.479
-31.857
-32.196
-32.493
-32.742
-32.937
-33.074
-33.146
-33.151
-33.083
-32.942
-32.725
-32.429
-32.053
-31.596
-31.057
-30.437
-29.734
-28.95
-28.085
-27.142
-26.124
-25.036
-23.884
-22.673
-21.412
-20.11
-18.777
-17.421
-16.051
-14.674
-13.299
-11.934
-10.588
-9.266
-7.976
-6.729
-5.534
-4.404
-3.349
-2.38
-1.502
-0.725
-0.055
0.502
0.943
1.274
1.494
1.599
1.582
1.428
1.131
0.698
0.135
-0.554
-1.353
-2.243
-3.187
-4.125
-5.01
-5.816
-6.529
-7.147
-7.666
-8.064
-8.32
-8.429
-8.394
-8.224
-7.923
-7.478
-6.907
-6.274
-5.695
-5.34
-5.347
-5.801
-6.758
-8.266
-10.357
-13.068
-16.396
-20.242
-24.508
-29.115
-34.022
-39.241
-44.687
-50.151
-55.317
-59.778
-63.167
-65.207
-65.566
-63.853
-59.924
-53.83
-45.923
-36.971
-27.571
-18.08
-8.99
-0.641
7.118
14.823
23.612
35.009
49.908
68.701
91.808
119.03
149.046
179.253
205.684
224.262
231.759
225.487
202.805
161.602
101.657
25.422
-62.461
-156.969
-253.181
-346.187
-430.468
-499.784
-549.842
-579.374
-589.149
-580.904
-557.01
-520.157
-474.371
-425.387
-377.608
-333.424
-294.113
-259.877
-230.549
-206.02
-185.143
-165.596
-145.89
-125.459
-104.273
-83.071
-62.53
-43.024
-25.267
-10.201
1.674
10.203
15.524
18.16
18.596
17.231
14.546
11.013
7.019
2.916
-0.985
-4.442
-7.238
-9.203
-10.24
-10.291
-9.333
-7.383
-4.498
-0.787
3.609
8.538
13.865
19.455
25.176
30.881
36.401
41.588
46.343
50.599
54.327
57.509
60.137
62.224
63.818
64.982
65.785
66.289
66.545
66.611
66.551
66.439
66.355
66.362
66.502
66.811
67.314
68.032
68.984
70.175
71.599
73.249
75.123
77.218
79.538
82.079
84.833
87.789
90.935
94.261
97.759
101.418
105.226
109.169
113.234
117.411
121.687
126.047
130.472
134.941
139.434
143.928
148.4
152.826
157.182
161.443
165.585
169.586
173.424
177.075
180.519
183.735
186.702
189.403
191.819
193.934
195.732
197.201
198.328
199.103
199.518
199.564
199.237
198.533
197.45
195.988
194.151
191.94
189.362
186.424
183.136
179.51
175.557
171.293
166.732
161.893
156.794
151.456
145.897
140.141
134.208
128.121
121.903
115.578
109.169
102.699
96.192
89.671
83.158
76.677
70.249
63.895
57.635
51.489
45.475
39.611
33.913
28.395
23.071
17.954
13.055
8.383
3.945
-0.251
-4.201
-7.901
-11.35
-14.545
-17.49
-20.184
-22.633
-24.839
-26.81
-28.551
-30.07
-31.376
-32.478
-33.385
-34.109
-34.66
-35.049
-35.287
-35.388
-35.361
-35.22
-34.977
-34.641
-34.226
-33.743
-33.201
-32.613
-31.986
-31.332
-30.658
-29.973
-29.285
-28.601
-27.927
-27.269
-26.631
-26.019
-25.436
-24.885
-24.369
-23.889
-23.448
-23.046
-22.683
-22.359
-22.075
-21.829
-21.621
-21.449
-21.311
-21.206
-21.133
-21.088
-21.071
-21.078
-21.108
-21.159
-21.228
-21.313
-21.412
-21.524
-21.647
-21.778
-21.917
-22.061
-22.211
-22.364
-22.519
-22.676
-22.835
-22.994
-23.153
-23.311
-23.469
-23.626
-23.783
-23.938
-24.093
-24.246
-24.399
-24.55
-24.701
-24.852
-25.001
-25.149
-25.297
-25.444
-25.59
-25.735
-25.879
-26.023
-26.165
-26.306
-26.445
-26.583
-26.72
-26.854
-26.986
-27.115
-27.242
-27.366
-27.487
-27.606
-27.722
-27.834
-27.944
-28.051
-28.156
-28.258
-28.357
-28.455
-28.552
-28.648
-28.744
-28.841
-28.941
-29.043
-29.15
-29.262
-29.38
-29.505
-29.638
-29.78
-29.932
-30.096
-30.271
-30.461
-30.664
-30.883
-31.118
-31.369
-31.636
-31.918
-32.216
-32.529
-32.856
-33.197
-33.55
-33.914
-34.289
-34.673
-35.064
-35.458
-35.854
-36.249
-36.638
-37.019
-37.386
-37.736
-38.065
-38.369
-38.644
-38.885
-39.09
-39.252
-39.369
-39.435
-39.446
-39.397
-39.284
-39.102
-38.849
-38.522
-38.12
-37.641
-37.085
-36.451
-35.74
-34.952
-34.088
-33.149
-32.136
-31.052
-29.902
-28.689
-27.42
-26.102
-24.741
-23.348
-21.931
-20.502
-19.069
-17.64
-16.223
-14.827
-13.461
-12.131
-10.843
-9.605
-8.427
-7.319
-6.293
-5.356
-4.518
-3.786
-3.166
-2.663
-2.279
-2.015
-1.865
-1.831
-1.915
-2.123
-2.467
-2.95
-3.566
-4.309
-5.169
-6.124
-7.148
-8.193
-9.205
-10.148
-11.0
-11.749
-12.394
-12.928
-13.334
-13.609
-13.748
-13.744
-13.6
-13.309
-12.874
-12.343
-11.802
-11.379
-11.223
-11.445
-12.115
-13.294
-15.009
-17.282
-20.117
-23.45
-27.186
-31.256
-35.602
-40.196
-45.021
-49.933
-54.674
-58.933
-62.33
-64.535
-65.304
-64.308
-61.207
-55.923
-48.615
-39.761
-30.155
-20.37
-10.675
-1.476
6.847
14.408
21.699
29.834
40.406
54.341
71.856
93.154
117.961
144.832
171.322
193.814
208.096
210.885
199.664
171.964
126.321
63.339
-14.403
-102.402
-195.146
-287.504
-374.298
-449.708
-508.688
-548.353
-567.947
-568.741
-553.237
-524.162
-485.012
-440.569
-395.39
-352.606
-314.073
-280.338
-251.132
-226.14
-204.497
-184.43
-164.42
-143.722
-122.124
-100.081
-78.366
-57.537
-38.294
-21.585
-7.963
2.38
9.464
13.678
15.484
15.255
13.485
10.713
7.313
3.635
-0.005
-3.407
-6.323
-8.522
-9.894
-10.347
-9.834
-8.368
-5.971
-2.7
1.315
5.935
11.023
16.414
21.985
27.598
33.081
38.304
43.153
47.538
51.426
54.795
57.628
59.938
61.758
63.13
64.122
64.8
65.214
65.429
65.51
65.529
65.57
65.701
65.97
66.417
67.071
67.951
69.081
70.469
72.11
74.002
76.144
78.532
81.171
84.057
87.183
90.537
94.105
97.876
101.838
105.982
110.292
114.756
119.359
124.086
128.927
133.865
138.878
143.945
149.042
154.144
159.227
164.264
169.229
174.092
178.83
183.416
187.826
192.036
196.021
199.758
203.225
206.401
209.267
211.803
213.993
215.822
217.275
218.341
219.011
219.276
219.13
218.568
217.589
216.192
214.379
212.155
209.525
206.496
203.08
199.288
195.134
190.635
185.808
180.671
175.246
169.554
163.618
157.462
151.108
144.584
137.912
131.121
124.234
117.279
110.281
103.265
96.258
89.283
82.365
75.526
68.791
62.179
55.71
49.406
43.282
37.355
31.641
26.153
20.902
15.901
11.156
6.675
2.464
-1.474
-5.137
-8.523
-11.635
-14.474
-17.043
-19.349
-21.397
-23.194
-24.749
-26.071
-27.171
-28.058
-28.744
-29.242
-29.563
-29.721
-29.728
-29.596
-29.34
-28.971
-28.502
-27.946
-27.315
-26.621
-25.875
-25.088
-24.27
-23.43
-22.578
-21.721
-20.868
-20.025
-19.199
-18.393
-17.615
-16.866
-16.151
-15.472
-14.832
-14.231
-13.671
-13.152
-12.674
-12.236
-11.838
-11.478
-11.155
-10.867
-10.612
-10.388
-10.194
-10.025
-9.881
-9.759
-9.657
-9.571
-9.501
-9.444
-9.398
-9.361
-9.332
-9.31
-9.292
-9.279
-9.269
-9.262
-9.256
-9.253
-9.252
-9.253
-9.256
-9.262
-9.272
-9.285
-9.303
-9.326
-9.356
-9.394
-9.439
-9.494
-9.56
-9.637
-9.726
-9.828
-9.945
-10.076
-10.223
-10.385
-10.565
-10.761
-10.975
-11.206
-11.455
-11.721
-12.003
-12.302
-12.617
-12.947
-13.291
-13.649
-14.019
-14.401
-14.792
-15.192
-15.599
-16.013
-16.43
-16.851
-17.272
-17.694
-18.114
-18.531
-18.943
-19.35
-19.749
-20.14
-20.522
-20.893
-21.253
-21.599
-21.933
-22.253
-22.558
-22.849
-23.125
-23.386
-23.633
-23.867
-24.087
-24.294
-24.49
-24.674
-24.849
-25.015
-25.172
-25.324
-25.47
-25.613
-25.754
-25.895
-26.037
-26.181
-26.327
-26.478
-26.632
-26.793
-26.958
-27.13
-27.307
-27.491
-27.68
-27.877
-28.078
-28.283
-28.491
-28.7
-28.908
-29.112
-29.309
-29.496
-29.67
-29.827
-29.966
-30.081
-30.17
-30.228
-30.252
-30.237
-30.18
-30.075
-29.919
-29.707
-29.435
-29.101
-28.703
-28.238
-27.706
-27.104
-26.433
-25.692
-24.882
-24.003
-23.054
-22.038
-20.957
-19.816
-18.618
-17.37
-16.077
-14.746
-13.388
-12.012
-10.626
-9.237
-7.855
-6.485
-5.138
-3.819
-2.535
-1.29
-0.096
1.04
2.107
3.094
3.996
4.806
5.514
6.117
6.607
6.984
7.253
7.413
7.46
7.388
7.185
6.846
6.38
5.792
5.088
4.284
3.402
2.478
1.574
0.733
-0.021
-0.673
-1.218
-1.648
-1.938
-2.072
-2.057
-1.897
-1.606
-1.192
-0.646
-0.003
0.659
1.226
1.536
1.459
0.926
-0.131
-1.763
-4.005
-6.897
-10.418
-14.446
-18.886
-23.662
-28.715
-34.046
-39.536
-44.932
-49.936
-54.161
-57.255
-58.972
-58.975
-56.868
-52.527
-46.038
-37.793
-28.609
-19.084
-9.541
-0.47
7.766
15.288
22.591
30.842
41.616
55.81
73.749
95.746
121.551
149.811
177.95
202.088
218.17
223.006
214.045
188.835
145.457
83.911
6.759
-81.42
-175.615
-270.932
-362.561
-445.083
-512.443
-560.589
-588.411
-596.72
-587.276
-562.437
-524.849
-478.515
-429.123
-381.0
-336.477
-296.791
-262.148
-232.413
-207.539
-186.445
-166.814
-147.155
-126.902
-106.02
-85.266
-65.315
-46.509
-29.514
-15.232
-4.128
3.651
8.245
10.21
10.055
8.21
5.177
1.39
-2.806
-7.073
-11.114
-14.682
-17.558
-19.594
-20.714
-20.859
-20.004
-18.162
-15.383
-11.797
-7.559
-2.828
2.251
7.563
12.993
18.398
23.614
28.497
32.949
36.915
40.375
43.309
45.701
47.566
48.947
49.913
50.539
50.886
51.004
50.947
50.775
50.561
50.384
50.304
50.361
50.587
51.003
51.631
52.49
53.584
54.906
56.446
58.2
60.165
62.344
64.731
67.317
70.089
73.034
76.141
79.403
82.807
86.34
89.991
93.746
97.594
101.524
105.522
109.569
113.648
117.739
121.82
125.871
129.871
133.796
137.626
141.339
144.916
148.336
151.581
154.632
157.471
160.082
162.448
164.555
166.39
167.939
169.192
170.139
170.774
171.09
171.08
170.743
170.075
169.077
167.749
166.095
164.119
161.826
159.224
156.323
153.133
149.665
145.934
141.953
137.739
133.307
128.677
123.865
118.891
113.773
108.532
103.188
97.76
92.269
86.735
81.178
75.618
70.075
64.568
59.115
53.734
48.442
43.256
38.191
33.261
28.481
23.862
19.416
15.153
11.083
7.212
3.546
0.092
-3.147
-6.169
-8.972
-11.557
-13.924
-16.077
-18.017
-19.75
-21.282
-22.617
-23.764
-24.73
-25.524
-26.154
-26.63
-26.961
-27.159
-27.233
-27.194
-27.052
-26.818
-26.502
-26.116
-25.667
-25.168
-24.626
-24.052
-23.453
-22.838
-22.214
-21.589
-20.968
-20.359
-19.765
-19.191
-18.642
-18.12
-17.63
-17.171
-16.747
-16.358
-16.005
-15.687
-15.404
-15.156
-14.941
-14.757
-14.604
-14.477
-14.377
-14.299
-14.241
-14.202
-14.177
-14.165
-14.163
-14.167
-14.176
-14.188
-14.199
-14.208
-14.213
-14.212
-14.203
-14.186
-14.159
-14.121
-14.072
-14.011
-13.938
-13.853
-13.757
-13.649
-13.532
-13.405
-13.269
-13.126
-12.976
-12.822
-12.665
-12.506
-12.346
-12.187
-12.032
-11.88
-11.735
-11.596
-11.467
-11.347
-11.239
-11.143
-11.062
-10.994
-10.942
-10.906
-10.887
-10.885
-10.9
-10.932
-10.982
-11.049
-11.132
-11.232
-11.348
-11.478
-11.623
-11.78
-11.95
-12.131
-12.322
-12.521
-12.728
-12.942
-13.16
-13.382
-13.607
-13.834
-14.062
-14.289
-14.515
-14.74
-14.961
-15.179
-15.393
-15.603
-15.807
-16.007
-16.202
-16.391
-16.577
-16.758
-16.936
-17.112
-17.287
-17.46
-17.634
-17.809
-17.987
-18.168
-18.355
-18.548
-18.749
-18.96
-19.182
-19.415
-19.661
-19.921
-20.194
-20.481
-20.782
-21.098
-21.427
-21.77
-22.126
-22.494
-22.874
-23.264
-23.662
-24.066
-24.474
-24.883
-25.289
-25.688
-26.077
-26.451
-26.807
-27.141
-27.449
-27.726
-27.967
-28.169
-28.326
-28.433
-28.486
-28.48
-28.409
-28.271
-28.062
-27.78
-27.424
-26.992
-26.481
-25.893
-25.227
-24.484
-23.665
-22.769
-21.798
-20.756
-19.648
-18.479
-17.255
-15.982
-14.668
-13.325
-11.962
-10.588
-9.21
-7.838
-6.48
-5.145
-3.841
-2.573
-1.349
-0.178
0.931
1.965
2.916
3.778
4.544
5.205
5.756
6.193
6.513
6.722
6.821
6.804
6.664
6.389
5.977
5.435
4.772
3.993
3.115
2.161
1.17
0.204
-0.692
-1.498
-2.196
-2.783
-3.25
-3.567
-3.721
-3.717
-3.56
-3.263
-2.836
-2.269
-1.603
-0.923
-0.347
-0.043
-0.142
-0.713
-1.823
-3.526
-5.853
-8.844
-12.47
-16.604
-21.15
-26.031
-31.189
-36.621
-42.201
-47.66
-52.69
-56.892
-59.901
-61.47
-61.254
-58.854
-54.16
-47.284
-38.657
-29.145
-19.377
-9.675
-0.533
7.677
15.095
22.257
30.382
41.118
55.396
73.51
95.73
121.787
150.252
178.435
202.35
217.798
221.479
210.832
183.417
137.305
72.608
-7.931
-99.551
-196.942
-294.919
-388.474
-471.994
-539.26
-586.218
-611.843
-617.079
-603.978
-575.198
-533.662
-483.648
-431.033
-380.205
-333.495
-292.102
-256.148
-225.413
-199.751
-177.987
-157.785
-137.687
-117.207
-96.368
-75.915
-56.495
-38.419
-22.325
-9.089
0.863
7.443
10.857
11.716
10.558
7.82
4.028
-0.353
-4.925
-9.287
-13.14
-16.297
-18.59
-19.922
-20.245
-19.509
-17.721
-14.936
-11.245
-6.792
-1.736
3.777
9.585
15.542
21.495
27.257
32.679
37.655
42.11
46.017
49.363
52.132
54.334
56.015
57.23
58.049
58.537
58.747
58.74
58.587
58.362
58.153
58.029
58.033
58.202
58.564
59.137
59.943
60.989
62.266
63.771
65.5
67.452
69.631
72.036
74.656
77.481
80.498
83.697
87.07
90.605
94.29
98.112
102.059
106.121
110.285
114.538
118.862
123.237
127.641
132.055
136.454
140.818
145.12
149.338
153.449
157.43
161.26
164.919
168.384
171.636
174.656
177.425
179.927
182.145
184.065
185.673
186.958
187.909
188.519
188.78
188.687
188.235
187.425
186.254
184.726
182.843
180.611
178.036
175.128
171.896
168.352
164.51
160.385
155.992
151.35
146.476
141.391
136.112
130.662
125.06
119.329
113.49
107.564
101.574
95.541
89.487
83.433
77.401
71.41
65.48
59.631
53.88
48.245
42.742
37.387
32.193
27.173
22.34
17.703
13.272
9.054
5.056
1.283
-2.262
-5.577
-8.66
-11.511
-14.132
-16.526
-18.697
-20.648
-22.387
-23.918
-25.25
-26.39
-27.348
-28.132
-28.751
-29.216
-29.538
-29.725
-29.79
-29.743
-29.593
-29.352
-29.029
-28.635
-28.18
-27.672
-27.121
-26.535
-25.922
-25.29
-24.645
-23.994
-23.343
-22.697
-22.061
-21.439
-20.834
-20.249
-19.688
-19.151
-18.641
-18.159
-17.704
-17.278
-16.881
-16.511
-16.169
-15.853
-15.563
-15.296
-15.052
-14.829
-14.625
-14.439
-14.269
-14.113
-13.97
-13.838
-13.715
-13.6
-13.492
-13.39
-13.291
-13.196
-13.103
-13.012
-12.921
-12.831
-12.74
-12.649
-12.558
-12.465
-12.372
-12.279
-12.185
-12.091
-11.996
-11.903
-11.81
-11.718
-11.629
-11.541
-11.457
-11.376
-11.3
-11.228
-11.161
-11.099
-11.044
-10.995
-10.954
-10.919
-10.892
-10.873
-10.861
-10.858
-10.863
-10.877
-10.899
-10.93
-10.969
-11.016
-11.072
-11.135
-11.206
-11.284
-11.369
-11.462
-11.561
-11.666
-11.778
-11.894
-12.016
-12.142
-12.272
-12.405
-12.541
-12.679
-12.819
-12.961
-13.103
-13.246
-13.389
-13.532
-13.674
-13.816
-13.956
-14.095
-14.232
-14.368
-14.503
-14.636
-14.768
-14.9
-15.032
-15.165
-15.298
-15.433
-15.57
-15.71
-15.853
-16.001
-16.153
-16.312
-16.478
-16.653
-16.837
-17.031
-17.237
-17.454
-17.683
-17.924
-18.178
-18.444
-18.723
-19.014
-19.317
-19.633
-19.959
-20.296
-20.642
-20.995
-21.352
-21.713
-22.074
-22.431
-22.781
-23.12
-23.446
-23.755
-24.043
-24.306
-24.54
-24.741
-24.904
-25.026
-25.1
-25.123
-25.088
-24.992
-24.832
-24.604
-24.308
-23.94
-23.497
-22.98
-22.388
-21.72
-20.976
-20.155
-19.258
-18.288
-17.248
-16.142
-14.975
-13.753
-12.483
-11.175
-9.838
-8.48
-7.11
-5.734
-4.36
-2.999
-1.655
-0.336
0.953
2.201
3.399
4.535
5.6
6.585
7.483
8.285
8.984
9.574
10.053
10.424
10.688
10.838
10.867
10.763
10.519
10.145
9.644
9.021
8.292
7.476
6.611
5.756
4.957
4.234
3.606
3.076
2.652
2.362
2.219
2.219
2.357
2.621
3.001
3.509
4.112
4.733
5.262
5.535
5.422
4.853
3.761
2.09
-0.196
-3.141
-6.725
-10.827
-15.351
-20.222
-25.379
-30.824
-36.438
-41.973
-47.131
-51.529
-54.807
-56.711
-56.894
-54.949
-50.741
-44.342
-36.133
-26.92
-17.305
-7.635
1.56
9.904
17.504
24.857
33.156
43.985
58.26
76.382
98.752
125.18
154.355
183.665
209.115
226.576
232.767
224.964
200.513
157.296
95.142
16.587
-73.686
-170.583
-269.09
-364.182
-450.171
-520.667
-571.311
-600.833
-610.009
-600.576
-574.929
-535.82
-487.424
-435.711
-385.264
-338.572
-296.968
-260.713
-229.686
-203.838
-182.03
-161.815
-141.595
-120.752
-99.219
-77.764
-57.082
-37.528
-19.805
-4.875
6.764
14.95
19.821
21.957
21.887
20.059
17.003
13.173
8.933
4.636
0.585
-2.968
-5.797
-7.748
-8.742
-8.715
-7.643
-5.54
-2.46
1.462
6.06
11.168
16.629
22.319
28.118
33.877
39.427
44.622
49.357
53.578
57.264
60.391
62.946
64.942
66.422
67.461
68.136
68.51
68.639
68.58
68.397
68.165
67.966
67.862
67.894
68.096
68.491
69.102
69.948
71.037
72.361
73.913
75.689
77.687
79.91
82.356
85.012
87.87
90.914
94.137
97.531
101.083
104.783
108.617
112.572
116.638
120.803
125.053
129.368
133.729
138.114
142.502
146.871
151.197
155.455
159.623
163.677
167.595
171.355
174.937
178.317
181.477
184.398
187.06
189.447
191.544
193.335
194.807
195.949
196.752
197.207
197.308
197.048
196.426
195.439
194.088
192.374
190.303
187.877
185.106
181.999
178.566
174.821
170.776
166.448
161.854
157.011
151.939
146.658
141.189
135.552
129.77
123.865
117.859
111.776
105.637
99.466
93.284
87.115
80.978
74.896
68.888
62.973
57.171
51.498
45.971
40.605
35.414
30.411
25.608
21.014
16.638
12.488
8.568
4.882
1.434
-1.775
-4.745
-7.479
-9.979
-12.248
-14.293
-16.119
-17.734
-19.146
-20.364
-21.398
-22.259
-22.956
-23.502
-23.908
-24.186
-24.347
-24.405
-24.37
-24.254
-24.069
-23.827
-23.537
-23.211
-22.857
-22.487
-22.108
-21.728
-21.356
-20.997
-20.658
-20.344
-20.06
-19.809
-19.595
-19.419
-19.285
-19.192
-19.141
-19.132
-19.165
-19.237
-19.348
-19.496
-19.677
-19.89
-20.131
-20.397
-20.686
-20.992
-21.314
-21.648
-21.99
-22.337
-22.685
-23.033
-23.375
-23.711
-24.038
-24.352
-24.652
-24.937
-25.205
-25.454
-25.684
-25.894
-26.084
-26.253
-26.401
-26.529
-26.638
-26.728
-26.801
-26.857
-26.897
-26.923
-26.937
-26.94
-26.934
-26.92
-26.9
-26.876
-26.85
-26.822
-26.796
-26.772
-26.751
-26.735
-26.725
-26.723
-26.729
-26.744
-26.769
-26.804
-26.85
-26.907
-26.976
-27.056
-27.146
-27.248
-27.359
-27.481
-27.612
-27.751
-27.898
-28.052
-28.212
-28.378
-28.547
-28.72
-28.895
-29.071
-29.248
-29.423
-29.597
-29.769
-29.937
-30.102
-30.262
-30.417
-30.567
-30.71
-30.848
-30.979
-31.103
-31.22
-31.332
-31.437
-31.536
-31.63
-31.72
-31.806
-31.89
-31.973
-32.054
-32.137
-32.22
-32.306
-32.396
-32.492
-32.593
-32.702
-32.821
-32.95
-33.09
-33.243
-33.409
-33.589
-33.783
-33.991
-34.213
-34.449
-34.699
-34.962
-35.239
-35.527
-35.827
-36.137
-36.453
-36.775
-37.1
-37.424
-37.745
-38.057
-38.358
-38.643
-38.909
-39.153
-39.37
-39.556
-39.706
-39.816
-39.881
-39.897
-39.858
-39.759
-39.596
-39.365
-39.063
-38.688
-38.237
-37.708
-37.099
-36.41
-35.639
-34.788
-33.854
-32.839
-31.744
-30.572
-29.327
-28.015
-26.64
-25.209
-23.732
-22.218
-20.676
-19.112
-17.536
-15.955
-14.376
-12.808
-11.257
-9.728
-8.23
-6.773
-5.369
-4.028
-2.76
-1.572
-0.472
0.53
1.428
2.218
2.901
3.477
3.943
4.289
4.498
4.567
4.498
4.3
3.982
3.553
3.03
2.446
1.849
1.291
0.81
0.415
0.107
-0.104
-0.204
-0.162
0.042
0.387
0.848
1.41
2.063
2.798
3.567
4.26
4.727
4.824
4.447
3.542
2.074
-0.016
-2.77
-6.222
-10.342
-14.99
-20.046
-25.435
-31.1
-37.007
-43.012
-48.814
-54.057
-58.376
-61.443
-63.02
-62.792
-60.358
-55.583
-48.566
-39.724
-29.89
-19.69
-9.464
0.281
9.142
17.206
24.946
33.516
44.525
58.917
77.065
99.355
125.588
154.394
183.136
207.81
224.239
229.166
219.947
193.972
149.184
85.483
5.415
-86.191
-184.048
-283.254
-378.875
-465.351
-536.509
-587.756
-617.485
-626.625
-617.088
-590.962
-550.896
-500.639
-445.531
-390.818
-339.741
-293.637
-252.959
-218.053
-189.002
-165.472
-146.002
-128.202
-110.659
-93.172
-76.004
-59.539
-44.091
-29.573
-16.134
-4.866
3.538
9.056
11.856
12.488
11.529
9.136
5.441
1.107
-3.261
-7.233
-10.387
-12.644
-14.017
-14.365
-13.585
-11.71
-8.796
-4.969
-0.431
4.702
10.314
16.244
22.361
28.497
34.444
40.056
45.225
49.874
53.976
57.516
60.473
62.857
64.708
66.078
67.038
67.649
67.962
68.035
67.936
67.746
67.557
67.438
67.439
67.597
67.938
68.482
69.25
70.251
71.477
72.925
74.59
76.474
78.582
80.913
83.458
86.207
89.147
92.266
95.557
99.01
102.612
106.35
110.214
114.192
118.275
122.448
126.696
130.997
135.331
139.677
144.013
148.315
152.561
156.724
160.784
164.716
168.501
172.116
175.539
178.751
181.731
184.462
186.925
189.104
190.983
192.548
193.787
194.689
195.246
195.449
195.293
194.773
193.887
192.635
191.018
189.037
186.698
184.007
180.973
177.605
173.915
169.916
165.623
161.052
156.221
151.148
145.853
140.355
134.677
128.839
122.864
116.774
110.592
104.34
98.041
91.719
85.395
79.092
72.832
66.635
60.521
54.51
48.621
42.87
37.275
31.85
26.61
21.568
16.735
12.121
7.734
3.583
-0.328
-3.995
-7.414
-10.584
-13.506
-16.18
-18.609
-20.798
-22.751
-24.474
-25.975
-27.261
-28.342
-29.226
-29.924
-30.447
-30.805
-31.01
-31.073
-31.007
-30.822
-30.532
-30.146
-29.677
-29.136
-28.534
-27.881
-27.187
-26.462
-25.714
-24.953
-24.185
-23.418
-22.658
-21.911
-21.183
-20.477
-19.798
-19.149
-18.531
-17.948
-17.4
-16.888
-16.413
-15.974
-15.571
-15.203
-14.868
-14.566
-14.294
-14.051
-13.834
-13.642
-13.472
-13.322
-13.19
-13.074
-12.971
-12.88
-12.799
-12.725
-12.658
-12.596
-12.537
-12.48
-12.424
-12.369
-12.314
-12.259
-12.202
-12.145
-12.086
-12.027
-11.968
-11.909
-11.851
-11.794
-11.74
-11.688
-11.641
-11.597
-11.56
-11.528
-11.504
-11.488
-11.479
-11.48
-11.491
-11.512
-11.543
-11.585
-11.637
-11.701
-11.776
-11.861
-11.958
-12.066
-12.184
-12.312
-12.449
-12.596
-12.751
-12.914
-13.084
-13.261
-13.443
-13.63
-13.821
-14.015
-14.211
-14.409
-14.608
-14.806
-15.004
-15.2
-15.393
-15.584
-15.772
-15.956
-16.136
-16.311
-16.483
-16.65
-16.814
-16.972
-17.127
-17.277
-17.424
-17.567
-17.707
-17.845
-17.982
-18.117
-18.253
-18.39
-18.529
-18.67
-18.815
-18.965
-19.12
-19.281
-19.451
-19.628
-19.815
-20.013
-20.223
-20.446
-20.682
-20.931
-21.193
-21.469
-21.758
-22.06
-22.375
-22.701
-23.038
-23.385
-23.741
-24.105
-24.475
-24.849
-25.223
-25.596
-25.965
-26.325
-26.672
-27.004
-27.317
-27.607
-27.872
-28.107
-28.308
-28.471
-28.592
-28.668
-28.692
-28.661
-28.569
-28.414
-28.192
-27.902
-27.541
-27.107
-26.599
-26.017
-25.36
-24.629
-23.823
-22.943
-21.991
-20.967
-19.878
-18.726
-17.518
-16.26
-14.959
-13.625
-12.267
-10.893
-9.51
-8.127
-6.752
-5.391
-4.052
-2.739
-1.459
-0.222
0.962
2.083
3.129
4.094
4.968
5.745
6.417
6.979
7.432
7.778
8.018
8.15
8.163
8.045
7.792
7.409
6.905
6.285
5.564
4.764
3.922
3.095
2.328
1.645
1.058
0.564
0.172
-0.105
-0.246
-0.24
-0.097
0.168
0.552
1.056
1.662
2.312
2.886
3.224
3.2
2.725
1.748
0.231
-1.863
-4.564
-7.876
-11.736
-16.03
-20.672
-25.596
-30.768
-36.143
-41.561
-46.716
-51.249
-54.798
-57.041
-57.751
-56.621
-53.287
-47.673
-39.946
-30.606
-20.498
-10.233
-0.13
9.329
17.736
25.2
32.239
40.056
50.324
64.0
81.415
102.881
128.189
155.948
183.481
206.805
221.651
224.637
213.174
184.787
137.525
71.528
-10.384
-103.358
-201.946
-300.822
-394.922
-478.584
-545.555
-591.813
-616.384
-620.298
-605.713
-575.396
-532.36
-480.971
-427.16
-375.34
-327.856
-285.888
-249.541
-218.584
-192.806
-170.979
-150.742
-130.614
-110.108
-89.27
-68.847
-49.487
-31.521
-15.59
-2.568
7.118
13.399
16.501
17.056
15.627
12.652
8.647
4.079
-0.661
-5.169
-9.142
-12.398
-14.777
-16.18
-16.554
-15.846
-14.058
-11.25
-7.519
-3.015
2.101
7.679
13.56
19.594
25.625
31.464
36.959
42.006
46.53
50.5
53.902
56.717
58.954
60.658
61.886
62.708
63.188
63.38
63.346
63.157
62.89
62.631
62.45
62.39
62.49
62.777
63.27
63.99
64.946
66.129
67.535
69.163
71.011
73.083
75.38
77.891
80.606
83.516
86.609
89.878
93.314
96.905
100.641
104.509
108.5
112.603
116.807
121.093
125.443
129.835
134.249
138.664
143.056
147.401
151.675
155.854
159.918
163.842
167.607
171.189
174.569
177.724
180.638
183.29
185.665
187.745
189.517
190.966
192.081
192.853
193.272
193.332
193.028
192.355
191.313
189.902
188.123
185.98
183.479
180.627
177.432
173.907
170.064
165.916
161.48
156.772
151.81
146.614
141.204
135.6
129.824
123.898
117.844
111.685
105.444
99.144
92.809
86.46
80.12
73.812
67.557
61.375
55.287
49.311
43.465
37.768
32.234
26.878
21.714
16.755
12.009
7.488
3.198
-0.853
-4.661
-8.222
-11.535
-14.599
-17.413
-19.982
-22.307
-24.393
-26.245
-27.871
-29.278
-30.473
-31.467
-32.268
-32.887
-33.336
-33.624
-33.763
-33.766
-33.643
-33.406
-33.067
-32.636
-32.126
-31.547
-30.909
-30.223
-29.498
-28.744
-27.968
-27.18
-26.386
-25.593
-24.807
-24.035
-23.281
-22.549
-21.843
-21.167
-20.522
-19.91
-19.333
-18.793
-18.288
-17.82
-17.387
-16.99
-16.626
-16.296
-15.997
-15.727
-15.486
-15.27
-15.079
-14.91
-14.762
-14.632
-14.519
-14.42
-14.335
-14.262
-14.199
-14.145
-14.099
-14.059
-14.025
-13.995
-13.97
-13.948
-13.929
-13.912
-13.898
-13.887
-13.877
-13.87
-13.866
-13.864
-13.866
-13.871
-13.88
-13.893
-13.91
-13.933
-13.961
-13.994
-14.034
-14.079
-14.131
-14.189
-14.253
-14.324
-14.401
-14.483
-14.572
-14.665
-14.763
-14.866
-14.972
-15.082
-15.195
-15.311
-15.429
-15.548
-15.668
-15.789
-15.91
-16.03
-16.149
-16.267
-16.383
-16.497
-16.608
-16.717
-16.823
-16.926
-17.025
-17.122
-17.215
-17.305
-17.392
-17.476
-17.558
-17.639
-17.718
-17.796
-17.876
-17.956
-18.039
-18.125
-18.215
-18.31
-18.411
-18.519
-18.635
-18.759
-18.893
-19.037
-19.194
-19.362
-19.543
-19.737
-19.945
-20.165
-20.399
-20.645
-20.903
-21.172
-21.452
-21.742
-22.041
-22.349
-22.662
-22.98
-23.3
-23.62
-23.937
-24.248
-24.55
-24.837
-25.108
-25.358
-25.584
-25.783
-25.95
-26.082
-26.175
-26.226
-26.229
-26.18
-26.077
-25.913
-25.687
-25.396
-25.039
-24.614
-24.119
-23.554
-22.919
-22.214
-21.441
-20.599
-19.689
-18.712
-17.673
-16.575
-15.423
-14.222
-12.978
-11.7
-10.397
-9.078
-7.752
-6.426
-5.108
-3.806
-2.528
-1.28
-0.069
1.101
2.22
3.279
4.268
5.178
6.001
6.732
7.362
7.885
8.297
8.597
8.788
8.872
8.844
8.698
8.422
8.012
7.475
6.82
6.05
5.183
4.239
3.254
2.29
1.389
0.575
-0.138
-0.747
-1.242
-1.598
-1.801
-1.856
-1.766
-1.547
-1.207
-0.737
-0.17
0.417
0.914
1.161
1.032
0.46
-0.616
-2.245
-4.459
-7.3
-10.748
-14.684
-19.016
-23.666
-28.576
-33.748
-39.065
-44.286
-49.118
-53.184
-56.141
-57.75
-57.687
-55.572
-51.281
-44.889
-36.776
-27.732
-18.348
-8.959
-0.054
8.011
15.353
22.467
30.506
41.017
54.917
72.593
94.403
120.141
148.493
176.897
201.496
218.265
223.991
216.063
191.987
149.816
89.532
13.696
-73.112
-165.876
-259.688
-349.72
-430.589
-496.351
-543.059
-569.697
-577.19
-567.397
-542.758
-505.983
-461.031
-413.422
-367.332
-324.968
-287.43
-254.816
-226.887
-203.495
-183.55
-164.829
-145.91
-126.274
-105.923
-85.613
-66.032
-47.553
-30.838
-16.75
-5.729
2.092
6.845
9.058
9.217
7.735
5.105
1.738
-2.033
-5.885
-9.533
-12.738
-15.285
-17.028
-17.893
-17.822
-16.79
-14.804
-11.912
-8.232
-3.911
0.896
6.049
11.433
16.935
22.415
27.712
32.686
37.239
41.317
44.902
47.971
50.512
52.536
54.083
55.221
56.02
56.54
56.83
56.944
56.943
56.899
56.891
56.98
57.207
57.605
58.198
59.007
60.052
61.341
62.867
64.624
66.61
68.823
71.268
73.941
76.833
79.933
83.229
86.711
90.37
94.195
98.172
102.29
106.533
110.89
115.349
119.894
124.506
129.163
133.843
138.523
143.181
147.79
152.326
156.763
161.077
165.245
169.243
173.048
176.637
179.989
183.084
185.9
188.421
190.628
192.506
194.039
195.216
196.025
196.458
196.507
196.165
195.429
194.297
192.769
190.846
188.533
185.834
182.757
179.312
175.511
171.366
166.892
162.105
157.024
151.668
146.057
140.212
134.156
127.911
121.501
114.95
108.282
101.522
94.693
87.821
80.931
74.045
67.188
60.382
53.65
47.013
40.491
34.104
27.87
21.807
15.929
10.252
4.789
-0.449
-5.451
-10.21
-14.717
-18.968
-22.959
-26.687
-30.151
-33.351
-36.291
-38.972
-41.399
-43.579
-45.518
-47.222
-48.703
-49.968
-51.027
-51.893
-52.575
-53.087
-53.439
-53.644
-53.714
-53.662
-53.5
-53.241
-52.895
-52.475
-51.992
-51.458
-50.881
-50.273
-49.643
-48.999
-48.35
-47.703
-47.064
-46.441
-45.838
-45.26
-44.71
-44.194
-43.712
-43.268
-42.863
-42.497
-42.172
-41.887
-41.642
-41.435
-41.267
-41.134
-41.036
-40.971
-40.937
-40.931
-40.951
-40.995
-41.06
-41.145
-41.247
-41.363
-41.493
-41.632
-41.78
-41.936
-42.096
-42.261
-42.428
-42.597
-42.766
-42.935
-43.103
-43.27
-43.436
-43.6
-43.762
-43.922
-44.081
-44.239
-44.396
-44.553
-44.71
-44.867
-45.026
-45.185
-45.347
-45.511
-45.677
-45.847
-46.02
-46.195
-46.375
-46.558
-46.744
-46.934
-47.128
-47.325
-47.525
-47.729
-47.935
-48.144
-48.355
-48.567
-48.781
-48.996
-49.212
-49.428
-49.644
-49.86
-50.076
-50.291
-50.507
-50.723
-50.94
-51.157
-51.374
-51.593
-51.813
-52.035
-52.261
-52.49
-52.724
-52.964
-53.211
-53.465
-53.728
-54.0
-54.28
-54.571
-54.872
-55.184
-55.506
-55.839
-56.183
-56.538
-56.904
-57.281
-57.667
-58.061
-58.462
-58.867
-59.275
-59.683
-60.087
-60.485
-60.874
-61.252
-61.614
-61.958
-62.28
-62.576
-62.841
-63.071
-63.262
-63.408
-63.504
-63.547
-63.533
-63.459
-63.322
-63.121
-62.852
-62.515
-62.107
-61.627
-61.076
-60.45
-59.752
-58.981
-58.14
-57.233
-56.264
-55.236
-54.157
-53.035
-51.877
-50.689
-49.479
-48.253
-47.018
-45.78
-44.547
-43.322
-42.112
-40.924
-39.77
-38.658
-37.6
-36.603
-35.675
-34.823
-34.054
-33.375
-32.785
-32.284
-31.87
-31.547
-31.323
-31.212
-31.219
-31.34
-31.572
-31.908
-32.336
-32.835
-33.37
-33.889
-34.347
-34.72
-34.996
-35.173
-35.251
-35.215
-35.05
-34.751
-34.322
-33.772
-33.102
-32.306
-31.404
-30.457
-29.577
-28.918
-28.609
-28.738
-29.364
-30.532
-32.27
-34.599
-37.508
-40.915
-44.735
-48.898
-53.369
-58.149
-63.164
-68.218
-73.017
-77.196
-80.405
-82.385
-82.819
-81.294
-77.653
-71.952
-64.519
-56.09
-47.236
-38.192
-29.349
-21.193
-13.72
-6.615
1.097
11.175
24.611
41.581
62.299
86.774
114.247
143.085
170.004
190.421
200.902
199.01
182.451
149.274
98.32
30.263
-51.5
-141.638
-235.14
-327.323
-413.218
-487.423
-544.84
-582.474
-599.917
-598.731
-581.245
-550.072
-508.663
-461.728
-414.01
-368.809
-327.995
-292.147
-261.09
-234.592
-211.795
-190.894
-170.301
-149.212
-127.417
-105.394
-83.878
-63.376
-44.568
-28.377
-15.359
-5.707
0.644
4.131
5.255
4.43
2.15
-1.061
-4.801
-8.707
-12.442
-15.772
-18.479
-20.373
-21.349
-21.334
-20.29
-18.231
-15.208
-11.312
-6.678
-1.456
4.216
10.184
16.309
22.438
28.394
34.03
39.245
43.964
48.154
51.796
54.878
57.411
59.439
61.019
62.214
63.086
63.685
64.071
64.311
64.479
64.66
64.917
65.297
65.835
66.559
67.488
68.643
70.03
71.641
73.473
75.523
77.79
80.278
82.986
85.904
89.022
92.33
95.815
99.47
103.283
107.244
111.339
115.556
119.884
124.311
128.825
133.405
138.035
142.691
147.352
151.996
156.601
161.141
165.592
169.932
174.138
178.189
182.063
185.739
189.197
192.418
195.382
198.074
200.477
202.576
204.359
205.813
206.929
207.699
208.117
208.178
207.879
207.22
206.202
204.828
203.102
201.032
198.626
195.895
192.852
189.51
185.885
181.994
177.857
173.493
168.923
164.169
159.253
154.198
149.027
143.766
138.437
133.064
127.671
122.283
116.922
111.611
106.372
101.227
96.195
91.297
86.549
81.969
77.572
73.371
69.38
65.607
62.063
58.753
55.683
52.855
50.273
47.934
45.839
43.981
42.358
40.96
39.781
38.811
38.038
37.451
37.035
36.778
36.665
36.68
36.809
37.036
37.345
37.719
38.143
38.601
39.078
