-134.048
-138.536
-141.966
-144.402
-145.943
-146.687
-146.748
-146.241
-145.274
-143.984
-142.491
-140.902
-139.326
-137.843
-136.515
-135.402
-134.54
-133.946
-133.624
-133.552
-133.689
-134.002
-134.446
-134.973
-135.534
-136.066
-136.516
-136.85
-137.033
-137.046
-136.875
-136.507
-135.938
-135.181
-134.247
-133.153
-131.924
-130.578
-129.138
-127.633
-126.091
-124.545
-123.021
-121.537
-120.107
-118.741
-117.447
-116.233
-115.1
-114.046
-113.067
-112.164
-111.333
-110.575
-109.887
-109.262
-108.695
-108.179
-107.71
-107.282
-106.891
-106.534
-106.205
-105.901
-105.62
-105.359
-105.115
-104.884
-104.66
-104.438
-104.215
-103.984
-103.742
-103.483
-103.204
-102.9
-102.567
-102.204
-101.808
-101.376
-100.905
-100.395
-99.845
-99.252
-98.616
-97.936
-97.213
-96.446
-95.636
-94.784
-93.891
-92.956
-91.983
-90.972
-89.925
-88.845
-87.732
-86.588
-85.417
-84.22
-83.0
-81.759
-80.499
-79.222
-77.931
-76.627
-75.314
-73.991
-72.662
-71.326
-69.984
-68.638
-67.286
-65.93
-64.569
-63.202
-61.832
-60.456
-59.076
-57.691
-56.304
-54.915
-53.526
-52.136
-50.748
-49.362
-47.98
-46.604
-45.234
-43.871
-42.516
-41.173
-39.843
-38.529
-37.235
-35.961
-34.709
-33.484
-32.287
-31.122
-29.991
-28.893
-27.831
-26.804
-25.817
-24.876
-23.98
-23.127
-22.312
-21.531
-20.779
-20.048
-19.328
-18.6
-17.847
-17.053
-16.209
-15.308
-14.343
-13.305
-12.183
-10.961
-9.633
-8.204
-6.676
-5.055
-3.35
-1.573
0.244
2.051
3.796
5.419
6.873
8.121
9.125
9.854
10.267
10.31
9.938
9.114
7.808
6.011
3.691
0.785
-2.679
-6.556
-10.601
-14.443
-17.753
-20.318
-21.88
-22.088
-20.715
-17.789
-13.658
-9.048
-4.675
-0.912
1.923
3.33
2.993
1.022
-1.952
-4.513
-5.037
-2.512
4.082
16.225
35.086
61.595
95.589
134.679
176.149
217.825
258.513
299.237
340.25
378.657
408.283
418.025
397.228
342.087
254.922
146.097
28.129
-93.507
-216.146
-338.693
-458.715
-564.899
-644.472
-690.336
-700.567
-682.766
-648.981
-605.273
-554.413
-495.489
-424.29
-343.776
-261.595
-185.601
-125.465
-83.819
-56.187
-38.273
-24.249
-11.483
-2.136
3.487
5.793
6.039
7.352
11.117
17.105
24.921
33.747
42.727
51.319
58.797
64.255
67.418
68.496
67.822
65.911
63.273
60.3
57.498
55.436
54.4
54.475
55.638
57.727
60.617
64.225
68.408
73.003
77.869
82.872
87.909
92.905
97.766
102.388
106.673
110.525
113.891
116.754
119.115
121.0
122.441
123.476
124.158
124.551
124.716
124.713
124.598
124.42
124.231
124.086
124.037
124.136
124.42
124.913
125.632
126.586
127.781
129.22
130.9
132.812
134.949
137.306
139.877
142.658
145.639
148.81
152.157
155.666
159.324
163.114
167.022
171.03
175.12
179.274
183.474
187.699
191.929
196.141
200.312
204.416
208.431
212.332
216.094
219.695
223.111
226.32
229.302
232.037
234.507
236.694
238.583
240.159
241.408
242.32
242.885
243.094
242.942
242.424
241.538
240.283
238.66
236.674
234.327
231.629
228.586
225.21
221.512
217.505
213.205
208.627
203.788
198.708
193.404
187.898
182.21
176.36
170.371
164.265
158.062
151.785
145.455
139.093
132.721
126.359
120.027
113.744
107.529
101.4
95.373
89.464
83.689
78.061
72.593
67.295
62.18
57.255
52.528
48.006
43.695
39.597
35.717
32.056
28.614
25.392
22.387
19.597
17.019
14.648
12.481
10.511
8.731
7.136
5.718
4.47
3.383
2.45
1.663
1.013
0.491
0.089
-0.201
-0.387
-0.478
-0.482
-0.407
-0.26
-0.049
0.218
0.536
0.897
1.296
1.726
2.181
2.657
3.148
3.65
4.157
4.667
5.174
5.676
6.17
6.652
7.119
7.57
8.002
8.413
8.801
9.164
9.501
9.81
10.089
10.338
10.556
10.741
10.893
11.011
11.095
11.144
11.159
11.139
11.085
10.997
10.874
10.719
10.532
10.314
10.067
9.791
9.489
9.162
8.812
8.441
8.051
7.644
7.221
6.786
6.34
5.885
5.425
4.96
4.493
4.027
3.564
3.105
2.652
2.207
1.773
1.349
0.939
0.542
0.161
-0.204
-0.553
-0.885
-1.2
-1.498
-1.78
-2.045
-2.296
-2.532
-2.756
-2.968
-3.171
-3.364
-3.55
-3.732
-3.909
-4.085
-4.26
-4.436
-4.614
-4.796
-4.984
-5.176
-5.374
-5.579
-5.79
-6.008
-6.232
-6.462
-6.697
-6.936
-7.179
-7.423
-7.668
-7.912
-8.151
-8.385
-8.609
-8.823
-9.023
-9.205
-9.368
-9.507
-9.621
-9.706
-9.76
-9.78
-9.763
-9.706
-9.609
-9.471
-9.29
-9.066
-8.8
-8.495
-8.153
-7.775
-7.365
-6.927
-6.464
-5.981
-5.481
-4.969
-4.449
-3.925
-3.402
-2.888
-2.388
-1.908
-1.454
-1.031
-0.645
-0.305
-0.017
0.22
0.401
0.523
0.582
0.571
0.485
0.327
0.1
-0.192
-0.543
-0.946
-1.39
-1.849
-2.301
-2.724
-3.098
-3.414
-3.661
-3.82
-3.874
-3.805
-3.602
-3.273
-2.827
-2.263
-1.596
-0.85
-0.065
0.688
1.336
1.811
2.049
1.989
1.58
0.768
-0.497
-2.265
-4.58
-7.459
-10.919
-14.955
-19.561
-24.749
-30.409
-36.322
-42.189
-47.589
-52.139
-55.582
-57.573
-57.713
-55.935
-52.352
-47.343
-41.785
-36.34
-31.395
-27.62
-25.586
-25.28
-26.46
-28.275
-28.996
-27.352
-22.168
-11.672
5.476
30.106
62.052
99.19
138.748
178.233
216.402
253.888
289.74
320.41
339.115
334.531
298.473
229.912
132.88
18.716
-101.97
-225.995
-350.029
-471.367
-584.446
-676.024
-737.07
-764.431
-760.542
-735.599
-697.101
-648.738
-592.487
-527.235
-454.669
-379.079
-304.853
-237.29
-180.023
-134.492
-101.04
-78.749
-65.968
-60.958
-61.607
-65.317
-69.55
-72.133
-71.817
-68.383
-62.145
-53.705
-43.879
-33.697
-24.325
-16.923
-12.057
-9.683
-9.49
-10.954
-13.531
-16.724
-19.932
-22.53
-24.146
-24.651
-24.057
-22.512
-20.149
-17.051
-13.357
-9.221
-4.776
-0.145
4.577
9.317
13.985
18.483
22.718
26.601
30.059
33.059
35.588
37.659
39.302
40.55
41.442
42.028
42.366
42.513
42.525
42.454
42.35
42.264
42.249
42.355
42.632
43.114
43.823
44.773
45.973
47.429
49.148
51.132
53.378
55.879
58.629
61.62
64.841
68.281
71.918
75.722
79.665
83.721
87.864
92.081
96.358
100.677
105.021
109.374
113.723
118.071
122.42
126.768
131.113
135.453
139.791
144.15
148.544
152.978
157.45
161.938
166.417
170.862
175.244
179.525
183.65
187.544
191.12
194.313
197.063
199.312
201.007
202.071
202.446
202.097
200.997
199.138
196.521
193.135
188.984
184.091
178.502
172.296
165.57
158.393
150.833
142.952
134.805
126.46
117.97
109.363
100.665
91.905
83.122
74.375
65.726
57.225
48.904
40.767
32.806
25.025
17.44
10.063
2.92
-3.962
-10.546
-16.769
-22.576
-27.93
-32.813
-37.239
-41.238
-44.845
-48.085
-50.972
-53.511
-55.708
-57.574
-59.118
-60.359
-61.321
-62.04
-62.572
-62.967
-63.265
-63.49
-63.642
-63.711
-63.671
-63.508
-63.207
-62.765
-62.184
-61.47
-60.634
-59.686
-58.639
-57.497
-56.256
-54.91
-53.459
-51.91
-50.276
-48.581
-46.851
-45.112
-43.389
-41.702
-40.064
-38.486
-36.973
-35.528
-34.148
-32.834
-31.589
-30.414
-29.313
-28.287
-27.335
-26.454
-25.64
-24.888
-24.193
-23.55
-22.952
-22.398
-21.884
-21.408
-20.97
-20.568
-20.201
-19.866
-19.56
-19.281
-19.025
-18.788
-18.566
-18.358
-18.158
-17.966
-17.779
-17.597
-17.417
-17.24
-17.065
-16.893
-16.723
-16.557
-16.395
-16.238
-16.086
-15.941
-15.803
-15.675
-15.557
-15.451
-15.357
-15.277
-15.213
-15.164
-15.131
-15.116
-15.119
-15.141
-15.181
-15.241
-15.322
-15.424
-15.548
-15.695
-15.865
-16.058
-16.275
-16.514
-16.776
-17.06
-17.364
-17.687
-18.029
-18.388
-18.762
-19.151
-19.552
-19.965
-20.386
-20.815
-21.25
-21.688
-22.127
-22.565
-23.0
-23.43
-23.852
-24.263
-24.662
-25.045
-25.41
-25.755
-26.076
-26.371
-26.637
-26.871
-27.07
-27.232
-27.355
-27.435
-27.47
-27.458
-27.397
-27.286
-27.121
-26.902
-26.626
-26.293
-25.901
-25.448
-24.935
-24.36
-23.724
-23.028
-22.272
-21.459
-20.592
-19.673
-18.706
-17.696
-16.646
-15.562
-14.449
-13.312
-12.157
-10.989
-9.816
-8.643
-7.478
-6.328
-5.201
-4.103
-3.041
-2.022
-1.052
-0.139
0.711
1.494
2.207
2.845
3.405
3.879
4.264
4.563
4.78
4.921
4.99
4.993
4.942
4.852
4.743
4.632
4.532
4.45
4.393
4.373
4.405
4.508
4.69
4.947
5.269
5.649
6.079
6.553
7.04
7.49
7.852
8.066
8.092
7.899
7.448
6.709
5.64
4.184
2.305
-0.025
-2.823
-6.086
-9.835
-14.135
-18.942
-24.092
-29.323
-34.224
-38.431
-41.716
-43.781
-44.243
-42.927
-39.912
-35.615
-30.97
-26.86
-23.819
-22.408
-23.172
-26.298
-31.561
-38.052
-43.933
-47.339
-46.734
-40.452
-26.951
-4.965
25.511
62.593
103.66
145.872
188.673
233.726
279.863
323.246
355.193
362.409
337.123
277.524
189.276
86.299
-21.186
-127.417
-232.027
-341.163
-455.445
-569.798
-673.687
-750.582
-790.852
-792.783
-761.635
-710.569
-649.644
-584.368
-517.153
-446.38
-372.724
-299.669
-231.462
-172.934
-126.617
-92.462
-69.374
-55.486
-48.911
-47.759
-49.624
-52.063
-53.041
-51.482
-47.288
-40.822
-32.653
-23.516
-14.342
-6.217
-0.211
3.194
4.123
2.942
0.192
-3.591
-7.917
-12.2
-15.812
-18.369
-19.741
-19.938
-19.102
-17.366
-14.808
-11.56
-7.784
-3.624
0.787
5.339
9.956
14.552
19.023
23.273
27.208
30.746
33.854
36.522
38.761
40.601
42.077
43.23
44.114
44.792
45.325
45.769
46.176
46.587
47.051
47.615
48.329
49.239
50.375
51.754
53.389
55.289
57.458
59.895
62.593
65.536
68.713
72.116
75.738
79.576
83.619
87.85
92.252
96.806
101.492
106.285
111.155
116.062
120.974
125.867
130.721
135.524
140.261
144.914
149.466
153.903
158.21
162.376
166.389
170.231
173.897
177.389
180.721
183.924
187.011
189.983
192.832
195.538
198.079
200.431
202.564
204.441
206.034
207.313
208.255
208.839
209.032
208.791
208.06
206.772
204.868
202.309
199.067
195.134
190.516
185.229
179.298
172.755
165.632
157.959
149.772
141.119
132.059
122.663
113.021
103.24
93.432
83.713
74.182
64.915
55.976
47.419
39.294
31.654
24.545
18.008
12.068
6.738
2.019
-2.093
-5.627
-8.632
-11.175
-13.344
-15.205
-16.806
-18.193
-19.399
-20.467
-21.451
-22.39
-23.314
-24.248
-25.205
-26.2
-27.249
-28.347
-29.474
-30.598
-31.671
-32.661
-33.556
-34.342
-35.012
-35.557
-35.959
-36.215
-36.33
-36.312
-36.166
-35.9
-35.514
-35.023
-34.449
-33.819
-33.163
-32.503
-31.853
-31.226
-30.632
-30.079
-29.576
-29.127
-28.727
-28.375
-28.07
-27.814
-27.608
-27.449
-27.332
-27.251
-27.201
-27.176
-27.174
-27.19
-27.223
-27.268
-27.325
-27.394
-27.476
-27.569
-27.673
-27.787
-27.908
-28.036
-28.169
-28.306
-28.445
-28.585
-28.726
-28.868
-29.009
-29.151
-29.293
-29.435
-29.577
-29.721
-29.866
-30.014
-30.165
-30.32
-30.479
-30.644
-30.816
-30.995
-31.181
-31.376
-31.579
-31.79
-32.009
-32.236
-32.47
-32.71
-32.956
-33.208
-33.463
-33.723
-33.985
-34.249
-34.514
-34.78
-35.046
-35.31
-35.573
-35.833
-36.09
-36.343
-36.592
-36.835
-37.073
-37.305
-37.53
-37.75
-37.962
-38.168
-38.366
-38.558
-38.743
-38.922
-39.094
-39.26
-39.42
-39.574
-39.723
-39.867
-40.005
-40.138
-40.266
-40.388
-40.505
-40.616
-40.72
-40.816
-40.904
-40.981
-41.047
-41.1
-41.137
-41.157
-41.156
-41.133
-41.085
-41.008
-40.901
-40.759
-40.58
-40.36
-40.097
-39.787
-39.428
-39.016
-38.549
-38.026
-37.445
-36.805
-36.106
-35.349
-34.535
-33.664
-32.739
-31.762
-30.736
-29.664
-28.549
-27.395
-26.206
-24.988
-23.745
-22.487
-21.219
-19.948
-18.682
-17.428
-16.194
-14.991
-13.824
-12.699
-11.622
-10.6
-9.64
-8.754
-7.947
-7.221
-6.575
-6.01
-5.522
-5.109
-4.762
-4.462
-4.192
-3.938
-3.687
-3.437
-3.178
-2.901
-2.594
-2.241
-1.836
-1.384
-0.889
-0.357
0.203
0.778
1.331
1.807
2.148
2.292
2.19
1.803
1.09
0.018
-1.454
-3.378
-5.788
-8.715
-12.177
-16.173
-20.721
-25.863
-31.544
-37.596
-43.759
-49.648
-54.93
-59.382
-62.731
-64.623
-64.832
-63.379
-60.602
-57.202
-53.859
-50.927
-48.721
-47.739
-48.323
-50.396
-53.347
-55.818
-56.299
-53.894
-47.644
-36.115
-18.101
7.39
39.809
76.387
114.611
152.536
190.344
230.38
271.673
309.97
336.11
336.469
303.103
235.181
140.167
32.819
-76.425
-184.363
-293.874
-409.218
-527.991
-638.894
-725.253
-775.486
-786.344
-764.429
-723.524
-672.184
-615.243
-552.983
-481.828
-405.02
-327.411
-255.028
-195.462
-148.997
-114.047
-88.705
-68.905
-54.464
-45.808
-41.417
-40.225
-39.991
-38.486
-35.376
-31.142
-26.195
-20.665
-14.921
-9.512
-5.003
-2.069
-0.623
0.183
0.697
0.76
0.452
-0.079
-0.604
-0.665
-0.254
0.134
0.417
0.913
1.81
3.276
5.348
7.815
10.638
13.997
17.841
21.929
26.063
30.014
33.647
36.972
39.94
42.47
44.555
46.227
47.538
48.57
49.375
49.978
50.425
50.763
51.044
51.326
51.655
52.072
52.62
53.343
54.281
55.464
56.91
58.631
60.636
62.925
65.499
68.354
71.478
74.858
78.484
82.344
86.428
90.727
95.223
99.9
104.739
109.716
114.807
119.981
125.202
130.431
135.637
140.795
145.882
150.885
155.786
160.57
165.224
169.726
174.057
178.199
182.135
185.851
189.347
192.627
195.71
198.622
201.371
203.959
206.381
208.608
210.616
212.372
213.836
214.989
215.82
216.308
216.441
216.198
215.545
214.446
212.853
210.701
207.945
204.55
200.498
195.805
190.499
184.613
178.193
171.263
163.837
155.95
147.639
138.951
129.948
120.699
111.286
101.821
92.42
83.182
74.191
65.495
57.131
49.134
41.535
34.387
27.74
21.621
16.049
11.035
6.581
2.675
-0.709
-3.634
-6.183
-8.423
-10.405
-12.158
-13.705
-15.073
-16.296
-17.419
-18.477
-19.492
-20.484
-21.468
-22.463
-23.475
-24.499
-25.503
-26.442
-27.283
-28.008
-28.612
-29.093
-29.445
-29.658
-29.724
-29.646
-29.429
-29.079
-28.599
-27.989
-27.256
-26.416
-25.494
-24.52
-23.516
-22.498
-21.475
-20.458
-19.454
-18.472
-17.518
-16.587
-15.68
-14.797
-13.94
-13.112
-12.312
-11.538
-10.783
-10.043
-9.314
-8.592
-7.876
-7.162
-6.449
-5.733
-5.017
-4.299
-3.582
-2.863
-2.142
-1.416
-0.684
0.053
0.797
1.549
2.309
3.078
3.857
4.643
5.438
6.24
7.05
7.867
8.689
9.515
10.344
11.175
12.005
12.833
13.655
14.471
15.279
16.074
16.857
17.623
18.372
19.099
19.804
20.484
21.136
21.758
22.348
22.903
23.422
23.903
24.344
24.743
25.1
25.412
25.68
25.901
26.075
26.201
26.279
26.308
26.288
26.218
26.098
25.929
25.712
25.445
25.131
24.77
24.362
23.908
23.41
22.87
22.289
21.669
21.014
20.324
19.605
18.858
18.088
17.298
16.49
15.669
14.838
14.001
13.161
12.322
11.487
10.662
9.849
9.053
8.278
7.528
6.807
6.12
5.469
4.86
4.296
3.782
3.321
2.917
2.574
2.296
2.086
1.947
1.879
1.886
1.967
2.122
2.35
2.648
3.016
3.449
3.945
4.501
5.112
5.774
6.483
7.234
8.021
8.839
9.681
10.538
11.403
12.27
13.13
13.976
14.8
15.593
16.347
17.056
17.712
18.309
18.838
19.288
19.653
19.93
20.12
20.223
20.246
20.192
20.07
19.896
19.685
19.451
19.207
18.959
18.716
18.488
18.285
18.126
18.02
17.966
17.96
17.993
18.049
18.115
18.166
18.149
18.018
17.725
17.211
16.448
15.4
14.025
12.299
10.179
7.62
4.601
1.092
-2.921
-7.421
-12.417
-17.924
-23.838
-29.983
-36.1
-41.814
-46.821
-50.902
-53.8
-55.227
-55.035
-53.322
-50.48
-47.19
-44.099
-41.608
-39.986
-39.54
-40.546
-42.906
-45.909
-48.392
-48.493
-44.173
-34.746
-19.842
-0.012
22.39
47.028
74.488
105.437
142.2
184.747
230.64
275.36
311.514
330.164
321.521
280.203
206.904
109.056
-0.205
-110.878
-219.328
-327.555
-438.52
-549.86
-651.689
-729.008
-771.781
-777.865
-752.928
-709.31
-655.889
-597.111
-534.605
-467.025
-395.614
-323.937
-256.113
-196.667
-148.124
-111.136
-85.336
-69.209
-61.009
-59.032
-60.968
-64.544
-67.795
-68.996
-67.403
-63.099
-56.43
-48.026
-38.83
-29.754
-21.753
-15.74
-11.999
-10.377
-10.559
-12.033
-14.272
-16.818
-19.14
-20.724
-21.332
-20.903
-19.49
-17.257
-14.328
-10.8
-6.814
-2.514
1.974
6.546
11.118
15.628
19.995
24.132
27.956
31.388
34.389
36.948
39.075
40.799
42.154
43.182
43.933
44.469
44.846
45.123
45.352
45.578
45.853
46.226
46.748
47.468
48.42
49.627
51.102
52.856
54.89
57.208
59.806
62.673
65.801
69.183
72.811
76.678
80.774
85.086
89.598
94.293
99.153
104.162
109.3
114.55
119.889
125.298
130.755
136.237
141.722
147.185
152.597
157.93
163.156
168.246
173.176
177.916
182.443
186.729
190.753
194.491
197.927
201.04
203.808
206.211
208.229
209.848
211.066
211.877
212.273
212.252
211.813
210.96
209.702
208.042
205.975
203.501
200.613
197.322
193.644
189.599
185.207
180.481
175.425
170.05
164.379
158.425
152.2
145.712
138.959
131.965
124.781
117.452
110.027
102.542
95.013
87.466
79.933
72.443
65.04
57.751
50.596
43.606
36.823
30.29
24.06
18.153
12.547
7.231
2.193
-2.571
-7.049
-11.24
-15.157
-18.806
-22.191
-25.316
-28.173
-30.773
-33.144
-35.31
-37.308
-39.148
-40.81
-42.286
-43.572
-44.668
-45.584
-46.325
-46.883
-47.266
-47.487
-47.563
-47.512
-47.345
-47.06
-46.657
-46.138
-45.51
-44.797
-44.016
-43.179
-42.299
-41.389
-40.459
-39.528
-38.605
-37.691
-36.789
-35.901
-35.03
-34.186
-33.372
-32.595
-31.857
-31.158
-30.5
-29.885
-29.314
-28.785
-28.298
-27.85
-27.439
-27.067
-26.733
-26.437
-26.176
-25.95
-25.755
-25.59
-25.454
-25.343
-25.254
-25.184
-25.131
-25.091
-25.063
-25.044
-25.032
-25.024
-25.019
-25.015
-25.01
-25.002
-24.99
-24.972
-24.947
-24.914
-24.87
-24.817
-24.752
-24.676
-24.589
-24.491
-24.382
-24.264
-24.137
-24.003
-23.864
-23.722
-23.579
-23.436
-23.297
-23.165
-23.043
-22.934
-22.842
-22.768
-22.717
-22.692
-22.694
-22.728
-22.794
-22.896
-23.034
-23.21
-23.427
-23.683
-23.981
-24.32
-24.702
-25.124
-25.588
-26.092
-26.634
-27.212
-27.824
-28.466
-29.136
-29.828
-30.538
-31.261
-31.991
-32.724
-33.451
-34.167
-34.865
-35.536
-36.175
-36.774
-37.325
-37.821
-38.255
-38.623
-38.917
-39.134
-39.268
-39.319
-39.283
-39.158
-38.945
-38.642
-38.248
-37.766
-37.196
-36.54
-35.801
-34.981
-34.086
-33.121
-32.095
-31.014
-29.886
-28.72
-27.525
-26.31
-25.086
-23.863
-22.65
-21.456
-20.292
-19.169
-18.101
-17.098
-16.164
-15.302
-14.513
-13.795
-13.148
-12.564
-12.031
-11.539
-11.076
-10.633
-10.21
-9.801
-9.397
-8.991
-8.572
-8.133
-7.684
-7.229
-6.778
-6.343
-5.939
-5.592
-5.35
-5.251
-5.335
-5.649
-6.223
-7.091
-8.289
-9.832
-11.742
-14.048
-16.763
-19.909
-23.506
-27.538
-32.014
-36.967
-42.328
-47.95
-53.586
-58.848
-63.388
-66.97
-69.314
-70.092
-69.154
-66.62
-62.954
-59.005
-55.587
-53.179
-52.196
-53.161
-56.315
-61.348
-67.35
-72.656
-75.477
-74.632
-68.946
-56.899
-37.346
-9.639
25.32
64.611
105.435
145.491
184.341
223.295
260.684
292.344
310.279
303.005
264.655
195.709
103.324
0.569
-103.249
-205.424
-308.2
-414.127
-520.765
-618.474
-692.846
-734.77
-742.305
-720.794
-682.218
-634.991
-583.425
-529.221
-470.712
-408.671
-346.302
-287.146
-235.294
-193.071
-160.569
-137.049
-121.113
-111.13
-105.552
-102.486
-99.884
-95.967
-89.76
-81.099
-70.274
-57.88
-44.629
-31.368
-19.141
-8.979
-1.423
3.502
6.034
6.597
5.652
3.632
1.071
-1.465
-3.626
-5.257
-6.308
-6.814
-6.81
-6.294
-5.308
-3.929
-2.194
-0.144
2.174
4.732
7.469
10.309
13.191
16.073
18.921
21.73
24.502
27.22
29.89
32.512
35.076
37.577
39.992
42.309
44.541
46.712
48.849
50.983
53.141
55.336
57.583
59.884
62.228
64.613
67.037
69.504
72.035
74.658
77.413
80.332
83.437
86.736
90.233
93.924
97.806
101.873
106.113
110.521
115.096
119.836
124.735
129.781
134.948
140.206
145.515
150.839
156.14
161.386
166.547
171.598
176.512
181.269
185.85
190.234
194.396
198.313
201.961
205.319
208.368
211.094
213.483
215.524
217.206
218.522
219.464
220.024
220.196
219.975
219.354
218.332
216.908
215.084
212.865
210.258
207.272
203.918
200.209
196.158
191.783
187.099
182.125
176.88
171.384
165.66
159.728
153.613
147.338
140.928
134.406
127.797
121.127
114.419
107.698
100.987
94.31
87.69
81.148
74.708
68.388
62.21
56.191
50.349
44.7
39.26
34.041
29.055
24.313
19.822
15.591
11.624
7.925
4.497
1.341
-1.543
-4.158
-6.506
-8.591
-10.42
-11.998
-13.334
-14.436
-15.314
-15.977
-16.437
-16.704
-16.792
-16.712
-16.476
-16.098
-15.591
-14.968
-14.241
-13.423
-12.527
-11.566
-10.55
-9.491
-8.401
-7.29
-6.167
-5.041
-3.923
-2.818
-1.735
-0.68
0.342
1.324
2.264
3.156
3.998
4.788
5.523
6.202
6.824
7.389
7.897
8.348
8.744
9.086
9.375
9.614
9.804
9.948
10.049
10.109
10.131
10.118
10.073
9.999
9.898
9.775
9.631
9.469
9.293
9.104
8.904
8.697
8.485
8.268
8.048
7.828
7.608
7.39
7.175
6.963
6.755
6.552
6.354
6.161
5.972
5.789
5.61
5.435
5.265
5.097
4.931
4.767
4.604
4.439
4.273
4.102
3.927
3.745
3.554
3.354
3.142
2.917
2.677
2.42
2.145
1.85
1.534
1.194
0.831
0.441
0.025
-0.418
-0.89
-1.391
-1.92
-2.478
-3.065
-3.68
-4.323
-4.992
-5.688
-6.407
-7.149
-7.911
-8.692
-9.488
-10.297
-11.114
-11.937
-12.762
-13.584
-14.4
-15.205
-15.994
-16.763
-17.506
-18.219
-18.895
-19.53
-20.118
-20.654
-21.134
-21.552
-21.904
-22.188
-22.399
-22.537
-22.599
-22.585
-22.494
-22.326
-22.082
-21.762
-21.369
-20.905
-20.37
-19.769
-19.105
-18.384
-17.614
-16.8
-15.949
-15.07
-14.171
-13.26
-12.346
-11.437
-10.54
-9.665
-8.822
-8.023
-7.28
-6.606
-6.004
-5.478
-5.032
-4.66
-4.359
-4.121
-3.928
-3.771
-3.64
-3.525
-3.424
-3.327
-3.222
-3.098
-2.94
-2.736
-2.487
-2.199
-1.876
-1.544
-1.23
-0.968
-0.812
-0.812
-1.009
-1.444
-2.157
-3.19
-4.592
-6.414
-8.691
-11.447
-14.696
-18.452
-22.728
-27.515
-32.787
-38.482
-44.527
-50.896
-57.475
-64.071
-70.413
-76.097
-80.76
-84.173
-86.037
-85.994
-84.013
-80.243
-75.105
-69.517
-64.164
-59.418
-55.907
-54.193
-54.26
-55.834
-58.021
-59.077
-57.793
-53.175
-43.65
-27.935
-5.16
24.416
58.601
94.829
131.036
167.126
204.579
241.841
274.568
294.162
288.525
251.403
183.119
90.864
-12.467
-117.981
-223.576
-332.128
-446.0
-561.636
-667.641
-747.557
-791.187
-796.88
-770.929
-726.462
-672.449
-612.906
-549.173
-479.782
-406.19
-332.46
-262.978
-202.189
-152.463
-114.22
-86.976
-69.328
-59.504
-55.647
-55.581
-57.374
-59.461
-60.631
-60.191
-57.731
-53.337
-47.573
-41.089
-34.441
-28.096
-22.233
-17.065
-13.094
-10.405
-8.72
-7.801
-7.331
-7.104
-7.219
-7.507
-7.43
-6.727
-5.312
-3.14
-0.365
2.971
7.013
11.673
16.666
21.777
26.799
31.599
36.174
40.455
44.308
47.686
50.589
53.045
55.12
56.853
58.252
59.349
60.189
60.822
61.311
61.708
62.05
62.384
62.753
63.205
63.788
64.536
65.472
66.612
67.965
69.537
71.331
73.345
75.572
78.01
80.655
83.505
86.551
89.786
93.194
96.76
100.465
104.284
108.185
112.139
116.114
120.09
124.056
127.998
131.905
135.76
139.547
143.257
146.895
150.461
153.95
157.364
160.698
163.968
167.21
170.449
173.702
176.967
180.221
183.443
186.614
189.701
192.667
195.459
198.0
200.231
202.11
203.59
204.632
205.176
205.138
204.456
203.09
201.016
198.24
194.771
190.615
185.809
180.405
174.479
168.129
161.435
154.454
147.248
139.878
132.415
124.956
117.574
110.324
103.252
96.389
89.765
83.415
77.346
71.547
65.996
60.653
55.498
50.527
45.731
41.107
36.644
32.322
28.135
24.086
20.177
16.412
12.791
9.31
5.977
2.81
-0.173
-2.949
-5.506
-7.84
-9.95
-11.834
-13.495
-14.937
-16.168
-17.204
-18.056
-18.735
-19.253
-19.618
-19.842
-19.942
-19.933
-19.831
-19.648
-19.397
-19.091
-18.741
-18.356
-17.946
-17.517
-17.075
-16.626
-16.176
-15.731
-15.297
-14.878
-14.479
-14.104
-13.756
-13.439
-13.153
-12.9
-12.68
-12.492
-12.337
-12.213
-12.119
-12.052
-12.011
-11.992
-11.994
-12.013
-12.047
-12.093
-12.147
-12.206
-12.268
-12.33
-12.39
-12.444
-12.491
-12.53
-12.559
-12.577
-12.583
-12.576
-12.555
-12.521
-12.474
-12.412
-12.337
-12.248
-12.147
-12.034
-11.911
-11.777
-11.636
-11.488
-11.334
-11.177
-11.019
-10.861
-10.706
-10.555
-10.412
-10.277
-10.152
-10.041
-9.945
-9.866
-9.806
-9.767
-9.75
-9.757
-9.79
-9.848
-9.934
-10.048
-10.191
-10.363
-10.564
-10.796
-11.057
-11.349
-11.67
-12.022
-12.403
-12.813
-13.251
-13.716
-14.207
-14.723
-15.26
-15.819
-16.395
-16.986
-17.589
-18.202
-18.821
-19.443
-20.063
-20.679
-21.286
-21.88
-22.456
-23.011
-23.541
-24.039
-24.503
-24.928
-25.31
-25.644
-25.927
-26.154
-26.32
-26.423
-26.458
-26.422
-26.311
-26.123
-25.856
-25.508
-25.079
-24.567
-23.975
-23.302
-22.553
-21.729
-20.836
-19.876
-18.855
-17.778
-16.651
-15.481
-14.274
-13.036
-11.775
-10.498
-9.215
-7.934
-6.662
-5.407
-4.178
-2.984
-1.835
-0.738
0.303
1.282
2.195
3.034
3.79
4.458
5.04
5.537
5.949
6.279
6.53
6.71
6.841
6.941
7.027
7.11
7.194
7.285
7.399
7.549
7.751
8.012
8.323
8.677
9.074
9.508
9.965
10.409
10.776
10.993
11.011
10.78
10.268
9.445
8.262
6.661
4.59
2.006
-1.109
-4.75
-8.954
-13.79
-19.233
-25.148
-31.261
-37.147
-42.433
-46.856
-50.106
-51.791
-51.69
-49.841
-46.613
-42.881
-39.516
-37.095
-36.222
-37.501
-41.2
-47.143
-54.468
-61.379
-66.009
-66.725
-61.632
-49.003
-27.328
3.715
42.22
85.359
130.228
175.529
222.402
270.638
316.675
352.681
365.895
345.318
286.802
194.308
81.15
-38.253
-154.879
-266.549
-378.305
-492.694
-605.132
-704.563
-775.355
-808.441
-804.16
-770.162
-719.346
-660.848
-598.711
-533.805
-464.756
-392.773
-321.527
-255.437
-198.947
-154.146
-120.936
-98.256
-84.287
-77.249
-75.284
-75.957
-76.89
-76.151
-72.7
-66.501
-57.988
-47.774
-36.678
-25.709
-15.955
-8.465
-3.708
-1.56
-1.675
-3.513
-6.514
-10.181
-13.922
-17.138
-19.476
-20.78
-21.027
-20.335
-18.804
-16.506
-13.571
-10.135
-6.319
-2.246
1.994
6.321
10.64
14.861
18.897
22.662
26.088
29.118
31.72
33.897
35.668
37.064
38.125
38.897
39.431
39.794
40.043
40.236
40.425
40.652
40.965
41.41
42.032
42.868
43.948
45.284
46.888
48.766
50.918
53.343
56.034
58.979
62.165
65.585
69.227
73.081
77.134
81.37
85.771
90.32
94.998
99.787
104.671
109.628
114.641
119.689
124.753
129.812
134.843
139.821
144.72
149.514
154.177
158.685
163.013
167.137
171.037
174.692
178.084
181.192
183.997
186.475
188.608
190.382
191.787
192.817
193.473
193.76
193.688
193.268
192.51
191.417
189.991
188.225
186.112
183.646
180.829
177.674
174.191
170.39
166.281
161.867
157.148
152.113
146.75
141.039
134.976
128.568
121.842
114.846
107.634
100.275
92.824
85.328
77.828
70.364
62.976
55.707
48.605
41.727
35.14
28.917
23.12
17.79
12.944
8.572
4.647
1.123
-2.041
-4.875
-7.404
-9.647
-11.622
-13.346
-14.842
-16.135
-17.264
-18.281
-19.23
-20.147
-21.047
-21.929
-22.777
-23.56
-24.255
-24.84
-25.305
-25.645
-25.863
-25.963
-25.952
-25.841
-25.631
-25.313
-24.885
-24.34
-23.684
-22.93
-22.096
-21.208
-20.289
-19.362
-18.443
-17.547
-16.68
-15.849
-15.054
-14.294
-13.569
-12.881
-12.234
-11.631
-11.075
-10.564
-10.097
-9.67
-9.28
-8.922
-8.591
-8.284
-7.999
-7.732
-7.485
-7.257
-7.047
-6.856
-6.683
-6.526
-6.383
-6.253
-6.133
-6.022
-5.918
-5.818
-5.723
-5.632
-5.543
-5.457
-5.372
-5.29
-5.209
-5.13
-5.053
-4.979
-4.907
-4.839
-4.774
-4.713
-4.658
-4.609
-4.566
-4.531
-4.504
-4.485
-4.476
-4.475
-4.484
-4.503
-4.531
-4.57
-4.62
-4.68
-4.752
-4.837
-4.935
-5.046
-5.172
-5.312
-5.468
-5.641
-5.83
-6.036
-6.26
-6.502
-6.762
-7.041
-7.338
-7.652
-7.983
-8.329
-8.69
-9.065
-9.451
-9.848
-10.253
-10.666
-11.084
-11.504
-11.926
-12.346
-12.761
-13.169
-13.567
-13.951
-14.318
-14.664
-14.985
-15.277
-15.537
-15.759
-15.939
-16.073
-16.155
-16.181
-16.145
-16.045
-15.876
-15.636
-15.321
-14.929
-14.461
-13.916
-13.296
-12.6
-11.831
-10.99
-10.079
-9.103
-8.063
-6.964
-5.809
-4.604
-3.356
-2.072
-0.761
0.571
1.916
3.265
4.609
5.939
7.246
8.522
9.76
10.95
12.082
13.143
14.123
15.02
15.832
16.559
17.205
17.771
18.268
18.711
19.113
19.488
19.847
20.192
20.529
20.869
21.221
21.599
22.011
22.452
22.913
23.388
23.858
24.307
24.708
25.005
25.153
25.106
24.812
24.239
23.352
22.11
20.491
18.46
15.98
13.036
9.607
5.678
1.263
-3.644
-9.058
-14.898
-21.006
-27.139
-32.934
-38.065
-42.282
-45.319
-46.865
-46.73
-44.984
-42.008
-38.508
-35.219
-32.622
-31.029
-30.797
-32.253
-35.337
-39.358
-43.055
-44.393
-41.202
-32.7
-18.43
1.065
23.424
48.48
76.893
109.236
148.242
193.575
242.201
290.531
331.211
356.252
357.56
327.318
264.037
172.73
63.409
-52.052
-167.914
-284.929
-404.497
-525.62
-639.061
-729.091
-785.197
-803.458
-789.133
-754.875
-708.034
-652.718
-589.35
-515.102
-433.935
-351.339
-273.611
-208.388
-156.595
-117.406
-89.453
-69.079
-55.787
-49.356
-47.899
-49.998
-52.895
-53.814
-51.851
-46.927
-39.546
-30.512
-20.628
-10.741
-1.884
4.836
8.965
10.616
10.125
8.051
4.945
1.276
-2.374
-5.378
-7.38
-8.247
-7.987
-6.755
-4.681
-1.85
1.6
5.513
9.756
14.203
18.754
23.337
27.871
32.257
36.406
40.227
43.645
46.623
49.156
51.255
52.953
54.284
55.294
56.033
56.566
56.952
57.246
57.499
57.753
58.056
58.455
58.998
59.729
60.678
61.864
63.298
64.985
66.925
69.115
71.548
74.207
77.079
80.153
83.419
86.871
90.503
94.305
98.26
102.346
106.541
110.816
115.144
119.499
123.846
128.158
132.414
136.598
140.706
144.733
148.665
152.484
156.16
159.669
162.994
166.126
169.057
171.791
174.331
176.684
178.876
180.919
182.804
184.514
186.003
187.217
188.12
188.689
188.906
188.765
188.245
187.327
185.999
184.238
182.022
179.323
176.092
172.295
167.935
163.031
157.637
151.828
145.659
139.177
132.431
125.458
118.301
111.006
103.602
96.126
88.623
81.145
73.764
66.543
59.519
52.711
46.117
39.716
33.5
27.468
21.61
15.93
10.428
5.108
-0.015
-4.924
-9.614
-14.086
-18.353
-22.429
-26.315
-30.006
-33.492
-36.755
-39.784
-42.571
-45.105
-47.381
-49.4
-51.165
-52.688
-53.982
-55.061
-55.933
-56.607
-57.088
-57.387
-57.515
-57.484
-57.307
-56.999
-56.571
-56.04
-55.419
-54.72
-53.954
-53.13
-52.256
-51.339
-50.389
-49.412
-48.417
-47.411
-46.401
-45.395
-44.399
-43.42
-42.463
-41.531
-40.629
-39.76
-38.925
-38.127
-37.366
-36.645
-35.963
-35.321
-34.717
-34.153
-33.627
-33.138
-32.685
-32.266
-31.88
-31.526
-31.2
-30.902
-30.63
-30.381
-30.155
-29.949
-29.761
-29.591
-29.435
-29.292
-29.16
-29.037
-28.921
-28.809
-28.701
-28.595
-28.488
-28.38
-28.27
-28.157
-28.04
-27.918
-27.791
-27.658
-27.519
-27.375
-27.225
-27.07
-26.91
-26.747
-26.58
-26.411
-26.241
-26.07
-25.9
-25.731
-25.565
-25.403
-25.247
-25.098
-24.958
-24.828
-24.71
-24.606
-24.517
-24.445
-24.391
-24.358
-24.346
-24.357
-24.392
-24.452
-24.538
-24.651
-24.791
-24.958
-25.151
-25.369
-25.61
-25.873
-26.157
-26.458
-26.774
-27.102
-27.44
-27.784
-28.131
-28.477
-28.817
-29.149
-29.467
-29.766
-30.043
-30.293
-30.511
-30.693
-30.834
-30.93
-30.975
-30.965
-30.896
-30.763
-30.563
-30.291
-29.945
-29.522
-29.02
-28.44
-27.781
-27.045
-26.234
-25.351
-24.399
-23.382
-22.305
-21.173
-19.992
-18.767
-17.506
-16.215
-14.902
-13.575
-12.242
-10.914
-9.597
-8.3
-7.032
-5.801
-4.617
-3.488
-2.419
-1.418
-0.49
0.357
1.114
1.776
2.342
2.815
3.197
3.493
3.707
3.849
3.936
3.986
4.017
4.041
4.062
4.09
4.131
4.201
4.317
4.483
4.7
4.959
5.25
5.57
5.908
6.234
6.501
6.655
6.637
6.411
5.95
5.224
4.219
2.898
1.214
-0.863
-3.364
-6.303
-9.672
-13.501
-17.854
-22.679
-27.814
-32.99
-37.794
-41.9
-45.113
-47.177
-47.77
-46.732
-44.174
-40.553
-36.719
-33.465
-31.195
-30.26
-31.138
-34.034
-38.682
-44.248
-49.119
-51.579
-50.591
-45.068
-33.545
-15.049
11.08
44.257
81.732
120.829
159.514
196.627
233.044
268.678
300.369
322.034
323.586
295.333
234.021
143.352
33.808
-81.832
-196.403
-308.962
-420.813
-531.857
-635.943
-720.691
-774.833
-792.915
-776.247
-733.632
-675.898
-610.545
-542.225
-472.437
-400.961
-329.571
-261.518
-200.277
-149.219
-109.714
-81.195
-62.157
-50.622
-44.838
-42.864
-42.715
-42.58
-40.831
-36.786
-30.602
-22.677
-13.58
-4.119
4.955
12.808
18.55
21.914
23.079
22.376
20.335
17.489
14.282
11.257
8.971
7.708
7.564
8.518
10.414
13.134
16.585
20.621
25.083
29.828
34.732
39.699
44.653
49.499
54.133
58.455
62.368
65.82
68.793
71.286
73.325
74.942
76.177
77.085
77.728
78.168
78.461
78.663
78.82
78.987
79.219
79.568
80.091
80.825
81.795
83.02
84.511
86.269
88.297
90.588
93.133
95.928
98.968
102.243
105.746
109.462
113.374
117.461
121.7
126.056
130.501
135.004
139.534
144.076
148.612
153.123
157.592
161.996
166.32
170.561
174.723
178.805
182.809
186.736
190.589
194.397
198.188
201.977
205.778
209.581
213.368
217.131
220.864
224.546
228.148
231.606
234.836
237.775
240.362
242.536
244.233
245.357
245.806
245.511
244.419
242.501
239.745
236.121
231.593
226.164
219.86
212.751
204.944
196.525
187.572
178.181
168.455
158.536
148.58
138.704
128.997
119.542
110.405
101.678
93.467
85.836
78.817
72.413
66.585
61.315
56.592
52.375
48.608
45.21
42.077
39.14
36.364
33.706
31.13
28.582
25.989
23.311
20.532
17.646
14.664
11.592
8.426
5.186
1.912
-1.351
-4.541
-7.622
-10.581
-13.399
-16.063
-18.553
-20.84
-22.913
-24.776
-26.429
-27.878
-29.125
-30.168
-31.021
-31.707
-32.251
-32.682
-33.02
-33.274
-33.457
-33.578
-33.646
-33.672
-33.658
-33.603
-33.51
-33.382
-33.224
-33.042
-32.839
-32.613
-32.363
-32.089
-31.79
-31.468
-31.124
-30.761
-30.38
-29.985
-29.58
-29.172
-28.763
-28.357
-27.956
-27.561
-27.175
-26.8
-26.436
-26.084
-25.746
-25.424
-25.118
-24.831
-24.564
-24.319
-24.095
-23.895
-23.718
-23.566
-23.438
-23.334
-23.255
-23.2
-23.17
-23.165
-23.183
-23.226
-23.292
-23.379
-23.488
-23.617
-23.764
-23.928
-24.107
-24.301
-24.509
-24.728
-24.958
-25.199
-25.449
-25.707
-25.972
-26.244
-26.52
-26.801
-27.085
-27.371
-27.658
-27.946
-28.233
-28.519
-28.803
-29.084
-29.361
-29.634
-29.901
-30.162
-30.414
-30.657
-30.891
-31.113
-31.323
-31.521
-31.704
-31.871
-32.022
-32.155
-32.268
-32.359
-32.427
-32.469
-32.484
-32.469
-32.423
-32.343
-32.227
-32.074
-31.88
-31.645
-31.365
-31.039
-30.664
-30.24
-29.766
-29.24
-28.662
-28.034
-27.356
-26.631
-25.859
-25.044
-24.188
-23.294
-22.365
-21.406
-20.421
-19.411
-18.383
-17.342
-16.292
-15.24
-14.192
-13.153
-12.131
-11.131
-10.162
-9.23
-8.34
-7.496
-6.701
-5.96
-5.28
-4.667
-4.126
-3.657
-3.259
-2.931
-2.671
-2.473
-2.326
-2.209
-2.104
-1.996
-1.872
-1.727
-1.557
-1.351
-1.095
-0.777
-0.388
0.068
0.589
1.174
1.817
2.499
3.187
3.814
4.31
4.619
4.69
4.493
4.0
3.168
1.943
0.276
-1.88
-4.548
-7.732
-11.476
-15.837
-20.789
-26.195
-31.783
-37.163
-42.009
-46.09
-49.145
-50.858
-51.026
-49.686
-47.202
-44.268
-41.538
-39.381
-38.12
-38.131
-39.598
-42.439
-45.999
-48.857
-49.681
-46.951
-39.095
-25.483
-5.193
21.204
51.294
84.239
118.8
154.925
195.379
239.969
285.584
326.681
352.174
350.624
316.329
249.056
156.978
53.731
-51.367
-154.674
-258.168
-365.245
-473.536
-573.761
-652.393
-700.054
-714.325
-699.893
-667.143
-623.335
-572.678
-517.225
-456.277
-391.53
-326.267
-263.852
-208.256
-161.87
-125.278
-98.212
-79.328
-66.925
-59.665
-55.852
-53.731
-51.759
-48.449
-43.125
-35.925
-27.235
-17.568
-7.623
1.941
10.398
16.893
21.104
23.167
23.355
22.153
20.04
17.403
14.722
12.527
11.131
10.669
11.159
12.479
14.52
17.215
20.444
24.078
27.998
32.091
36.27
40.465
44.603
48.596
52.361
55.813
58.88
61.524
63.73
65.512
66.897
67.92
68.621
69.05
69.266
69.326
69.284
69.192
69.092
69.033
69.063
69.234
69.593
70.176
71.008
72.102
73.468
75.113
77.042
79.256
81.75
84.511
87.531
90.798
94.297
98.011
101.917
105.98
110.168
114.451
118.802
123.204
127.643
132.098
136.552
140.981
145.372
149.723
154.035
158.302
162.523
166.697
170.83
174.951
179.082
183.231
187.402
191.571
195.706
199.782
203.77
207.632
211.32
214.768
217.903
220.677
223.048
224.964
226.368
227.171
227.289
226.663
225.25
223.026
219.993
216.149
211.501
206.091
199.971
193.208
185.882
178.034
169.693
160.913
151.757
142.321
132.713
123.022
113.331
103.729
94.284
85.061
76.119
67.476
59.14
51.123
43.428
36.092
29.173
22.7
16.69
11.146
6.042
1.359
-2.93
-6.88
-10.536
-13.932
-17.102
-20.046
-22.761
-25.258
-27.543
-29.64
-31.593
-33.431
-35.176
-36.851
-38.458
-39.996
-41.455
-42.801
-44.002
-45.042
-45.909
-46.607
-47.146
-47.529
-47.761
-47.851
-47.795
-47.593
-47.25
-46.764
-46.142
-45.4
-44.555
-43.637
-42.676
-41.692
-40.703
-39.721
-38.754
-37.81
-36.895
-36.009
-35.155
-34.334
-33.55
-32.808
-32.111
-31.457
-30.846
-30.273
-29.733
-29.224
-28.742
-28.285
-27.85
-27.435
-27.042
-26.669
-26.319
-25.99
-25.682
-25.393
-25.122
-24.867
-24.627
-24.4
-24.184
-23.978
-23.781
-23.594
-23.416
-23.248
-23.09
-22.943
-22.807
-22.685
-22.578
-22.488
-22.415
-22.363
-22.333
-22.328
-22.35
-22.4
-22.482
-22.597
-22.746
-22.931
-23.154
-23.414
-23.713
-24.051
-24.428
-24.844
-25.298
-25.792
-26.323
-26.892
-27.497
-28.137
-28.809
-29.512
-30.242
-30.998
-31.776
-32.572
-33.383
-34.205
-35.033
-35.864
-36.692
-37.512
-38.32
-39.111
-39.878
-40.618
-41.325
-41.994
-42.62
-43.201
-43.731
-44.207
-44.627
-44.987
-45.285
-45.519
-45.69
-45.796
-45.836
-45.812
-45.725
-45.578
-45.374
-45.117
-44.81
-44.458
-44.066
-43.639
-43.184
-42.704
-42.205
-41.692
-41.171
-40.65
-40.136
-39.637
-39.159
-38.71
-38.294
-37.918
-37.584
-37.295
-37.049
-36.848
-36.693
-36.59
-36.543
-36.554
-36.624
-36.751
-36.93
-37.153
-37.407
-37.675
-37.941
-38.193
-38.421
-38.619
-38.783
-38.907
-38.98
-38.988
-38.914
-38.744
-38.469
-38.077
-37.579
-36.998
-36.37
-35.747
-35.172
-34.673
-34.29
-34.075
-34.079
-34.364
-34.987
-35.98
-37.426
-39.438
-42.053
-45.244
-48.859
-52.595
-56.204
-59.521
-62.307
-64.32
-65.442
-65.639
-65.241
-64.922
-65.167
-66.291
-68.519
-71.87
-76.261
-81.562
-87.13
-91.826
-94.598
-93.881
-87.954
-75.839
-57.105
-33.436
-8.033
16.901
40.807
66.78
99.398
141.055
191.473
244.975
292.919
326.416
335.242
312.705
257.249
172.34
69.018
-40.403
-148.261
-251.929
-354.105
-456.848
-555.455
-639.889
-699.501
-727.802
-726.229
-702.723
-665.251
-619.414
-567.825
-509.984
-446.778
-381.025
-315.849
-255.384
-202.681
-158.849
-124.414
-98.937
-81.096
-69.682
-63.407
-60.423
-59.09
-58.0
-55.773
-51.869
-46.437
-39.706
-32.15
-24.493
-17.328
-11.321
-7.18
-5.051
-4.744
-5.956
-8.188
-10.957
-13.856
-16.403
-18.142
-18.864
-18.505
-17.114
-14.84
-11.795
-8.084
-3.851
0.752
5.583
10.528
15.492
20.39
25.124
29.591
33.691
37.359
40.567
43.309
45.603
47.481
48.977
50.143
51.039
51.723
52.254
52.688
53.07
53.454
53.896
54.447
55.161
56.078
57.222
58.612
60.258
62.164
64.332
66.757
69.427
72.335
75.474
78.836
82.414
86.2
90.181
94.342
98.667
103.141
107.748
112.47
117.29
122.189
127.148
132.148
137.168
142.189
147.186
152.136
157.014
161.795
166.454
170.968
175.311
179.459
183.391
187.085
190.519
193.675
196.533
199.076
201.289
203.156
204.664
205.803
206.562
206.934
206.913
206.495
205.676
204.459
202.843
200.834
198.436
195.657
192.508
188.998
185.142
180.953
176.448
171.644
166.561
161.217
155.633
149.833
143.838
137.672
131.358
124.921
118.386
111.776
105.116
98.431
91.745
85.082
78.464
71.914
65.455
59.106
52.887
46.818
40.915
35.194
29.671
24.357
19.266
14.406
9.787
5.414
1.295
-2.568
-6.172
-9.517
-12.602
-15.431
-18.006
-20.332
-22.414
-24.26
-25.877
-27.275
-28.462
-29.45
-30.25
-30.872
-31.33
-31.636
-31.802
-31.841
-31.765
-31.588
-31.32
-30.975
-30.564
-30.098
-29.586
-29.04
-28.468
-27.879
-27.28
-26.678
-26.079
-25.489
-24.913
-24.354
-23.816
-23.302
-22.813
-22.351
-21.917
-21.511
-21.133
-20.782
-20.456
-20.155
-19.876
-19.618
-19.376
-19.15
-18.935
-18.729
-18.53
-18.334
-18.139
-17.943
-17.742
-17.535
-17.32
-17.096
-16.861
-16.615
-16.358
-16.089
-15.808
-15.516
-15.214
-14.902
-14.582
-14.255
-13.922
-13.585
-13.245
-12.904
-12.563
-12.225
-11.891
-11.562
-11.241
-10.93
-10.63
-10.344
-10.072
-9.818
-9.582
-9.367
-9.173
-9.003
-8.856
-8.735
-8.64
-8.571
-8.528
-8.512
-8.521
-8.556
-8.615
-8.698
-8.802
-8.926
-9.068
-9.226
-9.399
-9.584
-9.78
-9.985
-10.196
-10.413
-10.632
-10.853
-11.073
-11.29
-11.501
-11.705
-11.9
-12.081
-12.248
-12.398
-12.527
-12.634
-12.715
-12.768
-12.79
-12.778
-12.731
-12.646
-12.522
-12.357
-12.151
-11.903
-11.614
-11.286
-10.919
-10.517
-10.08
-9.612
-9.113
-8.588
-8.039
-7.468
-6.878
-6.271
-5.651
-5.024
-4.393
-3.765
-3.144
-2.535
-1.943
-1.373
-0.833
-0.327
0.142
0.569
0.949
1.278
1.547
1.751
1.893
1.974
2.0
1.977
1.911
1.814
1.703
1.593
1.5
1.436
1.406
1.418
1.483
1.612
1.821
2.117
2.496
2.952
3.479
4.063
4.692
5.34
5.954
6.494
6.917
7.174
7.232
7.055
6.597
5.832
4.723
3.227
1.323
-1.018
-3.824
-7.089
-10.821
-15.05
-19.703
-24.625
-29.581
-34.219
-38.218
-41.35
-43.362
-43.91
-42.796
-40.116
-36.26
-31.935
-27.868
-24.486
-22.071
-21.134
-22.15
-24.93
-28.644
-32.079
-33.065
-29.88
-22.227
-8.676
10.837
34.505
62.784
95.078
131.157
174.165
224.06
276.95
326.665
361.848
371.049
349.099
295.527
216.535
123.731
25.205
-74.244
-174.554
-280.991
-393.916
-508.544
-614.486
-695.5
-741.752
-751.045
-728.319
-686.19
-634.077
-576.968
-516.821
-451.902
-382.93
-313.06
-246.182
-186.923
-137.902
-99.814
-72.363
-54.045
-43.189
-38.332
-37.45
-38.56
-39.924
-39.871
-37.646
-33.325
-27.199
-19.798
-11.913
-4.269
2.329
7.013
9.52
10.009
8.789
6.388
3.326
0.045
-2.923
-5.058
-6.112
-6.009
-4.793
-2.629
0.36
4.067
8.333
12.995
17.9
22.925
27.974
32.958
37.775
42.314
46.466
50.163
53.374
56.09
58.327
60.115
61.484
62.487
63.186
63.638
63.901
64.03
64.071
64.082
64.122
64.246
64.512
64.962
65.624
66.522
67.668
69.067
70.719
72.62
74.76
77.135
79.746
82.588
85.657
88.941
92.426
96.096
99.93
103.9
107.971
112.109
116.285
120.482
124.689
128.893
133.081
137.237
141.345
145.399
149.395
153.327
157.182
160.95
164.63
168.237
171.806
175.361
178.911
182.443
185.932
189.354
192.68
195.873
198.882
201.64
204.082
206.162
207.846
209.101
209.884
210.13
209.761
208.716
206.963
204.49
201.301
197.406
192.827
187.608
181.823
175.565
168.917
161.944
154.694
147.22
139.581
131.857
124.134
116.481
108.951
101.585
94.418
87.486
80.808
74.382
68.187
62.184
56.348
50.672
45.156
39.804
34.611
29.567
24.663
19.9
15.28
10.807
6.483
2.304
-1.723
-5.583
-9.252
-12.703
-15.918
-18.889
-21.61
-24.083
-26.306
-28.281
-30.015
-31.518
-32.803
-33.879
-34.752
-35.431
-35.925
-36.247
-36.411
-36.433
-36.326
-36.102
-35.773
-35.35
-34.844
-34.265
-33.619
-32.913
-32.153
-31.349
-30.507
-29.637
-28.745
-27.838
-26.925
-26.011
-25.103
-24.206
-23.325
-22.462
-21.623
-20.808
-20.021
-19.263
-18.536
-17.84
-17.177
-16.546
-15.949
-15.385
-14.854
-14.356
-13.89
-13.456
-13.053
-12.681
-12.339
-12.027
-11.745
-11.492
-11.268
-11.073
-10.906
-10.766
-10.652
-10.562
-10.497
-10.453
-10.43
-10.427
-10.441
-10.472
-10.52
-10.582
-10.658
-10.747
-10.849
-10.963
-11.087
-11.223
-11.369
-11.524
-11.689
-11.862
-12.043
-12.233
-12.431
-12.635
-12.846
-13.064
-13.286
-13.514
-13.746
-13.981
-14.22
-14.461
-14.705
-14.952
-15.203
-15.458
-15.717
-15.983
-16.255
-16.536
-16.825
-17.125
-17.435
-17.757
-18.091
-18.438
-18.798
-19.171
-19.557
-19.955
-20.366
-20.79
-21.223
-21.666
-22.118
-22.576
-23.039
-23.505
-23.971
-24.436
-24.897
-25.354
-25.804
-26.244
-26.672
-27.084
-27.479
-27.851
-28.197
-28.509
-28.783
-29.012
-29.194
-29.322
-29.392
-29.401
-29.343
-29.218
-29.027
-28.767
-28.435
-28.028
-27.541
-26.975
-26.34
-25.641
-24.882
-24.068
-23.205
-22.302
-21.375
-20.432
-19.469
-18.486
-17.479
-16.453
-15.423
-14.402
-13.403
-12.429
-11.472
-10.535
-9.631
-8.765
-7.936
-7.133
-6.333
-5.538
-4.769
-4.044
-3.373
-2.75
-2.158
-1.591
-1.048
-0.54
-0.079
0.339
0.727
1.089
1.411
1.666
1.817
1.859
1.813
1.684
1.466
1.123
0.626
-0.036
-0.86
-1.84
-2.988
-4.334
-5.912
-7.739
-9.81
-12.098
-14.583
-17.285
-20.233
-23.446
-26.912
-30.577
-34.428
-38.519
-42.843
-47.306
-51.699
-55.666
-58.904
-61.241
-62.467
-62.296
-60.566
-57.339
-53.002
-48.325
-44.051
-40.577
-38.201
-37.368
-38.348
-40.986
-44.606
-47.763
-48.856
-46.96
-41.213
-30.298
-13.089
11.319
42.525
77.998
115.219
152.341
189.362
227.827
266.447
301.315
324.32
324.043
294.277
233.436
146.591
46.403
-58.381
-162.564
-265.189
-371.673
-482.0
-590.556
-687.35
-757.542
-792.758
-792.683
-763.72
-717.753
-662.55
-600.071
-528.954
-447.037
-357.938
-271.572
-198.521
-146.029
-114.47
-97.161
-86.674
-78.424
-71.124
-66.48
-65.329
-66.282
-67.048
-65.344
-60.363
-52.619
-43.045
-32.784
-22.814
-14.058
-7.466
-3.433
-1.84
-2.331
-4.342
-7.33
-10.82
-14.254
-17.058
-18.891
-19.627
-19.284
-17.997
-15.884
-13.026
-9.549
-5.599
-1.307
3.207
7.845
12.536
17.199
21.735
26.053
30.062
33.686
36.888
39.659
42.007
43.958
45.544
46.806
47.797
48.577
49.208
49.745
50.241
50.741
51.295
51.955
52.768
53.781
55.024
56.514
58.265
60.281
62.567
65.119
67.931
70.99
74.285
77.807
81.547
85.495
89.639
93.965
98.455
103.093
107.861
112.742
117.717
122.766
127.87
133.007
138.157
143.298
148.409
153.463
158.438
163.306
168.043
172.624
177.023
181.216
185.179
188.891
192.331
195.478
198.315
200.825
202.99
204.799
206.237
207.296
207.964
208.236
208.107
207.572
206.63
205.282
203.531
201.381
198.838
195.911
192.61
188.946
184.933
180.586
175.923
170.961
165.72
160.222
154.487
148.539
142.402
136.099
129.655
123.096
116.445
109.729
102.972
96.199
89.434
82.701
76.024
69.425
62.926
56.547
50.309
44.231
38.329
32.62
27.119
21.839
16.793
11.99
7.439
3.149
-0.877
-4.633
-8.117
-11.328
-14.267
-16.936
-19.338
-21.478
-23.362
-24.995
-26.388
-27.547
-28.484
-29.207
-29.729
-30.061
-30.216
-30.204
-30.041
-29.737
-29.307
-28.763
-28.119
-27.386
-26.578
-25.706
-24.782
-23.819
-22.826
-21.813
-20.791
-19.768
-18.752
-17.751
-16.77
-15.817
-14.895
-14.01
-13.164
-12.361
-11.602
-10.891
-10.227
-9.613
-9.047
-8.529
-8.059
-7.637
-7.259
-6.925
-6.633
-6.381
-6.166
-5.985
-5.837
-5.717
-5.624
-5.554
-5.505
-5.472
-5.455
-5.449
-5.452
-5.462
-5.477
-5.495
-5.514
-5.533
-5.55
-5.567
-5.58
-5.592
-5.6
-5.606
-5.61
-5.611
-5.611
-5.609
-5.608
-5.606
-5.605
-5.607
-5.61
-5.618
-5.63
-5.647
-5.671
-5.704
-5.746
-5.798
-5.864
-5.943
-6.038
-6.15
-6.281
-6.432
-6.605
-6.801
-7.021
-7.265
-7.536
-7.832
-8.156
-8.506
-8.882
-9.286
-9.715
-10.172
-10.653
-11.161
-11.693
-12.25
-12.83
-13.433
-14.058
-14.703
-15.367
-16.048
-16.745
-17.455
-18.176
-18.905
-19.639
-20.374
-21.108
-21.837
-22.556
-23.261
-23.948
-24.613
-25.251
-25.859
-26.43
-26.962
-27.45
-27.89
-28.277
-28.608
-28.879
-29.086
-29.225
-29.292
-29.284
-29.198
-29.03
-28.778
-28.441
-28.016
-27.503
-26.902
-26.214
-25.441
-24.585
-23.649
-22.636
-21.551
-20.398
-19.183
-17.911
-16.589
-15.222
-13.821
-12.392
-10.945
-9.49
-8.035
-6.59
-5.164
-3.765
-2.405
-1.092
0.167
1.363
2.489
3.535
4.49
5.347
6.104
6.76
7.318
7.783
8.157
8.45
8.678
8.853
8.989
9.098
9.183
9.254
9.32
9.393
9.491
9.624
9.791
9.987
10.204
10.426
10.641
10.824
10.922
10.895
10.696
10.274
9.604
8.65
7.373
5.751
3.744
1.311
-1.565
-4.914
-8.75
-13.053
-17.834
-23.121
-28.825
-34.79
-40.76
-46.348
-51.232
-55.181
-57.902
-59.038
-58.389
-56.032
-52.381
-48.222
-44.327
-41.165
-39.181
-38.993
-40.979
-44.966
-50.186
-55.114
-58.003
-57.659
-52.829
-41.813
-23.298
3.542
38.142
77.826
119.698
161.21
201.057
239.984
277.076
308.727
328.223
324.277
288.345
219.222
121.304
6.268
-114.319
-236.779
-359.377
-480.613
-596.423
-694.254
-761.589
-792.656
-788.035
-756.87
-710.764
-656.664
-598.088
-535.146
-466.907
-395.404
-324.406
-258.382
-201.608
-156.143
-122.113
-98.646
-84.093
-76.718
-74.654
-75.512
-76.856
-76.609
-73.596
-67.64
-59.075
-48.495
-36.694
-24.671
-13.575
-4.566
1.782
5.499
6.854
6.335
4.459
1.694
-1.381
-4.142
-6.22
-7.453
-7.778
-7.286
-6.055
-4.125
-1.612
1.355
4.675
8.246
11.993
15.862
19.769
23.633
27.386
30.952
34.276
37.31
40.004
42.338
44.322
45.97
47.318
48.408
49.279
49.987
50.591
51.145
51.703
52.311
53.007
53.835
54.833
56.039
57.487
59.201
61.193
63.471
66.039
68.894
72.032
75.442
79.107
83.012
87.144
91.487
96.027
100.748
105.628
110.647
115.784
121.018
126.327
131.69
137.085
142.489
147.88
153.234
158.527
163.734
168.827
173.78
178.564
183.153
187.521
191.643
195.496
199.062
202.321
205.252
207.837
210.053
211.886
213.324
214.357
214.98
215.195
215.005
214.427
213.478
212.169
210.51
208.505
206.149
203.445
200.394
196.993
193.255
189.186
184.792
180.088
175.085
169.783
164.179
158.253
151.982
145.361
138.4
131.119
123.562
115.771
107.8
99.72
91.587
83.455
75.373
67.38
59.511
51.82
44.363
37.213
30.452
24.138
18.309
12.996
8.198
3.904
0.086
-3.313
-6.34
-9.03
-11.417
-13.517
-15.346
-16.935
-18.318
-19.534
-20.643
-21.683
-22.684
-23.679
-24.675
-25.668
-26.646
-27.569
-28.406
-29.139
-29.755
-30.255
-30.645
-30.922
-31.087
-31.143
-31.083
-30.904
-30.608
-30.19
-29.658
-29.023
-28.305
-27.532
-26.732
-25.923
-25.121
-24.335
-23.572
-22.838
-22.137
-21.467
-20.83
-20.228
-19.663
-19.14
-18.661
-18.225
-17.831
-17.476
-17.153
-16.861
-16.597
-16.358
-16.143
-15.952
-15.783
-15.638
-15.518
-15.423
-15.351
-15.303
-15.275
-15.268
-15.279
-15.306
-15.349
-15.404
-15.472
-15.551
-15.639
-15.736
-15.841
-15.952
-16.068
-16.188
-16.312
-16.438
-16.565
-16.693
-16.821
-16.948
-17.075
-17.199
-17.321
-17.44
-17.556
-17.668
-17.776
-17.878
-17.976
-18.068
-18.154
-18.233
-18.307
-18.374
-18.434
-18.489
-18.538
-18.582
-18.622
-18.659
-18.693
-18.727
-18.761
-18.797
-18.837
-18.881
-18.932
-18.992
-19.061
-19.142
-19.237
-19.347
-19.473
-19.618
-19.782
-19.966
-20.172
-20.4
-20.65
-20.922
-21.218
-21.535
-21.874
-22.233
-22.612
-23.01
-23.426
-23.857
-24.301
-24.757
-25.221
-25.69
-26.16
-26.628
-27.09
-27.54
-27.975
-28.389
-28.777
-29.135
-29.458
-29.739
-29.974
-30.157
-30.283
-30.348
-30.348
-30.277
-30.134
-29.916
-29.62
-29.246
-28.794
-28.264
-27.657
-26.976
-26.221
-25.396
-24.504
-23.551
-22.538
-21.472
-20.357
-19.2
-18.009
-16.791
-15.554
-14.307
-13.057
-11.815
-10.591
-9.394
-8.231
-7.109
-6.035
-5.014
-4.056
-3.17
-2.36
-1.629
-0.977
-0.405
0.088
0.503
0.852
1.15
1.415
1.66
1.889
2.106
2.314
2.522
2.739
2.977
3.238
3.521
3.825
4.153
4.506
4.877
5.235
5.53
5.707
5.723
5.544
5.15
4.521
3.624
2.408
0.829
-1.153
-3.572
-6.442
-9.817
-13.776
-18.3
-23.281
-28.481
-33.534
-38.152
-42.137
-45.256
-47.263
-48.037
-47.542
-46.131
-44.525
-43.253
-42.747
-43.269
-44.813
-47.522
-51.572
-56.397
-60.912
-63.417
-61.463
-53.662
-39.846
-21.608
-1.775
18.032
38.09
62.715
97.02
143.497
201.992
264.985
321.503
361.57
374.301
353.984
301.183
219.275
117.612
7.493
-104.266
-213.849
-321.995
-431.803
-541.09
-642.569
-724.946
-777.025
-794.276
-779.714
-742.692
-692.239
-633.461
-567.675
-492.431
-409.361
-324.756
-245.952
-181.936
-135.811
-104.261
-83.638
-68.712
-56.895
-49.665
-46.733
-47.199
-49.555
-50.66
-49.076
-44.958
-38.628
-30.904
-22.738
-14.777
-7.852
-2.92
-0.267
0.292
-0.905
-3.298
-6.34
-9.588
-12.497
-14.521
-15.404
-15.083
-13.617
-11.186
-7.929
-3.961
0.555
5.447
10.563
15.777
20.992
26.12
31.059
35.701
39.937
43.7
46.96
49.712
51.973
53.776
55.158
56.175
56.891
57.369
57.67
57.852
57.966
58.068
58.216
58.466
58.875
59.485
60.323
61.413
62.768
64.395
66.298
68.473
70.91
73.604
76.548
79.735
83.157
86.805
90.666
94.732
98.993
103.435
108.039
112.779
117.634
122.584
127.606
132.677
137.768
142.852
147.908
152.925
157.892
162.788
167.586
172.251
176.749
181.057
185.163
189.06
192.735
196.173
199.362
202.302
205.001
207.456
209.643
211.518
213.046
214.21
215.011
215.459
215.558
215.299
214.661
213.62
212.162
210.269
207.922
205.092
201.743
197.865
193.48
188.636
183.367
177.689
171.598
165.084
158.155
150.841
143.184
135.236
127.051
118.703
110.268
101.828
93.466
85.238
77.177
69.296
61.621
54.195
47.077
40.335
34.015
28.145
22.74
17.799
13.306
9.217
5.49
2.079
-1.057
-3.939
-6.578
-8.977
-11.148
-13.109
-14.893
-16.544
-18.094
-19.571
-20.99
-22.356
-23.659
-24.873
-25.971
-26.932
-27.742
-28.398
-28.903
-29.266
-29.494
-29.599
-29.585
-29.447
-29.187
-28.802
-28.299
-27.69
-26.993
-26.235
-25.44
-24.631
-23.828
-23.042
-22.286
-21.565
-20.884
-20.242
-19.641
-19.084
-18.575
-18.118
-17.716
-17.368
-17.073
-16.827
-16.625
-16.464
-16.338
-16.244
-16.178
-16.137
-16.12
-16.127
-16.156
-16.205
-16.273
-16.356
-16.452
-16.559
-16.672
-16.789
-16.907
-17.023
-17.136
-17.243
-17.344
-17.437
-17.52
-17.594
-17.657
-17.71
-17.753
-17.785
-17.808
-17.823
-17.83
-17.83
-17.826
-17.818
-17.809
-17.799
-17.791
-17.786
-17.786
-17.791
-17.803
-17.824
-17.855
-17.896
-17.949
-18.015
-18.095
-18.19
-18.302
-18.432
-18.579
-18.745
-18.93
-19.134
-19.358
-19.601
-19.863
-20.144
-20.442
-20.759
-21.093
-21.443
-21.809
-22.189
-22.584
-22.991
-23.41
-23.84
-24.28
-24.73
-25.188
-25.653
-26.126
-26.605
-27.09
-27.581
-28.076
-28.575
-29.077
-29.582
-30.087
-30.592
-31.096
-31.597
-32.095
-32.588
-33.076
-33.556
-34.028
-34.49
-34.941
-35.378
-35.799
-36.204
-36.588
-36.95
-37.288
-37.599
-37.881
-38.13
-38.343
-38.517
-38.65
-38.736
-38.774
-38.759
-38.688
-38.558
-38.367
-38.113
-37.794
-37.41
-36.962
-36.449
-35.873
-35.234
-34.533
-33.772
-32.953
-32.079
-31.151
-30.172
-29.146
-28.078
-26.974
-25.84
-24.681
-23.504
-22.315
-21.121
-19.929
-18.749
-17.584
-16.442
-15.329
-14.255
-13.232
-12.267
-11.365
-10.525
-9.748
-9.031
-8.37
-7.758
-7.178
-6.614
-6.053
-5.481
-4.894
-4.283
-3.641
-2.955
-2.213
-1.408
-0.547
0.36
1.303
2.265
3.223
4.139
4.952
5.602
6.028
6.165
5.966
5.376
4.348
2.85
0.844
-1.704
-4.816
-8.506
-12.792
-17.649
-23.061
-29.033
-35.438
-42.063
-48.623
-54.689
-59.881
-63.954
-66.603
-67.467
-66.497
-63.846
-59.925
-55.613
-51.573
-48.155
-45.825
-44.969
-45.624
-47.51
-49.676
-50.583
-48.464
-41.811
-29.959
-12.037
11.245
38.094
68.516
101.278
136.46
175.867
217.703
259.529
296.654
320.497
323.139
297.613
241.293
158.381
57.473
-51.305
-162.008
-274.484
-390.1
-507.836
-620.173
-713.14
-774.171
-797.434
-784.78
-745.6
-690.509
-626.301
-556.763
-483.047
-405.691
-327.584
-253.065
-186.605
-132.16
-91.415
-63.952
-48.082
-41.312
-41.261
-45.327
-50.834
-55.434
-57.211
-55.33
-49.987
-41.829
-31.731
-20.819
-10.212
-1.002
5.825
9.942
11.524
10.97
8.867
5.804
2.324
-0.996
-3.619
-5.26
-5.826
-5.35
-3.968
-1.794
1.073
4.501
8.35
12.5
16.848
21.311
25.816
30.285
34.627
38.756
42.596
46.081
49.176
51.874
54.185
56.137
57.763
59.107
60.219
61.157
61.978
62.736
63.477
64.245
65.084
66.039
67.153
68.465
70.003
71.782
73.811
76.097
78.642
81.443
84.491
87.772
91.274
94.99
98.914
103.038
107.348
111.824
116.448
121.196
126.043
130.964
135.922
140.886
145.822
150.703
155.51
160.225
164.829
169.301
173.617
177.761
181.73
185.527
189.15
192.608
195.905
199.057
202.098
205.05
207.93
210.751
213.505
216.175
218.748
221.211
223.542
225.721
227.701
229.421
230.828
231.863
232.467
232.58
232.117
231.002
229.176
226.588
223.218
219.069
214.138
208.432
201.966
194.753
186.839
178.304
169.226
159.689
149.779
139.59
129.242
118.863
108.576
98.488
88.677
79.199
70.115
61.486
53.368
45.826
38.89
32.558
26.827
21.683
17.115
13.096
9.576
6.481
3.729
1.259
-0.971
-2.989
-4.825
-6.518
-8.112
-9.654
-11.173
-12.677
-14.175
-15.677
-17.192
-18.721
-20.246
-21.729
-23.124
-24.405
-25.56
-26.582
-27.469
-28.214
-28.804
-29.231
-29.5
-29.618
-29.59
-29.42
-29.112
-28.674
-28.126
-27.494
-26.811
-26.097
-25.369
-24.636
-23.909
-23.199
-22.514
-21.858
-21.231
-20.633
-20.067
-19.536
-19.043
-18.589
-18.172
-17.786
-17.429
-17.095
-16.784
-16.492
-16.218
-15.959
-15.716
-15.488
-15.278
-15.087
-14.913
-14.756
-14.616
-14.491
-14.381
-14.284
-14.199
-14.125
-14.061
-14.007
-13.961
-13.925
-13.897
-13.876
-13.864
-13.858
-13.86
-13.868
-13.883
-13.905
-13.934
-13.97
-14.014
-14.066
-14.126
-14.195
-14.272
-14.359
-14.454
-14.559
-14.671
-14.793
-14.922
-15.058
-15.202
-15.352
-15.508
-15.67
-15.838
-16.012
-16.191
-16.377
-16.568
-16.766
-16.969
-17.179
-17.394
-17.616
-17.845
-18.081
-18.324
-18.575
-18.833
-19.099
-19.373
-19.653
-19.94
-20.232
-20.527
-20.825
-21.124
-21.421
-21.716
-22.005
-22.288
-22.563
-22.829
-23.084
-23.327
-23.555
-23.767
-23.961
-24.133
-24.279
-24.393
-24.471
-24.508
-24.502
-24.447
-24.341
-24.177
-23.953
-23.669
-23.321
-22.906
-22.417
-21.846
-21.192
-20.46
-19.659
-18.797
-17.877
-16.908
-15.899
-14.864
-13.81
-12.739
-11.642
-10.509
-9.34
-8.141
-6.927
-5.716
-4.512
-3.311
-2.105
-0.895
0.321
1.546
2.794
4.084
5.417
6.77
8.105
9.382
10.582
11.702
12.748
13.729
14.648
15.498
16.275
16.982
17.613
18.162
18.602
18.902
19.062
19.112
19.093
19.049
18.991
18.906
18.782
18.591
18.292
17.856
17.237
16.385
15.275
13.872
12.153
10.109
7.701
4.898
1.657
-2.072
-6.303
-11.032
-16.249
-21.885
-27.866
-34.151
-40.593
-46.974
-53.026
-58.315
-62.471
-65.241
-66.273
-65.304
-62.332
-57.487
-51.323
-44.742
-38.431
-33.041
-29.273
-27.397
-27.308
-28.546
-29.833
-29.646
-26.597
-18.978
-5.285
15.521
43.282
76.12
111.683
147.563
183.319
220.517
258.269
293.013
316.511
316.19
284.358
220.064
130.268
28.773
-74.208
-175.241
-276.816
-382.64
-490.746
-591.473
-669.971
-716.013
-726.837
-707.539
-670.002
-622.634
-570.089
-514.265
-453.533
-388.877
-323.352
-260.356
-204.173
-157.37
-120.569
-93.558
-75.03
-63.412
-57.458
-55.465
-55.634
-56.323
-55.917
-53.61
-49.402
-43.525
-36.389
-28.654
-20.956
-14.05
-8.824
-5.603
-4.286
-4.626
-6.167
-8.448
-11.086
-13.586
-15.412
-16.288
-16.116
-14.915
-12.841
-10.009
-6.509
-2.483
1.91
6.536
11.275
16.044
20.781
25.404
29.823
33.951
37.705
41.043
43.95
46.428
48.503
50.205
51.574
52.66
53.521
54.212
54.788
55.297
55.782
56.29
56.87
57.568
58.433
59.499
60.791
62.324
64.106
66.143
68.44
70.996
73.806
76.865
80.164
83.694
87.445
91.401
95.543
99.846
104.276
108.807
113.414
118.074
122.767
127.47
132.156
136.805
141.393
145.904
150.332
154.667
158.909
163.071
167.167
171.219
175.261
179.305
183.358
187.421
191.49
195.561
199.627
203.665
207.654
211.57
215.376
219.029
222.472
225.609
228.348
230.592
232.237
233.204
233.431
232.85
231.414
229.087
225.849
221.704
216.657
210.707
203.861
196.147
187.626
178.413
168.627
158.383
147.812
137.031
126.157
115.327
104.65
94.214
84.088
74.329
64.992
56.159
47.91
40.296
33.335
27.003
21.266
16.102
11.469
7.32
3.589
0.188
-2.947
-5.851
-8.546
-11.054
-13.401
-15.64
-17.825
-19.986
-22.137
-24.276
-26.397
-28.504
-30.589
-32.629
-34.584
-36.402
-38.049
-39.518
-40.806
-41.915
-42.84
-43.568
-44.09
-44.41
-44.537
-44.48
-44.249
-43.848
-43.291
-42.602
-41.814
-40.962
-40.074
-39.166
-38.252
-37.345
-36.458
-35.602
-34.786
-34.011
-33.28
-32.599
-31.972
-31.406
-30.903
-30.461
-30.075
-29.743
-29.46
-29.225
-29.033
-28.883
-28.77
-28.694
-28.653
-28.647
-28.675
-28.733
-28.818
-28.927
-29.057
-29.204
-29.364
-29.533
-29.707
-29.884
-30.059
-30.231
-30.396
-30.552
-30.697
-30.828
-30.944
-31.043
-31.125
-31.187
-31.23
-31.254
-31.26
-31.247
-31.217
-31.17
-31.109
-31.034
-30.948
-30.852
-30.747
-30.636
-30.521
-30.403
-30.285
-30.169
-30.056
-29.95
-29.851
-29.762
-29.686
-29.624
-29.579
-29.55
-29.542
-29.555
-29.59
-29.65
-29.734
-29.844
-29.981
-30.146
-30.339
-30.559
-30.808
-31.085
-31.39
-31.721
-32.079
-32.462
-32.869
-33.297
-33.745
-34.212
-34.694
-35.188
-35.693
-36.206
-36.723
-37.243
-37.761
-38.275
-38.781
-39.276
-39.756
-40.218
-40.658
-41.071
-41.454
-41.804
-42.115
-42.385
-42.61
-42.784
-42.905
-42.969
-42.972
-42.911
-42.782
-42.583
-42.311
-41.965
-41.544
-41.047
-40.475
-39.829
-39.111
-38.323
-37.468
-36.55
-35.571
-34.538
-33.453
-32.321
-31.149
-29.94
-28.702
-27.441
-26.166
-24.883
-23.6
-22.326
-21.066
-19.83
-18.627
-17.464
-16.347
-15.281
-14.273
-13.329
-12.461
-11.672
-10.965
-10.338
-9.786
-9.308
-8.899
-8.551
-8.247
-7.973
-7.71
-7.449
-7.186
-6.916
-6.63
-6.314
-5.952
-5.534
-5.066
-4.557
-4.016
-3.451
-2.872
-2.312
-1.822
-1.456
-1.274
-1.318
-1.62
-2.215
-3.131
-4.407
-6.095
-8.238
-10.862
-13.975
-17.553
-21.599
-26.166
-31.214
-36.58
-41.989
-47.032
-51.375
-54.847
-57.204
-58.078
-57.269
-54.814
-51.127
-47.103
-43.453
-40.568
-39.01
-39.414
-42.163
-46.711
-51.167
-53.154
-51.368
-46.802
-41.32
-35.101
-25.184
-5.958
26.874
73.772
130.146
188.89
245.323
295.0
334.34
358.413
357.216
324.519
259.787
168.948
65.408
-40.648
-145.597
-251.257
-361.094
-472.879
-576.974
-659.315
-710.047
-726.749
-714.628
-684.374
-643.309
-595.588
-542.81
-483.665
-419.597
-353.583
-288.792
-229.777
-179.584
-139.186
-108.74
-87.169
-72.811
-64.619
-61.195
-60.452
-60.424
-59.3
-56.012
-50.552
-43.308
-34.63
-25.095
-15.527
-6.835
-0.05
4.318
6.384
6.458
4.999
2.496
-0.608
-3.774
-6.401
-8.119
-8.796
-8.422
-7.126
-5.024
-2.186
1.263
5.18
9.439
13.917
18.519
23.171
27.783
32.256
36.496
40.409
43.92
46.99
49.603
51.771
53.521
54.885
55.903
56.622
57.099
57.391
57.553
57.635
57.685
57.752
57.888
58.143
58.566
59.19
60.039
61.124
62.452
64.031
65.864
67.952
70.292
72.873
75.687
78.727
81.98
85.431
89.059
92.832
96.72
100.695
104.731
108.811
112.921
117.043
121.159
125.252
129.309
133.331
137.323
141.282
145.211
149.111
152.99
156.877
160.794
164.751
168.755
172.789
176.831
180.859
184.845
188.754
192.535
196.12
199.425
202.39
204.952
207.054
208.634
209.607
209.899
209.461
208.255
206.271
203.514
199.988
195.709
190.722
185.085
178.885
172.223
165.181
157.832
150.254
142.522
134.732
126.973
119.31
111.796
104.473
97.373
90.531
83.974
77.702
71.706
65.961
60.429
55.091
49.935
44.948
40.119
35.43
30.865
26.422
22.108
17.927
13.883
9.978
6.211
2.598
-0.847
-4.105
-7.152
-9.977
-12.575
-14.939
-17.069
-18.965
-20.631
-22.076
-23.314
-24.357
-25.216
-25.9
-26.419
-26.786
-27.015
-27.12
-27.115
-27.012
-26.824
-26.561
-26.234
-25.851
-25.422
-24.951
-24.445
-23.909
-23.349
-22.771
-22.182
-21.586
-20.987
-20.391
-19.802
-19.222
-18.654
-18.101
-17.562
-17.04
-16.535
-16.047
-15.577
-15.124
-14.687
-14.267
-13.863
-13.474
-13.099
-12.738
-12.39
-12.055
-11.732
-11.421
-11.122
-10.835
-10.56
-10.297
-10.048
-9.812
-9.59
-9.382
-9.189
-9.012
-8.851
-8.707
-8.581
-8.473
-8.383
-8.314
-8.264
-8.235
-8.226
-8.239
-8.274
-8.33
-8.407
-8.506
-8.625
-8.763
-8.921
-9.097
-9.289
-9.498
-9.72
-9.954
-10.199
-10.453
-10.714
-10.979
-11.247
-11.515
-11.783
-12.047
-12.306
-12.558
-12.801
-13.034
-13.255
-13.463
-13.657
-13.836
-14.0
-14.149
-14.282
-14.399
-14.503
-14.593
-14.67
-14.736
-14.793
-14.842
-14.886
-14.926
-14.966
-15.008
-15.053
-15.106
-15.167
-15.24
-15.326
-15.428
-15.546
-15.684
-15.841
-16.019
-16.218
-16.439
-16.683
-16.948
-17.235
-17.542
-17.868
-18.211
-18.569
-18.938
-19.317
-19.701
-20.085
-20.467
-20.84
-21.201
-21.542
-21.859
-22.146
-22.396
-22.604
-22.763
-22.868
-22.913
-22.894
-22.806
-22.646
-22.411
-22.099
-21.71
-21.242
-20.696
-20.072
-19.371
-18.596
-17.749
-16.832
-15.848
-14.803
-13.702
-12.553
-11.361
-10.135
-8.883
-7.613
-6.335
-5.059
-3.794
-2.549
-1.333
-0.157
0.969
2.031
3.017
3.923
4.745
5.481
6.133
6.703
7.196
7.627
8.009
8.356
8.679
8.984
9.279
9.576
9.885
10.226
10.611
11.037
11.498
11.987
12.486
12.979
13.437
13.802
14.023
14.044
13.802
13.26
12.375
11.098
9.397
7.226
4.533
1.296
-2.508
-6.901
-11.852
-17.363
-23.465
-30.03
-36.862
-43.693
-50.088
-55.707
-60.357
-63.701
-65.346
-65.206
-63.346
-60.147
-56.497
-52.992
-49.878
-47.634
-46.719
-47.131
-48.671
-50.48
-50.751
-48.179
-41.995
-30.98
-13.955
9.76
40.675
77.504
116.858
156.225
194.109
230.498
266.474
300.355
326.52
335.611
318.241
269.865
192.586
96.038
-8.188
-112.514
-214.23
-316.585
-423.34
-532.103
-634.638
-717.334
-767.345
-779.939
-758.565
-713.578
-656.329
-593.81
-528.456
-459.578
-387.365
-314.356
-244.946
-184.032
-134.432
-96.988
-71.181
-55.238
-47.346
-45.766
-48.084
-51.961
-55.416
-56.712
-55.143
-50.858
-44.226
-35.891
-26.815
-17.905
-10.098
-4.302
-0.777
0.649
0.31
-1.269
-3.557
-6.1
-8.379
-9.886
-10.386
-9.827
-8.265
-5.874
-2.785
0.898
5.033
9.472
14.087
18.769
23.431
28.01
32.428
36.598
40.441
43.879
46.875
49.419
51.524
53.222
54.549
55.547
56.267
56.767
57.105
57.337
57.511
57.67
57.861
58.133
58.534
59.112
59.901
60.921
62.19
63.717
65.507
67.56
69.873
72.437
75.245
78.294
81.581
85.097
88.83
92.764
96.877
101.149
105.554
110.058
114.632
119.243
123.863
128.473
133.057
137.594
142.065
146.448
150.725
154.894
158.954
162.903
166.745
170.479
174.116
177.684
181.202
184.681
188.135
191.551
194.913
198.21
201.425
204.534
207.511
210.304
212.849
215.098
216.992
218.474
219.486
219.943
219.776
218.93
217.348
214.997
211.862
207.924
203.18
197.644
191.325
184.268
176.547
168.219
159.361
150.059
140.395
130.477
120.419
110.323
100.3
90.462
80.893
71.68
62.901
54.616
46.896
39.788
33.3
27.45
22.235
17.64
13.654
10.247
7.367
4.964
2.973
1.31
-0.082
-1.259
-2.278
-3.185
-4.039
-4.889
-5.757
-6.661
-7.613
-8.615
-9.679
-10.807
-11.982
-13.181
-14.376
-15.522
-16.594
-17.575
-18.443
-19.184
-19.78
-20.216
-20.492
-20.616
-20.596
-20.439
-20.153
-19.741
-19.224
-18.621
-17.954
-17.252
-16.533
-15.811
-15.099
-14.411
-13.753
-13.136
-12.561
-12.026
-11.531
-11.075
-10.658
-10.284
-9.948
-9.646
-9.376
-9.132
-8.913
-8.716
-8.539
-8.38
-8.238
-8.113
-8.005
-7.916
-7.846
-7.795
-7.761
-7.744
-7.744
-7.759
-7.789
-7.833
-7.89
-7.96
-8.041
-8.134
-8.238
-8.353
-8.477
-8.612
-8.756
-8.909
-9.071
-9.241
-9.421
-9.609
-9.805
-10.009
-10.22
-10.438
-10.663
-10.893
-11.127
-11.366
-11.607
-11.851
-12.095
-12.34
-12.583
-12.824
-13.062
-13.295
-13.523
-13.745
-13.959
-14.166
-14.364
-14.553
-14.732
-14.902
-15.063
-15.213
-15.354
-15.486
-15.609
-15.724
-15.831
-15.933
-16.029
-16.121
-16.21
-16.299
-16.388
-16.479
-16.574
-16.674
-16.781
-16.897
-17.024
-17.164
-17.318
-17.489
-17.677
-17.886
-18.114
-18.365
-18.637
-18.931
-19.248
-19.586
-19.945
-20.323
-20.72
-21.134
-21.563
-22.003
-22.453
-22.909
-23.367
-23.824
-24.275
-24.716
-25.142
-25.55
-25.933
-26.287
-26.607
-26.888
-27.125
-27.313
-27.445
-27.517
-27.524
-27.462
-27.327
-27.114
-26.822
-26.449
-25.994
-25.458
-24.84
-24.142
-23.365
-22.513
-21.587
-20.593
-19.533
-18.413
-17.238
-16.014
-14.749
-13.452
-12.131
-10.794
-9.45
-8.108
-6.778
-5.47
-4.192
-2.953
-1.76
-0.622
0.451
1.447
2.357
3.178
3.909
4.549
5.102
5.569
5.96
6.291
6.576
6.829
7.064
7.285
7.5
7.721
7.956
8.223
8.53
8.876
9.26
9.676
10.111
10.553
10.974
11.32
11.543
11.59
11.405
10.954
10.189
9.072
7.579
5.673
3.322
0.499
-2.831
-6.685
-11.036
-15.874
-21.197
-26.901
-32.818
-38.68
-44.081
-48.704
-52.366
-54.87
-55.949
-55.462
-53.469
-50.31
-46.728
-43.338
-40.269
-37.702
-36.111
-35.851
-37.016
-38.592
-38.154
-33.856
-25.499
-14.826
-4.349
5.552
17.752
37.377
68.197
110.399
159.58
209.211
255.598
294.977
324.025
337.389
323.491
276.073
195.901
90.044
-25.738
-141.737
-256.705
-370.471
-484.506
-592.494
-679.904
-736.958
-759.405
-751.092
-724.176
-687.446
-644.558
-595.816
-537.504
-467.685
-390.314
-312.242
-241.329
-185.331
-145.692
-118.691
-100.545
-86.237
-73.758
-64.881
-59.534
-57.185
-56.633
-55.036
-51.198
-45.344
-37.72
-29.073
-20.285
-11.895
-4.635
0.646
3.735
4.807
4.162
2.302
-0.292
-3.236
-6.065
-8.289
-9.648
-10.055
-9.544
-8.271
-6.376
-3.958
-1.124
2.023
5.395
8.905
12.468
16.015
19.475
22.779
25.867
28.677
31.151
33.266
35.041
36.53
37.809
38.938
39.942
40.832
41.628
42.368
43.094
43.849
44.661
45.555
46.562
47.722
49.079
50.656
52.451
54.437
56.581
58.868
61.304
63.914
66.708
69.69
72.857
76.208
79.752
83.491
87.413
91.499
95.722
100.065
104.519
109.083
113.756
118.523
123.36
128.234
133.116
137.979
142.795
147.535
152.163
156.65
160.971
165.11
169.048
172.766
176.241
179.451
182.374
184.993
187.292
189.259
190.881
192.146
193.044
193.571
193.721
193.491
192.876
191.874
190.482
188.703
186.539
183.997
181.084
177.807
174.18
170.214
165.926
161.332
156.449
151.297
145.895
140.264
134.427
128.405
122.223
115.904
109.471
102.949
96.362
89.734
83.089
76.45
69.841
63.285
56.803
50.417
44.147
38.013
32.034
26.228
20.61
15.195
9.998
5.029
0.301
-4.179
-8.403
-12.365
-16.062
-19.49
-22.651
-25.543
-28.17
-30.535
-32.642
-34.498
-36.109
-37.483
-38.629
-39.557
-40.276
-40.799
-41.135
-41.299
-41.3
-41.153
-40.87
-40.463
-39.946
-39.331
-38.631
-37.858
-37.024
-36.14
-35.218
-34.267
-33.298
-32.32
-31.341
-30.368
-29.408
-28.468
-27.552
-26.666
-25.812
-24.994
-24.215
-23.476
-22.779
-22.124
-21.513
-20.945
-20.421
-19.938
-19.497
-19.096
-18.734
-18.41
-18.121
-17.866
-17.642
-17.449
-17.283
-17.143
-17.027
-16.934
-16.861
-16.807
-16.771
-16.751
-16.747
-16.757
-16.782
-16.82
-16.872
-16.938
-17.017
-17.11
-17.217
-17.339
-17.475
-17.626
-17.792
-17.974
-18.17
-18.382
-18.609
-18.851
-19.107
-19.377
-19.66
-19.956
-20.263
-20.582
-20.91
-21.247
-21.591
-21.941
-22.295
-22.653
-23.012
-23.371
-23.728
-24.082
-24.43
-24.771
-25.104
-25.426
-25.737
-26.034
-26.316
-26.582
-26.832
-27.063
-27.276
-27.471
-27.646
-27.803
-27.941
-28.062
-28.166
-28.255
-28.328
-28.39
-28.439
-28.48
-28.513
-28.542
-28.567
-28.592
-28.619
-28.649
-28.685
-28.728
-28.782
-28.846
-28.922
-29.012
-29.116
-29.234
-29.368
-29.517
-29.681
-29.859
-30.05
-30.254
-30.469
-30.692
-30.921
-31.154
-31.388
-31.619
-31.843
-32.058
-32.258
-32.439
-32.597
-32.725
-32.821
-32.877
-32.888
-32.851
-32.759
-32.609
-32.396
-32.116
-31.768
-31.348
-30.856
-30.291
-29.654
-28.945
-28.164
-27.315
-26.4
-25.422
-24.385
-23.293
-22.149
-20.961
-19.733
-18.475
-17.192
-15.893
-14.585
-13.278
-11.979
-10.701
-9.45
-8.234
-7.06
-5.938
-4.874
-3.883
-2.97
-2.139
-1.39
-0.724
-0.138
0.37
0.807
1.191
1.535
1.855
2.163
2.459
2.751
3.048
3.356
3.693
4.066
4.466
4.894
5.34
5.788
6.232
6.643
6.968
7.157
7.153
6.908
6.398
5.6
4.49
3.043
1.21
-1.048
-3.752
-6.933
-10.584
-14.721
-19.409
-24.608
-30.171
-35.856
-41.279
-46.11
-50.165
-53.197
-54.905
-55.14
-53.861
-51.417
-48.57
-45.92
-43.891
-42.831
-42.982
-44.599
-47.782
-51.874
-55.588
-57.66
-56.826
-52.195
-42.965
-27.869
-5.94
23.07
58.148
96.839
136.555
175.139
211.623
246.878
280.749
310.411
329.64
327.69
294.866
228.495
133.303
20.757
-96.157
-211.823
-327.186
-443.034
-557.921
-662.31
-740.387
-782.858
-787.836
-761.503
-717.162
-663.658
-604.835
-541.705
-472.639
-399.028
-324.849
-254.589
-192.809
-141.999
-102.828
-74.933
-56.823
-46.742
-42.954
-43.168
-45.163
-47.029
-47.056
-44.499
-39.455
-32.29
-23.635
-14.406
-5.456
2.325
8.061
11.489
12.781
12.267
10.483
7.975
5.215
2.743
1.076
0.456
0.938
2.453
4.812
7.862
11.457
15.425
19.602
23.857
28.103
32.289
36.371
40.276
43.924
47.23
50.13
52.599
54.639
56.286
57.597
58.644
59.528
60.344
61.167
62.052
63.019
64.066
65.2
66.441
67.809
69.336
71.046
72.952
75.066
77.388
79.905
82.594
85.407
88.302
91.256
94.26
97.329
100.495
103.782
107.208
110.788
114.522
118.408
122.438
126.59
130.844
135.176
139.561
143.986
148.438
152.897
157.35
161.769
166.118
170.365
174.477
178.433
182.226
185.853
189.308
192.598
195.727
198.715
201.595
204.393
207.126
209.796
212.386
214.885
217.29
219.587
221.765
223.78
225.565
227.062
228.22
228.984
229.305
229.108
228.304
226.822
224.61
221.643
217.92
213.432
208.165
202.12
195.306
187.78
179.635
170.952
161.816
152.315
142.546
132.637
122.725
112.919
103.31
93.963
84.933
76.287
68.101
60.439
53.36
46.88
40.985
35.668
30.908
26.675
22.922
19.57
16.54
13.783
11.263
8.96
6.857
4.921
3.112
1.398
-0.261
-1.884
-3.475
-5.046
-6.595
-8.108
-9.563
-10.913
-12.117
-13.16
-14.033
-14.74
-15.29
-15.679
-15.91
-15.989
-15.915
-15.693
-15.329
-14.824
-14.191
-13.447
-12.616
-11.731
-10.822
-9.911
-9.011
-8.135
-7.29
-6.483
-5.72
-5.001
-4.327
-3.702
-3.132
-2.62
-2.171
-1.782
-1.452
-1.176
-0.949
-0.765
-0.62
-0.51
-0.431
-0.38
-0.354
-0.352
-0.374
-0.414
-0.471
-0.541
-0.618
-0.7
-0.782
-0.861
-0.933
-0.996
-1.047
-1.086
-1.109
-1.117
-1.107
-1.08
-1.034
-0.969
-0.885
-0.781
-0.658
-0.516
-0.356
-0.178
0.016
0.225
0.448
0.683
0.928
1.182
1.444
1.712
1.984
2.258
2.534
2.809
3.082
3.351
3.615
3.872
4.12
4.359
4.588
4.805
5.011
5.204
5.384
5.551
5.704
5.843
5.967
6.077
6.172
6.251
6.315
6.364
6.398
6.416
6.418
6.404
6.375
6.331
6.27
6.194
6.102
5.995
5.871
5.731
5.575
5.403
5.214
5.009
4.787
4.549
4.295
4.026
3.743
3.446
3.137
2.817
2.488
2.152
1.809
1.463
1.116
0.77
0.428
0.093
-0.233
-0.544
-0.839
-1.114
-1.365
-1.589
-1.782
-1.939
-2.058
-2.133
-2.16
-2.135
-2.054
-1.911
-1.704
-1.427
-1.079
-0.655
-0.154
0.426
1.086
1.824
2.64
3.533
4.501
5.541
6.651
7.827
9.065
10.361
11.711
13.109
14.546
16.015
17.508
19.014
20.527
22.036
23.533
25.008
26.454
27.864
29.229
30.539
31.782
32.946
34.021
35.003
35.891
36.685
37.392
38.017
38.572
39.074
39.536
39.965
40.369
40.747
41.107
41.46
41.82
42.202
42.615
43.058
43.528
44.019
44.511
44.983
45.402
45.717
45.891
45.898
45.714
45.319
44.679
43.751
42.49
40.867
38.869
36.489
33.705
30.5
26.881
22.869
18.527
13.903
8.96
3.76
-1.531
-6.679
-11.293
-15.023
-17.663
-18.862
-18.153
-15.479
-11.062
-5.385
0.562
5.994
10.379
12.747
12.127
8.938
4.607
0.731
-0.903
-0.912
-1.197
-0.738
4.102
18.785
48.141
92.555
147.08
205.545
263.94
317.667
363.3
396.014
405.949
387.289
338.5
261.79
167.188
64.179
-41.766
-147.281
-254.225
-365.945
-480.993
-593.589
-692.937
-764.796
-799.531
-794.891
-755.674
-691.976
-612.898
-524.787
-432.03
-339.423
-254.781
-184.762
-133.289
-99.354
-75.929
-57.706
-41.887
-28.12
-19.517
-16.422
-16.737
-18.159
-17.605
-13.885
-7.674
0.369
9.433
18.533
26.951
33.892
38.507
40.636
40.566
38.69
35.562
31.737
27.682
23.932
21.018
19.186
18.496
18.906
20.258
22.431
25.326
28.796
32.683
36.847
41.166
45.541
49.891
54.119
58.122
61.802
65.07
67.877
70.206
72.059
73.464
74.454
75.07
75.368
75.414
75.27
74.999
74.659
74.299
73.976
73.743
73.654
73.76
74.096
74.683
75.539
76.669
78.079
79.769
81.733
83.958
86.437
89.158
92.114
95.295
98.689
102.28
106.053
109.99
114.074
118.291
122.623
127.052
131.564
136.14
140.76
145.405
150.052
154.676
159.252
163.754
168.153
172.424
176.54
180.476
184.212
187.724
190.99
193.987
196.688
199.073
201.126
202.834
204.184
205.168
205.785
206.04
205.95
205.522
204.761
203.665
202.226
200.439
198.302
195.812
192.966
189.763
186.195
182.265
177.982
173.342
168.338
162.949
157.138
150.887
144.202
137.1
129.612
121.776
113.634
105.243
96.674
87.992
79.259
70.526
61.829
53.22
44.765
36.539
28.638
21.133
14.068
7.475
1.374
-4.234
-9.355
-14.024
-18.3
-22.232
-25.855
-29.195
-32.262
-35.081
-37.688
-40.129
-42.457
-44.715
-46.928
-49.119
-51.307
-53.495
-55.678
-57.831
-59.905
-61.866
-63.697
-65.387
-66.941
-68.357
-69.625
-70.744
-71.707
-72.514
-73.168
-73.671
-74.024
-74.237
-74.325
-74.313
-74.237
-74.124
-73.994
-73.862
-73.737
-73.629
-73.547
-73.496
-73.476
-73.49
-73.54
-73.63
-73.764
-73.945
-74.172
-74.442
-74.75
-75.092
-75.465
-75.867
-76.294
-76.744
-77.217
-77.71
-78.226
-78.764
-79.321
-79.898
-80.489
-81.094
-81.708
-82.331
-82.957
-83.585
-84.212
-84.836
-85.456
-86.07
-86.678
-87.277
-87.868
-88.449
-89.021
-89.584
-90.137
-90.68
-91.215
-91.742
-92.261
-92.775
-93.283
-93.787
-94.287
-94.785
-95.282
-95.777
-96.272
-96.767
-97.262
-97.759
-98.257
-98.759
-99.264
-99.773
-100.287
-100.808
-101.335
-101.87
-102.412
-102.964
-103.524
-104.093
-104.671
-105.259
-105.856
-106.463
-107.078
-107.703
-108.336
-108.977
-109.626
-110.283
-110.947
-111.617
-112.294
-112.977
-113.666
-114.361
-115.063
-115.771
-116.485
-117.205
-117.931
-118.663
-119.399
-120.14
-120.883
-121.629
-122.374
-123.117
-123.856
-124.589
-125.312
-126.024
-126.72
-127.399
-128.057
-128.689
-129.294
-129.867
-130.404
-130.901
-131.356
-131.762
-132.117
-132.416
-132.655
-132.829
-132.934
-132.966
-132.919
-132.791
-132.576
-132.271
-131.872
-131.377
-130.783
-130.09
-129.295
-128.401
-127.408
-126.318
-125.137
-123.866
-122.511
-121.076
-119.569
-117.996
-116.363
-114.678
-112.948
-111.183
-109.39
-107.581
-105.766
-103.953
-102.155
-100.38
-98.64
-96.946
-95.31
-93.738
-92.239
-90.821
-89.494
-88.271
-87.157
-86.156
-85.269
-84.496
-83.836
-83.285
-82.835
-82.468
-82.168
-81.917
-81.701
-81.517
-81.352
-81.196
-81.034
-80.849
-80.633
-80.39
-80.12
-79.827
-79.515
-79.193
-78.891
-78.662
-78.555
-78.629
-78.928
-79.487
-80.346
-81.532
-83.081
-85.039
-87.437
-90.299
-93.649
-97.484
-101.826
-106.72
-112.109
-117.824
-123.601
-129.05
-133.823
-137.69
-140.372
-141.516
-140.934
-138.699
-135.207
-131.227
-127.49
-124.394
-122.297
-121.709
-122.922
-125.756
-129.461
-132.556
-133.409
-130.958
-124.138
-111.481
-91.752
-64.109
-29.217
10.196
51.269
91.518
130.59
170.214
209.318
244.258
266.567
263.137
226.387
155.423
57.432
-52.668
-163.671
-271.521
-378.195
-487.48
-597.913
-699.85
-777.962
-821.425
-827.155
-800.566
-754.686
-699.407
-640.112
-578.797
-513.683
-445.428
-377.115
-312.525
-256.039
-209.954
-174.623
-149.465
-132.828
-122.999
-118.45
-117.125
-117.113
-116.845
-114.928
-110.859
-104.864
-97.32
-88.818
-80.189
-72.161
-65.47
-60.854
-58.467
-58.084
-59.36
-61.773
-64.806
-68.031
-70.956
-73.089
-74.196
-74.205
-73.147
-71.17
-68.386
-64.888
-60.811
-56.306
-51.51
-46.543
-41.503
-36.47
-31.536
-26.801
-22.359
-18.298
-14.664
-11.474
-8.725
-6.389
-4.437
-2.827
-1.508
-0.42
0.497
1.299
2.038
2.758
3.509
4.34
5.3
6.438
7.787
9.369
11.2
13.288
15.641
18.26
21.141
24.271
27.642
31.246
35.08
39.143
43.427
47.919
52.602
57.459
62.473
67.623
72.88
78.209
83.575
88.948
94.309
99.647
104.944
110.181
115.34
120.399
125.35
130.191
134.911
139.501
143.952
148.266
152.459
156.565
160.604
164.585
168.499
172.321
176.034
179.618
183.046
186.287
189.292
192.01
194.402
196.436
198.071
199.26
199.931
199.994
199.388
198.073
196.029
193.261
189.768
185.558
180.655
175.093
168.923
162.206
154.994
147.335
139.301
130.975
122.467
113.915
105.426
97.082
88.962
81.117
73.603
66.477
59.78
53.543
47.799
42.564
37.86
33.708
30.103
27.022
24.422
22.231
20.397
18.888
17.671
16.731
16.05
15.604
15.378
15.36
15.525
15.858
16.342
16.956
17.7
18.585
19.63
20.875
22.351
24.069
26.041
28.267
30.741
33.462
36.422
39.607
43.015
46.637
50.464
54.491
58.703
63.075
67.581
72.184
76.847
81.544
86.249
90.94
95.599
100.208
104.753
109.223
113.605
117.885
122.051
126.087
129.982
133.727
137.316
140.745
144.01
147.109
150.039
152.797
155.381
157.789
160.018
162.065
163.929
165.61
167.109
168.43
169.575
170.55
171.358
172.007
172.502
172.85
173.057
173.131
173.079
172.909
172.628
172.244
171.766
171.201
170.559
169.845
169.069
168.237
167.356
166.434
165.475
164.487
163.474
162.443
161.396
160.34
159.277
158.211
157.144
156.08
155.019
153.963
152.913
151.869
150.831
149.797
148.767
147.738
146.71
145.679
144.645
143.605
142.556
141.497
140.425
139.339
138.237
137.117
135.979
134.822
133.644
132.445
131.225
129.985
128.725
127.446
126.151
124.84
123.516
122.183
120.842
119.499
118.155
116.816
115.485
114.168
112.87
111.596
110.352
109.144
107.977
106.858
105.793
104.786
103.843
102.968
102.165
101.437
100.787
100.215
99.722
99.309
98.974
98.718
98.538
98.432
98.397
98.431
98.53
98.689
98.9
99.156
99.45
99.772
100.116
100.472
100.831
101.183
101.522
101.84
102.13
102.381
102.581
102.718
102.781
102.767
102.675
102.503
102.255
101.94
101.567
101.155
100.718
100.264
99.799
99.325
98.848
98.38
97.937
97.534
97.181
96.883
96.636
96.441
96.287
96.149
95.996
95.783
95.473
95.041
94.467
93.737
92.827
91.704
90.328
88.665
86.69
84.399
81.787
78.837
75.547
71.932
68.011
63.866
59.543
55.025
50.385
45.762
41.363
37.571
34.743
33.059
32.799
34.318
37.611
42.524
48.645
54.972
60.684
65.364
68.331
68.825
66.835
62.721
57.218
52.736
51.355
53.653
61.322
74.812
92.954
116.671
145.455
178.501
217.529
262.238
310.782
358.723
396.721
413.403
398.6
348.045
265.54
162.165
51.239
-58.236
-164.28
-271.063
-381.102
-491.115
-590.773
-664.384
-702.438
-703.779
-674.797
-628.796
-575.355
-519.018
-461.199
-400.006
-335.962
-272.076
-212.038
-159.849
-117.469
-85.132
-62.237
-47.297
-38.911
-35.775
-35.979
-37.745
-39.559
-39.998
-38.523
-35.268
-30.449
-24.527
-18.248
-12.264
-7.318
-4.205
-3.128
-3.917
-6.295
-9.793
-13.943
-18.364
-22.578
-26.083
-28.636
-30.163
-30.692
-30.38
-29.337
-27.648
-25.44
-22.857
-20.025
-17.054
-14.032
-11.017
-8.09
-5.335
-2.838
-0.682
1.091
2.466
3.453
4.083
4.389
4.411
4.201
3.821
3.327
2.776
2.218
1.694
1.251
0.936
0.796
0.879
1.217
1.833
2.741
3.951
5.467
7.288
9.41
11.821
14.51
17.468
20.685
24.153
27.863
31.802
35.963
40.334
44.896
49.631
54.514
59.514
64.604
69.753
74.929
80.103
85.251
90.353
95.4
100.385
105.29
110.096
114.772
119.289
123.631
127.786
131.745
135.511
139.085
142.472
145.694
148.762
151.666
154.386
156.877
159.083
160.969
162.507
163.681
164.482
164.89
164.885
164.453
163.573
162.221
160.37
157.973
154.996
151.442
147.328
142.709
137.659
132.231
126.475
120.437
114.155
107.672
101.033
94.268
87.415
80.517
73.627
66.817
60.151
53.664
47.38
41.298
35.397
29.674
24.127
18.748
13.542
8.513
3.663
-0.989
-5.428
-9.648
-13.647
-17.439
-21.035
-24.438
-27.642
-30.638
-33.408
-35.941
-38.23
-40.264
-42.039
-43.556
-44.818
-45.838
-46.631
-47.209
-47.582
-47.76
-47.751
-47.564
-47.214
-46.713
-46.075
-45.316
-44.45
-43.492
-42.458
-41.362
-40.214
-39.026
-37.806
-36.564
-35.307
-34.045
-32.786
-31.538
-30.308
-29.104
-27.933
-26.801
-25.714
-24.675
-23.688
-22.756
-21.881
-21.064
-20.306
-19.607
-18.966
-18.383
-17.856
-17.384
-16.965
-16.596
-16.276
-16.002
-15.771
-15.58
-15.426
-15.307
-15.218
-15.158
-15.124
-15.112
-15.121
-15.147
-15.188
-15.241
-15.304
-15.373
-15.447
-15.522
-15.596
-15.668
-15.734
-15.794
-15.846
-15.889
-15.923
-15.946
-15.958
-15.961
-15.952
-15.934
-15.907
-15.87
-15.827
-15.776
-15.72
-15.66
-15.598
-15.534
-15.47
-15.408
-15.349
-15.295
-15.248
-15.209
-15.18
-15.164
-15.161
-15.175
-15.208
-15.261
-15.337
-15.438
-15.566
-15.723
-15.91
-16.129
-16.382
-16.668
-16.99
-17.346
-17.737
-18.162
-18.62
-19.111
-19.631
-20.179
-20.752
-21.348
-21.963
-22.595
-23.239
-23.892
-24.55
-25.209
-25.864
-26.511
-27.145
-27.76
-28.352
-28.916
-29.446
-29.936
-30.381
-30.776
-31.115
-31.392
-31.602
-31.74
-31.802
-31.783
-31.681
-31.492
-31.214
-30.846
-30.388
-29.842
-29.208
-28.49
-27.691
-26.814
-25.866
-24.852
-23.777
-22.648
-21.472
-20.255
-19.005
-17.732
-16.444
-15.15
-13.86
-12.582
-11.326
-10.103
-8.922
-7.794
-6.727
-5.728
-4.805
-3.967
-3.224
-2.586
-2.054
-1.628
-1.307
-1.088
-0.97
-0.944
-0.994
-1.103
-1.253
-1.429
-1.624
-1.829
-2.032
-2.214
-2.357
-2.449
-2.491
-2.491
-2.456
-2.394
-2.314
-2.249
-2.249
-2.374
-2.687
-3.235
-4.055
-5.186
-6.66
-8.523
-10.831
-13.624
-16.934
-20.776
-25.138
-30.032
-35.51
-41.505
-47.844
-54.254
-60.303
-65.619
-69.967
-73.038
-74.473
-74.119
-72.03
-68.589
-64.68
-61.118
-58.405
-57.08
-57.595
-60.053
-64.225
-69.274
-73.439
-74.944
-72.422
-64.349
-49.405
-26.76
4.162
42.286
84.482
127.827
169.48
208.251
245.419
279.641
306.992
319.8
306.737
261.692
185.511
86.346
-22.416
-131.316
-237.932
-345.51
-456.628
-567.845
-668.199
-741.825
-779.045
-778.921
-748.445
-701.066
-646.205
-588.072
-527.644
-462.944
-394.761
-326.73
-263.181
-208.602
-165.264
-133.144
-111.255
-97.941
-91.502
-90.159
-91.633
-93.617
-94.163
-92.212
-87.643
-80.772
-72.147
-62.501
-52.745
-43.938
-37.137
-32.83
-30.932
-31.132
-32.922
-35.786
-39.256
-42.762
-45.699
-47.703
-48.635
-48.492
-47.402
-45.482
-42.799
-39.479
-35.668
-31.493
-27.079
-22.52
-17.889
-13.27
-8.763
-4.46
-0.452
3.182
6.408
9.208
11.593
13.588
15.224
16.541
17.588
18.425
19.111
19.701
20.248
20.797
21.398
22.101
22.957
24.01
25.293
26.825
28.619
30.682
33.016
35.623
38.495
41.622
44.993
48.6
52.433
56.485
60.744
65.195
69.823
74.609
79.538
84.59
89.747
94.991
100.299
105.651
111.027
116.404
121.761
127.073
132.314
137.459
142.483
147.359
152.062
156.568
160.851
164.89
168.662
172.148
175.328
178.184
180.7
182.861
184.655
186.068
187.093
187.721
187.946
187.764
187.173
186.174
184.767
182.958
180.751
178.155
175.179
171.834
168.132
164.089
159.719
155.04
150.07
144.829
139.339
133.62
127.696
121.591
115.327
108.93
102.424
95.832
89.18
82.492
75.79
69.099
62.441
55.839
49.313
42.885
36.573
30.396
24.372
18.515
12.841
7.362
2.091
-2.962
-7.787
-12.378
-16.727
-20.83
-24.683
-28.285
-31.633
-34.73
-37.576
-40.176
-42.534
-44.655
-46.547
-48.215
-49.67
-50.919
-51.973
-52.842
-53.537
-54.069
-54.448
-54.688
-54.8
-54.795
-54.685
-54.482
-54.197
-53.84
-53.423
-52.956
-52.448
-51.908
-51.347
-50.772
-50.192
-49.614
-49.045
-48.491
-47.96
-47.454
-46.98
-46.542
-46.143
-45.785
-45.472
-45.206
-44.987
-44.818
-44.698
-44.629
-44.61
-44.641
-44.72
-44.847
-45.02
-45.239
-45.501
-45.805
-46.149
-46.532
-46.951
-47.405
-47.892
-48.41
-48.957
-49.53
-50.128
-50.748
-51.387
-52.045
-52.719
-53.405
-54.104
-54.812
-55.527
-56.247
-56.971
-57.695
-58.419
-59.14
-59.856
-60.567
-61.269
-61.963
-62.647
-63.32
-63.982
-64.63
-65.265
-65.886
-66.492
-67.082
-67.656
-68.215
-68.756
-69.281
-69.789
-70.281
-70.757
-71.218
-71.663
-72.094
-72.511
-72.915
-73.307
-73.688
-74.06
-74.423
-74.779
-75.13
-75.477
-75.822
-76.165
-76.507
-76.849
-77.192
-77.535
-77.878
-78.221
-78.563
-78.904
-79.241
-79.575
-79.903
-80.225
-80.537
-80.839
-81.127
-81.398
-81.651
-81.881
-82.086
-82.262
-82.406
-82.515
-82.583
-82.608
-82.585
-82.51
-82.377
-82.183
-81.923
-81.592
-81.187
-80.704
-80.141
-79.494
-78.763
-77.947
-77.047
-76.064
-74.998
-73.852
-72.628
-71.329
-69.96
-68.524
-67.024
-65.466
-63.856
-62.201
-60.507
-58.783
-57.033
-55.268
-53.493
-51.719
-49.953
-48.205
-46.48
-44.785
-43.129
-41.521
-39.972
-38.49
-37.077
-35.737
-34.469
-33.273
-32.148
-31.087
-30.073
-29.093
-28.133
-27.181
-26.234
-25.282
-24.319
-23.332
-22.308
-21.24
-20.132
-18.988
-17.815
-16.622
-15.424
-14.253
-13.163
-12.21
-11.456
-10.955
-10.749
-10.878
-11.376
-12.281
-13.645
-15.506
-17.896
-20.839
-24.335
-28.407
-33.104
-38.384
-44.091
-49.969
-55.631
-60.729
-65.023
-68.232
-69.993
-70.077
-68.515
-65.657
-62.228
-58.95
-56.216
-54.372
-53.931
-55.197
-58.026
-61.746
-64.917
-65.916
-63.731
-57.342
-45.286
-26.455
-0.042
33.641
72.123
112.675
153.209
192.553
231.434
269.881
304.958
330.564
336.657
313.407
257.001
170.715
64.87
-47.887
-160.491
-272.349
-385.633
-500.842
-611.234
-702.953
-763.091
-785.139
-771.477
-733.328
-682.554
-625.936
-564.467
-494.558
-414.383
-328.192
-245.777
-178.172
-131.777
-105.549
-92.223
-83.642
-75.093
-66.164
-59.064
-55.056
-53.236
-51.403
-47.425
-40.76
-32.02
-22.016
-11.76
-2.05
6.406
12.738
16.612
18.223
17.938
16.293
13.803
10.888
8.052
5.85
4.613
4.461
5.385
7.249
9.939
13.376
17.439
21.983
26.879
32.003
37.255
42.56
47.833
52.978
57.903
62.518
66.743
70.541
73.902
76.833
79.359
81.514
83.335
84.872
86.185
87.328
88.354
89.311
90.237
91.178
92.179
93.286
94.543
95.979
97.611
99.453
101.51
103.786
106.279
108.983
111.884
114.972
118.24
121.682
125.298
129.081
133.018
137.092
141.285
145.573
149.93
154.329
158.74
163.137
167.503
171.823
176.094
180.308
184.459
188.532
192.505
196.358
200.073
203.638
207.043
210.29
213.391
216.363
219.226
221.991
224.648
227.178
229.543
231.701
233.605
235.222
236.534
237.53
238.204
238.544
238.533
238.141
237.322
236.021
234.173
231.735
228.688
225.039
220.817
216.066
210.843
205.19
199.133
192.687
185.852
178.642
171.08
163.212
155.104
146.846
138.549
130.304
122.182
114.232
106.482
98.947
91.627
84.537
77.701
71.163
64.981
59.206
53.874
48.998
44.569
40.552
36.885
33.515
30.401
27.515
24.843
22.381
20.129
18.084
16.236
14.561
13.017
11.565
10.173
8.823
7.514
6.26
5.093
4.039
3.123
2.356
1.744
1.282
0.963
0.778
0.712
0.761
0.929
1.218
1.632
2.166
2.807
3.538
4.333
5.167
6.018
6.866
7.696
8.498
9.263
9.989
10.675
11.318
11.915
12.462
12.952
13.382
13.753
14.063
14.316
14.513
14.66
14.758
14.811
14.823
14.793
14.724
14.616
14.47
14.287
14.069
13.821
13.545
13.244
12.923
12.586
12.236
11.878
11.515
11.15
10.787
10.427
10.075
9.732
9.4
9.083
8.781
8.496
8.231
7.985
7.761
7.558
7.378
7.221
7.086
6.974
6.884
6.815
6.768
6.741
6.732
6.742
6.766
6.805
6.855
6.913
6.976
7.042
7.107
7.168
7.22
7.262
7.289
7.298
7.286
7.249
7.185
7.091
6.963
6.8
6.6
6.361
6.081
5.759
5.396
4.991
4.545
4.058
3.53
2.964
2.36
1.722
1.052
0.353
-0.371
-1.116
-1.878
-2.651
-3.43
-4.21
-4.985
-5.748
-6.493
-7.213
-7.902
-8.553
-9.159
-9.711
-10.205
-10.633
-10.989
-11.267
-11.463
-11.573
-11.594
-11.524
-11.362
-11.107
-10.76
-10.321
-9.792
-9.174
-8.469
-7.681
-6.813
-5.87
-4.859
-3.788
-2.666
-1.501
-0.301
0.922
2.161
3.403
4.641
5.866
7.068
8.233
9.35
10.405
11.384
12.283
13.097
13.824
14.466
15.029
15.521
15.957
16.35
16.707
17.036
17.341
17.629
17.914
18.209
18.528
18.882
19.267
19.681
20.115
20.551
20.962
21.314
21.555
21.642
21.541
21.217
20.637
19.758
18.532
16.909
14.855
12.355
9.401
5.98
2.079
-2.299
-7.14
-12.39
-17.992
-23.947
-30.167
-36.476
-42.615
-48.147
-52.662
-55.897
-57.52
-57.161
-54.818
-50.683
-45.229
-39.507
-34.375
-30.341
-28.145
-28.338
-30.759
-34.979
-39.939
-43.579
-44.254
-40.678
-31.155
-14.449
9.965
42.251
81.437
124.621
168.389
209.508
244.648
273.0
295.0
308.657
309.74
290.401
242.943
166.219
65.428
-48.794
-167.291
-287.435
-408.262
-528.782
-641.782
-732.399
-789.929
-809.422
-794.77
-759.205
-712.072
-657.985
-596.716
-523.219
-437.488
-345.386
-257.218
-184.794
-134.537
-105.676
-91.481
-84.059
-78.363
-73.182
-70.139
-69.918
-71.337
-72.259
-70.409
-65.164
-57.227
-47.491
-37.163
-27.282
-18.69
-12.312
-8.511
-7.083
-7.627
-9.572
-12.343
-15.455
-18.367
-20.523
-21.637
-21.633
-20.557
-18.577
-15.823
-12.387
-8.412
-4.049
0.571
5.327
10.125
14.894
19.542
23.969
28.084
31.795
35.053
37.844
40.174
42.069
43.564
44.699
45.527
46.113
46.52
46.809
47.037
47.253
47.512
47.868
48.374
49.081
50.025
51.227
52.705
54.469
56.522
58.868
61.5
64.408
67.581
71.013
74.694
78.616
82.763
87.12
91.676
96.417
101.33
106.399
111.598
116.905
122.301
127.762
133.264
138.781
144.277
149.725
155.106
160.401
165.592
170.655
175.555
180.263
184.75
188.996
192.994
196.727
200.168
203.304
206.13
208.645
210.866
212.786
214.377
215.628
216.527
217.067
217.257
217.095
216.563
215.647
214.325
212.58
210.421
207.838
204.809
201.318
197.335
192.853
187.9
182.479
176.586
170.229
163.411
156.158
148.529
140.577
132.365
123.967
115.433
106.827
98.226
89.691
81.292
73.09
65.12
57.439
50.125
43.228
36.795
30.855
25.396
20.405
15.865
11.726
7.954
4.519
1.378
-1.49
-4.108
-6.506
-8.7
-10.721
-12.62
-14.431
-16.18
-17.893
-19.565
-21.191
-22.759
-24.234
-25.585
-26.798
-27.855
-28.755
-29.502
-30.097
-30.542
-30.844
-30.996
-30.999
-30.855
-30.565
-30.14
-29.596
-28.953
-28.242
-27.491
-26.722
-25.953
-25.196
-24.459
-23.749
-23.072
-22.427
-21.818
-21.248
-20.719
-20.237
-19.803
-19.417
-19.077
-18.779
-18.518
-18.29
-18.092
-17.921
-17.774
-17.649
-17.546
-17.464
-17.404
-17.364
-17.343
-17.338
-17.347
-17.366
-17.394
-17.427
-17.462
-17.498
-17.532
-17.562
-17.587
-17.607
-17.619
-17.623
-17.618
-17.603
-17.58
-17.546
-17.503
-17.45
-17.388
-17.317
-17.238
-17.151
-17.057
-16.956
-16.85
-16.738
-16.622
-16.501
-16.378
-16.25
-16.121
-15.988
-15.854
-15.718
-15.582
-15.446
-15.31
-15.177
-15.046
-14.92
-14.8
-14.688
-14.583
-14.489
-14.406
-14.335
-14.278
-14.236
-14.211
-14.202
-14.212
-14.242
-14.293
-14.365
-14.459
-14.575
-14.714
-14.874
-15.054
-15.253
-15.47
-15.704
-15.955
-16.221
-16.501
-16.796
-17.106
-17.432
-17.772
-18.123
-18.481
-18.842
-19.202
-19.555
-19.893
-20.211
-20.5
-20.757
-20.978
-21.159
-21.297
-21.383
-21.41
-21.372
-21.268
-21.096
-20.859
-20.557
-20.197
-19.791
-19.358
-18.919
-18.485
-18.061
-17.643
-17.23
-16.821
-16.415
-16.01
-15.596
-15.155
-14.679
-14.158
-13.585
-12.947
-12.213
-11.34
-10.289
-9.039
-7.583
-5.932
-4.088
-2.063
0.131
2.468
4.901
7.383
9.879
12.361
14.807
17.182
19.431
21.485
23.284
24.787
25.972
26.826
27.328
27.458
27.206
26.579
25.615
24.341
22.768
20.896
18.707
16.205
13.412
10.355
7.066
3.553
-0.195
-4.182
-8.398
-12.826
-17.43
-22.199
-27.196
-32.397
-37.676
-42.825
-47.487
-51.336
-54.169
-55.75
-55.747
-53.987
-50.533
-45.737
-40.41
-35.393
-31.246
-28.431
-27.431
-28.614
-31.863
-36.404
-40.841
-42.91
-40.636
-33.241
-19.371
1.03
26.413
56.95
91.577
129.501
173.101
222.324
274.167
323.347
358.487
366.913
342.057
282.435
194.947
93.577
-12.211
-116.861
-220.226
-328.336
-440.92
-552.056
-651.363
-723.579
-760.871
-763.354
-736.67
-692.336
-638.508
-578.966
-515.331
-446.91
-375.232
-303.942
-237.244
-179.369
-132.484
-97.062
-72.572
-57.425
-49.953
-48.464
-50.619
-54.211
-57.382
-58.528
-57.031
-53.052
-46.94
-39.33
-31.159
-23.29
-16.608
-11.945
-9.509
-9.102
-10.38
-12.81
-15.863
-19.086
-21.972
-24.038
-25.068
-25.013
-23.934
-22.0
-19.339
-16.056
-12.29
-8.185
-3.867
0.556
4.994
9.376
13.623
17.646
21.367
24.71
27.638
30.143
32.239
33.959
35.339
36.422
37.259
37.91
38.433
38.884
39.316
39.774
40.305
40.959
41.781
42.817
44.099
45.645
47.469
49.574
51.965
54.64
57.593
60.814
64.291
68.014
71.976
76.165
80.57
85.173
89.96
94.911
100.009
105.236
110.575
116.005
121.509
127.065
132.652
138.247
143.824
149.357
154.819
160.18
165.412
170.487
175.377
180.056
184.503
188.691
192.598
196.198
199.464
202.376
204.914
207.064
208.814
210.157
211.092
211.628
211.776
211.542
210.927
209.931
208.545
206.764
204.583
201.997
199.011
195.629
191.853
187.694
183.159
178.246
172.951
167.252
161.124
154.563
147.578
140.188
132.438
124.373
116.05
107.541
98.909
90.208
81.495
72.809
64.194
55.708
47.413
39.386
31.716
24.466
17.682
11.4
5.626
0.353
-4.44
-8.807
-12.79
-16.418
-19.721
-22.712
-25.401
-27.817
-29.99
-31.958
-33.775
-35.48
-37.103
-38.674
-40.2
-41.679
-43.097
-44.416
-45.603
-46.644
-47.527
-48.256
-48.838
-49.274
-49.568
-49.726
-49.746
-49.627
-49.373
-48.984
-48.469
-47.846
-47.135
-46.369
-45.579
-44.786
-44.008
-43.258
-42.543
-41.872
-41.249
-40.674
-40.147
-39.673
-39.252
-38.89
-38.587
-38.341
-38.149
-38.005
-37.903
-37.836
-37.799
-37.786
-37.793
-37.815
-37.848
-37.891
-37.94
-37.994
-38.047
-38.096
-38.136
-38.163
-38.174
-38.164
-38.131
-38.07
-37.981
-37.861
-37.71
-37.526
-37.311
-37.063
-36.783
-36.473
-36.134
-35.768
-35.378
-34.966
-34.537
-34.092
-33.638
-33.178
-32.717
-32.259
-31.81
-31.375
-30.958
-30.563
-30.197
-29.862
-29.563
-29.305
-29.091
-28.923
-28.807
-28.743
-28.734
-28.781
-28.887
-29.049
-29.27
-29.548
-29.881
-30.269
-30.71
-31.199
-31.735
-32.313
-32.93
-33.58
-34.257
-34.957
-35.673
-36.398
-37.126
-37.848
-38.558
-39.248
-39.909
-40.535
-41.116
-41.644
-42.113
-42.514
-42.841
-43.087
-43.248
-43.317
-43.292
-43.169
-42.948
-42.627
-42.206
-41.684
-41.064
-40.346
-39.534
-38.632
-37.642
-36.568
-35.418
-34.197
-32.916
-31.582
-30.204
-28.791
-27.353
-25.901
-24.447
-23.001
-21.573
-20.174
-18.815
-17.508
-16.267
-15.105
-14.026
-13.034
-12.131
-11.315
-10.587
-9.939
-9.359
-8.836
-8.36
-7.921
-7.517
-7.142
-6.789
-6.449
-6.11
-5.765
-5.417
-5.073
-4.738
-4.429
-4.165
-3.969
-3.886
-3.957
-4.221
-4.726
-5.502
-6.576
-7.974
-9.707
-11.797
-14.278
-17.172
-20.498
-24.276
-28.484
-33.124
-38.236
-43.763
-49.553
-55.359
-60.799
-65.537
-69.379
-72.099
-73.383
-73.073
-71.265
-68.38
-65.238
-62.6
-60.844
-60.259
-61.254
-64.019
-68.294
-73.254
-77.283
-78.67
-76.403
-69.577
-56.933
-37.475
-10.531
23.237
61.08
100.254
138.826
176.768
215.62
254.387
289.491
313.235
314.68
287.764
231.178
150.225
57.394
-38.492
-133.173
-226.954
-324.995
-427.463
-527.547
-614.084
-675.064
-704.397
-704.325
-683.062
-648.883
-607.18
-559.823
-505.569
-444.804
-380.157
-314.9
-253.488
-199.289
-153.749
-117.699
-90.94
-72.314
-60.642
-54.601
-52.304
-51.969
-51.988
-50.806
-47.707
-42.735
-36.124
-28.356
-20.186
-12.286
-5.417
-0.384
2.565
3.568
2.907
1.062
-1.484
-4.32
-6.952
-8.882
-9.861
-9.806
-8.744
-6.815
-4.129
-0.775
3.114
7.393
11.933
16.624
21.375
26.118
30.766
35.226
39.411
43.236
46.66
49.666
52.262
54.474
56.335
57.882
59.168
60.249
61.184
62.028
62.828
63.628
64.476
65.421
66.511
67.794
69.304
71.062
73.084
75.379
77.951
80.802
83.927
87.311
90.945
94.822
98.935
103.283
107.856
112.636
117.608
122.751
128.044
133.463
138.973
144.533
150.11
155.68
161.219
166.716
172.151
177.505
182.76
187.897
192.899
197.755
202.447
206.953
211.268
215.392
219.343
223.15
226.826
230.362
233.749
236.964
239.979
242.767
245.289
247.499
249.366
250.865
251.973
252.678
252.942
252.718
251.951
250.566
248.515
245.767
242.294
238.093
233.18
227.579
221.335
214.505
207.112
199.181
190.743
181.833
172.512
162.854
152.945
142.887
132.786
122.746
112.869
103.232
93.887
84.875
76.226
67.968
60.159
52.854
46.089
39.893
34.272
29.227
24.744
20.792
17.312
14.229
11.476
9.004
6.786
4.8
3.022
1.422
-0.047
-1.423
-2.733
-3.999
-5.239
-6.469
-7.699
-8.922
-10.107
-11.211
-12.202
-13.062
-13.787
-14.379
-14.835
-15.149
-15.314
-15.334
-15.219
-14.973
-14.605
-14.116
-13.514
-12.819
-12.057
-11.262
-10.459
-9.664
-8.89
-8.148
-7.446
-6.795
-6.199
-5.656
-5.165
-4.727
-4.344
-4.02
-3.754
-3.543
-3.382
-3.266
-3.189
-3.15
-3.145
-3.169
-3.221
-3.298
-3.398
-3.523
-3.671
-3.84
-4.028
-4.231
-4.448
-4.678
-4.916
-5.162
-5.413
-5.668
-5.925
-6.184
-6.445
-6.707
-6.969
-7.231
-7.494
-7.757
-8.021
-8.287
-8.555
-8.825
-9.098
-9.375
-9.657
-9.945
-10.239
-10.54
-10.849
-11.168
-11.496
-11.834
-12.184
-12.544
-12.917
-13.302
-13.699
-14.108
-14.529
-14.961
-15.403
-15.853
-16.312
-16.776
-17.244
-17.715
-18.186
-18.655
-19.119
-19.576
-20.023
-20.457
-20.877
-21.279
-21.659
-22.015
-22.344
-22.642
-22.906
-23.133
-23.319
-23.461
-23.555
-23.599
-23.588
-23.52
-23.394
-23.206
-22.957
-22.644
-22.269
-21.832
-21.335
-20.78
-20.17
-19.506
-18.794
-18.036
-17.237
-16.402
-15.535
-14.64
-13.724
-12.793
-11.852
-10.909
-9.97
-9.041
-8.129
-7.241
-6.385
-5.569
-4.797
-4.075
-3.407
-2.801
-2.265
-1.805
-1.42
-1.11
-0.872
-0.702
-0.598
-0.551
-0.542
-0.554
-0.569
-0.574
-0.562
-0.523
-0.448
-0.32
-0.123
0.152
0.501
0.917
1.394
1.924
2.496
3.079
3.616
4.05
4.317
4.368
4.167
3.674
2.857
1.677
0.075
-1.983
-4.523
-7.573
-11.126
-15.204
-19.878
-25.07
-30.59
-36.168
-41.36
-45.807
-49.326
-51.602
-52.257
-51.231
-48.636
-44.916
-41.053
-37.735
-35.252
-34.089
-34.656
-36.848
-40.359
-44.202
-46.405
-45.514
-40.612
-30.374
-13.635
10.204
41.556
79.038
119.213
159.565
198.437
235.667
272.387
306.805
333.239
342.52
325.277
277.778
203.684
112.456
14.263
-86.247
-190.485
-300.481
-414.876
-525.038
-616.443
-678.582
-707.338
-706.241
-685.562
-652.54
-610.892
-561.957
-504.046
-438.489
-369.138
-299.795
-235.302
-179.023
-132.317
-96.069
-70.022
-52.883
-43.261
-39.577
-39.705
-41.668
-43.702
-44.15
-42.267
-38.124
-32.028
-24.547
-16.522
-8.717
-1.958
2.902
5.602
6.293
5.285
3.087
0.209
-2.919
-5.795
-7.915
-9.033
-9.077
-8.085
-6.212
-3.578
-0.279
3.548
7.753
12.205
16.79
21.415
26.008
30.483
34.748
38.715
42.304
45.472
48.205
50.511
52.414
53.945
55.143
56.055
56.736
57.243
57.63
57.949
58.247
58.574
58.98
59.517
60.233
61.162
62.325
63.736
65.4
67.319
69.496
71.93
74.617
77.551
80.724
84.129
87.758
91.593
95.612
99.783
104.072
108.452
112.903
117.406
121.954
126.535
131.138
135.756
140.373
144.973
149.543
154.062
158.514
162.891
167.196
171.442
175.654
179.835
183.976
188.061
192.052
195.909
199.584
203.014
206.151
208.95
211.372
213.389
214.979
216.099
216.708
216.749
216.155
214.887
212.922
210.249
206.889
202.873
198.248
193.093
187.477
181.455
175.082
168.397
161.436
154.252
146.899
139.439
131.948
124.486
117.101
109.843
102.736
95.793
89.016
82.379
75.863
69.465
63.183
57.027
51.014
45.149
39.44
33.896
28.516
23.301
18.252
13.367
8.653
4.122
-0.21
-4.319
-8.179
-11.779
-15.111
-18.17
-20.96
-23.484
-25.748
-27.764
-29.542
-31.091
-32.419
-33.535
-34.447
-35.168
-35.713
-36.097
-36.337
-36.449
-36.447
-36.345
-36.157
-35.894
-35.567
-35.185
-34.757
-34.29
-33.796
-33.281
-32.755
-32.226
-31.7
-31.184
-30.684
-30.205
-29.75
-29.322
-28.923
-28.555
-28.217
-27.911
-27.636
-27.392
-27.178
-26.993
-26.835
-26.703
-26.594
-26.505
-26.434
-26.379
-26.336
-26.303
-26.276
-26.254
-26.233
-26.212
-26.19
-26.164
-26.133
-26.095
-26.05
-25.997
-25.934
-25.861
-25.779
-25.687
-25.586
-25.478
-25.363
-25.243
-25.119
-24.994
-24.868
-24.745
-24.626
-24.512
-24.405
-24.308
-24.222
-24.15
-24.095
-24.059
-24.043
-24.05
-24.083
-24.143
-24.232
-24.351
-24.502
-24.686
-24.903
-25.155
-25.441
-25.761
-26.115
-26.503
-26.923
-27.375
-27.856
-28.364
-28.897
-29.452
-30.027
-30.618
-31.221
-31.833
-32.452
-33.075
-33.697
-34.316
-34.928
-35.53
-36.118
-36.687
-37.233
-37.749
-38.231
-38.671
-39.068
-39.416
-39.712
-39.952
-40.132
-40.252
-40.312
-40.312
-40.25
-40.12
-39.92
-39.651
-39.322
-38.94
-38.51
-38.035
-37.524
-36.984
-36.433
-35.877
-35.314
-34.742
-34.156
-33.559
-32.967
-32.391
-31.842
-31.322
-30.824
-30.345
-29.897
-29.482
-29.095
-28.724
-28.341
-27.946
-27.557
-27.19
-26.859
-26.559
-26.269
-25.982
-25.694
-25.412
-25.146
-24.893
-24.639
-24.383
-24.137
-23.929
-23.799
-23.758
-23.784
-23.874
-24.032
-24.285
-24.675
-25.222
-25.942
-26.859
-27.996
-29.388
-31.076
-33.071
-35.379
-38.004
-40.934
-44.194
-47.813
-51.792
-56.136
-60.857
-65.903
-71.157
-76.414
-81.35
-85.638
-89.022
-91.235
-91.973
-91.056
-88.567
-84.895
-80.739
-76.87
-73.818
-71.951
-71.685
-73.351
-76.868
-81.51
-85.963
-88.128
-85.742
-77.864
-63.915
-44.315
-21.314
4.876
34.828
68.891
109.405
155.744
204.766
253.159
294.071
319.96
322.772
294.013
231.254
138.808
26.877
-91.496
-208.602
-323.568
-438.292
-553.169
-661.964
-751.752
-810.51
-832.451
-819.365
-780.461
-726.347
-664.08
-597.627
-528.039
-455.406
-381.835
-310.86
-246.424
-192.305
-150.323
-120.371
-101.152
-90.666
-87.124
-88.499
-92.556
-97.106
-100.059
-100.309
-97.774
-92.774
-85.85
-77.822
-69.536
-61.995
-56.325
-52.992
-51.92
-52.82
-55.16
-58.399
-62.07
-65.587
-68.327
-69.964
-70.393
-69.639
-67.882
-65.258
-61.868
-57.874
-53.448
-48.738
-43.87
-38.938
-34.011
-29.18
-24.548
-20.212
-16.266
-12.756
-9.702
-7.103
-4.934
-3.164
-1.755
-0.652
0.201
0.864
1.392
1.836
2.244
2.667
3.156
3.764
4.54
5.52
6.727
8.177
9.878
11.834
14.046
16.514
19.232
22.196
25.397
28.827
32.477
36.332
40.374
44.577
48.913
53.353
57.872
62.446
67.055
71.68
76.304
80.908
85.472
89.981
94.43
98.817
103.143
107.416
111.641
115.831
120.011
124.199
128.406
132.636
136.881
141.123
145.34
149.502
153.585
157.546
161.329
164.866
168.081
170.902
173.266
175.101
176.32
176.851
176.631
175.614
173.784
171.138
167.681
163.434
158.419
152.679
146.283
139.316
131.868
124.031
115.878
107.486
98.967
90.418
81.926
73.569
65.39
57.425
49.715
42.287
35.165
28.362
21.867
15.659
9.721
4.038
-1.387
-6.553
-11.49
-16.228
-20.783
-25.167
-29.371
-33.383
-37.208
-40.844
-44.288
-47.532
-50.558
-53.344
-55.884
-58.177
-60.226
-62.047
-63.624
-64.949
-66.025
-66.852
-67.448
-67.828
-67.998
-67.964
-67.74
-67.344
-66.793
-66.11
-65.304
-64.383
-63.359
-62.237
-61.037
-59.776
-58.466
-57.12
-55.746
-54.354
-52.956
-51.565
-50.186
-48.825
-47.485
-46.171
-44.889
-43.646
-42.444
-41.287
-40.174
-39.105
-38.08
-37.099
-36.16
-35.259
-34.394
-33.56
-32.758
-31.983
-31.234
-30.508
-29.802
-29.112
-28.437
-27.772
-27.116
-26.466
-25.817
-25.169
-24.518
-23.863
-23.203
-22.534
-21.857
-21.17
-20.471
-19.761
-19.038
-18.302
-17.552
-16.79
-16.016
-15.23
-14.435
-13.63
-12.819
-12.002
-11.181
-10.359
-9.537
-8.716
-7.899
-7.088
-6.284
-5.489
-4.706
-3.935
-3.178
-2.438
-1.716
-1.013
-0.33
0.33
0.969
1.583
2.173
2.738
3.278
3.792
4.279
4.741
5.177
5.588
5.974
6.337
6.679
6.999
7.3
7.583
7.85
8.103
8.344
8.574
8.797
9.016
9.231
9.448
9.668
9.895
10.132
10.382
10.649
10.936
11.247
11.585
11.954
12.357
12.798
13.279
13.803
14.373
14.991
15.658
16.375
17.141
17.956
18.819
19.729
20.684
21.683
22.724
23.804
24.922
26.075
27.259
28.469
29.7
30.945
32.2
33.457
34.71
35.954
37.181
38.386
39.563
40.707
41.81
42.865
43.861
44.792
45.656
46.452
47.185
47.858
48.478
49.056
49.609
50.15
50.693
51.247
51.818
52.418
53.057
53.749
54.51
55.349
56.263
57.248
58.294
59.384
60.497
61.599
62.636
63.563
64.337
64.913
65.246
65.289
64.986
64.291
63.174
61.606
59.566
57.033
53.992
50.438
46.402
41.911
36.975
31.687
26.213
20.808
15.871
11.783
8.817
7.328
7.735
10.122
14.361
20.021
26.154
31.988
37.036
40.534
41.761
40.635
37.446
33.221
29.938
29.095
32.01
40.62
56.619
81.202
114.169
153.073
194.964
237.347
280.01
324.581
369.18
408.992
434.549
432.432
395.966
325.505
228.793
120.32
10.163
-98.771
-208.999
-323.816
-440.582
-548.325
-630.929
-677.697
-686.759
-665.447
-626.843
-579.149
-525.166
-463.052
-391.087
-313.729
-237.799
-172.026
-121.361
-83.65
-55.878
-33.854
-15.172
-1.527
6.442
9.376
8.738
7.651
8.437
11.728
17.432
24.99
33.763
43.115
52.346
60.56
66.821
70.806
72.631
72.558
71.056
68.569
65.472
62.275
59.518
57.495
56.351
56.103
56.632
57.85
59.691
62.039
64.77
67.777
70.954
74.224
77.53
80.806
83.986
87.005
89.793
92.293
94.455
96.258
97.709
98.825
99.638
100.189
100.516
100.672
100.715
100.698
100.669
100.67
100.735
100.905
101.223
101.727
102.458
103.443
104.698
106.233
108.055
110.164
112.56
115.231
118.163
121.344
124.767
128.425
132.311
136.411
140.705
145.17
149.777
154.495
159.289
164.126
168.974
173.809
178.612
183.372
188.078
192.721
197.285
201.742
206.068
210.241
214.241
218.055
221.682
225.128
228.406
231.531
234.507
237.328
239.976
242.416
244.606
246.499
248.054
249.257
250.1
250.581
250.696
250.43
249.751
248.622
247.001
244.833
242.085
238.728
234.745
230.15
224.981
219.29
213.125
206.507
199.43
191.894
183.906
175.492
166.703
157.595
148.232
138.705
129.102
119.521
110.066
100.802
91.767
82.984
74.478
66.3
58.532
51.246
44.493
38.312
32.717
27.719
23.324
19.502
16.205
13.365
10.895
8.739
6.871
5.262
3.888
2.707
1.652
0.672
-0.27
-1.205
-2.152
-3.135
-4.179
-5.28
-6.416
-7.552
-8.638
-9.645
-10.565
-11.388
-12.109
-12.717
-13.195
-13.536
-13.747
-13.831
-13.794
-13.638
-13.362
-12.978
-12.51
-11.983
-11.429
-10.87
-10.318
-9.787
-9.286
-8.824
-8.409
-8.041
-7.717
-7.434
-7.192
-6.992
-6.833
-6.716
-6.632
-6.579
-6.549
-6.539
-6.545
-6.564
-6.592
-6.628
-6.671
-6.719
-6.775
-6.838
-6.906
-6.979
-7.055
-7.133
-7.212
-7.29
-7.366
-7.439
-7.508
-7.573
-7.635
-7.693
-7.748
-7.802
-7.856
-7.91
-7.966
-8.025
-8.09
-8.162
-8.242
-8.331
-8.433
-8.547
-8.675
-8.818
-8.977
-9.153
-9.347
-9.559
-9.789
-10.037
-10.305
-10.593
-10.9
-11.228
-11.575
-11.944
-12.333
-12.743
-13.173
-13.623
-14.093
-14.581
-15.088
-15.61
-16.147
-16.698
-17.26
-17.831
-18.409
-18.992
-19.577
-20.161
-20.744
-21.321
-21.891
-22.451
-22.999
-23.532
-24.048
-24.544
-25.019
-25.468
-25.889
-26.279
-26.636
-26.956
-27.237
-27.475
-27.669
-27.814
-27.908
-27.948
-27.932
-27.857
-27.722
-27.526
-27.267
-26.946
-26.563
-26.12
-25.619
-25.062
-24.453
-23.793
-23.087
-22.339
-21.553
-20.732
-19.881
-19.005
-18.108
-17.198
-16.281
-15.364
-14.453
-13.556
-12.679
-11.831
-11.02
-10.252
-9.532
-8.866
-8.259
-7.72
-7.258
-6.877
-6.58
-6.365
-6.23
-6.173
-6.189
-6.268
-6.391
-6.54
-6.698
-6.852
-6.997
-7.122
-7.217
-7.267
-7.255
-7.173
-7.025
-6.811
-6.536
-6.208
-5.839
-5.463
-5.136
-4.912
-4.855
-5.017
-5.438
-6.162
-7.223
-8.666
-10.546
-12.905
-15.775
-19.185
-23.138
-27.657
-32.791
-38.484
-44.569
-50.79
-56.771
-62.179
-66.796
-70.345
-72.47
-72.972
-71.889
-69.543
-66.594
-63.664
-61.052
-59.042
-58.096
-58.45
-59.934
-61.941
-63.214
-62.332
-58.452
-50.809
-38.143
-19.505
5.596
37.321
73.981
112.653
151.401
187.856
220.81
251.497
278.196
297.243
302.218
282.349
232.382
153.693
52.903
-57.537
-170.816
-287.125
-406.423
-528.076
-643.22
-735.082
-792.503
-811.008
-795.082
-757.967
-708.756
-652.238
-590.229
-520.878
-445.748
-369.057
-295.414
-230.195
-176.714
-135.925
-107.614
-90.162
-81.344
-79.171
-81.217
-84.959
-88.215
-89.096
-86.725
-81.229
-73.176
-63.332
-52.712
-42.344
-33.25
-26.438
-22.29
-20.649
-21.146
-23.219
-26.298
-29.88
-33.402
-36.3
-38.255
-39.158
-39.026
-37.998
-36.193
-33.699
-30.64
-27.158
-23.373
-19.397
-15.324
-11.223
-7.172
-3.266
0.41
3.767
6.734
9.273
11.375
13.052
14.331
15.245
15.834
16.149
16.25
16.194
16.037
15.83
15.618
15.45
15.378
15.451
15.717
16.21
16.952
17.959
19.238
20.795
22.63
24.741
27.123
29.769
32.67
35.815
39.194
42.79
46.583
50.55
54.659
58.878
63.181
67.54
71.939
76.36
80.785
85.193
89.563
93.88
98.141
102.347
106.495
110.585
114.62
118.607
122.575
126.545
130.525
134.514
138.495
142.44
146.334
150.152
153.869
157.45
160.837
163.966
166.785
169.238
171.263
172.791
173.722
173.972
173.484
172.221
170.171
167.337
163.715
159.311
154.148
148.259
141.695
134.521
126.791
118.566
109.928
100.975
91.837
82.646
73.5
64.475
55.633
47.022
38.696
30.702
23.071
15.83
9.002
2.605
-3.336
-8.804
-13.811
-18.387
-22.587
-26.481
-30.116
-33.52
-36.72
-39.73
-42.568
-45.249
-47.781
-50.171
-52.433
-54.591
-56.671
-58.693
-60.662
-62.566
-64.381
-66.071
-67.612
-68.988
-70.188
-71.21
-72.053
-72.722
-73.226
-73.577
-73.779
-73.83
-73.728
-73.47
-73.064
-72.524
-71.87
-71.128
-70.32
-69.469
-68.593
-67.705
-66.816
-65.935
-65.064
-64.207
-63.364
-62.544
-61.752
-60.993
-60.273
-59.591
-58.948
-58.343
-57.771
-57.231
-56.719
-56.231
-55.768
-55.328
-54.91
-54.517
-54.147
-53.803
-53.483
-53.185
-52.909
-52.654
-52.418
-52.198
-51.994
-51.805
-51.628
-51.464
-51.31
-51.165
-51.029
-50.9
-50.778
-50.661
-50.549
-50.441
-50.338
-50.24
-50.147
-50.061
-49.981
-49.909
-49.845
-49.791
-49.746
-49.712
-49.688
-49.675
-49.673
-49.682
-49.702
-49.734
-49.779
-49.835
-49.903
-49.985
-50.079
-50.186
-50.307
-50.441
-50.588
-50.75
-50.926
-51.117
-51.322
-51.541
-51.772
-52.016
-52.27
-52.532
-52.8
-53.07
-53.339
-53.605
-53.865
-54.117
-54.358
-54.587
-54.802
-55.002
-55.185
-55.349
-55.489
-55.602
-55.682
-55.724
-55.724
-55.676
-55.578
-55.424
-55.214
-54.946
-54.619
-54.229
-53.773
-53.243
-52.637
-51.954
-51.197
-50.371
-49.487
-48.559
-47.604
-46.64
-45.679
-44.731
-43.796
-42.871
-41.949
-41.023
-40.09
-39.16
-38.236
-37.322
-36.417
-35.517
-34.606
-33.663
-32.662
-31.572
-30.376
-29.066
-27.649
-26.148
-24.593
-23.022
-21.462
-19.925
-18.414
-16.933
-15.49
-14.095
-12.771
-11.548
-10.46
-9.553
-8.855
-8.38
-8.13
-8.084
-8.205
-8.456
-8.809
-9.253
-9.8
-10.47
-11.277
-12.242
-13.382
-14.702
-16.203
-17.874
-19.698
-21.684
-23.857
-26.251
-28.925
-31.918
-35.233
-38.89
-42.911
-47.222
-51.681
-56.047
-59.96
-63.14
-65.414
-66.551
-66.255
-64.37
-60.964
-56.399
-51.352
-46.424
-41.904
-38.087
-35.465
-34.343
-34.599
-35.599
-36.049
-34.58
-30.371
-22.514
-9.642
9.416
35.528
68.062
104.421
142.177
179.23
215.595
253.308
290.88
324.088
344.284
338.322
299.885
229.767
134.927
29.407
-78.206
-186.915
-297.365
-410.81
-522.123
-617.988
-685.585
-717.986
-715.768
-687.718
-644.914
-594.287
-539.342
-480.375
-416.379
-349.115
-282.038
-219.23
-164.849
-121.021
-87.927
-64.817
-50.19
-42.433
-39.864
-40.328
-41.562
-41.576
-39.241
-34.356
-27.173
-18.209
-8.161
2.104
11.522
18.994
23.982
26.515
26.851
25.474
22.878
19.504
15.924
12.751
10.361
8.93
8.499
8.96
10.225
12.236
14.878
18.018
21.54
25.328
29.298
33.384
37.501
41.566
45.493
49.199
52.616
55.69
58.389
60.711
62.67
64.294
65.617
66.678
67.526
68.22
68.814
69.359
69.906
70.494
71.169
71.981
72.971
74.18
75.636
77.354
79.345
81.619
84.178
87.027
90.163
93.571
97.239
101.154
105.3
109.659
114.205
118.905
123.728
128.645
133.629
138.658
143.708
148.753
153.771
158.739
163.637
168.459
173.199
177.858
182.446
186.975
191.465
195.948
200.442
204.959
209.508
214.077
218.656
223.226
227.757
232.226
236.598
240.822
244.838
248.578
251.954
254.891
257.303
259.086
260.151
260.423
259.841
258.378
256.022
252.775
248.651
243.67
237.854
231.261
223.959
216.025
207.555
198.629
189.338
179.811
170.176
160.55
151.03
141.683
132.554
123.688
115.123
106.894
99.031
91.538
84.413
77.656
71.265
65.252
59.614
54.308
49.278
44.474
39.864
35.437
31.197
27.136
23.245
19.519
15.96
12.581
9.391
6.387
3.554
0.868
-1.681
-4.08
-6.298
-8.314
-10.12
-11.72
-13.122
-14.326
-15.331
-16.148
-16.793
-17.29
-17.654
-17.893
-18.004
-17.983
-17.838
-17.583
-17.242
-16.835
-16.375
-15.875
-15.345
-14.802
-14.259
-13.723
-13.193
-12.669
-12.152
-11.65
-11.168
-10.713
-10.288
-9.891
-9.522
-9.18
-8.865
-8.574
-8.304
-8.051
-7.811
-7.584
-7.368
-7.164
-6.97
-6.784
-6.606
-6.435
-6.269
-6.109
-5.952
-5.798
-5.646
-5.496
-5.349
-5.205
-5.065
-4.929
-4.798
-4.675
-4.56
-4.456
-4.363
-4.285
-4.222
-4.178
-4.153
-4.152
-4.175
-4.225
-4.304
-4.413
-4.554
-4.729
-4.937
-5.181
-5.461
-5.776
-6.125
-6.509
-6.926
-7.374
-7.85
-8.353
-8.88
-9.428
-9.993
-10.57
-11.157
-11.749
-12.34
-12.925
-13.499
-14.057
-14.592
-15.098
-15.571
-16.004
-16.393
-16.732
-17.017
-17.245
-17.412
-17.517
-17.558
-17.533
-17.44
-17.281
-17.054
-16.76
-16.402
-15.979
-15.494
-14.951
-14.355
-13.711
-13.026
-12.304
-11.553
-10.779
-9.989
-9.191
-8.392
-7.598
-6.819
-6.061
-5.335
-4.653
-4.023
-3.448
-2.932
-2.474
-2.07
-1.719
-1.412
-1.134
-0.875
-0.625
-0.375
-0.119
0.152
0.449
0.782
1.167
1.614
2.122
2.688
3.306
3.959
4.63
5.288
5.885
6.378
6.726
6.884
6.808
6.453
5.77
4.721
3.279
1.413
-0.903
-3.696
-6.99
-10.791
-15.07
-19.805
-24.994
-30.534
-36.247
-41.87
-47.001
-51.299
-54.555
-56.48
-56.729
-55.264
-52.213
-47.966
-43.401
-39.123
-35.392
-32.715
-31.527
-31.747
-33.122
-34.798
-35.014
-32.595
-26.797
-16.273
0.019
22.611
52.099
87.121
124.384
161.829
197.288
229.988
261.878
291.354
314.168
323.076
306.664
259.736
184.282
87.585
-17.426
-123.847
-232.144
-342.721
-455.482
-562.391
-647.929
-701.985
-720.801
-708.97
-678.73
-638.041
-590.964
-538.866
-479.647
-414.494
-346.749
-279.897
-218.842
-166.919
-125.296
-94.274
-72.807
-59.152
-52.112
-50.147
-51.047
-52.694
-53.108
-51.084
-46.523
-39.806
-31.325
-21.701
-11.81
-2.618
4.787
9.837
12.609
13.391
12.631
10.813
8.373
5.844
3.828
2.687
2.538
3.377
5.062
7.455
10.464
13.929
17.654
21.484
25.292
28.987
32.516
35.817
38.818
41.467
43.727
45.566
46.988
48.009
48.656
48.989
49.082
49.032
48.961
48.978
49.161
49.581
50.287
51.307
52.667
54.369
56.388
58.712
61.325
64.216
67.383
70.805
74.445
78.258
82.183
86.168
90.184
94.204
98.21
102.193
106.15
110.097
114.068
118.083
122.144
126.236
130.337
134.425
138.493
142.537
146.554
150.538
154.476
158.353
162.166
165.911
169.584
173.168
176.641
179.988
183.21
186.328
189.36
192.316
195.203
198.012
200.73
203.348
205.851
208.215
210.415
212.4
214.115
215.512
216.538
217.14
217.262
216.822
215.753
214.003
211.515
208.264
204.241
199.436
193.854
187.509
180.414
172.615
164.184
155.186
145.708
135.835
125.651
115.272
104.812
94.379
84.095
74.052
64.318
54.966
46.058
37.649
29.811
22.582
15.968
9.978
4.6
-0.179
-4.37
-8.013
-11.165
-13.888
-16.263
-18.349
-20.183
-21.809
-23.267
-24.598
-25.862
-27.094
-28.308
-29.52
-30.738
-31.969
-33.226
-34.504
-35.777
-37.016
-38.18
-39.241
-40.192
-41.02
-41.717
-42.272
-42.669
-42.905
-42.988
-42.927
-42.727
-42.397
-41.938
-41.364
-40.699
-39.966
-39.195
-38.406
-37.613
-36.829
-36.066
-35.333
-34.64
-33.989
-33.38
-32.811
-32.285
-31.803
-31.366
-30.974
-30.624
-30.31
-30.028
-29.775
-29.549
-29.347
-29.166
-29.005
-28.862
-28.739
-28.635
-28.552
-28.487
-28.441
-28.41
-28.396
-28.395
-28.406
-28.428
-28.458
-28.496
-28.54
-28.589
-28.644
-28.702
-28.764
-28.83
-28.899
-28.972
-29.049
-29.131
-29.219
-29.312
-29.411
-29.518
-29.632
-29.754
-29.884
-30.023
-30.171
-30.328
-30.495
-30.672
-30.859
-31.057
-31.265
-31.485
-31.716
-31.959
-32.215
-32.484
-32.767
-33.065
-33.379
-33.708
-34.052
-34.413
-34.788
-35.178
-35.581
-35.995
-36.417
-36.846
-37.281
-37.719
-38.158
-38.597
-39.036
-39.474
-39.911
-40.347
-40.777
-41.2
-41.611
-42.007
-42.384
-42.737
-43.059
-43.345
-43.593
-43.801
-43.967
-44.089
-44.161
-44.175
-44.128
-44.02
-43.853
-43.628
-43.349
-43.024
-42.667
-42.3
-41.943
-41.611
-41.307
-41.031
-40.78
-40.555
-40.354
-40.176
-40.009
-39.837
-39.651
-39.445
-39.206
-38.918
-38.544
-38.035
-37.353
-36.476
-35.394
-34.114
-32.641
-30.985
-29.169
-27.223
-25.189
-23.108
-21.01
-18.914
-16.847
-14.848
-12.972
-11.292
-9.861
-8.713
-7.875
-7.355
-7.161
-7.298
-7.744
-8.469
-9.443
-10.643
-12.066
-13.732
-15.643
-17.798
-20.179
-22.741
-25.473
-28.384
-31.48
-34.786
-38.319
-42.072
-46.089
-50.46
-55.181
-60.152
-65.152
-69.802
-73.777
-76.871
-78.831
-79.329
-78.185
-75.479
-71.639
-67.484
-63.8
-61.012
-59.483
-59.73
-62.016
-66.1
-71.164
-75.597
-77.635
-76.177
-70.081
-57.76
-38.063
-10.204
25.331
65.805
108.361
150.793
191.885
232.465
272.397
308.452
334.17
338.866
312.412
251.385
159.668
48.194
-69.797
-187.555
-304.67
-421.728
-538.054
-645.564
-730.099
-782.617
-799.632
-785.01
-749.804
-701.455
-644.416
-581.222
-511.312
-436.83
-361.774
-290.157
-226.633
-174.144
-133.572
-104.736
-86.163
-75.849
-72.046
-72.569
-75.112
-77.608
-78.181
-75.918
-70.877
-63.495
-54.396
-44.472
-34.631
-25.847
-19.151
-14.942
-13.078
-13.23
-14.863
-17.423
-20.433
-23.325
-25.501
-26.656
-26.695
-25.646
-23.675
-20.909
-17.435
-13.397
-8.953
-4.233
0.636
5.562
10.478
15.291
19.898
24.201
28.101
31.543
34.512
37.008
39.057
40.692
41.949
42.882
43.552
44.017
44.337
44.563
44.74
44.921
45.159
45.509
46.025
46.747
47.698
48.898
50.357
52.081
54.074
56.33
58.835
61.581
64.563
67.776
71.222
74.893
78.775
82.856
87.116
91.533
96.081
100.727
105.434
110.172
114.917
119.65
124.363
129.041
133.671
138.242
142.733
147.126
151.407
155.557
159.559
163.41
167.112
170.686
174.161
177.545
180.834
184.017
187.061
189.93
192.584
194.966
197.031
198.745
200.072
200.992
201.489
201.529
201.074
200.075
198.47
196.225
193.323
189.759
185.559
180.759
175.412
169.6
163.396
156.86
150.049
143.003
135.761
128.376
120.904
113.407
105.96
98.623
91.444
84.469
77.721
71.208
64.93
58.857
52.966
47.248
41.699
36.323
31.132
26.127
21.311
16.688
12.251
7.995
3.919
0.015
-3.716
-7.264
-10.618
-13.757
-16.661
-19.319
-21.727
-23.884
-25.796
-27.468
-28.91
-30.135
-31.154
-31.977
-32.615
-33.076
-33.37
-33.51
-33.509
-33.384
-33.15
-32.823
-32.415
-31.939
-31.407
-30.83
-30.215
-29.57
-28.9
-28.214
-27.517
-26.816
-26.118
-25.428
-24.752
-24.094
-23.459
-22.848
-22.266
-21.712
-21.188
-20.693
-20.228
-19.792
-19.383
-19.0
-18.641
-18.305
-17.989
-17.69
-17.406
-17.135
-16.873
-16.617
-16.365
-16.113
-15.86
-15.602
-15.338
-15.067
-14.787
-14.497
-14.196
-13.883
-13.558
-13.22
-12.869
-12.504
-12.125
-11.732
-11.327
-10.909
-10.479
-10.039
-9.589
-9.13
-8.665
-8.194
-7.719
-7.241
-6.762
-6.284
-5.811
-5.343
-4.883
-4.434
-3.999
-3.579
-3.177
-2.795
-2.434
-2.097
-1.785
-1.5
-1.243
-1.015
-0.817
-0.651
-0.517
-0.417
-0.351
-0.319
-0.323
-0.361
-0.435
-0.545
-0.69
-0.87
-1.086
-1.337
-1.622
-1.939
-2.287
-2.661
-3.06
-3.48
-3.918
-4.369
-4.829
-5.295
-5.765
-6.235
-6.702
-7.161
-7.607
-8.035
-8.441
-8.818
-9.161
-9.462
-9.713
-9.909
-10.046
-10.118
-10.119
-10.043
-9.879
-9.621
-9.267
-8.817
-8.271
-7.634
-6.911
-6.116
-5.269
-4.39
-3.498
-2.607
-1.728
-0.876
-0.07
0.674
1.341
1.926
2.438
2.886
3.282
3.65
4.02
4.435
4.956
5.63
6.491
7.573
8.896
10.489
12.385
14.593
17.105
19.895
22.912
26.093
29.368
32.634
35.768
38.64
41.095
42.999
44.242
44.708
44.298
42.912
40.448
36.846
32.085
26.165
19.125
11.024
1.947
-7.971
-18.559
-29.642
