-159.381
-144.52
-129.793
-115.414
-101.567
-88.376
-75.989
-64.536
-54.126
-44.897
-36.897
-30.039
-24.232
-19.337
-15.188
-11.7
-8.792
-6.364
-4.356
-2.688
-1.282
-0.106
0.894
1.793
2.666
3.621
4.725
5.955
7.273
8.612
9.87
10.997
11.955
12.692
13.197
13.469
13.507
13.342
13.001
12.484
11.786
10.883
9.754
8.415
6.893
5.232
3.489
1.71
-0.068
-1.799
-3.454
-5.021
-6.486
-7.855
-9.138
-10.334
-11.439
-12.444
-13.336
-14.111
-14.768
-15.31
-15.745
-16.082
-16.33
-16.502
-16.612
-16.668
-16.677
-16.642
-16.562
-16.441
-16.281
-16.084
-15.855
-15.597
-15.316
-15.016
-14.702
-14.378
-14.045
-13.706
-13.358
-13.001
-12.633
-12.251
-11.853
-11.437
-11.002
-10.546
-10.065
-9.558
-9.023
-8.455
-7.853
-7.21
-6.525
-5.792
-5.01
-4.176
-3.291
-2.355
-1.371
-0.341
0.73
1.84
2.984
4.161
5.367
6.6
7.859
9.142
10.442
11.755
13.072
14.383
15.679
16.951
18.191
19.389
20.537
21.627
22.659
23.626
24.522
25.337
26.05
26.648
27.131
27.5
27.759
27.923
28.001
28.018
28.016
28.032
28.103
28.263
28.512
28.853
29.303
29.879
30.617
31.529
32.581
33.732
34.954
36.205
37.446
38.601
39.517
40.05
40.082
39.501
38.262
36.327
33.628
30.109
25.74
20.542
14.66
8.26
1.448
-5.665
-12.977
-20.295
-27.23
-33.388
-38.42
-41.976
-43.821
-43.653
-40.992
-35.628
-27.653
-17.443
-5.848
6.357
18.86
31.153
42.52
52.875
62.502
72.382
84.533
100.375
120.3
144.816
174.233
207.37
241.896
273.983
298.273
310.312
307.005
285.133
241.752
176.285
90.628
-10.87
-121.688
-235.415
-346.577
-448.988
-535.394
-600.515
-641.715
-658.536
-652.964
-627.85
-585.412
-528.941
-464.381
-397.081
-331.163
-270.192
-215.65
-168.053
-128.907
-99.208
-77.493
-62.091
-51.136
-42.074
-33.988
-26.735
-19.241
-10.438
-0.333
10.883
22.333
32.281
40.096
45.825
49.267
50.364
49.215
45.93
41.15
36.046
31.374
27.533
24.786
23.143
22.659
23.453
25.47
28.509
32.362
36.838
41.794
47.178
52.918
58.888
64.931
70.844
76.456
81.668
86.422
90.698
94.474
97.73
100.477
102.761
104.656
106.237
107.562
108.673
109.617
110.46
111.282
112.178
113.216
114.44
115.882
117.559
119.491
121.696
124.174
126.911
129.89
133.101
136.537
140.197
144.07
148.139
152.384
156.781
161.313
165.962
170.711
175.539
180.424
185.347
190.289
195.234
200.16
205.042
209.854
214.57
219.163
223.605
227.871
231.931
235.759
239.332
242.624
245.614
248.281
250.604
252.566
254.148
255.337
256.118
256.481
256.415
255.914
254.973
253.589
251.762
249.493
246.784
243.642
240.074
236.09
231.702
226.922
221.765
216.25
210.395
204.222
197.75
191.006
184.011
176.793
169.378
161.794
154.066
146.224
138.294
130.306
122.285
114.261
106.259
98.306
90.428
82.65
74.995
67.486
60.145
52.993
46.048
39.327
32.848
26.624
20.668
14.992
9.606
4.517
-0.269
-4.747
-8.913
-12.768
-16.311
-19.544
-22.472
-25.099
-27.431
-29.477
-31.245
-32.746
-33.99
-34.99
-35.757
-36.307
-36.652
-36.808
-36.788
-36.61
-36.287
-35.836
-35.272
-34.609
-33.864
-33.051
-32.184
-31.277
-30.343
-29.396
-28.447
-27.508
-26.588
-25.7
-24.85
-24.048
-23.3
-22.614
-21.995
-21.448
-20.977
-20.585
-20.274
-20.047
-19.904
-19.846
-19.871
-19.98
-20.17
-20.44
-20.786
-21.207
-21.697
-22.254
-22.873
-23.55
-24.281
-25.061
-25.885
-26.748
-27.646
-28.573
-29.526
-30.498
-31.485
-32.484
-33.489
-34.496
-35.502
-36.503
-37.496
-38.477
-39.443
-40.392
-41.322
-42.23
-43.114
-43.973
-44.805
-45.61
-46.387
-47.135
-47.854
-48.545
-49.207
-49.841
-50.448
-51.028
-51.582
-52.111
-52.618
-53.102
-53.567
-54.013
-54.443
-54.86
-55.265
-55.661
-56.05
-56.435
-56.818
-57.201
-57.586
-57.976
-58.373
-58.78
-59.198
-59.63
-60.079
-60.546
-61.031
-61.537
-62.064
-62.612
-63.182
-63.775
-64.391
-65.028
-65.688
-66.369
-67.072
-67.795
-68.535
-69.292
-70.062
-70.842
-71.629
-72.419
-73.206
-73.988
-74.759
-75.516
-76.254
-76.967
-77.651
-78.3
-78.908
-79.47
-79.979
-80.429
-80.814
-81.128
-81.367
-81.528
-81.606
-81.6
-81.504
-81.318
-81.04
-80.666
-80.197
-79.63
-78.963
-78.199
-77.34
-76.388
-75.348
-74.224
-73.024
-71.755
-70.426
-69.044
-67.616
-66.15
-64.651
-63.128
-61.587
-60.032
-58.47
-56.911
-55.364
-53.841
-52.354
-50.91
-49.518
-48.186
-46.921
-45.73
-44.612
-43.566
-42.589
-41.688
-40.872
-40.157
-39.551
-39.05
-38.648
-38.342
-38.114
-37.943
-37.787
-37.583
-37.284
-36.861
-36.304
-35.616
-34.794
-33.824
-32.688
-31.381
-29.908
-28.28
-26.5
-24.56
-22.492
-20.369
-18.329
-16.562
-15.218
-14.397
-14.168
-14.575
-15.654
-17.437
-19.91
-22.98
-26.552
-30.548
-34.932
-39.713
-44.8
-49.96
-54.84
-59.001
-62.041
-63.664
-63.518
-61.154
-56.375
-49.238
-40.112
-29.821
-19.067
-8.164
2.443
12.183
21.076
29.567
38.695
50.38
66.004
85.945
110.652
140.441
174.155
209.467
242.652
268.432
282.293
281.099
261.545
220.566
157.547
74.204
-25.371
-134.627
-247.054
-356.883
-457.326
-541.011
-602.992
-640.895
-654.654
-646.844
-620.705
-579.49
-528.181
-473.152
-419.2
-369.431
-325.63
-287.795
-255.55
-228.608
-205.443
-183.568
-161.422
-138.294
-114.113
-89.714
-65.863
-43.052
-22.155
-4.241
10.122
20.737
27.739
31.683
33.086
32.379
30.095
26.782
22.88
18.792
14.878
11.394
8.577
6.626
5.656
5.74
6.918
9.175
12.455
16.66
21.645
27.256
33.351
39.776
46.381
53.004
59.452
65.566
71.237
76.39
80.993
85.03
88.491
91.394
93.794
95.756
97.354
98.657
99.721
100.61
101.4
102.174
103.023
104.021
105.215
106.647
108.344
110.327
112.613
115.207
118.096
121.268
124.716
128.433
132.416
136.656
141.136
145.836
150.734
155.811
161.048
166.423
171.914
177.496
183.148
188.845
194.569
200.292
205.988
211.627
217.176
222.604
227.882
232.976
237.853
242.485
246.84
250.891
254.613
257.98
260.969
263.557
265.725
267.456
268.733
269.544
269.876
269.72
269.071
267.925
266.281
264.139
261.503
258.379
254.777
250.706
246.18
241.214
235.826
230.035
223.863
217.334
210.472
203.304
195.857
188.16
180.244
172.138
163.874
155.481
146.991
138.433
129.84
121.24
112.662
104.136
95.688
87.345
79.132
71.074
63.193
55.51
48.045
40.815
33.837
27.124
20.69
14.546
8.698
3.156
-2.077
-6.997
-11.603
-15.896
-19.877
-23.551
-26.922
-29.997
-32.786
-35.297
-37.54
-39.527
-41.272
-42.786
-44.084
-45.18
-46.089
-46.826
-47.407
-47.847
-48.161
-48.364
-48.471
-48.497
-48.455
-48.36
-48.224
-48.06
-47.879
-47.691
-47.507
-47.336
-47.186
-47.064
-46.976
-46.928
-46.924
-46.968
-47.063
-47.21
-47.41
-47.664
-47.971
-48.329
-48.738
-49.193
-49.694
-50.235
-50.813
-51.423
-52.062
-52.723
-53.403
-54.095
-54.794
-55.495
-56.193
-56.883
-57.56
-58.219
-58.856
-59.467
-60.048
-60.596
-61.107
-61.579
-62.01
-62.397
-62.74
-63.038
-63.291
-63.499
-63.662
-63.783
-63.863
-63.903
-63.906
-63.875
-63.812
-63.722
-63.608
-63.474
-63.324
-63.164
-62.998
-62.832
-62.669
-62.515
-62.375
-62.251
-62.149
-62.072
-62.024
-62.009
-62.029
-62.088
-62.189
-62.333
-62.522
-62.757
-63.038
-63.365
-63.736
-64.15
-64.604
-65.094
-65.618
-66.173
-66.754
-67.357
-67.978
-68.61
-69.247
-69.883
-70.511
-71.123
-71.711
-72.266
-72.782
-73.252
-73.67
-74.03
-74.325
-74.551
-74.702
-74.773
-74.761
-74.662
-74.47
-74.182
-73.798
-73.318
-72.741
-72.071
-71.31
-70.463
-69.537
-68.538
-67.472
-66.346
-65.165
-63.935
-62.664
-61.357
-60.021
-58.66
-57.286
-55.908
-54.54
-53.193
-51.876
-50.599
-49.372
-48.204
-47.102
-46.07
-45.106
-44.211
-43.394
-42.665
-42.042
-41.534
-41.14
-40.855
-40.68
-40.601
-40.601
-40.645
-40.669
-40.626
-40.491
-40.253
-39.913
-39.469
-38.903
-38.195
-37.346
-36.362
-35.258
-34.04
-32.692
-31.24
-29.752
-28.359
-27.246
-26.568
-26.421
-26.869
-27.967
-29.751
-32.262
-35.493
-39.332
-43.668
-48.417
-53.533
-59.031
-64.822
-70.677
-76.249
-81.091
-84.795
-87.055
-87.503
-85.702
-81.492
-74.936
-66.43
-56.838
-46.827
-36.778
-27.216
-18.499
-10.429
-2.374
6.969
19.344
35.789
56.742
82.643
113.252
147.05
181.092
210.941
231.998
240.613
233.809
208.705
163.042
96.716
12.567
-84.163
-187.766
-292.693
-393.49
-484.111
-557.834
-610.146
-639.861
-648.04
-636.831
-609.01
-567.643
-517.158
-463.713
-411.964
-364.371
-322.152
-285.358
-253.686
-226.921
-203.798
-181.879
-159.627
-136.505
-112.571
-88.69
-65.644
-43.891
-24.203
-7.566
5.506
14.861
20.659
23.458
23.783
22.073
18.846
14.607
9.778
4.747
-0.125
-4.55
-8.274
-11.097
-12.901
-13.615
-13.2
-11.663
-9.057
-5.49
-1.11
3.931
9.491
15.431
21.61
27.865
34.004
39.86
45.322
50.317
54.808
58.78
62.22
65.144
67.605
69.674
71.425
72.924
74.226
75.39
76.488
77.6
78.814
80.199
81.8
83.653
85.781
88.202
90.931
93.967
97.294
100.896
104.76
108.876
113.239
117.834
122.643
127.642
132.809
138.12
143.556
149.093
154.708
160.375
166.071
171.772
177.456
183.098
188.669
194.139
199.477
204.651
209.631
214.386
218.884
223.097
226.995
230.553
233.748
236.555
238.955
240.927
242.454
243.523
244.12
244.236
243.862
242.994
241.629
239.767
237.412
234.569
231.244
227.448
223.195
218.498
213.375
207.846
201.931
195.655
189.041
182.118
174.912
167.454
159.774
151.902
143.871
135.713
127.46
119.143
110.794
102.443
94.121
85.857
77.678
69.613
61.686
53.923
46.344
38.973
31.828
24.926
18.283
11.914
5.829
0.039
-5.448
-10.625
-15.49
-20.039
-24.271
-28.189
-31.794
-35.092
-38.088
-40.79
-43.205
-45.345
-47.219
-48.84
-50.22
-51.371
-52.308
-53.043
-53.592
-53.968
-54.185
-54.257
-54.198
-54.02
-53.738
-53.363
-52.908
-52.382
-51.798
-51.165
-50.491
-49.786
-49.057
-48.31
-47.552
-46.789
-46.023
-45.261
-44.504
-43.755
-43.016
-42.289
-41.574
-40.872
-40.182
-39.506
-38.84
-38.186
-37.541
-36.905
-36.276
-35.652
-35.033
-34.417
-33.803
-33.19
-32.577
-31.963
-31.348
-30.731
-30.112
-29.49
-28.866
-28.241
-27.614
-26.987
-26.359
-25.733
-25.11
-24.49
-23.875
-23.266
-22.664
-22.071
-21.488
-20.916
-20.357
-19.812
-19.282
-18.769
-18.273
-17.795
-17.337
-16.898
-16.479
-16.081
-15.703
-15.346
-15.01
-14.695
-14.401
-14.127
-13.875
-13.642
-13.43
-13.237
-13.063
-12.908
-12.771
-12.652
-12.55
-12.465
-12.397
-12.347
-12.313
-12.297
-12.299
-12.317
-12.354
-12.407
-12.478
-12.566
-12.671
-12.793
-12.932
-13.089
-13.264
-13.456
-13.665
-13.89
-14.131
-14.387
-14.655
-14.933
-15.22
-15.514
-15.811
-16.11
-16.408
-16.702
-16.991
-17.27
-17.537
-17.786
-18.014
-18.218
-18.391
-18.529
-18.627
-18.682
-18.689
-18.646
-18.548
-18.393
-18.178
-17.9
-17.556
-17.144
-16.662
-16.109
-15.485
-14.79
-14.026
-13.197
-12.308
-11.364
-10.373
-9.339
-8.271
-7.174
-6.055
-4.92
-3.773
-2.618
-1.463
-0.316
0.818
1.926
2.997
4.021
4.988
5.886
6.709
7.447
8.094
8.646
9.102
9.454
9.696
9.809
9.781
9.615
9.311
8.878
8.333
7.691
6.978
6.239
5.515
4.844
4.265
3.789
3.417
3.165
3.052
3.104
3.347
3.762
4.308
4.964
5.694
6.458
7.199
7.782
8.061
7.912
7.215
5.905
3.953
1.302
-2.098
-6.275
-11.223
-16.839
-22.96
-29.476
-36.296
-43.328
-50.425
-57.263
-63.445
-68.597
-72.353
-74.448
-74.582
-72.305
-67.381
-59.867
-50.092
-38.828
-26.833
-14.44
-2.142
9.379
20.096
30.353
41.115
54.335
71.368
92.571
118.454
149.338
184.057
220.355
254.375
280.689
295.08
294.64
276.264
237.154
176.326
95.051
-2.401
-109.486
-220.459
-330.325
-433.39
-523.092
-593.309
-640.211
-663.371
-664.753
-646.394
-610.1
-558.541
-496.582
-430.727
-366.553
-307.128
-253.723
-207.189
-168.8
-139.826
-119.566
-105.039
-92.984
-81.565
-70.241
-59.039
-47.553
-34.685
-20.179
-5.267
8.214
19.027
26.837
31.963
34.73
34.984
32.721
28.51
23.353
18.222
13.714
10.051
7.268
5.48
4.848
5.432
7.153
9.846
13.35
17.534
22.324
27.643
33.353
39.301
45.303
51.152
56.694
61.828
66.484
70.633
74.263
77.355
79.923
82.015
83.695
85.031
86.083
86.893
87.52
88.039
88.54
89.118
89.849
90.778
91.941
93.364
95.067
97.067
99.367
101.953
104.814
107.942
111.331
114.982
118.886
123.027
127.385
131.939
136.67
141.561
146.592
151.743
156.991
162.316
167.698
173.118
178.554
183.98
189.368
194.69
199.915
205.015
209.961
214.723
219.27
223.577
227.616
231.363
234.796
237.891
240.627
242.984
244.947
246.498
247.625
248.314
248.557
248.347
247.677
246.546
244.953
242.9
240.39
237.429
234.026
230.191
225.937
221.278
216.229
210.811
205.041
198.943
192.539
185.853
178.91
171.737
164.361
156.809
149.109
141.288
133.375
125.397
117.382
109.357
101.348
93.382
85.484
77.678
69.988
62.436
55.043
47.83
40.813
34.01
27.438
21.108
15.035
9.228
3.697
-1.551
-6.509
-11.175
-15.544
-19.617
-23.393
-26.874
-30.064
-32.968
-35.591
-37.939
-40.022
-41.848
-43.426
-44.769
-45.886
-46.79
-47.494
-48.01
-48.351
-48.53
-48.562
-48.459
-48.234
-47.902
-47.474
-46.964
-46.383
-45.744
-45.058
-44.335
-43.586
-42.821
-42.048
-41.276
-40.514
-39.767
-39.042
-38.346
-37.682
-37.057
-36.473
-35.934
-35.442
-34.999
-34.607
-34.266
-33.977
-33.74
-33.554
-33.418
-33.33
-33.29
-33.295
-33.343
-33.431
-33.558
-33.719
-33.913
-34.137
-34.387
-34.66
-34.954
-35.265
-35.59
-35.927
-36.272
-36.623
-36.977
-37.331
-37.682
-38.029
-38.369
-38.699
-39.019
-39.325
-39.616
-39.891
-40.148
-40.387
-40.605
-40.804
-40.981
-41.137
-41.271
-41.383
-41.473
-41.542
-41.589
-41.615
-41.621
-41.607
-41.575
-41.525
-41.459
-41.379
-41.286
-41.183
-41.071
-40.952
-40.828
-40.701
-40.574
-40.45
-40.331
-40.219
-40.117
-40.027
-39.954
-39.898
-39.863
-39.849
-39.86
-39.896
-39.959
-40.052
-40.174
-40.327
-40.513
-40.732
-40.985
-41.273
-41.595
-41.951
-42.34
-42.76
-43.211
-43.688
-44.19
-44.713
-45.255
-45.812
-46.382
-46.959
-47.54
-48.12
-48.693
-49.256
-49.802
-50.325
-50.819
-51.279
-51.701
-52.081
-52.415
-52.699
-52.929
-53.103
-53.218
-53.273
-53.263
-53.188
-53.043
-52.829
-52.547
-52.198
-51.783
-51.307
-50.771
-50.184
-49.552
-48.881
-48.175
-47.44
-46.682
-45.905
-45.116
-44.318
-43.516
-42.717
-41.927
-41.158
-40.42
-39.719
-39.061
-38.453
-37.9
-37.411
-36.987
-36.624
-36.322
-36.083
-35.917
-35.841
-35.862
-35.979
-36.183
-36.468
-36.825
-37.236
-37.667
-38.062
-38.365
-38.538
-38.572
-38.466
-38.211
-37.791
-37.176
-36.352
-35.338
-34.155
-32.816
-31.326
-29.702
-28.012
-26.396
-25.032
-24.089
-23.685
-23.88
-24.733
-26.304
-28.641
-31.764
-35.597
-40.004
-44.883
-50.185
-55.89
-61.91
-68.002
-73.775
-78.79
-82.631
-84.99
-85.533
-83.792
-79.532
-72.806
-63.97
-53.857
-43.233
-32.404
-21.792
-11.994
-2.944
5.839
15.397
27.726
44.215
65.165
90.987
121.91
156.588
192.493
225.699
250.797
263.378
260.475
238.925
195.866
130.865
45.939
-54.385
-163.407
-274.8
-383.229
-482.45
-565.312
-626.617
-663.753
-676.772
-668.177
-640.803
-596.881
-540.06
-476.32
-411.313
-349.541
-293.688
-244.357
-201.948
-167.662
-141.987
-123.319
-109.241
-97.083
-85.23
-73.648
-62.391
-50.863
-38.269
-24.623
-10.855
1.432
11.153
18.244
22.952
25.498
25.796
23.805
20.01
15.365
10.762
6.744
3.563
1.249
-0.1
-0.315
0.635
2.658
5.59
9.243
13.477
18.215
23.374
28.853
34.526
40.223
45.757
50.981
55.793
60.144
64.014
67.383
70.234
72.582
74.478
75.996
77.214
78.19
78.969
79.604
80.167
80.745
81.431
82.296
83.383
84.724
86.342
88.261
90.498
93.055
95.919
99.075
102.512
106.225
110.209
114.454
118.94
123.644
128.541
133.611
138.833
144.186
149.644
155.183
160.777
166.405
172.043
177.665
183.241
188.74
194.13
199.378
204.454
209.325
213.958
218.322
222.388
226.129
229.519
232.534
235.15
237.348
239.108
240.416
241.258
241.623
241.501
240.887
239.779
238.176
236.081
233.499
230.436
226.902
222.911
218.476
213.616
208.348
202.695
196.68
190.327
183.665
176.721
169.524
162.106
154.499
146.734
138.845
130.864
122.824
114.756
106.694
98.668
90.709
82.845
75.105
67.516
60.101
52.886
45.891
39.137
32.642
26.421
20.489
14.858
9.538
4.536
-0.142
-4.491
-8.51
-12.199
-15.561
-18.598
-21.318
-23.726
-25.833
-27.649
-29.185
-30.454
-31.472
-32.253
-32.814
-33.17
-33.339
-33.339
-33.188
-32.903
-32.502
-32.002
-31.422
-30.777
-30.083
-29.357
-28.612
-27.863
-27.122
-26.402
-25.714
-25.068
-24.472
-23.935
-23.463
-23.063
-22.739
-22.495
-22.333
-22.256
-22.263
-22.356
-22.532
-22.791
-23.129
-23.543
-24.029
-24.582
-25.198
-25.87
-26.594
-27.362
-28.169
-29.007
-29.871
-30.754
-31.65
-32.553
-33.455
-34.352
-35.238
-36.108
-36.957
-37.78
-38.572
-39.331
-40.053
-40.734
-41.372
-41.965
-42.511
-43.008
-43.455
-43.852
-44.198
-44.493
-44.737
-44.931
-45.075
-45.172
-45.221
-45.225
-45.186
-45.105
-44.984
-44.827
-44.635
-44.41
-44.155
-43.872
-43.565
-43.235
-42.884
-42.516
-42.133
-41.738
-41.332
-40.918
-40.499
-40.077
-39.655
-39.234
-38.817
-38.406
-38.004
-37.611
-37.231
-36.866
-36.517
-36.188
-35.879
-35.593
-35.333
-35.1
-34.897
-34.725
-34.586
-34.482
-34.415
-34.385
-34.396
-34.448
-34.543
-34.682
-34.866
-35.097
-35.374
-35.697
-36.067
-36.482
-36.943
-37.448
-37.996
-38.586
-39.215
-39.882
-40.585
-41.322
-42.088
-42.88
-43.694
-44.525
-45.37
-46.221
-47.072
-47.919
-48.755
-49.575
-50.373
-51.142
-51.875
-52.567
-53.21
-53.799
-54.326
-54.783
-55.165
-55.465
-55.679
-55.804
-55.835
-55.77
-55.606
-55.34
-54.974
-54.504
-53.933
-53.257
-52.479
-51.6
-50.626
-49.559
-48.407
-47.174
-45.87
-44.505
-43.089
-41.632
-40.142
-38.629
-37.101
-35.569
-34.039
-32.519
-31.016
-29.54
-28.103
-26.716
-25.392
-24.138
-22.964
-21.878
-20.888
-19.999
-19.214
-18.527
-17.94
-17.456
-17.083
-16.834
-16.715
-16.719
-16.839
-17.072
-17.4
-17.799
-18.229
-18.624
-18.936
-19.141
-19.221
-19.172
-18.983
-18.626
-18.089
-17.377
-16.493
-15.45
-14.252
-12.889
-11.396
-9.861
-8.413
-7.227
-6.442
-6.136
-6.379
-7.236
-8.75
-10.971
-13.874
-17.333
-21.246
-25.539
-30.166
-35.126
-40.295
-45.383
-50.043
-53.868
-56.481
-57.635
-56.985
-54.056
-48.659
-40.874
-31.114
-20.283
-9.103
2.158
13.059
23.011
32.029
40.531
49.603
61.275
76.942
96.939
121.65
151.271
184.498
218.837
250.415
273.917
284.93
280.481
257.482
213.121
147.047
61.362
-39.455
-148.791
-260.345
-368.828
-468.029
-550.829
-612.134
-649.417
-662.741
-654.6
-627.792
-584.51
-528.407
-465.434
-401.178
-340.1
-284.837
-235.965
-193.893
-159.816
-134.208
-115.499
-101.326
-89.066
-77.156
-65.594
-54.451
-43.162
-30.961
-17.852
-4.722
6.868
15.87
22.241
26.242
28.12
27.82
25.313
21.079
16.06
11.138
6.86
3.483
1.036
-0.384
-0.618
0.363
2.466
5.522
9.336
13.761
18.709
24.088
29.792
35.694
41.618
47.38
52.83
57.866
62.439
66.529
70.113
73.178
75.738
77.841
79.562
80.98
82.151
83.121
83.944
84.688
85.437
86.282
87.288
88.498
89.94
91.636
93.605
95.866
98.417
101.245
104.336
107.679
111.267
115.098
119.161
123.437
127.904
132.541
137.328
142.249
147.283
152.408
157.602
162.845
168.115
173.394
178.659
183.884
189.041
194.101
199.037
203.82
208.423
212.817
216.973
220.867
224.475
227.773
230.742
233.36
235.608
237.471
238.934
239.984
240.611
240.805
240.56
239.872
238.741
237.166
235.15
232.697
229.813
226.508
222.793
218.68
214.184
209.321
204.109
198.568
192.721
186.588
180.195
173.566
166.727
159.705
152.527
145.22
137.811
130.327
122.795
115.242
107.694
100.176
92.714
85.331
78.05
70.893
63.882
57.035
50.371
43.907
37.658
31.638
25.859
20.333
15.068
10.073
5.354
0.916
-3.24
-7.11
-10.695
-13.997
-17.018
-19.763
-22.237
-24.447
-26.4
-28.106
-29.575
-30.816
-31.841
-32.661
-33.289
-33.739
-34.022
-34.152
-34.143
-34.008
-33.761
-33.414
-32.98
-32.473
-31.905
-31.288
-30.633
-29.951
-29.253
-28.549
-27.847
-27.157
-26.486
-25.842
-25.23
-24.656
-24.126
-23.643
-23.211
-22.833
-22.511
-22.246
-22.038
-21.889
-21.798
-21.763
-21.784
-21.858
-21.983
-22.157
-22.376
-22.636
-22.936
-23.269
-23.634
-24.025
-24.439
-24.871
-25.317
-25.774
-26.236
-26.701
-27.164
-27.621
-28.07
-28.507
-28.928
-29.332
-29.715
-30.075
-30.411
-30.72
-31.001
-31.253
-31.475
-31.666
-31.827
-31.956
-32.056
-32.125
-32.165
-32.177
-32.161
-32.12
-32.055
-31.967
-31.858
-31.731
-31.587
-31.428
-31.257
-31.075
-30.886
-30.691
-30.492
-30.292
-30.093
-29.896
-29.704
-29.518
-29.34
-29.172
-29.016
-28.872
-28.742
-28.628
-28.529
-28.447
-28.382
-28.335
-28.306
-28.295
-28.303
-28.329
-28.374
-28.437
-28.519
-28.619
-28.738
-28.874
-29.029
-29.2
-29.389
-29.594
-29.815
-30.053
-30.307
-30.577
-30.863
-31.166
-31.484
-31.817
-32.166
-32.528
-32.905
-33.296
-33.7
-34.116
-34.545
-34.987
-35.441
-35.906
-36.383
-36.869
-37.364
-37.866
-38.374
-38.885
-39.396
-39.906
-40.412
-40.912
-41.405
-41.886
-42.353
-42.803
-43.233
-43.639
-44.017
-44.362
-44.671
-44.939
-45.163
-45.341
-45.469
-45.546
-45.569
-45.535
-45.443
-45.292
-45.08
-44.805
-44.465
-44.061
-43.594
-43.065
-42.476
-41.833
-41.138
-40.398
-39.621
-38.812
-37.977
-37.121
-36.248
-35.364
-34.475
-33.582
-32.69
-31.804
-30.933
-30.085
-29.27
-28.495
-27.767
-27.092
-26.478
-25.933
-25.458
-25.052
-24.713
-24.444
-24.256
-24.164
-24.177
-24.292
-24.503
-24.803
-25.182
-25.625
-26.098
-26.546
-26.913
-27.158
-27.269
-27.246
-27.082
-26.762
-26.26
-25.559
-24.68
-23.647
-22.473
-21.166
-19.738
-18.242
-16.804
-15.594
-14.779
-14.482
-14.77
-15.691
-17.31
-19.678
-22.818
-26.682
-31.136
-36.062
-41.41
-47.162
-53.253
-59.491
-65.538
-70.971
-75.387
-78.474
-79.877
-79.146
-76.004
-70.414
-62.632
-53.346
-43.268
-32.761
-22.295
-12.478
-3.296
5.669
15.413
27.811
44.218
65.051
90.861
122.085
157.683
195.483
231.681
260.813
278.567
281.922
267.62
232.655
175.791
97.887
2.874
-102.639
-212.768
-322.304
-425.435
-515.88
-587.769
-637.036
-662.738
-666.801
-651.469
-619.058
-572.403
-515.416
-453.435
-391.546
-333.351
-280.464
-233.594
-193.358
-160.61
-135.705
-117.288
-103.15
-91.006
-79.636
-68.891
-58.684
-48.442
-37.317
-25.25
-13.1
-2.325
6.125
12.202
16.147
18.173
18.184
16.169
12.649
8.605
4.899
2.003
0.105
-0.822
-0.711
0.586
3.069
6.602
10.987
16.018
21.558
27.546
33.886
40.447
47.068
53.535
59.682
65.409
70.644
75.361
79.551
83.196
86.304
88.921
91.105
92.925
94.445
95.707
96.763
97.678
98.532
99.422
100.424
101.585
102.941
104.517
106.331
108.401
110.734
113.318
116.141
119.197
122.481
125.994
129.731
133.677
137.815
142.126
146.59
151.193
155.918
160.745
165.655
170.628
175.647
180.695
185.752
190.794
195.795
200.729
205.569
210.288
214.859
219.253
223.444
227.406
231.114
234.547
237.683
240.5
242.979
245.102
246.854
248.22
249.188
249.748
249.89
249.609
248.902
247.766
246.202
244.211
241.799
238.972
235.738
232.108
228.095
223.711
218.973
213.899
208.508
202.82
196.858
190.644
184.202
177.556
170.734
163.759
156.657
149.455
142.177
134.848
127.495
120.141
112.809
105.524
98.306
91.178
84.16
77.269
70.525
63.943
57.539
51.325
45.314
39.517
33.944
28.601
23.495
18.632
14.014
9.644
5.521
1.646
-1.985
-5.374
-8.526
-11.446
-14.141
-16.618
-18.885
-20.951
-22.825
-24.517
-26.037
-27.395
-28.603
-29.67
-30.607
-31.426
-32.136
-32.747
-33.27
-33.714
-34.087
-34.4
-34.659
-34.873
-35.049
-35.193
-35.311
-35.409
-35.492
-35.563
-35.627
-35.687
-35.745
-35.804
-35.865
-35.929
-35.997
-36.069
-36.146
-36.228
-36.314
-36.403
-36.494
-36.587
-36.68
-36.772
-36.861
-36.947
-37.029
-37.104
-37.172
-37.233
-37.285
-37.327
-37.361
-37.384
-37.398
-37.402
-37.397
-37.382
-37.36
-37.33
-37.293
-37.251
-37.206
-37.157
-37.107
-37.057
-37.008
-36.962
-36.921
-36.885
-36.856
-36.837
-36.827
-36.829
-36.843
-36.871
-36.915
-36.975
-37.052
-37.148
-37.262
-37.395
-37.548
-37.72
-37.912
-38.123
-38.354
-38.603
-38.87
-39.154
-39.455
-39.771
-40.101
-40.443
-40.797
-41.16
-41.532
-41.91
-42.294
-42.681
-43.071
-43.462
-43.852
-44.241
-44.626
-45.008
-45.383
-45.75
-46.109
-46.458
-46.796
-47.123
-47.436
-47.736
-48.021
-48.293
-48.549
-48.791
-49.018
-49.23
-49.426
-49.608
-49.776
-49.93
-50.071
-50.2
-50.319
-50.428
-50.528
-50.621
-50.706
-50.785
-50.858
-50.926
-50.989
-51.047
-51.102
-51.152
-51.2
-51.246
-51.289
-51.33
-51.367
-51.401
-51.429
-51.451
-51.465
-51.469
-51.46
-51.437
-51.399
-51.343
-51.267
-51.168
-51.043
-50.891
-50.708
-50.49
-50.233
-49.934
-49.589
-49.196
-48.753
-48.259
-47.711
-47.108
-46.449
-45.734
-44.962
-44.133
-43.247
-42.303
-41.303
-40.249
-39.144
-37.993
-36.801
-35.573
-34.318
-33.045
-31.76
-30.471
-29.184
-27.905
-26.64
-25.396
-24.177
-22.987
-21.832
-20.722
-19.665
-18.673
-17.753
-16.911
-16.154
-15.491
-14.926
-14.464
-14.101
-13.836
-13.669
-13.611
-13.675
-13.869
-14.191
-14.631
-15.179
-15.827
-16.554
-17.327
-18.092
-18.788
-19.375
-19.836
-20.171
-20.37
-20.422
-20.297
-19.977
-19.481
-18.83
-18.039
-17.117
-16.072
-14.954
-13.882
-13.02
-12.531
-12.537
-13.104
-14.279
-16.118
-18.664
-21.939
-25.896
-30.401
-35.335
-40.641
-46.293
-52.23
-58.265
-64.076
-69.257
-73.409
-76.226
-77.354
-76.342
-72.939
-67.12
-59.149
-49.722
-39.507
-28.84
-18.2
-8.193
1.159
10.182
19.92
32.301
48.47
68.74
93.531
123.083
156.695
192.659
227.174
254.828
271.8
275.305
262.61
231.343
179.525
107.1
17.823
-82.06
-187.325
-293.073
-394.41
-486.079
-561.332
-615.096
-646.136
-655.786
-645.827
-618.427
-575.534
-520.152
-458.291
-395.714
-336.308
-282.242
-234.294
-192.98
-159.601
-134.901
-117.186
-103.978
-92.784
-82.052
-71.742
-61.915
-51.92
-40.906
-28.883
-16.737
-6.001
2.292
8.133
11.792
13.497
13.19
10.834
6.921
2.41
-1.874
-5.434
-8.042
-9.714
-10.357
-9.819
-8.102
-5.319
-1.646
2.702
7.585
12.929
18.619
24.541
30.55
36.445
42.078
47.337
52.134
56.442
60.248
63.528
66.291
68.573
70.418
71.904
73.102
74.057
74.831
75.486
76.098
76.763
77.558
78.53
79.719
81.148
82.836
84.802
87.053
89.581
92.377
95.432
98.739
102.297
106.101
110.134
114.379
118.814
123.42
128.181
133.079
138.093
143.204
148.392
153.635
158.917
164.215
169.505
174.758
179.945
185.038
190.009
194.829
199.466
203.893
208.083
212.01
215.651
218.981
221.98
224.626
226.901
228.788
230.274
231.345
231.99
232.201
231.971
231.299
230.181
228.62
226.618
224.18
221.313
218.028
214.336
210.251
205.788
200.964
195.801
190.318
184.539
178.487
172.187
165.666
158.951
152.069
145.048
137.915
130.698
123.424
116.12
108.813
101.529
94.293
87.128
80.059
73.107
66.293
59.638
53.158
46.871
40.793
34.936
29.313
23.935
18.81
13.946
9.348
5.021
0.967
-2.814
-6.322
-9.559
-12.529
-15.237
-17.689
-19.892
-21.854
-23.586
-25.096
-26.395
-27.494
-28.406
-29.141
-29.711
-30.13
-30.41
-30.562
-30.599
-30.533
-30.376
-30.14
-29.834
-29.471
-29.059
-28.609
-28.129
-27.629
-27.116
-26.596
-26.078
-25.566
-25.067
-24.584
-24.121
-23.683
-23.271
-22.888
-22.536
-22.215
-21.926
-21.67
-21.447
-21.256
-21.096
-20.967
-20.867
-20.796
-20.753
-20.735
-20.741
-20.77
-20.82
-20.891
-20.98
-21.086
-21.208
-21.344
-21.494
-21.657
-21.831
-22.015
-22.209
-22.412
-22.624
-22.843
-23.07
-23.304
-23.545
-23.793
-24.047
-24.308
-24.576
-24.851
-25.133
-25.421
-25.716
-26.017
-26.325
-26.639
-26.959
-27.285
-27.616
-27.952
-28.291
-28.634
-28.979
-29.325
-29.672
-30.019
-30.363
-30.704
-31.041
-31.373
-31.697
-32.014
-32.321
-32.617
-32.901
-33.172
-33.428
-33.669
-33.893
-34.099
-34.286
-34.452
-34.598
-34.722
-34.823
-34.902
-34.958
-34.99
-34.999
-34.984
-34.947
-34.887
-34.804
-34.701
-34.577
-34.434
-34.273
-34.096
-33.905
-33.702
-33.488
-33.267
-33.041
-32.812
-32.582
-32.354
-32.131
-31.914
-31.708
-31.513
-31.333
-31.171
-31.029
-30.91
-30.817
-30.75
-30.712
-30.704
-30.728
-30.783
-30.872
-30.993
-31.149
-31.338
-31.561
-31.817
-32.105
-32.424
-32.77
-33.141
-33.534
-33.945
-34.371
-34.805
-35.244
-35.682
-36.116
-36.541
-36.951
-37.341
-37.704
-38.036
-38.329
-38.577
-38.775
-38.914
-38.99
-38.997
-38.933
-38.794
-38.577
-38.278
-37.895
-37.427
-36.873
-36.232
-35.503
-34.685
-33.78
-32.793
-31.726
-30.586
-29.378
-28.111
-26.794
-25.438
-24.05
-22.64
-21.217
-19.788
-18.364
-16.951
-15.557
-14.189
-12.858
-11.576
-10.355
-9.209
-8.147
-7.178
-6.312
-5.556
-4.917
-4.398
-3.993
-3.704
-3.534
-3.494
-3.598
-3.853
-4.254
-4.796
-5.473
-6.268
-7.159
-8.105
-9.041
-9.917
-10.703
-11.387
-11.966
-12.435
-12.772
-12.956
-12.979
-12.844
-12.56
-12.124
-11.523
-10.778
-9.957
-9.194
-8.666
-8.516
-8.832
-9.672
-11.085
-13.11
-15.784
-19.099
-22.948
-27.228
-31.86
-36.816
-42.106
-47.64
-53.177
-58.352
-62.745
-65.975
-67.772
-67.811
-65.63
-61.023
-54.051
-45.091
-35.004
-24.515
-13.907
-3.59
5.879
14.561
22.924
32.016
43.848
59.852
80.397
105.938
136.689
171.336
207.415
241.072
266.999
280.791
279.402
259.629
218.594
155.823
73.289
-24.541
-131.202
-240.573
-347.262
-445.048
-526.749
-587.05
-623.624
-636.824
-629.005
-602.861
-560.932
-506.965
-447.234
-387.818
-332.447
-282.988
-239.976
-203.582
-174.452
-152.818
-136.361
-121.859
-107.574
-92.822
-77.727
-62.785
-47.724
-31.831
-15.895
-1.609
10.087
18.715
24.381
27.73
28.94
27.776
24.626
20.341
15.609
11.118
7.264
4.06
1.654
0.282
0.018
0.854
2.728
5.48
8.993
13.201
18.001
23.286
28.931
34.775
40.657
46.404
51.864
56.94
61.565
65.708
69.351
72.484
75.123
77.32
79.139
80.646
81.9
82.946
83.84
84.659
85.483
86.401
87.481
88.764
90.286
92.073
94.146
96.52
99.199
102.169
105.418
108.94
112.729
116.782
121.091
125.638
130.405
135.371
140.516
145.824
151.275
156.845
162.514
168.258
174.057
179.89
185.733
191.558
197.336
203.037
208.629
214.083
219.367
224.45
229.301
233.891
238.193
242.182
245.832
249.12
252.024
254.524
256.602
258.243
259.433
260.16
260.414
260.188
259.48
258.287
256.609
254.449
251.813
248.708
245.145
241.137
236.698
231.845
226.596
220.973
215
208.699
202.097
195.222
188.101
180.764
173.241
165.561
157.754
149.852
141.883
133.878
125.865
117.874
109.93
102.062
94.295
86.654
79.161
71.839
64.707
57.783
51.085
44.628
38.424
32.486
26.822
21.44
16.346
11.544
7.036
2.822
-1.099
-4.731
-8.078
-11.147
-13.944
-16.479
-18.762
-20.804
-22.616
-24.211
-25.601
-26.8
-27.823
-28.683
-29.394
-29.971
-30.428
-30.778
-31.035
-31.213
-31.325
-31.381
-31.395
-31.376
-31.334
-31.28
-31.221
-31.166
-31.12
-31.09
-31.081
-31.097
-31.141
-31.216
-31.324
-31.465
-31.639
-31.847
-32.087
-32.357
-32.657
-32.983
-33.332
-33.703
-34.091
-34.493
-34.906
-35.326
-35.749
-36.173
-36.592
-37.005
-37.407
-37.796
-38.169
-38.524
-38.857
-39.168
-39.454
-39.714
-39.947
-40.152
-40.329
-40.477
-40.598
-40.69
-40.756
-40.796
-40.811
-40.804
-40.775
-40.727
-40.661
-40.58
-40.485
-40.379
-40.264
-40.142
-40.016
-39.887
-39.759
-39.632
-39.511
-39.395
-39.287
-39.19
-39.103
-39.03
-38.971
-38.928
-38.902
-38.894
-38.906
-38.939
-38.994
-39.071
-39.17
-39.293
-39.439
-39.608
-39.802
-40.019
-40.259
-40.524
-40.812
-41.125
-41.46
-41.819
-42.2
-42.602
-43.024
-43.466
-43.926
-44.403
-44.895
-45.403
-45.924
-46.457
-47.001
-47.554
-48.114
-48.677
-49.242
-49.805
-50.364
-50.914
-51.452
-51.975
-52.48
-52.963
-53.422
-53.853
-54.251
-54.613
-54.935
-55.213
-55.442
-55.619
-55.738
-55.798
-55.796
-55.73
-55.598
-55.399
-55.13
-54.792
-54.384
-53.906
-53.356
-52.735
-52.044
-51.286
-50.464
-49.582
-48.646
-47.661
-46.637
-45.581
-44.501
-43.404
-42.296
-41.185
-40.077
-38.98
-37.897
-36.834
-35.798
-34.799
-33.847
-32.952
-32.122
-31.365
-30.687
-30.095
-29.598
-29.197
-28.89
-28.676
-28.559
-28.549
-28.659
-28.897
-29.261
-29.742
-30.332
-31.021
-31.79
-32.605
-33.413
-34.158
-34.801
-35.331
-35.745
-36.036
-36.188
-36.173
-35.974
-35.608
-35.095
-34.447
-33.672
-32.779
-31.825
-30.93
-30.256
-29.959
-30.153
-30.897
-32.233
-34.218
-36.895
-40.279
-44.317
-48.879
-53.849
-59.176
-64.842
-70.774
-76.778
-82.526
-87.61
-91.654
-94.367
-95.417
-94.38
-91.007
-85.293
-77.52
-68.381
-58.565
-48.413
-38.354
-28.947
-20.167
-11.61
-2.326
9.463
25.021
44.698
68.902
97.902
130.615
164.948
197.383
222.918
237.6
238.671
223.191
188.514
133.735
59.925
-29.17
-127.535
-229.761
-330.897
-425.199
-506.485
-569.396
-610.739
-630.244
-629.897
-611.949
-579.012
-534.728
-483.972
-432.091
-382.962
-338.52
-299.367
-265.529
-236.803
-212.633
-191.528
-171.367
-150.885
-129.725
-108.127
-86.832
-66.456
-47.44
-30.51
-16.479
-5.737
1.657
5.958
7.728
7.451
5.563
2.577
-1.074
-5.005
-8.851
-12.358
-15.301
-17.479
-18.78
-19.131
-18.474
-16.814
-14.181
-10.637
-6.325
-1.39
4.026
9.762
15.692
21.677
27.541
33.149
38.391
43.18
47.489
51.303
54.605
57.41
59.756
61.69
63.291
64.63
65.762
66.754
67.675
68.599
69.615
70.793
72.18
73.816
75.725
77.928
80.443
83.276
86.417
89.859
93.592
97.608
101.903
106.468
111.285
116.336
121.597
127.048
132.669
138.439
144.337
150.337
156.416
162.55
168.718
174.894
181.048
187.149
193.165
199.062
204.809
210.372
215.718
220.813
225.628
230.133
234.301
238.106
241.523
244.527
247.099
249.219
250.871
252.041
252.715
252.885
252.544
251.688
250.317
248.43
246.032
243.13
239.732
235.849
231.497
226.692
221.453
215.8
209.758
203.351
196.608
189.556
182.227
174.65
166.859
158.886
150.765
142.528
134.209
125.84
117.455
109.084
100.759
92.51
84.365
76.353
68.499
60.828
53.363
46.126
39.136
32.41
25.964
19.811
13.963
8.429
3.216
-1.67
-6.228
-10.455
-14.353
-17.925
-21.175
-24.111
-26.741
-29.075
-31.123
-32.897
-34.412
-35.681
-36.719
-37.541
-38.164
-38.604
-38.877
-38.999
-38.987
-38.857
-38.624
-38.304
-37.912
-37.461
-36.965
-36.436
-35.888
-35.33
-34.772
-34.224
-33.694
-33.189
-32.714
-32.275
-31.876
-31.52
-31.209
-30.945
-30.726
-30.555
-30.428
-30.345
-30.303
-30.3
-30.332
-30.396
-30.488
-30.605
-30.743
-30.898
-31.065
-31.241
-31.422
-31.606
-31.787
-31.964
-32.134
-32.293
-32.44
-32.573
-32.69
-32.791
-32.873
-32.936
-32.981
-33.008
-33.017
-33.008
-32.983
-32.944
-32.891
-32.826
-32.753
-32.671
-32.584
-32.493
-32.401
-32.309
-32.22
-32.136
-32.057
-31.986
-31.925
-31.873
-31.833
-31.805
-31.79
-31.787
-31.798
-31.822
-31.859
-31.909
-31.971
-32.046
-32.132
-32.228
-32.334
-32.448
-32.57
-32.698
-32.831
-32.968
-33.108
-33.248
-33.39
-33.53
-33.67
-33.808
-33.943
-34.075
-34.204
-34.329
-34.45
-34.567
-34.681
-34.792
-34.901
-35.009
-35.116
-35.225
-35.337
-35.451
-35.569
-35.691
-35.818
-35.951
-36.09
-36.236
-36.389
-36.549
-36.718
-36.895
-37.079
-37.271
-37.47
-37.674
-37.881
-38.09
-38.297
-38.501
-38.698
-38.887
-39.064
-39.226
-39.371
-39.495
-39.592
-39.661
-39.696
-39.692
-39.645
-39.549
-39.401
-39.197
-38.936
-38.616
-38.234
-37.788
-37.278
-36.703
-36.063
-35.357
-34.585
-33.746
-32.844
-31.882
-30.863
-29.792
-28.675
-27.519
-26.332
-25.125
-23.903
-22.674
-21.446
-20.224
-19.018
-17.833
-16.673
-15.546
-14.46
-13.424
-12.449
-11.546
-10.721
-9.982
-9.336
-8.788
-8.342
-8
-7.755
-7.606
-7.554
-7.609
-7.784
-8.083
-8.501
-9.03
-9.664
-10.388
-11.178
-11.994
-12.771
-13.454
-14.017
-14.443
-14.731
-14.876
-14.856
-14.649
-14.253
-13.673
-12.922
-12.002
-10.901
-9.641
-8.294
-6.993
-5.927
-5.251
-5.063
-5.429
-6.404
-8.027
-10.337
-13.328
-16.889
-20.91
-25.307
-30.035
-35.111
-40.444
-45.799
-50.823
-55.065
-58.115
-59.674
-59.377
-56.792
-51.764
-44.367
-35.007
-24.56
-13.694
-2.776
7.685
17.329
26.353
35.367
45.627
58.848
76.018
97.494
123.639
154.16
187.511
220.787
249.652
269.593
277.071
269.258
243.415
197.403
131.19
47.588
-48.289
-150.856
-254.705
-354.552
-444.512
-517.996
-570.588
-601.096
-610.478
-600.767
-574.623
-534.979
-486.15
-434.206
-383.74
-337.205
-295.877
-259.882
-228.979
-203.018
-180.77
-159.81
-138.607
-116.608
-93.824
-71.071
-49.091
-28.298
-9.447
6.483
18.983
27.902
33.401
36.038
36.331
34.71
31.684
27.752
23.32
18.761
14.407
10.518
7.326
5.012
3.682
3.396
4.18
6.019
8.853
12.568
17.016
22.04
27.497
33.247
39.154
45.064
50.798
56.201
61.17
65.638
69.574
72.964
75.801
78.1
79.915
81.316
82.376
83.163
83.732
84.146
84.473
84.791
85.187
85.726
86.453
87.405
88.606
90.077
91.834
93.882
96.207
98.801
101.655
104.762
108.121
111.722
115.552
119.592
123.823
128.228
132.792
137.497
142.323
147.249
152.255
157.322
162.432
167.562
172.687
177.78
182.812
187.756
192.584
197.266
201.773
206.078
210.153
213.973
217.514
220.755
223.672
226.245
228.457
230.29
231.731
232.766
233.384
233.577
233.338
232.664
231.552
230.003
228.019
225.604
222.766
219.514
215.858
211.812
207.389
202.608
197.487
192.047
186.308
180.296
174.033
167.545
160.859
154.001
146.999
139.879
132.67
125.397
118.088
110.769
103.466
96.204
89.008
81.901
74.905
68.043
61.334
54.797
48.448
42.305
36.381
30.69
25.242
20.047
15.113
10.446
6.052
1.933
-1.91
-5.477
-8.769
-11.79
-14.545
-17.038
-19.278
-21.271
-23.028
-24.558
-25.871
-26.979
-27.894
-28.627
-29.192
-29.601
-29.867
-30.004
-30.023
-29.937
-29.76
-29.503
-29.178
-28.797
-28.37
-27.908
-27.421
-26.917
-26.405
-25.892
-25.386
-24.893
-24.418
-23.966
-23.541
-23.146
-22.784
-22.457
-22.166
-21.911
-21.694
-21.514
-21.371
-21.262
-21.188
-21.146
-21.134
-21.15
-21.192
-21.257
-21.342
-21.446
-21.565
-21.696
-21.837
-21.986
-22.139
-22.296
-22.453
-22.609
-22.761
-22.909
-23.052
-23.187
-23.315
-23.435
-23.546
-23.649
-23.744
-23.83
-23.908
-23.98
-24.045
-24.104
-24.158
-24.208
-24.255
-24.3
-24.344
-24.388
-24.433
-24.48
-24.53
-24.584
-24.644
-24.71
-24.783
-24.863
-24.953
-25.051
-25.159
-25.277
-25.406
-25.545
-25.695
-25.856
-26.027
-26.209
-26.402
-26.603
-26.814
-27.033
-27.259
-27.493
-27.733
-27.98
-28.231
-28.488
-28.75
-29.018
-29.289
-29.565
-29.846
-30.13
-30.418
-30.711
-31.007
-31.307
-31.612
-31.922
-32.238
-32.559
-32.887
-33.221
-33.562
-33.91
-34.264
-34.625
-34.994
-35.369
-35.752
-36.143
-36.542
-36.949
-37.364
-37.786
-38.215
-38.649
-39.087
-39.527
-39.966
-40.402
-40.833
-41.256
-41.669
-42.069
-42.455
-42.821
-43.167
-43.486
-43.778
-44.035
-44.256
-44.434
-44.566
-44.651
-44.685
-44.667
-44.595
-44.466
-44.28
-44.036
-43.733
-43.369
-42.944
-42.456
-41.907
-41.3
-40.637
-39.922
-39.159
-38.356
-37.519
-36.656
-35.775
-34.881
-33.98
-33.078
-32.182
-31.296
-30.424
-29.572
-28.746
-27.956
-27.211
-26.523
-25.897
-25.34
-24.86
-24.461
-24.148
-23.921
-23.776
-23.71
-23.726
-23.835
-24.05
-24.379
-24.816
-25.357
-25.995
-26.716
-27.498
-28.299
-29.055
-29.717
-30.258
-30.665
-30.94
-31.079
-31.062
-30.87
-30.501
-29.959
-29.256
-28.393
-27.358
-26.177
-24.925
-23.738
-22.802
-22.266
-22.222
-22.733
-23.849
-25.612
-28.06
-31.185
-34.88
-39.039
-43.586
-48.492
-53.768
-59.322
-64.905
-70.145
-74.613
-77.916
-79.781
-79.879
-77.743
-73.173
-66.232
-57.299
-47.246
-36.798
-26.226
-15.934
-6.474
2.225
10.626
19.774
31.67
47.706
68.213
93.605
124.075
158.302
193.8
226.711
251.731
264.475
261.993
241.171
199.163
135.52
52.201
-46.395
-153.737
-263.639
-370.941
-469.56
-552.434
-614.412
-652.827
-667.609
-661.144
-636.113
-594.579
-540.032
-478.287
-414.874
-354.294
-299.304
-250.568
-208.561
-174.525
-148.973
-130.414
-116.541
-104.723
-93.311
-82.205
-71.393
-60.255
-48.028
-34.73
-21.277
-9.272
0.218
7.116
11.631
13.952
14.005
11.797
7.877
3.256
-1.206
-5.009
-7.924
-9.94
-10.94
-10.759
-9.39
-6.951
-3.626
0.399
4.999
10.115
15.638
21.429
27.316
33.088
38.587
43.696
48.327
52.437
56.002
59.001
61.447
63.376
64.835
65.895
66.619
67.056
67.27
67.33
67.32
67.342
67.478
67.781
68.297
69.055
70.079
71.39
72.997
74.894
77.075
79.537
82.276
85.295
88.59
92.15
95.96
100.001
104.255
108.709
113.348
118.152
123.104
128.185
133.376
138.662
144.02
149.427
154.855
160.275
165.657
170.972
176.19
181.279
186.208
190.948
195.471
199.749
203.758
207.47
210.863
213.913
216.6
218.905
220.812
222.305
223.372
224
224.184
223.916
223.194
222.015
220.382
218.296
215.765
212.795
209.398
205.586
201.373
196.775
191.813
186.505
180.876
174.947
168.745
162.296
155.627
148.765
141.741
134.581
127.314
119.971
112.578
105.165
97.759
90.387
83.076
75.852
68.738
61.759
54.935
48.288
41.837
35.599
29.59
23.826
18.318
13.078
8.114
3.435
-0.954
-5.048
-8.846
-12.347
-15.552
-18.464
-21.087
-23.426
-25.49
-27.285
-28.822
-30.112
-31.164
-31.993
-32.609
-33.028
-33.263
-33.327
-33.236
-33.004
-32.645
-32.174
-31.605
-30.951
-30.226
-29.444
-28.617
-27.757
-26.875
-25.983
-25.09
-24.207
-23.341
-22.5
-21.693
-20.924
-20.2
-19.526
-18.904
-18.339
-17.833
-17.388
-17.004
-16.681
-16.42
-16.219
-16.077
-15.992
-15.961
-15.983
-16.054
-16.172
-16.332
-16.531
-16.766
-17.033
-17.328
-17.648
-17.988
-18.346
-18.717
-19.098
-19.486
-19.878
-20.27
-20.66
-21.045
-21.424
-21.793
-22.15
-22.494
-22.824
-23.138
-23.435
-23.715
-23.977
-24.221
-24.447
-24.655
-24.845
-25.019
-25.175
-25.316
-25.442
-25.553
-25.651
-25.737
-25.811
-25.875
-25.93
-25.977
-26.017
-26.051
-26.08
-26.106
-26.128
-26.149
-26.17
-26.19
-26.212
-26.236
-26.263
-26.294
-26.329
-26.369
-26.415
-26.466
-26.523
-26.587
-26.657
-26.733
-26.817
-26.909
-27.008
-27.115
-27.23
-27.355
-27.488
-27.63
-27.782
-27.943
-28.114
-28.295
-28.486
-28.688
-28.902
-29.127
-29.364
-29.614
-29.875
-30.148
-30.432
-30.728
-31.035
-31.352
-31.679
-32.016
-32.363
-32.719
-33.084
-33.456
-33.835
-34.219
-34.605
-34.993
-35.379
-35.76
-36.133
-36.496
-36.847
-37.181
-37.498
-37.792
-38.061
-38.301
-38.508
-38.679
-38.809
-38.894
-38.93
-38.915
-38.846
-38.722
-38.539
-38.297
-37.993
-37.627
-37.197
-36.704
-36.146
-35.521
-34.831
-34.078
-33.264
-32.393
-31.469
-30.498
-29.487
-28.445
-27.379
-26.295
-25.201
-24.102
-23.004
-21.915
-20.838
-19.779
-18.743
-17.738
-16.773
-15.859
-15.003
-14.211
-13.489
-12.843
-12.283
-11.812
-11.429
-11.134
-10.929
-10.825
-10.839
-10.979
-11.244
-11.626
-12.115
-12.699
-13.362
-14.071
-14.772
-15.41
-15.933
-16.319
-16.565
-16.659
-16.581
-16.304
-15.798
-15.076
-14.173
-13.112
-11.912
-10.602
-9.233
-7.931
-6.876
-6.234
-6.153
-6.72
-7.985
-10.016
-12.879
-16.601
-21.147
-26.406
-32.218
-38.5
-45.215
-52.255
-59.415
-66.337
-72.564
-77.671
-81.32
-83.127
-82.626
-79.54
-73.822
-65.746
-56.021
-45.337
-34.082
-22.736
-11.909
-1.584
8.685
19.928
34.041
52.33
75.111
102.797
135.646
172.458
210.877
246.968
275.249
291.472
292.787
276.183
238.893
179.891
100.36
4.474
-101.305
-211.24
-320.379
-423.286
-513.598
-585.299
-634.622
-660.797
-665.342
-650.257
-617.306
-568.606
-508.651
-443.445
-377.986
-316.021
-259.641
-209.76
-167.857
-135.782
-113.115
-97.678
-87.12
-78.722
-71.014
-63.835
-56.327
-47.089
-35.834
-23.049
-9.804
2.002
11.431
18.572
23.288
25.431
25.127
22.55
18.356
13.763
9.549
6.066
3.58
2.104
1.673
2.432
4.334
7.185
10.821
15.07
19.802
24.979
30.499
36.219
41.983
47.581
52.849
57.693
62.045
65.881
69.195
71.968
74.214
75.982
77.33
78.329
79.042
79.509
79.787
79.947
80.073
80.263
80.596
81.117
81.867
82.871
84.148
85.718
87.589
89.749
92.189
94.902
97.885
101.138
104.658
108.428
112.431
116.647
121.057
125.645
130.392
135.278
140.281
145.381
150.557
155.792
161.061
166.338
171.596
176.804
181.932
186.953
191.834
196.546
201.058
205.342
209.371
213.12
216.566
219.683
222.451
224.851
226.864
228.475
229.67
230.437
230.767
230.653
230.091
229.079
227.616
225.706
223.353
220.563
217.348
213.718
209.687
205.269
200.484
195.351
189.89
184.124
178.078
171.777
165.247
158.515
151.61
144.559
137.39
130.133
122.813
115.46
108.101
100.762
93.469
86.246
79.118
72.109
65.238
58.528
51.996
45.661
39.538
33.641
27.984
22.577
17.43
12.551
7.946
3.619
-0.426
-4.188
-7.668
-10.867
-13.789
-16.438
-18.82
-20.942
-22.812
-24.441
-25.836
-27.01
-27.972
-28.737
-29.315
-29.718
-29.961
-30.056
-30.015
-29.852
-29.58
-29.21
-28.754
-28.226
-27.636
-26.995
-26.314
-25.602
-24.868
-24.123
-23.373
-22.625
-21.888
-21.166
-20.466
-19.792
-19.148
-18.537
-17.962
-17.426
-16.931
-16.476
-16.064
-15.693
-15.365
-15.078
-14.831
-14.623
-14.453
-14.32
-14.221
-14.155
-14.119
-14.112
-14.132
-14.177
-14.244
-14.331
-14.437
-14.56
-14.698
-14.85
-15.013
-15.186
-15.369
-15.559
-15.757
-15.96
-16.169
-16.382
-16.6
-16.822
-17.049
-17.279
-17.514
-17.753
-17.998
-18.247
-18.503
-18.765
-19.034
-19.31
-19.595
-19.887
-20.189
-20.501
-20.822
-21.154
-21.496
-21.85
-22.215
-22.591
-22.98
-23.38
-23.792
-24.215
-24.65
-25.097
-25.554
-26.023
-26.501
-26.99
-27.488
-27.994
-28.509
-29.031
-29.559
-30.093
-30.631
-31.173
-31.717
-32.263
-32.811
-33.359
-33.907
-34.455
-35.002
-35.548
-36.093
-36.636
-37.176
-37.715
-38.252
-38.787
-39.32
-39.853
-40.384
-40.916
-41.448
-41.981
-42.515
-43.049
-43.585
-44.123
-44.662
-45.203
-45.746
-46.29
-46.837
-47.387
-47.939
-48.492
-49.045
-49.598
-50.148
-50.694
-51.234
-51.763
-52.281
-52.784
-53.269
-53.735
-54.177
-54.591
-54.975
-55.324
-55.634
-55.9
-56.117
-56.281
-56.386
-56.43
-56.41
-56.322
-56.165
-55.934
-55.629
-55.247
-54.788
-54.249
-53.63
-52.93
-52.149
-51.289
-50.354
-49.347
-48.273
-47.138
-45.95
-44.717
-43.446
-42.145
-40.82
-39.479
-38.128
-36.775
-35.426
-34.085
-32.761
-31.464
-30.206
-28.998
-27.848
-26.763
-25.752
-24.824
-23.987
-23.244
-22.593
-22.035
-21.573
-21.219
-20.99
-20.893
-20.926
-21.081
-21.349
-21.721
-22.179
-22.686
-23.189
-23.631
-23.974
-24.207
-24.329
-24.33
-24.194
-23.889
-23.394
-22.727
-21.906
-20.945
-19.85
-18.635
-17.359
-16.153
-15.187
-14.624
-14.582
-15.117
-16.276
-18.115
-20.683
-24.004
-28.026
-32.622
-37.684
-43.16
-49.026
-55.212
-61.506
-67.543
-72.89
-77.131
-79.952
-81.021
-79.889
-76.298
-70.259
-62.063
-52.456
-42.179
-31.568
-21.081
-11.332
-2.259
6.607
16.303
28.803
45.48
66.686
92.936
124.552
160.337
197.947
233.391
261.102
276.748
277.34
259.757
221.169
160.538
79.125
-18.75
-126.493
-238.19
-348.701
-452.504
-543.132
-614.533
-663.026
-687.911
-690.802
-673.847
-638.893
-588.134
-526.204
-459.177
-392.075
-328.701
-271.144
-220.305
-177.717
-145.215
-122.314
-106.793
-96.236
-87.87
-80.21
-73.074
-65.55
-56.207
-44.739
-31.638
-18.008
-5.769
4.13
11.78
17.047
19.754
20
17.955
14.275
10.197
6.513
3.569
1.618
0.676
0.779
2.071
4.511
7.894
12.049
16.804
22.029
27.694
33.703
39.913
46.166
52.25
57.999
63.32
68.144
72.448
76.221
79.446
82.134
84.335
86.111
87.531
88.655
89.524
90.193
90.733
91.229
91.783
92.471
93.341
94.435
95.778
97.39
99.292
101.49
103.972
106.728
109.752
113.039
116.592
120.403
124.46
128.742
133.23
137.905
142.751
147.749
152.877
158.115
163.441
168.836
174.281
179.753
185.226
190.671
196.059
201.359
206.542
211.578
216.434
221.081
225.49
229.633
233.486
237.024
240.222
243.059
245.515
247.572
249.214
250.428
251.2
251.522
251.387
250.79
249.73
248.206
246.22
243.778
240.886
237.555
233.796
229.623
225.051
220.099
214.787
209.136
203.17
196.913
190.392
183.633
176.665
169.517
162.217
154.794
147.279
139.699
132.084
124.462
116.86
109.305
101.824
94.44
87.178
80.061
73.109
66.342
59.777
53.432
47.32
41.454
35.846
30.505
25.438
20.651
16.148
11.931
8.001
4.355
0.992
-2.093
-4.906
-7.455
-9.747
-11.794
-13.604
-15.19
-16.564
-17.739
-18.728
-19.546
-20.206
-20.723
-21.11
-21.383
-21.555
-21.641
-21.653
-21.604
-21.507
-21.374
-21.216
-21.043
-20.864
-20.689
-20.525
-20.381
-20.26
-20.171
-20.116
-20.099
-20.124
-20.192
-20.305
-20.463
-20.667
-20.914
-21.206
-21.538
-21.91
-22.317
-22.758
-23.229
-23.726
-24.246
-24.784
-25.336
-25.899
-26.468
-27.039
-27.609
-28.173
-28.729
-29.273
-29.802
-30.314
-30.805
-31.275
-31.721
-32.142
-32.537
-32.904
-33.245
-33.558
-33.844
-34.102
-34.334
-34.541
-34.723
-34.882
-35.018
-35.134
-35.231
-35.311
-35.376
-35.426
-35.465
-35.493
-35.514
-35.527
-35.536
-35.541
-35.545
-35.549
-35.553
-35.56
-35.569
-35.583
-35.601
-35.625
-35.653
-35.688
-35.728
-35.773
-35.823
-35.879
-35.938
-36.002
-36.069
-36.139
-36.21
-36.283
-36.357
-36.43
-36.502
-36.573
-36.641
-36.706
-36.768
-36.826
-36.88
-36.929
-36.975
-37.017
-37.055
-37.089
-37.12
-37.148
-37.173
-37.197
-37.219
-37.243
-37.267
-37.295
-37.327
-37.364
-37.408
-37.46
-37.52
-37.59
-37.67
-37.761
-37.864
-37.979
-38.108
-38.25
-38.406
-38.577
-38.761
-38.957
-39.164
-39.382
-39.608
-39.838
-40.071
-40.304
-40.535
-40.76
-40.977
-41.182
-41.371
-41.541
-41.689
-41.809
-41.896
-41.947
-41.955
-41.917
-41.83
-41.69
-41.496
-41.245
-40.933
-40.56
-40.125
-39.627
-39.064
-38.436
-37.741
-36.983
-36.163
-35.285
-34.354
-33.373
-32.349
-31.292
-30.211
-29.111
-28
-26.886
-25.775
-24.675
-23.592
-22.53
-21.496
-20.497
-19.545
-18.648
-17.817
-17.059
-16.381
-15.792
-15.296
-14.899
-14.602
-14.4
-14.293
-14.286
-14.386
-14.606
-14.951
-15.414
-15.988
-16.669
-17.44
-18.278
-19.144
-19.975
-20.724
-21.369
-21.894
-22.294
-22.561
-22.666
-22.594
-22.346
-21.928
-21.35
-20.618
-19.722
-18.697
-17.625
-16.629
-15.879
-15.508
-15.594
-16.2
-17.383
-19.189
-21.669
-24.811
-28.5
-32.637
-37.15
-41.99
-47.157
-52.538
-57.866
-62.801
-66.95
-69.945
-71.537
-71.4
-69.062
-64.32
-57.228
-48.156
-37.969
-27.4
-16.738
-6.459
2.814
11.108
18.841
27.124
38.064
53.11
72.681
97.317
127.317
161.484
197.436
231.125
256.969
270.536
268.732
248.399
206.703
142.763
58.141
-42.622
-152.806
-266.285
-377.74
-481.455
-570.749
-639.657
-684.782
-705.688
-704.282
-682.997
-643.883
-589.416
-524.552
-455.426
-387.011
-322.999
-265.248
-214.5
-172.211
-140.088
-117.513
-102.247
-91.869
-83.653
-76.228
-69.454
-62.421
-53.694
-42.943
-30.632
-17.837
-6.435
2.658
9.547
14.106
16.146
15.751
13.091
8.815
4.156
-0.08
-3.545
-5.99
-7.397
-7.74
-6.889
-4.89
-1.961
1.717
5.966
10.654
15.748
21.162
26.758
32.38
37.821
42.911
47.557
51.695
55.302
58.369
60.884
62.858
64.349
65.423
66.158
66.616
66.841
66.888
66.829
66.75
66.751
66.908
67.271
67.878
68.755
69.924
71.404
73.202
75.304
77.701
80.385
83.352
86.602
90.128
93.916
97.946
102.199
106.655
111.3
116.113
121.073
126.16
131.35
136.625
141.964
147.344
152.738
158.116
163.448
168.705
173.855
178.867
183.711
188.354
192.769
196.929
200.806
204.377
207.617
210.503
213.017
215.14
216.855
218.148
219.007
219.421
219.385
218.892
217.94
216.529
214.66
212.337
209.568
206.362
202.729
198.683
194.239
189.415
184.23
178.706
172.866
166.733
160.333
153.694
146.842
139.807
132.616
125.299
117.884
110.4
102.876
95.34
87.818
80.338
72.926
65.607
58.404
51.341
44.439
37.718
31.195
24.889
18.814
12.985
7.412
2.108
-2.921
-7.668
-12.126
-16.293
-20.169
-23.751
-27.044
-30.049
-32.772
-35.219
-37.398
-39.317
-40.985
-42.415
-43.616
-44.601
-45.383
-45.976
-46.391
-46.644
-46.749
-46.718
-46.566
-46.307
-45.955
-45.521
-45.019
-44.461
-43.859
-43.224
-42.566
-41.895
-41.22
-40.549
-39.89
-39.25
-38.633
-38.046
-37.493
-36.976
-36.499
-36.064
-35.672
-35.323
-35.017
-34.755
-34.534
-34.353
-34.21
-34.102
-34.028
-33.984
-33.967
-33.974
-34.001
-34.045
-34.102
-34.17
-34.244
-34.322
-34.399
-34.474
-34.543
-34.603
-34.653
-34.688
-34.709
-34.712
-34.697
-34.662
-34.606
-34.528
-34.428
-34.306
-34.161
-33.994
-33.805
-33.596
-33.366
-33.117
-32.851
-32.569
-32.271
-31.96
-31.638
-31.305
-30.963
-30.615
-30.262
-29.905
-29.548
-29.19
-28.835
-28.484
-28.138
-27.799
-27.469
-27.148
-26.837
-26.539
-26.253
-25.982
-25.726
-25.486
-25.263
-25.058
-24.872
-24.705
-24.558
-24.43
-24.323
-24.236
-24.169
-24.122
-24.096
-24.09
-24.105
-24.141
-24.196
-24.271
-24.365
-24.476
-24.603
-24.745
-24.902
-25.07
-25.25
-25.44
-25.639
-25.846
-26.059
-26.275
-26.494
-26.712
-26.926
-27.135
-27.334
-27.521
-27.692
-27.845
-27.976
-28.084
-28.165
-28.216
-28.233
-28.213
-28.153
-28.048
-27.895
-27.69
-27.43
-27.114
-26.74
-26.308
-25.817
-25.265
-24.655
-23.985
-23.257
-22.471
-21.627
-20.725
-19.77
-18.764
-17.711
-16.617
-15.487
-14.327
-13.147
-11.955
-10.757
-9.56
-8.371
-7.196
-6.042
-4.913
-3.815
-2.751
-1.731
-0.761
0.148
0.988
1.751
2.434
3.029
3.534
3.943
4.259
4.487
4.631
4.689
4.653
4.511
4.258
3.901
3.448
2.905
2.287
1.617
0.935
0.304
-0.226
-0.625
-0.88
-0.991
-0.953
-0.747
-0.349
0.242
1.022
1.976
3.101
4.409
5.873
7.423
8.928
10.201
11.089
11.495
11.355
10.613
9.233
7.171
4.429
1.112
-2.677
-6.855
-11.382
-16.272
-21.436
-26.644
-31.55
-35.711
-38.728
-40.305
-40.083
-37.642
-32.828
-25.707
-16.665
-6.547
3.998
14.598
24.739
34.06
42.737
51.358
61.148
73.765
90.176
110.767
135.939
165.439
197.788
230.133
258.191
277.535
284.671
276.761
251.044
205.347
139.572
56.472
-38.881
-140.99
-244.513
-344.208
-434.236
-508.044
-561.207
-592.519
-602.93
-594.429
-569.623
-531.391
-483.965
-433.326
-384.019
-338.468
-297.923
-262.506
-231.984
-206.214
-184.01
-162.998
-141.678
-119.518
-96.544
-73.574
-51.358
-30.324
-11.227
4.951
17.695
26.848
32.56
35.373
35.799
34.26
31.264
27.312
22.817
18.153
13.662
9.608
6.232
3.722
2.192
1.71
2.308
3.979
6.665
10.263
14.627
19.604
25.053
30.835
36.81
42.823
48.691
54.258
59.418
64.102
68.278
71.931
75.051
77.657
79.8
81.548
82.976
84.151
85.128
85.969
86.745
87.535
88.426
89.487
90.764
92.293
94.1
96.204
98.621
101.355
104.392
107.719
111.328
115.209
119.359
123.768
128.417
133.288
138.357
143.604
149.01
154.554
160.212
165.96
171.774
177.631
183.51
189.385
195.227
201.004
206.686
212.241
217.637
222.841
227.822
232.548
236.99
241.12
244.912
248.34
251.382
254.015
256.219
257.978
259.276
260.099
260.436
260.28
259.623
258.463
256.799
254.633
251.969
248.814
245.176
241.068
236.504
231.499
226.073
220.245
214.037
207.476
200.585
193.393
185.928
178.22
170.3
162.199
153.948
145.578
137.122
128.609
120.072
111.54
103.043
94.609
86.267
78.042
69.961
62.046
54.321
46.807
39.522
32.483
25.708
19.208
12.997
7.084
1.477
-3.817
-8.794
-13.451
-17.788
-21.806
-25.508
-28.898
-31.981
-34.766
-37.262
-39.477
-41.424
-43.114
-44.559
-45.774
-46.772
-47.569
-48.178
-48.614
-48.894
-49.032
-49.043
-48.942
-48.743
-48.462
-48.11
-47.703
-47.251
-46.767
-46.262
-45.746
-45.229
-44.72
-44.226
-43.756
-43.316
-42.91
-42.544
-42.221
-41.945
-41.717
-41.539
-41.413
-41.336
-41.311
-41.334
-41.405
-41.522
-41.681
-41.881
-42.117
-42.386
-42.685
-43.008
-43.353
-43.714
-44.089
-44.472
-44.859
-45.248
-45.632
-46.01
-46.378
-46.731
-47.067
-47.382
-47.675
-47.941
-48.18
-48.389
-48.567
-48.713
-48.827
-48.907
-48.955
-48.969
-48.951
-48.902
-48.822
-48.713
-48.576
-48.415
-48.23
-48.025
-47.803
-47.568
-47.321
-47.066
-46.807
-46.545
-46.285
-46.03
-45.782
-45.544
-45.321
-45.113
-44.926
-44.762
-44.623
-44.511
-44.428
-44.374
-44.352
-44.361
-44.401
-44.472
-44.571
-44.7
-44.856
-45.039
-45.247
-45.478
-45.728
-45.995
-46.274
-46.563
-46.857
-47.149
-47.437
-47.714
-47.979
-48.228
-48.456
-48.659
-48.833
-48.976
-49.085
-49.155
-49.184
-49.167
-49.103
-48.992
-48.833
-48.627
-48.375
-48.082
-47.751
-47.387
-46.995
-46.579
-46.142
-45.688
-45.22
-44.743
-44.257
-43.767
-43.276
-42.793
-42.326
-41.883
-41.472
-41.098
-40.767
-40.488
-40.266
-40.104
-39.998
-39.949
-39.961
-40.043
-40.212
-40.474
-40.826
-41.26
-41.767
-42.339
-42.956
-43.587
-44.178
-44.678
-45.049
-45.282
-45.38
-45.336
-45.136
-44.753
-44.168
-43.406
-42.496
-41.455
-40.299
-39.043
-37.738
-36.509
-35.518
-34.917
-34.822
-35.285
-36.342
-38.053
-40.457
-43.581
-47.394
-51.744
-56.501
-61.584
-66.929
-72.497
-78.13
-83.505
-88.238
-91.946
-94.286
-95.021
-93.837
-90.325
-84.362
-76.073
-65.908
-54.746
-43.24
-31.715
-20.665
-10.504
-1.137
7.904
17.765
30.101
45.861
65.344
88.838
116.06
145.564
174.673
199.395
215.496
219.651
209.251
181.81
135.426
70.232
-10.997
-103.425
-201.737
-300.77
-395.499
-480.315
-549.026
-597.569
-624.934
-632.095
-621.037
-594.333
-554.812
-506.642
-455.622
-406.117
-360.438
-319.752
-284.153
-253.408
-227.392
-204.973
-183.841
-162.531
-140.522
-117.84
-95.309
-73.666
-53.305
-34.921
-19.409
-7.221
1.507
6.927
9.602
10.055
8.733
6.157
2.762
-1.096
-5.071
-8.848
-12.162
-14.779
-16.542
-17.368
-17.194
-15.991
-13.763
-10.56
-6.508
-1.762
3.516
9.18
15.115
21.2
27.288
33.205
38.799
43.969
48.659
52.848
56.518
59.656
62.277
64.429
66.188
67.631
68.824
69.819
70.677
71.462
72.254
73.139
74.182
75.428
76.912
78.657
80.686
83.017
85.655
88.586
91.801
95.29
99.046
103.067
107.344
111.859
116.593
121.524
126.634
131.904
137.314
142.84
148.46
154.15
159.888
165.653
171.419
177.156
182.836
188.426
193.895
199.212
204.344
209.258
213.924
218.311
222.392
226.141
229.531
232.54
235.143
237.323
239.061
240.342
241.151
241.479
241.317
240.659
239.503
237.848
235.698
233.055
229.929
226.328
222.266
217.757
212.819
207.471
201.734
195.632
189.191
182.438
175.401
168.111
160.597
152.894
145.032
137.044
128.963
120.821
112.651
104.484
96.352
88.284
80.31
72.458
64.755
57.225
49.893
42.78
35.907
29.292
22.951
16.899
11.147
5.707
0.587
-4.208
-8.673
-12.805
-16.605
-20.074
-23.216
-26.036
-28.54
-30.738
-32.639
-34.254
-35.596
-36.677
-37.513
-38.118
-38.508
-38.698
-38.706
-38.547
-38.238
-37.796
-37.236
-36.575
-35.828
-35.011
-34.136
-33.219
-32.271
-31.306
-30.333
-29.364
-28.407
-27.472
-26.565
-25.694
-24.863
-24.078
-23.343
-22.66
-22.031
-21.459
-20.942
-20.482
-20.077
-19.726
-19.428
-19.179
-18.977
-18.818
-18.7
-18.619
-18.57
-18.549
-18.553
-18.578
-18.619
-18.673
-18.736
-18.805
-18.876
-18.946
-19.013
-19.075
-19.128
-19.171
-19.203
-19.222
-19.227
-19.217
-19.193
-19.152
-19.097
-19.027
-18.942
-18.844
-18.733
-18.61
-18.477
-18.335
-18.184
-18.028
-17.867
-17.704
-17.541
-17.379
-17.221
-17.069
-16.925
-16.792
-16.67
-16.563
-16.471
-16.398
-16.343
-16.309
-16.298
-16.31
-16.348
-16.412
-16.505
-16.625
-16.775
-16.954
-17.163
-17.401
-17.668
-17.965
-18.291
-18.644
-19.026
-19.434
-19.869
-20.328
-20.809
-21.311
-21.83
-22.364
-22.908
-23.46
-24.016
-24.571
-25.123
-25.667
-26.199
-26.717
-27.214
-27.686
-28.129
-28.538
-28.908
-29.233
-29.509
-29.731
-29.896
-30.002
-30.045
-30.022
-29.931
-29.769
-29.537
-29.231
-28.851
-28.395
-27.865
-27.26
-26.583
-25.839
-25.031
-24.166
-23.251
-22.292
-21.299
-20.278
-19.235
-18.178
-17.113
-16.046
-14.983
-13.929
-12.891
-11.878
-10.9
-9.969
-9.093
-8.282
-7.542
-6.88
-6.305
-5.823
-5.43
-5.13
-4.924
-4.82
-4.836
-4.981
-5.249
-5.638
-6.135
-6.726
-7.398
-8.118
-8.833
-9.499
-10.065
-10.503
-10.817
-10.996
-11.024
-10.882
-10.532
-9.974
-9.247
-8.37
-7.358
-6.238
-5.039
-3.856
-2.862
-2.204
-2.022
-2.416
-3.415
-5.073
-7.449
-10.572
-14.447
-18.992
-24.046
-29.5
-35.301
-41.388
-47.656
-53.836
-59.511
-64.274
-67.747
-69.634
-69.63
-67.293
-62.393
-55
-45.468
-34.582
-23.088
-11.309
0.33
11.23
21.418
31.312
41.86
54.931
71.832
92.832
118.284
148.38
181.848
216.361
248.276
272.477
284.738
282.215
261.902
221.094
159.405
78.634
-17.175
-121.737
-228.919
-333.335
-428.67
-508.065
-566.945
-603.174
-616.764
-610.139
-586.338
-548.375
-500.878
-449.826
-399.696
-353.361
-312.495
-277.115
-246.894
-221.608
-199.87
-179.349
-158.608
-137.008
-114.492
-91.86
-69.831
-48.851
-29.732
-13.478
-0.616
8.675
14.534
17.5
18.073
16.663
13.782
9.953
5.598
1.101
-3.197
-7.06
-10.265
-12.625
-14.035
-14.425
-13.764
-12.068
-9.394
-5.84
-1.548
3.332
8.657
14.277
20.049
25.817
31.4
36.651
41.466
45.777
49.553
52.78
55.451
57.581
59.223
60.437
61.295
61.863
62.195
62.353
62.41
62.443
62.539
62.767
63.172
63.792
64.654
65.777
67.178
68.864
70.823
73.047
75.529
78.265
81.253
84.486
87.95
91.627
95.499
99.548
103.759
108.113
112.59
117.17
121.832
126.558
131.329
136.123
140.914
145.677
150.383
155.003
159.511
163.877
168.072
172.069
175.841
179.363
182.612
185.565
188.202
190.503
192.449
194.026
195.22
196.018
196.41
196.389
195.95
195.089
193.806
192.103
189.982
187.451
184.516
181.189
177.481
173.407
168.983
164.225
159.154
153.791
148.159
142.28
136.18
129.883
123.418
116.81
110.086
103.273
96.398
89.488
82.568
75.664
68.801
62.003
55.293
48.693
42.224
35.905
29.756
23.793
18.032
12.485
7.166
2.085
-2.749
-7.327
-11.646
-15.699
-19.485
-23.003
-26.252
-29.235
-31.955
-34.417
-36.627
-38.591
-40.319
-41.819
-43.101
-44.176
-45.056
-45.752
-46.276
-46.642
-46.861
-46.948
-46.914
-46.773
-46.537
-46.219
-45.83
-45.382
-44.886
-44.353
-43.793
-43.214
-42.626
-42.037
-41.453
-40.882
-40.329
-39.8
-39.299
-38.83
-38.396
-38
-37.643
-37.327
-37.052
-36.819
-36.626
-36.473
-36.359
-36.281
-36.239
-36.23
-36.251
-36.299
-36.373
-36.468
-36.583
-36.713
-36.857
-37.012
-37.174
-37.342
-37.513
-37.685
-37.855
-38.023
-38.186
-38.342
-38.49
-38.629
-38.759
-38.877
-38.984
-39.078
-39.161
-39.231
-39.288
-39.333
-39.366
-39.387
-39.397
-39.396
-39.386
-39.367
-39.339
-39.305
-39.266
-39.222
-39.174
-39.125
-39.075
-39.025
-38.977
-38.931
-38.888
-38.85
-38.818
-38.793
-38.776
-38.768
-38.771
-38.785
-38.813
-38.855
-38.912
-38.985
-39.075
-39.184
-39.312
-39.461
-39.631
-39.823
-40.039
-40.28
-40.545
-40.835
-41.149
-41.488
-41.85
-42.235
-42.642
-43.07
-43.518
-43.984
-44.467
-44.966
-45.478
-45.999
-46.528
-47.06
-47.593
-48.121
-48.64
-49.146
-49.635
-50.101
-50.541
-50.95
-51.322
-51.653
-51.937
-52.169
-52.344
-52.455
-52.497
-52.464
-52.353
-52.16
-51.882
-51.517
-51.063
-50.517
-49.879
-49.149
-48.326
-47.412
-46.406
-45.31
-44.128
-42.864
-41.525
-40.117
-38.647
-37.126
-35.563
-33.969
-32.351
-30.72
-29.083
-27.448
-25.826
-24.221
-22.64
-21.095
-19.594
-18.152
-16.779
-15.485
-14.279
-13.17
-12.166
-11.276
-10.502
-9.841
-9.293
-8.861
-8.554
-8.387
-8.364
-8.479
-8.723
-9.083
-9.55
-10.102
-10.703
-11.298
-11.831
-12.26
-12.571
-12.763
-12.822
-12.732
-12.459
-11.979
-11.311
-10.482
-9.504
-8.388
-7.141
-5.81
-4.513
-3.412
-2.658
-2.367
-2.594
-3.374
-4.774
-6.843
-9.619
-13.08
-17.079
-21.488
-26.23
-31.25
-36.519
-41.886
-47.026
-51.551
-55.068
-57.226
-57.782
-56.406
-52.662
-46.397
-37.71
-27.043
-15.295
-3.138
9.081
20.834
31.69
41.75
51.51
62.198
75.568
92.642
113.826
139.541
169.538
202.313
234.967
263.115
282.212
288.723
279.808
252.693
205.173
137.118
51.381
-46.759
-151.704
-258.214
-361.37
-455.605
-534.237
-592.245
-627.815
-641.682
-635.572
-611.533
-571.366
-518.107
-457.585
-395.489
-335.945
-281.324
-232.548
-190.323
-156.084
-130.642
-112.389
-98.816
-87.305
-76.251
-65.555
-55.225
-44.594
-32.773
-19.779
-6.561
5.252
14.534
21.219
25.56
27.775
27.776
25.511
21.452
16.558
11.73
7.515
4.166
1.707
0.233
-0.09
0.774
2.731
5.619
9.24
13.45
18.168
23.309
28.771
34.431
40.115
45.638
50.852
55.658
60.005
63.874
67.242
70.094
72.442
74.334
75.845
77.05
78.006
78.754
79.348
79.853
80.356
80.948
81.695
82.64
83.813
85.236
86.932
88.919
91.198
93.757
96.582
99.663
102.997
106.583
110.41
114.463
118.72
123.162
127.769
132.526
137.413
142.409
147.492
152.642
157.838
163.063
168.293
173.502
178.664
183.749
188.729
193.578
198.265
202.762
207.041
211.076
214.844
218.32
221.483
224.312
226.787
228.892
230.611
231.929
232.837
233.322
233.378
233.001
232.186
230.935
229.249
227.129
224.584
221.621
218.249
214.483
210.335
205.821
200.961
195.773
190.28
184.504
178.468
172.198
165.72
159.061
152.247
145.306
138.265
131.151
123.991
116.812
109.64
102.5
95.418
88.416
81.519
74.748
68.124
61.666
55.392
49.318
43.46
37.831
32.443
27.306
22.428
17.817
13.477
9.412
5.623
2.11
-1.127
-4.093
-6.79
-9.226
-11.406
-13.338
-15.033
-16.499
-17.747
-18.789
-19.636
-20.301
-20.797
-21.137
-21.334
-21.402
-21.353
-21.202
-20.961
-20.644
-20.262
-19.827
-19.352
-18.847
-18.322
-17.787
-17.252
-16.724
-16.211
-15.719
-15.255
-14.823
-14.428
-14.073
-13.762
-13.496
-13.277
-13.106
-12.983
-12.908
-12.88
-12.899
-12.961
-13.066
-13.212
-13.394
-13.612
-13.861
-14.138
-14.44
-14.764
-15.107
-15.464
-15.833
-16.209
-16.591
-16.974
-17.356
-17.735
-18.106
-18.469
-18.821
-19.16
-19.485
-19.794
-20.086
-20.361
-20.616
-20.853
-21.07
-21.268
-21.446
-21.605
-21.744
-21.865
-21.967
-22.052
-22.12
-22.172
-22.209
-22.231
-22.239
-22.236
-22.22
-22.195
-22.16
-22.117
-22.068
-22.012
-21.952
-21.888
-21.821
-21.753
-21.683
-21.615
-21.547
-21.481
-21.419
-21.361
-21.307
-21.259
-21.217
-21.183
-21.156
-21.137
-21.128
-21.129
-21.141
-21.165
-21.203
-21.254
-21.321
-21.405
-21.505
-21.623
-21.76
-21.917
-22.095
-22.294
-22.515
-22.76
-23.028
-23.321
-23.638
-23.981
-24.348
-24.74
-25.155
-25.594
-26.056
-26.538
-27.041
-27.563
-28.104
-28.661
-29.233
-29.818
-30.413
-31.015
-31.621
-32.228
-32.83
-33.424
-34.006
-34.571
-35.115
-35.635
-36.125
-36.581
-36.997
-37.37
-37.694
-37.965
-38.177
-38.325
-38.406
-38.415
-38.351
-38.213
-37.998
-37.705
-37.334
-36.883
-36.354
-35.747
-35.062
-34.299
-33.461
-32.552
-31.577
-30.54
-29.449
-28.31
-27.133
-25.929
-24.706
-23.473
-22.236
-21.005
-19.787
-18.59
-17.421
-16.285
-15.191
-14.147
-13.166
-12.258
-11.43
-10.688
-10.038
-9.488
-9.043
-8.704
-8.466
-8.328
-8.292
-8.365
-8.564
-8.895
-9.351
-9.924
-10.604
-11.378
-12.224
-13.104
-13.959
-14.726
-15.367
-15.869
-16.227
-16.431
-16.463
-16.287
-15.888
-15.283
-14.49
-13.521
-12.383
-11.093
-9.722
-8.409
-7.339
-6.683
-6.559
-7.028
-8.145
-9.969
-12.547
-15.9
-19.951
-24.559
-29.617
-35.074
-40.907
-47.025
-53.18
-58.972
-63.953
-67.702
-69.913
-70.254
-68.256
-63.686
-56.597
-47.344
-36.776
-25.672
-14.342
-3.213
7.126
16.749
26.119
36.259
49.157
66.176
87.585
113.75
144.82
179.387
214.902
247.447
271.66
283.2
279.199
256.617
212.708
147.11
61.857
-38.581
-147.626
-259.082
-367.796
-467.7
-551.746
-614.788
-654.169
-669.786
-663.987
-639.437
-598.17
-543.685
-481.829
-418.149
-357.179
-301.704
-252.408
-209.794
-175.143
-148.969
-129.783
-115.273
-102.777
-90.678
-78.921
-67.515
-55.865
-43.2
-29.517
-15.725
-3.432
6.285
13.341
17.955
20.336
20.387
18.099
13.989
9.035
4.15
-0.114
-3.495
-5.949
-7.36
-7.565
-6.539
-4.387
-1.292
2.565
7.045
12.074
17.571
23.414
29.456
35.52
41.41
46.973
52.105
56.741
60.851
64.415
67.424
69.894
71.877
73.445
74.668
75.606
76.303
76.814
77.211
77.579
78.011
78.575
79.316
80.268
81.457
82.902
84.623
86.621
88.884
91.401
94.164
97.169
100.416
103.897
107.598
111.5
115.585
119.837
124.24
128.779
133.432
138.182
143.009
147.894
152.821
157.767
162.708
167.617
172.468
177.231
181.88
186.387
190.722
194.857
198.766
202.425
205.809
208.896
211.663
214.091
216.162
217.859
219.167
220.074
220.568
220.642
220.288
219.504
218.286
216.637
214.557
212.051
209.127
205.793
202.062
197.946
193.46
188.622
183.451
177.967
172.193
166.153
159.871
153.373
146.686
139.837
132.855
125.766
118.599
111.382
104.142
96.906
89.701
82.552
75.483
68.52
61.684
54.998
48.482
42.153
36.031
30.13
24.464
19.047
13.889
8.999
4.384
0.051
-3.997
-7.757
-11.229
-14.414
-17.315
-19.936
-22.282
-24.361
-26.181
-27.751
-29.082
-30.185
-31.072
-31.756
-32.251
-32.569
-32.726
-32.736
-32.612
-32.369
-32.022
-31.583
-31.068
-30.488
-29.856
-29.186
-28.488
-27.773
-27.051
-26.332
-25.625
-24.937
-24.276
-23.648
-23.059
-22.513
-22.014
-21.565
-21.168
-20.826
-20.537
-20.304
-20.125
-19.999
-19.925
-19.9
-19.922
-19.988
-20.096
-20.241
-20.422
-20.633
-20.871
-21.133
-21.415
-21.713
-22.025
-22.347
-22.676
-23.008
-23.341
-23.673
-24
-24.322
-24.635
-24.939
-25.231
-25.51
-25.776
-26.028
-26.264
-26.485
-26.691
-26.882
-27.057
-27.218
-27.366
-27.5
-27.621
-27.73
-27.829
-27.917
-27.996
-28.067
-28.13
-28.186
-28.236
-28.28
-28.319
-28.353
-28.383
-28.41
-28.433
-28.453
-28.47
-28.484
-28.497
-28.507
-28.516
-28.525
-28.532
-28.54
-28.548
-28.556
-28.566
-28.577
-28.59
-28.606
-28.626
-28.649
-28.677
-28.71
-28.75
-28.798
-28.855
-28.922
-29.001
-29.093
-29.199
-29.322
-29.461
-29.62
-29.799
-30
-30.224
-30.474
-30.749
-31.053
-31.384
-31.745
-32.134
-32.552
-32.998
-33.471
-33.972
-34.498
-35.048
-35.62
-36.214
-36.828
-37.458
-38.101
-38.754
-39.414
-40.076
-40.736
-41.388
-42.028
-42.65
-43.25
-43.822
-44.362
-44.863
-45.321
-45.729
-46.083
-46.376
-46.603
-46.757
-46.834
-46.827
-46.735
-46.555
-46.284
-45.921
-45.464
-44.913
-44.269
-43.531
-42.702
-41.781
-40.77
-39.673
-38.495
-37.243
-35.921
-34.539
-33.104
-31.628
-30.122
-28.595
-27.057
-25.517
-23.983
-22.465
-20.971
-19.508
-18.083
-16.706
-15.389
-14.143
-12.98
-11.91
-10.94
-10.078
-9.33
-8.702
-8.194
-7.802
-7.523
-7.361
-7.324
-7.425
-7.67
-8.052
-8.566
-9.205
-9.953
-10.788
-11.668
-12.532
-13.329
-14.031
-14.624
-15.107
-15.475
-15.708
-15.783
-15.694
-15.445
-15.046
-14.496
-13.785
-12.934
-12.01
-11.147
-10.519
-10.274
-10.503
-11.266
-12.614
-14.59
-17.238
-20.557
-24.453
-28.824
-33.598
-38.742
-44.262
-50.077
-55.955
-61.536
-66.409
-70.19
-72.603
-73.329
-71.91
-68.131
-62.034
-53.95
-44.688
-34.952
-25.023
-15.334
-6.48
1.587
9.294
17.641
28.598
43.51
62.713
86.723
115.849
148.944
183.752
216.417
241.58
255.031
253.837
234.922
195.492
134.552
53.424
-43.602
-150.106
-260.27
-369.002
-470.809
-559.187
-628.156
-674.177
-696.633
-697.182
-678.03
-641.061
-588.549
-525.286
-457.377
-389.826
-326.42
-269.154
-218.866
-177.076
-145.56
-123.743
-109.364
-99.972
-92.783
-86.353
-80.497
-74.275
-66.23
-56.027
-44.148
-31.688
-20.532
-11.612
-4.832
-0.325
1.71
1.35
-1.231
-5.386
-9.895
-13.961
-17.246
-19.512
-20.74
-20.905
-19.882
-17.717
-14.627
-10.794
-6.39
-1.545
3.708
9.283
15.046
20.844
26.475
31.773
36.647
41.034
44.91
48.268
51.091
53.392
55.223
56.65
57.744
58.568
59.161
59.578
59.887
60.17
60.526
61.026
61.718
62.638
63.811
65.257
66.997
69.035
71.358
73.958
76.828
79.962
83.361
87.021
90.926
95.058
99.4
103.933
108.642
113.51
118.518
123.644
128.87
134.176
139.545
144.953
150.375
155.784
161.15
166.444
171.638
176.702
181.604
186.315
190.807
195.054
199.03
202.71
206.071
209.09
211.748
214.027
215.91
217.383
218.432
219.049
219.224
218.954
218.233
217.063
215.442
213.375
210.869
207.93
204.57
200.801
196.638
192.097
187.197
181.958
176.404
170.558
164.444
158.091
151.524
144.772
137.864
130.828
123.693
116.489
109.243
101.984
94.74
87.537
80.402
73.36
66.436
59.651
53.029
46.589
40.349
34.328
28.539
22.998
17.715
12.702
7.966
3.515
-0.647
-4.517
-8.095
-11.379
-14.374
-17.083
-19.511
-21.666
-23.556
-25.19
-26.58
-27.737
-28.673
-29.402
-29.937
-30.293
-30.484
-30.525
-30.431
-30.216
-29.896
-29.485
-28.997
-28.445
-27.844
-27.204
-26.538
-25.858
-25.174
-24.495
-23.83
-23.188
-22.575
-21.997
-21.46
-20.968
-20.524
-20.132
-19.792
-19.505
-19.272
-19.093
-18.965
-18.888
-18.858
-18.874
-18.933
-19.029
-19.161
-19.324
-19.515
-19.728
-19.96
-20.207
-20.465
-20.729
-20.997
-21.265
-21.529
-21.786
-22.034
-22.27
-22.491
-22.697
-22.886
-23.055
-23.205
-23.335
-23.444
-23.533
-23.602
-23.652
-23.684
-23.698
-23.696
-23.679
-23.65
-23.608
-23.557
-23.497
-23.431
-23.361
-23.287
-23.213
-23.138
-23.065
-22.996
-22.93
-22.869
-22.815
-22.767
-22.726
-22.693
-22.667
-22.65
-22.641
-22.639
-22.644
-22.657
-22.675
-22.699
-22.726
-22.758
-22.792
-22.827
-22.862
-22.897
-22.93
-22.961
-22.988
-23.01
-23.027
-23.037
-23.04
-23.035
-23.023
-23.002
-22.972
-22.935
-22.891
-22.839
-22.781
-22.718
-22.65
-22.579
-22.505
-22.43
-22.355
-22.282
-22.212
-22.148
-22.09
-22.041
-22.002
-21.975
-21.961
-21.96
-21.973
-22.002
-22.047
-22.107
-22.184
-22.278
-22.388
-22.516
-22.658
-22.815
-22.985
-23.164
-23.353
-23.546
-23.74
-23.932
-24.117
-24.292
-24.453
-24.597
-24.717
-24.81
-24.871
-24.894
-24.875
-24.809
-24.688
-24.509
-24.266
-23.956
-23.578
-23.127
-22.601
-21.997
-21.317
-20.557
-19.719
-18.801
-17.803
-16.726
-15.573
-14.348
-13.056
-11.702
-10.292
-8.834
-7.339
-5.818
-4.279
-2.73
-1.18
0.362
1.887
3.385
4.854
6.284
7.666
8.99
10.243
11.416
12.5
13.488
14.372
15.143
15.795
16.326
16.742
17.042
17.221
17.273
17.182
16.94
16.557
16.038
15.389
14.626
13.772
12.866
11.978
11.158
10.434
9.824
9.331
8.962
8.746
8.696
8.812
9.096
9.535
10.121
10.869
11.74
12.649
13.473
14.023
14.152
13.776
12.816
11.221
8.952
5.972
2.32
-1.891
-6.576
-11.676
-17.164
-23.018
-29.076
-35.059
-40.621
-45.328
-48.836
-50.771
-50.641
-48.187
-43.388
-36.48
-28.142
-19.039
-9.489
0.013
8.837
17
24.859
33.516
44.99
60.431
80.126
104.504
133.797
167.283
203.232
237.753
265.298
281.979
284.973
271.514
239.213
186.038
111.897
20.568
-81.632
-189.375
-297.666
-401.548
-495.672
-573.147
-628.777
-661.205
-671.691
-662.028
-634.389
-590.72
-534.076
-470.546
-405.986
-344.411
-288.08
-237.85
-194.337
-158.923
-132.404
-113.13
-98.625
-86.375
-74.842
-63.943
-53.687
-43.385
-32.138
-19.951
-7.727
2.97
11.092
16.636
19.886
21.079
20.162
17.134
12.527
7.368
2.552
-1.431
-4.37
-6.288
-7.115
-6.689
-5.008
-2.209
1.509
5.929
10.903
16.356
22.178
28.228
34.337
40.283
45.892
51.057
55.701
59.799
63.341
66.307
68.708
70.59
72.012
73.05
73.771
74.224
74.467
74.571
74.623
74.725
74.959
75.375
76.014
76.903
78.061
79.509
81.256
83.289
85.601
88.186
91.039
94.163
97.553
101.195
105.072
109.163
113.451
117.919
122.55
127.324
132.22
137.218
142.299
147.445
152.634
157.84
163.036
168.192
173.278
178.266
183.125
187.824
192.333
196.624
200.668
204.442
207.92
211.077
213.891
216.342
218.412
220.083
221.34
222.171
222.565
222.514
222.013
221.058
219.65
217.789
215.479
212.727
209.542
205.934
201.917
197.506
192.717
187.57
182.087
176.289
170.201
163.848
157.257
150.456
143.472
136.334
129.071
121.711
114.284
106.817
99.34
91.879
84.462
77.114
69.86
62.724
55.729
48.896
42.245
35.794
29.559
23.556
17.797
12.294
7.056
2.092
-2.594
-6.995
-11.11
-14.938
-18.48
-21.738
-24.717
-27.421
-29.858
-32.036
-33.963
-35.651
-37.11
-38.353
-39.392
-40.239
-40.91
-41.417
-41.775
-41.998
-42.099
-42.094
-41.995
-41.815
-41.568
-41.266
-40.921
-40.543
-40.143
-39.732
-39.317
-38.907
-38.509
-38.131
-37.777
-37.453
-37.162
-36.909
-36.695
-36.524
-36.394
-36.308
-36.265
-36.265
-36.305
-36.384
-36.5
-36.65
-36.832
-37.042
-37.277
-37.533
-37.807
-38.095
-38.394
-38.7
-39.009
-39.319
-39.626
-39.928
-40.221
-40.504
-40.773
-41.027
-41.264
-41.482
-41.68
-41.857
-42.012
-42.145
-42.254
-42.34
-42.403
-42.443
-42.46
-42.455
-42.429
-42.382
-42.316
-42.232
-42.13
-42.013
-41.882
-41.737
-41.581
-41.415
-41.24
-41.057
-40.868
-40.674
-40.475
-40.274
-40.07
-39.864
-39.658
-39.452
-39.247
-39.043
-38.84
-38.64
-38.443
-38.249
-38.058
-37.871
-37.689
-37.511
-37.338
-37.171
-37.009
-36.853
-36.703
-36.559
-36.423
-36.293
-36.17
-36.054
-35.945
-35.843
-35.75
-35.664
-35.587
-35.519
-35.461
-35.413
-35.377
-35.353
-35.342
-35.344
-35.361
-35.393
-35.441
-35.507
-35.59
-35.691
-35.813
-35.954
-36.117
-36.301
-36.506
-36.732
-36.979
-37.247
-37.535
-37.843
-38.17
-38.515
-38.878
-39.257
-39.653
-40.063
-40.484
-40.916
-41.354
-41.797
-42.241
-42.681
-43.114
-43.537
-43.946
-44.337
-44.707
-45.05
-45.363
-45.641
-45.879
-46.072
-46.215
-46.304
-46.332
-46.298
-46.198
-46.029
-45.79
-45.477
-45.089
-44.624
-44.083
-43.464
-42.766
-41.988
-41.133
-40.201
-39.198
-38.126
-36.992
-35.801
-34.561
-33.283
-31.973
-30.639
-29.287
-27.925
-26.56
-25.199
-23.847
-22.51
-21.195
-19.912
-18.673
-17.487
-16.364
-15.31
-14.332
-13.439
-12.639
-11.933
-11.321
-10.802
-10.378
-10.061
-9.867
-9.803
-9.867
-10.05
-10.343
-10.738
-11.217
-11.744
-12.269
-12.734
-13.101
-13.359
-13.508
-13.54
-13.438
-13.173
-12.726
-12.113
-11.357
-10.469
-9.457
-8.332
-7.147
-6.028
-5.139
-4.637
-4.638
-5.2
-6.367
-8.203
-10.757
-14.055
-18.052
-22.62
-27.649
-33.092
-38.93
-45.094
-51.391
-57.484
-62.965
-67.451
-70.642
-72.202
-71.689
-68.823
-63.566
-56.162
-47.273
-37.589
-27.461
-17.351
-7.883
0.925
9.441
18.599
30.229
45.658
65.311
89.77
119.488
153.504
189.753
224.534
252.529
269.551
272.613
258.481
224.113
168.081
91.141
-2.854
-107.659
-217.668
-327.902
-432.832
-525.912
-600.737
-653.114
-681.951
-688.558
-674.798
-642.372
-593.365
-532.326
-465.519
-398.251
-334.508
-276.553
-225.39
-182.552
-149.95
-127.166
-111.898
-101.653
-93.588
-86.139
-79.125
-71.68
-62.385
-50.962
-37.947
-24.454
-12.432
-2.855
4.368
9.106
11.22
10.853
8.195
3.918
-0.736
-4.971
-8.426
-10.83
-12.167
-12.399
-11.382
-9.16
-5.932
-1.864
2.864
8.118
13.851
19.954
26.275
32.651
38.862
44.74
50.184
55.12
59.522
63.379
66.67
69.406
71.634
73.412
74.809
75.888
76.689
77.269
77.701
78.068
78.469
78.983
79.656
80.526
81.621
82.958
84.56
86.431
88.563
90.946
93.576
96.451
99.574
102.941
106.54
110.356
114.37
118.569
122.937
127.462
132.124
136.908
141.794
146.767
151.812
156.909
162.034
167.161
172.265
177.319
182.294
187.163
191.896
196.466
200.845
205.008
208.929
212.586
215.955
219.013
221.74
224.117
226.128
227.756
228.988
229.811
230.217
230.198
229.75
228.868
227.552
225.804
223.625
221.024
218.006
214.583
210.767
206.57
202.01
197.105
191.875
186.341
180.525
174.453
168.149
161.639
154.951
148.111
141.146
134.085
126.954
119.781
112.593
105.417
98.279
91.204
84.217
77.341
70.599
64.012
57.599
51.38
45.371
39.587
34.044
28.753
23.724
18.966
14.488
10.293
6.387
2.769
-0.558
-3.598
-6.352
-8.825
-11.023
-12.954
-14.625
-16.046
-17.228
-18.182
-18.919
-19.453
-19.797
-19.964
-19.968
-19.824
-19.545
-19.145
-18.639
-18.041
-17.363
-16.619
-15.822
-14.983
-14.115
-13.229
-12.334
-11.441
-10.559
-9.695
-8.856
-8.05
-7.282
-6.556
-5.877
-5.248
-4.672
-4.15
-3.684
-3.275
-2.921
-2.623
-2.38
-2.19
-2.051
-1.961
-1.918
-1.918
-1.96
-2.04
-2.155
-2.303
-2.478
-2.68
-2.904
-3.148
-3.408
-3.682
-3.968
-4.261
-4.562
-4.866
-5.173
-5.48
-5.787
-6.091
-6.393
-6.69
-6.983
-7.271
-7.553
-7.83
-8.101
-8.366
-8.626
-8.881
-9.132
-9.377
-9.619
-9.857
-10.092
-10.323
-10.552
-10.778
-11.002
-11.223
-11.443
-11.661
-11.877
-12.091
-12.304
-12.515
-12.725
-12.932
-13.137
-13.339
-13.539
-13.736
-13.929
-14.119
-14.305
-14.486
-14.663
-14.836
-15.003
-15.164
-15.32
-15.469
-15.613
-15.751
-15.884
-16.011
-16.134
-16.253
-16.369
-16.483
-16.596
-16.709
-16.823
-16.938
-17.057
-17.181
-17.31
-17.446
-17.591
-17.747
-17.914
-18.094
-18.288
-18.497
-18.721
-18.96
-19.217
-19.49
-19.78
-20.088
-20.412
-20.755
-21.114
-21.49
-21.881
-22.286
-22.702
-23.128
-23.56
-23.995
-24.43
-24.86
-25.282
-25.694
-26.091
-26.468
-26.822
-27.148
-27.441
-27.697
-27.911
-28.076
-28.189
-28.244
-28.239
-28.172
-28.039
-27.837
-27.566
-27.223
-26.809
-26.321
-25.76
-25.125
-24.415
-23.633
-22.783
-21.867
-20.891
-19.861
-18.783
-17.668
-16.524
-15.359
-14.181
-12.998
-11.816
-10.645
-9.492
-8.36
-7.256
-6.19
-5.172
-4.213
-3.322
-2.507
-1.775
-1.135
-0.592
-0.154
0.179
0.412
0.544
0.57
0.482
0.265
-0.085
-0.561
-1.155
-1.864
-2.668
-3.545
-4.454
-5.327
-6.117
-6.8
-7.358
-7.791
-8.089
-8.224
-8.182
-7.969
-7.589
-7.059
-6.39
-5.573
-4.646
-3.7
-2.861
-2.312
-2.196
-2.587
-3.557
-5.161
-7.431
-10.411
-14.074
-18.284
-22.935
-27.942
-33.24
-38.827
-44.57
-50.19
-55.355
-59.636
-62.642
-64.106
-63.663
-60.884
-55.643
-48.04
-38.516
-27.974
-17.084
-6.208
4.106
13.458
21.982
30.237
39.517
51.568
67.404
87.417
111.984
140.863
172.567
204.223
231.518
249.932
255.875
246.471
218.961
171.184
103.167
17.814
-79.721
-183.768
-288.794
-389.392
-479.524
-552.522
-604.003
-632.874
-640.211
-628.172
-599.547
-557.404
-506.226
-452.237
-400.117
-352.329
-310.091
-273.472
-242.182
-216.051
-193.838
-173.04
-152.065
-130.331
-107.85
-85.487
-64.017
-43.851
-25.722
-10.58
1.096
9.162
13.783
15.56
15.046
12.713
9.106
4.684
-0.184
-5.135
-9.848
-14.048
-17.493
-20.021
-21.548
-22.008
-21.375
-19.655
-16.904
-13.256
-8.878
-3.938
1.409
7.042
12.837
18.642
24.279
29.592
34.475
38.872
42.762
46.123
48.944
51.241
53.063
54.489
55.6
56.465
57.139
57.683
58.163
58.66
59.261
60.03
61.012
62.241
63.74
65.531
67.631
70.045
72.759
75.763
79.044
82.599
86.423
90.507
94.833
99.384
104.137
109.074
114.18
119.435
124.816
130.301
135.87
141.5
147.172
152.861
158.54
164.181
169.752
175.224
180.567
185.75
190.741
195.511
200.031
204.275
208.217
211.832
215.097
217.99
220.492
222.585
224.253
225.483
226.261
226.58
226.433
225.815
224.724
223.161
221.129
218.631
215.676
212.273
208.436
204.176
199.512
194.461
189.045
183.284
177.204
170.83
164.187
157.304
150.21
142.933
135.504
127.951
120.305
112.596
104.851
97.101
89.374
81.697
74.096
66.598
59.226
52.005
44.956
38.098
31.452
25.034
18.86
12.943
7.296
1.928
-3.152
-7.938
-12.424
-16.61
-20.492
-24.073
-27.355
-30.341
-33.038
-35.453
-37.593
-39.468
-41.09
-42.468
-43.616
-44.547
-45.274
-45.81
-46.171
-46.371
-46.425
-46.346
-46.15
-45.852
-45.464
-45.001
-44.476
-43.902
-43.29
-42.653
-42
-41.342
-40.688
-40.047
-39.425
-38.83
-38.267
-37.741
-37.257
-36.816
-36.423
-36.078
-35.782
-35.535
-35.338
-35.189
-35.086
-35.028
-35.011
-35.035
-35.094
-35.187
-35.309
-35.456
-35.625
-35.812
-36.013
-36.224
-36.44
-36.659
-36.876
-37.088
-37.292
-37.485
-37.663
-37.824
-37.965
-38.086
-38.183
-38.255
-38.302
-38.322
-38.316
-38.283
-38.224
-38.139
-38.029
-37.895
-37.738
-37.561
-37.363
-37.149
-36.918
-36.675
-36.422
-36.16
-35.894
-35.626
-35.36
-35.098
-34.844
-34.6
-34.37
-34.156
-33.963
-33.792
-33.647
-33.531
-33.447
-33.398
-33.386
-33.413
-33.48
-33.59
-33.742
-33.939
-34.179
-34.464
-34.792
-35.164
-35.578
-36.034
-36.53
-37.064
-37.634
-38.236
-38.866
-39.522
-40.198
-40.888
-41.589
-42.294
-42.998
-43.696
-44.382
-45.05
-45.694
-46.307
-46.884
-47.416
-47.898
-48.321
-48.679
-48.965
-49.176
-49.306
-49.352
-49.31
-49.176
-48.949
-48.626
-48.207
-47.689
-47.072
-46.355
-45.542
-44.635
-43.638
-42.556
-41.397
-40.166
-38.876
-37.534
-36.149
-34.731
-33.288
-31.828
-30.361
-28.895
-27.435
-25.991
-24.572
-23.191
-21.861
-20.594
-19.399
-18.287
-17.267
-16.347
-15.535
-14.831
-14.235
-13.746
-13.369
-13.114
-12.995
-13.02
-13.184
-13.482
-13.907
-14.445
-15.072
-15.749
-16.416
-17.025
-17.548
-17.973
-18.299
-18.523
-18.625
-18.588
-18.403
-18.072
-17.604
-16.997
-16.241
-15.36
-14.419
-13.542
-12.902
-12.636
-12.834
-13.558
-14.849
-16.741
-19.265
-22.408
-26.084
-30.202
-34.686
-39.503
-44.66
-50.072
-55.525
-60.688
-65.154
-68.546
-70.586
-70.942
-69.183
-65.114
-58.776
-50.504
-41.064
-31.112
-20.949
-10.998
-1.804
6.641
14.743
23.475
34.648
49.57
68.61
92.202
120.651
152.882
186.719
218.654
243.691
257.56
257.28
239.704
201.911
143.262
65.298
-28.186
-131.044
-237.178
-341.17
-436.614
-516.523
-576.158
-613.167
-627.381
-621.128
-597.364
-559.076
-510.925
-458.932
-407.662
-360.111
-318.038
-281.515
-250.267
-224.09
-201.581
-180.387
-159.024
-136.809
-113.663
-90.368
-67.643
-45.941
-26.096
-9.145
4.352
14.194
20.504
23.814
24.622
23.341
20.492
16.613
12.142
7.48
2.985
-1.091
-4.513
-7.079
-8.675
-9.22
-8.672
-7.039
-4.374
-0.77
3.633
8.685
14.246
20.163
26.286
32.456
38.482
44.209
49.53
54.371
58.697
62.491
65.741
68.462
70.705
72.531
74.011
75.21
76.18
76.986
77.7
78.4
79.177
80.098
81.211
82.553
84.149
86.018
88.176
90.627
93.357
96.355
99.613
103.123
106.883
110.885
115.11
119.542
124.157
128.939
133.869
138.927
144.093
149.344
154.66
160.02
165.405
170.793
176.158
181.471
186.704
191.827
196.812
201.629
206.248
210.64
214.778
218.636
222.19
225.417
228.294
230.803
232.923
234.64
235.938
236.805
237.231
237.207
236.727
235.79
234.394
232.539
230.231
227.474
224.276
220.65
216.606
212.161
207.329
202.131
196.586
190.718
184.55
178.106
171.415
164.503
157.398
150.131
142.729
135.223
127.641
120.013
112.366
104.729
97.13
89.595
82.15
74.819
67.625
60.592
53.738
47.084
40.647
34.443
28.485
22.787
17.359
12.209
7.345
2.772
-1.506
-5.488
-9.175
-12.568
-15.67
-18.487
-21.025
-23.293
-25.299
-27.054
-28.569
-29.856
-30.928
-31.798
-32.481
-32.99
-33.341
-33.548
-33.625
-33.587
-33.448
-33.222
-32.923
-32.563
-32.156
-31.713
-31.244
-30.762
-30.275
-29.792
-29.322
-28.871
-28.446
-28.052
-27.694
-27.376
-27.1
-26.868
-26.681
-26.541
-26.446
-26.396
-26.389
-26.424
-26.497
-26.607
-26.75
-26.923
-27.121
-27.342
-27.582
-27.837
-28.103
-28.376
-28.653
-28.93
-29.205
-29.473
-29.733
-29.981
-30.215
-30.433
-30.633
-30.814
-30.974
-31.113
-31.23
-31.324
-31.396
-31.445
-31.472
-31.478
-31.464
-31.43
-31.378
-31.31
-31.227
-31.131
-31.022
-30.904
-30.777
-30.644
-30.505
-30.364
-30.22
-30.076
-29.933
-29.793
-29.656
-29.525
-29.399
-29.28
-29.169
-29.066
-28.973
-28.888
-28.815
-28.752
-28.7
-28.66
-28.633
-28.618
-28.617
-28.629
-28.654
-28.693
-28.745
-28.811
-28.89
-28.983
-29.09
-29.212
-29.347
-29.497
-29.661
-29.838
-30.028
-30.231
-30.446
-30.672
-30.908
-31.155
-31.41
-31.675
-31.947
-32.226
-32.509
-32.796
-33.085
-33.372
-33.656
-33.932
-34.199
-34.452
-34.689
-34.906
-35.101
-35.271
-35.411
-35.518
-35.588
-35.618
-35.602
-35.538
-35.419
-35.243
-35.008
-34.71
-34.349
-33.922
-33.428
-32.866
-32.235
-31.536
-30.767
-29.929
-29.022
-28.047
-27.008
-25.909
-24.753
-23.547
-22.297
-21.011
-19.698
-18.367
-17.023
-15.675
-14.329
-12.992
-11.672
-10.374
-9.101
-7.863
-6.667
-5.525
-4.447
-3.439
-2.509
-1.661
-0.905
-0.247
0.312
0.774
1.142
1.412
1.574
1.615
1.527
1.314
0.985
0.549
0.015
-0.598
-1.253
-1.897
-2.473
-2.942
-3.291
-3.519
-3.617
-3.568
-3.341
-2.918
-2.316
-1.557
-0.651
0.393
1.562
2.797
3.969
4.908
5.449
5.473
4.918
3.737
1.87
-0.73
-4.086
-8.143
-12.773
-17.87
-23.378
-29.281
-35.506
-41.844
-47.943
-53.37
-57.715
-60.667
-61.887
-60.93
-57.55
-51.763
-43.872
-34.636
-24.786
-14.659
-4.709
4.465
12.933
21.171
30.234
42.075
58.047
78.472
103.813
134.391
168.995
205.297
239.399
265.788
280.188
279.715
261.274
222.086
161.276
80.068
-17.33
-124.12
-234.386
-342.981
-443.989
-531.159
-598.849
-643.237
-663.931
-663.402
-643.979
-608.04
-558.954
-500.935
-439.628
-380.467
-326.228
-277.625
-235.274
-199.577
-170.788
-148.986
-132.09
-117.082
-102.621
-88.459
-74.631
-61.477
-48.709
-35.481
-22.433
-11.147
-2.391
3.518
6.76
8.035
7.541
5.029
0.868
-4.091
-9.13
-13.572
-17.084
-19.719
-21.409
-21.971
-21.349
-19.583
-16.785
-13.159
-8.872
-4.01
1.326
7.014
12.918
18.852
24.615
30.053
35.061
39.573
43.561
47.01
49.905
52.257
54.114
55.542
56.61
57.382
57.904
58.231
58.431
58.592
58.805
59.144
59.654
60.371
61.319
62.519
63.989
65.734
67.741
69.999
72.502
75.246
78.23
81.448
84.887
88.53
92.356
96.35
100.497
104.781
109.183
113.685
118.266
122.911
127.604
132.325
137.049
141.753
146.409
150.992
155.475
159.831
164.032
168.051
171.864
175.445
178.773
181.827
184.584
187.026
189.136
190.897
192.295
193.318
193.956
194.2
194.043
193.483
192.518
191.147
189.372
187.2
184.635
181.686
178.365
174.684
170.657
166.299
161.63
156.668
151.434
145.952
140.243
134.333
128.247
122.01
115.649
109.19
102.659
96.082
89.485
82.893
76.332
69.824
63.395
57.066
50.858
44.793
38.888
33.163
27.631
22.309
17.21
12.344
7.723
3.354
-0.756
-4.602
-8.181
-11.49
-14.53
-17.301
-19.807
-22.052
-24.042
-25.784
-27.285
-28.554
-29.603
-30.442
-31.083
-31.537
-31.819
-31.94
-31.916
-31.759
-31.484
-31.104
-30.633
-30.084
-29.471
-28.806
-28.102
-27.369
-26.619
-25.862
-25.108
-24.365
-23.642
-22.946
-22.284
-21.66
-21.08
-20.547
-20.066
-19.638
-19.265
-18.948
-18.686
-18.48
-18.329
-18.231
-18.182
-18.182
-18.227
-18.313
-18.436
-18.593
-18.779
-18.99
-19.221
-19.469
-19.728
-19.996
-20.266
-20.536
-20.803
-21.061
-21.309
-21.544
-21.762
-21.961
-22.14
-22.296
-22.429
-22.537
-22.62
-22.677
-22.708
-22.713
-22.693
-22.648
-22.579
-22.487
-22.374
-22.241
-22.091
-21.924
-21.743
-21.55
-21.348
-21.139
-20.924
-20.707
-20.489
-20.273
-20.061
-19.854
-19.656
-19.466
-19.288
-19.123
-18.973
-18.837
-18.719
-18.618
-18.535
-18.471
-18.427
-18.404
-18.401
-18.418
-18.458
-18.519
-18.602
-18.708
-18.835
-18.984
-19.155
-19.347
-19.56
-19.793
-20.047
-20.32
-20.612
-20.923
-21.253
-21.602
-21.966
-22.347
-22.743
-23.152
-23.574
-24.006
-24.449
-24.901
-25.359
-25.825
-26.295
-26.769
-27.244
-27.719
-28.189
-28.654
-29.11
-29.552
-29.979
-30.386
-30.77
-31.128
-31.458
-31.755
-32.017
-32.238
-32.415
-32.545
-32.624
-32.645
-32.606
-32.503
-32.334
-32.097
-31.792
-31.415
-30.967
-30.448
-29.857
-29.194
-28.461
-27.656
-26.781
-25.839
-24.834
-23.77
-22.652
-21.487
-20.282
-19.046
-17.791
-16.522
-15.248
-13.977
-12.716
-11.472
-10.252
-9.062
-7.907
-6.797
-5.742
-4.753
-3.841
-3.013
-2.276
-1.639
-1.105
-0.68
-0.365
-0.153
-0.043
-0.037
-0.145
-0.38
-0.75
-1.247
-1.866
-2.599
-3.429
-4.334
-5.271
-6.176
-6.997
-7.707
-8.294
-8.757
-9.091
-9.278
-9.293
-9.131
-8.797
-8.299
-7.637
-6.802
-5.818
-4.761
-3.77
-3.031
-2.694
-2.852
-3.564
-4.882
-6.844
-9.492
-12.817
-16.718
-21.089
-25.856
-30.988
-36.492
-42.276
-48.085
-53.543
-58.215
-61.707
-63.741
-63.988
-61.984
-57.524
-50.666
-41.788
-31.753
-21.287
-10.678
-0.348
9.131
17.797
26.08
34.999
46.535
62.081
81.993
106.724
136.517
170.107
205.049
237.494
262.124
274.508
271.625
250.271
207.488
142.726
57.884
-42.651
-152.308
-264.827
-374.948
-476.455
-562.102
-626.567
-667.051
-683.395
-677.965
-653.438
-611.875
-556.839
-494.281
-429.882
-368.294
-312.349
-262.737
-219.971
-185.342
-159.371
-140.529
-126.423
-114.316
-102.55
-91.05
-79.823
-68.267
-55.594
-41.824
-27.914
-15.517
-5.744
1.3
5.835
8.065
7.882
5.284
0.802
-4.57
-9.898
-14.621
-18.482
-21.426
-23.331
-24.027
-23.481
-21.792
-19.138
-15.699
-11.607
-6.936
-1.762
3.788
9.566
15.39
21.06
26.421
31.367
35.831
39.779
43.193
46.058
48.39
50.24
51.679
52.776
53.592
54.169
54.564
54.85
55.113
55.449
55.926
56.591
57.478
58.611
60.014
61.701
63.676
65.926
68.438
71.204
74.22
77.485
80.991
84.723
88.661
92.788
97.087
101.542
106.136
110.851
115.667
120.564
125.525
130.534
135.568
140.604
145.616
150.576
155.458
160.234
164.877
169.357
173.648
177.723
181.56
185.133
188.422
191.405
194.062
196.375
198.329
199.909
201.102
201.898
202.287
202.264
201.823
200.964
199.684
197.986
195.874
193.353
190.432
187.12
183.43
179.375
174.972
170.238
165.192
159.856
154.251
148.401
142.331
136.065
129.631
123.054
116.361
109.578
102.732
95.848
88.954
82.074
75.233
68.455
61.763
55.181
48.728
42.427
36.294
30.349
24.607
19.083
13.791
8.743
3.948
-0.584
-4.847
-8.835
-12.544
-15.973
-19.12
-21.988
-24.579
-26.897
-28.946
-30.735
-32.271
-33.562
-34.619
-35.452
-36.072
-36.491
-36.722
-36.778
-36.67
-36.414
-36.021
-35.505
-34.88
-34.158
-33.352
-32.475
-31.539
-30.555
-29.534
-28.487
-27.424
-26.354
-25.284
-24.224
-23.179
-22.155
-21.158
-20.192
-19.261
-18.367
-17.512
-16.697
-15.923
-15.19
-14.497
-13.843
-13.226
-12.643
-12.093
-11.572
-11.076
-10.604
-10.15
-9.711
-9.283
-8.863
-8.446
-8.028
-7.606
-7.177
-6.736
-6.28
-5.807
-5.313
-4.796
-4.254
-3.684
-3.085
-2.456
-1.796
-1.104
-0.38
0.376
1.164
1.983
2.832
3.71
4.616
5.547
6.502
7.478
8.475
9.489
10.518
11.56
12.612
13.672
14.737
15.804
16.871
17.935
18.995
20.048
21.091
22.122
23.14
24.143
25.128
26.093
27.038
27.961
28.859
29.733
30.58
31.4
32.192
32.955
33.688
34.391
35.063
35.703
36.31
36.885
37.426
37.933
38.405
38.841
39.242
39.606
39.934
40.224
40.477
40.69
40.865
41
41.094
41.147
41.158
41.127
41.055
40.941
40.786
40.59
40.353
40.076
39.761
39.407
39.015
38.586
38.122
37.626
37.099
36.544
35.963
35.361
34.741
34.107
33.463
32.813
32.16
31.509
30.864
30.23
29.612
29.014
28.442
27.901
27.397
26.935
26.518
26.15
25.834
25.573
25.369
25.224
25.139
25.115
25.152
25.252
25.414
25.639
25.923
26.263
26.655
27.094
27.575
28.09
28.631
29.187
29.752
30.318
30.878
31.424
31.947
32.441
32.902
33.324
33.698
34.016
34.267
34.442
34.535
34.542
34.453
34.263
33.968
33.566
33.064
32.463
31.759
30.945
30.008
28.94
27.752
26.448
25.034
23.528
21.954
20.352
18.79
17.317
15.958
14.733
13.644
12.702
11.936
11.356
10.963
10.761
10.737
10.886
11.216
11.681
12.185
12.598
12.73
12.436
11.634
10.241
8.2
5.471
2.017
-2.118
-6.827
-12.034
-17.686
-23.758
-30.218
-36.882
-43.445
-49.539
-54.727
-58.658
-60.982
-61.211
-59.087
-54.615
-48.053
-40.111
-31.5
-22.538
-13.689
-5.579
1.862
9.099
17.186
28.102
43.174
62.737
87.31
117.239
151.394
187.518
221.707
248.47
263.553
264.007
246.66
208.601
148.665
67.945
-29.374
-136.756
-248.439
-359.396
-463.893
-555.303
-627.344
-676.007
-700.764
-703.527
-686.3
-650.886
-599.938
-538.331
-472.68
-408.676
-349.45
-296.33
-250.205
-212.365
-184.108
-164.728
-151.158
-140.06
-129.548
-119.035
-108.528
-97.608
-85.154
-70.914
-56.171
-42.8
-32.072
-24.343
-19.3
-16.624
-16.486
-18.896
-23.276
-28.621
-33.95
-38.667
-42.554
-45.58
-47.625
-48.526
-48.219
-46.781
-44.378
-41.17
-37.286
-32.797
-27.782
-22.375
-16.729
-11.028
-5.476
-0.228
4.618
8.993
12.87
16.234
19.068
21.383
23.231
24.675
25.785
26.624
27.235
27.679
28.034
28.389
28.847
29.481
30.339
31.459
32.868
34.587
36.635
39.016
41.718
44.729
48.043
51.653
55.56
59.756
64.224
68.942
73.889
79.045
84.39
89.906
95.567
101.352
107.236
113.198
119.216
125.266
131.319
137.345
143.31
149.182
154.931
160.523
165.925
171.104
176.03
180.675
185.011
189.011
192.652
195.908
198.76
201.188
203.174
204.703
205.763
206.342
206.433
206.03
205.131
203.735
201.844
199.462
196.596
193.256
189.453
185.202
180.519
175.421
169.93
164.067
157.858
151.327
144.501
137.409
130.079
122.542
114.828
106.967
98.989
90.925
82.805
74.659
66.516
58.404
50.351
42.384
34.529
26.809
19.249
11.869
4.689
-2.271
-8.995
-15.468
-21.677
-27.609
-33.255
-38.608
-43.66
-48.407
-52.848
-56.98
-60.806
-64.328
-67.549
-70.475
-73.113
-75.471
-77.558
-79.384
-80.96
-82.297
-83.409
-84.308
-85.006
-85.519
-85.859
-86.04
-86.076
-85.981
-85.769
-85.451
-85.042
-84.553
-83.997
-83.384
-82.727
-82.034
-81.315
-80.578
-79.833
-79.086
-78.342
-77.609
-76.89
-76.191
-75.513
-74.86
-74.233
-73.635
-73.065
-72.525
-72.013
-71.53
-71.073
-70.642
-70.234
-69.849
-69.483
-69.135
-68.802
-68.482
-68.172
-67.87
-67.573
-67.279
-66.987
-66.693
-66.395
-66.093
-65.783
-65.465
-65.138
-64.8
-64.451
-64.09
-63.717
-63.331
-62.934
-62.524
-62.104
-61.673
-61.233
-60.784
-60.328
-59.865
-59.398
-58.927
-58.454
-57.981
-57.508
-57.038
-56.571
-56.109
-55.652
-55.204
-54.763
-54.332
-53.912
-53.502
-53.105
-52.721
-52.351
-51.995
-51.653
-51.327
-51.016
-50.72
-50.439
-50.173
-49.922
-49.685
-49.463
-49.253
-49.057
-48.872
-48.7
-48.538
-48.387
-48.245
-48.112
-47.987
-47.868
-47.757
-47.651
-47.55
-47.454
-47.363
-47.276
-47.193
-47.114
-47.038
-46.966
-46.896
-46.829
-46.765
-46.703
-46.643
-46.585
-46.53
-46.478
-46.429
-46.383
-46.339
-46.297
-46.257
-46.217
-46.179
-46.14
-46.1
-46.058
-46.014
-45.966
-45.914
-45.857
-45.791
-45.715
-45.627
-45.524
-45.403
-45.261
-45.094
-44.898
-44.671
-44.41
-44.111
-43.772
-43.388
-42.957
-42.474
-41.936
-41.338
-40.677
-39.948
-39.15
-38.279
-37.335
-36.316
-35.221
-34.049
-32.802
-31.478
-30.08
-28.607
-27.061
-25.442
-23.755
-22.005
-20.197
-18.336
-16.43
-14.487
-12.518
-10.534
-8.542
-6.551
-4.569
-2.605
-0.667
1.236
3.101
4.921
6.686
8.388
10.015
11.556
13.006
14.357
15.601
16.732
17.742
18.629
19.4
20.055
20.589
20.995
21.259
21.371
21.341
21.174
20.873
20.456
19.942
19.371
18.813
18.317
17.909
17.611
17.424
17.354
17.429
17.66
18.044
18.583
19.264
20.082
21.053
22.138
23.254
24.279
25.026
25.345
25.15
24.357
22.908
20.765
17.893
14.332
10.195
5.569
0.506
-4.967
-10.832
-16.926
-22.975
-28.637
-33.477
-37.146
-39.261
-39.31
-37.019
-32.363
-25.582
-17.357
-8.351
1.127
10.597
19.424
27.636
35.61
44.484
56.337
72.352
92.822
118.189
148.67
183.517
220.972
257.073
286.188
304.389
308.788
296.546
265.24
212.734
138.959
47.808
-54.558
-162.972
-272.458
-378.129
-474.463
-554.132
-612.013
-646.93
-659.384
-650.547
-622.159
-575.529
-514.028
-444.525
-372.625
-302.108
-236.54
-177.814
-127.489
-88.25
-60.579
-42.019
-30.566
-24.005
-19.565
-16.241
-13.045
-7.92
-0.236
9.422
20.615
32.006
41.869
49.758
55.356
58.075
58.085
55.699
51.222
45.627
40.008
34.943
30.854
27.992
26.31
25.855
26.673
28.605
31.45
35.018
39.129
43.683
48.608
53.79
59.073
64.254
69.153
73.653
77.684
81.218
84.25
86.761
88.76
90.298
91.431
92.234
92.774
93.092
93.245
93.305
93.352
93.487
93.79
94.313
95.093
96.157
97.522
99.204
101.208
103.52
106.126
109.019
112.191
115.64
119.359
123.331
127.535
131.949
136.552
141.326
146.251
151.304
156.464
161.709
167.019
172.373
177.751
183.124
188.464
193.741
198.926
203.989
208.901
213.629
218.145
222.42
226.428
230.144
233.544
236.606
239.306
241.626
243.548
245.058
246.14
246.783
246.977
246.717
245.997
244.816
243.173
241.071
238.515
235.511
232.07
228.202
223.921
219.243
214.186
208.768
203.011
196.939
190.575
183.946
177.078
169.999
162.738
155.322
147.782
140.146
132.443
124.703
116.953
109.222
101.536
93.923
86.407
79.013
71.764
64.683
57.788
51.1
44.634
38.407
32.433
26.722
21.286
16.133
11.27
6.7
2.428
-1.547
-5.224
-8.605
-11.696
-14.501
-17.027
-19.283
-21.277
-23.021
-24.526
-25.805
-26.87
-27.735
-28.415
-28.925
-29.279
-29.492
-29.58
-29.557
-29.438
-29.237
-28.969
-28.645
-28.28
-27.886
-27.473
-27.052
-26.634
-26.226
-25.837
-25.475
-25.144
-24.851
-24.599
-24.391
-24.232
-24.121
-24.06
-24.049
-24.087
-24.174
-24.307
-24.484
-24.702
-24.957
-25.247
-25.567
-25.913
-26.281
-26.667
-27.065
-27.473
-27.885
-28.297
-28.707
-29.109
-29.501
-29.879
-30.241
-30.583
-30.905
-31.204
-31.48
-31.73
-31.955
-32.154
-32.328
-32.477
-32.602
-32.704
-32.785
-32.845
-32.887
-32.913
-32.925
-32.925
-32.916
-32.9
-32.879
-32.856
-32.833
-32.812
-32.796
-32.785
-32.783
-32.791
-32.81
-32.842
-32.888
-32.949
-33.025
-33.117
-33.226
-33.35
-33.49
-33.645
-33.814
-33.997
-34.192
-34.399
-34.615
-34.839
-35.07
-35.305
-35.543
-35.781
-36.018
-36.253
-36.482
-36.705
-36.919
-37.124
-37.318
-37.499
-37.667
-37.819
-37.956
-38.076
-38.18
-38.266
-38.335
-38.387
-38.423
-38.443
-38.449
-38.441
-38.421
-38.39
-38.349
-38.301
-38.248
-38.191
-38.134
-38.077
-38.025
-37.979
-37.942
-37.918
-37.906
-37.91
-37.932
-37.973
-38.034
-38.118
-38.224
-38.355
-38.51
-38.691
-38.898
-39.13
-39.386
-39.665
-39.965
-40.284
-40.62
-40.967
-41.324
-41.686
-42.051
-42.414
-42.771
-43.117
-43.448
-43.759
-44.043
-44.297
-44.512
-44.684
-44.806
-44.872
-44.88
-44.825
-44.702
-44.508
-44.241
-43.896
-43.474
-42.971
-42.386
-41.717
-40.965
-40.131
-39.217
-38.227
-37.166
-36.039
-34.855
-33.623
-32.349
-31.042
-29.709
-28.357
-26.994
-25.627
-24.26
-22.901
-21.557
-20.24
-18.96
-17.73
-16.561
-15.46
-14.437
-13.501
-12.662
-11.922
-11.279
-10.736
-10.295
-9.968
-9.771
-9.711
-9.785
-9.985
-10.303
-10.73
-11.249
-11.823
-12.4
-12.925
-13.361
-13.697
-13.934
-14.062
-14.065
-13.913
-13.587
-13.105
-12.496
-11.768
-10.931
-9.995
-9.007
-8.088
-7.402
-7.096
-7.279
-8.005
-9.307
-11.249
-13.879
-17.228
-21.268
-25.855
-30.862
-36.219
-41.88
-47.808
-53.852
-59.68
-64.891
-69.116
-72.018
-73.369
-72.868
-70.048
-64.72
-56.992
-47.292
-36.524
-25.425
-14.262
-3.475
6.308
15.073
23.2
31.73
42.727
57.638
76.843
100.803
129.77
162.478
196.482
227.932
251.477
262.663
258.452
235.652
191.38
125.228
39.26
-62.019
-171.948
-284.187
-393.39
-493.266
-576.607
-638.222
-675.52
-688.574
-679.921
-652.403
-608.252
-551.151
-487.126
-421.868
-359.931
-304.026
-254.758
-212.534
-178.568
-153.362
-135.317
-122.019
-110.771
-99.896
-89.322
-79.071
-68.504
-56.816
-44.001
-30.959
-19.299
-10.098
-3.397
1.044
3.445
3.749
1.916
-1.545
-5.645
-9.54
-12.732
-14.998
-16.357
-16.718
-15.917
-13.956
-10.951
-7.083
-2.562
2.476
7.959
13.772
19.795
25.878
31.815
37.458
42.695
47.44
51.666
55.359
58.496
61.086
63.163
64.774
65.993
66.891
67.515
67.928
68.196
68.397
68.633
68.982
69.497
70.22
71.178
72.389
73.879
75.656
77.713
80.047
82.65
85.519
88.657
92.059
95.714
99.606
103.715
108.023
112.516
117.178
121.991
126.936
131.993
137.145
142.375
147.663
152.983
158.309
163.612
168.865
174.037
179.101
184.025
188.779
193.336
197.669
201.752
205.561
209.072
212.261
215.108
217.594
219.701
221.414
222.719
223.604
224.059
224.079
223.657
222.793
221.485
219.734
217.545
214.925
211.882
208.427
204.571
200.33
195.72
190.761
185.472
179.876
173.997
167.857
161.485
154.905
148.146
141.234
134.196
127.061
119.856
112.609
105.346
98.094
90.879
83.726
76.66
69.703
62.877
56.204
49.702
43.391
37.285
31.4
25.751
20.348
15.201
10.32
5.71
1.377
-2.676
-6.447
-9.937
-13.148
-16.082
-18.744
-21.141
-23.28
-25.168
-26.817
-28.235
-29.433
-30.425
-31.223
-31.838
-32.285
-32.577
-32.727
-32.75
-32.659
-32.467
-32.187
-31.834
-31.418
-30.952
-30.448
-29.916
-29.367
-28.811
-28.256
-27.711
-27.183
-26.679
-26.204
-25.763
-25.361
-25.001
-24.686
-24.417
-24.196
-24.023
-23.899
-23.823
-23.793
-23.808
-23.866
-23.965
-24.103
-24.275
-24.48
-24.714
-24.974
-25.256
-25.558
-25.875
-26.205
-26.544
-26.889
-27.238
-27.587
-27.933
-28.275
-28.61
-28.936
-29.252
-29.556
-29.846
-30.122
-30.384
-30.63
-30.861
-31.076
-31.276
-31.461
-31.632
-31.789
-31.933
-32.066
-32.188
-32.301
-32.405
-32.502
-32.593
-32.678
-32.76
-32.838
-32.915
-32.99
-33.065
-33.141
-33.218
-33.297
-33.379
-33.463
-33.551
-33.642
-33.737
-33.836
-33.938
-34.043
-34.152
-34.263
-34.378
-34.494
-34.612
-34.731
-34.851
-34.97
-35.088
-35.205
-35.32
-35.432
-35.54
-35.645
-35.747
-35.845
-35.94
-36.032
-36.12
-36.206
-36.288
-36.368
-36.446
-36.523
-36.598
-36.674
-36.751
-36.83
-36.912
-36.999
-37.09
-37.186
-37.288
-37.395
-37.51
-37.631
-37.76
-37.896
-38.039
-38.191
-38.35
-38.518
-38.692
-38.872
-39.056
-39.242
-39.428
-39.612
-39.789
-39.957
-40.114
-40.256
-40.381
-40.484
-40.563
-40.613
-40.63
-40.61
-40.549
-40.44
-40.279
-40.062
-39.786
-39.449
-39.049
-38.583
-38.049
-37.446
-36.773
-36.03
-35.216
-34.33
-33.372
-32.345
-31.25
-30.093
-28.877
-27.609
-26.296
-24.946
-23.57
-22.175
-20.768
-19.357
-17.95
-16.553
-15.175
-13.821
-12.496
-11.211
-9.976
-8.802
-7.701
-6.682
-5.752
-4.919
-4.191
-3.572
-3.064
-2.662
-2.365
-2.177
-2.107
-2.171
-2.374
-2.712
-3.178
-3.766
-4.46
-5.236
-6.053
-6.847
-7.566
-8.182
-8.682
-9.066
-9.329
-9.452
-9.414
-9.208
-8.839
-8.316
-7.639
-6.798
-5.818
-4.771
-3.79
-3.058
-2.719
-2.866
-3.557
-4.84
-6.748
-9.314
-12.528
-16.285
-20.477
-25.026
-29.895
-35.088
-40.512
-45.928
-50.972
-55.223
-58.298
-59.922
-59.772
-57.4
-52.618
-45.498
-36.414
-26.209
-15.593
-4.852
5.599
15.207
24.015
32.454
41.518
53.118
68.589
88.244
112.467
141.465
174.017
207.817
239.234
263.193
275.423
272.999
252.854
212.212
150.649
69.985
-25.721
-130.197
-237.249
-341.4
-436.239
-514.768
-572.352
-606.864
-618.342
-609.293
-582.86
-542.162
-491.98
-438.465
-386.208
-338.16
-296.037
-259.792
-229.028
-203.464
-181.607
-161.053
-140.313
-118.696
-96.121
-73.403
-51.275
-30.199
-11.012
5.293
18.198
27.534
33.456
36.494
37.138
35.804
32.997
29.229
24.916
20.432
16.113
12.211
8.957
6.541
5.074
4.622
5.217
6.848
9.457
12.948
17.184
22.016
27.311
32.927
38.724
44.549
50.222
55.586
60.538
65.008
68.963
72.388
75.276
77.641
79.537
81.028
82.187
83.081
83.763
84.295
84.749
85.204
85.75
86.457
87.37
88.529
89.96
91.685
93.721
96.072
98.726
101.674
104.906
108.418
112.207
116.264
120.574
125.117
129.873
134.824
139.951
145.235
150.653
156.183
161.803
167.49
173.226
178.985
184.74
190.46
196.116
201.676
207.109
212.384
217.468
222.33
226.94
231.271
235.295
238.988
242.323
245.279
247.836
249.973
251.674
252.925
253.713
254.026
253.858
253.204
252.061
250.428
248.308
245.704
242.625
239.079
235.079
230.639
225.773
220.502
214.844
208.822
202.461
195.786
188.823
181.6
174.147
166.493
158.669
150.705
142.631
134.479
126.277
118.057
109.848
101.677
93.574
85.564
77.674
69.928
62.35
54.96
47.779
40.825
34.115
27.664
21.484
15.587
9.982
4.677
-0.323
-5.014
-9.394
-13.463
-17.222
-20.676
-23.827
-26.683
-29.251
-31.541
-33.561
-35.323
-36.839
-38.121
-39.184
-40.039
-40.703
-41.188
-41.511
-41.685
-41.725
-41.647
-41.463
-41.189
-40.837
-40.42
-39.951
-39.441
-38.901
-38.342
-37.773
-37.202
-36.638
-36.087
-35.554
-35.047
-34.569
-34.123
-33.713
-33.34
-33.007
-32.714
-32.461
-32.248
-32.073
-31.936
-31.835
-31.768
-31.732
-31.725
-31.743
-31.785
-31.846
-31.923
-32.014
-32.116
-32.225
-32.339
-32.455
-32.57
-32.683
-32.791
-32.892
-32.987
-33.072
-33.148
-33.214
-33.269
-33.314
-33.349
-33.374
-33.389
-33.397
-33.399
-33.394
-33.386
-33.376
-33.365
-33.355
-33.349
-33.348
-33.353
-33.367
-33.392
-33.429
-33.481
-33.549
-33.635
-33.742
-33.87
-34.022
-34.198
-34.4
-34.628
-34.884
-35.168
-35.481
-35.822
-36.193
-36.592
-37.02
-37.477
-37.962
-38.475
-39.013
-39.575
-40.161
-40.767
-41.393
-42.036
-42.694
-43.366
-44.048
-44.74
-45.438
-46.14
-46.842
-47.542
-48.236
-48.92
-49.59
-50.242
-50.872
-51.477
-52.052
-52.595
-53.102
-53.569
-53.993
-54.369
-54.695
-54.966
-55.178
-55.328
-55.412
-55.428
-55.374
-55.251
-55.055
-54.787
-54.446
-54.032
-53.546
-52.987
-52.356
-51.654
-50.881
-50.042
-49.141
-48.182
-47.171
-46.114
-45.02
-43.898
-42.755
-41.598
-40.433
-39.266
-38.105
-36.955
-35.821
-34.706
-33.618
-32.564
-31.555
-30.599
-29.704
-28.875
-28.118
-27.44
-26.846
-26.34
-25.917
-25.577
-25.321
-25.159
-25.107
-25.171
-25.349
-25.631
-26.011
-26.477
-27.012
-27.58
-28.128
-28.599
-28.957
-29.188
-29.294
-29.267
-29.092
-28.744
-28.207
-27.501
-26.647
-25.658
-24.54
-23.309
-22.022
-20.806
-19.829
-19.25
-19.186
-19.699
-20.836
-22.654
-25.196
-28.472
-32.421
-36.912
-41.832
-47.134
-52.807
-58.773
-64.832
-70.649
-75.812
-79.934
-82.723
-83.833
-82.825
-79.457
-73.735
-65.971
-56.899
-47.224
-37.289
-27.515
-18.447
-10.054
-1.902
7.006
18.5
33.925
53.668
78.134
107.588
140.871
175.725
208.592
234.422
248.956
249.25
232.168
194.817
136.62
59.16
-33.744
-135.92
-241.303
-344.538
-439.214
-518.373
-577.318
-613.726
-627.484
-620.975
-597.194
-559.15
-511.507
-460.252
-409.917
-363.461
-322.578
-287.282
-257.217
-232.104
-210.543
-190.204
-169.618
-148.127
-125.648
-102.959
-80.79
-59.604
-40.217
-23.644
-10.421
-0.725
5.558
8.946
9.919
8.865
6.302
2.765
-1.326
-5.577
-9.645
-13.29
-16.277
-18.403
-19.566
-19.697
-18.764
-16.788
-13.82
-9.951
-5.321
-0.076
5.645
11.689
17.915
24.167
30.263
36.051
41.425
46.311
50.678
54.511
57.801
60.566
62.854
64.726
66.253
67.502
68.523
69.379
70.139
70.881
71.691
72.636
73.763
75.108
76.697
78.549
80.683
83.102
85.795
88.754
91.97
95.44
99.16
103.124
107.316
111.72
116.316
121.087
126.017
131.087
136.278
141.568
146.937
152.364
157.833
163.319
168.797
174.238
179.615
184.898
190.058
195.066
199.892
204.505
208.878
212.986
216.802
220.304
223.467
226.271
228.697
230.726
232.344
233.537
234.294
234.604
234.462
233.863
232.806
231.29
229.319
226.896
224.03
220.73
217.008
212.878
208.355
203.457
198.205
192.619
186.724
180.543
174.102
167.427
160.548
153.492
146.287
138.963
131.548
124.071
116.561
109.044
101.549
94.101
86.727
79.45
72.295
65.283
58.435
51.77
45.306
39.059
33.044
27.273
21.758
16.507
11.529
6.83
2.414
-1.717
-5.561
-9.119
-12.393
-15.387
-18.106
-20.555
-22.743
-24.678
-26.369
-27.826
-29.061
-30.085
-30.911
-31.55
-32.016
-32.321
-32.478
-32.501
-32.403
-32.194
-31.889
-31.499
-31.035
-30.509
-29.93
-29.308
-28.654
-27.975
-27.28
-26.576
-25.869
-25.167
-24.473
-23.794
-23.132
-22.493
-21.877
-21.289
-20.73
-20.202
-19.704
-19.238
-18.804
-18.402
-18.031
-17.69
-17.379
-17.097
-16.841
-16.612
-16.407
-16.225
-16.066
-15.927
-15.807
-15.706
-15.621
-15.553
-15.499
-15.46
-15.434
-15.42
-15.418
-15.428
-15.449
-15.479
-15.52
-15.57
-15.629
-15.697
-15.774
-15.858
-15.951
-16.051
-16.159
-16.274
-16.396
-16.524
-16.659
-16.8
-16.948
-17.1
-17.257
-17.42
-17.586
-17.756
-17.93
-18.106
-18.285
-18.466
-18.649
-18.833
-19.018
-19.203
-19.389
-19.574
-19.76
-19.946
-20.132
-20.319
-20.507
-20.696
-20.888
-21.083
-21.283
-21.487
-21.696
-21.912
-22.136
-22.369
-22.611
-22.864
-23.129
-23.407
-23.699
-24.007
-24.332
-24.673
-25.031
-25.406
-25.799
-26.211
-26.639
-27.085
-27.549
-28.029
-28.525
-29.037
-29.563
-30.1
-30.647
-31.201
-31.758
-32.316
-32.869
-33.415
-33.949
-34.468
-34.969
-35.446
-35.896
-36.315
-36.696
-37.038
-37.333
-37.578
-37.768
-37.897
-37.963
-37.964
-37.896
-37.758
-37.548
-37.264
-36.906
-36.473
-35.965
-35.381
-34.721
-33.987
-33.183
-32.312
-31.38
-30.391
-29.355
-28.279
-27.173
-26.047
-24.907
-23.762
-22.62
-21.487
-20.372
-19.279
-18.215
-17.187
-16.204
-15.278
-14.418
-13.633
-12.93
-12.315
-11.796
-11.381
-11.069
-10.86
-10.752
-10.745
-10.851
-11.084
-11.45
-11.945
-12.56
-13.284
-14.107
-15.007
-15.947
-16.871
-17.718
-18.447
-19.045
-19.509
-19.829
-19.988
-19.956
-19.711
-19.271
-18.66
-17.887
-16.961
-15.892
-14.736
-13.621
-12.718
-12.191
-12.158
-12.68
-13.8
-15.579
-18.066
-21.283
-25.179
-29.622
-34.492
-39.741
-45.353
-51.259
-57.263
-63.019
-68.102
-72.113
-74.751
-75.675
-74.444
-70.795
-64.709
-56.457
-46.747
-36.296
-25.46
-14.692
-4.586
4.884
14.14
24.166
36.822
53.434
74.372
100.12
131.034
166.017
202.876
237.842
265.53
281.732
283.549
267.889
231.921
174.558
96.743
2.394
-101.991
-210.669
-318.593
-420.154
-509.288
-580.315
-629.299
-655.329
-660.255
-646.219
-615.41
-570.507
-515.264
-454.883
-394.334
-337.172
-285.029
-238.653
-198.723
-166.161
-141.387
-123.099
-109.134
-97.235
-86.186
-75.83
-66.066
-56.306
-45.697
-34.177
-22.603
-12.43
-4.602
0.832
4.116
5.463
4.786
2.08
-2.128
-6.857
-11.246
-14.824
-17.402
-19.005
-19.565
-18.933
-17.106
-14.218
-10.465
-6.051
-1.116
4.274
10.021
15.988
22.01
27.874
33.409
38.516
43.122
47.203
50.749
53.741
56.189
58.139
59.648
60.787
61.621
62.194
62.561
62.79
62.963
63.179
63.516
64.023
64.737
65.684
66.884
68.358
70.111
72.134
74.419
76.959
79.752
82.799
86.097
89.633
93.39
97.351
101.497
105.814
110.287
114.896
119.623
124.448
129.353
134.323
139.336
144.367
149.391
154.38
159.305
164.14
168.855
173.422
177.81
181.994
185.947
189.646
193.067
196.186
198.983
201.438
203.534
205.254
206.584
207.511
208.025
208.119
207.787
207.025
205.832
204.209
202.158
199.687
196.801
193.512
189.83
185.77
181.347
176.58
171.487
166.09
160.412
154.476
148.307
141.932
135.377
128.669
121.835
114.902
107.898
100.851
93.786
86.731
79.711
72.751
65.876
59.109
52.472
45.987
39.672
33.546
27.627
21.929
16.467
11.252
6.295
1.604
-2.812
-6.95
-10.805
-14.376
-17.662
-20.664
-23.386
-25.833
-28.008
-29.921
-31.579
-32.991
-34.168
-35.121
-35.862
-36.403
-36.758
-36.94
-36.962
-36.84
-36.586
-36.215
-35.742
-35.179
-34.541
-33.841
-33.09
-32.303
-31.49
-30.663
-29.831
-29.004
-28.192
-27.401
-26.64
-25.914
-25.229
-24.589
-23.999
-23.46
-22.976
-22.547
-22.174
-21.857
-21.594
-21.386
-21.228
-21.121
-21.06
-21.042
-21.064
-21.123
-21.214
-21.332
-21.475
-21.636
-21.813
-22
-22.193
-22.389
-22.582
-22.77
-22.948
-23.113
-23.262
-23.392
-23.501
-23.586
-23.646
-23.679
-23.685
-23.663
-23.612
-23.533
-23.425
-23.291
-23.13
-22.944
-22.734
-22.502
-22.249
-21.978
-21.691
-21.389
-21.076
-20.752
-20.422
-20.087
-19.75
-19.412
-19.077
-18.747
-18.424
-18.109
-17.806
-17.515
-17.24
-16.981
-16.741
-16.519
-16.318
-16.139
-15.982
-15.848
-15.736
-15.647
-15.58
-15.537
-15.515
-15.516
-15.539
-15.583
-15.648
-15.734
-15.84
-15.965
-16.109
-16.272
-16.452
-16.649
-16.863
-17.093
-17.338
-17.599
-17.876
-18.167
-18.472
-18.79
-19.119
-19.46
-19.811
-20.171
-20.54
-20.915
-21.297
-21.685
-22.078
-22.476
-22.875
-23.276
-23.676
-24.073
-24.466
-24.85
-25.222
-25.581
-25.922
-26.244
-26.543
-26.816
-27.059
-27.269
-27.442
-27.573
-27.659
-27.694
-27.675
-27.598
-27.459
-27.257
-26.991
-26.658
-26.256
-25.785
-25.245
-24.635
-23.955
-23.205
-22.384
-21.494
-20.539
-19.522
-18.447
-17.32
-16.147
-14.938
-13.701
-12.444
-11.175
-9.901
-8.629
-7.367
-6.123
-4.901
-3.707
-2.55
-1.438
-0.384
0.603
1.515
2.344
3.085
3.73
4.273
4.711
5.049
5.288
5.426
5.453
5.354
5.121
4.759
4.278
3.686
2.995
2.225
1.413
0.617
-0.103
-0.708
-1.185
-1.531
-1.737
-1.783
-1.634
-1.273
-0.717
0.012
0.903
1.947
3.131
4.389
5.585
6.54
7.084
7.101
6.534
5.331
3.43
0.783
-2.641
-6.773
-11.471
-16.628
-22.188
-28.121
-34.349
-40.638
-46.598
-51.794
-55.812
-58.344
-59.073
-57.537
-53.49
-46.96
-38.261
-28.186
-17.504
-6.54
4.255
14.254
23.523
32.509
42.209
54.606
71.041
91.804
117.362
147.961
182.33
218.098
251.291
276.439
289.339
287.123
266.792
225.679
162.922
79.979
-18.716
-126.634
-237.923
-347.503
-449.934
-538.808
-608.234
-654.764
-677.845
-679.161
-660.936
-625.048
-573.729
-511.686
-444.921
-378.346
-315.705
-258.974
-208.982
-167.243
-135.541
-113.357
-98.526
-88.673
-81.063
-74.283
-68.161
-61.78
-53.714
-43.623
-31.956
-19.782
-8.97
-0.446
5.88
9.883
11.384
10.473
7.322
2.583
-2.522
-7.186
-11.057
-13.884
-15.646
-16.313
-15.752
-14.005
-11.282
-7.76
-3.614
1.025
6.123
11.588
17.281
23.044
28.666
33.976
38.878
43.305
47.232
50.648
53.535
55.904
57.805
59.301
60.464
61.354
62.011
62.487
62.853
63.191
63.601
64.157
64.906
65.883
67.113
68.616
70.409
72.496
74.864
77.5
80.397
83.55
86.957
90.612
94.498
98.598
102.888
107.352
111.971
116.729
121.603
126.572
131.617
136.717
141.855
147.007
152.148
157.251
162.287
167.227
172.042
176.704
181.181
185.446
189.472
193.232
196.704
199.864
202.689
205.159
207.256
208.964
210.268
211.156
211.616
211.641
211.224
210.364
209.058
207.308
205.116
202.49
199.436
195.965
192.089
187.823
183.183
178.186
172.854
167.207
161.269
155.064
148.619
141.959
135.113
128.108
120.973
113.736
106.426
99.07
91.697
84.334
77.007
69.742
62.565
55.498
48.566
41.789
35.187
28.779
22.583
16.612
10.881
5.402
0.184
-4.762
-9.432
-13.819
-17.921
-21.736
-25.264
-28.507
-31.469
-34.153
-36.567
-38.718
-40.615
-42.267
-43.685
-44.881
-45.867
-46.656
-47.261
-47.696
-47.975
-48.112
-48.122
-48.017
-47.813
-47.522
-47.158
-46.733
-46.26
-45.75
-45.214
-44.663
-44.105
-43.549
-43.003
-42.475
-41.97
-41.494
-41.051
-40.645
-40.279
-39.956
-39.676
-39.44
-39.249
-39.102
-38.998
-38.936
-38.913
-38.927
-38.976
-39.057
-39.166
-39.3
-39.457
-39.632
-39.823
-40.025
-40.236
-40.452
-40.67
-40.888
-41.103
-41.313
-41.515
-41.708
-41.89
-42.06
-42.217
-42.361
-42.49
-42.605
-42.706
-42.792
-42.866
-42.928
-42.977
-43.017
-43.047
-43.069
-43.085
-43.096
-43.103
-43.108
-43.112
-43.117
-43.123
-43.133
-43.148
-43.168
-43.193
-43.226
-43.267
-43.316
-43.374
-43.44
-43.515
-43.599
-43.692
-43.793
-43.901
-44.017
-44.139
-44.267
-44.4
-44.536
-44.676
-44.817
-44.959
-45.1
-45.24
-45.379
-45.514
-45.644
-45.77
-45.891
-46.005
-46.113
-46.213
-46.307
-46.394
-46.473
-46.547
-46.615
-46.678
-46.736
-46.79
-46.841
-46.891
-46.939
-46.987
-47.037
-47.09
-47.147
-47.21
-47.281
-47.36
-47.448
-47.547
-47.656
-47.778
-47.912
-48.059
-48.218
-48.391
-48.576
-48.774
-48.985
-49.206
-49.437
-49.676
-49.92
-50.166
-50.413
-50.654
-50.888
-51.111
-51.319
-51.509
-51.677
-51.819
-51.93
-52.006
-52.042
-52.035
-51.978
-51.866
-51.695
-51.46
-51.16
-50.791
-50.35
-49.836
-49.246
-48.58
-47.837
-47.017
-46.118
-45.141
-44.088
-42.96
-41.763
-40.5
-39.178
-37.803
-36.385
-34.933
-33.455
-31.96
-30.456
-28.949
-27.449
-25.961
-24.492
-23.048
-21.636
-20.267
-18.952
-17.702
-16.527
-15.434
-14.432
-13.529
-12.733
-12.046
-11.466
-10.993
-10.63
-10.387
-10.279
-10.312
-10.481
-10.777
-11.19
-11.71
-12.32
-12.983
-13.645
-14.251
-14.76
-15.159
-15.448
-15.615
-15.646
-15.507
-15.177
-14.678
-14.037
-13.271
-12.389
-11.4
-10.352
-9.364
-8.598
-8.208
-8.309
-8.959
-10.193
-12.078
-14.662
-17.984
-22.017
-26.612
-31.635
-37.01
-42.678
-48.61
-54.654
-60.486
-65.716
-69.949
-72.833
-74.119
-73.475
-70.458
-64.917
-56.949
-46.998
-35.968
-24.534
-13.045
-2.031
8.079
17.4
26.45
36.478
49.268
65.864
86.689
112.179
142.097
174.924
207.733
236.104
255.443
262.174
253.427
226.391
178.835
110.63
24.65
-73.773
-178.975
-285.657
-388.841
-482.908
-561.13
-618.47
-653.13
-665.898
-658.559
-633.243
-591.829
-537.408
-475.861
-412.898
-352.622
-297.4
-248.148
-205.531
-170.949
-145.199
-126.637
-112.777
-101.052
-89.847
-79.051
-68.67
-58.016
-46.22
-33.319
-20.253
-8.623
0.482
7.032
11.285
13.458
13.5
11.382
7.617
3.201
-1.015
-4.53
-7.112
-8.775
-9.421
-8.883
-7.154
-4.345
-0.627
3.787
8.758
14.214
20.036
26.102
32.259
38.298
44.068
49.454
54.368
58.782
62.682
66.043
68.874
71.208
73.09
74.597
75.797
76.74
77.487
78.105
78.673
79.293
80.043
80.976
82.132
83.538
85.212
87.176
89.438
91.99
94.826
97.937
101.319
104.972
108.892
113.064
117.471
122.091
126.906
131.9
137.055
142.351
147.769
153.287
158.887
164.551
170.258
175.98
181.692
187.363
192.964
198.465
203.838
209.05
214.071
218.874
223.432
227.718
231.708
235.379
238.707
241.673
244.257
246.442
248.214
249.558
250.464
250.923
250.929
250.479
249.571
248.205
246.384
244.114
241.402
238.257
234.692
230.72
226.358
221.623
216.536
211.119
205.394
199.386
193.122
186.628
179.932
173.062
166.046
158.914
151.693
144.413
137.102
129.787
122.497
115.257
108.094
101.033
94.096
87.309
80.69
74.26
68.038
62.04
56.282
50.776
45.536
40.57
35.887
31.494
27.396
23.594
20.091
16.886
13.977
11.359
9.027
6.976
5.196
3.679
2.415
1.392
0.598
0.022
-0.351
-0.534
-0.542
-0.388
-0.088
0.345
0.896
1.551
2.295
3.116
3.999
4.934
5.906
6.906
7.923
8.946
9.966
10.976
11.967
12.934
13.87
14.77
15.631
16.45
17.224
17.951
18.632
19.266
19.853
20.396
20.895
21.353
21.773
22.158
22.511
22.837
23.138
23.418
23.683
23.935
24.179
24.419
24.658
24.901
25.15
25.408
25.679
25.966
26.27
26.594
26.94
27.308
27.7
28.117
28.558
29.024
29.514
30.027
30.563
31.12
31.696
32.289
32.897
33.518
34.149
34.787
35.43
36.075
36.718
37.358
37.991
38.614
39.224
39.82
40.397
40.955
41.491
42.003
42.489
42.948
43.379
43.779
44.149
44.487
44.793
45.067
45.309
45.518
45.696
45.843
45.96
46.048
46.109
46.143
46.152
46.138
46.103
46.048
45.976
45.888
45.787
45.674
45.552
45.423
45.289
45.151
45.011
44.871
44.732
44.594
44.459
44.328
44.2
44.077
43.959
43.847
43.739
43.637
43.54
43.446
43.357
43.27
43.186
43.102
43.019
42.936
42.852
42.767
42.68
42.591
42.499
42.404
42.306
42.203
42.096
41.984
41.869
41.751
41.631
41.511
41.393
41.279
41.173
41.077
40.995
40.928
40.88
40.854
40.854
40.885
40.95
41.052
41.198
41.39
41.635
41.937
42.297
42.719
43.205
43.756
44.375
45.063
45.82
46.647
47.544
48.511
49.549
50.655
51.827
53.059
54.348
55.687
57.07
58.487
59.928
61.385
62.85
64.315
65.772
67.212
68.628
70.013
71.363
72.668
73.917
75.1
76.205
77.223
78.149
78.974
79.69
80.29
80.771
81.137
81.388
81.523
81.531
81.397
81.114
80.686
80.124
79.436
78.634
77.739
76.788
75.838
74.95
74.162
73.489
72.934
72.508
72.229
72.129
72.229
72.511
72.957
73.554
74.294
75.164
76.104
76.982
77.624
77.864
77.584
76.723
75.234
73.057
70.147
66.481
62.114
57.178
51.787
45.995
39.832
33.374
26.838
20.587
15.054
10.652
7.693
6.515
7.56
11.088
17.095
25.293
34.955
45.35
56.135
66.844
76.853
86.181
95.242
105.012
117.364
133.602
154.061
179.24
209.482
243.657
279.522
313.255
339.487
354.054
354.077
336.445
298.299
238.536
158.281
61.701
-44.737
-155.366
-265.238
-368.689
-459.166
-530.45
-578.57
-603.005
-605.634
-588.41
-553.094
-502.301
-440.855
-375.323
-311.381
-252.164
-199.015
-152.844
-114.962
-86.68
-67.329
-53.88
-43.001
-32.798
-22.676
-12.626
-2.22
9.674
23.339
37.532
50.386
60.639
67.941
72.602
74.949
74.819
72.194
67.64
62.161
56.731
51.947
48.025
44.987
42.943
42.051
42.366
43.803
46.192
49.364
53.184
57.575
62.457
67.691
73.125
78.575
83.837
88.759
93.239
97.212
100.648
103.534
105.85
107.609
108.86
109.666
110.094
110.207
110.047
109.673
109.162
108.601
108.088
107.696
107.473
107.453
107.666
108.132
108.871
109.89
111.177
112.725
114.528
116.584
118.895
121.457
124.256
127.274
130.495
133.901
137.479
141.212
145.082
149.07
153.157
157.325
161.557
165.833
170.127
174.412
178.66
182.844
186.933
190.898
194.71
198.336
201.751
204.926
207.835
210.453
212.756
214.72
216.324
217.549
218.376
218.79
218.776
218.321
217.417
216.057
214.235
211.949
209.199
205.985
202.313
198.189
193.623
188.626
183.209
177.39
171.185
164.614
157.7
150.464
142.931
135.127
127.08
118.818
110.367
101.759
93.02
84.181
75.27
66.317
57.349
48.397
39.486
30.644
21.896
13.268
4.783
-3.537
-11.673
-19.604
-27.315
-34.789
-42.012
-48.973
-55.66
-62.065
-68.182
-74.005
-79.532
-84.761
-89.696
-94.337
-98.691
-102.762
-106.558
-110.087
-113.358
-116.382
-119.169
-121.729
-124.076
-126.223
-128.185
-129.974
-131.607
-133.098
-134.463
-135.716
-136.871
-137.943
-138.943
-139.885
-140.78
-141.641
-142.479
-143.305
-144.131
-144.965
-145.817
-146.695
-147.608
-148.56
-149.555
-150.598
-151.691
-152.838
-154.041
-155.303
-156.627
-158.018
-159.481
-161.021
-162.638
-164.337
-166.117
-167.98
-169.923
-171.943
-174.036
-176.197
-178.428
-180.728
-183.103
-185.554
-188.086
-190.702
-193.408
-196.207
-199.099
-202.081
-205.143
-208.278
-211.484
-214.762
-218.121
-221.563
-225.08
-228.666
-232.311
-235.996
-239.696
-243.368
-246.943
-250.374
-253.626
-256.676
-259.527
-262.178
-264.623
-266.866
-268.91
-270.765
-272.452
-273.98
-275.337
-276.539
-277.609
-278.608
-279.658
-280.837
-282.183
-283.725
-285.448
-287.319
-289.318
-291.371
-293.356
-295.16
-296.646
-297.702
-298.273
-298.277
-297.626
-296.203
-293.814
-290.315
-285.626
-279.66
-272.378
-263.775
-253.827
-242.609
-230.309
-217.109
-203.229
-188.89
-174.224
