-48.666
-39.674
-30.953
-22.615
-14.705
-7.199
-0.094
6.609
12.91
18.784
24.224
29.246
33.826
37.936
41.562
44.683
47.311
49.489
51.253
52.663
53.777
54.618
55.228
55.637
55.839
55.851
55.695
55.382
54.966
54.486
53.92
53.272
52.543
51.712
50.773
49.66
48.226
46.353
43.932
40.883
37.206
32.884
27.865
22.136
15.682
8.559
0.962
-6.967
-15.137
-23.441
-31.813
-40.039
-47.715
-54.466
-59.919
-63.729
-65.682
-65.45
-62.587
-56.973
-48.742
-38.364
-26.784
-14.699
-2.471
9.312
20.171
30.163
39.738
50.161
63.239
80.027
100.972
126.518
156.426
189.183
221.837
249.915
268.776
274.791
265.041
236.7
187.529
117.44
29.42
-71.099
-178.357
-286.956
-391.845
-487.333
-566.616
-624.648
-659.683
-672.576
-665.19
-639.72
-598.083
-543.422
-481.684
-418.613
-358.338
-303.222
-254.155
-211.793
-177.549
-152.221
-134.175
-120.919
-109.854
-99.351
-89.307
-79.72
-69.893
-58.939
-46.861
-34.576
-23.697
-15.311
-9.441
-5.825
-4.232
-4.714
-7.313
-11.526
-16.356
-20.956
-24.821
-27.722
-29.682
-30.613
-30.351
-28.898
-26.37
-22.947
-18.851
-14.231
-9.163
-3.769
1.829
7.482
12.984
18.188
22.98
27.274
31.045
34.281
36.958
39.085
40.699
41.844
42.599
43.038
43.21
43.18
43.014
42.791
42.611
42.552
42.667
42.998
43.571
44.406
45.527
46.945
48.655
50.652
52.932
55.49
58.331
61.452
64.841
68.484
72.364
76.464
80.771
85.272
89.951
94.79
99.771
104.879
110.097
115.407
120.785
126.206
131.641
137.064
142.447
147.76
152.974
158.059
162.988
167.732
172.266
176.565
180.604
184.358
187.805
190.926
193.7
196.111
198.143
199.781
201.015
201.835
202.235
202.209
201.753
200.868
199.553
197.813
195.653
193.08
190.105
186.738
182.993
178.887
174.438
169.664
164.587
159.229
153.614
147.766
141.711
135.475
129.083
122.563
115.942
109.246
102.502
95.736
88.974
82.241
75.562
68.959
62.456
56.073
49.831
43.749
37.843
32.13
26.624
21.338
16.284
11.471
6.907
2.599
-1.45
-5.235
-8.757
-12.016
-15.013
-17.753
-20.24
-22.482
-24.484
-26.258
-27.811
-29.155
-30.301
-31.261
-32.048
-32.674
-33.154
-33.5
-33.725
-33.843
-33.868
-33.811
-33.686
-33.504
-33.278
-33.018
-32.734
-32.438
-32.138
-31.842
-31.559
-31.294
-31.056
-30.847
-30.674
-30.54
-30.448
-30.4
-30.397
-30.44
-30.529
-30.664
-30.843
-31.065
-31.328
-31.63
-31.968
-32.338
-32.739
-33.166
-33.617
-34.088
-34.575
-35.077
-35.589
-36.109
-36.634
-37.162
-37.689
-38.214
-38.735
-39.25
-39.757
-40.256
-40.745
-41.224
-41.693
-42.15
-42.596
-43.031
-43.456
-43.872
-44.278
-44.676
-45.068
-45.453
-45.834
-46.212
-46.588
-46.964
-47.34
-47.718
-48.099
-48.485
-48.876
-49.274
-49.679
-50.092
-50.514
-50.945
-51.387
-51.838
-52.301
-52.774
-53.259
-53.754
-54.261
-54.778
-55.306
-55.844
-56.393
-56.951
-57.518
-58.095
-58.679
-59.271
-59.87
-60.475
-61.086
-61.701
-62.321
-62.943
-63.568
-64.195
-64.823
-65.452
-66.081
-66.71
-67.338
-67.965
-68.59
-69.213
-69.832
-70.448
-71.06
-71.667
-72.269
-72.865
-73.455
-74.038
-74.614
-75.181
-75.738
-76.285
-76.819
-77.339
-77.845
-78.334
-78.806
-79.258
-79.69
-80.101
-80.488
-80.849
-81.182
-81.486
-81.757
-81.993
-82.189
-82.344
-82.454
-82.516
-82.529
-82.489
-82.393
-82.238
-82.022
-81.742
-81.395
-80.978
-80.486
-79.918
-79.271
-78.545
-77.738
-76.851
-75.883
-74.833
-73.704
-72.495
-71.209
-69.847
-68.408
-66.895
-65.312
-63.663
-61.953
-60.187
-58.371
-56.514
-54.624
-52.712
-50.785
-48.85
-46.914
-44.985
-43.07
-41.176
-39.306
-37.465
-35.661
-33.903
-32.2
-30.562
-28.993
-27.502
-26.094
-24.776
-23.554
-22.428
-21.391
-20.445
-19.593
-18.841
-18.205
-17.692
-17.296
-17.012
-16.836
-16.752
-16.737
-16.754
-16.734
-16.63
-16.418
-16.079
-15.614
-15.016
-14.262
-13.344
-12.266
-11.027
-9.641
-8.111
-6.43
-4.641
-2.831
-1.128
0.283
1.257
1.707
1.553
0.743
-0.762
-2.988
-5.887
-9.35
-13.29
-17.656
-22.434
-27.588
-32.951
-38.247
-43.126
-47.172
-50.054
-51.411
-50.768
-47.874
-42.721
-35.565
-27.082
-17.95
-8.5
0.831
9.474
17.465
25.24
33.807
45.014
60.197
79.769
104.209
133.872
167.718
203.589
237.958
265.752
282.655
285.624
271.371
236.798
181.081
105.568
13.931
-87.691
-193.218
-297.248
-393.262
-474.137
-534.979
-573.246
-588.685
-583.655
-561.122
-524.096
-477.288
-426.744
-377.108
-331.47
-291.598
-257.533
-228.903
-205.371
-185.472
-166.802
-147.788
-127.679
-106.307
-84.361
-62.582
-41.462
-21.859
-4.861
8.965
19.421
26.579
30.925
32.914
32.895
31.376
28.892
25.829
22.543
19.331
16.368
13.896
12.137
11.195
11.159
12.063
13.884
16.594
20.131
24.362
29.149
34.356
39.825
45.435
51.053
56.515
61.695
66.485
70.8
74.613
77.906
80.667
82.915
84.686
86.03
87.017
87.719
88.187
88.489
88.693
88.869
89.105
89.468
90.006
90.759
91.755
93.014
94.556
96.39
98.509
100.907
103.58
106.521
109.73
113.2
116.916
120.864
125.023
129.375
133.905
138.596
143.427
148.379
153.43
158.562
163.754
168.986
174.23
179.458
184.642
189.752
194.759
199.632
204.341
208.855
213.147
217.188
220.954
224.42
227.563
230.358
232.788
234.833
236.478
237.707
238.51
238.875
238.796
238.267
237.286
235.852
233.966
231.633
228.858
225.649
222.016
217.973
213.533
208.712
203.529
198.004
192.158
186.015
179.598
172.933
166.046
158.964
151.714
144.325
136.823
129.237
121.592
113.917
106.238
98.58
90.967
83.424
75.974
68.637
61.435
54.387
47.51
40.82
34.333
28.061
22.018
16.212
10.653
5.348
0.303
-4.478
-8.993
-13.241
-17.222
-20.937
-24.391
-27.586
-30.529
-33.226
-35.684
-37.913
-39.92
-41.716
-43.311
-44.715
-45.94
-46.996
-47.894
-48.645
-49.262
-49.755
-50.134
-50.41
-50.595
-50.697
-50.727
-50.694
-50.607
-50.474
-50.303
-50.102
-49.877
-49.635
-49.382
-49.123
-48.862
-48.605
-48.353
-48.112
-47.883
-47.669
-47.471
-47.291
-47.129
-46.987
-46.865
-46.763
-46.68
-46.618
-46.575
-46.55
-46.544
-46.556
-46.585
-46.629
-46.689
-46.762
-46.848
-46.946
-47.055
-47.173
-47.3
-47.434
-47.575
-47.721
-47.872
-48.025
-48.181
-48.337
-48.493
-48.649
-48.803
-48.955
-49.103
-49.248
-49.389
-49.525
-49.657
-49.782
-49.902
-50.015
-50.122
-50.222
-50.315
-50.4
-50.479
-50.551
-50.617
-50.676
-50.73
-50.778
-50.82
-50.859
-50.893
-50.924
-50.953
-50.981
-51.009
-51.038
-51.071
-51.107
-51.149
-51.198
-51.254
-51.32
-51.396
-51.483
-51.584
-51.698
-51.826
-51.972
-52.134
-52.314
-52.512
-52.729
-52.965
-53.218
-53.49
-53.779
-54.084
-54.405
-54.741
-55.091
-55.453
-55.827
-56.209
-56.599
-56.992
-57.387
-57.78
-58.168
-58.546
-58.91
-59.258
-59.585
-59.889
-60.166
-60.411
-60.622
-60.793
-60.922
-61.003
-61.033
-61.008
-60.923
-60.775
-60.564
-60.287
-59.942
-59.529
-59.045
-58.492
-57.869
-57.176
-56.413
-55.58
-54.678
-53.71
-52.681
-51.594
-50.454
-49.267
-48.042
-46.787
-45.509
-44.214
-42.908
-41.597
-40.287
-38.983
-37.689
-36.409
-35.149
-33.917
-32.721
-31.57
-30.472
-29.432
-28.455
-27.549
-26.718
-25.966
-25.287
-24.682
-24.152
-23.705
-23.358
-23.115
-22.975
-22.929
-22.97
-23.088
-23.265
-23.467
-23.644
-23.739
-23.717
-23.566
-23.286
-22.872
-22.309
-21.574
-20.653
-19.566
-18.335
-16.972
-15.486
-13.89
-12.24
-10.658
-9.306
-8.338
-7.868
-7.961
-8.66
-10.023
-12.095
-14.886
-18.341
-22.337
-26.763
-31.574
-36.759
-42.249
-47.851
-53.247
-58.039
-61.854
-64.406
-65.359
-64.282
-60.933
-55.31
-47.701
-38.807
-29.309
-19.541
-9.913
-0.963
7.334
15.401
24.204
35.535
50.723
70.159
94.255
123.293
156.165
190.691
223.406
249.353
264.344
265.485
249.687
214.089
158.067
83.08
-7.202
-106.768
-209.713
-310.831
-403.876
-482.051
-540.707
-577.471
-592.135
-586.948
-564.767
-528.473
-482.554
-432.825
-383.724
-338.182
-297.943
-263.112
-233.4
-208.584
-187.343
-167.408
-147.362
-126.573
-104.904
-83.062
-61.724
-41.301
-22.602
-6.65
6.03
15.261
21.166
24.28
25.071
23.913
21.351
17.935
14.118
10.329
6.857
3.889
1.63
0.245
-0.166
0.469
2.157
4.853
8.498
12.983
18.176
23.935
30.087
36.457
42.878
49.163
55.168
60.78
65.908
70.5
74.529
77.981
80.867
83.224
85.095
86.539
87.62
88.394
88.931
89.305
89.596
89.893
90.265
90.765
91.434
92.303
93.394
94.726
96.307
98.132
100.2
102.509
105.056
107.845
110.87
114.123
117.59
121.257
125.108
129.131
133.312
137.635
142.085
146.645
151.299
156.032
160.827
165.661
170.51
175.348
180.15
184.89
189.54
194.073
198.462
202.681
206.704
210.509
214.072
217.369
220.381
223.085
225.465
227.502
229.182
230.49
231.415
231.948
232.079
231.805
231.123
230.029
228.526
226.616
224.303
221.596
218.503
215.034
211.203
207.024
202.513
197.69
192.572
187.181
181.539
175.669
169.593
163.338
156.927
150.385
143.737
137.009
130.226
123.413
116.593
109.792
103.032
96.336
89.725
83.221
76.842
70.606
64.532
58.634
52.927
47.425
42.138
37.077
32.25
27.665
23.328
19.241
15.409
11.833
8.512
5.445
2.63
0.063
-2.261
-4.349
-6.207
-7.842
-9.264
-10.482
-11.506
-12.346
-13.013
-13.518
-13.873
-14.088
-14.176
-14.147
-14.013
-13.785
-13.474
-13.089
-12.643
-12.143
-11.599
-11.021
-10.416
-9.793
-9.158
-8.519
-7.881
-7.251
-6.634
-6.035
-5.457
-4.905
-4.381
-3.889
-3.43
-3.007
-2.621
-2.273
-1.963
-1.691
-1.459
-1.265
-1.11
-0.992
-0.911
-0.866
-0.857
-0.882
-0.939
-1.03
-1.151
-1.302
-1.482
-1.689
-1.924
-2.184
-2.469
-2.777
-3.108
-3.461
-3.833
-4.225
-4.635
-5.062
-5.505
-5.962
-6.433
-6.917
-7.411
-7.916
-8.43
-8.951
-9.479
-10.013
-10.551
-11.092
-11.636
-12.179
-12.722
-13.263
-13.801
-14.335
-14.862
-15.383
-15.896
-16.399
-16.891
-17.372
-17.84
-18.294
-18.734
-19.158
-19.565
-19.956
-20.33
-20.686
-21.025
-21.346
-21.649
-21.935
-22.204
-22.457
-22.693
-22.913
-23.119
-23.311
-23.491
-23.659
-23.818
-23.968
-24.112
-24.251
-24.387
-24.522
-24.656
-24.793
-24.933
-25.079
-25.233
-25.395
-25.569
-25.756
-25.958
-26.175
-26.411
-26.664
-26.936
-27.227
-27.538
-27.869
-28.22
-28.59
-28.979
-29.388
-29.815
-30.259
-30.718
-31.19
-31.673
-32.164
-32.659
-33.155
-33.648
-34.133
-34.607
-35.065
-35.506
-35.923
-36.312
-36.669
-36.989
-37.267
-37.499
-37.677
-37.798
-37.857
-37.85
-37.775
-37.63
-37.412
-37.119
-36.75
-36.304
-35.781
-35.181
-34.501
-33.742
-32.907
-31.999
-31.021
-29.978
-28.877
-27.724
-26.529
-25.301
-24.048
-22.777
-21.496
-20.212
-18.932
-17.664
-16.412
-15.182
-13.984
-12.827
-11.723
-10.683
-9.716
-8.828
-8.028
-7.323
-6.716
-6.21
-5.8
-5.485
-5.269
-5.161
-5.176
-5.322
-5.595
-5.987
-6.495
-7.103
-7.787
-8.508
-9.202
-9.82
-10.334
-10.732
-11.016
-11.182
-11.213
-11.09
-10.807
-10.37
-9.789
-9.065
-8.187
-7.183
-6.125
-5.148
-4.436
-4.137
-4.343
-5.115
-6.499
-8.53
-11.244
-14.631
-18.587
-23.007
-27.814
-32.975
-38.497
-44.29
-50.11
-55.591
-60.307
-63.87
-66.006
-66.39
-64.575
-60.373
-53.843
-45.351
-35.74
-25.709
-15.54
-5.642
3.44
11.753
19.728
28.362
39.556
54.645
73.946
97.861
126.633
159.037
192.712
223.97
247.655
259.478
256.565
235.859
194.561
132.252
50.715
-45.901
-151.061
-258.606
-363.342
-459.101
-539.238
-599.083
-635.923
-649.609
-642.888
-618.592
-579.244
-528.922
-472.643
-415.016
-360.393
-311.223
-267.634
-229.889
-198.356
-172.543
-151.809
-134.779
-119.079
-103.621
-88.623
-74.115
-60.295
-47.234
-34.364
-22.007
-11.487
-3.399
2.168
5.29
6.542
6.186
3.99
0.262
-4.197
-8.744
-12.766
-15.901
-18.177
-19.525
-19.761
-18.85
-16.848
-13.868
-10.117
-5.757
-0.868
4.454
10.101
15.948
21.819
27.53
32.93
37.919
42.433
46.443
49.933
52.892
55.334
57.308
58.882
60.127
61.101
61.849
62.422
62.883
63.313
63.798
64.405
65.177
66.145
67.334
68.761
70.445
72.386
74.574
76.995
79.643
82.511
85.6
88.902
92.405
96.091
99.942
103.945
108.085
112.348
116.717
121.173
125.702
130.286
134.914
139.566
144.221
148.857
153.451
157.979
162.419
166.746
170.935
174.962
178.806
182.445
185.86
189.03
191.937
194.564
196.895
198.915
200.611
201.972
202.987
203.649
203.95
203.885
203.453
202.651
201.48
199.94
198.037
195.776
193.163
190.208
186.92
183.312
179.396
175.188
170.703
165.959
160.973
155.766
150.356
144.766
139.015
133.126
127.121
121.02
114.846
108.621
102.367
96.105
89.856
83.641
77.479
71.391
65.394
59.506
53.744
48.124
42.659
37.364
32.251
27.331
22.614
18.108
13.82
9.757
5.923
2.321
-1.047
-4.179
-7.078
-9.744
-12.18
-14.391
-16.381
-18.157
-19.725
-21.094
-22.271
-23.268
-24.092
-24.755
-25.268
-25.642
-25.888
-26.018
-26.044
-25.978
-25.831
-25.614
-25.339
-25.016
-24.656
-24.27
-23.866
-23.453
-23.04
-22.635
-22.244
-21.875
-21.533
-21.223
-20.95
-20.717
-20.528
-20.385
-20.29
-20.244
-20.248
-20.301
-20.403
-20.552
-20.748
-20.986
-21.266
-21.584
-21.936
-22.32
-22.731
-23.166
-23.62
-24.09
-24.572
-25.061
-25.554
-26.047
-26.537
-27.021
-27.494
-27.956
-28.402
-28.831
-29.241
-29.63
-29.997
-30.342
-30.662
-30.959
-31.231
-31.479
-31.703
-31.904
-32.083
-32.242
-32.381
-32.503
-32.609
-32.701
-32.782
-32.853
-32.917
-32.976
-33.031
-33.086
-33.143
-33.202
-33.266
-33.337
-33.416
-33.504
-33.602
-33.712
-33.833
-33.966
-34.112
-34.269
-34.437
-34.616
-34.806
-35.004
-35.211
-35.425
-35.644
-35.867
-36.093
-36.32
-36.546
-36.768
-36.986
-37.197
-37.4
-37.592
-37.772
-37.939
-38.092
-38.228
-38.348
-38.451
-38.536
-38.603
-38.652
-38.682
-38.694
-38.69
-38.67
-38.634
-38.586
-38.526
-38.457
-38.38
-38.298
-38.211
-38.123
-38.034
-37.946
-37.863
-37.785
-37.714
-37.651
-37.6
-37.561
-37.537
-37.527
-37.532
-37.552
-37.588
-37.638
-37.701
-37.776
-37.86
-37.953
-38.051
-38.152
-38.255
-38.354
-38.447
-38.529
-38.597
-38.645
-38.668
-38.661
-38.618
-38.537
-38.413
-38.244
-38.026
-37.755
-37.429
-37.047
-36.606
-36.105
-35.54
-34.911
-34.217
-33.46
-32.641
-31.764
-30.832
-29.849
-28.822
-27.76
-26.667
-25.551
-24.416
-23.27
-22.117
-20.966
-19.82
-18.683
-17.564
-16.471
-15.414
-14.403
-13.447
-12.551
-11.722
-10.968
-10.296
-9.708
-9.201
-8.774
-8.43
-8.178
-8.035
-8.008
-8.094
-8.286
-8.577
-8.958
-9.41
-9.9
-10.373
-10.774
-11.065
-11.235
-11.281
-11.194
-10.958
-10.544
-9.936
-9.153
-8.215
-7.132
-5.912
-4.571
-3.171
-1.845
-0.764
-0.093
0.052
-0.392
-1.479
-3.27
-5.811
-9.124
-13.138
-17.721
-22.769
-28.231
-34.086
-40.25
-46.494
-52.449
-57.694
-61.827
-64.546
-65.519
-64.291
-60.624
-54.556
-46.412
-36.985
-27.016
-16.823
-6.841
2.337
10.752
18.845
27.608
38.961
54.267
73.837
98.101
127.325
160.251
194.522
226.404
250.654
262.977
260.441
239.885
198.45
135.633
53.164
-44.743
-151.575
-261.222
-368.225
-466.173
-548.125
-609.013
-646.229
-659.876
-652.533
-626.973
-586.164
-534.464
-477.521
-420.72
-367.871
-320.765
-279.583
-244.417
-215.168
-191.155
-170.868
-151.943
-132.805
-113.208
-93.538
-74.285
-55.919
-38.537
-22.36
-8.53
2.213
9.831
14.438
16.557
16.758
15.179
11.99
7.87
3.397
-0.957
-4.694
-7.671
-9.812
-10.917
-10.876
-9.692
-7.387
-4.068
0.097
5
10.514
16.502
22.836
29.357
35.891
42.253
48.281
53.867
58.938
63.457
67.404
70.767
73.559
75.83
77.648
79.083
80.2
81.05
81.689
82.191
82.64
83.123
83.712
84.451
85.375
86.511
87.882
89.503
91.381
93.503
95.859
98.445
101.256
104.293
107.55
111.016
114.673
118.506
122.501
126.646
130.926
135.324
139.825
144.41
149.066
153.777
158.526
163.291
168.048
172.772
177.439
182.023
186.5
190.84
195.02
199.016
202.803
206.361
209.667
212.702
215.446
217.882
219.993
221.764
223.183
224.238
224.918
225.216
225.127
224.645
223.77
222.5
220.837
218.785
216.35
213.538
210.359
206.824
202.946
198.741
194.223
189.411
184.324
178.982
173.406
167.62
161.646
155.507
149.228
142.831
136.341
129.781
123.176
116.548
109.92
103.315
96.755
90.261
83.852
77.55
71.371
65.333
59.452
53.744
48.221
42.897
37.782
32.886
28.216
23.781
19.584
15.629
11.919
8.455
5.235
2.259
-0.478
-2.979
-5.251
-7.299
-9.132
-10.757
-12.184
-13.422
-14.481
-15.371
-16.105
-16.692
-17.144
-17.474
-17.691
-17.808
-17.835
-17.785
-17.668
-17.494
-17.273
-17.017
-16.732
-16.43
-16.117
-15.801
-15.49
-15.19
-14.907
-14.645
-14.408
-14.201
-14.027
-13.886
-13.781
-13.712
-13.681
-13.686
-13.727
-13.803
-13.912
-14.053
-14.224
-14.422
-14.645
-14.891
-15.157
-15.44
-15.738
-16.049
-16.369
-16.696
-17.028
-17.362
-17.697
-18.029
-18.358
-18.681
-18.997
-19.305
-19.603
-19.89
-20.167
-20.434
-20.689
-20.934
-21.17
-21.398
-21.619
-21.835
-22.047
-22.257
-22.468
-22.68
-22.898
-23.121
-23.353
-23.595
-23.849
-24.117
-24.4
-24.699
-25.016
-25.351
-25.705
-26.078
-26.472
-26.885
-27.318
-27.771
-28.244
-28.736
-29.246
-29.772
-30.315
-30.871
-31.439
-32.017
-32.602
-33.192
-33.783
-34.373
-34.959
-35.536
-36.102
-36.654
-37.188
-37.7
-38.188
-38.648
-39.078
-39.476
-39.839
-40.165
-40.454
-40.705
-40.916
-41.088
-41.221
-41.314
-41.368
-41.383
-41.362
-41.305
-41.214
-41.092
-40.941
-40.763
-40.563
-40.344
-40.109
-39.861
-39.605
-39.345
-39.084
-38.828
-38.581
-38.346
-38.128
-37.931
-37.759
-37.616
-37.504
-37.425
-37.381
-37.373
-37.4
-37.462
-37.559
-37.689
-37.85
-38.04
-38.257
-38.497
-38.757
-39.032
-39.317
-39.608
-39.898
-40.181
-40.449
-40.696
-40.916
-41.102
-41.248
-41.347
-41.392
-41.378
-41.297
-41.143
-40.912
-40.596
-40.192
-39.695
-39.103
-38.414
-37.63
-36.752
-35.784
-34.73
-33.596
-32.387
-31.108
-29.765
-28.363
-26.908
-25.403
-23.857
-22.277
-20.671
-19.053
-17.433
-15.824
-14.238
-12.687
-11.18
-9.732
-8.351
-7.044
-5.817
-4.681
-3.648
-2.742
-1.979
-1.359
-0.885
-0.55
-0.34
-0.246
-0.246
-0.294
-0.354
-0.385
-0.351
-0.25
-0.077
0.186
0.558
1.076
1.758
2.566
3.458
4.406
5.364
6.294
7.121
7.691
7.863
7.508
6.508
4.817
2.399
-0.816
-4.874
-9.812
-15.603
-22.09
-29.097
-36.502
-44.182
-52.04
-59.878
-67.307
-73.941
-79.394
-83.295
-85.394
-85.357
-82.735
-77.358
-69.319
-59.026
-47.361
-35.049
-22.495
-10.305
1.033
11.588
21.812
32.932
46.712
64.177
85.786
112.011
142.614
176.076
209.456
238.268
257.906
264.82
256.12
228.982
181.148
112.439
25.747
-73.561
-179.833
-287.773
-392.406
-488.115
-568.092
-627.206
-663.612
-678.039
-672.241
-648.335
-608.172
-554.839
-494.224
-432.042
-372.429
-317.752
-268.892
-226.499
-191.944
-165.968
-146.967
-132.465
-119.88
-107.664
-95.735
-84.116
-72.183
-59.085
-44.875
-30.532
-17.673
-7.404
0.183
5.325
8.21
8.719
6.845
3.107
-1.524
-6.129
-10.159
-13.36
-15.68
-17
-17.153
-16.105
-13.95
-10.862
-7.016
-2.544
2.482
7.985
13.846
19.918
26.022
31.961
37.58
42.776
47.482
51.667
55.311
58.399
60.948
63.006
64.642
65.924
66.909
67.638
68.165
68.562
68.914
69.314
69.831
70.51
71.385
72.482
73.821
75.42
77.28
79.39
81.738
84.318
87.125
90.161
93.42
96.886
100.545
104.378
108.369
112.508
116.777
121.159
125.638
130.196
134.819
139.492
144.197
148.911
153.613
158.277
162.88
167.397
171.803
176.072
180.179
184.101
187.816
191.301
194.538
197.506
200.187
202.565
204.623
206.349
207.73
208.755
209.416
209.705
209.618
209.152
208.305
207.077
205.47
203.488
201.138
198.427
195.364
191.959
188.225
184.177
179.83
175.202
170.31
165.174
159.814
154.253
148.512
142.614
136.582
130.438
124.207
117.911
111.573
105.216
98.862
92.532
86.249
80.032
73.901
67.875
61.972
56.207
50.598
45.157
39.899
34.834
29.975
25.33
20.907
16.713
12.753
9.031
5.55
2.31
-0.688
-3.447
-5.968
-8.257
-10.319
-12.159
-13.785
-15.206
-16.429
-17.466
-18.326
-19.019
-19.556
-19.95
-20.21
-20.35
-20.379
-20.31
-20.154
-19.921
-19.623
-19.271
-18.873
-18.441
-17.982
-17.507
-17.024
-16.539
-16.061
-15.596
-15.149
-14.727
-14.333
-13.972
-13.647
-13.36
-13.113
-12.906
-12.742
-12.618
-12.536
-12.493
-12.489
-12.522
-12.59
-12.69
-12.82
-12.978
-13.162
-13.368
-13.594
-13.838
-14.097
-14.369
-14.651
-14.942
-15.238
-15.538
-15.841
-16.144
-16.445
-16.744
-17.039
-17.329
-17.613
-17.89
-18.16
-18.424
-18.681
-18.932
-19.177
-19.418
-19.656
-19.89
-20.124
-20.358
-20.593
-20.831
-21.073
-21.32
-21.574
-21.834
-22.102
-22.378
-22.663
-22.957
-23.259
-23.569
-23.889
-24.216
-24.55
-24.892
-25.24
-25.594
-25.952
-26.314
-26.678
-27.044
-27.41
-27.774
-28.135
-28.492
-28.843
-29.186
-29.519
-29.841
-30.15
-30.444
-30.722
-30.982
-31.223
-31.444
-31.645
-31.823
-31.981
-32.117
-32.233
-32.329
-32.406
-32.465
-32.508
-32.535
-32.55
-32.553
-32.547
-32.534
-32.516
-32.496
-32.476
-32.46
-32.449
-32.446
-32.452
-32.47
-32.502
-32.55
-32.614
-32.698
-32.802
-32.927
-33.075
-33.248
-33.444
-33.663
-33.905
-34.168
-34.451
-34.749
-35.061
-35.381
-35.707
-36.034
-36.359
-36.677
-36.983
-37.272
-37.537
-37.775
-37.977
-38.138
-38.251
-38.309
-38.305
-38.237
-38.098
-37.885
-37.595
-37.222
-36.765
-36.221
-35.589
-34.865
-34.048
-33.136
-32.132
-31.038
-29.857
-28.592
-27.252
-25.841
-24.37
-22.849
-21.285
-19.686
-18.062
-16.421
-14.77
-13.119
-11.473
-9.841
-8.234
-6.664
-5.144
-3.686
-2.303
-1.002
0.205
1.311
2.307
3.19
3.964
4.627
5.173
5.59
5.862
5.981
5.95
5.774
5.458
5.017
4.474
3.868
3.262
2.704
2.222
1.826
1.514
1.291
1.173
1.181
1.325
1.601
2
2.522
3.176
3.94
4.744
5.458
5.902
5.93
5.45
4.403
2.749
0.454
-2.517
-6.153
-10.368
-15.066
-20.165
-25.631
-31.471
-37.599
-43.792
-49.702
-54.897
-58.983
-61.669
-62.617
-61.387
-57.773
-51.807
-43.83
-34.634
-24.91
-14.966
-5.257
3.635
11.748
19.526
28.016
39.154
54.291
73.795
98.171
127.788
161.531
197.131
230.744
256.917
271.326
271.001
252.763
213.72
152.909
71.518
-26.265
-133.643
-244.657
-354.088
-455.928
-543.813
-612.001
-656.599
-677.198
-676.282
-656.168
-619.235
-568.881
-509.358
-446.404
-385.556
-329.64
-279.391
-235.467
-198.312
-168.217
-145.302
-127.462
-111.617
-96.401
-81.557
-67.119
-53.431
-40.193
-26.527
-13.073
-1.442
7.583
13.68
17.041
18.391
17.942
15.445
11.274
6.299
1.258
-3.155
-6.593
-9.114
-10.647
-11.009
-10.142
-8.089
-4.969
-0.998
3.647
8.87
14.564
20.599
26.833
33.074
39.119
44.806
50.029
54.72
58.851
62.405
65.367
67.748
69.599
70.989
71.99
72.67
73.077
73.269
73.316
73.307
73.334
73.471
73.765
74.249
74.95
75.889
77.084
78.541
80.249
82.197
84.38
86.795
89.443
92.32
95.414
98.709
102.189
105.841
109.653
113.611
117.699
121.901
126.201
130.585
135.038
139.544
144.081
148.625
153.153
157.639
162.061
166.392
170.605
174.675
178.579
182.293
185.796
189.065
192.081
194.823
197.274
199.416
201.235
202.716
203.846
204.616
205.015
205.036
204.676
203.93
202.796
201.275
199.369
197.083
194.422
191.396
188.012
184.284
180.226
175.851
171.178
166.224
161.009
155.553
149.879
144.01
137.967
131.775
125.457
119.037
112.541
105.991
99.412
92.827
86.261
79.736
73.275
66.9
60.631
54.489
48.492
42.659
37.005
31.547
26.298
21.272
16.477
11.926
7.624
3.579
-0.205
-3.725
-6.979
-9.967
-12.692
-15.155
-17.361
-19.316
-21.026
-22.5
-23.746
-24.774
-25.594
-26.218
-26.658
-26.926
-27.035
-26.999
-26.831
-26.544
-26.153
-25.67
-25.11
-24.485
-23.808
-23.091
-22.347
-21.586
-20.818
-20.053
-19.3
-18.568
-17.863
-17.191
-16.558
-15.969
-15.427
-14.935
-14.495
-14.109
-13.777
-13.499
-13.275
-13.102
-12.979
-12.903
-12.873
-12.884
-12.933
-13.016
-13.13
-13.27
-13.433
-13.613
-13.806
-14.009
-14.217
-14.427
-14.635
-14.837
-15.032
-15.217
-15.388
-15.546
-15.688
-15.814
-15.923
-16.014
-16.09
-16.149
-16.193
-16.223
-16.241
-16.248
-16.247
-16.239
-16.226
-16.211
-16.196
-16.182
-16.173
-16.171
-16.177
-16.193
-16.222
-16.265
-16.324
-16.399
-16.493
-16.606
-16.738
-16.89
-17.061
-17.253
-17.463
-17.691
-17.935
-18.195
-18.468
-18.752
-19.046
-19.347
-19.653
-19.962
-20.27
-20.577
-20.879
-21.174
-21.46
-21.736
-21.999
-22.247
-22.481
-22.698
-22.898
-23.081
-23.246
-23.394
-23.525
-23.639
-23.736
-23.818
-23.887
-23.943
-23.988
-24.025
-24.055
-24.082
-24.108
-24.136
-24.169
-24.208
-24.258
-24.319
-24.396
-24.49
-24.603
-24.736
-24.892
-25.073
-25.279
-25.511
-25.77
-26.053
-26.361
-26.692
-27.043
-27.413
-27.796
-28.191
-28.593
-29
-29.407
-29.81
-30.205
-30.588
-30.952
-31.293
-31.605
-31.882
-32.118
-32.306
-32.442
-32.521
-32.54
-32.493
-32.378
-32.191
-31.929
-31.591
-31.174
-30.677
-30.097
-29.435
-28.693
-27.875
-26.982
-26.021
-24.998
-23.92
-22.798
-21.637
-20.447
-19.233
-18.003
-16.764
-15.522
-14.283
-13.051
-11.834
-10.642
-9.485
-8.373
-7.316
-6.321
-5.395
-4.547
-3.784
-3.11
-2.523
-2.023
-1.613
-1.303
-1.108
-1.035
-1.083
-1.246
-1.514
-1.879
-2.325
-2.816
-3.302
-3.724
-4.044
-4.249
-4.336
-4.298
-4.118
-3.771
-3.238
-2.541
-1.701
-0.73
0.366
1.575
2.846
4.055
5.038
5.634
5.721
5.234
4.122
2.316
-0.238
-3.568
-7.629
-12.293
-17.446
-23.046
-29.08
-35.485
-42.072
-48.507
-54.379
-59.297
-62.959
-65.02
-65.021
-62.672
-57.935
-51.062
-42.739
-33.676
-24.216
-14.806
-6.049
2.067
9.956
18.609
29.935
45.309
65.164
90.055
120.38
155.092
192.03
227.379
255.705
272.74
275.474
260.685
225.381
168.238
90.129
-4.956
-110.654
-221.318
-331.993
-437.194
-530.446
-605.431
-658.044
-687.292
-694.555
-681.673
-650.261
-602.273
-542.137
-476.063
-409.343
-345.986
-288.262
-237.159
-194.248
-161.546
-138.713
-123.461
-113.239
-105.043
-97.216
-89.606
-81.355
-71.038
-58.356
-43.802
-28.523
-14.588
-3.085
6.005
12.501
16.244
17.33
15.868
12.464
8.316
4.241
0.678
-2.044
-3.872
-4.747
-4.514
-3.19
-0.931
2.132
5.834
10.044
14.714
19.764
25.087
30.567
36.034
41.304
46.236
50.734
54.749
58.264
61.257
63.716
65.659
67.135
68.219
68.983
69.48
69.754
69.859
69.863
69.854
69.923
70.135
70.533
71.151
72.011
73.137
74.545
76.239
78.206
80.433
82.912
85.638
88.612
91.825
95.26
98.898
102.721
106.711
110.855
115.135
119.532
124.025
128.597
133.229
137.906
142.605
147.305
151.979
156.601
161.146
165.588
169.901
174.056
178.029
181.795
185.332
188.618
191.633
194.357
196.772
198.863
200.615
202.016
203.053
203.718
204.004
203.905
203.418
202.543
201.278
199.626
197.591
195.179
192.398
189.257
185.768
181.943
177.797
173.346
168.609
163.603
158.349
152.869
147.184
141.317
135.292
129.132
122.861
116.503
110.082
103.62
97.141
90.668
84.223
77.828
71.502
65.267
59.142
53.143
47.289
41.595
36.075
30.744
25.612
20.691
15.991
11.519
7.281
3.284
-0.469
-3.975
-7.234
-10.246
-13.012
-15.535
-17.819
-19.869
-21.691
-23.292
-24.68
-25.864
-26.852
-27.655
-28.283
-28.748
-29.059
-29.228
-29.268
-29.188
-29.002
-28.719
-28.353
-27.912
-27.409
-26.853
-26.254
-25.622
-24.965
-24.292
-23.611
-22.929
-22.253
-21.588
-20.941
-20.317
-19.718
-19.151
-18.616
-18.118
-17.658
-17.238
-16.859
-16.521
-16.225
-15.969
-15.755
-15.58
-15.443
-15.343
-15.278
-15.246
-15.245
-15.273
-15.327
-15.406
-15.507
-15.628
-15.768
-15.923
-16.093
-16.276
-16.469
-16.673
-16.885
-17.104
-17.33
-17.561
-17.796
-18.035
-18.278
-18.523
-18.77
-19.019
-19.269
-19.521
-19.774
-20.028
-20.283
-20.539
-20.797
-21.056
-21.317
-21.58
-21.845
-22.112
-22.382
-22.655
-22.93
-23.208
-23.488
-23.77
-24.054
-24.34
-24.627
-24.915
-25.203
-25.491
-25.777
-26.061
-26.342
-26.62
-26.894
-27.164
-27.429
-27.688
-27.943
-28.192
-28.435
-28.673
-28.905
-29.132
-29.353
-29.569
-29.779
-29.986
-30.188
-30.386
-30.582
-30.776
-30.969
-31.161
-31.354
-31.548
-31.743
-31.941
-32.142
-32.347
-32.556
-32.771
-32.991
-33.218
-33.453
-33.694
-33.942
-34.196
-34.455
-34.717
-34.981
-35.244
-35.503
-35.758
-36.005
-36.243
-36.469
-36.681
-36.874
-37.045
-37.192
-37.31
-37.394
-37.439
-37.442
-37.398
-37.304
-37.158
-36.956
-36.695
-36.373
-35.988
-35.538
-35.02
-34.434
-33.776
-33.049
-32.251
-31.385
-30.455
-29.464
-28.419
-27.326
-26.193
-25.027
-23.834
-22.621
-21.393
-20.156
-18.915
-17.675
-16.439
-15.217
-14.017
-12.852
-11.731
-10.665
-9.662
-8.732
-7.882
-7.12
-6.448
-5.863
-5.366
-4.96
-4.655
-4.469
-4.408
-4.47
-4.646
-4.928
-5.303
-5.755
-6.251
-6.736
-7.165
-7.502
-7.736
-7.878
-7.925
-7.867
-7.685
-7.35
-6.866
-6.262
-5.552
-4.738
-3.833
-2.869
-1.936
-1.196
-0.791
-0.815
-1.329
-2.346
-3.902
-6.048
-8.813
-12.204
-16.148
-20.517
-25.228
-30.243
-35.514
-40.976
-46.426
-51.486
-55.806
-59.086
-61.043
-61.493
-60.131
-56.51
-50.486
-42.218
-32.189
-21.28
-10.191
0.824
11.293
20.53
28.456
35.427
42.583
52.091
65.517
83.36
106.14
134.216
166.38
200.167
231.685
255.419
266.662
262.177
238.565
192.665
124.065
34.946
-70.33
-185.001
-302.578
-417.679
-523.393
-611.724
-677.32
-717.478
-731.744
-722.519
-692.241
-642.585
-578.181
-506.2
-432.676
-362.642
-299.438
-243.904
-197.366
-162.095
-137.731
-121.688
-111.2
-102.952
-94.987
-87.225
-78.884
-68.474
-55.719
-41.205
-26.131
-12.636
-1.845
6.327
11.763
14.331
14.173
11.469
6.878
1.677
-3.248
-7.477
-10.701
-12.865
-13.925
-13.725
-12.279
-9.772
-6.37
-2.24
2.474
7.714
13.393
19.372
25.51
31.613
37.474
42.954
47.962
52.446
56.392
59.778
62.59
64.856
66.637
68.004
69.026
69.756
70.235
70.525
70.701
70.853
71.075
71.431
71.964
72.707
73.683
74.912
76.412
78.182
80.207
82.476
84.982
87.724
90.701
93.906
97.323
100.934
104.722
108.671
112.769
116.997
121.337
125.773
130.287
134.863
139.486
144.136
148.792
153.429
158.024
162.552
166.987
171.305
175.479
179.484
183.297
186.896
190.259
193.367
196.2
198.74
200.97
202.877
204.445
205.664
206.522
207.011
207.126
206.861
206.214
205.183
203.77
201.976
199.808
197.271
194.372
191.123
187.535
183.62
179.395
174.875
170.078
165.023
159.731
154.223
148.521
142.648
136.627
130.481
124.233
117.908
111.528
105.117
98.697
92.292
85.922
79.609
73.375
67.237
61.216
55.328
49.591
44.018
38.626
33.426
28.431
23.649
19.091
14.763
10.671
6.82
3.212
-0.151
-3.269
-6.144
-8.779
-11.177
-13.345
-15.287
-17.012
-18.528
-19.844
-20.969
-21.914
-22.691
-23.309
-23.781
-24.118
-24.332
-24.436
-24.441
-24.358
-24.198
-23.974
-23.696
-23.373
-23.016
-22.634
-22.236
-21.829
-21.422
-21.021
-20.631
-20.259
-19.908
-19.583
-19.286
-19.02
-18.786
-18.586
-18.42
-18.287
-18.187
-18.119
-18.08
-18.07
-18.085
-18.123
-18.182
-18.258
-18.349
-18.452
-18.565
-18.683
-18.804
-18.927
-19.048
-19.165
-19.276
-19.379
-19.473
-19.557
-19.628
-19.687
-19.733
-19.764
-19.783
-19.788
-19.779
-19.759
-19.726
-19.684
-19.632
-19.572
-19.506
-19.436
-19.363
-19.289
-19.215
-19.143
-19.076
-19.013
-18.957
-18.91
-18.871
-18.843
-18.826
-18.821
-18.828
-18.849
-18.883
-18.93
-18.991
-19.065
-19.153
-19.253
-19.366
-19.492
-19.63
-19.779
-19.941
-20.114
-20.299
-20.494
-20.699
-20.914
-21.139
-21.374
-21.618
-21.872
-22.136
-22.41
-22.696
-22.993
-23.303
-23.626
-23.962
-24.312
-24.676
-25.055
-25.449
-25.86
-26.287
-26.732
-27.195
-27.676
-28.174
-28.69
-29.222
-29.769
-30.328
-30.898
-31.476
-32.06
-32.645
-33.232
-33.815
-34.392
-34.959
-35.512
-36.047
-36.558
-37.04
-37.488
-37.895
-38.255
-38.563
-38.815
-39.006
-39.132
-39.189
-39.171
-39.076
-38.901
-38.641
-38.294
-37.857
-37.328
-36.708
-35.997
-35.198
-34.314
-33.351
-32.314
-31.21
-30.046
-28.827
-27.56
-26.251
-24.905
-23.528
-22.125
-20.701
-19.266
-17.828
-16.401
-14.997
-13.626
-12.298
-11.023
-9.811
-8.67
-7.605
-6.616
-5.704
-4.874
-4.139
-3.518
-3.021
-2.648
-2.394
-2.252
-2.213
-2.263
-2.368
-2.475
-2.538
-2.519
-2.405
-2.207
-1.921
-1.537
-1.038
-0.396
0.381
1.267
2.25
3.328
4.485
5.686
6.829
7.74
8.266
8.292
7.741
6.592
4.797
2.312
-0.888
-4.794
-9.306
-14.302
-19.71
-25.5
-31.64
-38.023
-44.377
-50.293
-55.375
-59.266
-61.689
-62.346
-60.79
-56.795
-50.418
-42.004
-32.335
-22.12
-11.662
-1.411
7.989
16.532
24.603
33.175
44.218
59.125
78.29
102.303
131.567
165.012
200.433
233.956
260.084
274.447
273.958
255.367
215.715
153.858
70.987
-28.605
-138.309
-252.115
-364.723
-470.408
-562.499
-634.811
-683.586
-708.112
-710.064
-691.668
-654.895
-602.122
-538.145
-469.137
-400.183
-335.103
-275.943
-223.579
-179.505
-145.473
-120.963
-103.781
-91.552
-81.569
-72.436
-64.03
-55.506
-45.509
-33.759
-20.727
-7.477
4.124
13.176
19.811
23.95
25.473
24.516
21.27
16.401
11.155
6.351
2.358
-0.558
-2.374
-3.051
-2.445
-0.59
2.305
6.058
10.482
15.43
20.856
26.654
32.675
38.746
44.646
50.196
55.296
59.873
63.902
67.37
70.258
72.579
74.386
75.745
76.733
77.413
77.829
78.038
78.114
78.143
78.227
78.443
78.839
79.452
80.307
81.424
82.821
84.502
86.453
88.662
91.122
93.826
96.776
99.964
103.377
106.995
110.799
114.773
118.901
123.167
127.552
132.038
136.606
141.238
145.92
150.632
155.351
160.052
164.708
169.295
173.787
178.156
182.377
186.421
190.267
193.889
197.266
200.377
203.201
205.719
207.913
209.768
211.268
212.402
213.157
213.525
213.497
213.07
212.24
211.005
209.365
207.324
204.885
202.056
198.845
195.261
191.318
187.028
182.407
177.473
172.245
166.742
160.985
154.996
148.799
142.417
135.875
129.197
122.407
115.531
108.593
101.618
94.631
87.656
80.716
73.835
67.034
60.337
53.763
47.331
41.06
34.968
29.07
23.381
17.914
12.68
7.689
2.951
-1.528
-5.742
-9.688
-13.364
-16.767
-19.899
-22.763
-25.361
-27.698
-29.78
-31.613
-33.207
-34.57
-35.711
-36.642
-37.374
-37.918
-38.288
-38.496
-38.556
-38.48
-38.282
-37.976
-37.574
-37.09
-36.537
-35.927
-35.271
-34.582
-33.869
-33.144
-32.415
-31.692
-30.982
-30.293
-29.631
-29.003
-28.413
-27.866
-27.364
-26.912
-26.511
-26.162
-25.867
-25.625
-25.437
-25.301
-25.216
-25.18
-25.19
-25.244
-25.338
-25.47
-25.635
-25.83
-26.051
-26.295
-26.557
-26.834
-27.122
-27.418
-27.718
-28.019
-28.318
-28.613
-28.9
-29.178
-29.445
-29.698
-29.936
-30.158
-30.363
-30.549
-30.717
-30.865
-30.993
-31.101
-31.19
-31.259
-31.31
-31.343
-31.359
-31.361
-31.349
-31.326
-31.293
-31.251
-31.203
-31.151
-31.095
-31.039
-30.984
-30.931
-30.882
-30.841
-30.807
-30.784
-30.771
-30.77
-30.782
-30.807
-30.847
-30.902
-30.972
-31.057
-31.159
-31.278
-31.415
-31.569
-31.739
-31.925
-32.126
-32.34
-32.566
-32.8
-33.04
-33.283
-33.527
-33.77
-34.009
-34.241
-34.462
-34.67
-34.859
-35.028
-35.17
-35.283
-35.36
-35.4
-35.398
-35.353
-35.263
-35.125
-34.937
-34.697
-34.403
-34.055
-33.651
-33.189
-32.666
-32.084
-31.444
-30.748
-29.998
-29.197
-28.351
-27.466
-26.549
-25.605
-24.64
-23.657
-22.662
-21.661
-20.657
-19.653
-18.654
-17.666
-16.697
-15.758
-14.857
-14.001
-13.196
-12.448
-11.763
-11.146
-10.595
-10.108
-9.682
-9.322
-9.038
-8.845
-8.751
-8.753
-8.845
-9.024
-9.274
-9.576
-9.892
-10.162
-10.342
-10.408
-10.352
-10.177
-9.884
-9.458
-8.881
-8.15
-7.269
-6.254
-5.109
-3.829
-2.444
-1.027
0.289
1.327
1.946
2.057
1.604
0.545
-1.153
-3.517
-6.542
-10.133
-14.191
-18.64
-23.439
-28.581
-33.972
-39.382
-44.465
-48.826
-52.101
-54.022
-54.284
-52.475
-48.408
-42.129
-33.955
-24.629
-14.807
-4.792
4.984
13.947
22.06
29.644
37.542
47.457
60.639
77.465
98.431
123.901
152.92
183.481
212.301
234.673
246.536
244.994
226.927
189.419
131.764
55.412
-35.992
-136.592
-240.503
-342.426
-436.061
-514.454
-572.867
-608.955
-622.498
-615.732
-591.566
-552.95
-504.514
-452.302
-400.897
-353.324
-311.397
-275.186
-244.396
-218.822
-197.039
-176.681
-156.256
-135.039
-112.911
-90.639
-68.924
-48.203
-29.301
-13.217
-0.479
8.729
14.552
17.511
18.094
16.711
13.868
10.083
5.775
1.322
-2.94
-6.761
-9.909
-12.192
-13.496
-13.752
-12.928
-11.037
-8.139
-4.334
0.239
5.425
11.086
17.077
23.253
29.462
35.521
41.273
46.613
51.466
55.798
59.589
62.828
65.527
67.737
69.519
70.945
72.08
72.974
73.69
74.297
74.871
75.499
76.248
77.163
78.282
79.629
81.225
83.088
85.222
87.616
90.262
93.152
96.283
99.654
103.258
107.082
111.111
115.327
119.715
124.261
128.949
133.762
138.68
143.685
148.761
153.891
159.056
164.23
169.388
174.504
179.55
184.499
189.322
193.99
198.474
202.747
206.785
210.561
214.053
217.236
220.089
222.591
224.724
226.471
227.816
228.745
229.247
229.312
228.934
228.108
226.83
225.101
222.921
220.295
217.229
213.732
209.814
205.487
200.768
195.672
190.219
184.429
178.326
171.933
165.275
158.379
151.273
143.983
136.54
128.97
121.304
113.569
105.796
98.011
90.244
82.522
74.872
67.319
59.889
52.606
45.49
38.564
31.847
25.356
19.108
13.117
7.396
1.956
-3.194
-8.048
-12.599
-16.845
-20.785
-24.418
-27.747
-30.777
-33.511
-35.958
-38.125
-40.023
-41.661
-43.052
-44.208
-45.142
-45.869
-46.402
-46.757
-46.949
-46.994
-46.907
-46.702
-46.396
-46.003
-45.538
-45.014
-44.444
-43.841
-43.218
-42.585
-41.952
-41.33
-40.727
-40.15
-39.606
-39.1
-38.638
-38.223
-37.858
-37.544
-37.284
-37.076
-36.922
-36.82
-36.768
-36.764
-36.806
-36.891
-37.015
-37.174
-37.365
-37.584
-37.826
-38.087
-38.364
-38.652
-38.947
-39.246
-39.545
-39.841
-40.13
-40.411
-40.679
-40.934
-41.172
-41.393
-41.595
-41.778
-41.942
-42.086
-42.211
-42.319
-42.409
-42.485
-42.547
-42.597
-42.637
-42.67
-42.697
-42.721
-42.745
-42.772
-42.804
-42.843
-42.893
-42.954
-43.03
-43.12
-43.226
-43.35
-43.493
-43.654
-43.835
-44.037
-44.259
-44.502
-44.765
-45.048
-45.349
-45.667
-46
-46.344
-46.698
-47.057
-47.419
-47.781
-48.139
-48.49
-48.831
-49.156
-49.462
-49.745
-49.999
-50.221
-50.404
-50.544
-50.638
-50.682
-50.674
-50.612
-50.495
-50.319
-50.085
-49.791
-49.436
-49.021
-48.544
-48.005
-47.404
-46.745
-46.031
-45.265
-44.451
-43.594
-42.703
-41.785
-40.844
-39.886
-38.918
-37.943
-36.968
-35.998
-35.035
-34.084
-33.153
-32.248
-31.379
-30.555
-29.782
-29.064
-28.408
-27.816
-27.293
-26.838
-26.444
-26.11
-25.838
-25.636
-25.517
-25.488
-25.544
-25.679
-25.886
-26.152
-26.455
-26.757
-27.003
-27.147
-27.165
-27.049
-26.802
-26.423
-25.898
-25.208
-24.35
-23.329
-22.158
-20.84
-19.372
-17.782
-16.144
-14.588
-13.29
-12.389
-11.977
-12.11
-12.838
-14.193
-16.207
-18.876
-22.107
-25.807
-29.905
-34.369
-39.2
-44.305
-49.455
-54.308
-58.469
-61.573
-63.356
-63.511
-61.617
-57.497
-51.214
-43.111
-33.96
-24.418
-14.756
-5.379
3.163
10.879
18.138
25.839
35.745
49.092
66.173
87.387
112.991
141.913
172.06
200.069
221.186
231.397
227.932
207.845
168.433
109.204
31.782
-60.054
-160.382
-263.331
-363.676
-455.267
-531.362
-587.441
-621.362
-633.06
-624.85
-599.673
-560.466
-511.782
-459.531
-408.158
-360.556
-318.439
-281.823
-250.395
-223.96
-201.146
-179.677
-158.142
-135.884
-112.833
-89.792
-67.475
-46.322
-27.134
-10.861
2.003
11.297
17.181
20.185
20.801
19.454
16.649
12.892
8.601
4.149
-0.126
-3.965
-7.133
-9.444
-10.788
-11.102
-10.357
-8.57
-5.806
-2.169
2.196
7.135
12.508
18.174
23.993
29.816
35.463
40.782
45.67
50.06
53.921
57.239
60.009
62.248
64.01
65.365
66.387
67.143
67.69
68.088
68.409
68.728
69.132
69.686
70.434
71.41
72.641
74.144
75.935
78.016
80.374
82.997
85.875
89.001
92.37
95.973
99.792
103.809
108.003
112.356
116.851
121.469
126.189
130.991
135.853
140.758
145.685
150.614
155.52
160.376
165.156
169.832
174.379
178.769
182.975
186.971
190.733
194.237
197.463
200.391
203.001
205.275
207.198
208.757
209.94
210.736
211.139
211.141
210.74
209.934
208.723
207.11
205.099
202.696
199.91
196.75
193.229
189.36
185.157
180.638
175.821
170.725
165.372
159.783
153.981
147.989
141.832
135.534
129.12
122.615
116.042
109.427
102.793
96.165
89.564
83.012
76.532
70.142
63.863
57.712
51.706
45.862
40.193
34.712
29.432
24.363
19.514
14.893
10.507
6.36
2.457
-1.201
-4.611
-7.776
-10.695
-13.372
-15.811
-18.016
-19.994
-21.751
-23.295
-24.635
-25.78
-26.74
-27.524
-28.145
-28.611
-28.935
-29.127
-29.199
-29.16
-29.023
-28.797
-28.492
-28.12
-27.689
-27.208
-26.687
-26.135
-25.558
-24.965
-24.362
-23.757
-23.154
-22.56
-21.98
-21.419
-20.879
-20.364
-19.879
-19.423
-19.001
-18.612
-18.258
-17.938
-17.654
-17.405
-17.19
-17.009
-16.859
-16.741
-16.652
-16.591
-16.556
-16.547
-16.56
-16.594
-16.648
-16.72
-16.808
-16.911
-17.027
-17.154
-17.29
-17.435
-17.586
-17.742
-17.903
-18.065
-18.229
-18.392
-18.555
-18.715
-18.872
-19.026
-19.174
-19.317
-19.455
-19.588
-19.714
-19.835
-19.951
-20.062
-20.168
-20.271
-20.37
-20.466
-20.56
-20.653
-20.745
-20.838
-20.931
-21.027
-21.126
-21.23
-21.34
-21.456
-21.58
-21.712
-21.852
-22.002
-22.162
-22.334
-22.516
-22.711
-22.918
-23.14
-23.375
-23.622
-23.883
-24.155
-24.437
-24.729
-25.028
-25.33
-25.635
-25.94
-26.243
-26.542
-26.833
-27.114
-27.38
-27.63
-27.858
-28.061
-28.233
-28.37
-28.468
-28.524
-28.535
-28.5
-28.415
-28.278
-28.087
-27.84
-27.537
-27.175
-26.752
-26.268
-25.722
-25.118
-24.455
-23.739
-22.972
-22.159
-21.309
-20.426
-19.518
-18.588
-17.644
-16.688
-15.727
-14.765
-13.806
-12.854
-11.915
-10.999
-10.115
-9.273
-8.48
-7.741
-7.064
-6.453
-5.913
-5.445
-5.044
-4.708
-4.442
-4.253
-4.159
-4.166
-4.27
-4.466
-4.75
-5.107
-5.517
-5.941
-6.32
-6.608
-6.781
-6.829
-6.756
-6.56
-6.225
-5.732
-5.077
-4.267
-3.312
-2.216
-0.969
0.402
1.822
3.155
4.223
4.88
5.036
4.633
3.62
1.956
-0.395
-3.429
-7.05
-11.159
-15.69
-20.614
-25.94
-31.575
-37.275
-42.677
-47.368
-50.966
-53.198
-53.74
-52.142
-48.201
-41.98
-33.84
-24.609
-14.984
-5.238
4.219
12.807
20.549
27.871
35.773
46.202
60.539
79.145
102.5
130.923
163.243
197.118
228.812
253.083
265.55
263.197
242.784
201.317
138.17
55.11
-43.597
-151.456
-262.261
-370.736
-470.619
-554.694
-617.631
-656.593
-671.411
-664.422
-638.319
-595.247
-538.836
-475.083
-409.71
-347.37
-290.919
-241.097
-198.405
-164.11
-138.713
-120.6
-107.353
-96.252
-85.574
-75.214
-65.164
-54.776
-43.278
-30.693
-17.931
-6.608
2.2
8.46
12.41
14.279
14.028
11.635
7.615
2.97
-1.453
-5.155
-7.902
-9.708
-10.477
-10.042
-8.399
-5.669
-2.03
2.305
7.193
12.56
18.286
24.245
30.284
36.193
41.821
47.055
51.802
56.033
59.732
62.871
65.458
67.526
69.116
70.305
71.163
71.737
72.088
72.281
72.394
72.527
72.756
73.133
73.697
74.472
75.478
76.736
78.255
80.027
82.046
84.305
86.799
89.53
92.494
95.678
99.068
102.644
106.389
110.291
114.334
118.503
122.78
127.15
131.596
136.104
140.657
145.233
149.808
154.356
158.854
163.275
167.594
171.783
175.817
179.671
183.321
186.747
189.926
192.838
195.463
197.783
199.782
201.445
202.759
203.712
204.294
204.498
204.318
203.752
202.798
201.455
199.725
197.613
195.125
192.268
189.053
185.49
181.592
177.375
172.856
168.053
162.984
157.672
152.137
146.403
140.493
134.429
128.238
121.941
115.564
109.131
102.665
96.189
89.728
83.303
76.935
70.647
64.457
58.385
52.449
46.665
41.049
35.615
30.376
25.343
20.528
15.937
11.58
7.46
3.584
-0.048
-3.433
-6.571
-9.465
-12.117
-14.531
-16.713
-18.669
-20.407
-21.934
-23.261
-24.395
-25.349
-26.133
-26.759
-27.236
-27.579
-27.797
-27.904
-27.911
-27.829
-27.669
-27.444
-27.164
-26.839
-26.479
-26.094
-25.692
-25.282
-24.87
-24.465
-24.072
-23.696
-23.342
-23.015
-22.717
-22.451
-22.219
-22.023
-21.862
-21.737
-21.648
-21.593
-21.571
-21.58
-21.619
-21.684
-21.773
-21.884
-22.014
-22.159
-22.317
-22.484
-22.658
-22.835
-23.013
-23.19
-23.362
-23.527
-23.684
-23.83
-23.964
-24.085
-24.191
-24.282
-24.357
-24.417
-24.461
-24.49
-24.505
-24.507
-24.497
-24.477
-24.449
-24.415
-24.377
-24.336
-24.295
-24.256
-24.222
-24.195
-24.177
-24.171
-24.179
-24.204
-24.247
-24.311
-24.398
-24.509
-24.645
-24.809
-25.002
-25.225
-25.478
-25.764
-26.082
-26.433
-26.817
-27.233
-27.681
-28.159
-28.666
-29.2
-29.759
-30.341
-30.942
-31.561
-32.196
-32.843
-33.499
-34.16
-34.823
-35.484
-36.138
-36.782
-37.41
-38.018
-38.601
-39.156
-39.678
-40.163
-40.607
-41.005
-41.354
-41.648
-41.884
-42.057
-42.161
-42.193
-42.15
-42.029
-41.83
-41.55
-41.191
-40.751
-40.23
-39.631
-38.955
-38.203
-37.377
-36.479
-35.512
-34.483
-33.396
-32.258
-31.076
-29.857
-28.613
-27.352
-26.083
-24.812
-23.549
-22.3
-21.073
-19.874
-18.709
-17.584
-16.508
-15.49
-14.541
-13.671
-12.888
-12.196
-11.603
-11.112
-10.727
-10.448
-10.268
-10.185
-10.199
-10.319
-10.556
-10.915
-11.388
-11.967
-12.645
-13.405
-14.226
-15.069
-15.874
-16.596
-17.209
-17.702
-18.075
-18.323
-18.427
-18.361
-18.117
-17.699
-17.116
-16.368
-15.445
-14.369
-13.207
-12.086
-11.178
-10.618
-10.496
-10.863
-11.769
-13.259
-15.379
-18.135
-21.444
-25.211
-29.371
-33.897
-38.798
-43.995
-49.265
-54.255
-58.568
-61.838
-63.799
-64.144
-62.423
-58.423
-52.183
-44.039
-34.793
-25.151
-15.397
-5.965
2.551
10.195
17.404
25.205
35.596
49.967
68.705
92.351
121.235
154.208
188.973
221.655
246.863
260.342
259.129
240.07
200.309
138.872
57.121
-40.58
-147.689
-258.408
-367.674
-469.735
-557.918
-626.107
-670.593
-691.086
-689.662
-668.475
-629.412
-575.244
-511.027
-443.368
-377.874
-317.617
-263.794
-217.204
-179.134
-150.832
-131.516
-118.128
-107.319
-97.191
-87.205
-77.366
-67.206
-55.561
-42.121
-28.107
-15.374
-5.168
2.173
6.961
9.517
9.652
7.327
3.107
-2.007
-7.041
-11.382
-14.812
-17.315
-18.777
-19.053
-18.099
-16.004
-12.954
-9.128
-4.663
0.363
5.868
11.728
17.792
23.879
29.791
35.371
40.518
45.167
49.29
52.873
55.899
58.381
60.371
61.936
63.149
64.069
64.742
65.223
65.586
65.917
66.31
66.836
67.539
68.451
69.599
71.003
72.68
74.634
76.852
79.324
82.042
85.002
88.204
91.642
95.301
99.163
103.21
107.426
111.796
116.305
120.934
125.664
130.476
135.353
140.28
145.235
150.194
155.133
160.024
164.841
169.558
174.147
178.58
182.831
186.875
190.686
194.244
197.525
200.508
203.173
205.502
207.479
209.089
210.319
211.157
211.594
211.623
211.24
210.441
209.225
207.594
205.551
203.102
200.254
197.017
193.403
189.425
185.097
180.438
175.466
170.201
164.664
158.878
152.867
146.654
140.265
133.726
127.061
120.298
113.46
106.576
99.669
92.765
85.889
79.064
72.314
65.662
59.128
52.733
46.495
40.432
34.562
28.897
23.452
18.239
13.268
8.547
4.084
-0.116
-4.049
-7.712
-11.104
-14.227
-17.081
-19.67
-22
-24.075
-25.902
-27.491
-28.848
-29.985
-30.912
-31.64
-32.181
-32.548
-32.753
-32.809
-32.729
-32.526
-32.214
-31.806
-31.313
-30.749
-30.126
-29.455
-28.748
-28.015
-27.266
-26.51
-25.756
-25.013
-24.287
-23.585
-22.914
-22.277
-21.681
-21.127
-20.621
-20.164
-19.758
-19.404
-19.102
-18.854
-18.657
-18.511
-18.415
-18.367
-18.364
-18.403
-18.483
-18.6
-18.75
-18.931
-19.139
-19.371
-19.623
-19.891
-20.174
-20.466
-20.766
-21.069
-21.374
-21.678
-21.977
-22.27
-22.555
-22.828
-23.09
-23.337
-23.568
-23.783
-23.981
-24.16
-24.32
-24.461
-24.583
-24.685
-24.768
-24.833
-24.878
-24.906
-24.916
-24.911
-24.889
-24.854
-24.805
-24.744
-24.673
-24.592
-24.502
-24.406
-24.304
-24.198
-24.089
-23.979
-23.87
-23.763
-23.66
-23.564
-23.474
-23.394
-23.325
-23.267
-23.224
-23.195
-23.183
-23.189
-23.215
-23.261
-23.33
-23.423
-23.541
-23.684
-23.853
-24.049
-24.272
-24.523
-24.801
-25.106
-25.438
-25.797
-26.183
-26.594
-27.029
-27.487
-27.965
-28.46
-28.97
-29.492
-30.021
-30.554
-31.088
-31.618
-32.142
-32.655
-33.153
-33.632
-34.088
-34.515
-34.908
-35.264
-35.574
-35.836
-36.044
-36.196
-36.287
-36.314
-36.274
-36.164
-35.983
-35.728
-35.397
-34.99
-34.504
-33.939
-33.298
-32.583
-31.797
-30.945
-30.031
-29.065
-28.053
-27.003
-25.921
-24.815
-23.689
-22.55
-21.405
-20.257
-19.11
-17.973
-16.853
-15.761
-14.708
-13.702
-12.75
-11.86
-11.04
-10.298
-9.636
-9.053
-8.548
-8.125
-7.796
-7.576
-7.473
-7.482
-7.597
-7.81
-8.112
-8.485
-8.895
-9.291
-9.62
-9.846
-9.961
-9.967
-9.856
-9.614
-9.212
-8.631
-7.894
-7.028
-6.048
-4.962
-3.783
-2.563
-1.423
-0.529
-0.024
-0.018
-0.564
-1.696
-3.481
-5.967
-9.189
-13.118
-17.613
-22.552
-27.868
-33.513
-39.449
-45.524
-51.407
-56.71
-61.068
-64.15
-65.728
-65.495
-62.978
-57.985
-50.609
-41.264
-30.841
-20.071
-9.236
1.202
10.602
18.932
26.561
34.548
44.951
59.256
77.924
101.452
130.14
162.744
196.788
228.43
252.337
263.975
260.223
237.782
193.573
127.19
40.775
-61.364
-172.633
-286.737
-398.462
-501.125
-586.961
-650.748
-689.849
-703.845
-695.098
-665.991
-618.144
-555.995
-486.461
-415.374
-347.604
-286.409
-232.614
-187.499
-153.277
-129.649
-114.149
-104.149
-96.478
-89.211
-82.241
-74.798
-65.405
-53.791
-40.517
-26.72
-14.464
-4.82
2.319
6.837
8.609
7.807
4.621
-0.269
-5.575
-10.474
-14.592
-17.642
-19.601
-20.423
-19.947
-18.207
-15.403
-11.7
-7.279
-2.272
3.271
9.23
15.45
21.76
27.936
33.806
39.266
44.237
48.689
52.609
55.973
58.788
61.101
62.964
64.446
65.61
66.496
67.163
67.685
68.145
68.647
69.269
70.058
71.053
72.277
73.75
75.49
77.501
79.771
82.291
85.053
88.053
91.294
94.769
98.465
102.363
106.445
110.692
115.091
119.624
124.273
129.02
133.846
138.734
143.67
148.633
153.6
158.546
163.445
168.269
172.994
177.591
182.034
186.294
190.349
194.173
197.745
201.043
204.048
206.739
209.1
211.115
212.77
214.053
214.953
215.461
215.572
215.279
214.583
213.481
211.976
210.07
207.771
205.085
202.022
198.594
194.814
190.698
186.261
181.523
176.503
171.223
165.704
159.969
154.043
147.95
141.714
135.36
128.912
122.395
115.832
109.247
102.663
96.101
89.585
83.134
76.769
70.508
64.369
58.37
52.525
46.849
41.354
36.053
30.954
26.068
21.4
16.957
12.744
8.762
5.013
1.499
-1.784
-4.836
-7.662
-10.266
-12.654
-14.832
-16.808
-18.589
-20.185
-21.602
-22.852
-23.943
-24.885
-25.687
-26.359
-26.911
-27.352
-27.693
-27.942
-28.108
-28.2
-28.227
-28.196
-28.115
-27.991
-27.83
-27.639
-27.423
-27.187
-26.935
-26.672
-26.401
-26.124
-25.845
-25.564
-25.285
-25.007
-24.732
-24.46
-24.192
-23.927
-23.666
-23.409
-23.155
-22.905
-22.659
-22.415
-22.175
-21.938
-21.704
-21.473
-21.245
-21.02
-20.798
-20.581
-20.367
-20.159
-19.955
-19.759
-19.569
-19.388
-19.216
-19.054
-18.904
-18.767
-18.643
-18.535
-18.443
-18.369
-18.314
-18.28
-18.266
-18.274
-18.305
-18.358
-18.435
-18.534
-18.656
-18.801
-18.967
-19.154
-19.362
-19.588
-19.833
-20.094
-20.371
-20.661
-20.962
-21.274
-21.593
-21.919
-22.248
-22.58
-22.912
-23.242
-23.567
-23.887
-24.199
-24.501
-24.79
-25.066
-25.327
-25.57
-25.795
-26.001
-26.186
-26.351
-26.495
-26.618
-26.722
-26.805
-26.87
-26.917
-26.947
-26.961
-26.961
-26.949
-26.927
-26.896
-26.859
-26.818
-26.775
-26.734
-26.695
-26.661
-26.633
-26.614
-26.606
-26.61
-26.628
-26.661
-26.711
-26.78
-26.869
-26.979
-27.11
-27.261
-27.432
-27.621
-27.828
-28.05
-28.283
-28.525
-28.773
-29.024
-29.275
-29.523
-29.762
-29.988
-30.197
-30.385
-30.545
-30.673
-30.762
-30.807
-30.804
-30.751
-30.642
-30.475
-30.245
-29.951
-29.589
-29.159
-28.657
-28.081
-27.429
-26.702
-25.902
-25.03
-24.089
-23.085
-22.023
-20.91
-19.754
-18.564
-17.345
-16.105
-14.849
-13.586
-12.322
-11.063
-9.814
-8.582
-7.379
-6.213
-5.098
-4.04
-3.048
-2.128
-1.289
-0.539
0.119
0.685
1.161
1.543
1.818
1.971
1.995
1.891
1.668
1.333
0.895
0.371
-0.205
-0.781
-1.301
-1.729
-2.053
-2.273
-2.378
-2.353
-2.167
-1.8
-1.271
-0.598
0.206
1.137
2.186
3.299
4.355
5.19
5.649
5.619
5.042
3.874
2.049
-0.485
-3.754
-7.712
-12.234
-17.211
-22.601
-28.394
-34.528
-40.811
-46.907
-52.408
-56.928
-60.174
-61.807
-61.375
-58.6
-53.455
-46.206
-37.56
-28.233
-18.572
-9.027
-0.199
7.943
15.843
24.533
35.973
51.578
71.799
97.203
128.182
163.643
201.347
237.394
266.258
283.595
286.34
271.241
235.298
177.251
98.097
1.934
-104.759
-216.183
-327.255
-432.371
-524.956
-598.726
-649.693
-676.97
-682.058
-666.981
-633.527
-583.867
-522.627
-456.032
-389.294
-326.297
-269.199
-218.929
-176.991
-145.26
-123.266
-108.698
-99.071
-91.558
-84.618
-78.072
-71.032
-62.059
-50.874
-38.015
-24.602
-12.593
-2.965
4.367
9.249
11.516
11.294
8.763
4.591
0.017
-4.173
-7.628
-10.083
-11.523
-11.914
-11.114
-9.166
-6.268
-2.584
1.716
6.508
11.755
17.357
23.172
29.043
34.758
40.155
45.139
49.639
53.634
57.117
60.068
62.501
64.465
66.016
67.226
68.154
68.84
69.338
69.718
70.063
70.47
71.015
71.745
72.696
73.893
75.354
77.097
79.128
81.432
84
86.824
89.899
93.225
96.797
100.599
104.611
108.815
113.19
117.721
122.389
127.173
132.054
137.011
142.024
147.076
152.147
157.21
162.239
167.208
172.088
176.853
181.476
185.927
190.18
194.21
197.993
201.506
204.729
207.64
210.22
212.453
214.323
215.816
216.921
217.627
217.925
217.812
217.282
216.335
214.971
213.193
211.004
208.413
205.428
202.059
198.319
194.223
189.785
185.025
179.96
174.612
169.002
163.151
157.084
150.825
144.398
137.828
131.139
124.357
117.506
110.61
103.695
96.782
89.897
83.06
76.293
69.618
63.055
56.62
50.334
44.21
38.265
32.512
26.964
21.631
16.522
11.645
7.008
2.614
-1.532
-5.428
-9.073
-12.469
-15.616
-18.517
-21.177
-23.599
-25.791
-27.759
-29.511
-31.055
-32.4
-33.555
-34.531
-35.338
-35.987
-36.488
-36.853
-37.092
-37.217
-37.238
-37.167
-37.013
-36.786
-36.498
-36.156
-35.77
-35.348
-34.898
-34.427
-33.943
-33.451
-32.956
-32.465
-31.981
-31.509
-31.053
-30.614
-30.196
-29.8
-29.428
-29.081
-28.76
-28.465
-28.195
-27.951
-27.732
-27.537
-27.365
-27.214
-27.084
-26.972
-26.878
-26.8
-26.735
-26.683
-26.642
-26.611
-26.589
-26.574
-26.566
-26.563
-26.565
-26.571
-26.58
-26.593
-26.609
-26.627
-26.648
-26.671
-26.697
-26.726
-26.758
-26.793
-26.832
-26.875
-26.922
-26.975
-27.032
-27.096
-27.165
-27.242
-27.325
-27.415
-27.513
-27.619
-27.732
-27.853
-27.982
-28.117
-28.26
-28.408
-28.562
-28.721
-28.884
-29.05
-29.218
-29.386
-29.555
-29.723
-29.888
-30.051
-30.209
-30.363
-30.511
-30.652
-30.786
-30.911
-31.028
-31.135
-31.233
-31.321
-31.399
-31.466
-31.524
-31.573
-31.613
-31.644
-31.669
-31.686
-31.697
-31.704
-31.708
-31.711
-31.714
-31.718
-31.727
-31.743
-31.766
-31.801
-31.848
-31.908
-31.983
-32.076
-32.186
-32.315
-32.464
-32.633
-32.823
-33.035
-33.269
-33.525
-33.801
-34.096
-34.41
-34.739
-35.083
-35.436
-35.798
-36.163
-36.53
-36.896
-37.256
-37.607
-37.944
-38.263
-38.559
-38.827
-39.06
-39.253
-39.401
-39.497
-39.537
-39.519
-39.439
-39.294
-39.079
-38.794
-38.436
-38.003
-37.496
-36.91
-36.246
-35.506
-34.691
-33.804
-32.851
-31.834
-30.76
-29.638
-28.475
-27.277
-26.052
-24.806
-23.544
-22.274
-21.002
-19.732
-18.471
-17.226
-16.009
-14.829
-13.697
-12.623
-11.613
-10.675
-9.816
-9.041
-8.351
-7.743
-7.216
-6.774
-6.427
-6.189
-6.068
-6.06
-6.159
-6.361
-6.652
-7.01
-7.398
-7.755
-8.037
-8.218
-8.288
-8.248
-8.098
-7.819
-7.391
-6.812
-6.085
-5.221
-4.222
-3.076
-1.81
-0.497
0.729
1.693
2.249
2.308
1.814
0.713
-1.033
-3.463
-6.57
-10.258
-14.428
-19.013
-23.988
-29.362
-35.042
-40.784
-46.223
-50.945
-54.569
-56.827
-57.396
-55.822
-51.91
-45.726
-37.642
-28.492
-18.965
-9.307
0.094
8.686
16.512
23.997
32.136
42.852
57.467
76.262
99.623
127.764
159.455
192.357
222.791
245.628
256.637
252.967
231.57
189.652
126.713
44.553
-52.646
-158.587
-267.278
-373.658
-471.706
-554.434
-616.677
-655.684
-671.244
-665.524
-641.027
-599.714
-545.033
-482.84
-418.752
-357.341
-301.43
-251.811
-209.063
-174.532
-148.79
-130.25
-116.482
-104.778
-93.467
-82.456
-71.75
-60.716
-48.551
-35.298
-21.907
-9.997
-0.662
6.038
10.354
12.512
12.439
10.112
6.03
1.157
-3.612
-7.733
-10.953
-13.241
-14.495
-14.546
-13.365
-11.047
-7.766
-3.718
0.947
6.143
11.772
17.723
23.862
30.01
35.98
41.617
46.82
51.531
55.728
59.384
62.481
65.03
67.079
68.7
69.97
70.946
71.673
72.204
72.61
72.976
73.393
73.927
74.622
75.51
76.613
77.955
79.555
81.418
83.533
85.889
88.481
91.305
94.365
97.654
101.157
104.859
108.743
112.794
117.002
121.35
125.822
130.4
135.069
139.811
144.611
149.452
154.308
159.157
163.972
168.727
173.398
177.956
182.374
186.624
190.683
194.524
198.125
201.464
204.516
207.263
209.684
211.763
213.482
214.828
215.787
216.349
216.505
216.249
215.578
214.487
212.977
211.05
208.709
205.961
202.815
199.279
195.367
191.092
186.471
181.522
176.263
170.716
164.904
158.848
152.576
146.111
139.479
132.708
125.823
118.852
111.82
104.756
97.685
90.632
83.624
76.685
69.838
63.106
56.512
50.074
43.812
37.744
31.886
26.252
20.856
15.708
10.819
6.197
1.847
-2.225
-6.016
-9.526
-12.754
-15.702
-18.374
-20.774
-22.91
-24.788
-26.417
-27.807
-28.969
-29.915
-30.656
-31.206
-31.578
-31.787
-31.845
-31.768
-31.57
-31.264
-30.865
-30.386
-29.842
-29.243
-28.604
-27.935
-27.249
-26.554
-25.862
-25.18
-24.518
-23.883
-23.281
-22.717
-22.198
-21.726
-21.305
-20.938
-20.625
-20.369
-20.168
-20.022
-19.93
-19.89
-19.9
-19.957
-20.058
-20.198
-20.376
-20.585
-20.822
-21.084
-21.365
-21.662
-21.97
-22.285
-22.603
-22.921
-23.236
-23.542
-23.839
-24.123
-24.391
-24.641
-24.871
-25.081
-25.267
-25.431
-25.57
-25.686
-25.777
-25.844
-25.889
-25.911
-25.913
-25.895
-25.86
-25.809
-25.745
-25.669
-25.584
-25.492
-25.396
-25.297
-25.199
-25.102
-25.009
-24.923
-24.844
-24.775
-24.717
-24.671
-24.638
-24.62
-24.618
-24.631
-24.661
-24.708
-24.771
-24.851
-24.948
-25.06
-25.188
-25.33
-25.486
-25.655
-25.834
-26.024
-26.222
-26.427
-26.638
-26.853
-27.07
-27.287
-27.503
-27.716
-27.926
-28.131
-28.33
-28.522
-28.707
-28.885
-29.055
-29.217
-29.371
-29.517
-29.656
-29.789
-29.915
-30.036
-30.153
-30.267
-30.38
-30.493
-30.608
-30.726
-30.848
-30.975
-31.109
-31.25
-31.401
-31.561
-31.733
-31.916
-32.113
-32.324
-32.55
-32.79
-33.043
-33.309
-33.586
-33.873
-34.166
-34.463
-34.761
-35.057
-35.348
-35.631
-35.902
-36.156
-36.389
-36.598
-36.776
-36.919
-37.02
-37.075
-37.078
-37.025
-36.912
-36.736
-36.494
-36.182
-35.796
-35.336
-34.799
-34.184
-33.488
-32.709
-31.849
-30.909
-29.891
-28.8
-27.64
-26.417
-25.139
-23.814
-22.452
-21.058
-19.641
-18.207
-16.764
-15.319
-13.879
-12.449
-11.038
-9.656
-8.316
-7.028
-5.804
-4.65
-3.575
-2.589
-1.699
-0.91
-0.221
0.367
0.852
1.22
1.455
1.548
1.501
1.323
1.02
0.604
0.093
-0.479
-1.056
-1.584
-2.022
-2.362
-2.601
-2.733
-2.742
-2.6
-2.288
-1.822
-1.224
-0.505
0.326
1.258
2.234
3.131
3.784
4.036
3.773
2.94
1.498
-0.607
-3.416
-6.941
-11.131
-15.855
-20.993
-26.494
-32.333
-38.436
-44.609
-50.52
-55.761
-59.953
-62.804
-63.982
-63.067
-59.811
-54.202
-46.516
-37.432
-27.641
-17.505
-7.477
1.854
10.475
18.77
27.672
38.951
53.902
72.934
96.547
125.129
157.703
192.237
225.221
251.594
267.297
269.433
254.869
220.721
165.874
91.263
0.608
-99.968
-204.893
-309.014
-406.333
-490.372
-555.495
-598.305
-618.457
-618.001
-599.317
-565.181
-519.439
-467.187
-413.991
-363.896
-318.92
-279.656
-246.074
-217.892
-194.456
-174.175
-154.833
-135.091
-114.557
-93.462
-72.563
-52.499
-33.738
-17.031
-3.209
7.332
14.531
18.646
20.244
19.814
17.8
14.719
11.005
7.038
3.176
-0.33
-3.262
-5.42
-6.698
-7.025
-6.349
-4.679
-2.046
1.485
5.77
10.662
16.016
21.669
27.493
33.35
39.064
44.503
49.552
54.126
58.196
61.746
64.76
67.25
69.255
70.82
72.022
72.932
73.605
74.107
74.507
74.877
75.307
75.863
76.593
77.537
78.72
80.162
81.883
83.889
86.171
88.725
91.543
94.617
97.947
101.525
105.337
109.368
113.597
118.006
122.582
127.308
132.165
137.133
142.194
147.33
152.522
157.751
162.992
168.218
173.402
178.516
183.533
188.424
193.161
197.714
202.057
206.164
210.012
213.577
216.835
219.767
222.352
224.572
226.412
227.859
228.897
229.519
229.715
229.48
228.81
227.703
226.16
224.182
221.775
218.944
215.699
212.05
208.01
203.593
198.817
193.699
188.261
182.522
176.507
170.239
163.743
157.046
150.173
143.152
136.009
128.771
121.466
114.119
106.758
99.408
92.095
84.842
77.675
70.615
63.684
56.903
50.291
43.866
37.645
31.641
25.87
20.343
15.07
10.059
5.319
0.854
-3.332
-7.238
-10.863
-14.208
-17.277
-20.072
-22.601
-24.869
-26.885
-28.658
-30.197
-31.513
-32.618
-33.523
-34.241
-34.786
-35.169
-35.405
-35.506
-35.486
-35.358
-35.135
-34.83
-34.455
-34.022
-33.542
-33.027
-32.487
-31.93
-31.367
-30.804
-30.25
-29.71
-29.191
-28.697
-28.233
-27.801
-27.404
-27.043
-26.72
-26.436
-26.189
-25.98
-25.806
-25.667
-25.561
-25.484
-25.435
-25.411
-25.409
-25.426
-25.459
-25.505
-25.56
-25.622
-25.688
-25.756
-25.822
-25.885
-25.942
-25.991
-26.031
-26.061
-26.08
-26.086
-26.081
-26.062
-26.032
-25.99
-25.937
-25.874
-25.803
-25.724
-25.64
-25.553
-25.463
-25.374
-25.287
-25.204
-25.127
-25.059
-25
-24.954
-24.921
-24.904
-24.904
-24.923
-24.962
-25.021
-25.102
-25.206
-25.332
-25.482
-25.655
-25.851
-26.071
-26.313
-26.578
-26.865
-27.172
-27.5
-27.848
-28.214
-28.598
-28.998
-29.413
-29.841
-30.283
-30.736
-31.199
-31.672
-32.153
-32.641
-33.136
-33.636
-34.139
-34.645
-35.152
-35.659
-36.165
-36.668
-37.169
-37.665
-38.156
-38.642
-39.122
-39.594
-40.057
-40.51
-40.951
-41.378
-41.79
-42.183
-42.555
-42.906
-43.232
-43.531
-43.802
-44.041
-44.246
-44.413
-44.541
-44.625
-44.662
-44.648
-44.58
-44.457
-44.276
-44.037
-43.737
-43.376
-42.952
-42.465
-41.915
-41.301
-40.623
-39.881
-39.075
-38.207
-37.282
-36.302
-35.271
-34.196
-33.083
-31.939
-30.773
-29.589
-28.394
-27.193
-25.992
-24.798
-23.614
-22.445
-21.297
-20.179
-19.101
-18.071
-17.098
-16.187
-15.346
-14.582
-13.901
-13.305
-12.793
-12.362
-12.017
-11.766
-11.624
-11.599
-11.689
-11.887
-12.184
-12.573
-13.035
-13.536
-14.025
-14.446
-14.763
-14.965
-15.051
-15.014
-14.841
-14.507
-13.997
-13.329
-12.524
-11.595
-10.546
-9.395
-8.197
-7.076
-6.196
-5.715
-5.746
-6.352
-7.579
-9.48
-12.099
-15.446
-19.463
-24.024
-29.016
-34.393
-40.141
-46.182
-52.317
-58.215
-63.464
-67.689
-70.6
-71.861
-71.048
-67.926
-62.501
-55.071
-46.345
-36.996
-27.349
-17.804
-8.883
-0.566
7.556
16.42
27.757
42.832
61.983
85.566
113.815
145.606
178.755
209.848
234.049
247.283
246.752
229.47
192.671
135.829
60.488
-29.66
-128.667
-230.731
-330.741
-422.564
-499.539
-557.177
-593.251
-607.675
-602.749
-581.296
-546.149
-501.722
-453.677
-406.337
-362.533
-323.869
-290.369
-261.687
-237.541
-216.623
-196.747
-176.507
-155.284
-132.987
-110.325
-88.051
-66.665
-46.982
-30.018
-16.291
-5.97
1.026
5.173
6.923
6.635
4.82
2.008
-1.417
-5.092
-8.708
-12.067
-14.911
-17.01
-18.252
-18.547
-17.857
-16.201
-13.606
-10.136
-5.928
-1.124
4.137
9.695
15.425
21.188
26.815
32.174
37.151
41.659
45.666
49.156
52.115
54.559
56.527
58.066
59.251
60.151
60.82
61.325
61.732
62.115
62.561
63.138
63.892
64.866
66.086
67.572
69.345
71.412
73.766
76.403
79.315
82.497
85.949
89.663
93.626
97.822
102.232
106.839
111.627
116.579
121.676
126.897
132.224
137.635
143.113
148.635
154.176
159.708
165.202
170.629
175.959
181.162
186.206
191.062
195.7
200.094
204.215
208.039
211.542
214.698
217.488
219.891
221.891
223.47
224.616
225.317
225.563
225.35
224.671
223.527
221.917
219.844
217.314
214.334
210.914
207.067
202.806
198.148
193.112
187.717
181.988
175.946
169.618
163.03
156.21
149.187
141.99
134.65
127.195
119.656
112.064
104.447
96.835
89.256
81.739
74.31
66.995
59.82
52.806
45.977
39.351
32.948
26.783
20.873
15.23
9.866
4.789
0.007
-4.473
-8.648
-12.516
-16.077
-19.331
-22.283
-24.938
-27.301
-29.38
-31.185
-32.727
-34.016
-35.065
-35.889
-36.499
-36.912
-37.142
-37.205
-37.116
-36.89
-36.543
-36.091
-35.548
-34.928
-34.245
-33.513
-32.743
-31.948
-31.138
-30.324
-29.515
-28.718
-27.943
-27.195
-26.481
-25.805
-25.172
-24.585
-24.046
-23.556
-23.118
-22.73
-22.393
-22.104
-21.864
-21.668
-21.515
-21.401
-21.324
-21.279
-21.263
-21.271
-21.301
-21.348
-21.409
-21.48
-21.557
-21.638
-21.72
-21.801
-21.877
-21.948
-22.011
-22.065
-22.109
-22.141
-22.162
-22.171
-22.167
-22.152
-22.124
-22.085
-22.035
-21.975
-21.907
-21.831
-21.749
-21.662
-21.572
-21.479
-21.387
-21.295
-21.206
-21.121
-21.041
-20.968
-20.903
-20.846
-20.799
-20.761
-20.732
-20.715
-20.707
-20.71
-20.723
-20.746
-20.779
-20.821
-20.873
-20.934
-21.004
-21.081
-21.166
-21.259
-21.359
-21.465
-21.578
-21.698
-21.825
-21.958
-22.098
-22.246
-22.4
-22.561
-22.729
-22.905
-23.09
-23.283
-23.486
-23.699
-23.924
-24.162
-24.413
-24.679
-24.959
-25.255
-25.567
-25.896
-26.24
-26.602
-26.979
-27.373
-27.784
-28.21
-28.651
-29.105
-29.57
-30.045
-30.527
-31.013
-31.5
-31.984
-32.462
-32.93
-33.385
-33.824
-34.242
-34.635
-34.999
-35.329
-35.621
-35.869
-36.068
-36.212
-36.298
-36.32
-36.278
-36.167
-35.984
-35.727
-35.395
-34.986
-34.499
-33.934
-33.288
-32.562
-31.757
-30.877
-29.925
-28.905
-27.821
-26.681
-25.494
-24.268
-23.01
-21.727
-20.426
-19.113
-17.796
-16.482
-15.174
-13.878
-12.602
-11.355
-10.15
-8.994
-7.897
-6.864
-5.905
-5.028
-4.237
-3.536
-2.92
-2.389
-1.949
-1.61
-1.386
-1.283
-1.295
-1.416
-1.643
-1.961
-2.347
-2.761
-3.137
-3.429
-3.615
-3.677
-3.617
-3.427
-3.083
-2.575
-1.911
-1.1
-0.159
0.901
2.087
3.358
4.626
5.762
6.583
6.946
6.771
5.987
4.538
2.39
-0.494
-4.084
-8.241
-12.86
-17.853
-23.156
-28.766
-34.549
-40.228
-45.472
-49.856
-52.994
-54.619
-54.37
-51.828
-46.872
-39.605
-30.462
-20.322
-9.827
0.688
10.711
19.854
28.25
36.426
45.606
57.446
72.878
92.202
115.719
143.175
173.132
202.856
228.262
245.053
249.849
239.994
212.912
166.561
100.977
18.914
-74.736
-174.553
-275.259
-371.713
-458.144
-528.151
-577.511
-605.137
-612.02
-600.227
-572.45
-531.654
-482.161
-429.98
-379.629
-333.499
-292.814
-257.672
-227.795
-203.01
-182.114
-162.677
-143.173
-123.052
-102.271
-81.614
-61.787
-43.141
-26.378
-12.413
-1.687
5.671
9.843
11.432
10.96
8.87
5.703
1.905
-2.145
-6.072
-9.623
-12.588
-14.769
-16.057
-16.38
-15.677
-13.954
-11.241
-7.602
-3.183
1.865
7.39
13.218
19.217
25.246
31.128
36.728
41.933
46.654
50.86
54.533
57.651
60.224
62.284
63.872
65.063
65.925
66.512
66.891
67.13
67.301
67.492
67.772
68.187
68.776
69.565
70.573
71.822
73.318
75.055
77.03
79.236
81.668
84.329
87.213
90.309
93.602
97.077
100.717
104.511
108.446
112.506
116.676
120.94
125.283
129.691
134.148
138.632
143.12
147.589
152.013
156.369
160.631
164.772
168.767
172.591
176.222
179.638
182.817
185.74
188.386
190.737
192.779
194.495
195.872
196.9
197.567
197.867
197.793
197.342
196.513
195.303
193.715
191.752
189.42
186.726
183.678
180.288
176.568
172.532
168.197
163.581
158.701
153.579
148.235
142.692
136.974
131.103
125.103
118.999
112.813
106.569
100.292
94.005
87.729
81.488
75.303
69.195
63.183
57.286
51.522
45.908
40.459
35.189
30.111
25.237
20.577
16.14
11.933
7.962
4.231
0.744
-2.499
-5.497
-8.253
-10.768
-13.047
-15.096
-16.92
-18.528
-19.927
-21.127
-22.138
-22.969
-23.632
-24.138
-24.499
-24.726
-24.831
-24.825
-24.722
-24.532
-24.266
-23.936
-23.553
-23.127
-22.668
-22.185
-21.688
-21.185
-20.683
-20.191
-19.715
-19.259
-18.83
-18.432
-18.068
-17.742
-17.455
-17.209
-17.005
-16.844
-16.725
-16.648
-16.612
-16.616
-16.656
-16.733
-16.843
-16.983
-17.153
-17.347
-17.565
-17.803
-18.058
-18.328
-18.609
-18.9
-19.198
-19.5
-19.803
-20.106
-20.407
-20.703
-20.994
-21.276
-21.55
-21.814
-22.067
-22.31
-22.54
-22.759
-22.967
-23.163
-23.348
-23.523
-23.688
-23.844
-23.992
-24.132
-24.264
-24.391
-24.513
-24.63
-24.743
-24.853
-24.961
-25.067
-25.172
-25.276
-25.379
-25.483
-25.588
-25.693
-25.801
-25.911
-26.023
-26.138
-26.256
-26.377
-26.502
-26.629
-26.759
-26.893
-27.028
-27.167
-27.307
-27.45
-27.595
-27.741
-27.89
-28.041
-28.194
-28.349
-28.506
-28.665
-28.827
-28.992
-29.16
-29.332
-29.508
-29.689
-29.876
-30.069
-30.267
-30.471
-30.681
-30.896
-31.115
-31.34
-31.568
-31.801
-32.036
-32.275
-32.517
-32.761
-33.006
-33.25
-33.492
-33.73
-33.962
-34.186
-34.4
-34.6
-34.785
-34.953
-35.1
-35.225
-35.324
-35.393
-35.43
-35.431
-35.392
-35.31
-35.18
-34.999
-34.766
-34.479
-34.137
-33.738
-33.28
-32.764
-32.189
-31.555
-30.862
-30.109
-29.297
-28.428
-27.504
-26.529
-25.509
-24.447
-23.35
-22.227
-21.083
-19.927
-18.763
-17.597
-16.435
-15.282
-14.142
-13.021
-11.923
-10.856
-9.829
-8.851
-7.932
-7.078
-6.295
-5.587
-4.963
-4.425
-3.971
-3.601
-3.315
-3.119
-3.031
-3.059
-3.2
-3.45
-3.796
-4.227
-4.731
-5.277
-5.815
-6.298
-6.676
-6.921
-7.041
-7.023
-6.855
-6.516
-5.968
-5.215
-4.3
-3.241
-2.056
-0.77
0.589
1.918
3.04
3.8
4.051
3.694
2.699
1.001
-1.47
-4.749
-8.847
-13.671
-19.05
-24.881
-31.117
-37.697
-44.51
-51.262
-57.506
-62.832
-66.853
-69.276
-69.802
-67.957
-63.504
-56.52
-47.383
-36.94
-25.976
-14.792
-3.798
6.376
15.774
24.831
34.528
46.864
63.227
83.887
109.243
139.486
173.247
208.037
239.984
263.736
274.96
270.764
248.05
204.044
138.36
53.007
-47.517
-156.609
-268.059
-376.64
-476.202
-559.664
-621.835
-660.066
-674.35
-667.081
-640.984
-598.184
-542.226
-479.054
-414.33
-352.621
-296.719
-247.338
-204.967
-170.906
-145.728
-127.86
-114.898
-104.126
-93.822
-83.881
-74.287
-64.361
-53.273
-41.01
-28.48
-17.319
-8.618
-2.417
1.52
3.415
3.21
0.864
-3.103
-7.68
-12.011
-15.594
-18.199
-19.844
-20.436
-19.805
-17.952
-14.997
-11.125
-6.551
-1.418
4.199
10.177
16.391
22.682
28.841
34.714
40.186
45.165
49.619
53.529
56.869
59.642
61.88
63.622
64.944
65.913
66.576
66.995
67.234
67.373
67.511
67.726
68.07
68.585
69.296
70.222
71.388
72.803
74.462
76.362
78.498
80.866
83.472
86.313
89.38
92.66
96.134
99.79
103.615
107.598
111.725
115.982
120.352
124.823
129.383
134.015
138.699
143.411
148.128
152.824
157.475
162.053
166.532
170.885
175.085
179.108
182.93
186.529
189.88
192.962
195.755
198.24
200.399
202.218
203.681
204.776
205.492
205.823
205.762
205.306
204.45
203.195
201.542
199.495
197.059
194.242
191.052
187.5
183.6
179.366
174.816
169.968
164.841
159.456
153.836
148.005
141.987
135.805
129.486
123.053
116.534
109.953
103.336
96.707
90.092
83.513
76.994
70.558
64.227
58.019
51.954
46.051
40.325
34.793
29.468
24.363
19.49
14.857
10.475
6.348
2.482
-1.118
-4.452
-7.52
-10.321
-12.86
-15.14
-17.168
-18.949
-20.492
-21.806
-22.901
-23.789
-24.479
-24.986
-25.322
-25.5
-25.533
-25.436
-25.221
-24.902
-24.494
-24.008
-23.457
-22.856
-22.214
-21.545
-20.86
-20.168
-19.48
-18.806
-18.153
-17.53
-16.943
-16.399
-15.903
-15.46
-15.072
-14.742
-14.473
-14.266
-14.119
-14.034
-14.009
-14.042
-14.13
-14.271
-14.461
-14.696
-14.972
-15.285
-15.631
-16.003
-16.399
-16.813
-17.24
-17.676
-18.117
-18.557
-18.994
-19.422
-19.839
-20.24
-20.624
-20.986
-21.325
-21.639
-21.925
-22.184
-22.414
-22.614
-22.786
-22.928
-23.042
-23.129
-23.191
-23.228
-23.243
-23.239
-23.216
-23.179
-23.13
-23.07
-23.004
-22.933
-22.861
-22.79
-22.722
-22.66
-22.606
-22.561
-22.529
-22.51
-22.506
-22.518
-22.548
-22.596
-22.662
-22.748
-22.852
-22.974
-23.115
-23.272
-23.446
-23.636
-23.839
-24.056
-24.284
-24.523
-24.772
-25.027
-25.289
-25.556
-25.825
-26.097
-26.369
-26.641
-26.911
-27.179
-27.445
-27.708
-27.967
-28.224
-28.477
-28.726
-28.971
-29.213
-29.452
-29.687
-29.92
-30.152
-30.382
-30.612
-30.844
-31.077
-31.312
-31.549
-31.788
-32.029
-32.27
-32.512
-32.752
-32.989
-33.223
-33.451
-33.674
-33.887
-34.089
-34.276
-34.446
-34.596
-34.72
-34.815
-34.876
-34.898
-34.88
-34.817
-34.705
-34.543
-34.326
-34.051
-33.716
-33.318
-32.854
-32.322
-31.719
-31.044
-30.299
-29.484
-28.602
-27.657
-26.652
-25.595
-24.49
-23.342
-22.157
-20.94
-19.695
-18.426
-17.139
-15.838
-14.529
-13.22
-11.921
-10.643
-9.395
-8.186
-7.026
-5.92
-4.88
-3.912
-3.015
-2.194
-1.452
-0.798
-0.255
0.169
0.475
0.662
0.741
0.722
0.614
0.447
0.266
0.114
0.039
0.065
0.187
0.412
0.754
1.23
1.877
2.696
3.644
4.7
5.849
7.061
8.312
9.511
10.488
11.097
11.197
10.687
9.539
7.701
5.102
1.709
-2.495
-7.438
-12.956
-18.942
-25.344
-32.104
-39.126
-46.153
-52.764
-58.554
-63.139
-66.216
-67.48
-66.471
-62.926
-56.881
-48.653
-39.008
-28.709
-18.088
-7.593
2.129
11.13
19.861
29.333
41.563
57.954
78.859
104.815
136.148
171.627
208.898
243.959
271.214
286.319
286.275
267.923
228.424
166.781
84.328
-14.541
-123.188
-235.658
-346.779
-450.977
-541.721
-612.961
-661.087
-685.474
-687.805
-670.292
-634.816
-583.615
-521.412
-454.322
-387.362
-324.326
-267.268
-217.064
-175.258
-143.7
-121.862
-107.481
-98.1
-90.903
-84.395
-78.378
-71.897
-63.467
-52.77
-40.307
-27.209
-15.43
-5.929
1.382
6.351
8.776
8.741
6.414
2.458
-1.88
-5.806
-8.983
-11.164
-12.339
-12.472
-11.425
-9.243
-6.135
-2.278
2.157
7.041
12.346
17.976
23.79
29.633
35.293
40.607
45.483
49.855
53.7
57.008
59.76
61.97
63.687
64.97
65.891
66.509
66.864
67.011
67.021
66.978
66.983
67.113
67.416
67.931
68.686
69.702
71.001
72.591
74.462
76.606
79.02
81.7
84.651
87.869
91.342
95.053
98.985
103.121
107.447
111.947
116.602
121.392
126.299
131.305
136.391
141.537
146.717
151.904
157.07
162.186
167.223
172.151
176.94
181.559
185.981
190.178
194.126
197.797
201.17
204.22
206.927
209.273
211.24
212.813
213.978
214.724
215.043
214.929
214.378
213.387
211.958
210.094
207.8
205.083
201.955
198.426
194.511
190.226
185.589
180.62
175.341
169.775
163.946
157.878
151.6
145.137
138.518
131.769
124.919
117.995
111.025
104.036
97.055
90.108
83.22
76.415
69.718
63.149
56.73
50.48
44.417
38.558
32.916
27.506
22.337
17.421
12.764
8.372
4.25
0.4
-3.177
-6.482
-9.516
-12.284
-14.791
-17.043
-19.047
-20.811
-22.347
-23.663
-24.772
-25.684
-26.412
-26.97
-27.37
-27.625
-27.749
-27.755
-27.657
-27.467
-27.199
-26.864
-26.476
-26.044
-25.58
-25.094
-24.595
-24.092
-23.592
-23.102
-22.629
-22.176
-21.749
-21.352
-20.988
-20.658
-20.365
-20.109
-19.892
-19.713
-19.571
-19.466
-19.395
-19.358
-19.352
-19.375
-19.424
-19.497
-19.589
-19.699
-19.824
-19.959
-20.102
-20.25
-20.4
-20.548
-20.693
-20.833
-20.965
-21.087
-21.198
-21.298
-21.386
-21.461
-21.523
-21.572
-21.609
-21.635
-21.649
-21.653
-21.649
-21.636
-21.618
-21.594
-21.567
-21.537
-21.507
-21.478
-21.45
-21.426
-21.408
-21.395
-21.39
-21.395
-21.41
-21.437
-21.478
-21.532
-21.601
-21.686
-21.787
-21.904
-22.037
-22.187
-22.353
-22.535
-22.731
-22.941
-23.165
-23.401
-23.648
-23.905
-24.17
-24.442
-24.721
-25.004
-25.291
-25.581
-25.873
-26.167
-26.462
-26.757
-27.052
-27.346
-27.639
-27.93
-28.22
-28.507
-28.793
-29.076
-29.357
-29.638
-29.917
-30.196
-30.475
-30.753
-31.033
-31.313
-31.596
-31.88
-32.168
-32.459
-32.754
-33.055
-33.362
-33.675
-33.993
-34.317
-34.646
-34.978
-35.311
-35.644
-35.974
-36.299
-36.617
-36.926
-37.223
-37.505
-37.769
-38.011
-38.227
-38.415
-38.569
-38.684
-38.756
-38.781
-38.755
-38.675
-38.539
-38.343
-38.084
-37.759
-37.366
-36.904
-36.369
-35.759
-35.073
-34.311
-33.472
-32.561
-31.578
-30.53
-29.421
-28.257
-27.046
-25.793
-24.505
-23.185
-21.841
-20.475
-19.093
-17.701
-16.303
-14.907
-13.524
-12.166
-10.84
-9.557
-8.324
-7.148
-6.04
-5.004
-4.039
-3.15
-2.337
-1.612
-0.995
-0.497
-0.117
0.146
0.301
0.36
0.33
0.243
0.146
0.086
0.112
0.25
0.491
0.846
1.325
1.948
2.753
3.734
4.848
6.072
7.39
8.773
10.194
11.551
12.663
13.375
13.539
13.052
11.888
9.984
7.269
3.712
-0.706
-5.887
-11.658
-17.911
-24.596
-31.65
-38.96
-46.232
-53.01
-58.879
-63.446
-66.407
-67.458
-66.115
-62.124
-55.558
-46.777
-36.618
-25.878
-14.865
-4.007
6.035
15.294
24.21
33.773
46.036
62.436
83.285
109.063
140.049
174.918
211.184
244.873
270.442
283.366
280.571
258.79
215.063
148.836
62.046
-40.779
-152.91
-267.836
-380.033
-483.291
-570.337
-635.849
-677.189
-693.974
-688.277
-663.023
-620.473
-563.885
-499.218
-431.846
-365.896
-304.99
-250.655
-203.398
-164.748
-135.755
-114.946
-100.651
-90.995
-83.308
-76.583
-70.626
-64.278
-56.429
-47.073
-36.381
-25.243
-15.414
-7.525
-1.547
2.292
3.94
3.49
1.072
-2.643
-6.534
-9.897
-12.373
-13.747
-14.023
-13.154
-11.057
-7.818
-3.659
1.194
6.55
12.273
18.28
24.48
30.727
36.837
42.651
48.041
52.922
57.266
61.06
64.284
66.943
69.071
70.709
71.932
72.814
73.405
73.765
73.959
74.061
74.165
74.352
74.676
75.181
75.891
76.826
78.007
79.445
81.135
83.074
85.256
87.678
90.342
93.247
96.381
99.732
103.281
107.013
110.914
114.971
119.168
123.49
127.918
132.438
137.035
141.691
146.384
151.089
155.782
160.435
165.023
169.52
173.897
178.127
182.185
186.046
189.687
193.085
196.218
199.065
201.605
203.822
205.698
207.22
208.373
209.146
209.531
209.521
209.111
208.299
207.084
205.466
203.45
201.04
198.244
195.071
191.532
187.639
183.408
178.856
173.999
168.859
163.454
157.807
151.942
145.88
139.648
133.268
126.766
120.166
113.493
106.772
100.028
93.285
86.566
79.894
73.293
66.782
60.383
54.115
47.996
42.043
36.271
30.696
25.329
20.183
15.268
10.591
6.16
1.981
-1.943
-5.609
-9.015
-12.164
-15.055
-17.692
-20.079
-22.222
-24.128
-25.803
-27.256
-28.496
-29.534
-30.38
-31.044
-31.539
-31.876
-32.067
-32.125
-32.063
-31.891
-31.624
-31.272
-30.847
-30.362
-29.826
-29.251
-28.647
-28.023
-27.388
-26.751
-26.119
-25.5
-24.9
-24.324
-23.778
-23.266
-22.792
-22.359
-21.969
-21.624
-21.326
-21.074
-20.868
-20.709
-20.596
-20.527
-20.501
-20.516
-20.569
-20.658
-20.781
-20.934
-21.115
-21.32
-21.546
-21.791
-22.05
-22.322
-22.602
-22.889
-23.178
-23.468
-23.755
-24.038
-24.315
-24.582
-24.839
-25.084
-25.316
-25.533
-25.734
-25.919
-26.087
-26.239
-26.373
-26.49
-26.59
-26.673
-26.74
-26.791
-26.827
-26.848
-26.856
-26.85
-26.833
-26.805
-26.768
-26.721
-26.667
-26.606
-26.539
-26.468
-26.394
-26.318
-26.241
-26.163
-26.087
-26.014
-25.943
-25.876
-25.815
-25.759
-25.709
-25.666
-25.63
-25.602
-25.583
-25.573
-25.572
-25.582
-25.603
-25.635
-25.68
-25.738
-25.809
-25.894
-25.993
-26.108
-26.239
-26.387
-26.552
-26.734
-26.936
-27.156
-27.397
-27.656
-27.935
-28.233
-28.551
-28.887
-29.241
-29.613
-30.002
-30.408
-30.83
-31.267
-31.719
-32.182
-32.656
-33.138
-33.625
-34.115
-34.605
-35.09
-35.567
-36.032
-36.484
-36.917
-37.327
-37.71
-38.061
-38.375
-38.648
-38.875
-39.05
-39.169
-39.226
-39.219
-39.145
-39
-38.782
-38.488
-38.117
-37.666
-37.134
-36.521
-35.824
-35.043
-34.18
-33.238
-32.22
-31.129
-29.972
-28.755
-27.486
-26.174
-24.826
-23.447
-22.046
-20.628
-19.202
-17.772
-16.345
-14.928
-13.529
-12.16
-10.832
-9.554
-8.334
-7.179
-6.098
-5.101
-4.193
-3.375
-2.648
-2.016
-1.49
-1.088
-0.819
-0.683
-0.676
-0.786
-1.003
-1.315
-1.691
-2.083
-2.439
-2.71
-2.873
-2.929
-2.866
-2.665
-2.299
-1.737
-0.987
-0.086
0.945
2.086
3.311
4.576
5.766
6.712
7.255
7.252
6.618
5.307
3.254
0.385
-3.331
-7.88
-13.161
-19.017
-25.364
-32.163
-39.315
-46.636
-53.797
-60.36
-65.917
-70.133
-72.624
-72.94
-70.791
-66.086
-59.038
-50.277
-40.465
-30.023
-19.479
-9.489
-0.113
9.034
18.924
31.402
47.84
68.7
94.591
126.048
162.134
200.731
238.036
268.486
287.635
292.373
279.305
245.23
188.695
110.316
13.917
-93.829
-207.001
-320.321
-427.824
-523.038
-599.74
-653.453
-682.998
-690.18
-677.086
-645.978
-599.667
-542.105
-478.942
-415.598
-355.898
-301.615
-253.538
-212.312
-178.855
-153.534
-134.814
-120.302
-107.554
-95.265
-83.357
-71.821
-60.135
-47.499
-33.925
-20.351
-8.318
1.152
7.992
12.452
14.764
14.834
12.635
8.662
3.861
-0.869
-4.97
-8.185
-10.478
-11.749
-11.834
-10.702
-8.444
-5.226
-1.247
3.345
8.466
14.029
19.928
26.031
32.159
38.115
43.743
48.938
53.642
57.835
61.489
64.587
67.14
69.197
70.834
72.126
73.13
73.888
74.452
74.891
75.29
75.744
76.32
77.061
77.999
79.158
80.559
82.222
84.149
86.328
88.746
91.395
94.272
97.377
100.705
104.239
107.962
111.857
115.908
120.103
124.426
128.859
133.385
137.987
142.649
147.358
152.095
156.837
161.56
166.241
170.854
175.374
179.776
184.033
188.118
192.009
195.682
199.114
202.286
205.175
207.762
210.03
211.963
213.546
214.765
215.609
216.068
216.135
215.805
215.073
213.939
212.401
210.463
208.128
205.402
202.293
198.811
194.968
190.775
186.25
181.408
176.269
170.851
165.175
159.264
153.14
146.829
140.353
133.738
127.008
120.188
113.304
106.381
99.443
92.514
85.618
78.779
72.019
65.359
58.82
52.42
46.179
40.113
34.238
28.567
23.114
17.89
12.904
8.166
3.682
-0.543
-4.505
-8.202
-11.632
-14.797
-17.699
-20.341
-22.728
-24.865
-26.76
-28.421
-29.855
-31.074
-32.086
-32.904
-33.538
-34
-34.303
-34.459
-34.48
-34.379
-34.167
-33.858
-33.463
-32.993
-32.461
-31.875
-31.248
-30.588
-29.905
-29.208
-28.505
-27.803
-27.109
-26.429
-25.769
-25.133
-24.526
-23.951
-23.412
-22.911
-22.45
-22.029
-21.651
-21.314
-21.02
-20.768
-20.556
-20.384
-20.251
-20.154
-20.092
-20.063
-20.066
-20.097
-20.155
-20.238
-20.343
-20.469
-20.614
-20.775
-20.95
-21.138
-21.336
-21.543
-21.758
-21.978
-22.203
-22.43
-22.659
-22.888
-23.116
-23.342
-23.565
-23.784
-23.998
-24.207
-24.409
-24.605
-24.794
-24.975
-25.148
-25.313
-25.47
-25.617
-25.755
-25.884
-26.004
-26.114
-26.215
-26.306
-26.389
-26.462
-26.528
-26.585
-26.634
-26.675
-26.71
-26.739
-26.763
-26.783
-26.799
-26.814
-26.829
-26.846
-26.865
-26.889
-26.919
-26.956
-27.003
-27.06
-27.13
-27.215
-27.315
-27.434
-27.572
-27.733
-27.916
-28.124
-28.357
-28.617
-28.903
-29.217
-29.559
-29.928
-30.325
-30.749
-31.2
-31.678
-32.182
-32.709
-33.257
-33.824
-34.406
-35.002
-35.606
-36.214
-36.822
-37.426
-38.023
-38.607
-39.175
-39.72
-40.238
-40.725
-41.173
-41.579
-41.935
-42.236
-42.477
-42.654
-42.763
-42.801
-42.764
-42.65
-42.456
-42.181
-41.824
-41.382
-40.856
-40.244
-39.547
-38.769
-37.912
-36.981
-35.98
-34.917
-33.799
-32.635
-31.432
-30.198
-28.94
-27.665
-26.38
-25.093
-23.809
-22.533
-21.274
-20.041
-18.844
-17.695
-16.601
-15.57
-14.608
-13.725
-12.927
-12.218
-11.595
-11.058
-10.61
-10.263
-10.031
-9.92
-9.928
-10.049
-10.274
-10.595
-10.993
-11.434
-11.868
-12.24
-12.514
-12.677
-12.727
-12.656
-12.45
-12.079
-11.529
-10.815
-9.954
-8.959
-7.833
-6.593
-5.295
-4.059
-3.05
-2.422
-2.292
-2.721
-3.759
-5.459
-7.862
-10.985
-14.773
-19.108
-23.889
-29.066
-34.622
-40.486
-46.457
-52.206
-57.324
-61.418
-64.18
-65.275
-64.264
-60.914
-55.247
-47.565
-38.599
-29.055
-19.269
-9.689
-0.899
7.134
14.868
23.325
34.393
49.457
68.921
93.282
122.907
156.677
192.324
226.171
252.982
268.325
269.098
252
213.978
154.351
74.7
-21.008
-126.354
-234.985
-341.255
-438.526
-519.611
-579.653
-616.281
-629.416
-621.586
-595.985
-555.827
-505.997
-452.699
-400.607
-352.755
-310.876
-274.949
-244.572
-219.416
-197.96
-177.762
-157.298
-135.864
-113.389
-90.687
-68.506
-47.327
-28.01
-11.592
1.378
10.713
16.549
19.434
19.872
18.28
15.181
11.102
6.474
1.691
-2.895
-7.033
-10.485
-13.054
-14.624
-15.119
-14.498
-12.777
-10.011
-6.298
-1.784
3.381
9.055
15.085
21.323
27.609
33.753
39.595
45.028
49.974
54.395
58.273
61.593
64.37
66.651
68.497
69.979
71.159
72.088
72.829
73.451
74.031
74.656
75.394
76.29
77.38
78.689
80.237
82.04
84.102
86.412
88.958
91.735
94.737
97.964
101.41
105.06
108.9
112.912
117.081
121.393
125.833
130.383
135.026
139.745
144.524
149.347
154.197
159.051
163.884
168.673
173.391
178.013
182.514
186.865
191.042
195.019
198.773
202.282
205.524
208.479
211.127
213.45
215.432
217.058
218.314
219.189
219.672
219.756
219.436
218.708
217.57
216.021
214.064
211.703
208.944
205.795
202.267
198.37
194.118
189.528
184.615
179.4
173.9
168.139
162.137
155.919
149.508
142.928
136.205
129.362
122.425
115.418
108.367
101.296
94.229
87.189
80.199
73.283
66.46
59.751
53.176
46.752
40.497
34.427
28.555
22.896
17.46
12.257
7.298
2.588
-1.867
-6.061
-9.993
-13.661
-17.065
-20.205
-23.086
-25.709
-28.081
-30.206
-32.091
-33.744
-35.173
-36.388
-37.397
-38.21
-38.839
-39.295
-39.587
-39.728
-39.729
-39.602
-39.357
-39.007
-38.562
-38.034
-37.433
-36.77
-36.055
-35.297
-34.506
-33.69
-32.858
-32.017
-31.175
-30.338
-29.513
-28.705
-27.919
-27.16
-26.432
-25.739
-25.085
-24.471
-23.9
-23.374
-22.895
-22.463
-22.079
-21.745
-21.458
-21.221
-21.031
-20.888
-20.79
-20.737
-20.727
-20.757
-20.826
-20.932
-21.072
-21.244
-21.445
-21.672
-21.924
-22.196
-22.487
-22.794
-23.113
-23.443
-23.78
-24.121
-24.465
-24.807
-25.146
-25.479
-25.803
-26.117
-26.418
-26.704
-26.974
-27.227
-27.461
-27.676
-27.871
-28.045
-28.2
-28.334
-28.448
-28.544
-28.622
-28.684
-28.731
-28.766
-28.791
-28.809
-28.821
-28.83
-28.839
-28.85
-28.866
-28.889
-28.922
-28.968
-29.029
-29.108
-29.207
-29.329
-29.476
-29.649
-29.85
-30.078
-30.334
-30.618
-30.929
-31.266
-31.626
-32.008
-32.41
-32.83
-33.265
-33.71
-34.16
-34.613
-35.061
-35.5
-35.923
-36.322
-36.693
-37.029
-37.326
-37.577
-37.779
-37.924
-38.008
-38.027
-37.975
-37.849
-37.645
-37.358
-36.986
-36.528
-35.985
-35.357
-34.648
-33.861
-33.002
-32.074
-31.085
-30.038
-28.937
-27.79
-26.599
-25.369
-24.108
-22.82
-21.515
-20.205
-18.902
-17.616
-16.359
-15.139
-13.968
-12.857
-11.812
-10.836
-9.934
-9.111
-8.378
-7.756
-7.256
-6.879
-6.625
-6.487
-6.452
-6.515
-6.645
-6.796
-6.927
-6.99
-6.96
-6.842
-6.629
-6.309
-5.865
-5.263
-4.504
-3.629
-2.659
-1.61
-0.508
0.621
1.688
2.53
3.004
2.975
2.344
1.081
-0.864
-3.555
-7.022
-11.272
-16.228
-21.728
-27.655
-33.954
-40.567
-47.386
-54.156
-60.48
-65.965
-70.254
-73.061
-74.072
-72.851
-69.141
-62.954
-54.589
-44.745
-34.112
-23.028
-11.908
-1.345
8.611
18.276
28.482
40.925
56.855
76.604
100.559
128.991
160.827
193.972
225.071
249.297
262.579
262.096
244.792
207.821
150.534
74.345
-17.122
-117.941
-222.315
-325.105
-420.091
-500.458
-561.496
-600.751
-617.951
-615.271
-595.435
-561.206
-516.993
-468.542
-420.31
-375.281
-335.205
-300.21
-270.045
-244.506
-222.32
-201.278
-179.946
-157.673
-134.343
-110.661
-87.379
-64.999
-44.356
-26.515
-12.031
-1.092
6.373
10.85
12.804
12.606
10.784
7.903
4.373
0.574
-3.166
-6.65
-9.614
-11.82
-13.149
-13.509
-12.856
-11.211
-8.601
-5.089
-0.818
4.068
9.419
15.065
20.873
26.699
32.366
37.741
42.707
47.177
51.118
54.512
57.346
59.638
61.425
62.756
63.705
64.343
64.726
64.924
65.007
65.05
65.142
65.353
65.732
66.321
67.147
68.229
69.59
71.236
73.16
75.357
77.822
80.548
83.535
86.776
90.258
93.965
97.878
101.978
106.251
110.68
115.245
119.927
124.706
129.565
134.484
139.445
144.421
149.386
154.313
159.173
163.94
168.584
173.077
177.39
181.496
185.371
188.99
192.331
195.37
198.088
200.465
202.485
204.133
205.394
206.257
206.714
206.756
206.38
205.584
204.367
202.731
200.68
198.22
195.361
192.112
188.485
184.496
180.158
175.492
170.517
165.253
159.723
153.951
147.961
141.78
135.432
128.945
122.345
115.659
108.912
102.131
95.342
88.57
81.839
75.174
68.597
62.13
55.793
49.606
43.587
37.752
32.116
26.692
21.492
16.528
11.807
7.336
3.121
-0.834
-4.526
-7.956
-11.124
-14.032
-16.684
-19.086
-21.243
-23.162
-24.852
-26.322
-27.583
-28.644
-29.517
-30.214
-30.747
-31.128
-31.369
-31.483
-31.482
-31.379
-31.185
-30.912
-30.571
-30.173
-29.728
-29.246
-28.736
-28.206
-27.663
-27.116
-26.57
-26.032
-25.506
-24.996
-24.506
-24.039
-23.597
-23.182
-22.795
-22.437
-22.109
-21.808
-21.537
-21.292
-21.074
-20.88
-20.71
-20.561
-20.431
-20.319
-20.223
-20.141
-20.072
-20.013
-19.963
-19.92
-19.885
-19.854
-19.828
-19.806
-19.786
-19.769
-19.754
-19.741
-19.729
-19.72
-19.713
-19.708
-19.707
-19.71
-19.716
-19.728
-19.744
-19.767
-19.796
-19.832
-19.875
-19.926
-19.985
-20.052
-20.128
-20.212
-20.305
-20.406
-20.515
-20.632
-20.756
-20.886
-21.023
-21.164
-21.309
-21.459
-21.611
-21.766
-21.923
-22.082
-22.241
-22.401
-22.56
-22.719
-22.877
-23.034
-23.19
-23.344
-23.498
-23.651
-23.804
-23.958
-24.114
-24.272
-24.434
-24.598
-24.767
-24.941
-25.12
-25.306
-25.498
-25.699
-25.908
-26.126
-26.355
-26.595
-26.844
-27.104
-27.372
-27.649
-27.933
-28.223
-28.515
-28.81
-29.104
-29.396
-29.684
-29.966
-30.237
-30.496
-30.737
-30.958
-31.154
-31.32
-31.451
-31.544
-31.595
-31.602
-31.561
-31.469
-31.324
-31.122
-30.863
-30.543
-30.162
-29.716
-29.205
-28.628
-27.988
-27.285
-26.523
-25.707
-24.841
-23.931
-22.983
-22.004
-20.997
-19.968
-18.921
-17.86
-16.791
-15.717
-14.643
-13.577
-12.529
-11.508
-10.523
-9.583
-8.693
-7.859
-7.093
-6.398
-5.772
-5.219
-4.739
-4.342
-4.045
-3.858
-3.781
-3.809
-3.932
-4.141
-4.425
-4.755
-5.086
-5.37
-5.556
-5.618
-5.561
-5.376
-5.05
-4.563
-3.876
-2.996
-1.965
-0.809
0.455
1.803
3.208
4.574
5.727
6.509
6.767
6.4
5.375
3.625
1.083
-2.292
-6.518
-11.493
-17.048
-23.072
-29.506
-36.297
-43.337
-50.344
-56.888
-62.535
-66.884
-69.62
-70.408
-68.802
-64.594
-57.85
-48.95
-38.725
-27.895
-16.845
-6.088
3.94
13.407
22.891
33.587
47.223
64.804
86.681
113.285
144.37
178.347
212.234
241.558
261.661
269.016
260.82
234.255
187.113
119.252
33.505
-64.74
-169.751
-276.243
-379.247
-473.181
-551.397
-608.883
-643.845
-657.094
-650.434
-626.026
-585.783
-532.775
-472.805
-411.471
-352.783
-299.077
-251.244
-209.903
-176.402
-151.471
-133.481
-120.029
-108.627
-97.696
-87.146
-76.987
-66.558
-55.049
-42.502
-29.808
-18.513
-9.655
-3.237
0.995
3.264
3.538
1.786
-1.502
-5.368
-9.007
-11.942
-13.952
-15.057
-15.174
-14.144
-11.973
-8.78
-4.739
-0.065
5.093
10.657
16.502
22.507
28.527
34.365
39.879
44.963
49.532
53.561
57.039
59.944
62.287
64.1
65.428
66.348
66.93
67.226
67.3
67.216
67.052
66.905
66.85
66.939
67.212
67.695
68.408
69.374
70.606
72.098
73.849
75.854
78.111
80.623
83.389
86.397
89.634
93.083
96.727
100.555
104.553
108.704
112.992
117.398
121.906
126.5
131.162
135.867
140.591
145.306
149.986
154.603
159.13
163.539
167.801
171.89
175.782
179.451
182.876
186.033
188.901
191.46
193.694
195.585
197.119
198.284
199.068
199.464
199.465
199.069
198.272
197.076
195.483
193.497
191.125
188.376
185.26
181.791
177.981
173.849
169.411
164.687
159.699
154.467
149.014
143.365
137.543
131.573
125.48
119.288
113.022
106.706
100.365
94.021
87.699
81.421
75.207
69.08
63.058
57.161
51.405
45.807
40.382
35.142
30.1
25.267
20.651
16.26
12.1
8.175
4.488
1.041
-2.166
-5.134
-7.866
-10.366
-12.637
-14.687
-16.522
-18.149
-19.576
-20.812
-21.867
-22.75
-23.472
-24.043
-24.473
-24.775
-24.957
-25.032
-25.01
-24.902
-24.718
-24.468
-24.162
-23.81
-23.421
-23.002
-22.562
-22.108
-21.647
-21.185
-20.727
-20.279
-19.843
-19.425
-19.027
-18.652
-18.302
-17.979
-17.683
-17.415
-17.176
-16.967
-16.786
-16.633
-16.508
-16.41
-16.337
-16.289
-16.264
-16.259
-16.275
-16.308
-16.357
-16.419
-16.494
-16.578
-16.671
-16.77
-16.874
-16.98
-17.088
-17.197
-17.304
-17.408
-17.51
-17.607
-17.7
-17.787
-17.868
-17.942
-18.011
-18.072
-18.127
-18.174
-18.216
-18.25
-18.278
-18.299
-18.314
-18.323
-18.327
-18.325
-18.319
-18.309
-18.297
-18.282
-18.266
-18.249
-18.233
-18.217
-18.204
-18.194
-18.189
-18.188
-18.193
-18.206
-18.228
-18.259
-18.301
-18.356
-18.424
-18.507
-18.604
-18.717
-18.847
-18.995
-19.161
-19.346
-19.552
-19.778
-20.026
-20.295
-20.587
-20.9
-21.234
-21.59
-21.965
-22.361
-22.775
-23.206
-23.655
-24.119
-24.599
-25.092
-25.595
-26.108
-26.627
-27.15
-27.673
-28.192
-28.704
-29.205
-29.692
-30.161
-30.61
-31.033
-31.428
-31.791
-32.117
-32.404
-32.646
-32.839
-32.979
-33.063
-33.088
-33.054
-32.957
-32.797
-32.572
-32.282
-31.927
-31.506
-31.02
-30.466
-29.847
-29.163
-28.419
-27.617
-26.762
-25.858
-24.913
-23.935
-22.933
-21.913
-20.881
-19.844
-18.809
-17.781
-16.767
-15.768
-14.79
-13.841
-12.927
-12.058
-11.244
-10.488
-9.797
-9.179
-8.638
-8.179
-7.803
-7.503
-7.278
-7.135
-7.079
-7.125
-7.28
-7.535
-7.885
-8.328
-8.847
-9.421
-10.009
-10.547
-10.987
-11.307
-11.49
-11.536
-11.439
-11.171
-10.724
-10.106
-9.326
-8.402
-7.346
-6.149
-4.851
-3.543
-2.355
-1.473
-1.043
-1.148
-1.862
-3.249
-5.35
-8.213
-11.811
-16.009
-20.7
-25.801
-31.253
-37.057
-43.078
-49.036
-54.593
-59.318
-62.819
-64.822
-64.951
-62.763
-58.107
-51.068
-42.079
-32.03
-21.578
-11.07
-1.047
8.087
16.455
24.606
33.825
45.848
61.676
81.699
106.33
135.346
167.264
199.197
226.765
245.442
251.705
242.668
215.497
167.923
99.762
13.867
-84.421
-189.514
-296.167
-399.155
-492.681
-569.847
-625.416
-657.891
-668.447
-658.844
-631.257
-588.105
-532.818
-471.81
-411.378
-354.886
-303.842
-259.042
-220.851
-190.068
-167.178
-149.698
-134.244
-119.152
-103.785
-88.287
-73.184
-58.147
-42.374
-26.67
-12.724
-1.463
6.626
11.721
14.534
15.292
13.804
10.426
5.974
1.128
-3.427
-7.279
-10.4
-12.668
-13.869
-13.927
-12.854
-10.709
-7.648
-3.828
0.656
5.676
11.106
16.833
22.711
28.575
34.251
39.585
44.476
48.87
52.742
56.071
58.84
61.065
62.796
64.109
65.08
65.772
66.23
66.514
66.695
66.856
67.086
67.452
67.993
68.742
69.725
70.963
72.476
74.266
76.323
78.634
81.194
83.998
87.046
90.331
93.836
97.545
101.439
105.504
109.725
114.087
118.57
123.157
127.829
132.568
137.36
142.182
147.013
151.825
156.595
161.295
165.899
170.381
174.713
178.868
182.822
186.552
190.034
193.247
196.17
198.784
201.071
203.014
204.599
205.814
206.647
207.089
207.134
206.777
206.016
204.85
203.28
201.308
198.942
196.187
193.054
189.554
185.7
181.506
176.99
172.171
167.067
161.7
156.092
150.266
144.247
138.059
131.727
125.277
118.733
112.121
105.467
98.795
92.13
85.496
78.916
72.414
66.01
59.725
53.579
47.59
41.775
36.151
30.731
25.529
20.556
15.822
11.335
7.102
3.129
-0.582
-4.028
-7.208
-10.124
-12.779
-15.176
-17.319
-19.217
-20.875
-22.302
-23.508
-24.503
-25.299
-25.905
-26.335
-26.602
-26.716
-26.693
-26.544
-26.284
-25.923
-25.477
-24.957
-24.375
-23.744
-23.074
-22.378
-21.666
-20.946
-20.229
-19.523
-18.835
-18.173
-17.542
-16.947
-16.394
-15.886
-15.426
-15.017
-14.659
-14.354
-14.103
-13.904
-13.757
-13.66
-13.612
-13.611
-13.653
-13.736
-13.857
-14.013
-14.201
-14.415
-14.655
-14.914
-15.191
-15.48
-15.779
-16.085
-16.393
-16.702
-17.007
-17.307
-17.598
-17.879
-18.149
-18.404
-18.645
-18.871
-19.079
-19.271
-19.446
-19.605
-19.747
-19.872
-19.983
-20.08
-20.163
-20.235
-20.296
-20.347
-20.39
-20.426
-20.457
-20.484
-20.508
-20.53
-20.552
-20.575
-20.6
-20.629
-20.661
-20.699
-20.743
-20.794
-20.852
-20.918
-20.991
-21.073
-21.163
-21.261
-21.366
-21.479
-21.599
-21.727
-21.86
-22.001
-22.147
-22.299
-22.456
-22.617
-22.783
-22.953
-23.127
-23.306
-23.488
-23.674
-23.865
-24.062
-24.264
-24.471
-24.685
-24.904
-25.128
-25.359
-25.596
-25.84
-26.089
-26.346
-26.609
-26.88
-27.159
-27.444
-27.737
-28.035
-28.338
-28.645
-28.953
-29.262
-29.568
-29.87
-30.166
-30.455
-30.733
-30.997
-31.244
-31.472
-31.675
-31.851
-31.995
-32.101
-32.166
-32.187
-32.161
-32.085
-31.957
-31.774
-31.534
-31.235
-30.875
-30.453
-29.968
-29.416
-28.799
-28.118
-27.375
-26.572
-25.713
-24.803
-23.848
-22.856
-21.833
-20.783
-19.712
-18.627
-17.532
-16.434
-15.336
-14.244
-13.163
-12.103
-11.074
-10.086
-9.147
-8.261
-7.437
-6.682
-6.004
-5.405
-4.883
-4.436
-4.07
-3.796
-3.629
-3.578
-3.64
-3.809
-4.077
-4.435
-4.867
-5.338
-5.797
-6.189
-6.478
-6.654
-6.718
-6.661
-6.468
-6.109
-5.566
-4.856
-4
-3.011
-1.896
-0.669
0.609
1.808
2.757
3.295
3.304
2.724
1.507
-0.408
-3.069
-6.501
-10.65
-15.39
-20.617
-26.28
-32.357
-38.776
-45.323
-51.638
-57.294
-61.881
-65.087
-66.573
-65.886
-62.766
-57.225
-49.561
-40.525
-30.852
-20.875
-11.058
-2.028
6.264
14.282
23.077
34.638
50.346
70.571
95.854
126.57
161.553
198.467
233.339
260.592
275.882
276.199
258.298
219.197
157.795
75.32
-23.873
-133.058
-246.306
-358.453
-463.597
-554.933
-626.135
-673.255
-695.885
-696.098
-676.06
-637.702
-583.842
-519.574
-451.639
-385.784
-325.152
-271.015
-224.209
-186.019
-157.716
-138.505
-125.25
-114.543
-104.455
-94.406
-84.398
-73.967
-61.936
-48.024
-33.506
-20.281
-9.641
-1.93
3.171
5.98
6.305
4.114
-0.016
-5.062
-10.03
-14.312
-17.695
-20.161
-21.596
-21.847
-20.861
-18.729
-15.633
-11.747
-7.207
-2.088
3.531
9.518
15.72
21.952
28.01
33.737
39.032
43.827
48.092
51.81
54.964
57.564
59.661
61.317
62.602
63.575
64.277
64.764
65.111
65.404
65.74
66.189
66.797
67.6
68.623
69.888
71.414
73.205
75.249
77.538
80.066
82.831
85.835
89.073
92.533
96.198
100.053
104.083
108.276
112.617
117.091
121.681
126.37
131.143
135.988
140.885
145.812
150.746
155.662
160.535
165.338
170.046
174.631
179.066
183.326
187.386
191.223
194.813
198.136
201.168
203.892
206.288
208.34
210.034
211.355
212.291
212.833
212.975
212.709
212.033
210.944
209.442
207.531
205.214
202.498
199.39
195.902
192.046
187.836
183.288
178.42
173.252
167.804
162.098
156.158
150.008
143.673
137.179
130.551
123.816
116.999
110.127
103.227
96.323
89.441
82.606
75.841
69.17
62.614
56.195
49.933
43.845
37.949
32.261
26.795
21.564
16.579
11.851
7.386
3.191
-0.729
-4.371
-7.734
-10.82
-13.629
-16.165
-18.433
-20.44
-22.192
-23.7
-24.972
-26.019
-26.852
-27.485
-27.929
-28.198
-28.305
-28.264
-28.089
-27.794
-27.392
-26.896
-26.321
-25.678
-24.981
-24.241
-23.47
-22.678
-21.877
-21.075
-20.282
-19.505
-18.752
-18.03
-17.343
-16.697
-16.095
-15.542
-15.038
-14.586
-14.187
-13.841
-13.548
-13.306
-13.115
-12.971
-12.874
-12.82
-12.807
-12.831
-12.89
-12.981
-13.1
-13.244
-13.411
-13.596
-13.798
-14.013
-14.238
-14.471
-14.709
-14.95
-15.193
-15.434
-15.674
-15.909
-16.141
-16.366
-16.586
-16.799
-17.006
-17.207
-17.401
-17.591
-17.775
-17.956
-18.135
-18.311
-18.487
-18.663
-18.84
-19.02
-19.202
-19.389
-19.579
-19.775
-19.976
-20.183
-20.396
-20.614
-20.84
-21.071
-21.308
-21.552
-21.801
-22.057
-22.317
-22.583
-22.853
-23.127
-23.405
-23.685
-23.968
-24.252
-24.536
-24.82
-25.103
-25.384
-25.662
-25.937
-26.209
-26.477
-26.741
-27.002
-27.258
-27.51
-27.759
-28.006
-28.25
-28.493
-28.736
-28.978
-29.223
-29.47
-29.72
-29.976
-30.236
-30.501
-30.773
-31.05
-31.335
-31.626
-31.925
-32.23
-32.543
-32.864
-33.192
-33.527
-33.867
-34.213
-34.562
-34.912
-35.262
-35.607
-35.946
-36.276
-36.593
-36.896
-37.18
-37.442
-37.677
-37.882
-38.053
-38.184
-38.272
-38.31
-38.294
-38.221
-38.087
-37.891
-37.629
-37.298
-36.898
-36.426
-35.882
-35.266
-34.574
-33.808
-32.967
-32.053
-31.069
-30.018
-28.906
-27.737
-26.52
-25.264
-23.974
-22.66
-21.327
-19.983
-18.633
-17.286
-15.944
-14.615
-13.306
-12.026
-10.787
-9.6
-8.474
-7.416
-6.437
-5.544
-4.745
-4.043
-3.436
-2.924
-2.509
-2.205
-2.025
-1.976
-2.055
-2.256
-2.57
-2.988
-3.494
-4.053
-4.61
-5.111
-5.518
-5.821
-6.019
-6.104
-6.06
-5.858
-5.478
-4.944
-4.284
-3.511
-2.633
-1.66
-0.64
0.304
1.005
1.312
1.113
0.349
-1.015
-3.048
-5.801
-9.308
-13.538
-18.34
-23.582
-29.191
-35.119
-41.331
-47.677
-53.82
-59.349
-63.885
-67.082
-68.708
-68.45
-65.824
-60.636
-52.993
-43.337
-32.608
-21.559
-10.455
0.274
10.014
18.778
26.971
35.674
47.001
62.415
82.268
106.955
136.638
169.941
204.322
235.851
259.115
269.64
264.431
240.389
194.764
127.305
40.216
-61.918
-172.403
-284.9
-394.117
-493.852
-576.997
-638.492
-675.852
-689.178
-680.988
-654.068
-610.557
-554.065
-490.547
-425.611
-363.77
-307.706
-258.022
-215.173
-180.438
-154.361
-135.398
-121.163
-108.954
-97.14
-85.692
-74.646
-63.39
-51.107
-37.763
-24.256
-12.204
-2.7
4.196
8.733
11.152
11.378
9.361
5.577
0.986
-3.514
-7.373
-10.335
-12.383
-13.423
-13.296
-11.974
-9.557
-6.219
-2.161
2.466
7.576
13.078
18.866
24.813
30.745
36.478
41.864
46.804
51.248
55.179
58.573
61.419
63.73
65.556
66.974
68.06
68.875
69.464
69.881
70.194
70.49
70.859
71.368
72.059
72.964
74.105
75.504
77.18
79.135
81.358
83.838
86.565
89.536
92.751
96.201
99.871
103.741
107.794
112.012
116.381
120.884
125.502
130.215
135.004
139.852
144.741
149.651
154.557
159.434
164.255
168.993
173.622
178.114
182.443
186.581
190.505
194.19
197.615
200.758
203.599
206.12
208.304
210.136
211.603
212.692
213.395
213.703
213.611
213.117
212.219
210.917
209.214
207.114
204.623
201.751
198.508
194.906
190.958
186.68
182.09
177.207
172.051
166.643
161.006
155.163
149.139
142.957
136.643
130.221
123.716
117.152
110.554
103.946
97.35
90.789
84.285
77.859
71.531
65.319
59.243
53.317
47.559
41.98
36.595
31.415
26.449
21.706
17.192
12.915
8.877
5.081
1.529
-1.78
-4.848
-7.676
-10.271
-12.635
-14.777
-16.702
-18.42
-19.938
-21.265
-22.412
-23.389
-24.205
-24.872
-25.4
-25.801
-26.084
-26.262
-26.343
-26.339
-26.259
-26.113
-25.911
-25.66
-25.37
-25.048
-24.701
-24.337
-23.961
-23.579
-23.196
-22.816
-22.443
-22.081
-21.732
-21.397
-21.079
-20.779
-20.497
-20.233
-19.988
-19.762
-19.553
-19.361
-19.185
-19.024
-18.878
-18.744
-18.623
-18.512
-18.412
-18.321
-18.237
-18.161
-18.092
-18.029
-17.972
-17.92
-17.874
-17.832
-17.795
-17.764
-17.738
-17.717
-17.703
-17.695
-17.695
-17.703
-17.72
-17.747
-17.784
-17.832
-17.893
-17.966
-18.053
-18.154
-18.269
-18.399
-18.544
-18.703
-18.878
-19.067
-19.269
-19.486
-19.714
-19.955
-20.206
-20.467
-20.737
-21.013
-21.296
-21.584
-21.875
-22.169
-22.462
-22.755
-23.046
-23.333
-23.616
-23.891
-24.16
-24.419
-24.669
-24.909
-25.136
-25.352
-25.554
-25.743
-25.919
-26.08
-26.227
-26.36
-26.48
-26.587
-26.682
-26.766
-26.84
-26.906
-26.965
-27.019
-27.068
-27.114
-27.159
-27.205
-27.254
-27.306
-27.365
-27.432
-27.509
-27.598
-27.699
-27.814
-27.945
-28.091
-28.254
-28.435
-28.633
-28.849
-29.083
-29.336
-29.607
-29.897
-30.202
-30.523
-30.857
-31.203
-31.558
-31.919
-32.281
-32.643
-33.001
-33.352
-33.693
-34.02
-34.329
-34.616
-34.877
-35.108
-35.303
-35.458
-35.568
-35.628
-35.637
-35.59
-35.486
-35.321
-35.094
-34.803
-34.448
-34.027
-33.54
-32.984
-32.361
-31.671
-30.917
-30.102
-29.23
-28.305
-27.334
-26.325
-25.286
-24.223
-23.142
-22.049
-20.95
-19.852
-18.759
-17.675
-16.605
-15.556
-14.537
-13.558
-12.626
-11.749
-10.933
-10.185
-9.512
-8.918
-8.406
-7.969
-7.607
-7.327
-7.136
-7.048
-7.069
-7.192
-7.41
-7.722
-8.112
-8.558
-9.023
-9.442
-9.769
-9.983
-10.07
-10.027
-9.849
-9.508
-8.993
-8.311
-7.471
-6.49
-5.379
-4.127
-2.773
-1.407
-0.151
0.811
1.337
1.352
0.78
-0.44
-2.352
-5.007
-8.388
-12.362
-16.83
-21.713
-26.953
-32.557
-38.396
-44.189
-49.607
-54.22
-57.641
-59.606
-59.736
-57.578
-52.977
-46.006
-37.083
-27.11
-16.736
-6.306
3.634
12.688
21
29.129
38.416
50.654
66.894
87.59
113.162
143.372
176.682
210.072
239.061
259.013
266.273
257.909
231.04
183.283
114.559
27.88
-71.56
-178.119
-286.54
-391.98
-488.445
-568.708
-627.766
-663.876
-677.434
-670.084
-643.498
-598.941
-540.253
-474.206
-406.629
-341.884
-282.802
-230.433
-186.255
-152.645
-129.549
-114.402
-104.444
-96.575
-88.93
-81.432
-73.351
-63.204
-50.691
-36.421
-21.588
-8.279
2.382
10.476
15.884
18.463
18.359
15.719
11.164
5.906
0.766
-3.816
-7.502
-10.221
-11.9
-12.376
-11.659
-9.897
-7.22
-3.789
0.258
4.861
9.924
15.33
20.956
26.623
32.145
37.373
42.203
46.582
50.488
53.893
56.783
59.169
61.096
62.638
63.866
64.83
65.576
66.16
66.648
67.128
67.69
68.397
69.29
70.4
71.746
73.35
75.228
77.379
79.79
82.448
85.342
88.47
91.828
95.409
99.195
103.166
107.305
111.594
116.02
120.567
125.214
129.945
134.74
139.585
144.462
149.352
154.233
159.08
163.868
168.572
173.167
177.628
181.928
186.043
189.95
193.626
197.051
200.204
203.066
205.619
207.847
209.735
211.27
212.44
213.235
213.646
213.667
213.294
212.523
211.355
209.788
207.827
205.475
202.739
199.628
196.152
192.321
188.151
183.655
178.852
173.758
168.394
162.779
156.935
150.884
144.65
138.255
131.723
125.078
118.343
111.543
104.701
97.84
90.984
84.154
77.374
70.664
64.046
57.539
51.162
44.932
38.868
32.984
27.295
21.813
16.55
11.517
6.722
2.172
-2.126
-6.169
-9.952
-13.475
-16.736
-19.737
-22.481
-24.969
-27.208
-29.202
-30.958
-32.484
-33.787
-34.876
-35.762
-36.455
-36.965
-37.302
-37.48
-37.51
-37.403
-37.172
-36.829
-36.386
-35.855
-35.246
-34.572
-33.844
-33.071
-32.264
-31.432
-30.584
-29.729
-28.874
-28.027
-27.195
-26.383
-25.598
-24.844
-24.125
-23.446
-22.809
-22.217
-21.672
-21.177
-20.731
-20.336
-19.991
-19.697
-19.453
-19.258
-19.109
-19.006
-18.947
-18.928
-18.949
-19.006
-19.097
-19.219
-19.369
-19.546
-19.746
-19.967
-20.207
-20.461
-20.729
-21.007
-21.294
-21.586
-21.881
-22.178
-22.475
-22.769
-23.058
-23.342
-23.618
-23.884
-24.14
-24.384
-24.616
-24.834
-25.039
-25.229
-25.406
-25.569
-25.718
-25.854
-25.976
-26.085
-26.182
-26.267
-26.341
-26.405
-26.46
-26.507
-26.547
-26.582
-26.614
-26.643
-26.67
-26.699
-26.73
-26.764
-26.805
-26.853
-26.911
-26.98
-27.064
-27.163
-27.28
-27.416
-27.572
-27.749
-27.948
-28.169
-28.414
-28.681
-28.972
-29.287
-29.625
-29.987
-30.371
-30.777
-31.203
-31.648
-32.108
-32.581
-33.064
-33.553
-34.047
-34.541
-35.032
-35.516
-35.991
-36.45
-36.89
-37.305
-37.691
-38.042
-38.352
-38.615
-38.827
-38.984
-39.083
-39.12
-39.093
-38.997
-38.832
-38.596
-38.285
-37.9
-37.437
-36.896
-36.279
-35.587
-34.823
-33.991
-33.097
-32.146
-31.146
-30.105
-29.027
-27.92
-26.789
-25.64
-24.478
-23.309
-22.138
-20.972
-19.822
-18.697
-17.61
-16.571
-15.588
-14.67
-13.825
-13.062
-12.384
-11.789
-11.277
-10.853
-10.526
-10.313
-10.223
-10.255
-10.404
-10.66
-11.017
-11.46
-11.955
-12.452
-12.899
-13.255
-13.506
-13.656
-13.7
-13.628
-13.419
-13.046
-12.524
-11.881
-11.131
-10.279
-9.336
-8.335
-7.379
-6.633
-6.256
-6.37
-7.048
-8.318
-10.235
-12.836
-16.146
-20.153
-24.727
-29.735
-35.091
-40.751
-46.691
-52.797
-58.798
-64.296
-68.887
-72.211
-73.995
-73.926
-71.596
-66.851
-59.78
-50.783
-40.695
-30.179
-19.605
-9.464
-0.138
8.53
17.082
26.669
38.932
54.865
74.872
99.377
128.137
159.69
191.265
218.71
237.714
244.866
237.388
212.579
168.356
104.679
24.287
-67.839
-166.342
-266.037
-361.84
-448.101
-518.496
-568.79
-597.898
-606.831
-597.573
-572.688
-534.986
-488.559
-439.203
-391.3
-347.15
-307.952
-273.819
-244.505
-219.875
-198.788
-178.933
-158.871
-138.102
-116.6
-95.113
-74.321
-54.581
-36.608
-21.347
-9.276
-0.539
5.024
7.962
8.753
7.786
5.567
2.578
-0.768
-4.085
-7.109
-9.647
-11.508
-12.562
-12.713
-11.9
-10.124
-7.419
-3.847
0.477
5.419
10.848
16.601
22.53
28.48
34.275
39.781
44.888
49.512
53.613
57.167
60.161
62.61
64.553
66.036
67.123
67.881
68.365
68.644
68.792
68.886
69.018
69.259
69.662
70.269
71.114
72.22
73.609
75.29
77.258
79.513
82.051
84.87
87.972
91.353
95.001
98.904
103.044
107.405
111.973
116.732
121.664
126.75
131.971
137.307
142.743
148.255
153.818
159.404
164.985
170.529
176.008
181.39
186.642
191.734
196.634
201.315
205.747
209.904
213.76
217.29
220.47
223.278
225.696
227.706
229.291
230.438
231.135
231.375
231.15
230.456
229.292
227.659
225.558
222.997
219.983
216.525
212.637
208.333
203.63
198.547
193.105
187.327
181.236
174.859
168.223
161.356
154.286
147.042
139.655
132.153
124.567
116.926
109.259
101.597
93.966
86.394
78.908
71.534
64.295
57.215
50.316
43.616
37.136
30.891
24.897
19.168
13.714
8.545
3.669
-0.908
-5.181
-9.149
-12.812
-16.169
-19.226
-21.985
-24.453
-26.638
-28.547
-30.192
-31.582
-32.73
-33.649
-34.351
-34.852
-35.164
-35.302
-35.282
-35.119
-34.826
-34.42
-33.913
-33.321
-32.657
-31.935
-31.166
-30.363
-29.537
-28.699
-27.858
-27.023
-26.203
-25.405
-24.634
-23.897
-23.199
-22.543
-21.932
-21.37
-20.857
-20.395
-19.984
-19.623
-19.313
-19.052
-18.837
-18.668
-18.542
-18.456
-18.407
-18.392
-18.408
-18.453
-18.522
-18.612
-18.721
-18.846
-18.983
-19.13
-19.284
-19.443
-19.605
-19.767
-19.928
-20.087
-20.242
-20.392
-20.536
-20.673
-20.803
-20.925
-21.04
-21.146
-21.244
-21.334
-21.417
-21.491
-21.558
-21.619
-21.673
-21.72
-21.763
-21.801
-21.835
-21.865
-21.891
-21.916
-21.938
-21.959
-21.978
-21.998
-22.018
-22.038
-22.061
-22.086
-22.114
-22.147
-22.184
-22.226
-22.273
-22.328
-22.391
-22.461
-22.542
-22.634
-22.738
-22.856
-22.989
-23.139
-23.306
-23.491
-23.695
-23.918
-24.163
-24.428
-24.715
-25.023
-25.355
-25.709
-26.087
-26.486
-26.906
-27.345
-27.803
-28.276
-28.761
-29.256
-29.758
-30.264
-30.771
-31.276
-31.774
-32.263
-32.737
-33.191
-33.622
-34.022
-34.386
-34.708
-34.982
-35.204
-35.369
-35.474
-35.514
-35.487
-35.387
-35.213
-34.962
-34.632
-34.219
-33.723
-33.142
-32.479
-31.735
-30.914
-30.02
-29.058
-28.036
-26.963
-25.844
-24.686
-23.495
-22.279
-21.042
-19.793
-18.535
-17.276
-16.024
-14.79
-13.586
-12.425
-11.316
-10.269
-9.292
-8.395
-7.583
-6.861
-6.227
-5.681
-5.23
-4.886
-4.663
-4.571
-4.607
-4.768
-5.048
-5.434
-5.905
-6.423
-6.93
-7.382
-7.75
-8.027
-8.214
-8.309
-8.297
-8.16
-7.89
-7.491
-6.975
-6.338
-5.571
-4.695
-3.774
-2.927
-2.325
-2.1
-2.34
-3.103
-4.425
-6.342
-8.887
-12.047
-15.738
-19.868
-24.355
-29.172
-34.337
-39.767
-45.257
-50.491
-55.066
-58.626
-60.913
-61.591
-60.233
-56.629
-50.798
-43.068
-34.189
-24.81
-15.241
-5.892
2.712
10.567
18.074
26.211
36.786
51.167
69.806
93.163
121.574
153.998
188.267
220.911
246.94
262.026
263.127
247
210.61
153.264
76.441
-16.137
-118.331
-224.084
-328.043
-423.754
-504.188
-564.594
-602.558
-617.918
-613.061
-590.906
-554.388
-508.128
-458.066
-408.761
-363.23
-323.19
-288.671
-259.332
-234.889
-213.962
-194.235
-174.195
-153.143
-130.941
-108.301
-85.987
-64.504
-44.697
-27.634
-13.87
-3.59
3.282
7.236
8.744
8.178
6.063
2.954
-0.752
-4.686
-8.534
-12.101
-15.128
-17.384
-18.756
-19.155
-18.543
-16.943
-14.385
-10.935
-6.738
-1.939
3.314
8.855
14.556
20.275
25.842
31.123
36.004
40.396
44.268
47.601
50.384
52.632
54.385
55.69
56.625
57.259
57.648
57.861
57.966
58.034
58.154
58.392
58.796
59.404
60.244
61.335
62.696
64.334
66.241
68.412
70.84
73.519
76.446
79.616
83.015
86.626
90.431
94.414
98.559
102.85
107.27
111.799
116.419
121.113
125.863
130.65
135.449
140.236
144.983
149.666
154.257
158.73
163.057
167.211
171.168
174.905
178.398
181.627
184.571
187.211
189.53
191.512
193.143
194.411
195.305
195.817
195.94
195.672
195.009
193.952
192.502
190.664
188.441
185.844
182.88
179.562
175.902
171.915
167.616
163.026
158.161
153.044
147.695
142.137
136.392
130.485
124.44
118.28
112.029
105.711
99.35
92.968
86.59
80.238
73.932
67.695
61.546
55.505
49.589
43.815
38.2
32.757
27.499
22.439
17.587
12.952
8.542
4.363
0.421
-3.282
-6.743
-9.961
-12.937
-15.672
-18.17
-20.434
-22.469
-24.282
-25.88
-27.269
-28.458
-29.457
-30.274
-30.919
-31.404
-31.738
-31.932
-31.999
-31.947
-31.789
-31.535
-31.197
-30.784
-30.306
-29.774
-29.196
-28.583
-27.942
-27.281
-26.609
-25.931
-25.256
-24.588
-23.933
-23.296
-22.681
-22.091
-21.53
-21.001
-20.506
-20.046
-19.623
-19.238
-18.891
-18.582
-18.311
-18.078
-17.882
-17.721
-17.595
-17.501
-17.439
-17.406
-17.401
-17.422
-17.467
-17.533
-17.62
-17.725
-17.845
-17.98
-18.127
-18.284
-18.45
-18.623
-18.802
-18.984
-19.17
-19.356
-19.543
-19.729
-19.912
-20.092
-20.267
-20.437
-20.6
-20.756
-20.905
-21.045
-21.176
-21.298
-21.409
-21.511
-21.601
-21.681
-21.749
-21.806
-21.852
-21.885
-21.908
-21.919
-21.919
-21.908
-21.887
-21.855
-21.813
-21.762
-21.702
-21.633
-21.556
-21.472
-21.382
-21.287
-21.188
-21.086
-20.984
-20.882
-20.781
-20.683
-20.59
-20.503
-20.424
-20.355
-20.296
-20.251
-20.221
-20.208
-20.214
-20.24
-20.287
-20.357
-20.45
-20.567
-20.709
-20.877
-21.07
-21.289
-21.534
-21.806
-22.104
-22.428
-22.775
-23.145
-23.535
-23.943
-24.366
-24.801
-25.243
-25.69
-26.138
-26.585
-27.025
-27.454
-27.868
-28.262
-28.631
-28.97
-29.273
-29.532
-29.744
-29.903
-30.005
-30.047
-30.026
-29.936
-29.776
-29.543
-29.236
-28.851
-28.387
-27.841
-27.214
-26.507
-25.721
-24.86
-23.927
-22.928
-21.869
-20.761
-19.608
-18.417
-17.195
-15.948
-14.682
-13.403
-12.116
-10.825
-9.539
-8.268
-7.023
-5.815
-4.655
-3.55
-2.509
-1.542
-0.657
0.141
0.854
1.482
2.019
2.454
2.768
2.953
3.011
2.951
2.779
2.505
2.147
1.738
1.334
0.991
0.748
0.614
0.586
0.672
0.886
1.256
1.803
2.502
3.321
4.243
5.255
6.344
7.458
8.47
9.208
9.512
9.261
8.401
6.896
4.682
1.717
-2.033
-6.533
-11.624
-17.168
-23.079
-29.294
-35.774
-42.357
-48.702
-54.403
-59.055
-62.294
-63.868
-63.441
-60.576
-55.125
-47.195
-37.238
-26.159
-14.639
-3.034
8.119
18.376
27.831
36.975
47.024
59.714
76.057
96.463
121.372
150.57
182.578
214.503
241.976
260.469
266.448
257.062
229.501
181.503
112.91
26.592
-72.131
-177.607
-284.534
-387.927
-482.149
-560.437
-617.725
-652.214
-664.71
-657.028
-631.325
-589.499
-534.649
-472.684
-409.347
-348.78
-293.36
-243.995
-201.351
-166.848
-141.309
-123.115
-109.762
-98.635
-88.089
-77.998
-68.35
-58.433
-47.335
-35.051
-22.51
-11.342
-2.656
3.509
7.41
9.265
9.007
6.589
2.521
-2.192
-6.687
-10.452
-13.258
-15.123
-15.956
-15.588
-14.015
-11.35
-7.772
-3.498
1.329
6.636
12.307
18.222
24.228
30.117
35.734
40.965
45.72
49.969
53.697
56.875
59.511
61.635
63.291
64.553
65.49
66.148
66.585
66.866
67.067
67.286
67.6
68.058
68.699
69.548
70.621
71.941
73.515
75.332
77.389
79.676
82.187
84.926
87.887
91.059
94.425
97.968
101.67
105.52
109.504
113.607
117.814
122.107
126.474
130.9
135.371
139.866
144.361
148.834
153.259
157.614
161.874
166.011
170.002
173.823
177.451
180.866
184.046
186.971
189.623
191.984
194.039
195.773
197.173
198.228
198.928
199.266
199.235
198.833
198.056
196.904
195.377
193.479
191.213
188.586
185.605
182.281
178.625
174.649
170.368
165.8
160.962
155.872
150.552
145.021
139.303
133.42
127.395
121.249
115.008
108.694
102.33
95.939
89.543
83.164
76.824
70.543
64.34
58.236
52.248
46.393
40.688
35.147
29.785
24.615
19.648
14.895
10.364
6.064
2.001
-1.82
-5.396
-8.726
-11.808
-14.644
-17.237
-19.589
-21.706
-23.593
-25.258
-26.709
-27.953
-29.002
-29.864
-30.549
-31.07
-31.437
-31.66
-31.753
-31.725
-31.588
-31.355
-31.036
-30.643
-30.187
-29.678
-29.127
-28.545
-27.941
-27.325
-26.705
-26.089
-25.486
-24.902
-24.342
-23.814
-23.321
-22.867
-22.455
-22.088
-21.768
-21.496
-21.272
-21.097
-20.969
-20.889
-20.855
-20.865
-20.918
-21.011
-21.144
-21.312
-21.514
-21.747
-22.009
-22.296
-22.605
-22.934
-23.278
-23.636
-24.004
-24.378
-24.756
-25.136
-25.513
-25.886
-26.253
-26.61
-26.957
-27.292
-27.614
-27.92
-28.212
-28.488
-28.748
-28.991
-29.219
-29.43
-29.625
-29.805
-29.969
-30.118
-30.253
-30.374
-30.481
-30.576
-30.658
-30.729
-30.79
-30.84
-30.882
-30.916
-30.944
-30.965
-30.983
-30.997
-31.009
-31.021
-31.034
-31.047
-31.064
-31.084
-31.108
-31.137
-31.172
-31.214
-31.263
-31.32
-31.386
-31.462
-31.548
-31.646
-31.757
-31.88
-32.016
-32.168
-32.335
-32.518
-32.719
-32.937
-33.175
-33.432
-33.71
-34.008
-34.325
-34.663
-35.02
-35.396
-35.791
-36.202
-36.63
-37.073
-37.531
-38.003
-38.485
-38.977
-39.477
-39.98
-40.486
-40.989
-41.488
-41.976
-42.452
-42.912
-43.352
-43.768
-44.156
-44.511
-44.829
-45.106
-45.337
-45.517
-45.639
-45.701
-45.697
-45.626
-45.484
-45.269
-44.978
-44.611
-44.165
-43.642
-43.04
-42.359
-41.599
-40.76
-39.847
-38.861
-37.808
-36.694
-35.524
-34.307
-33.053
-31.77
-30.464
-29.145
-27.82
-26.494
-25.177
-23.873
-22.587
-21.328
-20.106
-18.931
-17.816
-16.768
-15.796
-14.909
-14.115
-13.421
-12.832
-12.344
-11.957
-11.673
-11.504
-11.464
-11.558
-11.782
-12.129
-12.588
-13.151
-13.799
-14.499
-15.196
-15.834
-16.371
-16.794
-17.103
-17.284
-17.323
-17.187
-16.856
-16.352
-15.704
-14.926
-14.03
-13.022
-11.95
-10.934
-10.137
-9.716
-9.79
-10.42
-11.648
-13.547
-16.167
-19.548
-23.667
-28.372
-33.531
-39.067
-44.921
-51.063
-57.341
-63.424
-68.921
-73.429
-76.587
-78.139
-77.739
-74.926
-69.539
-61.673
-51.761
-40.712
-29.196
-17.555
-6.329
4.051
13.693
23.095
33.507
46.705
63.72
84.966
110.851
141.097
174.17
207.119
235.513
254.778
261.318
252.237
224.739
176.545
107.574
20.798
-78.667
-185.378
-294.127
-400.093
-497.584
-579.54
-641.063
-680.525
-697.905
-694.289
-671.269
-629.951
-573.568
-508.611
-440.431
-372.878
-309.634
-252.671
-203.639
-165.309
-138.277
-120.226
-109.202
-102.905
-98.462
-94.823
-90.995
-84.942
-76.012
-64.76
-51.637
-38.047
-25.842
-15.573
-7.612
-2.568
-0.317
-0.61
-3.223
-7.264
-11.628
-15.671
-18.924
-21.093
-22.209
-22.223
-21.054
-18.815
-15.669
-11.787
-7.351
-2.47
2.802
8.384
14.161
19.977
25.631
30.964
35.875
40.313
44.257
47.684
50.575
52.941
54.824
56.294
57.422
58.258
58.846
59.237
59.498
59.713
59.977
60.361
60.91
61.66
62.632
63.851
65.336
67.092
69.108
71.374
73.884
76.636
79.633
82.868
86.327
89.995
93.853
97.886
102.081
106.423
110.894
115.476
120.153
124.907
129.725
134.587
139.468
144.347
149.196
153.989
158.702
163.307
167.775
172.082
176.201
180.108
183.78
187.196
190.333
193.171
195.692
197.879
199.718
201.193
202.294
203.01
203.334
203.261
202.788
201.911
200.632
198.952
196.877
194.412
191.567
188.351
184.776
180.856
176.608
172.049
167.199
162.076
156.704
151.105
145.303
139.322
133.188
126.926
120.562
114.121
107.628
101.109
94.589
88.093
81.643
75.262
68.974
62.799
56.756
50.865
45.143
39.605
34.268
29.143
24.243
19.577
15.155
10.983
7.066
3.409
0.014
-3.119
-5.99
-8.602
-10.959
-13.065
-14.926
-16.551
-17.948
-19.126
-20.096
-20.869
-21.456
-21.869
-22.122
-22.227
-22.197
-22.044
-21.783
-21.425
-20.983
-20.47
-19.897
-19.276
-18.616
-17.93
-17.225
-16.512
-15.798
-15.09
-14.396
-13.723
-13.074
-12.455
-11.869
-11.32
-10.81
-10.341
-9.913
-9.528
-9.184
-8.881
-8.618
-8.394
-8.205
-8.05
-7.926
-7.83
-7.759
-7.71
-7.68
-7.665
-7.663
-7.671
-7.686
-7.706
-7.727
-7.749
-7.768
-7.784
-7.795
-7.799
-7.796
-7.786
-7.766
-7.739
-7.703
-7.658
-7.606
-7.546
-7.481
-7.409
-7.334
-7.256
-7.176
-7.096
-7.017
-6.941
-6.87
-6.804
-6.746
-6.696
-6.656
-6.626
-6.609
-6.603
-6.611
-6.631
-6.665
-6.712
-6.772
-6.844
-6.928
-7.022
-7.127
-7.239
-7.36
-7.486
-7.617
-7.751
-7.886
-8.021
-8.155
-8.285
-8.41
-8.529
-8.639
-8.739
-8.828
-8.904
-8.966
-9.014
-9.045
-9.06
-9.059
-9.04
-9.004
-8.951
-8.881
-8.795
-8.694
-8.579
-8.451
-8.311
-8.162
-8.005
-7.843
-7.677
-7.509
-7.342
-7.176
-7.014
-6.858
-6.709
-6.569
-6.439
-6.322
-6.218
-6.129
-6.056
-5.999
-5.958
-5.933
-5.923
-5.927
-5.943
-5.969
-6.003
-6.044
-6.088
-6.133
-6.176
-6.212
-6.238
-6.25
-6.243
-6.211
-6.15
-6.054
-5.918
-5.739
-5.512
-5.233
-4.899
-4.506
-4.051
-3.532
-2.946
-2.29
-1.563
-0.763
0.11
1.054
2.068
3.149
4.292
5.493
6.743
8.036
9.367
10.729
12.118
13.526
14.948
16.378
17.812
19.243
20.663
22.062
23.43
24.756
26.035
27.258
28.417
29.501
30.504
31.426
32.264
33.016
33.671
34.212
34.628
34.921
35.094
35.156
35.116
34.985
34.791
34.579
34.398
34.3
34.306
34.42
34.653
35.02
35.548
36.266
37.165
38.209
39.376
40.647
42
43.397
44.731
45.845
46.58
46.794
46.395
45.331
43.535
40.943
37.519
33.283
28.333
22.817
16.819
10.379
3.583
-3.395
-10.245
-16.552
-21.906
-25.973
-28.354
-28.57
-26.353
-21.638
-14.67
-6.125
3.37
13.459
23.622
33.226
42.246
51.053
60.781
73.462
90.269
111.477
137.477
168.492
203.763
241.473
277.629
306.535
324.199
327.823
314.656
282.303
228.75
153.903
61.599
-41.698
-150.593
-260.065
-365.097
-460.289
-538.659
-594.893
-627.606
-638.075
-628.081
-599.844
-555.386
-497.834
-433.41
-368.083
-305.899
-249.146
-198.701
-155.14
-119.8
-93.414
-74.234
-59.725
-47.386
-35.682
-24.544
-14.009
-3.407
8.131
20.548
32.92
43.708
51.888
57.48
60.786
62.042
61.203
58.285
53.828
48.85
44.235
40.465
37.746
36.062
35.489
36.184
38.147
41.239
45.258
49.983
55.264
61.022
67.141
73.479
79.865
86.076
91.942
97.354
102.233
106.552
110.299
113.453
116.023
118.053
119.603
120.746
121.55
122.062
122.342
122.459
122.497
122.559
122.722
123.039
123.546
124.271
125.234
126.454
127.941
129.684
131.675
133.911
136.388
139.111
142.077
145.275
148.69
152.305
156.107
160.081
164.215
168.492
172.896
177.41
182.019
186.71
191.463
196.256
201.066
205.866
210.631
215.333
219.948
224.445
228.797
232.979
236.966
240.734
244.26
247.521
250.496
253.165
255.509
257.512
259.158
260.432
261.324
261.823
261.922
261.614
260.896
259.766
258.224
256.273
253.917
251.163
248.02
244.497
240.609
236.368
231.793
226.902
221.713
216.247
210.528
204.579
198.424
192.088
185.595
178.971
172.242
165.433
158.569
151.676
144.778
137.9
131.064
124.295
117.614
111.043
104.601
98.307
92.178
86.231
80.48
74.94
69.621
64.533
59.686
55.086
50.738
46.647
42.812
39.236
35.917
32.852
30.037
27.467
25.135
23.034
21.155
19.489
18.025
16.754
15.664
14.743
13.979
13.36
12.874
12.507
12.248
12.084
12.002
11.992
12.04
12.137
12.272
12.434
12.614
12.803
12.992
13.175
13.345
13.495
13.621
13.718
13.783
13.812
13.804
13.756
13.668
13.539
13.37
13.16
12.911
12.623
12.297
11.937
11.543
11.118
10.664
10.183
9.679
9.153
8.608
8.047
7.472
6.885
6.289
5.685
5.076
4.465
3.851
3.237
2.624
2.013
1.404
0.799
0.197
-0.402
-0.997
-1.59
-2.18
-2.767
-3.353
-3.938
-4.523
-5.108
-5.694
-6.283
-6.874
-7.468
-8.068
-8.672
-9.283
-9.901
-10.527
-11.161
-11.804
-12.457
-13.12
-13.794
-14.48
-15.177
-15.887
-16.608
-17.342
-18.089
-18.848
-19.62
-20.403
-21.199
-22.006
-22.823
-23.652
-24.49
-25.338
-26.196
-27.062
-27.937
-28.819
-29.709
-30.605
-31.508
-32.417
-33.33
-34.249
-35.172
-36.099
-37.03
-37.964
-38.901
-39.841
-40.784
-41.73
-42.679
-43.631
-44.587
-45.546
-46.51
-47.479
-48.453
-49.434
-50.421
-51.417
-52.42
-53.434
-54.457
-55.492
-56.539
-57.598
-58.67
-59.757
-60.858
-61.974
-63.106
-64.253
-65.416
-66.595
-67.79
-68.999
-70.223
-71.461
-72.711
-73.973
-75.243
-76.52
-77.801
-79.083
-80.362
-81.636
-82.899
-84.147
-85.376
-86.583
-87.762
-88.91
-90.02
-91.088
-92.11
-93.08
-93.995
-94.849
-95.638
-96.358
-97.007
-97.58
-98.078
-98.496
-98.834
-99.091
-99.267
-99.362
-99.377
-99.315
-99.178
-98.97
-98.697
-98.365
-97.981
-97.555
-97.095
-96.612
-96.119
-95.629
-95.15
-94.694
-94.275
-93.906
-93.598
-93.365
-93.218
-93.17
-93.238
-93.437
-93.782
-94.287
-94.959
-95.811
-96.85
-98.085
-99.522
-101.163
-103.004
-105.048
-107.301
-109.767
-112.455
-115.356
-118.444
-121.699
-125.103
-128.633
-132.266
-135.971
-139.702
-143.436
-147.167
-150.89
-154.605
-158.29
-161.9
-165.396
-168.736
-171.897
-174.886
-177.692
-180.281
-182.644
-184.781
-186.699
-188.437
-189.974
-191.228
-192.134
-192.623
-192.658
-192.243
-191.37
-190.018
-188.166
-185.775
-182.828
-179.343
-175.303
-170.673
-165.413
-159.46
-152.833
-145.642
-137.975
-129.917
-121.536
-112.856
-103.93
-94.834
-85.626
-76.364
-67.093
-57.838
