159.686
142.275
125.258
108.828
93.15
78.381
64.671
52.198
41.145
31.59
23.545
16.923
11.542
7.228
3.784
1.034
-1.163
-2.95
-4.443
-5.715
-6.815
-7.803
-8.742
-9.729
-10.891
-12.299
-13.986
-15.933
-18.06
-20.275
-22.463
-24.527
-26.388
-27.991
-29.308
-30.336
-31.095
-31.601
-31.874
-31.911
-31.685
-31.183
-30.4
-29.352
-28.076
-26.624
-25.06
-23.445
-21.836
-20.277
-18.796
-17.411
-16.128
-14.946
-13.86
-12.868
-11.98
-11.203
-10.548
-10.018
-9.613
-9.33
-9.158
-9.085
-9.093
-9.168
-9.294
-9.46
-9.653
-9.864
-10.085
-10.308
-10.523
-10.721
-10.89
-11.019
-11.095
-11.106
-11.041
-10.889
-10.64
-10.286
-9.819
-9.233
-8.524
-7.69
-6.728
-5.638
-4.421
-3.08
-1.619
-0.044
1.639
3.427
5.312
7.287
9.342
11.47
13.664
15.917
18.215
20.545
22.893
25.243
27.583
29.901
32.18
34.408
36.57
38.657
40.666
42.59
44.415
46.126
47.699
49.118
50.38
51.482
52.421
53.206
53.853
54.398
54.906
55.423
55.97
56.562
57.194
57.869
58.605
59.402
60.255
61.161
62.103
63.077
64.091
65.1
66.013
66.696
66.952
66.629
65.637
63.892
61.344
57.959
53.721
48.694
43.005
36.756
30.008
22.784
15.128
7.225
-0.627
-8.049
-14.599
-19.926
-23.647
-25.267
-24.528
-21.43
-16.254
-9.72
-2.522
5.028
12.518
19.418
25.814
32.182
39.565
49.833
64.272
83.177
106.869
135.507
167.856
201.62
233.196
257.526
270.413
269.012
250.312
211.563
152.272
74.052
-19.29
-121.641
-227.059
-330.344
-425.277
-505.107
-565.296
-603.595
-619.915
-616.596
-596.496
-562.465
-518.965
-471.751
-425.199
-382.176
-344.314
-311.64
-283.827
-260.623
-240.71
-221.857
-202.639
-182.426
-161.136
-139.498
-118.276
-97.97
-79.406
-63.629
-51.176
-42.222
-36.682
-34.064
-33.897
-35.812
-39.285
-43.764
-48.845
-54.145
-59.335
-64.204
-68.479
-71.913
-74.384
-75.791
-76.087
-75.291
-73.425
-70.556
-66.824
-62.376
-57.357
-51.936
-46.244
-40.428
-34.667
-29.101
-23.851
-19.01
-14.615
-10.69
-7.252
-4.288
-1.763
0.37
2.182
3.744
5.106
6.337
7.503
8.675
9.94
11.366
12.997
14.872
17.015
19.443
22.174
25.211
28.545
32.167
36.067
40.236
44.672
49.365
54.297
59.451
64.804
70.337
76.032
81.871
87.832
93.894
100.035
106.233
112.471
118.724
124.965
131.166
137.295
143.323
149.221
154.956
160.498
165.817
170.882
175.667
180.147
184.296
188.09
191.506
194.525
197.128
199.299
201.024
202.29
203.088
203.41
203.253
202.615
201.496
199.899
197.829
195.294
192.303
188.871
185.011
180.741
176.079
171.047
165.67
159.971
153.978
147.718
141.221
134.517
127.638
120.613
113.476
106.257
98.989
91.701
84.426
77.192
70.029
62.966
56.028
49.243
42.633
36.222
30.031
24.078
18.381
12.956
7.816
2.973
-1.565
-5.788
-9.693
-13.275
-16.534
-19.469
-22.085
-24.384
-26.374
-28.062
-29.458
-30.573
-31.418
-32.009
-32.358
-32.482
-32.396
-32.118
-31.663
-31.05
-30.296
-29.419
-28.435
-27.363
-26.218
-25.017
-23.775
-22.509
-21.231
-19.955
-18.695
-17.461
-16.264
-15.114
-14.019
-12.986
-12.023
-11.135
-10.324
-9.596
-8.951
-8.391
-7.916
-7.525
-7.217
-6.989
-6.837
-6.759
-6.749
-6.803
-6.916
-7.081
-7.295
-7.549
-7.839
-8.159
-8.502
-8.862
-9.233
-9.611
-9.988
-10.361
-10.724
-11.072
-11.402
-11.709
-11.991
-12.244
-12.465
-12.653
-12.806
-12.922
-13.002
-13.043
-13.047
-13.014
-12.945
-12.841
-12.704
-12.536
-12.338
-12.114
-11.865
-11.595
-11.305
-11
-10.681
-10.353
-10.018
-9.679
-9.34
-9.004
-8.675
-8.356
-8.05
-7.76
-7.489
-7.24
-7.016
-6.82
-6.654
-6.521
-6.424
-6.364
-6.343
-6.365
-6.43
-6.538
-6.692
-6.892
-7.137
-7.428
-7.765
-8.147
-8.574
-9.046
-9.561
-10.118
-10.716
-11.353
-12.026
-12.731
-13.466
-14.227
-15.009
-15.808
-16.62
-17.439
-18.263
-19.085
-19.901
-20.706
-21.493
-22.257
-22.992
-23.691
-24.349
-24.957
-25.512
-26.008
-26.442
-26.808
-27.105
-27.327
-27.472
-27.538
-27.522
-27.421
-27.235
-26.962
-26.602
-26.157
-25.631
-25.028
-24.354
-23.616
-22.821
-21.978
-21.094
-20.175
-19.23
-18.264
-17.284
-16.295
-15.306
-14.322
-13.354
-12.414
-11.515
-10.667
-9.88
-9.164
-8.527
-7.98
-7.528
-7.17
-6.91
-6.751
-6.704
-6.789
-7.014
-7.379
-7.88
-8.506
-9.241
-10.073
-10.966
-11.867
-12.727
-13.492
-14.133
-14.656
-15.052
-15.304
-15.395
-15.285
-14.974
-14.505
-13.9
-13.171
-12.347
-11.455
-10.595
-9.946
-9.664
-9.892
-10.732
-12.211
-14.378
-17.296
-20.989
-25.457
-30.606
-36.26
-42.292
-48.651
-55.283
-62.072
-68.74
-74.854
-79.986
-83.756
-85.874
-86.016
-83.723
-78.754
-71.165
-61.341
-50.106
-38.236
-26.077
-14.046
-2.733
7.887
18.248
29.346
43.11
60.933
83.137
110.062
141.882
177.267
213.777
247.669
273.677
287.411
285.914
266.045
224.965
162.301
79.935
-17.976
-124.936
-234.65
-341.616
-439.271
-520.518
-580.679
-617.57
-631.292
-624.46
-600.228
-561.722
-513.734
-462.383
-412.283
-366.386
-326.33
-292.048
-263.086
-239.079
-218.578
-199.198
-179.423
-158.588
-136.592
-114.204
-92.231
-71.196
-51.947
-35.533
-22.475
-12.925
-6.777
-3.508
-2.627
-3.748
-6.334
-9.837
-13.865
-18.046
-22.065
-25.72
-28.742
-30.898
-32.078
-32.198
-31.223
-29.184
-26.113
-22.085
-17.25
-11.759
-5.762
0.575
7.124
13.738
20.238
26.484
32.351
37.745
42.63
46.981
50.78
54.04
56.795
59.092
61.004
62.596
63.918
65.036
66.01
66.91
67.82
68.804
69.908
71.169
72.61
74.249
76.106
78.183
80.471
82.964
85.653
88.531
91.597
94.843
98.256
101.821
105.521
109.338
113.261
117.274
121.36
125.503
129.685
133.891
138.105
142.31
146.483
150.6
154.638
158.571
162.374
166.023
169.491
172.753
175.784
178.564
181.07
183.283
185.182
186.751
187.973
188.835
189.322
189.425
189.135
188.445
187.35
185.848
183.94
181.628
178.915
175.807
172.313
168.443
164.211
159.63
154.716
149.489
143.967
138.172
132.129
125.861
119.393
112.752
105.965
99.06
92.064
85.006
77.913
70.812
63.731
56.695
49.729
42.86
36.109
29.5
23.053
16.789
10.726
4.88
-0.734
-6.103
-11.214
-16.059
-20.63
-24.919
-28.924
-32.641
-36.071
-39.213
-42.07
-44.648
-46.951
-48.988
-50.767
-52.298
-53.592
-54.661
-55.518
-56.177
-56.651
-56.956
-57.106
-57.115
-57
-56.774
-56.453
-56.051
-55.582
-55.059
-54.494
-53.902
-53.291
-52.674
-52.059
-51.457
-50.874
-50.318
-49.794
-49.309
-48.866
-48.469
-48.119
-47.819
-47.569
-47.369
-47.218
-47.114
-47.056
-47.04
-47.063
-47.121
-47.21
-47.326
-47.465
-47.62
-47.789
-47.966
-48.145
-48.323
-48.495
-48.657
-48.805
-48.934
-49.042
-49.125
-49.18
-49.205
-49.198
-49.158
-49.081
-48.969
-48.819
-48.632
-48.408
-48.147
-47.849
-47.515
-47.147
-46.746
-46.313
-45.851
-45.361
-44.845
-44.307
-43.747
-43.168
-42.574
-41.965
-41.346
-40.716
-40.08
-39.439
-38.795
-38.151
-37.508
-36.867
-36.232
-35.602
-34.981
-34.368
-33.765
-33.173
-32.594
-32.027
-31.474
-30.937
-30.415
-29.91
-29.423
-28.955
-28.507
-28.079
-27.672
-27.287
-26.924
-26.585
-26.269
-25.977
-25.711
-25.47
-25.256
-25.069
-24.91
-24.778
-24.675
-24.6
-24.552
-24.533
-24.54
-24.575
-24.637
-24.725
-24.838
-24.978
-25.142
-25.328
-25.536
-25.762
-26.004
-26.259
-26.524
-26.793
-27.064
-27.333
-27.596
-27.849
-28.088
-28.309
-28.506
-28.674
-28.809
-28.906
-28.958
-28.96
-28.907
-28.795
-28.619
-28.379
-28.069
-27.687
-27.231
-26.697
-26.086
-25.394
-24.62
-23.763
-22.821
-21.798
-20.697
-19.519
-18.271
-16.958
-15.588
-14.171
-12.713
-11.221
-9.702
-8.163
-6.611
-5.053
-3.494
-1.939
-0.394
1.129
2.619
4.066
5.459
6.792
8.056
9.242
10.342
11.351
12.272
13.103
13.842
14.475
14.983
15.358
15.6
15.716
15.715
15.605
15.405
15.153
14.907
14.73
14.664
14.721
14.899
15.207
15.659
16.284
17.098
18.079
19.2
20.447
21.81
23.277
24.782
26.184
27.295
27.937
27.978
27.352
26.011
23.889
20.937
17.139
12.561
7.353
1.642
-4.518
-11.109
-18.052
-25.121
-31.935
-38.028
-42.968
-46.431
-48.05
-47.343
-44.033
-38.119
-29.921
-20.228
-9.804
1.01
11.773
21.892
31.44
40.895
51.328
64.738
82.485
104.871
132.297
164.974
201.597
239.728
275.324
302.768
317.745
317.339
298.484
258.401
196.145
113.047
13.464
-95.95
-209.29
-321.467
-426.9
-519.067
-591.903
-641.701
-667.778
-671.787
-655.864
-621.852
-571.976
-510.896
-444.701
-378.412
-315.773
-258.825
-208.428
-166.063
-133.564
-110.452
-94.515
-83.394
-74.382
-66.045
-58.255
-50.157
-40.352
-28.572
-15.333
-1.718
10.365
19.985
27.24
31.993
34.097
33.69
30.967
26.603
21.836
17.458
13.827
11.216
9.642
9.142
9.859
11.748
14.612
18.289
22.605
27.433
32.732
38.396
44.278
50.213
55.977
61.4
66.381
70.843
74.762
78.128
80.92
83.15
84.866
86.127
87.003
87.555
87.822
87.86
87.741
87.55
87.39
87.342
87.452
87.762
88.299
89.084
90.136
91.464
93.055
94.901
96.996
99.338
101.93
104.769
107.842
111.132
114.622
118.295
122.139
126.136
130.27
134.522
138.875
143.313
147.821
152.379
156.966
161.555
166.121
170.638
175.079
179.418
183.625
187.674
191.538
195.194
198.618
201.787
204.679
207.273
209.551
211.496
213.092
214.325
215.181
215.651
215.727
215.402
214.673
213.537
211.994
210.046
207.697
204.954
201.824
198.318
194.447
190.226
185.67
180.797
175.627
170.18
164.477
158.543
152.402
146.078
139.598
132.987
126.271
119.477
112.631
105.759
98.887
92.04
85.243
78.521
71.895
65.389
59.025
52.821
46.796
40.969
35.354
29.966
24.819
19.923
15.289
10.923
6.832
3.021
-0.507
-3.752
-6.714
-9.396
-11.801
-13.936
-15.806
-17.42
-18.787
-19.918
-20.825
-21.52
-22.016
-22.327
-22.467
-22.453
-22.297
-22.017
-21.628
-21.144
-20.582
-19.955
-19.279
-18.568
-17.835
-17.094
-16.355
-15.632
-14.933
-14.27
-13.651
-13.084
-12.575
-12.131
-11.755
-11.453
-11.227
-11.079
-11.009
-11.018
-11.105
-11.268
-11.504
-11.811
-12.185
-12.621
-13.114
-13.659
-14.251
-14.883
-15.549
-16.244
-16.96
-17.691
-18.431
-19.175
-19.915
-20.647
-21.365
-22.065
-22.741
-23.389
-24.006
-24.589
-25.134
-25.64
-26.104
-26.525
-26.903
-27.236
-27.526
-27.772
-27.976
-28.139
-28.262
-28.347
-28.398
-28.416
-28.404
-28.365
-28.303
-28.221
-28.121
-28.008
-27.885
-27.755
-27.621
-27.486
-27.354
-27.226
-27.105
-26.994
-26.895
-26.81
-26.739
-26.685
-26.649
-26.63
-26.631
-26.65
-26.688
-26.744
-26.819
-26.912
-27.023
-27.15
-27.293
-27.451
-27.624
-27.811
-28.009
-28.218
-28.436
-28.663
-28.898
-29.139
-29.386
-29.637
-29.893
-30.153
-30.416
-30.682
-30.95
-31.219
-31.489
-31.759
-32.029
-32.299
-32.568
-32.836
-33.103
-33.369
-33.635
-33.898
-34.159
-34.415
-34.666
-34.91
-35.144
-35.366
-35.574
-35.765
-35.937
-36.089
-36.217
-36.319
-36.39
-36.428
-36.429
-36.388
-36.301
-36.162
-35.969
-35.717
-35.405
-35.03
-34.589
-34.08
-33.502
-32.852
-32.13
-31.335
-30.464
-29.517
-28.495
-27.401
-26.237
-25.006
-23.715
-22.369
-20.977
-19.547
-18.086
-16.602
-15.101
-13.589
-12.075
-10.564
-9.061
-7.572
-6.107
-4.676
-3.292
-1.966
-0.707
0.474
1.569
2.57
3.471
4.268
4.965
5.562
6.053
6.427
6.667
6.764
6.721
6.543
6.233
5.808
5.288
4.715
4.153
3.654
3.244
2.934
2.723
2.613
2.622
2.77
3.062
3.493
4.05
4.733
5.555
6.49
7.463
8.334
8.917
9.061
8.677
7.708
6.105
3.832
0.855
-2.814
-7.065
-11.789
-16.908
-22.389
-28.239
-34.36
-40.495
-46.263
-51.227
-54.988
-57.27
-57.742
-55.941
-51.67
-44.996
-36.307
-26.477
-16.226
-5.826
4.322
13.659
22.243
30.529
39.556
51.314
67.189
87.497
112.646
142.841
176.771
211.966
244.576
269.282
281.691
278.844
257.601
215.128
150.996
67.163
-31.951
-139.775
-250.105
-357.729
-456.508
-539.395
-601.26
-639.463
-653.986
-647.23
-621.886
-580.054
-525.261
-463.371
-399.952
-339.498
-284.746
-236.38
-194.876
-161.494
-136.764
-119.116
-106.184
-95.322
-84.852
-74.679
-64.803
-54.58
-43.235
-30.796
-18.167
-6.944
1.811
8.061
12.039
13.962
13.787
11.494
7.595
3.08
-1.221
-4.82
-7.491
-9.247
-9.991
-9.556
-7.938
-5.253
-1.672
2.598
7.42
12.723
18.385
24.281
30.256
36.103
41.671
46.849
51.547
55.735
59.395
62.501
65.058
67.097
68.658
69.814
70.63
71.153
71.444
71.568
71.602
71.647
71.78
72.052
72.504
73.163
74.048
75.182
76.574
78.219
80.113
82.25
84.629
87.252
90.117
93.214
96.529
100.044
103.742
107.612
111.641
115.812
120.109
124.515
129.016
133.598
138.242
142.928
147.63
152.324
156.983
161.581
166.092
170.486
174.737
178.818
182.705
186.372
189.798
192.958
195.832
198.398
200.638
202.535
204.073
205.238
206.017
206.402
206.384
205.957
205.12
203.868
202.204
200.129
197.649
194.77
191.501
187.854
183.84
179.474
174.775
169.759
164.448
158.863
153.026
146.962
140.696
134.253
127.659
120.94
114.124
107.236
100.304
93.354
86.411
79.501
72.649
65.878
59.213
52.674
46.284
40.06
34.021
28.184
22.565
17.176
12.029
7.135
2.502
-1.863
-5.955
-9.771
-13.31
-16.571
-19.556
-22.27
-24.717
-26.903
-28.837
-30.528
-31.986
-33.222
-34.248
-35.077
-35.723
-36.2
-36.522
-36.704
-36.762
-36.709
-36.562
-36.335
-36.042
-35.697
-35.315
-34.908
-34.488
-34.068
-33.658
-33.269
-32.909
-32.588
-32.312
-32.088
-31.921
-31.816
-31.776
-31.804
-31.901
-32.068
-32.305
-32.609
-32.981
-33.416
-33.912
-34.465
-35.071
-35.724
-36.419
-37.151
-37.915
-38.704
-39.512
-40.332
-41.16
-41.988
-42.811
-43.622
-44.417
-45.19
-45.936
-46.649
-47.327
-47.964
-48.558
-49.105
-49.602
-50.047
-50.439
-50.776
-51.058
-51.283
-51.453
-51.567
-51.627
-51.633
-51.588
-51.493
-51.349
-51.161
-50.929
-50.657
-50.348
-50.005
-49.63
-49.228
-48.8
-48.352
-47.885
-47.403
-46.91
-46.409
-45.902
-45.392
-44.883
-44.377
-43.876
-43.384
-42.903
-42.434
-41.98
-41.543
-41.124
-40.725
-40.347
-39.992
-39.659
-39.35
-39.066
-38.807
-38.574
-38.367
-38.187
-38.035
-37.91
-37.813
-37.745
-37.705
-37.692
-37.709
-37.753
-37.825
-37.925
-38.053
-38.209
-38.393
-38.605
-38.844
-39.11
-39.401
-39.716
-40.055
-40.416
-40.798
-41.199
-41.618
-42.054
-42.505
-42.97
-43.446
-43.932
-44.425
-44.92
-45.417
-45.91
-46.396
-46.869
-47.327
-47.766
-48.182
-48.571
-48.929
-49.251
-49.534
-49.771
-49.96
-50.094
-50.168
-50.177
-50.118
-49.987
-49.783
-49.503
-49.145
-48.708
-48.191
-47.594
-46.917
-46.159
-45.321
-44.402
-43.405
-42.334
-41.194
-39.989
-38.726
-37.412
-36.058
-34.674
-33.266
-31.844
-30.415
-28.986
-27.565
-26.159
-24.773
-23.413
-22.09
-20.812
-19.593
-18.444
-17.374
-16.39
-15.5
-14.711
-14.029
-13.455
-12.983
-12.612
-12.346
-12.195
-12.177
-12.298
-12.554
-12.938
-13.444
-14.055
-14.746
-15.473
-16.169
-16.779
-17.277
-17.65
-17.9
-18.026
-18.008
-17.825
-17.474
-16.959
-16.293
-15.478
-14.505
-13.403
-12.255
-11.209
-10.463
-10.172
-10.432
-11.302
-12.834
-15.062
-18.02
-21.694
-25.968
-30.733
-35.909
-41.458
-47.383
-53.574
-59.759
-65.542
-70.471
-74.136
-76.254
-76.484
-74.357
-69.681
-62.536
-53.326
-42.942
-32.116
-21.118
-10.368
-0.442
8.699
17.495
26.979
39.123
55.304
75.826
101.057
131.199
164.915
199.683
231.674
255.596
267.042
263.06
240.496
196.415
130.492
44.858
-56.181
-166.095
-278.718
-388.972
-490.356
-575.319
-638.76
-678.102
-692.953
-685.583
-658.275
-612.56
-552.705
-485.473
-416.579
-350.797
-291.371
-239.145
-195.391
-162.332
-139.704
-125.056
-115.781
-108.707
-101.852
-95.117
-87.749
-78.282
-66.474
-52.878
-38.62
-25.777
-15.439
-7.519
-2.159
0.503
0.64
-1.601
-5.571
-10.027
-14.203
-17.714
-20.251
-21.792
-22.273
-21.532
-19.613
-16.691
-12.908
-8.441
-3.418
2.115
8.03
14.193
20.453
26.6
32.487
38
43.049
47.604
51.648
55.153
58.126
60.601
62.616
64.245
65.55
66.573
67.377
68.03
68.61
69.221
69.939
70.815
71.889
73.188
74.731
76.541
78.626
80.978
83.592
86.462
89.584
92.961
96.588
100.453
104.54
108.829
113.303
117.947
122.747
127.686
132.744
137.904
143.149
148.463
153.827
159.216
164.606
169.968
175.274
180.498
185.61
190.58
195.38
199.983
204.361
208.49
212.347
215.907
219.148
222.049
224.593
226.761
228.538
229.911
230.868
231.4
231.5
231.164
230.39
229.176
227.524
225.438
222.925
219.992
216.65
212.911
208.789
204.301
199.465
194.301
188.831
183.076
177.062
170.813
164.356
157.717
150.923
144
136.975
129.876
122.73
115.562
108.399
101.265
94.185
87.183
80.281
73.501
66.861
60.382
54.079
47.97
42.068
36.387
30.937
25.727
20.767
16.061
11.616
7.433
3.514
-0.141
-3.534
-6.667
-9.546
-12.175
-14.563
-16.716
-18.642
-20.353
-21.858
-23.167
-24.291
-25.244
-26.035
-26.678
-27.185
-27.566
-27.834
-28.001
-28.078
-28.075
-28.003
-27.872
-27.692
-27.47
-27.216
-26.937
-26.64
-26.331
-26.015
-25.697
-25.382
-25.072
-24.771
-24.482
-24.204
-23.941
-23.692
-23.457
-23.237
-23.031
-22.838
-22.657
-22.487
-22.326
-22.174
-22.029
-21.889
-21.754
-21.621
-21.491
-21.361
-21.232
-21.102
-20.972
-20.84
-20.708
-20.575
-20.442
-20.31
-20.179
-20.051
-19.927
-19.808
-19.696
-19.592
-19.499
-19.417
-19.35
-19.298
-19.263
-19.247
-19.252
-19.279
-19.329
-19.404
-19.504
-19.629
-19.78
-19.958
-20.161
-20.39
-20.644
-20.922
-21.221
-21.542
-21.883
-22.24
-22.612
-22.997
-23.391
-23.793
-24.198
-24.606
-25.011
-25.413
-25.806
-26.19
-26.559
-26.913
-27.247
-27.56
-27.848
-28.109
-28.342
-28.544
-28.714
-28.852
-28.957
-29.028
-29.065
-29.069
-29.04
-28.98
-28.888
-28.768
-28.621
-28.449
-28.254
-28.04
-27.81
-27.568
-27.315
-27.055
-26.792
-26.527
-26.265
-26.008
-25.758
-25.519
-25.294
-25.084
-24.892
-24.721
-24.573
-24.448
-24.347
-24.27
-24.218
-24.189
-24.181
-24.193
-24.222
-24.266
-24.324
-24.391
-24.465
-24.54
-24.614
-24.681
-24.736
-24.773
-24.786
-24.77
-24.718
-24.627
-24.492
-24.31
-24.075
-23.784
-23.434
-23.022
-22.546
-22.003
-21.39
-20.703
-19.945
-19.115
-18.215
-17.247
-16.215
-15.123
-13.98
-12.792
-11.564
-10.302
-9.012
-7.7
-6.371
-5.032
-3.685
-2.335
-0.991
0.338
1.643
2.912
4.142
5.322
6.446
7.507
8.498
9.419
10.274
11.061
11.776
12.409
12.944
13.376
13.71
13.954
14.108
14.188
14.216
14.231
14.299
14.465
14.752
15.175
15.732
16.433
17.303
18.355
19.58
20.972
22.511
24.185
26.006
27.932
29.874
31.701
33.228
34.308
34.865
34.825
34.129
32.735
30.593
27.723
24.262
20.314
15.963
11.267
6.222
0.961
-4.232
-9.016
-12.956
-15.655
-16.846
-16.156
-13.139
-7.648
0.236
10.082
20.981
32.264
43.575
54.371
64.252
73.361
82.259
92.259
105.145
121.943
143.066
168.932
199.294
232.617
265.915
294.699
314.319
321.154
312.313
284.971
236.862
167.859
80.872
-18.72
-125.157
-233.045
-337.336
-432.33
-511.218
-568.929
-603.659
-616.213
-608.434
-582.511
-540.376
-485.19
-422.915
-359.314
-298.524
-242.921
-193.413
-150.661
-116.081
-90.465
-72.16
-58.667
-47.412
-36.786
-26.7
-17.171
-7.504
3.182
14.858
26.589
36.766
44.303
49.184
51.683
52.032
50.186
46.123
40.373
33.956
27.746
22.27
17.773
14.251
11.805
10.611
10.677
11.894
14.086
17.035
20.596
24.694
29.207
34.012
38.949
43.8
48.408
52.649
56.428
59.714
62.49
64.726
66.429
67.633
68.381
68.751
68.813
68.615
68.219
67.689
67.104
66.567
66.156
65.921
65.902
66.124
66.602
67.358
68.398
69.711
71.288
73.121
75.201
77.53
80.101
82.9
85.91
89.11
92.482
96.01
99.68
103.473
107.373
111.361
115.42
119.537
123.694
127.867
132.032
136.164
140.237
144.226
148.104
151.843
155.418
158.804
161.978
164.916
167.599
170.005
172.114
173.908
175.371
176.488
177.245
177.632
177.637
177.253
176.475
175.3
173.725
171.751
169.379
166.613
163.46
159.928
156.025
151.764
147.158
142.222
136.974
131.432
125.615
119.547
113.247
106.741
100.053
93.206
86.226
79.139
71.969
64.742
57.484
50.22
42.973
35.77
28.633
21.585
14.649
7.845
1.195
-5.284
-11.573
-17.656
-23.517
-29.143
-34.522
-39.641
-44.493
-49.069
-53.362
-57.369
-61.086
-64.511
-67.645
-70.489
-73.046
-75.319
-77.316
-79.041
-80.503
-81.711
-82.674
-83.403
-83.909
-84.204
-84.3
-84.21
-83.947
-83.524
-82.956
-82.256
-81.436
-80.512
-79.495
-78.399
-77.237
-76.02
-74.762
-73.472
-72.163
-70.843
-69.523
-68.212
-66.918
-65.647
-64.408
-63.206
-62.046
-60.933
-59.871
-58.863
-57.912
-57.02
-56.188
-55.417
-54.708
-54.061
-53.474
-52.947
-52.479
-52.069
-51.713
-51.412
-51.161
-50.96
-50.804
-50.693
-50.622
-50.589
-50.592
-50.628
-50.693
-50.786
-50.903
-51.043
-51.202
-51.379
-51.57
-51.775
-51.991
-52.216
-52.448
-52.686
-52.928
-53.173
-53.419
-53.666
-53.911
-54.154
-54.394
-54.629
-54.859
-55.083
-55.299
-55.507
-55.706
-55.895
-56.073
-56.241
-56.396
-56.539
-56.668
-56.783
-56.884
-56.97
-57.041
-57.096
-57.135
-57.158
-57.166
-57.158
-57.135
-57.097
-57.044
-56.978
-56.897
-56.803
-56.697
-56.579
-56.451
-56.313
-56.168
-56.015
-55.858
-55.697
-55.533
-55.367
-55.2
-55.033
-54.867
-54.703
-54.541
-54.383
-54.228
-54.079
-53.935
-53.795
-53.661
-53.529
-53.401
-53.273
-53.144
-53.012
-52.873
-52.724
-52.565
-52.392
-52.203
-51.993
-51.76
-51.499
-51.206
-50.878
-50.508
-50.093
-49.626
-49.105
-48.526
-47.887
-47.186
-46.42
-45.586
-44.684
-43.713
-42.671
-41.556
-40.368
-39.107
-37.775
-36.375
-34.911
-33.386
-31.807
-30.181
-28.517
-26.824
-25.109
-23.379
-21.641
-19.901
-18.169
-16.449
-14.747
-13.07
-11.428
-9.83
-8.29
-6.817
-5.419
-4.105
-2.882
-1.756
-0.731
0.191
1.015
1.74
2.359
2.865
3.24
3.476
3.578
3.547
3.391
3.132
2.795
2.429
2.095
1.83
1.658
1.593
1.628
1.773
2.043
2.434
2.957
3.621
4.426
5.382
6.489
7.689
8.887
9.942
10.681
10.987
10.781
9.985
8.569
6.504
3.793
0.533
-3.184
-7.296
-11.768
-16.606
-21.757
-27.015
-32.081
-36.606
-40.189
-42.533
-43.29
-41.974
-38.372
-32.515
-24.72
-15.765
-6.33
3.292
12.686
21.299
29.165
36.688
44.865
55.603
70.266
89.262
113.035
141.847
174.595
209.077
241.77
267.659
282.442
283.097
266.416
229.445
171.555
94.325
1.571
-100.593
-206.102
-309.581
-404.566
-483.975
-543.037
-579.396
-592.923
-586.017
-561.648
-522.79
-474.12
-421.712
-370.2
-322.648
-280.827
-244.741
-214.015
-188.361
-166.364
-145.67
-124.754
-102.9
-79.96
-56.675
-33.83
-11.943
8.126
25.32
39.103
49.307
56.03
59.767
60.985
60.066
57.539
53.959
49.729
45.218
40.742
36.518
32.828
29.919
27.916
26.91
26.939
27.983
30.015
32.967
36.699
41.063
45.915
51.094
56.478
61.929
67.274
72.376
77.114
81.4
85.2
88.498
91.281
93.567
95.398
96.825
97.931
98.788
99.453
99.996
100.483
100.988
101.598
102.38
103.38
104.637
106.172
108.003
110.146
112.602
115.358
118.403
121.721
125.301
129.135
133.208
137.5
141.987
146.644
151.444
156.369
161.393
166.491
171.638
176.807
181.975
187.118
192.21
197.221
202.119
206.874
211.453
215.827
219.965
223.836
227.41
230.662
233.565
236.098
238.239
239.968
241.266
242.12
242.515
242.441
241.891
240.859
239.341
237.338
234.852
231.888
228.454
224.56
220.217
215.44
210.246
204.655
198.687
192.364
185.713
178.758
171.529
164.054
156.364
148.488
140.46
132.31
124.072
115.777
107.456
99.141
90.863
82.651
74.535
66.541
58.696
51.025
43.552
36.298
29.285
22.531
16.052
9.862
3.976
-1.598
-6.849
-11.771
-16.359
-20.61
-24.525
-28.102
-31.347
-34.262
-36.854
-39.132
-41.104
-42.781
-44.175
-45.299
-46.166
-46.792
-47.193
-47.383
-47.38
-47.2
-46.86
-46.378
-45.77
-45.053
-44.243
-43.356
-42.408
-41.413
-40.386
-39.34
-38.288
-37.241
-36.209
-35.204
-34.232
-33.303
-32.422
-31.595
-30.827
-30.121
-29.481
-28.908
-28.403
-27.966
-27.596
-27.293
-27.054
-26.877
-26.759
-26.695
-26.682
-26.716
-26.792
-26.906
-27.053
-27.228
-27.425
-27.641
-27.87
-28.108
-28.35
-28.592
-28.832
-29.064
-29.287
-29.498
-29.695
-29.876
-30.039
-30.184
-30.31
-30.417
-30.505
-30.574
-30.626
-30.662
-30.683
-30.691
-30.688
-30.677
-30.66
-30.639
-30.617
-30.596
-30.579
-30.568
-30.567
-30.577
-30.601
-30.642
-30.702
-30.783
-30.887
-31.015
-31.167
-31.345
-31.548
-31.776
-32.028
-32.305
-32.604
-32.926
-33.267
-33.627
-34.003
-34.393
-34.792
-35.198
-35.607
-36.015
-36.418
-36.809
-37.186
-37.544
-37.878
-38.185
-38.46
-38.698
-38.895
-39.045
-39.143
-39.184
-39.164
-39.078
-38.923
-38.696
-38.396
-38.022
-37.573
-37.047
-36.446
-35.769
-35.018
-34.195
-33.299
-32.333
-31.301
-30.207
-29.058
-27.858
-26.614
-25.334
-24.027
-22.702
-21.369
-20.034
-18.706
-17.389
-16.093
-14.825
-13.593
-12.402
-11.259
-10.173
-9.153
-8.211
-7.354
-6.588
-5.914
-5.336
-4.855
-4.474
-4.19
-3.998
-3.896
-3.885
-3.97
-4.17
-4.491
-4.925
-5.463
-6.083
-6.753
-7.45
-8.136
-8.763
-9.303
-9.732
-10.04
-10.241
-10.341
-10.332
-10.204
-9.918
-9.441
-8.777
-7.932
-6.942
-5.899
-4.882
-4.001
-3.406
-3.201
-3.467
-4.255
-5.548
-7.307
-9.482
-12.019
-14.9
-18.143
-21.734
-25.612
-29.629
-33.531
-37.056
-39.897
-41.726
-42.159
-40.738
-37.267
-31.831
-24.802
-16.869
-8.584
-0.168
8.023
15.457
22.114
28.343
35.18
44.524
57.488
74.272
95.077
119.934
148.088
177.906
206.062
227.8
239.507
238.595
222.576
189.347
137.647
68.099
-15.843
-108.741
-205.48
-301.21
-390.665
-468.109
-528.161
-567.638
-586.122
-585.229
-567.316
-535.078
-492.117
-443.377
-393.88
-347.127
-305.071
-268.275
-236.491
-209.408
-186.132
-164.788
-143.684
-121.953
-99.318
-76.237
-53.539
-31.819
-11.816
5.476
19.491
30.044
37.172
41.291
42.89
42.37
40.257
37.123
33.358
29.32
25.327
21.591
18.388
15.964
14.439
13.907
14.407
15.919
18.418
21.841
26.043
30.877
36.19
41.814
47.622
53.475
59.198
64.656
69.724
74.312
78.385
81.922
84.909
87.361
89.314
90.818
91.95
92.782
93.372
93.79
94.105
94.389
94.734
95.208
95.86
96.732
97.849
99.233
100.903
102.868
105.118
107.648
110.451
113.52
116.855
120.447
124.282
128.343
132.611
137.068
141.699
146.486
151.409
156.449
161.585
166.798
172.068
177.374
182.688
187.982
193.227
198.393
203.45
208.368
213.115
217.66
221.976
226.035
229.811
233.279
236.415
239.195
241.599
243.609
245.207
246.38
247.113
247.395
247.22
246.582
245.477
243.905
241.867
239.366
236.408
233.003
229.162
224.897
220.225
215.161
209.727
203.944
197.836
191.426
184.743
177.812
170.664
163.327
155.83
148.204
140.479
132.684
124.849
117.004
109.178
101.397
93.69
86.083
78.6
71.266
64.102
57.131
50.371
43.839
37.553
31.526
25.771
20.299
15.118
10.235
5.655
1.381
-2.585
-6.244
-9.599
-12.653
-15.412
-17.883
-20.075
-21.997
-23.659
-25.075
-26.255
-27.214
-27.966
-28.524
-28.904
-29.121
-29.189
-29.125
-28.942
-28.657
-28.283
-27.835
-27.327
-26.773
-26.184
-25.574
-24.954
-24.335
-23.727
-23.139
-22.58
-22.058
-21.578
-21.148
-20.772
-20.454
-20.199
-20.008
-19.884
-19.829
-19.842
-19.924
-20.074
-20.292
-20.576
-20.924
-21.335
-21.806
-22.335
-22.919
-23.555
-24.24
-24.972
-25.747
-26.563
-27.415
-28.301
-29.219
-30.165
-31.136
-32.13
-33.144
-34.176
-35.224
-36.285
-37.359
-38.442
-39.534
-40.633
-41.737
-42.846
-43.959
-45.075
-46.194
-47.314
-48.437
-49.561
-50.687
-51.815
-52.943
-54.072
-55.202
-56.333
-57.463
-58.594
-59.725
-60.855
-61.986
-63.117
-64.249
-65.379
-66.508
-67.635
-68.759
-69.88
-70.996
-72.106
-73.209
-74.304
-75.39
-76.466
-77.531
-78.583
-79.618
-80.635
-81.631
-82.604
-83.548
-84.461
-85.34
-86.18
-86.981
-87.738
-88.448
-89.108
-89.714
-90.263
-90.751
-91.175
-91.528
-91.808
-92.011
-92.135
-92.178
-92.138
-92.015
-91.806
-91.512
-91.132
-90.667
-90.116
-89.479
-88.756
-87.95
-87.065
-86.103
-85.071
-83.975
-82.821
-81.619
-80.379
-79.108
-77.815
-76.507
-75.191
-73.873
-72.561
-71.258
-69.972
-68.712
-67.487
-66.309
-65.19
-64.139
-63.165
-62.276
-61.479
-60.78
-60.181
-59.678
-59.271
-58.964
-58.767
-58.697
-58.761
-58.957
-59.278
-59.722
-60.272
-60.907
-61.589
-62.253
-62.851
-63.353
-63.75
-64.044
-64.232
-64.299
-64.227
-64.013
-63.663
-63.193
-62.604
-61.887
-61.065
-60.205
-59.436
-58.936
-58.85
-59.266
-60.242
-61.821
-64.042
-66.943
-70.511
-74.648
-79.238
-84.192
-89.474
-95.088
-100.949
-106.83
-112.388
-117.22
-120.968
-123.375
-124.119
-122.762
-119.089
-113.123
-105.196
-96.085
-86.472
-76.653
-67.035
-58.166
-50.032
-42.258
-33.905
-23.143
-8.68
9.828
32.785
60.423
91.659
124.408
155.176
179.012
191.968
191.29
174.049
137.627
81.171
5.844
-84.531
-183.955
-287.009
-388.721
-483.332
-564.582
-627.102
-667.747
-686.316
-684.86
-665.714
-631.553
-586.082
-534.301
-481.63
-431.985
-387.365
-348.34
-314.872
-286.728
-263.31
-243.085
-223.94
-204.609
-184.668
-164.335
-144.343
-125.28
-107.606
-92.03
-79.321
-69.833
-63.578
-60.275
-59.372
-60.382
-62.835
-66.207
-70.034
-73.909
-77.533
-80.694
-83.186
-84.849
-85.573
-85.293
-83.994
-81.706
-78.475
-74.383
-69.571
-64.181
-58.391
-52.381
-46.302
-40.326
-34.587
-29.185
-24.223
-19.765
-15.836
-12.452
-9.607
-7.267
-5.401
-3.962
-2.877
-2.086
-1.517
-1.089
-0.729
-0.35
0.12
0.731
1.524
2.531
3.772
5.264
7.015
9.019
11.273
13.775
16.52
19.505
22.723
26.162
29.806
33.637
37.637
41.791
46.082
50.496
55.014
59.619
64.295
69.027
73.796
78.581
83.357
88.098
92.779
97.375
101.859
106.205
110.388
114.382
118.164
121.714
125.01
128.031
130.76
133.178
135.27
137.021
138.419
139.454
140.117
140.4
140.299
139.813
138.939
137.68
136.039
134.02
131.631
128.881
125.78
122.341
118.577
114.504
110.141
105.506
100.619
95.501
90.175
84.664
78.991
73.182
67.259
61.248
55.172
49.056
42.925
36.802
30.709
24.671
18.709
12.843
7.095
1.483
-3.974
-9.259
-14.357
-19.254
-23.936
-28.392
-32.611
-36.585
-40.306
-43.769
-46.968
-49.901
-52.566
-54.963
-57.093
-58.959
-60.565
-61.915
-63.015
-63.873
-64.496
-64.893
-65.074
-65.048
-64.827
-64.421
-63.843
-63.104
-62.217
-61.194
-60.047
-58.789
-57.432
-55.988
-54.469
-52.886
-51.251
-49.573
-47.864
-46.134
-44.391
-42.644
-40.901
-39.171
-37.46
-35.773
-34.118
-32.498
-30.919
-29.384
-27.897
-26.461
-25.077
-23.747
-22.473
-21.256
-20.095
-18.99
-17.941
-16.947
-16.006
-15.118
-14.279
-13.488
-12.744
-12.042
-11.382
-10.76
-10.174
-9.62
-9.096
-8.6
-8.127
-7.676
-7.244
-6.827
-6.424
-6.032
-5.649
-5.271
-4.897
-4.525
-4.151
-3.774
-3.393
-3.004
-2.608
-2.202
-1.786
-1.359
-0.921
-0.471
-0.008
0.466
0.953
1.451
1.96
2.479
3.007
3.542
4.084
4.629
5.177
5.726
6.273
6.819
7.36
7.895
8.422
8.94
9.448
9.942
10.422
10.884
11.328
11.751
12.153
12.534
12.892
13.227
13.541
13.833
14.106
14.361
14.597
14.818
15.024
15.218
15.404
15.584
15.762
15.942
16.13
16.331
16.548
16.788
17.052
17.344
17.667
18.026
18.424
18.863
19.345
19.875
20.455
21.088
21.778
22.523
23.325
24.182
25.094
26.058
27.069
28.122
29.211
30.334
31.485
32.66
33.856
35.067
36.29
37.523
38.76
39.995
41.219
42.422
43.595
44.733
45.828
46.874
47.866
48.8
49.677
50.5
51.269
51.977
52.617
53.169
53.626
53.991
54.264
54.452
54.573
54.652
54.734
54.88
55.121
55.479
55.968
56.577
57.314
58.195
59.215
60.382
61.706
63.179
64.809
66.59
68.462
70.319
72.018
73.378
74.277
74.635
74.371
73.45
71.84
69.528
66.601
63.145
59.21
54.837
50.03
44.838
39.473
34.255
29.544
25.762
23.229
22.278
23.395
26.802
32.467
40.105
48.96
58.344
67.986
77.436
86.081
93.973
101.512
109.679
120.432
135.064
153.904
177.49
206.143
238.787
273.277
305.818
331.097
344.965
344.491
326.591
288.465
228.984
149.268
53.446
-52.203
-161.991
-270.911
-373.551
-463.492
-534.668
-583.351
-608.745
-612.338
-596.156
-561.949
-511.852
-450.479
-383.901
-317.18
-254.158
-196.912
-146.362
-104.053
-71.795
-49.113
-33.789
-23.391
-15.167
-7.66
-0.694
6.615
15.661
26.746
39.37
52.446
64.099
73.384
80.392
85.004
87.049
86.639
83.958
79.654
74.945
70.63
67.059
64.492
62.956
62.489
63.229
65.142
68.024
71.707
76.02
80.834
86.112
91.757
97.626
103.559
109.345
114.811
119.861
124.424
128.472
131.994
134.969
137.407
139.356
140.876
142.038
142.902
143.508
143.91
144.178
144.396
144.665
145.06
145.629
146.409
147.424
148.694
150.238
152.059
154.144
156.481
159.063
161.884
164.944
168.237
171.746
175.453
179.338
183.38
187.565
191.875
196.288
200.785
205.347
209.955
214.593
219.239
223.871
228.462
232.985
237.413
241.721
245.88
249.863
253.644
257.198
260.502
263.533
266.272
268.699
270.794
272.542
273.93
274.943
275.571
275.805
275.639
275.067
274.087
272.7
270.906
268.709
266.115
263.13
259.765
256.032
251.941
247.51
242.752
237.688
232.335
226.714
220.848
214.759
208.469
202.005
195.389
188.647
181.804
174.884
167.911
160.909
153.903
146.914
139.966
133.08
126.276
119.574
112.992
106.548
100.258
94.136
88.195
82.449
76.907
71.579
66.472
61.594
56.949
52.541
48.372
44.443
40.754
37.303
34.087
31.102
28.343
25.803
23.476
21.353
19.426
17.685
16.121
14.724
13.482
12.384
11.419
10.577
9.845
9.213
8.67
8.204
7.806
7.464
7.17
6.914
6.686
6.479
6.283
6.093
5.9
5.698
5.482
5.246
4.986
4.696
4.375
4.018
3.624
3.19
2.716
2.199
1.64
1.038
0.394
-0.291
-1.017
-1.781
-2.584
-3.422
-4.294
-5.198
-6.132
-7.093
-8.08
-9.091
-10.123
-11.174
-12.242
-13.325
-14.421
-15.528
-16.645
-17.769
-18.9
-20.035
-21.175
-22.317
-23.461
-24.606
-25.751
-26.896
-28.041
-29.185
-30.328
-31.471
-32.614
-33.758
-34.904
-36.052
-37.204
-38.361
-39.525
-40.697
-41.88
-43.073
-44.28
-45.502
-46.74
-47.997
-49.273
-50.572
-51.894
-53.242
-54.618
-56.022
-57.455
-58.918
-60.411
-61.935
-63.489
-65.074
-66.688
-68.331
-70.002
-71.7
-73.423
-75.168
-76.932
-78.711
-80.502
-82.299
-84.097
-85.889
-87.669
-89.431
-91.168
-92.874
-94.54
-96.159
-97.722
-99.221
-100.647
-101.99
-103.24
-104.388
-105.425
-106.341
-107.13
-107.783
-108.294
-108.656
-108.863
-108.909
-108.79
-108.499
-108.034
-107.389
-106.562
-105.553
-104.363
-102.994
-101.447
-99.728
-97.843
-95.8
-93.608
-91.274
-88.805
-86.21
-83.498
-80.678
-77.758
-74.747
-71.656
-68.496
-65.281
-62.028
-58.752
-55.463
-52.177
-48.906
-45.661
-42.454
-39.29
-36.171
-33.107
-30.108
-27.191
-24.377
-21.681
-19.105
-16.654
-14.327
-12.11
-9.981
-7.901
-5.817
-3.697
-1.527
0.705
2.985
5.316
7.708
10.157
12.67
15.255
17.905
20.625
23.408
26.196
28.885
31.33
33.352
34.824
35.66
35.783
35.164
33.775
31.61
28.749
25.27
21.226
16.661
11.574
6.015
0.182
-5.618
-11.007
-15.543
-18.884
-20.662
-20.391
-17.844
-13.042
-6.264
1.758
10.357
19.25
27.98
35.949
43.213
50.204
57.957
68.412
82.854
101.602
125.159
153.883
186.736
221.59
254.649
280.497
294.882
294.84
277.249
239.267
179.741
99.595
2.799
-104.112
-215.277
-325.469
-428.979
-519.602
-591.492
-640.628
-666.028
-669.474
-653.088
-619.076
-570.168
-510.269
-444.768
-378.797
-316.068
-258.307
-206.364
-161.049
-123.329
-93.618
-70.575
-51.967
-35.502
-20.029
-5.452
8.295
21.741
35.738
50.318
64.564
76.995
86.636
93.438
97.692
99.63
99.136
96.212
91.376
85.62
79.917
74.819
70.556
67.166
64.736
63.431
63.302
64.237
66.044
68.528
71.539
75.006
78.866
83.002
87.268
91.472
95.39
98.876
101.846
104.247
106.068
107.295
107.916
107.967
107.524
106.67
105.486
104.035
102.36
100.526
98.617
96.728
94.965
93.404
92.092
91.067
90.357
89.985
89.971
90.313
90.993
91.995
93.31
94.932
96.859
99.079
101.571
104.311
107.277
110.446
113.796
117.305
120.946
124.694
128.523
132.412
136.339
140.276
144.195
148.066
151.858
155.539
159.078
162.446
165.609
168.539
171.209
173.593
175.667
177.409
178.799
179.818
180.449
180.68
180.497
179.892
178.856
177.386
175.478
173.135
170.357
167.151
163.522
159.482
155.042
150.216
145.02
139.471
133.59
127.397
120.915
114.17
107.186
99.99
92.609
85.071
77.406
69.642
61.807
53.931
46.04
38.162
30.325
22.555
14.875
7.311
-0.114
-7.38
-14.465
-21.352
-28.022
-34.46
-40.652
-46.586
-52.251
-57.638
-62.741
-67.553
-72.071
-76.292
-80.217
-83.847
-87.183
-90.231
-92.996
-95.485
-97.706
-99.668
-101.381
-102.857
-104.108
-105.146
-105.984
-106.635
-107.115
-107.436
-107.613
-107.661
-107.592
-107.422
-107.164
-106.83
-106.434
-105.988
-105.503
-104.991
-104.462
-103.925
-103.39
-102.864
-102.355
-101.87
-101.414
-100.993
-100.609
-100.268
-99.972
-99.722
-99.521
-99.368
-99.264
-99.209
-99.201
-99.239
-99.321
-99.445
-99.607
-99.806
-100.037
-100.298
-100.584
-100.893
-101.219
-101.561
-101.913
-102.272
-102.635
-102.998
-103.357
-103.71
-104.054
-104.385
-104.701
-105
-105.278
-105.536
-105.769
-105.978
-106.16
-106.314
-106.439
-106.536
-106.603
-106.639
-106.646
-106.623
-106.571
-106.489
-106.379
-106.24
-106.075
-105.883
-105.667
-105.427
-105.165
-104.882
-104.581
-104.264
-103.931
-103.585
-103.228
-102.861
-102.486
-102.105
-101.721
-101.335
-100.95
-100.567
-100.189
-99.818
-99.456
-99.104
-98.762
-98.434
-98.119
-97.818
-97.533
-97.263
-97.009
-96.773
-96.554
-96.352
-96.167
-95.998
-95.844
-95.702
-95.572
-95.45
-95.334
-95.22
-95.107
-94.99
-94.869
-94.738
-94.595
-94.436
-94.257
-94.052
-93.819
-93.55
-93.242
-92.889
-92.487
-92.033
-91.524
-90.958
-90.332
-89.643
-88.89
-88.072
-87.186
-86.232
-85.208
-84.114
-82.952
-81.724
-80.434
-79.086
-77.685
-76.237
-74.751
-73.234
-71.693
-70.134
-68.563
-66.985
-65.409
-63.838
-62.276
-60.731
-59.211
-57.724
-56.282
-54.895
-53.568
-52.311
-51.13
-50.03
-49.016
-48.088
-47.242
-46.479
-45.805
-45.228
-44.764
-44.422
-44.196
-44.086
-44.084
-44.171
-44.319
-44.484
-44.605
-44.648
-44.59
-44.419
-44.141
-43.75
-43.231
-42.587
-41.808
-40.886
-39.821
-38.603
-37.235
-35.769
-34.303
-32.979
-31.968
-31.396
-31.345
-31.892
-33.076
-34.93
-37.458
-40.584
-44.227
-48.331
-52.868
-57.848
-63.23
-68.828
-74.352
-79.442
-83.685
-86.762
-88.304
-87.818
-85.056
-80.01
-72.951
-64.596
-55.602
-46.266
-37.037
-28.511
-20.661
-13.079
-4.737
6.308
21.391
40.922
65.456
95.391
129.741
166.398
201.576
229.876
247.021
249.957
235.433
200.402
143.46
65.436
-29.736
-135.73
-246.833
-357.991
-463.618
-557.097
-631.997
-684.143
-712.472
-718.332
-703.606
-669.981
-619.529
-556.831
-488.201
-418.998
-353.262
-293.293
-240.143
-195.424
-161.141
-136.929
-120.485
-109.281
-100.41
-92.267
-84.654
-76.668
-66.839
-54.851
-41.227
-27.106
-14.5
-4.425
3.207
8.26
10.588
10.329
7.669
3.293
-1.515
-5.927
-9.566
-12.152
-13.67
-14.081
-13.231
-11.159
-8.067
-4.127
0.478
5.613
11.233
17.232
23.457
29.743
35.864
41.648
46.994
51.827
56.121
59.868
63.045
65.664
67.776
69.439
70.729
71.71
72.422
72.925
73.291
73.606
73.973
74.472
75.15
76.045
77.183
78.582
80.264
82.233
84.476
86.982
89.743
92.756
96.02
99.53
103.27
107.222
111.366
115.682
120.157
124.772
129.507
134.343
139.26
144.241
149.268
154.321
159.375
164.405
169.382
174.28
179.072
183.73
188.225
192.531
196.621
200.471
204.059
207.362
210.36
213.033
215.363
217.335
218.934
220.149
220.97
221.387
221.395
220.99
220.172
218.94
217.297
215.248
212.8
209.962
206.744
203.16
199.223
194.951
190.361
185.474
180.31
174.892
169.243
163.387
157.351
151.159
144.838
138.413
131.911
125.357
118.777
112.197
105.64
99.131
92.693
86.348
80.117
74.02
68.077
62.304
56.718
51.333
46.162
41.218
36.509
32.045
27.833
23.878
20.183
16.751
13.582
10.675
8.028
5.638
3.498
1.602
-0.057
-1.487
-2.699
-3.702
-4.508
-5.128
-5.575
-5.861
-5.999
-6.003
-5.886
-5.661
-5.341
-4.939
-4.469
-3.942
-3.372
-2.768
-2.142
-1.506
-0.867
-0.237
0.378
0.97
1.531
2.055
2.539
2.976
3.363
3.697
3.977
4.2
4.366
4.475
4.527
4.524
4.466
4.356
4.198
3.992
3.744
3.457
3.134
2.78
2.399
1.995
1.573
1.138
0.693
0.244
-0.205
-0.65
-1.087
-1.512
-1.921
-2.311
-2.679
-3.021
-3.336
-3.62
-3.872
-4.091
-4.274
-4.42
-4.53
-4.601
-4.635
-4.632
-4.591
-4.514
-4.401
-4.255
-4.075
-3.865
-3.625
-3.358
-3.066
-2.752
-2.418
-2.067
-1.702
-1.328
-0.946
-0.561
-0.176
0.206
0.582
0.948
1.302
1.639
1.956
2.251
2.519
2.759
2.967
3.141
3.279
3.38
3.441
3.463
3.443
3.383
3.28
3.136
2.95
2.721
2.452
2.143
1.797
1.415
1
0.555
0.084
-0.409
-0.919
-1.442
-1.974
-2.51
-3.047
-3.577
-4.097
-4.6
-5.081
-5.533
-5.95
-6.325
-6.654
-6.931
-7.152
-7.315
-7.415
-7.449
-7.416
-7.314
-7.141
-6.896
-6.578
-6.185
-5.717
-5.178
-4.57
-3.896
-3.16
-2.368
-1.526
-0.645
0.269
1.208
2.167
3.137
4.114
5.087
6.053
7.006
7.939
8.844
9.712
10.53
11.29
11.987
12.613
13.163
13.632
14.016
14.316
14.538
14.681
14.741
14.709
14.571
14.319
13.96
13.493
12.928
12.285
11.589
10.888
10.239
9.676
9.22
8.886
8.669
8.579
8.636
8.833
9.185
9.701
10.379
11.231
12.251
13.374
14.495
15.472
16.127
16.342
16.036
15.12
13.559
11.319
8.389
4.863
0.819
-3.704
-8.676
-14.099
-19.919
-25.907
-31.738
-37.045
-41.4
-44.485
-45.943
-45.265
-42.242
-36.943
-29.711
-21.372
-12.633
-3.749
4.85
12.554
19.43
25.958
33.237
43.345
57.714
76.707
100.808
130.319
164.009
199.413
232.612
258.14
271.396
269.209
248.233
205.334
139.933
53.996
-48.231
-160.187
-275.441
-388.61
-493.132
-581.27
-647.766
-690.011
-707.184
-701.156
-674.364
-628.455
-567.411
-497.997
-425.634
-354.66
-289.153
-230.79
-180.905
-141.976
-114.216
-95.29
-83.35
-76.074
-70.571
-65.872
-61.047
-54.167
-44.74
-33.34
-20.368
-7.171
4.499
14.155
21.445
25.799
27.415
26.588
23.596
19.37
14.959
10.967
7.851
5.874
5.015
5.327
6.859
9.479
13.011
17.268
22.073
27.317
32.908
38.739
44.661
50.475
56.014
61.146
65.779
69.882
73.438
76.422
78.842
80.733
82.135
83.123
83.769
84.117
84.232
84.186
84.058
83.953
83.954
84.12
84.496
85.11
85.983
87.137
88.581
90.309
92.314
94.591
97.135
99.947
103.025
106.355
109.92
113.701
117.678
121.837
126.162
130.634
135.236
139.947
144.751
149.631
154.569
159.538
164.514
169.467
174.37
179.194
183.911
188.491
192.903
197.122
201.121
204.876
208.362
211.556
214.437
216.984
219.179
221.005
222.449
223.497
224.138
224.364
224.169
223.549
222.504
221.034
219.139
216.826
214.102
210.976
207.458
203.562
199.302
194.695
189.761
184.52
178.994
173.205
167.177
160.937
154.51
147.922
141.199
134.368
127.456
120.489
113.493
106.495
99.518
92.588
85.729
78.962
72.311
65.795
59.434
53.245
47.246
41.45
35.873
30.527
25.42
20.564
15.965
11.629
7.561
3.762
0.234
-3.024
-6.013
-8.737
-11.2
-13.409
-15.369
-17.089
-18.578
-19.846
-20.902
-21.757
-22.424
-22.913
-23.238
-23.41
-23.442
-23.347
-23.136
-22.824
-22.42
-21.939
-21.39
-20.786
-20.136
-19.452
-18.742
-18.016
-17.283
-16.55
-15.824
-15.113
-14.421
-13.754
-13.117
-12.514
-11.948
-11.422
-10.939
-10.5
-10.106
-9.759
-9.458
-9.205
-8.997
-8.836
-8.72
-8.648
-8.618
-8.63
-8.681
-8.77
-8.895
-9.054
-9.245
-9.467
-9.716
-9.991
-10.29
-10.612
-10.955
-11.316
-11.694
-12.089
-12.497
-12.918
-13.351
-13.794
-14.246
-14.706
-15.173
-15.646
-16.124
-16.606
-17.092
-17.581
-18.072
-18.564
-19.057
-19.55
-20.042
-20.533
-21.023
-21.51
-21.995
-22.477
-22.957
-23.434
-23.908
-24.38
-24.848
-25.314
-25.776
-26.236
-26.693
-27.148
-27.6
-28.052
-28.502
-28.952
-29.401
-29.85
-30.299
-30.746
-31.194
-31.64
-32.085
-32.529
-32.972
-33.413
-33.852
-34.29
-34.725
-35.155
-35.58
-35.999
-36.409
-36.808
-37.194
-37.563
-37.915
-38.246
-38.553
-38.836
-39.089
-39.311
-39.497
-39.645
-39.75
-39.808
-39.815
-39.767
-39.661
-39.495
-39.268
-38.977
-38.621
-38.199
-37.711
-37.155
-36.533
-35.842
-35.084
-34.259
-33.37
-32.42
-31.414
-30.356
-29.251
-28.108
-26.934
-25.738
-24.526
-23.305
-22.082
-20.863
-19.656
-18.465
-17.296
-16.155
-15.051
-13.992
-12.99
-12.054
-11.19
-10.406
-9.708
-9.1
-8.588
-8.17
-7.841
-7.601
-7.457
-7.414
-7.49
-7.689
-8.006
-8.44
-8.982
-9.611
-10.3
-11.005
-11.666
-12.249
-12.733
-13.102
-13.364
-13.51
-13.524
-13.405
-13.141
-12.721
-12.147
-11.411
-10.516
-9.518
-8.515
-7.647
-7.087
-6.959
-7.341
-8.311
-9.902
-12.142
-15.045
-18.539
-22.551
-27.036
-31.957
-37.315
-43.07
-49.03
-54.897
-60.309
-64.84
-68.158
-69.911
-69.618
-67.047
-62.215
-55.396
-47.308
-38.62
-29.626
-20.794
-12.754
-5.472
1.483
9.148
19.502
33.896
52.736
76.64
106.068
140.043
176.424
211.341
239.28
255.851
257.912
242.129
205.386
146.278
65.723
-32.183
-140.932
-254.572
-367.828
-474.964
-569.211
-644.102
-695.552
-722.601
-726.744
-710.066
-674.436
-622.13
-557.943
-488.272
-418.461
-352.516
-292.65
-239.845
-195.67
-161.993
-138.303
-122.227
-111.209
-102.392
-94.247
-86.595
-78.541
-68.642
-56.616
-43.027
-29.034
-16.604
-6.707
0.768
5.706
7.937
7.586
4.853
0.426
-4.418
-8.856
-12.529
-15.169
-16.75
-17.226
-16.446
-14.445
-11.431
-7.577
-3.061
1.982
7.514
13.43
19.578
25.788
31.834
37.539
42.801
47.547
51.746
55.388
58.449
60.94
62.914
64.432
65.567
66.382
66.917
67.233
67.404
67.518
67.683
67.978
68.454
69.154
70.104
71.325
72.841
74.655
76.756
79.135
81.785
84.703
87.891
91.344
95.049
98.988
103.14
107.489
112.02
116.714
121.553
126.516
131.585
136.74
141.966
147.24
152.538
157.832
163.095
168.296
173.409
178.402
183.246
187.91
192.368
196.592
200.557
204.239
207.615
210.663
213.362
215.694
217.644
219.195
220.337
221.056
221.347
221.203
220.62
219.598
218.137
216.24
213.912
211.162
207.999
204.436
200.486
196.165
191.492
186.486
181.169
175.563
169.693
163.583
157.262
150.755
144.089
137.294
130.395
123.42
116.398
109.355
102.318
95.311
88.362
81.493
74.728
68.089
61.598
55.272
49.13
43.188
37.462
31.964
26.706
21.697
16.947
12.46
8.242
4.295
0.622
-2.78
-5.911
-8.775
-11.378
-13.726
-15.826
-17.687
-19.319
-20.733
-21.939
-22.951
-23.78
-24.44
-24.944
-25.306
-25.539
-25.657
-25.675
-25.604
-25.458
-25.25
-24.992
-24.695
-24.371
-24.03
-23.681
-23.334
-22.996
-22.676
-22.379
-22.112
-21.879
-21.684
-21.531
-21.421
-21.358
-21.342
-21.374
-21.452
-21.577
-21.747
-21.96
-22.215
-22.508
-22.836
-23.197
-23.586
-24.002
-24.439
-24.894
-25.364
-25.845
-26.334
-26.826
-27.318
-27.808
-28.291
-28.767
-29.231
-29.683
-30.119
-30.538
-30.939
-31.321
-31.682
-32.023
-32.341
-32.639
-32.915
-33.17
-33.404
-33.618
-33.814
-33.992
-34.153
-34.298
-34.43
-34.55
-34.658
-34.756
-34.847
-34.932
-35.012
-35.089
-35.166
-35.243
-35.324
-35.409
-35.501
-35.602
-35.711
-35.833
-35.966
-36.114
-36.277
-36.457
-36.654
-36.871
-37.109
-37.368
-37.65
-37.955
-38.282
-38.633
-39.007
-39.404
-39.824
-40.267
-40.731
-41.216
-41.723
-42.25
-42.795
-43.358
-43.936
-44.527
-45.128
-45.736
-46.347
-46.959
-47.567
-48.168
-48.758
-49.336
-49.895
-50.433
-50.944
-51.425
-51.87
-52.274
-52.632
-52.939
-53.189
-53.38
-53.509
-53.573
-53.569
-53.495
-53.349
-53.129
-52.834
-52.463
-52.014
-51.485
-50.879
-50.198
-49.443
-48.62
-47.732
-46.786
-45.788
-44.749
-43.672
-42.565
-41.434
-40.285
-39.123
-37.954
-36.782
-35.613
-34.454
-33.315
-32.206
-31.138
-30.12
-29.157
-28.258
-27.428
-26.673
-25.995
-25.389
-24.853
-24.393
-24.019
-23.747
-23.586
-23.532
-23.58
-23.726
-23.957
-24.25
-24.567
-24.845
-25.035
-25.114
-25.072
-24.912
-24.632
-24.217
-23.648
-22.922
-22.044
-21.029
-19.877
-18.58
-17.168
-15.718
-14.374
-13.321
-12.712
-12.641
-13.169
-14.353
-16.231
-18.842
-22.179
-26.138
-30.615
-35.539
-40.88
-46.642
-52.724
-58.866
-64.691
-69.763
-73.686
-76.176
-76.89
-75.35
-71.35
-64.951
-56.535
-46.964
-36.955
-26.785
-16.878
-7.831
0.381
8.192
16.652
27.767
42.965
62.623
87.192
116.963
150.675
185.848
218.629
243.645
256.368
253.704
232.331
189.139
123.643
37.86
-63.938
-175.151
-289.505
-401.781
-505.284
-592.249
-657.37
-697.898
-713.328
-705.919
-677.965
-631.034
-569.514
-500.317
-429.307
-361.407
-299.936
-245.753
-200.153
-165.37
-141.093
-124.819
-113.875
-105.015
-96.273
-87.594
-78.264
-66.87
-53.198
-37.827
-21.917
-7.574
4.082
13.12
19.408
22.827
23.538
21.686
17.894
13.38
8.971
5.11
2.139
0.128
-0.855
-0.645
0.747
3.161
6.464
10.488
15.094
20.219
25.763
31.605
37.618
43.623
49.43
54.89
59.897
64.396
68.365
71.779
74.624
76.913
78.694
80.045
81.039
81.731
82.172
82.42
82.547
82.644
82.808
83.107
83.587
84.284
85.223
86.429
87.923
89.709
91.777
94.117
96.722
99.59
102.723
106.113
109.744
113.599
117.659
121.907
126.329
130.909
135.626
140.461
145.394
150.406
155.481
160.596
165.725
170.84
175.914
180.917
185.822
190.597
195.213
199.641
203.852
207.82
211.52
214.928
218.02
220.773
223.169
225.189
226.817
228.038
228.839
229.211
229.145
228.638
227.685
226.285
224.44
222.154
219.431
216.282
212.715
208.745
204.384
199.65
194.561
189.14
183.407
177.386
171.101
164.581
157.85
150.939
143.874
136.683
129.397
122.043
114.649
107.244
99.856
92.51
85.233
78.051
70.987
64.065
57.306
50.729
44.355
38.2
32.279
26.607
21.196
16.056
11.195
6.62
2.337
-1.652
-5.345
-8.742
-11.845
-14.658
-17.187
-19.437
-21.416
-23.134
-24.601
-25.827
-26.826
-27.61
-28.192
-28.586
-28.806
-28.867
-28.785
-28.572
-28.246
-27.819
-27.306
-26.721
-26.078
-25.39
-24.669
-23.927
-23.175
-22.423
-21.681
-20.957
-20.26
-19.597
-18.972
-18.393
-17.863
-17.385
-16.963
-16.598
-16.292
-16.044
-15.855
-15.723
-15.646
-15.624
-15.653
-15.731
-15.853
-16.018
-16.221
-16.458
-16.725
-17.018
-17.332
-17.663
-18.008
-18.362
-18.722
-19.084
-19.445
-19.801
-20.149
-20.488
-20.815
-21.128
-21.424
-21.703
-21.964
-22.206
-22.43
-22.634
-22.821
-22.99
-23.144
-23.283
-23.41
-23.526
-23.633
-23.733
-23.829
-23.923
-24.017
-24.115
-24.219
-24.332
-24.458
-24.597
-24.754
-24.929
-25.125
-25.342
-25.584
-25.851
-26.143
-26.461
-26.807
-27.18
-27.581
-28.01
-28.465
-28.945
-29.448
-29.972
-30.514
-31.071
-31.637
-32.21
-32.786
-33.359
-33.927
-34.484
-35.026
-35.548
-36.045
-36.51
-36.938
-37.323
-37.658
-37.938
-38.159
-38.315
-38.406
-38.426
-38.373
-38.244
-38.039
-37.754
-37.389
-36.943
-36.414
-35.801
-35.108
-34.337
-33.492
-32.577
-31.597
-30.561
-29.479
-28.358
-27.205
-26.029
-24.836
-23.634
-22.43
-21.23
-20.041
-18.869
-17.723
-16.614
-15.555
-14.556
-13.624
-12.768
-11.996
-11.311
-10.721
-10.225
-9.819
-9.504
-9.286
-9.172
-9.181
-9.319
-9.584
-9.973
-10.478
-11.078
-11.749
-12.44
-13.091
-13.666
-14.141
-14.503
-14.757
-14.897
-14.906
-14.789
-14.535
-14.134
-13.59
-12.89
-12.037
-11.086
-10.135
-9.322
-8.82
-8.748
-9.184
-10.206
-11.843
-14.124
-17.049
-20.522
-24.451
-28.775
-33.457
-38.503
-43.861
-49.327
-54.607
-59.354
-63.17
-65.758
-66.773
-65.733
-62.424
-56.869
-49.374
-40.698
-31.518
-22.139
-12.99
-4.633
2.944
10.131
17.909
28.162
42.261
60.657
83.848
112.161
144.553
178.861
211.571
237.673
252.833
253.954
237.738
201.128
143.404
66.088
-27.004
-129.721
-235.948
-340.226
-436.012
-516.144
-575.789
-612.552
-626.327
-619.58
-595.345
-556.665
-508.281
-456.286
-405.336
-358.506
-317.537
-282.38
-252.616
-227.904
-206.793
-186.931
-166.789
-145.644
-123.356
-100.674
-78.389
-57.031
-37.466
-20.74
-7.385
2.435
8.822
12.267
13.237
12.112
9.424
5.725
1.413
-3.144
-7.634
-11.842
-15.488
-18.327
-20.237
-21.128
-20.965
-19.768
-17.567
-14.428
-10.495
-5.915
-0.837
4.577
10.201
15.895
21.485
26.832
31.813
36.336
40.369
43.889
46.885
49.371
51.387
52.982
54.236
55.222
55.996
56.627
57.182
57.735
58.373
59.165
60.157
61.39
62.888
64.67
66.754
69.147
71.838
74.818
78.08
81.613
85.415
89.476
93.779
98.307
103.038
107.952
113.033
118.261
123.616
129.077
134.621
140.227
145.877
151.545
157.205
162.827
168.382
173.837
179.165
184.334
189.311
194.067
198.574
202.804
206.732
210.332
213.582
216.459
218.944
221.018
222.666
223.875
224.631
224.927
224.754
224.109
222.991
221.399
219.337
216.808
213.82
210.385
206.512
202.218
197.518
192.431
186.978
181.182
175.067
168.658
161.984
155.072
147.951
140.652
133.204
125.639
117.985
110.273
102.533
94.795
87.087
79.436
71.871
64.415
57.096
49.934
42.954
36.174
29.613
23.289
17.217
11.411
5.883
0.641
-4.305
-8.95
-13.288
-17.319
-21.041
-24.455
-27.566
-30.377
-32.894
-35.126
-37.081
-38.769
-40.202
-41.392
-42.352
-43.095
-43.635
-43.988
-44.168
-44.19
-44.069
-43.819
-43.457
-42.995
-42.449
-41.831
-41.155
-40.433
-39.678
-38.901
-38.111
-37.32
-36.535
-35.764
-35.015
-34.293
-33.605
-32.953
-32.342
-31.775
-31.253
-30.777
-30.348
-29.965
-29.628
-29.334
-29.083
-28.871
-28.696
-28.555
-28.444
-28.36
-28.301
-28.262
-28.24
-28.231
-28.234
-28.244
-28.259
-28.276
-28.292
-28.306
-28.314
-28.316
-28.31
-28.295
-28.271
-28.238
-28.196
-28.145
-28.087
-28.022
-27.952
-27.878
-27.802
-27.726
-27.652
-27.584
-27.523
-27.473
-27.436
-27.415
-27.413
-27.431
-27.472
-27.537
-27.629
-27.747
-27.894
-28.07
-28.276
-28.513
-28.78
-29.079
-29.408
-29.765
-30.149
-30.559
-30.991
-31.442
-31.907
-32.384
-32.868
-33.355
-33.842
-34.324
-34.795
-35.251
-35.687
-36.097
-36.474
-36.813
-37.107
-37.35
-37.537
-37.665
-37.731
-37.73
-37.66
-37.518
-37.302
-37.011
-36.644
-36.198
-35.672
-35.066
-34.383
-33.624
-32.795
-31.898
-30.939
-29.926
-28.868
-27.773
-26.649
-25.501
-24.338
-23.165
-21.99
-20.819
-19.657
-18.51
-17.387
-16.298
-15.256
-14.269
-13.345
-12.492
-11.717
-11.023
-10.416
-9.897
-9.459
-9.104
-8.836
-8.664
-8.605
-8.666
-8.842
-9.131
-9.524
-10.002
-10.536
-11.078
-11.564
-11.958
-12.236
-12.385
-12.41
-12.304
-12.051
-11.656
-11.11
-10.404
-9.543
-8.516
-7.325
-6.027
-4.726
-3.564
-2.718
-2.313
-2.427
-3.14
-4.488
-6.503
-9.185
-12.438
-16.167
-20.311
-24.833
-29.739
-34.978
-40.345
-45.539
-50.204
-53.936
-56.432
-57.341
-56.179
-52.718
-46.979
-39.272
-30.365
-20.945
-11.308
-1.889
6.729
14.587
22.096
30.261
41.014
55.677
74.612
98.292
127.016
159.684
194.148
226.747
252.283
266.664
267.003
250.183
213.414
155.715
78.195
-15.117
-117.886
-224.582
-330.065
-428.418
-513.283
-578.807
-621.398
-640.953
-639.702
-619.769
-583.814
-535.287
-478.818
-420.645
-365.532
-315.495
-271.216
-233.084
-201.008
-175.11
-154.71
-136.826
-119.305
-101.65
-83.763
-66.14
-49.401
-33.264
-17.633
-3.911
6.97
14.807
19.455
21.505
21.616
19.858
16.39
11.927
7.059
2.3
-1.807
-5.147
-7.66
-9.159
-9.556
-8.84
-7.023
-4.208
-0.543
3.865
8.894
14.406
20.272
26.336
32.429
38.369
43.996
49.205
53.925
58.125
61.796
64.921
67.514
69.623
71.312
72.651
73.708
74.531
75.178
75.722
76.244
76.832
77.556
78.46
79.578
80.934
82.547
84.433
86.596
89.022
91.699
94.619
97.775
101.166
104.781
108.605
112.618
116.801
121.133
125.6
130.183
134.86
139.611
144.415
149.254
154.11
158.962
163.783
168.547
173.227
177.797
182.229
186.496
190.569
194.423
198.032
201.374
204.426
207.168
209.58
211.643
213.341
214.662
215.591
216.119
216.237
215.938
215.219
214.079
212.517
210.537
208.142
205.341
202.141
198.555
194.595
190.277
185.616
180.631
175.344
169.774
163.946
157.882
151.609
145.151
138.536
131.79
124.94
118.013
111.035
104.033
97.033
90.06
83.14
76.295
69.548
62.922
56.438
50.115
43.971
38.022
32.285
26.772
21.495
16.465
11.691
7.18
2.936
-1.036
-4.733
-8.157
-11.307
-14.185
-16.797
-19.147
-21.242
-23.09
-24.698
-26.078
-27.239
-28.193
-28.952
-29.529
-29.936
-30.186
-30.294
-30.272
-30.134
-29.894
-29.564
-29.159
-28.69
-28.171
-27.612
-27.024
-26.419
-25.807
-25.195
-24.593
-24.009
-23.449
-22.919
-22.425
-21.971
-21.561
-21.198
-20.884
-20.621
-20.41
-20.251
-20.143
-20.086
-20.078
-20.117
-20.201
-20.328
-20.494
-20.697
-20.932
-21.197
-21.487
-21.799
-22.129
-22.473
-22.827
-23.189
-23.553
-23.918
-24.281
-24.637
-24.986
-25.324
-25.65
-25.961
-26.257
-26.536
-26.797
-27.038
-27.261
-27.465
-27.649
-27.815
-27.964
-28.097
-28.214
-28.318
-28.41
-28.491
-28.564
-28.63
-28.692
-28.753
-28.813
-28.877
-28.946
-29.022
-29.109
-29.208
-29.321
-29.449
-29.594
-29.757
-29.939
-30.141
-30.363
-30.607
-30.873
-31.161
-31.471
-31.802
-32.154
-32.524
-32.912
-33.315
-33.729
-34.152
-34.581
-35.012
-35.442
-35.869
-36.287
-36.693
-37.083
-37.452
-37.794
-38.107
-38.382
-38.616
-38.803
-38.94
-39.023
-39.049
-39.016
-38.92
-38.759
-38.531
-38.236
-37.871
-37.435
-36.926
-36.345
-35.694
-34.975
-34.192
-33.349
-32.451
-31.505
-30.521
-29.503
-28.459
-27.395
-26.317
-25.232
-24.145
-23.061
-21.985
-20.922
-19.884
-18.88
-17.92
-17.013
-16.165
-15.383
-14.675
-14.049
-13.507
-13.046
-12.666
-12.37
-12.169
-12.08
-12.111
-12.26
-12.518
-12.877
-13.328
-13.852
-14.412
-14.955
-15.421
-15.773
-16.001
-16.105
-16.078
-15.904
-15.555
-15.012
-14.293
-13.422
-12.414
-11.279
-10.032
-8.738
-7.532
-6.59
-6.082
-6.13
-6.794
-8.12
-10.166
-12.977
-16.576
-20.91
-25.847
-31.275
-37.138
-43.404
-49.998
-56.703
-63.152
-68.905
-73.545
-76.746
-78.175
-77.386
-74.121
-68.386
-60.459
-51.06
-40.921
-30.387
-19.931
-10.186
-1.126
7.674
17.193
29.325
45.395
65.756
90.957
121.389
155.944
192.384
226.824
253.809
269.07
269.621
252.286
214.138
154.022
73.077
-24.49
-132.158
-244.041
-354.976
-459.364
-550.646
-622.677
-671.693
-696.933
-700.001
-683.064
-648.017
-597.142
-535.143
-468.136
-401.169
-338.037
-280.796
-230.316
-188.079
-155.851
-133.104
-117.611
-106.972
-98.467
-90.66
-83.399
-75.813
-66.518
-55.236
-42.471
-29.31
-17.634
-8.363
-1.39
3.17
5.156
4.686
1.943
-2.415
-7.16
-11.5
-15.088
-17.666
-19.212
-19.687
-18.946
-17.029
-14.135
-10.435
-6.101
-1.262
4.045
9.721
15.623
21.589
27.403
32.896
37.971
42.559
46.634
50.185
53.191
55.664
57.654
59.221
60.433
61.352
62.016
62.48
62.816
63.105
63.45
63.926
64.579
65.449
66.56
67.929
69.578
71.508
73.707
76.164
78.869
81.819
85.014
88.447
92.103
95.963
100.006
104.214
108.57
113.057
117.654
122.342
127.099
131.908
136.752
141.61
146.456
151.267
156.013
160.667
165.204
169.594
173.81
177.825
181.613
185.15
188.415
191.385
194.041
196.364
198.336
199.944
201.174
202.015
202.456
202.492
202.117
201.329
200.127
198.513
196.491
194.065
191.244
188.039
184.461
180.523
176.242
171.633
166.718
161.515
156.048
150.338
144.411
138.29
132.002
125.573
119.03
112.397
105.703
98.971
92.229
85.501
78.811
72.184
65.641
59.205
52.896
46.734
40.737
34.923
29.306
23.9
18.719
13.772
9.069
4.618
0.425
-3.505
-7.171
-10.569
-13.701
-16.568
-19.174
-21.522
-23.619
-25.471
-27.087
-28.475
-29.646
-30.61
-31.378
-31.962
-32.374
-32.628
-32.736
-32.71
-32.564
-32.311
-31.964
-31.535
-31.036
-30.48
-29.878
-29.24
-28.577
-27.899
-27.215
-26.532
-25.859
-25.203
-24.569
-23.963
-23.39
-22.853
-22.356
-21.9
-21.487
-21.12
-20.796
-20.518
-20.283
-20.091
-19.94
-19.828
-19.752
-19.71
-19.699
-19.717
-19.759
-19.822
-19.904
-20.001
-20.11
-20.227
-20.35
-20.475
-20.6
-20.722
-20.839
-20.949
-21.051
-21.142
-21.222
-21.289
-21.343
-21.384
-21.411
-21.424
-21.424
-21.412
-21.388
-21.354
-21.311
-21.262
-21.207
-21.149
-21.091
-21.033
-20.978
-20.928
-20.885
-20.852
-20.831
-20.823
-20.831
-20.857
-20.903
-20.97
-21.061
-21.175
-21.314
-21.478
-21.667
-21.882
-22.123
-22.389
-22.679
-22.994
-23.333
-23.695
-24.076
-24.476
-24.892
-25.321
-25.759
-26.203
-26.648
-27.09
-27.526
-27.952
-28.364
-28.757
-29.127
-29.47
-29.781
-30.055
-30.287
-30.472
-30.605
-30.681
-30.698
-30.653
-30.544
-30.369
-30.124
-29.81
-29.426
-28.971
-28.445
-27.847
-27.176
-26.436
-25.629
-24.759
-23.83
-22.848
-21.819
-20.753
-19.66
-18.546
-17.418
-16.284
-15.15
-14.024
-12.913
-11.819
-10.748
-9.708
-8.709
-7.76
-6.872
-6.051
-5.306
-4.643
-4.07
-3.593
-3.213
-2.924
-2.726
-2.623
-2.622
-2.74
-2.985
-3.352
-3.835
-4.432
-5.125
-5.894
-6.696
-7.464
-8.149
-8.725
-9.172
-9.494
-9.684
-9.719
-9.592
-9.306
-8.859
-8.266
-7.53
-6.639
-5.637
-4.611
-3.691
-3.065
-2.881
-3.223
-4.175
-5.789
-8.106
-11.155
-14.892
-19.204
-24.003
-29.235
-34.88
-40.909
-47.155
-53.326
-59.056
-63.931
-67.618
-69.764
-69.897
-67.715
-63.153
-56.442
-48.241
-39.215
-29.738
-20.193
-11.095
-2.627
5.431
14
24.847
39.374
58.241
81.783
110.161
143.079
179.03
214.655
245.131
265.96
273.554
265.11
237.963
189.48
119.391
30.669
-71.562
-181.356
-293.084
-401.863
-501.61
-584.743
-646.046
-683.373
-696.714
-688.123
-659.708
-612.874
-551.702
-483.101
-412.942
-345.942
-285.289
-231.846
-186.907
-152.755
-129.185
-113.698
-103.641
-95.812
-88.222
-80.798
-72.803
-62.765
-50.439
-36.37
-21.683
-8.465
2.195
10.389
15.979
18.834
19.133
17.02
13.144
8.749
4.604
1.106
-1.43
-2.978
-3.472
-2.753
-0.863
2.022
5.755
10.154
15.086
20.498
26.263
32.244
38.293
44.201
49.818
55.035
59.76
63.966
67.638
70.749
73.31
75.356
76.929
78.107
78.957
79.523
79.872
80.075
80.211
80.384
80.672
81.126
81.787
82.681
83.827
85.249
86.952
88.93
91.176
93.684
96.447
99.469
102.741
106.251
109.98
113.907
118.012
122.28
126.694
131.234
135.88
140.611
145.409
150.255
155.129
160.005
164.854
169.648
174.358
178.955
183.41
187.692
191.773
195.624
199.22
202.537
205.551
208.239
210.581
212.557
214.15
215.345
216.13
216.493
216.425
215.921
214.976
213.59
211.764
209.5
206.805
203.686
200.152
196.218
191.896
187.203
182.158
176.779
171.091
165.115
158.878
152.404
145.721
138.857
131.84
124.698
117.461
110.158
102.815
95.462
88.126
80.834
73.611
66.484
59.475
52.607
45.903
39.381
33.061
26.959
21.09
15.468
10.104
5.009
0.191
-4.344
-8.592
-12.548
-16.213
-19.586
-22.671
-25.47
-27.989
-30.235
-32.216
-33.942
-35.422
-36.667
-37.691
-38.506
-39.125
-39.563
-39.834
-39.952
-39.932
-39.788
-39.536
-39.19
-38.763
-38.269
-37.722
-37.134
-36.517
-35.883
-35.241
-34.602
-33.975
-33.368
-32.789
-32.243
-31.736
-31.273
-30.858
-30.494
-30.182
-29.924
-29.721
-29.572
-29.476
-29.432
-29.438
-29.491
-29.587
-29.724
-29.897
-30.102
-30.335
-30.592
-30.866
-31.154
-31.452
-31.754
-32.055
-32.352
-32.64
-32.914
-33.171
-33.408
-33.62
-33.806
-33.962
-34.086
-34.177
-34.233
-34.252
-34.235
-34.18
-34.087
-33.958
-33.791
-33.59
-33.354
-33.086
-32.788
-32.462
-32.112
-31.739
-31.348
-30.941
-30.522
-30.093
-29.659
-29.223
-28.789
-28.359
-27.939
-27.532
-27.141
-26.77
-26.422
-26.1
-25.806
-25.543
-25.313
-25.117
-24.956
-24.833
-24.747
-24.7
-24.692
-24.723
-24.793
-24.9
-25.043
-25.22
-25.427
-25.662
-25.921
-26.2
-26.494
-26.799
-27.113
-27.429
-27.744
-28.052
-28.347
-28.624
-28.877
-29.1
-29.286
-29.429
-29.523
-29.564
-29.548
-29.472
-29.332
-29.125
-28.848
-28.499
-28.078
-27.581
-27.008
-26.356
-25.629
-24.827
-23.954
-23.015
-22.014
-20.957
-19.855
-18.714
-17.543
-16.348
-15.136
-13.914
-12.688
-11.466
-10.251
-9.051
-7.873
-6.728
-5.628
-4.583
-3.603
-2.693
-1.863
-1.118
-0.464
0.098
0.573
0.962
1.259
1.456
1.535
1.488
1.322
1.04
0.65
0.166
-0.389
-0.974
-1.523
-1.989
-2.345
-2.581
-2.7
-2.7
-2.563
-2.267
-1.808
-1.191
-0.427
0.48
1.54
2.724
3.951
5.079
5.917
6.313
6.174
5.44
4.06
1.995
-0.794
-4.301
-8.424
-13.059
-18.133
-23.615
-29.506
-35.708
-41.959
-47.875
-53.017
-56.983
-59.488
-60.193
-58.626
-54.579
-48.119
-39.621
-29.943
-19.812
-9.512
0.522
9.682
17.984
25.864
34.358
45.469
60.634
80.238
104.76
134.513
168.261
203.531
236.436
261.558
274.309
271.52
249.854
206.179
139.96
53.217
-49.775
-162.44
-278.356
-392.143
-497.233
-585.889
-652.873
-695.61
-713.303
-707.842
-681.645
-636.343
-575.932
-507.179
-435.504
-365.237
-300.396
-242.613
-193.211
-154.651
-127.116
-108.263
-96.209
-88.619
-82.68
-77.48
-72.138
-64.782
-54.93
-43.163
-29.908
-16.512
-4.718
4.979
12.247
16.536
18.021
16.987
13.686
9.007
4.038
-0.578
-4.364
-7.017
-8.557
-8.931
-8.066
-6.073
-3.115
0.634
4.994
9.846
15.127
20.75
26.594
32.496
38.253
43.697
48.725
53.279
57.341
60.886
63.897
66.387
68.402
70.017
71.304
72.321
73.112
73.732
74.249
74.75
75.331
76.064
76.994
78.155
79.568
81.255
83.234
85.506
88.058
90.875
93.948
97.269
100.839
104.646
108.672
112.897
117.297
121.855
126.552
131.369
136.284
141.276
146.322
151.404
156.501
161.593
166.65
171.647
176.555
181.344
185.988
190.456
194.719
198.75
202.522
206.011
209.194
212.049
214.556
216.695
218.45
219.806
220.75
221.272
221.363
221.016
220.228
218.999
217.328
215.219
212.677
209.709
206.325
202.538
198.36
193.808
188.899
183.653
178.092
172.237
166.114
159.747
153.162
146.388
139.452
132.382
125.206
117.952
110.649
103.323
96.003
88.714
81.483
74.333
67.288
60.372
53.604
47.007
40.597
34.392
28.406
22.655
17.149
11.9
6.916
2.204
-2.231
-6.385
-10.256
-13.843
-17.148
-20.174
-22.925
-25.405
-27.623
-29.586
-31.303
-32.783
-34.039
-35.08
-35.919
-36.569
-37.042
-37.351
-37.51
-37.532
-37.43
-37.217
-36.906
-36.509
-36.039
-35.507
-34.925
-34.302
-33.649
-32.975
-32.289
-31.598
-30.91
-30.231
-29.567
-28.924
-28.304
-27.712
-27.151
-26.623
-26.13
-25.672
-25.251
-24.866
-24.518
-24.204
-23.925
-23.679
-23.463
-23.277
-23.117
-22.982
-22.87
-22.777
-22.701
-22.641
-22.594
-22.557
-22.528
-22.505
-22.487
-22.471
-22.457
-22.442
-22.426
-22.407
-22.385
-22.36
-22.331
-22.298
-22.261
-22.221
-22.177
-22.13
-22.081
-22.031
-21.981
-21.932
-21.885
-21.842
-21.805
-21.774
-21.753
-21.742
-21.743
-21.758
-21.788
-21.835
-21.901
-21.987
-22.096
-22.229
-22.388
-22.574
-22.787
-23.029
-23.3
-23.6
-23.93
-24.29
-24.678
-25.096
-25.542
-26.015
-26.517
-27.043
-27.594
-28.166
-28.757
-29.364
-29.985
-30.615
-31.249
-31.884
-32.517
-33.143
-33.758
-34.358
-34.936
-35.49
-36.013
-36.5
-36.946
-37.344
-37.689
-37.976
-38.202
-38.362
-38.454
-38.474
-38.42
-38.289
-38.081
-37.794
-37.426
-36.976
-36.444
-35.83
-35.138
-34.37
-33.53
-32.623
-31.655
-30.635
-29.571
-28.471
-27.34
-26.185
-25.014
-23.833
-22.649
-21.466
-20.289
-19.128
-17.991
-16.89
-15.835
-14.832
-13.89
-13.016
-12.218
-11.5
-10.865
-10.308
-9.829
-9.436
-9.137
-8.946
-8.871
-8.906
-9.045
-9.287
-9.614
-10.004
-10.417
-10.79
-11.078
-11.261
-11.324
-11.268
-11.084
-10.748
-10.247
-9.591
-8.784
-7.84
-6.768
-5.56
-4.259
-2.959
-1.792
-0.937
-0.535
-0.659
-1.38
-2.759
-4.837
-7.658
-11.195
-15.318
-19.926
-24.948
-30.332
-36.076
-42.043
-47.933
-53.394
-58.014
-61.412
-63.342
-63.454
-61.268
-56.606
-49.561
-40.563
-30.534
-20.204
-9.836
0.12
9.065
17.025
24.434
32.434
43.11
57.913
77.216
101.416
130.724
163.797
198.048
229.547
252.902
263.587
258.558
234.626
188.838
120.945
33.261
-69.777
-181.49
-295.542
-406.712
-508.351
-592.783
-654.927
-692.347
-704.799
-694.724
-664.572
-616.016
-553.515
-484
-413.252
-346.02
-285.459
-232.309
-187.774
-154.024
-130.72
-115.344
-105.264
-97.322
-89.598
-82.051
-73.958
-63.866
-51.545
-37.556
-23.026
-10.019
0.399
8.334
13.653
16.225
16.224
13.806
9.626
4.928
0.489
-3.297
-6.115
-7.936
-8.694
-8.232
-6.593
-3.954
-0.459
3.713
8.43
13.646
19.236
25.068
30.993
36.8
42.338
47.493
52.174
56.352
60.012
63.127
65.708
67.792
69.424
70.679
71.626
72.308
72.789
73.138
73.435
73.784
74.263
74.921
75.8
76.925
78.314
79.989
81.956
84.204
86.726
89.513
92.556
95.857
99.409
103.194
107.195
111.389
115.756
120.279
124.94
129.719
134.595
139.547
144.556
149.605
154.673
159.732
164.756
169.717
174.586
179.334
183.933
188.353
192.565
196.542
200.261
203.695
206.825
209.626
212.08
214.168
215.873
217.183
218.083
218.565
218.619
218.239
217.424
216.171
214.483
212.361
209.812
206.842
203.463
199.685
195.522
190.99
186.106
180.89
175.363
169.548
163.468
157.149
150.616
143.896
137.017
130.007
122.893
115.702
108.462
101.201
93.944
86.718
79.548
72.458
65.472
58.612
51.899
45.353
38.991
32.832
26.89
21.179
15.71
10.495
5.543
0.859
-3.55
-7.68
-11.53
-15.098
-18.387
-21.399
-24.137
-26.608
-28.818
-30.775
-32.489
-33.969
-35.226
-36.271
-37.118
-37.778
-38.266
-38.593
-38.774
-38.822
-38.751
-38.575
-38.306
-37.958
-37.542
-37.071
-36.557
-36.01
-35.44
-34.857
-34.27
-33.687
-33.114
-32.56
-32.028
-31.525
-31.054
-30.618
-30.219
-29.861
-29.542
-29.265
-29.029
-28.833
-28.675
-28.555
-28.469
-28.416
-28.393
-28.396
-28.423
-28.47
-28.533
-28.611
-28.699
-28.794
-28.893
-28.994
-29.093
-29.188
-29.276
-29.356
-29.427
-29.485
-29.531
-29.565
-29.585
-29.593
-29.588
-29.572
-29.546
-29.512
-29.47
-29.423
-29.373
-29.323
-29.274
-29.229
-29.192
-29.166
-29.153
-29.156
-29.179
-29.223
-29.29
-29.382
-29.502
-29.651
-29.831
-30.042
-30.285
-30.563
-30.874
-31.22
-31.6
-32.013
-32.457
-32.93
-33.429
-33.953
-34.495
-35.054
-35.624
-36.202
-36.785
-37.367
-37.944
-38.51
-39.06
-39.589
-40.09
-40.558
-40.985
-41.367
-41.697
-41.973
-42.19
-42.346
-42.437
-42.459
-42.412
-42.293
-42.101
-41.833
-41.489
-41.068
-40.573
-40.006
-39.37
-38.671
-37.913
-37.104
-36.253
-35.368
-34.456
-33.524
-32.579
-31.627
-30.676
-29.732
-28.799
-27.885
-26.998
-26.147
-25.345
-24.601
-23.921
-23.313
-22.785
-22.341
-21.985
-21.717
-21.532
-21.431
-21.418
-21.502
-21.699
-22.014
-22.444
-22.986
-23.631
-24.359
-25.141
-25.931
-26.668
-27.313
-27.846
-28.25
-28.531
-28.682
-28.686
-28.545
-28.248
-27.785
-27.156
-26.351
-25.368
-24.264
-23.135
-22.125
-21.408
-21.111
-21.318
-22.109
-23.524
-25.597
-28.335
-31.662
-35.497
-39.785
-44.498
-49.648
-55.195
-60.951
-66.627
-71.86
-76.231
-79.414
-81.038
-80.599
-77.845
-72.763
-65.628
-57.163
-48.041
-38.577
-29.237
-20.642
-12.778
-5.231
3.047
14.043
29.142
48.803
73.637
104.105
139.243
176.91
213.234
242.673
260.797
264.414
250.105
214.648
156.52
76.527
-21.307
-130.476
-245.069
-359.838
-468.966
-565.561
-642.938
-696.769
-725.966
-731.946
-716.695
-682.002
-630.064
-565.674
-495.396
-424.781
-357.979
-297.329
-243.879
-199.255
-165.483
-142.126
-126.748
-116.7
-108.973
-101.912
-95.305
-88.214
-79.106
-67.664
-54.448
-40.646
-28.331
-18.541
-11.187
-6.418
-4.401
-5.005
-8.039
-12.798
-17.968
-22.709
-26.647
-29.5
-31.254
-31.872
-31.198
-29.276
-26.317
-22.495
-17.993
-12.948
-7.399
-1.453
4.739
11.011
17.136
22.941
28.324
33.211
37.576
41.41
44.69
47.428
49.675
51.491
52.951
54.118
55.034
55.755
56.355
56.919
57.551
58.329
59.3
60.503
61.962
63.696
65.724
68.05
70.66
73.542
76.687
80.09
83.749
87.658
91.799
96.153
100.697
105.413
110.281
115.285
120.401
125.609
130.886
136.214
141.573
146.941
152.292
157.598
162.829
167.957
172.953
177.788
182.432
186.854
191.03
194.933
198.539
201.825
204.769
207.352
209.554
211.36
212.756
213.729
214.269
214.369
214.022
213.226
211.981
210.288
208.151
205.575
202.57
199.147
195.317
191.096
186.501
181.55
176.264
170.664
164.776
158.623
152.231
145.628
138.842
131.902
124.835
117.671
110.437
103.163
95.875
88.603
81.372
74.208
67.136
60.181
53.365
46.71
40.236
33.961
27.903
22.076
16.496
11.173
6.118
1.341
-3.153
-7.359
-11.271
-14.89
-18.214
-21.246
-23.989
-26.448
-28.628
-30.537
-32.183
-33.576
-34.728
-35.649
-36.351
-36.847
-37.151
-37.276
-37.237
-37.047
-36.72
-36.271
-35.714
-35.063
-34.33
-33.528
-32.671
-31.769
-30.835
-29.878
-28.909
-27.936
-26.968
-26.013
-25.077
-24.167
-23.287
-22.441
-21.634
-20.868
-20.145
-19.466
-18.832
-18.245
-17.702
-17.204
-16.749
-16.336
-15.962
-15.625
-15.323
-15.052
-14.81
-14.595
-14.402
-14.231
-14.077
-13.939
-13.815
-13.702
-13.599
-13.503
-13.414
-13.329
-13.249
-13.172
-13.098
-13.027
-12.96
-12.898
-12.841
-12.79
-12.746
-12.71
-12.683
-12.665
-12.659
-12.664
-12.682
-12.715
-12.762
-12.826
-12.908
-13.009
-13.127
-13.264
-13.418
-13.589
-13.775
-13.975
-14.186
-14.405
-14.632
-14.863
-15.096
-15.327
-15.554
-15.772
-15.977
-16.164
-16.328
-16.463
-16.564
-16.627
-16.646
-16.619
-16.543
-16.413
-16.228
-15.983
-15.678
-15.311
-14.878
-14.379
-13.811
-13.175
-12.472
-11.705
-10.877
-9.992
-9.055
-8.075
-7.058
-6.01
-4.938
-3.848
-2.745
-1.636
-0.526
0.581
1.68
2.761
3.815
4.832
5.801
6.712
7.559
8.335
9.032
9.645
10.173
10.621
10.988
11.271
11.46
11.538
11.497
11.343
11.079
10.711
10.253
9.725
9.167
8.64
8.191
7.848
7.618
7.502
7.5
7.632
7.919
8.366
8.969
9.717
10.606
11.648
12.817
14.042
15.188
16.074
16.551
16.527
15.943
14.747
12.894
10.341
7.084
3.215
-1.163
-5.981
-11.203
-16.834
-22.79
-28.83
-34.588
-39.645
-43.609
-46.2
-47.083
-45.78
-42.061
-35.962
-27.814
-18.445
-8.581
1.482
11.276
20.159
28.163
35.725
43.913
54.819
69.916
89.646
114.611
145.209
180.283
217.46
252.698
280.327
295.799
295.91
277.269
236.729
173.237
88.237
-13.945
-126.582
-243.576
-359.667
-468.657
-563.209
-637.081
-686.585
-710.692
-711.058
-689.617
-647.827
-588.896
-518.727
-443.778
-369.501
-300.282
-238.275
-185.085
-143.152
-113.385
-94.239
-83.156
-77.13
-73.056
-69.498
-65.56
-59.519
-50.515
-38.805
-25.112
-11.004
1.604
11.913
19.658
24.364
26.082
25.098
21.731
16.891
11.747
7.006
3.106
0.344
-1.286
-1.759
-0.986
0.928
3.799
7.477
11.789
16.622
21.93
27.606
33.513
39.489
45.323
50.844
55.95
60.575
64.691
68.285
71.341
73.872
75.929
77.575
78.883
79.909
80.697
81.306
81.806
82.283
82.835
83.535
84.431
85.558
86.94
88.595
90.541
92.778
95.293
98.072
101.106
104.388
107.916
111.681
115.665
119.848
124.207
128.724
133.38
138.156
143.03
147.981
152.987
158.027
163.084
168.134
173.149
178.103
182.967
187.71
192.307
196.725
200.937
204.914
208.63
212.061
215.182
217.972
220.411
222.478
224.158
225.435
226.297
226.733
226.734
226.293
225.406
224.074
222.295
220.073
217.413
214.322
210.81
206.889
202.573
197.877
192.82
187.42
181.7
175.683
169.393
162.855
156.097
149.145
142.028
134.774
127.412
119.971
112.479
104.963
97.453
89.973
82.551
75.211
67.978
60.875
53.924
47.144
40.556
34.176
28.021
22.104
16.438
11.034
5.902
1.048
-3.521
-7.801
-11.791
-15.49
-18.899
-22.02
-24.859
-27.419
-29.71
-31.737
-33.512
-35.044
-36.345
-37.426
-38.299
-38.979
-39.478
-39.811
-39.991
-40.031
-39.947
-39.752
-39.459
-39.081
-38.632
-38.123
-37.566
-36.972
-36.352
-35.716
-35.073
-34.43
-33.797
-33.178
-32.58
-32.009
-31.468
-30.961
-30.49
-30.058
-29.666
-29.314
-29.003
-28.731
-28.499
-28.304
-28.145
-28.019
-27.925
-27.858
-27.816
-27.797
-27.797
-27.813
-27.843
-27.883
-27.932
-27.987
-28.046
-28.106
-28.167
-28.226
-28.282
-28.334
-28.382
-28.425
-28.463
-28.497
-28.527
-28.554
-28.579
-28.604
-28.63
-28.657
-28.686
-28.72
-28.759
-28.805
-28.859
-28.922
-28.996
-29.083
-29.183
-29.297
-29.426
-29.568
-29.724
-29.893
-30.073
-30.262
-30.457
-30.658
-30.861
-31.066
-31.268
-31.465
-31.654
-31.83
-31.989
-32.128
-32.239
-32.319
-32.362
-32.364
-32.322
-32.234
-32.095
-31.903
-31.655
-31.35
-30.985
-30.559
-30.07
-29.516
-28.897
-28.215
-27.472
-26.671
-25.816
-24.912
-23.965
-22.984
-21.976
-20.948
-19.906
-18.856
-17.804
-16.757
-15.72
-14.697
-13.695
-12.722
-11.788
-10.904
-10.08
-9.321
-8.637
-8.034
-7.516
-7.089
-6.752
-6.501
-6.337
-6.265
-6.294
-6.439
-6.708
-7.096
-7.601
-8.216
-8.92
-9.686
-10.467
-11.204
-11.859
-12.41
-12.844
-13.167
-13.37
-13.439
-13.376
-13.168
-12.806
-12.292
-11.612
-10.769
-9.814
-8.847
-8.008
-7.473
-7.366
-7.772
-8.769
-10.396
-12.689
-15.652
-19.21
-23.283
-27.814
-32.778
-38.188
-44.003
-50.037
-55.999
-61.527
-66.202
-69.7
-71.645
-71.534
-69.112
-64.37
-57.586
-49.489
-40.754
-31.696
-22.78
-14.628
-7.22
-0.126
7.723
18.341
33.138
52.586
77.31
107.779
143.021
180.865
217.398
247.02
265.243
268.831
254.327
218.474
159.765
79.053
-19.578
-129.535
-244.809
-360.07
-469.421
-565.909
-642.867
-696.022
-724.35
-729.368
-713.164
-677.624
-625.046
-560.288
-489.894
-419.364
-352.792
-292.437
-239.281
-194.883
-161.191
-137.731
-122.094
-111.671
-103.506
-95.993
-88.951
-81.469
-72.059
-60.415
-47.084
-33.231
-20.898
-11.104
-3.754
1.009
3.027
2.436
-0.575
-5.306
-10.455
-15.184
-19.114
-21.965
-23.72
-24.343
-23.679
-21.772
-18.831
-15.028
-10.549
-5.529
-0.007
5.91
12.071
18.308
24.395
30.154
35.484
40.307
44.598
48.346
51.528
54.157
56.282
57.964
59.277
60.285
61.027
61.561
61.959
62.305
62.704
63.234
63.943
64.867
66.033
67.458
69.162
71.148
73.402
75.911
78.668
81.665
84.903
88.376
92.065
95.952
100.016
104.236
108.598
113.083
117.67
122.338
127.067
131.839
136.637
141.44
146.221
150.956
155.617
160.175
164.604
168.877
172.964
176.839
180.475
183.85
186.94
189.725
192.183
194.296
196.048
197.424
198.41
198.995
199.171
198.93
198.267
197.181
195.671
193.74
191.391
188.63
185.467
181.911
177.975
173.674
169.024
164.042
158.748
153.164
147.314
141.219
134.906
128.401
121.729
114.918
107.996
100.989
93.925
86.829
79.729
72.651
65.619
58.657
51.79
45.04
38.427
31.973
25.696
19.614
13.741
8.093
2.683
-2.479
-7.383
-12.021
-16.386
-20.474
-24.283
-27.81
-31.056
-34.022
-36.713
-39.132
-41.286
-43.182
-44.828
-46.233
-47.408
-48.364
-49.112
-49.665
-50.035
-50.235
-50.278
-50.178
-49.949
-49.603
-49.154
-48.615
-47.999
-47.317
-46.582
-45.805
-44.997
-44.167
-43.326
-42.482
-41.643
-40.816
-40.008
-39.225
-38.47
-37.749
-37.065
-36.421
-35.818
-35.258
-34.741
-34.269
-33.84
-33.454
-33.11
-32.805
-32.538
-32.307
-32.109
-31.942
-31.804
-31.69
-31.6
-31.529
-31.476
-31.436
-31.409
-31.39
-31.378
-31.371
-31.368
-31.366
-31.364
-31.362
-31.359
-31.356
-31.351
-31.345
-31.339
-31.333
-31.329
-31.327
-31.329
-31.336
-31.351
-31.375
-31.41
-31.459
-31.522
-31.601
-31.698
-31.814
-31.95
-32.107
-32.286
-32.488
-32.713
-32.964
-33.239
-33.539
-33.862
-34.209
-34.576
-34.964
-35.369
-35.787
-36.216
-36.651
-37.09
-37.53
-37.966
-38.393
-38.807
-39.203
-39.577
-39.922
-40.232
-40.503
-40.727
-40.9
-41.018
-41.077
-41.075
-41.007
-40.87
-40.663
-40.384
-40.03
-39.602
-39.096
-38.512
-37.852
-37.117
-36.311
-35.438
-34.501
-33.508
-32.468
-31.389
-30.278
-29.141
-27.987
-26.821
-25.652
-24.487
-23.33
-22.186
-21.065
-19.976
-18.93
-17.937
-17.005
-16.14
-15.352
-14.647
-14.032
-13.51
-13.074
-12.725
-12.468
-12.312
-12.271
-12.356
-12.558
-12.872
-13.296
-13.812
-14.399
-15.019
-15.603
-16.101
-16.488
-16.743
-16.871
-16.864
-16.697
-16.36
-15.852
-15.174
-14.342
-13.365
-12.231
-10.982
-9.704
-8.524
-7.637
-7.195
-7.286
-7.991
-9.363
-11.437
-14.254
-17.774
-21.887
-26.502
-31.557
-37.021
-42.874
-48.949
-54.966
-60.571
-65.317
-68.852
-70.793
-70.636
-68.125
-63.236
-56.201
-47.706
-38.429
-28.701
-19.033
-10.064
-1.779
6.181
14.931
26.512
42.099
62.016
86.704
116.382
150.33
186.785
221.813
249.821
266.798
269.804
256.012
222.994
168.765
93.374
0.626
-103.148
-212.35
-321.798
-426.322
-520.311
-597.164
-652.125
-683.844
-693.608
-683.627
-656.26
-613.925
-560.304
-500.783
-440.368
-382.959
-330.526
-283.374
-241.912
-206.704
-177.575
-153.716
-133.576
-114.86
-96.559
-78.997
-62.301
-46.647
-32.04
-17.904
-4.561
6.641
15.089
20.762
23.809
24.886
24.323
21.859
17.788
12.941
7.992
3.613
0.215
-2.24
-3.689
-3.932
-2.927
-0.714
2.605
6.785
11.632
17.043
22.894
29.083
35.49
41.921
48.175
54.083
59.531
64.463
68.857
72.69
75.946
78.639
80.819
82.573
83.984
85.117
86.028
86.769
87.411
88.045
88.769
89.654
90.748
92.084
93.685
95.575
97.77
100.274
103.071
106.146
109.486
113.086
116.942
121.043
125.37
129.902
134.615
139.488
144.504
149.641
154.877
160.187
165.55
170.942
176.346
181.735
187.081
192.356
197.529
202.57
207.45
212.137
216.6
220.811
224.741
228.366
231.662
234.605
237.173
239.347
241.11
242.445
243.341
243.785
243.768
243.284
242.329
240.902
239.004
236.638
233.808
230.524
226.795
222.634
218.056
213.077
207.715
201.992
195.93
189.553
182.887
175.959
168.795
161.427
153.882
146.191
138.385
130.492
122.543
114.568
106.594
98.652
90.767
82.967
75.278
67.722
60.325
53.107
46.089
39.289
32.725
26.41
20.361
14.587
9.099
3.906
-0.987
-5.574
-9.853
-13.822
-17.483
-20.837
-23.888
-26.642
-29.105
-31.286
-33.192
-34.836
-36.227
-37.378
-38.301
-39.01
-39.517
-39.837
-39.985
-39.973
-39.817
-39.531
-39.127
-38.621
-38.026
-37.353
-36.616
-35.826
-34.994
-34.131
-33.246
-32.349
-31.448
-30.551
-29.664
-28.794
-27.946
-27.125
-26.335
-25.579
-24.859
-24.178
-23.537
-22.936
-22.377
-21.86
-21.384
-20.949
-20.555
-20.2
-19.884
-19.605
-19.361
-19.152
-18.976
-18.832
-18.718
-18.633
-18.576
-18.547
-18.545
-18.569
-18.618
-18.692
-18.79
-18.91
-19.053
-19.218
-19.403
-19.61
-19.836
-20.083
-20.349
-20.635
-20.939
-21.26
-21.597
-21.948
-22.312
-22.685
-23.065
-23.448
-23.833
-24.217
-24.597
-24.969
-25.331
-25.678
-26.007
-26.313
-26.592
-26.839
-27.047
-27.214
-27.334
-27.404
-27.422
-27.384
-27.289
-27.132
-26.914
-26.632
-26.284
-25.87
-25.388
-24.837
-24.219
-23.538
-22.796
-21.997
-21.146
-20.25
-19.318
-18.358
-17.375
-16.376
-15.369
-14.358
-13.352
-12.355
-11.372
-10.411
-9.478
-8.584
-7.741
-6.957
-6.24
-5.599
-5.041
-4.57
-4.191
-3.906
-3.709
-3.602
-3.589
-3.678
-3.885
-4.217
-4.669
-5.24
-5.922
-6.693
-7.529
-8.381
-9.192
-9.925
-10.558
-11.074
-11.481
-11.772
-11.932
-11.964
-11.858
-11.605
-11.204
-10.647
-9.933
-9.114
-8.28
-7.565
-7.137
-7.114
-7.578
-8.601
-10.214
-12.444
-15.288
-18.666
-22.498
-26.724
-31.308
-36.258
-41.532
-46.953
-52.251
-57.081
-61.05
-63.854
-65.141
-64.451
-61.567
-56.502
-49.539
-41.379
-32.657
-23.668
-14.838
-6.718
0.728
7.902
15.796
26.229
40.462
58.866
81.898
109.878
141.833
175.758
208.178
234.099
249.494
251.497
237.051
203.359
149.358
75.992
-13.085
-111.864
-214.852
-316.993
-412.419
-494.799
-558.664
-600.718
-620.639
-620.454
-602.472
-569.375
-524.893
-473.978
-422.04
-373.015
-328.86
-290.142
-256.854
-228.753
-205.236
-184.784
-165.249
-145.336
-124.679
-103.519
-82.609
-62.58
-43.89
-27.274
-13.551
-3.114
3.978
7.978
9.452
8.89
6.737
3.51
-0.356
-4.477
-8.491
-12.143
-15.211
-17.492
-18.878
-19.293
-18.683
-17.052
-14.431
-10.885
-6.559
-1.602
3.838
9.597
15.544
21.539
27.406
33.011
38.241
43.009
47.284
51.053
54.295
57.024
59.276
61.096
62.562
63.745
64.699
65.493
66.194
66.875
67.623
68.506
69.568
70.85
72.375
74.16
76.225
78.574
81.199
84.092
87.244
90.645
94.294
98.18
102.287
106.596
111.085
115.735
120.529
125.447
130.467
135.569
140.731
145.931
151.15
156.365
161.548
166.672
171.707
176.623
181.391
185.982
190.365
194.511
198.393
201.985
205.263
208.204
210.786
212.988
214.792
216.184
217.148
217.672
217.748
217.367
216.525
215.22
213.452
211.224
208.541
205.41
201.841
197.845
193.436
188.632
183.449
177.908
172.031
165.843
159.367
152.632
145.664
138.492
131.145
123.654
116.049
108.36
100.616
92.848
85.083
77.352
69.682
62.099
54.63
47.299
40.129
33.142
26.36
19.799
13.478
7.411
1.613
-3.906
-9.134
-14.065
-18.692
-23.01
-27.017
-30.713
-34.097
-37.174
-39.947
-42.422
-44.606
-46.509
-48.138
-49.507
-50.626
-51.508
-52.166
-52.615
-52.87
-52.944
-52.853
-52.612
-52.236
-51.74
-51.138
-50.446
-49.677
-48.844
-47.961
-47.039
-46.091
-45.127
-44.157
-43.192
-42.238
-41.305
-40.398
-39.524
-38.689
-37.896
-37.149
-36.452
-35.805
-35.212
-34.672
-34.187
-33.755
-33.375
-33.047
-32.768
-32.537
-32.35
-32.207
-32.103
-32.037
-32.006
-32.007
-32.038
-32.096
-32.179
-32.285
-32.411
-32.556
-32.718
-32.894
-33.086
-33.29
-33.508
-33.738
-33.98
-34.234
-34.499
-34.774
-35.06
-35.356
-35.663
-35.978
-36.304
-36.639
-36.984
-37.34
-37.705
-38.079
-38.462
-38.852
-39.248
-39.648
-40.05
-40.45
-40.847
-41.237
-41.618
-41.986
-42.339
-42.672
-42.982
-43.264
-43.513
-43.725
-43.894
-44.015
-44.084
-44.095
-44.048
-43.938
-43.763
-43.522
-43.211
-42.83
-42.378
-41.855
-41.258
-40.588
-39.845
-39.031
-38.151
-37.207
-36.204
-35.148
-34.046
-32.909
-31.743
-30.556
-29.356
-28.15
-26.946
-25.751
-24.573
-23.416
-22.287
-21.197
-20.155
-19.173
-18.26
-17.424
-16.673
-16.013
-15.449
-14.988
-14.627
-14.361
-14.192
-14.124
-14.164
-14.33
-14.625
-15.043
-15.583
-16.235
-16.979
-17.787
-18.609
-19.381
-20.067
-20.641
-21.088
-21.412
-21.602
-21.637
-21.524
-21.25
-20.805
-20.197
-19.411
-18.451
-17.379
-16.292
-15.34
-14.706
-14.51
-14.832
-15.754
-17.301
-19.499
-22.353
-25.757
-29.624
-33.894
-38.518
-43.499
-48.78
-54.15
-59.308
-63.865
-67.384
-69.53
-69.932
-68.149
-64.034
-57.667
-49.409
-40.063
-30.261
-20.362
-10.882
-2.203
5.861
13.908
23.167
35.286
51.182
71.217
95.803
124.731
156.603
188.661
216.701
236.365
244.217
237.421
213.189
169.315
105.605
24.69
-68.47
-168.475
-270.032
-367.869
-456.107
-528.202
-579.698
-609.358
-618.13
-607.963
-581.475
-541.619
-492.676
-440.698
-390.3
-343.927
-302.862
-267.29
-236.98
-211.794
-190.559
-170.807
-150.975
-130.499
-109.303
-88.152
-67.754
-48.461
-31.007
-16.364
-5.017
2.881
7.491
9.415
9.176
7.213
4.092
0.281
-3.821
-7.82
-11.46
-14.533
-16.833
-18.24
-18.67
-18.052
-16.385
-13.695
-10.036
-5.548
-0.385
5.303
11.332
17.559
23.84
29.992
35.879
41.389
46.428
50.965
54.983
58.458
61.398
63.836
65.81
67.392
68.653
69.646
70.442
71.111
71.727
72.381
73.141
74.056
75.163
76.487
78.046
79.858
81.931
84.254
86.823
89.63
92.667
95.934
99.422
103.116
107
111.052
115.252
119.586
124.036
128.582
133.205
137.886
142.605
147.347
152.091
156.813
161.486
166.085
170.581
174.949
179.161
183.19
187.008
190.591
193.915
196.958
199.701
202.121
204.203
205.927
207.281
208.252
208.827
209
208.761
208.108
207.038
205.551
203.65
201.34
198.625
195.515
192.021
188.154
183.93
179.363
174.472
169.276
163.797
158.057
152.08
145.889
139.512
132.973
126.3
119.52
112.658
105.742
98.797
91.85
84.926
78.05
71.245
64.534
57.94
51.483
45.183
39.058
33.124
27.398
21.893
16.621
11.592
6.817
2.303
-1.945
-5.923
-9.626
-13.055
-16.21
-19.093
-21.706
-24.056
-26.147
-27.988
-29.586
-30.951
-32.093
-33.023
-33.751
-34.291
-34.655
-34.856
-34.906
-34.818
-34.607
-34.285
-33.865
-33.359
-32.781
-32.142
-31.453
-30.726
-29.971
-29.197
-28.415
-27.631
-26.855
-26.093
-25.352
-24.637
-23.953
-23.304
-22.694
-22.125
-21.6
-21.118
-20.683
-20.292
-19.948
-19.648
-19.392
-19.179
-19.006
-18.872
-18.775
-18.713
-18.683
-18.683
-18.709
-18.76
-18.833
-18.926
-19.036
-19.163
-19.303
-19.456
-19.62
-19.794
-19.978
-20.169
-20.368
-20.574
-20.787
-21.008
-21.235
-21.471
-21.716
-21.97
-22.236
-22.513
-22.803
-23.106
-23.422
-23.753
-24.097
-24.457
-24.831
-25.221
-25.625
-26.044
-26.478
-26.927
-27.388
-27.859
-28.34
-28.827
-29.317
-29.808
-30.294
-30.773
-31.241
-31.695
-32.13
-32.543
-32.929
-33.283
-33.601
-33.876
-34.104
-34.279
-34.394
-34.446
-34.43
-34.345
-34.186
-33.952
-33.64
-33.248
-32.776
-32.223
-31.588
-30.87
-30.069
-29.187
-28.228
-27.196
-26.095
-24.932
-23.714
-22.451
-21.153
-19.826
-18.479
-17.121
-15.758
-14.399
-13.051
-11.719
-10.41
-9.135
-7.903
-6.727
-5.619
-4.588
-3.642
-2.789
-2.037
-1.392
-0.855
-0.421
-0.09
0.133
0.239
0.213
0.046
-0.257
-0.689
-1.245
-1.91
-2.659
-3.45
-4.219
-4.914
-5.508
-5.989
-6.357
-6.609
-6.725
-6.686
-6.485
-6.129
-5.627
-4.98
-4.179
-3.249
-2.268
-1.374
-0.754
-0.561
-0.885
-1.787
-3.316
-5.507
-8.397
-11.977
-16.139
-20.775
-25.808
-31.201
-36.959
-42.985
-49.024
-54.697
-59.57
-63.249
-65.458
-65.87
-64.028
-59.731
-53.035
-44.307
-34.394
-24.002
-13.411
-3.031
6.577
15.444
23.968
33.119
44.797
60.326
80.018
104.285
133.339
165.943
199.74
231.017
254.632
266.321
263.192
242.166
200.402
137.377
54.903
-42.796
-149.368
-258.764
-365.904
-464.768
-548.34
-611.459
-651.37
-667.862
-663.193
-639.927
-600.05
-547.022
-486.589
-424.226
-364.435
-309.981
-261.541
-219.622
-185.461
-159.528
-140.351
-125.66
-112.85
-100.346
-88.098
-76.128
-63.889
-50.672
-36.522
-22.354
-9.744
0.255
7.548
12.352
14.87
15.023
12.827
8.797
3.89
-0.994
-5.317
-8.82
-11.444
-13.068
-13.527
-12.784
-10.935
-8.146
-4.587
-0.386
4.383
9.642
15.266
21.109
26.992
32.719
38.136
43.14
47.665
51.677
55.158
58.095
60.502
62.429
63.944
65.116
66.002
66.645
67.1
67.439
67.747
68.118
68.62
69.298
70.184
71.305
72.68
74.325
76.242
78.417
80.838
83.495
86.383
89.502
92.841
96.386
100.117
104.012
108.056
112.232
116.521
120.904
125.362
129.873
134.421
138.988
143.553
148.092
152.581
156.991
161.298
165.474
169.494
173.33
176.957
180.35
183.487
186.348
188.912
191.16
193.075
194.642
195.848
196.681
197.13
197.189
196.852
196.114
194.975
193.435
191.498
189.167
186.449
183.353
179.89
176.073
171.915
167.433
162.643
157.567
152.224
146.636
140.826
134.818
128.637
122.308
115.857
109.31
102.692
96.028
89.345
82.666
76.016
69.419
62.897
56.472
50.164
43.994
37.981
32.141
26.49
21.043
15.812
10.81
6.047
1.53
-2.732
-6.736
-10.476
-13.951
-17.159
-20.102
-22.782
-25.203
-27.368
-29.285
-30.96
-32.402
-33.621
-34.626
-35.428
-36.039
-36.47
-36.735
-36.846
-36.816
-36.658
-36.385
-36.011
-35.549
-35.01
-34.409
-33.756
-33.063
-32.341
-31.601
-30.853
-30.105
-29.367
-28.646
-27.949
-27.283
-26.653
-26.063
-25.518
-25.02
-24.573
-24.177
-23.834
-23.543
-23.306
-23.121
-22.985
-22.899
-22.859
-22.862
-22.906
-22.986
-23.1
-23.244
-23.414
-23.605
-23.815
-24.038
-24.272
-24.512
-24.755
-24.997
-25.235
-25.465
-25.685
-25.893
-26.086
-26.263
-26.421
-26.561
-26.682
-26.784
-26.866
-26.929
-26.974
-27.001
-27.012
-27.008
-26.992
-26.965
-26.929
-26.888
-26.844
-26.799
-26.757
-26.719
-26.687
-26.665
-26.655
-26.658
-26.677
-26.713
-26.769
-26.846
-26.945
-27.068
-27.215
-27.386
-27.58
-27.796
-28.033
-28.289
-28.56
-28.843
-29.136
-29.436
-29.74
-30.044
-30.343
-30.632
-30.907
-31.163
-31.394
-31.594
-31.757
-31.877
-31.949
-31.97
-31.936
-31.842
-31.685
-31.461
-31.168
-30.803
-30.364
-29.849
-29.255
-28.581
-27.83
-27.003
-26.103
-25.135
-24.104
-23.016
-21.881
-20.706
-19.496
-18.259
-17.001
-15.728
-14.448
-13.167
-11.888
-10.621
-9.375
-8.161
-6.99
-5.872
-4.814
-3.822
-2.908
-2.077
-1.335
-0.679
-0.11
0.368
0.743
0.999
1.125
1.125
1.005
0.775
0.44
0.021
-0.448
-0.914
-1.319
-1.623
-1.817
-1.9
-1.864
-1.692
-1.356
-0.835
-0.151
0.676
1.633
2.713
3.905
5.15
6.318
7.236
7.739
7.708
7.082
5.812
3.834
1.097
-2.421
-6.667
-11.507
-16.824
-22.574
-28.74
-35.253
-41.902
-48.334
-54.118
-58.85
-62.223
-63.887
-63.379
-60.423
-54.999
-47.393
-38.337
-28.559
-18.407
-8.329
1.067
9.815
18.351
27.694
39.784
55.987
76.682
102.372
133.389
168.588
205.689
240.784
268.376
284.189
285.249
268.391
230.694
170.981
90.334
-7.089
-114.807
-227.04
-338.743
-444.35
-537.293
-611.297
-662.405
-689.735
-694.757
-679.469
-645.607
-595.277
-533.107
-465.346
-397.233
-332.723
-274.042
-222.174
-178.715
-145.659
-122.592
-107.232
-97.077
-89.23
-82.105
-75.503
-68.481
-59.534
-48.33
-35.376
-21.807
-9.637
0.124
7.554
12.493
14.767
14.494
11.848
7.512
2.764
-1.578
-5.15
-7.678
-9.156
-9.549
-8.714
-6.698
-3.705
0.091
4.512
9.428
14.804
20.537
26.484
32.484
38.318
43.817
48.884
53.449
57.488
60.993
63.946
66.361
68.287
69.784
70.926
71.774
72.368
72.763
73.032
73.256
73.538
73.953
74.55
75.365
76.423
77.743
79.343
81.228
83.384
85.799
88.466
91.38
94.539
97.937
101.558
105.383
109.391
113.562
117.88
122.326
126.879
131.519
136.224
140.976
145.756
150.544
155.312
160.035
164.685
169.233
173.653
177.916
181.994
185.858
189.485
192.849
195.929
198.703
201.15
203.252
204.992
206.356
207.331
207.907
208.074
207.826
207.158
206.069
204.559
202.63
200.287
197.536
194.386
190.847
186.933
182.658
178.038
173.091
167.837
162.298
156.496
150.454
144.197
137.752
131.143
124.399
117.546
110.61
103.617
96.595
89.569
82.564
75.605
68.715
61.918
55.235
48.686
42.292
36.071
30.038
24.211
18.601
13.223
8.086
3.201
-1.426
-5.788
-9.881
-13.7
-17.246
-20.518
-23.518
-26.248
-28.712
-30.918
-32.87
-34.577
-36.048
-37.292
-38.319
-39.142
-39.771
-40.219
-40.498
-40.62
-40.599
-40.448
-40.178
-39.804
-39.337
-38.79
-38.175
-37.502
-36.784
-36.031
-35.252
-34.456
-33.654
-32.853
-32.059
-31.281
-30.524
-29.793
-29.093
-28.427
-27.8
-27.212
-26.667
-26.166
-25.709
-25.296
-24.927
-24.602
-24.318
-24.075
-23.87
-23.7
-23.565
-23.46
-23.383
-23.332
-23.303
-23.294
-23.301
-23.323
-23.355
-23.397
-23.445
-23.496
-23.549
-23.601
-23.652
-23.698
-23.74
-23.776
-23.805
-23.828
-23.845
-23.854
-23.857
-23.854
-23.845
-23.832
-23.816
-23.798
-23.779
-23.762
-23.748
-23.74
-23.74
-23.748
-23.768
-23.799
-23.844
-23.904
-23.979
-24.072
-24.182
-24.311
-24.459
-24.628
-24.816
-25.024
-25.251
-25.495
-25.756
-26.032
-26.319
-26.616
-26.919
-27.225
-27.531
-27.835
-28.132
-28.419
-28.692
-28.945
-29.175
-29.376
-29.543
-29.669
-29.75
-29.782
-29.761
-29.684
-29.548
-29.351
-29.09
-28.763
-28.37
-27.91
-27.379
-26.778
-26.107
-25.368
-24.563
-23.697
-22.772
-21.794
-20.771
-19.71
-18.619
-17.506
-16.376
-15.236
-14.093
-12.954
-11.825
-10.71
-9.617
-8.553
-7.529
-6.555
-5.642
-4.795
-4.023
-3.33
-2.723
-2.205
-1.777
-1.432
-1.171
-1
-0.926
-0.965
-1.123
-1.394
-1.779
-2.269
-2.844
-3.478
-4.124
-4.725
-5.244
-5.661
-5.958
-6.143
-6.204
-6.124
-5.903
-5.531
-4.995
-4.3
-3.435
-2.402
-1.259
-0.107
0.914
1.628
1.913
1.692
0.881
-0.557
-2.657
-5.437
-8.811
-12.696
-17.047
-21.83
-27.044
-32.647
-38.43
-44.073
-49.219
-53.443
-56.424
-57.821
-57.134
-54.136
-48.864
-41.617
-33.182
-24.268
-15.152
-6.293
1.68
8.839
15.64
23.151
33.457
47.947
66.996
91.188
120.878
154.945
191.111
225.376
252.154
267.063
267.006
248.735
209.307
147.565
64.746
-34.779
-144.402
-258.119
-370.649
-476.316
-568.394
-640.61
-689.18
-713.375
-714.843
-695.806
-658.17
-604.225
-538.859
-468.408
-398.12
-331.984
-272.127
-219.466
-175.605
-142.432
-119.414
-104.23
-94.318
-86.757
-80.006
-73.858
-67.336
-58.929
-48.274
-35.854
-22.801
-11.099
-1.737
5.371
10.085
12.207
11.821
9.095
4.697
-0.094
-4.441
-7.982
-10.46
-11.858
-12.146
-11.187
-9.028
-5.891
-1.965
2.568
7.57
13.009
18.793
24.782
30.815
36.679
42.201
47.284
51.861
55.906
59.409
62.351
64.745
66.644
68.114
69.229
70.054
70.628
71.008
71.264
71.479
71.755
72.168
72.763
73.578
74.639
75.963
77.571
79.467
81.636
84.066
86.75
89.681
92.86
96.279
99.922
103.771
107.804
112.003
116.353
120.835
125.427
130.111
134.865
139.671
144.51
149.361
154.197
158.994
163.721
168.351
172.856
177.208
181.378
185.336
189.058
192.519
195.696
198.567
201.11
203.306
205.139
206.592
207.653
208.309
208.552
208.373
207.769
206.736
205.275
203.388
201.079
198.352
195.219
191.688
187.773
183.489
178.852
173.879
168.593
163.013
157.164
151.07
144.756
138.248
131.574
124.762
117.838
110.83
103.767
96.674
89.579
82.509
75.488
68.541
61.692
54.964
48.378
41.955
35.712
29.668
23.838
18.236
12.875
7.765
2.916
-1.664
-5.971
-10
-13.748
-17.216
-20.403
-23.312
-25.947
-28.313
-30.418
-32.269
-33.874
-35.245
-36.392
-37.326
-38.06
-38.607
-38.98
-39.193
-39.259
-39.193
-39.008
-38.718
-38.336
-37.876
-37.351
-36.773
-36.153
-35.504
-34.835
-34.157
-33.479
-32.81
-32.156
-31.526
-30.925
-30.358
-29.83
-29.345
-28.906
-28.515
-28.173
-27.881
-27.639
-27.448
-27.305
-27.21
-27.161
-27.154
-27.189
-27.26
-27.365
-27.502
-27.665
-27.851
-28.057
-28.279
-28.514
-28.757
-29.005
-29.255
-29.503
-29.748
-29.985
-30.212
-30.428
-30.631
-30.818
-30.988
-31.141
-31.275
-31.391
-31.487
-31.563
-31.62
-31.658
-31.678
-31.682
-31.669
-31.642
-31.603
-31.553
-31.495
-31.431
-31.363
-31.294
-31.225
-31.159
-31.099
-31.046
-31.004
-30.975
-30.962
-30.967
-30.992
-31.04
-31.111
-31.207
-31.329
-31.478
-31.655
-31.86
-32.093
-32.355
-32.645
-32.963
-33.309
-33.681
-34.077
-34.495
-34.932
-35.387
-35.854
-36.33
-36.81
-37.291
-37.768
-38.237
-38.694
-39.133
-39.551
-39.94
-40.296
-40.612
-40.883
-41.101
-41.262
-41.36
-41.391
-41.352
-41.239
-41.048
-40.778
-40.425
-39.989
-39.467
-38.859
-38.161
-37.376
-36.504
-35.549
-34.515
-33.405
-32.225
-30.983
-29.689
-28.35
-26.974
-25.569
-24.141
-22.698
-21.248
-19.796
-18.349
-16.914
-15.501
-14.12
-12.785
-11.506
-10.291
-9.15
-8.091
-7.119
-6.24
-5.453
-4.757
-4.152
-3.646
-3.248
-2.972
-2.826
-2.804
-2.906
-3.123
-3.435
-3.813
-4.209
-4.569
-4.858
-5.056
-5.154
-5.156
-5.054
-4.834
-4.495
-4.031
-3.437
-2.715
-1.856
-0.863
0.212
1.269
2.165
2.74
2.879
2.506
1.555
-0.012
-2.225
-5.098
-8.565
-12.531
-16.927
-21.704
-26.841
-32.322
-37.998
-43.573
-48.695
-52.969
-56.039
-57.652
-57.453
-54.998
-50.13
-42.982
-34.033
-24.159
-14.048
-3.954
5.69
14.267
21.768
28.629
35.995
45.938
59.916
78.305
101.514
129.829
161.98
195.449
226.359
249.296
259.688
254.456
230.344
184.28
115.912
27.44
-76.783
-190.06
-306.006
-419.356
-523.33
-610.051
-674.244
-713.262
-726.686
-716.883
-686.244
-636.394
-571.873
-499.781
-426.095
-355.788
-292.199
-236.217
-189.209
-153.497
-128.782
-112.503
-101.93
-93.79
-86.094
-78.713
-70.817
-60.844
-48.499
-34.369
-19.649
-6.481
4.017
11.952
17.193
19.586
19.296
16.512
11.938
6.905
2.263
-1.611
-4.429
-6.173
-6.799
-6.142
-4.242
-1.303
2.503
6.995
12.039
17.595
23.545
29.734
35.993
42.092
47.854
53.177
57.981
62.239
65.939
69.056
71.602
73.624
75.18
76.343
77.176
77.72
78.036
78.199
78.296
78.437
78.701
79.139
79.793
80.689
81.846
83.287
85.017
87.022
89.294
91.826
94.612
97.655
100.949
104.48
108.228
112.173
116.296
120.581
125.01
129.563
134.221
138.963
143.771
148.629
153.517
158.408
163.278
168.098
172.84
177.477
181.98
186.32
190.469
194.4
198.089
201.512
204.647
207.472
209.966
212.111
213.892
215.293
216.302
216.908
217.101
216.876
216.228
215.156
213.66
211.742
209.407
206.661
203.514
199.976
196.059
191.779
187.151
182.194
176.929
171.375
165.557
159.498
153.223
146.757
140.128
133.362
126.485
119.525
112.507
105.459
98.406
91.375
84.389
77.473
70.651
63.943
57.373
50.958
44.719
38.671
32.831
27.213
21.829
16.691
11.807
7.187
2.836
-1.242
-5.043
-8.565
-11.81
-14.778
-17.473
-19.9
-22.064
-23.972
-25.632
-27.054
-28.247
-29.222
-29.991
-30.566
-30.959
-31.183
-31.252
-31.178
-30.976
-30.658
-30.238
-29.729
-29.144
-28.495
-27.794
-27.053
-26.282
-25.492
-24.692
-23.892
-23.099
-22.322
-21.567
-20.841
-20.148
-19.493
-18.88
-18.312
-17.791
-17.32
-16.899
-16.529
-16.21
-15.941
-15.721
-15.55
-15.424
-15.343
-15.303
-15.301
-15.335
-15.402
-15.498
-15.62
-15.764
-15.928
-16.108
-16.301
-16.504
-16.715
-16.929
-17.145
-17.36
-17.572
-17.78
-17.981
-18.175
-18.36
-18.535
-18.7
-18.855
-18.998
-19.131
-19.253
-19.365
-19.467
-19.559
-19.644
-19.721
-19.793
-19.861
-19.927
-19.993
-20.059
-20.13
-20.205
-20.288
-20.38
-20.483
-20.599
-20.73
-20.879
-21.047
-21.237
-21.449
-21.686
-21.949
-22.237
-22.551
-22.892
-23.26
-23.655
-24.075
-24.522
-24.994
-25.491
-26.012
-26.555
-27.118
-27.699
-28.295
-28.903
-29.52
-30.14
-30.761
-31.378
-31.987
-32.584
-33.164
-33.723
-34.255
-34.756
-35.218
-35.638
-36.008
-36.323
-36.576
-36.764
-36.883
-36.93
-36.902
-36.796
-36.61
-36.343
-35.993
-35.559
-35.04
-34.435
-33.744
-32.971
-32.117
-31.186
-30.184
-29.114
-27.986
-26.807
-25.587
-24.333
-23.051
-21.75
-20.436
-19.117
-17.801
-16.492
-15.197
-13.927
-12.692
-11.504
-10.374
-9.308
-8.316
-7.403
-6.575
-5.837
-5.189
-4.626
-4.15
-3.766
-3.484
-3.32
-3.281
-3.362
-3.563
-3.875
-4.277
-4.745
-5.231
-5.676
-6.044
-6.314
-6.472
-6.525
-6.463
-6.266
-5.936
-5.461
-4.828
-4.044
-3.1
-1.997
-0.798
0.396
1.44
2.157
2.424
2.166
1.3
-0.207
-2.387
-5.259
-8.739
-12.74
-17.215
-22.125
-27.46
-33.174
-39.053
-44.775
-49.981
-54.245
-57.238
-58.624
-57.906
-54.854
-49.493
-42.1
-33.426
-24.173
-14.638
-5.302
3.167
10.784
17.947
25.648
35.893
50.049
68.525
91.979
120.882
154.251
189.948
224.083
251.149
266.773
267.796
250.849
212.797
152.236
70.165
-29.197
-139.317
-254.203
-368.519
-476.474
-571.154
-645.973
-696.847
-722.846
-725.498
-706.964
-669.141
-614.33
-547.505
-475.239
-403.016
-334.993
-273.418
-219.272
-174.197
-140.138
-116.562
-101.033
-90.885
-83.109
-76.11
-69.671
-62.814
-54.001
-42.877
-29.976
-16.48
-4.417
5.193
12.445
17.206
19.275
18.747
15.81
11.156
6.088
1.463
-2.352
-5.092
-6.734
-7.242
-6.472
-4.467
-1.451
2.39
6.871
11.853
17.299
23.115
29.151
35.242
41.169
46.752
51.89
56.515
60.595
64.122
67.074
69.461
71.337
72.768
73.829
74.585
75.077
75.362
75.513
75.617
75.777
76.071
76.547
77.242
78.181
79.385
80.872
82.647
84.694
87.003
89.564
92.371
95.426
98.72
102.238
105.961
109.868
113.941
118.165
122.522
126.992
131.555
136.191
140.884
145.615
150.365
155.109
159.821
164.473
169.038
173.489
177.8
181.94
185.883
189.604
193.079
196.285
199.201
201.806
204.081
206.009
207.575
208.765
209.569
209.975
209.976
209.568
208.746
207.511
205.862
203.803
201.338
198.475
195.222
191.592
187.596
183.25
178.57
173.574
168.282
162.716
156.898
150.852
144.601
138.172
131.59
124.881
118.072
111.189
104.256
97.301
90.349
83.423
76.548
69.747
63.042
56.455
50.006
43.713
37.594
31.666
25.944
20.44
15.167
10.136
5.354
0.831
-3.43
-7.423
-11.147
-14.599
-17.781
-20.694
-23.342
-25.729
-27.862
-29.748
-31.395
-32.812
-34.008
-34.996
-35.786
-36.391
-36.822
-37.092
-37.215
-37.203
-37.07
-36.828
-36.49
-36.07
-35.579
-35.03
-34.433
-33.801
-33.143
-32.47
-31.791
-31.114
-30.448
-29.8
-29.176
-28.582
-28.023
-27.504
-27.027
-26.596
-26.213
-25.879
-25.595
-25.362
-25.178
-25.042
-24.954
-24.912
-24.913
-24.955
-25.035
-25.149
-25.295
-25.47
-25.669
-25.889
-26.127
-26.379
-26.642
-26.912
-27.187
-27.462
-27.735
-28.003
-28.264
-28.514
-28.753
-28.978
-29.187
-29.38
-29.556
-29.712
-29.85
-29.968
-30.067
-30.146
-30.207
-30.25
-30.275
-30.285
-30.28
-30.262
-30.235
-30.198
-30.155
-30.107
-30.056
-30.005
-29.956
-29.912
-29.874
-29.845
-29.827
-29.823
-29.836
-29.867
-29.917
-29.989
-30.084
-30.202
-30.345
-30.513
-30.707
-30.928
-31.174
-31.447
-31.747
-32.072
-32.422
-32.793
-33.186
-33.597
-34.023
-34.46
-34.905
-35.354
-35.803
-36.249
-36.687
-37.114
-37.524
-37.913
-38.277
-38.608
-38.903
-39.155
-39.358
-39.509
-39.602
-39.634
-39.602
-39.504
-39.334
-39.093
-38.777
-38.386
-37.918
-37.371
-36.743
-36.037
-35.254
-34.397
-33.471
-32.478
-31.425
-30.322
-29.177
-27.995
-26.783
-25.549
-24.298
-23.038
-21.775
-20.511
-19.253
-18.009
-16.788
-15.602
-14.46
-13.369
-12.337
-11.372
-10.48
-9.668
-8.936
-8.281
-7.702
-7.207
-6.804
-6.509
-6.329
-6.259
-6.293
-6.428
-6.649
-6.932
-7.24
-7.508
-7.693
-7.773
-7.736
-7.582
-7.306
-6.882
-6.297
-5.557
-4.668
-3.646
-2.501
-1.227
0.135
1.493
2.714
3.621
4.073
3.994
3.317
1.983
-0.052
-2.835
-6.348
-10.474
-15.109
-20.183
-25.64
-31.47
-37.547
-43.579
-49.217
-54.056
-57.718
-59.944
-60.391
-58.579
-54.306
-47.639
-38.962
-29.148
-18.933
-8.608
1.331
10.216
18.037
25.204
32.837
43.056
57.342
76.134
99.985
129.272
162.822
198.216
231.407
256.75
269.695
267.052
245.503
201.991
135.658
48.2
-55.929
-169.933
-287.605
-403.6
-511.619
-604.295
-675.554
-721.978
-742.747
-739.642
-714.728
-669.56
-607.491
-534.595
-457.327
-381.034
-310.037
-246.464
-191.917
-148.913
-118.383
-98.685
-87.27
-81.161
-77.203
-73.981
-70.563
-65.111
-56.738
-45.687
-32.628
-19.135
-7.12
2.696
10.055
14.495
16.135
15.235
12.114
7.731
3.2
-0.809
-3.87
-5.749
-6.478
-6.027
-4.336
-1.53
2.206
6.677
11.698
17.154
22.951
28.982
35.095
41.091
46.799
52.083
56.855
61.085
64.761
67.863
70.393
72.387
73.884
74.963
75.693
76.124
76.32
76.352
76.3
76.27
76.345
76.583
77.028
77.709
78.642
79.849
81.339
83.104
85.135
87.427
89.972
92.771
95.821
99.105
102.607
106.306
110.181
114.217
118.397
122.703
127.114
131.613
136.182
140.803
145.459
150.124
154.773
159.378
163.913
168.349
172.659
176.815
180.789
184.555
188.089
191.368
194.37
197.075
199.461
201.511
203.21
204.542
205.497
206.062
206.229
205.992
205.347
204.294
202.831
200.963
198.691
196.024
192.971
189.54
185.745
181.6
177.12
172.324
167.23
161.86
156.235
150.378
144.313
138.066
131.661
125.123
118.479
111.754
104.973
98.162
91.345
84.547
77.791
71.1
64.497
58.002
51.636
45.417
39.364
33.491
27.815
22.349
17.105
12.093
7.323
2.802
-1.464
-5.47
-9.213
-12.692
-15.906
-18.857
-21.547
-23.98
-26.162
-28.098
-29.795
-31.261
-32.506
-33.539
-34.37
-35.01
-35.47
-35.762
-35.897
-35.889
-35.748
-35.487
-35.119
-34.655
-34.106
-33.485
-32.802
-32.069
-31.294
-30.488
-29.66
-28.819
-27.972
-27.127
-26.29
-25.468
-24.667
-23.89
-23.142
-22.427
-21.749
-21.108
-20.508
-19.95
-19.435
-18.963
-18.535
-18.15
-17.807
-17.506
-17.245
-17.022
-16.836
-16.685
-16.567
-16.479
-16.42
-16.386
-16.376
-16.386
-16.416
-16.461
-16.521
-16.593
-16.675
-16.766
-16.864
-16.966
-17.073
-17.182
-17.292
-17.403
-17.513
-17.622
-17.729
-17.833
-17.935
-18.033
-18.129
-18.223
-18.314
-18.405
-18.494
-18.584
-18.675
-18.767
-18.862
-18.96
-19.064
-19.175
-19.294
-19.422
-19.562
-19.714
-19.881
-20.062
-20.258
-20.471
-20.701
-20.948
-21.212
-21.495
-21.795
-22.114
-22.451
-22.806
-23.178
-23.567
-23.97
-24.386
-24.813
-25.248
-25.688
-26.131
-26.572
-27.01
-27.441
-27.862
-28.269
-28.659
-29.026
-29.366
-29.674
-29.945
-30.173
-30.354
-30.483
-30.556
-30.571
-30.525
-30.415
-30.238
-29.993
-29.678
-29.291
-28.831
-28.297
-27.689
-27.007
-26.256
-25.436
-24.553
-23.612
-22.618
-21.581
-20.507
-19.403
-18.274
-17.129
-15.971
-14.807
-13.643
-12.482
-11.333
-10.202
-9.1
-8.038
-7.026
-6.07
-5.181
-4.364
-3.624
-2.965
-2.388
-1.887
-1.465
-1.127
-0.882
-0.745
-0.721
-0.806
-0.998
-1.289
-1.659
-2.079
-2.503
-2.876
-3.167
-3.355
-3.432
-3.403
-3.262
-2.996
-2.603
-2.077
-1.414
-0.616
0.324
1.403
2.568
3.719
4.715
5.396
5.647
5.39
4.56
3.118
1.032
-1.711
-5.055
-8.909
-13.21
-17.907
-22.982
-28.417
-34.065
-39.636
-44.781
-49.11
-52.268
-53.997
-53.944
-51.665
-46.995
-40.054
-31.288
-21.537
-11.474
-1.362
8.349
17.017
24.596
31.481
38.763
48.473
62.054
79.911
102.524
130.266
161.98
195.269
226.309
249.694
260.806
256.456
233.292
188.121
120.396
32.135
-72.456
-186.781
-304.333
-419.662
-526.043
-615.545
-682.833
-725.262
-741.955
-734.828
-706.353
-658.215
-594.604
-522.508
-447.516
-374.098
-306.358
-245.982
-194.37
-154.049
-125.175
-105.338
-92.585
-84.536
-78.377
-73.152
-67.911
-60.703
-50.987
-39.363
-26.289
-13.127
-1.631
7.718
14.605
18.462
19.452
17.903
14.105
9.003
3.757
-1.009
-4.844
-7.453
-8.881
-9.081
-7.98
-5.719
-2.495
1.516
6.127
11.221
16.746
22.598
28.636
34.684
40.515
45.974
50.969
55.446
59.392
62.787
65.616
67.905
69.717
71.124
72.198
72.993
73.548
73.926
74.199
74.454
74.791
75.278
75.958
76.867
78.025
79.451
81.162
83.155
85.413
87.922
90.674
93.662
96.887
100.337
103.993
107.837
111.846
116.003
120.29
124.688
129.175
133.732
138.337
142.973
147.622
152.263
156.87
161.419
165.883
170.234
174.448
178.497
182.354
185.993
189.392
192.526
195.377
197.923
200.147
202.03
203.56
204.722
205.504
205.899
205.896
205.492
204.684
203.47
201.85
199.829
197.411
194.602
191.413
187.854
183.937
179.677
175.09
170.193
165.007
159.551
153.848
147.92
141.792
135.487
129.031
122.45
115.77
109.015
102.211
95.383
88.555
81.753
74.999
68.315
61.724
55.247
48.903
42.712
36.689
30.853
25.217
19.794
14.597
9.636
4.92
0.456
-3.75
-7.693
-11.37
-14.78
-17.924
-20.802
-23.417
-25.774
-27.879
-29.737
-31.357
-32.747
-33.916
-34.874
-35.633
-36.203
-36.597
-36.827
-36.905
-36.843
-36.655
-36.353
-35.949
-35.456
-34.887
-34.252
-33.563
-32.832
-32.068
-31.281
-30.482
-29.678
-28.878
-28.089
-27.317
-26.57
-25.852
-25.167
-24.52
-23.914
-23.35
-22.832
-22.359
-21.933
-21.553
-21.219
-20.931
-20.686
-20.483
-20.32
-20.195
-20.105
-20.046
-20.017
-20.014
-20.034
-20.075
-20.132
-20.203
-20.286
-20.377
-20.474
-20.574
-20.676
-20.777
-20.875
-20.968
-21.055
-21.135
-21.207
-21.27
-21.325
-21.372
-21.411
-21.443
-21.47
-21.491
-21.509
-21.525
-21.541
-21.559
-21.581
-21.609
-21.646
-21.695
-21.757
-21.835
-21.932
-22.049
-22.188
-22.35
-22.536
-22.748
-22.987
-23.254
-23.548
-23.872
-24.225
-24.607
-25.018
-25.456
-25.92
-26.409
-26.92
-27.45
-27.995
-28.551
-29.115
-29.684
-30.253
-30.819
-31.375
-31.917
-32.44
-32.937
-33.404
-33.832
-34.217
-34.552
-34.833
-35.054
-35.214
-35.308
-35.333
-35.286
-35.165
-34.968
-34.694
-34.341
-33.907
-33.392
-32.797
-32.126
-31.38
-30.565
-29.683
-28.743
-27.753
-26.721
-25.653
-24.556
-23.437
-22.303
-21.162
-20.019
-18.881
-17.753
-16.646
-15.569
-14.534
-13.551
-12.628
-11.774
-10.993
-10.293
-9.678
-9.149
-8.7
-8.333
-8.053
-7.87
-7.799
-7.848
-8.013
-8.293
-8.679
-9.152
-9.686
-10.234
-10.735
-11.156
-11.474
-11.673
-11.762
-11.731
-11.563
-11.264
-10.82
-10.221
-9.47
-8.558
-7.489
-6.324
-5.164
-4.151
-3.462
-3.217
-3.496
-4.382
-5.901
-8.08
-10.922
-14.333
-18.228
-22.558
-27.281
-32.396
-37.85
-43.429
-48.827
-53.686
-57.584
-60.204
-61.201
-60.089
-56.671
-51.004
-43.409
-34.674
-25.493
-16.159
-7.124
1.012
8.291
15.144
22.594
32.601
46.537
64.791
87.891
116.19
148.597
182.88
215.37
240.857
254.9
254.348
235.851
196.325
135.075
53.747
-43.611
-150.564
-260.674
-368.188
-466.364
-547.848
-607.708
-643.603
-655.509
-646.052
-618.547
-576.293
-524.291
-468.918
-414.951
-365.491
-322.308
-285.298
-253.994
-228.046
-205.878
-185.013
-163.911
-141.835
-118.705
-95.369
-72.597
-50.886
-31.111
-14.289
-0.952
8.719
14.882
18.078
18.805
17.491
14.655
10.82
6.415
1.821
-2.619
-6.643
-10.012
-12.529
-14.078
-14.588
-14.028
-12.408
-9.787
-6.261
-1.971
2.931
8.307
14.013
19.904
25.827
31.596
37.053
42.091
46.638
50.661
54.145
57.081
59.487
61.415
62.932
64.113
65.026
65.725
66.275
66.748
67.224
67.793
68.525
69.465
70.651
72.108
73.856
75.911
78.275
80.933
83.873
87.085
90.561
94.295
98.278
102.49
106.911
111.517
116.289
121.207
126.249
131.391
136.61
141.884
147.188
152.504
157.805
163.064
168.252
173.338
178.292
183.084
187.683
192.06
196.184
200.03
203.571
206.784
209.646
212.137
214.236
215.928
217.198
218.032
218.42
218.354
217.828
216.839
215.385
213.469
211.095
208.268
204.996
201.292
197.168
192.638
187.721
182.435
176.801
170.842
164.582
158.046
151.262
144.257
137.06
129.7
122.206
114.609
106.937
99.22
91.487
83.765
76.084
68.469
60.945
53.539
46.273
39.17
32.251
25.534
19.038
12.778
6.77
1.025
-4.444
-9.63
-14.525
-19.123
-23.42
-27.415
-31.107
-34.496
-37.587
-40.383
-42.891
-45.117
-47.07
-48.76
-50.196
-51.392
-52.358
-53.108
-53.655
-54.014
-54.197
-54.22
-54.097
-53.842
-53.47
-52.994
-52.428
-51.786
-51.08
-50.323
-49.527
-48.702
-47.86
-47.009
-46.159
-45.318
-44.493
-43.69
-42.916
-42.176
-41.473
-40.811
-40.194
-39.622
-39.098
-38.622
-38.194
-37.814
-37.481
-37.193
-36.95
-36.748
-36.586
-36.462
-36.374
-36.318
-36.293
-36.297
-36.326
-36.377
-36.45
-36.54
-36.647
-36.768
-36.902
-37.048
-37.203
-37.369
-37.543
-37.725
-37.915
-38.112
-38.315
-38.523
-38.738
-38.958
-39.183
-39.415
-39.652
-39.896
-40.147
-40.404
-40.668
-40.938
-41.212
-41.489
-41.768
-42.048
-42.325
-42.598
-42.865
-43.124
-43.374
-43.611
-43.833
-44.035
-44.215
-44.369
-44.491
-44.577
-44.623
-44.624
-44.579
-44.483
-44.335
-44.132
-43.872
-43.553
-43.173
-42.731
-42.226
-41.654
-41.017
-40.314
-39.548
-38.721
-37.837
-36.901
-35.918
-34.896
-33.843
-32.763
-31.664
-30.551
-29.428
-28.302
-27.177
-26.058
-24.951
-23.865
-22.808
-21.792
-20.829
-19.927
-19.094
-18.338
-17.662
-17.072
-16.566
-16.141
-15.798
-15.54
-15.376
-15.324
-15.39
-15.573
-15.872
-16.275
-16.766
-17.317
-17.882
-18.407
-18.855
-19.203
-19.442
-19.585
-19.628
-19.57
-19.404
-19.114
-18.694
-18.147
-17.46
-16.635
-15.71
-14.761
-13.935
-13.395
-13.263
-13.632
-14.553
-16.049
-18.142
-20.829
-24.061
-27.771
-31.886
-36.347
-41.149
-46.28
-51.631
-56.971
-61.943
-66.149
-69.237
-70.929
-70.907
-68.785
-64.406
-57.885
-49.633
-40.402
-30.833
-21.195
-11.864
-3.404
4.183
11.312
18.922
28.81
42.265
59.597
81.204
107.394
137.082
168.124
197.101
219.099
229.949
226.763
206.476
166.345
105.938
26.981
-66.572
-168.561
-272.907
-374.175
-466.012
-541.629
-596.535
-628.707
-638.309
-627.841
-600.415
-559.16
-508.748
-455.177
-402.928
-354.827
-312.495
-275.899
-244.646
-218.494
-196.083
-175.081
-154.061
-132.393
-109.973
-87.607
-66.023
-45.628
-27.221
-11.742
0.353
8.906
14.087
16.485
16.613
14.923
11.992
8.306
4.28
0.326
-3.286
-6.338
-8.612
-9.981
-10.356
-9.66
-7.887
-5.065
-1.249
3.427
8.812
14.752
21.059
27.585
34.174
40.633
46.82
52.615
57.922
62.705
66.944
70.615
73.724
76.305
78.398
80.072
81.4
82.435
83.25
83.919
84.519
85.144
85.869
86.742
87.805
89.085
90.6
92.371
94.406
96.695
99.233
102.015
105.033
108.287
111.772
115.471
119.368
123.443
127.676
132.052
136.554
141.163
145.86
150.625
155.44
160.288
165.15
170.001
174.815
179.565
184.222
188.76
193.151
197.366
201.377
205.157
208.684
211.934
214.884
217.515
219.805
221.737
223.296
224.468
225.239
225.6
225.543
225.061
224.153
222.816
221.052
218.865
216.259
213.242
209.825
206.018
201.836
197.295
192.411
187.203
181.695
175.907
169.863
163.589
157.111
150.454
143.648
136.718
129.692
122.599
115.463
108.314
101.177
94.078
87.041
80.092
73.253
66.546
59.992
53.612
47.422
41.439
35.679
30.155
24.879
19.861
15.111
10.634
6.437
2.522
-1.107
-4.451
-7.511
-10.29
-12.791
-15.022
-16.987
-18.696
-20.157
-21.38
-22.377
-23.158
-23.736
-24.123
-24.333
-24.379
-24.274
-24.032
-23.667
-23.191
-22.619
-21.963
-21.237
-20.451
-19.618
-18.749
-17.855
-16.946
-16.03
-15.117
-14.215
-13.329
-12.468
-11.636
-10.838
-10.078
-9.36
-8.685
-8.057
-7.475
-6.942
-6.456
-6.017
-5.625
-5.278
-4.975
-4.713
-4.491
-4.306
-4.155
-4.036
-3.945
-3.88
-3.838
-3.815
-3.81
-3.82
-3.842
-3.874
-3.914
-3.96
-4.011
-4.065
-4.12
-4.176
-4.231
-4.286
-4.339
-4.392
-4.444
-4.496
-4.549
-4.603
-4.66
-4.719
-4.782
-4.849
-4.92
-4.997
-5.081
-5.171
-5.268
-5.375
-5.49
-5.615
-5.75
-5.893
-6.044
-6.201
-6.365
-6.532
-6.7
-6.867
-7.032
-7.193
-7.347
-7.492
-7.624
-7.741
-7.839
-7.914
-7.962
-7.978
-7.958
-7.899
-7.796
-7.648
-7.454
-7.209
-6.913
-6.564
-6.161
-5.702
-5.188
-4.615
-3.984
-3.296
-2.552
-1.757
-0.912
-0.023
0.905
1.864
2.847
3.847
4.86
5.879
6.9
7.917
8.924
9.92
10.898
11.853
12.775
13.655
14.482
15.25
15.952
16.582
17.136
17.607
17.996
18.309
18.547
18.707
18.778
18.747
18.604
18.356
18.008
17.565
17.042
16.462
15.865
15.314
14.856
14.519
14.31
14.226
14.269
14.454
14.801
15.312
15.981
16.795
17.75
18.854
20.077
21.342
22.509
23.39
23.836
23.753
23.082
21.776
19.798
17.115
13.739
9.775
5.327
0.472
-4.758
-10.365
-16.25
-22.165
-27.737
-32.535
-36.171
-38.363
-38.784
-36.987
-32.787
-26.264
-17.807
-8.265
1.654
11.667
21.366
30.181
38.15
45.723
53.908
64.623
79.218
97.989
121.34
149.539
181.348
214.417
245.054
268.074
279.174
275.423
253.671
211.092
147.283
64.083
-34.209
-141.01
-250.138
-356.043
-452.247
-531.85
-589.909
-623.989
-634.408
-623.903
-595.379
-551.947
-498.051
-439.38
-381.32
-327.601
-279.925
-238.428
-203.143
-173.954
-150.211
-130.385
-112.108
-93.833
-75.275
-56.817
-38.949
-22.09
-6.302
8.25
20.483
29.672
35.805
39.057
39.974
39.166
36.831
33.104
28.657
24.092
19.815
16.284
13.625
11.841
11.104
11.529
13.082
15.727
19.359
23.773
28.854
34.48
40.468
46.696
52.998
59.169
65.069
70.576
75.595
80.094
84.053
87.447
90.284
92.598
94.429
95.856
96.946
97.753
98.346
98.792
99.17
99.577
100.084
100.742
101.589
102.649
103.94
105.481
107.278
109.32
111.6
114.108
116.838
119.787
122.949
126.307
129.844
133.539
137.371
141.326
145.388
149.536
153.754
158.021
162.32
166.637
170.953
175.243
179.485
183.652
187.718
191.659
195.449
199.062
202.471
205.655
208.591
211.26
213.641
215.717
217.47
218.887
219.952
220.656
220.988
220.941
220.508
219.686
218.473
216.871
214.882
212.51
209.761
206.643
203.167
199.344
195.188
190.714
185.937
180.878
175.555
169.99
164.204
158.22
152.063
145.756
139.324
132.791
126.183
119.523
112.836
106.145
99.474
92.844
86.278
79.797
73.419
67.165
61.052
55.097
49.314
43.717
38.32
33.133
28.166
23.427
18.924
14.661
10.642
6.871
3.348
0.073
-2.955
-5.741
-8.287
-10.6
-12.686
-14.552
-16.207
-17.659
-18.919
-19.996
-20.903
-21.648
-22.246
-22.706
-23.04
-23.262
-23.381
-23.41
-23.36
-23.242
-23.066
-22.844
-22.584
-22.296
-21.989
-21.671
-21.348
-21.029
-20.719
-20.423
-20.147
-19.895
-19.669
-19.474
-19.31
-19.18
-19.084
-19.023
-18.997
-19.004
-19.045
-19.117
-19.219
-19.35
-19.506
-19.686
-19.887
-20.106
-20.342
-20.59
-20.85
-21.117
-21.39
-21.667
-21.945
-22.222
-22.497
-22.769
-23.036
-23.299
-23.557
-23.808
-24.054
-24.294
-24.529
-24.76
-24.988
-25.214
-25.44
-25.667
-25.898
-26.134
-26.378
-26.632
-26.896
-27.173
-27.465
-27.773
-28.098
-28.441
-28.805
-29.189
-29.597
-30.027
-30.481
-30.959
-31.459
-31.981
-32.523
-33.084
-33.661
-34.251
-34.851
-35.459
-36.072
-36.686
-37.298
-37.904
-38.5
-39.08
-39.641
-40.176
-40.68
-41.148
-41.575
-41.956
-42.29
-42.573
-42.802
-42.974
-43.086
-43.139
-43.129
-43.056
-42.917
-42.711
-42.441
-42.107
-41.714
-41.263
-40.761
-40.212
-39.626
-39.01
-38.371
-37.715
-37.048
-36.377
-35.709
-35.049
-34.402
-33.772
-33.169
-32.601
-32.08
-31.616
-31.217
-30.89
-30.641
-30.477
-30.403
-30.419
-30.52
-30.705
-30.978
-31.348
-31.831
-32.434
-33.151
-33.978
-34.908
-35.927
-37.012
-38.125
-39.203
-40.199
-41.085
-41.852
-42.503
-43.034
-43.428
-43.664
-43.735
-43.647
-43.413
-43.034
-42.503
-41.846
-41.135
-40.508
-40.145
-40.196
-40.752
-41.87
-43.597
-45.974
-49.04
-52.796
-57.149
-61.995
-67.26
-72.91
-78.945
-85.279
-91.674
-97.762
-103.126
-107.38
-110.243
-111.402
-110.405
-107.043
-101.36
-93.685
-84.819
-75.469
-65.923
-56.622
-48.177
-40.555
-33.347
-25.575
-15.294
-1.165
17.158
40.217
68.36
100.478
134.349
166.137
190.487
203.186
201.281
181.65
141.444
79.613
-2.57
-100.812
-208.662
-320.265
-430.483
-533.763
-623.536
-693.736
-740.748
-763.931
-764.949
-746.034
-709.103
-656.442
-592.865
-524.524
-456.471
-392.562
-334.844
-284.169
-242.074
-210.377
-188.529
-174.308
-165.286
-158.618
-152.816
-147.674
-142.214
-134.978
-125.632
-114.629
-103.057
-92.806
-84.793
-78.928
-75.344
-74.199
-75.389
-78.706
-83.446
-88.416
-92.843
-96.398
-98.871
-100.241
-100.476
-99.47
-97.286
-94.148
-90.252
-85.768
-80.82
-75.473
-69.835
-64.076
-58.39
-52.952
-47.897
-43.312
-39.237
-35.695
-32.698
-30.24
-28.29
-26.8
-25.707
-24.944
-24.46
-24.199
-24.092
-24.062
-24.008
-23.849
-23.526
-22.997
-22.232
-21.214
-19.923
-18.355
-16.519
-14.423
-12.075
-9.482
-6.644
-3.57
-0.271
3.235
6.926
10.781
14.785
18.92
23.164
27.501
31.908
36.367
40.862
45.373
49.874
54.34
58.743
63.055
67.249
71.296
75.168
78.838
82.279
85.468
88.381
90.998
93.297
95.259
96.867
98.105
98.961
99.423
99.48
99.126
98.356
97.166
95.556
93.529
91.088
88.237
84.987
81.346
77.327
72.945
68.214
63.153
57.78
52.119
46.19
40.018
33.626
27.042
20.291
13.401
6.397
-0.692
-7.841
-15.023
-22.211
-29.381
-36.508
-43.567
-50.535
-57.39
-64.112
-70.68
-77.075
-83.282
-89.285
-95.069
-100.622
-105.934
-110.996
-115.799
-120.338
-124.609
-128.609
-132.337
-135.793
-138.981
-141.903
-144.564
-146.97
-149.13
-151.051
-152.742
-154.214
-155.479
-156.546
-157.429
-158.14
-158.691
-159.097
-159.368
-159.52
-159.564
-159.514
-159.382
-159.179
-158.919
-158.611
-158.267
-157.896
-157.508
-157.111
-156.715
-156.325
-155.948
-155.591
-155.258
-154.954
-154.681
-154.443
-154.241
-154.076
-153.95
-153.862
-153.812
-153.8
-153.822
-153.879
-153.967
-154.085
-154.23
-154.398
-154.588
-154.795
-155.018
-155.252
-155.495
-155.745
-155.998
-156.252
-156.504
-156.752
-156.994
-157.228
-157.451
-157.663
-157.863
-158.048
-158.22
-158.377
-158.519
-158.646
-158.76
-158.862
-158.952
-159.031
-159.1
-159.162
-159.218
-159.269
-159.317
-159.364
-159.413
-159.464
-159.521
-159.584
-159.656
-159.738
-159.83
-159.934
-160.051
-160.18
-160.323
-160.48
-160.65
-160.836
-161.035
-161.25
-161.478
-161.719
-161.971
-162.233
-162.503
-162.779
-163.056
-163.332
-163.604
-163.869
-164.124
-164.364
-164.588
-164.789
-164.965
-165.112
-165.225
-165.299
-165.329
-165.311
-165.242
-165.119
-164.94
-164.702
-164.403
-164.042
-163.617
-163.127
-162.573
-161.951
-161.261
-160.501
-159.675
-158.783
-157.827
-156.811
-155.737
-154.612
-153.443
-152.237
-150.997
-149.73
-148.441
-147.133
-145.814
-144.488
-143.154
-141.816
-140.48
-139.152
-137.841
-136.553
-135.29
-134.058
-132.862
-131.706
-130.593
-129.523
-128.487
-127.485
-126.519
-125.597
-124.734
-123.936
-123.196
-122.51
-121.875
-121.274
-120.685
-120.068
-119.355
-118.498
-117.475
-116.267
-114.875
-113.293
-111.496
-109.478
-107.242
-104.79
-102.14
-99.3
-96.264
-93.085
-89.862
-86.734
-83.9
-81.517
-79.671
-78.453
-77.921
-78.117
-79.08
-80.765
-83.059
-85.881
-89.176
-92.913
-97.061
-101.433
-105.719
-109.546
-112.458
-114.094
-114.094
-111.965
-107.442
-100.533
-91.489
-81.011
-69.825
-58.256
-46.782
-36.049
-25.985
-16.122
-5.418
8.112
25.789
47.948
75.144
107.762
144.694
183.703
220.846
250.577
268.596
271.883
257.215
221.62
163.846
84.949
-10.872
-117.079
-227.755
-337.686
-441.221
-531.695
-602.792
-650.597
-674.275
-675.378
-656.064
-618.235
-564.157
-498.635
-427.976
-357.397
-290.864
-230.57
-177.454
-133.091
-99.361
-75.716
-59.836
-49.221
-40.967
-33.514
-26.636
-19.343
-10.153
1.235
14.305
27.918
40.129
50.007
57.652
62.921
65.658
65.981
64.112
60.78
57.205
54.156
51.962
50.842
50.816
51.932
54.307
57.88
62.433
67.774
73.732
80.189
87.079
94.286
101.637
108.934
115.997
122.694
128.94
134.692
139.927
144.633
148.814
152.503
155.745
158.601
161.139
163.407
165.463
167.377
169.232
171.126
173.148
175.355
177.793
180.49
183.466
186.738
190.311
194.174
198.319
202.735
207.416
212.36
217.56
223.001
228.665
234.53
240.574
246.779
253.126
259.594
266.16
272.803
279.503
286.242
292.999
299.748
306.463
313.115
319.676
326.117
332.409
338.522
344.425
350.093
355.499
360.621
365.438
369.931
374.086
377.891
381.336
384.411
387.111
389.429
391.362
392.907
394.06
394.822
395.197
395.191
394.817
394.089
393.025
391.646
389.976
388.038
385.86
383.47
380.887
378.137
375.242
372.234
369.15
366.024
362.88
359.738
356.614
353.519
350.459
347.431
344.407
341.359
338.261
335.087
331.841
328.531
325.158
321.725
318.233
314.698
311.172
307.72
304.388
301.227
298.282
295.605
293.307
291.489
290.228
289.592
289.597
290.24
291.525
293.438
295.921
298.87
302.104
305.392
308.547
311.377
313.708
315.377
316.149
315.81
314.191
311.147
306.574
300.392
292.508
282.851
271.447
258.395
243.906
228.28
211.78
194.684
177.245
