-134.315
-126.269
-118.741
-111.685
-105.055
-98.815
-92.939
-87.396
-82.147
-77.138
-72.307
-67.612
-63.034
-58.557
-54.178
-49.892
-45.695
-41.598
-37.621
-33.786
-30.104
-26.585
-23.228
-20.041
-17.033
-14.212
-11.588
-9.16
-6.927
-4.887
-3.037
-1.373
0.112
1.43
2.594
3.613
4.496
5.25
5.884
6.405
6.821
7.14
7.368
7.512
7.581
7.585
7.534
7.438
7.304
7.144
6.967
6.784
6.605
6.439
6.293
6.178
6.102
6.074
6.103
6.196
6.36
6.602
6.931
7.351
7.866
8.481
9.197
10.016
10.941
11.973
13.112
14.358
15.709
17.167
18.733
20.403
22.175
24.045
26.007
28.057
30.188
32.392
34.658
36.977
39.34
41.739
44.166
46.613
49.069
51.528
53.985
56.434
58.864
61.267
63.631
65.947
68.208
70.408
72.539
74.594
76.567
78.458
80.271
82.006
83.657
85.216
86.664
87.994
89.21
90.315
91.309
92.206
93.027
93.811
94.623
95.509
96.489
97.582
98.784
100.104
101.566
103.173
104.921
106.81
108.821
110.952
113.205
115.525
117.81
119.923
121.662
122.881
123.493
123.406
122.56
120.912
118.424
115.164
111.249
106.758
101.744
96.23
90.259
84.044
77.916
72.25
67.495
63.998
62.114
62.358
64.98
69.953
76.977
85.264
94.06
103.063
111.835
119.768
126.964
133.917
141.712
152.41
167.417
187.076
211.862
242.02
276.242
312.032
345.429
370.967
384.176
382.009
361.222
318.85
254.312
169.485
68.795
-41.106
-153.88
-264.19
-365.769
-451.365
-515.658
-555.868
-571.868
-566.09
-541.329
-499.772
-445.081
-383.219
-319.809
-259.412
-204.783
-156.529
-115.06
-81.537
-56.357
-37.95
-23.978
-11.801
0.156
11.921
23.445
35.272
48.109
61.9
75.715
87.969
97.605
104.538
108.985
111.143
110.918
108.319
103.859
98.496
93.126
88.287
84.234
81.022
78.773
77.65
77.686
78.783
80.77
83.479
86.783
90.614
94.899
99.52
104.337
109.18
113.86
118.23
122.193
125.689
128.692
131.19
133.176
134.671
135.733
136.435
136.852
137.047
137.069
136.976
136.845
136.765
136.831
137.117
137.669
138.523
139.706
141.239
143.139
145.41
148.037
151.007
154.309
157.937
161.886
166.146
170.695
175.51
180.566
185.841
191.312
196.955
202.743
208.649
214.646
220.707
226.807
232.918
239.007
245.039
250.98
256.794
262.448
267.906
273.134
278.096
282.763
287.104
291.093
294.701
297.906
300.683
303.014
304.88
306.267
307.162
307.554
307.436
306.804
305.656
303.992
301.817
299.137
295.959
292.296
288.161
283.57
278.541
273.094
267.252
261.039
254.48
247.603
240.436
233.009
225.353
217.497
209.475
201.316
193.053
184.716
176.336
167.943
159.565
151.232
142.97
134.804
126.76
118.86
111.126
103.578
96.234
89.11
82.221
75.579
69.196
63.081
57.24
51.679
46.402
41.411
36.705
32.283
28.142
24.276
20.681
17.348
14.269
11.434
8.833
6.452
4.281
2.306
0.514
-1.11
-2.579
-3.908
-5.111
-6.203
-7.197
-8.108
-8.949
-9.733
-10.473
-11.18
-11.867
-12.543
-13.219
-13.904
-14.607
-15.335
-16.095
-16.893
-17.735
-18.626
-19.568
-20.565
-21.62
-22.733
-23.906
-25.139
-26.431
-27.782
-29.189
-30.652
-32.167
-33.731
-35.342
-36.995
-38.688
-40.415
-42.174
-43.959
-45.766
-47.592
-49.43
-51.278
-53.13
-54.983
-56.833
-58.675
-60.506
-62.322
-64.121
-65.898
-67.652
-69.379
-71.077
-72.744
-74.379
-75.979
-77.544
-79.073
-80.565
-82.02
-83.437
-84.817
-86.16
-87.467
-88.738
-89.974
-91.178
-92.349
-93.49
-94.604
-95.691
-96.755
-97.799
-98.825
-99.835
-100.834
-101.822
-102.805
-103.784
-104.762
-105.743
-106.73
-107.726
-108.734
-109.756
-110.796
-111.855
-112.936
-114.039
-115.167
-116.321
-117.501
-118.709
-119.945
-121.208
-122.5
-123.821
-125.17
-126.545
-127.946
-129.369
-130.813
-132.274
-133.75
-135.235
-136.726
-138.219
-139.709
-141.193
-142.666
-144.122
-145.556
-146.963
-148.336
-149.671
-150.96
-152.197
-153.377
-154.496
-155.549
-156.533
-157.445
-158.28
-159.037
-159.714
-160.308
-160.817
-161.241
-161.577
-161.826
-161.988
-162.067
-162.064
-161.985
-161.835
-161.619
-161.346
-161.022
-160.653
-160.244
-159.802
-159.332
-158.84
-158.329
-157.805
-157.272
-156.739
-156.216
-155.712
-155.233
-154.785
-154.374
-154.006
-153.686
-153.417
-153.193
-153.014
-152.879
-152.798
-152.785
-152.844
-152.974
-153.166
-153.409
-153.695
-154.003
-154.297
-154.524
-154.624
-154.559
-154.316
-153.893
-153.28
-152.464
-151.418
-150.127
-148.609
-146.885
-144.966
-142.858
-140.577
-138.181
-135.798
-133.599
-131.747
-130.365
-129.518
-129.259
-129.647
-130.729
-132.518
-134.955
-137.911
-141.274
-145.002
-149.087
-153.454
-157.898
-162.08
-165.578
-168.002
-169.056
-168.393
-165.568
-160.345
-152.741
-143.08
-132.12
-120.569
-108.76
-97.106
-86.146
-75.838
-65.732
-54.818
-41.259
-23.723
-1.87
24.662
56.1
91.234
127.744
162.019
188.966
204.313
205.143
188.345
151.047
92.749
15.129
-77.89
-180.022
-285.153
-387.919
-481.9
-560.161
-618.077
-653.41
-666.175
-658.899
-634.639
-596.444
-548.982
-498.175
-448.509
-402.89
-362.922
-328.541
-299.304
-274.838
-253.722
-233.657
-213.176
-191.627
-168.919
-145.794
-123.038
-101.174
-81.044
-63.681
-49.606
-38.986
-31.728
-27.341
-25.364
-25.428
-27.02
-29.609
-32.814
-36.276
-39.689
-42.86
-45.532
-47.478
-48.589
-48.778
-48.009
-46.303
-43.687
-40.224
-36.05
-31.306
-26.127
-20.67
-15.054
-9.414
-3.918
1.307
6.149
10.527
14.412
17.79
20.651
23.017
24.928
26.436
27.619
28.549
29.279
29.881
30.42
30.971
31.623
32.442
33.478
34.77
36.344
38.221
40.419
42.944
45.786
48.937
52.387
56.128
60.156
64.46
69.021
73.822
78.836
84.044
89.424
94.954
100.612
106.371
112.208
118.097
124.016
129.94
135.838
141.679
147.432
153.065
158.546
163.845
168.93
173.769
178.336
182.603
186.547
190.145
193.375
196.217
198.656
200.675
202.264
203.411
204.11
204.354
204.143
203.475
202.355
200.788
198.781
196.343
193.488
190.229
186.584
182.571
178.21
173.523
168.534
163.268
157.753
152.015
146.082
139.984
133.749
127.407
120.987
114.518
108.028
101.544
95.094
88.702
82.395
76.195
70.125
64.206
58.457
52.897
47.541
42.405
37.501
32.84
28.433
24.286
20.406
16.798
13.464
10.406
7.623
5.113
2.873
0.898
-0.817
-2.281
-3.5
-4.484
-5.243
-5.788
-6.129
-6.278
-6.247
-6.048
-5.694
-5.196
-4.566
-3.818
-2.963
-2.012
-0.976
0.134
1.307
2.534
3.806
5.115
6.453
7.812
9.185
10.568
11.954
13.338
14.717
16.087
17.444
18.787
20.113
21.419
22.705
23.969
25.21
26.427
27.62
28.786
29.927
31.04
32.126
33.184
34.212
35.209
36.174
37.105
38.001
38.859
39.676
40.45
41.177
41.855
42.48
43.047
43.555
43.997
44.369
44.668
44.889
45.026
45.076
45.033
44.894
44.653
44.307
43.853
43.287
42.607
41.81
40.895
39.859
38.703
37.425
36.025
34.505
32.866
31.11
29.241
27.262
25.178
22.995
20.718
18.354
15.91
13.394
10.813
8.175
5.491
2.77
0.024
-2.739
-5.505
-8.263
-11.002
-13.709
-16.372
-18.98
-21.523
-23.99
-26.369
-28.65
-30.825
-32.882
-34.814
-36.611
-38.264
-39.767
-41.115
-42.301
-43.325
-44.183
-44.873
-45.395
-45.751
-45.941
-45.968
-45.835
-45.546
-45.104
-44.517
-43.795
-42.945
-41.979
-40.907
-39.742
-38.502
-37.2
-35.85
-34.464
-33.058
-31.643
-30.233
-28.841
-27.475
-26.146
-24.867
-23.651
-22.514
-21.467
-20.52
-19.682
-18.964
-18.374
-17.918
-17.599
-17.414
-17.36
-17.445
-17.674
-18.061
-18.614
-19.324
-20.184
-21.187
-22.313
-23.539
-24.821
-26.09
-27.296
-28.411
-29.415
-30.304
-31.068
-31.681
-32.13
-32.413
-32.526
-32.479
-32.273
-31.901
-31.404
-30.87
-30.424
-30.25
-30.488
-31.219
-32.518
-34.434
-37
-40.241
-44.107
-48.489
-53.299
-58.486
-64.032
-69.899
-75.913
-81.791
-87.18
-91.662
-94.91
-96.569
-96.177
-93.491
-88.508
-81.488
-73.109
-64.048
-54.635
-45.297
-36.587
-28.467
-20.512
-11.745
-0.362
14.935
34.527
58.84
88.161
121.399
156.38
189.618
216.137
231.719
233.417
218.088
182.822
126.955
51.943
-38.528
-138.421
-241.793
-343.4
-436.958
-515.641
-574.809
-612.108
-627.374
-622.91
-601.57
-566.206
-521.27
-472.514
-424.334
-379.637
-340.09
-305.703
-276.118
-251.063
-229.214
-208.337
-187.001
-164.541
-140.828
-116.617
-92.699
-69.607
-48.216
-29.579
-14.246
-2.428
5.933
11.285
14.05
14.587
13.411
11.039
7.854
4.197
0.348
-3.441
-6.864
-9.657
-11.659
-12.771
-12.943
-12.162
-10.423
-7.775
-4.329
-0.229
4.38
9.37
14.632
20.056
25.501
30.798
35.799
40.407
44.565
48.255
51.463
54.185
56.44
58.28
59.78
61.015
62.051
62.938
63.732
64.497
65.31
66.254
67.392
68.769
70.415
72.354
74.604
77.18
80.082
83.294
86.8
90.588
94.646
98.968
103.54
108.34
113.346
118.531
123.872
129.348
134.934
140.603
146.329
152.087
157.85
163.597
169.299
174.927
180.451
185.839
191.059
196.083
200.879
205.416
209.666
213.602
217.2
220.437
223.292
225.746
227.781
229.382
230.538
231.237
231.473
231.24
230.534
229.357
227.71
225.599
223.03
220.013
216.559
212.683
208.4
203.729
198.69
193.303
187.591
181.581
175.298
168.769
162.021
155.085
147.988
140.76
133.432
126.032
118.59
111.133
103.689
96.286
88.948
81.7
74.567
67.569
60.729
54.064
47.593
41.332
35.295
29.494
23.941
18.645
13.612
8.85
4.361
0.148
-3.788
-7.448
-10.835
-13.953
-16.806
-19.402
-21.748
-23.853
-25.727
-27.38
-28.824
-30.071
-31.132
-32.021
-32.75
-33.333
-33.782
-34.11
-34.33
-34.454
-34.495
-34.465
-34.373
-34.232
-34.05
-33.838
-33.604
-33.356
-33.101
-32.847
-32.598
-32.36
-32.138
-31.934
-31.752
-31.595
-31.463
-31.358
-31.281
-31.231
-31.207
-31.209
-31.236
-31.285
-31.355
-31.444
-31.549
-31.668
-31.798
-31.938
-32.083
-32.233
-32.384
-32.535
-32.683
-32.825
-32.961
-33.088
-33.206
-33.312
-33.407
-33.488
-33.555
-33.609
-33.648
-33.673
-33.683
-33.679
-33.662
-33.632
-33.589
-33.535
-33.471
-33.398
-33.316
-33.227
-33.132
-33.032
-32.928
-32.821
-32.712
-32.602
-32.492
-32.383
-32.276
-32.173
-32.072
-31.977
-31.887
-31.802
-31.724
-31.652
-31.587
-31.529
-31.48
-31.438
-31.405
-31.381
-31.366
-31.36
-31.364
-31.377
-31.399
-31.429
-31.466
-31.512
-31.564
-31.622
-31.686
-31.755
-31.828
-31.905
-31.984
-32.064
-32.143
-32.218
-32.287
-32.348
-32.398
-32.434
-32.454
-32.454
-32.434
-32.389
-32.317
-32.213
-32.075
-31.899
-31.682
-31.418
-31.104
-30.736
-30.311
-29.826
-29.279
-28.668
-27.991
-27.247
-26.434
-25.551
-24.598
-23.574
-22.478
-21.312
-20.078
-18.778
-17.418
-16.003
-14.54
-13.036
-11.499
-9.935
-8.354
-6.76
-5.161
-3.562
-1.966
-0.381
1.185
2.725
4.229
5.686
7.086
8.418
9.673
10.844
11.923
12.903
13.786
14.568
15.245
15.811
16.25
16.551
16.716
16.75
16.66
16.466
16.183
15.839
15.481
15.154
14.898
14.759
14.745
14.862
15.128
15.562
16.194
17.051
18.108
19.326
20.681
22.138
23.657
25.179
26.56
27.647
28.306
28.411
27.895
26.728
24.845
22.192
18.741
14.496
9.583
4.18
-1.605
-7.677
-13.948
-20.256
-26.244
-31.484
-35.591
-38.192
-39.031
-37.811
-34.06
-27.554
-18.379
-6.908
6.001
19.553
33.429
47.164
60.09
72.188
83.803
95.89
110.443
128.846
151.421
178.597
210.569
246.009
282.464
316.067
341.482
354.36
351.762
330.576
287.979
223.518
139.159
39.326
-69.443
-180.963
-290.048
-390.582
-475.433
-539.362
-579.64
-596.126
-591.146
-567.367
-526.846
-473.111
-412.039
-349.21
-289.176
-234.72
-186.507
-145.008
-111.44
-86.263
-67.948
-54.163
-42.258
-30.63
-19.221
-8.056
3.427
15.959
29.495
43.1
55.178
64.662
71.458
75.781
77.826
77.497
74.805
70.272
64.864
59.486
54.676
50.69
47.588
45.494
44.576
44.869
46.278
48.634
51.772
55.568
59.955
64.861
70.162
75.715
81.345
86.86
92.107
96.986
101.43
105.408
108.902
111.898
114.412
116.493
118.207
119.619
120.785
121.745
122.554
123.279
124.004
124.82
125.795
126.971
128.38
130.044
131.981
134.204
136.714
139.494
142.529
145.808
149.323
153.07
157.039
161.211
165.564
170.075
174.724
179.493
184.361
189.305
194.303
199.334
204.377
209.414
214.422
219.375
224.248
229.012
233.639
238.104
242.378
246.434
250.246
253.789
257.04
259.98
262.588
264.846
266.736
268.244
269.358
270.066
270.36
270.231
269.676
268.693
267.28
265.439
263.176
260.494
257.401
253.908
250.026
245.769
241.152
236.19
230.903
225.31
219.431
213.291
206.91
200.313
193.525
186.571
179.476
172.265
164.964
157.597
150.188
142.762
135.342
127.949
120.606
113.333
106.151
99.076
92.128
85.321
78.671
72.191
65.893
59.788
53.884
48.19
42.713
37.457
32.426
27.623
23.048
18.702
14.584
10.69
7.017
3.561
0.315
-2.726
-5.569
-8.223
-10.696
-12.996
-15.133
-17.116
-18.954
-20.658
-22.237
-23.7
-25.057
-26.317
-27.489
-28.583
-29.605
-30.565
-31.469
-32.325
-33.14
-33.919
-34.669
-35.394
-36.1
-36.791
-37.47
-38.142
-38.809
-39.473
-40.138
-40.803
-41.471
-42.142
-42.818
-43.498
-44.183
-44.871
-45.564
-46.26
-46.959
-47.66
-48.362
-49.064
-49.766
-50.468
-51.167
-51.864
-52.558
-53.248
-53.935
-54.617
-55.295
-55.968
-56.635
-57.298
-57.955
-58.606
-59.251
-59.891
-60.525
-61.153
-61.775
-62.392
-63.002
-63.606
-64.204
-64.797
-65.383
-65.964
-66.539
-67.109
-67.673
-68.232
-68.786
-69.334
-69.876
-70.412
-70.943
-71.467
-71.985
-72.497
-73.002
-73.501
-73.994
-74.481
-74.962
-75.437
-75.907
-76.371
-76.831
-77.286
-77.739
-78.189
-78.637
-79.085
-79.535
-79.987
-80.442
-80.901
-81.365
-81.835
-82.312
-82.796
-83.288
-83.788
-84.297
-84.815
-85.344
-85.884
-86.434
-86.994
-87.562
-88.138
-88.721
-89.308
-89.898
-90.486
-91.073
-91.654
-92.23
-92.795
-93.347
-93.883
-94.398
-94.889
-95.352
-95.781
-96.172
-96.518
-96.818
-97.067
-97.262
-97.401
-97.48
-97.496
-97.448
-97.334
-97.153
-96.903
-96.581
-96.188
-95.726
-95.197
-94.603
-93.95
-93.242
-92.487
-91.693
-90.867
-90.015
-89.143
-88.258
-87.367
-86.474
-85.586
-84.706
-83.841
-83.002
-82.2
-81.444
-80.745
-80.11
-79.547
-79.067
-78.677
-78.381
-78.179
-78.068
-78.053
-78.145
-78.358
-78.7
-79.172
-79.764
-80.468
-81.276
-82.171
-83.116
-84.059
-84.94
-85.715
-86.37
-86.901
-87.3
-87.552
-87.628
-87.509
-87.213
-86.764
-86.172
-85.446
-84.59
-83.652
-82.75
-82.047
-81.706
-81.853
-82.551
-83.851
-85.815
-88.488
-91.894
-95.986
-100.626
-105.692
-111.124
-116.898
-122.953
-129.1
-135.007
-140.263
-144.46
-147.283
-148.368
-147.237
-143.609
-137.449
-129.013
-119.013
-108.137
-96.721
-85.246
-74.34
-64.017
-53.939
-43.023
-29.249
-11.408
10.84
37.942
70.114
106.592
145.567
183.057
213.461
232.828
238.262
226.939
196.4
144.547
71.403
-19.059
-120.599
-227.982
-336.347
-440.92
-536.051
-614.409
-670.838
-704.073
-714.996
-705.138
-676.116
-629.164
-567.968
-499.477
-429.681
-362.863
-301.793
-247.498
-201.413
-165.918
-141.009
-124.095
-112.402
-102.828
-93.499
-84.384
-74.799
-63.289
-49.559
-34.183
-18.324
-4.066
7.475
16.385
22.552
25.859
26.46
24.486
20.551
15.863
11.248
7.161
3.951
1.687
0.442
0.377
1.481
3.605
6.619
10.351
14.661
19.486
24.729
30.276
36.004
41.735
47.28
52.489
57.256
61.532
65.295
68.521
71.197
73.339
74.996
76.247
77.168
77.814
78.235
78.488
78.646
78.8
79.044
79.447
80.054
80.9
82.008
83.402
85.101
87.108
89.409
91.993
94.85
97.977
101.372
105.025
108.919
113.032
117.344
121.836
126.491
131.29
136.21
141.23
146.328
151.482
156.675
161.881
167.073
172.222
177.298
182.271
187.113
191.791
196.275
200.536
204.545
208.277
211.707
214.81
217.564
219.948
221.944
223.536
224.708
225.449
225.748
225.598
224.993
223.932
222.414
220.44
218.015
215.146
211.842
208.114
203.976
199.443
194.532
189.264
183.66
177.743
171.539
165.073
158.373
151.466
144.384
137.154
129.807
122.373
114.882
107.363
99.845
92.358
84.928
77.583
70.349
63.25
56.31
49.551
42.993
36.656
30.556
24.709
19.129
13.829
8.818
4.105
-0.303
-4.402
-8.189
-11.661
-14.822
-17.671
-20.214
-22.457
-24.405
-26.068
-27.455
-28.578
-29.448
-30.077
-30.48
-30.67
-30.662
-30.471
-30.113
-29.602
-28.954
-28.184
-27.307
-26.338
-25.291
-24.179
-23.017
-21.816
-20.589
-19.346
-18.1
-16.858
-15.631
-14.426
-13.251
-12.111
-11.013
-9.962
-8.96
-8.011
-7.118
-6.282
-5.503
-4.783
-4.12
-3.513
-2.962
-2.464
-2.017
-1.619
-1.267
-0.958
-0.689
-0.457
-0.259
-0.092
0.046
0.159
0.249
0.32
0.373
0.411
0.435
0.448
0.451
0.446
0.434
0.415
0.391
0.361
0.328
0.29
0.247
0.2
0.149
0.092
0.03
-0.038
-0.112
-0.194
-0.283
-0.38
-0.486
-0.6
-0.723
-0.855
-0.996
-1.146
-1.305
-1.471
-1.646
-1.829
-2.018
-2.214
-2.415
-2.62
-2.828
-3.039
-3.251
-3.463
-3.675
-3.885
-4.093
-4.299
-4.5
-4.698
-4.89
-5.078
-5.259
-5.435
-5.604
-5.768
-5.926
-6.08
-6.229
-6.376
-6.521
-6.665
-6.808
-6.953
-7.1
-7.25
-7.405
-7.565
-7.731
-7.906
-8.089
-8.284
-8.489
-8.707
-8.937
-9.178
-9.431
-9.695
-9.968
-10.248
-10.534
-10.824
-11.117
-11.41
-11.7
-11.986
-12.263
-12.529
-12.779
-13.009
-13.215
-13.391
-13.532
-13.633
-13.693
-13.706
-13.67
-13.581
-13.435
-13.23
-12.964
-12.634
-12.238
-11.774
-11.24
-10.637
-9.967
-9.232
-8.435
-7.581
-6.676
-5.728
-4.743
-3.727
-2.686
-1.625
-0.55
0.533
1.622
2.71
3.791
4.856
5.894
6.894
7.848
8.746
9.582
10.344
11.027
11.626
12.144
12.58
12.93
13.183
13.323
13.342
13.244
13.035
12.724
12.32
11.841
11.321
10.817
10.381
10.052
9.84
9.744
9.773
9.943
10.281
10.808
11.502
12.336
13.296
14.373
15.557
16.797
17.971
18.91
19.464
19.522
19.029
17.951
16.225
13.801
10.647
6.793
2.387
-2.44
-7.616
-13.092
-18.829
-24.676
-30.29
-35.265
-39.225
-41.83
-42.85
-41.983
-38.753
-32.972
-24.745
-14.506
-3.167
8.531
20.322
31.773
42.251
51.742
60.615
69.903
81.664
97.327
117.241
141.826
171.297
204.36
238.559
270.049
293.492
304.459
299.958
276.851
232.305
165.942
79.829
-21.557
-131.602
-244.014
-353.501
-453.823
-537.804
-600.257
-638.567
-652.749
-645.249
-618.828
-575.651
-519.343
-455.905
-391.016
-329.228
-273.283
-223.844
-181.366
-147.106
-121.599
-103.256
-89.683
-78.217
-67.197
-56.565
-46.351
-35.928
-24.508
-12.108
0.361
11.301
19.647
25.373
28.734
29.967
29.041
25.944
21.206
15.836
10.691
6.282
2.848
0.386
-1.005
-1.153
-0.051
2.187
5.386
9.332
13.886
18.969
24.456
30.217
36.092
41.864
47.378
52.515
57.181
61.345
64.989
68.087
70.645
72.697
74.286
75.486
76.368
76.981
77.387
77.653
77.86
78.111
78.484
79.031
79.794
80.795
82.055
83.592
85.415
87.514
89.88
92.507
95.386
98.518
101.898
105.509
109.334
113.351
117.54
121.884
126.366
130.966
135.665
140.442
145.277
150.155
155.054
159.948
164.811
169.615
174.33
178.929
183.383
187.662
191.737
195.582
199.171
202.481
205.49
208.174
210.514
212.492
214.09
215.296
216.095
216.477
216.434
215.961
215.053
213.71
211.934
209.727
207.094
204.045
200.588
196.736
192.504
187.906
182.962
177.69
172.113
166.254
160.136
153.786
147.23
140.495
133.61
126.601
119.498
112.327
105.117
97.895
90.687
83.52
76.419
69.408
62.51
55.748
49.141
42.709
36.471
30.441
24.634
19.064
13.741
8.675
3.873
-0.658
-4.915
-8.894
-12.595
-16.02
-19.169
-22.047
-24.66
-27.013
-29.115
-30.976
-32.604
-34.011
-35.208
-36.208
-37.023
-37.667
-38.152
-38.494
-38.704
-38.798
-38.788
-38.687
-38.509
-38.266
-37.969
-37.631
-37.262
-36.871
-36.469
-36.064
-35.663
-35.274
-34.903
-34.555
-34.235
-33.947
-33.694
-33.478
-33.301
-33.164
-33.068
-33.012
-32.996
-33.019
-33.079
-33.175
-33.304
-33.465
-33.654
-33.87
-34.11
-34.371
-34.651
-34.946
-35.255
-35.575
-35.904
-36.24
-36.582
-36.927
-37.276
-37.627
-37.978
-38.331
-38.685
-39.039
-39.395
-39.753
-40.113
-40.477
-40.846
-41.22
-41.601
-41.991
-42.39
-42.801
-43.223
-43.658
-44.107
-44.572
-45.052
-45.548
-46.062
-46.592
-47.14
-47.704
-48.285
-48.883
-49.496
-50.122
-50.762
-51.413
-52.074
-52.742
-53.416
-54.094
-54.773
-55.45
-56.124
-56.79
-57.447
-58.091
-58.719
-59.328
-59.917
-60.481
-61.019
-61.529
-62.009
-62.457
-62.871
-63.251
-63.595
-63.903
-64.174
-64.408
-64.605
-64.766
-64.892
-64.983
-65.041
-65.068
-65.066
-65.036
-64.982
-64.903
-64.804
-64.685
-64.551
-64.403
-64.244
-64.077
-63.906
-63.733
-63.561
-63.392
-63.229
-63.072
-62.925
-62.787
-62.66
-62.542
-62.434
-62.336
-62.247
-62.167
-62.095
-62.029
-61.966
-61.904
-61.841
-61.773
-61.695
-61.603
-61.494
-61.364
-61.21
-61.03
-60.821
-60.579
-60.301
-59.985
-59.629
-59.23
-58.785
-58.29
-57.744
-57.147
-56.499
-55.802
-55.057
-54.266
-53.435
-52.57
-51.675
-50.754
-49.811
-48.85
-47.875
-46.891
-45.901
-44.906
-43.913
-42.929
-41.963
-41.024
-40.118
-39.252
-38.431
-37.663
-36.954
-36.307
-35.719
-35.188
-34.719
-34.321
-34.013
-33.802
-33.689
-33.665
-33.727
-33.868
-34.069
-34.3
-34.505
-34.627
-34.631
-34.506
-34.249
-33.855
-33.309
-32.581
-31.661
-30.569
-29.327
-27.951
-26.446
-24.828
-23.165
-21.589
-20.279
-19.405
-19.086
-19.388
-20.368
-22.09
-24.603
-27.929
-31.994
-36.657
-41.813
-47.406
-53.413
-59.751
-66.183
-72.331
-77.761
-82.062
-84.925
-86.014
-84.855
-81.198
-75.069
-66.786
-57.152
-46.923
-36.419
-26.077
-16.498
-7.635
0.954
10.278
22.304
38.42
58.975
84.442
115.093
149.655
185.69
219.335
245.241
259.015
257.662
237.96
196.93
133.957
50.849
-48.055
-156.208
-267.389
-376.36
-476.913
-561.811
-625.687
-665.677
-681.575
-675.723
-650.814
-608.946
-553.707
-491.052
-426.665
-365.201
-309.494
-260.229
-217.878
-183.67
-158.063
-139.49
-125.546
-113.507
-101.717
-90.092
-78.64
-66.771
-53.72
-39.528
-25.151
-12.222
-1.84
5.891
11.178
14.209
14.866
13.145
9.565
5.098
0.656
-3.221
-6.284
-8.482
-9.696
-9.762
-8.648
-6.457
-3.366
0.452
4.87
9.818
15.223
20.966
26.902
32.857
38.64
44.101
49.138
53.689
57.722
61.22
64.171
66.592
68.535
70.069
71.264
72.178
72.856
73.352
73.74
74.106
74.543
75.122
75.887
76.875
78.112
79.62
81.417
83.509
85.882
88.527
91.437
94.609
98.043
101.734
105.665
109.82
114.178
118.725
123.443
128.316
133.324
138.446
143.662
148.954
154.302
159.685
165.075
170.447
175.771
181.018
186.159
191.165
196.006
200.651
205.073
209.247
213.148
216.751
220.032
222.972
225.549
227.748
229.551
230.944
231.916
232.457
232.559
232.218
231.431
230.198
228.52
226.402
223.85
220.874
217.484
213.693
209.517
204.972
200.079
194.859
189.333
183.527
177.465
171.174
164.68
158.013
151.201
144.271
137.253
130.174
123.063
115.949
108.857
101.816
94.849
87.983
81.241
74.645
68.217
61.976
55.94
50.127
44.551
39.224
34.16
29.366
24.852
20.623
16.684
13.036
9.68
6.617
3.841
1.35
-0.863
-2.805
-4.484
-5.91
-7.095
-8.049
-8.785
-9.317
-9.658
-9.823
-9.827
-9.685
-9.41
-9.02
-8.528
-7.949
-7.299
-6.59
-5.836
-5.052
-4.247
-3.436
-2.628
-1.833
-1.061
-0.321
0.381
1.038
1.645
2.196
2.687
3.117
3.483
3.784
4.019
4.19
4.296
4.341
4.325
4.253
4.127
3.952
3.731
3.469
3.171
2.842
2.486
2.108
1.715
1.31
0.899
0.487
0.078
-0.323
-0.712
-1.085
-1.439
-1.77
-2.076
-2.353
-2.6
-2.815
-2.997
-3.145
-3.258
-3.336
-3.378
-3.387
-3.361
-3.303
-3.214
-3.096
-2.95
-2.779
-2.585
-2.37
-2.138
-1.891
-1.632
-1.364
-1.09
-0.813
-0.537
-0.264
0.002
0.259
0.502
0.73
0.939
1.126
1.29
1.427
1.537
1.616
1.662
1.674
1.651
1.591
1.491
1.352
1.172
0.951
0.687
0.381
0.033
-0.357
-0.789
-1.263
-1.778
-2.333
-2.927
-3.56
-4.23
-4.935
-5.672
-6.441
-7.237
-8.058
-8.902
-9.764
-10.642
-11.532
-12.431
-13.335
-14.241
-15.144
-16.039
-16.922
-17.788
-18.631
-19.446
-20.227
-20.968
-21.664
-22.31
-22.902
-23.434
-23.901
-24.298
-24.62
-24.863
-25.022
-25.092
-25.068
-24.947
-24.725
-24.402
-23.976
-23.446
-22.812
-22.075
-21.235
-20.296
-19.258
-18.125
-16.899
-15.585
-14.189
-12.717
-11.178
-9.581
-7.936
-6.256
-4.554
-2.842
-1.131
0.568
2.244
3.885
5.482
7.027
8.51
9.921
11.246
12.472
13.584
14.573
15.427
16.138
16.693
17.084
17.308
17.367
17.259
16.983
16.527
15.876
15.027
13.983
12.757
11.358
9.8
8.103
6.307
4.469
2.649
0.892
-0.788
-2.385
-3.886
-5.272
-6.511
-7.576
-8.488
-9.271
-9.937
-10.494
-10.948
-11.343
-11.794
-12.462
-13.499
-15.016
-17.068
-19.687
-22.932
-26.841
-31.439
-36.691
-42.437
-48.539
-54.91
-61.486
-68.23
-74.991
-81.447
-87.212
-91.891
-95.131
-96.684
-96.219
-93.31
-87.822
-79.875
-69.929
-58.893
-47.453
-35.962
-24.946
-14.829
-5.493
3.593
13.672
26.51
43.151
63.988
89.404
119.155
151.747
184.332
212.635
232.144
239.277
231.172
205.085
158.897
92.657
9.274
-86.103
-187.82
-290.382
-388.434
-476.027
-546.624
-595.949
-622.988
-628.899
-615.916
-586.876
-544.875
-494.348
-441.394
-390.584
-344.299
-303.67
-268.682
-238.971
-214.28
-193.346
-173.714
-153.822
-133.1
-111.564
-90.058
-69.348
-49.854
-32.297
-17.593
-6.202
1.742
6.397
8.337
8.087
6.094
2.874
-1.141
-5.608
-10.19
-14.588
-18.548
-21.841
-24.317
-25.898
-26.521
-26.161
-24.823
-22.553
-19.473
-15.734
-11.487
-6.874
-2
3.024
8.06
12.945
17.535
21.734
25.493
28.797
31.631
33.985
35.879
37.36
38.505
39.392
40.086
40.641
41.113
41.566
42.077
42.73
43.587
44.691
46.074
47.757
49.761
52.102
54.781
57.784
61.098
64.709
68.609
72.792
77.246
81.949
86.88
92.014
97.33
102.805
108.417
114.139
119.946
125.812
131.712
137.624
143.52
149.369
155.14
160.802
166.322
171.67
176.812
181.717
186.354
190.695
194.714
198.386
201.687
204.595
207.091
209.157
210.778
211.941
212.636
212.855
212.59
211.842
210.608
208.892
206.699
204.035
200.909
197.334
193.325
188.898
184.07
178.863
173.299
167.402
161.198
154.714
147.977
141.017
133.865
126.55
119.104
111.557
103.941
96.284
88.617
80.969
73.368
65.843
58.418
51.118
43.968
36.99
30.204
23.63
17.284
11.181
5.337
-0.238
-5.534
-10.543
-15.258
-19.675
-23.792
-27.608
-31.124
-34.343
-37.269
-39.908
-42.268
-44.356
-46.183
-47.759
-49.097
-50.209
-51.107
-51.807
-52.321
-52.665
-52.853
-52.9
-52.82
-52.629
-52.339
-51.965
-51.52
-51.017
-50.468
-49.884
-49.277
-48.657
-48.031
-47.41
-46.8
-46.207
-45.639
-45.098
-44.591
-44.118
-43.684
-43.29
-42.937
-42.624
-42.352
-42.119
-41.925
-41.766
-41.642
-41.548
-41.483
-41.442
-41.423
-41.422
-41.436
-41.461
-41.493
-41.529
-41.566
-41.6
-41.629
-41.65
-41.66
-41.658
-41.641
-41.608
-41.558
-41.489
-41.402
-41.296
-41.171
-41.028
-40.866
-40.686
-40.491
-40.28
-40.055
-39.818
-39.572
-39.317
-39.058
-38.795
-38.531
-38.269
-38.011
-37.759
-37.516
-37.284
-37.066
-36.864
-36.679
-36.515
-36.374
-36.257
-36.167
-36.104
-36.069
-36.064
-36.087
-36.141
-36.224
-36.337
-36.479
-36.65
-36.849
-37.075
-37.327
-37.603
-37.901
-38.218
-38.551
-38.897
-39.251
-39.61
-39.97
-40.326
-40.675
-41.013
-41.335
-41.636
-41.912
-42.157
-42.366
-42.533
-42.652
-42.718
-42.726
-42.671
-42.55
-42.361
-42.101
-41.765
-41.354
-40.864
-40.294
-39.644
-38.911
-38.094
-37.195
-36.216
-35.159
-34.028
-32.828
-31.564
-30.246
-28.88
-27.475
-26.036
-24.571
-23.085
-21.586
-20.081
-18.573
-17.069
-15.579
-14.111
-12.679
-11.293
-9.961
-8.692
-7.494
-6.376
-5.343
-4.397
-3.535
-2.758
-2.07
-1.482
-1.01
-0.663
-0.436
-0.325
-0.327
-0.428
-0.609
-0.831
-1.032
-1.163
-1.198
-1.125
-0.947
-0.662
-0.251
0.305
1.007
1.85
2.818
3.906
5.123
6.444
7.8
9.059
10.036
10.579
10.595
10.024
8.818
6.945
4.367
1.09
-2.779
-7.131
-11.879
-16.973
-22.423
-28.134
-33.877
-39.307
-43.982
-47.51
-49.599
-49.903
-48.018
-43.794
-37.286
-28.863
-19.336
-9.332
0.773
10.472
19.417
27.762
36.05
45.443
57.502
73.158
92.817
116.899
145.185
176.283
207.465
234.618
253.511
260.769
253.607
229.297
185.669
122.576
42.64
-49.257
-147.814
-247.898
-344.435
-431.739
-503.428
-555.181
-585.791
-596.182
-588.305
-564.648
-527.992
-482.434
-433.749
-386.37
-342.68
-303.888
-270.112
-241.095
-216.651
-195.611
-175.671
-155.329
-134.032
-111.753
-89.221
-67.195
-46.131
-26.786
-10.152
3.266
13.319
20.116
24.155
25.908
25.76
24.196
21.708
18.655
15.368
12.136
9.164
6.703
4.964
4.058
4.069
5.029
6.924
9.724
13.354
17.673
22.537
27.81
33.347
39.034
44.74
50.304
55.596
60.504
64.951
68.907
72.355
75.284
77.711
79.678
81.238
82.468
83.439
84.206
84.834
85.39
85.945
86.586
87.377
88.365
89.59
91.076
92.844
94.913
97.285
99.953
102.908
106.14
109.64
113.404
117.42
121.672
126.141
130.803
135.638
140.625
145.745
150.973
156.286
161.659
167.069
172.495
177.91
183.285
188.59
193.794
198.865
203.772
208.485
212.972
217.202
221.148
224.783
228.084
231.026
233.589
235.751
237.497
238.811
239.68
240.094
240.045
239.526
238.536
237.074
235.143
232.748
229.896
226.596
222.861
218.705
214.145
209.199
203.889
198.236
192.266
186.005
179.479
172.717
165.748
158.603
151.312
143.906
136.416
128.871
121.302
113.738
106.207
98.738
91.357
84.089
76.958
69.987
63.197
56.608
50.238
44.102
38.214
32.588
27.232
22.157
17.368
12.869
8.665
4.756
1.14
-2.183
-5.22
-7.974
-10.454
-12.669
-14.626
-16.339
-17.817
-19.075
-20.124
-20.979
-21.654
-22.163
-22.521
-22.742
-22.841
-22.832
-22.729
-22.546
-22.295
-21.989
-21.64
-21.259
-20.857
-20.442
-20.024
-19.611
-19.209
-18.825
-18.463
-18.129
-17.825
-17.554
-17.318
-17.118
-16.953
-16.825
-16.731
-16.67
-16.64
-16.638
-16.662
-16.707
-16.771
-16.85
-16.94
-17.037
-17.138
-17.237
-17.333
-17.421
-17.497
-17.559
-17.604
-17.629
-17.632
-17.61
-17.562
-17.488
-17.385
-17.254
-17.094
-16.906
-16.69
-16.447
-16.178
-15.885
-15.57
-15.234
-14.881
-14.512
-14.131
-13.74
-13.343
-12.943
-12.543
-12.146
-11.756
-11.376
-11.008
-10.657
-10.326
-10.017
-9.733
-9.477
-9.253
-9.063
-8.909
-8.794
-8.719
-8.687
-8.698
-8.754
-8.857
-9.006
-9.203
-9.447
-9.741
-10.083
-10.473
-10.911
-11.395
-11.924
-12.496
-13.11
-13.763
-14.453
-15.176
-15.932
-16.716
-17.526
-18.359
-19.211
-20.078
-20.956
-21.839
-22.724
-23.604
-24.474
-25.329
-26.163
-26.973
-27.752
-28.497
-29.201
-29.86
-30.468
-31.02
-31.511
-31.936
-32.289
-32.565
-32.76
-32.873
-32.901
-32.842
-32.692
-32.452
-32.121
-31.699
-31.185
-30.579
-29.882
-29.095
-28.221
-27.265
-26.231
-25.126
-23.957
-22.733
-21.462
-20.155
-18.818
-17.459
-16.085
-14.704
-13.323
-11.947
-10.582
-9.234
-7.914
-6.633
-5.401
-4.228
-3.119
-2.083
-1.129
-0.263
0.511
1.195
1.791
2.296
2.698
2.983
3.143
3.18
3.103
2.918
2.637
2.277
1.874
1.483
1.162
0.95
0.861
0.895
1.06
1.369
1.85
2.518
3.354
4.335
5.445
6.678
8.02
9.416
10.739
11.822
12.5
12.655
12.221
11.154
9.394
6.895
3.642
-0.311
-4.827
-9.786
-15.135
-20.852
-26.867
-32.983
-38.866
-44.097
-48.287
-51.134
-52.295
-51.331
-47.982
-42.235
-34.376
-25.109
-15.14
-4.82
5.407
14.963
23.871
32.552
41.989
54.011
69.929
90.106
114.98
144.855
178.64
214.188
247.875
274.532
290.061
291.605
276.108
240.794
184.683
108.842
17.112
-84.294
-189.77
-294.198
-391.652
-475.744
-540.941
-583.938
-604.454
-604.561
-586.624
-553.358
-508.523
-457.125
-404.644
-355.051
-310.322
-271.043
-237.199
-208.55
-184.501
-163.521
-143.447
-122.989
-101.789
-80.1
-58.696
-38.221
-19.142
-2.211
11.736
22.301
29.42
33.351
34.666
33.861
31.387
27.774
23.472
18.875
14.361
10.191
6.595
3.785
1.875
0.944
1.05
2.19
4.334
7.42
11.303
15.829
20.851
26.197
31.731
37.308
42.741
47.892
52.642
56.9
60.633
63.826
66.457
68.539
70.107
71.208
71.917
72.307
72.432
72.361
72.165
71.918
71.712
71.618
71.684
71.95
72.443
73.181
74.186
75.464
77.007
78.809
80.862
83.161
85.705
88.486
91.492
94.705
98.107
101.679
105.407
109.274
113.262
117.353
121.526
125.764
130.05
134.365
138.682
142.978
147.223
151.392
155.456
159.388
163.16
166.742
170.11
173.239
176.106
178.688
180.964
182.914
184.52
185.766
186.637
187.121
187.207
186.885
186.151
185.001
183.432
181.446
179.045
176.233
173.018
169.409
165.417
161.056
156.339
151.286
145.913
140.243
134.297
128.099
121.673
115.045
108.241
101.289
94.216
87.048
79.814
72.54
65.253
57.98
50.745
43.575
36.493
29.521
22.683
15.999
9.488
3.168
-2.944
-8.834
-14.487
-19.892
-25.04
-29.921
-34.53
-38.86
-42.91
-46.676
-50.16
-53.363
-56.288
-58.94
-61.325
-63.451
-65.325
-66.958
-68.359
-69.541
-70.516
-71.295
-71.892
-72.32
-72.594
-72.727
-72.732
-72.624
-72.416
-72.121
-71.754
-71.325
-70.847
-70.333
-69.792
-69.236
-68.673
-68.113
-67.564
-67.034
-66.528
-66.053
-65.614
-65.215
-64.859
-64.549
-64.287
-64.074
-63.91
-63.796
-63.731
-63.714
-63.743
-63.815
-63.93
-64.083
-64.272
-64.494
-64.746
-65.024
-65.325
-65.645
-65.981
-66.329
-66.686
-67.049
-67.414
-67.779
-68.14
-68.496
-68.843
-69.179
-69.503
-69.812
-70.104
-70.38
-70.636
-70.874
-71.091
-71.288
-71.465
-71.621
-71.758
-71.874
-71.972
-72.051
-72.113
-72.158
-72.186
-72.2
-72.2
-72.188
-72.165
-72.131
-72.09
-72.042
-71.989
-71.933
-71.874
-71.814
-71.755
-71.699
-71.646
-71.599
-71.558
-71.526
-71.505
-71.496
-71.5
-71.519
-71.552
-71.601
-71.666
-71.748
-71.846
-71.962
-72.096
-72.246
-72.415
-72.602
-72.806
-73.026
-73.262
-73.513
-73.775
-74.048
-74.329
-74.616
-74.905
-75.195
-75.484
-75.768
-76.045
-76.312
-76.565
-76.801
-77.015
-77.203
-77.361
-77.484
-77.567
-77.61
-77.609
-77.562
-77.467
-77.322
-77.126
-76.877
-76.575
-76.22
-75.808
-75.339
-74.815
-74.237
-73.609
-72.934
-72.215
-71.458
-70.671
-69.86
-69.032
-68.19
-67.342
-66.49
-65.642
-64.802
-63.971
-63.156
-62.363
-61.599
-60.875
-60.2
-59.58
-59.02
-58.528
-58.106
-57.761
-57.49
-57.289
-57.155
-57.092
-57.108
-57.218
-57.428
-57.735
-58.13
-58.611
-59.161
-59.759
-60.364
-60.915
-61.362
-61.681
-61.862
-61.906
-61.81
-61.559
-61.132
-60.526
-59.748
-58.81
-57.713
-56.448
-55.045
-53.577
-52.187
-51.059
-50.344
-50.136
-50.496
-51.477
-53.118
-55.459
-58.493
-62.116
-66.226
-70.75
-75.658
-80.961
-86.563
-92.217
-97.546
-102.122
-105.552
-107.56
-107.817
-105.863
-101.498
-94.786
-86.107
-76.322
-66.147
-55.856
-45.854
-36.696
-28.327
-20.302
-11.595
-0.236
15.143
34.868
59.357
88.821
121.977
156.386
188.232
212.262
224.126
220.879
199.408
156.853
92.735
8.981
-90.041
-197.832
-308.212
-415.995
-515.067
-598.33
-660.603
-699.204
-714.041
-707.493
-682.245
-640.379
-585.446
-523.308
-459.526
-398.619
-343.318
-294.261
-251.911
-217.484
-191.446
-172.273
-157.625
-144.853
-132.363
-120.099
-108.084
-95.744
-82.326
-67.855
-53.26
-40.134
-29.544
-21.587
-16.043
-12.715
-11.709
-13.029
-16.164
-20.16
-24.116
-27.498
-30.058
-31.752
-32.465
-32.04
-30.449
-27.794
-24.251
-19.995
-15.155
-9.803
-4.013
2.098
8.388
14.685
20.8
26.583
31.936
36.799
41.142
44.95
48.214
50.953
53.22
55.087
56.626
57.895
58.94
59.817
60.599
61.372
62.228
63.238
64.446
65.889
67.592
69.577
71.862
74.45
77.328
80.485
83.914
87.609
91.569
95.786
100.243
104.921
109.8
114.862
120.089
125.463
130.961
136.563
142.246
147.991
153.777
159.581
165.376
171.133
176.823
182.417
187.886
193.199
198.326
203.238
207.908
212.31
216.42
220.214
223.672
226.772
229.498
231.833
233.763
235.277
236.365
237.02
237.237
237.014
236.35
235.248
233.713
231.749
229.368
226.58
223.397
219.836
215.913
211.647
207.059
202.171
197.006
191.59
185.949
180.109
174.097
167.942
161.671
155.311
148.892
142.439
135.98
129.54
123.144
116.818
110.583
104.463
98.477
92.646
86.987
81.516
76.248
71.197
66.373
61.787
57.446
53.358
49.526
45.955
42.644
39.594
36.803
34.268
31.984
29.944
28.143
26.57
25.216
24.071
23.124
22.363
21.776
21.349
21.069
20.924
20.9
20.983
21.16
21.419
21.747
22.132
22.562
23.026
23.514
24.016
24.523
25.027
25.52
25.996
26.448
26.873
27.265
27.621
27.939
28.218
28.455
28.652
28.808
28.924
29.003
29.045
29.055
29.035
28.988
28.919
28.832
28.73
28.618
28.5
28.381
28.266
28.158
28.061
27.981
27.919
27.881
27.869
27.886
27.935
28.018
28.136
28.293
28.488
28.723
28.998
29.312
29.667
30.06
30.492
30.961
31.465
32.002
32.571
33.169
33.794
34.442
35.11
35.796
36.496
37.207
37.925
38.646
39.368
40.087
40.799
41.501
42.19
42.861
43.512
44.139
44.739
45.308
45.844
46.344
46.805
47.226
47.602
47.934
48.218
48.453
48.637
48.77
48.849
48.873
48.841
48.755
48.613
48.415
48.164
47.858
47.5
47.091
46.632
46.125
45.572
44.975
44.336
43.659
42.947
42.204
41.434
40.64
39.83
39.007
38.177
37.344
36.514
35.69
34.879
34.086
33.316
32.575
31.868
31.201
30.58
30.011
29.499
29.049
28.662
28.344
28.096
27.922
27.823
27.802
27.858
27.992
28.207
28.502
28.877
29.327
29.85
30.441
31.094
31.804
32.561
33.356
34.182
35.03
35.895
36.769
37.644
38.515
39.374
40.218
41.039
41.827
42.571
43.262
43.89
44.45
44.934
45.335
45.645
45.862
45.989
46.025
45.969
45.81
45.532
45.129
44.604
43.964
43.22
42.381
41.466
40.51
39.565
38.69
37.924
37.276
36.748
36.348
36.092
36.01
36.12
36.405
36.842
37.419
38.13
38.961
39.858
40.695
41.302
41.521
41.234
40.382
38.92
36.783
33.921
30.311
26
21.115
15.767
10.002
3.834
-2.668
-9.309
-15.748
-21.572
-26.391
-29.906
-31.778
-31.56
-28.978
-24.003
-16.897
-8.345
0.946
10.626
20.24
29.177
37.439
45.429
54.122
65.389
80.581
100.124
124.579
154.364
188.455
224.699
259.308
286.902
303.249
305.345
289.967
254.108
196.439
117.873
22.401
-83.63
-194.523
-305.253
-410.266
-503.012
-577.183
-628.749
-656.769
-662.677
-648.439
-615.813
-566.933
-506.377
-440.352
-374.07
-311.419
-254.571
-204.47
-162.619
-130.902
-108.883
-94.274
-84.601
-77.053
-70.094
-63.546
-56.537
-47.64
-36.571
-23.86
-10.629
1.172
10.566
17.637
22.24
24.215
23.69
20.848
16.358
11.458
6.94
3.158
0.379
-1.383
-2.089
-1.594
0.06
2.677
6.096
10.146
14.7
19.722
25.11
30.718
36.389
41.906
47.104
51.886
56.18
59.964
63.228
65.954
68.153
69.874
71.176
72.129
72.795
73.213
73.439
73.545
73.616
73.752
74.031
74.502
75.202
76.158
77.388
78.914
80.741
82.854
85.245
87.906
90.833
94.025
97.476
101.169
105.087
109.206
113.507
117.973
122.585
127.32
132.156
137.072
142.047
147.061
152.093
157.114
162.096
167.01
171.826
176.514
181.045
185.388
189.512
193.392
196.999
200.311
203.303
205.954
208.242
210.149
211.659
212.758
213.433
213.674
213.474
212.828
211.732
210.188
208.196
205.762
202.89
199.592
195.878
191.761
187.256
182.381
177.154
171.597
165.732
159.583
153.175
146.534
139.687
132.663
125.489
118.195
110.807
103.356
95.868
88.371
80.892
73.458
66.093
58.821
51.666
44.65
37.793
31.114
24.63
18.359
12.313
6.506
0.949
-4.349
-9.38
-14.139
-18.621
-22.824
-26.746
-30.389
-33.754
-36.846
-39.669
-42.229
-44.535
-46.595
-48.419
-50.016
-51.399
-52.58
-53.571
-54.385
-55.035
-55.534
-55.897
-56.136
-56.266
-56.298
-56.246
-56.122
-55.939
-55.707
-55.438
-55.141
-54.827
-54.504
-54.18
-53.862
-53.558
-53.273
-53.012
-52.779
-52.577
-52.41
-52.279
-52.187
-52.132
-52.116
-52.137
-52.196
-52.289
-52.415
-52.572
-52.756
-52.965
-53.196
-53.445
-53.708
-53.983
-54.265
-54.551
-54.837
-55.121
-55.399
-55.667
-55.924
-56.167
-56.393
-56.6
-56.786
-56.95
-57.091
-57.208
-57.3
-57.366
-57.406
-57.421
-57.411
-57.376
-57.317
-57.234
-57.13
-57.006
-56.862
-56.702
-56.525
-56.334
-56.132
-55.918
-55.696
-55.467
-55.232
-54.994
-54.754
-54.513
-54.273
-54.036
-53.801
-53.572
-53.348
-53.13
-52.92
-52.716
-52.521
-52.335
-52.158
-51.99
-51.831
-51.684
-51.547
-51.421
-51.306
-51.203
-51.111
-51.03
-50.961
-50.904
-50.859
-50.826
-50.805
-50.797
-50.803
-50.823
-50.856
-50.903
-50.964
-51.038
-51.127
-51.228
-51.343
-51.472
-51.614
-51.769
-51.938
-52.12
-52.313
-52.518
-52.732
-52.953
-53.181
-53.411
-53.642
-53.87
-54.093
-54.308
-54.513
-54.705
-54.878
-55.032
-55.16
-55.26
-55.326
-55.354
-55.339
-55.277
-55.166
-55.001
-54.782
-54.504
-54.166
-53.766
-53.302
-52.774
-52.18
-51.519
-50.789
-49.992
-49.131
-48.208
-47.226
-46.191
-45.108
-43.986
-42.834
-41.658
-40.465
-39.261
-38.054
-36.85
-35.656
-34.475
-33.314
-32.181
-31.086
-30.039
-29.052
-28.13
-27.283
-26.52
-25.845
-25.266
-24.785
-24.395
-24.1
-23.904
-23.816
-23.852
-24.019
-24.309
-24.717
-25.24
-25.86
-26.555
-27.283
-27.98
-28.6
-29.122
-29.529
-29.822
-29.992
-30.012
-29.869
-29.567
-29.111
-28.515
-27.784
-26.91
-25.934
-24.945
-24.074
-23.497
-23.35
-23.706
-24.629
-26.173
-28.379
-31.288
-34.876
-39.014
-43.601
-48.561
-53.843
-59.44
-65.219
-70.887
-76.093
-80.431
-83.526
-85.135
-84.924
-82.429
-77.469
-70.122
-60.794
-50.369
-39.563
-28.652
-18.086
-8.47
0.187
8.268
16.828
27.864
42.771
61.916
85.74
114.509
147.007
180.826
212.16
235.735
247.143
243.372
221.247
177.837
112.644
27.625
-72.838
-182.184
-294.136
-403.394
-503.678
-587.734
-650.271
-688.561
-702.539
-694.615
-667.533
-623.446
-566.002
-501.254
-434.983
-371.856
-314.692
-264.198
-220.87
-186.004
-160.164
-141.75
-128.294
-117.032
-106.226
-95.773
-85.661
-75.22
-63.609
-50.819
-37.781
-26.151
-17.04
-10.498
-6.284
-4.176
-4.234
-6.494
-10.428
-15.014
-19.381
-23.011
-25.671
-27.377
-28.03
-27.46
-25.661
-22.754
-18.919
-14.373
-9.255
-3.639
2.355
8.602
14.942
21.162
27.107
32.659
37.725
42.276
46.294
49.753
52.658
55.045
56.955
58.467
59.649
60.551
61.234
61.766
62.227
62.72
63.326
64.097
65.075
66.285
67.746
69.483
71.503
73.798
76.361
79.187
82.269
85.61
89.204
93.039
97.097
101.357
105.801
110.414
115.18
120.079
125.092
130.201
135.386
140.631
145.916
151.215
156.5
161.745
166.919
171.994
176.94
181.728
186.327
190.709
194.849
198.72
202.3
205.564
208.489
211.057
213.249
215.048
216.44
217.412
217.955
218.059
217.721
216.937
215.706
214.03
211.912
209.358
206.376
202.978
199.174
194.981
190.413
185.49
180.233
174.664
168.805
162.682
156.322
149.75
142.995
136.084
129.046
121.91
114.702
107.451
100.186
92.932
85.716
78.564
71.499
64.547
57.728
51.064
44.575
38.277
32.189
26.323
20.695
15.315
10.192
5.336
0.752
-3.555
-7.582
-11.328
-14.793
-17.98
-20.892
-23.534
-25.913
-28.036
-29.911
-31.55
-32.962
-34.159
-35.154
-35.958
-36.585
-37.049
-37.363
-37.541
-37.596
-37.543
-37.396
-37.166
-36.867
-36.512
-36.111
-35.677
-35.219
-34.749
-34.274
-33.804
-33.346
-32.907
-32.494
-32.11
-31.762
-31.452
-31.184
-30.96
-30.782
-30.65
-30.564
-30.525
-30.532
-30.583
-30.676
-30.809
-30.98
-31.186
-31.424
-31.69
-31.982
-32.295
-32.627
-32.973
-33.331
-33.696
-34.066
-34.438
-34.809
-35.175
-35.535
-35.886
-36.226
-36.553
-36.866
-37.163
-37.444
-37.707
-37.951
-38.177
-38.383
-38.57
-38.738
-38.886
-39.017
-39.129
-39.224
-39.302
-39.365
-39.413
-39.447
-39.469
-39.478
-39.478
-39.467
-39.449
-39.424
-39.392
-39.356
-39.316
-39.273
-39.228
-39.181
-39.134
-39.085
-39.037
-38.99
-38.944
-38.9
-38.858
-38.819
-38.783
-38.752
-38.725
-38.703
-38.685
-38.673
-38.667
-38.668
-38.675
-38.689
-38.711
-38.742
-38.782
-38.832
-38.89
-38.958
-39.035
-39.121
-39.215
-39.317
-39.427
-39.543
-39.667
-39.797
-39.934
-40.075
-40.221
-40.369
-40.518
-40.665
-40.809
-40.947
-41.074
-41.19
-41.291
-41.374
-41.438
-41.477
-41.49
-41.471
-41.419
-41.327
-41.192
-41.01
-40.775
-40.484
-40.134
-39.724
-39.251
-38.715
-38.111
-37.441
-36.703
-35.898
-35.023
-34.079
-33.066
-31.984
-30.839
-29.632
-28.368
-27.052
-25.691
-24.294
-22.868
-21.42
-19.957
-18.487
-17.014
-15.547
-14.092
-12.653
-11.236
-9.85
-8.505
-7.212
-5.98
-4.819
-3.734
-2.734
-1.823
-1.006
-0.285
0.345
0.886
1.333
1.678
1.905
2.007
1.989
1.858
1.617
1.282
0.874
0.432
0.014
-0.331
-0.579
-0.721
-0.756
-0.682
-0.48
-0.128
0.38
1.041
1.844
2.79
3.889
5.116
6.399
7.606
8.561
9.121
9.197
8.733
7.678
5.994
3.639
0.616
-2.98
-7.053
-11.533
-16.391
-21.634
-27.173
-32.768
-38.059
-42.635
-46.119
-48.241
-48.678
-46.979
-42.934
-36.59
-28.294
-18.861
-8.99
1.03
10.77
19.646
27.669
35.241
43.35
53.935
68.394
87.136
110.688
139.398
172.124
206.544
238.914
263.983
277.328
275.87
256.303
215.533
152.838
69.921
-28.991
-137.42
-249.133
-358.835
-460.232
-545.991
-610.677
-651.355
-667.756
-662.195
-637.356
-595.363
-539.868
-476.885
-412.14
-350.322
-294.289
-244.73
-202.127
-167.694
-141.853
-123.009
-108.757
-96.389
-84.271
-72.343
-60.634
-48.582
-35.459
-21.328
-7.145
5.484
15.486
22.774
27.579
30.108
30.272
28.09
24.088
19.24
14.46
10.293
6.999
4.633
3.319
3.219
4.364
6.653
9.907
13.949
18.643
23.912
29.674
35.802
42.149
48.532
54.754
60.659
66.141
71.132
75.599
79.522
82.888
85.712
88.046
89.961
91.528
92.806
93.839
94.684
95.413
96.113
96.877
97.773
98.848
100.135
101.661
103.446
105.508
107.85
110.459
113.323
116.436
119.791
123.39
127.225
131.28
135.537
139.977
144.584
149.343
154.235
159.242
164.344
169.519
174.75
180.019
185.303
190.577
195.813
200.983
206.057
211.007
215.805
220.418
224.819
228.979
232.873
236.476
239.763
242.711
245.299
247.507
249.318
250.716
251.686
252.216
252.297
251.921
251.083
249.781
248.014
245.784
243.094
239.951
236.365
232.346
227.908
223.065
217.836
212.24
206.298
200.034
193.471
186.635
179.555
172.256
164.769
157.121
149.343
141.463
133.51
125.515
117.504
109.507
101.551
93.663
85.867
78.19
70.654
63.281
56.092
49.107
42.342
35.815
29.538
23.525
17.786
12.331
7.166
2.296
-2.274
-6.542
-10.51
-14.178
-17.549
-20.629
-23.423
-25.938
-28.184
-30.17
-31.906
-33.404
-34.675
-35.733
-36.591
-37.263
-37.761
-38.101
-38.296
-38.359
-38.306
-38.15
-37.903
-37.578
-37.188
-36.744
-36.258
-35.74
-35.2
-34.648
-34.091
-33.537
-32.993
-32.465
-31.958
-31.477
-31.026
-30.607
-30.223
-29.875
-29.565
-29.293
-29.059
-28.863
-28.703
-28.578
-28.485
-28.425
-28.392
-28.386
-28.403
-28.441
-28.497
-28.568
-28.651
-28.743
-28.842
-28.945
-29.049
-29.152
-29.251
-29.345
-29.431
-29.508
-29.574
-29.629
-29.671
-29.699
-29.713
-29.713
-29.699
-29.669
-29.625
-29.566
-29.494
-29.41
-29.313
-29.205
-29.088
-28.963
-28.832
-28.697
-28.559
-28.42
-28.282
-28.146
-28.014
-27.889
-27.771
-27.664
-27.569
-27.487
-27.422
-27.375
-27.347
-27.34
-27.353
-27.39
-27.449
-27.532
-27.639
-27.771
-27.927
-28.109
-28.315
-28.546
-28.801
-29.078
-29.377
-29.694
-30.028
-30.376
-30.734
-31.099
-31.468
-31.838
-32.206
-32.569
-32.922
-33.261
-33.582
-33.881
-34.152
-34.391
-34.593
-34.752
-34.864
-34.928
-34.939
-34.895
-34.794
-34.633
-34.41
-34.125
-33.777
-33.363
-32.882
-32.334
-31.722
-31.047
-30.313
-29.523
-28.683
-27.799
-26.879
-25.932
-24.962
-23.977
-22.982
-21.983
-20.988
-20
-19.024
-18.066
-17.135
-16.239
-15.39
-14.597
-13.866
-13.205
-12.622
-12.119
-11.702
-11.371
-11.119
-10.95
-10.869
-10.882
-11.004
-11.24
-11.586
-12.038
-12.587
-13.215
-13.893
-14.575
-15.206
-15.749
-16.184
-16.499
-16.699
-16.778
-16.72
-16.526
-16.191
-15.713
-15.098
-14.342
-13.445
-12.457
-11.473
-10.626
-10.079
-9.951
-10.317
-11.243
-12.762
-14.896
-17.656
-20.976
-24.753
-28.911
-33.386
-38.146
-43.178
-48.341
-53.365
-57.925
-61.618
-64.087
-65.071
-64.216
-61.144
-55.762
-48.223
-39.022
-29.01
-18.807
-8.73
0.744
9.23
16.863
24.219
32.567
43.621
58.385
77.184
100.315
127.555
157.446
187.223
212.781
229.696
234.462
224.364
196.805
149.788
83.469
0.725
-93.436
-193.42
-293.802
-389.352
-474.27
-542.258
-589.269
-614.409
-618.877
-604.935
-575.42
-533.405
-483.244
-430.852
-380.622
-334.805
-294.47
-259.584
-229.781
-204.821
-183.5
-163.474
-143.294
-122.472
-101.034
-79.812
-59.544
-40.607
-23.694
-9.665
1.072
8.409
12.537
14.059
13.499
11.306
8.022
4.079
-0.149
-4.288
-8.077
-11.297
-13.742
-15.303
-15.906
-15.494
-14.07
-11.664
-8.336
-4.23
0.502
5.713
11.234
16.936
22.682
28.298
33.651
38.63
43.147
47.176
50.704
53.713
56.218
58.258
59.878
61.156
62.167
62.965
63.623
64.208
64.796
65.475
66.316
67.364
68.662
70.233
72.096
74.272
76.764
79.566
82.669
86.064
89.742
93.701
97.931
102.414
107.13
112.058
117.175
122.462
127.9
133.465
139.133
144.881
150.684
156.523
162.371
168.198
173.973
179.665
185.241
190.669
195.917
200.951
205.74
210.253
214.461
218.339
221.86
224.999
227.734
230.044
231.911
233.319
234.255
234.705
234.661
234.116
233.068
231.515
229.458
226.903
223.853
220.32
216.314
211.85
206.943
201.611
195.876
189.76
183.287
176.484
169.379
162.001
154.38
146.546
138.533
130.371
122.093
113.73
105.315
96.88
88.454
80.069
71.752
63.534
55.44
47.497
39.729
32.159
24.807
17.694
10.836
4.249
-2.051
-8.055
-13.751
-19.132
-24.192
-28.926
-33.332
-37.411
-41.163
-44.592
-47.703
-50.503
-53
-55.203
-57.122
-58.77
-60.16
-61.303
-62.216
-62.912
-63.407
-63.717
-63.856
-63.841
-63.688
-63.411
-63.026
-62.549
-61.992
-61.37
-60.697
-59.984
-59.243
-58.486
-57.722
-56.961
-56.211
-55.479
-54.773
-54.096
-53.455
-52.853
-52.292
-51.775
-51.304
-50.878
-50.498
-50.163
-49.871
-49.622
-49.412
-49.238
-49.098
-48.989
-48.906
-48.846
-48.806
-48.782
-48.77
-48.767
-48.769
-48.773
-48.776
-48.775
-48.767
-48.75
-48.723
-48.682
-48.629
-48.56
-48.477
-48.379
-48.267
-48.142
-48.004
-47.855
-47.696
-47.529
-47.356
-47.18
-47.002
-46.826
-46.654
-46.49
-46.336
-46.196
-46.072
-45.966
-45.881
-45.818
-45.781
-45.77
-45.786
-45.832
-45.908
-46.016
-46.157
-46.329
-46.533
-46.768
-47.031
-47.322
-47.637
-47.972
-48.325
-48.691
-49.067
-49.449
-49.833
-50.214
-50.588
-50.949
-51.293
-51.612
-51.903
-52.157
-52.368
-52.532
-52.643
-52.698
-52.692
-52.623
-52.487
-52.281
-52.003
-51.651
-51.223
-50.717
-50.132
-49.468
-48.726
-47.911
-47.024
-46.071
-45.058
-43.993
-42.885
-41.74
-40.566
-39.369
-38.155
-36.931
-35.704
-34.478
-33.259
-32.055
-30.876
-29.735
-28.641
-27.605
-26.634
-25.737
-24.921
-24.191
-23.549
-22.991
-22.518
-22.134
-21.848
-21.676
-21.626
-21.695
-21.879
-22.172
-22.561
-23.023
-23.52
-23.99
-24.383
-24.672
-24.846
-24.907
-24.853
-24.668
-24.336
-23.853
-23.226
-22.469
-21.582
-20.556
-19.414
-18.225
-17.117
-16.269
-15.821
-15.865
-16.459
-17.648
-19.469
-21.958
-25.102
-28.797
-32.937
-37.433
-42.254
-47.41
-52.81
-58.226
-63.319
-67.688
-70.976
-72.93
-73.225
-71.426
-67.328
-60.956
-52.647
-43.178
-33.213
-23.052
-13.091
-3.859
4.635
12.748
21.387
32.321
46.859
65.392
88.334
115.948
147.163
179.849
210.636
234.731
248.012
247.592
230.387
193.539
136.475
60.755
-29.905
-129.565
-232.369
-333.126
-425.581
-502.887
-560.44
-595.976
-609.403
-603.079
-579.893
-542.736
-496.137
-445.942
-396.614
-351.097
-311.077
-276.532
-247.075
-222.401
-201.136
-181.03
-160.63
-139.257
-116.785
-93.934
-71.474
-49.918
-30.105
-13.051
0.731
11.081
18.096
22.245
23.978
23.664
21.815
18.968
15.509
11.793
8.123
4.707
1.812
-0.325
-1.588
-1.89
-1.196
0.472
3.089
6.589
10.836
15.684
20.992
26.602
32.391
38.221
43.924
49.365
54.427
59.021
63.115
66.691
69.737
72.269
74.325
75.956
77.238
78.243
79.026
79.654
80.195
80.721
81.32
82.058
82.984
84.137
85.542
87.219
89.187
91.451
94.002
96.832
99.934
103.298
106.921
110.795
114.902
119.224
123.74
128.43
133.276
138.26
143.359
148.552
153.816
159.131
164.476
169.827
175.157
180.436
185.635
190.724
195.672
200.451
205.027
209.373
213.46
217.262
220.755
223.915
226.72
229.149
231.183
232.808
234.007
234.771
235.087
234.95
234.355
233.298
231.782
229.808
227.381
224.508
221.198
217.464
213.32
208.781
203.866
198.595
192.99
187.075
180.874
174.415
167.725
160.833
153.767
146.559
139.236
131.83
124.37
116.885
109.404
101.955
94.566
87.262
80.069
73.012
66.112
59.391
52.869
46.564
40.492
34.668
29.104
23.812
18.801
14.078
9.649
5.518
1.686
-1.846
-5.08
-8.019
-10.668
-13.034
-15.123
-16.945
-18.51
-19.829
-20.915
-21.78
-22.438
-22.902
-23.188
-23.31
-23.282
-23.121
-22.84
-22.455
-21.979
-21.427
-20.813
-20.148
-19.446
-18.719
-17.977
-17.23
-16.488
-15.761
-15.054
-14.376
-13.732
-13.128
-12.568
-12.056
-11.593
-11.183
-10.826
-10.522
-10.271
-10.073
-9.926
-9.828
-9.777
-9.769
-9.802
-9.871
-9.974
-10.107
-10.265
-10.445
-10.643
-10.855
-11.077
-11.306
-11.539
-11.771
-12
-12.224
-12.44
-12.645
-12.838
-13.018
-13.183
-13.332
-13.466
-13.583
-13.683
-13.767
-13.836
-13.89
-13.931
-13.959
-13.977
-13.987
-13.991
-13.991
-13.99
-13.99
-13.995
-14.005
-14.025
-14.056
-14.102
-14.164
-14.245
-14.349
-14.476
-14.63
-14.812
-15.024
-15.268
-15.543
-15.852
-16.194
-16.57
-16.98
-17.423
-17.9
-18.409
-18.951
-19.524
-20.125
-20.754
-21.406
-22.08
-22.772
-23.477
-24.191
-24.911
-25.631
-26.347
-27.056
-27.753
-28.432
-29.089
-29.719
-30.317
-30.877
-31.393
-31.86
-32.273
-32.627
-32.92
-33.147
-33.306
-33.394
-33.408
-33.348
-33.212
-32.999
-32.708
-32.337
-31.888
-31.362
-30.763
-30.094
-29.36
-28.568
-27.726
-26.841
-25.923
-24.978
-24.013
-23.035
-22.052
-21.068
-20.09
-19.122
-18.172
-17.249
-16.365
-15.529
-14.751
-14.038
-13.398
-12.84
-12.372
-11.996
-11.71
-11.513
-11.41
-11.409
-11.527
-11.77
-12.134
-12.611
-13.19
-13.864
-14.613
-15.403
-16.18
-16.886
-17.481
-17.954
-18.304
-18.521
-18.589
-18.48
-18.173
-17.693
-17.069
-16.316
-15.449
-14.475
-13.446
-12.479
-11.739
-11.379
-11.518
-12.214
-13.504
-15.453
-18.104
-21.488
-25.572
-30.202
-35.243
-40.61
-46.239
-52.097
-58.029
-63.717
-68.778
-72.82
-75.491
-76.542
-75.64
-72.358
-66.556
-58.352
-48.194
-36.978
-25.378
-13.746
-2.611
7.601
17
26.094
36.101
48.752
65.056
85.39
110.135
139.044
170.65
202.155
229.35
247.797
253.997
245.133
218.48
171.921
105.456
21.906
-73.675
-175.752
-278.938
-377.94
-466.83
-539.038
-590.193
-619.158
-626.955
-615.66
-587.984
-546.936
-496.902
-444.014
-392.911
-346.048
-304.685
-268.942
-238.543
-213.319
-192.055
-172.268
-152.386
-131.841
-110.575
-89.38
-68.981
-49.745
-32.403
-17.912
-6.74
0.971
5.389
7.124
6.705
4.578
1.308
-2.642
-6.879
-11.015
-14.792
-18
-20.433
-21.974
-22.547
-22.084
-20.588
-18.085
-14.635
-10.381
-5.475
-0.071
5.651
11.55
17.483
23.268
28.768
33.872
38.487
42.583
46.146
49.154
51.617
53.57
55.055
56.147
56.916
57.418
57.725
57.908
58.042
58.219
58.511
58.965
59.623
60.511
61.648
63.056
64.741
66.697
68.918
71.399
74.133
77.122
80.358
83.827
87.513
91.396
95.458
99.683
104.055
108.553
113.16
117.855
122.618
127.434
132.282
137.135
141.967
146.752
151.46
156.063
160.534
164.842
168.96
172.861
176.521
179.915
183.021
185.818
188.286
190.406
192.162
193.54
194.528
195.115
195.292
195.054
194.398
193.322
191.828
189.919
187.6
184.879
181.765
178.271
174.411
170.199
165.653
160.792
155.638
150.214
144.542
138.647
132.556
126.295
119.89
113.37
106.76
100.087
93.379
86.662
79.961
73.301
66.707
60.201
53.806
47.544
41.433
35.493
29.74
24.189
18.854
13.748
8.882
4.263
-0.1
-4.203
-8.04
-11.61
-14.913
-17.948
-20.719
-23.229
-25.484
-27.491
-29.257
-30.791
-32.104
-33.206
-34.108
-34.823
-35.364
-35.742
-35.972
-36.068
-36.042
-35.908
-35.68
-35.37
-34.992
-34.558
-34.08
-33.57
-33.038
-32.494
-31.948
-31.409
-30.884
-30.382
-29.908
-29.468
-29.067
-28.709
-28.397
-28.133
-27.919
-27.756
-27.644
-27.582
-27.569
-27.604
-27.684
-27.808
-27.97
-28.17
-28.402
-28.662
-28.947
-29.253
-29.574
-29.906
-30.245
-30.587
-30.927
-31.261
-31.585
-31.896
-32.19
-32.463
-32.713
-32.937
-33.132
-33.296
-33.427
-33.524
-33.586
-33.613
-33.602
-33.556
-33.474
-33.356
-33.204
-33.018
-32.8
-32.552
-32.275
-31.972
-31.644
-31.295
-30.928
-30.545
-30.149
-29.744
-29.333
-28.919
-28.505
-28.095
-27.691
-27.298
-26.917
-26.552
-26.207
-25.883
-25.585
-25.314
-25.073
-24.864
-24.688
-24.546
-24.439
-24.369
-24.334
-24.337
-24.376
-24.451
-24.562
-24.709
-24.888
-25.1
-25.34
-25.606
-25.894
-26.202
-26.524
-26.856
-27.193
-27.531
-27.865
-28.191
-28.504
-28.798
-29.067
-29.306
-29.509
-29.67
-29.783
-29.842
-29.841
-29.777
-29.646
-29.445
-29.171
-28.821
-28.393
-27.885
-27.297
-26.627
-25.873
-25.037
-24.119
-23.123
-22.053
-20.914
-19.711
-18.453
-17.148
-15.806
-14.433
-13.038
-11.628
-10.21
-8.792
-7.38
-5.981
-4.602
-3.254
-1.947
-0.694
0.496
1.612
2.648
3.595
4.445
5.194
5.841
6.386
6.826
7.153
7.35
7.408
7.328
7.116
6.784
6.344
5.809
5.21
4.597
4.017
3.521
3.137
2.86
2.702
2.678
2.811
3.141
3.668
4.353
5.174
6.118
7.156
8.265
9.348
10.234
10.773
10.825
10.291
9.147
7.334
4.784
1.459
-2.661
-7.489
-12.854
-18.648
-24.818
-31.296
-37.982
-44.597
-50.703
-55.905
-59.83
-62.19
-62.7
-60.898
-56.528
-49.637
-40.557
-30.085
-19.003
-7.632
3.586
13.992
23.616
32.854
42.654
55.008
71.281
91.784
117.006
147.201
181.117
216.431
249.253
274.174
287.047
285.039
265.112
224.581
162.575
80.501
-17.236
-124.122
-234.469
-343.337
-445.118
-533.302
-601.841
-647.047
-668.617
-668.558
-648.949
-611.593
-559.142
-496.527
-430.279
-365.98
-306.718
-253.724
-207.822
-170.321
-142.504
-123.645
-110.729
-100.417
-90.805
-81.334
-71.993
-62.312
-51.129
-38.116
-24.483
-12.078
-2.149
4.959
9.547
11.932
11.923
9.476
5.15
-0.058
-5.181
-9.612
-13.132
-15.724
-17.275
-17.636
-16.762
-14.743
-11.758
-7.983
-3.552
1.46
6.974
12.866
18.986
25.157
31.181
36.902
42.221
47.072
51.424
55.262
58.57
61.357
63.673
65.582
67.152
68.442
69.493
70.359
71.113
71.838
72.627
73.548
74.646
75.951
77.489
79.278
81.334
83.66
86.242
89.067
92.127
95.417
98.936
102.676
106.619
110.748
115.043
119.485
124.059
128.748
133.531
138.388
143.3
148.248
153.215
158.179
163.116
168
172.802
177.496
182.054
186.449
190.652
194.635
198.375
201.845
205.024
207.89
210.423
212.603
214.413
215.839
216.867
217.486
217.686
217.46
216.805
215.716
214.196
212.244
209.865
207.066
203.855
200.242
196.242
191.868
187.137
182.067
176.679
170.995
165.038
158.832
152.404
145.78
138.986
132.052
125.005
117.873
110.683
103.464
96.242
89.045
81.898
74.826
67.852
61.002
54.295
47.753
41.395
35.238
29.299
23.592
18.129
12.922
7.98
3.311
-1.08
-5.188
-9.011
-12.548
-15.8
-18.769
-21.461
-23.879
-26.031
-27.926
-29.572
-30.979
-32.159
-33.124
-33.886
-34.459
-34.856
-35.091
-35.179
-35.133
-34.968
-34.699
-34.338
-33.901
-33.399
-32.846
-32.254
-31.635
-31
-30.359
-29.721
-29.096
-28.491
-27.914
-27.371
-26.868
-26.408
-25.997
-25.637
-25.33
-25.078
-24.883
-24.743
-24.659
-24.63
-24.654
-24.729
-24.853
-25.023
-25.235
-25.487
-25.775
-26.094
-26.442
-26.813
-27.204
-27.61
-28.028
-28.454
-28.883
-29.313
-29.738
-30.156
-30.564
-30.959
-31.337
-31.696
-32.034
-32.348
-32.638
-32.901
-33.137
-33.343
-33.519
-33.666
-33.781
-33.865
-33.918
-33.94
-33.932
-33.894
-33.827
-33.732
-33.61
-33.462
-33.289
-33.094
-32.876
-32.639
-32.383
-32.111
-31.824
-31.525
-31.215
-30.896
-30.572
-30.243
-29.914
-29.585
-29.259
-28.938
-28.625
-28.321
-28.028
-27.749
-27.486
-27.24
-27.015
-26.811
-26.632
-26.477
-26.349
-26.248
-26.175
-26.131
-26.116
-26.13
-26.174
-26.248
-26.351
-26.483
-26.643
-26.831
-27.043
-27.278
-27.533
-27.805
-28.092
-28.389
-28.692
-28.997
-29.302
-29.602
-29.893
-30.171
-30.431
-30.669
-30.88
-31.058
-31.199
-31.296
-31.345
-31.342
-31.284
-31.167
-30.99
-30.748
-30.44
-30.064
-29.62
-29.106
-28.52
-27.863
-27.134
-26.336
-25.473
-24.549
-23.568
-22.537
-21.463
-20.357
-19.224
-18.073
-16.91
-15.742
-14.575
-13.418
-12.274
-11.149
-10.05
-8.985
-7.967
-7.004
-6.106
-5.278
-4.529
-3.866
-3.297
-2.825
-2.447
-2.162
-1.974
-1.892
-1.931
-2.098
-2.391
-2.802
-3.323
-3.943
-4.646
-5.398
-6.146
-6.832
-7.417
-7.889
-8.245
-8.476
-8.565
-8.484
-8.213
-7.771
-7.178
-6.447
-5.582
-4.592
-3.528
-2.512
-1.707
-1.27
-1.32
-1.92
-3.117
-4.978
-7.556
-10.879
-14.901
-19.497
-24.554
-30.029
-35.905
-42.122
-48.489
-54.676
-60.277
-64.902
-68.249
-69.974
-69.621
-66.901
-61.774
-54.482
-45.699
-36.125
-26.11
-16.117
-6.768
1.939
10.404
19.61
31.455
47.306
67.606
92.945
123.773
159.085
196.749
232.957
262.254
280.357
284.221
270.56
236.297
179.996
102.438
7.559
-98.277
-209.382
-320.732
-426.762
-520.878
-596.615
-649.74
-679.162
-686.219
-672.789
-640.556
-591.573
-530.396
-463.35
-395.808
-331.814
-273.671
-222.408
-179.604
-147.232
-124.892
-110.241
-100.722
-93.415
-86.697
-80.357
-73.493
-64.636
-53.491
-40.611
-27.146
-15.108
-5.514
1.715
6.426
8.455
7.936
5.053
0.485
-4.501
-9.097
-12.942
-15.76
-17.535
-18.224
-17.674
-15.925
-13.174
-9.585
-5.332
-0.545
4.739
10.414
16.33
22.326
28.182
33.731
38.874
43.537
47.695
51.336
54.44
57.015
59.108
60.776
62.087
63.102
63.86
64.416
64.844
65.224
65.66
66.228
66.975
67.939
69.144
70.611
72.357
74.389
76.692
79.258
82.08
85.152
88.477
92.049
95.852
99.868
104.076
108.459
113.001
117.683
122.485
127.388
132.371
137.415
142.505
147.618
152.729
157.812
162.839
167.781
172.612
177.301
181.821
186.143
190.239
194.086
197.66
200.937
203.896
206.516
208.779
210.669
212.17
213.27
213.958
214.225
214.065
213.473
212.448
210.991
209.104
206.791
204.059
200.919
197.381
193.459
189.166
184.521
179.542
174.25
168.667
162.816
156.721
150.409
143.905
137.236
130.43
123.515
116.516
109.462
102.379
95.294
88.232
81.22
74.281
67.438
60.714
54.131
47.708
41.463
35.414
29.576
23.963
18.587
13.459
8.588
3.982
-0.354
-4.415
-8.199
-11.706
-14.935
-17.89
-20.574
-22.991
-25.149
-27.054
-28.715
-30.143
-31.346
-32.337
-33.127
-33.728
-34.153
-34.415
-34.528
-34.504
-34.356
-34.099
-33.745
-33.307
-32.797
-32.226
-31.607
-30.95
-30.266
-29.563
-28.852
-28.14
-27.434
-26.742
-26.069
-25.422
-24.803
-24.218
-23.669
-23.159
-22.689
-22.261
-21.874
-21.531
-21.228
-20.967
-20.745
-20.56
-20.412
-20.296
-20.212
-20.156
-20.125
-20.117
-20.129
-20.159
-20.202
-20.258
-20.323
-20.395
-20.471
-20.55
-20.63
-20.71
-20.786
-20.86
-20.928
-20.991
-21.048
-21.099
-21.143
-21.18
-21.21
-21.233
-21.25
-21.261
-21.267
-21.269
-21.266
-21.26
-21.251
-21.242
-21.231
-21.221
-21.211
-21.203
-21.197
-21.194
-21.194
-21.198
-21.205
-21.218
-21.235
-21.256
-21.283
-21.315
-21.352
-21.394
-21.44
-21.491
-21.546
-21.604
-21.667
-21.733
-21.802
-21.875
-21.951
-22.031
-22.115
-22.202
-22.293
-22.387
-22.486
-22.588
-22.695
-22.807
-22.925
-23.048
-23.179
-23.317
-23.465
-23.62
-23.786
-23.96
-24.144
-24.338
-24.542
-24.756
-24.98
-25.213
-25.457
-25.712
-25.975
-26.247
-26.526
-26.811
-27.099
-27.389
-27.678
-27.962
-28.239
-28.507
-28.763
-29.004
-29.226
-29.427
-29.603
-29.75
-29.864
-29.94
-29.974
-29.961
-29.897
-29.779
-29.606
-29.375
-29.085
-28.732
-28.317
-27.839
-27.296
-26.69
-26.018
-25.281
-24.481
-23.621
-22.705
-21.736
-20.722
-19.668
-18.583
-17.476
-16.354
-15.225
-14.095
-12.971
-11.86
-10.768
-9.699
-8.66
-7.658
-6.703
-5.807
-4.979
-4.228
-3.561
-2.985
-2.505
-2.127
-1.851
-1.672
-1.588
-1.602
-1.724
-1.967
-2.338
-2.832
-3.442
-4.161
-4.974
-5.859
-6.774
-7.658
-8.46
-9.153
-9.725
-10.178
-10.506
-10.692
-10.713
-10.562
-10.245
-9.773
-9.147
-8.358
-7.431
-6.435
-5.504
-4.818
-4.521
-4.705
-5.426
-6.733
-8.666
-11.268
-14.538
-18.383
-22.699
-27.411
-32.482
-37.915
-43.623
-49.372
-54.8
-59.496
-63.083
-65.287
-65.793
-64.151
-60.14
-53.791
-45.427
-35.844
-25.743
-15.423
-5.331
3.923
12.35
20.332
28.841
39.813
54.596
73.574
97.299
126.13
158.982
193.659
226.373
251.81
265.778
265.332
247.306
208.807
148.738
68.288
-28.318
-134.638
-244.974
-354.333
-457
-546.319
-616.06
-662.317
-684.645
-685.01
-665.449
-627.769
-574.663
-511.105
-443.75
-378.325
-318
-264.047
-217.321
-179.127
-150.744
-131.441
-118.136
-107.428
-97.38
-87.405
-77.491
-67.185
-55.334
-41.626
-27.303
-14.236
-3.687
3.98
9.069
11.897
12.275
10.168
6.138
1.183
-3.727
-7.984
-11.372
-13.873
-15.372
-15.721
-14.871
-12.909
-10.014
-6.357
-2.069
2.774
8.098
13.776
19.661
25.576
31.324
36.752
41.76
46.284
50.295
53.782
56.727
59.144
61.083
62.611
63.799
64.707
65.38
65.872
66.26
66.628
67.074
67.668
68.456
69.472
70.742
72.285
74.121
76.253
78.666
81.35
84.297
87.502
90.964
94.674
98.617
102.772
107.119
111.64
116.317
121.133
126.065
131.093
136.195
141.352
146.545
151.751
156.944
162.097
167.179
172.162
177.019
181.718
186.23
190.527
194.582
198.369
201.865
205.046
207.892
210.381
212.496
214.221
215.542
216.446
216.925
216.969
216.574
215.737
214.457
212.736
210.578
207.989
204.978
201.554
197.731
193.524
188.949
184.024
178.771
173.21
167.367
161.265
154.93
148.388
141.669
134.799
127.806
120.72
113.567
106.375
99.172
91.985
84.839
77.759
70.771
63.896
57.158
50.576
44.171
37.959
31.957
26.18
20.64
15.349
10.317
5.551
1.057
-3.159
-7.097
-10.753
-14.13
-17.228
-20.053
-22.609
-24.903
-26.941
-28.735
-30.292
-31.624
-32.743
-33.66
-34.388
-34.94
-35.331
-35.572
-35.679
-35.664
-35.541
-35.325
-35.026
-34.66
-34.237
-33.77
-33.27
-32.747
-32.211
-31.672
-31.137
-30.615
-30.113
-29.637
-29.191
-28.781
-28.41
-28.082
-27.798
-27.56
-27.369
-27.225
-27.129
-27.078
-27.072
-27.109
-27.187
-27.305
-27.458
-27.644
-27.861
-28.105
-28.373
-28.661
-28.967
-29.287
-29.619
-29.958
-30.303
-30.649
-30.996
-31.34
-31.679
-32.011
-32.334
-32.647
-32.948
-33.236
-33.51
-33.769
-34.014
-34.243
-34.456
-34.653
-34.835
-35.001
-35.152
-35.288
-35.409
-35.516
-35.61
-35.69
-35.758
-35.814
-35.858
-35.891
-35.913
-35.926
-35.928
-35.921
-35.905
-35.879
-35.845
-35.803
-35.753
-35.695
-35.629
-35.556
-35.476
-35.389
-35.295
-35.194
-35.086
-34.972
-34.852
-34.726
-34.594
-34.458
-34.317
-34.173
-34.026
-33.878
-33.729
-33.579
-33.43
-33.284
-33.14
-33
-32.866
-32.739
-32.62
-32.51
-32.412
-32.326
-32.253
-32.193
-32.147
-32.115
-32.098
-32.095
-32.107
-32.134
-32.176
-32.232
-32.303
-32.386
-32.482
-32.587
-32.701
-32.821
-32.943
-33.066
-33.184
-33.297
-33.399
-33.489
-33.562
-33.615
-33.643
-33.644
-33.612
-33.542
-33.43
-33.271
-33.06
-32.794
-32.471
-32.089
-31.646
-31.14
-30.569
-29.933
-29.233
-28.468
-27.636
-26.739
-25.778
-24.755
-23.674
-22.539
-21.355
-20.128
-18.866
-17.577
-16.271
-14.954
-13.633
-12.316
-11.01
-9.723
-8.459
-7.224
-6.024
-4.868
-3.765
-2.725
-1.758
-0.869
-0.066
0.645
1.262
1.781
2.202
2.532
2.77
2.915
2.958
2.885
2.692
2.383
1.959
1.431
0.819
0.15
-0.528
-1.156
-1.699
-2.131
-2.438
-2.622
-2.673
-2.575
-2.332
-1.932
-1.364
-0.63
0.283
1.371
2.576
3.799
4.903
5.716
6.12
6.033
5.373
4.108
2.208
-0.331
-3.415
-6.963
-10.927
-15.27
-19.998
-25.059
-30.245
-35.254
-39.735
-43.281
-45.582
-46.3
-44.953
-41.342
-35.518
-27.804
-18.986
-9.743
-0.35
8.768
17.039
24.518
31.642
39.426
49.816
64.157
82.797
106.216
134.72
167.169
201.329
233.567
258.73
272.522
271.946
253.772
215.053
155.143
75.601
-19.52
-123.842
-231.309
-336.473
-432.92
-513.701
-573.71
-610.256
-623.382
-615.641
-589.785
-548.787
-497.002
-440.057
-383.337
-330.68
-283.913
-243.233
-208.728
-180.285
-157.212
-137.993
-120.264
-102.443
-84.214
-65.905
-47.963
-30.813
-14.556
0.585
13.479
23.385
30.273
34.273
35.885
35.666
33.772
30.379
26.191
21.818
17.672
14.196
11.503
9.624
8.754
9.004
10.347
12.74
16.072
20.167
24.93
30.251
35.969
41.942
47.993
53.918
59.579
64.854
69.651
73.93
77.658
80.818
83.425
85.513
87.13
88.345
89.22
89.812
90.19
90.423
90.597
90.81
91.134
91.624
92.324
93.262
94.46
95.94
97.708
99.755
102.077
104.668
107.523
110.643
114.019
117.64
121.489
125.546
129.791
134.208
138.781
143.488
148.311
153.228
158.219
163.268
168.351
173.442
178.514
183.537
188.48
193.315
198.009
202.533
206.855
210.946
214.779
218.329
221.57
224.478
227.03
229.207
230.989
232.36
233.305
233.812
233.87
233.472
232.612
231.288
229.499
227.247
224.537
221.375
217.77
213.734
209.28
204.424
199.183
193.578
187.629
181.361
174.798
167.966
160.892
153.606
146.136
138.511
130.76
122.914
115.001
107.052
99.093
91.155
83.264
75.447
67.728
60.134
52.687
45.409
38.32
31.439
24.783
18.368
12.207
6.313
0.696
-4.636
-9.676
-14.418
-18.86
-23
-26.839
-30.377
-33.619
-36.57
-39.235
-41.621
-43.739
-45.597
-47.206
-48.577
-49.722
-50.655
-51.387
-51.933
-52.307
-52.521
-52.591
-52.529
-52.349
-52.065
-51.689
-51.234
-50.713
-50.137
-49.516
-48.862
-48.185
-47.492
-46.793
-46.096
-45.406
-44.731
-44.076
-43.445
-42.842
-42.272
-41.736
-41.236
-40.774
-40.351
-39.967
-39.622
-39.316
-39.047
-38.814
-38.616
-38.452
-38.318
-38.214
-38.136
-38.082
-38.051
-38.039
-38.044
-38.064
-38.096
-38.137
-38.185
-38.239
-38.296
-38.354
-38.412
-38.467
-38.518
-38.565
-38.605
-38.637
-38.662
-38.677
-38.683
-38.679
-38.665
-38.641
-38.608
-38.565
-38.513
-38.452
-38.382
-38.305
-38.221
-38.131
-38.035
-37.934
-37.83
-37.724
-37.617
-37.511
-37.407
-37.308
-37.213
-37.126
-37.047
-36.978
-36.92
-36.876
-36.848
-36.835
-36.842
-36.869
-36.917
-36.989
-37.084
-37.203
-37.348
-37.517
-37.711
-37.93
-38.174
-38.442
-38.733
-39.047
-39.384
-39.741
-40.117
-40.51
-40.916
-41.333
-41.758
-42.186
-42.613
-43.036
-43.451
-43.852
-44.238
-44.602
-44.939
-45.246
-45.516
-45.745
-45.927
-46.057
-46.128
-46.137
-46.081
-45.956
-45.761
-45.494
-45.152
-44.734
-44.242
-43.673
-43.029
-42.309
-41.514
-40.646
-39.71
-38.71
-37.652
-36.541
-35.386
-34.197
-32.982
-31.75
-30.51
-29.269
-28.034
-26.815
-25.618
-24.45
-23.316
-22.227
-21.193
-20.225
-19.334
-18.528
-17.814
-17.2
-16.691
-16.292
-16.005
-15.823
-15.746
-15.775
-15.919
-16.192
-16.599
-17.134
-17.787
-18.555
-19.418
-20.356
-21.328
-22.269
-23.128
-23.878
-24.505
-25.008
-25.383
-25.608
-25.661
-25.536
-25.238
-24.78
-24.164
-23.38
-22.452
-21.449
-20.502
-19.795
-19.478
-19.641
-20.342
-21.631
-23.542
-26.11
-29.33
-33.097
-37.307
-41.879
-46.771
-51.993
-57.451
-62.918
-68.047
-72.403
-75.592
-77.323
-77.253
-74.978
-70.358
-63.472
-54.709
-44.897
-34.677
-24.419
-14.623
-5.658
2.639
10.847
20.163
32.205
47.934
67.735
92.016
120.579
152.002
183.508
210.918
229.863
236.88
229.143
203.891
158.964
94.281
12.56
-81.168
-181.389
-282.749
-379.969
-467.195
-538
-588.084
-616.339
-623.852
-612.74
-585.728
-545.833
-497.329
-446.141
-396.744
-351.475
-311.493
-276.864
-247.27
-222.508
-201.403
-181.584
-161.572
-140.858
-119.423
-98.061
-77.503
-58.131
-40.668
-26.037
-14.688
-6.758
-2.077
-0.055
-0.177
-2.001
-4.968
-8.622
-12.571
-16.427
-19.931
-22.871
-25.036
-26.307
-26.604
-25.857
-24.064
-21.25
-17.468
-12.855
-7.56
-1.734
4.443
10.831
17.283
23.617
29.695
35.403
40.649
45.399
49.638
53.342
56.522
59.21
61.445
63.3
64.843
66.13
67.23
68.213
69.155
70.148
71.261
72.543
74.033
75.758
77.735
79.984
82.512
85.309
88.371
91.689
95.257
99.074
103.132
107.415
111.905
116.582
121.424
126.416
131.538
136.771
142.092
147.481
152.917
158.382
163.854
169.306
174.709
180.035
185.254
190.337
195.254
199.973
204.467
208.706
212.665
216.319
219.644
222.619
225.221
227.432
229.235
230.614
231.558
232.055
232.096
231.675
230.789
229.437
227.621
225.344
222.612
219.434
215.82
211.783
207.338
202.503
197.295
191.735
185.848
179.656
173.186
166.465
159.519
152.378
145.072
137.629
130.079
122.452
114.776
107.081
99.394
91.744
84.157
76.659
69.275
62.028
54.941
48.034
41.328
34.838
28.581
22.572
16.822
11.344
6.145
1.232
-3.388
-7.712
-11.739
-15.468
-18.9
-22.039
-24.889
-27.456
-29.747
-31.772
-33.538
-35.056
-36.339
-37.397
-38.243
-38.891
-39.352
-39.642
-39.774
-39.761
-39.618
-39.358
-38.993
-38.538
-38.004
-37.404
-36.749
-36.049
-35.316
-34.558
-33.785
-33.005
-32.225
-31.451
-30.69
-29.947
-29.226
-28.531
-27.866
-27.231
-26.63
-26.064
-25.532
-25.037
-24.576
-24.151
-23.759
-23.401
-23.073
-22.776
-22.507
-22.264
-22.045
-21.849
-21.674
-21.517
-21.377
-21.252
-21.141
-21.042
-20.953
-20.874
-20.803
-20.74
-20.683
-20.632
-20.586
-20.544
-20.508
-20.475
-20.446
-20.42
-20.399
-20.381
-20.367
-20.358
-20.352
-20.35
-20.353
-20.359
-20.37
-20.384
-20.402
-20.425
-20.451
-20.48
-20.512
-20.547
-20.585
-20.625
-20.666
-20.708
-20.75
-20.792
-20.834
-20.874
-20.913
-20.95
-20.985
-21.019
-21.052
-21.083
-21.113
-21.141
-21.17
-21.198
-21.227
-21.257
-21.29
-21.325
-21.365
-21.41
-21.463
-21.523
-21.591
-21.669
-21.757
-21.856
-21.967
-22.089
-22.224
-22.372
-22.533
-22.708
-22.898
-23.101
-23.318
-23.547
-23.786
-24.035
-24.291
-24.551
-24.812
-25.071
-25.325
-25.572
-25.808
-26.029
-26.232
-26.411
-26.564
-26.685
-26.769
-26.811
-26.807
-26.752
-26.643
-26.478
-26.254
-25.969
-25.619
-25.205
-24.725
-24.178
-23.564
-22.88
-22.127
-21.308
-20.424
-19.48
-18.48
-17.429
-16.333
-15.203
-14.046
-12.87
-11.681
-10.488
-9.297
-8.116
-6.952
-5.809
-4.694
-3.613
-2.578
-1.599
-0.685
0.157
0.921
1.597
2.182
2.667
3.052
3.342
3.538
3.634
3.623
3.49
3.226
2.84
2.337
1.721
1.01
0.226
-0.59
-1.37
-2.066
-2.653
-3.113
-3.444
-3.638
-3.67
-3.529
-3.216
-2.729
-2.08
-1.275
-0.303
0.793
1.924
2.961
3.719
4.052
3.877
3.118
1.721
-0.352
-3.129
-6.563
-10.541
-14.974
-19.809
-25.026
-30.594
-36.341
-41.984
-47.168
-51.472
-54.562
-56.076
-55.541
-52.7
-47.548
-40.348
-31.787
-22.564
-13.016
-3.598
5.09
13.104
20.9
29.515
40.866
56.277
76.115
100.856
130.839
164.995
201.182
235.717
263.322
279.81
282.237
267.438
232.527
176.428
100.158
7.568
-95.04
-201.927
-307.831
-406.655
-491.823
-557.664
-600.788
-620.889
-620.1
-600.894
-566.112
-519.676
-466.783
-413.054
-362.559
-317.324
-277.92
-244.294
-216.151
-192.819
-172.663
-153.445
-133.818
-113.388
-92.404
-71.64
-51.74
-33.181
-16.72
-3.194
7.007
13.829
17.548
18.744
17.918
15.525
12.087
8.044
3.78
-0.349
-4.091
-7.227
-9.555
-10.968
-11.396
-10.792
-9.168
-6.559
-3.037
1.247
6.139
11.486
17.121
22.914
28.725
34.381
39.748
44.713
49.187
53.143
56.566
59.438
61.776
63.614
65.002
66.018
66.737
67.213
67.518
67.719
67.888
68.114
68.464
68.983
69.712
70.676
71.892
73.38
75.147
77.185
79.489
82.05
84.86
87.919
91.218
94.743
98.477
102.4
106.495
110.747
115.138
119.649
124.262
128.955
133.711
138.511
143.333
148.153
152.944
157.677
162.325
166.86
171.255
175.479
179.505
183.306
186.858
190.138
193.123
195.792
198.124
200.102
201.71
202.934
203.761
204.181
204.187
203.771
202.932
201.669
199.981
197.873
195.349
192.417
189.087
185.37
181.28
176.832
172.045
166.936
161.528
155.843
149.904
143.737
137.366
130.818
124.122
117.302
110.388
103.406
96.382
89.345
82.318
75.329
68.402
61.56
54.827
48.223
41.77
35.486
29.389
23.496
17.821
12.376
7.175
2.227
-2.46
-6.88
-11.027
-14.897
-18.49
-21.805
-24.844
-27.609
-30.106
-32.339
-34.316
-36.045
-37.536
-38.798
-39.842
-40.679
-41.323
-41.786
-42.08
-42.219
-42.217
-42.086
-41.84
-41.493
-41.057
-40.545
-39.969
-39.342
-38.674
-37.976
-37.26
-36.533
-35.806
-35.086
-34.381
-33.697
-33.041
-32.417
-31.83
-31.284
-30.781
-30.325
-29.915
-29.554
-29.241
-28.976
-28.758
-28.586
-28.459
-28.373
-28.327
-28.318
-28.344
-28.4
-28.484
-28.593
-28.722
-28.87
-29.032
-29.205
-29.386
-29.571
-29.759
-29.944
-30.126
-30.302
-30.468
-30.623
-30.766
-30.893
-31.004
-31.097
-31.171
-31.225
-31.258
-31.27
-31.26
-31.227
-31.172
-31.096
-30.997
-30.877
-30.736
-30.575
-30.394
-30.194
-29.976
-29.741
-29.489
-29.223
-28.943
-28.65
-28.345
-28.031
-27.707
-27.376
-27.038
-26.695
-26.349
-26
-25.649
-25.3
-24.952
-24.608
-24.27
-23.939
-23.617
-23.306
-23.007
-22.723
-22.454
-22.202
-21.97
-21.758
-21.569
-21.403
-21.263
-21.151
-21.066
-21.012
-20.987
-20.992
-21.028
-21.096
-21.194
-21.323
-21.482
-21.672
-21.891
-22.14
-22.416
-22.718
-23.045
-23.393
-23.76
-24.143
-24.539
-24.942
-25.35
-25.758
-26.163
-26.561
-26.946
-27.315
-27.662
-27.983
-28.273
-28.526
-28.737
-28.9
-29.011
-29.065
-29.06
-28.993
-28.861
-28.662
-28.393
-28.055
-27.645
-27.163
-26.608
-25.98
-25.28
-24.511
-23.676
-22.779
-21.826
-20.823
-19.778
-18.701
-17.598
-16.477
-15.345
-14.21
-13.078
-11.957
-10.852
-9.768
-8.713
-7.696
-6.729
-5.82
-4.98
-4.212
-3.525
-2.926
-2.423
-2.016
-1.704
-1.485
-1.361
-1.342
-1.443
-1.671
-2.021
-2.485
-3.054
-3.719
-4.46
-5.241
-6.01
-6.708
-7.298
-7.767
-8.111
-8.322
-8.382
-8.261
-7.941
-7.437
-6.77
-5.952
-4.989
-3.894
-2.726
-1.613
-0.723
-0.218
-0.216
-0.778
-1.954
-3.806
-6.38
-9.701
-13.716
-18.3
-23.349
-28.81
-34.661
-40.83
-47.109
-53.144
-58.515
-62.816
-65.739
-66.95
-66.003
-62.642
-56.871
-48.978
-39.691
-29.725
-19.406
-9.189
0.313
9.14
17.725
27.065
39.066
55.042
75.319
100.393
130.603
164.808
200.762
234.635
261.038
275.802
276.06
258.713
220.908
161.563
81.805
-14.209
-120.009
-229.932
-339.052
-441.723
-531.41
-601.932
-649.348
-673.148
-675.225
-657.546
-621.873
-570.824
-509.227
-443.632
-379.684
-320.504
-267.419
-221.32
-183.505
-155.273
-135.927
-122.429
-111.457
-101.119
-90.824
-80.565
-69.911
-57.73
-43.753
-29.228
-16.016
-5.376
2.344
7.456
10.278
10.64
8.522
4.488
-0.463
-5.365
-9.625
-13.033
-15.566
-17.111
-17.513
-16.716
-14.802
-11.944
-8.308
-4.025
0.829
6.176
11.883
17.798
23.742
29.514
34.964
39.993
44.537
48.567
52.07
55.029
57.454
59.398
60.921
62.093
62.975
63.61
64.055
64.386
64.689
65.062
65.574
66.272
67.192
68.358
69.791
71.509
73.516
75.799
78.349
81.157
84.22
87.537
91.101
94.896
98.902
103.101
107.474
112.004
116.673
121.461
126.347
131.311
136.333
141.396
146.477
151.551
156.59
161.566
166.452
171.218
175.836
180.276
184.51
188.513
192.257
195.722
198.883
201.72
204.213
206.344
208.098
209.462
210.422
210.97
211.097
210.8
210.075
208.922
207.342
205.34
202.921
200.094
196.87
193.261
189.282
184.948
180.279
175.293
170.014
164.463
158.665
152.646
146.43
140.047
133.523
126.885
120.161
113.379
106.565
99.746
92.948
86.197
79.517
72.931
66.462
60.132
53.959
47.963
42.161
36.569
31.199
26.065
21.177
16.545
12.175
8.073
4.243
0.687
-2.593
-5.599
-8.334
-10.801
-13.006
-14.956
-16.659
-18.123
-19.36
-20.379
-21.193
-21.815
-22.256
-22.531
-22.653
-22.636
-22.494
-22.241
-21.891
-21.456
-20.952
-20.39
-19.782
-19.141
-18.479
-17.805
-17.129
-16.462
-15.81
-15.183
-14.587
-14.028
-13.51
-13.04
-12.62
-12.253
-11.941
-11.686
-11.487
-11.346
-11.261
-11.231
-11.255
-11.329
-11.452
-11.62
-11.83
-12.079
-12.363
-12.677
-13.019
-13.383
-13.766
-14.164
-14.573
-14.989
-15.409
-15.829
-16.246
-16.657
-17.059
-17.45
-17.827
-18.189
-18.533
-18.859
-19.165
-19.45
-19.714
-19.956
-20.176
-20.375
-20.552
-20.709
-20.844
-20.96
-21.058
-21.137
-21.2
-21.247
-21.279
-21.298
-21.306
-21.302
-21.289
-21.267
-21.238
-21.202
-21.162
-21.117
-21.069
-21.019
-20.967
-20.915
-20.863
-20.811
-20.76
-20.71
-20.662
-20.616
-20.572
-20.531
-20.493
-20.457
-20.426
-20.398
-20.376
-20.358
-20.346
-20.34
-20.34
-20.348
-20.363
-20.387
-20.42
-20.462
-20.516
-20.581
-20.659
-20.751
-20.856
-20.976
-21.11
-21.258
-21.422
-21.601
-21.795
-22.003
-22.227
-22.466
-22.721
-22.989
-23.271
-23.565
-23.87
-24.184
-24.504
-24.828
-25.152
-25.473
-25.79
-26.1
-26.398
-26.682
-26.947
-27.191
-27.408
-27.594
-27.746
-27.857
-27.923
-27.941
-27.908
-27.821
-27.678
-27.476
-27.214
-26.89
-26.502
-26.051
-25.535
-24.953
-24.304
-23.59
-22.815
-21.981
-21.091
-20.151
-19.167
-18.147
-17.1
-16.031
-14.946
-13.853
-12.757
-11.666
-10.585
-9.519
-8.471
-7.45
-6.465
-5.524
-4.638
-3.811
-3.049
-2.36
-1.749
-1.223
-0.782
-0.42
-0.138
0.059
0.164
0.16
0.04
-0.188
-0.52
-0.952
-1.469
-2.048
-2.652
-3.214
-3.686
-4.049
-4.283
-4.389
-4.36
-4.169
-3.807
-3.274
-2.573
-1.714
-0.705
0.464
1.748
3.054
4.253
5.157
5.622
5.566
4.91
3.595
1.576
-1.182
-4.639
-8.685
-13.237
-18.247
-23.699
-29.563
-35.665
-41.713
-47.35
-52.151
-55.779
-57.873
-57.947
-55.723
-51.176
-44.539
-36.482
-27.701
-18.526
-9.418
-0.998
6.781
14.352
22.74
33.889
49.138
68.885
93.691
123.953
158.632
195.567
230.93
259.274
276.343
279.122
264.378
229.105
171.952
93.796
-1.385
-107.24
-218.054
-328.787
-433.87
-526.728
-601.014
-652.652
-680.649
-686.402
-671.861
-638.765
-589.238
-527.877
-460.927
-393.642
-329.962
-272.099
-221.029
-178.293
-145.81
-123.144
-107.998
-97.882
-89.96
-82.685
-75.875
-68.646
-59.556
-48.319
-35.473
-22.145
-10.302
-0.924
6.076
10.557
12.362
11.627
8.543
3.789
-1.376
-6.146
-10.155
-13.128
-15.045
-15.864
-15.436
-13.801
-11.154
-7.661
-3.495
1.213
6.425
12.036
17.897
23.843
29.653
35.155
40.248
44.856
48.953
52.527
55.556
58.05
60.057
61.633
62.848
63.765
64.421
64.872
65.188
65.454
65.771
66.217
66.839
67.673
68.746
70.076
71.681
73.567
75.72
78.128
80.785
83.685
86.829
90.212
93.818
97.629
101.623
105.784
110.095
114.54
119.098
123.75
128.476
133.259
138.082
142.925
147.763
152.571
157.321
161.986
166.541
170.956
175.203
179.255
183.086
186.673
189.992
193.022
195.741
198.129
200.17
201.848
203.147
204.057
204.567
204.668
204.355
203.623
202.473
200.903
198.917
196.52
193.718
190.521
186.94
182.987
178.677
174.028
169.057
163.786
158.234
152.426
146.384
140.134
133.703
127.115
120.398
113.578
106.683
99.737
92.768
85.801
78.861
71.973
65.161
58.447
51.852
45.398
39.104
32.988
27.066
21.352
15.862
10.606
5.596
0.839
-3.656
-7.885
-11.843
-15.528
-18.94
-22.078
-24.946
-27.547
-29.887
-31.97
-33.806
-35.402
-36.769
-37.915
-38.853
-39.593
-40.148
-40.531
-40.754
-40.831
-40.774
-40.596
-40.312
-39.932
-39.471
-38.94
-38.351
-37.715
-37.044
-36.347
-35.635
-34.915
-34.198
-33.489
-32.796
-32.126
-31.483
-30.872
-30.296
-29.76
-29.266
-28.814
-28.407
-28.045
-27.728
-27.456
-27.227
-27.04
-26.894
-26.785
-26.713
-26.673
-26.664
-26.682
-26.724
-26.788
-26.87
-26.966
-27.075
-27.193
-27.316
-27.443
-27.57
-27.695
-27.816
-27.931
-28.037
-28.133
-28.217
-28.289
-28.347
-28.391
-28.419
-28.432
-28.429
-28.409
-28.374
-28.323
-28.256
-28.175
-28.079
-27.97
-27.848
-27.714
-27.569
-27.414
-27.25
-27.077
-26.897
-26.711
-26.52
-26.325
-26.126
-25.926
-25.725
-25.523
-25.323
-25.125
-24.93
-24.739
-24.552
-24.371
-24.196
-24.029
-23.87
-23.719
-23.579
-23.451
-23.335
-23.232
-23.144
-23.071
-23.015
-22.976
-22.955
-22.954
-22.973
-23.014
-23.077
-23.165
-23.278
-23.417
-23.583
-23.775
-23.995
-24.241
-24.515
-24.815
-25.143
-25.496
-25.874
-26.278
-26.706
-27.158
-27.63
-28.121
-28.629
-29.151
-29.683
-30.222
-30.763
-31.303
-31.838
-32.364
-32.877
-33.374
-33.847
-34.294
-34.709
-35.086
-35.42
-35.705
-35.934
-36.104
-36.209
-36.248
-36.217
-36.113
-35.934
-35.677
-35.341
-34.926
-34.43
-33.851
-33.19
-32.447
-31.627
-30.732
-29.768
-28.738
-27.651
-26.516
-25.341
-24.135
-22.904
-21.656
-20.398
-19.137
-17.882
-16.636
-15.407
-14.205
-13.04
-11.923
-10.868
-9.882
-8.973
-8.151
-7.421
-6.791
-6.261
-5.827
-5.488
-5.25
-5.123
-5.122
-5.256
-5.519
-5.906
-6.411
-7.02
-7.708
-8.436
-9.138
-9.766
-10.293
-10.708
-11.012
-11.203
-11.262
-11.167
-10.913
-10.503
-9.948
-9.249
-8.395
-7.413
-6.378
-5.43
-4.755
-4.502
-4.762
-5.591
-7.038
-9.139
-11.93
-15.403
-19.453
-23.973
-28.891
-34.175
-39.83
-45.759
-51.707
-57.297
-62.094
-65.705
-67.851
-68.205
-66.309
-61.965
-55.243
-46.524
-36.666
-26.388
-15.976
-5.846
3.42
11.853
19.891
28.554
39.81
55.052
74.635
99.021
128.498
161.834
196.601
228.976
253.646
266.176
263.524
242.448
199.971
135.552
51.1
-48.976
-158.059
-269.842
-378.981
-479.178
-563.191
-625.737
-664.099
-678.231
-670.583
-643.93
-600.456
-543.822
-480.052
-414.866
-352.87
-296.824
-247.379
-204.987
-170.895
-145.602
-127.495
-114.116
-102.727
-91.66
-80.853
-70.335
-59.49
-47.508
-34.397
-21.089
-9.214
0.127
6.869
11.256
13.515
13.564
11.357
7.383
2.604
-2.081
-6.126
-9.278
-11.514
-12.737
-12.782
-11.621
-9.352
-6.146
-2.2
2.344
7.404
12.892
18.703
24.711
30.741
36.606
42.157
47.29
51.955
56.129
59.789
62.918
65.529
67.67
69.415
70.839
72
72.94
73.713
74.385
75.042
75.776
76.653
77.717
78.999
80.52
82.304
84.37
86.72
89.342
92.224
95.356
98.735
102.36
106.223
110.307
114.594
119.062
123.696
128.48
133.396
138.424
143.543
148.733
153.975
159.252
164.542
169.818
175.055
180.223
185.295
190.243
195.038
199.649
204.05
208.214
212.115
215.729
219.032
222.004
224.622
226.869
228.728
230.184
231.223
231.834
232.009
231.742
231.028
229.866
228.255
226.198
223.7
220.768
217.41
213.64
209.468
204.911
199.987
194.714
189.114
183.208
177.021
170.578
163.905
157.029
149.978
142.779
135.461
128.052
120.58
113.074
105.56
98.066
90.618
83.241
75.96
68.799
61.78
54.924
48.251
41.778
35.523
29.501
23.725
18.207
12.957
7.984
3.293
-1.11
-5.222
-9.042
-12.569
-15.807
-18.757
-21.425
-23.817
-25.941
-27.804
-29.416
-30.789
-31.932
-32.859
-33.581
-34.113
-34.466
-34.656
-34.696
-34.6
-34.381
-34.055
-33.634
-33.132
-32.562
-31.936
-31.267
-30.565
-29.842
-29.108
-28.371
-27.642
-26.926
-26.233
-25.567
-24.935
-24.341
-23.789
-23.282
-22.823
-22.414
-22.056
-21.748
-21.492
-21.287
-21.131
-21.024
-20.962
-20.945
-20.969
-21.031
-21.129
-21.258
-21.417
-21.6
-21.804
-22.025
-22.26
-22.505
-22.755
-23.008
-23.259
-23.507
-23.746
-23.975
-24.191
-24.392
-24.574
-24.737
-24.879
-24.997
-25.091
-25.161
-25.205
-25.223
-25.216
-25.182
-25.124
-25.04
-24.932
-24.801
-24.648
-24.474
-24.28
-24.069
-23.843
-23.603
-23.352
-23.094
-22.831
-22.566
-22.303
-22.043
-21.791
-21.549
-21.32
-21.109
-20.917
-20.748
-20.606
-20.493
-20.412
-20.366
-20.357
-20.386
-20.455
-20.565
-20.718
-20.913
-21.152
-21.435
-21.761
-22.132
-22.546
-23.002
-23.499
-24.035
-24.607
-25.211
-25.845
-26.504
-27.182
-27.875
-28.579
-29.288
-29.997
-30.7
-31.392
-32.066
-32.716
-33.334
-33.914
-34.449
-34.931
-35.354
-35.713
-36.004
-36.223
-36.365
-36.426
-36.405
-36.297
-36.103
-35.818
-35.442
-34.973
-34.411
-33.76
-33.02
-32.198
-31.296
-30.321
-29.283
-28.189
-27.047
-25.864
-24.647
-23.405
-22.145
-20.874
-19.598
-18.324
-17.061
-15.822
-14.618
-13.461
-12.361
-11.325
-10.364
-9.486
-8.698
-8.002
-7.395
-6.878
-6.456
-6.14
-5.945
-5.88
-5.941
-6.122
-6.423
-6.828
-7.319
-7.86
-8.388
-8.854
-9.233
-9.511
-9.69
-9.765
-9.719
-9.531
-9.201
-8.733
-8.141
-7.43
-6.586
-5.632
-4.634
-3.716
-3.06
-2.814
-3.069
-3.889
-5.322
-7.404
-10.172
-13.621
-17.644
-22.135
-27.011
-32.225
-37.789
-43.618
-49.492
-55.079
-59.95
-63.712
-66.075
-66.683
-65.126
-61.246
-55.094
-47.034
-37.874
-28.244
-18.527
-9.241
-0.739
7.147
14.993
24.016
35.832
51.41
71.203
95.679
124.645
156.712
189.099
217.582
237.826
246.37
240.318
216.848
173.712
110.688
30.415
-62.134
-161.581
-262.673
-360.185
-448.306
-520.522
-572.385
-602.662
-612.299
-603.26
-578.135
-539.824
-492.542
-442.215
-393.37
-348.416
-308.572
-273.943
-244.264
-219.34
-197.959
-177.757
-157.221
-135.807
-113.53
-91.185
-69.508
-48.934
-30.213
-14.318
-1.763
7.295
12.995
15.864
16.395
14.997
12.162
8.379
4.047
-0.468
-4.838
-8.807
-12.141
-14.655
-16.239
-16.825
-16.38
-14.914
-12.476
-9.167
-5.126
-0.499
4.58
9.973
15.548
21.154
26.614
31.779
36.547
40.849
44.657
47.957
50.741
53.027
54.866
56.327
57.481
58.395
59.124
59.729
60.28
60.856
61.544
62.409
63.499
64.85
66.486
68.429
70.694
73.284
76.187
79.392
82.889
86.67
90.733
95.067
99.654
104.474
109.505
114.728
120.122
125.666
131.336
137.109
142.959
148.864
154.801
160.745
166.665
172.53
178.309
183.968
189.478
194.805
199.915
204.778
209.364
213.645
217.595
221.188
224.401
227.211
229.6
231.55
233.044
234.072
234.62
234.682
234.251
233.325
231.904
229.989
227.585
224.7
221.343
217.526
213.265
208.574
203.474
197.985
192.13
185.934
179.423
172.624
165.566
158.28
150.795
143.143
135.355
127.463
119.496
111.487
103.464
95.46
87.501
79.616
71.831
64.173
56.666
49.333
42.195
35.272
28.582
22.141
15.963
10.062
4.447
-0.873
-5.89
-10.599
-14.998
-19.085
-22.861
-26.327
-29.487
-32.347
-34.913
-37.193
-39.197
-40.935
-42.418
-43.658
-44.668
-45.462
-46.053
-46.456
-46.685
-46.755
-46.68
-46.475
-46.154
-45.731
-45.22
-44.634
-43.984
-43.285
-42.546
-41.778
-40.991
-40.195
-39.398
-38.607
-37.83
-37.071
-36.337
-35.632
-34.959
-34.321
-33.721
-33.16
-32.639
-32.158
-31.718
-31.317
-30.955
-30.63
-30.34
-30.084
-29.858
-29.662
-29.49
-29.342
-29.215
-29.104
-29.009
-28.925
-28.851
-28.784
-28.723
-28.664
-28.606
-28.547
-28.486
-28.422
-28.353
-28.28
-28.201
-28.116
-28.025
-27.929
-27.828
-27.723
-27.614
-27.501
-27.387
-27.272
-27.156
-27.043
-26.931
-26.824
-26.723
-26.63
-26.546
-26.473
-26.413
-26.367
-26.338
-26.327
-26.335
-26.364
-26.414
-26.488
-26.587
-26.711
-26.861
-27.04
-27.246
-27.48
-27.743
-28.033
-28.349
-28.692
-29.059
-29.45
-29.863
-30.296
-30.749
-31.219
-31.704
-32.202
-32.71
-33.225
-33.743
-34.26
-34.773
-35.276
-35.765
-36.236
-36.684
-37.106
-37.497
-37.853
-38.168
-38.438
-38.658
-38.823
-38.928
-38.967
-38.936
-38.831
-38.652
-38.394
-38.058
-37.641
-37.143
-36.562
-35.901
-35.159
-34.336
-33.432
-32.45
-31.395
-30.27
-29.08
-27.832
-26.533
-25.19
-23.816
-22.419
-21.006
-19.587
-18.168
-16.758
-15.366
-13.997
-12.659
-11.357
-10.103
-8.905
-7.775
-6.723
-5.756
-4.881
-4.107
-3.435
-2.872
-2.416
-2.064
-1.814
-1.672
-1.643
-1.743
-1.976
-2.339
-2.827
-3.431
-4.129
-4.894
-5.677
-6.421
-7.087
-7.652
-8.1
-8.436
-8.651
-8.731
-8.678
-8.479
-8.124
-7.61
-6.925
-6.072
-5.105
-4.118
-3.248
-2.664
-2.485
-2.797
-3.675
-5.151
-7.252
-9.971
-13.223
-16.931
-21.039
-25.521
-30.394
-35.609
-40.979
-46.224
-50.989
-54.872
-57.565
-58.701
-57.799
-54.651
-49.29
-42.038
-33.654
-24.788
-15.726
-6.88
1.212
8.599
15.726
23.637
34.227
48.821
67.791
91.549
120.374
153.175
187.742
220.53
246.471
261.242
261.829
245.021
207.807
149.501
71.604
-22.125
-125.509
-232.406
-337.37
-433.861
-514.739
-575.171
-612.725
-627.207
-620.994
-597.099
-558.562
-510.144
-457.966
-406.673
-359.32
-317.665
-281.738
-251.201
-225.773
-204.023
-183.564
-162.877
-141.265
-118.631
-95.754
-73.373
-51.959
-32.349
-15.588
-2.232
7.532
13.811
17.13
17.976
16.744
13.962
10.175
5.811
1.267
-3.105
-7.066
-10.377
-12.834
-14.332
-14.801
-14.205
-12.565
-9.932
-6.396
-2.099
2.813
8.199
13.908
19.795
25.708
31.459
36.897
41.916
46.442
50.443
53.908
56.825
59.213
61.122
62.615
63.763
64.635
65.282
65.767
66.161
66.541
66.994
67.59
68.373
69.38
70.637
72.162
73.973
76.073
78.448
81.089
83.987
87.135
90.529
94.162
98.015
102.071
106.309
110.709
115.255
119.927
124.703
129.561
134.48
139.44
144.422
149.402
154.355
159.253
164.068
168.771
173.335
177.731
181.929
185.902
189.624
193.07
196.218
199.046
201.533
203.66
205.412
206.772
207.729
208.272
208.392
208.081
207.337
206.159
204.546
202.501
200.03
197.139
193.839
190.14
186.057
181.604
176.799
171.662
166.212
160.472
154.466
148.218
141.754
135.101
128.285
121.336
114.279
107.144
99.956
92.743
85.532
78.349
71.219
64.165
57.212
50.382
43.695
37.171
30.829
24.686
18.756
13.053
7.59
2.378
-2.576
-7.263
-11.679
-15.818
-19.679
-23.261
-26.565
-29.593
-32.348
-34.836
-37.063
-39.036
-40.765
-42.257
-43.524
-44.577
-45.427
-46.087
-46.568
-46.884
-47.047
-47.071
-46.969
-46.754
-46.437
-46.033
-45.552
-45.008
-44.409
-43.769
-43.096
-42.4
-41.69
-40.975
-40.261
-39.556
-38.866
-38.195
-37.549
-36.932
-36.346
-35.795
-35.281
-34.804
-34.366
-33.966
-33.605
-33.282
-32.996
-32.745
-32.528
-32.342
-32.186
-32.057
-31.953
-31.871
-31.808
-31.762
-31.73
-31.71
-31.7
-31.696
-31.696
-31.699
-31.703
-31.705
-31.703
-31.696
-31.684
-31.663
-31.635
-31.596
-31.548
-31.49
-31.42
-31.34
-31.248
-31.145
-31.031
-30.906
-30.77
-30.625
-30.47
-30.306
-30.134
-29.955
-29.769
-29.578
-29.381
-29.18
-28.974
-28.766
-28.556
-28.345
-28.133
-27.922
-27.713
-27.507
-27.304
-27.108
-26.917
-26.734
-26.559
-26.394
-26.24
-26.098
-25.969
-25.855
-25.757
-25.676
-25.613
-25.571
-25.55
-25.55
-25.572
-25.617
-25.685
-25.777
-25.892
-26.032
-26.195
-26.382
-26.593
-26.828
-27.086
-27.364
-27.662
-27.977
-28.307
-28.649
-29
-29.355
-29.713
-30.069
-30.421
-30.765
-31.095
-31.408
-31.7
-31.965
-32.198
-32.394
-32.547
-32.652
-32.705
-32.702
-32.641
-32.518
-32.329
-32.072
-31.746
-31.348
-30.877
-30.33
-29.707
-29.007
-28.233
-27.386
-26.471
-25.491
-24.452
-23.362
-22.229
-21.06
-19.862
-18.64
-17.403
-16.155
-14.904
-13.656
-12.414
-11.187
-9.984
-8.815
-7.693
-6.624
-5.617
-4.678
-3.817
-3.041
-2.353
-1.753
-1.239
-0.815
-0.494
-0.289
-0.211
-0.256
-0.417
-0.687
-1.056
-1.508
-2.007
-2.5
-2.931
-3.259
-3.474
-3.574
-3.552
-3.389
-3.059
-2.543
-1.861
-1.034
-0.073
1.015
2.22
3.486
4.686
5.653
6.227
6.288
5.777
4.644
2.827
0.272
-3.039
-7.052
-11.635
-16.674
-22.122
-27.966
-34.135
-40.427
-46.5
-51.936
-56.342
-59.421
-60.826
-60.104
-56.98
-51.431
-43.739
-34.621
-24.796
-14.608
-4.503
4.926
13.705
22.264
31.614
43.655
59.745
80.282
105.761
136.524
171.439
208.245
243.124
270.699
286.769
288.428
272.523
236.141
178.149
99.634
4.693
-100.24
-209.558
-318.397
-421.091
-511.095
-582.195
-630.374
-655.107
-658.28
-641.806
-607.398
-557.618
-497.204
-432.69
-369.743
-311.455
-259.138
-213.667
-176.301
-148.386
-129.305
-116.044
-105.283
-95.122
-84.944
-74.75
-64.13
-51.951
-37.921
-23.277
-9.878
0.991
8.954
14.3
17.329
17.882
15.946
12.076
7.274
2.505
-1.645
-4.955
-7.396
-8.863
-9.206
-8.369
-6.442
-3.587
0.035
4.295
9.124
14.442
20.116
25.996
31.906
37.645
43.064
48.066
52.582
56.586
60.067
63.007
65.42
67.353
68.866
70.027
70.897
71.516
71.941
72.246
72.515
72.845
73.305
73.942
74.791
75.876
77.219
78.838
80.737
82.905
85.331
88.01
90.937
94.112
97.53
101.174
105.027
109.068
113.281
117.649
122.155
126.779
131.499
136.298
141.155
146.053
150.972
155.884
160.765
165.585
170.319
174.937
179.413
183.716
187.819
191.697
195.323
198.676
201.733
204.472
206.874
208.921
210.598
211.891
212.788
213.279
213.355
213.013
212.248
211.061
209.451
207.424
204.984
202.14
198.901
195.28
191.29
186.947
182.269
177.275
171.986
166.425
160.614
154.578
148.343
141.935
135.381
128.708
121.942
115.11
108.238
101.354
94.481
87.645
80.871
74.18
67.595
61.137
54.826
48.68
42.715
36.947
31.39
26.055
20.955
16.098
11.49
7.139
3.049
-0.778
-4.341
-7.64
-10.676
-13.454
-15.977
-18.251
-20.284
-22.084
-23.658
-25.018
-26.174
-27.137
-27.919
-28.531
-28.986
-29.296
-29.475
-29.534
-29.486
-29.343
-29.118
-28.822
-28.465
-28.06
-27.615
-27.141
-26.647
-26.142
-25.632
-25.125
-24.629
-24.147
-23.687
-23.251
-22.845
-22.47
-22.13
-21.826
-21.56
-21.332
-21.143
-20.992
-20.879
-20.802
-20.761
-20.753
-20.776
-20.829
-20.909
-21.014
-21.14
-21.286
-21.45
-21.627
-21.816
-22.015
-22.22
-22.43
-22.642
-22.854
-23.064
-23.271
-23.472
-23.665
-23.85
-24.025
-24.189
-24.34
-24.477
-24.6
-24.708
-24.801
-24.878
-24.939
-24.983
-25.011
-25.022
-25.017
-24.995
-24.957
-24.904
-24.835
-24.752
-24.654
-24.543
-24.419
-24.282
-24.135
-23.977
-23.809
-23.632
-23.448
-23.257
-23.061
-22.86
-22.657
-22.453
-22.25
-22.049
-21.853
-21.663
-21.48
-21.306
-21.144
-20.994
-20.859
-20.741
-20.641
-20.562
-20.505
-20.472
-20.465
-20.484
-20.531
-20.606
-20.711
-20.845
-21.008
-21.201
-21.424
-21.675
-21.956
-22.265
-22.601
-22.962
-23.347
-23.752
-24.174
-24.611
-25.059
-25.512
-25.967
-26.419
-26.866
-27.303
-27.724
-28.125
-28.501
-28.847
-29.157
-29.426
-29.646
-29.813
-29.921
-29.967
-29.947
-29.857
-29.696
-29.46
-29.148
-28.758
-28.29
-27.741
-27.112
-26.401
-25.611
-24.745
-23.806
-22.798
-21.728
-20.602
-19.43
-18.221
-16.981
-15.72
-14.445
-13.163
-11.881
-10.607
-9.345
-8.103
-6.89
-5.716
-4.592
-3.531
-2.54
-1.629
-0.805
-0.074
0.556
1.086
1.52
1.858
2.096
2.225
2.231
2.104
1.852
1.478
0.99
0.401
-0.266
-0.971
-1.652
-2.261
-2.769
-3.165
-3.45
-3.62
-3.657
-3.538
-3.257
-2.819
-2.234
-1.504
-0.619
0.398
1.477
2.486
3.245
3.608
3.485
2.818
1.559
-0.333
-2.898
-6.139
-9.963
-14.267
-18.976
-24.057
-29.512
-35.258
-41.063
-46.563
-51.345
-55.027
-57.333
-57.948
-56.419
-52.527
-46.309
-38.089
-28.66
-18.728
-8.58
1.344
10.436
18.73
26.629
35.116
46.145
61.065
80.236
104.201
133.301
166.426
201.355
234.25
259.742
273.604
272.87
254.42
215.415
154.796
73.813
-23.283
-130.07
-240.733
-350.171
-452.876
-542.333
-612.507
-659.776
-683.468
-685.217
-667.2
-631.286
-579.737
-517.3
-450.078
-383.102
-320.165
-263.271
-213.262
-171.634
-140.145
-118.246
-103.694
-94.055
-86.574
-79.818
-73.62
-67.081
-58.787
-48.427
-36.486
-24.046
-12.975
-4.201
2.375
6.63
8.385
7.736
4.863
0.412
-4.403
-8.785
-12.391
-14.97
-16.501
-16.953
-16.196
-14.27
-11.388
-7.722
-3.446
1.309
6.509
12.063
17.831
23.657
29.333
34.692
39.638
44.104
48.064
51.507
54.417
56.804
58.716
60.218
61.38
62.263
62.905
63.36
63.697
63.998
64.361
64.86
65.54
66.438
67.579
68.981
70.664
72.63
74.868
77.366
80.116
83.113
86.358
89.843
93.554
97.472
101.577
105.852
110.28
114.844
119.524
124.299
129.15
134.058
139.006
143.972
148.931
153.856
158.72
163.495
168.153
172.666
177.004
181.139
185.047
188.701
192.078
195.157
197.915
200.333
202.393
204.078
205.376
206.272
206.758
206.824
206.465
205.677
204.46
202.814
200.741
198.247
195.34
192.029
188.326
184.244
179.798
175.007
169.889
164.466
158.76
152.795
146.595
140.186
133.595
126.849
119.975
113.002
105.956
98.864
91.754
84.653
77.585
70.577
63.652
56.834
50.145
43.607
37.238
31.058
25.082
19.327
13.805
8.53
3.511
-1.244
-5.726
-9.931
-13.856
-17.498
-20.858
-23.936
-26.737
-29.263
-31.522
-33.52
-35.266
-36.768
-38.038
-39.087
-39.926
-40.568
-41.026
-41.314
-41.445
-41.434
-41.294
-41.04
-40.684
-40.242
-39.726
-39.149
-38.524
-37.862
-37.175
-36.474
-35.768
-35.067
-34.379
-33.711
-33.071
-32.465
-31.898
-31.373
-30.895
-30.466
-30.089
-29.764
-29.492
-29.273
-29.107
-28.991
-28.925
-28.906
-28.931
-28.998
-29.103
-29.242
-29.413
-29.61
-29.831
-30.07
-30.325
-30.591
-30.864
-31.14
-31.416
-31.689
-31.954
-32.208
-32.45
-32.675
-32.883
-33.07
-33.234
-33.375
-33.491
-33.58
-33.642
-33.677
-33.685
-33.664
-33.617
-33.542
-33.441
-33.315
-33.165
-32.991
-32.795
-32.579
-32.344
-32.092
-31.825
-31.545
-31.253
-30.952
-30.644
-30.329
-30.011
-29.691
-29.371
-29.054
-28.74
-28.433
-28.135
-27.846
-27.571
-27.31
-27.065
-26.838
-26.63
-26.444
-26.28
-26.141
-26.027
-25.94
-25.88
-25.85
-25.851
-25.882
-25.945
-26.039
-26.164
-26.319
-26.505
-26.721
-26.965
-27.237
-27.536
-27.86
-28.209
-28.58
-28.971
-29.38
-29.802
-30.237
-30.678
-31.123
-31.566
-32.003
-32.431
-32.846
-33.242
-33.616
-33.963
-34.278
-34.555
-34.791
-34.978
-35.112
-35.188
-35.2
-35.145
-35.02
-34.824
-34.554
-34.207
-33.783
-33.28
-32.699
-32.038
-31.297
-30.477
-29.578
-28.605
-27.562
-26.453
-25.284
-24.062
-22.796
-21.497
-20.171
-18.826
-17.47
-16.11
-14.754
-13.408
-12.078
-10.77
-9.494
-8.259
-7.076
-5.959
-4.913
-3.949
-3.072
-2.291
-1.61
-1.031
-0.549
-0.163
0.124
0.301
0.354
0.275
0.068
-0.26
-0.705
-1.254
-1.885
-2.558
-3.211
-3.795
-4.282
-4.661
-4.933
-5.092
-5.122
-5.002
-4.726
-4.301
-3.737
-3.034
-2.183
-1.206
-0.173
0.782
1.478
1.767
1.556
0.783
-0.602
-2.643
-5.381
-8.815
-12.848
-17.375
-22.322
-27.656
-33.381
-39.414
-45.52
-51.332
-56.434
-60.436
-63.055
-63.966
-62.706
-59.056
-53.06
-45.054
-35.853
-26.173
-16.3
-6.676
2.092
10.053
17.643
25.884
36.779
51.704
71.018
95.262
124.774
158.406
193.868
227.238
253.055
267.016
266.11
247.168
207.309
145.491
63.05
-35.635
-144.002
-256.096
-366.689
-470.141
-559.793
-629.54
-675.784
-697.942
-697.754
-677.528
-639.251
-585.298
-520.588
-451.346
-382.642
-318.3
-260.323
-209.523
-167.403
-135.729
-113.882
-99.574
-90.35
-83.392
-77.243
-71.713
-65.838
-58.168
-48.388
-36.988
-25.066
-14.49
-6.15
0.058
4.01
5.54
4.753
1.871
-2.4
-6.875
-10.791
-13.827
-15.778
-16.619
-16.319
-14.775
-12.056
-8.388
-3.97
1.027
6.48
12.322
18.442
24.674
30.823
36.718
42.221
47.249
51.759
55.729
59.146
62.016
64.37
66.256
67.738
68.885
69.747
70.381
70.856
71.249
71.66
72.171
72.84
73.709
74.808
76.157
77.774
79.665
81.823
84.241
86.911
89.828
92.992
96.397
100.031
103.879
107.919
112.133
116.505
121.019
125.656
130.397
135.224
140.117
145.062
150.039
155.022
159.986
164.903
169.745
174.485
179.094
183.544
187.805
191.852
195.658
199.201
202.458
205.406
208.024
210.295
212.201
213.727
214.86
215.588
215.903
215.796
215.264
214.304
212.916
211.102
208.866
206.214
203.154
199.697
195.855
191.643
187.078
182.177
176.96
171.45
165.668
159.64
153.39
146.945
140.331
133.576
126.707
119.75
112.733
105.683
98.626
91.589
84.596
77.672
70.841
64.125
57.546
51.124
44.877
38.823
32.978
27.356
21.97
16.83
11.947
7.328
2.979
-1.095
-4.891
-8.409
-11.649
-14.613
-17.304
-19.728
-21.891
-23.8
-25.464
-26.893
-28.097
-29.088
-29.878
-30.479
-30.904
-31.168
-31.282
-31.262
-31.121
-30.872
-30.529
-30.105
-29.613
-29.066
-28.475
-27.851
-27.206
-26.549
-25.89
-25.237
-24.598
-23.981
-23.391
-22.833
-22.313
-21.835
-21.4
-21.012
-20.672
-20.381
-20.139
-19.944
-19.798
-19.696
-19.638
-19.621
-19.641
-19.697
-19.784
-19.898
-20.037
-20.195
-20.369
-20.556
-20.75
-20.95
-21.149
-21.347
-21.538
-21.72
-21.89
-22.046
-22.184
-22.304
-22.402
-22.478
-22.531
-22.559
-22.562
-22.539
-22.491
-22.418
-22.32
-22.199
-22.055
-21.889
-21.703
-21.499
-21.279
-21.044
-20.796
-20.539
-20.273
-20.002
-19.728
-19.454
-19.181
-18.912
-18.649
-18.394
-18.15
-17.918
-17.701
-17.501
-17.319
-17.159
-17.021
-16.907
-16.819
-16.759
-16.726
-16.724
-16.752
-16.811
-16.902
-17.026
-17.183
-17.374
-17.599
-17.858
-18.149
-18.472
-18.825
-19.208
-19.618
-20.055
-20.515
-20.996
-21.498
-22.018
-22.554
-23.101
-23.658
-24.221
-24.786
-25.35
-25.907
-26.453
-26.983
-27.494
-27.98
-28.437
-28.861
-29.247
-29.591
-29.887
-30.131
-30.318
-30.442
-30.498
-30.482
-30.391
-30.222
-29.974
-29.646
-29.235
-28.742
-28.166
-27.509
-26.771
-25.953
-25.055
-24.08
-23.033
-21.917
-20.739
-19.504
-18.22
-16.895
-15.54
-14.165
-12.778
-11.388
-10.004
-8.632
-7.283
-5.964
-4.679
-3.437
-2.249
-1.122
-0.071
0.896
1.772
2.548
3.219
3.781
4.228
4.563
4.791
4.912
4.923
4.817
4.58
4.207
3.704
3.073
2.325
1.481
0.568
-0.365
-1.257
-2.071
-2.784
-3.377
-3.854
-4.203
-4.406
-4.464
-4.365
-4.095
-3.655
-3.032
-2.228
-1.301
-0.348
0.495
1.056
1.218
0.901
0.025
-1.443
-3.533
-6.25
-9.502
-13.209
-17.321
-21.802
-26.656
-31.833
-37.124
-42.227
-46.79
-50.407
-52.766
-53.529
-52.214
-48.616
-42.781
-35.025
-26.128
-16.775
-7.253
1.998
10.388
17.952
25.119
32.9
43.241
57.52
76.124
99.581
128.252
161.033
195.693
228.574
254.469
268.994
269.055
251.319
212.713
152.511
72.249
-24.009
-129.812
-238.999
-346.009
-444.3
-526.772
-588.206
-625.848
-639.714
-632.39
-606.684
-565.625
-513.662
-456.52
-399.674
-347.028
-300.413
-259.991
-225.823
-197.76
-175.055
-156.153
-138.626
-120.835
-102.494
-83.961
-65.715
-48.23
-31.611
-16.086
-2.811
7.46
14.679
18.946
20.768
20.707
18.887
15.47
11.129
6.43
1.832
-2.18
-5.469
-7.966
-9.475
-9.887
-9.206
-7.455
-4.737
-1.213
3.018
7.837
13.114
18.729
24.531
30.355
36.027
41.391
46.345
50.824
54.792
58.235
61.144
63.533
65.454
66.976
68.169
69.096
69.81
70.366
70.839
71.309
71.864
72.573
73.481
74.623
76.025
77.707
79.685
81.963
84.529
87.37
90.479
93.848
97.477
101.355
105.466
109.79
114.308
119
123.848
128.833
133.933
139.125
144.389
149.702
155.046
160.395
165.723
171.002
176.2
181.287
186.236
191.014
195.59
199.936
204.023
207.825
211.317
214.475
217.277
219.702
221.731
223.348
224.538
225.288
225.588
225.429
224.807
223.719
222.163
220.141
217.658
214.719
211.333
207.512
203.269
198.62
193.58
188.17
182.412
176.328
169.943
163.283
156.375
149.248
141.929
134.45
126.84
119.128
111.344
103.518
95.679
87.855
80.075
72.364
64.751
57.258
49.911
42.732
35.741
28.958
22.401
16.086
10.027
4.237
-1.273
-6.494
-11.42
-16.044
-20.363
-24.375
-28.08
-31.481
-34.579
-37.381
-39.892
-42.12
-44.075
-45.765
-47.203
-48.399
-49.368
-50.122
-50.675
-51.041
-51.234
-51.27
-51.164
-50.929
-50.58
-50.132
-49.598
-48.991
-48.326
-47.613
-46.865
-46.092
-45.306
-44.514
-43.727
-42.952
-42.195
-41.464
-40.763
-40.097
-39.469
-38.882
-38.339
-37.84
-37.387
-36.978
-36.615
-36.295
-36.017
-35.779
-35.578
-35.413
-35.279
-35.175
-35.096
-35.039
-35.002
-34.98
-34.971
-34.972
-34.98
-34.992
-35.006
-35.019
-35.029
-35.035
-35.035
-35.028
-35.012
-34.989
-34.957
-34.916
-34.869
-34.815
-34.755
-34.691
-34.624
-34.556
-34.489
-34.424
-34.364
-34.311
-34.268
-34.237
-34.22
-34.221
-34.24
-34.279
-34.341
-34.425
-34.534
-34.667
-34.826
-35.011
-35.221
-35.458
-35.72
-36.006
-36.316
-36.647
-36.998
-37.364
-37.744
-38.133
-38.527
-38.922
-39.313
-39.696
-40.068
-40.423
-40.756
-41.063
-41.338
-41.575
-41.769
-41.915
-42.005
-42.035
-42
-41.898
-41.724
-41.478
-41.155
-40.755
-40.276
-39.719
-39.082
-38.365
-37.568
-36.693
-35.742
-34.721
-33.633
-32.485
-31.284
-30.036
-28.754
-27.447
-26.121
-24.787
-23.451
-22.123
-20.809
-19.518
-18.255
-17.027
-15.846
-14.72
-13.662
-12.682
-11.789
-10.99
-10.294
-9.704
-9.227
-8.862
-8.605
-8.456
-8.42
-8.502
-8.718
-9.074
-9.564
-10.187
-10.933
-11.779
-12.7
-13.648
-14.563
-15.409
-16.162
-16.804
-17.341
-17.764
-18.059
-18.227
-18.255
-18.134
-17.862
-17.43
-16.837
-16.131
-15.405
-14.787
-14.445
-14.497
-15.024
-16.097
-17.747
-20.002
-22.86
-26.244
-30.075
-34.294
-38.867
-43.802
-49.058
-54.458
-59.735
-64.546
-68.499
-71.293
-72.576
-71.89
-69.02
-63.976
-57.04
-48.906
-40.204
-31.225
-22.396
-14.267
-6.807
0.388
8.303
18.751
32.986
51.378
74.384
102.332
134.258
168.158
200.566
226.498
241.926
243.993
229.642
196.069
142.208
69.001
-19.905
-118.51
-221.319
-323.28
-418.54
-500.775
-564.528
-606.521
-626.432
-626.288
-608.41
-575.477
-531.211
-480.539
-428.841
-380.023
-336.025
-297.402
-264.13
-235.958
-212.278
-191.582
-171.744
-151.49
-130.461
-108.907
-87.581
-67.123
-47.995
-30.934
-16.758
-5.859
1.697
6.159
8.083
7.95
6.201
3.349
-0.17
-3.976
-7.705
-11.103
-13.952
-16.048
-17.281
-17.577
-16.88
-15.193
-12.546
-8.999
-4.692
0.228
5.618
11.315
17.189
23.099
28.87
34.368
39.481
44.123
48.264
51.893
54.99
57.572
59.674
61.344
62.659
63.69
64.493
65.137
65.691
66.23
66.844
67.603
68.554
69.739
71.183
72.906
74.927
77.253
79.875
82.788
85.981
89.447
93.184
97.183
101.428
105.899
110.575
115.435
120.461
125.633
130.928
136.325
141.799
147.329
152.893
158.468
164.025
169.533
174.963
180.281
185.459
190.463
195.263
199.827
204.126
208.133
211.823
215.17
218.151
220.745
222.932
224.696
226.02
226.893
227.303
227.243
226.706
225.691
224.197
222.227
219.785
216.877
213.514
209.708
205.472
200.823
195.779
190.361
184.591
178.494
172.095
165.421
158.5
151.363
144.038
136.557
128.95
121.247
113.48
105.679
97.872
90.09
82.361
74.712
67.168
59.756
52.499
45.42
38.539
31.875
25.446
19.267
13.352
7.714
2.362
-2.695
-7.45
-11.899
-16.039
-19.87
-23.39
-26.604
-29.515
-32.128
-34.451
-36.491
-38.258
-39.763
-41.017
-42.031
-42.82
-43.396
-43.773
-43.967
-43.99
-43.859
-43.586
-43.188
-42.677
-42.069
-41.376
-40.612
-39.789
-38.919
-38.013
-37.083
-36.138
-35.188
-34.24
-33.302
-32.382
-31.485
-30.616
-29.78
-28.981
-28.221
-27.504
-26.83
-26.2
-25.616
-25.076
-24.581
-24.128
-23.717
-23.346
-23.013
-22.715
-22.451
-22.217
-22.01
-21.829
-21.67
-21.531
-21.409
-21.301
-21.206
-21.12
-21.042
-20.97
-20.903
-20.838
-20.776
-20.714
-20.653
-20.591
-20.528
-20.465
-20.4
-20.335
-20.27
-20.205
-20.141
-20.08
-20.022
-19.97
-19.924
-19.886
-19.857
-19.84
-19.835
-19.844
-19.87
-19.912
-19.974
-20.056
-20.161
-20.289
-20.442
-20.622
-20.828
-21.061
-21.322
-21.609
-21.923
-22.264
-22.631
-23.022
-23.437
-23.876
-24.337
-24.818
-25.318
-25.833
-26.36
-26.898
-27.442
-27.987
-28.531
-29.068
-29.596
-30.11
-30.606
-31.08
-31.527
-31.943
-32.322
-32.66
-32.951
-33.189
-33.37
-33.488
-33.541
-33.527
-33.442
-33.285
-33.052
-32.744
-32.36
-31.899
-31.361
-30.745
-30.05
-29.28
-28.438
-27.526
-26.551
-25.517
-24.431
-23.302
-22.14
-20.95
-19.741
-18.52
-17.292
-16.065
-14.847
-13.64
-12.452
-11.291
-10.167
-9.091
-8.075
-7.124
-6.248
-5.452
-4.745
-4.131
-3.612
-3.182
-2.841
-2.592
-2.444
-2.414
-2.508
-2.72
-3.044
-3.475
-4
-4.597
-5.225
-5.822
-6.335
-6.738
-7.019
-7.178
-7.213
-7.105
-6.832
-6.394
-5.797
-5.055
-4.172
-3.136
-1.971
-0.75
0.393
1.27
1.725
1.664
1.024
-0.248
-2.186
-4.828
-8.165
-12.086
-16.481
-21.267
-26.402
-31.9
-37.667
-43.47
-48.955
-53.671
-57.21
-59.271
-59.492
-57.445
-52.981
-46.188
-37.478
-27.722
-17.588
-7.439
2.221
11.02
19.153
27.255
36.611
48.954
65.304
86.038
111.551
141.616
174.725
207.963
236.96
257.131
264.86
257.242
231.439
185.229
118.554
34.245
-62.482
-165.89
-270.42
-370.617
-460.425
-533.174
-584.418
-613.015
-620.084
-607.827
-579.086
-537.002
-486.047
-432.413
-380.776
-333.573
-292.028
-256.218
-225.811
-200.583
-179.279
-159.392
-139.352
-118.608
-97.121
-75.705
-55.104
-35.703
-18.249
-3.705
7.462
15.113
19.424
21.014
20.416
18.082
14.583
10.384
5.887
1.487
-2.554
-6.017
-8.69
-10.454
-11.227
-10.941
-9.595
-7.217
-3.866
0.317
5.177
10.561
16.287
22.216
28.2
34.055
39.641
44.842
49.564
53.774
57.457
60.588
63.178
65.262
66.882
68.112
69.023
69.673
70.131
70.469
70.763
71.105
71.567
72.196
73.035
74.107
75.433
77.031
78.909
81.059
83.473
86.146
89.069
92.242
95.657
99.299
103.151
107.192
111.403
115.767
120.269
124.887
129.602
134.394
139.244
144.134
149.045
153.949
158.822
163.634
168.357
172.965
177.428
181.718
185.805
189.665
193.271
196.602
199.636
202.349
204.724
206.743
208.389
209.649
210.511
210.965
211.003
210.621
209.814
208.584
206.932
204.86
202.376
199.486
196.202
192.536
188.502
184.115
179.394
174.359
169.031
163.432
157.587
151.521
145.26
138.831
132.26
125.576
118.805
111.974
105.11
98.24
91.389
84.582
77.843
71.196
64.663
58.265
52.02
45.949
40.067
34.39
28.93
23.701
18.713
13.975
9.494
5.275
1.322
-2.363
-5.778
-8.925
-11.807
-14.427
-16.79
-18.904
-20.776
-22.415
-23.83
-25.032
-26.033
-26.845
-27.479
-27.949
-28.268
-28.448
-28.503
-28.447
-28.292
-28.05
-27.736
-27.36
-26.934
-26.47
-25.977
-25.466
-24.947
-24.427
-23.914
-23.416
-22.939
-22.489
-22.07
-21.687
-21.343
-21.041
-20.782
-20.568
-20.399
-20.276
-20.198
-20.165
-20.173
-20.222
-20.31
-20.433
-20.59
-20.776
-20.989
-21.225
-21.48
-21.753
-22.038
-22.332
-22.633
-22.937
-23.24
-23.54
-23.835
-24.121
-24.396
-24.658
-24.905
-25.135
-25.347
-25.54
-25.712
-25.862
-25.992
-26.099
-26.185
-26.248
-26.291
-26.312
-26.313
-26.294
-26.258
-26.203
-26.134
-26.05
-25.953
-25.847
-25.732
-25.611
-25.486
-25.358
-25.23
-25.104
-24.982
-24.867
-24.759
-24.662
-24.578
-24.508
-24.455
-24.42
-24.405
-24.411
-24.438
-24.487
-24.56
-24.657
-24.777
-24.921
-25.089
-25.281
-25.497
-25.736
-25.997
-26.278
-26.577
-26.891
-27.219
-27.556
-27.899
-28.243
-28.587
-28.927
-29.258
-29.577
-29.879
-30.16
-30.415
-30.639
-30.828
-30.975
-31.076
-31.127
-31.125
-31.067
-30.951
-30.774
-30.533
-30.228
-29.858
-29.422
-28.919
-28.349
-27.71
-27.006
-26.24
-25.415
-24.536
-23.608
-22.637
-21.634
-20.608
-19.564
-18.511
-17.455
-16.404
-15.367
-14.348
-13.353
-12.387
-11.458
-10.576
-9.752
-8.994
-8.309
-7.703
-7.185
-6.76
-6.434
-6.21
-6.08
-6.044
-6.108
-6.279
-6.572
-6.994
-7.538
-8.198
-8.969
-9.835
-10.773
-11.743
-12.674
-13.519
-14.253
-14.856
-15.327
-15.658
-15.819
-15.801
-15.604
-15.227
-14.682
-13.975
-13.092
-12.078
-11.024
-10.058
-9.369
-9.105
-9.347
-10.174
-11.646
-13.808
-16.695
-20.267
-24.412
-29.044
-34.114
-39.601
-45.477
-51.571
-57.59
-63.175
-67.897
-71.414
-73.365
-73.264
-70.827
-66.026
-59.086
-50.672
-41.482
-31.851
-22.244
-13.288
-4.943
3.217
12.21
23.962
39.803
60.13
85.497
116.303
151.518
188.987
224.878
253.745
271.337
274.638
260.422
225.68
169.032
91.322
-3.488
-109.06
-219.702
-330.388
-435.58
-528.739
-603.503
-655.76
-684.497
-691.087
-677.448
-645.305
-596.748
-536.317
-470.241
-403.778
-340.871
-283.745
-233.386
-191.32
-159.455
-137.381
-122.806
-113.241
-105.844
-99.052
-92.674
-85.835
-77.108
-66.201
-53.643
-40.553
-28.885
-19.622
-12.678
-8.193
-6.316
-6.914
-9.806
-14.326
-19.233
-23.737
-27.481
-30.197
-31.87
-32.463
-31.831
-30.017
-27.219
-23.6
-19.338
-14.562
-9.315
-3.703
2.127
8.017
13.752
19.168
24.167
28.68
32.681
36.162
39.103
41.516
43.449
44.957
46.112
46.976
47.589
48.008
48.305
48.563
48.88
49.335
49.974
50.834
51.941
53.314
54.972
56.922
59.151
61.65
64.414
67.438
70.722
74.262
78.042
82.045
86.25
90.638
95.193
99.898
104.733
109.675
114.706
119.805
124.955
130.133
135.313
140.468
145.569
150.587
155.492
160.257
164.85
169.242
173.406
177.316
180.948
184.278
187.282
189.942
192.236
194.15
195.667
196.774
197.461
197.718
197.54
196.923
195.866
194.369
192.435
190.07
187.281
184.079
180.476
176.486
172.124
167.408
162.36
156.999
151.35
145.437
139.284
132.92
126.371
119.665
112.83
105.895
98.888
91.836
84.767
77.709
70.687
63.728
56.855
50.093
43.464
36.988
30.687
24.577
18.675
12.998
7.557
2.365
-2.569
-7.235
-11.628
-15.742
-19.574
-23.123
-26.389
-29.374
-32.08
-34.513
-36.679
-38.585
-40.24
-41.653
-42.835
-43.798
-44.554
-45.115
-45.494
-45.706
-45.764
-45.682
-45.474
-45.154
-44.736
-44.233
-43.659
-43.026
-42.346
-41.632
-40.893
-40.141
-39.386
-38.636
-37.899
-37.185
-36.498
-35.845
-35.231
-34.662
-34.139
-33.667
-33.247
-32.882
-32.571
-32.315
-32.113
-31.965
-31.869
-31.823
-31.825
-31.873
-31.962
-32.092
-32.257
-32.454
-32.681
-32.932
-33.206
-33.497
-33.803
-34.119
-34.443
-34.772
-35.101
-35.429
-35.752
-36.069
-36.375
-36.671
-36.953
-37.219
-37.469
-37.701
-37.914
-38.107
-38.28
-38.432
-38.564
-38.675
-38.767
-38.838
-38.891
-38.924
-38.941
-38.94
-38.924
-38.894
-38.852
-38.797
-38.734
-38.662
-38.585
-38.504
-38.421
-38.336
-38.253
-38.174
-38.099
-38.031
-37.971
-37.923
-37.887
-37.865
-37.86
-37.873
-37.904
-37.955
-38.027
-38.12
-38.236
-38.373
-38.532
-38.714
-38.918
-39.144
-39.393
-39.662
-39.952
-40.259
-40.582
-40.919
-41.267
-41.622
-41.981
-42.341
-42.699
-43.05
-43.393
-43.722
-44.032
-44.321
-44.583
-44.814
-45.009
-45.161
-45.266
-45.321
-45.322
-45.265
-45.149
-44.971
-44.728
-44.419
-44.043
-43.6
-43.088
-42.506
-41.853
-41.132
-40.346
-39.498
-38.591
-37.631
-36.624
-35.58
-34.507
-33.41
-32.298
-31.176
-30.052
-28.934
-27.827
-26.734
-25.661
-24.616
-23.608
-22.647
-21.743
-20.902
-20.129
-19.434
-18.822
-18.298
-17.865
-17.516
-17.251
-17.072
-16.989
-17.015
-17.159
-17.412
-17.769
-18.227
-18.768
-19.371
-19.998
-20.578
-21.062
-21.426
-21.648
-21.73
-21.665
-21.427
-21.006
-20.403
-19.618
-18.667
-17.556
-16.274
-14.86
-13.403
-12.026
-10.92
-10.234
-10.054
-10.463
-11.515
-13.25
-15.706
-18.846
-22.556
-26.749
-31.369
-36.386
-41.777
-47.377
-52.906
-58.017
-62.281
-65.355
-66.87
-66.332
-63.473
-58.267
-50.941
-42.161
-32.585
-22.528
-12.474
-3.05
5.743
14.241
23.505
35.519
51.422
71.52
96.264
125.879
159.662
195.905
230.758
258.782
276.157
280.059
267.711
236.671
184.809
112.065
22.242
-78.615
-185.395
-293.327
-397.705
-492.919
-571.701
-628.909
-663.209
-675.409
-666.99
-639.533
-594.264
-534.847
-468.168
-400.176
-335.14
-275.849
-223.366
-179.137
-145.539
-122.564
-107.623
-97.963
-90.5
-83.316
-76.316
-68.762
-59.142
-47.159
-33.395
-19
-6.048
4.36
12.329
17.727
20.413
20.558
18.303
14.289
9.752
5.455
1.791
-0.925
-2.671
-3.381
-2.897
-1.259
1.36
4.823
8.949
13.607
18.749
24.251
29.982
35.797
41.488
46.906
51.94
56.501
60.561
64.106
67.109
69.58
71.554
73.073
74.213
75.041
75.599
75.951
76.166
76.322
76.523
76.847
77.344
78.055
79.006
80.216
81.707
83.488
85.548
87.882
90.482
93.342
96.464
99.842
103.461
107.303
111.348
115.574
119.968
124.512
129.185
133.968
138.84
143.782
148.777
153.803
158.836
163.846
168.807
173.688
178.461
183.098
187.567
191.84
195.889
199.689
203.214
206.442
209.349
211.915
214.121
215.948
217.382
218.41
219.02
219.203
218.952
218.263
217.136
215.569
213.567
211.133
208.274
205.001
201.325
197.259
192.819
188.022
182.888
177.439
171.696
165.685
159.431
152.96
146.299
139.477
132.521
125.46
118.321
111.133
103.924
96.722
89.551
82.44
75.412
68.491
61.702
55.064
48.599
42.325
36.258
30.416
24.811
19.456
14.362
9.536
4.987
0.719
-3.263
-6.959
-10.368
-13.491
-16.332
-18.895
-21.186
-23.212
-24.982
-26.506
-27.793
-28.855
-29.704
-30.353
-30.815
-31.103
-31.232
-31.214
-31.065
-30.798
-30.427
-29.966
-29.427
-28.823
-28.166
-27.468
-26.741
-25.994
-25.236
-24.478
-23.726
-22.988
-22.271
-21.581
-20.921
-20.297
-19.711
-19.167
-18.665
-18.207
-17.795
-17.427
-17.103
-16.822
-16.582
-16.382
-16.22
-16.092
-15.997
-15.931
-15.89
-15.873
-15.875
-15.893
-15.925
-15.967
-16.015
-16.068
-16.123
-16.176
-16.226
-16.269
-16.305
-16.331
-16.347
-16.35
-16.339
-16.314
-16.274
-16.219
-16.149
-16.063
-15.961
-15.844
-15.712
-15.567
-15.407
-15.235
-15.05
-14.855
-14.65
-14.436
-14.214
-13.985
-13.75
-13.511
-13.267
-13.021
-12.774
-12.526
-12.279
-12.034
-11.793
-11.556
-11.326
-11.103
-10.888
-10.682
-10.487
-10.304
-10.133
-9.977
-9.835
-9.71
-9.601
-9.512
-9.441
-9.39
-9.359
-9.348
-9.357
-9.387
-9.437
-9.507
-9.597
-9.706
-9.833
-9.98
-10.144
-10.323
-10.517
-10.722
-10.937
-11.159
-11.384
-11.609
-11.83
-12.043
-12.245
-12.432
-12.6
-12.745
-12.861
-12.944
-12.988
-12.99
-12.943
-12.842
-12.682
-12.459
-12.17
-11.812
-11.382
-10.877
-10.295
-9.636
-8.897
-8.077
-7.175
-6.191
-5.125
-3.98
-2.759
-1.466
-0.105
1.318
2.793
4.313
5.87
7.456
9.065
10.69
12.322
13.954
15.58
17.195
18.791
20.357
21.882
23.356
24.768
26.113
27.383
28.569
29.663
30.662
31.569
32.383
33.102
33.713
34.202
34.56
34.791
34.903
34.903
34.801
34.614
34.378
34.146
33.972
33.894
33.924
34.064
34.322
34.716
35.275
36.02
36.933
37.996
39.197
40.529
41.978
43.486
44.927
46.133
46.945
47.249
46.983
46.104
44.55
42.276
39.259
35.549
31.271
26.531
21.381
15.847
10.003
4.056
-1.644
-6.679
-10.648
-13.242
-14.132
-12.879
-9.224
-3.168
5.015
14.62
24.936
35.628
46.23
56.12
65.31
74.213
83.798
95.936
111.942
132.18
157.191
187.377
221.671
257.884
292.236
319.379
335.139
336.598
320.589
284.17
226.15
147.568
52.525
-52.543
-161.971
-270.791
-373.304
-462.905
-533.313
-580.505
-603.924
-605.448
-587.046
-550.506
-498.475
-435.818
-369.15
-304.176
-244.049
-190.109
-143.247
-104.753
-75.918
-56.039
-42.05
-30.598
-19.777
-8.986
1.781
12.953
25.662
40.181
55.249
68.996
80.155
88.37
93.954
97.225
98.011
96.292
92.634
88.04
83.481
79.554
76.473
74.26
73.03
72.94
74.047
76.269
79.436
83.383
87.978
93.149
98.817
104.852
111.102
117.387
123.505
129.304
134.687
139.587
143.977
147.843
151.166
153.961
156.277
158.177
159.731
160.999
162.025
162.865
163.596
164.307
165.092
166.025
167.152
168.509
170.121
172.01
174.193
176.674
179.441
182.483
185.792
189.364
193.199
197.289
201.617
206.164
210.91
215.835
220.922
226.153
231.506
236.959
242.491
248.081
253.71
259.356
264.99
270.585
276.111
281.537
286.834
291.972
296.918
301.643
306.119
310.318
314.215
317.786
321.007
323.856
326.314
328.364
329.989
331.177
331.914
332.192
332.005
331.347
330.219
328.619
326.551
324.02
321.034
317.602
313.738
309.455
304.769
299.699
294.267
288.493
282.402
276.019
269.372
262.487
255.393
248.12
240.698
233.156
225.524
217.831
210.108
202.383
194.684
187.039
179.474
172.015
164.687
157.512
150.513
143.709
137.119
130.759
124.646
118.791
113.208
107.906
102.892
98.172
93.752
89.634
85.817
82.302
79.084
76.161
73.525
71.169
69.085
67.262
65.69
64.356
63.248
62.352
61.654
61.139
60.792
60.598
60.541
60.607
60.779
61.044
61.386
61.791
62.245
62.735
63.25
63.776
64.302
64.819
65.317
65.787
66.222
66.614
66.957
67.247
67.48
67.651
67.758
67.801
67.777
67.687
67.532
67.311
67.029
66.685
66.285
65.829
65.324
64.771
64.175
63.542
62.874
62.176
61.454
60.71
59.95
59.178
58.397
57.612
56.826
56.043
55.265
54.496
53.737
52.991
52.259
51.543
50.844
50.163
49.499
48.853
48.225
47.614
47.019
46.44
45.873
45.318
44.774
44.236
43.703
43.173
42.642
42.107
41.566
41.016
40.454
39.878
39.283
38.669
38.031
37.367
36.676
35.953
35.197
34.407
33.58
32.716
31.814
30.874
29.895
28.876
27.819
26.725
25.592
24.423
23.219
21.98
20.71
19.412
18.088
16.741
15.376
13.997
12.609
11.216
9.821
8.43
7.047
5.675
4.322
2.99
1.686
0.413
-0.822
-2.013
-3.157
-4.249
-5.286
-6.265
-7.186
-8.045
-8.842
-9.575
-10.245
-10.852
-11.396
-11.876
-12.293
-12.651
-12.954
-13.205
-13.411
-13.577
-13.712
-13.824
-13.923
-14.018
-14.115
-14.223
-14.348
-14.499
-14.682
-14.903
-15.167
-15.484
-15.863
-16.315
-16.851
-17.477
-18.2
-19.027
-19.963
-21.013
-22.178
-23.451
-24.832
-26.324
-27.934
-29.677
-31.558
-33.572
-35.711
-37.969
-40.33
-42.774
-45.26
-47.725
-50.12
-52.418
-54.606
-56.684
-58.649
-60.482
-62.159
-63.677
-65.041
-66.264
-67.349
-68.286
-69.098
-69.854
-70.685
-71.773
-73.266
-75.255
-77.797
-80.942
-84.721
-89.17
-94.282
-99.949
-106.067
-112.554
-119.367
-126.517
-133.912
-141.326
-148.419
-154.755
-159.944
-163.695
-165.663
-165.445
-162.9
-158.108
-151.465
-143.805
-135.778
-127.751
-120.23
-113.583
-107.635
-101.785
-94.804
-85.036
-71.488
-53.759
-31.427
-4.686
25.023
54.884
80.671
97.96
103.233
93.63
66.367
19.266
-47.745
-131.912
-228.187
-331.037
-435.075
-535.001
-624.944
-698.442
-751.198
-782.129
-792.314
-783.859
-759.498
-722.242
-676.406
-627.974
-581.447
-539.165
-502.274
-470.809
-444.443
-422.959
-405.131
-388.535
-371.637
-353.888
-335.301
-316.711
-298.873
-282.188
-267.366
-255.317
-246.491
-241.013
-238.708
-238.979
-241.278
-245.134
-250.002
-255.423
-261.011
-266.392
-271.228
-275.229
-278.142
-279.793
-280.086
-278.95
-276.355
-272.309
-266.872
-260.183
-252.415
-243.746
-234.347
-224.357
-213.927
-203.237
-192.492
-181.88
-171.539
-161.557
-151.991
-142.895
