6.726
5.809
5.088
4.611
4.436
4.634
5.257
6.339
7.887
9.878
12.27
14.999
18.01
21.26
24.71
28.331
32.093
35.968
39.924
43.924
47.919
51.844
55.643
59.272
62.705
65.939
68.987
71.876
74.63
77.266
79.792
82.207
84.507
86.682
88.721
90.609
92.343
93.929
95.371
96.672
97.825
98.818
99.629
100.23
100.597
100.706
100.542
100.092
99.35
98.317
96.993
95.389
93.508
91.356
88.935
86.25
83.307
80.118
76.693
73.049
69.201
65.168
60.966
56.614
52.13
47.53
42.829
38.043
33.187
28.278
23.332
18.368
13.402
8.452
3.537
-1.328
-6.125
-10.84
-15.456
-19.961
-24.342
-28.586
-32.683
-36.622
-40.394
-43.991
-47.405
-50.63
-53.661
-56.494
-59.126
-61.555
-63.782
-65.805
-67.628
-69.252
-70.68
-71.916
-72.966
-73.834
-74.527
-75.051
-75.412
-75.619
-75.68
-75.603
-75.398
-75.072
-74.636
-74.099
-73.469
-72.756
-71.969
-71.117
-70.208
-69.251
-68.254
-67.225
-66.172
-65.101
-64.021
-62.936
-61.853
-60.777
-59.713
-58.665
-57.637
-56.632
-55.654
-54.705
-53.787
-52.902
-52.052
-51.237
-50.459
-49.717
-49.013
-48.346
-47.715
-47.122
-46.564
-46.041
-45.552
-45.097
-44.673
-44.28
-43.915
-43.577
-43.265
-42.976
-42.708
-42.461
-42.231
-42.017
-41.818
-41.631
-41.454
-41.287
-41.128
-40.974
-40.825
-40.68
-40.537
-40.395
-40.253
-40.111
-39.967
-39.82
-39.669
-39.513
-39.352
-39.183
-39.006
-38.821
-38.627
-38.423
-38.21
-37.987
-37.755
-37.513
-37.263
-37.004
-36.738
-36.463
-36.183
-35.896
-35.605
-35.311
-35.014
-34.715
-34.415
-34.116
-33.816
-33.517
-33.217
-32.917
-32.616
-32.313
-32.007
-31.696
-31.382
-31.063
-30.741
-30.414
-30.082
-29.744
-29.401
-29.05
-28.69
-28.317
-27.925
-27.513
-27.077
-26.615
-26.124
-25.6
-25.04
-24.443
-23.809
-23.136
-22.421
-21.656
-20.833
-19.951
-19.015
-18.036
-17.021
-15.977
-14.912
-13.836
-12.767
-11.714
-10.678
-9.649
-8.614
-7.568
-6.518
-5.478
-4.463
-3.478
-2.515
-1.566
-0.628
0.299
1.221
2.159
3.146
4.193
5.285
6.379
7.431
8.415
9.322
10.155
10.908
11.573
12.131
12.58
12.936
13.208
13.39
13.452
13.345
13.053
12.603
12.046
11.44
10.818
10.193
9.578
8.995
8.459
7.968
7.488
6.936
6.252
5.4
4.369
3.182
1.827
0.233
-1.674
-3.973
-6.736
-9.986
-13.798
-18.308
-23.509
-29.264
-35.305
-41.162
-46.452
-50.97
-54.393
-56.322
-56.691
-55.676
-53.827
-52.136
-51.29
-51.546
-53.336
-57.201
-63.117
-70.573
-78.329
-84.354
-87.076
-85.515
-78.374
-64.08
-41.684
-10.957
27.187
70.497
116.754
163.81
208.519
246.791
274.446
287.562
283.204
259.812
216.281
152.295
69.317
-29.399
-139.148
-254.3
-369.237
-478.57
-576.818
-659.127
-721.947
-763.272
-783.052
-782.537
-763.458
-728.39
-680.793
-624.453
-563.306
-500.906
-439.605
-381.358
-328.221
-281.624
-242.4
-210.634
-185.458
-165.804
-151.032
-140.228
-132.027
-125.064
-117.897
-109.734
-100.668
-90.925
-80.673
-70.257
-60.159
-51.047
-43.82
-38.89
-36.126
-35.273
-35.908
-37.602
-40.007
-42.626
-44.857
-46.313
-46.795
-46.233
-44.722
-42.337
-39.124
-35.188
-30.662
-25.668
-20.337
-14.768
-9.041
-3.252
2.505
8.129
13.518
18.59
23.274
27.528
31.351
34.753
37.761
40.413
42.75
44.822
46.693
48.418
50.049
51.638
53.224
54.854
56.578
58.438
60.474
62.713
65.167
67.843
70.742
73.86
77.19
80.719
84.429
88.304
92.328
96.489
100.772
105.161
109.635
114.174
118.757
123.362
127.97
132.558
137.104
141.587
145.983
150.271
154.431
158.441
162.276
165.916
169.337
172.518
175.438
178.079
180.422
182.449
184.147
185.502
186.504
187.143
187.41
187.301
186.812
185.94
184.685
183.049
181.035
178.648
175.895
172.785
169.329
165.538
161.427
157.012
152.308
147.335
142.111
136.659
130.999
125.153
119.146
112.999
106.738
100.387
93.969
87.508
81.03
74.556
68.11
61.714
55.39
49.158
43.038
37.048
31.206
25.528
20.029
14.724
9.624
4.742
0.086
-4.333
-8.51
-12.439
-16.114
-19.534
-22.697
-25.603
-28.252
-30.649
-32.796
-34.698
-36.362
-37.793
-39
-39.991
-40.776
-41.364
-41.766
-41.993
-42.057
-41.967
-41.738
-41.379
-40.903
-40.321
-39.645
-38.885
-38.053
-37.158
-36.211
-35.22
-34.196
-33.146
-32.078
-30.999
-29.915
-28.832
-27.756
-26.691
-25.641
-24.608
-23.596
-22.608
-21.644
-20.707
-19.796
-18.912
-18.056
-17.226
-16.422
-15.643
-14.887
-14.153
-13.439
-12.743
-12.063
-11.398
-10.745
-10.103
-9.47
-8.845
-8.226
-7.612
-7.002
-6.395
-5.792
-5.192
-4.595
-4.003
-3.415
-2.834
-2.259
-1.692
-1.136
-0.59
-0.058
0.46
0.961
1.444
1.907
2.347
2.764
3.154
3.516
3.849
4.15
4.418
4.652
4.85
5.011
5.134
5.219
5.264
5.271
5.239
5.169
5.062
4.919
4.743
4.537
4.302
4.042
3.76
3.46
3.144
2.818
2.485
2.149
1.814
1.485
1.166
0.862
0.576
0.313
0.076
-0.13
-0.302
-0.437
-0.532
-0.583
-0.589
-0.546
-0.454
-0.31
-0.114
0.134
0.435
0.787
1.188
1.636
2.125
2.652
3.211
3.797
4.403
5.023
5.652
6.282
6.911
7.532
8.139
8.725
9.285
9.812
10.299
10.742
11.135
11.475
11.759
11.99
12.169
12.297
12.375
12.397
12.358
12.258
12.096
11.874
11.598
11.278
10.931
10.581
10.251
9.965
9.739
9.581
9.504
9.52
9.644
9.901
10.309
10.881
11.627
12.554
13.645
14.868
16.169
17.465
18.687
19.777
20.672
21.307
21.61
21.501
20.908
19.771
18.007
15.498
12.194
8.148
3.551
-1.252
-5.903
-10.108
-13.544
-15.787
-16.558
-15.895
-14.162
-12.126
-10.568
-9.906
-10.49
-12.863
-17.287
-23.439
-30.413
-36.48
-39.67
-38.668
-32.248
-18.742
3.127
33.952
73.53
120.135
171.184
224.404
276.961
324.831
363.866
389.835
398.853
388.757
358.357
306.69
234.245
143.365
37.568
-78.051
-197.626
-315.944
-427.575
-526.909
-609.426
-671.707
-711.699
-729.404
-725.885
-702.667
-662.597
-609.394
-547.036
-479.961
-412.117
-346.391
-285.526
-231.823
-186.604
-150.58
-123.489
-103.994
-90.66
-82.174
-76.799
-72.909
-69.057
-63.811
-56.619
-47.707
-37.429
-26.305
-15.063
-4.318
5.222
12.728
17.938
20.985
22.119
21.815
20.554
18.713
16.758
15.181
14.25
14.105
14.803
16.243
18.322
20.935
23.92
27.135
30.479
33.864
37.222
40.5
43.634
46.586
49.352
51.918
54.273
56.395
58.259
59.892
61.366
62.784
64.248
65.83
67.582
69.555
71.802
74.36
77.243
80.429
83.861
87.503
91.339
95.365
99.579
103.954
108.432
112.945
117.439
121.874
126.22
130.448
134.519
138.415
142.136
145.712
149.185
152.582
155.907
159.155
162.317
165.391
168.383
171.298
174.123
176.847
179.456
181.938
184.288
186.49
188.516
190.329
191.888
193.16
194.126
194.769
195.077
195.037
194.64
193.884
192.773
191.312
189.506
187.357
184.869
182.051
178.914
175.476
171.751
167.758
163.513
159.032
154.334
149.438
144.361
139.12
133.732
128.214
122.586
116.868
111.079
105.241
99.373
93.495
87.628
81.791
76.002
70.279
64.637
59.094
53.664
48.359
43.194
38.18
33.326
28.644
24.141
19.826
15.704
11.78
8.06
4.547
1.242
-1.853
-4.737
-7.411
-9.876
-12.133
-14.186
-16.036
-17.69
-19.15
-20.423
-21.515
-22.431
-23.18
-23.769
-24.206
-24.498
-24.655
-24.685
-24.596
-24.396
-24.094
-23.699
-23.219
-22.662
-22.037
-21.352
-20.614
-19.832
-19.012
-18.162
-17.289
-16.399
-15.498
-14.592
-13.686
-12.787
-11.898
-11.026
-10.173
-9.345
-8.544
-7.775
-7.04
-6.342
-5.684
-5.066
-4.491
-3.961
-3.475
-3.036
-2.644
-2.299
-2.001
-1.751
-1.548
-1.392
-1.282
-1.217
-1.196
-1.218
-1.282
-1.386
-1.528
-1.708
-1.924
-2.174
-2.456
-2.768
-3.109
-3.475
-3.865
-4.277
-4.709
-5.159
-5.624
-6.103
-6.596
-7.099
-7.612
-8.133
-8.661
-9.195
-9.734
-10.275
-10.818
-11.362
-11.905
-12.448
-12.989
-13.529
-14.067
-14.602
-15.135
-15.667
-16.197
-16.725
-17.252
-17.779
-18.306
-18.834
-19.364
-19.898
-20.436
-20.98
-21.53
-22.087
-22.652
-23.223
-23.8
-24.383
-24.97
-25.56
-26.151
-26.741
-27.329
-27.915
-28.498
-29.074
-29.644
-30.204
-30.753
-31.289
-31.809
-32.306
-32.777
-33.215
-33.617
-33.979
-34.298
-34.568
-34.784
-34.943
-35.044
-35.083
-35.056
-34.952
-34.763
-34.485
-34.123
-33.685
-33.179
-32.61
-31.983
-31.309
-30.603
-29.874
-29.122
-28.335
-27.5
-26.613
-25.681
-24.72
-23.747
-22.766
-21.77
-20.75
-19.705
-18.635
-17.536
-16.386
-15.158
-13.844
-12.466
-11.074
-9.714
-8.411
-7.171
-5.992
-4.873
-3.822
-2.851
-1.957
-1.13
-0.363
0.34
0.946
1.417
1.747
1.969
2.154
2.357
2.607
2.909
3.263
3.671
4.131
4.619
5.074
5.43
5.623
5.601
5.344
4.825
3.999
2.806
1.156
-1.032
-3.808
-7.209
-11.265
-15.967
-21.314
-27.303
-33.78
-40.507
-47.179
-53.338
-58.592
-62.662
-65.153
-65.63
-63.999
-60.353
-55.062
-49.036
-42.969
-37.306
-32.802
-30.061
-29.049
-29.475
-30.425
-30.049
-26.89
-19.634
-6.369
14.225
42.603
78.742
121.36
167.988
216.195
262.761
303.227
333.45
349.554
348.154
327.338
285.947
223.457
141.242
42.551
-68.306
-185.856
-304.531
-419.179
-524.005
-613.641
-684.198
-733.068
-759.566
-764.716
-749.809
-716.841
-669.364
-611.198
-546.333
-478.926
-411.747
-346.811
-286.583
-232.911
-186.782
-148.956
-119.101
-96.057
-79.263
-68.005
-60.805
-56.335
-53.135
-49.608
-45.17
-39.853
-33.529
-26.377
-18.906
-11.557
-5.099
-0.432
2.207
2.941
2.009
-0.126
-3.004
-6.237
-9.276
-11.536
-12.717
-12.703
-11.517
-9.32
-6.229
-2.334
2.224
7.283
12.697
18.335
24.091
29.888
35.625
41.192
46.479
51.381
55.836
59.821
63.339
66.416
69.081
71.373
73.341
75.042
76.534
77.872
79.102
80.268
81.416
82.595
83.853
85.239
86.786
88.508
90.415
92.507
94.778
97.223
99.828
102.574
105.444
108.425
111.502
114.665
117.899
121.186
124.508
127.845
131.18
134.494
137.77
140.99
144.137
147.193
150.143
152.971
155.66
158.195
160.556
162.727
164.692
166.435
167.942
169.199
170.194
170.917
171.36
171.515
171.378
170.943
170.208
169.172
167.836
166.201
164.27
162.048
159.541
156.757
153.704
150.393
146.836
143.045
139.034
134.819
130.415
125.839
121.108
116.242
111.257
106.174
101.012
95.79
90.527
85.243
79.957
74.687
69.452
64.269
59.155
54.126
49.196
44.379
39.69
35.141
30.743
26.507
22.442
18.557
14.859
11.355
8.049
4.946
2.049
-0.641
-3.124
-5.398
-7.467
-9.332
-10.998
-12.469
-13.749
-14.847
-15.767
-16.52
-17.112
-17.553
-17.851
-18.017
-18.059
-17.988
-17.814
-17.546
-17.194
-16.769
-16.279
-15.735
-15.145
-14.52
-13.867
-13.195
-12.513
-11.827
-11.146
-10.477
-9.826
-9.198
-8.601
-8.037
-7.513
-7.032
-6.597
-6.211
-5.876
-5.593
-5.364
-5.188
-5.067
-5
-4.986
-5.025
-5.114
-5.253
-5.44
-5.672
-5.948
-6.264
-6.619
-7.01
-7.434
-7.887
-8.368
-8.873
-9.398
-9.94
-10.495
-11.06
-11.631
-12.203
-12.773
-13.337
-13.891
-14.433
-14.957
-15.462
-15.943
-16.399
-16.825
-17.221
-17.582
-17.908
-18.197
-18.447
-18.657
-18.826
-18.955
-19.042
-19.088
-19.094
-19.058
-18.983
-18.869
-18.716
-18.526
-18.302
-18.046
-17.76
-17.448
-17.113
-16.76
-16.393
-16.017
-15.636
-15.255
-14.879
-14.512
-14.161
-13.83
-13.523
-13.246
-13.004
-12.799
-12.637
-12.52
-12.45
-12.43
-12.462
-12.545
-12.681
-12.869
-13.109
-13.399
-13.74
-14.131
-14.571
-15.058
-15.589
-16.162
-16.774
-17.419
-18.09
-18.779
-19.476
-20.174
-20.864
-21.539
-22.19
-22.808
-23.385
-23.918
-24.4
-24.822
-25.177
-25.449
-25.633
-25.726
-25.731
-25.656
-25.509
-25.292
-25.015
-24.693
-24.33
-23.933
-23.495
-22.997
-22.431
-21.797
-21.102
-20.365
-19.596
-18.789
-17.94
-17.039
-16.075
-15.045
-13.932
-12.708
-11.364
-9.902
-8.348
-6.758
-5.165
-3.585
-2.024
-0.465
1.095
2.641
4.169
5.664
7.112
8.504
9.808
10.974
11.979
12.818
13.51
14.116
14.663
15.155
15.582
15.901
16.079
16.092
15.889
15.429
14.678
13.609
12.233
10.571
8.6
6.293
3.595
0.429
-3.221
-7.384
-12.118
-17.354
-22.929
-28.575
-33.865
-38.421
-42.006
-44.327
-45.019
-43.919
-41.131
-37.092
-32.616
-28.432
-24.912
-22.423
-21.524
-22.477
-24.997
-28.216
-30.514
-30.149
-25.966
-16.805
-1.071
22.357
53.895
93.169
138.407
187.217
237.444
286.197
329.463
363.241
383.554
386.942
371.489
335.867
279.149
202.09
107.264
-1.454
-118.764
-239.02
-357.013
-466.904
-562.988
-640.787
-697.024
-730.4
-741.544
-731.595
-702.384
-657.316
-600.328
-535.716
-468.093
-400.704
-335.872
-276.261
-223.915
-179.924
-144.999
-118.607
-99.219
-85.916
-77.732
-72.965
-70.13
-67.689
-64.024
-58.654
-51.82
-43.579
-34.266
-24.529
-14.88
-6.151
0.703
5.421
8.101
8.938
8.378
6.84
4.662
2.363
0.493
-0.644
-0.873
-0.163
1.37
3.655
6.622
10.153
14.128
18.429
22.958
27.641
32.417
37.219
41.981
46.625
51.076
55.27
59.142
62.659
65.822
68.638
71.139
73.358
75.33
77.103
78.735
80.273
81.764
83.249
84.76
86.335
88.015
89.837
91.838
94.043
96.461
99.098
101.951
105.015
108.282
111.734
115.348
119.105
122.986
126.973
131.049
135.194
139.384
143.596
147.805
151.989
156.123
160.186
164.152
168
171.706
175.251
178.614
181.775
184.713
187.407
189.837
191.985
193.833
195.365
196.567
197.425
197.93
198.072
197.847
197.249
196.278
194.933
193.217
191.135
188.692
185.897
182.759
179.291
175.504
171.415
167.038
162.39
157.49
152.356
147.009
141.47
135.759
129.899
123.912
117.82
111.647
105.415
99.147
92.866
86.594
80.352
74.162
68.044
62.017
56.099
50.309
44.661
39.169
33.849
28.71
23.765
19.021
14.488
10.171
6.077
2.21
-1.428
-4.834
-8.008
-10.949
-13.659
-16.14
-18.395
-20.427
-22.242
-23.844
-25.242
-26.44
-27.448
-28.273
-28.925
-29.412
-29.745
-29.933
-29.985
-29.913
-29.727
-29.436
-29.05
-28.579
-28.033
-27.422
-26.753
-26.035
-25.278
-24.488
-23.674
-22.842
-22
-21.154
-20.31
-19.476
-18.656
-17.856
-17.081
-16.337
-15.626
-14.954
-14.324
-13.738
-13.2
-12.713
-12.277
-11.894
-11.567
-11.296
-11.081
-10.923
-10.821
-10.777
-10.789
-10.856
-10.979
-11.155
-11.384
-11.665
-11.996
-12.375
-12.801
-13.272
-13.785
-14.339
-14.93
-15.557
-16.215
-16.902
-17.615
-18.351
-19.106
-19.877
-20.662
-21.458
-22.261
-23.068
-23.878
-24.688
-25.496
-26.298
-27.094
-27.882
-28.659
-29.425
-30.178
-30.917
-31.642
-32.352
-33.045
-33.723
-34.384
-35.029
-35.658
-36.271
-36.87
-37.455
-38.028
-38.589
-39.141
-39.684
-40.22
-40.752
-41.279
-41.804
-42.327
-42.85
-43.372
-43.895
-44.418
-44.94
-45.461
-45.98
-46.496
-47.007
-47.511
-48.005
-48.488
-48.957
-49.408
-49.838
-50.244
-50.622
-50.967
-51.275
-51.542
-51.764
-51.934
-52.05
-52.105
-52.094
-52.014
-51.858
-51.622
-51.302
-50.893
-50.393
-49.798
-49.107
-48.319
-47.433
-46.45
-45.372
-44.202
-42.944
-41.603
-40.182
-38.687
-37.125
-35.504
-33.829
-32.11
-30.354
-28.571
-26.771
-24.967
-23.169
-21.389
-19.636
-17.923
-16.26
-14.66
-13.132
-11.687
-10.333
-9.08
-7.937
-6.916
-6.024
-5.264
-4.634
-4.13
-3.747
-3.478
-3.314
-3.236
-3.228
-3.273
-3.354
-3.464
-3.588
-3.712
-3.817
-3.881
-3.885
-3.827
-3.705
-3.521
-3.284
-3.002
-2.692
-2.4
-2.165
-2.031
-2.052
-2.257
-2.684
-3.374
-4.356
-5.671
-7.374
-9.494
-12.064
-15.118
-18.64
-22.658
-27.238
-32.282
-37.606
-42.939
-47.829
-51.909
-54.976
-56.668
-56.557
-54.587
-50.898
-45.982
-40.908
-36.433
-32.95
-31.127
-31.537
-34.116
-38.49
-43.51
-46.967
-47.167
-42.773
-31.904
-13.1
14.348
50.695
94.743
143.836
195.511
246.796
293.436
331.22
355.898
363.443
351.496
318.779
264.419
189.137
95.571
-12.367
-129.209
-248.97
-366.289
-475.44
-570.884
-648.305
-704.571
-738.516
-750.992
-743.451
-717.857
-677.499
-626.07
-567.533
-506.168
-444.919
-385.745
-330.844
-281.903
-239.866
-205.429
-178.198
-156.859
-140.638
-128.775
-119.876
-112.713
-105.949
-98.104
-88.702
-77.954
-65.937
-52.993
-39.757
-26.75
-14.77
-4.758
2.997
8.572
12.124
14.051
14.749
14.534
13.898
13.365
13.218
13.607
14.59
16.11
18.174
20.792
23.898
27.407
31.235
35.304
39.57
43.992
48.505
53.04
57.528
61.908
66.147
70.212
74.069
77.691
81.041
84.104
86.895
89.432
91.747
93.878
95.857
97.725
99.534
101.324
103.135
105
106.939
108.977
111.136
113.439
115.911
118.566
121.406
124.429
127.629
130.995
134.513
138.164
141.924
145.768
149.675
153.625
157.598
161.573
165.524
169.429
173.261
176.996
180.611
184.082
187.385
190.5
193.404
196.08
198.509
200.676
202.563
204.156
205.438
206.399
207.027
207.313
207.25
206.831
206.055
204.92
203.427
201.58
199.383
196.843
193.968
190.769
187.255
183.441
179.341
174.969
170.342
165.477
160.393
155.11
149.646
144.022
138.26
132.38
126.404
120.353
114.248
108.11
101.96
95.819
89.705
83.639
77.638
71.72
65.902
60.201
54.63
49.203
43.933
38.832
33.909
29.175
24.637
20.303
16.178
12.267
8.574
5.103
1.855
-1.169
-3.969
-6.545
-8.9
-11.037
-12.958
-14.668
-16.172
-17.476
-18.586
-19.509
-20.253
-20.824
-21.232
-21.484
-21.59
-21.559
-21.399
-21.12
-20.732
-20.243
-19.662
-18.999
-18.262
-17.461
-16.602
-15.696
-14.749
-13.768
-12.762
-11.737
-10.701
-9.658
-8.615
-7.578
-6.552
-5.541
-4.551
-3.583
-2.643
-1.734
-0.857
-0.015
0.789
1.555
2.281
2.966
3.609
4.211
4.772
5.292
5.771
6.209
6.608
6.968
7.291
7.575
7.823
8.035
8.212
8.354
8.462
8.537
8.58
8.591
8.572
8.523
8.445
8.338
8.203
8.041
7.853
7.639
7.4
7.137
6.851
6.541
6.208
5.853
5.477
5.078
4.657
4.214
3.75
3.264
2.757
2.231
1.686
1.123
0.544
-0.049
-0.656
-1.273
-1.9
-2.535
-3.176
-3.821
-4.469
-5.118
-5.767
-6.414
-7.058
-7.698
-8.332
-8.959
-9.58
-10.193
-10.798
-11.393
-11.976
-12.547
-13.104
-13.644
-14.165
-14.664
-15.138
-15.586
-16.006
-16.397
-16.759
-17.091
-17.396
-17.674
-17.927
-18.154
-18.355
-18.528
-18.671
-18.782
-18.86
-18.899
-18.896
-18.847
-18.754
-18.614
-18.426
-18.186
-17.884
-17.517
-17.085
-16.592
-16.043
-15.445
-14.806
-14.141
-13.477
-12.835
-12.238
-11.696
-11.205
-10.765
-10.376
-10.038
-9.755
-9.517
-9.298
-9.081
-8.852
-8.591
-8.283
-7.891
-7.351
-6.615
-5.647
-4.433
-2.99
-1.331
0.537
2.591
4.801
7.118
9.468
11.799
14.085
16.292
18.386
20.309
21.965
23.283
24.221
24.754
24.896
24.657
24.037
23.064
21.789
20.271
18.595
16.81
14.918
12.928
10.846
8.683
6.487
4.286
2.083
-0.121
-2.353
-4.657
-7.065
-9.632
-12.437
-15.529
-18.993
-22.935
-27.33
-32.056
-36.892
-41.484
-45.526
-48.836
-51.155
-52.114
-51.492
-49.329
-45.992
-42.226
-38.717
-35.789
-33.727
-33.014
-33.949
-36.354
-39.493
-41.862
-41.776
-38.134
-29.941
-15.78
5.526
34.59
71.338
114.306
161.222
210.129
258.572
302.882
339.153
363.289
371.366
361.115
331.262
280.604
209.311
119.512
14.517
-100.637
-219.936
-338.264
-450.437
-550.828
-634.852
-699.147
-741.542
-762.177
-762.463
-743.602
-707.866
-658.651
-599.545
-534.606
-467.706
-401.307
-337.589
-279.186
-228
-185.221
-151.245
-125.202
-105.879
-92.511
-83.942
-78.432
-74.26
-69.671
-63.645
-56.201
-47.597
-38.068
-28.088
-18.301
-9.529
-2.793
1.43
3.253
2.966
1.047
-2.008
-5.776
-9.693
-13.122
-15.658
-17.1
-17.386
-16.619
-14.887
-12.248
-8.823
-4.749
-0.154
4.83
10.101
15.57
21.129
26.679
32.114
37.328
42.236
46.764
50.867
54.542
57.801
60.667
63.179
65.373
67.298
69.016
70.581
72.045
73.458
74.86
76.295
77.81
79.446
81.241
83.22
85.39
87.756
90.317
93.066
95.995
99.089
102.328
105.694
109.172
112.748
116.408
120.136
123.91
127.712
131.521
135.318
139.083
142.798
146.441
149.995
153.439
156.755
159.926
162.934
165.759
168.382
170.785
172.948
174.856
176.493
177.843
178.893
179.63
180.046
180.131
179.878
179.282
178.339
177.047
175.404
173.412
171.073
168.391
165.373
162.025
158.357
154.381
150.108
145.552
140.729
135.655
130.348
124.828
119.114
113.227
107.188
101.02
94.746
88.388
81.971
75.518
69.052
62.596
56.175
49.809
43.522
37.333
31.264
25.335
19.563
13.966
8.562
3.364
-1.612
-6.354
-10.85
-15.091
-19.069
-22.776
-26.208
-29.361
-32.232
-34.823
-37.132
-39.164
-40.923
-42.413
-43.642
-44.617
-45.349
-45.848
-46.125
-46.192
-46.063
-45.751
-45.27
-44.635
-43.861
-42.962
-41.954
-40.851
-39.668
-38.419
-37.119
-35.781
-34.417
-33.042
-31.665
-30.299
-28.954
-27.639
-26.363
-25.133
-23.956
-22.837
-21.782
-20.794
-19.876
-19.03
-18.258
-17.558
-16.931
-16.374
-15.886
-15.464
-15.105
-14.803
-14.556
-14.359
-14.208
-14.096
-14.021
-13.977
-13.96
-13.966
-13.99
-14.028
-14.078
-14.135
-14.197
-14.26
-14.323
-14.383
-14.439
-14.49
-14.534
-14.571
-14.601
-14.625
-14.642
-14.654
-14.661
-14.666
-14.67
-14.675
-14.684
-14.7
-14.726
-14.766
-14.821
-14.897
-14.996
-15.12
-15.273
-15.455
-15.67
-15.918
-16.2
-16.518
-16.871
-17.261
-17.687
-18.151
-18.65
-19.186
-19.756
-20.361
-20.998
-21.668
-22.367
-23.096
-23.852
-24.634
-25.441
-26.271
-27.121
-27.989
-28.872
-29.766
-30.667
-31.571
-32.471
-33.364
-34.242
-35.104
-35.943
-36.757
-37.541
-38.294
-39.014
-39.699
-40.348
-40.957
-41.523
-42.042
-42.509
-42.919
-43.267
-43.55
-43.761
-43.897
-43.956
-43.938
-43.84
-43.66
-43.391
-43.025
-42.559
-41.994
-41.33
-40.572
-39.731
-38.823
-37.869
-36.896
-35.92
-34.954
-34.002
-33.058
-32.12
-31.181
-30.233
-29.28
-28.322
-27.354
-26.378
-25.394
-24.384
-23.329
-22.191
-20.922
-19.497
-17.903
-16.139
-14.233
-12.214
-10.125
-8.023
-5.945
-3.92
-1.981
-0.142
1.585
3.175
4.606
5.836
6.805
7.475
7.823
7.839
7.552
7.004
6.257
5.394
4.477
3.553
2.664
1.837
1.078
0.389
-0.253
-0.865
-1.44
-1.97
-2.45
-2.881
-3.304
-3.796
-4.443
-5.343
-6.579
-8.2
-10.289
-12.961
-16.225
-19.968
-23.939
-27.765
-31.156
-33.953
-35.938
-36.755
-36.15
-34.099
-30.959
-27.494
-24.305
-21.659
-19.756
-18.957
-19.696
-22.019
-25.218
-27.83
-28.378
-25.823
-19.389
-8.022
9.812
35.13
67.897
106.984
150.54
196.745
243.704
288.475
326.756
354.27
367.451
363.36
339.984
295.962
230.374
145.355
46.588
-61.55
-175.265
-292.171
-413.048
-531.441
-635.665
-715.404
-759.2
-766.612
-747.726
-711.102
-666.847
-619.783
-567.269
-509.383
-447.212
-382.587
-320.176
-263.376
-213.536
-171.449
-137.162
-110.02
-89.228
-74.243
-64.13
-57.356
-52.672
-48.769
-44.281
-38.803
-32.389
-24.982
-16.884
-8.664
-0.765
6.122
11.225
14.378
15.72
15.487
14.126
12.053
9.614
7.28
5.552
4.713
4.875
6.022
8.017
10.752
14.144
18.079
22.418
27.034
31.816
36.666
41.516
46.3
50.935
55.34
59.435
63.15
66.448
69.333
71.823
73.948
75.749
77.263
78.54
79.643
80.627
81.544
82.439
83.349
84.314
85.377
86.582
87.969
89.564
91.379
93.419
95.683
98.167
100.863
103.757
106.827
110.054
113.422
116.914
120.515
124.207
127.968
131.776
135.606
139.436
143.245
147.01
150.707
154.315
157.812
161.177
164.391
167.434
170.284
172.923
175.33
177.487
179.376
180.983
182.291
183.288
183.963
184.307
184.314
183.979
183.298
182.272
180.9
179.187
177.137
174.756
172.053
169.038
165.723
162.121
158.246
154.116
149.746
145.155
140.361
135.386
130.248
124.969
119.57
114.072
108.496
102.863
97.194
91.511
85.832
80.178
74.568
69.019
63.55
58.176
52.913
47.775
42.774
37.923
33.231
28.708
24.362
20.2
16.227
12.448
8.866
5.483
2.299
-0.684
-3.468
-6.055
-8.448
-10.65
-12.665
-14.498
-16.153
-17.637
-18.954
-20.113
-21.118
-21.976
-22.695
-23.28
-23.739
-24.078
-24.304
-24.423
-24.441
-24.365
-24.2
-23.951
-23.625
-23.226
-22.759
-22.228
-21.638
-20.993
-20.296
-19.552
-18.763
-17.934
-17.066
-16.164
-15.23
-14.268
-13.28
-12.27
-11.241
-10.197
-9.141
-8.077
-7.009
-5.94
-4.875
-3.818
-2.774
-1.747
-0.743
0.234
1.178
2.085
2.949
3.765
4.528
5.235
5.879
6.458
6.967
7.401
7.758
8.035
8.228
8.335
8.354
8.285
8.126
7.878
7.541
7.116
6.605
6.008
5.33
4.572
3.738
2.831
1.856
0.817
-0.279
-1.428
-2.622
-3.855
-5.121
-6.411
-7.72
-9.039
-10.364
-11.686
-12.999
-14.298
-15.577
-16.828
-18.048
-19.23
-20.371
-21.466
-22.512
-23.507
-24.449
-25.335
-26.165
-26.939
-27.655
-28.312
-28.911
-29.452
-29.933
-30.355
-30.717
-31.021
-31.268
-31.459
-31.598
-31.687
-31.731
-31.732
-31.695
-31.623
-31.519
-31.384
-31.218
-31.021
-30.792
-30.531
-30.237
-29.909
-29.548
-29.154
-28.727
-28.27
-27.779
-27.251
-26.679
-26.06
-25.393
-24.68
-23.928
-23.148
-22.357
-21.57
-20.807
-20.08
-19.399
-18.761
-18.158
-17.579
-17.011
-16.45
-15.902
-15.37
-14.854
-14.351
-13.854
-13.346
-12.801
-12.188
-11.465
-10.607
-9.6
-8.455
-7.205
-5.889
-4.555
-3.238
-1.959
-0.733
0.426
1.51
2.516
3.426
4.218
4.852
5.269
5.432
5.319
4.94
4.338
3.568
2.69
1.759
0.812
-0.13
-1.049
-1.95
-2.863
-3.815
-4.836
-5.937
-7.094
-8.294
-9.535
-10.844
-12.288
-13.948
-15.903
-18.227
-20.967
-24.178
-27.952
-32.283
-37.02
-41.909
-46.563
-50.622
-53.869
-56.042
-56.744
-55.741
-53.089
-49.176
-44.805
-40.801
-37.631
-35.738
-35.756
-38.025
-42.308
-47.743
-52.621
-54.955
-53.295
-46.23
-31.951
-9.126
22.774
63.395
110.892
162.565
215.939
267.916
314.231
350.66
373.142
378.133
363.8
329.264
273.88
198.519
106.006
0.168
-113.81
-230.141
-343.917
-450.082
-543.369
-619.74
-676.504
-712.157
-727.237
-723.362
-701.987
-665.703
-618.017
-562.246
-501.921
-440.346
-379.508
-321.046
-267.064
-218.825
-177.006
-142.186
-113.926
-91.359
-74.149
-61.664
-52.612
-45.933
-40.45
-34.869
-28.803
-22.28
-15.164
-7.625
-0.092
7.097
13.332
17.886
20.598
21.605
21.132
19.606
17.425
14.915
12.535
10.785
9.955
10.166
11.411
13.555
16.491
20.136
24.377
29.071
34.088
39.313
44.642
50.003
55.327
60.525
65.517
70.221
74.567
78.519
82.082
85.275
88.128
90.681
92.973
95.051
96.977
98.804
100.579
102.348
104.142
106
107.962
110.066
112.349
114.832
117.522
120.418
123.516
126.805
130.275
133.907
137.676
141.559
145.538
149.592
153.704
157.854
162.017
166.167
170.282
174.335
178.305
182.168
185.9
189.479
192.884
196.093
199.09
201.853
204.364
206.603
208.553
210.198
211.521
212.509
213.151
213.435
213.354
212.902
212.075
210.873
209.294
207.34
205.017
202.329
199.285
195.893
192.165
188.113
183.752
179.097
174.165
168.975
163.545
157.895
152.047
146.021
139.841
133.528
127.104
120.592
114.016
107.397
100.758
94.121
87.508
80.938
74.434
68.013
61.694
55.494
49.429
43.514
37.763
32.188
26.801
21.611
16.628
11.858
7.307
2.982
-1.115
-4.981
-8.616
-12.018
-15.19
-18.132
-20.847
-23.34
-25.615
-27.677
-29.533
-31.189
-32.652
-33.93
-35.033
-35.968
-36.745
-37.374
-37.863
-38.222
-38.462
-38.592
-38.622
-38.561
-38.418
-38.202
-37.923
-37.589
-37.208
-36.787
-36.334
-35.856
-35.359
-34.849
-34.332
-33.812
-33.295
-32.786
-32.287
-31.804
-31.338
-30.895
-30.475
-30.082
-29.718
-29.385
-29.084
-28.816
-28.582
-28.384
-28.221
-28.095
-28.004
-27.948
-27.928
-27.943
-27.992
-28.074
-28.188
-28.335
-28.511
-28.717
-28.951
-29.212
-29.499
-29.811
-30.146
-30.503
-30.88
-31.277
-31.69
-32.12
-32.563
-33.018
-33.482
-33.955
-34.432
-34.913
-35.394
-35.874
-36.35
-36.82
-37.282
-37.734
-38.172
-38.596
-39.002
-39.389
-39.753
-40.094
-40.407
-40.693
-40.947
-41.17
-41.358
-41.509
-41.623
-41.696
-41.729
-41.717
-41.661
-41.558
-41.407
-41.206
-40.956
-40.654
-40.301
-39.895
-39.437
-38.926
-38.361
-37.743
-37.072
-36.349
-35.573
-34.746
-33.869
-32.945
-31.975
-30.963
-29.912
-28.827
-27.711
-26.569
-25.405
-24.223
-23.03
-21.829
-20.624
-19.421
-18.226
-17.044
-15.883
-14.749
-13.647
-12.585
-11.568
-10.604
-9.7
-8.86
-8.088
-7.386
-6.759
-6.212
-5.753
-5.387
-5.11
-4.921
-4.815
-4.786
-4.826
-4.921
-5.048
-5.185
-5.309
-5.404
-5.461
-5.469
-5.414
-5.279
-5.044
-4.699
-4.245
-3.685
-3.024
-2.273
-1.448
-0.591
0.233
0.957
1.51
1.831
1.875
1.596
0.957
-0.087
-1.594
-3.606
-6.158
-9.275
-12.962
-17.237
-22.143
-27.615
-33.457
-39.383
-44.983
-49.89
-53.861
-56.592
-57.693
-56.952
-54.44
-50.544
-46.01
-41.56
-37.589
-34.509
-32.931
-33.166
-34.997
-37.651
-39.627
-39.254
-35.353
-26.678
-11.565
11.121
41.763
79.916
123.799
171.023
219.308
265.568
305.678
335.664
351.778
350.987
331.748
293.073
234.532
157.418
64.689
-39.589
-150.25
-262.115
-370.462
-470.01
-555.844
-624.325
-672.941
-700.994
-709.416
-699.399
-672.731
-632.569
-582.33
-525.647
-466.368
-407.041
-349.425
-295.645
-247.3
-205.254
-170.215
-141.865
-119.077
-101.327
-88.073
-78.147
-70.539
-64.085
-57.397
-50.026
-42.143
-33.716
-24.931
-16.203
-7.818
-0.388
5.267
8.92
10.692
10.794
9.659
7.69
5.183
2.605
0.495
-0.829
-1.179
-0.508
1.082
3.513
6.728
10.617
15.059
19.93
25.112
30.505
36.035
41.62
47.18
52.628
57.879
62.86
67.505
71.786
75.7
79.26
82.49
85.423
88.093
90.546
92.835
95.01
97.113
99.182
101.248
103.347
105.516
107.788
110.194
112.751
115.466
118.337
121.362
124.53
127.831
131.248
134.758
138.341
141.981
145.661
149.365
153.075
156.771
160.431
164.035
167.564
170.997
174.316
177.501
180.534
183.397
186.075
188.552
190.812
192.839
194.617
196.133
197.371
198.32
198.968
199.305
199.322
199.012
198.37
197.394
196.082
194.433
192.448
190.132
187.487
184.521
181.241
177.655
173.774
169.609
165.174
160.483
155.55
150.392
145.027
139.472
133.747
127.871
121.864
115.746
109.538
103.262
96.938
90.587
84.231
77.889
71.584
65.333
59.158
53.075
47.104
41.261
35.562
30.022
24.655
19.473
14.49
9.714
5.157
0.825
-3.273
-7.133
-10.748
-14.118
-17.238
-20.109
-22.731
-25.106
-27.238
-29.129
-30.785
-32.212
-33.418
-34.41
-35.198
-35.789
-36.196
-36.428
-36.496
-36.413
-36.189
-35.838
-35.37
-34.798
-34.135
-33.391
-32.579
-31.709
-30.793
-29.842
-28.865
-27.873
-26.874
-25.877
-24.891
-23.922
-22.978
-22.064
-21.185
-20.347
-19.553
-18.806
-18.109
-17.463
-16.87
-16.331
-15.847
-15.416
-15.038
-14.713
-14.439
-14.214
-14.036
-13.904
-13.815
-13.767
-13.757
-13.783
-13.843
-13.934
-14.054
-14.202
-14.374
-14.568
-14.784
-15.018
-15.268
-15.534
-15.814
-16.106
-16.411
-16.727
-17.053
-17.391
-17.739
-18.098
-18.469
-18.851
-19.245
-19.651
-20.07
-20.501
-20.945
-21.403
-21.874
-22.359
-22.858
-23.372
-23.901
-24.444
-25.003
-25.576
-26.164
-26.766
-27.381
-28.01
-28.652
-29.306
-29.972
-30.65
-31.338
-32.035
-32.74
-33.451
-34.166
-34.883
-35.597
-36.307
-37.009
-37.7
-38.377
-39.039
-39.684
-40.31
-40.917
-41.503
-42.068
-42.608
-43.121
-43.601
-44.045
-44.446
-44.8
-45.102
-45.348
-45.536
-45.664
-45.731
-45.737
-45.678
-45.552
-45.352
-45.073
-44.716
-44.284
-43.782
-43.223
-42.624
-42.001
-41.375
-40.759
-40.162
-39.585
-39.021
-38.462
-37.894
-37.315
-36.731
-36.145
-35.56
-34.972
-34.372
-33.742
-33.055
-32.28
-31.383
-30.339
-29.131
-27.765
-26.266
-24.666
-23.012
-21.329
-19.625
-17.906
-16.175
-14.439
-12.714
-11.024
-9.396
-7.872
-6.501
-5.32
-4.364
-3.636
-3.114
-2.771
-2.562
-2.467
-2.505
-2.695
-3.07
-3.678
-4.552
-5.719
-7.207
-9.005
-11.103
-13.514
-16.241
-19.318
-22.794
-26.687
-31.056
-35.975
-41.395
-47.159
-52.995
-58.474
-63.21
-66.937
-69.332
-70.003
-68.752
-65.67
-61.196
-56.149
-51.312
-47.116
-43.968
-42.472
-42.932
-45.065
-47.996
-50.081
-49.48
-44.931
-35.179
-18.514
6.267
39.582
81.028
128.745
180.176
232.991
284.128
329.362
364.524
385.54
388.912
372.794
335.995
277.706
198.796
101.949
-8.865
-128.251
-250.521
-370.52
-482.48
-580.74
-660.799
-719.26
-754.707
-767.695
-759.273
-731.152
-686.625
-629.554
-564.261
-495.508
-426.678
-360.213
-298.875
-244.774
-199.078
-162.538
-134.603
-113.697
-98.852
-89.076
-82.693
-78.262
-74.297
-69.263
-62.76
-55.094
-46.384
-36.991
-27.544
-18.535
-10.738
-5.033
-1.617
-0.296
-0.778
-2.56
-5.168
-8.22
-11.185
-13.496
-14.83
-15.045
-14.142
-12.254
-9.488
-5.921
-1.677
3.099
8.268
13.702
19.292
24.957
30.613
36.159
41.499
46.539
51.196
55.429
59.231
62.613
65.603
68.237
70.552
72.6
74.444
76.14
77.744
79.302
80.856
82.449
84.127
85.934
87.91
90.081
92.456
95.04
97.831
100.823
104.006
107.366
110.879
114.526
118.291
122.156
126.106
130.121
134.181
138.263
142.344
146.403
150.419
154.37
158.235
161.992
165.621
169.104
172.42
175.551
178.477
181.179
183.637
185.835
187.756
189.385
190.709
191.715
192.394
192.738
192.742
192.402
191.716
190.682
189.304
187.585
185.528
183.142
180.434
177.413
174.092
170.483
166.599
162.455
158.068
153.455
148.633
143.621
138.438
133.106
127.643
122.07
116.41
110.681
104.906
99.105
93.297
87.504
81.744
76.036
70.397
64.844
59.392
54.057
48.852
43.788
38.879
34.133
29.56
25.167
20.962
16.951
13.138
9.526
6.12
2.919
-0.074
-2.861
-5.442
-7.819
-9.996
-11.976
-13.763
-15.364
-16.784
-18.029
-19.107
-20.025
-20.792
-21.415
-21.903
-22.266
-22.51
-22.646
-22.681
-22.625
-22.485
-22.271
-21.989
-21.647
-21.253
-20.814
-20.336
-19.826
-19.289
-18.733
-18.162
-17.582
-16.998
-16.414
-15.834
-15.263
-14.705
-14.161
-13.636
-13.132
-12.65
-12.193
-11.762
-11.359
-10.984
-10.638
-10.321
-10.035
-9.779
-9.553
-9.357
-9.191
-9.055
-8.949
-8.873
-8.826
-8.809
-8.82
-8.861
-8.929
-9.026
-9.149
-9.3
-9.476
-9.677
-9.903
-10.151
-10.422
-10.714
-11.026
-11.358
-11.707
-12.074
-12.456
-12.853
-13.265
-13.689
-14.125
-14.572
-15.029
-15.496
-15.972
-16.455
-16.945
-17.441
-17.941
-18.446
-18.954
-19.464
-19.976
-20.488
-21
-21.511
-22.02
-22.526
-23.03
-23.529
-24.024
-24.513
-24.996
-25.471
-25.938
-26.396
-26.844
-27.28
-27.704
-28.114
-28.51
-28.889
-29.25
-29.59
-29.908
-30.202
-30.468
-30.705
-30.911
-31.082
-31.216
-31.31
-31.362
-31.368
-31.325
-31.231
-31.082
-30.876
-30.609
-30.281
-29.889
-29.432
-28.909
-28.321
-27.669
-26.953
-26.175
-25.336
-24.438
-23.485
-22.478
-21.423
-20.32
-19.175
-17.994
-16.781
-15.545
-14.293
-13.031
-11.767
-10.509
-9.264
-8.041
-6.849
-5.693
-4.58
-3.518
-2.515
-1.584
-0.731
0.041
0.734
1.347
1.886
2.356
2.766
3.135
3.478
3.811
4.15
4.499
4.871
5.277
5.732
6.253
6.853
7.532
8.29
9.125
10.023
10.969
11.934
12.861
13.701
14.401
14.896
15.141
15.09
14.696
13.934
12.763
11.129
8.995
6.317
3.055
-0.781
-5.21
-10.273
-15.885
-21.86
-27.901
-33.558
-38.443
-42.305
-44.829
-45.621
-44.493
-41.554
-37.276
-32.527
-28.106
-24.431
-21.917
-21.168
-22.443
-25.401
-29.079
-31.731
-31.479
-27.066
-17.215
-0.222
25.037
58.884
100.77
148.701
200.069
252.513
302.889
346.936
380.519
399.65
400.978
382.768
343.853
283.507
202.764
104.475
-7.268
-127.015
-249.084
-368.265
-478.706
-574.773
-652.134
-707.655
-740.197
-750.545
-739.948
-710.359
-665.283
-608.644
-544.66
-477.826
-411.21
-346.945
-287.486
-234.635
-189.324
-152.235
-122.885
-99.898
-82.568
-70.169
-61.298
-54.774
-49.284
-43.325
-36.452
-28.867
-20.551
-11.731
-2.895
5.599
13.048
18.554
21.88
23.172
22.672
20.853
18.155
14.924
11.684
9.032
7.325
6.731
7.271
8.812
11.254
14.527
18.511
23.058
28.026
33.282
38.714
44.243
49.784
55.234
60.492
65.452
70.024
74.158
77.844
81.09
83.92
86.368
88.471
90.278
91.852
93.25
94.527
95.729
96.896
98.073
99.309
100.651
102.145
103.819
105.686
107.754
110.022
112.488
115.145
117.978
120.967
124.095
127.346
130.707
134.164
137.702
141.3
144.939
148.598
152.256
155.895
159.496
163.037
166.5
169.866
173.117
176.237
179.206
182.008
184.622
187.03
189.216
191.162
192.854
194.276
195.416
196.263
196.808
197.043
196.961
196.559
195.832
194.781
193.405
191.706
189.687
187.353
184.71
181.767
178.533
175.018
171.235
167.196
162.916
158.41
153.694
148.786
143.703
138.464
133.087
127.593
121.999
116.327
110.595
104.824
99.033
93.242
87.468
81.73
76.045
70.431
64.904
59.478
54.168
48.988
43.95
39.066
34.346
29.799
25.435
21.26
17.281
13.503
9.93
6.564
3.408
0.462
-2.274
-4.802
-7.124
-9.243
-11.165
-12.893
-14.435
-15.797
-16.986
-18.01
-18.878
-19.599
-20.181
-20.636
-20.971
-21.199
-21.327
-21.368
-21.33
-21.224
-21.06
-20.847
-20.595
-20.312
-20.006
-19.687
-19.363
-19.039
-18.723
-18.423
-18.142
-17.887
-17.661
-17.47
-17.316
-17.203
-17.131
-17.103
-17.121
-17.183
-17.291
-17.444
-17.641
-17.881
-18.162
-18.482
-18.838
-19.229
-19.65
-20.099
-20.572
-21.066
-21.578
-22.103
-22.638
-23.18
-23.725
-24.269
-24.809
-25.342
-25.864
-26.373
-26.864
-27.337
-27.787
-28.214
-28.614
-28.987
-29.33
-29.644
-29.926
-30.178
-30.397
-30.586
-30.743
-30.87
-30.967
-31.035
-31.077
-31.093
-31.087
-31.059
-31.012
-30.949
-30.872
-30.785
-30.691
-30.592
-30.491
-30.392
-30.299
-30.214
-30.141
-30.083
-30.044
-30.027
-30.036
-30.073
-30.141
-30.243
-30.382
-30.558
-30.773
-31.03
-31.327
-31.666
-32.046
-32.468
-32.929
-33.43
-33.967
-34.54
-35.144
-35.777
-36.435
-37.113
-37.808
-38.515
-39.227
-39.939
-40.645
-41.34
-42.017
-42.668
-43.286
-43.865
-44.396
-44.872
-45.286
-45.629
-45.895
-46.077
-46.168
-46.164
-46.059
-45.85
-45.534
-45.11
-44.575
-43.93
-43.175
-42.31
-41.337
-40.259
-39.077
-37.797
-36.423
-34.963
-33.425
-31.82
-30.158
-28.45
-26.707
-24.941
-23.165
-21.39
-19.627
-17.888
-16.188
-14.542
-12.971
-11.489
-10.105
-8.827
-7.66
-6.602
-5.651
-4.797
-4.021
-3.313
-2.662
-2.061
-1.512
-1.008
-0.536
-0.082
0.372
0.839
1.319
1.815
2.325
2.835
3.326
3.757
4.073
4.233
4.209
3.975
3.517
2.809
1.805
0.473
-1.224
-3.31
-5.783
-8.653
-11.941
-15.64
-19.739
-24.198
-28.928
-33.895
-39.117
-44.541
-50.032
-55.335
-60.05
-63.811
-66.35
-67.356
-66.444
-63.391
-58.287
-51.601
-44.203
-37.031
-30.72
-25.835
-23.118
-22.982
-25.184
-28.868
-32.359
-33.647
-31.26
-23.763
-9.256
13.617
45.368
85.685
132.737
183.863
236.592
287.679
332.698
367.326
387.391
389.298
371.141
331.82
270.688
188.895
89.462
-23.507
-144.556
-267.856
-388.129
-499.67
-596.89
-675.567
-732.69
-766.714
-778.003
-767.634
-737.26
-690.031
-629.759
-560.469
-486.601
-411.974
-339.503
-272.229
-212.729
-162.562
-122.801
-93.435
-73.285
-61.134
-55.665
-54.894
-56.893
-59.795
-61.644
-61.493
-59.251
-54.961
-48.996
-42.073
-34.845
-28.196
-23.153
-20.073
-18.872
-19.298
-20.839
-22.992
-25.341
-27.339
-28.431
-28.359
-27.052
-24.579
-21.144
-16.897
-11.962
-6.509
-0.717
5.261
11.298
17.298
23.179
28.851
34.212
39.167
43.654
47.649
51.153
54.196
56.815
59.055
60.97
62.624
64.077
65.388
66.611
67.794
68.987
70.242
71.608
73.134
74.857
76.796
78.965
81.368
84.001
86.858
89.931
93.2
96.651
100.271
104.044
107.959
112.001
116.15
120.386
124.689
129.038
133.411
137.787
142.145
146.462
150.718
154.89
158.957
162.899
166.692
170.313
173.74
176.951
179.925
182.643
185.085
187.235
189.076
190.597
191.785
192.63
193.124
193.262
193.037
192.449
191.496
190.18
188.504
186.471
184.09
181.368
178.316
174.944
171.267
167.299
163.057
158.556
153.816
148.856
143.696
138.356
132.859
127.226
121.478
115.638
109.729
103.771
97.787
91.798
85.824
79.886
74.002
68.192
62.471
56.857
51.365
46.01
40.806
35.763
30.894
26.209
21.716
17.423
13.337
9.462
5.802
2.361
-0.86
-3.862
-6.643
-9.207
-11.556
-13.694
-15.626
-17.358
-18.894
-20.244
-21.414
-22.412
-23.247
-23.929
-24.466
-24.867
-25.143
-25.303
-25.357
-25.314
-25.184
-24.977
-24.701
-24.366
-23.98
-23.552
-23.09
-22.601
-22.093
-21.573
-21.047
-20.521
-20.001
-19.49
-18.995
-18.517
-18.062
-17.631
-17.226
-16.851
-16.505
-16.19
-15.907
-15.656
-15.437
-15.249
-15.092
-14.965
-14.867
-14.796
-14.751
-14.73
-14.732
-14.755
-14.797
-14.856
-14.931
-15.018
-15.117
-15.224
-15.339
-15.458
-15.58
-15.703
-15.824
-15.944
-16.059
-16.168
-16.27
-16.364
-16.449
-16.523
-16.587
-16.638
-16.677
-16.704
-16.717
-16.717
-16.703
-16.676
-16.636
-16.583
-16.517
-16.439
-16.349
-16.248
-16.137
-16.016
-15.887
-15.751
-15.609
-15.463
-15.315
-15.166
-15.018
-14.873
-14.733
-14.6
-14.477
-14.364
-14.265
-14.181
-14.114
-14.067
-14.04
-14.036
-14.056
-14.101
-14.173
-14.273
-14.4
-14.557
-14.744
-14.96
-15.205
-15.48
-15.784
-16.116
-16.474
-16.857
-17.263
-17.689
-18.132
-18.591
-19.06
-19.537
-20.018
-20.498
-20.973
-21.438
-21.889
-22.321
-22.727
-23.104
-23.446
-23.748
-24.006
-24.215
-24.371
-24.47
-24.508
-24.484
-24.392
-24.231
-24
-23.696
-23.32
-22.87
-22.349
-21.757
-21.097
-20.374
-19.591
-18.754
-17.868
-16.938
-15.973
-14.979
-13.961
-12.927
-11.882
-10.836
-9.795
-8.77
-7.766
-6.795
-5.865
-4.982
-4.155
-3.388
-2.682
-2.038
-1.458
-0.944
-0.502
-0.137
0.152
0.362
0.493
0.55
0.54
0.479
0.394
0.307
0.238
0.203
0.211
0.274
0.406
0.619
0.93
1.353
1.896
2.571
3.387
4.336
5.394
6.506
7.593
8.583
9.413
10.035
10.394
10.423
10.048
9.199
7.812
5.845
3.235
-0.134
-4.297
-9.161
-14.499
-19.913
-24.996
-29.453
-32.955
-35.064
-35.518
-34.374
-32.03
-29.309
-27.052
-25.723
-25.746
-27.729
-31.926
-37.986
-44.96
-51.06
-54.268
-53.166
-46.318
-31.88
-8.551
24.179
65.933
114.822
168.196
223.563
277.616
325.869
363.87
387.27
392.367
377.123
340.216
280.872
200.142
101.021
-12.161
-133.681
-257.584
-378.429
-490.193
-587.118
-664.814
-720.18
-752.145
-761.553
-749.676
-718.446
-671.401
-612.558
-546.22
-477.006
-408.135
-341.946
-281.172
-227.91
-183.255
-147.897
-121.282
-101.86
-88.678
-80.691
-76.102
-73.346
-70.854
-67.056
-61.524
-54.522
-46.154
-36.813
-27.198
-17.879
-9.696
-3.542
0.382
2.231
2.273
0.998
-1.133
-3.722
-6.234
-8.122
-9.08
-8.975
-7.813
-5.723
-2.804
0.859
5.144
9.91
15.023
20.37
25.858
31.412
36.955
42.393
47.635
52.591
57.182
61.361
65.12
68.465
71.42
74.017
76.294
78.297
80.086
81.715
83.235
84.692
86.122
87.568
89.076
90.686
92.441
94.367
96.476
98.774
101.26
103.931
106.778
109.788
112.939
116.215
119.599
123.076
126.632
130.25
133.911
137.594
141.277
144.942
148.567
152.134
155.621
159.01
162.282
165.417
168.399
171.209
173.829
176.24
178.422
180.36
182.038
183.439
184.551
185.36
185.858
186.036
185.888
185.409
184.597
183.449
181.968
180.155
178.014
175.552
172.776
169.694
166.317
162.657
158.726
154.54
150.114
145.463
140.605
135.559
130.344
124.978
119.481
113.875
108.18
102.416
96.604
90.764
84.918
79.084
73.282
67.531
61.848
56.249
50.752
45.37
40.117
35.006
30.049
25.254
20.632
16.19
11.935
7.872
4.006
0.339
-3.126
-6.387
-9.446
-12.303
-14.96
-17.419
-19.685
-21.761
-23.653
-25.366
-26.906
-28.282
-29.499
-30.566
-31.491
-32.281
-32.946
-33.494
-33.933
-34.271
-34.516
-34.677
-34.761
-34.774
-34.725
-34.62
-34.464
-34.264
-34.024
-33.749
-33.444
-33.113
-32.758
-32.383
-31.991
-31.584
-31.164
-30.733
-30.293
-29.846
-29.391
-28.931
-28.466
-27.997
-27.523
-27.046
-26.566
-26.083
-25.599
-25.112
-24.624
-24.136
-23.647
-23.159
-22.671
-22.186
-21.704
-21.226
-20.752
-20.285
-19.827
-19.378
-18.94
-18.516
-18.107
-17.714
-17.341
-16.987
-16.655
-16.346
-16.061
-15.8
-15.566
-15.359
-15.178
-15.025
-14.899
-14.8
-14.727
-14.68
-14.657
-14.657
-14.677
-14.717
-14.775
-14.849
-14.938
-15.039
-15.151
-15.273
-15.402
-15.536
-15.674
-15.812
-15.949
-16.082
-16.21
-16.331
-16.442
-16.543
-16.633
-16.711
-16.776
-16.828
-16.867
-16.893
-16.907
-16.909
-16.901
-16.884
-16.861
-16.834
-16.805
-16.778
-16.755
-16.738
-16.729
-16.731
-16.744
-16.769
-16.806
-16.856
-16.918
-16.993
-17.081
-17.184
-17.301
-17.434
-17.584
-17.753
-17.939
-18.142
-18.358
-18.583
-18.815
-19.048
-19.276
-19.494
-19.693
-19.87
-20.021
-20.142
-20.228
-20.27
-20.256
-20.178
-20.034
-19.823
-19.547
-19.21
-18.816
-18.381
-17.93
-17.485
-17.061
-16.66
-16.277
-15.908
-15.551
-15.206
-14.873
-14.539
-14.187
-13.805
-13.387
-12.923
-12.398
-11.772
-10.987
-9.996
-8.775
-7.327
-5.673
-3.83
-1.82
0.329
2.573
4.849
7.097
9.279
11.38
13.377
15.235
16.892
18.259
19.269
19.891
20.119
19.969
19.454
18.589
17.413
15.99
14.406
12.726
10.98
9.163
7.27
5.307
3.295
1.275
-0.739
-2.752
-4.772
-6.831
-8.965
-11.22
-13.657
-16.361
-19.403
-22.858
-26.813
-31.24
-36.016
-40.913
-45.578
-49.697
-53.053
-55.383
-56.305
-55.586
-53.271
-49.726
-45.727
-41.996
-38.867
-36.622
-35.711
-36.403
-38.502
-41.24
-43.064
-42.249
-37.657
-28.303
-12.929
9.557
39.715
77.409
121.325
169.347
219.503
269.434
315.8
354.837
382.629
395.388
390.346
365.751
320.216
253.522
167.289
64.522
-50.232
-171.316
-293.104
-409.931
-515.874
-605.795
-675.834
-723.415
-748.021
-750.564
-732.417
-696.03
-644.997
-583.326
-515.377
-445.365
-376.276
-310.702
-251.409
-200.379
-158.755
-126.75
-103.375
-87.211
-77.215
-71.992
-69.588
-68.124
-65.796
-61.59
-55.526
-47.916
-39.049
-29.45
-19.866
-11.186
-4.448
-0.142
1.869
1.898
0.422
-2.065
-5.125
-8.202
-10.663
-12.117
-12.418
-11.555
-9.666
-6.872
-3.244
1.09
5.978
11.283
16.874
22.648
28.527
34.419
40.219
45.826
51.135
56.063
60.563
64.618
68.237
71.447
74.28
76.775
78.982
80.958
82.761
84.445
86.057
87.639
89.237
90.895
92.662
94.58
96.675
98.962
101.446
104.127
107.001
110.061
113.291
116.673
120.189
123.823
127.56
131.386
135.285
139.236
143.219
147.211
151.192
155.142
159.04
162.864
166.594
170.21
173.691
177.019
180.175
183.138
185.889
188.408
190.677
192.68
194.399
195.82
196.931
197.719
198.175
198.292
198.065
197.489
196.561
195.282
193.653
191.676
189.356
186.699
183.714
180.41
176.798
172.89
168.7
164.245
159.54
154.603
149.454
144.112
138.598
132.932
127.135
121.231
115.239
109.183
103.084
96.963
90.842
84.741
78.681
72.68
66.757
60.929
55.214
49.626
44.18
38.89
33.767
28.824
24.069
19.512
15.161
11.022
7.101
3.401
-0.075
-3.325
-6.348
-9.146
-11.721
-14.076
-16.215
-18.143
-19.866
-21.391
-22.725
-23.877
-24.854
-25.667
-26.324
-26.835
-27.21
-27.459
-27.593
-27.621
-27.553
-27.4
-27.171
-26.876
-26.523
-26.121
-25.68
-25.208
-24.712
-24.2
-23.679
-23.156
-22.638
-22.129
-21.635
-21.16
-20.708
-20.282
-19.886
-19.521
-19.189
-18.891
-18.629
-18.403
-18.213
-18.059
-17.94
-17.856
-17.806
-17.788
-17.8
-17.842
-17.912
-18.008
-18.128
-18.271
-18.435
-18.618
-18.818
-19.033
-19.262
-19.502
-19.752
-20.009
-20.272
-20.54
-20.811
-21.083
-21.355
-21.627
-21.897
-22.165
-22.43
-22.691
-22.948
-23.201
-23.45
-23.694
-23.934
-24.17
-24.403
-24.633
-24.86
-25.087
-25.313
-25.539
-25.766
-25.995
-26.227
-26.463
-26.705
-26.952
-27.207
-27.469
-27.739
-28.019
-28.307
-28.604
-28.91
-29.225
-29.547
-29.877
-30.213
-30.554
-30.899
-31.246
-31.593
-31.939
-32.281
-32.616
-32.942
-33.255
-33.552
-33.83
-34.084
-34.311
-34.506
-34.665
-34.784
-34.856
-34.878
-34.845
-34.751
-34.594
-34.368
-34.07
-33.699
-33.251
-32.726
-32.125
-31.448
-30.694
-29.867
-28.967
-27.996
-26.958
-25.855
-24.69
-23.469
-22.199
-20.886
-19.54
-18.17
-16.783
-15.391
-14.002
-12.628
-11.278
-9.959
-8.68
-7.453
-6.291
-5.213
-4.228
-3.343
-2.563
-1.889
-1.321
-0.851
-0.468
-0.152
0.112
0.337
0.528
0.688
0.823
0.949
1.08
1.237
1.43
1.659
1.928
2.236
2.573
2.92
3.237
3.468
3.572
3.52
3.287
2.861
2.212
1.296
0.079
-1.477
-3.389
-5.653
-8.283
-11.295
-14.694
-18.47
-22.581
-26.937
-31.493
-36.262
-41.185
-46.131
-50.862
-54.98
-58.126
-60.042
-60.425
-58.916
-55.358
-49.833
-42.732
-34.96
-27.432
-20.815
-15.856
-13.246
-13.238
-15.632
-19.608
-23.372
-24.998
-22.837
-14.947
0.405
24.315
57.252
98.487
145.809
196.469
247.318
294.178
332.684
358.519
367.592
357.272
326.269
274.03
201.324
110.697
5.785
-108.365
-225.874
-341.617
-450.509
-547.337
-627.903
-689.136
-729.103
-747.956
-746.98
-727.297
-691.099
-641.626
-582.355
-517.262
-450.147
-383.515
-319.668
-261.361
-210.615
-168.724
-136.114
-111.925
-94.938
-84.311
-78.764
-76.414
-75.367
-73.717
-70.349
-65.199
-58.467
-50.363
-41.344
-32.081
-23.455
-16.537
-11.851
-9.299
-8.593
-9.288
-10.93
-13.116
-15.315
-16.9
-17.479
-16.913
-15.201
-12.487
-8.898
-4.507
0.563
6.153
12.123
18.342
24.703
31.133
37.551
43.857
49.953
55.745
61.148
66.124
70.662
74.771
78.478
81.813
84.811
87.522
90
92.302
94.477
96.571
98.623
100.674
102.77
104.954
107.266
109.731
112.361
115.16
118.128
121.26
124.549
127.98
131.534
135.195
138.948
142.778
146.672
150.615
154.586
158.566
162.536
166.475
170.366
174.189
177.925
181.555
185.061
188.425
191.63
194.658
197.492
200.113
202.502
204.645
206.523
208.123
209.43
210.431
211.117
211.477
211.505
211.194
210.54
209.541
208.195
206.503
204.468
202.091
199.38
196.341
192.981
189.31
185.339
181.081
176.548
171.755
166.717
161.452
155.976
150.307
144.464
138.466
132.332
126.082
119.736
113.315
106.838
100.326
93.8
87.278
80.781
74.327
67.934
61.621
55.405
49.301
43.326
37.493
31.817
26.311
20.986
15.854
10.924
6.206
1.706
-2.568
-6.61
-10.416
-13.983
-17.308
-20.389
-23.227
-25.821
-28.174
-30.287
-32.165
-33.81
-35.229
-36.428
-37.412
-38.19
-38.77
-39.16
-39.37
-39.41
-39.29
-39.02
-38.612
-38.078
-37.427
-36.672
-35.825
-34.897
-33.9
-32.845
-31.743
-30.605
-29.441
-28.263
-27.079
-25.899
-24.731
-23.585
-22.468
-21.386
-20.348
-19.359
-18.425
-17.551
-16.74
-15.998
-15.325
-14.726
-14.2
-13.75
-13.376
-13.077
-12.853
-12.702
-12.621
-12.608
-12.661
-12.775
-12.946
-13.17
-13.443
-13.759
-14.113
-14.501
-14.918
-15.357
-15.815
-16.287
-16.767
-17.251
-17.736
-18.215
-18.687
-19.147
-19.593
-20.021
-20.429
-20.816
-21.18
-21.519
-21.833
-22.122
-22.386
-22.625
-22.841
-23.034
-23.207
-23.361
-23.5
-23.625
-23.741
-23.851
-23.958
-24.065
-24.176
-24.294
-24.422
-24.564
-24.721
-24.896
-25.091
-25.308
-25.548
-25.812
-26.1
-26.412
-26.748
-27.107
-27.486
-27.883
-28.295
-28.72
-29.152
-29.589
-30.026
-30.458
-30.88
-31.286
-31.67
-32.025
-32.347
-32.627
-32.859
-33.037
-33.156
-33.208
-33.19
-33.097
-32.924
-32.67
-32.332
-31.909
-31.4
-30.805
-30.125
-29.363
-28.52
-27.601
-26.608
-25.546
-24.423
-23.244
-22.019
-20.755
-19.46
-18.143
-16.816
-15.488
-14.171
-12.873
-11.602
-10.366
-9.174
-8.036
-6.964
-5.964
-5.042
-4.199
-3.44
-2.766
-2.176
-1.663
-1.208
-0.795
-0.411
-0.046
0.305
0.648
0.995
1.356
1.748
2.177
2.642
3.148
3.699
4.293
4.921
5.557
6.139
6.603
6.895
6.959
6.767
6.29
5.486
4.302
2.681
0.573
-2.056
-5.229
-9.003
-13.474
-18.653
-24.423
-30.508
-36.489
-41.979
-46.71
-50.398
-52.642
-53.178
-52.061
-49.7
-46.951
-44.675
-43.318
-43.219
-44.903
-48.647
-54.177
-60.631
-66.257
-69.02
-67.559
-60.641
-46.628
-24.221
7.24
47.63
95.274
147.574
202.245
256.465
306.191
347.182
375.049
385.704
376.833
347.209
295.798
223.024
131.333
24.396
-92.404
-212.778
-331.381
-442.869
-541.633
-623.268
-684.733
-724.24
-742.298
-740.744
-721.18
-686.225
-639.443
-584.21
-524.163
-462.778
-402.11
-343.761
-289.84
-241.698
-200.105
-165.717
-138.127
-116.407
-100.155
-88.693
-80.654
-74.869
-70.056
-64.853
-58.839
-52.061
-44.424
-36.153
-27.756
-19.668
-12.58
-7.262
-3.891
-2.336
-2.373
-3.571
-5.514
-7.84
-10.061
-11.663
-12.361
-12.035
-10.693
-8.462
-5.444
-1.722
2.582
7.322
12.366
17.596
22.913
28.243
33.508
38.615
43.477
48.01
52.143
55.842
59.104
61.945
64.394
66.489
68.271
69.792
71.114
72.292
73.378
74.421
75.461
76.54
77.705
78.998
80.459
82.114
83.975
86.047
88.332
90.824
93.517
96.397
99.446
102.645
105.981
109.437
113
116.653
120.374
124.143
127.939
131.739
135.523
139.271
142.96
146.569
150.077
153.463
156.708
159.792
162.695
165.394
167.872
170.108
172.086
173.789
175.201
176.31
177.103
177.572
177.709
177.509
176.966
176.08
174.849
173.276
171.364
169.118
166.546
163.655
160.456
156.961
153.182
149.135
144.835
140.299
135.545
130.592
125.461
120.17
114.743
109.199
103.561
97.851
92.09
86.301
80.505
74.723
68.976
63.283
57.665
52.139
46.723
41.433
36.285
31.292
26.466
21.821
17.366
13.109
9.06
5.224
1.607
-1.788
-4.957
-7.9
-10.616
-13.105
-15.37
-17.415
-19.243
-20.86
-22.271
-23.484
-24.507
-25.348
-26.016
-26.521
-26.873
-27.084
-27.163
-27.122
-26.972
-26.725
-26.391
-25.983
-25.51
-24.982
-24.411
-23.805
-23.174
-22.525
-21.868
-21.209
-20.555
-19.912
-19.285
-18.68
-18.099
-17.547
-17.026
-16.539
-16.086
-15.669
-15.289
-14.944
-14.635
-14.361
-14.119
-13.908
-13.725
-13.568
-13.434
-13.319
-13.22
-13.134
-13.056
-12.984
-12.914
-12.842
-12.765
-12.68
-12.585
-12.478
-12.355
-12.215
-12.058
-11.881
-11.685
-11.468
-11.232
-10.977
-10.704
-10.412
-10.105
-9.784
-9.45
-9.106
-8.754
-8.396
-8.035
-7.674
-7.316
-6.965
-6.622
-6.292
-5.979
-5.685
-5.413
-5.169
-4.954
-4.771
-4.624
-4.516
-4.448
-4.424
-4.444
-4.511
-4.626
-4.789
-5.001
-5.261
-5.57
-5.926
-6.328
-6.775
-7.264
-7.793
-8.359
-8.96
-9.592
-10.252
-10.936
-11.64
-12.361
-13.094
-13.833
-14.575
-15.314
-16.044
-16.761
-17.458
-18.13
-18.772
-19.378
-19.942
-20.459
-20.923
-21.329
-21.673
-21.951
-22.157
-22.288
-22.342
-22.316
-22.209
-22.02
-21.749
-21.397
-20.965
-20.457
-19.875
-19.222
-18.504
-17.724
-16.889
-16.004
-15.073
-14.104
-13.104
-12.079
-11.037
-9.986
-8.934
-7.891
-6.866
-5.868
-4.906
-3.987
-3.115
-2.296
-1.536
-0.84
-0.216
0.329
0.794
1.177
1.476
1.693
1.833
1.91
1.947
1.964
1.98
2.009
2.057
2.136
2.258
2.436
2.686
3.021
3.447
3.971
4.6
5.331
6.15
7.013
7.843
8.567
9.118
9.442
9.513
9.281
8.685
7.657
6.128
4.045
1.378
-1.936
-6.016
-10.889
-16.457
-22.465
-28.469
-34.058
-38.946
-42.824
-45.274
-46.028
-45.118
-42.946
-40.382
-38.276
-37.065
-37.087
-38.83
-42.54
-47.912
-54.022
-59.085
-61.086
-58.64
-50.517
-35.182
-11.379
21.484
63.165
112.053
165.643
221.592
277.109
328.371
371.213
401.402
415.011
409.359
382.833
334.284
263.854
173.473
66.504
-52.167
-176.709
-301.259
-419.875
-526.637
-616.517
-685.643
-731.627
-754.057
-753.807
-732.741
-693.883
-640.986
-578.211
-510.091
-440.721
-373.194
-310.298
-254.207
-206.284
-167.43
-137.535
-115.44
-99.814
-89.436
-82.722
-78.165
-74.301
-69.521
-63.097
-55.127
-45.857
-35.703
-25.286
-15.146
-6.022
1.121
5.909
8.437
8.943
7.916
5.836
3.072
0.149
-2.326
-3.989
-4.64
-4.212
-2.82
-0.548
2.545
6.333
10.683
15.465
20.554
25.853
31.29
36.773
42.216
47.526
52.608
57.385
61.788
65.776
69.346
72.508
75.289
77.726
79.858
81.734
83.415
84.952
86.396
87.792
89.174
90.585
92.068
93.66
95.401
97.314
99.409
101.691
104.16
106.811
109.635
112.619
115.741
118.985
122.334
125.773
129.288
132.863
136.477
140.109
143.739
147.346
150.911
154.412
157.831
161.147
164.341
167.395
170.292
173.015
175.545
177.865
179.957
181.806
183.397
184.716
185.75
186.488
186.92
187.04
186.842
186.321
185.475
184.304
182.807
180.988
178.85
176.4
173.643
170.588
167.247
163.628
159.747
155.615
151.249
146.663
141.875
136.901
131.76
126.469
121.048
115.515
109.89
104.192
98.439
92.651
86.846
81.043
75.26
69.513
63.82
58.197
52.659
47.219
41.893
36.692
31.629
26.715
21.958
17.37
12.957
8.726
4.685
0.836
-2.815
-6.265
-9.513
-12.558
-15.399
-18.037
-20.473
-22.709
-24.75
-26.597
-28.255
-29.73
-31.026
-32.149
-33.107
-33.904
-34.549
-35.048
-35.41
-35.641
-35.75
-35.744
-35.632
-35.422
-35.122
-34.74
-34.283
-33.761
-33.179
-32.547
-31.87
-31.156
-30.411
-29.642
-28.855
-28.055
-27.247
-26.438
-25.632
-24.832
-24.044
-23.271
-22.516
-21.783
-21.075
-20.393
-19.741
-19.12
-18.532
-17.978
-17.46
-16.978
-16.533
-16.126
-15.756
-15.424
-15.129
-14.87
-14.648
-14.46
-14.307
-14.186
-14.096
-14.037
-14.005
-14.001
-14.021
-14.065
-14.131
-14.217
-14.32
-14.44
-14.574
-14.72
-14.877
-15.043
-15.215
-15.394
-15.577
-15.762
-15.95
-16.138
-16.325
-16.511
-16.694
-16.873
-17.048
-17.217
-17.38
-17.538
-17.69
-17.836
-17.978
-18.115
-18.25
-18.383
-18.514
-18.646
-18.779
-18.914
-19.053
-19.197
-19.348
-19.507
-19.675
-19.854
-20.044
-20.246
-20.461
-20.689
-20.93
-21.182
-21.446
-21.72
-22.003
-22.294
-22.593
-22.899
-23.212
-23.531
-23.854
-24.182
-24.512
-24.841
-25.164
-25.476
-25.77
-26.041
-26.286
-26.499
-26.676
-26.812
-26.904
-26.951
-26.952
-26.902
-26.797
-26.625
-26.384
-26.075
-25.703
-25.281
-24.816
-24.315
-23.787
-23.248
-22.709
-22.174
-21.639
-21.086
-20.508
-19.905
-19.285
-18.668
-18.063
-17.461
-16.855
-16.233
-15.586
-14.913
-14.197
-13.405
-12.521
-11.543
-10.496
-9.427
-8.364
-7.311
-6.26
-5.193
-4.11
-3.028
-1.964
-0.926
0.079
1.048
1.959
2.757
3.412
3.923
4.31
4.626
4.89
5.083
5.174
5.131
4.937
4.592
4.088
3.386
2.447
1.236
-0.267
-2.04
-4.065
-6.359
-8.963
-11.929
-15.284
-19.017
-23.067
-27.411
-32.085
-37.014
-42.031
-46.848
-50.993
-54.041
-55.717
-55.658
-53.456
-49.08
-42.71
-34.848
-26.621
-18.955
-12.469
-8.051
-6.386
-7.361
-10.511
-14.645
-17.461
-17.067
-11.85
0.411
21.364
51.591
91.1
138.472
190.69
244.775
297.172
342.996
377.527
396.465
395.944
373.708
328.969
261.625
173.225
67.378
-51.087
-176.248
-301.817
-421.958
-530.982
-623.666
-696.045
-745.635
-771.891
-775.952
-759.564
-725.205
-676.359
-616.8
-550.608
-481.933
-413.652
-347.902
-287.053
-232.841
-186.356
-148.428
-118.718
-96.04
-79.682
-68.772
-61.74
-57.186
-53.56
-49.183
-43.439
-36.392
-28.012
-18.589
-8.738
1.036
9.922
16.971
21.904
24.807
25.86
25.499
24.148
22.131
19.929
18.053
16.74
16.109
16.179
16.823
17.963
19.524
21.378
23.401
25.494
27.577
29.611
31.58
33.462
35.268
37.013
38.718
40.434
42.184
43.978
45.854
47.844
49.991
52.347
54.936
57.781
60.907
64.321
68.018
71.974
76.126
80.411
84.775
89.152
93.501
97.797
102.001
106.089
110.045
113.847
117.491
120.978
124.297
127.451
130.452
133.322
136.11
138.855
141.582
144.321
147.083
149.873
152.696
155.542
158.392
161.227
164.027
166.765
169.424
171.982
174.41
176.679
178.75
180.59
182.174
183.479
184.487
185.183
185.555
185.597
185.31
184.697
183.757
182.494
180.909
179.005
176.789
174.268
171.452
168.352
164.976
161.335
157.442
153.309
148.949
144.376
139.604
134.646
129.52
124.243
118.834
113.313
107.697
102.007
96.262
90.484
84.691
78.901
73.135
67.41
61.743
56.152
50.653
45.261
39.991
34.857
29.872
25.048
20.397
15.928
11.651
7.574
3.705
0.049
-3.387
-6.602
-9.591
-12.354
-14.89
-17.2
-19.287
-21.154
-22.805
-24.245
-25.48
-26.518
-27.367
-28.034
-28.53
-28.864
-29.045
-29.086
-28.995
-28.784
-28.464
-28.045
-27.54
-26.957
-26.309
-25.606
-24.858
-24.076
-23.268
-22.445
-21.614
-20.785
-19.965
-19.161
-18.38
-17.627
-16.909
-16.229
-15.592
-15.001
-14.459
-13.969
-13.533
-13.151
-12.824
-12.553
-12.337
-12.174
-12.065
-12.008
-12
-12.04
-12.126
-12.254
-12.424
-12.631
-12.873
-13.147
-13.45
-13.779
-14.131
-14.504
-14.893
-15.297
-15.713
-16.138
-16.569
-17.004
-17.441
-17.877
-18.309
-18.735
-19.153
-19.561
-19.956
-20.337
-20.701
-21.047
-21.374
-21.679
-21.963
-22.223
-22.46
-22.673
-22.861
-23.024
-23.161
-23.273
-23.36
-23.421
-23.458
-23.471
-23.46
-23.427
-23.372
-23.298
-23.204
-23.094
-22.97
-22.833
-22.687
-22.535
-22.381
-22.227
-22.077
-21.937
-21.809
-21.699
-21.609
-21.545
-21.508
-21.502
-21.53
-21.594
-21.693
-21.831
-22.009
-22.226
-22.483
-22.782
-23.123
-23.508
-23.936
-24.407
-24.92
-25.473
-26.062
-26.683
-27.331
-27.999
-28.681
-29.368
-30.051
-30.724
-31.376
-32
-32.583
-33.11
-33.571
-33.959
-34.269
-34.498
-34.647
-34.72
-34.724
-34.673
-34.583
-34.465
-34.329
-34.177
-34.011
-33.832
-33.643
-33.449
-33.244
-33.013
-32.735
-32.383
-31.931
-31.353
-30.61
-29.652
-28.437
-26.931
-25.116
-22.989
-20.556
-17.824
-14.81
-11.534
-8.037
-4.38
-0.63
3.144
6.873
10.493
13.925
17.073
19.856
22.21
24.095
25.494
26.395
26.786
26.673
26.074
25.032
23.607
21.858
19.836
17.585
15.132
12.517
9.798
7.014
4.2
1.361
-1.54
-4.535
-7.659
-10.955
-14.451
-18.221
-22.403
-27.044
-32.103
-37.422
-42.665
-47.55
-51.937
-55.611
-58.306
-59.865
-60.177
-59.5
-58.571
-57.979
-58.011
-58.817
-60.324
-62.412
-65.087
-67.733
-68.99
-67.554
-62.311
-52.537
-38.078
-18.594
6.752
38.16
75.079
116.628
161.337
207.846
255.095
301.046
342.33
375.433
396.727
402.819
391.501
360.727
308.704
235.437
142.944
34.667
-84.306
-208.176
-331.594
-448.595
-553.046
-640.035
-705.896
-748.57
-768.02
-765.261
-741.832
-700.682
-645.834
-581.598
-512.54
-442.674
-375.132
-312.808
-258.227
-212.944
-177.348
-150.81
-131.941
-119.17
-110.904
-105.262
-100.247
-94.055
-85.681
-75.005
-62.378
-48.401
-33.789
-19.355
-6.102
4.916
13.173
18.691
21.739
22.784
22.314
20.777
18.744
16.837
15.435
14.711
14.72
15.399
16.712
18.629
21.049
23.828
26.843
29.986
33.181
36.378
39.502
42.46
45.19
47.649
49.834
51.766
53.469
54.956
56.256
57.434
58.566
59.73
61
62.437
64.09
66.01
68.243
70.825
73.766
77.052
80.643
84.485
88.528
92.733
97.055
101.432
105.807
110.127
114.35
118.453
122.413
126.206
129.812
133.22
136.434
139.469
142.355
145.129
147.817
150.438
153.009
155.546
158.061
160.557
163.026
165.452
167.817
170.106
172.303
174.388
176.338
178.124
179.715
181.077
182.181
183.005
183.529
183.738
183.619
183.164
182.372
181.247
179.794
178.016
175.917
173.503
170.783
167.766
164.464
160.891
157.059
152.983
148.678
144.16
139.443
134.544
129.481
124.268
118.923
113.465
107.914
102.288
96.61
90.897
85.171
79.453
73.761
68.114
62.531
57.029
51.623
46.33
41.164
36.138
31.265
26.555
22.02
17.668
13.508
9.548
5.793
2.248
-1.082
-4.195
-7.09
-9.765
-12.222
-14.463
-16.489
-18.305
-19.916
-21.326
-22.544
-23.576
-24.431
-25.118
-25.645
-26.024
-26.264
-26.376
-26.371
-26.26
-26.053
-25.761
-25.394
-24.962
-24.475
-23.943
-23.375
-22.78
-22.166
-21.542
-20.914
-20.291
-19.677
-19.079
-18.503
-17.952
-17.43
-16.942
-16.491
-16.078
-15.705
-15.374
-15.086
-14.84
-14.637
-14.476
-14.355
-14.273
-14.228
-14.217
-14.238
-14.289
-14.366
-14.466
-14.588
-14.726
-14.879
-15.044
-15.217
-15.395
-15.575
-15.755
-15.932
-16.104
-16.268
-16.424
-16.569
-16.701
-16.819
-16.922
-17.009
-17.078
-17.128
-17.158
-17.168
-17.158
-17.128
-17.076
-17.005
-16.913
-16.802
-16.673
-16.525
-16.361
-16.18
-15.985
-15.777
-15.558
-15.331
-15.097
-14.859
-14.62
-14.382
-14.147
-13.918
-13.697
-13.486
-13.287
-13.103
-12.935
-12.785
-12.658
-12.555
-12.479
-12.434
-12.421
-12.443
-12.503
-12.602
-12.743
-12.927
-13.156
-13.43
-13.753
-14.125
-14.546
-15.018
-15.539
-16.109
-16.725
-17.385
-18.084
-18.818
-19.583
-20.375
-21.189
-22.021
-22.868
-23.725
-24.59
-25.459
-26.327
-27.189
-28.035
-28.859
-29.651
-30.404
-31.106
-31.749
-32.322
-32.82
-33.237
-33.571
-33.814
-33.961
-33.999
-33.921
-33.727
-33.417
-32.992
-32.455
-31.814
-31.083
-30.291
-29.462
-28.617
-27.763
-26.902
-26.035
-25.166
-24.3
-23.442
-22.58
-21.701
-20.798
-19.87
-18.916
-17.93
-16.882
-15.722
-14.404
-12.905
-11.215
-9.343
-7.29
-5.056
-2.657
-0.126
2.477
5.084
7.652
10.155
12.564
14.851
16.955
18.783
20.265
21.355
22.016
22.232
21.968
21.185
19.88
18.084
15.866
13.307
10.457
7.341
3.984
0.41
-3.345
-7.205
-11.125
-15.083
-19.034
-22.954
-26.806
-30.527
-34.105
-37.553
-40.893
-44.194
-47.539
-50.897
-54.161
-57.131
-59.484
-60.968
-61.398
-60.499
-57.93
-53.518
-47.388
-40.01
-32.173
-24.625
-17.805
-12.158
-8.351
-6.8
-7.334
-9.212
-10.985
-10.947
-7.848
-0.401
13.177
34.285
63.528
100.707
144.312
191.924
241.062
288.502
329.842
360.581
376.523
374.066
350.985
306.273
239.811
153.08
49.554
-65.979
-187.825
-309.828
-425.991
-530.662
-618.8
-686.482
-731.483
-753.338
-752.849
-731.977
-693.675
-641.57
-579.793
-512.795
-444.551
-378.123
-316.242
-260.986
-213.683
-175.175
-145.309
-122.949
-106.783
-95.607
-87.893
-82.206
-77.163
-71.259
-63.818
-54.948
-44.91
-34.121
-23.19
-12.639
-3.153
4.355
9.528
12.456
13.346
12.662
10.883
8.372
5.626
3.222
1.492
0.608
0.64
1.479
3.02
5.201
7.894
10.975
14.363
17.979
21.78
25.735
29.772
33.822
37.822
41.704
45.42
48.942
52.244
55.352
58.329
61.234
64.129
67.053
70.02
73.038
76.102
79.21
82.368
85.585
88.868
92.233
95.696
99.264
102.944
106.714
110.527
114.345
118.132
121.869
125.555
129.198
132.817
136.433
140.057
143.698
147.354
151.016
154.671
158.3
161.885
165.414
168.887
172.3
175.647
178.914
182.08
185.115
187.985
190.656
193.096
195.274
197.171
198.766
200.048
201.007
201.638
201.936
201.894
201.505
200.764
199.669
198.221
196.425
194.287
191.817
189.025
185.923
182.524
178.84
174.883
170.666
166.203
161.505
156.59
151.474
146.175
140.712
135.106
129.376
123.543
117.628
111.651
105.633
99.593
93.551
87.525
81.535
75.598
69.732
63.953
58.276
52.716
47.288
42.003
36.873
31.908
27.118
22.511
18.095
13.875
9.858
6.048
2.448
-0.939
-4.112
-7.071
-9.814
-12.345
-14.665
-16.777
-18.686
-20.396
-21.913
-23.244
-24.394
-25.37
-26.181
-26.834
-27.338
-27.701
-27.933
-28.041
-28.035
-27.925
-27.718
-27.424
-27.052
-26.609
-26.105
-25.546
-24.943
-24.301
-23.628
-22.931
-22.218
-21.493
-20.764
-20.035
-19.311
-18.598
-17.899
-17.218
-16.56
-15.927
-15.322
-14.747
-14.205
-13.697
-13.225
-12.789
-12.389
-12.025
-11.698
-11.407
-11.152
-10.931
-10.744
-10.589
-10.466
-10.372
-10.306
-10.267
-10.252
-10.259
-10.288
-10.335
-10.401
-10.483
-10.58
-10.692
-10.817
-10.954
-11.102
-11.26
-11.427
-11.603
-11.785
-11.974
-12.169
-12.369
-12.575
-12.787
-13.006
-13.232
-13.465
-13.707
-13.959
-14.221
-14.495
-14.783
-15.085
-15.403
-15.738
-16.093
-16.469
-16.866
-17.286
-17.728
-18.193
-18.679
-19.187
-19.712
-20.253
-20.809
-21.378
-21.957
-22.545
-23.141
-23.742
-24.349
-24.96
-25.572
-26.181
-26.782
-27.369
-27.937
-28.478
-28.985
-29.45
-29.866
-30.226
-30.529
-30.77
-30.941
-31.035
-31.042
-30.954
-30.772
-30.495
-30.123
-29.662
-29.119
-28.513
-27.869
-27.206
-26.532
-25.85
-25.156
-24.447
-23.724
-22.986
-22.227
-21.446
-20.632
-19.784
-18.908
-17.991
-17.015
-15.945
-14.73
-13.342
-11.782
-10.053
-8.173
-6.168
-4.059
-1.886
0.299
2.461
4.574
6.623
8.605
10.492
12.236
13.783
15.062
16.03
16.682
17.009
17.012
16.711
16.129
15.314
14.33
13.201
11.919
10.475
8.845
7.03
5.053
2.926
0.664
-1.737
-4.306
-7.058
-9.999
-13.149
-16.534
-20.207
-24.222
-28.581
-33.247
-38.147
-43.231
-48.496
-53.863
-59.157
-64.106
-68.286
-71.307
-72.914
-72.765
-70.495
-66.022
-59.411
-51.112
-42.117
-33.276
-25.28
-18.923
-14.764
-12.864
-12.987
-14.054
-14.135
-11.46
-4.177
9.575
31.106
61.075
99.305
144.276
193.294
243.144
289.719
328.513
355.072
365.27
356.114
325.729
273.475
200.16
108.243
1.692
-114.191
-233.57
-350.905
-460.383
-556.601
-635.187
-692.833
-728.234
-741.981
-735.352
-710.275
-669.954
-618.058
-558.649
-496.146
-433.633
-373.173
-316.977
-266.704
-223.284
-187.385
-158.551
-135.397
-117.148
-103.165
-92.253
-83.416
-75.522
-67.205
-58.088
-48.474
-38.443
-28.246
-18.356
-9.073
-1.02
4.947
8.602
10.093
9.64
7.721
4.785
1.165
-2.617
-5.971
-8.536
-10.084
-10.533
-9.97
-8.454
-6.034
-2.818
1.074
5.523
10.402
15.613
21.068
26.668
32.316
37.907
43.332
48.503
53.335
57.782
61.836
65.503
68.807
71.781
74.46
76.892
79.134
81.24
83.256
85.229
87.194
89.193
91.271
93.469
95.824
98.358
101.079
103.99
107.086
110.359
113.797
117.383
121.092
124.905
128.803
132.769
136.787
140.838
144.899
148.949
152.964
156.925
160.81
164.598
168.27
171.804
175.183
178.387
181.4
184.204
186.781
189.111
191.179
192.966
194.459
195.643
196.506
197.037
197.225
197.066
196.553
195.683
194.453
192.865
190.918
188.618
185.968
182.976
179.649
175.997
172.032
167.767
163.215
158.392
153.314
148
142.468
136.737
130.829
124.764
118.565
112.253
105.852
99.383
92.871
86.338
79.807
73.3
66.839
60.445
54.139
47.941
41.869
35.941
30.174
24.582
19.181
13.984
9.001
4.245
-0.277
-4.557
-8.588
-12.366
-15.886
-19.147
-22.147
-24.887
-27.368
-29.594
-31.569
-33.297
-34.786
-36.043
-37.077
-37.897
-38.512
-38.935
-39.176
-39.248
-39.163
-38.933
-38.572
-38.093
-37.508
-36.831
-36.074
-35.25
-34.37
-33.447
-32.492
-31.514
-30.524
-29.532
-28.546
-27.573
-26.622
-25.699
-24.81
-23.96
-23.154
-22.395
-21.686
-21.031
-20.43
-19.885
-19.396
-18.962
-18.584
-18.26
-17.989
-17.767
-17.594
-17.466
-17.381
-17.335
-17.325
-17.348
-17.4
-17.479
-17.582
-17.704
-17.844
-17.998
-18.165
-18.343
-18.529
-18.722
-18.92
-19.123
-19.329
-19.538
-19.749
-19.962
-20.176
-20.392
-20.61
-20.829
-21.052
-21.278
-21.508
-21.743
-21.984
-22.232
-22.488
-22.753
-23.029
-23.316
-23.615
-23.928
-24.255
-24.597
-24.955
-25.328
-25.718
-26.124
-26.545
-26.98
-27.429
-27.89
-28.36
-28.839
-29.323
-29.811
-30.3
-30.788
-31.272
-31.749
-32.216
-32.671
-33.11
-33.531
-33.929
-34.302
-34.645
-34.957
-35.233
-35.47
-35.665
-35.814
-35.915
-35.963
-35.957
-35.892
-35.766
-35.576
-35.321
-35
-34.612
-34.156
-33.634
-33.048
-32.4
-31.694
-30.934
-30.122
-29.263
-28.362
-27.423
-26.453
-25.454
-24.433
-23.397
-22.353
-21.309
-20.274
-19.255
-18.259
-17.294
-16.368
-15.488
-14.664
-13.898
-13.198
-12.568
-12.018
-11.556
-11.189
-10.915
-10.732
-10.634
-10.612
-10.659
-10.761
-10.896
-11.045
-11.191
-11.316
-11.411
-11.465
-11.46
-11.381
-11.205
-10.917
-10.517
-10.008
-9.394
-8.693
-7.918
-7.098
-6.288
-5.535
-4.887
-4.403
-4.122
-4.087
-4.344
-4.925
-5.871
-7.235
-9.045
-11.333
-14.126
-17.402
-21.169
-25.468
-30.218
-35.252
-40.308
-44.947
-48.779
-51.54
-52.892
-52.442
-50.026
-45.718
-39.945
-33.653
-27.744
-22.811
-19.477
-18.314
-19.454
-22.586
-26.77
-30.101
-30.573
-26.581
-16.406
1.482
27.853
62.886
105.795
154.295
205.65
256.983
304.478
344.061
372.007
384.639
379.211
354.437
309.378
243.99
160.121
60.743
-50.095
-167.114
-285.217
-399.559
-504.503
-594.98
-667.266
-718.546
-747.91
-756.122
-744.1
-713.595
-667.984
-610.941
-546.462
-478.878
-411.171
-345.606
-284.917
-231.17
-185.489
-148.668
-120.286
-99.001
-84.044
-74.492
-68.669
-65.092
-62.22
-58.477
-53.373
-47.078
-39.609
-31.277
-22.695
-14.38
-7.129
-1.812
1.366
2.557
2.035
0.282
-2.242
-5.143
-7.897
-9.961
-11.034
-10.988
-9.839
-7.725
-4.757
-1.028
3.336
8.188
13.39
18.823
24.384
29.995
35.576
41.032
46.271
51.207
55.765
59.904
63.619
66.924
69.845
72.421
74.689
76.699
78.51
80.179
81.755
83.284
84.804
86.354
87.978
89.715
91.602
93.664
95.91
98.342
100.959
103.754
106.717
109.834
113.084
116.448
119.91
123.454
127.067
130.732
134.43
138.139
141.839
145.511
149.136
152.695
156.168
159.535
162.779
165.883
168.829
171.602
174.184
176.558
178.708
180.618
182.275
183.666
184.778
185.602
186.13
186.354
186.27
185.874
185.164
184.139
182.801
181.151
179.194
176.933
174.376
171.531
168.405
165.01
161.356
157.458
153.328
148.981
144.434
139.703
134.805
129.758
124.581
119.293
113.912
108.457
102.949
97.405
91.846
86.289
80.752
75.254
69.812
64.441
59.158
53.976
48.911
43.976
39.182
34.542
30.067
25.765
21.646
17.717
13.987
10.459
7.138
4.029
1.132
-1.55
-4.019
-6.275
-8.32
-10.159
-11.794
-13.233
-14.481
-15.545
-16.433
-17.154
-17.717
-18.132
-18.408
-18.556
-18.587
-18.511
-18.338
-18.081
-17.748
-17.352
-16.902
-16.408
-15.882
-15.331
-14.766
-14.196
-13.628
-13.07
-12.529
-12.013
-11.525
-11.073
-10.659
-10.287
-9.96
-9.681
-9.449
-9.265
-9.129
-9.04
-8.996
-8.995
-9.033
-9.107
-9.214
-9.35
-9.509
-9.689
-9.884
-10.09
-10.303
-10.517
-10.728
-10.932
-11.125
-11.303
-11.463
-11.601
-11.715
-11.802
-11.86
-11.888
-11.884
-11.848
-11.78
-11.68
-11.549
-11.388
-11.199
-10.986
-10.751
-10.497
-10.228
-9.95
-9.665
-9.379
-9.097
-8.823
-8.564
-8.324
-8.108
-7.921
-7.768
-7.654
-7.582
-7.557
-7.582
-7.66
-7.794
-7.986
-8.238
-8.55
-8.924
-9.359
-9.855
-10.41
-11.022
-11.689
-12.407
-13.173
-13.982
-14.829
-15.71
-16.617
-17.546
-18.488
-19.437
-20.385
-21.325
-22.248
-23.147
-24.015
-24.841
-25.62
-26.343
-27.002
-27.59
-28.101
-28.526
-28.861
-29.1
-29.238
-29.269
-29.193
-29.004
-28.703
-28.287
-27.759
-27.119
-26.371
-25.518
-24.565
-23.517
-22.381
-21.163
-19.872
-18.516
-17.103
-15.643
-14.145
-12.622
-11.085
-9.544
-8.013
-6.502
-5.023
-3.588
-2.21
-0.9
0.334
1.483
2.539
3.493
4.333
5.053
5.652
6.129
6.489
6.735
6.871
6.91
6.871
6.774
6.641
6.487
6.323
6.163
6.023
5.922
5.884
5.927
6.051
6.263
6.56
6.935
7.384
7.882
8.377
8.813
9.13
9.272
9.203
8.888
8.29
7.362
6.039
4.263
1.993
-0.805
-4.142
-8.046
-12.592
-17.75
-23.339
-29.078
-34.55
-39.375
-43.323
-46.108
-47.316
-46.708
-44.343
-40.614
-36.334
-32.276
-28.827
-26.352
-25.413
-26.297
-28.784
-32.057
-34.489
-34.28
-30.216
-21.121
-5.403
18.146
50.062
90.098
136.564
187.012
239.251
290.438
336.523
373.357
396.756
402.908
389.649
355.678
299.963
223.077
127.529
17.019
-103.174
-227.065
-349.281
-464.12
-565.772
-649.65
-712.324
-751.801
-768.186
-762.574
-736.567
-693.185
-636.246
-569.809
-498.426
-426.115
-355.866
-290.624
-232.866
-184.058
-145.105
-115.868
-95.081
-81.391
-73.449
-69.374
-67.381
-65.817
-63.039
-58.361
-51.894
-43.88
-34.799
-25.391
-16.324
-8.419
-2.594
0.857
2.082
1.385
-0.714
-3.706
-7.157
-10.524
-13.228
-14.933
-15.501
-14.929
-13.349
-10.875
-7.585
-3.606
0.912
5.832
11.027
16.39
21.842
27.299
32.656
37.816
42.683
47.173
51.245
54.888
58.112
60.942
63.413
65.563
67.442
69.111
70.627
72.045
73.411
74.765
76.153
77.621
79.213
80.972
82.923
85.077
87.439
90.008
92.779
95.744
98.886
102.187
105.626
109.189
112.859
116.624
120.466
124.363
128.295
132.242
136.181
140.093
143.957
147.753
151.461
155.06
158.533
161.86
165.025
168.007
170.788
173.348
175.671
177.74
179.54
181.057
182.277
183.191
183.789
184.064
184.012
183.627
182.907
181.852
180.463
178.741
176.69
174.316
171.626
168.628
165.331
161.748
157.891
153.773
149.41
144.818
140.013
135.013
129.836
124.501
119.027
113.433
107.74
101.967
96.133
90.259
84.364
78.466
72.586
66.74
60.947
55.223
49.583
44.045
38.621
33.327
28.174
23.175
18.342
13.684
9.21
4.928
0.846
-3.031
-6.699
-10.154
-13.394
-16.416
-19.221
-21.81
-24.184
-26.344
-28.295
-30.04
-31.585
-32.933
-34.093
-35.07
-35.872
-36.506
-36.98
-37.303
-37.483
-37.529
-37.452
-37.259
-36.96
-36.566
-36.085
-35.528
-34.903
-34.22
-33.487
-32.713
-31.907
-31.075
-30.226
-29.365
-28.5
-27.636
-26.778
-25.932
-25.101
-24.29
-23.503
-22.742
-22.01
-21.309
-20.64
-20.006
-19.407
-18.845
-18.318
-17.828
-17.375
-16.956
-16.573
-16.223
-15.905
-15.618
-15.36
-15.128
-14.922
-14.739
-14.576
-14.434
-14.309
-14.2
-14.107
-14.027
-13.959
-13.903
-13.858
-13.823
-13.799
-13.784
-13.78
-13.787
-13.804
-13.833
-13.873
-13.926
-13.992
-14.072
-14.166
-14.276
-14.403
-14.548
-14.712
-14.896
-15.102
-15.331
-15.583
-15.86
-16.164
-16.494
-16.852
-17.238
-17.652
-18.095
-18.566
-19.064
-19.59
-20.14
-20.714
-21.309
-21.923
-22.554
-23.197
-23.85
-24.509
-25.171
-25.831
-26.487
-27.132
-27.765
-28.379
-28.971
-29.535
-30.068
-30.565
-31.02
-31.43
-31.791
-32.097
-32.345
-32.53
-32.649
-32.699
-32.676
-32.577
-32.401
-32.145
-31.809
-31.392
-30.896
-30.322
-29.672
-28.951
-28.161
-27.308
-26.398
-25.436
-24.429
-23.384
-22.307
-21.207
-20.09
-18.964
-17.838
-16.721
-15.621
-14.546
-13.505
-12.508
-11.562
-10.676
-9.858
-9.111
-8.44
-7.849
-7.344
-6.932
-6.617
-6.397
-6.27
-6.234
-6.284
-6.412
-6.606
-6.841
-7.094
-7.344
-7.573
-7.773
-7.93
-8.03
-8.054
-7.982
-7.802
-7.512
-7.11
-6.595
-5.97
-5.252
-4.475
-3.706
-3.019
-2.479
-2.141
-2.046
-2.222
-2.717
-3.592
-4.904
-6.709
-9.048
-11.934
-15.418
-19.576
-24.391
-29.717
-35.263
-40.592
-45.307
-49.133
-51.759
-52.791
-52.003
-49.477
-45.645
-41.336
-37.382
-34.257
-32.38
-32.356
-34.454
-38.352
-43.153
-47.163
-48.459
-45.702
-37.578
-22.351
1.159
33.341
73.763
120.533
171.051
222.969
273.224
317.623
352.056
372.515
375.55
359.336
322.692
264.796
186.487
90.415
-19.498
-137.893
-259.069
-377.809
-488.294
-584.821
-662.89
-719.178
-752.344
-763.038
-752.482
-722.596
-676.852
-619.233
-554.064
-485.984
-418.233
-353.074
-293.034
-239.971
-194.827
-158.216
-129.567
-107.402
-90.889
-79.19
-70.813
-64.511
-58.962
-52.725
-45.428
-37.335
-28.501
-19.217
-10.032
-1.359
6.089
11.456
14.544
15.528
14.682
12.495
9.425
5.844
2.282
-0.678
-2.693
-3.6
-3.382
-2.159
-0.029
2.941
6.638
10.92
15.65
20.699
25.956
31.337
36.756
42.106
47.283
52.185
56.717
60.832
64.518
67.783
70.652
73.157
75.335
77.235
78.919
80.446
81.868
83.234
84.585
85.966
87.427
89.014
90.773
92.73
94.898
97.282
99.882
102.692
105.703
108.899
112.259
115.762
119.394
123.136
126.975
130.892
134.866
138.874
142.894
146.904
150.883
154.809
158.661
162.418
166.058
169.564
172.915
176.092
179.075
181.844
184.378
186.66
188.671
190.395
191.817
192.923
193.703
194.146
194.246
193.996
193.394
192.436
191.122
189.455
187.436
185.072
182.369
179.336
175.982
172.319
168.36
164.121
159.617
154.865
149.884
144.693
139.313
133.764
128.069
122.248
116.326
110.324
104.265
98.173
92.068
85.975
79.913
73.905
67.969
62.126
56.392
50.786
45.322
40.017
34.882
29.931
25.174
20.621
16.28
12.158
8.26
4.591
1.154
-2.05
-5.021
-7.759
-10.267
-12.549
-14.608
-16.451
-18.085
-19.516
-20.753
-21.805
-22.682
-23.394
-23.951
-24.364
-24.645
-24.804
-24.852
-24.802
-24.663
-24.448
-24.165
-23.826
-23.44
-23.016
-22.563
-22.089
-21.601
-21.105
-20.61
-20.118
-19.637
-19.17
-18.72
-18.291
-17.885
-17.503
-17.147
-16.816
-16.511
-16.232
-15.977
-15.744
-15.533
-15.341
-15.167
-15.007
-14.859
-14.721
-14.59
-14.463
-14.337
-14.21
-14.08
-13.944
-13.8
-13.647
-13.484
-13.309
-13.121
-12.921
-12.707
-12.48
-12.239
-11.986
-11.722
-11.447
-11.162
-10.871
-10.574
-10.275
-9.974
-9.676
-9.382
-9.096
-8.82
-8.557
-8.31
-8.081
-7.874
-7.691
-7.535
-7.408
-7.314
-7.254
-7.23
-7.245
-7.299
-7.395
-7.532
-7.711
-7.934
-8.201
-8.511
-8.865
-9.262
-9.701
-10.182
-10.704
-11.265
-11.862
-12.494
-13.158
-13.851
-14.57
-15.312
-16.071
-16.846
-17.632
-18.424
-19.219
-20.011
-20.797
-21.571
-22.33
-23.067
-23.779
-24.46
-25.106
-25.711
-26.273
-26.786
-27.246
-27.648
-27.989
-28.264
-28.469
-28.601
-28.656
-28.63
-28.521
-28.326
-28.045
-27.675
-27.217
-26.671
-26.039
-25.324
-24.528
-23.656
-22.71
-21.696
-20.618
-19.481
-18.292
-17.056
-15.779
-14.469
-13.135
-11.787
-10.435
-9.088
-7.754
-6.444
-5.166
-3.932
-2.749
-1.625
-0.568
0.412
1.306
2.102
2.791
3.373
3.847
4.218
4.491
4.675
4.782
4.83
4.836
4.812
4.77
4.717
4.663
4.622
4.61
4.645
4.738
4.891
5.103
5.373
5.688
6.029
6.37
6.667
6.88
6.978
6.927
6.687
6.224
5.495
4.468
3.126
1.442
-0.617
-3.077
-5.978
-9.332
-13.116
-17.334
-22.006
-27.071
-32.371
-37.634
-42.442
-46.434
-49.373
-50.964
-50.837
-48.819
-45.052
-40.043
-34.689
-29.846
-25.981
-23.548
-23.198
-25.188
-29.149
-34.096
-38.232
-39.617
-36.937
-28.842
-13.554
10.077
42.385
82.835
129.426
179.568
230.874
280.105
322.925
355.16
372.809
372.585
352.767
312.151
250.074
167.749
68.2
-44.315
-164.281
-286.099
-404.533
-513.617
-607.707
-682.547
-735.169
-764.602
-771.655
-757.494
-724.116
-675.22
-614.947
-547.693
-478.036
-409.136
-343.328
-283.314
-231.034
-187.337
-152.668
-126.302
-106.645
-92.761
-83.64
-77.551
-73.073
-68.845
-63.494
-56.723
-48.87
-40.045
-30.61
-21.227
-12.372
-4.77
0.775
4.13
5.484
5.113
3.512
1.133
-1.683
-4.46
-6.7
-8.14
-8.639
-8.204
-6.983
-5.07
-2.533
0.551
4.092
7.989
12.138
16.445
20.835
25.241
29.608
33.87
37.958
41.818
45.409
48.75
51.895
54.878
57.718
60.404
62.931
65.326
67.635
69.903
72.163
74.434
76.731
79.088
81.544
84.126
86.847
89.686
92.604
95.587
98.64
101.788
105.051
108.424
111.894
115.45
119.091
122.816
126.613
130.458
134.319
138.174
142.009
145.822
149.611
153.363
157.05
160.638
164.098
167.404
170.535
173.465
176.166
178.613
180.788
182.683
184.29
185.597
186.592
187.259
187.589
187.575
187.213
186.503
185.445
184.039
182.29
180.204
177.791
175.06
172.019
168.676
165.043
161.132
156.957
152.534
147.88
143.011
137.947
132.708
127.315
121.789
116.152
110.424
104.627
98.783
92.912
87.035
81.172
75.343
69.567
63.863
58.247
52.737
47.348
42.093
36.987
32.041
27.266
22.672
18.267
14.058
10.051
6.251
2.661
-0.717
-3.881
-6.831
-9.569
-12.097
-14.418
-16.537
-18.46
-20.193
-21.743
-23.118
-24.325
-25.374
-26.274
-27.034
-27.663
-28.171
-28.567
-28.861
-29.063
-29.181
-29.225
-29.203
-29.123
-28.994
-28.822
-28.614
-28.375
-28.113
-27.832
-27.535
-27.228
-26.913
-26.593
-26.271
-25.947
-25.624
-25.301
-24.98
-24.66
-24.34
-24.021
-23.7
-23.378
-23.052
-22.722
-22.386
-22.042
-21.691
-21.329
-20.958
-20.575
-20.18
-19.773
-19.355
-18.924
-18.482
-18.029
-17.567
-17.096
-16.62
-16.139
-15.656
-15.173
-14.694
-14.22
-13.755
-13.301
-12.863
-12.442
-12.043
-11.667
-11.318
-10.998
-10.711
-10.459
-10.244
-10.068
-9.933
-9.842
-9.795
-9.795
-9.842
-9.936
-10.077
-10.266
-10.502
-10.783
-11.109
-11.477
-11.887
-12.337
-12.825
-13.349
-13.907
-14.496
-15.114
-15.758
-16.426
-17.115
-17.822
-18.544
-19.28
-20.025
-20.78
-21.539
-22.302
-23.064
-23.824
-24.579
-25.324
-26.056
-26.771
-27.466
-28.137
-28.782
-29.398
-29.984
-30.539
-31.062
-31.555
-32.014
-32.437
-32.822
-33.164
-33.46
-33.705
-33.894
-34.022
-34.082
-34.073
-33.994
-33.845
-33.623
-33.323
-32.939
-32.467
-31.911
-31.272
-30.555
-29.765
-28.912
-28.013
-27.092
-26.175
-25.278
-24.408
-23.564
-22.748
-21.96
-21.203
-20.478
-19.774
-19.078
-18.378
-17.667
-16.938
-16.173
-15.343
-14.4
-13.304
-12.027
-10.567
-8.93
-7.125
-5.16
-3.051
-0.821
1.482
3.807
6.116
8.375
10.558
12.63
14.538
16.207
17.578
18.604
19.265
19.557
19.465
18.981
18.102
16.831
15.218
13.312
11.14
8.728
6.079
3.191
0.091
-3.178
-6.587
-10.095
-13.69
-17.393
-21.191
-25.082
-29.064
-33.096
-37.22
-41.543
-46.024
-50.528
-54.81
-58.426
-61.031
-62.456
-62.379
-60.42
-56.564
-50.99
-44.255
-37.507
-31.592
-26.966
-24.311
-24.157
-26.358
-30.442
-35.162
-38.216
-37.827
-32.627
-20.756
-0.803
27.824
65.249
110.16
159.745
211.489
262.536
308.77
346.169
370.754
378.662
367.745
337.147
286.119
215.238
127.02
24.905
-86.153
-200.306
-312.638
-418.24
-511.887
-589.462
-648.093
-685.996
-703.539
-702.34
-683.81
-650.382
-605.421
-552.154
-494.112
-434.69
-375.921
-319.384
-267.108
-220.362
-179.864
-146.222
-119.007
-97.301
-80.728
-68.685
-59.953
-53.516
-48.228
-42.821
-36.92
-30.581
-23.694
-16.418
-9.152
-2.213
3.814
8.221
10.848
11.834
11.398
9.952
7.889
5.535
3.337
1.79
1.171
1.582
2.995
5.239
8.158
11.642
15.558
19.757
24.123
28.56
32.993
37.398
41.734
45.938
49.954
53.714
57.16
60.292
63.148
65.799
68.348
70.875
73.443
76.118
78.943
81.944
85.128
88.466
91.928
95.51
99.208
103.041
107.025
111.146
115.376
119.675
123.979
128.243
132.429
136.494
140.418
144.194
147.831
151.37
154.844
158.268
161.647
164.974
168.236
171.426
174.54
177.566
180.505
183.354
186.105
188.758
191.3
193.71
195.961
198.013
199.829
201.38
202.644
203.604
204.247
204.563
204.545
204.194
203.506
202.481
201.117
199.411
197.363
194.978
192.265
189.232
185.894
182.261
178.345
174.162
169.723
165.043
160.136
155.015
149.694
144.19
138.521
132.705
126.763
120.713
114.577
108.374
102.127
95.855
89.577
83.314
77.083
70.902
64.79
58.763
52.837
47.026
41.346
35.808
30.427
25.212
20.175
15.324
10.669
6.216
1.971
-2.061
-5.875
-9.469
-12.841
-15.99
-18.917
-21.622
-24.109
-26.38
-28.44
-30.294
-31.948
-33.409
-34.686
-35.785
-36.715
-37.486
-38.106
-38.585
-38.932
-39.156
-39.267
-39.275
-39.188
-39.015
-38.766
-38.449
-38.073
-37.645
-37.172
-36.663
-36.123
-35.56
-34.978
-34.383
-33.779
-33.172
-32.565
-31.961
-31.363
-30.773
-30.194
-29.627
-29.074
-28.534
-28.008
-27.498
-27.002
-26.521
-26.054
-25.601
-25.161
-24.735
-24.322
-23.921
-23.533
-23.158
-22.795
-22.444
-22.107
-21.785
-21.477
-21.185
-20.909
-20.652
-20.415
-20.199
-20.006
-19.839
-19.698
-19.587
-19.507
-19.46
-19.449
-19.475
-19.54
-19.647
-19.796
-19.99
-20.229
-20.515
-20.849
-21.231
-21.662
-22.14
-22.666
-23.239
-23.856
-24.516
-25.216
-25.954
-26.725
-27.525
-28.351
-29.198
-30.061
-30.934
-31.812
-32.69
-33.561
-34.418
-35.255
-36.066
-36.843
-37.58
-38.271
-38.909
-39.488
-40.001
-40.444
-40.809
-41.093
-41.29
-41.395
-41.405
-41.316
-41.125
-40.832
-40.434
-39.933
-39.329
-38.624
-37.824
-36.931
-35.952
-34.89
-33.753
-32.548
-31.282
-29.964
-28.6
-27.2
-25.774
-24.333
-22.888
-21.452
-20.034
-18.647
-17.301
-16.007
-14.777
-13.62
-12.546
-11.56
-10.673
-9.895
-9.236
-8.705
-8.304
-8.03
-7.881
-7.85
-7.93
-8.106
-8.357
-8.661
-9
-9.354
-9.713
-10.061
-10.379
-10.647
-10.84
-10.94
-10.941
-10.842
-10.645
-10.357
-9.995
-9.591
-9.205
-8.891
-8.706
-8.707
-8.941
-9.459
-10.312
-11.539
-13.186
-15.296
-17.898
-21.016
-24.673
-28.852
-33.546
-38.762
-44.37
-50.165
-55.874
-61.076
-65.397
-68.572
-70.221
-69.911
-67.557
-63.264
-57.404
-50.874
-44.362
-38.305
-33.472
-30.53
-29.515
-30.183
-31.62
-31.935
-29.635
-23.401
-11.276
8.203
35.685
71.337
113.958
161.047
210.16
258.141
300.613
333.423
352.613
354.691
337.721
300.642
242.983
166.004
72.716
-32.821
-145.399
-259.708
-370.853
-473.369
-562.107
-633.167
-683.809
-713.102
-721.644
-710.353
-680.9
-636.536
-581.113
-518.823
-453.963
-389.577
-328.147
-272.421
-224.473
-185.34
-155.144
-132.842
-116.806
-105.889
-98.766
-93.609
-88.73
-82.593
-74.369
-64.234
-52.724
-40.309
-27.605
-15.385
-4.462
4.257
10.334
13.907
15.299
14.955
13.347
10.9
8.107
5.518
3.486
2.172
1.655
1.913
2.916
4.656
7.065
10.039
13.489
17.333
21.493
25.906
30.491
35.155
39.819
44.414
48.876
53.154
57.197
60.958
64.417
67.579
70.46
73.091
75.507
77.748
79.861
81.899
83.911
85.941
88.027
90.199
92.489
94.924
97.533
100.341
103.361
106.598
110.049
113.708
117.561
121.594
125.786
130.112
134.546
139.065
143.647
148.271
152.911
157.542
162.138
166.67
171.112
175.438
179.623
183.64
187.466
191.077
194.451
197.568
200.409
202.952
205.181
207.077
208.626
209.812
210.626
211.057
211.097
210.741
209.988
208.836
207.288
205.348
203.022
200.318
197.246
193.819
190.049
185.953
181.547
176.849
171.879
166.658
161.207
155.549
149.707
143.705
137.567
131.318
124.982
118.582
112.144
105.691
99.246
92.832
86.47
80.181
73.985
67.901
61.946
56.135
50.482
45.002
39.705
34.602
29.701
25.009
20.532
16.274
12.24
8.43
4.845
1.485
-1.652
-4.568
-7.267
-9.754
-12.033
-14.111
-15.994
-17.69
-19.207
-20.553
-21.736
-22.767
-23.654
-24.407
-25.036
-25.549
-25.956
-26.266
-26.488
-26.63
-26.701
-26.707
-26.657
-26.556
-26.411
-26.227
-26.01
-25.764
-25.493
-25.202
-24.892
-24.568
-24.232
-23.885
-23.53
-23.169
-22.803
-22.433
-22.06
-21.684
-21.306
-20.926
-20.544
-20.161
-19.775
-19.386
-18.995
-18.6
-18.202
-17.801
-17.395
-16.986
-16.573
-16.156
-15.737
-15.316
-14.894
-14.473
-14.052
-13.634
-13.221
-12.814
-12.415
-12.027
-11.649
-11.286
-10.939
-10.609
-10.299
-10.01
-9.744
-9.504
-9.29
-9.104
-8.949
-8.824
-8.733
-8.677
-8.656
-8.673
-8.728
-8.822
-8.957
-9.132
-9.348
-9.604
-9.902
-10.241
-10.619
-11.036
-11.491
-11.983
-12.51
-13.07
-13.66
-14.278
-14.922
-15.589
-16.274
-16.975
-17.688
-18.41
-19.136
-19.864
-20.588
-21.304
-22.01
-22.698
-23.366
-24.009
-24.621
-25.197
-25.734
-26.226
-26.668
-27.056
-27.386
-27.654
-27.856
-27.987
-28.044
-28.025
-27.926
-27.745
-27.481
-27.132
-26.698
-26.181
-25.58
-24.9
-24.142
-23.312
-22.412
-21.449
-20.428
-19.355
-18.237
-17.08
-15.892
-14.68
-13.453
-12.219
-10.99
-9.774
-8.58
-7.419
-6.301
-5.236
-4.235
-3.306
-2.455
-1.687
-1.011
-0.433
0.036
0.391
0.632
0.758
0.771
0.673
0.471
0.177
-0.185
-0.592
-1.023
-1.461
-1.897
-2.315
-2.7
-3.033
-3.293
-3.466
-3.549
-3.535
-3.42
-3.206
-2.903
-2.543
-2.192
-1.919
-1.787
-1.858
-2.171
-2.762
-3.683
-4.993
-6.751
-9.012
-11.811
-15.168
-19.135
-23.789
-29.13
-35.031
-41.217
-47.283
-52.846
-57.616
-61.292
-63.456
-63.83
-62.44
-59.639
-56.183
-52.856
-50.089
-48.253
-47.912
-49.372
-52.387
-56.163
-59.094
-59.302
-55.505
-46.501
-30.674
-6.801
25.627
66.332
113.573
164.728
217.5
269.1
315.579
352.926
377.164
384.68
373.613
343.155
292.551
222.287
134.692
33.081
-77.739
-192.129
-305.442
-413.061
-509.887
-591.722
-655.438
-698.857
-721.95
-725.995
-711.964
-681.779
-638.469
-585.126
-525.408
-463.118
-400.698
-340.093
-283.814
-233.671
-190.845
-156.295
-129.68
-109.871
-96.244
-87.936
-83.36
-81.097
-79.584
-77.164
-73.26
-67.937
-61.145
-53.157
-44.547
-35.805
-27.727
-21.24
-16.625
-13.813
-12.628
-12.657
-13.504
-14.859
-16.249
-17.171
-17.354
-16.658
-15.079
-12.752
-9.77
-6.217
-2.21
2.123
6.673
11.342
16.057
20.767
25.414
29.944
34.298
38.421
42.265
45.781
48.954
51.796
54.323
56.573
58.582
60.386
62.033
63.577
65.063
66.536
68.032
69.577
71.203
72.945
74.834
76.9
79.164
81.631
84.305
87.184
90.26
93.526
96.965
100.555
104.277
108.113
112.045
116.056
120.128
124.237
128.36
132.472
136.55
140.571
144.512
148.349
152.058
155.619
159.011
162.214
165.211
167.982
170.508
172.773
174.758
176.451
177.837
178.904
179.642
180.042
180.099
179.809
179.168
178.178
176.838
175.153
173.129
170.771
168.088
165.092
161.793
158.205
154.344
150.226
145.867
141.287
136.505
131.541
126.414
121.148
115.762
110.278
104.717
99.102
93.453
87.79
82.136
76.509
70.929
65.415
59.985
54.656
49.443
44.362
39.426
34.648
30.039
25.61
21.369
17.325
13.484
9.851
6.431
3.225
0.236
-2.536
-5.093
-7.436
-9.568
-11.494
-13.218
-14.745
-16.084
-17.24
-18.222
-19.038
-19.698
-20.21
-20.585
-20.832
-20.962
-20.985
-20.912
-20.752
-20.516
-20.214
-19.856
-19.451
-19.008
-18.536
-18.044
-17.539
-17.03
-16.522
-16.023
-15.537
-15.071
-14.628
-14.213
-13.828
-13.478
-13.163
-12.887
-12.649
-12.451
-12.294
-12.176
-12.097
-12.057
-12.054
-12.085
-12.15
-12.245
-12.369
-12.518
-12.69
-12.883
-13.093
-13.317
-13.552
-13.796
-14.045
-14.298
-14.55
-14.8
-15.046
-15.285
-15.515
-15.735
-15.943
-16.138
-16.319
-16.484
-16.634
-16.768
-16.886
-16.987
-17.072
-17.141
-17.195
-17.233
-17.259
-17.271
-17.273
-17.264
-17.248
-17.226
-17.199
-17.171
-17.142
-17.115
-17.093
-17.077
-17.071
-17.075
-17.093
-17.126
-17.178
-17.248
-17.34
-17.455
-17.593
-17.757
-17.945
-18.159
-18.398
-18.663
-18.952
-19.265
-19.602
-19.96
-20.338
-20.735
-21.147
-21.573
-22.01
-22.454
-22.902
-23.35
-23.793
-24.227
-24.648
-25.05
-25.428
-25.778
-26.093
-26.368
-26.597
-26.776
-26.897
-26.958
-26.952
-26.875
-26.725
-26.498
-26.193
-25.808
-25.342
-24.797
-24.175
-23.475
-22.701
-21.855
-20.941
-19.965
-18.929
-17.839
-16.701
-15.521
-14.309
-13.073
-11.822
-10.565
-9.311
-8.07
-6.853
-5.671
-4.534
-3.449
-2.424
-1.469
-0.593
0.191
0.876
1.463
1.949
2.337
2.63
2.83
2.948
3.002
3.011
2.99
2.953
2.906
2.86
2.828
2.829
2.882
3.001
3.184
3.432
3.748
4.127
4.565
5.038
5.497
5.892
6.172
6.292
6.218
5.914
5.347
4.469
3.225
1.563
-0.552
-3.153
-6.259
-9.907
-14.176
-19.045
-24.364
-29.876
-35.203
-39.999
-44.038
-47.046
-48.614
-48.481
-46.673
-43.547
-39.872
-36.396
-33.481
-31.441
-30.804
-31.906
-34.599
-38.156
-41.022
-41.403
-38.126
-30.123
-15.883
5.866
35.835
74.017
118.936
168.237
219.869
271.26
318.583
357.74
384.417
394.497
385.572
356.278
305.376
233.049
141.526
34.301
-83.358
-205.202
-325.893
-440.02
-541.755
-626.378
-690.496
-732.047
-751.347
-749.993
-729.379
-692.019
-641.555
-581.786
-516.888
-450.697
-385.56
-323.542
-267.145
-218.107
-177.453
-145.406
-120.97
-102.923
-90.555
-82.761
-77.864
-74.199
-70.042
-64.419
-57.393
-49.202
-40.032
-30.302
-20.595
-11.7
-4.64
0.107
2.655
3.27
2.396
0.485
-2.098
-4.834
-7.11
-8.547
-8.963
-8.314
-6.723
-4.289
-1.073
2.8
7.192
11.974
17.017
22.226
27.523
32.817
38.023
43.052
47.815
52.241
56.268
59.863
63.032
65.791
68.173
70.217
71.965
73.466
74.785
75.975
77.09
78.176
79.272
80.419
81.662
83.041
84.592
86.34
88.294
90.459
92.836
95.42
98.202
101.171
104.307
107.593
111.013
114.554
118.201
121.937
125.742
129.597
133.478
137.365
141.239
145.077
148.858
152.562
156.167
159.653
163.003
166.197
169.215
172.038
174.646
177.023
179.152
181.017
182.604
183.901
184.897
185.584
185.954
186.001
185.723
185.116
184.18
182.916
181.326
179.416
177.19
174.656
171.822
168.7
165.3
161.637
157.724
153.576
149.21
144.644
139.894
134.98
129.92
124.733
119.438
114.054
108.601
103.098
97.564
92.016
86.473
80.952
75.47
70.042
64.684
59.411
54.236
49.172
44.231
39.425
34.764
30.257
25.913
21.74
17.743
13.928
10.3
6.861
3.614
0.56
-2.3
-4.968
-7.444
-9.731
-11.831
-13.749
-15.488
-17.054
-18.45
-19.684
-20.76
-21.685
-22.465
-23.107
-23.619
-24.006
-24.277
-24.438
-24.498
-24.464
-24.343
-24.143
-23.872
-23.537
-23.146
-22.705
-22.222
-21.703
-21.154
-20.582
-19.992
-19.389
-18.779
-18.165
-17.553
-16.946
-16.347
-15.76
-15.187
-14.632
-14.097
-13.584
-13.095
-12.632
-12.197
-11.791
-11.414
-11.068
-10.754
-10.47
-10.218
-9.996
-9.805
-9.643
-9.51
-9.404
-9.324
-9.269
-9.237
-9.227
-9.236
-9.262
-9.305
-9.361
-9.429
-9.508
-9.595
-9.69
-9.79
-9.896
-10.004
-10.113
-10.223
-10.331
-10.436
-10.537
-10.633
-10.723
-10.806
-10.883
-10.952
-11.016
-11.073
-11.124
-11.171
-11.214
-11.254
-11.292
-11.329
-11.367
-11.406
-11.449
-11.498
-11.555
-11.622
-11.702
-11.796
-11.907
-12.035
-12.183
-12.353
-12.546
-12.763
-13.007
-13.279
-13.581
-13.914
-14.279
-14.677
-15.108
-15.57
-16.064
-16.586
-17.133
-17.701
-18.288
-18.89
-19.504
-20.126
-20.753
-21.381
-22.009
-22.634
-23.251
-23.856
-24.442
-25.004
-25.533
-26.023
-26.467
-26.856
-27.183
-27.444
-27.633
-27.748
-27.784
-27.737
-27.598
-27.357
-27.011
-26.557
-25.994
-25.328
-24.567
-23.725
-22.824
-21.891
-20.941
-19.986
-19.031
-18.072
-17.106
-16.13
-15.138
-14.135
-13.123
-12.101
-11.074
-10.041
-8.992
-7.907
-6.753
-5.485
-4.081
-2.531
-0.834
0.98
2.881
4.826
6.758
8.641
10.442
12.131
13.691
15.109
16.358
17.416
18.242
18.778
18.989
18.855
18.366
17.553
16.459
15.143
13.689
12.157
10.595
9.052
7.553
6.11
4.734
3.405
2.108
0.854
-0.365
-1.549
-2.699
-3.863
-5.108
-6.518
-8.198
-10.23
-12.672
-15.613
-19.164
-23.349
-28.07
-33.067
-37.939
-42.322
-45.948
-48.525
-49.643
-49.029
-46.751
-43.243
-39.373
-36.063
-33.85
-33.181
-34.709
-38.771
-45.046
-52.584
-59.502
-63.564
-63.182
-56.849
-42.627
-19.105
14.316
57.341
108.021
163.489
221.144
277.702
328.68
369.599
396.006
404.013
391.54
357.351
300.611
222.134
124.647
12.25
-109.446
-234.435
-357.3
-472.102
-572.973
-655.2
-715.301
-751.837
-765.28
-756.723
-727.923
-682.222
-623.819
-557.382
-487.796
-418.588
-352.494
-292.442
-240.77
-198.794
-166.766
-143.596
-127.473
-117.086
-111.007
-107.264
-103.923
-99.118
-91.767
-81.95
-70.183
-56.945
-42.894
-28.87
-15.84
-4.957
3.166
8.585
11.566
12.544
11.993
10.336
8.117
5.983
4.331
3.341
3.09
3.529
4.641
6.443
8.869
11.812
15.184
18.898
22.893
27.131
31.531
36.002
40.462
44.831
49.056
53.096
56.908
60.452
63.692
66.614
69.23
71.563
73.646
75.517
77.214
78.782
80.276
81.744
83.228
84.768
86.389
88.119
89.984
92.009
94.219
96.629
99.243
102.059
105.073
108.273
111.649
115.182
118.848
122.628
126.501
130.446
134.447
138.483
142.53
146.566
150.566
154.507
158.365
162.117
165.74
169.212
172.511
175.616
178.51
181.174
183.589
185.738
187.605
189.173
190.43
191.363
191.963
192.221
192.13
191.687
190.89
189.738
188.233
186.379
184.181
181.645
178.78
175.596
172.104
168.316
164.248
159.915
155.332
150.519
145.493
140.275
134.885
129.343
123.672
117.892
112.026
106.096
100.123
94.129
88.135
82.162
76.231
70.36
64.57
58.876
53.296
47.846
42.54
37.391
32.411
27.612
23.002
18.591
14.385
10.39
6.613
3.055
-0.279
-3.39
-6.276
-8.94
-11.382
-13.607
-15.618
-17.422
-19.023
-20.43
-21.65
-22.692
-23.564
-24.277
-24.841
-25.264
-25.56
-25.737
-25.807
-25.781
-25.668
-25.48
-25.225
-24.914
-24.556
-24.159
-23.732
-23.282
-22.817
-22.344
-21.868
-21.397
-20.935
-20.486
-20.055
-19.645
-19.258
-18.898
-18.566
-18.263
-17.989
-17.744
-17.529
-17.342
-17.182
-17.047
-16.936
-16.846
-16.775
-16.72
-16.679
-16.65
-16.629
-16.615
-16.605
-16.598
-16.591
-16.583
-16.571
-16.556
-16.536
-16.51
-16.477
-16.436
-16.388
-16.333
-16.271
-16.202
-16.127
-16.046
-15.961
-15.872
-15.781
-15.69
-15.598
-15.509
-15.424
-15.344
-15.273
-15.21
-15.159
-15.121
-15.098
-15.09
-15.1
-15.129
-15.177
-15.246
-15.336
-15.448
-15.583
-15.74
-15.92
-16.122
-16.347
-16.595
-16.863
-17.151
-17.459
-17.785
-18.129
-18.489
-18.865
-19.256
-19.66
-20.076
-20.504
-20.941
-21.388
-21.842
-22.303
-22.768
-23.238
-23.71
-24.185
-24.659
-25.134
-25.607
-26.077
-26.543
-27.002
-27.453
-27.895
-28.324
-28.739
-29.137
-29.516
-29.875
-30.212
-30.527
-30.817
-31.082
-31.32
-31.53
-31.71
-31.857
-31.967
-32.035
-32.059
-32.034
-31.96
-31.831
-31.647
-31.403
-31.099
-30.735
-30.311
-29.823
-29.265
-28.631
-27.918
-27.133
-26.289
-25.393
-24.452
-23.475
-22.475
-21.466
-20.461
-19.461
-18.454
-17.429
-16.383
-15.323
-14.265
-13.224
-12.206
-11.202
-10.205
-9.212
-8.224
-7.233
-6.218
-5.147
-4.011
-2.829
-1.648
-0.51
0.564
1.569
2.509
3.385
4.189
4.91
5.553
6.133
6.656
7.115
7.474
7.691
7.757
7.708
7.611
7.52
7.458
7.433
7.448
7.515
7.64
7.805
7.946
7.988
7.874
7.572
7.09
6.434
5.57
4.42
2.882
0.876
-1.648
-4.712
-8.37
-12.72
-17.776
-23.397
-29.289
-35.023
-40.196
-44.534
-47.744
-49.402
-49.22
-47.225
-43.789
-39.712
-35.873
-32.815
-31.037
-31.253
-33.855
-38.617
-44.703
-50.394
-53.598
-52.738
-46.212
-31.977
-8.57
24.598
67.19
117.282
172.068
228.861
284.138
333.174
371.355
394.273
398.248
381.346
342.417
280.856
197.903
96.749
-18.122
-140.876
-265.521
-386.662
-498.349
-594.932
-672.128
-726.916
-758.322
-767.305
-755.202
-723.941
-676.99
-618.201
-551.745
-482.161
-412.564
-345.166
-282.621
-227.039
-179.67
-141.507
-112.274
-90.624
-75.805
-66.958
-62.411
-60.634
-59.919
-58.388
-55.318
-50.754
-44.607
-37.113
-28.866
-20.371
-12.518
-6.37
-2.258
-0.1
0.307
-0.567
-2.271
-4.435
-6.501
-7.86
-8.206
-7.421
-5.537
-2.733
0.864
5.16
10.007
15.237
20.703
26.279
31.87
37.412
42.821
48.001
52.856
57.295
61.267
64.757
67.774
70.349
72.516
74.317
75.805
77.042
78.086
78.996
79.823
80.61
81.407
82.261
83.224
84.345
85.658
87.182
88.928
90.899
93.095
95.511
98.138
100.958
103.957
107.121
110.437
113.895
117.478
121.17
124.948
128.794
132.686
136.604
140.528
144.435
148.306
152.117
155.849
159.481
162.992
166.361
169.563
172.578
175.383
177.958
180.284
182.342
184.114
185.585
186.742
187.574
188.071
188.225
188.029
187.478
186.572
185.308
183.689
181.716
179.395
176.732
173.735
170.415
166.782
162.85
158.634
154.149
149.413
144.444
139.26
133.882
128.331
122.629
116.796
110.855
104.829
98.741
92.612
86.465
80.323
74.206
68.135
62.13
56.209
50.393
44.696
39.136
33.727
28.484
23.42
18.546
13.872
9.408
5.161
1.137
-2.657
-6.219
-9.547
-12.638
-15.494
-18.115
-20.504
-22.665
-24.602
-26.321
-27.829
-29.133
-30.242
-31.165
-31.912
-32.492
-32.918
-33.199
-33.347
-33.374
-33.291
-33.11
-32.841
-32.497
-32.088
-31.626
-31.12
-30.58
-30.017
-29.438
-28.853
-28.27
-27.694
-27.133
-26.592
-26.077
-25.591
-25.139
-24.723
-24.347
-24.011
-23.718
-23.466
-23.257
-23.089
-22.961
-22.872
-22.819
-22.8
-22.812
-22.853
-22.918
-23.004
-23.108
-23.227
-23.355
-23.491
-23.629
-23.766
-23.899
-24.024
-24.139
-24.241
-24.327
-24.396
-24.445
-24.473
-24.479
-24.461
-24.419
-24.352
-24.26
-24.144
-24.004
-23.841
-23.657
-23.452
-23.229
-22.988
-22.733
-22.464
-22.186
-21.898
-21.606
-21.311
-21.016
-20.724
-20.439
-20.162
-19.898
-19.65
-19.419
-19.208
-19.019
-18.854
-18.715
-18.605
-18.524
-18.474
-18.458
-18.475
-18.527
-18.615
-18.74
-18.901
-19.099
-19.334
-19.605
-19.913
-20.257
-20.635
-21.048
-21.493
-21.969
-22.475
-23.006
-23.561
-24.136
-24.728
-25.333
-25.946
-26.563
-27.179
-27.791
-28.395
-28.989
-29.567
-30.126
-30.663
-31.173
-31.655
-32.102
-32.508
-32.867
-33.173
-33.422
-33.611
-33.734
-33.786
-33.764
-33.665
-33.489
-33.234
-32.897
-32.471
-31.949
-31.331
-30.624
-29.839
-28.986
-28.071
-27.103
-26.096
-25.065
-24.021
-22.966
-21.891
-20.787
-19.654
-18.501
-17.345
-16.205
-15.086
-13.984
-12.891
-11.805
-10.726
-9.648
-8.552
-7.415
-6.235
-5.033
-3.851
-2.728
-1.683
-0.716
0.182
1.022
1.81
2.543
3.218
3.843
4.412
4.917
5.331
5.619
5.78
5.846
5.864
5.88
5.914
5.961
6.008
6.034
6.005
5.888
5.644
5.226
4.596
3.73
2.616
1.254
-0.364
-2.279
-4.548
-7.22
-10.328
-13.885
-17.864
-22.256
-27.067
-32.193
-37.452
-42.574
-47.149
-50.811
-53.312
-54.302
-53.362
-50.401
-45.526
-39.147
-32.21
-25.465
-19.377
-14.723
-12.225
-11.961
-13.674
-16.379
-18.051
-17.098
-12.206
-1.44
16.799
43.337
78.514
121.211
168.816
218.899
268.563
313.608
349.869
373.211
379.687
367.086
334.482
281.176
207.913
117.356
13.097
-99.807
-215.554
-329.27
-436.033
-530.636
-608.985
-668.192
-706.468
-724.093
-722.354
-702.313
-666.158
-617.132
-558.66
-494.605
-428.613
-363.065
-300.209
-242.776
-192.732
-151.301
-118.867
-94.548
-77.131
-65.803
-59.306
-55.769
-53.34
-50.176
-45.203
-38.413
-30.065
-20.417
-9.978
0.554
10.317
18.264
23.877
27.221
28.527
28.216
26.729
24.438
21.82
19.419
17.543
16.326
15.809
15.895
16.512
17.618
19.111
20.891
22.893
25.076
27.431
29.946
32.588
35.329
38.157
41.083
44.124
47.279
50.533
53.883
57.338
60.914
64.633
68.492
72.475
76.553
80.687
84.859
89.054
93.249
97.414
101.503
105.479
109.324
113.036
116.611
120.044
123.327
126.453
129.439
132.309
135.097
137.841
140.566
143.286
146.018
148.776
151.578
154.437
157.348
160.297
163.27
166.252
169.228
172.184
175.089
177.911
180.615
183.161
185.52
187.667
189.577
191.231
192.609
193.695
194.48
194.96
195.129
194.983
194.517
193.726
192.612
191.178
189.43
187.373
185.015
182.36
179.418
176.197
172.706
168.953
164.949
160.703
156.228
151.538
146.648
141.574
136.335
130.948
125.43
119.801
114.08
108.286
102.436
96.548
90.641
84.732
78.839
72.979
67.168
61.421
55.755
50.183
44.719
39.377
34.167
29.102
24.191
19.445
14.872
10.48
6.276
2.267
-1.542
-5.148
-8.548
-11.74
-14.723
-17.497
-20.064
-22.426
-24.586
-26.546
-28.313
-29.89
-31.283
-32.497
-33.54
-34.418
-35.137
-35.707
-36.134
-36.426
-36.592
-36.639
-36.576
-36.412
-36.155
-35.813
-35.394
-34.907
-34.36
-33.762
-33.119
-32.44
-31.731
-31.001
-30.254
-29.498
-28.738
-27.979
-27.226
-26.485
-25.758
-25.05
-24.364
-23.704
-23.072
-22.471
-21.903
-21.369
-20.871
-20.411
-19.989
-19.605
-19.262
-18.958
-18.693
-18.469
-18.283
-18.136
-18.026
-17.952
-17.914
-17.909
-17.936
-17.993
-18.079
-18.191
-18.327
-18.486
-18.666
-18.864
-19.08
-19.311
-19.555
-19.812
-20.078
-20.353
-20.636
-20.924
-21.217
-21.513
-21.812
-22.113
-22.415
-22.717
-23.019
-23.319
-23.617
-23.913
-24.206
-24.494
-24.778
-25.057
-25.33
-25.598
-25.858
-26.113
-26.361
-26.601
-26.834
-27.058
-27.274
-27.481
-27.678
-27.863
-28.036
-28.196
-28.342
-28.471
-28.582
-28.674
-28.743
-28.787
-28.805
-28.792
-28.745
-28.662
-28.541
-28.378
-28.171
-27.919
-27.62
-27.273
-26.878
-26.435
-25.945
-25.409
-24.826
-24.2
-23.529
-22.818
-22.067
-21.278
-20.454
-19.598
-18.716
-17.814
-16.896
-15.97
-15.04
-14.114
-13.197
-12.297
-11.42
-10.571
-9.758
-8.989
-8.273
-7.622
-7.042
-6.535
-6.101
-5.737
-5.435
-5.189
-4.986
-4.808
-4.643
-4.48
-4.309
-4.126
-3.921
-3.683
-3.401
-3.059
-2.648
-2.168
-1.623
-1.022
-0.386
0.259
0.878
1.423
1.851
2.125
2.205
2.048
1.619
0.878
-0.21
-1.662
-3.502
-5.764
-8.469
-11.643
-15.296
-19.391
-23.919
-28.909
-34.268
-39.819
-45.288
-50.203
-54.158
-56.915
-58.109
-57.327
-54.556
-49.997
-44.211
-38.383
-33.434
-29.907
-28.601
-30.122
-34.291
-40.553
-47.542
-52.768
-54.249
-50.373
-39.022
-18.675
11.182
50.477
97.628
149.523
203.311
255.721
302.25
338.69
361.118
365.936
351.311
316.676
261.634
187.205
96.334
-7.245
-118.499
-231.732
-342.201
-445.135
-535.544
-609.619
-664.811
-699.632
-714.619
-711.395
-691.354
-656.896
-611.224
-557.358
-498.615
-438.175
-377.934
-319.435
-264.716
-215.153
-171.705
-135.281
-105.74
-82.415
-65.088
-53.248
-45.697
-41.309
-38.719
-36.355
-33.551
-30.152
-25.893
-20.825
-15.308
-9.679
-4.611
-0.968
0.983
1.342
0.281
-1.802
-4.511
-7.527
-10.36
-12.445
-13.496
-13.413
-12.215
-10.07
-7.096
-3.373
0.959
5.734
10.812
16.06
21.383
26.724
32.001
37.121
41.994
46.529
50.677
54.432
57.801
60.815
63.508
65.917
68.091
70.089
71.965
73.771
75.552
77.342
79.183
81.117
83.186
85.432
87.882
90.547
93.431
96.53
99.839
103.346
107.035
110.884
114.872
118.981
123.193
127.494
131.862
136.277
140.714
145.149
149.559
153.923
158.217
162.419
166.506
170.458
174.253
177.874
181.3
184.51
187.484
190.204
192.65
194.805
196.654
198.181
199.373
200.22
200.712
200.842
200.605
199.996
199.014
197.659
195.933
193.838
191.382
188.571
185.414
181.921
178.107
173.984
169.567
164.875
159.924
154.734
149.324
143.715
137.929
131.988
125.913
119.727
113.454
107.116
100.734
94.333
87.933
81.557
75.225
68.957
62.773
56.69
50.728
44.901
39.226
33.717
28.386
23.247
18.308
13.581
9.072
4.788
0.734
-3.086
-6.669
-10.015
-13.123
-15.995
-18.632
-21.037
-23.216
-25.173
-26.915
-28.448
-29.779
-30.918
-31.872
-32.65
-33.262
-33.718
-34.028
-34.2
-34.247
-34.178
-34.003
-33.732
-33.376
-32.944
-32.447
-31.893
-31.291
-30.649
-29.975
-29.278
-28.563
-27.836
-27.104
-26.372
-25.645
-24.926
-24.219
-23.527
-22.854
-22.2
-21.568
-20.96
-20.375
-19.816
-19.283
-18.776
-18.296
-17.843
-17.417
-17.017
-16.644
-16.298
-15.977
-15.682
-15.412
-15.167
-14.945
-14.748
-14.573
-14.422
-14.294
-14.188
-14.105
-14.046
-14.009
-13.997
-14.008
-14.045
-14.108
-14.197
-14.314
-14.46
-14.636
-14.843
-15.083
-15.355
-15.66
-16
-16.375
-16.784
-17.229
-17.708
-18.221
-18.769
-19.349
-19.962
-20.605
-21.277
-21.977
-22.703
-23.453
-24.224
-25.014
-25.821
-26.641
-27.472
-28.31
-29.151
-29.992
-30.827
-31.652
-32.464
-33.257
-34.026
-34.766
-35.472
-36.14
-36.763
-37.338
-37.86
-38.322
-38.722
-39.054
-39.315
-39.501
-39.609
-39.636
-39.58
-39.439
-39.212
-38.897
-38.493
-38.001
-37.421
-36.754
-36.001
-35.165
-34.249
-33.257
-32.193
-31.064
-29.877
-28.637
-27.353
-26.034
-24.686
-23.32
-21.942
-20.56
-19.182
-17.816
-16.472
-15.157
-13.881
-12.653
-11.481
-10.372
-9.334
-8.37
-7.482
-6.672
-5.939
-5.285
-4.717
-4.239
-3.851
-3.556
-3.352
-3.237
-3.201
-3.226
-3.287
-3.359
-3.419
-3.449
-3.437
-3.366
-3.22
-2.984
-2.637
-2.16
-1.544
-0.776
0.154
1.239
2.45
3.731
5
6.178
7.198
8.006
8.54
8.721
8.465
7.689
6.323
4.319
1.61
-1.92
-6.298
-11.418
-17.037
-22.743
-28.131
-32.921
-36.794
-39.317
-40.251
-39.653
-37.911
-35.823
-34.135
-33.191
-33.318
-35.024
-38.468
-43.269
-48.48
-52.377
-53.143
-49.588
-40.487
-24.221
0.31
33.506
74.928
122.725
174.436
227.797
279.741
326.058
362.535
384.996
389.857
375.119
339.405
281.838
203.31
106.608
-4.13
-123.336
-245.161
-364.272
-474.765
-570.972
-648.528
-704.31
-737.206
-748.043
-738.107
-709.257
-664.84
-608.652
-544.805
-477.763
-410.64
-345.639
-285.358
-231.892
-186.488
-150.076
-122.354
-101.954
-88.059
-79.768
-75.4
-73.405
-72.102
-69.703
-65.558
-59.79
-52.396
-43.689
-34.315
-24.821
-16.099
-9.16
-4.317
-1.499
-0.509
-0.89
-2.207
-4.099
-6.037
-7.47
-8.1
-7.769
-6.468
-4.33
-1.446
2.095
6.164
10.629
15.363
20.262
25.246
30.25
35.204
40.04
44.684
49.071
53.146
56.856
60.181
63.129
65.716
67.977
69.954
71.682
73.214
74.606
75.91
77.172
78.435
79.732
81.099
82.575
84.193
85.987
87.977
90.169
92.569
95.175
97.98
100.977
104.15
107.48
110.948
114.537
118.231
122.015
125.87
129.774
133.705
137.639
141.556
145.431
149.243
152.968
156.584
160.068
163.4
166.56
169.527
172.282
174.804
177.075
179.077
180.794
182.211
183.315
184.095
184.541
184.647
184.407
183.818
182.878
181.588
179.95
177.968
175.648
172.997
170.025
166.742
163.16
159.295
155.16
150.772
146.15
141.312
136.278
131.068
125.704
120.207
114.598
108.901
103.135
97.325
91.49
85.652
79.832
74.048
68.321
62.668
57.106
51.651
46.319
41.124
36.078
31.193
26.481
21.95
17.61
13.466
9.526
5.795
2.274
-1.032
-4.122
-6.998
-9.659
-12.108
-14.348
-16.382
-18.217
-19.858
-21.31
-22.582
-23.68
-24.613
-25.39
-26.018
-26.507
-26.866
-27.104
-27.229
-27.252
-27.18
-27.024
-26.791
-26.491
-26.131
-25.721
-25.267
-24.778
-24.26
-23.721
-23.167
-22.603
-22.035
-21.468
-20.905
-20.352
-19.811
-19.285
-18.776
-18.287
-17.819
-17.374
-16.952
-16.553
-16.178
-15.827
-15.5
-15.196
-14.914
-14.655
-14.416
-14.198
-13.999
-13.817
-13.652
-13.502
-13.366
-13.242
-13.129
-13.025
-12.929
-12.84
-12.757
-12.678
-12.605
-12.536
-12.47
-12.408
-12.351
-12.297
-12.249
-12.206
-12.168
-12.137
-12.113
-12.097
-12.091
-12.095
-12.111
-12.139
-12.182
-12.24
-12.315
-12.408
-12.52
-12.653
-12.806
-12.982
-13.182
-13.406
-13.655
-13.93
-14.231
-14.558
-14.91
-15.286
-15.685
-16.105
-16.545
-17.001
-17.469
-17.946
-18.43
-18.917
-19.406
-19.891
-20.371
-20.842
-21.302
-21.747
-22.171
-22.57
-22.936
-23.262
-23.544
-23.774
-23.95
-24.065
-24.115
-24.097
-24.011
-23.855
-23.625
-23.317
-22.922
-22.437
-21.866
-21.216
-20.5
-19.729
-18.91
-18.059
-17.191
-16.32
-15.454
-14.59
-13.714
-12.822
-11.917
-11.01
-10.123
-9.267
-8.437
-7.63
-6.833
-6.038
-5.242
-4.429
-3.567
-2.646
-1.667
-0.654
0.342
1.29
2.182
3.017
3.817
4.583
5.3
5.955
6.537
7.034
7.443
7.738
7.871
7.824
7.599
7.226
6.774
6.274
5.732
5.137
4.466
3.71
2.876
1.958
0.936
-0.221
-1.533
-3
-4.601
-6.32
-8.18
-10.242
-12.58
-15.245
-18.261
-21.6
-25.267
-29.339
-33.766
-38.394
-42.963
-47.023
-50.213
-52.356
-53.132
-52.141
-49.326
-44.821
-39.119
-33.29
-28.104
-23.938
-21.412
-21.06
-22.789
-26.196
-30.123
-32.397
-31.354
-25.79
-14.101
5.055
32.294
67.818
110.627
158.227
208.298
258.341
304.754
343.694
371.292
383.588
377.697
352.094
305.484
237.626
150.162
45.969
-70.516
-193.604
-317.666
-437.101
-545.895
-638.715
-711.454
-761.192
-787.166
-790.133
-771.297
-732.977
-678.76
-612.788
-539.688
-464.034
-389.122
-317.833
-253.268
-197.731
-152.63
-118.298
-93.699
-77.279
-67.844
-63.822
-63.017
-63.271
-62.5
-59.508
-54.269
-47.108
-38.346
-28.561
-18.564
-9.355
-2.101
2.626
4.933
5.144
3.749
1.25
-1.913
-5.169
-7.861
-9.589
-10.188
-9.639
-8.087
-5.65
-2.404
1.518
5.962
10.793
15.878
21.114
26.427
31.73
36.933
41.949
46.688
51.081
55.071
58.632
61.77
64.506
66.87
68.905
70.652
72.166
73.51
74.742
75.913
77.073
78.26
79.518
80.891
82.419
84.137
86.066
88.216
90.59
93.187
96.002
99.026
102.243
105.633
109.178
112.862
116.669
120.582
124.583
128.652
132.765
136.9
141.036
145.151
149.223
153.229
157.147
160.955
164.632
168.159
171.513
174.675
177.622
180.335
182.793
184.98
186.878
188.471
189.745
190.689
191.294
191.551
191.455
191.002
190.19
189.02
187.492
185.612
183.385
180.818
177.92
174.701
171.176
167.356
163.258
158.897
154.292
149.462
144.426
139.204
133.817
128.287
122.636
116.887
111.061
105.181
99.27
93.349
87.44
81.564
75.742
69.992
64.332
58.781
53.354
48.066
42.93
37.959
33.165
28.556
24.143
19.931
15.927
12.135
8.56
5.202
2.064
-0.856
-3.559
-6.046
-8.321
-10.389
-12.255
-13.925
-15.406
-16.706
-17.833
-18.795
-19.604
-20.268
-20.797
-21.202
-21.493
-21.681
-21.775
-21.785
-21.722
-21.594
-21.411
-21.182
-20.914
-20.616
-20.294
-19.955
-19.605
-19.249
-18.892
-18.539
-18.193
-17.858
-17.537
-17.231
-16.944
-16.676
-16.428
-16.2
-15.993
-15.807
-15.64
-15.492
-15.361
-15.245
-15.143
-15.052
-14.972
-14.898
-14.83
-14.765
-14.702
-14.637
-14.57
-14.499
-14.422
-14.339
-14.249
-14.15
-14.044
-13.93
-13.808
-13.679
-13.543
-13.4
-13.253
-13.102
-12.948
-12.794
-12.64
-12.489
-12.342
-12.202
-12.07
-11.949
-11.841
-11.749
-11.675
-11.621
-11.59
-11.585
-11.608
-11.661
-11.746
-11.865
-12.02
-12.213
-12.445
-12.716
-13.028
-13.381
-13.774
-14.208
-14.682
-15.195
-15.745
-16.332
-16.952
-17.604
-18.284
-18.99
-19.717
-20.464
-21.225
-21.997
-22.776
-23.556
-24.335
-25.106
-25.865
-26.605
-27.323
-28.01
-28.663
-29.276
-29.842
-30.356
-30.813
-31.208
-31.534
-31.789
-31.966
-32.062
-32.072
-31.994
-31.825
-31.563
-31.208
-30.758
-30.215
-29.581
-28.858
-28.051
-27.162
-26.197
-25.162
-24.061
-22.903
-21.692
-20.437
-19.145
-17.824
-16.484
-15.134
-13.785
-12.445
-11.125
-9.836
-8.589
-7.396
-6.264
-5.2
-4.211
-3.304
-2.486
-1.769
-1.158
-0.653
-0.255
0.037
0.224
0.31
0.309
0.243
0.134
0.002
-0.137
-0.275
-0.399
-0.495
-0.545
-0.53
-0.439
-0.272
-0.024
0.308
0.725
1.215
1.747
2.255
2.669
2.927
2.973
2.767
2.277
1.45
0.224
-1.46
-3.659
-6.406
-9.721
-13.661
-18.313
-23.674
-29.605
-35.812
-41.862
-47.361
-52.033
-55.573
-57.559
-57.734
-56.166
-53.275
-49.904
-46.881
-44.634
-43.523
-44.113
-46.657
-50.824
-55.704
-59.544
-60.376
-56.909
-47.918
-31.74
-7.173
26.211
68.041
116.445
168.76
222.683
275.321
322.515
360.048
383.927
390.602
377.91
344.697
290.105
214.372
121.161
15.26
-99.668
-218.178
-337.851
-456.559
-564.86
-655.764
-722.219
-757.19
-765.441
-752.06
-721.374
-680.747
-630.769
-572.175
-508.571
-441.764
-375.542
-313.901
-258.721
-211.46
-172.854
-142.518
-119.507
-102.814
-91.359
-83.63
-78.2
-73.663
-68.454
-61.879
-54.007
-44.974
-35.152
-25.146
-15.452
-6.779
-0.053
4.399
6.671
6.984
5.827
3.676
0.899
-1.986
-4.397
-5.995
-6.588
-6.121
-4.711
-2.444
0.611
4.327
8.573
13.224
18.156
23.278
28.507
33.752
38.927
43.94
48.702
53.142
57.195
60.827
64.041
66.854
69.297
71.411
73.236
74.822
76.23
77.513
78.722
79.904
81.095
82.337
83.673
85.142
86.779
88.607
90.635
92.866
95.299
97.927
100.742
103.73
106.87
110.145
113.538
117.036
120.624
124.286
128.002
131.751
135.513
139.269
142.998
146.681
150.297
153.826
157.249
160.548
163.705
166.702
169.52
172.141
174.546
176.72
178.646
180.311
181.699
182.799
183.601
184.097
184.281
184.146
183.69
182.911
181.808
180.383
178.638
176.578
174.207
171.531
168.561
165.304
161.772
157.976
153.931
149.649
145.147
140.442
135.549
130.486
125.272
119.926
114.467
108.914
103.286
97.604
91.888
86.155
80.427
74.721
69.056
63.449
57.917
52.476
47.141
41.927
36.847
31.914
27.141
22.538
18.116
13.883
9.849
6.02
2.402
-1
-4.181
-7.14
-9.874
-12.383
-14.667
-16.729
-18.57
-20.194
-21.607
-22.814
-23.821
-24.636
-25.267
-25.723
-26.012
-26.144
-26.13
-25.98
-25.703
-25.311
-24.815
-24.225
-23.553
-22.809
-22.003
-21.147
-20.251
-19.324
-18.377
-17.419
-16.46
-15.507
-14.569
-13.654
-12.768
-11.919
-11.111
-10.349
-9.638
-8.981
-8.38
-7.838
-7.355
-6.933
-6.571
-6.269
-6.025
-5.839
-5.709
-5.631
-5.604
-5.624
-5.688
-5.792
-5.933
-6.107
-6.309
-6.537
-6.785
-7.05
-7.327
-7.612
-7.901
-8.191
-8.476
-8.753
-9.019
-9.271
-9.506
-9.723
-9.919
-10.094
-10.247
-10.378
-10.487
-10.576
-10.645
-10.696
-10.729
-10.746
-10.75
-10.743
-10.727
-10.707
-10.683
-10.661
-10.643
-10.633
-10.634
-10.649
-10.682
-10.736
-10.814
-10.92
-11.057
-11.229
-11.438
-11.687
-11.979
-12.316
-12.697
-13.123
-13.595
-14.11
-14.666
-15.262
-15.893
-16.556
-17.248
-17.964
-18.702
-19.457
-20.226
-21.003
-21.785
-22.566
-23.342
-24.103
-24.843
-25.551
-26.22
-26.843
-27.412
-27.92
-28.359
-28.723
-29.009
-29.212
-29.325
-29.343
-29.253
-29.048
-28.73
-28.302
-27.77
-27.15
-26.452
-25.689
-24.881
-24.041
-23.175
-22.287
-21.365
-20.4
-19.392
-18.349
-17.285
-16.216
-15.144
-14.069
-12.987
-11.883
-10.743
-9.55
-8.272
-6.893
-5.42
-3.874
-2.294
-0.733
0.779
2.225
3.597
4.901
6.129
7.273
8.327
9.269
10.072
10.707
11.122
11.285
11.201
10.887
10.389
9.768
9.064
8.298
7.483
6.611
5.665
4.634
3.503
2.258
0.893
-0.593
-2.181
-3.859
-5.625
-7.502
-9.54
-11.809
-14.371
-17.263
-20.495
-24.084
-28.066
-32.413
-36.994
-41.56
-45.731
-49.147
-51.567
-52.712
-52.209
-49.848
-45.736
-40.335
-34.526
-29.241
-25.057
-22.497
-22.276
-24.747
-29.597
-35.865
-41.714
-44.998
-44.178
-37.768
-23.855
-1.098
30.999
72.047
120.086
172.351
226.33
278.808
325.424
361.886
383.986
388.097
372.275
335.297
276.352
196.336
98.016
-14.524
-135.765
-259.84
-381.331
-494.216
-592.601
-671.844
-728.623
-761.645
-771.484
-759.32
-727.101
-678.423
-617.651
-549.518
-478.836
-409.018
-342.718
-282.763
-231.322
-189.505
-157.421
-133.921
-117.224
-106.128
-99.298
-94.868
-91.065
-86.17
-79.213
-70.339
-60.052
-48.745
-36.973
-25.439
-14.94
-6.5
-0.62
2.842
4.183
3.862
2.368
0.088
-2.472
-4.687
-6.179
-6.774
-6.382
-5.088
-2.969
-0.055
3.535
7.66
12.204
17.041
22.077
27.246
32.453
37.608
42.634
47.446
51.981
56.186
60.002
63.407
66.407
69.017
71.272
73.214
74.887
76.345
77.649
78.854
80.013
81.17
82.361
83.629
85.012
86.541
88.254
90.171
92.301
94.651
97.219
99.999
102.984
106.159
109.503
112.999
116.628
120.373
124.218
128.144
132.129
136.149
140.183
144.206
148.196
152.129
155.982
159.731
163.354
166.828
170.133
173.249
176.153
178.824
181.243
183.391
185.25
186.804
188.038
188.94
189.498
189.704
189.552
189.036
188.154
186.905
185.29
183.312
180.978
178.293
175.266
171.908
168.232
164.251
159.98
155.436
150.637
145.601
140.351
134.905
129.285
123.515
117.615
111.61
105.521
99.372
93.186
86.985
80.79
74.623
68.505
62.456
56.494
50.637
44.903
39.307
33.864
28.587
23.488
18.579
13.868
9.363
5.073
1.002
-2.846
-6.466
-9.859
-13.022
-15.957
-18.666
-21.152
-23.418
-25.469
-27.312
-28.954
-30.4
-31.661
-32.743
-33.656
-34.41
-35.013
-35.476
-35.808
-36.019
-36.12
-36.119
-36.026
-35.852
-35.604
-35.292
-34.924
-34.509
-34.055
-33.567
-33.054
-32.522
-31.976
-31.423
-30.866
-30.31
-29.759
-29.215
-28.682
-28.163
-27.657
-27.168
-26.695
-26.239
-25.801
-25.38
-24.977
-24.591
-24.222
-23.869
-23.532
-23.211
-22.905
-22.613
-22.337
-22.075
-21.828
-21.595
-21.377
-21.173
-20.985
-20.813
-20.656
-20.516
-20.394
-20.29
-20.206
-20.142
-20.1
-20.082
-20.089
-20.122
-20.183
-20.275
-20.399
-20.556
-20.749
-20.979
-21.247
-21.556
-21.906
-22.297
-22.731
-23.208
-23.727
-24.288
-24.891
-25.534
-26.216
-26.935
-27.69
-28.478
-29.297
-30.143
-31.016
-31.91
-32.824
-33.753
-34.693
-35.64
-36.591
-37.54
-38.482
-39.413
-40.327
-41.219
-42.084
-42.916
-43.711
-44.462
-45.165
-45.814
-46.404
-46.931
-47.39
-47.778
-48.089
-48.321
-48.472
-48.538
-48.518
-48.41
-48.212
-47.924
-47.545
-47.076
-46.515
-45.865
-45.128
-44.305
-43.4
-42.416
-41.358
-40.232
-39.044
-37.801
-36.51
-35.178
-33.815
-32.429
-31.028
-29.622
-28.218
-26.826
-25.455
-24.114
-22.815
-21.566
-20.375
-19.251
-18.203
-17.238
-16.365
-15.59
-14.916
-14.348
-13.889
-13.544
-13.319
-13.217
-13.236
-13.369
-13.613
-13.958
-14.393
-14.905
-15.466
-16.052
-16.637
-17.199
-17.724
-18.197
-18.597
-18.903
-19.091
-19.142
-19.057
-18.834
-18.473
-17.983
-17.381
-16.702
-16.012
-15.381
-14.881
-14.579
-14.526
-14.771
-15.359
-16.34
-17.775
-19.711
-22.18
-25.211
-28.807
-32.976
-37.767
-43.083
-48.702
-54.324
-59.491
-63.796
-66.981
-68.681
-68.462
-66.256
-62.194
-56.685
-50.702
-44.976
-39.917
-36.248
-34.55
-34.743
-36.507
-38.846
-39.763
-37.714
-31.365
-18.783
1.408
29.754
66.347
109.918
157.916
207.888
256.66
299.842
333.283
353.005
355.479
338.701
301.516
243.364
165.47
70.89
-36.21
-150.462
-266.347
-378.764
-482.056
-570.933
-641.448
-690.957
-718.709
-725.537
-712.633
-681.86
-636.557
-580.603
-518.122
-453.238
-388.776
-326.993
-270.435
-221.144
-180.299
-148.212
-124.064
-106.501
-94.652
-87.41
-83.1
-79.998
-76.323
-71.003
-63.996
-55.576
-45.98
-35.642
-25.187
-15.427
-7.434
-1.767
1.63
2.984
2.712
1.254
-1.021
-3.597
-5.841
-7.357
-7.943
-7.531
-6.226
-4.11
-1.229
2.306
6.365
10.832
15.588
20.548
25.651
30.816
35.963
41.008
45.86
50.446
54.702
58.587
62.095
65.239
68.041
70.538
72.766
74.771
76.612
78.342
80.008
81.655
83.318
85.036
86.854
88.81
90.941
93.272
95.812
98.566
101.534
104.71
108.083
111.638
115.352
119.206
123.18
127.256
131.417
135.643
139.91
144.194
148.47
152.714
156.902
161.012
165.017
168.896
172.625
176.183
179.551
182.708
185.633
188.306
190.708
192.821
194.63
196.118
197.272
198.08
198.534
198.625
198.35
197.704
196.687
195.3
193.544
191.425
188.95
186.126
182.963
179.473
175.668
171.565
167.177
162.524
157.622
152.492
147.153
141.627
135.935
130.098
124.138
118.079
111.941
105.747
99.518
93.277
87.042
80.836
74.677
68.584
62.574
56.665
50.871
45.207
39.687
34.322
29.124
24.102
19.265
14.62
10.175
5.935
1.903
-1.917
-5.524
-8.916
-12.093
-15.057
-17.809
-20.352
-22.69
-24.827
-26.767
-28.517
-30.083
-31.47
-32.687
-33.739
-34.634
-35.381
-35.987
-36.459
-36.806
-37.036
-37.156
-37.174
-37.097
-36.934
-36.69
-36.372
-35.989
-35.545
-35.047
-34.502
-33.915
-33.292
-32.637
-31.956
-31.254
-30.534
-29.802
-29.06
-28.312
-27.561
-26.811
-26.065
-25.325
-24.593
-23.873
-23.166
-22.475
-21.802
-21.147
-20.513
-19.902
-19.314
-18.752
-18.217
-17.71
-17.233
-16.788
-16.374
-15.995
-15.65
-15.341
-15.068
-14.832
-14.633
-14.473
-14.351
-14.268
-14.224
-14.218
-14.252
-14.323
-14.433
-14.578
-14.759
-14.973
-15.219
-15.494
-15.796
-16.123
-16.471
-16.84
-17.225
-17.624
-18.034
-18.452
-18.873
-19.293
-19.709
-20.116
-20.509
-20.884
-21.237
-21.563
-21.859
-22.119
-22.339
-22.516
-22.644
-22.719
-22.737
-22.694
-22.586
-22.41
-22.164
-21.846
-21.455
-20.99
-20.451
-19.841
-19.16
-18.409
-17.59
-16.705
-15.753
-14.738
-13.661
-12.523
-11.329
-10.081
-8.787
-7.452
-6.085
-4.694
-3.287
-1.873
-0.458
0.95
2.344
3.719
5.068
6.384
7.654
8.867
10.011
11.079
12.068
12.977
13.813
14.585
15.305
15.988
16.642
17.273
17.876
18.44
18.952
19.398
19.773
20.08
20.322
20.5
20.61
20.647
20.595
20.43
20.123
19.64
18.957
18.07
16.993
15.76
14.42
13.031
11.642
10.286
8.995
7.799
