67.506
68.798
70.014
71.144
72.181
73.113
73.932
74.629
75.194
75.617
75.89
76.002
75.946
75.712
75.293
74.68
73.867
72.847
71.614
70.163
68.49
66.591
64.463
62.104
59.514
56.692
53.639
50.358
46.851
43.122
39.177
35.021
30.662
26.106
21.364
16.445
11.36
6.119
0.737
-4.775
-10.402
-16.129
-21.941
-27.822
-33.756
-39.726
-45.714
-51.704
-57.679
-63.622
-69.515
-75.341
-81.085
-86.731
-92.262
-97.665
-102.925
-108.028
-112.962
-117.715
-122.276
-126.637
-130.786
-134.718
-138.425
-141.901
-145.142
-148.144
-150.904
-153.422
-155.696
-157.729
-159.522
-161.078
-162.402
-163.499
-164.376
-165.038
-165.495
-165.756
-165.828
-165.723
-165.451
-165.023
-164.45
-163.743
-162.915
-161.976
-160.94
-159.817
-158.618
-157.356
-156.041
-154.684
-153.296
-151.885
-150.462
-149.037
-147.617
-146.211
-144.827
-143.472
-142.151
-140.871
-139.636
-138.452
-137.321
-136.247
-135.231
-134.276
-133.382
-132.55
-131.78
-131.071
-130.421
-129.828
-129.291
-128.807
-128.373
-127.986
-127.643
-127.34
-127.074
-126.84
-126.637
-126.46
-126.305
-126.169
-126.049
-125.941
-125.841
-125.748
-125.657
-125.567
-125.474
-125.377
-125.272
-125.159
-125.036
-124.901
-124.753
-124.592
-124.417
-124.228
-124.025
-123.809
-123.58
-123.339
-123.087
-122.826
-122.557
-122.282
-122.002
-121.719
-121.434
-121.148
-120.864
-120.582
-120.304
-120.03
-119.761
-119.498
-119.24
-118.987
-118.738
-118.493
-118.251
-118.01
-117.77
-117.527
-117.282
-117.03
-116.77
-116.499
-116.214
-115.912
-115.588
-115.24
-114.863
-114.452
-114.004
-113.515
-112.979
-112.393
-111.753
-111.053
-110.29
-109.461
-108.56
-107.586
-106.536
-105.409
-104.202
-102.916
-101.551
-100.109
-98.594
-97.008
-95.354
-93.638
-91.864
-90.038
-88.166
-86.254
-84.31
-82.339
-80.351
-78.355
-76.361
-74.378
-72.417
-70.485
-68.594
-66.754
-64.976
-63.27
-61.641
-60.097
-58.644
-57.292
-56.052
-54.929
-53.925
-53.038
-52.265
-51.603
-51.046
-50.583
-50.192
-49.852
-49.541
-49.241
-48.942
-48.631
-48.291
-47.902
-47.44
-46.89
-46.25
-45.516
-44.69
-43.775
-42.779
-41.73
-40.686
-39.704
-38.856
-38.199
-37.777
-37.638
-37.821
-38.372
-39.358
-40.83
-42.824
-45.378
-48.492
-52.19
-56.542
-61.492
-66.852
-72.332
-77.47
-81.849
-85.21
-87.212
-87.434
-85.7
-82.064
-76.925
-71.218
-65.783
-61.117
-57.783
-56.298
-56.774
-58.954
-61.945
-63.887
-62.874
-57.351
-45.646
-26.287
1.611
38.365
83.311
134.343
188.701
243.308
294.248
337.296
368.3
383.267
379.068
353.894
306.934
238.554
150.872
47.336
-67.337
-187.419
-307.14
-420.788
-522.749
-608.286
-673.979
-717.702
-739.228
-739.78
-721.051
-685.757
-637.554
-580.163
-517.484
-453.286
-390.096
-329.853
-274.688
-225.926
-184.217
-150.005
-122.75
-101.357
-85.25
-73.682
-65.299
-59.003
-53.643
-47.962
-41.602
-34.68
-27.13
-19.153
-11.234
-3.732
2.742
7.453
10.273
11.377
11
9.583
7.554
5.258
3.188
1.879
1.596
2.444
4.407
7.337
11.129
15.706
20.933
26.654
32.724
39.015
45.423
51.875
58.274
64.513
70.486
76.09
81.264
85.987
90.259
94.104
97.549
100.632
103.4
105.913
108.226
110.394
112.462
114.47
116.464
118.49
120.596
122.829
125.219
127.781
130.526
133.451
136.552
139.824
143.251
146.812
150.492
154.273
158.141
162.083
166.084
170.123
174.181
178.236
182.268
186.257
190.185
194.031
197.775
201.398
204.882
208.21
211.364
214.324
217.071
219.586
221.853
223.854
225.573
226.997
228.113
228.909
229.376
229.508
229.299
228.743
227.84
226.588
224.988
223.042
220.755
218.131
215.177
211.903
208.318
204.433
200.262
195.818
191.117
186.175
181.009
175.637
170.08
164.355
158.484
152.487
146.384
140.198
133.948
127.656
121.341
115.025
108.727
102.466
96.26
90.127
84.083
78.145
72.326
66.642
61.105
55.728
50.522
45.497
40.662
36.026
31.595
27.376
23.373
19.589
16.029
12.692
9.579
6.69
4.023
1.575
-0.657
-2.679
-4.494
-6.109
-7.531
-8.767
-9.823
-10.709
-11.432
-12
-12.423
-12.71
-12.868
-12.907
-12.836
-12.663
-12.397
-12.047
-11.622
-11.128
-10.575
-9.971
-9.322
-8.636
-7.921
-7.182
-6.425
-5.656
-4.881
-4.104
-3.329
-2.561
-1.802
-1.055
-0.324
0.389
1.082
1.753
2.402
3.026
3.625
4.196
4.741
5.256
5.743
6.199
6.623
7.016
7.376
7.702
7.994
8.251
8.471
8.656
8.803
8.912
8.983
9.014
9.006
8.957
8.867
8.736
8.562
8.345
8.085
7.781
7.433
7.041
6.605
6.125
5.601
5.034
4.424
3.774
3.085
2.359
1.598
0.806
-0.013
-0.857
-1.721
-2.6
-3.491
-4.388
-5.286
-6.179
-7.063
-7.931
-8.777
-9.597
-10.383
-11.13
-11.831
-12.482
-13.076
-13.609
-14.075
-14.468
-14.785
-15.021
-15.171
-15.233
-15.204
-15.081
-14.863
-14.55
-14.143
-13.642
-13.052
-12.375
-11.617
-10.782
-9.877
-8.908
-7.883
-6.81
-5.698
-4.555
-3.39
-2.213
-1.036
0.131
1.277
2.392
3.464
4.483
5.438
6.318
7.115
7.822
8.434
8.945
9.348
9.634
9.8
9.847
9.777
9.594
9.303
8.91
8.429
7.883
7.294
6.682
6.06
5.439
4.829
4.246
3.709
3.24
2.852
2.55
2.334
2.21
2.182
2.245
2.372
2.508
2.593
2.577
2.424
2.114
1.622
0.91
-0.081
-1.405
-3.108
-5.222
-7.761
-10.771
-14.345
-18.49
-23.085
-27.875
-32.481
-36.565
-39.917
-42.296
-43.334
-42.795
-40.715
-37.454
-33.762
-30.375
-27.669
-25.951
-25.72
-27.267
-30.418
-34.463
-37.913
-39.042
-36.693
-29.798
-16.881
3.261
31.274
67.117
109.346
155.701
204.192
252.295
296.33
332.402
356.441
364.601
354.64
325.243
275.294
205.093
116.759
13.619
-99.355
-216.348
-332.152
-441.378
-538.479
-618.992
-679.542
-718.119
-734.819
-730.847
-707.839
-668.643
-616.851
-556.255
-491.1
-425.129
-360.983
-301.134
-247.656
-201.786
-164.338
-135.241
-113.376
-97.571
-86.788
-79.558
-74.492
-70.245
-65.315
-59.033
-51.475
-42.805
-33.372
-23.745
-14.406
-6.036
0.468
4.778
6.988
7.318
6.238
4.205
1.583
-1.123
-3.334
-4.697
-5.046
-4.344
-2.714
-0.256
2.965
6.831
11.205
15.959
20.973
26.154
31.428
36.714
41.913
46.93
51.667
56.039
60
63.534
66.65
69.377
71.747
73.801
75.588
77.168
78.598
79.931
81.214
82.487
83.796
85.187
86.708
88.403
90.3
92.416
94.756
97.319
100.101
103.094
106.282
109.645
113.162
116.818
120.595
124.479
128.452
132.491
136.573
140.676
144.776
148.852
152.88
156.838
160.703
164.454
168.069
171.528
174.811
177.896
180.762
183.389
185.757
187.848
189.645
191.133
192.298
193.128
193.615
193.752
193.534
192.956
192.018
190.721
189.066
187.058
184.702
182.007
178.981
175.636
171.982
168.035
163.809
159.32
154.587
149.626
144.459
139.104
133.583
127.917
122.128
116.238
110.269
104.243
98.183
92.109
86.044
80.008
74.021
68.102
62.268
56.538
50.927
45.45
40.121
34.952
29.954
25.137
20.512
16.085
11.863
7.851
4.055
0.477
-2.881
-6.017
-8.933
-11.627
-14.104
-16.365
-18.415
-20.258
-21.9
-23.348
-24.608
-25.688
-26.597
-27.343
-27.934
-28.381
-28.693
-28.879
-28.949
-28.912
-28.779
-28.558
-28.259
-27.89
-27.46
-26.977
-26.45
-25.884
-25.288
-24.668
-24.031
-23.382
-22.727
-22.07
-21.417
-20.772
-20.137
-19.517
-18.915
-18.332
-17.772
-17.235
-16.723
-16.236
-15.777
-15.344
-14.937
-14.557
-14.203
-13.874
-13.569
-13.287
-13.027
-12.789
-12.569
-12.369
-12.186
-12.019
-11.868
-11.732
-11.61
-11.501
-11.406
-11.323
-11.253
-11.195
-11.15
-11.116
-11.095
-11.087
-11.091
-11.108
-11.139
-11.183
-11.241
-11.314
-11.402
-11.505
-11.625
-11.762
-11.917
-12.091
-12.283
-12.496
-12.73
-12.985
-13.263
-13.562
-13.884
-14.228
-14.594
-14.981
-15.388
-15.813
-16.255
-16.71
-17.178
-17.656
-18.141
-18.63
-19.12
-19.608
-20.09
-20.563
-21.023
-21.466
-21.889
-22.286
-22.655
-22.991
-23.289
-23.547
-23.758
-23.92
-24.027
-24.076
-24.061
-23.979
-23.825
-23.596
-23.29
-22.904
-22.437
-21.888
-21.257
-20.545
-19.755
-18.891
-17.956
-16.953
-15.887
-14.764
-13.589
-12.368
-11.107
-9.813
-8.494
-7.159
-5.818
-4.482
-3.159
-1.861
-0.597
0.623
1.788
2.888
3.916
4.862
5.716
6.467
7.102
7.612
7.996
8.251
8.382
8.396
8.304
8.118
7.862
7.551
7.202
6.831
6.446
6.062
5.696
5.364
5.086
4.879
4.749
4.697
4.721
4.801
4.911
5.023
5.084
5.05
4.88
4.529
3.949
3.104
1.949
0.449
-1.419
-3.689
-6.398
-9.571
-13.238
-17.396
-22
-27.031
-32.496
-38.303
-44.281
-50.142
-55.431
-59.753
-62.846
-64.373
-63.933
-61.369
-56.775
-50.591
-43.809
-37.365
-31.865
-28.004
-26.44
-27.37
-30.549
-35.052
-38.899
-40.052
-36.821
-27.254
-9.635
17.133
53.558
98.887
150.811
206.46
262.503
314.525
357.913
387.984
400.217
391.544
360.228
305.457
227.992
130.498
16.959
-107.068
-235.132
-361.247
-479.303
-583.399
-668.91
-732.447
-772.17
-788.337
-782.321
-756.04
-712.709
-656.25
-590.736
-520.628
-449.784
-380.982
-316.892
-259.779
-210.999
-171.415
-140.934
-118.368
-102.476
-92.116
-85.618
-81.354
-77.755
-73.146
-66.78
-58.745
-49.234
-38.664
-27.722
-17.018
-7.372
0.209
5.35
8.127
8.763
7.76
5.616
2.729
-0.344
-2.993
-4.86
-5.738
-5.561
-4.441
-2.455
0.331
3.796
7.816
12.273
17.054
22.072
27.252
32.501
37.738
42.866
47.794
52.441
56.731
60.622
64.11
67.208
69.942
72.351
74.47
76.348
78.046
79.615
81.107
82.566
84.028
85.535
87.131
88.858
90.755
92.846
95.142
97.645
100.355
103.264
106.362
109.633
113.054
116.604
120.266
124.024
127.862
131.762
135.701
139.657
143.608
147.531
151.405
155.207
158.916
162.51
165.968
169.27
172.4
175.337
178.062
180.556
182.8
184.778
186.474
187.873
188.961
189.726
190.16
190.255
190.005
189.408
188.46
187.162
185.515
183.523
181.19
178.522
175.527
172.214
168.594
164.679
160.483
156.02
151.308
146.362
141.202
135.847
130.315
124.628
118.807
112.872
106.844
100.746
94.599
88.423
82.241
76.072
69.937
63.856
57.847
51.927
46.114
40.423
34.87
29.469
24.232
19.171
14.298
9.623
5.153
0.898
-3.137
-6.946
-10.525
-13.872
-16.984
-19.861
-22.504
-24.914
-27.094
-29.048
-30.78
-32.296
-33.602
-34.706
-35.614
-36.336
-36.88
-37.256
-37.474
-37.544
-37.475
-37.279
-36.965
-36.546
-36.03
-35.429
-34.753
-34.013
-33.218
-32.38
-31.506
-30.608
-29.693
-28.769
-27.846
-26.929
-26.027
-25.144
-24.286
-23.458
-22.664
-21.909
-21.195
-20.524
-19.899
-19.32
-18.789
-18.305
-17.869
-17.479
-17.135
-16.834
-16.576
-16.358
-16.178
-16.033
-15.92
-15.835
-15.776
-15.74
-15.722
-15.718
-15.726
-15.742
-15.762
-15.783
-15.802
-15.817
-15.825
-15.825
-15.814
-15.79
-15.754
-15.704
-15.641
-15.563
-15.472
-15.369
-15.255
-15.13
-14.999
-14.862
-14.721
-14.58
-14.442
-14.309
-14.184
-14.071
-13.974
-13.895
-13.839
-13.808
-13.808
-13.841
-13.911
-14.02
-14.172
-14.367
-14.609
-14.898
-15.235
-15.62
-16.053
-16.531
-17.056
-17.623
-18.23
-18.873
-19.549
-20.254
-20.981
-21.726
-22.482
-23.243
-24.001
-24.749
-25.481
-26.188
-26.863
-27.496
-28.081
-28.609
-29.071
-29.459
-29.765
-29.98
-30.099
-30.115
-30.022
-29.815
-29.491
-29.047
-28.483
-27.799
-26.996
-26.075
-25.038
-23.891
-22.637
-21.282
-19.833
-18.297
-16.683
-15.002
-13.267
-11.491
-9.686
-7.866
-6.044
-4.236
-2.454
-0.714
0.972
2.592
4.129
5.568
6.89
8.082
9.137
10.049
10.817
11.444
11.934
12.297
12.55
12.707
12.78
12.779
12.71
12.585
12.418
12.229
12.038
11.862
11.706
11.576
11.471
11.382
11.289
11.162
10.958
10.641
10.18
9.542
8.693
7.595
6.212
4.513
2.473
0.064
-2.748
-5.996
-9.705
-13.879
-18.49
-23.517
-28.97
-34.804
-40.87
-46.914
-52.556
-57.416
-61.233
-63.71
-64.431
-63.133
-59.858
-54.991
-49.346
-43.79
-38.857
-35.031
-32.983
-33.111
-35.225
-38.504
-41.294
-41.656
-38.181
-29.587
-14.243
9.172
41.197
81.515
128.505
179.679
232.719
284.877
332.287
370.721
396.175
405.231
395.37
364.835
312.497
238.213
144.816
38.059
-77.6
-198.408
-321.861
-448.163
-570.713
-677.927
-759.492
-804.003
-810.586
-788.681
-746.906
-695.836
-640.829
-579.965
-514.108
-444.733
-374.278
-308.417
-250.616
-202.043
-163.46
-134.072
-112.397
-97.371
-87.719
-81.545
-77.188
-73.164
-67.958
-61
-52.473
-42.62
-31.933
-21.191
-11.045
-2.27
4.233
8.192
9.761
9.216
7.095
3.931
0.153
-3.685
-6.995
-9.441
-10.83
-11.104
-10.369
-8.702
-6.17
-2.892
1.007
5.408
10.19
15.258
20.524
25.888
31.254
36.523
41.595
46.389
50.83
54.875
58.523
61.783
64.684
67.263
69.559
71.619
73.506
75.273
76.973
78.651
80.346
82.1
83.959
85.96
88.142
90.527
93.122
95.929
98.945
102.159
105.561
109.133
112.85
116.692
120.641
124.677
128.786
132.947
137.136
141.332
145.512
149.652
153.732
157.73
161.623
165.392
169.014
172.472
175.748
178.822
181.675
184.289
186.645
188.727
190.519
192.007
193.177
194.018
194.522
194.681
194.489
193.945
193.044
191.789
190.179
188.219
185.913
183.268
180.291
176.992
173.381
169.473
165.279
160.814
156.096
151.14
145.964
140.589
135.032
129.313
123.454
117.474
111.395
105.237
99.023
92.774
86.509
80.25
74.017
67.83
61.706
55.665
49.724
43.898
38.203
32.654
27.263
22.044
17.008
12.165
7.524
3.093
-1.12
-5.11
-8.873
-12.405
-15.704
-18.768
-21.598
-24.194
-26.559
-28.695
-30.605
-32.296
-33.772
-35.04
-36.107
-36.982
-37.671
-38.186
-38.534
-38.727
-38.774
-38.685
-38.473
-38.146
-37.717
-37.196
-36.593
-35.92
-35.187
-34.404
-33.582
-32.728
-31.854
-30.966
-30.075
-29.186
-28.307
-27.445
-26.606
-25.795
-25.018
-24.278
-23.58
-22.926
-22.32
-21.762
-21.255
-20.799
-20.396
-20.043
-19.742
-19.49
-19.286
-19.129
-19.014
-18.94
-18.904
-18.901
-18.929
-18.984
-19.061
-19.157
-19.267
-19.388
-19.515
-19.645
-19.774
-19.898
-20.014
-20.118
-20.207
-20.279
-20.331
-20.361
-20.367
-20.348
-20.301
-20.226
-20.123
-19.99
-19.828
-19.637
-19.418
-19.171
-18.899
-18.603
-18.285
-17.949
-17.596
-17.231
-16.857
-16.477
-16.094
-15.712
-15.335
-14.969
-14.616
-14.281
-13.969
-13.683
-13.429
-13.208
-13.026
-12.885
-12.788
-12.736
-12.733
-12.779
-12.877
-13.026
-13.228
-13.482
-13.79
-14.149
-14.558
-15.014
-15.515
-16.058
-16.638
-17.25
-17.889
-18.548
-19.223
-19.907
-20.596
-21.284
-21.962
-22.623
-23.263
-23.872
-24.442
-24.963
-25.424
-25.815
-26.129
-26.36
-26.5
-26.543
-26.483
-26.317
-26.046
-25.669
-25.181
-24.575
-23.845
-22.988
-22.013
-20.929
-19.746
-18.471
-17.115
-15.692
-14.224
-12.726
-11.204
-9.654
-8.069
-6.452
-4.817
-3.186
-1.576
0.001
1.546
3.06
4.53
5.95
7.324
8.674
10.028
11.402
12.784
14.144
15.461
16.73
17.95
19.131
20.266
21.343
22.353
23.294
24.177
25.004
25.751
26.373
26.822
27.07
27.115
26.973
26.63
26.064
25.264
24.225
22.954
21.461
19.729
17.72
15.405
12.769
9.821
6.605
3.141
-0.57
-4.534
-8.757
-13.204
-17.809
-22.568
-27.535
-32.68
-37.876
-42.87
-47.233
-50.612
-52.786
-53.46
-52.279
-49.087
-43.964
-37.342
-30.169
-23.349
-17.461
-13.101
-10.843
-10.885
-13.01
-16.392
-19.253
-19.67
-16.092
-6.883
9.494
34.028
67.158
108.401
155.814
206.75
258.284
306.65
347.655
377.111
390.888
385.638
359.381
311.11
240.968
150.875
44.151
-74.523
-199.341
-324.372
-443.749
-551.613
-642.891
-713.795
-761.854
-786.567
-788.86
-770.181
-733.029
-681
-618.12
-548.759
-477.118
-406.188
-338.581
-277.111
-223.847
-180.044
-145.99
-120.739
-102.915
-91.533
-85.223
-82.013
-79.948
-77.096
-72.348
-65.694
-57.416
-47.783
-37.318
-26.763
-17.052
-9.315
-4.106
-1.332
-0.712
-1.768
-4.005
-6.998
-10.173
-12.869
-14.682
-15.416
-15.022
-13.625
-11.326
-8.189
-4.342
0.077
4.941
10.122
15.527
21.076
26.676
32.235
37.659
42.848
47.725
52.217
56.285
59.928
63.16
66.009
68.514
70.713
72.656
74.404
76.015
77.538
79.023
80.508
82.035
83.653
85.403
87.323
89.44
91.763
94.299
97.045
99.998
103.148
106.481
109.975
113.612
117.376
121.251
125.223
129.273
133.379
137.521
141.676
145.823
149.939
154.003
157.993
161.887
165.663
169.302
172.784
176.09
179.198
182.087
184.738
187.132
189.251
191.078
192.597
193.795
194.659
195.18
195.35
195.163
194.614
193.7
192.422
190.779
188.775
186.415
183.703
180.65
177.263
173.555
169.538
165.227
160.638
155.787
150.694
145.378
139.858
134.155
128.292
122.29
116.172
109.961
103.679
97.349
90.995
84.638
78.3
72.004
65.768
59.614
53.56
47.624
41.823
36.172
30.687
25.38
20.265
15.352
10.651
6.171
1.918
-2.101
-5.882
-9.423
-12.721
-15.777
-18.591
-21.167
-23.506
-25.614
-27.496
-29.158
-30.609
-31.856
-32.908
-33.774
-34.465
-34.99
-35.361
-35.589
-35.684
-35.657
-35.52
-35.284
-34.958
-34.555
-34.085
-33.557
-32.982
-32.368
-31.726
-31.062
-30.385
-29.702
-29.02
-28.344
-27.68
-27.031
-26.403
-25.799
-25.22
-24.669
-24.148
-23.658
-23.198
-22.77
-22.373
-22.006
-21.669
-21.361
-21.081
-20.826
-20.597
-20.391
-20.207
-20.043
-19.897
-19.769
-19.657
-19.558
-19.471
-19.395
-19.329
-19.271
-19.221
-19.178
-19.14
-19.108
-19.081
-19.059
-19.042
-19.03
-19.023
-19.023
-19.029
-19.042
-19.064
-19.095
-19.136
-19.187
-19.249
-19.323
-19.408
-19.506
-19.617
-19.74
-19.877
-20.026
-20.189
-20.366
-20.556
-20.76
-20.977
-21.208
-21.452
-21.709
-21.978
-22.258
-22.55
-22.853
-23.166
-23.49
-23.823
-24.165
-24.517
-24.877
-25.245
-25.62
-26.002
-26.39
-26.784
-27.184
-27.59
-28.001
-28.417
-28.838
-29.264
-29.693
-30.125
-30.558
-30.99
-31.42
-31.845
-32.263
-32.671
-33.066
-33.448
-33.814
-34.163
-34.493
-34.802
-35.09
-35.354
-35.59
-35.796
-35.965
-36.09
-36.167
-36.191
-36.157
-36.062
-35.899
-35.666
-35.362
-34.984
-34.53
-33.993
-33.365
-32.64
-31.821
-30.911
-29.921
-28.864
-27.753
-26.602
-25.43
-24.25
-23.069
-21.888
-20.695
-19.477
-18.234
-16.97
-15.699
-14.435
-13.179
-11.927
-10.676
-9.405
-8.1
-6.742
-5.294
-3.738
-2.081
-0.341
1.439
3.207
4.931
6.595
8.191
9.725
11.191
12.581
13.888
15.091
16.163
17.071
17.76
18.196
18.383
18.338
18.108
17.757
17.324
16.828
16.282
15.677
14.992
14.211
13.315
12.285
11.112
9.797
8.359
6.81
5.149
3.348
1.352
-0.911
-3.506
-6.465
-9.798
-13.519
-17.659
-22.178
-26.933
-31.669
-36.006
-39.605
-42.239
-43.636
-43.416
-41.355
-37.538
-32.394
-26.754
-21.48
-17.083
-14.053
-13.114
-14.66
-18.456
-23.641
-28.488
-30.981
-29.677
-23.129
-9.413
12.869
44.308
84.611
131.919
183.574
237.085
289.167
335.354
371.221
392.438
395.321
377.88
338.858
277.531
194.997
94.251
-20.388
-143.201
-268.24
-390.058
-502.63
-600.208
-678.41
-734.131
-766.3
-775.755
-763.787
-732.385
-685.141
-626.113
-559.64
-490.329
-421.39
-355.141
-294.253
-240.745
-195.62
-159.485
-131.748
-110.859
-95.88
-85.822
-78.975
-73.875
-69.08
-63.129
-55.659
-46.995
-37.268
-26.864
-16.468
-6.595
1.981
8.413
12.538
14.527
14.656
13.436
11.34
8.736
6.133
4.032
2.702
2.296
2.813
4.101
6.065
8.621
11.669
15.138
18.938
22.975
27.172
31.446
35.726
39.959
44.08
48.026
51.753
55.215
58.422
61.446
64.33
67.111
69.803
72.378
74.846
77.245
79.606
81.965
84.349
86.762
89.231
91.796
94.481
97.304
100.253
103.276
106.346
109.458
112.619
115.866
119.213
122.651
126.177
129.794
133.498
137.288
141.149
145.044
148.949
152.848
156.731
160.605
164.461
168.277
172.025
175.666
179.168
182.508
185.657
188.581
191.255
193.655
195.766
197.582
199.095
200.291
201.157
201.679
201.849
201.662
201.115
200.208
198.943
197.323
195.353
193.045
190.405
187.445
184.173
180.599
176.733
172.59
168.185
163.533
158.651
153.559
148.276
142.822
137.22
131.489
125.652
119.728
113.74
107.707
101.651
95.592
89.548
83.54
77.586
71.704
65.91
60.22
54.649
49.212
43.92
38.787
33.822
29.036
24.436
20.031
15.827
11.829
8.042
4.468
1.11
-2.031
-4.955
-7.663
-10.157
-12.441
-14.518
-16.394
-18.074
-19.563
-20.869
-22
-22.961
-23.763
-24.412
-24.917
-25.287
-25.532
-25.659
-25.679
-25.599
-25.429
-25.177
-24.852
-24.462
-24.015
-23.519
-22.981
-22.408
-21.806
-21.183
-20.545
-19.896
-19.242
-18.589
-17.94
-17.299
-16.67
-16.056
-15.46
-14.884
-14.33
-13.799
-13.293
-12.813
-12.36
-11.935
-11.537
-11.166
-10.824
-10.508
-10.22
-9.958
-9.723
-9.513
-9.328
-9.167
-9.031
-8.917
-8.826
-8.757
-8.709
-8.681
-8.673
-8.684
-8.713
-8.76
-8.824
-8.904
-9
-9.112
-9.24
-9.382
-9.538
-9.709
-9.893
-10.092
-10.304
-10.529
-10.768
-11.021
-11.287
-11.567
-11.86
-12.167
-12.488
-12.822
-13.169
-13.53
-13.904
-14.291
-14.692
-15.106
-15.533
-15.973
-16.426
-16.893
-17.373
-17.867
-18.374
-18.894
-19.428
-19.975
-20.534
-21.107
-21.692
-22.288
-22.896
-23.515
-24.142
-24.778
-25.419
-26.066
-26.716
-27.366
-28.015
-28.66
-29.299
-29.928
-30.547
-31.151
-31.738
-32.304
-32.847
-33.362
-33.848
-34.299
-34.712
-35.084
-35.411
-35.69
-35.917
-36.089
-36.201
-36.252
-36.238
-36.157
-36.006
-35.783
-35.487
-35.118
-34.675
-34.159
-33.572
-32.916
-32.195
-31.411
-30.57
-29.676
-28.736
-27.754
-26.739
-25.696
-24.633
-23.557
-22.475
-21.397
-20.329
-19.282
-18.264
-17.282
-16.346
-15.463
-14.643
-13.894
-13.223
-12.633
-12.128
-11.712
-11.389
-11.166
-11.047
-11.025
-11.098
-11.259
-11.504
-11.825
-12.209
-12.632
-13.07
-13.502
-13.912
-14.293
-14.637
-14.923
-15.132
-15.241
-15.236
-15.121
-14.899
-14.564
-14.115
-13.565
-12.943
-12.314
-11.753
-11.308
-11.024
-10.93
-11.044
-11.418
-12.115
-13.194
-14.711
-16.698
-19.153
-22.128
-25.718
-29.896
-34.519
-39.294
-43.749
-47.488
-50.258
-51.74
-51.545
-49.524
-45.765
-40.711
-35.363
-30.649
-27.155
-25.527
-26.319
-29.596
-34.999
-41.513
-47.077
-49.589
-47.293
-38.189
-20.617
6.344
42.974
88.297
139.799
194.502
249.048
299.042
340.036
367.717
378.037
368.47
337.871
285.767
213
122.243
17.204
-97.033
-214.528
-330.143
-438.823
-535.371
-615.632
-676.639
-716.503
-735.416
-734.851
-716.078
-681.364
-633.987
-577.189
-514.648
-450.037
-385.678
-323.457
-265.803
-214.407
-170.316
-134.373
-106.204
-84.785
-69.604
-59.854
-53.996
-50.652
-48.319
-45.441
-41.478
-36.443
-30.231
-23.062
-15.478
-7.962
-1.286
3.689
6.737
7.984
7.66
6.207
4.062
1.595
-0.684
-2.23
-2.774
-2.224
-0.615
1.888
5.167
9.133
13.652
18.57
23.756
29.091
34.48
39.858
45.143
50.241
55.059
59.507
63.533
67.125
70.294
73.072
75.496
77.605
79.45
81.091
82.584
83.984
85.34
86.69
88.08
89.555
91.161
92.945
94.938
97.155
99.603
102.281
105.183
108.303
111.625
115.129
118.796
122.607
126.547
130.601
134.751
138.975
143.249
147.549
151.853
156.137
160.378
164.552
168.637
172.608
176.445
180.127
183.632
186.937
190.021
192.861
195.437
197.731
199.722
201.396
202.736
203.73
204.367
204.639
204.538
204.059
203.201
201.96
200.34
198.342
195.971
193.233
190.138
186.694
182.914
178.812
174.402
169.7
164.725
159.495
154.031
148.352
142.482
136.441
130.252
123.939
117.525
111.033
104.486
97.908
91.32
84.746
78.205
71.72
65.309
58.991
52.784
46.705
40.768
34.988
29.378
23.951
18.716
13.684
8.862
4.258
-0.123
-4.276
-8.197
-11.886
-15.341
-18.563
-21.552
-24.312
-26.846
-29.158
-31.253
-33.138
-34.818
-36.302
-37.596
-38.71
-39.651
-40.428
-41.051
-41.528
-41.869
-42.082
-42.177
-42.161
-42.045
-41.836
-41.542
-41.172
-40.734
-40.233
-39.679
-39.076
-38.432
-37.753
-37.043
-36.308
-35.553
-34.781
-33.997
-33.204
-32.405
-31.603
-30.799
-29.997
-29.199
-28.404
-27.616
-26.836
-26.064
-25.301
-24.549
-23.809
-23.082
-22.369
-21.672
-20.991
-20.328
-19.684
-19.061
-18.46
-17.884
-17.333
-16.81
-16.316
-15.853
-15.423
-15.028
-14.669
-14.35
-14.071
-13.836
-13.645
-13.5
-13.404
-13.359
-13.365
-13.425
-13.54
-13.711
-13.939
-14.225
-14.569
-14.97
-15.43
-15.946
-16.518
-17.144
-17.822
-18.549
-19.323
-20.139
-20.994
-21.884
-22.803
-23.747
-24.71
-25.687
-26.671
-27.657
-28.639
-29.609
-30.561
-31.489
-32.385
-33.243
-34.055
-34.815
-35.516
-36.151
-36.715
-37.2
-37.601
-37.912
-38.127
-38.244
-38.257
-38.163
-37.96
-37.645
-37.218
-36.68
-36.03
-35.273
-34.411
-33.448
-32.391
-31.245
-30.017
-28.716
-27.35
-25.927
-24.457
-22.95
-21.414
-19.862
-18.303
-16.751
-15.216
-13.71
-12.245
-10.832
-9.483
-8.211
-7.025
-5.932
-4.94
-4.054
-3.283
-2.637
-2.121
-1.734
-1.476
-1.344
-1.334
-1.441
-1.649
-1.937
-2.279
-2.654
-3.046
-3.444
-3.835
-4.203
-4.527
-4.783
-4.959
-5.048
-5.048
-4.955
-4.766
-4.487
-4.15
-3.814
-3.548
-3.41
-3.446
-3.682
-4.143
-4.873
-5.934
-7.389
-9.288
-11.668
-14.54
-17.948
-21.983
-26.642
-31.785
-37.129
-42.258
-46.8
-50.536
-53.212
-54.454
-54.05
-52.06
-48.871
-45.28
-42.03
-39.469
-37.892
-37.757
-39.262
-42.135
-45.57
-47.992
-47.688
-43.537
-34.495
-19.16
3.518
33.978
71.948
115.811
163.239
212.212
260.186
303.471
338.264
360.705
367.203
355.754
325.242
274.617
204.203
116.229
13.999
-97.631
-212.973
-327.189
-435.286
-531.839
-612.455
-673.96
-714.343
-733.762
-733.521
-714.747
-679.69
-631.711
-574.358
-511.592
-447.12
-383.303
-322.263
-266.534
-217.879
-177.328
-145.129
-120.362
-101.848
-88.861
-80.292
-74.485
-69.832
-64.73
-58.296
-50.602
-41.903
-32.409
-22.543
-12.913
-4.292
2.372
6.648
8.679
8.759
7.339
4.876
1.779
-1.418
-4.093
-5.846
-6.509
-6.047
-4.571
-2.182
1.065
5.059
9.658
14.731
20.149
25.811
31.638
37.537
43.401
49.124
54.592
59.712
64.429
68.72
72.59
76.062
79.164
81.933
84.417
86.675
88.764
90.738
92.644
94.523
96.422
98.388
100.472
102.719
105.157
107.801
110.658
113.725
116.997
120.465
124.112
127.915
131.854
135.908
140.062
144.299
148.598
152.937
157.29
161.632
165.941
170.191
174.36
178.424
182.358
186.142
189.752
193.169
196.373
199.34
202.05
204.482
206.616
208.436
209.925
211.066
211.848
212.259
212.291
211.937
211.193
210.056
208.526
206.605
204.295
201.602
198.534
195.1
191.31
187.179
182.719
177.948
172.883
167.543
161.949
156.122
150.085
143.861
137.474
130.949
124.309
117.581
110.789
103.959
97.114
90.279
83.478
76.734
70.068
63.502
57.056
50.749
44.598
38.619
32.828
27.238
21.862
16.711
11.793
7.119
2.693
-1.478
-5.391
-9.044
-12.434
-15.563
-18.432
-21.044
-23.404
-25.515
-27.385
-29.021
-30.431
-31.624
-32.61
-33.398
-34.001
-34.428
-34.692
-34.804
-34.777
-34.623
-34.353
-33.979
-33.514
-32.969
-32.355
-31.683
-30.963
-30.207
-29.422
-28.619
-27.806
-26.99
-26.181
-25.383
-24.604
-23.848
-23.122
-22.429
-21.772
-21.155
-20.58
-20.049
-19.562
-19.121
-18.724
-18.373
-18.064
-17.799
-17.573
-17.386
-17.235
-17.117
-17.029
-16.968
-16.931
-16.915
-16.917
-16.933
-16.961
-16.997
-17.038
-17.082
-17.126
-17.167
-17.203
-17.233
-17.254
-17.264
-17.263
-17.248
-17.22
-17.178
-17.121
-17.05
-16.966
-16.868
-16.759
-16.64
-16.514
-16.381
-16.245
-16.109
-15.975
-15.847
-15.728
-15.621
-15.531
-15.46
-15.413
-15.393
-15.403
-15.446
-15.526
-15.644
-15.803
-16.005
-16.251
-16.543
-16.88
-17.265
-17.696
-18.173
-18.696
-19.264
-19.874
-20.525
-21.214
-21.937
-22.692
-23.472
-24.273
-25.09
-25.916
-26.746
-27.573
-28.39
-29.188
-29.961
-30.701
-31.399
-32.047
-32.637
-33.162
-33.614
-33.986
-34.272
-34.468
-34.568
-34.569
-34.47
-34.268
-33.963
-33.554
-33.041
-32.426
-31.709
-30.893
-29.981
-28.978
-27.888
-26.719
-25.482
-24.185
-22.839
-21.455
-20.044
-18.617
-17.188
-15.766
-14.362
-12.989
-11.66
-10.39
-9.196
-8.092
-7.085
-6.178
-5.374
-4.668
-4.057
-3.529
-3.065
-2.655
-2.287
-1.955
-1.658
-1.389
-1.136
-0.883
-0.612
-0.312
0.019
0.382
0.775
1.187
1.601
1.983
2.285
2.476
2.528
2.423
2.147
1.663
0.936
-0.066
-1.372
-2.991
-4.929
-7.211
-9.86
-12.89
-16.296
-20.035
-24.072
-28.434
-33.087
-37.901
-42.644
-46.932
-50.394
-52.774
-53.777
-53.018
-50.28
-45.66
-39.601
-32.972
-26.688
-21.336
-17.466
-15.805
-16.742
-20.019
-24.735
-29.138
-31.167
-29.319
-22.134
-7.696
15.394
47.687
88.845
136.975
189.31
243.304
295.723
342.138
378.187
399.655
402.89
385.998
348.003
288.31
207.996
110.02
-1.592
-121.452
-243.71
-363.177
-474.395
-571.955
-651.74
-710.836
-747.734
-762.829
-757.324
-732.844
-692.296
-639.239
-577.385
-510.805
-442.996
-376.478
-313.794
-257.181
-208.057
-167.43
-135.374
-110.909
-93.022
-80.776
-72.699
-67.285
-63.005
-58.16
-51.943
-44.366
-35.54
-25.785
-15.678
-5.745
3.24
10.279
14.984
17.422
17.807
16.632
14.378
11.426
8.319
5.668
3.831
3.015
3.276
4.497
6.59
9.485
13.055
17.168
21.701
26.53
31.564
36.721
41.906
47.031
52.003
56.728
61.133
65.15
68.741
71.911
74.676
77.067
79.127
80.894
82.418
83.761
84.977
86.118
87.232
88.357
89.535
90.812
92.228
93.818
95.608
97.603
99.807
102.217
104.825
107.621
110.588
113.703
116.947
120.302
123.751
127.278
130.863
134.485
138.121
141.749
145.347
148.894
152.369
155.752
159.022
162.159
165.145
167.964
170.597
173.027
175.236
177.206
178.923
180.373
181.542
182.419
182.994
183.258
183.208
182.837
182.146
181.131
179.796
178.143
176.176
173.901
171.327
168.461
165.315
161.9
158.229
154.315
150.174
145.821
141.272
136.546
131.659
126.629
121.476
116.216
110.87
105.455
99.99
94.493
88.983
83.477
77.993
72.546
67.153
61.83
56.59
51.447
46.413
41.501
36.72
32.081
27.592
23.261
19.094
15.097
11.275
7.631
4.168
0.888
-2.207
-5.119
-7.847
-10.393
-12.758
-14.947
-16.962
-18.807
-20.487
-22.006
-23.371
-24.587
-25.66
-26.598
-27.406
-28.093
-28.665
-29.129
-29.493
-29.765
-29.952
-30.06
-30.097
-30.071
-29.986
-29.851
-29.67
-29.45
-29.196
-28.914
-28.607
-28.281
-27.939
-27.586
-27.224
-26.857
-26.488
-26.119
-25.752
-25.39
-25.034
-24.685
-24.346
-24.016
-23.698
-23.391
-23.096
-22.814
-22.545
-22.288
-22.044
-21.814
-21.596
-21.392
-21.201
-21.023
-20.858
-20.707
-20.569
-20.446
-20.337
-20.243
-20.164
-20.102
-20.056
-20.027
-20.017
-20.025
-20.054
-20.103
-20.174
-20.268
-20.385
-20.526
-20.692
-20.884
-21.103
-21.348
-21.621
-21.922
-22.251
-22.608
-22.994
-23.409
-23.851
-24.322
-24.819
-25.341
-25.889
-26.461
-27.055
-27.67
-28.304
-28.955
-29.621
-30.301
-30.992
-31.69
-32.394
-33.101
-33.807
-34.509
-35.203
-35.886
-36.554
-37.204
-37.832
-38.435
-39.007
-39.547
-40.048
-40.509
-40.925
-41.292
-41.606
-41.865
-42.065
-42.202
-42.275
-42.28
-42.216
-42.079
-41.869
-41.583
-41.22
-40.779
-40.26
-39.662
-38.987
-38.234
-37.406
-36.505
-35.535
-34.501
-33.406
-32.255
-31.055
-29.813
-28.534
-27.226
-25.896
-24.552
-23.199
-21.847
-20.504
-19.179
-17.88
-16.616
-15.396
-14.227
-13.121
-12.084
-11.125
-10.246
-9.453
-8.75
-8.142
-7.637
-7.24
-6.948
-6.76
-6.675
-6.687
-6.792
-6.973
-7.208
-7.47
-7.737
-7.989
-8.216
-8.399
-8.521
-8.56
-8.494
-8.311
-8.008
-7.58
-7.023
-6.339
-5.541
-4.664
-3.779
-2.962
-2.281
-1.802
-1.575
-1.648
-2.09
-2.97
-4.361
-6.321
-8.886
-12.079
-15.952
-20.586
-25.974
-31.979
-38.315
-44.572
-50.371
-55.427
-59.421
-61.907
-62.567
-61.388
-58.685
-55.179
-51.615
-48.387
-45.853
-44.614
-45.052
-47.024
-49.846
-52.003
-51.686
-47.662
-38.722
-23.166
0.362
32.572
73.402
121.265
173.666
228.313
282.234
331.196
370.82
396.644
404.601
392.37
358.66
302.545
224.705
127.794
15.689
-106.132
-231.437
-354.712
-470.295
-572.492
-656.864
-720.187
-760.6
-778.355
-774.877
-751.92
-712.462
-660.215
-598.837
-532.383
-464.606
-398.128
-335.262
-278.111
-227.872
-185.299
-150.79
-123.702
-102.986
-87.799
-76.937
-69.047
-63.014
-57.576
-51.59
-44.698
-36.947
-28.455
-19.66
-11.063
-3.094
3.597
8.386
11.134
11.995
11.288
9.511
7.125
4.535
2.239
0.729
0.269
0.952
2.748
5.509
9.117
13.471
18.432
23.841
29.557
35.453
41.418
47.371
53.212
58.835
64.137
69.022
73.434
77.356
80.796
83.784
86.356
88.557
90.44
92.07
93.508
94.813
96.039
97.23
98.436
99.709
101.096
102.648
104.396
106.356
108.538
110.941
113.562
116.391
119.417
122.617
125.974
129.47
133.092
136.823
140.646
144.54
148.482
152.448
156.415
160.363
164.267
168.106
171.856
175.496
179.004
182.361
185.544
188.534
191.308
193.845
196.127
198.134
199.851
201.261
202.351
203.11
203.527
203.596
203.31
202.666
201.662
200.297
198.573
196.494
194.065
191.293
188.187
184.757
181.016
176.978
172.658
168.071
163.237
158.174
152.901
147.439
141.809
136.032
130.13
124.126
118.04
111.895
105.712
99.511
93.314
87.141
81.009
74.938
68.946
63.048
57.26
51.597
46.072
40.698
35.486
30.447
25.589
20.92
16.449
12.18
8.117
4.265
0.625
-2.801
-6.012
-9.011
-11.798
-14.377
-16.75
-18.922
-20.897
-22.68
-24.278
-25.697
-26.942
-28.021
-28.941
-29.708
-30.331
-30.816
-31.172
-31.406
-31.526
-31.539
-31.453
-31.276
-31.014
-30.677
-30.27
-29.801
-29.276
-28.703
-28.087
-27.434
-26.75
-26.041
-25.311
-24.565
-23.807
-23.042
-22.274
-21.505
-20.74
-19.982
-19.234
-18.498
-17.778
-17.076
-16.395
-15.736
-15.102
-14.495
-13.915
-13.365
-12.846
-12.359
-11.904
-11.483
-11.095
-10.741
-10.421
-10.134
-9.88
-9.658
-9.468
-9.309
-9.179
-9.078
-9.004
-8.956
-8.933
-8.934
-8.956
-8.999
-9.061
-9.14
-9.234
-9.342
-9.461
-9.591
-9.729
-9.874
-10.024
-10.178
-10.334
-10.492
-10.65
-10.808
-10.964
-11.118
-11.27
-11.419
-11.566
-11.71
-11.853
-11.996
-12.139
-12.283
-12.43
-12.581
-12.738
-12.903
-13.076
-13.26
-13.457
-13.668
-13.895
-14.141
-14.407
-14.695
-15.006
-15.341
-15.701
-16.087
-16.499
-16.936
-17.399
-17.886
-18.395
-18.927
-19.478
-20.047
-20.631
-21.227
-21.832
-22.442
-23.052
-23.659
-24.257
-24.842
-25.407
-25.947
-26.457
-26.931
-27.363
-27.747
-28.076
-28.344
-28.546
-28.674
-28.725
-28.691
-28.569
-28.354
-28.044
-27.636
-27.129
-26.522
-25.818
-25.018
-24.125
-23.14
-22.068
-20.914
-19.684
-18.383
-17.017
-15.593
-14.119
-12.606
-11.063
-9.501
-7.93
-6.361
-4.805
-3.274
-1.781
-0.337
1.051
2.371
3.615
4.769
5.819
6.755
7.574
8.272
8.851
9.313
9.662
9.912
10.083
10.197
10.276
10.335
10.385
10.439
10.512
10.624
10.799
11.05
11.381
11.794
12.285
12.845
13.458
14.083
14.654
15.104
15.357
15.347
15.027
14.348
13.271
11.751
9.726
7.148
3.977
0.184
-4.237
-9.303
-15.06
-21.451
-28.276
-35.233
-41.881
-47.804
-52.712
-56.266
-58.024
-57.712
-55.365
-51.36
-46.48
-41.53
-36.984
-33.296
-31.145
-30.936
-32.483
-35.001
-36.897
-36.284
-31.838
-22.243
-5.662
19.263
53.056
95.419
144.551
197.818
252.842
306.502
354.338
391.871
414.898
419.798
404.357
367.234
307.567
225.819
125.94
13.233
-108.14
-232.569
-357.404
-479.992
-590.601
-682.065
-747.216
-779.568
-784.491
-767.195
-732.333
-687.857
-634.651
-573.9
-509.611
-443.113
-377.823
-317.792
-264.708
-219.817
-183.733
-155.634
-134.189
-118.635
-107.986
-100.606
-95.103
-89.989
-83.655
-75.62
-66.111
-55.204
-43.31
-31.13
-19.196
-8.341
0.472
6.964
11.226
13.441
14.061
13.535
12.224
10.643
9.317
8.525
8.414
9.025
10.288
12.135
14.485
17.2
20.133
23.175
26.255
29.317
32.308
35.173
37.854
40.328
42.612
44.713
46.626
48.35
49.883
51.271
52.611
53.994
55.497
57.182
59.086
61.253
63.741
66.576
69.756
73.256
77.01
80.978
85.147
89.496
94.01
98.646
103.328
107.999
112.62
117.157
121.589
125.887
130.011
133.952
137.72
141.339
144.855
148.29
151.643
154.915
158.105
161.216
164.261
167.24
170.132
172.925
175.601
178.147
180.556
182.809
184.871
186.708
188.281
189.56
190.528
191.166
191.459
191.396
190.967
190.17
189.01
187.494
185.623
183.404
180.84
177.939
174.716
171.186
167.364
163.265
158.907
154.304
149.475
144.438
139.209
133.805
128.243
122.54
116.716
110.79
104.782
98.713
92.602
86.471
80.338
74.223
68.144
62.121
56.168
50.303
44.54
38.895
33.381
28.009
22.792
17.741
12.865
8.173
3.672
-0.631
-4.731
-8.621
-12.3
-15.763
-19.009
-22.037
-24.847
-27.439
-29.815
-31.978
-33.931
-35.678
-37.224
-38.576
-39.739
-40.721
-41.529
-42.171
-42.657
-42.994
-43.191
-43.257
-43.203
-43.036
-42.767
-42.404
-41.957
-41.435
-40.846
-40.201
-39.506
-38.77
-38.002
-37.209
-36.397
-35.575
-34.749
-33.925
-33.108
-32.304
-31.518
-30.755
-30.017
-29.309
-28.633
-27.991
-27.386
-26.818
-26.288
-25.797
-25.345
-24.932
-24.556
-24.217
-23.914
-23.645
-23.408
-23.202
-23.025
-22.874
-22.747
-22.643
-22.558
-22.492
-22.44
-22.402
-22.376
-22.358
-22.346
-22.339
-22.335
-22.332
-22.327
-22.319
-22.307
-22.289
-22.264
-22.231
-22.189
-22.138
-22.076
-22.005
-21.923
-21.831
-21.729
-21.619
-21.499
-21.371
-21.237
-21.097
-20.952
-20.803
-20.653
-20.503
-20.353
-20.207
-20.064
-19.926
-19.796
-19.673
-19.561
-19.459
-19.371
-19.297
-19.239
-19.2
-19.182
-19.187
-19.216
-19.273
-19.359
-19.475
-19.625
-19.809
-20.028
-20.285
-20.581
-20.915
-21.29
-21.704
-22.157
-22.65
-23.179
-23.743
-24.338
-24.964
-25.615
-26.29
-26.986
-27.699
-28.428
-29.171
-29.926
-30.689
-31.458
-32.227
-32.989
-33.738
-34.468
-35.169
-35.833
-36.45
-37.011
-37.509
-37.937
-38.287
-38.549
-38.713
-38.768
-38.713
-38.546
-38.266
-37.879
-37.389
-36.806
-36.149
-35.435
-34.681
-33.9
-33.096
-32.27
-31.427
-30.572
-29.71
-28.842
-27.951
-27.018
-26.027
-24.957
-23.789
-22.498
-21.038
-19.376
-17.489
-15.357
-12.984
-10.381
-7.557
-4.523
-1.298
2.094
5.599
9.149
12.691
16.162
19.503
22.653
25.524
28.049
30.178
31.864
33.09
33.848
34.121
33.901
33.192
31.993
30.336
28.28
25.867
23.152
20.189
17.021
13.717
10.325
6.864
3.356
-0.191
-3.775
-7.36
-10.924
-14.464
-17.955
-21.408
-24.849
-28.263
-31.679
-35.176
-38.728
-42.233
-45.477
-48.054
-49.593
-49.843
-48.487
-45.167
-39.774
-32.461
-23.733
-14.634
-6.153
1.038
6.207
8.699
8.358
5.517
1.169
-2.662
-3.854
-0.655
8.885
26.495
53.124
89.017
133.342
183.729
237.168
290.368
339.109
378.839
405.397
415.129
405.078
373.485
319.806
244.349
150.216
43.185
-72.467
-192.945
-315.689
-440.91
-562.313
-669.043
-751.307
-798.057
-808.532
-791.682
-755.533
-709.906
-659.437
-601.949
-538.11
-469.509
-398.724
-331.075
-270.03
-216.988
-172.917
-137.813
-110.869
-91.123
-77.544
-68.635
-62.814
-58.778
-55.097
-50.506
-44.615
-37.489
-29.312
-20.629
-12.031
-4.007
2.72
7.472
10.086
10.711
9.697
7.578
4.817
1.824
-0.916
-2.939
-3.984
-3.981
-3.016
-1.259
1.147
4.092
7.47
11.154
15.038
19.055
23.129
27.205
31.232
35.131
38.828
42.279
45.449
48.363
51.099
53.723
56.297
58.884
61.51
64.204
66.987
69.843
72.763
75.752
78.807
81.948
85.202
88.575
92.07
95.67
99.321
102.987
106.637
110.239
113.785
117.273
120.71
124.133
127.577
131.059
134.592
138.173
141.785
145.426
149.084
152.748
156.419
160.092
163.755
167.405
171.025
174.589
178.068
181.418
184.595
187.567
190.303
192.781
194.982
196.889
198.488
199.772
200.732
201.358
201.643
201.576
201.152
200.371
199.232
197.741
195.904
193.73
191.224
188.397
185.256
181.812
178.074
174.052
169.758
165.206
160.41
155.388
150.159
144.741
139.154
133.419
127.558
121.591
115.539
109.422
103.261
97.075
90.886
84.712
78.573
72.485
66.468
60.537
54.71
49
43.422
37.989
32.714
27.607
22.678
17.938
13.393
9.05
4.917
0.997
-2.706
-6.189
-9.45
-12.49
-15.308
-17.907
-20.29
-22.46
-24.422
-26.182
-27.744
-29.117
-30.305
-31.318
-32.163
-32.847
-33.379
-33.768
-34.022
-34.151
-34.162
-34.065
-33.868
-33.581
-33.21
-32.765
-32.253
-31.682
-31.059
-30.391
-29.685
-28.947
-28.184
-27.4
-26.601
-25.792
-24.976
-24.159
-23.343
-22.532
-21.729
-20.936
-20.156
-19.391
-18.642
-17.912
-17.201
-16.512
-15.844
-15.2
-14.579
-13.982
-13.41
-12.864
-12.344
-11.85
-11.382
-10.94
-10.526
-10.139
-9.779
-9.447
-9.143
-8.866
-8.618
-8.398
-8.206
-8.043
-7.908
-7.802
-7.725
-7.676
-7.656
-7.665
-7.702
-7.767
-7.859
-7.979
-8.126
-8.298
-8.496
-8.72
-8.967
-9.238
-9.532
-9.849
-10.187
-10.546
-10.926
-11.326
-11.745
-12.183
-12.638
-13.111
-13.6
-14.106
-14.628
-15.166
-15.718
-16.285
-16.867
-17.462
-18.072
-18.694
-19.33
-19.979
-20.641
-21.316
-22.002
-22.701
-23.412
-24.133
-24.866
-25.608
-26.359
-27.117
-27.882
-28.65
-29.42
-30.19
-30.957
-31.718
-32.471
-33.212
-33.938
-34.645
-35.33
-35.989
-36.617
-37.21
-37.764
-38.274
-38.736
-39.144
-39.496
-39.785
-40.009
-40.162
-40.24
-40.24
-40.157
-39.989
-39.733
-39.386
-38.946
-38.413
-37.787
-37.068
-36.258
-35.36
-34.378
-33.317
-32.181
-30.976
-29.709
-28.388
-27.019
-25.612
-24.175
-22.716
-21.245
-19.774
-18.312
-16.872
-15.463
-14.096
-12.782
-11.534
-10.363
-9.276
-8.281
-7.384
-6.591
-5.911
-5.353
-4.921
-4.613
-4.429
-4.368
-4.426
-4.595
-4.864
-5.208
-5.606
-6.037
-6.488
-6.947
-7.401
-7.832
-8.222
-8.548
-8.799
-8.97
-9.054
-9.042
-8.931
-8.725
-8.45
-8.161
-7.918
-7.77
-7.763
-7.925
-8.286
-8.894
-9.805
-11.075
-12.755
-14.874
-17.456
-20.558
-24.269
-28.599
-33.43
-38.503
-43.434
-47.879
-51.599
-54.325
-55.66
-55.336
-53.379
-50.15
-46.416
-42.937
-40.101
-38.229
-37.853
-39.3
-42.387
-46.372
-49.679
-50.472
-47.522
-39.698
-25.431
-3.435
26.969
65.708
111.226
161.069
213.074
264.563
311.645
350.23
376.099
385.323
375.708
346.124
295.584
224.468
135.091
30.922
-82.934
-200.504
-316.758
-426.653
-524.77
-606.726
-669.34
-710.611
-730.775
-731.262
-713.28
-679.057
-631.877
-575.205
-512.951
-448.817
-385.125
-323.926
-267.71
-218.282
-176.796
-143.639
-117.978
-98.679
-85.062
-76.079
-70.125
-65.581
-60.747
-54.638
-47.275
-38.888
-29.676
-20.055
-10.602
-2.097
4.455
8.578
10.379
10.127
8.278
5.301
1.592
-2.302
-5.74
-8.315
-9.817
-10.177
-9.495
-7.852
-5.299
-1.953
2.054
6.593
11.535
16.78
22.246
27.831
33.439
38.963
44.298
49.359
54.072
58.39
62.31
65.841
69.007
71.844
74.39
76.691
78.809
80.796
82.703
84.575
86.452
88.377
90.396
92.549
94.871
97.386
100.102
103.021
106.14
109.452
112.945
116.602
120.403
124.325
128.354
132.47
136.659
140.902
145.175
149.457
153.726
157.96
162.137
166.237
170.237
174.116
177.854
181.431
184.828
188.026
191.005
193.745
196.227
198.433
200.347
201.954
203.239
204.19
204.796
205.049
204.944
204.474
203.637
202.432
200.859
198.92
196.62
193.963
190.958
187.614
183.939
179.948
175.652
171.068
166.211
161.099
155.751
150.186
144.424
138.488
132.397
126.175
119.845
113.428
106.948
100.428
93.889
87.353
80.844
74.38
67.984
61.673
55.466
49.38
43.433
37.638
32.011
26.563
21.306
16.252
11.409
6.786
2.389
-1.776
-5.705
-9.395
-12.844
-16.052
-19.019
-21.748
-24.24
-26.5
-28.533
-30.344
-31.94
-33.328
-34.517
-35.515
-36.331
-36.975
-37.456
-37.784
-37.97
-38.025
-37.958
-37.779
-37.5
-37.129
-36.676
-36.15
-35.561
-34.917
-34.227
-33.498
-32.738
-31.954
-31.152
-30.339
-29.521
-28.702
-27.887
-27.081
-26.286
-25.507
-24.747
-24.006
-23.289
-22.597
-21.93
-21.291
-20.68
-20.098
-19.546
-19.023
-18.53
-18.066
-17.632
-17.227
-16.85
-16.502
-16.182
-15.89
-15.625
-15.387
-15.176
-14.991
-14.832
-14.697
-14.588
-14.502
-14.441
-14.402
-14.387
-14.394
-14.424
-14.477
-14.552
-14.649
-14.767
-14.906
-15.065
-15.242
-15.438
-15.651
-15.879
-16.122
-16.378
-16.648
-16.928
-17.22
-17.521
-17.831
-18.148
-18.471
-18.799
-19.131
-19.466
-19.803
-20.141
-20.479
-20.817
-21.154
-21.488
-21.817
-22.141
-22.458
-22.765
-23.06
-23.339
-23.601
-23.843
-24.064
-24.263
-24.438
-24.59
-24.718
-24.824
-24.908
-24.969
-25.005
-25.013
-24.99
-24.933
-24.838
-24.7
-24.517
-24.285
-24.004
-23.675
-23.297
-22.868
-22.384
-21.838
-21.228
-20.557
-19.826
-19.042
-18.215
-17.359
-16.498
-15.657
-14.852
-14.093
-13.382
-12.712
-12.079
-11.479
-10.903
-10.352
-9.825
-9.315
-8.824
-8.348
-7.871
-7.365
-6.787
-6.088
-5.241
-4.241
-3.085
-1.797
-0.399
1.078
2.587
4.095
5.583
7.038
8.458
9.841
11.16
12.376
13.437
14.278
14.864
15.184
15.231
15.02
14.578
13.945
13.182
12.336
11.42
10.421
9.313
8.069
6.671
5.119
3.419
1.588
-0.358
-2.427
-4.639
-7.022
-9.625
-12.504
-15.707
-19.296
-23.331
-27.765
-32.45
-37.143
-41.476
-45.113
-47.813
-49.283
-49.152
-47.194
-43.483
-38.411
-32.73
-27.212
-22.322
-18.511
-16.46
-16.583
-18.695
-22.019
-24.998
-25.776
-23.013
-15.354
-0.966
21.498
52.602
92.067
138.142
188.284
240.098
290.426
334.975
369.518
389.95
392.799
376.239
339.152
280.94
202.714
107.357
-1.022
-117.014
-235.028
-349.998
-456.333
-548.728
-623.13
-676.633
-708.242
-718.746
-709.345
-681.867
-639.591
-586.21
-525.7
-462.325
-399.024
-337.881
-281.297
-231.08
-188.176
-153.196
-125.644
-104.15
-87.93
-76.203
-67.55
-60.752
-54.553
-47.616
-39.611
-30.825
-21.359
-11.531
-1.902
7.092
14.766
20.324
23.594
24.758
24.079
22.052
19.143
15.737
12.356
9.547
7.635
6.78
7.01
8.215
10.304
13.21
16.817
20.999
25.632
30.598
35.795
41.138
46.533
51.878
57.069
62.004
66.592
70.779
74.549
77.909
80.885
83.512
85.826
87.876
89.721
91.417
93.018
94.572
96.118
97.702
99.37
101.169
103.142
105.317
107.707
110.317
113.144
116.183
119.422
122.846
126.43
130.155
134.002
137.952
141.991
146.098
150.25
154.425
158.598
162.744
166.843
170.871
174.804
178.621
182.3
185.819
189.16
192.302
195.224
197.906
200.328
202.472
204.321
205.858
207.069
207.942
208.466
208.634
208.44
207.879
206.95
205.651
203.985
201.956
199.567
196.827
193.744
190.328
186.59
182.544
178.204
173.587
168.71
163.59
158.248
152.702
146.975
141.088
135.061
128.918
122.68
116.371
110.012
103.627
97.235
90.86
84.521
78.238
72.031
65.917
59.914
54.036
48.299
42.715
37.298
32.058
27.005
22.148
17.495
13.051
8.821
4.811
1.021
-2.545
-5.887
-9.007
-11.904
-14.583
-17.046
-19.298
-21.344
-23.19
-24.843
-26.311
-27.601
-28.723
-29.685
-30.498
-31.17
-31.713
-32.136
-32.449
-32.663
-32.787
-32.831
-32.805
-32.719
-32.581
-32.399
-32.183
-31.94
-31.677
-31.401
-31.12
-30.839
-30.564
-30.3
-30.053
-29.825
-29.621
-29.445
-29.298
-29.184
-29.105
-29.06
-29.052
-29.081
-29.146
-29.247
-29.383
-29.552
-29.754
-29.985
-30.245
-30.529
-30.836
-31.164
-31.509
-31.869
-32.24
-32.621
-33.008
-33.399
-33.792
-34.184
-34.572
-34.955
-35.331
-35.697
-36.053
-36.396
-36.725
-37.039
-37.337
-37.618
-37.882
-38.129
-38.358
-38.569
-38.764
-38.943
-39.107
-39.259
-39.398
-39.528
-39.651
-39.769
-39.884
-40
-40.118
-40.241
-40.373
-40.516
-40.673
-40.847
-41.04
-41.256
-41.496
-41.763
-42.06
-42.387
-42.748
-43.143
-43.575
-44.043
-44.55
-45.096
-45.681
-46.304
-46.967
-47.666
-48.402
-49.171
-49.972
-50.801
-51.655
-52.529
-53.42
-54.323
-55.232
-56.142
-57.049
-57.944
-58.823
-59.679
-60.505
-61.294
-62.039
-62.734
-63.372
-63.945
-64.448
-64.873
-65.216
-65.469
-65.626
-65.683
-65.633
-65.474
-65.201
-64.81
-64.299
-63.668
-62.915
-62.042
-61.05
-59.942
-58.723
-57.397
-55.97
-54.449
-52.84
-51.154
-49.397
-47.58
-45.711
-43.801
-41.86
-39.901
-37.935
-35.974
-34.03
-32.115
-30.24
-28.419
-26.663
-24.982
-23.385
-21.878
-20.469
-19.167
-17.982
-16.919
-15.978
-15.158
-14.457
-13.87
-13.39
-13.005
-12.692
-12.427
-12.19
-11.965
-11.744
-11.514
-11.259
-10.96
-10.592
-10.146
-9.616
-9.003
-8.306
-7.524
-6.665
-5.763
-4.878
-4.077
-3.418
-2.945
-2.685
-2.668
-2.936
-3.553
-4.576
-6.054
-8.02
-10.486
-13.499
-17.147
-21.434
-26.229
-31.262
-36.13
-40.456
-43.986
-46.434
-47.384
-46.56
-43.991
-40.051
-35.535
-31.278
-27.761
-25.413
-24.869
-26.509
-30.143
-34.986
-39.394
-41.399
-39.584
-32.598
-18.638
3.702
35.074
75.309
122.686
174.542
228.468
281.445
329.22
367.467
391.892
398.61
385.516
351.535
295.808
219.003
123.702
13.614
-106.001
-229.167
-350.647
-465.01
-566.634
-651.032
-714.817
-755.916
-774.369
-771.257
-748.03
-707.445
-653.095
-588.853
-519.146
-447.995
-378.343
-313.028
-254.553
-204.508
-163.956
-132.946
-110.325
-94.772
-85.044
-79.399
-76.116
-73.541
-69.945
-64.521
-57.342
-48.635
-38.839
-28.638
-18.65
-9.685
-2.723
1.871
4.199
4.523
3.344
1.154
-1.653
-4.546
-6.933
-8.466
-8.964
-8.384
-6.846
-4.443
-1.246
2.618
7.01
11.803
16.87
22.114
27.459
32.822
38.118
43.261
48.164
52.755
56.97
60.777
64.177
67.183
69.824
72.139
74.166
75.959
77.578
79.078
80.511
81.92
83.343
84.822
86.399
88.114
90.002
92.088
94.379
96.881
99.593
102.508
105.618
108.907
112.352
115.935
119.639
123.447
127.343
131.309
135.323
139.361
143.403
147.425
151.407
155.325
159.159
162.885
166.484
169.935
173.219
176.317
179.209
181.874
184.294
186.45
188.326
189.906
191.175
192.122
192.736
193.008
192.933
192.507
191.725
190.588
189.098
187.255
185.067
182.538
179.677
176.493
172.997
169.203
165.124
160.774
156.171
151.331
146.273
141.016
135.579
129.983
124.248
118.395
112.446
106.421
100.343
94.232
88.108
81.994
75.908
69.869
63.896
58.007
52.216
46.541
40.995
35.591
30.341
25.257
20.348
15.622
11.089
6.753
2.62
-1.305
-5.02
-8.522
-11.81
-14.884
-17.744
-20.393
-22.833
-25.066
-27.097
-28.932
-30.574
-32.031
-33.308
-34.414
-35.355
-36.139
-36.774
-37.268
-37.631
-37.868
-37.99
-38.005
-37.919
-37.742
-37.48
-37.142
-36.734
-36.263
-35.736
-35.159
-34.539
-33.88
-33.187
-32.467
-31.724
-30.962
-30.185
-29.398
-28.605
-27.807
-27.01
-26.215
-25.425
-24.643
-23.87
-23.109
-22.362
-21.629
-20.912
-20.213
-19.532
-18.871
-18.23
-17.61
-17.011
-16.434
-15.879
-15.347
-14.839
-14.355
-13.894
-13.459
-13.048
-12.663
-12.304
-11.972
-11.665
-11.385
-11.131
-10.903
-10.701
-10.526
-10.376
-10.251
-10.151
-10.076
-10.024
-9.994
-9.987
-10.001
-10.035
-10.089
-10.162
-10.253
-10.362
-10.488
-10.63
-10.788
-10.962
-11.152
-11.355
-11.573
-11.805
-12.05
-12.308
-12.579
-12.861
-13.156
-13.462
-13.78
-14.108
-14.448
-14.799
-15.161
-15.533
-15.916
-16.31
-16.716
-17.132
-17.56
-18.001
-18.453
-18.917
-19.392
-19.878
-20.375
-20.88
-21.393
-21.912
-22.434
-22.958
-23.482
-24.002
-24.517
-25.023
-25.518
-25.997
-26.459
-26.898
-27.311
-27.696
-28.047
-28.361
-28.634
-28.864
-29.045
-29.175
-29.249
-29.263
-29.215
-29.1
-28.914
-28.656
-28.321
-27.909
-27.417
-26.845
-26.194
-25.464
-24.659
-23.782
-22.834
-21.822
-20.749
-19.621
-18.445
-17.226
-15.971
-14.686
-13.381
-12.065
-10.746
-9.433
-8.137
-6.864
-5.624
-4.428
-3.285
-2.202
-1.187
-0.245
0.616
1.389
2.062
2.628
3.089
3.444
3.696
3.849
3.909
3.888
3.808
3.689
3.553
3.419
3.297
3.201
3.15
3.163
3.266
3.476
3.796
4.228
4.771
5.417
6.156
6.955
7.754
8.489
9.086
9.482
9.627
9.47
8.966
8.063
6.689
4.787
2.315
-0.765
-4.457
-8.787
-13.823
-19.514
-25.675
-32.008
-38.056
-43.393
-47.735
-50.722
-51.896
-51.017
-48.102
-43.531
-38.207
-33.003
-28.464
-25.177
-23.776
-24.528
-27.252
-31.115
-34.256
-34.622
-30.563
-20.338
-2.214
25.008
61.852
107.844
160.902
218.071
276.195
331.312
378.854
414.191
433.005
431.822
408.376
361.724
292.092
200.974
92.859
-26.377
-152.193
-278.682
-402.273
-520.194
-623.663
-706.191
-761.633
-784.44
-779.664
-752.826
-709.365
-657.114
-597.35
-531.736
-463.923
-395.415
-330.168
-271.832
-221.697
-180.951
-149.474
-125.869
-108.878
-97.328
-89.548
-83.936
-78.969
-73.007
-65.274
-55.869
-45.097
-33.411
-21.509
-10.036
0.226
8.286
13.75
16.727
17.474
16.492
14.297
11.303
8.066
5.223
3.162
2.099
2.12
3.131
5.06
7.86
11.41
15.578
20.234
25.248
30.522
35.978
41.521
47.053
52.474
57.678
62.58
67.102
71.195
74.848
78.066
80.874
83.31
85.414
87.238
88.847
90.3
91.65
92.95
94.239
95.565
96.978
98.521
100.238
102.157
104.291
106.649
109.231
112.033
115.045
118.254
121.638
125.176
128.851
132.648
136.548
140.534
144.583
148.67
152.773
156.867
160.93
164.938
168.868
172.697
176.4
179.958
183.349
186.552
189.545
192.306
194.815
197.053
199
200.641
201.959
202.942
203.579
203.859
203.778
203.329
202.51
201.321
199.761
197.834
195.545
192.901
189.911
186.585
182.934
178.973
174.717
170.183
165.388
160.352
155.094
149.637
144.001
138.209
132.284
126.249
120.127
113.941
107.714
101.47
95.23
89.016
82.848
76.748
70.734
64.824
59.035
53.383
47.882
42.546
37.386
32.415
27.64
23.07
18.712
14.573
10.655
6.962
3.497
0.258
-2.753
-5.539
-8.102
-10.447
-12.578
-14.5
-16.219
-17.743
-19.079
-20.234
-21.219
-22.04
-22.709
-23.233
-23.622
-23.886
-24.034
-24.076
-24.021
-23.878
-23.657
-23.365
-23.011
-22.603
-22.15
-21.657
-21.132
-20.582
-20.011
-19.427
-18.833
-18.234
-17.635
-17.039
-16.449
-15.869
-15.3
-14.746
-14.208
-13.687
-13.186
-12.704
-12.244
-11.805
-11.388
-10.994
-10.622
-10.273
-9.947
-9.643
-9.361
-9.101
-8.863
-8.646
-8.45
-8.274
-8.118
-7.982
-7.864
-7.764
-7.683
-7.62
-7.574
-7.544
-7.532
-7.536
-7.555
-7.59
-7.64
-7.704
-7.783
-7.875
-7.98
-8.097
-8.227
-8.368
-8.52
-8.683
-8.856
-9.038
-9.229
-9.429
-9.636
-9.851
-10.074
-10.303
-10.54
-10.783
-11.033
-11.29
-11.554
-11.825
-12.103
-12.388
-12.68
-12.98
-13.289
-13.607
-13.935
-14.273
-14.623
-14.985
-15.36
-15.748
-16.151
-16.57
-17.004
-17.454
-17.922
-18.406
-18.908
-19.428
-19.965
-20.519
-21.09
-21.675
-22.275
-22.888
-23.511
-24.142
-24.779
-25.419
-26.06
-26.699
-27.331
-27.955
-28.565
-29.157
-29.728
-30.273
-30.786
-31.263
-31.698
-32.086
-32.423
-32.703
-32.921
-33.073
-33.154
-33.158
-33.084
-32.925
-32.679
-32.343
-31.914
-31.392
-30.775
-30.064
-29.259
-28.363
-27.379
-26.312
-25.165
-23.943
-22.654
-21.303
-19.897
-18.444
-16.951
-15.426
-13.88
-12.321
-10.761
-9.21
-7.679
-6.178
-4.72
-3.317
-1.98
-0.719
0.46
1.549
2.542
3.429
4.199
4.847
5.372
5.774
6.053
6.212
6.256
6.2
6.068
5.886
5.673
5.449
5.223
5.008
4.823
4.685
4.619
4.635
4.737
4.93
5.22
5.606
6.076
6.598
7.1
7.509
7.759
7.79
7.56
7.033
6.151
4.851
3.065
0.736
-2.171
-5.677
-9.839
-14.743
-20.38
-26.605
-33.11
-39.455
-45.24
-50.186
-53.979
-56.188
-56.543
-55.092
-52.239
-48.806
-45.588
-42.972
-41.291
-41.084
-42.619
-45.596
-49.138
-51.538
-50.894
-45.984
-35.682
-18.407
7.041
41.129
83.503
132.321
184.936
239.083
291.996
339.629
377.734
402.191
409.454
397.43
364.803
310.588
234.88
140.776
33.955
-80.908
-199.717
-320.404
-443.459
-562.533
-666.859
-746.73
-791.237
-799.934
-781.962
-745.025
-698.719
-647.765
-590.102
-526.638
-458.99
-389.525
-323.612
-264.855
-214.758
-174.379
-143.306
-120.224
-104.018
-93.457
-86.706
-82.037
-77.852
-72.497
-65.215
-56.094
-45.399
-33.627
-21.569
-9.927
0.489
8.718
14.414
17.686
18.767
18.143
16.324
13.725
10.871
8.326
6.381
5.158
4.698
4.895
5.682
7.023
8.805
10.919
13.286
15.838
18.555
21.422
24.387
27.389
30.382
33.324
36.221
39.098
41.961
44.827
47.717
50.649
53.661
56.777
59.999
63.318
66.703
70.133
73.609
77.139
80.724
84.359
88.017
91.66
95.273
98.842
102.353
105.795
109.151
112.416
115.603
118.745
121.886
125.054
128.262
131.511
134.802
138.137
141.522
144.962
148.446
151.961
155.492
159.027
162.552
166.047
169.481
172.81
175.988
178.976
181.746
184.272
186.533
188.506
190.171
191.516
192.533
193.214
193.553
193.542
193.173
192.442
191.354
189.912
188.125
186
183.544
180.766
177.676
174.286
170.607
166.649
162.423
157.944
153.228
148.292
143.154
137.836
132.355
126.735
120.995
115.158
109.245
103.277
97.275
91.258
85.246
79.259
73.316
67.435
61.632
55.924
50.325
44.851
39.513
34.323
29.293
24.431
19.747
15.248
10.939
6.827
2.915
-0.794
-4.298
-7.595
-10.687
-13.574
-16.259
-18.745
-21.035
-23.136
-25.052
-26.79
-28.357
-29.758
-31.002
-32.096
-33.049
-33.867
-34.559
-35.134
-35.598
-35.961
-36.229
-36.41
-36.511
-36.539
-36.501
-36.403
-36.25
-36.048
-35.803
-35.517
-35.197
-34.845
-34.465
-34.06
-33.633
-33.185
-32.72
-32.239
-31.743
-31.235
-30.714
-30.184
-29.643
-29.094
-28.538
-27.974
-27.404
-26.829
-26.249
-25.665
-25.078
-24.49
-23.9
-23.311
-22.724
-22.14
-21.56
-20.986
-20.419
-19.862
-19.316
-18.783
-18.266
-17.766
-17.286
-16.828
-16.395
-15.987
-15.607
-15.257
-14.939
-14.653
-14.4
-14.182
-14
-13.854
-13.744
-13.67
-13.633
-13.63
-13.663
-13.73
-13.831
-13.963
-14.125
-14.317
-14.537
-14.783
-15.054
-15.348
-15.664
-16
-16.354
-16.724
-17.109
-17.506
-17.913
-18.328
-18.751
-19.179
-19.611
-20.046
-20.483
-20.922
-21.361
-21.8
-22.239
-22.678
-23.117
-23.555
-23.995
-24.435
-24.877
-25.32
-25.767
-26.216
-26.668
-27.123
-27.58
-28.038
-28.496
-28.953
-29.408
-29.858
-30.302
-30.736
-31.16
-31.573
-31.97
-32.351
-32.712
-33.05
-33.363
-33.647
-33.898
-34.109
-34.275
-34.391
-34.454
-34.46
-34.402
-34.276
-34.078
-33.806
-33.459
-33.033
-32.524
-31.926
-31.234
-30.449
-29.582
-28.639
-27.625
-26.548
-25.416
-24.239
-23.034
-21.807
-20.554
-19.273
-17.96
-16.618
-15.266
-13.917
-12.586
-11.279
-9.99
-8.72
-7.479
-6.263
-5.066
-3.877
-2.676
-1.474
-0.305
0.805
1.827
2.751
3.583
4.328
4.989
5.579
6.1
6.562
6.983
7.358
7.672
7.914
8.058
8.121
8.152
8.18
8.237
8.342
8.489
8.674
8.883
9.057
9.134
9.053
8.743
8.179
7.349
6.224
4.776
2.941
0.634
-2.202
-5.605
-9.642
-14.405
-19.902
-26.015
-32.446
-38.747
-44.504
-49.421
-53.194
-55.403
-55.786
-54.403
-51.669
-48.445
-45.575
-43.487
-42.523
-43.204
-45.769
-49.893
-54.652
-58.268
-58.755
-54.787
-45.172
-28.393
-3.277
30.603
72.857
121.76
174.754
229.532
283.346
332.34
372.366
399.497
410.16
401.677
372.492
321.497
248.426
156.36
49.736
-68.18
-192.092
-319.065
-446.592
-564.87
-666.233
-742.918
-787.21
-803.173
-795.467
-768.481
-729.527
-679.157
-618.351
-551.03
-479.503
-408.152
-341.401
-281.402
-229.988
-188.217
-155.87
-132.05
-115.536
-104.955
-98.565
-94.663
-91.528
-87.291
-81.018
-72.662
-62.423
-50.797
-38.513
-26.241
-14.858
-5.444
1.542
6.138
8.544
9.236
8.7
7.332
5.681
4.348
3.666
3.785
4.746
6.451
8.817
11.774
15.165
18.812
22.574
26.33
29.999
33.521
36.82
39.817
42.451
44.69
46.533
48
49.121
49.925
50.466
50.831
51.132
51.479
51.969
52.685
53.697
55.074
56.871
59.125
61.859
65.066
68.721
72.785
77.198
81.91
86.865
91.993
97.215
102.458
107.66
112.772
117.756
122.575
127.2
131.61
135.794
139.756
143.507
147.07
150.479
153.759
156.925
159.996
162.985
165.901
168.748
171.518
174.192
176.756
179.193
181.484
183.611
185.549
187.268
188.74
189.93
190.809
191.358
191.559
191.398
190.868
189.962
188.683
187.038
185.037
182.685
179.993
176.968
173.624
169.975
166.037
161.828
157.366
152.669
147.755
142.644
137.355
131.907
126.319
120.608
114.793
108.895
102.934
96.931
90.907
84.881
78.875
72.907
66.998
61.165
55.426
49.795
44.287
38.918
33.698
28.641
23.757
19.055
14.545
10.233
6.125
2.227
-1.457
-4.926
-8.176
-11.209
-14.024
-16.622
-19.005
-21.178
-23.142
-24.904
-26.468
-27.841
-29.028
-30.038
-30.878
-31.556
-32.08
-32.46
-32.704
-32.822
-32.821
-32.711
-32.502
-32.2
-31.816
-31.357
-30.833
-30.25
-29.616
-28.939
-28.226
-27.482
-26.716
-25.931
-25.133
-24.328
-23.52
-22.712
-21.91
-21.116
-20.334
-19.567
-18.817
-18.088
-17.382
-16.7
-16.044
-15.417
-14.82
-14.254
-13.72
-13.22
-12.755
-12.325
-11.93
-11.572
-11.252
-10.968
-10.722
-10.513
-10.342
-10.208
-10.111
-10.052
-10.029
-10.043
-10.093
-10.178
-10.297
-10.45
-10.635
-10.852
-11.098
-11.373
-11.674
-11.999
-12.347
-12.715
-13.1
-13.499
-13.911
-14.332
-14.76
-15.191
-15.623
-16.054
-16.482
-16.903
-17.317
-17.719
-18.109
-18.485
-18.844
-19.184
-19.505
-19.804
-20.081
-20.335
-20.565
-20.772
-20.957
-21.118
-21.258
-21.377
-21.478
-21.56
-21.628
-21.682
-21.725
-21.759
-21.788
-21.814
-21.839
-21.865
-21.896
-21.933
-21.976
-22.027
-22.085
-22.15
-22.223
-22.303
-22.391
-22.487
-22.591
-22.703
-22.826
-22.959
-23.099
-23.244
-23.389
-23.531
-23.663
-23.781
-23.875
-23.939
-23.965
-23.949
-23.888
-23.775
-23.604
-23.361
-23.041
-22.643
-22.165
-21.609
-20.98
-20.281
-19.524
-18.732
-17.923
-17.117
-16.323
-15.539
-14.768
-14.011
-13.271
-12.555
-11.856
-11.153
-10.431
-9.681
-8.885
-8.031
-7.091
-6.014
-4.767
-3.323
-1.667
0.187
2.228
4.452
6.839
9.368
12.004
14.682
17.349
19.967
22.485
24.862
27.042
28.94
30.497
31.669
32.418
32.738
32.63
32.082
31.103
29.71
27.915
25.772
23.337
20.639
17.72
14.607
11.316
7.894
4.38
0.797
-2.821
-6.469
-10.176
-13.947
-17.8
-21.751
-25.764
-29.873
-34.166
-38.644
-43.23
-47.731
-51.791
-55.103
-57.482
-58.669
-58.337
-56.294
-52.475
-47.201
-41.222
-35.253
-29.87
-25.603
-22.93
-22.178
-23.409
-25.997
-28.627
-29.776
-27.859
-21.385
-8.879
11.059
39.371
76.118
120.378
170.363
223.598
277.117
327.16
369.393
399.439
413.255
407.643
380.508
330.794
258.743
166.408
57.412
-63.224
-189.494
-315.319
-434.665
-541.634
-631.272
-700.011
-745.696
-768.174
-768.776
-749.308
-712.585
-662.351
-602.417
-536.782
-469.334
-402.693
-338.891
-280.214
-228.169
-183.585
-147.065
-118.138
-95.676
-79.06
-67.459
-59.358
-53.476
-48.459
-42.856
-36.222
-28.674
-20.169
-10.974
-1.661
7.324
15.253
21.285
25.222
27.186
27.403
26.328
24.386
21.922
19.426
17.405
16.127
15.711
16.126
17.225
18.907
21.089
23.67
26.542
29.612
32.82
36.111
39.443
42.774
46.045
49.193
52.182
54.988
57.607
60.092
62.492
64.852
67.227
69.641
72.111
74.648
77.241
79.881
82.573
85.32
88.132
91.033
94.027
97.116
100.295
103.527
106.781
110.035
113.258
116.446
119.603
122.738
125.884
129.071
132.313
135.619
138.987
142.403
145.86
149.348
152.853
156.371
159.896
163.416
166.925
170.402
173.824
177.158
180.362
183.394
186.221
188.814
191.149
193.207
194.971
196.427
197.566
198.378
198.854
198.985
198.761
198.176
197.229
195.921
194.258
192.246
189.892
187.205
184.193
180.866
177.234
173.308
169.098
164.617
159.878
154.898
149.694
144.286
138.692
132.933
127.031
121.005
114.878
108.671
102.405
96.101
89.779
83.46
77.165
70.914
64.726
58.618
52.609
46.716
40.955
35.34
29.886
24.606
19.511
14.612
9.919
5.441
1.184
-2.845
-6.642
-10.203
-13.524
-16.606
-19.449
-22.052
-24.419
-26.553
-28.459
-30.142
-31.608
-32.866
-33.921
-34.784
-35.463
-35.969
-36.311
-36.5
-36.547
-36.464
-36.261
-35.952
-35.546
-35.055
-34.492
-33.866
-33.19
-32.473
-31.726
-30.958
-30.178
-29.395
-28.617
-27.851
-27.105
-26.383
-25.693
-25.037
-24.422
-23.85
-23.325
-22.848
-22.422
-22.047
-21.724
-21.453
-21.233
-21.062
-20.94
-20.864
-20.832
-20.841
-20.887
-20.968
-21.081
-21.22
-21.383
-21.565
-21.763
-21.973
-22.191
-22.414
-22.639
-22.862
-23.082
-23.295
-23.499
-23.692
-23.872
-24.038
-24.189
-24.323
-24.44
-24.54
-24.622
-24.688
-24.737
-24.772
-24.792
-24.801
-24.798
-24.787
-24.769
-24.747
-24.723
-24.7
-24.682
-24.67
-24.667
-24.678
-24.704
-24.748
-24.813
-24.901
-25.015
-25.156
-25.326
-25.527
-25.76
-26.027
-26.328
-26.663
-27.034
-27.439
-27.879
-28.353
-28.858
-29.393
-29.956
-30.543
-31.153
-31.781
-32.425
-33.079
-33.74
-34.403
-35.063
-35.715
-36.353
-36.972
-37.565
-38.127
-38.652
-39.134
-39.567
-39.946
-40.265
-40.518
-40.7
-40.807
-40.832
-40.772
-40.621
-40.377
-40.036
-39.596
-39.055
-38.413
-37.67
-36.827
-35.887
-34.854
-33.732
-32.525
-31.238
-29.878
-28.451
-26.964
-25.426
-23.844
-22.229
-20.591
-18.943
-17.297
-15.665
-14.059
-12.49
-10.972
-9.516
-8.134
-6.835
-5.63
-4.53
-3.546
-2.694
-1.983
-1.416
-0.993
-0.713
-0.569
-0.555
-0.658
-0.858
-1.138
-1.483
-1.88
-2.32
-2.788
-3.269
-3.743
-4.187
-4.585
-4.931
-5.222
-5.456
-5.641
-5.793
-5.937
-6.116
-6.368
-6.725
-7.221
-7.893
-8.776
-9.91
-11.333
-13.062
-15.125
-17.551
-20.366
-23.604
-27.277
-31.357
-35.84
-40.734
-45.969
-51.391
-56.731
-61.59
-65.601
-68.513
-70.021
-69.739
-67.472
-63.329
-57.766
-51.626
-45.748
-40.621
-36.732
-34.781
-35.103
-37.407
-40.789
-43.533
-43.723
-40.013
-31.021
-14.918
9.559
42.837
84.45
132.452
184.187
237.168
288.109
332.6
366.372
385.37
386.201
367.121
327.151
265.82
184.462
86.235
-24.69
-142.912
-262.743
-379.073
-486.432
-579.59
-654.75
-709.334
-742.178
-753.896
-745.733
-719.399
-677.907
-624.727
-563.373
-497.653
-430.747
-364.993
-302.875
-246.553
-197.397
-156.478
-123.98
-99.098
-81.021
-68.888
-61.233
-56.545
-53.242
-49.559
-44.608
-38.285
-30.591
-21.788
-12.418
-2.994
5.699
12.655
17.462
20.155
20.936
20.264
18.598
16.295
13.856
11.855
10.627
10.342
11.026
12.519
14.672
17.366
20.444
23.755
27.189
30.633
34.001
37.243
40.307
43.165
45.812
48.224
50.374
52.248
53.858
55.275
56.609
57.96
59.417
61.047
62.902
65.041
67.524
70.375
73.597
77.159
81.007
85.113
89.471
94.066
98.876
103.848
108.9
113.971
119.017
124
128.893
133.66
138.266
142.702
146.981
151.13
155.192
159.184
163.106
166.959
170.738
174.448
178.1
181.691
185.202
188.617
191.919
195.091
198.124
200.992
203.659
206.084
208.226
210.051
211.538
212.665
213.416
213.775
213.732
213.283
212.431
211.179
209.53
207.488
205.054
202.238
199.054
195.516
191.64
187.443
182.942
178.155
173.102
167.802
162.275
156.541
150.618
144.529
138.294
131.94
125.488
118.965
112.393
105.798
99.202
92.631
86.106
79.649
73.281
67.019
60.884
54.891
49.058
43.398
37.925
32.652
27.589
22.746
18.131
13.751
9.61
5.714
2.065
-1.335
-4.488
-7.393
-10.052
-12.47
-14.651
-16.6
-18.325
-19.834
-21.134
-22.237
-23.152
-23.89
-24.462
-24.881
-25.158
-25.304
-25.332
-25.254
-25.082
-24.826
-24.499
-24.111
-23.673
-23.194
-22.685
-22.155
-21.612
-21.064
-20.518
-19.981
-19.458
-18.956
-18.477
-18.027
-17.608
-17.222
-16.872
-16.558
-16.281
-16.04
-15.835
-15.664
-15.525
-15.417
-15.336
-15.281
-15.248
-15.234
-15.236
-15.25
-15.273
-15.303
-15.334
-15.365
-15.393
-15.414
-15.425
-15.426
-15.413
-15.385
-15.34
-15.277
-15.196
-15.096
-14.976
-14.837
-14.68
-14.505
-14.313
-14.108
-13.889
-13.66
-13.422
-13.18
-12.935
-12.689
-12.447
-12.211
-11.984
-11.769
-11.569
-11.387
-11.226
-11.087
-10.975
-10.89
-10.834
-10.809
-10.816
-10.856
-10.929
-11.034
-11.172
-11.34
-11.539
-11.767
-12.021
-12.3
-12.6
-12.918
-13.25
-13.593
-13.942
-14.292
-14.639
-14.977
-15.302
-15.607
-15.889
-16.141
-16.359
-16.537
-16.67
-16.753
-16.782
-16.752
-16.66
-16.503
-16.278
-15.983
-15.618
-15.182
-14.676
-14.102
-13.463
-12.762
-12.001
-11.187
-10.324
-9.419
-8.477
-7.505
-6.511
-5.502
-4.489
-3.48
-2.485
-1.513
-0.574
0.322
1.164
1.942
2.647
3.274
3.817
4.27
4.624
4.872
5.008
5.033
4.948
4.752
4.449
4.043
3.548
2.984
2.375
1.738
1.09
0.439
-0.202
-0.817
-1.387
-1.889
-2.313
-2.654
-2.905
-3.057
-3.107
-3.061
-2.948
-2.826
-2.758
-2.799
-3
-3.394
-4.013
-4.906
-6.134
-7.759
-9.839
-12.409
-15.494
-19.152
-23.476
-28.467
-33.994
-39.775
-45.4
-50.5
-54.831
-58.11
-59.934
-60.061
-58.554
-55.811
-52.645
-49.829
-47.737
-46.696
-47.228
-49.567
-53.415
-57.9
-61.334
-61.85
-58.22
-49.267
-33.428
-9.563
22.766
63.186
109.873
160.239
211.996
262.293
307.159
342.602
364.692
369.935
356.532
323.621
270.498
197.844
108.179
5.004
-106.768
-221.56
-334.715
-441.482
-536.779
-616.548
-677.858
-718.858
-739.741
-741.721
-725.784
-693.943
-649.216
-594.83
-534.499
-471.774
-408.955
-348.177
-292.033
-242.482
-200.862
-167.704
-142.291
-123.544
-110.756
-102.809
-97.986
-94.51
-90.517
-84.885
-77.533
-68.665
-58.495
-47.482
-36.285
-25.776
-17.068
-10.737
-6.754
-4.919
-4.834
-6.063
-8.23
-10.813
-13.173
-14.915
-15.842
-15.853
-15.018
-13.397
-11.008
-7.956
-4.36
-0.315
4.076
8.741
13.626
18.65
23.729
28.792
33.752
38.541
43.099
47.357
51.286
54.883
58.156
61.132
63.844
66.323
68.616
70.776
72.849
74.882
76.915
78.978
81.111
83.349
85.727
88.278
91.023
93.968
97.116
100.463
103.999
107.713
111.587
115.596
119.718
123.933
128.22
132.563
136.939
141.325
145.695
150.025
154.291
158.468
162.535
166.466
170.238
173.831
177.223
180.396
183.33
186.005
188.402
190.502
192.289
193.748
194.864
195.626
196.022
196.046
195.691
194.955
193.837
192.336
190.456
188.201
185.578
182.595
179.261
175.589
171.591
167.282
162.679
157.798
152.658
147.278
141.68
135.885
129.915
123.793
117.541
111.184
104.745
98.247
91.715
85.172
78.64
72.142
65.7
59.335
53.067
46.914
40.893
35.022
29.315
23.785
18.445
13.306
8.377
3.666
-0.82
-5.075
-9.095
-12.878
-16.421
-19.724
-22.788
-25.614
-28.207
-30.568
-32.705
-34.622
-36.325
-37.824
-39.125
-40.237
-41.17
-41.934
-42.539
-42.995
-43.313
-43.503
-43.577
-43.544
-43.415
-43.199
-42.907
-42.547
-42.128
-41.659
-41.146
-40.597
-40.019
-39.418
-38.8
-38.169
-37.531
-36.889
-36.248
-35.609
-34.977
-34.353
-33.738
-33.136
-32.546
-31.971
-31.41
-30.864
-30.332
-29.815
-29.313
-28.823
-28.346
-27.88
-27.424
-26.978
-26.54
-26.11
-25.686
-25.268
-24.856
-24.449
-24.046
-23.648
-23.254
-22.865
-22.48
-22.1
-21.726
-21.359
-20.999
-20.649
-20.308
-19.979
-19.663
-19.359
-19.07
-18.796
-18.537
-18.294
-18.069
-17.86
-17.67
-17.498
-17.347
-17.217
-17.109
-17.024
-16.962
-16.924
-16.911
-16.924
-16.962
-17.027
-17.119
-17.239
-17.386
-17.562
-17.765
-17.994
-18.248
-18.526
-18.825
-19.142
-19.474
-19.817
-20.169
-20.527
-20.889
-21.253
-21.616
-21.979
-22.34
-22.699
-23.054
-23.4
-23.735
-24.053
-24.349
-24.618
-24.854
-25.049
-25.199
-25.298
-25.345
-25.338
-25.271
-25.138
-24.929
-24.638
-24.267
-23.817
-23.291
-22.695
-22.04
-21.346
-20.642
-19.947
-19.273
-18.624
-17.993
-17.378
-16.778
-16.192
-15.614
-15.039
-14.456
-13.86
-13.254
-12.624
-11.95
-11.191
-10.288
-9.206
-7.936
-6.485
-4.869
-3.113
-1.236
0.721
2.707
4.681
6.61
8.477
10.281
11.997
13.582
14.973
16.092
16.886
17.341
17.453
17.228
16.685
15.851
14.78
13.546
12.2
10.76
9.226
7.583
5.84
4.018
2.142
0.242
-1.664
-3.575
-5.483
-7.391
-9.333
-11.354
-13.528
-15.937
-18.613
-21.581
-24.895
-28.542
-32.423
-36.336
-39.943
-42.9
-44.976
-45.914
-45.338
-43.023
-39.035
-33.771
-28.047
-22.737
-18.385
-15.475
-14.678
-16.378
-20.34
-25.695
-30.705
-33.283
-31.907
-25.187
-11.321
11.078
42.6
83.003
130.491
182.284
235.929
288.512
335.926
374.018
398.676
406.123
394.391
362.636
310.046
237.122
146.29
40.99
-73.773
-192.109
-309.12
-419.884
-519.006
-602.107
-666.002
-708.564
-729.894
-731.414
-714.297
-680.802
-634.323
-578.263
-516.46
-452.736
-389.513
-328.749
-272.908
-223.616
-181.763
-147.974
-121.684
-101.703
-87.368
-77.756
-71.256
-66.523
-62.209
-56.97
-50.467
-42.882
-34.25
-24.905
-15.471
-6.451
1.451
7.482
11.498
13.644
14.137
13.406
11.872
9.889
7.943
6.518
5.867
6.12
7.281
9.22
11.838
15.03
18.64
22.52
26.552
30.643
34.747
38.841
42.885
46.828
50.609
54.164
57.455
60.441
63.113
65.506
67.663
69.655
71.582
73.527
75.551
77.704
79.992
82.399
84.924
87.564
90.325
93.226
96.278
99.489
102.872
106.418
110.107
113.903
117.744
121.577
125.37
129.102
132.779
136.428
140.062
143.689
147.319
150.946
154.564
158.162
161.715
165.201
168.601
171.908
175.123
178.248
181.273
184.18
186.942
189.524
191.895
194.028
195.892
197.463
198.724
199.658
200.259
200.527
200.46
200.051
199.297
198.191
196.732
194.925
192.772
190.282
187.463
184.326
180.884
177.153
173.144
168.874
164.355
159.601
154.627
149.45
144.088
138.558
132.881
127.077
121.166
115.17
109.11
103.007
96.881
90.753
84.643
78.569
72.55
66.604
60.749
54.999
49.37
43.878
38.534
33.352
28.343
23.516
18.881
14.445
10.216
6.198
2.397
-1.186
-4.548
-7.688
-10.606
-13.303
-15.781
-18.043
-20.094
-21.938
-23.582
-25.032
-26.296
-27.382
-28.299
-29.056
-29.662
-30.127
-30.46
-30.673
-30.775
-30.776
-30.686
-30.516
-30.274
-29.97
-29.613
-29.213
-28.777
-28.313
-27.829
-27.332
-26.827
-26.322
-25.82
-25.328
-24.848
-24.385
-23.942
-23.522
-23.127
-22.758
-22.416
-22.103
-21.818
-21.561
-21.332
-21.13
-20.953
-20.799
-20.668
-20.558
-20.466
-20.39
-20.329
-20.281
-20.243
-20.213
-20.19
-20.171
-20.155
-20.14
-20.125
-20.107
-20.087
-20.064
-20.035
-20.002
-19.963
-19.918
-19.867
-19.81
-19.746
-19.676
-19.601
-19.522
-19.439
-19.355
-19.27
-19.187
-19.107
-19.032
-18.963
-18.903
-18.852
-18.813
-18.787
-18.776
-18.78
-18.803
-18.845
-18.91
-18.998
-19.111
-19.251
-19.418
-19.615
-19.842
-20.101
-20.393
-20.717
-21.076
-21.471
-21.903
-22.37
-22.873
-23.411
-23.983
-24.586
-25.219
-25.877
-26.556
-27.255
-27.968
-28.694
-29.429
-30.17
-30.914
-31.66
-32.406
-33.148
-33.88
-34.598
-35.293
-35.96
-36.592
-37.18
-37.717
-38.195
-38.61
-38.959
-39.238
-39.441
-39.56
-39.586
-39.511
-39.337
-39.063
-38.692
-38.23
-37.687
-37.082
-36.445
-35.795
-35.144
-34.496
-33.846
-33.192
-32.534
-31.87
-31.198
-30.513
-29.805
-29.072
-28.317
-27.529
-26.688
-25.755
-24.674
-23.409
-21.951
-20.304
-18.489
-16.526
-14.438
-12.264
-10.055
-7.854
-5.696
-3.598
-1.561
0.389
2.213
3.848
5.215
6.261
6.971
7.338
7.372
7.091
6.516
5.701
4.719
3.619
2.43
1.147
-0.251
-1.765
-3.391
-5.107
-6.885
-8.713
-10.587
-12.519
-14.537
-16.677
-18.993
-21.561
-24.447
-27.718
-31.453
-35.634
-40.156
-44.813
-49.247
-53.106
-56.104
-57.907
-58.123
-56.513
-53.058
-48.127
-42.521
-37.103
-32.607
-29.732
-29.197
-31.465
-36.497
-43.469
-50.726
-56.203
-57.863
-53.739
-41.714
-20.064
12.163
54.831
106.342
164.018
224.654
284.429
338.559
382.141
410.461
419.442
406.651
370.835
311.649
230.301
129.803
14.376
-110.415
-238.367
-363.913
-481.405
-585.325
-671.331
-736.189
-777.965
-796.731
-793.699
-770.445
-729.8
-675.403
-610.97
-540.765
-468.858
-398.225
-331.555
-271.322
-219.03
-175.636
-141.598
-116.161
-98.056
-86.167
-78.985
-74.851
-72.361
-70.031
-66.59
-61.657
-55.334
-47.819
-39.639
-31.394
-23.611
-17.012
-12.268
-9.522
-8.587
-9.134
-10.663
-12.708
-14.876
-16.678
-17.631
-17.499
-16.22
-13.85
-10.554
-6.468
-1.695
3.614
9.296
15.207
21.219
27.231
33.176
38.966
44.508
49.714
54.494
58.805
62.638
66.006
68.939
71.477
73.66
75.543
77.191
78.665
80.023
81.314
82.58
83.868
85.225
86.696
88.328
90.151
92.181
94.426
96.888
99.565
102.451
105.534
108.797
112.221
115.794
119.5
123.328
127.26
131.278
135.36
139.484
143.629
147.773
151.894
155.969
159.976
163.893
167.699
171.372
174.892
178.236
181.382
184.308
186.993
189.419
191.565
193.416
194.954
196.167
197.042
197.569
197.741
197.55
196.993
196.065
194.768
193.101
191.068
188.674
185.926
182.833
179.405
175.656
171.598
167.25
162.626
157.748
152.634
147.306
141.784
136.093
130.254
124.292
118.23
112.091
105.9
99.68
93.455
87.246
81.076
74.966
68.937
63.008
57.197
51.523
46
40.643
35.468
30.485
25.707
21.142
16.798
12.684
8.802
5.158
1.752
-1.413
-4.34
-7.031
-9.488
-11.718
-13.724
-15.516
-17.099
-18.484
-19.679
-20.694
-21.54
-22.227
-22.767
-23.172
-23.452
-23.62
-23.687
-23.663
-23.561
-23.391
-23.164
-22.89
-22.578
-22.237
-21.877
-21.505
-21.127
-20.751
-20.383
-20.026
-19.686
-19.366
-19.068
-18.795
-18.547
-18.324
-18.128
-17.957
-17.81
-17.685
-17.581
-17.496
-17.427
-17.371
-17.326
-17.289
-17.256
-17.226
-17.195
-17.161
-17.121
-17.072
-17.012
-16.94
-16.854
-16.752
-16.634
-16.499
-16.345
-16.175
-15.986
-15.781
-15.561
-15.325
-15.076
-14.816
-14.547
-14.272
-13.992
-13.711
-13.431
-13.155
-12.887
-12.628
-12.382
-12.151
-11.937
-11.743
-11.572
-11.426
-11.306
-11.214
-11.154
-11.125
-11.129
-11.167
-11.239
-11.346
-11.486
-11.66
-11.867
-12.105
-12.374
-12.672
-12.999
-13.354
-13.734
-14.139
-14.566
-15.013
-15.48
-15.963
-16.461
-16.972
-17.494
-18.026
-18.565
-19.11
-19.659
-20.209
-20.758
-21.304
-21.845
-22.377
-22.895
-23.398
-23.882
-24.346
-24.787
-25.204
-25.595
-25.96
-26.3
-26.616
-26.906
-27.167
-27.397
-27.59
-27.745
-27.856
-27.918
-27.926
-27.875
-27.762
-27.59
-27.357
-27.058
-26.69
-26.245
-25.721
-25.12
-24.444
-23.698
-22.888
-22.027
-21.133
-20.238
-19.359
-18.508
-17.691
-16.901
-16.137
-15.4
-14.686
-13.991
-13.309
-12.629
-11.947
-11.261
-10.558
-9.815
-8.994
-8.04
-6.923
-5.632
-4.164
-2.533
-0.758
1.145
3.141
5.187
7.253
9.307
11.326
13.303
15.2
16.978
18.583
19.937
20.997
21.742
22.153
22.231
21.99
21.441
20.624
19.587
18.348
16.926
15.332
13.557
11.615
9.513
7.259
4.885
2.407
-0.159
-2.802
-5.54
-8.408
-11.441
-14.683
-18.16
-21.891
-25.945
-30.308
-34.846
-39.323
-43.355
-46.581
-48.777
-49.666
-48.87
-46.197
-41.764
-36.038
-29.911
-24.269
-19.614
-16.441
-15.435
-16.935
-20.656
-25.653
-30.124
-32.028
-29.92
-22.353
-7.42
16.263
49.25
91.18
140.126
193.364
248.355
301.783
349.119
385.884
407.734
410.943
393.527
354.353
292.782
210.008
109.163
-5.478
-128.264
-253.158
-374.732
-487.197
-584.976
-663.958
-721.315
-755.747
-767.866
-758.988
-730.96
-687.03
-630.982
-566.666
-498.222
-429.094
-361.834
-299.11
-243.161
-195.291
-156.392
-126.399
-104.238
-88.863
-79.179
-73.483
-70.12
-67.479
-63.879
-58.577
-51.612
-43.115
-33.474
-23.362
-13.382
-4.353
2.766
7.637
10.353
11.157
10.53
8.941
6.766
4.519
2.757
1.8
1.81
2.814
4.685
7.329
10.67
14.584
18.937
23.608
28.479
33.457
38.474
43.452
48.32
53.001
57.421
61.518
65.237
68.554
71.476
74.021
76.223
78.122
79.757
81.184
82.464
83.653
84.802
85.956
87.151
88.427
89.827
91.389
93.15
95.132
97.344
99.792
102.477
105.391
108.527
111.87
115.397
119.09
122.93
126.901
130.984
135.161
139.407
143.699
148.013
152.324
156.608
160.841
164.998
169.054
172.986
176.772
180.39
183.818
187.035
190.018
192.746
195.2
197.361
199.212
200.737
201.923
202.756
203.229
203.333
203.064
202.418
201.394
199.993
198.218
196.073
193.565
190.704
187.498
183.96
180.104
175.946
171.501
166.787
161.824
156.632
151.231
145.643
139.89
133.994
127.977
121.863
115.674
109.433
103.162
96.882
90.617
84.386
78.21
72.107
66.098
60.197
54.421
48.786
43.304
37.987
32.846
27.892
23.132
18.573
14.22
10.079
6.152
2.44
-1.055
-4.335
-7.401
-10.255
-12.903
-15.348
-17.595
-19.65
-21.521
-23.213
-24.735
-26.095
-27.301
-28.362
-29.287
-30.085
-30.764
-31.335
-31.805
-32.183
-32.478
-32.698
-32.85
-32.942
-32.98
-32.971
-32.921
-32.835
-32.718
-32.574
-32.406
-32.219
-32.014
-31.794
-31.561
-31.316
-31.06
-30.795
-30.52
-30.236
-29.944
-29.643
-29.334
-29.017
-28.691
-28.357
-28.015
-27.663
-27.303
-26.935
-26.558
-26.173
-25.781
-25.382
-24.976
-24.565
-24.15
-23.731
-23.312
-22.892
-22.476
-22.064
-21.659
-21.263
-20.88
-20.511
-20.16
-19.828
-19.518
-19.233
-18.974
-18.744
-18.543
-18.374
-18.237
-18.134
-18.064
-18.028
-18.025
-18.056
-18.119
-18.213
-18.338
-18.492
-18.675
-18.884
-19.119
-19.378
-19.658
-19.958
-20.274
-20.604
-20.946
-21.296
-21.651
-22.008
-22.366
-22.72
-23.069
-23.41
-23.742
-24.062
-24.369
-24.662
-24.94
-25.203
-25.45
-25.681
-25.899
-26.103
-26.295
-26.478
-26.651
-26.816
-26.973
-27.125
-27.271
-27.411
-27.545
-27.672
-27.793
-27.909
-28.02
-28.127
-28.232
-28.336
-28.442
-28.551
-28.663
-28.777
-28.891
-29.001
-29.105
-29.198
-29.275
-29.332
-29.364
-29.368
-29.343
-29.285
-29.19
-29.049
-28.853
-28.595
-28.274
-27.889
-27.442
-26.94
-26.393
-25.823
-25.252
-24.694
-24.158
-23.643
-23.14
-22.644
-22.148
-21.643
-21.129
-20.602
-20.056
-19.492
-18.909
-18.291
-17.614
-16.834
-15.902
-14.791
-13.493
-12.015
-10.384
-8.626
-6.778
-4.894
-3.012
-1.165
0.624
2.356
4.026
5.61
7.077
8.365
9.403
10.156
10.604
10.744
10.6
10.195
9.571
8.806
7.951
7.041
6.086
5.051
3.901
2.613
1.168
-0.428
-2.15
-3.988
-5.946
-8.047
-10.336
-12.864
-15.699
-18.91
-22.578
-26.802
-31.58
-36.798
-42.215
-47.453
-52.164
-56.098
-58.963
-60.429
-60.273
-58.391
-55.106
-51.177
-47.247
-43.848
-41.419
-40.285
-40.861
-43.376
-47.167
-50.869
-53.006
-51.933
-46.387
-35.265
-16.895
9.995
45.547
89.017
138.703
192.152
247.078
300.541
348.11
385.271
407.956
412.693
397.163
359.872
299.861
217.521
116.868
3.321
-118.89
-244.09
-369.472
-492.159
-602.245
-692.474
-755.665
-785.364
-786.965
-765.705
-726.363
-677.153
-619.22
-553.979
-485.617
-415.616
-347.594
-285.821
-232.069
-187.489
-152.503
-126.068
-106.671
-93.399
-85.064
-79.796
-76.052
-72.326
-67.128
-60.124
-51.655
-41.863
-31.207
-20.439
-10.128
-1.081
5.841
10.472
13.005
13.722
13.128
11.696
9.797
7.939
6.635
6.155
6.639
8.088
10.375
13.407
17.103
21.342
25.996
30.944
36.071
41.284
46.507
51.663
56.678
61.479
65.996
70.169
73.948
77.315
80.282
82.87
85.114
87.056
88.738
90.214
91.548
92.794
94.004
95.224
96.488
97.836
99.309
100.94
102.764
104.801
107.059
109.54
112.243
115.161
118.285
121.597
125.077
128.703
132.457
136.321
140.278
144.305
148.379
152.477
156.572
160.64
164.657
168.598
172.438
176.154
179.72
183.116
186.321
189.313
192.07
194.573
196.802
198.739
200.367
201.671
202.638
203.256
203.516
203.413
202.941
202.098
200.884
199.301
197.351
195.041
192.378
189.372
186.033
182.374
178.411
174.158
169.633
164.854
159.842
154.616
149.197
143.608
137.87
132.005
126.036
119.986
113.877
107.731
101.57
95.415
89.287
83.206
77.191
71.26
65.43
59.717
54.135
48.698
43.418
38.306
33.371
28.622
24.066
19.71
15.556
11.61
7.872
4.344
1.025
-2.085
-4.988
-7.689
-10.19
-12.496
-14.613
-16.545
-18.301
-19.885
-21.307
-22.573
-23.692
-24.672
-25.521
-26.248
-26.86
-27.366
-27.774
-28.092
-28.328
-28.489
-28.582
-28.615
-28.593
-28.522
-28.409
-28.259
-28.077
-27.866
-27.631
-27.374
-27.101
-26.812
-26.51
-26.198
-25.878
-25.551
-25.218
-24.882
-24.542
-24.201
-23.858
-23.515
-23.172
-22.829
-22.487
-22.148
-21.811
-21.477
-21.146
-20.821
-20.5
-20.186
-19.88
-19.581
-19.291
-19.011
-18.742
-18.486
-18.243
-18.015
-17.805
-17.612
-17.44
-17.289
-17.162
-17.059
-16.983
-16.934
-16.914
-16.924
-16.965
-17.038
-17.144
-17.282
-17.455
-17.661
-17.901
-18.176
-18.484
-18.824
-19.197
-19.601
-20.036
-20.499
-20.991
-21.51
-22.055
-22.626
-23.22
-23.838
-24.477
-25.138
-25.817
-26.514
-27.228
-27.956
-28.696
-29.449
-30.211
-30.983
-31.764
-32.552
-33.346
-34.146
-34.951
-35.761
-36.574
-37.391
-38.21
-39.031
-39.854
-40.679
-41.506
-42.334
-43.163
-43.993
-44.821
-45.646
-46.468
-47.283
-48.088
-48.883
-49.661
-50.421
-51.161
-51.876
-52.565
-53.226
-53.857
-54.455
-55.018
-55.544
-56.028
-56.467
-56.853
-57.181
-57.444
-57.637
-57.756
-57.797
-57.754
-57.626
-57.412
-57.11
-56.718
-56.231
-55.641
-54.945
-54.146
-53.248
-52.262
-51.205
-50.092
-48.936
-47.76
-46.578
-45.398
-44.222
-43.041
-41.844
-40.628
-39.399
-38.172
-36.962
-35.769
-34.592
-33.425
-32.247
-31.041
-29.788
-28.45
-27.009
-25.468
-23.836
-22.155
-20.477
-18.831
-17.236
-15.695
-14.197
-12.746
-11.351
-10.017
-8.775
-7.647
-6.664
-5.882
-5.331
-5.014
-4.924
-5.016
-5.224
-5.514
-5.862
-6.264
-6.757
-7.364
-8.115
-9.051
-10.188
-11.534
-13.085
-14.822
-16.751
-18.906
-21.331
-24.089
-27.241
-30.848
-35.004
-39.71
-44.848
-50.189
-55.357
-59.989
-63.825
-66.551
-67.796
-67.337
-65.136
-61.519
-57.227
-52.982
-49.341
-46.851
-46.082
-47.428
-50.942
-55.952
-60.999
-64.348
-64.287
-59.153
-47.13
-26.584
3.58
43.475
91.849
146.463
204.519
262.636
316.453
361.238
392.196
405.009
396.892
366.231
312.338
236.014
139.883
27.97
-94.177
-220.2
-344.324
-460.763
-563.89
-649.242
-713.514
-754.819
-773.362
-770.609
-748.38
-709.612
-657.969
-597.108
-531.118
-463.82
-397.865
-335.526
-278.912
-229.299
-187.524
-154.084
-128.351
-109.205
-95.771
-86.84
-81.003
-77.05
-73.564
-69.203
-63.512
-56.531
-48.37
-39.472
-30.358
-21.484
-13.596
-7.461
-3.324
-1.115
-0.582
-1.262
-2.742
-4.672
-6.573
-7.965
-8.562
-8.216
-6.923
-4.802
-1.949
1.544
5.561
9.973
14.664
19.534
24.497
29.489
34.443
39.291
43.967
48.408
52.559
56.368
59.819
62.922
65.699
68.186
70.425
72.454
74.325
76.094
77.812
79.525
81.274
83.089
85.004
87.055
89.274
91.694
94.331
97.192
100.277
103.581
107.096
110.812
114.709
118.763
122.955
127.265
131.672
136.16
140.708
145.29
149.883
154.461
159
163.475
167.862
172.137
176.274
180.253
184.05
187.646
191.021
194.153
197.024
199.613
201.905
203.883
205.534
206.842
207.799
208.396
208.625
208.484
207.969
207.08
205.818
204.186
202.19
199.837
197.135
194.093
190.724
187.042
183.06
178.794
174.263
169.484
164.475
159.258
153.852
148.278
142.557
136.711
130.761
124.728
118.634
112.5
106.346
100.192
94.058
87.963
81.924
75.96
70.085
64.316
58.666
53.149
47.777
42.56
37.509
32.633
27.94
23.436
19.127
15.018
11.112
7.411
3.918
0.632
-2.445
-5.316
-7.982
-10.446
-12.709
-14.778
-16.654
-18.344
-19.853
-21.186
-22.349
-23.348
-24.19
-24.883
-25.431
-25.844
-26.127
-26.288
-26.334
-26.272
-26.111
-25.856
-25.515
-25.094
-24.602
-24.043
-23.426
-22.755
-22.037
-21.278
-20.484
-19.66
-18.811
-17.943
-17.061
-16.17
-15.273
-14.377
-13.484
-12.6
-11.728
-10.872
-10.036
-9.222
-8.435
-7.678
-6.952
-6.262
-5.609
-4.995
-4.422
-3.891
-3.404
-2.962
-2.565
-2.214
-1.909
-1.651
-1.438
-1.272
-1.151
-1.074
-1.041
-1.051
-1.101
-1.191
-1.318
-1.48
-1.675
-1.902
-2.157
-2.438
-2.742
-3.067
-3.409
-3.767
-4.136
-4.514
-4.897
-5.284
-5.672
-6.058
-6.439
-6.813
-7.18
-7.535
-7.878
-8.207
-8.52
-8.815
-9.091
-9.345
-9.577
-9.785
-9.967
-10.122
-10.249
-10.347
-10.415
-10.451
-10.454
-10.424
-10.359
-10.258
-10.121
-9.945
-9.731
-9.477
-9.182
-8.846
-8.467
-8.044
-7.577
-7.063
-6.501
-5.891
-5.229
-4.517
-3.751
-2.933
-2.063
-1.139
-0.165
0.859
1.929
3.044
4.2
5.394
6.621
7.879
9.161
10.464
11.782
13.111
14.444
15.774
17.093
18.394
19.67
20.915
22.121
23.279
24.382
25.424
26.399
27.302
28.128
28.869
29.516
30.063
30.512
30.863
31.12
31.288
31.372
31.386
31.349
31.281
31.203
31.127
31.062
31.019
31.012
31.055
31.17
31.367
31.648
32.013
32.461
32.982
33.565
34.176
34.756
35.249
35.589
35.718
35.599
35.19
34.463
33.379
31.882
29.927
27.472
24.483
20.949
16.841
12.095
6.755
1.001
-4.883
-10.466
-15.353
-19.285
-21.948
-22.937
-22.036
-19.335
-15.274
-10.701
-6.457
-3.015
-0.826
-0.527
-2.42
-6.213
-10.99
-15.014
-16.325
-13.533
-5.264
10.279
34.344
67.344
108.81
156.783
208.539
261.572
312.673
357.499
391.841
411.708
413.694
396.078
357.952
298.771
219.648
123.509
14.273
-102.866
-222.305
-339.05
-447.758
-543.127
-621.123
-678.861
-714.819
-729.327
-723.469
-698.819
-658.303
-605.479
-544.072
-478.166
-411.258
-345.921
-284.758
-229.954
-182.799
-144.167
-113.997
-91.229
-74.806
-63.697
-56.361
-51.319
-47.134
-42.266
-36.039
-28.531
-19.903
-10.519
-0.983
8.178
16.241
22.317
26.093
27.687
27.352
25.563
22.787
19.392
15.865
12.75
10.341
8.777
8.079
8.128
8.839
10.171
12.032
14.326
16.983
19.919
23.068
26.386
29.801
33.247
36.673
40.029
43.3
46.492
49.615
52.695
55.762
58.829
61.906
64.988
68.05
71.09
74.115
77.133
80.165
83.227
86.324
89.461
92.635
95.822
99.002
102.156
105.26
108.311
111.315
114.287
117.267
120.28
123.337
126.448
129.608
132.806
136.039
139.298
142.567
145.845
149.124
152.396
155.654
158.88
162.049
165.13
168.081
170.862
173.44
175.789
177.885
179.711
181.247
182.481
183.406
184.011
184.284
184.219
183.803
183.032
181.903
180.418
178.58
176.396
173.872
171.017
167.838
164.344
160.545
156.449
152.068
147.411
142.493
137.329
131.937
126.334
120.539
114.573
108.456
102.21
95.855
89.412
82.902
76.346
69.765
63.18
56.61
50.076
43.597
37.192
30.879
24.675
18.596
12.657
6.873
1.257
-4.179
-9.424
-14.467
-19.301
-23.916
-28.307
-32.468
-36.394
-40.083
-43.532
-46.742
-49.712
-52.445
-54.943
-57.209
-59.25
-61.07
-62.675
-64.073
-65.27
-66.276
-67.098
-67.746
-68.23
-68.558
-68.742
-68.792
-68.717
-68.529
-68.237
-67.851
-67.381
-66.837
-66.228
-65.562
-64.849
-64.095
-63.308
-62.496
-61.664
-60.818
-59.963
-59.104
-58.246
-57.391
-56.542
-55.703
-54.876
-54.062
-53.263
-52.48
-51.713
-50.964
-50.233
-49.519
-48.822
-48.141
-47.477
-46.829
-46.196
-45.576
-44.971
-44.378
-43.798
-43.23
-42.675
-42.132
-41.602
-41.086
-40.586
-40.101
-39.634
-39.188
-38.763
-38.362
-37.988
-37.642
-37.329
-37.05
-36.808
-36.606
-36.447
-36.332
-36.265
-36.247
-36.28
-36.366
-36.506
-36.703
-36.955
-37.265
-37.632
-38.057
-38.539
-39.076
-39.669
-40.314
-41.009
-41.751
-42.537
-43.362
-44.22
-45.107
-46.017
-46.944
-47.88
-48.819
-49.754
-50.677
-51.58
-52.455
-53.295
-54.091
-54.836
-55.522
-56.141
-56.686
-57.152
-57.531
-57.817
-58.005
-58.09
-58.067
-57.932
-57.683
-57.316
-56.83
-56.224
-55.498
-54.654
-53.695
-52.623
-51.445
-50.166
-48.794
-47.336
-45.802
-44.2
-42.541
-40.836
-39.094
-37.326
-35.544
-33.758
-31.982
-30.227
-28.504
-26.827
-25.206
-23.654
-22.182
-20.799
-19.511
-18.323
-17.241
-16.272
-15.426
-14.71
-14.124
-13.667
-13.34
-13.136
-13.049
-13.061
-13.142
-13.266
-13.408
-13.545
-13.666
-13.756
-13.792
-13.751
-13.609
-13.346
-12.962
-12.451
-11.805
-11.028
-10.144
-9.199
-8.285
-7.487
-6.87
-6.492
-6.395
-6.631
-7.282
-8.421
-10.113
-12.411
-15.325
-18.895
-23.213
-28.278
-33.96
-40
-45.972
-51.48
-56.261
-60
-62.275
-62.804
-61.566
-58.855
-55.35
-51.728
-48.348
-45.564
-43.93
-43.782
-44.968
-46.812
-47.92
-46.677
-41.96
-32.634
-17.1
5.91
37.005
76.051
121.53
171.138
222.749
273.542
319.462
356.327
379.925
386.449
373.728
340.477
285.749
210.203
116.412
8.138
-109.344
-230.128
-348.949
-460.299
-558.649
-639.702
-700.326
-738.806
-755.435
-751.429
-728.412
-689.247
-637.462
-576.751
-511.231
-444.496
-379.133
-317.702
-262.436
-214.772
-175.741
-145.447
-122.901
-107
-96.689
-90.395
-86.527
-83.485
-79.523
-73.777
-66.217
-56.989
-46.476
-35.334
-24.174
-13.826
-5.326
0.888
4.837
6.69
6.892
5.907
4.105
2.002
0.185
-1.013
-1.408
-0.914
0.383
2.418
5.152
8.469
12.249
16.397
20.817
25.437
30.201
35.027
39.839
44.57
49.146
53.511
57.61
61.385
64.815
67.904
70.666
73.135
75.345
77.33
79.138
80.822
82.433
84.015
85.609
87.245
88.961
90.791
92.768
94.926
97.284
99.849
102.623
105.604
108.782
112.148
115.684
119.365
123.17
127.081
131.077
135.141
139.251
143.383
147.513
151.616
155.668
159.644
163.521
167.275
170.882
174.321
177.57
180.611
183.423
185.988
188.286
190.298
192.009
193.403
194.466
195.187
195.555
195.562
195.205
194.479
193.385
191.922
190.096
187.911
185.374
182.495
179.284
175.754
171.92
167.796
163.4
158.749
153.864
148.764
143.471
138.006
132.391
126.649
120.804
114.876
108.891
102.87
96.835
90.81
84.816
78.873
73.002
67.223
61.552
56.008
50.606
45.36
40.284
35.388
30.684
26.179
21.881
17.796
13.928
10.282
6.858
3.657
0.679
-2.078
-4.617
-6.941
-9.055
-10.965
-12.678
-14.2
-15.54
-16.705
-17.705
-18.548
-19.246
-19.808
-20.243
-20.563
-20.778
-20.899
-20.934
-20.896
-20.792
-20.633
-20.428
-20.185
-19.912
-19.616
-19.305
-18.985
-18.662
-18.339
-18.023
-17.717
-17.424
-17.147
-16.888
-16.649
-16.431
-16.235
-16.061
-15.908
-15.777
-15.666
-15.575
-15.501
-15.443
-15.399
-15.367
-15.344
-15.328
-15.317
-15.308
-15.299
-15.287
-15.269
-15.244
-15.209
-15.162
-15.102
-15.026
-14.933
-14.823
-14.695
-14.548
-14.383
-14.198
-13.995
-13.774
-13.537
-13.284
-13.016
-12.736
-12.446
-12.147
-11.842
-11.533
-11.224
-10.918
-10.616
-10.322
-10.039
-9.77
-9.518
-9.286
-9.076
-8.893
-8.739
-8.616
-8.528
-8.476
-8.464
-8.493
-8.565
-8.68
-8.84
-9.045
-9.296
-9.591
-9.93
-10.311
-10.734
-11.195
-11.693
-12.224
-12.786
-13.373
-13.981
-14.607
-15.245
-15.888
-16.532
-17.171
-17.799
-18.409
-18.996
-19.552
-20.072
-20.547
-20.973
-21.342
-21.646
-21.881
-22.04
-22.117
-22.107
-22.007
-21.814
-21.523
-21.134
-20.648
-20.063
-19.382
-18.605
-17.735
-16.775
-15.729
-14.603
-13.401
-12.13
-10.798
-9.413
-7.986
-6.529
-5.051
-3.564
-2.078
-0.607
0.839
2.247
3.608
4.91
6.143
7.291
8.341
9.28
10.103
10.807
11.392
11.862
12.221
12.479
12.654
12.761
12.813
12.822
12.795
12.746
12.687
12.64
12.622
12.651
12.733
12.869
13.06
13.298
13.563
13.829
14.046
14.171
14.166
13.989
13.596
12.942
11.982
10.672
8.988
6.897
4.361
1.35
-2.175
-6.224
-10.77
-15.804
-21.326
-27.259
-33.43
-39.557
-45.221
-50.046
-53.768
-56.066
-56.535
-54.953
-51.402
-46.317
-40.512
-34.795
-29.628
-25.475
-23.042
-22.701
-24.2
-26.677
-28.475
-27.732
-23.182
-13.524
3.072
27.908
61.438
103.257
151.479
203.514
257.023
308.867
354.608
389.823
410.409
412.938
395.335
356.283
295.007
212.143
111.728
-0.879
-121.466
-244.537
-367.379
-487.176
-594.401
-682.127
-743.52
-772.478
-774.279
-753.988
-716.24
-668.972
-613.283
-550.514
-484.633
-416.945
-350.789
-290.166
-236.721
-191.584
-155.276
-126.924
-105.214
-89.464
-78.752
-71.48
-66.313
-61.828
-56.484
-49.848
-42.155
-33.421
-23.962
-14.385
-5.128
3.05
9.238
13.212
15.119
15.199
13.935
11.779
9.071
6.328
4.108
2.726
2.354
3.015
4.584
6.973
10.106
13.862
18.108
22.718
27.569
32.562
37.622
42.666
47.615
52.388
56.903
61.092
64.897
68.295
71.294
73.911
76.18
78.141
79.835
81.315
82.645
83.878
85.065
86.251
87.472
88.769
90.184
91.754
93.514
95.485
97.676
100.09
102.725
105.575
108.63
111.875
115.287
118.848
122.54
126.346
130.251
134.235
138.275
142.35
146.436
150.51
154.55
158.533
162.436
166.237
169.914
173.447
176.816
180
182.98
185.735
188.246
190.495
192.464
194.139
195.505
196.548
197.26
197.632
197.656
197.329
196.646
195.608
194.214
192.468
190.372
187.932
185.157
182.054
178.634
174.91
170.894
166.6
162.046
157.246
152.22
146.986
141.563
135.971
130.231
124.363
118.389
112.329
106.205
100.037
93.848
87.656
81.482
75.346
69.265
63.259
57.344
51.536
45.85
40.301
34.903
29.666
24.604
19.724
15.038
10.552
6.274
2.208
-1.639
-5.267
-8.671
-11.851
-14.807
-17.54
-20.053
-22.349
-24.431
-26.304
-27.976
-29.451
-30.737
-31.842
-32.774
-33.542
-34.155
-34.623
-34.955
-35.16
-35.25
-35.234
-35.121
-34.922
-34.646
-34.303
-33.903
-33.453
-32.964
-32.443
-31.898
-31.337
-30.767
-30.195
-29.625
-29.065
-28.518
-27.989
-27.481
-26.996
-26.539
-26.109
-25.708
-25.337
-24.996
-24.685
-24.404
-24.151
-23.925
-23.725
-23.549
-23.396
-23.262
-23.147
-23.046
-22.959
-22.882
-22.813
-22.749
-22.688
-22.628
-22.565
-22.497
-22.423
-22.34
-22.246
-22.139
-22.018
-21.882
-21.732
-21.565
-21.384
-21.189
-20.981
-20.761
-20.532
-20.295
-20.052
-19.806
-19.559
-19.312
-19.07
-18.833
-18.605
-18.389
-18.187
-18.002
-17.837
-17.695
-17.579
-17.49
-17.433
-17.409
-17.421
-17.473
-17.565
-17.701
-17.883
-18.113
-18.392
-18.72
-19.098
-19.524
-19.998
-20.517
-21.078
-21.677
-22.309
-22.971
-23.658
-24.366
-25.09
-25.827
-26.574
-27.326
-28.081
-28.831
-29.573
-30.298
-30.998
-31.666
-32.294
-32.872
-33.394
-33.85
-34.237
-34.55
-34.784
-34.933
-34.989
-34.94
-34.78
-34.51
-34.126
-33.634
-33.042
-32.362
-31.618
-30.834
-30.026
-29.207
-28.38
-27.54
-26.684
-25.811
-24.915
-24
-23.07
-22.122
-21.163
-20.192
-19.198
-18.159
-17.037
-15.783
-14.379
-12.818
-11.109
-9.283
-7.368
-5.403
-3.443
-1.524
0.328
2.09
3.763
5.344
6.802
8.103
9.189
9.993
10.486
10.655
10.501
10.055
9.35
8.433
7.385
6.257
5.075
3.849
2.548
1.152
-0.337
-1.915
-3.569
-5.29
-7.088
-8.99
-11.011
-13.177
-15.524
-18.113
-21.033
-24.344
-28.08
-32.216
-36.713
-41.594
-46.783
-52.109
-57.306
-61.92
-65.51
-67.781
-68.331
-66.697
-62.813
-56.829
-49.213
-41.098
-33.428
-26.847
-22.339
-20.686
-21.834
-25.345
-29.958
-33.229
-33.152
-27.959
-15.22
6.865
39.021
81.32
132.187
188.452
247.05
304.24
354.918
394.293
417.904
421.782
403.816
363.137
299.384
214.024
110.527
-6.714
-132.036
-259.374
-383.325
-498.152
-598.253
-679.469
-738.896
-775.039
-788.26
-779.604
-750.681
-704.675
-645.464
-577.093
-504.022
-430.095
-358.307
-291.812
-233.243
-184.087
-145.226
-116.457
-96.456
-83.866
-77.23
-74.445
-73.544
-72.759
-70.426
-65.901
-59.327
-50.965
-41.36
-31.348
-21.685
-13.249
-6.938
-2.997
-1.27
-1.441
-2.98
-5.368
-8.144
-10.76
-12.663
-13.549
-13.296
-11.919
-9.551
-6.305
-2.276
2.401
7.575
13.104
18.871
24.776
30.737
36.67
42.475
48.055
53.318
58.185
62.613
66.588
70.121
73.235
75.965
78.352
80.446
82.309
84
85.571
87.072
88.545
90.036
91.592
93.261
95.084
97.089
99.291
101.696
104.308
107.121
110.129
113.319
116.671
120.169
123.798
127.542
131.39
135.324
139.323
143.369
147.438
151.511
155.568
159.587
163.547
167.427
171.205
174.862
178.378
181.732
184.902
187.867
190.606
193.098
195.325
197.268
198.91
200.237
201.235
201.895
202.206
202.161
201.756
200.987
199.852
198.353
196.49
194.269
191.695
188.776
185.52
181.939
178.046
173.854
169.378
164.636
159.645
154.424
148.994
143.375
137.589
131.658
125.605
119.453
113.225
106.944
100.633
94.314
88.01
81.742
75.531
69.396
63.355
57.426
51.626
45.968
40.468
35.137
29.987
25.027
20.267
15.713
11.372
7.248
3.345
-0.335
-3.791
-7.023
-10.033
-12.823
-15.397
-17.759
-19.914
-21.869
-23.632
-25.209
-26.609
-27.842
-28.917
-29.843
-30.63
-31.288
-31.827
-32.258
-32.589
-32.83
-32.991
-33.08
-33.106
-33.076
-32.998
-32.879
-32.725
-32.542
-32.335
-32.109
-31.869
-31.617
-31.357
-31.093
-30.825
-30.557
-30.29
-30.024
-29.761
-29.501
-29.244
-28.99
-28.737
-28.486
-28.236
-27.986
-27.734
-27.48
-27.222
-26.96
-26.692
-26.417
-26.135
-25.845
-25.545
-25.237
-24.92
-24.594
-24.259
-23.916
-23.566
-23.21
-22.848
-22.482
-22.114
-21.744
-21.374
-21.006
-20.641
-20.28
-19.926
-19.58
-19.244
-18.919
-18.607
-18.309
-18.027
-17.762
-17.516
-17.291
-17.087
-16.905
-16.747
-16.614
-16.506
-16.426
-16.373
-16.349
-16.353
-16.387
-16.452
-16.546
-16.672
-16.827
-17.014
-17.23
-17.478
-17.755
-18.062
-18.398
-18.764
-19.157
-19.578
-20.026
-20.499
-20.996
-21.515
-22.056
-22.614
-23.189
-23.779
-24.379
-24.989
-25.605
-26.223
-26.841
-27.456
-28.062
-28.656
-29.233
-29.79
-30.322
-30.823
-31.29
-31.716
-32.099
-32.432
-32.711
-32.932
-33.088
-33.177
-33.194
-33.134
-32.994
-32.771
-32.464
-32.069
-31.587
-31.018
-30.362
-29.622
-28.802
-27.903
-26.929
-25.887
-24.779
-23.614
-22.397
-21.134
-19.832
-18.501
-17.15
-15.789
-14.428
-13.078
-11.748
-10.449
-9.193
-7.991
-6.852
-5.785
-4.796
-3.894
-3.089
-2.392
-1.811
-1.345
-0.996
-0.76
-0.634
-0.612
-0.68
-0.817
-1.001
-1.212
-1.432
-1.653
-1.861
-2.042
-2.175
-2.238
-2.214
-2.102
-1.9
-1.606
-1.225
-0.77
-0.274
0.203
0.6
0.849
0.895
0.697
0.211
-0.598
-1.775
-3.385
-5.473
-8.083
-11.247
-14.97
-19.286
-24.251
-29.805
-35.751
-41.783
-47.464
-52.411
-56.371
-59.02
-59.934
-58.885
-55.952
-51.567
-46.548
-41.669
-37.342
-33.993
-32.28
-32.532
-34.485
-37.28
-39.268
-38.626
-34.109
-24.426
-7.779
17.072
50.488
91.983
139.606
190.721
242.915
292.947
336.332
368.709
386.16
385.471
364.788
323.096
259.901
176.145
76.06
-35.112
-153.343
-273.34
-392.597
-508.722
-612.834
-698.626
-759.891
-790.543
-795.332
-779.015
-745.665
-702.318
-649.59
-588.19
-521.493
-451.157
-380.8
-314.469
-254.326
-202.139
-159.062
-125.103
-99.596
-81.767
-70.579
-64.388
-61.52
-60.204
-58.492
-55.375
-50.658
-44.292
-36.57
-28.104
-19.473
-11.546
-5.382
-1.397
0.445
0.368
-1.136
-3.579
-6.541
-9.454
-11.69
-12.885
-12.884
-11.684
-9.439
-6.274
-2.284
2.386
7.568
13.109
18.879
24.77
30.706
36.6
42.349
47.857
53.029
57.789
62.097
65.947
69.351
72.34
74.952
77.23
79.228
81.008
82.631
84.15
85.617
87.073
88.565
90.143
91.851
93.731
95.811
98.102
100.611
103.337
106.274
109.414
112.744
116.242
119.89
123.673
127.574
131.58
135.671
139.827
144.026
148.245
152.464
156.662
160.816
164.905
168.908
172.804
176.571
180.19
183.642
186.904
189.954
192.774
195.342
197.64
199.652
201.36
202.751
203.812
204.532
204.904
204.921
204.577
203.87
202.798
201.363
199.567
197.414
194.91
192.063
188.883
185.379
181.566
177.456
173.064
168.408
163.504
158.372
153.03
147.498
141.799
135.952
129.98
123.904
117.747
111.53
105.275
99.003
92.736
86.493
80.295
74.16
68.105
62.148
56.305
50.589
45.014
39.594
34.338
29.258
24.363
19.659
15.154
10.854
6.762
2.882
-0.785
-4.236
-7.473
-10.497
-13.309
-15.914
-18.314
-20.514
-22.52
-24.338
-25.974
-27.436
-28.731
-29.867
-30.853
-31.696
-32.406
-32.989
-33.456
-33.815
-34.072
-34.237
-34.318
-34.32
-34.253
-34.122
-33.934
-33.696
-33.412
-33.09
-32.733
-32.347
-31.936
-31.503
-31.054
-30.59
-30.115
-29.631
-29.141
-28.647
-28.15
-27.653
-27.156
-26.661
-26.169
-25.681
-25.197
-24.719
-24.247
-23.781
-23.324
-22.874
-22.434
-22.003
-21.584
-21.176
-20.782
-20.401
-20.036
-19.687
-19.355
-19.042
-18.749
-18.476
-18.226
-17.999
-17.797
-17.62
-17.47
-17.348
-17.254
-17.19
-17.156
-17.153
-17.181
-17.24
-17.332
-17.455
-17.611
-17.798
-18.016
-18.266
-18.545
-18.854
-19.192
-19.557
-19.948
-20.363
-20.801
-21.261
-21.74
-22.238
-22.751
-23.279
-23.818
-24.369
-24.927
-25.492
-26.06
-26.631
-27.201
-27.768
-28.33
-28.884
-29.427
-29.958
-30.473
-30.97
-31.447
-31.9
-32.328
-32.728
-33.097
-33.432
-33.732
-33.994
-34.216
-34.394
-34.527
-34.614
-34.651
-34.637
-34.57
-34.448
-34.27
-34.034
-33.738
-33.381
-32.963
-32.482
-31.939
-31.334
-30.668
-29.943
-29.161
-28.327
-27.444
-26.515
-25.545
-24.54
-23.504
-22.444
-21.366
-20.275
-19.177
-18.081
-16.992
-15.922
-14.876
-13.863
-12.891
-11.968
-11.102
-10.301
-9.574
-8.923
-8.354
-7.874
-7.488
-7.207
-7.035
-6.971
-7.014
-7.161
-7.404
-7.736
-8.142
-8.599
-9.082
-9.57
-10.043
-10.489
-10.892
-11.233
-11.494
-11.647
-11.679
-11.582
-11.351
-10.986
-10.494
-9.889
-9.207
-8.507
-7.853
-7.316
-6.959
-6.829
-6.976
-7.437
-8.258
-9.503
-11.221
-13.457
-16.246
-19.6
-23.539
-28.112
-33.264
-38.809
-44.469
-49.832
-54.513
-58.253
-60.735
-61.555
-60.485
-57.567
-53.158
-47.983
-42.757
-37.881
-33.765
-31.006
-29.912
-30.267
-31.299
-31.512
-29.218
-23.232
-12.383
4.917
29.779
62.529
102.708
148.506
197.371
247.008
294.553
336.036
367.625
385.709
387.133
370.382
334.814
279.884
206.405
116.932
14.814
-95.351
-208.371
-319.933
-425.556
-520.32
-600.246
-662.376
-704.67
-727.023
-730.312
-715.215
-683.534
-638.205
-582.474
-520.167
-455.071
-389.763
-326.653
-268.601
-217.717
-175.374
-142.077
-117.011
-98.942
-87.022
-79.982
-75.977
-73.184
-69.766
-64.642
-57.804
-49.511
-40.019
-29.825
-19.599
-10.191
-2.65
2.513
5.385
6.23
5.5
3.666
1.123
-1.593
-3.868
-5.32
-5.758
-5.133
-3.557
-1.123
2.107
6.014
10.468
15.347
20.533
25.934
31.477
37.071
42.632
48.069
53.29
58.218
62.784
66.947
70.708
74.078
77.082
79.759
82.144
84.284
86.239
88.062
89.804
91.51
93.216
94.965
96.802
98.767
100.899
103.222
105.746
108.476
111.413
114.55
117.877
121.382
125.041
128.835
132.748
136.762
140.862
145.028
149.237
153.468
157.696
161.899
166.054
170.138
174.128
178.002
181.736
185.312
188.708
191.904
194.878
197.611
200.082
202.271
204.163
205.739
206.985
207.887
208.434
208.617
208.43
207.867
206.925
205.603
203.902
201.825
199.377
196.565
193.396
189.88
186.031
181.86
177.383
172.615
167.575
162.281
156.753
151.011
145.077
138.973
132.72
126.342
119.862
113.302
106.686
100.037
93.377
86.728
80.113
73.552
67.066
60.674
54.393
48.242
42.236
36.389
30.716
25.229
19.939
14.855
9.986
5.34
0.923
-3.261
-7.209
-10.917
-14.384
-17.611
-20.598
-23.348
-25.863
-28.146
-30.204
-32.04
-33.661
-35.074
-36.286
-37.306
-38.142
-38.802
-39.296
-39.633
-39.824
-39.879
-39.806
-39.617
-39.32
-38.927
-38.445
-37.884
-37.254
-36.563
-35.819
-35.03
-34.203
-33.347
-32.468
-31.573
-30.666
-29.755
-28.844
-27.939
-27.043
-26.161
-25.298
-24.456
-23.639
-22.85
-22.091
-21.366
-20.676
-20.023
-19.408
-18.832
-18.297
-17.802
-17.349
-16.937
-16.567
-16.238
-15.95
-15.704
-15.498
-15.333
-15.208
-15.121
-15.074
-15.064
-15.093
-15.158
-15.26
-15.398
-15.571
-15.779
-16.021
-16.296
-16.603
-16.941
-17.31
-17.706
-18.13
-18.58
-19.053
-19.549
-20.066
-20.603
-21.156
-21.724
-22.305
-22.897
-23.497
-24.102
-24.71
-25.317
-25.92
-26.518
-27.105
-27.68
-28.238
-28.775
-29.289
-29.775
-30.229
-30.647
-31.024
-31.357
-31.64
-31.87
-32.043
-32.156
-32.204
-32.185
-32.094
-31.929
-31.688
-31.367
-30.965
-30.481
-29.913
-29.262
-28.528
-27.713
-26.818
-25.849
-24.807
-23.699
-22.527
-21.299
-20.02
-18.697
-17.336
-15.944
-14.527
-13.095
-11.657
-10.222
-8.798
-7.397
-6.026
-4.697
-3.42
-2.206
-1.063
0.004
0.989
1.885
2.685
3.378
3.959
4.428
4.785
5.031
5.17
5.208
5.161
5.052
4.909
4.753
4.602
4.466
4.359
4.299
4.303
4.395
4.587
4.879
5.276
5.782
6.393
7.095
7.852
8.591
9.236
9.72
9.982
9.983
9.686
9.035
7.971
6.429
4.36
1.732
-1.471
-5.296
-9.824
-15.043
-20.808
-26.823
-32.661
-37.94
-42.4
-45.757
-47.61
-47.715
-46.106
-43.15
-39.636
-36.306
-33.515
-31.553
-30.841
-31.576
-33.492
-35.795
-36.935
-35.211
-29.487
-18.767
-1.832
22.263
53.86
92.602
137.011
184.858
234.084
282.277
326.114
362.031
386.471
396.088
388.535
362.395
316.513
250.794
166.844
67.471
-43.143
-159.823
-277.436
-390.741
-494.154
-582.75
-652.733
-701.512
-728.451
-734.278
-720.213
-688.515
-642.552
-586.163
-523.556
-458.758
-394.587
-333.398
-277.623
-229.004
-188.542
-156.365
-131.501
-112.607
-98.778
-88.899
-81.411
-74.815
-67.616
-59.01
-49.147
-38.425
-27.156
-15.808
-4.993
4.58
12.001
16.848
19.279
19.58
18.183
15.551
12.07
8.238
4.669
1.752
-0.319
-1.423
-1.608
-0.922
0.629
2.949
5.912
9.415
13.341
17.6
22.127
26.828
31.608
36.385
41.064
45.57
49.839
53.798
57.413
60.682
63.61
66.229
68.577
70.689
72.618
74.424
76.156
77.866
79.595
81.38
83.259
85.272
87.452
89.835
92.44
95.274
98.339
101.63
105.133
108.838
112.722
116.76
120.925
125.197
129.553
133.973
138.433
142.906
147.366
151.787
156.141
160.406
164.554
168.561
172.404
176.06
179.507
182.727
185.698
188.401
190.817
192.927
194.714
196.165
197.265
198.002
198.367
198.353
197.955
197.172
196.001
194.445
192.506
190.192
187.507
184.463
181.069
177.337
173.282
168.92
164.266
159.338
154.157
148.741
143.111
137.289
131.297
125.157
118.892
112.525
106.078
99.574
93.036
86.487
79.948
73.44
66.984
60.599
54.304
48.117
42.055
36.131
30.362
24.759
19.335
14.1
9.064
4.234
-0.383
-4.78
-8.954
-12.901
-16.62
-20.108
-23.367
-26.398
-29.201
-31.782
-34.142
-36.288
-38.224
-39.957
-41.492
-42.839
-44.005
-44.998
-45.826
-46.5
-47.029
-47.421
-47.686
-47.834
-47.874
-47.816
-47.669
-47.442
-47.144
-46.784
-46.37
-45.909
-45.41
-44.879
-44.323
-43.748
-43.158
-42.56
-41.958
-41.356
-40.758
-40.166
-39.584
-39.015
-38.459
-37.918
-37.394
-36.888
-36.399
-35.928
-35.475
-35.04
-34.622
-34.219
-33.832
-33.459
-33.099
-32.751
-32.412
-32.082
-31.759
-31.441
-31.128
-30.818
-30.51
-30.203
-29.897
-29.592
-29.287
-28.984
-28.681
-28.38
-28.082
-27.787
-27.497
-27.214
-26.939
-26.673
-26.418
-26.177
-25.951
-25.743
-25.553
-25.384
-25.237
-25.116
-25.021
-24.955
-24.92
-24.917
-24.948
-25.016
-25.12
-25.263
-25.445
-25.666
-25.926
-26.226
-26.562
-26.935
-27.343
-27.783
-28.252
-28.748
-29.268
-29.806
-30.359
-30.923
-31.492
-32.062
-32.627
-33.182
-33.721
-34.24
-34.732
-35.192
-35.615
-35.996
-36.327
-36.605
-36.824
-36.977
-37.061
-37.07
-37.001
-36.851
-36.616
-36.295
-35.888
-35.395
-34.818
-34.158
-33.417
-32.6
-31.71
-30.751
-29.731
-28.653
-27.524
-26.352
-25.147
-23.918
-22.676
-21.429
-20.189
-18.965
-17.768
-16.608
-15.495
-14.437
-13.443
-12.521
-11.682
-10.938
-10.299
-9.766
-9.338
-9.014
-8.787
-8.649
-8.59
-8.589
-8.627
-8.687
-8.755
-8.82
-8.872
-8.895
-8.871
-8.78
-8.606
-8.346
-8.001
-7.574
-7.076
-6.525
-5.949
-5.397
-4.913
-4.542
-4.334
-4.326
-4.556
-5.064
-5.877
-7.031
-8.569
-10.523
-12.923
-15.796
-19.13
-22.933
-27.24
-31.992
-37.064
-42.222
-47.081
-51.277
-54.53
-56.512
-56.845
-55.299
-51.822
-46.753
-40.877
-34.996
-29.793
-25.897
-23.885
-24.154
-26.718
-30.848
-35.068
-37.58
-36.549
-30.3
-17.199
4.212
34.779
74.393
121.889
175.096
231.193
286.988
338.557
381.568
411.799
425.403
419.421
392.061
342.492
271.061
179.834
72.28
-46.853
-171.859
-296.967
-416.406
-524.403
-615.982
-687.433
-736.402
-762.47
-766.59
-750.251
-716.008
-667.478
-608.68
-543.908
-477.177
-411.285
-348.596
-291.571
-241.931
-200.608
-167.65
-142.026
-122.397
-107.875
-97.321
-89.114
-81.697
-73.569
-63.952
-53.033
-41.236
-28.885
-16.464
-4.621
5.886
14.127
19.677
22.701
23.53
22.638
20.506
17.536
14.231
11.196
8.812
7.265
6.632
6.806
7.689
9.225
11.304
13.81
16.646
19.697
22.879
26.135
29.407
32.662
35.867
38.959
41.899
44.65
47.202
49.614
51.951
54.27
56.63
59.066
61.618
64.345
67.283
70.446
73.821
77.36
81.032
84.836
88.766
92.815
96.963
101.148
105.321
109.453
113.514
117.488
121.355
125.081
128.658
132.098
135.431
138.703
141.943
145.156
148.348
151.518
154.672
157.825
160.977
164.113
167.216
170.273
173.268
176.193
179.026
181.732
184.274
186.609
188.702
190.53
192.072
193.308
194.22
194.792
195.019
194.899
194.433
193.617
192.452
190.935
189.07
186.865
184.331
181.477
178.315
174.856
171.113
167.099
162.83
158.319
153.581
148.631
143.485
138.161
132.679
127.059
121.323
115.49
109.582
103.621
97.629
91.625
85.631
79.665
73.746
67.892
62.12
56.447
50.886
45.454
40.162
35.022
30.047
25.246
20.628
16.201
11.972
7.945
4.127
0.519
-2.875
-6.055
-9.021
-11.772
-14.311
-16.64
-18.765
-20.688
-22.416
-23.955
-25.311
-26.492
-27.507
-28.363
-29.069
-29.633
-30.064
-30.37
-30.561
-30.644
-30.627
-30.52
-30.329
-30.064
-29.731
-29.338
-28.891
-28.397
-27.863
-27.293
-26.694
-26.07
-25.426
-24.766
-24.095
-23.414
-22.729
-22.042
-21.355
-20.671
-19.993
-19.32
-18.656
-18.001
-17.357
-16.723
-16.102
-15.494
-14.899
-14.318
-13.751
-13.201
-12.666
-12.148
-11.648
-11.165
-10.701
-10.255
-9.829
-9.423
-9.038
-8.674
-8.332
-8.014
-7.719
-7.448
-7.202
-6.981
-6.786
-6.616
-6.471
-6.352
-6.259
-6.191
-6.149
-6.134
-6.144
-6.181
-6.243
-6.332
-6.447
-6.588
-6.753
-6.943
-7.156
-7.393
-7.653
-7.935
-8.239
-8.565
-8.913
-9.283
-9.674
-10.087
-10.52
-10.975
-11.45
-11.946
-12.462
-12.999
-13.557
-14.135
-14.735
-15.356
-15.996
-16.655
-17.333
-18.026
-18.734
-19.453
-20.181
-20.914
-21.651
-22.387
-23.122
-23.851
-24.575
-25.289
-25.993
-26.684
-27.357
-28.007
-28.629
-29.214
-29.756
-30.249
-30.684
-31.056
-31.36
-31.591
-31.746
-31.822
-31.815
-31.717
-31.521
-31.221
-30.816
-30.309
-29.703
-29.012
-28.248
-27.431
-26.58
-25.708
-24.823
-23.928
-23.017
-22.085
-21.123
-20.13
-19.116
-18.088
-17.05
-16.004
-14.946
-13.861
-12.727
-11.516
-10.195
-8.75
-7.175
-5.478
-3.685
-1.834
0.032
1.882
3.703
5.49
7.242
8.95
10.604
12.175
13.635
14.944
16.055
16.941
17.584
17.984
18.162
18.158
18.02
17.779
17.443
16.994
16.406
15.66
14.734
13.605
12.255
10.672
8.858
6.821
4.555
2.03
-0.789
-3.965
-7.549
-11.552
-15.996
-20.899
-26.201
-31.746
-37.273
-42.385
-46.707
-49.96
-51.813
-51.842
-49.799
-45.74
-40.071
-33.574
-27.066
-21.075
-16.148
-13.09
-12.389
-13.873
-16.748
-19.406
-19.925
-16.866
-8.722
6.547
30.47
63.663
105.848
155.247
209.109
264.701
318.415
365.341
400.702
420.092
419.487
396.597
350.448
280.467
189.298
81.664
-38.744
-166.113
-296.557
-427.097
-548.203
-652.096
-731.199
-778.22
-796.928
-792.125
-768.096
-731.606
-683.526
-624.976
-559.633
-490.009
-420.143
-353.659
-292.802
-239.458
-194.445
-158.052
-129.856
-108.644
-93.552
-83.579
-77.057
-72.573
-68.682
-63.924
-57.892
-50.755
-42.553
-33.624
-24.594
-15.969
-8.51
-3.049
0.248
1.557
1.145
-0.5
-2.924
-5.74
-8.423
-10.426
-11.445
-11.353
-10.162
-8.012
-5.012
-1.249
3.148
8.027
13.246
18.683
24.233
29.821
35.367
40.776
45.953
50.809
55.265
59.278
62.844
65.976
68.703
71.063
73.1
74.864
76.422
77.832
79.149
80.422
81.69
82.998
84.393
85.92
87.622
89.527
91.65
93.996
96.566
99.356
102.36
105.563
108.944
112.486
116.173
119.99
123.924
127.956
132.068
136.236
140.441
144.659
148.871
153.054
157.188
161.251
165.221
169.077
172.801
176.372
179.769
182.971
185.956
188.705
191.2
193.423
195.356
196.986
198.3
199.285
199.934
200.239
200.193
199.793
199.036
197.921
196.45
194.626
192.452
189.935
187.082
183.903
180.408
176.61
172.522
168.158
163.535
158.67
153.58
148.286
142.807
137.162
131.374
125.463
119.451
113.36
107.211
101.025
94.824
88.629
82.46
76.335
70.274
64.295
58.414
52.648
47.012
41.519
36.184
31.018
26.031
21.235
16.637
12.245
8.065
4.103
0.361
-3.156
-6.448
-9.514
-12.356
-14.975
-17.374
-19.558
-21.531
-23.3
-24.871
-26.252
-27.451
-28.477
-29.338
-30.044
-30.604
-31.029
-31.329
-31.513
-31.592
-31.576
-31.475
-31.298
-31.055
-30.755
-30.408
-30.021
-29.603
-29.161
-28.703
-28.235
-27.765
-27.296
-26.836
-26.388
-25.956
-25.543
-25.153
-24.787
-24.448
-24.136
-23.852
-23.596
-23.369
-23.17
-22.999
-22.854
-22.734
-22.638
-22.563
-22.509
-22.472
-22.452
-22.445
-22.451
-22.465
-22.488
-22.516
-22.547
-22.581
-22.615
-22.646
-22.675
-22.699
-22.718
-22.729
-22.733
-22.729
-22.717
-22.697
-22.668
-22.631
-22.587
-22.536
-22.478
-22.415
-22.347
-22.276
-22.202
-22.127
-22.053
-21.982
-21.915
-21.854
-21.801
-21.758
-21.727
-21.71
-21.708
-21.723
-21.757
-21.811
-21.888
-21.989
-22.116
-22.269
-22.451
-22.663
-22.906
-23.18
-23.486
-23.825
-24.196
-24.6
-25.036
-25.505
-26.005
-26.537
-27.098
-27.687
-28.303
-28.943
-29.604
-30.282
-30.974
-31.677
-32.386
-33.096
-33.802
-34.5
-35.186
-35.857
-36.506
-37.131
-37.725
-38.285
-38.806
-39.282
-39.707
-40.071
-40.371
-40.599
-40.753
-40.826
-40.815
-40.714
-40.522
-40.238
-39.863
-39.392
-38.819
-38.139
-37.352
-36.467
-35.494
-34.446
-33.33
-32.156
-30.94
-29.698
-28.444
-27.181
-25.902
-24.599
-23.274
-21.938
-20.611
-19.311
-18.047
-16.815
-15.611
-14.435
-13.286
-12.159
-11.035
-9.891
-8.723
-7.553
-6.421
-5.365
-4.404
-3.538
-2.758
-2.055
-1.422
-0.865
-0.381
0.037
0.388
0.661
0.827
0.854
0.741
0.522
0.246
-0.041
-0.319
-0.587
-0.853
-1.126
-1.439
-1.823
-2.318
-2.986
-3.858
-4.956
-6.291
-7.851
-9.66
-11.786
-14.292
-17.242
-20.683
-24.605
-29.025
-34.005
-39.471
-45.251
-51.063
-56.439
-60.969
-64.382
-66.327
-66.39
-64.401
-60.42
-54.865
-48.709
-42.865
-37.938
-34.601
-33.482
-34.765
-38.183
-42.777
-46.559
-47.423
-43.619
-33.248
-14.627
13.272
50.806
97.239
150.276
206.891
263.712
316.511
360.771
392.093
406.305
400.188
371.917
320.785
247.355
153.878
43.964
-77.516
-204.751
-331.71
-452.333
-560.807
-652.18
-722.591
-769.593
-792.538
-792.032
-769.743
-728.577
-672.272
-605.072
-531.708
-456.582
-383.181
-314.742
-253.895
-202.351
-161.174
-130.295
-108.468
-94.149
-85.847
-81.635
-79.635
-78.083
-75.209
-70.208
-63.159
-54.371
-44.364
-33.894
-23.676
-14.568
-7.569
-3.048
-0.879
-0.762
-2.146
-4.485
-7.327
-10.102
-12.199
-13.263
-13.144
-11.83
-9.468
-6.18
-2.054
2.767
8.13
13.893
19.924
26.115
32.377
38.611
44.708
50.563
56.071
61.15
65.753
69.863
73.492
76.668
79.427
81.813
83.876
85.678
87.28
88.736
90.099
91.414
92.73
94.096
95.561
97.168
98.946
100.912
103.072
105.428
107.978
110.715
113.627
116.699
119.914
123.259
126.721
130.289
133.948
137.679
141.464
145.283
149.116
152.945
156.749
160.51
164.206
167.817
171.324
174.707
177.946
181.021
183.91
186.593
189.049
191.26
193.207
194.874
196.244
197.305
198.044
198.452
198.52
198.241
197.611
196.626
195.285
193.589
191.54
189.143
186.402
183.325
179.923
176.206
172.186
167.879
163.299
158.464
153.392
148.102
142.614
136.949
131.128
125.175
119.11
112.958
106.741
100.481
94.202
87.926
81.674
75.469
69.33
63.278
57.331
51.506
45.821
40.292
34.932
29.755
24.773
19.996
15.435
11.097
6.989
3.115
-0.519
-3.912
-7.063
-9.971
-12.638
-15.065
-17.258
-19.219
-20.955
-22.472
-23.778
-24.879
-25.786
-26.507
-27.053
-27.434
-27.66
-27.743
-27.694
-27.524
-27.244
-26.866
-26.401
-25.859
-25.252
-24.59
-23.882
-23.138
-22.367
-21.578
-20.778
-19.975
-19.175
-18.384
-17.607
-16.851
-16.119
-15.415
-14.742
-14.104
-13.502
-12.939
-12.416
-11.934
-11.494
-11.095
-10.739
-10.423
-10.148
-9.912
-9.713
-9.551
-9.422
-9.325
-9.257
-9.216
-9.199
-9.204
-9.228
-9.268
-9.322
-9.388
-9.464
-9.547
-9.635
-9.727
-9.821
-9.915
-10.007
-10.097
-10.182
-10.262
-10.336
-10.402
-10.459
-10.506
-10.544
-10.57
-10.584
-10.585
-10.573
-10.549
-10.512
-10.462
-10.402
-10.33
-10.25
-10.162
-10.068
-9.97
-9.869
-9.768
-9.668
-9.572
-9.48
-9.396
-9.322
-9.259
-9.21
-9.178
-9.164
-9.172
-9.203
-9.259
-9.342
-9.455
-9.599
-9.776
-9.989
-10.239
-10.529
-10.859
-11.232
-11.647
-12.104
-12.602
-13.142
-13.719
-14.332
-14.977
-15.651
-16.349
-17.069
-17.807
-18.558
-19.32
-20.09
-20.862
-21.634
-22.4
-23.152
-23.883
-24.586
-25.252
-25.872
-26.44
-26.947
-27.387
-27.756
-28.049
-28.262
-28.389
-28.424
-28.356
-28.178
-27.89
-27.491
-26.989
-26.393
-25.721
-24.99
-24.221
-23.431
-22.628
-21.815
-20.984
-20.13
-19.243
-18.325
-17.385
-16.429
-15.463
-14.489
-13.503
-12.492
-11.433
-10.294
-9.035
-7.635
-6.085
-4.402
-2.618
-0.773
1.082
2.909
4.684
6.389
8.015
9.558
11.013
12.361
13.569
14.586
15.352
15.829
16
15.88
15.503
14.918
14.191
13.379
12.523
11.649
10.756
9.81
8.771
7.612
6.317
4.904
3.41
1.841
0.178
-1.627
-3.642
-5.936
-8.574
-11.652
-15.293
-19.533
-24.297
-29.347
-34.287
-38.76
-42.507
-45.245
-46.644
-46.5
-44.776
-41.815
-38.397
-35.264
-32.978
-32.024
-32.833
-35.665
-40.47
-46.501
-52.261
-56.007
-56.005
-50.679
-38.517
-18.132
11.342
49.842
96.261
148.537
203.971
259.539
311.537
355.743
387.953
404.289
401.697
378.31
333.2
266.451
179.792
76.416
-39.138
-161.225
-284.052
-401.943
-509.184
-600.696
-672.581
-722.166
-748.74
-753.276
-737.305
-703.303
-654.843
-595.723
-530.061
-462.104
-394.838
-330.432
-271.25
-218.821
-173.838
-136.929
-107.729
-85.09
-68.468
-57.242
-50.054
-46.029
-44.436
-43.945
-43.894
-44.026
-43.585
-42.207
-40.06
-36.858
-32.349
-26.996
-21.044
-14.805
-9.034
-4.007
0.316
3.653
5.742
6.731
6.784
6.302
6.022
6.286
7.182
8.896
11.547
15.144
19.673
24.918
30.455
36.032
41.522
46.811
51.855
56.585
60.896
64.769
68.265
71.429
74.303
76.912
79.254
81.353
83.267
85.051
86.762
88.449
90.141
91.874
93.69
95.628
97.729
100.02
102.512
105.211
108.121
111.24
114.568
118.095
121.801
125.668
129.676
133.806
138.045
142.373
146.769
151.21
155.673
160.133
164.569
168.956
173.268
177.483
181.573
185.516
189.291
192.873
196.24
199.369
202.237
204.823
207.108
209.071
210.695
211.964
212.864
213.383
213.513
213.245
212.575
211.498
210.014
208.123
205.829
203.137
200.053
196.587
192.75
188.554
184.015
179.148
173.973
168.509
162.776
156.798
150.597
144.198
137.625
130.905
124.062
117.123
110.115
103.063
95.993
88.931
81.901
74.927
68.033
61.241
54.57
48.042
41.673
35.482
29.483
23.691
18.118
12.775
7.673
2.819
-1.78
-6.12
-10.196
-14.008
-17.555
-20.837
-23.859
-26.623
-29.135
-31.401
-33.429
-35.227
-36.806
-38.175
-39.345
-40.327
-41.135
-41.78
-42.274
-42.63
-42.861
-42.979
-42.995
-42.923
-42.773
-42.557
-42.285
-41.967
-41.612
-41.23
-40.829
-40.417
-40
-39.586
-39.179
-38.784
-38.406
-38.049
-37.715
-37.406
-37.125
-36.871
-36.645
-36.448
-36.277
-36.133
-36.013
-35.915
-35.838
-35.779
-35.736
-35.706
-35.686
-35.675
-35.67
-35.669
-35.669
-35.67
-35.669
-35.664
-35.656
-35.644
-35.626
-35.602
-35.574
-35.54
-35.501
-35.459
-35.414
-35.367
-35.32
-35.274
-35.232
-35.195
-35.165
-35.147
-35.141
-35.152
-35.181
-35.232
-35.308
-35.411
-35.544
-35.711
-35.913
-36.154
-36.434
-36.757
-37.124
-37.536
-37.993
-38.496
-39.045
-39.638
-40.274
-40.952
-41.668
-42.422
-43.209
-44.027
-44.873
-45.741
-46.628
-47.529
-48.439
-49.353
-50.264
-51.167
-52.055
-52.922
-53.761
-54.566
-55.33
-56.046
-56.706
-57.304
-57.833
-58.286
-58.656
-58.937
-59.124
-59.212
-59.197
-59.076
-58.846
-58.506
-58.057
-57.501
-56.838
-56.072
-55.206
-54.243
-53.19
-52.051
-50.833
-49.543
-48.187
-46.776
-45.318
-43.827
-42.313
-40.786
-39.259
-37.743
-36.251
-34.796
-33.39
-32.042
-30.763
-29.566
-28.463
-27.468
-26.591
-25.836
-25.203
-24.693
-24.3
-24.02
-23.843
-23.748
-23.722
-23.748
-23.812
-23.909
-24.026
-24.147
-24.259
-24.339
-24.372
-24.355
-24.287
-24.165
-24.003
-23.814
-23.618
-23.462
-23.386
-23.427
-23.633
-24.036
-24.664
-25.549
-26.713
-28.188
-30.021
-32.243
-34.884
-37.97
-41.49
-45.451
-49.899
-54.771
-59.908
-65.062
-69.851
-73.935
-77.104
-79.092
-79.531
-78.229
-75.264
-71.03
-66.31
-61.84
-58.017
-55.216
-53.971
-54.544
-56.671
-59.529
-61.557
-61.035
-56.795
-47.731
-32.384
-9.708
20.639
58.258
101.434
147.74
195.058
240.765
281.163
312.575
331.421
334.469
320.048
287.363
235.656
165.44
79.006
-20.474
-128.485
-239.755
-349.853
-454.225
-547.842
-626.611
-687.537
-728.555
-749.609
-751.858
-736.259
-704.847
-660.772
-607.203
-547.76
-486.113
-424.613
-365.154
-310.111
-261.045
-218.844
-184.227
-156.763
-135.407
-119.648
-108.749
-101.316
-96.202
-92.162
-87.817
-82.731
-76.962
-70.405
-63.243
-55.933
-48.82
-42.524
-37.807
-34.844
-33.493
-33.541
-34.565
-36.153
-37.987
-39.6
-40.478
-40.364
-39.165
-36.906
-33.748
-29.81
-25.178
-19.987
-14.394
-8.536
-2.536
3.507
9.525
15.436
21.147
26.568
31.612
36.231
40.413
44.17
47.535
50.544
53.24
55.676
57.911
60.005
62.013
63.983
65.957
67.978
70.093
72.345
74.781
77.429
80.303
83.41
86.749
90.313
94.095
98.08
102.245
106.572
111.042
115.638
120.342
125.136
129.996
134.898
139.815
144.724
149.601
154.42
159.157
163.786
168.283
172.626
176.791
180.756
184.497
187.992
191.217
194.152
196.777
199.075
201.027
202.621
203.842
204.682
205.133
205.188
204.844
204.098
202.953
201.409
199.472
197.149
194.448
191.378
187.953
184.185
180.091
175.687
170.992
166.025
160.806
155.358
149.704
143.865
137.867
131.733
125.487
119.154
112.757
106.322
99.871
93.427
87.013
80.649
74.357
68.156
62.064
56.097
50.273
44.604
39.104
33.785
28.658
23.732
19.014
14.513
10.232
6.177
2.351
-1.244
-4.608
-7.741
-10.644
-13.32
-15.772
-18.005
-20.022
-21.831
-23.437
-24.848
-26.072
-27.116
-27.988
-28.698
-29.253
-29.664
-29.939
-30.087
-30.116
-30.036
-29.853
-29.577
-29.215
-28.774
-28.262
-27.685
-27.049
-26.361
-25.626
-24.851
-24.039
-23.197
-22.328
-21.436
-20.526
-19.601
-18.664
-17.717
-16.765
-15.808
-14.85
-13.892
-12.935
-11.982
-11.033
-10.089
-9.152
-8.222
-7.301
-6.388
-5.484
-4.591
-3.709
-2.839
-1.982
-1.138
-0.308
0.506
1.304
2.085
2.849
3.595
4.323
5.031
5.72
6.389
7.038
7.668
8.278
8.868
9.44
9.992
10.527
11.045
11.546
12.031
12.503
12.961
13.407
13.843
14.269
14.688
15.101
15.51
15.918
16.326
16.736
17.152
17.576
18.009
18.456
18.918
19.398
19.899
20.423
20.974
21.552
22.162
22.804
23.482
24.197
24.95
25.745
26.581
27.461
28.385
29.354
30.368
31.429
32.536
33.689
34.888
36.133
37.421
38.753
40.126
41.538
42.987
44.47
45.983
47.523
49.085
50.666
52.259
53.859
55.462
57.059
58.645
60.213
61.755
63.263
64.73
66.147
