50.389
47.064
43.62
40.07
36.426
32.699
28.901
25.043
21.138
17.195
13.227
9.242
5.252
1.267
-2.704
-6.652
-10.565
-14.437
-18.257
-22.017
-25.708
-29.323
-32.852
-36.289
-39.625
-42.853
-45.966
-48.957
-51.819
-54.544
-57.128
-59.563
-61.845
-63.966
-65.921
-67.706
-69.315
-70.744
-71.988
-73.043
-73.906
-74.573
-75.041
-75.308
-75.372
-75.232
-74.887
-74.336
-73.581
-72.623
-71.463
-70.106
-68.554
-66.813
-64.889
-62.787
-60.516
-58.084
-55.502
-52.778
-49.925
-46.956
-43.883
-40.72
-37.483
-34.186
-30.847
-27.482
-24.109
-20.746
-17.411
-14.123
-10.901
-7.764
-4.731
-1.821
0.948
3.556
5.987
8.222
10.245
12.04
13.591
14.886
15.911
16.655
17.107
17.258
17.101
16.631
15.843
14.734
13.303
11.551
9.48
7.094
4.399
1.401
-1.89
-5.465
-9.313
-13.419
-17.769
-22.35
-27.143
-32.131
-37.296
-42.619
-48.079
-53.657
-59.331
-65.081
-70.885
-76.722
-82.571
-88.412
-94.223
-99.985
-105.68
-111.288
-116.791
-122.175
-127.421
-132.517
-137.449
-142.203
-146.77
-151.14
-155.303
-159.253
-162.984
-166.491
-169.771
-172.821
-175.64
-178.229
-180.588
-182.72
-184.628
-186.317
-187.792
-189.057
-190.121
-190.99
-191.673
-192.177
-192.512
-192.686
-192.708
-192.589
-192.337
-191.962
-191.474
-190.881
-190.194
-189.42
-188.569
-187.649
-186.668
-185.635
-184.556
-183.439
-182.29
-181.117
-179.924
-178.719
-177.505
-176.288
-175.073
-173.863
-172.663
-171.476
-170.306
-169.155
-168.027
-166.922
-165.844
-164.794
-163.774
-162.786
-161.831
-160.91
-160.025
-159.176
-158.365
-157.593
-156.86
-156.168
-155.516
-154.905
-154.336
-153.809
-153.324
-152.882
-152.482
-152.123
-151.806
-151.529
-151.291
-151.09
-150.925
-150.794
-150.694
-150.622
-150.576
-150.553
-150.549
-150.56
-150.584
-150.616
-150.652
-150.686
-150.716
-150.735
-150.739
-150.722
-150.68
-150.605
-150.495
-150.341
-150.14
-149.886
-149.573
-149.196
-148.749
-148.229
-147.63
-146.948
-146.18
-145.323
-144.375
-143.334
-142.201
-140.976
-139.66
-138.257
-136.768
-135.196
-133.546
-131.822
-130.029
-128.172
-126.257
-124.29
-122.278
-120.23
-118.155
-116.063
-113.961
-111.861
-109.771
-107.703
-105.666
-103.671
-101.724
-99.836
-98.015
-96.27
-94.615
-93.058
-91.601
-90.247
-88.992
-87.832
-86.763
-85.774
-84.847
-83.968
-83.12
-82.29
-81.475
-80.664
-79.845
-79.009
-78.134
-77.209
-76.238
-75.222
-74.171
-73.103
-72.028
-70.978
-70.009
-69.167
-68.5
-68.061
-67.874
-67.974
-68.401
-69.177
-70.343
-71.936
-73.971
-76.469
-79.436
-82.846
-86.698
-91
-95.65
-100.488
-105.277
-109.665
-113.375
-116.214
-117.922
-118.18
-116.797
-113.803
-109.523
-104.601
-99.645
-94.99
-90.961
-88.095
-86.768
-86.917
-87.991
-88.762
-87.841
-84.411
-77.576
-65.855
-48.026
-23.364
7.469
41.861
77.258
112.389
147.86
184.606
220.728
250.574
264.161
251.612
208.811
137.908
48.254
-48.426
-145.436
-240.564
-335.482
-432.913
-528.874
-614.643
-681.488
-721.085
-732.754
-722.595
-696.027
-659.317
-616.012
-565.554
-509.224
-449.067
-387.157
-327.049
-271.706
-222.708
-181.07
-147.193
-120.588
-100.349
-85.86
-76.225
-69.978
-65.858
-62.535
-58.647
-53.752
-47.922
-41.135
-33.664
-26.04
-18.696
-12.301
-7.606
-4.784
-3.69
-4.089
-5.551
-7.667
-10.099
-12.386
-14.038
-14.809
-14.612
-13.474
-11.541
-8.918
-5.68
-1.942
2.162
6.515
11.011
15.565
20.115
24.589
28.9
32.965
36.7
40.059
43.03
45.627
47.883
49.835
51.521
52.993
54.309
55.527
56.7
57.877
59.098
60.409
61.856
63.485
65.343
67.463
69.86
72.544
75.516
78.774
82.311
86.114
90.165
94.447
98.942
103.636
108.516
113.561
118.752
124.066
129.477
134.962
140.498
146.059
151.621
157.159
162.647
168.06
173.376
178.568
183.61
188.477
193.142
197.579
201.766
205.677
209.29
212.586
215.544
218.148
220.383
222.236
223.695
224.752
225.398
225.629
225.443
224.837
223.812
222.372
220.521
218.267
215.619
212.587
209.185
205.426
201.327
196.906
192.182
187.175
181.906
176.398
170.675
164.761
158.681
152.459
146.123
139.696
133.206
126.678
120.136
113.606
107.111
100.674
94.319
88.065
81.934
75.944
70.115
64.461
59
53.745
48.709
43.902
39.336
35.018
30.954
27.15
23.61
20.336
17.329
14.588
12.11
9.893
7.932
6.222
4.754
3.522
2.517
1.728
1.146
0.759
0.555
0.523
0.65
0.923
1.33
1.858
2.494
3.225
4.04
4.925
5.869
6.86
7.888
8.943
10.013
11.091
12.167
13.235
14.285
15.313
16.312
17.278
18.206
19.093
19.936
20.733
21.481
22.181
22.832
23.434
23.988
24.495
24.956
25.374
25.751
26.088
26.389
26.657
26.895
27.105
27.29
27.455
27.602
27.733
27.852
27.96
28.062
28.157
28.249
28.339
28.428
28.517
28.606
28.697
28.788
28.88
28.973
29.065
29.155
29.242
29.326
29.404
29.476
29.54
29.594
29.638
29.67
29.689
29.695
29.686
29.661
29.62
29.562
29.486
29.394
29.284
29.158
29.016
28.859
28.69
28.51
28.322
28.127
27.929
27.731
27.536
27.35
27.175
27.017
26.88
26.769
26.689
26.645
26.64
26.68
26.766
26.904
27.093
27.337
27.636
27.991
28.404
28.873
29.401
29.985
30.625
31.32
32.07
32.871
33.719
34.608
35.535
36.493
37.477
38.48
39.497
40.519
41.541
42.556
43.557
44.536
45.485
46.39
47.243
48.042
48.783
49.469
50.102
50.685
51.229
51.748
52.253
52.756
53.265
53.783
54.318
54.88
55.479
56.129
56.837
57.598
58.408
59.257
60.125
60.992
61.822
62.563
63.167
63.591
63.788
63.715
63.326
62.568
61.402
59.799
57.731
55.174
52.106
48.507
44.375
39.742
34.634
29.06
23.121
16.988
10.918
5.311
0.512
-3.26
-5.687
-6.406
-5.364
-2.674
1.267
5.557
9.552
12.932
15.082
15.467
14.115
11.261
7.796
5.58
5.893
9.58
18.236
33.21
55.062
84.231
119.284
156.667
194.643
231.938
266.777
299.256
325.705
338.957
333.208
301.964
243.722
164.559
71.942
-26.078
-124.69
-225.517
-330.623
-438.45
-542.274
-629.709
-689.301
-715.967
-712.075
-686.47
-648.096
-602.642
-552.262
-495.825
-433.562
-367.901
-302.04
-240.411
-186.218
-140.67
-104.4
-77.035
-57.409
-44.502
-37.094
-33.358
-31.622
-30.373
-28.138
-24.288
-18.877
-12.067
-4.281
3.77
11.461
18.062
22.785
25.412
26.099
25.129
22.977
20.126
16.984
14.05
11.838
10.605
10.437
11.31
13.077
15.628
18.878
22.693
26.928
31.45
36.144
40.915
45.692
50.385
54.893
59.12
62.973
66.401
69.384
71.927
74.054
75.797
77.193
78.291
79.152
79.833
80.387
80.867
81.315
81.779
82.311
82.958
83.77
84.781
86.009
87.468
89.162
91.091
93.253
95.64
98.237
101.032
104.014
107.174
110.502
113.987
117.614
121.367
125.227
129.179
133.206
137.291
141.415
145.561
149.71
153.845
157.947
161.997
165.974
169.857
173.624
177.254
180.726
184.02
187.114
189.99
192.63
195.017
197.137
198.975
200.518
201.754
202.675
203.27
203.533
203.459
203.042
202.281
201.175
199.724
197.931
195.799
193.334
190.543
187.434
184.018
180.306
176.311
172.046
167.526
162.769
157.791
152.61
147.245
141.716
136.044
130.249
124.352
118.375
112.337
106.261
100.167
94.075
88.006
81.98
76.014
70.129
64.341
58.667
53.124
47.725
42.487
37.42
32.537
27.849
23.364
19.091
15.037
11.206
7.603
4.231
1.092
-1.815
-4.491
-6.937
-9.158
-11.157
-12.941
-14.516
-15.89
-17.07
-18.067
-18.89
-19.549
-20.054
-20.418
-20.652
-20.766
-20.774
-20.685
-20.513
-20.268
-19.962
-19.605
-19.208
-18.782
-18.335
-17.877
-17.416
-16.961
-16.518
-16.094
-15.694
-15.325
-14.991
-14.695
-14.44
-14.229
-14.064
-13.945
-13.873
-13.847
-13.866
-13.93
-14.037
-14.183
-14.367
-14.586
-14.836
-15.115
-15.419
-15.744
-16.086
-16.442
-16.809
-17.183
-17.561
-17.94
-18.317
-18.69
-19.056
-19.414
-19.763
-20.1
-20.425
-20.737
-21.036
-21.321
-21.594
-21.855
-22.104
-22.342
-22.572
-22.794
-23.009
-23.221
-23.429
-23.636
-23.843
-24.051
-24.263
-24.478
-24.699
-24.926
-25.16
-25.402
-25.652
-25.91
-26.176
-26.449
-26.728
-27.011
-27.296
-27.583
-27.867
-28.146
-28.418
-28.679
-28.925
-29.152
-29.357
-29.534
-29.681
-29.791
-29.861
-29.887
-29.865
-29.792
-29.665
-29.482
-29.242
-28.943
-28.587
-28.172
-27.698
-27.167
-26.58
-25.939
-25.246
-24.502
-23.711
-22.877
-22.006
-21.103
-20.174
-19.225
-18.262
-17.291
-16.321
-15.357
-14.408
-13.479
-12.575
-11.704
-10.874
-10.095
-9.374
-8.711
-8.108
-7.561
-7.067
-6.621
-6.214
-5.831
-5.458
-5.083
-4.693
-4.284
-3.849
-3.377
-2.857
-2.273
-1.619
-0.898
-0.117
0.716
1.586
2.477
3.358
4.176
4.884
5.435
5.775
5.868
5.67
5.138
4.248
2.963
1.244
-0.931
-3.586
-6.747
-10.398
-14.545
-19.224
-24.336
-29.713
-35.109
-40.119
-44.409
-47.778
-49.905
-50.421
-49.269
-46.559
-42.717
-38.685
-35.12
-32.34
-30.923
-31.379
-33.692
-37.608
-42.164
-45.415
-45.965
-42.918
-34.761
-20.129
1.573
30.774
66.145
104.138
142.904
181.292
217.797
252.653
282.396
299.811
298.666
272.125
218.415
143.304
53.845
-42.126
-140.12
-242.119
-349.975
-462.166
-571.924
-666.204
-732.921
-766.24
-767.807
-746.375
-711.121
-667.864
-618.847
-562.891
-500.213
-433.427
-365.974
-302.529
-246.425
-199.024
-161.098
-132.319
-111.522
-97.574
-89.163
-84.437
-81.683
-79.323
-75.8
-70.434
-63.307
-54.669
-45.017
-35.096
-25.549
-17.137
-10.7
-6.509
-4.446
-4.245
-5.418
-7.49
-10.067
-12.659
-14.755
-16.069
-16.449
-15.872
-14.446
-12.256
-9.383
-5.946
-2.073
2.114
6.508
11.025
15.591
20.127
24.558
28.805
32.797
36.476
39.785
42.702
45.23
47.387
49.206
50.73
51.999
53.068
53.997
54.84
55.649
56.471
57.344
58.312
59.415
60.692
62.179
63.9
65.866
68.085
70.558
73.281
76.25
79.453
82.871
86.491
90.299
94.279
98.42
102.704
107.111
111.622
116.215
120.869
125.563
130.274
134.98
139.658
144.285
148.838
153.296
157.636
161.834
165.866
169.709
173.34
176.737
179.879
182.746
185.32
187.583
189.52
191.119
192.366
193.252
193.769
193.91
193.67
193.047
192.04
190.649
188.877
186.73
184.215
181.339
178.112
174.548
170.658
166.46
161.968
157.2
152.176
146.916
141.439
135.768
129.924
123.931
117.811
111.587
105.283
98.922
92.527
86.12
79.723
73.358
67.046
60.806
54.657
48.617
42.704
36.934
31.32
25.878
20.618
15.552
10.69
6.039
1.607
-2.602
-6.583
-10.333
-13.852
-17.138
-20.194
-23.021
-25.623
-28.004
-30.169
-32.125
-33.878
-35.436
-36.807
-38
-39.024
-39.889
-40.605
-41.181
-41.627
-41.954
-42.171
-42.289
-42.317
-42.265
-42.141
-41.955
-41.715
-41.429
-41.104
-40.748
-40.367
-39.966
-39.551
-39.128
-38.699
-38.27
-37.843
-37.421
-37.007
-36.602
-36.208
-35.825
-35.456
-35.1
-34.758
-34.429
-34.113
-33.81
-33.519
-33.24
-32.971
-32.711
-32.461
-32.218
-31.982
-31.753
-31.529
-31.31
-31.095
-30.884
-30.676
-30.472
-30.27
-30.072
-29.876
-29.684
-29.496
-29.312
-29.133
-28.959
-28.792
-28.633
-28.481
-28.339
-28.207
-28.086
-27.978
-27.883
-27.804
-27.74
-27.695
-27.668
-27.662
-27.677
-27.715
-27.777
-27.863
-27.974
-28.11
-28.271
-28.458
-28.67
-28.907
-29.169
-29.454
-29.763
-30.093
-30.444
-30.814
-31.201
-31.603
-32.018
-32.443
-32.875
-33.313
-33.753
-34.192
-34.627
-35.056
-35.473
-35.876
-36.26
-36.619
-36.949
-37.244
-37.498
-37.709
-37.872
-37.981
-38.035
-38.029
-37.963
-37.837
-37.648
-37.394
-37.071
-36.678
-36.217
-35.693
-35.106
-34.46
-33.756
-32.999
-32.197
-31.36
-30.49
-29.587
-28.651
-27.682
-26.69
-25.685
-24.674
-23.665
-22.659
-21.653
-20.66
-19.692
-18.749
-17.83
-16.926
-16.019
-15.119
-14.233
-13.359
-12.492
-11.619
-10.725
-9.811
-8.876
-7.922
-6.95
-5.947
-4.897
-3.809
-2.694
-1.576
-0.484
0.576
1.595
2.545
3.383
4.069
4.562
4.843
4.893
4.674
4.15
3.28
2.026
0.39
-1.629
-4.036
-6.83
-10.022
-13.619
-17.574
-21.846
-26.452
-31.312
-36.276
-41.129
-45.478
-48.972
-51.408
-52.487
-51.861
-49.513
-45.603
-40.567
-35.364
-30.722
-27.017
-24.849
-24.747
-26.638
-30.183
-34.423
-37.449
-37.742
-34.269
-25.694
-10.762
11.213
40.417
76.151
115.734
155.727
194.109
228.709
258.112
282.845
299.182
300.691
281.944
236.093
163.485
72.444
-29.38
-134.019
-238.991
-347.786
-459.765
-569.146
-664.625
-732.917
-767.14
-769.053
-747.303
-711.381
-667.395
-617.325
-559.739
-494.867
-425.433
-355.011
-288.44
-229.221
-178.885
-138.402
-107.595
-85.348
-70.503
-61.715
-57.088
-54.817
-53.2
-50.536
-46.026
-39.674
-31.704
-22.601
-13.104
-3.888
4.24
10.379
14.211
15.849
15.578
13.904
11.321
8.252
5.219
2.772
1.234
0.739
1.291
2.759
5.035
8.032
11.626
15.671
20.034
24.6
29.274
33.984
38.655
43.195
47.517
51.54
55.192
58.434
61.262
63.689
65.746
67.472
68.91
70.113
71.147
72.071
72.942
73.81
74.72
75.717
76.85
78.165
79.706
81.501
83.568
85.913
88.539
91.445
94.624
98.066
101.751
105.664
109.79
114.115
118.625
123.303
128.129
133.081
138.137
143.274
148.47
153.703
158.948
164.182
169.38
174.519
179.576
184.527
189.345
194.006
198.483
202.751
206.787
210.567
214.068
217.269
220.151
222.696
224.888
226.713
228.158
229.213
229.867
230.115
229.95
229.371
228.374
226.961
225.134
222.898
220.259
217.226
213.809
210.02
205.872
201.382
196.565
191.441
186.029
180.35
174.425
168.278
161.932
155.412
148.742
141.948
135.056
128.09
121.075
114.038
107.001
99.99
93.028
86.137
79.339
72.656
66.107
59.711
53.486
47.449
41.615
35.996
30.607
25.457
20.557
15.914
11.534
7.422
3.581
0.014
-3.28
-6.301
-9.054
-11.541
-13.767
-15.741
-17.468
-18.959
-20.222
-21.268
-22.108
-22.755
-23.219
-23.516
-23.656
-23.655
-23.524
-23.279
-22.932
-22.496
-21.985
-21.412
-20.789
-20.128
-19.441
-18.738
-18.031
-17.328
-16.64
-15.973
-15.337
-14.737
-14.18
-13.672
-13.215
-12.815
-12.474
-12.194
-11.977
-11.822
-11.731
-11.703
-11.736
-11.828
-11.978
-12.182
-12.437
-12.741
-13.088
-13.476
-13.901
-14.357
-14.84
-15.347
-15.873
-16.413
-16.962
-17.518
-18.075
-18.63
-19.179
-19.718
-20.245
-20.755
-21.247
-21.718
-22.166
-22.588
-22.984
-23.352
-23.691
-24.001
-24.281
-24.531
-24.753
-24.946
-25.112
-25.252
-25.368
-25.46
-25.533
-25.586
-25.624
-25.647
-25.659
-25.663
-25.66
-25.653
-25.647
-25.641
-25.641
-25.647
-25.662
-25.688
-25.726
-25.779
-25.847
-25.932
-26.035
-26.155
-26.295
-26.454
-26.631
-26.828
-27.043
-27.275
-27.523
-27.786
-28.061
-28.346
-28.64
-28.939
-29.24
-29.541
-29.838
-30.128
-30.407
-30.671
-30.916
-31.139
-31.335
-31.501
-31.633
-31.729
-31.785
-31.8
-31.772
-31.701
-31.585
-31.427
-31.225
-30.981
-30.695
-30.369
-30.005
-29.605
-29.169
-28.701
-28.205
-27.684
-27.145
-26.591
-26.028
-25.461
-24.896
-24.337
-23.791
-23.264
-22.759
-22.28
-21.833
-21.424
-21.062
-20.751
-20.492
-20.281
-20.115
-19.988
-19.893
-19.82
-19.749
-19.665
-19.553
-19.399
-19.199
-18.943
-18.622
-18.221
-17.726
-17.13
-16.436
-15.655
-14.794
-13.868
-12.896
-11.913
-10.974
-10.131
-9.435
-8.941
-8.686
-8.719
-9.082
-9.81
-10.939
-12.507
-14.535
-17.04
-20.046
-23.54
-27.525
-32.026
-36.939
-42.086
-47.227
-51.981
-56.018
-59.128
-60.998
-61.252
-59.827
-56.842
-52.675
-48.189
-44.026
-40.49
-38.119
-37.437
-38.448
-40.917
-44.032
-46.067
-45.643
-41.847
-33.44
-19.213
1.553
29.141
63.003
100.662
138.853
175.659
209.006
237.507
261.658
277.737
279.287
260.809
215.433
143.436
53.027
-48.188
-152.276
-256.79
-365.174
-476.748
-585.705
-680.659
-748.28
-781.699
-782.702
-760.079
-723.472
-679.08
-628.936
-571.563
-507.104
-438.197
-368.334
-302.268
-243.411
-193.222
-152.623
-121.436
-98.583
-82.977
-73.345
-67.871
-64.831
-62.58
-59.455
-54.658
-48.173
-40.185
-31.138
-21.743
-12.643
-4.623
1.429
5.207
6.823
6.56
4.92
2.402
-0.564
-3.455
-5.713
-7.019
-7.237
-6.366
-4.536
-1.857
1.581
5.651
10.2
15.089
20.198
25.423
30.685
35.897
40.958
45.773
50.254
54.329
57.957
61.132
63.866
66.188
68.138
69.758
71.103
72.235
73.215
74.099
74.938
75.779
76.67
77.66
78.796
80.122
81.665
83.443
85.463
87.728
90.238
92.988
95.968
99.163
102.56
106.146
109.911
113.844
117.931
122.154
126.496
130.938
135.462
140.049
144.68
149.335
153.993
158.633
163.235
167.779
172.243
176.604
180.838
184.922
188.832
192.548
196.047
199.307
202.308
205.033
207.463
209.584
211.381
212.84
213.951
214.704
215.089
215.102
214.735
213.988
212.857
211.343
209.448
207.177
204.535
201.53
198.171
194.469
190.437
186.089
181.441
176.509
171.313
165.87
160.202
154.33
148.276
142.061
135.711
129.247
122.693
116.072
109.409
102.725
96.045
89.389
82.781
76.24
69.789
63.446
57.231
51.162
45.254
39.525
33.988
28.657
23.544
18.658
14.009
9.605
5.451
1.552
-2.089
-5.469
-8.59
-11.451
-14.056
-16.408
-18.512
-20.373
-21.999
-23.398
-24.579
-25.551
-26.324
-26.909
-27.317
-27.561
-27.652
-27.603
-27.426
-27.133
-26.738
-26.252
-25.688
-25.058
-24.374
-23.647
-22.887
-22.106
-21.312
-20.516
-19.726
-18.949
-18.194
-17.466
-16.771
-16.114
-15.501
-14.934
-14.416
-13.951
-13.539
-13.183
-12.881
-12.636
-12.445
-12.309
-12.226
-12.194
-12.21
-12.274
-12.381
-12.529
-12.715
-12.935
-13.187
-13.466
-13.768
-14.092
-14.432
-14.785
-15.149
-15.519
-15.893
-16.268
-16.64
-17.008
-17.369
-17.721
-18.061
-18.389
-18.703
-19.001
-19.282
-19.547
-19.794
-20.022
-20.232
-20.424
-20.598
-20.754
-20.894
-21.018
-21.128
-21.224
-21.309
-21.383
-21.448
-21.507
-21.561
-21.612
-21.662
-21.713
-21.766
-21.825
-21.89
-21.965
-22.049
-22.145
-22.254
-22.377
-22.514
-22.667
-22.836
-23.02
-23.22
-23.436
-23.667
-23.913
-24.172
-24.445
-24.729
-25.022
-25.324
-25.631
-25.941
-26.252
-26.56
-26.863
-27.158
-27.442
-27.71
-27.959
-28.186
-28.386
-28.555
-28.69
-28.787
-28.843
-28.855
-28.819
-28.735
-28.6
-28.415
-28.179
-27.893
-27.558
-27.174
-26.742
-26.266
-25.746
-25.185
-24.586
-23.952
-23.285
-22.592
-21.878
-21.148
-20.408
-19.663
-18.919
-18.183
-17.459
-16.755
-16.075
-15.423
-14.805
-14.227
-13.699
-13.226
-12.808
-12.443
-12.128
-11.856
-11.622
-11.416
-11.219
-11.018
-10.796
-10.542
-10.25
-9.913
-9.521
-9.063
-8.522
-7.892
-7.175
-6.379
-5.516
-4.602
-3.657
-2.714
-1.827
-1.045
-0.418
-0.003
0.167
0.046
-0.404
-1.211
-2.412
-4.047
-6.139
-8.713
-11.786
-15.338
-19.366
-23.889
-28.818
-33.997
-39.185
-43.998
-48.096
-51.247
-53.173
-53.54
-52.208
-49.25
-45.008
-40.286
-35.865
-32.22
-29.855
-29.285
-30.695
-33.914
-38.273
-42.222
-44.031
-42.418
-36.124
-23.794
-4.414
22.429
56.525
95.733
136.352
176.098
212.93
245.286
273.561
293.904
299.247
283.587
239.838
168.153
76.969
-26.031
-132.091
-238.027
-348.245
-462.211
-575.584
-678.407
-754.196
-794.102
-797.558
-770.632
-726.428
-673.949
-617.041
-556.882
-491.715
-422.395
-352.231
-285.121
-225.323
-175.159
-135.283
-105.44
-84.303
-70.453
-62.577
-58.771
-57.161
-56.039
-53.741
-49.522
-43.429
-35.701
-26.831
-17.57
-8.61
-0.766
5.075
8.622
10.011
9.545
7.742
5.105
2.063
-0.864
-3.133
-4.433
-4.642
-3.768
-1.949
0.698
4.083
8.077
12.532
17.311
22.298
27.393
32.517
37.592
42.525
47.227
51.617
55.628
59.223
62.402
65.179
67.586
69.663
71.453
73.009
74.394
75.666
76.881
78.089
79.333
80.658
82.111
83.736
85.572
87.646
89.97
92.551
95.388
98.479
101.817
105.389
109.177
113.166
117.341
121.689
126.195
130.843
135.615
140.489
145.445
150.462
155.52
160.597
165.672
170.723
175.727
180.664
185.513
190.25
194.853
199.297
203.56
207.619
211.452
215.037
218.353
221.383
224.107
226.511
228.579
230.3
231.662
232.654
233.27
233.502
233.347
232.8
231.862
230.532
228.814
226.71
224.228
221.375
218.159
214.593
210.687
206.456
201.915
197.08
191.969
186.599
180.991
175.165
169.141
162.942
156.589
150.105
143.512
136.833
130.091
123.307
116.503
109.7
102.921
96.184
89.509
82.916
76.423
70.046
63.802
57.705
51.771
46.011
40.438
35.062
29.891
24.935
20.199
15.69
11.41
7.364
3.552
-0.025
-3.367
-6.478
-9.359
-12.015
-14.451
-16.673
-18.687
-20.501
-22.122
-23.559
-24.821
-25.918
-26.859
-27.654
-28.313
-28.846
-29.264
-29.576
-29.793
-29.923
-29.978
-29.965
-29.895
-29.774
-29.612
-29.415
-29.192
-28.949
-28.691
-28.424
-28.154
-27.884
-27.618
-27.36
-27.112
-26.876
-26.654
-26.447
-26.257
-26.082
-25.923
-25.78
-25.652
-25.537
-25.435
-25.343
-25.259
-25.183
-25.111
-25.042
-24.973
-24.903
-24.828
-24.747
-24.659
-24.56
-24.448
-24.323
-24.183
-24.026
-23.85
-23.656
-23.441
-23.207
-22.952
-22.676
-22.38
-22.064
-21.728
-21.374
-21.003
-20.615
-20.212
-19.797
-19.37
-18.934
-18.49
-18.042
-17.592
-17.141
-16.693
-16.251
-15.816
-15.393
-14.983
-14.589
-14.214
-13.862
-13.533
-13.232
-12.961
-12.72
-12.513
-12.341
-12.205
-12.106
-12.044
-12.021
-12.035
-12.087
-12.175
-12.3
-12.46
-12.653
-12.878
-13.132
-13.412
-13.717
-14.042
-14.384
-14.74
-15.105
-15.476
-15.849
-16.218
-16.579
-16.927
-17.257
-17.563
-17.84
-18.084
-18.288
-18.447
-18.559
-18.618
-18.62
-18.564
-18.447
-18.269
-18.029
-17.726
-17.361
-16.935
-16.448
-15.903
-15.301
-14.644
-13.935
-13.179
-12.38
-11.546
-10.684
-9.798
-8.897
-7.988
-7.079
-6.177
-5.29
-4.422
-3.582
-2.78
-2.026
-1.332
-0.706
-0.153
0.327
0.732
1.068
1.343
1.565
1.754
1.92
2.075
2.226
2.376
2.536
2.716
2.93
3.191
3.512
3.89
4.324
4.812
5.329
5.848
6.339
6.748
7.033
7.158
7.087
6.784
6.212
5.328
4.087
2.457
0.414
-2.062
-4.988
-8.387
-12.255
-16.573
-21.291
-26.358
-31.764
-37.42
-43.153
-48.717
-53.737
-57.887
-60.965
-62.691
-62.717
-61.001
-57.669
-53.102
-48.183
-43.551
-39.506
-36.617
-35.393
-35.808
-37.654
-40.133
-41.497
-40.555
-36.564
-28.144
-14.114
6.179
33.259
65.817
100.67
135.601
169.001
200.236
229.889
256.088
273.414
273.574
248.256
193.264
111.549
13.29
-91.181
-195.434
-298.858
-405.875
-516.882
-625.001
-717.664
-781.28
-809.1
-803.822
-775.196
-733.237
-684.297
-630.389
-569.884
-502.864
-431.945
-360.644
-293.83
-235.012
-185.54
-146.136
-116.424
-95.144
-81.165
-73.162
-69.175
-67.407
-66.214
-63.978
-59.985
-54.27
-47.001
-38.623
-29.878
-21.411
-13.996
-8.478
-5.104
-3.718
-4.016
-5.49
-7.635
-10.028
-12.158
-13.492
-13.765
-12.896
-10.923
-8.016
-4.302
0.117
5.095
10.472
16.107
21.872
27.663
33.399
38.987
44.324
49.314
53.867
57.934
61.498
64.571
67.183
69.371
71.179
72.66
73.876
74.889
75.756
76.533
77.266
78.006
78.805
79.712
80.778
82.036
83.505
85.197
87.118
89.266
91.641
94.234
97.033
100.027
103.205
106.558
110.08
113.758
117.579
121.527
125.586
129.739
133.971
138.265
142.604
146.968
151.341
155.704
160.038
164.324
168.54
172.665
176.676
180.551
184.268
187.806
191.144
194.262
197.14
199.762
202.11
204.17
205.927
207.369
208.484
209.262
209.695
209.776
209.5
208.863
207.863
206.5
204.775
202.692
200.255
197.471
194.349
190.897
187.128
183.054
178.689
174.048
169.149
164.008
158.645
153.079
147.331
141.422
135.373
129.206
122.945
116.609
110.223
103.808
97.386
90.978
84.606
78.29
72.05
65.906
59.877
53.979
48.231
42.647
37.242
32.03
27.023
22.231
17.665
13.332
9.239
5.391
1.793
-1.553
-4.645
-7.484
-10.072
-12.411
-14.505
-16.359
-17.98
-19.375
-20.553
-21.521
-22.291
-22.872
-23.277
-23.516
-23.602
-23.548
-23.367
-23.071
-22.674
-22.189
-21.629
-21.007
-20.337
-19.63
-18.9
-18.157
-17.413
-16.678
-15.964
-15.279
-14.633
-14.034
-13.488
-13.003
-12.585
-12.238
-11.968
-11.777
-11.669
-11.645
-11.707
-11.856
-12.091
-12.412
-12.817
-13.305
-13.874
-14.519
-15.239
-16.028
-16.883
-17.799
-18.771
-19.794
-20.864
-21.974
-23.119
-24.294
-25.493
-26.711
-27.942
-29.181
-30.423
-31.663
-32.896
-34.119
-35.326
-36.515
-37.681
-38.822
-39.935
-41.017
-42.068
-43.085
-44.067
-45.013
-45.923
-46.797
-47.635
-48.438
-49.208
-49.945
-50.651
-51.327
-51.976
-52.599
-53.199
-53.777
-54.336
-54.876
-55.4
-55.91
-56.408
-56.894
-57.37
-57.838
-58.298
-58.752
-59.199
-59.639
-60.072
-60.498
-60.915
-61.323
-61.72
-62.103
-62.471
-62.82
-63.148
-63.452
-63.727
-63.97
-64.176
-64.341
-64.461
-64.531
-64.547
-64.507
-64.405
-64.24
-64.009
-63.711
-63.345
-62.91
-62.406
-61.832
-61.189
-60.478
-59.7
-58.856
-57.948
-56.979
-55.954
-54.878
-53.757
-52.597
-51.404
-50.184
-48.946
-47.697
-46.444
-45.193
-43.953
-42.733
-41.541
-40.391
-39.291
-38.246
-37.259
-36.329
-35.453
-34.627
-33.844
-33.088
-32.349
-31.617
-30.885
-30.148
-29.402
-28.637
-27.845
-27.013
-26.133
-25.206
-24.24
-23.243
-22.237
-21.247
-20.301
-19.451
-18.742
-18.211
-17.901
-17.85
-18.088
-18.655
-19.589
-20.911
-22.654
-24.845
-27.495
-30.625
-34.227
-38.262
-42.711
-47.557
-52.716
-58.046
-63.318
-68.199
-72.406
-75.733
-77.923
-78.658
-77.747
-75.236
-71.453
-67.05
-62.673
-58.701
-55.5
-53.646
-53.514
-55.02
-57.585
-59.952
-60.69
-58.919
-53.679
-43.451
-26.969
-3.487
26.348
59.99
94.857
129.577
164.63
200.873
236.518
265.889
278.901
265.602
221.413
148.931
58.268
-39.526
-137.894
-236.292
-338.598
-445.442
-550.894
-643.155
-709.339
-742.954
-745.835
-726.431
-693.903
-653.857
-608.056
-555.241
-495.621
-431.728
-366.85
-305.287
-250.122
-202.774
-164.206
-134.357
-112.302
-97.055
-87.508
-82.082
-79.245
-77.456
-75.045
-71.135
-65.617
-58.588
-50.387
-41.603
-32.78
-24.65
-18.133
-13.592
-10.973
-10.068
-10.443
-11.658
-13.35
-15.023
-16.115
-16.327
-15.54
-13.758
-11.129
-7.763
-3.738
0.81
5.725
10.871
16.131
21.418
26.675
31.823
36.769
41.422
45.692
49.533
52.93
55.885
58.423
60.576
62.383
63.899
65.186
66.303
67.308
68.253
69.184
70.151
71.205
72.4
73.787
75.401
77.266
79.399
81.806
84.492
87.456
90.691
94.184
97.924
101.9
106.101
110.518
115.137
119.94
124.909
130.024
135.263
140.606
146.032
151.518
157.04
162.574
168.098
173.587
179.016
184.359
189.589
194.678
199.598
204.324
208.83
213.089
217.078
220.775
224.158
227.208
229.908
232.241
234.193
235.752
236.907
237.651
237.976
237.878
237.355
236.407
235.037
233.247
231.046
228.44
225.44
222.059
218.31
214.209
209.774
205.023
199.976
194.656
189.084
183.284
177.281
171.099
164.763
158.3
151.735
145.093
138.401
131.683
124.964
118.267
111.617
105.035
98.544
92.163
85.912
79.809
73.872
68.116
62.556
57.204
52.071
47.168
42.502
38.08
33.908
29.989
26.325
22.916
19.763
16.863
14.212
11.806
9.638
7.703
5.993
4.498
3.209
2.116
1.209
0.477
-0.093
-0.511
-0.79
-0.94
-0.976
-0.907
-0.746
-0.504
-0.193
0.177
0.596
1.053
1.54
2.047
2.566
3.091
3.613
4.127
4.627
5.109
5.567
5.999
6.401
6.77
7.105
7.403
7.665
7.889
8.075
8.223
8.334
8.408
8.446
8.45
8.421
8.359
8.266
8.144
7.994
7.818
7.616
7.391
7.143
6.874
6.584
6.274
5.946
5.599
5.235
4.853
4.454
4.038
3.606
3.158
2.695
2.216
1.723
1.217
0.697
0.165
-0.378
-0.931
-1.493
-2.063
-2.639
-3.219
-3.803
-4.387
-4.969
-5.547
-6.118
-6.68
-7.229
-7.763
-8.278
-8.771
-9.239
-9.677
-10.083
-10.452
-10.782
-11.068
-11.307
-11.497
-11.636
-11.72
-11.75
-11.724
-11.642
-11.506
-11.317
-11.076
-10.784
-10.445
-10.062
-9.637
-9.174
-8.677
-8.149
-7.597
-7.024
-6.439
-5.847
-5.253
-4.666
-4.09
-3.534
-3.005
-2.509
-2.052
-1.636
-1.267
-0.952
-0.7
-0.515
-0.396
-0.34
-0.345
-0.406
-0.516
-0.665
-0.835
-1.006
-1.161
-1.289
-1.384
-1.44
-1.449
-1.395
-1.261
-1.042
-0.74
-0.363
0.079
0.58
1.126
1.681
2.192
2.6
2.843
2.883
2.689
2.229
1.482
0.405
-1.051
-2.92
-5.23
-7.998
-11.216
-14.909
-19.129
-23.814
-28.793
-33.804
-38.462
-42.46
-45.619
-47.688
-48.341
-47.41
-44.976
-41.427
-37.51
-33.918
-30.98
-29.02
-28.545
-29.797
-32.575
-36.186
-39.216
-40.089
-37.887
-31.685
-19.953
-1.703
23.387
55.21
91.517
129.593
168.53
206.01
240.101
269.344
288.091
291.956
277.016
238.833
179.221
101.928
12.363
-82.634
-180.81
-282.238
-387.187
-493.25
-592.472
-673.478
-726.034
-745.958
-736.486
-706.184
-663.891
-615.581
-563.461
-506.799
-446.038
-383.037
-320.543
-262.691
-212.19
-169.835
-135.991
-109.915
-90.252
-76.352
-67.302
-61.448
-57.441
-53.966
-49.697
-44.268
-37.866
-30.524
-22.558
-14.574
-7.035
-0.608
3.98
6.609
7.468
6.831
5.16
2.9
0.413
-1.827
-3.335
-3.875
-3.365
-1.841
0.548
3.69
7.499
11.847
16.594
21.611
26.782
32.007
37.214
42.314
47.213
51.817
56.041
59.833
63.18
66.092
68.599
70.736
72.545
74.077
75.389
76.54
77.587
78.58
79.563
80.583
81.688
82.927
84.347
85.979
87.841
89.944
92.29
94.877
97.702
100.754
104.017
107.478
111.122
114.939
118.917
123.041
127.294
131.656
136.109
140.631
145.203
149.806
154.419
159.019
163.587
168.101
172.54
176.884
181.109
185.191
189.108
192.837
196.356
199.645
202.681
205.447
207.924
210.097
211.952
213.476
214.656
215.485
215.954
216.056
215.788
215.148
214.133
212.747
210.99
208.868
206.389
203.559
200.389
196.89
193.076
188.96
184.56
179.892
174.974
169.826
164.466
158.918
153.201
147.337
141.35
135.261
129.093
122.869
116.61
110.338
104.075
97.841
91.656
85.54
79.511
73.586
67.782
62.114
56.596
51.242
46.064
41.071
36.274
31.679
27.295
23.126
19.176
15.447
11.942
8.659
5.599
2.759
0.135
-2.277
-4.482
-6.486
-8.297
-9.922
-11.369
-12.648
-13.768
-14.739
-15.571
-16.273
-16.857
-17.332
-17.71
-17.999
-18.211
-18.354
-18.439
-18.475
-18.469
-18.431
-18.367
-18.286
-18.194
-18.097
-18.001
-17.91
-17.828
-17.761
-17.71
-17.679
-17.669
-17.683
-17.721
-17.784
-17.873
-17.988
-18.127
-18.29
-18.477
-18.685
-18.914
-19.162
-19.428
-19.709
-20.004
-20.312
-20.63
-20.957
-21.291
-21.632
-21.977
-22.325
-22.675
-23.027
-23.38
-23.732
-24.085
-24.437
-24.788
-25.139
-25.491
-25.842
-26.194
-26.547
-26.903
-27.261
-27.623
-27.989
-28.361
-28.739
-29.123
-29.515
-29.914
-30.321
-30.736
-31.157
-31.586
-32.021
-32.461
-32.905
-33.353
-33.803
-34.253
-34.701
-35.146
-35.586
-36.017
-36.438
-36.845
-37.235
-37.606
-37.955
-38.278
-38.572
-38.834
-39.06
-39.248
-39.393
-39.493
-39.544
-39.544
-39.489
-39.379
-39.212
-38.986
-38.701
-38.359
-37.959
-37.505
-36.996
-36.437
-35.829
-35.176
-34.481
-33.748
-32.98
-32.182
-31.358
-30.514
-29.657
-28.791
-27.923
-27.057
-26.201
-25.359
-24.54
-23.748
-22.987
-22.26
-21.572
-20.929
-20.337
-19.8
-19.317
-18.885
-18.502
-18.164
-17.865
-17.596
-17.338
-17.076
-16.793
-16.477
-16.122
-15.72
-15.261
-14.733
-14.121
-13.421
-12.639
-11.782
-10.854
-9.868
-8.837
-7.798
-6.804
-5.912
-5.182
-4.664
-4.398
-4.427
-4.783
-5.506
-6.644
-8.232
-10.295
-12.863
-15.941
-19.55
-23.747
-28.464
-33.527
-38.691
-43.567
-47.806
-51.206
-53.461
-54.193
-53.346
-51.04
-47.667
-44.122
-41.08
-38.858
-37.988
-38.964
-41.732
-46.007
-50.905
-54.612
-55.667
-53.073
-45.542
-31.842
-11.265
16.426
50.618
88.762
127.519
164.911
198.842
227.9
252.593
269.244
271.393
253.572
208.915
137.637
47.956
-52.574
-156.069
-260.034
-367.927
-478.991
-587.368
-681.757
-748.875
-782.011
-783.071
-760.772
-724.741
-681.114
-631.864
-575.589
-512.457
-445.088
-376.954
-312.746
-255.8
-207.513
-168.763
-139.328
-118.104
-104.006
-95.763
-91.548
-89.642
-88.399
-86.139
-82.069
-76.169
-68.609
-59.826
-50.515
-41.304
-32.985
-26.464
-22.068
-19.714
-19.147
-19.897
-21.503
-23.579
-25.632
-27.13
-27.769
-27.425
-26.108
-23.955
-21.083
-17.58
-13.572
-9.207
-4.616
0.088
4.814
9.495
14.062
18.432
22.527
26.273
29.607
32.5
34.951
36.981
38.621
39.914
40.905
41.649
42.21
42.65
43.026
43.388
43.782
44.255
44.856
45.633
46.628
47.872
49.385
51.177
53.254
55.617
58.266
61.193
64.383
67.825
71.508
75.42
79.551
83.886
88.409
93.099
97.936
102.901
107.972
113.128
118.344
123.599
128.868
134.127
139.352
144.519
149.602
154.572
159.404
164.071
168.547
172.808
176.828
180.584
184.054
187.219
190.06
192.56
194.704
196.478
197.87
198.872
199.474
199.671
199.459
198.836
197.803
196.362
194.516
192.272
189.639
186.626
183.244
179.508
175.433
171.034
166.331
161.342
156.087
150.589
144.869
138.951
132.858
126.615
120.245
113.774
107.226
100.626
93.996
87.362
80.745
74.169
67.655
61.224
54.896
48.69
42.623
36.713
30.975
25.423
20.07
14.927
10.004
5.31
0.853
-3.364
-7.334
-11.055
-14.526
-17.746
-20.718
-23.442
-25.923
-28.166
-30.176
-31.961
-33.527
-34.883
-36.039
-37.004
-37.789
-38.404
-38.86
-39.17
-39.343
-39.393
-39.33
-39.166
-38.913
-38.581
-38.182
-37.726
-37.223
-36.684
-36.117
-35.531
-34.934
-34.334
-33.738
-33.153
-32.584
-32.036
-31.515
-31.024
-30.567
-30.147
-29.766
-29.427
-29.13
-28.876
-28.667
-28.502
-28.381
-28.304
-28.268
-28.274
-28.32
-28.404
-28.524
-28.678
-28.866
-29.084
-29.33
-29.604
-29.902
-30.223
-30.566
-30.927
-31.306
-31.701
-32.11
-32.533
-32.967
-33.411
-33.864
-34.324
-34.791
-35.264
-35.74
-36.218
-36.697
-37.176
-37.652
-38.123
-38.59
-39.048
-39.498
-39.936
-40.362
-40.772
-41.166
-41.541
-41.894
-42.224
-42.527
-42.8
-43.042
-43.25
-43.42
-43.549
-43.636
-43.677
-43.668
-43.608
-43.492
-43.32
-43.087
-42.793
-42.435
-42.012
-41.524
-40.97
-40.352
-39.67
-38.928
-38.129
-37.273
-36.366
-35.412
-34.414
-33.378
-32.308
-31.208
-30.085
-28.945
-27.794
-26.64
-25.491
-24.353
-23.235
-22.143
-21.086
-20.072
-19.11
-18.203
-17.357
-16.577
-15.871
-15.248
-14.713
-14.267
-13.908
-13.631
-13.433
-13.307
-13.244
-13.222
-13.224
-13.23
-13.226
-13.207
-13.164
-13.086
-12.957
-12.759
-12.483
-12.131
-11.709
-11.227
-10.692
-10.117
-9.541
-9.018
-8.609
-8.381
-8.376
-8.628
-9.176
-10.048
-11.289
-12.955
-15.078
-17.691
-20.808
-24.421
-28.552
-33.243
-38.427
-43.929
-49.487
-54.717
-59.299
-63.031
-65.648
-66.811
-66.325
-64.245
-60.914
-57.024
-53.264
-49.984
-47.498
-46.323
-46.742
-48.586
-51.247
-53.426
-53.552
-50.678
-43.985
-32.026
-13.68
11.437
43.284
79.963
118.125
156.226
192.911
226.444
256.957
280.787
291.112
282.365
247.736
185.66
102.483
6.003
-95.25
-196.282
-299.226
-406.664
-516.704
-621.978
-709.108
-765.549
-786.438
-775.039
-741.054
-694.547
-642.007
-585.651
-524.36
-458.415
-389.821
-321.673
-258.709
-204.078
-158.788
-123.312
-96.83
-77.825
-65.486
-58.685
-55.467
-54.188
-53.285
-51.223
-47.544
-42.424
-35.904
-28.36
-20.514
-12.943
-6.42
-1.738
0.974
1.929
1.403
-0.115
-2.15
-4.309
-6.081
-6.993
-6.847
-5.598
-3.319
-0.184
3.685
8.181
13.15
18.437
23.899
29.415
34.894
40.257
45.412
50.258
54.698
58.669
62.149
65.141
67.672
69.778
71.5
72.891
74.016
74.936
75.714
76.407
77.065
77.741
78.493
79.375
80.441
81.734
83.278
85.091
87.182
89.554
92.206
95.134
98.325
101.766
105.449
109.364
113.502
117.851
122.395
127.114
131.991
137.006
142.138
147.368
152.672
158.029
163.416
168.81
174.188
179.525
184.793
189.967
195.017
199.916
204.636
209.152
213.436
217.462
221.208
224.651
227.77
230.546
232.962
235.001
236.651
237.898
238.733
239.149
239.139
238.7
237.831
236.532
234.806
232.659
230.098
227.132
223.773
220.034
215.931
211.479
206.699
201.609
196.232
190.589
184.706
178.607
172.317
165.863
159.271
152.567
145.779
138.934
132.056
125.172
118.308
111.486
104.732
98.068
91.515
85.093
78.822
72.72
66.802
61.084
55.578
50.298
45.252
40.449
35.897
31.6
27.561
23.784
20.268
17.012
14.014
11.27
8.773
6.518
4.497
2.7
1.119
-0.259
-1.443
-2.446
-3.28
-3.959
-4.494
-4.899
-5.187
-5.371
-5.463
-5.477
-5.424
-5.315
-5.163
-4.977
-4.767
-4.543
-4.314
-4.087
-3.869
-3.666
-3.485
-3.329
-3.203
-3.109
-3.05
-3.028
-3.043
-3.096
-3.185
-3.31
-3.469
-3.66
-3.88
-4.125
-4.394
-4.681
-4.984
-5.298
-5.62
-5.946
-6.272
-6.595
-6.909
-7.213
-7.503
-7.777
-8.031
-8.263
-8.471
-8.655
-8.812
-8.943
-9.046
-9.121
-9.169
-9.191
-9.187
-9.16
-9.11
-9.04
-8.952
-8.85
-8.735
-8.611
-8.48
-8.346
-8.212
-8.081
-7.955
-7.837
-7.729
-7.634
-7.554
-7.491
-7.447
-7.423
-7.42
-7.439
-7.481
-7.544
-7.63
-7.736
-7.863
-8.007
-8.167
-8.341
-8.527
-8.72
-8.919
-9.118
-9.314
-9.503
-9.679
-9.838
-9.976
-10.087
-10.167
-10.212
-10.219
-10.183
-10.104
-9.978
-9.805
-9.583
-9.311
-8.988
-8.615
-8.191
-7.719
-7.197
-6.627
-6.013
-5.358
-4.667
-3.946
-3.198
-2.429
-1.645
-0.852
-0.058
0.732
1.513
2.279
3.023
3.736
4.408
5.031
5.605
6.127
6.601
7.029
7.414
7.765
8.097
8.424
8.756
9.103
9.466
9.853
10.271
10.729
11.242
11.814
12.441
13.115
13.829
14.564
15.305
16.02
16.659
17.176
17.526
17.658
17.541
17.135
16.4
15.311
13.833
11.927
9.575
6.751
3.434
-0.363
-4.654
-9.465
-14.73
-20.31
-25.979
-31.396
-36.254
-40.329
-43.35
-44.983
-45.02
-43.509
-40.804
-37.569
-34.488
-31.978
-30.369
-30.174
-31.731
-34.882
-38.984
-42.742
-44.572
-43.362
-38.2
-27.852
-11.196
12.435
42.999
79.35
118.987
158.873
196.97
230.985
259.275
281.83
294.945
292.966
270.949
222.272
147.371
54.517
-48.893
-154.174
-258.138
-365.503
-475.878
-584.664
-682.019
-751.963
-786.162
-784.899
-754.867
-708.948
-656.001
-599.745
-541.05
-478.104
-411.629
-344.653
-280.884
-224.437
-177.367
-140.088
-112.209
-92.306
-79.006
-71.059
-66.601
-63.858
-61.311
-57.534
-51.98
-44.807
-36.284
-26.916
-17.474
-8.621
-1.094
4.35
7.529
8.627
7.961
6.037
3.352
0.327
-2.542
-4.759
-6.046
-6.296
-5.518
-3.837
-1.356
1.836
5.617
9.848
14.4
19.159
24.027
28.926
33.775
38.481
42.96
47.13
50.924
54.308
57.279
59.854
62.063
63.947
65.55
66.925
68.137
69.245
70.305
71.367
72.475
73.676
75.016
76.54
78.288
80.286
82.549
85.082
87.888
90.962
94.297
97.882
101.697
105.727
109.956
114.369
118.952
123.688
128.555
133.533
138.598
143.729
148.904
154.099
159.292
164.457
169.571
174.612
179.556
184.38
189.058
193.565
197.878
201.971
205.823
209.412
212.715
215.713
218.389
220.727
222.713
224.334
225.579
226.441
226.91
226.983
226.657
225.929
224.801
223.274
221.353
219.045
216.356
213.298
209.881
206.118
202.025
197.617
192.911
187.926
182.682
177.198
171.497
165.599
159.528
153.307
146.959
140.507
133.974
127.384
120.759
114.122
107.494
100.896
94.349
87.873
81.485
75.204
69.047
63.028
57.163
51.465
45.946
40.618
35.488
30.567
25.86
21.375
17.114
13.083
9.281
5.711
2.373
-0.736
-3.618
-6.276
-8.714
-10.938
-12.955
-14.769
-16.39
-17.825
-19.083
-20.171
-21.101
-21.88
-22.519
-23.027
-23.415
-23.691
-23.865
-23.947
-23.947
-23.873
-23.734
-23.539
-23.296
-23.012
-22.695
-22.353
-21.991
-21.616
-21.234
-20.85
-20.468
-20.094
-19.732
-19.385
-19.057
-18.751
-18.468
-18.212
-17.984
-17.787
-17.62
-17.486
-17.385
-17.319
-17.286
-17.289
-17.326
-17.398
-17.505
-17.646
-17.822
-18.031
-18.273
-18.548
-18.855
-19.195
-19.566
-19.968
-20.401
-20.864
-21.357
-21.878
-22.429
-23.007
-23.612
-24.245
-24.903
-25.587
-26.295
-27.027
-27.781
-28.557
-29.352
-30.166
-30.996
-31.841
-32.698
-33.565
-34.439
-35.32
-36.203
-37.087
-37.968
-38.844
-39.713
-40.57
-41.413
-42.238
-43.041
-43.82
-44.57
-45.288
-45.971
-46.614
-47.213
-47.766
-48.268
-48.715
-49.104
-49.43
-49.691
-49.884
-50.005
-50.053
-50.027
-49.924
-49.746
-49.493
-49.166
-48.768
-48.3
-47.765
-47.165
-46.503
-45.784
-45.01
-44.185
-43.314
-42.403
-41.458
-40.486
-39.495
-38.491
-37.482
-36.475
-35.478
-34.497
-33.54
-32.612
-31.72
-30.872
-30.076
-29.342
-28.678
-28.084
-27.561
-27.103
-26.704
-26.356
-26.047
-25.758
-25.478
-25.194
-24.898
-24.584
-24.244
-23.87
-23.454
-22.979
-22.434
-21.82
-21.14
-20.405
-19.64
-18.865
-18.113
-17.434
-16.869
-16.457
-16.24
-16.245
-16.501
-17.046
-17.902
-19.096
-20.657
-22.607
-24.97
-27.761
-30.972
-34.577
-38.556
-42.897
-47.527
-52.297
-56.967
-61.195
-64.663
-67.149
-68.404
-68.104
-66.121
-62.56
-57.778
-52.6
-47.841
-43.984
-41.564
-41.136
-42.866
-46.577
-51.598
-56.315
-58.977
-58.289
-52.92
-41.503
-23.064
2.812
35.875
73.952
113.441
152.043
187.572
218.403
244.744
262.725
265.638
247.714
202.188
129.505
37.963
-64.867
-170.417
-275.898
-385.896
-499.917
-613.494
-716.221
-791.118
-829.097
-829.71
-799.534
-752.377
-697.745
-639.592
-578.874
-513.471
-443.982
-373.682
-306.546
-246.873
-196.911
-157.186
-127.332
-105.977
-91.733
-83.298
-78.768
-76.299
-74.243
-71.022
-65.965
-59.149
-50.811
-41.438
-31.788
-22.546
-14.5
-8.495
-4.783
-3.207
-3.458
-5.021
-7.391
-10.14
-12.758
-14.716
-15.719
-15.654
-14.535
-12.502
-9.672
-6.136
-2.027
2.51
7.339
12.342
17.416
22.484
27.465
32.265
36.798
40.984
44.757
48.087
50.973
53.435
55.508
57.235
58.663
59.847
60.853
61.742
62.573
63.399
64.264
65.216
66.304
67.573
69.065
70.808
72.814
75.092
77.643
80.465
83.551
86.89
90.465
94.261
98.262
102.457
106.83
111.366
116.045
120.845
125.746
130.726
135.763
140.836
145.92
150.993
156.032
161.012
165.911
170.706
175.37
179.879
184.207
188.33
192.224
195.866
199.234
202.307
205.067
207.495
209.578
211.3
212.649
213.615
214.19
214.367
214.141
213.508
212.469
211.024
209.176
206.93
204.293
201.273
197.881
194.129
190.031
185.603
180.86
175.822
170.508
164.938
159.133
153.117
146.913
140.543
134.033
127.407
120.689
113.904
107.077
100.231
93.39
86.578
79.815
73.125
66.527
60.041
53.687
47.482
41.442
35.582
29.917
24.459
19.22
14.208
9.432
4.9
0.616
-3.415
-7.192
-10.712
-13.977
-16.988
-19.747
-22.259
-24.529
-26.564
-28.37
-29.956
-31.331
-32.505
-33.488
-34.29
-34.924
-35.4
-35.731
-35.928
-36.003
-35.968
-35.835
-35.615
-35.319
-34.959
-34.544
-34.085
-33.591
-33.071
-32.533
-31.984
-31.433
-30.885
-30.345
-29.82
-29.312
-28.826
-28.365
-27.932
-27.527
-27.153
-26.809
-26.497
-26.215
-25.964
-25.741
-25.546
-25.377
-25.231
-25.107
-25.003
-24.915
-24.843
-24.783
-24.733
-24.69
-24.653
-24.619
-24.587
-24.554
-24.519
-24.481
-24.439
-24.392
-24.339
-24.28
-24.215
-24.144
-24.068
-23.986
-23.901
-23.812
-23.721
-23.63
-23.54
-23.451
-23.367
-23.288
-23.216
-23.152
-23.098
-23.054
-23.022
-23.002
-22.995
-23.001
-23.022
-23.056
-23.105
-23.167
-23.243
-23.332
-23.432
-23.543
-23.663
-23.791
-23.923
-24.059
-24.196
-24.33
-24.46
-24.582
-24.694
-24.791
-24.869
-24.927
-24.959
-24.962
-24.934
-24.87
-24.768
-24.627
-24.444
-24.217
-23.948
-23.635
-23.28
-22.884
-22.446
-21.969
-21.455
-20.906
-20.324
-19.71
-19.068
-18.402
-17.717
-17.017
-16.309
-15.597
-14.886
-14.182
-13.492
-12.821
-12.175
-11.558
-10.976
-10.432
-9.934
-9.49
-9.105
-8.778
-8.508
-8.29
-8.117
-7.982
-7.877
-7.781
-7.683
-7.566
-7.418
-7.237
-7.015
-6.743
-6.412
-6.006
-5.515
-4.946
-4.305
-3.603
-2.861
-2.093
-1.327
-0.618
-0.009
0.453
0.716
0.755
0.537
0.023
-0.808
-1.997
-3.587
-5.597
-8.053
-10.97
-14.327
-18.138
-22.432
-27.127
-32.08
-37.061
-41.717
-45.764
-49.007
-51.193
-51.997
-51.23
-48.946
-45.491
-41.553
-37.832
-34.711
-32.525
-31.821
-32.942
-35.754
-39.667
-43.391
-45.317
-44.453
-39.949
-30.317
-14.317
8.578
38.467
73.545
110.449
147.656
183.872
217.564
249.113
274.585
286.661
279.304
244.999
182.767
99.942
3.708
-97.55
-200.644
-310.026
-426.046
-544.738
-655.697
-741.53
-791.859
-804.53
-785.084
-746.722
-698.47
-644.816
-587.247
-523.637
-454.967
-384.566
-315.998
-253.814
-200.675
-157.198
-123.566
-98.812
-81.35
-70.015
-63.303
-59.431
-56.945
-54.419
-50.629
-45.227
-38.422
-30.485
-21.976
-13.56
-5.777
0.683
5.187
7.628
8.222
7.32
5.432
3.032
0.518
-1.637
-2.979
-3.291
-2.512
-0.698
1.995
5.444
9.544
14.158
19.132
24.332
29.633
34.936
40.167
45.235
50.049
54.522
58.573
62.161
65.283
67.952
70.201
72.069
73.602
74.856
75.894
76.78
77.572
78.324
79.084
79.902
80.827
81.908
83.19
84.704
86.466
88.487
90.769
93.312
96.112
99.159
102.438
105.937
109.642
113.543
117.629
121.885
126.294
130.837
135.494
140.246
145.074
149.958
154.876
159.806
164.728
169.618
174.457
179.22
183.883
188.422
192.812
197.029
201.049
204.849
208.407
211.702
214.713
217.423
219.816
221.876
223.589
224.944
225.93
226.538
226.763
226.597
226.04
225.088
223.743
222.007
219.885
217.383
214.508
211.271
207.682
203.756
199.506
194.948
190.1
184.98
179.607
174.002
168.187
162.183
156.013
149.7
143.267
136.737
130.135
123.483
116.803
110.119
103.453
96.825
90.258
83.769
77.38
71.108
64.97
58.983
53.161
47.518
42.067
36.819
31.783
26.968
22.38
18.026
13.91
10.035
6.401
3.01
-0.14
-3.05
-5.725
-8.169
-10.386
-12.384
-14.171
-15.753
-17.139
-18.34
-19.364
-20.222
-20.924
-21.482
-21.906
-22.208
-22.398
-22.488
-22.488
-22.409
-22.262
-22.056
-21.801
-21.506
-21.18
-20.83
-20.465
-20.092
-19.717
-19.345
-18.981
-18.632
-18.299
-17.987
-17.699
-17.436
-17.201
-16.994
-16.817
-16.669
-16.55
-16.46
-16.399
-16.364
-16.355
-16.371
-16.408
-16.466
-16.542
-16.635
-16.743
-16.863
-16.994
-17.134
-17.282
-17.435
-17.593
-17.754
-17.917
-18.081
-18.245
-18.41
-18.574
-18.738
-18.903
-19.067
-19.233
-19.401
-19.571
-19.746
-19.925
-20.11
-20.303
-20.505
-20.718
-20.943
-21.182
-21.436
-21.706
-21.994
-22.3
-22.625
-22.969
-23.332
-23.716
-24.118
-24.539
-24.978
-25.434
-25.907
-26.394
-26.894
-27.406
-27.926
-28.452
-28.982
-29.512
-30.04
-30.561
-31.073
-31.571
-32.051
-32.51
-32.943
-33.346
-33.713
-34.042
-34.327
-34.565
-34.752
-34.884
-34.959
-34.975
-34.929
-34.823
-34.654
-34.425
-34.136
-33.788
-33.382
-32.922
-32.409
-31.847
-31.237
-30.583
-29.89
-29.163
-28.41
-27.635
-26.845
-26.047
-25.249
-24.456
-23.677
-22.919
-22.188
-21.49
-20.832
-20.22
-19.667
-19.179
-18.756
-18.4
-18.105
-17.868
-17.684
-17.542
-17.426
-17.32
-17.212
-17.087
-16.945
-16.777
-16.573
-16.324
-16.011
-15.628
-15.179
-14.671
-14.117
-13.535
-12.94
-12.363
-11.862
-11.483
-11.273
-11.286
-11.545
-12.087
-12.954
-14.171
-15.781
-17.823
-20.311
-23.266
-26.699
-30.583
-34.925
-39.735
-44.919
-50.324
-55.72
-60.764
-65.178
-68.763
-71.254
-72.326
-71.777
-69.638
-66.238
-62.224
-58.229
-54.61
-51.705
-50.062
-50.08
-51.703
-54.376
-56.863
-57.733
-56.116
-51.108
-41.23
-25.185
-2.179
27.262
60.744
95.684
130.711
166.231
202.887
238.957
268.882
282.783
271.054
228.751
157.9
68.225
-29.834
-129.105
-228.375
-332.64
-442.938
-554.765
-657.314
-733.986
-775.589
-781.315
-757.312
-716.707
-668.352
-616.028
-560.829
-500.708
-436.242
-370.458
-306.871
-249.503
-200.659
-161.032
-130.484
-107.879
-91.958
-81.644
-75.374
-71.545
-68.616
-64.968
-59.815
-53.131
-45.086
-36.058
-26.649
-17.436
-9.167
-2.753
1.448
3.533
3.758
2.596
0.508
-2.123
-4.792
-6.927
-8.181
-8.405
-7.583
-5.842
-3.292
-0.001
3.912
8.305
13.047
18.015
23.107
28.255
33.38
38.387
43.185
47.684
51.804
55.51
58.793
61.666
64.157
66.302
68.141
69.727
71.12
72.379
73.561
74.713
75.88
77.107
78.445
79.941
81.64
83.57
85.747
88.18
90.872
93.823
97.028
100.475
104.15
108.036
112.121
116.394
120.842
125.45
130.199
135.07
140.042
145.095
150.208
155.361
160.531
165.697
170.835
175.925
180.944
185.869
190.675
195.338
199.834
204.137
208.225
212.074
215.661
218.967
221.97
224.655
227.003
229.002
230.636
231.896
232.77
233.251
233.332
233.01
232.28
231.144
229.601
227.655
225.311
222.576
219.458
215.968
212.118
207.922
203.395
198.554
193.417
188.003
182.332
176.427
170.309
164.002
157.529
150.914
144.181
137.355
130.46
123.52
116.56
109.601
102.668
95.783
88.967
82.24
75.624
69.137
62.797
56.621
50.624
44.821
39.225
33.848
28.699
23.788
19.123
14.708
10.549
6.649
3.01
-0.369
-3.489
-6.351
-8.96
-11.32
-13.437
-15.318
-16.971
-18.404
-19.627
-20.649
-21.481
-22.133
-22.618
-22.946
-23.13
-23.182
-23.112
-22.935
-22.66
-22.301
-21.868
-21.373
-20.827
-20.24
-19.622
-18.982
-18.331
-17.675
-17.023
-16.382
-15.759
-15.16
-14.59
-14.054
-13.555
-13.097
-12.684
-12.317
-11.998
-11.729
-11.51
-11.342
-11.226
-11.161
-11.146
-11.181
-11.265
-11.396
-11.573
-11.794
-12.059
-12.364
-12.707
-13.088
-13.503
-13.951
-14.428
-14.933
-15.463
-16.016
-16.587
-17.176
-17.778
-18.392
-19.014
-19.642
-20.273
-20.905
-21.534
-22.159
-22.776
-23.383
-23.977
-24.555
-25.114
-25.652
-26.164
-26.649
-27.103
-27.523
-27.906
-28.25
-28.55
-28.803
-29.007
-29.159
-29.255
-29.293
-29.272
-29.189
-29.045
-28.838
-28.569
-28.239
-27.851
-27.405
-26.903
-26.348
-25.743
-25.09
-24.392
-23.653
-22.875
-22.065
-21.227
-20.368
-19.495
-18.613
-17.73
-16.852
-15.985
-15.136
-14.312
-13.517
-12.759
-12.044
-11.38
-10.778
-10.243
-9.778
-9.381
-9.049
-8.776
-8.554
-8.373
-8.214
-8.066
-7.914
-7.748
-7.564
-7.351
-7.1
-6.8
-6.433
-5.99
-5.472
-4.882
-4.234
-3.548
-2.842
-2.15
-1.524
-1.006
-0.641
-0.473
-0.535
-0.863
-1.504
-2.49
-3.853
-5.621
-7.815
-10.454
-13.55
-17.099
-21.071
-25.443
-30.198
-35.235
-40.388
-45.407
-49.93
-53.634
-56.309
-57.668
-57.364
-55.349
-51.755
-46.968
-41.883
-37.167
-33.164
-30.477
-29.645
-30.648
-33.264
-36.656
-38.999
-38.985
-35.716
-27.647
-13.511
7.336
35.379
69.129
105.142
141.104
175.237
206.968
237.295
264.176
281.882
281.757
254.755
197.075
112.832
13.107
-90.881
-192.521
-291.783
-393.316
-497.137
-596.488
-679.504
-733.44
-753.25
-742.686
-711.01
-668.011
-619.83
-568.161
-511.911
-451.322
-388.25
-325.582
-267.554
-216.94
-174.591
-140.894
-115.104
-95.845
-82.432
-73.919
-68.618
-65.123
-62.066
-58.088
-52.809
-46.417
-38.964
-30.789
-22.534
-14.709
-8.019
-3.212
-0.419
0.543
-0.052
-1.744
-4.08
-6.686
-9.074
-10.753
-11.482
-11.179
-9.875
-7.716
-4.804
-1.225
2.899
7.43
12.243
17.227
22.289
27.357
32.345
37.157
41.702
45.889
49.668
53.021
55.957
58.505
60.697
62.574
64.185
65.587
66.84
67.997
69.109
70.218
71.372
72.618
74.006
75.583
77.381
79.418
81.705
84.244
87.034
90.07
93.342
96.834
100.529
104.416
108.481
112.714
117.098
121.617
126.25
130.977
135.777
140.631
145.518
150.416
155.305
160.162
164.966
169.697
174.332
178.848
183.222
187.429
191.446
195.251
198.823
202.139
205.18
207.929
210.368
212.483
214.261
215.689
216.758
217.459
217.786
217.733
217.298
216.48
215.278
213.695
211.735
209.405
206.711
203.664
200.274
196.554
192.517
188.18
183.558
178.67
173.533
168.169
162.597
156.838
150.915
144.849
138.664
132.38
126.021
119.61
113.167
106.714
100.272
93.862
87.502
81.211
75.008
68.908
62.929
57.084
51.387
45.85
40.486
35.302
30.309
25.514
20.921
16.537
12.364
8.406
4.662
1.132
-2.184
-5.289
-8.186
-10.881
-13.378
-15.683
-17.803
-19.745
-21.518
-23.13
-24.59
-25.906
-27.089
-28.147
-29.09
-29.928
-30.67
-31.324
-31.901
-32.408
-32.854
-33.247
-33.595
-33.903
-34.179
-34.429
-34.658
-34.871
-35.073
-35.267
-35.457
-35.645
-35.834
-36.025
-36.22
-36.421
-36.626
-36.838
-37.055
-37.277
-37.503
-37.733
-37.965
-38.199
-38.433
-38.665
-38.895
-39.12
-39.341
-39.555
-39.761
-39.959
-40.148
-40.327
-40.495
-40.653
-40.8
-40.937
-41.063
-41.18
-41.289
-41.39
-41.485
-41.576
-41.663
-41.749
-41.835
-41.923
-42.016
-42.115
-42.223
-42.341
-42.471
-42.616
-42.777
-42.955
-43.152
-43.369
-43.607
-43.866
-44.146
-44.447
-44.769
-45.112
-45.473
-45.853
-46.249
-46.66
-47.084
-47.519
-47.961
-48.407
-48.854
-49.298
-49.736
-50.162
-50.574
-50.966
-51.334
-51.673
-51.979
-52.245
-52.469
-52.643
-52.764
-52.827
-52.828
-52.764
-52.631
-52.426
-52.149
-51.798
-51.374
-50.876
-50.306
-49.665
-48.953
-48.175
-47.331
-46.426
-45.462
-44.443
-43.374
-42.261
-41.111
-39.93
-38.725
-37.503
-36.269
-35.033
-33.803
-32.584
-31.384
-30.208
-29.064
-27.96
-26.906
-25.91
-24.972
-24.094
-23.272
-22.504
-21.786
-21.107
-20.453
-19.81
-19.165
-18.505
-17.826
-17.12
-16.377
-15.584
-14.727
-13.799
-12.802
-11.744
-10.632
-9.481
-8.308
-7.145
-6.044
-5.056
-4.23
-3.621
-3.269
-3.218
-3.513
-4.184
-5.269
-6.807
-8.819
-11.328
-14.355
-17.888
-21.93
-26.511
-31.529
-36.805
-42.098
-47.015
-51.222
-54.515
-56.573
-57.018
-55.786
-52.989
-49.014
-44.74
-40.803
-37.501
-35.393
-34.999
-36.311
-39.093
-42.491
-44.727
-44.429
-40.696
-32.18
-17.577
3.72
31.952
66.546
104.765
144.025
183.019
218.708
249.396
273.837
286.372
282.965
259.769
212.32
143.986
60.141
-34.057
-132.423
-235.174
-343.846
-455.775
-564.711
-658.242
-723.863
-755.75
-755.601
-732.192
-695.032
-650.107
-599.56
-542.121
-477.968
-409.724
-340.891
-276.176
-218.902
-170.421
-131.532
-101.931
-80.483
-66.089
-57.455
-52.751
-50.279
-48.447
-45.659
-41.189
-35.06
-27.464
-18.849
-9.92
-1.302
6.248
11.878
15.308
16.662
16.221
14.478
11.919
8.952
6.08
3.836
2.526
2.273
3.075
4.801
7.341
10.609
14.481
18.81
23.465
28.327
33.299
38.306
43.266
48.085
52.676
56.957
60.859
64.347
67.417
70.084
72.377
74.334
75.998
77.421
78.663
79.781
80.83
81.859
82.909
84.024
85.252
86.634
88.21
90.004
92.03
94.294
96.795
99.53
102.492
105.67
109.047
112.606
116.334
120.219
124.246
128.402
132.667
137.021
141.447
145.924
150.433
154.956
159.471
163.958
168.397
172.768
177.053
181.229
185.276
189.173
192.896
196.427
199.744
202.829
205.662
208.228
210.509
212.493
214.166
215.517
216.537
217.218
217.551
217.534
217.161
216.431
215.343
213.9
212.102
209.956
207.466
204.64
201.488
198.019
194.245
190.18
185.837
181.232
176.38
171.301
166.01
160.528
154.874
149.067
143.128
137.077
130.935
124.723
118.461
112.169
105.867
99.574
93.309
87.091
80.938
74.865
68.89
63.028
57.293
51.7
46.26
40.986
35.887
30.974
26.254
21.734
17.422
13.32
9.433
5.763
2.312
-0.921
-3.936
-6.735
-9.322
-11.7
-13.873
-15.849
-17.633
-19.231
-20.653
-21.905
-22.997
-23.937
-24.736
-25.401
-25.944
-26.373
-26.699
-26.931
-27.08
-27.154
-27.162
-27.115
-27.021
-26.888
-26.724
-26.538
-26.335
-26.123
-25.909
-25.697
-25.492
-25.3
-25.125
-24.969
-24.836
-24.728
-24.648
-24.595
-24.572
-24.578
-24.614
-24.679
-24.773
-24.893
-25.039
-25.209
-25.401
-25.613
-25.843
-26.089
-26.348
-26.618
-26.896
-27.18
-27.466
-27.754
-28.04
-28.322
-28.598
-28.867
-29.126
-29.375
-29.611
-29.833
-30.041
-30.234
-30.412
-30.574
-30.72
-30.851
-30.968
-31.07
-31.16
-31.238
-31.305
-31.362
-31.412
-31.455
-31.492
-31.525
-31.555
-31.583
-31.61
-31.636
-31.664
-31.694
-31.727
-31.764
-31.804
-31.848
-31.897
-31.95
-32.006
-32.065
-32.126
-32.187
-32.249
-32.308
-32.363
-32.412
-32.453
-32.481
-32.496
-32.493
-32.468
-32.42
-32.344
-32.239
-32.101
-31.928
-31.718
-31.471
-31.185
-30.862
-30.499
-30.098
-29.657
-29.179
-28.664
-28.113
-27.526
-26.905
-26.253
-25.574
-24.871
-24.15
-23.413
-22.666
-21.913
-21.159
-20.411
-19.672
-18.947
-18.242
-17.559
-16.907
-16.295
-15.728
-15.206
-14.728
-14.29
-13.887
-13.513
-13.158
-12.807
-12.444
-12.058
-11.638
-11.182
-10.683
-10.135
-9.53
-8.852
-8.094
-7.263
-6.365
-5.415
-4.436
-3.441
-2.464
-1.56
-0.776
-0.159
0.237
0.386
0.256
-0.195
-0.986
-2.158
-3.754
-5.791
-8.296
-11.282
-14.725
-18.636
-23.04
-27.853
-32.927
-38.029
-42.802
-46.956
-50.29
-52.543
-53.388
-52.631
-50.327
-46.828
-42.826
-39.034
-35.856
-33.647
-32.964
-34.151
-37.058
-41.07
-44.873
-46.828
-45.897
-41.186
-31.183
-14.664
8.85
39.398
75.157
112.781
150.657
187.389
221.279
252.531
277.353
288.688
280.817
246.563
184.883
102.949
7.839
-92.221
-193.861
-301.347
-415.138
-531.331
-639.839
-723.954
-773.614
-786.858
-769.302
-733.55
-688.137
-637.479
-582.954
-522.297
-456.38
-388.086
-320.469
-258.238
-204.312
-159.403
-123.952
-97.192
-77.627
-64.469
-56.624
-52.195
-49.592
-47.333
-43.991
-39.172
-33.094
-25.837
-17.777
-9.629
-1.966
4.471
8.923
11.282
11.781
10.71
8.55
5.778
2.783
0.069
-1.863
-2.782
-2.622
-1.426
0.649
3.493
7.019
11.092
15.565
20.305
25.19
30.126
35.046
39.863
44.483
48.816
52.772
56.305
59.407
62.087
64.377
66.311
67.931
69.289
70.448
71.468
72.408
73.319
74.244
75.231
76.329
77.588
79.054
80.759
82.719
84.944
87.437
90.194
93.212
96.478
99.975
103.687
107.6
111.701
115.977
120.412
124.987
129.681
134.474
139.344
144.271
149.233
154.208
159.175
164.11
168.992
173.8
178.511
183.1
187.545
191.82
195.902
199.767
203.395
206.762
209.849
212.638
215.111
217.254
219.053
220.496
221.572
222.274
222.594
222.527
222.07
221.221
219.982
218.353
216.34
213.949
211.186
208.061
204.586
200.773
196.635
192.19
187.452
182.441
177.175
171.675
165.961
160.056
153.981
147.76
141.415
134.969
128.448
121.872
115.266
108.651
102.05
95.484
88.973
82.538
76.197
69.969
63.87
57.918
52.127
46.511
41.082
35.852
30.831
26.028
21.45
17.103
12.992
9.12
5.49
2.102
-1.043
-3.948
-6.615
-9.048
-11.253
-13.235
-15
-16.558
-17.915
-19.082
-20.067
-20.882
-21.536
-22.039
-22.404
-22.641
-22.761
-22.775
-22.695
-22.53
-22.293
-21.993
-21.641
-21.245
-20.816
-20.361
-19.89
-19.41
-18.928
-18.452
-17.987
-17.539
-17.113
-16.713
-16.344
-16.008
-15.708
-15.447
-15.226
-15.046
-14.907
-14.809
-14.753
-14.738
-14.761
-14.823
-14.922
-15.055
-15.221
-15.417
-15.64
-15.89
-16.162
-16.455
-16.766
-17.093
-17.433
-17.785
-18.146
-18.514
-18.888
-19.265
-19.644
-20.023
-20.401
-20.777
-21.15
-21.518
-21.882
-22.241
-22.596
-22.945
-23.289
-23.629
-23.966
-24.299
-24.631
-24.962
-25.293
-25.625
-25.961
-26.302
-26.649
-27.003
-27.366
-27.739
-28.123
-28.519
-28.928
-29.349
-29.784
-30.231
-30.691
-31.163
-31.648
-32.143
-32.649
-33.164
-33.686
-34.215
-34.747
-35.282
-35.815
-36.345
-36.869
-37.383
-37.884
-38.369
-38.833
-39.273
-39.685
-40.063
-40.405
-40.704
-40.957
-41.16
-41.309
-41.4
-41.431
-41.399
-41.302
-41.139
-40.91
-40.617
-40.258
-39.834
-39.348
-38.801
-38.196
-37.534
-36.818
-36.052
-35.238
-34.384
-33.495
-32.576
-31.634
-30.675
-29.705
-28.733
-27.766
-26.81
-25.872
-24.957
-24.072
-23.226
-22.428
-21.685
-21
-20.371
-19.796
-19.27
-18.789
-18.343
-17.915
-17.492
-17.059
-16.603
-16.122
-15.608
-15.051
-14.443
-13.765
-13.01
-12.184
-11.295
-10.354
-9.381
-8.392
-7.417
-6.516
-5.736
-5.129
-4.749
-4.624
-4.793
-5.302
-6.177
-7.462
-9.197
-11.399
-14.092
-17.291
-20.972
-25.143
-29.82
-34.904
-40.231
-45.561
-50.53
-54.838
-58.275
-60.56
-61.354
-60.481
-58.013
-54.309
-50.055
-45.924
-42.294
-39.523
-38.17
-38.563
-40.526
-43.419
-45.947
-46.555
-44.256
-38.197
-26.919
-9.219
15.306
46.59
82.802
120.575
158.189
194.155
226.738
255.896
277.794
285.622
273.669
235.275
170.042
85.006
-12.665
-114.599
-217.64
-325.576
-438.397
-552.677
-658.763
-740.055
-786.603
-796.132
-773.683
-732.271
-681.279
-625.333
-566.15
-501.815
-432.999
-362.861
-295.185
-234.506
-183.475
-142.893
-112.604
-91.24
-77.236
-69.248
-65.422
-63.888
-62.945
-60.903
-56.95
-51.112
-43.645
-35.02
-25.958
-17.129
-9.325
-3.446
0.195
1.732
1.456
-0.129
-2.516
-5.284
-7.904
-9.803
-10.685
-10.44
-9.08
-6.763
-3.606
0.302
4.815
9.771
15.024
20.449
25.945
31.442
36.844
42.049
46.957
51.47
55.537
59.138
62.273
64.969
67.255
69.173
70.775
72.125
73.284
74.309
75.254
76.166
77.097
78.099
79.223
80.519
82.023
83.754
85.725
87.941
90.402
93.106
96.043
99.198
102.556
106.107
109.839
113.742
117.8
121.998
126.317
130.737
135.24
139.808
144.419
149.056
153.696
158.32
162.908
167.439
171.893
176.245
180.474
184.556
188.467
192.185
195.689
198.958
201.971
204.71
207.158
209.301
211.123
212.614
213.76
214.555
214.989
215.057
214.756
214.082
213.035
211.616
209.828
207.676
205.167
202.309
199.11
195.583
191.741
187.597
183.168
178.469
173.518
168.335
162.939
157.35
151.59
145.68
139.642
133.498
127.271
120.981
114.651
108.302
101.956
95.632
89.35
83.13
76.989
70.945
65.016
59.215
53.559
48.06
42.73
37.58
32.62
27.859
23.304
18.96
14.833
10.925
7.239
3.776
0.535
-2.486
-5.289
-7.877
-10.256
-12.431
-14.409
-16.196
-17.801
-19.232
-20.498
-21.608
-22.572
-23.399
-24.101
-24.686
-25.165
-25.549
-25.846
-26.067
-26.221
-26.318
-26.365
-26.371
-26.345
-26.293
-26.221
-26.138
-26.047
-25.954
-25.864
-25.781
-25.707
-25.646
-25.6
-25.57
-25.558
-25.564
-25.588
-25.632
-25.693
-25.771
-25.865
-25.973
-26.094
-26.225
-26.366
-26.513
-26.665
-26.819
-26.973
-27.125
-27.274
-27.417
-27.553
-27.679
-27.796
-27.9
-27.993
-28.072
-28.137
-28.188
-28.224
-28.247
-28.256
-28.252
-28.236
-28.208
-28.17
-28.123
-28.067
-28.005
-27.937
-27.866
-27.793
-27.719
-27.646
-27.576
-27.511
-27.452
-27.402
-27.36
-27.329
-27.311
-27.306
-27.316
-27.342
-27.384
-27.444
-27.521
-27.617
-27.731
-27.863
-28.013
-28.178
-28.36
-28.555
-28.763
-28.982
-29.209
-29.444
-29.684
-29.926
-30.169
-30.41
-30.646
-30.874
-31.093
-31.298
-31.487
-31.656
-31.803
-31.925
-32.018
-32.079
-32.105
-32.093
-32.04
-31.942
-31.796
-31.6
-31.35
-31.045
-30.682
-30.261
-29.78
-29.239
-28.64
-27.983
-27.271
-26.506
-25.689
-24.824
-23.914
-22.962
-21.971
-20.945
-19.887
-18.802
-17.696
-16.576
-15.448
-14.318
-13.192
-12.078
-10.981
-9.909
-8.868
-7.861
-6.896
-5.978
-5.116
-4.318
-3.592
-2.938
-2.355
-1.84
-1.386
-0.986
-0.628
-0.294
0.033
0.365
0.714
1.086
1.49
1.939
2.444
3.02
3.677
4.412
5.219
6.092
7.011
7.953
8.887
9.759
10.52
11.132
11.549
11.73
11.639
11.227
10.457
9.308
7.749
5.761
3.327
0.421
-2.956
-6.773
-11.012
-15.651
-20.607
-25.733
-30.79
-35.432
-39.343
-42.286
-43.998
-44.16
-42.61
-39.448
-35.035
-30.057
-25.229
-20.968
-17.687
-15.999
-16.229
-18.184
-21.223
-24.035
-25.054
-23.273
-17.768
-7.014
10.221
34.345
65.268
101.119
138.486
175.607
210.95
242.768
271.054
291.957
298.628
285.303
245.262
178.246
91.571
-7.412
-110.209
-213.779
-322.212
-435.528
-550.139
-656.125
-736.591
-781.678
-789.54
-765.71
-723.586
-672.639
-617.278
-558.902
-495.365
-427.196
-357.508
-290.089
-229.432
-178.149
-137.05
-106.004
-83.716
-68.72
-59.748
-55
-52.646
-50.987
-48.315
-43.819
-37.514
-29.64
-20.662
-11.286
-2.173
5.871
11.927
15.662
17.186
16.785
14.965
12.221
8.975
5.756
3.139
1.463
0.874
1.382
2.856
5.187
8.292
12.044
16.291
20.895
25.735
30.714
35.755
40.778
45.686
50.384
54.783
58.807
62.412
65.59
68.35
70.72
72.736
74.442
75.889
77.14
78.256
79.29
80.294
81.311
82.389
83.576
84.919
86.461
88.232
90.247
92.516
95.039
97.816
100.841
104.102
107.583
111.268
115.144
119.197
123.417
127.787
132.289
136.903
141.611
146.391
151.224
156.091
160.969
165.838
170.676
175.463
180.178
184.799
189.302
193.665
197.863
201.873
205.673
209.241
212.555
215.597
218.347
220.79
222.909
224.691
226.123
227.195
227.898
228.225
228.168
227.726
226.894
225.673
224.063
222.069
219.694
216.945
213.83
210.36
206.545
202.4
197.937
193.174
188.127
182.814
177.256
171.472
165.483
159.312
152.981
146.513
139.932
133.259
126.519
119.734
112.928
106.122
99.338
92.598
85.923
79.332
72.844
66.479
60.252
54.181
48.281
42.566
37.048
31.739
26.649
21.788
17.163
12.779
8.642
4.755
1.121
-2.26
-5.389
-8.267
-10.897
-13.283
-15.43
-17.345
-19.034
-20.505
-21.767
-22.829
-23.7
-24.39
-24.911
-25.273
-25.487
-25.565
-25.518
-25.358
-25.095
-24.742
-24.309
-23.807
-23.247
-22.64
-21.994
-21.32
-20.627
-19.922
-19.215
-18.512
-17.82
-17.146
-16.495
-15.872
-15.283
-14.73
-14.218
-13.749
-13.327
-12.951
-12.626
-12.35
-12.126
-11.952
-11.83
-11.758
-11.735
-11.762
-11.835
-11.954
-12.117
-12.322
-12.567
-12.849
-13.166
-13.515
-13.895
-14.302
-14.734
-15.188
-15.661
-16.152
-16.658
-17.175
-17.702
-18.237
-18.777
-19.319
-19.862
-20.404
-20.943
-21.477
-22.005
-22.524
-23.033
-23.533
-24.02
-24.495
-24.956
-25.402
-25.835
-26.252
-26.653
-27.04
-27.412
-27.768
-28.111
-28.441
-28.758
-29.064
-29.36
-29.647
-29.926
-30.199
-30.468
-30.734
-30.999
-31.266
-31.535
-31.81
-32.091
-32.381
-32.681
-32.992
-33.317
-33.655
-34.009
-34.377
-34.763
-35.164
-35.582
-36.017
-36.469
-36.936
-37.418
-37.913
-38.42
-38.938
-39.463
-39.993
-40.525
-41.056
-41.583
-42.102
-42.608
-43.098
-43.567
-44.01
-44.422
-44.797
-45.132
-45.42
-45.656
-45.837
-45.957
-46.014
-46.004
-45.924
-45.775
-45.553
-45.259
-44.892
-44.451
-43.937
-43.35
-42.692
-41.963
-41.166
-40.304
-39.381
-38.405
-37.379
-36.31
-35.205
-34.069
-32.91
-31.735
-30.552
-29.365
-28.184
-27.016
-25.871
-24.761
-23.695
-22.676
-21.706
-20.782
-19.903
-19.063
-18.255
-17.464
-16.679
-15.891
-15.094
-14.286
-13.46
-12.608
-11.723
-10.791
-9.806
-8.774
-7.701
-6.601
-5.494
-4.4
-3.354
-2.408
-1.605
-0.984
-0.588
-0.454
-0.622
-1.138
-2.037
-3.343
-5.084
-7.28
-9.952
-13.117
-16.781
-20.917
-25.507
-30.558
-35.979
-41.604
-47.189
-52.342
-56.722
-60.122
-62.24
-62.714
-61.495
-58.724
-54.831
-50.762
-47.206
-44.482
-43.155
-43.741
-46.205
-50.274
-55.014
-58.504
-59.339
-56.624
-48.956
-35.072
-14.267
13.96
48.344
85.64
123.303
159.568
193.909
226.897
256.966
278.85
283.632
262.532
210.914
131.367
34.238
-69.891
-174.494
-278.999
-387.758
-501.133
-612.237
-708.175
-774.926
-805.434
-802.101
-774.661
-733.57
-685.494
-632.549
-573.105
-507.115
-437.123
-366.736
-300.927
-243.138
-194.652
-156.14
-127.149
-106.437
-92.879
-85.108
-81.151
-79.208
-77.638
-74.85
-70.171
-63.662
-55.528
-46.258
-36.628
-27.324
-19.148
-12.959
-9.023
-7.205
-7.218
-8.566
-10.757
-13.373
-15.906
-17.832
-18.857
-18.864
-17.865
-15.994
-13.361
-10.054
-6.195
-1.925
2.628
7.354
12.16
16.973
21.719
26.31
30.664
34.699
38.349
41.578
44.385
46.787
48.814
50.507
51.907
53.068
54.052
54.917
55.72
56.508
57.325
58.215
59.225
60.4
61.782
63.399
65.265
67.389
69.772
72.413
75.306
78.442
81.802
85.373
89.14
93.092
97.216
101.497
105.918
110.458
115.099
119.819
124.6
129.421
134.261
139.098
143.912
148.681
153.385
158.003
162.511
166.887
171.108
175.152
178.998
182.623
186.009
189.137
191.989
194.55
196.805
198.743
200.351
201.62
202.542
203.111
203.321
203.17
202.655
201.776
200.536
198.937
196.984
194.685
192.047
189.079
185.794
182.204
178.322
174.164
169.746
165.084
160.198
155.105
149.827
144.382
138.792
133.077
127.258
121.357
115.395
109.393
103.37
97.346
91.343
85.377
79.469
73.636
67.894
62.26
56.75
51.378
46.158
41.101
36.219
31.523
27.02
22.719
18.627
14.748
11.087
7.646
4.427
1.431
-1.343
-3.898
-6.235
-8.359
-10.274
-11.986
-13.5
-14.825
-15.967
-16.935
-17.736
-18.381
-18.876
-19.234
-19.461
-19.57
-19.569
-19.467
-19.276
-19.004
-18.66
-18.255
-17.796
-17.293
-16.753
-16.185
-15.596
-14.993
-14.383
-13.772
-13.164
-12.566
-11.982
-11.416
-10.871
-10.351
-9.859
-9.396
-8.965
-8.567
-8.205
-7.878
-7.587
-7.334
-7.119
-6.941
-6.8
-6.696
-6.629
-6.599
-6.603
-6.643
-6.716
-6.821
-6.959
-7.127
-7.324
-7.549
-7.802
-8.08
-8.382
-8.708
-9.055
-9.424
-9.811
-10.217
-10.64
-11.079
-11.532
-12
-12.479
-12.97
-13.47
-13.979
-14.494
-15.015
-15.54
-16.068
-16.597
-17.126
-17.654
-18.18
-18.702
-19.22
-19.731
-20.236
-20.733
-21.222
-21.701
-22.171
-22.631
-23.08
-23.519
-23.947
-24.363
-24.769
-25.162
-25.543
-25.912
-26.268
-26.612
-26.942
-27.258
-27.561
-27.851
-28.127
-28.39
-28.638
-28.873
-29.093
-29.299
-29.489
-29.664
-29.823
-29.964
-30.087
-30.192
-30.277
-30.34
-30.381
-30.397
-30.387
-30.35
-30.284
-30.186
-30.056
-29.893
-29.695
-29.462
-29.194
-28.892
-28.556
-28.188
-27.789
-27.361
-26.904
-26.423
-25.917
-25.391
-24.844
-24.28
-23.701
-23.11
-22.511
-21.909
-21.306
-20.706
-20.114
-19.535
-18.974
-18.434
-17.918
-17.425
-16.961
-16.528
-16.134
-15.783
-15.472
-15.199
-14.963
-14.758
-14.579
-14.416
-14.245
-14.046
-13.804
-13.508
-13.153
-12.738
-12.249
-11.673
-11
-10.221
-9.348
-8.393
-7.357
-6.252
-5.103
-3.953
-2.877
-1.953
-1.236
-0.774
-0.606
-0.755
-1.276
-2.228
-3.656
-5.606
-8.093
-11.108
-14.689
-18.888
-23.659
-28.859
-34.214
-39.333
-43.912
-47.743
-50.573
-52.084
-52.066
-50.541
-47.836
-44.601
-41.462
-38.746
-36.739
-35.896
-36.501
-38.425
-41.091
-43.259
-43.545
-41.122
-35.073
-24.045
-6.994
16.853
46.913
80.672
115.837
150.559
184.638
219.639
254.448
285.321
304.484
300.402
266.237
201.275
112.137
11.71
-90.741
-192.325
-295.713
-404.269
-515.291
-618.37
-698.198
-744.585
-755.344
-736.329
-699.797
-654.094
-603.423
-549.085
-489.185
-424.664
-358.626
-294.545
-236.683
-187.62
-148.044
-117.827
-95.784
-80.419
-70.598
-64.754
-61.161
-58.212
-54.276
-48.535
-41.018
-32.012
-21.956
-11.514
-1.332
7.817
14.99
19.798
22.319
22.789
21.699
19.539
16.702
13.703
11.105
9.239
8.291
8.312
9.194
10.852
13.223
16.186
19.626
23.436
27.509
31.764
36.13
40.52
44.856
49.058
53.042
56.743
60.102
63.086
65.702
67.967
69.916
71.589
73.027
74.28
75.41
76.471
77.515
78.591
79.736
80.995
82.411
84.024
85.873
87.981
90.359
93.012
95.94
99.139
102.602
106.314
110.257
114.414
118.769
123.306
128.01
132.864
137.846
142.934
148.104
153.334
158.602
163.883
169.153
174.388
179.564
184.657
189.644
194.502
199.205
203.728
208.048
212.14
215.981
219.55
222.826
225.789
228.422
230.708
232.635
234.189
235.36
236.139
236.519
236.495
236.064
235.224
233.976
232.321
230.265
227.813
224.973
221.755
218.17
214.231
209.952
205.35
200.442
195.247
189.782
184.071
178.133
171.991
165.667
159.186
152.57
145.845
139.032
132.157
125.244
118.314
111.391
104.498
97.655
90.883
84.202
77.632
71.189
64.892
58.756
52.796
47.025
41.455
36.098
30.962
26.055
21.384
16.955
12.772
8.836
5.15
1.713
-1.476
-4.419
-7.121
-9.584
-11.816
-13.823
-15.611
-17.19
-18.568
-19.755
-20.76
-21.593
-22.266
-22.789
-23.174
-23.43
-23.57
-23.605
-23.544
-23.4
-23.181
-22.899
-22.563
-22.182
-21.765
-21.32
-20.854
-20.375
-19.889
-19.403
-18.921
-18.449
-17.99
-17.549
-17.129
-16.733
-16.362
-16.019
-15.705
-15.421
-15.167
-14.945
-14.754
-14.594
-14.464
-14.364
-14.293
-14.25
-14.233
-14.243
-14.278
-14.336
-14.417
-14.52
-14.645
-14.789
-14.954
-15.138
-15.341
-15.562
-15.803
-16.062
-16.34
-16.637
-16.953
-17.29
-17.646
-18.023
-18.419
-18.836
-19.272
-19.727
-20.201
-20.692
-21.2
-21.724
-22.262
-22.814
-23.377
-23.95
-24.53
-25.116
-25.705
-26.294
-26.88
-27.459
-28.029
-28.586
-29.126
-29.645
-30.138
-30.602
-31.032
-31.423
-31.77
-32.069
-32.314
-32.502
-32.628
-32.689
-32.681
-32.603
-32.451
-32.227
-31.929
-31.558
-31.115
-30.601
-30.018
-29.366
-28.65
-27.873
-27.036
-26.145
-25.204
-24.219
-23.198
-22.149
-21.079
-19.994
-18.904
-17.816
-16.738
-15.68
-14.646
-13.646
-12.687
-11.781
-10.94
-10.171
-9.478
-8.862
-8.323
-7.853
-7.449
-7.098
-6.787
-6.5
-6.229
-5.965
-5.703
-5.437
-5.157
-4.852
-4.51
-4.12
-3.681
-3.198
-2.674
-2.129
-1.585
-1.07
-0.629
-0.301
-0.116
-0.112
-0.323
-0.772
-1.493
-2.514
-3.848
-5.524
-7.571
-10.004
-12.847
-16.097
-19.719
-23.705
-28.055
-32.706
-37.533
-42.32
-46.737
-50.509
-53.447
-55.32
-55.834
-54.802
-52.27
-48.569
-44.347
-40.293
-36.799
-34.182
-32.946
-33.407
-35.439
-38.497
-41.362
-42.482
-40.887
-35.804
-25.928
-10.157
12.125
41.131
75.079
110.75
146.071
179.457
210.628
240.643
267.465
285.501
286.175
260.337
203.968
120.82
21.636
-82.392
-184.558
-284.661
-387.211
-492.475
-593.905
-679.582
-736.725
-759.843
-752.22
-723.058
-681.94
-635.02
-584.212
-528.418
-467.994
-404.848
-341.734
-282.859
-231.052
-187.27
-152.083
-124.85
-104.191
-89.452
-79.776
-73.568
-69.486
-66.132
-62.017
-56.679
-50.28
-42.836
-34.647
-26.297
-18.239
-11.193
-5.982
-2.805
-1.519
-1.876
-3.417
-5.711
-8.399
-10.992
-12.973
-14.05
-14.097
-13.125
-11.265
-8.622
-5.278
-1.35
3.025
7.717
12.618
17.628
22.676
27.687
32.57
37.24
41.616
45.63
49.245
52.462
55.297
57.782
59.955
61.857
63.538
65.06
66.478
67.843
69.203
70.598
72.07
73.665
75.424
77.386
79.577
82.007
84.682
87.602
90.762
94.154
97.765
101.576
105.571
109.734
114.051
118.506
123.084
127.763
132.522
137.339
142.194
147.063
151.926
156.76
161.543
166.252
170.865
175.361
179.719
183.915
187.925
191.729
195.302
198.626
201.679
204.443
206.9
209.034
210.832
212.282
213.372
214.094
214.44
214.406
213.988
213.184
211.995
210.422
208.47
206.143
203.449
200.398
197
193.268
189.215
184.857
180.211
175.293
170.124
164.723
159.11
153.308
147.337
141.222
134.983
128.646
122.232
115.765
109.267
102.762
96.272
89.817
83.419
77.097
70.872
64.761
58.781
52.949
47.28
41.789
36.487
31.387
26.498
21.83
17.39
13.184
9.217
5.492
2.012
-1.223
-4.213
-6.959
-9.465
-11.735
-13.773
-15.585
-17.178
-18.56
-19.739
-20.725
-21.528
-22.157
-22.624
-22.94
-23.116
-23.165
-23.096
-22.924
-22.658
-22.311
-21.895
-21.419
-20.896
-20.336
-19.747
-19.141
-18.526
-17.91
-17.3
-16.705
-16.13
-15.582
-15.065
-14.585
-14.144
-13.747
-13.396
-13.094
-12.841
-12.639
-12.489
-12.389
-12.34
-12.34
-12.388
-12.482
-12.621
-12.8
-13.018
-13.272
-13.559
-13.875
-14.217
-14.581
-14.965
-15.365
-15.778
-16.2
-16.63
-17.063
-17.499
-17.934
-18.367
-18.796
-19.219
-19.635
-20.043
-20.441
-20.831
-21.21
-21.579
-21.939
-22.289
-22.63
-22.964
-23.291
-23.612
-23.93
-24.246
-24.561
-24.877
-25.197
-25.523
-25.857
-26.201
-26.557
-26.927
-27.313
-27.717
-28.141
-28.585
-29.05
-29.537
-30.045
-30.575
-31.127
-31.7
-32.292
-32.903
-33.532
-34.176
-34.834
-35.503
-36.181
-36.865
-37.55
-38.235
-38.914
-39.585
-40.242
-40.882
-41.5
-42.092
-42.651
-43.174
-43.654
-44.087
-44.468
-44.792
-45.053
-45.25
-45.377
-45.433
-45.414
-45.321
-45.152
-44.907
-44.588
-44.195
-43.729
-43.192
-42.587
-41.917
-41.183
-40.389
-39.541
-38.643
-37.702
-36.724
-35.716
-34.683
-33.634
-32.575
-31.516
-30.462
-29.421
-28.398
-27.402
-26.44
-25.523
-24.66
-23.851
-23.098
-22.398
-21.746
-21.14
-20.568
-20.015
-19.467
-18.91
-18.329
-17.723
-17.084
-16.401
-15.667
-14.864
-13.983
-13.032
-12.015
-10.944
-9.841
-8.72
-7.613
-6.579
-5.667
-4.93
-4.427
-4.188
-4.251
-4.663
-5.446
-6.643
-8.3
-10.432
-13.068
-16.222
-19.871
-24.022
-28.697
-33.797
-39.158
-44.53
-49.538
-53.876
-57.335
-59.639
-60.45
-59.589
-57.129
-53.436
-49.219
-45.172
-41.674
-39.082
-37.953
-38.612
-40.88
-44.106
-46.954
-47.815
-45.66
-39.606
-28.155
-10.06
15.098
47.264
84.522
123.296
161.792
198.516
231.805
261.873
284.8
293.396
281.642
242.49
175.641
88.759
-10.553
-113.495
-216.697
-324.056
-435.519
-547.635
-651.109
-730.097
-775.507
-785.846
-766.348
-729.323
-683.361
-632.403
-577.77
-517.726
-453.019
-386.637
-322.097
-263.543
-213.473
-172.787
-141.509
-118.539
-102.547
-92.403
-86.502
-83.152
-80.719
-77.51
-72.668
-66.151
-58.17
-49.135
-39.673
-30.414
-22.141
-15.791
-11.742
-9.894
-9.97
-11.481
-13.941
-16.941
-19.954
-22.391
-23.894
-24.312
-23.626
-21.965
-19.439
-16.12
-12.133
-7.627
-2.737
2.406
7.695
13.056
18.402
23.629
28.643
33.345
37.653
41.529
44.962
47.96
50.552
52.77
54.656
56.261
57.649
58.878
60.004
61.077
62.144
63.251
64.448
65.786
67.306
69.04
71.002
73.202
75.643
78.325
81.243
84.387
87.741
91.293
95.029
98.939
103.012
107.234
111.587
116.054
120.614
125.25
129.943
134.673
139.42
144.164
148.885
153.561
158.174
162.701
167.12
171.408
175.543
179.502
183.263
186.805
190.109
193.155
195.925
198.404
200.577
202.431
203.955
205.138
205.973
206.451
206.568
206.321
205.708
204.727
203.382
201.676
199.614
197.202
194.45
191.368
187.968
184.262
180.265
175.994
171.465
166.697
161.708
156.518
151.148
145.618
139.951
134.168
128.29
122.34
116.339
110.309
104.27
98.242
92.246
86.301
80.425
74.636
68.952
63.388
57.959
52.679
47.561
42.617
37.857
33.291
28.926
24.769
20.825
17.099
13.593
10.308
7.245
4.403
1.78
-0.627
-2.822
-4.811
-6.599
-8.194
-9.602
-10.832
-11.893
-12.793
-13.542
-14.149
-14.625
-14.979
-15.223
-15.366
-15.417
-15.389
-15.29
-15.129
-14.917
-14.663
-14.375
-14.061
-13.73
-13.388
-13.042
-12.698
-12.363
-12.041
-11.736
-11.453
-11.195
-10.964
-10.763
-10.594
-10.458
-10.355
-10.286
-10.251
-10.25
-10.281
-10.343
-10.437
-10.558
-10.707
-10.881
-11.078
-11.297
-11.534
-11.788
-12.056
-12.336
-12.626
-12.924
-13.228
-13.536
-13.845
-14.155
-14.463
-14.768
-15.068
-15.363
-15.651
-15.932
-16.205
-16.47
-16.727
-16.975
-17.215
-17.448
-17.673
-17.891
-18.103
-18.311
-18.515
-18.715
-18.914
-19.113
-19.312
-19.512
-19.714
-19.919
-20.128
-20.34
-20.557
-20.779
-21.005
-21.236
-21.472
-21.713
-21.958
-22.206
-22.458
-22.713
-22.968
-23.224
-23.479
-23.73
-23.977
-24.216
-24.447
-24.665
-24.87
-25.057
-25.224
-25.367
-25.484
-25.571
-25.624
-25.641
-25.62
-25.556
-25.45
-25.298
-25.099
-24.855
-24.564
-24.228
-23.847
-23.423
-22.956
-22.448
-21.902
-21.319
-20.701
-20.051
-19.372
-18.669
-17.946
-17.21
-16.463
-15.713
-14.964
-14.222
-13.493
-12.783
-12.095
-11.436
-10.808
-10.219
-9.679
-9.19
-8.754
-8.367
-8.025
-7.721
-7.45
-7.2
-6.953
-6.695
-6.411
-6.09
-5.729
-5.32
-4.854
-4.322
-3.708
-3.005
-2.221
-1.361
-0.44
0.523
1.513
2.499
3.424
4.246
4.916
5.382
5.621
5.597
5.27
4.62
3.606
2.192
0.361
-1.912
-4.643
-7.812
-11.433
-15.532
-20.024
-24.756
-29.493
-33.869
-37.58
-40.418
-42.108
-42.317
-40.873
-37.871
-33.712
-29.146
-24.926
-21.481
-19.202
-18.68
-20.237
-23.651
-28.197
-32.431
-34.611
-33.607
-28.452
-17.558
0.354
25.687
58.329
96.288
135.941
175.402
213.088
247.043
277.086
299.448
307.254
294.811
255.76
189.127
101.532
1.166
-103.195
-206.585
-310.736
-417.736
-525.676
-627.402
-709.837
-760.97
-776.63
-760.298
-721.996
-672.367
-617.512
-559.408
-497.348
-431.413
-363.809
-298.267
-238.987
-188.593
-148.108
-117.366
-95.069
-79.806
-70.37
-65.064
-62.138
-59.947
-56.817
-51.94
-45.336
-37.244
-28.097
-18.553
-9.255
-0.984
5.339
9.358
11.193
11.132
9.671
7.298
4.421
1.557
-0.719
-2.064
-2.338
-1.531
0.222
2.807
6.145
10.112
14.556
19.341
24.339
29.444
34.582
39.667
44.603
49.297
53.659
57.615
61.129
64.196
66.829
69.059
70.924
72.467
73.742
74.813
75.739
76.58
77.385
78.201
79.076
80.058
81.196
82.533
84.096
85.9
87.955
90.263
92.822
95.629
98.671
101.934
105.404
109.067
112.911
116.925
121.094
125.398
129.819
134.337
138.932
143.585
148.274
152.98
157.68
162.352
166.976
171.531
175.994
180.342
184.552
188.599
192.46
196.114
199.539
202.714
205.62
208.238
210.552
212.548
214.212
215.532
216.498
217.102
217.337
217.197
216.68
215.784
214.509
212.856
210.831
208.439
205.686
202.582
199.138
195.366
191.279
186.892
182.221
177.285
172.101
166.689
161.069
155.262
149.29
143.175
136.939
130.605
124.196
117.734
111.241
104.74
98.251
91.796
85.395
79.067
72.833
66.709
60.714
54.863
49.171
43.652
38.32
33.185
28.258
23.548
19.063
14.808
10.79
7.011
3.474
0.18
-2.872
-5.681
-8.252
-10.588
-12.694
-14.576
-16.239
-17.693
-18.945
-20.004
-20.88
-21.583
-22.123
-22.511
-22.759
-22.877
-22.878
-22.772
-22.571
-22.286
-21.929
-21.51
-21.039
-20.526
-19.982
-19.415
-18.834
-18.247
-17.662
-17.085
-16.522
-15.98
-15.462
-14.974
-14.519
-14.099
-13.718
-13.378
-13.078
-12.821
-12.606
-12.433
-12.302
-12.211
-12.159
-12.145
-12.166
-12.22
-12.305
-12.418
-12.556
-12.716
-12.897
-13.094
-13.305
-13.528
-13.761
-13.999
-14.242
-14.488
-14.734
-14.978
-15.221
-15.459
-15.693
-15.921
-16.143
-16.359
-16.569
-16.773
-16.972
-17.166
-17.355
-17.542
-17.727
-17.91
-18.095
-18.282
-18.472
-18.669
-18.872
-19.085
-19.309
-19.546
-19.797
-20.064
-20.348
-20.651
-20.973
-21.314
-21.676
-22.058
-22.461
-22.883
-23.325
-23.786
-24.265
-24.76
-25.27
-25.794
-26.329
-26.873
-27.424
-27.978
-28.533
-29.085
-29.632
-30.169
-30.694
-31.202
-31.689
-32.151
-32.583
-32.982
-33.343
-33.661
-33.933
-34.156
-34.326
-34.441
-34.498
-34.497
-34.438
-34.32
-34.143
-33.907
-33.614
-33.265
-32.862
-32.407
-31.9
-31.346
-30.747
-30.109
-29.436
-28.733
-28.006
-27.261
-26.503
-25.737
-24.972
-24.213
-23.464
-22.732
-22.022
-21.342
-20.701
-20.106
-19.557
-19.055
-18.597
-18.177
-17.791
-17.429
-17.075
-16.715
-16.336
-15.926
-15.482
-14.997
-14.464
-13.873
-13.21
-12.467
-11.649
-10.763
-9.821
-8.846
-7.854
-6.876
-5.969
-5.181
-4.564
-4.175
-4.044
-4.207
-4.708
-5.566
-6.825
-8.529
-10.698
-13.361
-16.533
-20.189
-24.339
-29.009
-34.111
-39.491
-44.907
-49.993
-54.448
-58.07
-60.596
-61.694
-61.172
-59.087
-55.789
-51.968
-48.324
-45.24
-43.048
-42.298
-43.322
-45.962
-49.609
-52.951
-54.371
-52.889
-47.674
-37.237
-20.37
3.398
34.101
69.883
107.361
144.987
181.487
215.161
246.157
270.771
281.956
273.954
239.84
177.906
94.448
-2.715
-105.087
-207.685
-312.614
-422.441
-535.172
-643.18
-732.513
-790.121
-810.896
-797.947
-761.385
-711.807
-655.744
-595.576
-530.565
-461.091
-389.6
-319.935
-256.771
-203.185
-160.32
-128.08
-105.092
-89.692
-80.564
-75.94
-73.888
-72.583
-70.195
-65.789
-59.358
-51.202
-41.786
-31.802
-21.957
-13.097
-6.238
-1.806
0.297
0.363
-1.096
-3.569
-6.627
-9.728
-12.259
-13.852
-14.355
-13.752
-12.183
-9.766
-6.579
-2.75
1.567
6.239
11.135
16.152
21.217
26.245
31.138
35.8
40.137
44.071
47.563
50.606
53.21
55.407
57.233
58.732
59.958
60.975
61.846
62.627
63.372
64.126
64.94
65.865
66.95
68.24
69.767
71.546
73.587
75.895
78.468
81.303
84.389
87.711
91.255
95.009
98.96
103.098
107.406
111.868
116.464
121.174
125.978
130.857
135.791
140.756
145.733
150.699
155.632
160.51
165.312
170.013
174.588
179.012
183.261
187.313
191.143
194.729
198.051
201.089
203.825
206.242
208.327
210.064
211.442
212.452
213.084
213.333
213.193
212.661
211.737
210.42
208.715
206.624
204.154
201.314
198.113
194.562
190.676
186.467
181.953
177.151
172.079
166.757
161.205
155.445
149.5
143.392
137.145
130.782
124.327
117.804
111.235
104.645
98.056
91.49
84.969
78.515
72.146
65.883
59.744
53.746
47.905
42.237
36.756
31.473
26.401
21.548
16.924
12.534
8.386
4.482
0.825
-2.583
-5.743
-8.655
-11.324
-13.752
-15.945
-17.909
-19.652
-21.181
-22.505
-23.634
-24.578
-25.348
-25.955
-26.411
-26.726
-26.914
-26.986
-26.953
-26.828
-26.622
-26.347
-26.013
-25.632
-25.213
-24.765
-24.3
-23.824
-23.345
-22.872
-22.411
-21.966
-21.545
-21.15
-20.787
-20.457
-20.164
-19.91
-19.695
-19.519
-19.384
-19.289
-19.232
-19.212
-19.227
-19.276
-19.355
-19.463
-19.595
-19.75
-19.923
-20.112
-20.314
-20.525
-20.742
-20.962
-21.182
-21.398
-21.609
-21.811
-22.003
-22.183
-22.348
-22.497
-22.63
-22.745
-22.842
-22.92
-22.98
-23.02
-23.043
-23.047
-23.034
-23.006
-22.963
-22.907
-22.839
-22.763
-22.678
-22.589
-22.497
-22.403
-22.312
-22.225
-22.145
-22.075
-22.017
-21.974
-21.949
-21.943
-21.96
-22.002
-22.07
-22.165
-22.29
-22.445
-22.631
-22.847
-23.095
-23.375
-23.685
-24.027
-24.398
-24.799
-25.227
-25.681
-26.16
-26.661
-27.181
-27.718
-28.269
-28.83
-29.398
-29.969
-30.54
-31.105
-31.66
-32.2
-32.721
-33.216
-33.681
-34.11
-34.498
-34.841
-35.134
-35.374
-35.557
-35.682
-35.745
-35.747
-35.686
-35.561
-35.371
-35.116
-34.797
-34.414
-33.966
-33.455
-32.884
-32.255
-31.572
-30.841
-30.064
-29.248
-28.397
-27.517
-26.613
-25.692
-24.757
-23.814
-22.871
-21.934
-21.015
-20.12
-19.253
-18.413
-17.599
-16.807
-16.03
-15.259
-14.477
-13.674
-12.838
-11.96
-11.037
-10.063
-9.028
-7.927
-6.747
-5.483
-4.143
-2.731
-1.262
0.241
1.753
3.236
4.636
5.905
6.999
7.869
8.473
8.766
8.698
8.233
7.346
6.008
4.199
1.896
-0.923
-4.254
-8.063
-12.324
-17.022
-22.076
-27.334
-32.549
-37.346
-41.374
-44.388
-46.113
-46.222
-44.592
-41.323
-36.757
-31.705
-26.949
-22.966
-20.312
-19.537
-20.788
-23.877
-28.13
-31.97
-33.757
-32.267
-26.103
-13.872
5.419
32.218
66.145
104.915
145.019
184.16
219.898
250.459
275.801
291.82
292.148
271.364
222.784
147.099
52.98
-51.84
-158.433
-263.678
-372.52
-484.583
-595.236
-694.207
-764.767
-798.265
-795.063
-762.311
-713.639
-658.303
-600.014
-539.445
-474.501
-405.794
-336.454
-270.363
-211.816
-163.002
-124.415
-95.71
-75.488
-62.386
-55.13
-51.783
-50.464
-49.51
-47.343
-43.282
-37.394
-29.885
-21.225
-12.19
-3.49
4.07
9.646
13.002
14.302
13.852
12.158
9.732
7.012
4.522
2.796
2.097
2.509
3.997
6.402
9.608
13.518
17.996
22.888
28.061
33.394
38.791
44.176
49.458
54.535
59.31
63.69
67.622
71.092
74.104
76.688
78.877
80.711
82.243
83.532
84.639
85.62
86.527
87.406
88.304
89.274
90.364
91.624
93.086
94.769
96.684
98.834
101.218
103.832
106.667
109.707
112.939
116.349
119.928
123.665
127.548
131.56
135.684
139.902
144.195
148.547
152.94
157.355
161.772
166.174
170.541
174.855
179.098
183.246
187.28
191.178
194.918
198.479
201.842
204.986
207.894
210.547
212.931
215.031
216.833
218.327
219.501
220.347
220.857
221.024
220.845
220.317
219.437
218.206
216.626
214.699
212.431
209.829
206.899
203.652
200.098
196.249
192.119
187.721
183.072
178.187
173.085
167.783
162.3
156.656
150.87
144.964
138.957
132.869
126.721
120.534
114.326
108.117
101.927
95.775
89.677
83.652
77.717
71.887
66.178
60.604
55.179
49.913
44.82
39.907
35.186
30.662
26.343
22.234
18.338
14.66
11.201
7.961
4.939
2.135
-0.455
-2.834
-5.006
-6.979
-8.756
-10.346
-11.755
-12.993
-14.067
-14.986
-15.76
-16.398
-16.911
-17.308
-17.598
-17.793
-17.902
-17.935
-17.901
-17.809
-17.669
-17.49
-17.278
-17.043
-16.791
-16.529
-16.264
-16.001
-15.746
-15.503
-15.276
-15.069
-14.885
-14.726
-14.594
-14.492
-14.419
-14.376
-14.364
-14.382
-14.43
-14.507
-14.612
-14.743
-14.9
-15.079
-15.279
-15.499
-15.736
-15.988
-16.253
-16.529
-16.815
-17.108
-17.408
-17.712
-18.019
-18.329
-18.639
-18.949
-19.258
-19.566
-19.873
-20.178
-20.482
-20.784
-21.086
-21.388
-21.69
-21.995
-22.302
-22.613
-22.93
-23.253
-23.584
-23.926
-24.278
-24.643
-25.022
-25.417
-25.829
-26.257
-26.704
-27.17
-27.653
-28.156
-28.676
-29.213
-29.767
-30.335
-30.918
-31.513
-32.118
-32.731
-33.351
-33.973
-34.596
-35.215
-35.829
-36.432
-37.021
-37.593
-38.143
-38.667
-39.161
-39.62
-40.04
-40.416
-40.745
-41.021
-41.24
-41.4
-41.497
-41.529
-41.493
-41.389
-41.216
-40.974
-40.666
-40.292
-39.854
-39.355
-38.798
-38.185
-37.521
-36.809
-36.053
-35.259
-34.432
-33.578
-32.705
-31.818
-30.924
-30.031
-29.145
-28.276
-27.43
-26.612
-25.829
-25.085
-24.388
-23.748
-23.17
-22.655
-22.201
-21.808
-21.473
-21.192
-20.956
-20.749
-20.553
-20.352
-20.135
-19.896
-19.628
-19.321
-18.963
-18.536
-18.038
-17.474
-16.855
-16.188
-15.483
-14.752
-14.031
-13.377
-12.846
-12.501
-12.386
-12.537
-12.996
-13.797
-14.98
-16.6
-18.684
-21.25
-24.323
-27.895
-31.989
-36.669
-41.855
-47.365
-52.953
-58.217
-62.824
-66.59
-69.194
-70.244
-69.669
-67.565
-64.335
-60.884
-57.859
-55.552
-54.488
-55.149
-57.501
-61.291
-65.61
-68.626
-68.914
-65.536
-57.189
-42.603
-21.162
7.364
42.377
81.127
121.024
160.802
197.544
229.615
255.75
270.268
269.162
248.668
204.188
138.881
58.014
-33.582
-129.187
-228.509
-334.225
-444.182
-553.763
-652.095
-723.791
-761.099
-763.47
-737.194
-695.218
-646.228
-593.995
-539.513
-480.656
-417.869
-354.022
-292.544
-237.306
-190.401
-152.424
-123.205
-101.636
-86.586
-77.061
-71.528
-68.459
-66.386
-63.748
-59.783
-54.436
-47.805
-40.216
-32.246
-24.421
-17.445
-12.17
-8.898
-7.528
-7.818
-9.312
-11.555
-14.174
-16.671
-18.494
-19.354
-19.136
-17.85
-15.645
-12.635
-8.903
-4.586
0.156
5.182
10.367
15.614
20.855
26
30.951
35.612
39.891
43.74
47.142
50.1
52.641
54.796
56.606
58.124
59.41
60.524
61.523
62.459
63.377
64.328
65.363
66.531
67.881
69.448
71.251
73.304
75.61
78.171
80.986
84.044
87.332
90.839
94.551
98.459
102.552
106.817
111.238
115.795
120.47
125.244
130.097
135.01
139.962
144.932
149.899
154.841
159.737
164.564
169.298
173.915
178.388
182.694
186.809
190.709
194.371
197.773
200.896
203.72
206.229
208.406
210.237
211.709
212.812
213.537
213.875
213.822
213.373
212.528
211.286
209.65
207.623
205.212
202.425
199.271
195.761
191.909
187.729
183.238
178.453
173.393
168.078
162.529
156.768
150.818
144.702
138.444
132.068
125.598
119.059
112.473
105.865
99.257
92.673
86.135
79.663
73.279
67.001
60.848
54.838
48.987
43.309
37.819
32.529
27.451
22.592
17.963
13.57
9.417
5.51
1.85
-1.561
-4.724
-7.64
-10.313
-12.745
-14.942
-16.91
-18.657
-20.189
-21.516
-22.647
-23.591
-24.359
-24.962
-25.41
-25.715
-25.888
-25.941
-25.883
-25.728
-25.484
-25.164
-24.777
-24.333
-23.842
-23.312
-22.753
-22.172
-21.577
-20.974
-20.37
-19.771
-19.182
-18.607
-18.051
-17.515
-17.005
-16.521
-16.067
-15.643
-15.25
-14.89
-14.562
-14.267
-14.004
-13.773
-13.573
-13.403
-13.263
-13.151
-13.066
-13.008
-12.976
-12.968
-12.984
-13.023
-13.084
-13.167
-13.271
-13.396
-13.541
-13.707
-13.893
-14.098
-14.324
-14.57
-14.836
-15.122
-15.427
-15.752
-16.095
-16.456
-16.834
-17.229
-17.64
-18.065
-18.504
-18.955
-19.417
-19.888
-20.367
-20.85
-21.337
-21.823
-22.308
-22.787
-23.257
-23.715
-24.158
-24.583
-24.985
-25.36
-25.705
-26.016
-26.289
-26.52
-26.706
-26.845
-26.932
-26.967
-26.948
-26.873
-26.743
-26.558
-26.319
-26.027
-25.684
-25.293
-24.855
-24.373
-23.851
-23.291
-22.697
-22.074
-21.426
-20.76
-20.081
-19.396
-18.71
-18.03
-17.362
-16.714
-16.093
-15.502
-14.945
-14.427
-13.954
-13.534
-13.173
-12.869
-12.619
-12.421
-12.271
-12.165
-12.091
-12.033
-11.973
-11.895
-11.788
-11.649
-11.471
-11.247
-10.962
-10.603
-10.164
-9.65
-9.07
-8.432
-7.742
-7.013
-6.28
-5.596
-5.016
-4.597
-4.377
-4.387
-4.663
-5.228
-6.124
-7.402
-9.09
-11.218
-13.804
-16.843
-20.36
-24.403
-28.907
-33.709
-38.558
-43.087
-47.002
-50.126
-52.211
-52.937
-52.14
-49.895
-46.58
-42.914
-39.545
-36.788
-34.957
-34.547
-35.831
-38.647
-42.313
-45.45
-46.6
-44.894
-39.356
-28.505
-11.172
13.29
44.075
78.504
114.049
149.315
184.645
220.796
255.709
283.682
295.007
280.029
234.646
161.752
71.231
-26.026
-123.72
-221.542
-323.212
-429.21
-533.545
-624.418
-689.132
-721.434
-723.3
-703.271
-670.59
-630.942
-586.127
-534.856
-477.231
-415.609
-353.139
-294.012
-241.142
-195.764
-158.667
-129.662
-107.821
-92.242
-81.895
-75.295
-71.033
-67.71
-63.815
-58.617
-52.084
-44.338
-35.721
-26.791
-18.058
-10.206
-4.09
-0.042
2.026
2.346
1.358
-0.504
-2.885
-5.31
-7.238
-8.338
-8.467
-7.606
-5.876
-3.378
-0.175
3.62
7.871
12.454
17.253
22.171
27.143
32.095
36.938
41.586
45.954
49.965
53.587
56.811
59.649
62.13
64.287
66.158
67.794
69.254
70.594
71.867
73.12
74.392
75.729
77.176
78.778
80.578
82.603
84.866
87.376
90.134
93.138
96.382
99.855
103.538
107.416
111.475
115.7
120.078
124.593
129.223
133.948
138.746
143.594
148.472
153.356
158.224
163.051
167.816
172.495
177.066
181.506
185.791
189.897
193.799
197.474
200.9
204.056
206.922
209.478
211.707
213.595
215.128
216.295
217.086
217.493
217.51
217.133
216.36
215.191
213.627
211.673
209.334
206.617
203.533
200.093
196.309
192.196
187.771
183.05
178.054
172.801
167.312
161.611
155.719
149.659
143.456
137.134
130.717
124.228
117.693
111.135
104.577
98.042
91.552
85.128
78.79
72.558
66.449
60.481
54.67
49.029
43.574
38.314
33.262
28.425
23.813
19.43
15.282
11.372
7.702
4.274
1.085
-1.865
-4.58
-7.064
-9.323
-11.362
-13.189
-14.812
-16.24
-17.482
-18.548
-19.448
-20.193
-20.794
-21.262
-21.607
-21.842
-21.977
-22.022
-21.989
-21.887
-21.726
-21.516
-21.265
-20.982
-20.675
-20.351
-20.016
-19.677
-19.339
-19.007
-18.685
-18.376
-18.084
-17.81
-17.557
-17.325
-17.116
-16.929
-16.765
-16.622
-16.501
-16.399
-16.316
-16.249
-16.198
-16.159
-16.131
-16.111
-16.098
-16.09
-16.085
-16.08
-16.074
-16.066
-16.054
-16.037
-16.015
-15.986
-15.951
-15.909
-15.859
-15.803
-15.741
-15.674
-15.602
-15.527
-15.451
-15.374
-15.3
-15.229
-15.165
-15.109
-15.064
-15.032
-15.015
-15.017
-15.04
-15.085
-15.157
-15.256
-15.386
-15.547
-15.743
-15.973
-16.24
-16.543
-16.884
-17.263
-17.678
-18.131
-18.619
-19.141
-19.698
-20.285
-20.903
-21.547
-22.217
-22.907
-23.616
-24.339
-25.072
-25.812
-26.553
-27.29
-28.02
-28.737
-29.436
-30.11
-30.755
-31.365
-31.934
-32.457
-32.928
-33.343
-33.696
-33.985
-34.206
-34.356
-34.433
-34.437
-34.368
-34.224
-34.006
-33.716
-33.354
-32.922
-32.422
-31.856
-31.228
-30.54
-29.799
-29.01
-28.18
-27.314
-26.419
-25.502
-24.57
-23.631
-22.693
-21.762
-20.844
-19.947
-19.079
-18.252
-17.473
-16.744
-16.065
-15.435
-14.849
-14.304
-13.79
-13.291
-12.795
-12.288
-11.759
-11.206
-10.624
-10.004
-9.339
-8.613
-7.82
-6.966
-6.058
-5.111
-4.144
-3.174
-2.233
-1.378
-0.657
-0.119
0.181
0.216
-0.048
-0.654
-1.62
-2.987
-4.793
-7.052
-9.789
-13.018
-16.715
-20.887
-25.554
-30.622
-35.932
-41.242
-46.184
-50.454
-53.844
-56.084
-56.839
-55.937
-53.459
-49.78
-45.619
-41.692
-38.401
-36.118
-35.416
-36.621
-39.538
-43.495
-47.12
-48.743
-47.291
-41.838
-30.832
-13.009
12.048
44.271
81.708
120.761
159.609
196.719
230.263
260.228
282.799
291.01
279.041
240.372
174.186
87.325
-11.937
-114.752
-216.182
-317.926
-421.875
-526.005
-623.437
-701.834
-749.989
-764.363
-748.48
-711.681
-663.94
-610.838
-554.142
-493.41
-428.858
-362.644
-298.375
-239.997
-190.026
-149.564
-118.56
-95.863
-80.199
-70.452
-65.007
-62.168
-60.283
-57.623
-53.309
-47.287
-39.732
-31.027
-21.794
-12.65
-4.388
2.034
6.219
8.247
8.375
7.078
4.825
2.012
-0.849
-3.175
-4.615
-5.019
-4.375
-2.816
-0.454
2.637
6.335
10.495
14.984
19.681
24.483
29.322
34.12
38.782
43.221
47.344
51.076
54.379
57.247
59.691
61.739
63.427
64.794
65.892
66.781
67.521
68.164
68.762
69.355
69.991
70.719
71.584
72.632
73.891
75.377
77.101
79.064
81.269
83.71
86.38
89.262
92.343
95.613
99.06
102.675
106.444
110.35
114.376
118.503
122.713
126.989
131.311
135.66
140.016
144.359
148.671
152.931
157.12
161.215
165.194
169.036
172.718
176.219
179.518
182.596
185.434
188.013
190.319
192.336
194.052
195.454
196.532
197.278
197.683
197.744
197.454
196.813
195.82
194.475
192.782
190.744
188.368
185.662
182.634
179.295
175.658
171.734
167.54
163.091
158.403
153.495
148.384
143.091
137.634
132.036
126.315
120.494
114.594
108.635
102.638
96.624
90.613
84.625
78.678
72.792
66.984
61.271
55.669
50.194
44.86
39.68
34.667
29.831
25.183
20.731
16.482
12.444
8.621
5.017
1.635
-1.524
-4.46
-7.173
-9.666
-11.941
-14.002
-15.854
-17.503
-18.956
-20.22
-21.301
-22.21
-22.954
-23.543
-23.986
-24.293
-24.474
-24.539
-24.498
-24.361
-24.139
-23.839
-23.474
-23.05
-22.579
-22.068
-21.525
-20.959
-20.377
-19.787
-19.193
-18.604
-18.023
-17.456
-16.907
-16.381
-15.88
-15.407
-14.965
-14.556
-14.181
-13.842
-13.539
-13.272
-13.041
-12.847
-12.688
-12.564
-12.474
-12.418
-12.393
-12.399
-12.434
-12.497
-12.587
-12.702
-12.841
-13.002
-13.184
-13.385
-13.604
-13.841
-14.093
-14.361
-14.643
-14.939
-15.248
-15.569
-15.904
-16.25
-16.609
-16.98
-17.364
-17.76
-18.169
-18.592
-19.028
-19.478
-19.942
-20.421
-20.914
-21.42
-21.941
-22.474
-23.019
-23.575
-24.142
-24.717
-25.3
-25.889
-26.483
-27.079
-27.676
-28.271
-28.862
-29.447
-30.021
-30.583
-31.128
-31.655
-32.158
-32.635
-33.082
-33.495
-33.87
-34.203
-34.491
-34.728
-34.911
-35.036
-35.101
-35.103
-35.038
-34.906
-34.705
-34.436
-34.098
-33.694
-33.225
-32.691
-32.095
-31.44
-30.729
-29.964
-29.15
-28.289
-27.388
-26.451
-25.486
-24.499
-23.496
-22.484
-21.469
-20.459
-19.461
-18.482
-17.528
-16.604
-15.717
-14.875
-14.088
-13.362
-12.698
-12.096
-11.552
-11.063
-10.623
-10.224
-9.849
-9.482
-9.112
-8.725
-8.316
-7.878
-7.399
-6.868
-6.269
-5.595
-4.849
-4.038
-3.171
-2.261
-1.327
-0.398
0.47
1.231
1.834
2.226
2.37
2.222
1.737
0.889
-0.361
-2.053
-4.208
-6.849
-10.004
-13.658
-17.818
-22.517
-27.65
-33.043
-38.454
-43.487
-47.806
-51.21
-53.383
-53.954
-52.867
-50.242
-46.476
-42.458
-38.838
-35.917
-34.223
-34.26
-36.011
-39.205
-42.964
-45.493
-45.37
-41.656
-33.112
-18.528
2.821
31.205
66.013
104.712
144.059
182.139
216.856
246.764
272.134
289.135
291.527
274.062
229.988
159.506
70.463
-30.051
-133.698
-237.456
-345.452
-457.162
-568.294
-669.142
-743.894
-783.9
-788.505
-763.524
-721.447
-670.934
-615.779
-557.161
-493.45
-425.532
-356.595
-290.413
-231.173
-181.204
-141.255
-111.183
-89.756
-75.623
-67.541
-63.692
-62.252
-61.528
-59.829
-56.339
-51.038
-44.116
-36.008
-27.42
-19.017
-11.597
-6.063
-2.723
-1.454
-1.971
-3.771
-6.352
-9.292
-12.061
-14.098
-15.11
-14.994
-13.77
-11.598
-8.599
-4.865
-0.54
4.215
9.257
14.46
19.727
24.983
30.136
35.083
39.728
43.976
47.777
51.114
53.992
56.437
58.484
60.174
61.561
62.708
63.675
64.521
65.3
66.058
66.846
67.718
68.723
69.913
71.321
72.968
74.866
77.019
79.428
82.091
84.997
88.132
91.482
95.035
98.78
102.707
106.802
111.046
115.423
119.911
124.492
129.146
133.854
138.594
143.344
148.085
152.795
157.452
162.035
166.519
170.881
175.096
179.14
182.991
186.625
190.02
193.156
196.014
198.574
200.823
202.744
204.325
205.554
206.421
206.917
207.037
206.776
206.132
205.102
203.689
201.894
199.724
197.184
194.284
191.032
187.441
183.524
179.297
174.775
169.977
164.92
159.625
154.112
148.404
142.522
136.488
130.327
124.062
117.716
111.312
104.874
98.424
91.984
85.577
79.224
72.945
66.759
60.687
54.745
48.951
43.321
37.868
32.607
27.549
22.706
18.086
13.697
9.546
5.639
1.978
-1.433
-4.593
-7.504
-10.165
-12.581
-14.754
-16.691
-18.396
-19.878
-21.143
-22.2
-23.06
-23.73
-24.222
-24.547
-24.716
-24.74
-24.63
-24.399
-24.058
-23.619
-23.094
-22.493
-21.828
-21.11
-20.348
-19.554
-18.735
-17.902
-17.063
-16.226
-15.397
-14.584
-13.793
-13.028
-12.295
-11.597
-10.938
-10.321
-9.748
-9.221
-8.741
-8.309
-7.924
-7.587
-7.297
-7.053
-6.854
-6.697
-6.581
-6.504
-6.463
-6.457
-6.481
-6.534
-6.612
-6.714
-6.836
-6.975
-7.13
-7.296
-7.472
-7.656
-7.844
-8.037
-8.23
-8.424
-8.617
-8.807
-8.994
-9.176
-9.354
-9.527
-9.695
-9.857
-10.015
-10.168
-10.317
-10.462
-10.606
-10.748
-10.891
-11.035
-11.181
-11.332
-11.489
-11.653
-11.826
-12.01
-12.206
-12.416
-12.642
-12.885
-13.147
-13.427
-13.727
-14.048
-14.389
-14.751
-15.132
-15.533
-15.952
-16.39
-16.843
-17.312
-17.794
-18.287
-18.788
-19.297
-19.808
-20.32
-20.829
-21.331
-21.822
-22.3
-22.759
-23.196
-23.606
-23.985
-24.328
-24.63
-24.887
-25.094
-25.247
-25.342
-25.375
-25.343
-25.244
-25.076
-24.839
-24.532
-24.156
-23.713
-23.203
-22.627
-21.99
-21.292
-20.537
-19.728
-18.869
-17.964
-17.019
-16.041
-15.037
-14.013
-12.976
-11.934
-10.893
-9.863
-8.851
-7.861
-6.901
-5.977
-5.099
-4.277
-3.518
-2.825
-2.197
-1.632
-1.126
-0.674
-0.264
0.122
0.498
0.882
1.283
1.706
2.159
2.652
3.196
3.807
4.493
5.246
6.062
6.928
7.828
8.742
9.631
10.434
11.1
11.575
11.806
11.759
11.389
10.654
9.528
7.974
5.96
3.473
0.491
-2.996
-6.969
-11.421
-16.348
-21.647
-27.156
-32.633
-37.729
-42.13
-45.589
-47.825
-48.496
-47.409
-44.635
-40.508
-35.685
-30.873
-26.51
-23.036
-21.117
-21.169
-23.076
-26.259
-29.457
-31.072
-30.017
-25.271
-15.177
1.658
25.76
57.118
93.903
132.577
171.211
208.113
241.365
270.886
292.681
299.61
285.657
243.92
174.33
84.805
-16.845
-121.754
-226.779
-336.166
-449.638
-563.164
-666.601
-743.116
-783.551
-787.105
-760.033
-715.942
-664.182
-608.742
-550.68
-487.847
-420.734
-352.411
-286.622
-227.618
-177.781
-137.844
-107.657
-86.009
-71.593
-63.234
-59.174
-57.628
-56.911
-55.3
-51.94
-46.778
-39.955
-31.867
-23.192
-14.569
-6.808
-0.849
2.964
4.73
4.701
3.361
1.193
-1.398
-3.888
-5.698
-6.53
-6.276
-4.951
-2.718
0.302
4.023
8.301
12.978
17.912
22.982
28.094
33.181
38.157
42.924
47.387
51.451
55.066
58.217
60.909
63.169
65.032
66.538
67.741
68.706
69.492
70.158
70.758
71.338
71.949
72.644
73.475
74.494
75.737
77.226
78.976
80.991
83.274
85.824
88.63
91.68
94.959
98.457
102.162
106.064
110.15
114.401
118.8
123.327
127.96
132.682
137.471
142.305
147.164
152.024
156.864
161.662
166.396
171.04
175.569
179.957
184.181
188.214
192.034
195.617
198.941
201.984
204.728
207.157
209.253
211.003
212.394
213.416
214.058
214.315
214.182
213.654
212.731
211.413
209.703
207.605
205.126
202.274
199.059
195.492
191.588
187.36
182.826
178.003
172.91
167.568
161.997
156.219
150.258
144.136
137.878
131.507
125.048
118.525
111.961
105.38
98.804
92.258
85.761
79.335
73.001
66.777
60.681
54.731
48.943
43.331
37.909
32.689
27.682
22.897
18.342
14.023
9.947
6.116
2.534
-0.8
-3.885
-6.723
-9.316
-11.67
-13.788
-15.678
-17.346
-18.801
-20.051
-21.105
-21.975
-22.67
-23.2
-23.579
-23.816
-23.923
-23.913
-23.795
-23.583
-23.286
-22.917
-22.486
-22.003
-21.479
-20.923
-20.344
-19.751
-19.152
-18.554
-17.965
-17.391
-16.836
-16.308
-15.809
-15.344
-14.915
-14.527
-14.18
-13.876
-13.617
-13.402
-13.232
-13.107
-13.026
-12.987
-12.991
-13.034
-13.116
-13.234
-13.386
-13.57
-13.784
-14.025
-14.29
-14.578
-14.885
-15.209
-15.548
-15.898
-16.258
-16.625
-16.997
-17.373
-17.749
-18.124
-18.497
-18.865
-19.229
-19.586
-19.936
-20.278
-20.611
-20.935
-21.25
-21.556
-21.852
-22.139
-22.417
-22.686
-22.948
-23.202
-23.449
-23.691
-23.928
-24.161
-24.393
-24.623
-24.854
-25.087
-25.324
-25.566
-25.816
-26.075
-26.344
-26.627
-26.923
-27.236
-27.567
-27.918
-28.289
-28.682
-29.097
-29.536
-29.999
-30.484
-30.994
-31.526
-32.081
-32.658
-33.255
-33.872
-34.507
-35.159
-35.825
-36.503
-37.191
-37.885
-38.583
-39.28
-39.975
-40.662
-41.337
-41.997
-42.637
-43.252
-43.838
-44.388
-44.899
-45.365
-45.782
-46.144
-46.448
-46.69
-46.868
-46.978
-47.019
-46.991
-46.894
-46.727
-46.491
-46.187
-45.815
-45.378
-44.877
-44.314
-43.692
-43.015
-42.288
-41.517
-40.708
-39.867
-39.002
-38.118
-37.222
-36.323
-35.426
-34.537
-33.663
-32.812
-31.993
-31.216
-30.491
-29.817
-29.198
-28.629
-28.104
-27.619
-27.161
-26.713
-26.262
-25.797
-25.308
-24.791
-24.239
-23.642
-22.991
-22.272
-21.478
-20.612
-19.68
-18.692
-17.67
-16.638
-15.63
-14.7
-13.891
-13.244
-12.8
-12.596
-12.668
-13.06
-13.804
-14.919
-16.432
-18.359
-20.721
-23.537
-26.8
-30.478
-34.545
-38.99
-43.737
-48.637
-53.453
-57.816
-61.385
-63.922
-65.164
-64.785
-62.665
-58.908
-53.877
-48.408
-43.319
-39.11
-36.321
-35.492
-36.772
-39.96
-44.352
-48.336
-50.159
-48.52
-42.105
-29.557
-9.928
17.148
51.378
90.526
130.897
170.176
206.199
237.401
264.134
282.557
285.921
268.468
223.401
151.204
60.273
-41.775
-146.314
-250.399
-358.378
-469.748
-580.257
-680.126
-753.421
-791.655
-794.476
-767.989
-724.86
-673.75
-618.253
-559.326
-495.267
-426.943
-357.599
-291.088
-231.581
-181.375
-141.184
-110.83
-89.079
-74.588
-66.094
-61.75
-59.712
-58.276
-55.774
-51.429
-45.251
-37.454
-28.501
-19.129
-10.026
-2.008
4.034
7.794
9.396
9.13
7.501
5.007
2.079
-0.764
-2.973
-4.238
-4.432
-3.563
-1.765
0.849
4.189
8.126
12.514
17.218
22.121
27.123
32.151
37.121
41.941
46.522
50.78
54.647
58.086
61.093
63.684
65.889
67.748
69.304
70.611
71.731
72.724
73.645
74.545
75.468
76.46
77.569
78.84
80.314
82.019
83.968
86.169
88.624
91.33
94.282
97.468
100.871
104.478
108.273
112.245
116.38
120.665
125.079
129.605
134.221
138.908
143.647
148.418
153.199
157.969
162.708
167.393
172.005
176.522
180.92
185.177
189.269
193.174
196.871
200.337
203.554
206.5
209.16
211.517
213.557
215.267
216.636
217.653
218.312
218.604
218.526
218.074
217.248
216.047
214.474
212.532
210.228
207.567
204.561
201.217
197.55
193.572
189.297
184.742
179.924
174.862
169.573
164.079
158.399
152.556
146.571
140.467
134.265
127.988
121.658
115.297
108.928
102.57
96.244
89.972
83.771
77.661
71.658
65.781
60.044
54.462
49.049
43.816
38.776
33.938
29.309
24.899
20.711
16.752
13.024
9.529
6.268
3.241
0.445
-2.122
-4.465
-6.587
-8.497
-10.2
-11.704
-13.018
-14.151
-15.113
-15.915
-16.566
-17.077
-17.461
-17.727
-17.886
-17.951
-17.932
-17.84
-17.685
-17.478
-17.227
-16.944
-16.635
-16.31
-15.977
-15.641
-15.311
-14.992
-14.689
-14.406
-14.148
-13.919
-13.72
-13.554
-13.422
-13.325
-13.264
-13.238
-13.246
-13.287
-13.36
-13.462
-13.592
-13.746
-13.922
-14.117
-14.327
-14.551
-14.784
-15.024
-15.268
-15.511
-15.753
-15.989
-16.218
-16.437
-16.644
-16.837
-17.014
-17.175
-17.317
-17.441
-17.544
-17.628
-17.692
-17.735
-17.759
-17.764
-17.75
-17.72
-17.674
-17.614
-17.542
-17.459
-17.368
-17.271
-17.17
-17.067
-16.964
-16.863
-16.768
-16.679
-16.6
-16.532
-16.477
-16.438
-16.416
-16.412
-16.429
-16.468
-16.531
-16.617
-16.73
-16.868
-17.034
-17.228
-17.451
-17.702
-17.982
-18.291
-18.628
-18.993
-19.385
-19.803
-20.244
-20.708
-21.193
-21.695
-22.215
-22.748
-23.293
-23.848
-24.409
-24.973
-25.539
-26.102
-26.66
-27.21
-27.747
-28.269
-28.772
-29.253
-29.709
-30.135
-30.528
-30.885
-31.202
-31.475
-31.701
-31.876
-31.997
-32.062
-32.068
-32.013
-31.897
-31.718
-31.477
-31.175
-30.813
-30.392
-29.915
-29.383
-28.8
-28.166
-27.487
-26.763
-25.999
-25.198
-24.367
-23.511
-22.636
-21.747
-20.849
-19.95
-19.054
-18.169
-17.3
-16.453
-15.631
-14.84
-14.087
-13.382
-12.73
-12.13
-11.581
-11.079
-10.621
-10.199
-9.804
-9.418
-9.026
-8.614
-8.171
-7.692
-7.169
-6.594
-5.955
-5.238
-4.439
-3.562
-2.618
-1.618
-0.575
0.49
1.543
2.528
3.395
4.094
4.573
4.796
4.716
4.292
3.494
2.29
0.648
-1.451
-4.022
-7.087
-10.631
-14.654
-19.176
-24.095
-29.244
-34.386
-39.144
-43.197
-46.335
-48.26
-48.614
-47.339
-44.551
-40.627
-36.428
-32.573
-29.352
-27.307
-26.95
-28.298
-31.159
-34.702
-37.149
-37.248
-34.226
-26.697
-13.396
6.448
33.473
66.372
101.832
137.537
171.964
204.773
236.892
266.568
288.128
292.731
271.535
220.109
141.477
46.153
-55.079
-155.594
-254.775
-357.196
-463.813
-568.296
-658.502
-721.28
-749.803
-746.421
-720.566
-681.8
-636.267
-586.043
-529.514
-466.742
-400.22
-333.182
-270.198
-214.622
-167.76
-130.345
-102.071
-81.742
-68.27
-60.432
-56.424
-54.571
-53.329
-51.145
-47.31
-41.857
-34.959
-27.034
-18.789
-10.832
-3.895
1.188
4.161
5.16
4.457
2.531
-0.133
-3.133
-5.966
-8.099
-9.259
-9.347
-8.382
-6.512
-3.846
-0.468
3.488
7.874
12.558
17.425
22.381
27.357
32.266
37.008
41.49
45.617
49.339
52.638
55.517
58.004
60.129
61.932
63.463
64.783
65.948
67.015
68.033
69.046
70.102
71.25
72.54
74.021
75.726
77.674
79.877
82.337
85.055
88.027
91.242
94.683
98.338
102.191
106.233
110.451
114.831
119.356
124.006
128.761
133.6
138.506
143.457
148.432
153.41
158.369
163.289
168.149
172.927
177.599
182.141
186.529
190.74
194.749
198.535
202.076
205.349
208.336
211.02
213.383
215.412
217.091
218.411
219.359
219.928
220.11
219.902
219.299
218.3
216.905
215.117
212.94
210.38
207.444
204.141
200.484
196.484
192.157
187.516
182.58
177.367
171.896
166.187
160.263
154.144
147.854
141.415
134.852
128.189
121.449
114.655
107.831
101
94.184
87.407
80.688
74.048
67.508
61.087
54.802
48.67
42.707
36.928
31.346
25.972
20.818
15.892
11.203
6.756
2.558
-1.39
-5.083
-8.523
-11.708
-14.641
-17.325
-19.764
-21.963
-23.929
-25.668
-27.189
-28.501
-29.612
-30.534
-31.275
-31.848
-32.263
-32.532
-32.666
-32.677
-32.576
-32.375
-32.085
-31.717
-31.282
-30.791
-30.253
-29.677
-29.074
-28.451
-27.817
-27.179
-26.544
-25.917
-25.306
-24.714
-24.145
-23.604
-23.094
-22.617
-22.176
-21.771
-21.405
-21.077
-20.787
-20.537
-20.324
-20.149
-20.011
-19.907
-19.838
-19.8
-19.793
-19.814
-19.862
-19.935
-20.031
-20.147
-20.282
-20.434
-20.6
-20.78
-20.972
-21.174
-21.385
-21.603
-21.827
-22.058
-22.292
-22.531
-22.774
-23.019
-23.267
-23.518
-23.771
-24.026
-24.284
-24.544
-24.807
-25.073
-25.342
-25.615
-25.891
-26.171
-26.455
-26.744
-27.037
-27.336
-27.641
-27.951
-28.267
-28.59
-28.919
-29.254
-29.594
-29.94
-30.29
-30.644
-31.001
-31.359
-31.717
-32.074
-32.428
-32.778
-33.121
-33.455
-33.78
-34.091
-34.388
-34.667
-34.927
-35.164
-35.377
-35.561
-35.715
-35.837
-35.922
-35.97
-35.975
-35.937
-35.852
-35.717
-35.531
-35.29
-34.994
-34.64
-34.228
-33.758
-33.23
-32.644
-32.004
-31.311
-30.567
-29.775
-28.939
-28.062
-27.148
-26.201
-25.225
-24.224
-23.204
-22.17
-21.13
-20.09
-19.055
-18.032
-17.026
-16.046
-15.098
-14.188
-13.32
-12.498
-11.727
-11.014
-10.365
-9.787
-9.277
-8.833
-8.451
-8.128
-7.857
-7.627
-7.421
-7.222
-7.012
-6.782
-6.526
-6.237
-5.907
-5.521
-5.063
-4.529
-3.921
-3.247
-2.519
-1.742
-0.931
-0.122
0.634
1.281
1.759
2.032
2.068
1.831
1.296
0.42
-0.845
-2.529
-4.662
-7.256
-10.308
-13.84
-17.896
-22.424
-27.272
-32.197
-36.844
-40.915
-44.211
-46.479
-47.39
-46.733
-44.546
-41.169
-37.296
-33.616
-30.514
-28.33
-27.597
-28.682
-31.499
-35.443
-39.175
-41.129
-40.316
-35.748
-25.886
-9.402
14.494
45.239
80.316
116.953
153.656
190.792
228.997
266.574
297.929
313.046
302.25
260.588
190.076
100.489
2.386
-96.87
-195.694
-298.662
-406.82
-516.138
-616.693
-692.953
-736.147
-745.127
-725.205
-688.471
-643.215
-593.276
-540.119
-482.096
-419.925
-356.497
-295.08
-239.55
-192.221
-153.855
-124.401
-102.78
-87.733
-78.215
-72.724
-69.684
-67.56
-64.727
-60.37
-54.442
-47.113
-38.745
-29.912
-21.188
-13.319
-7.226
-3.285
-1.415
-1.371
-2.699
-4.949
-7.749
-10.602
-12.936
-14.404
-14.859
-14.284
-12.805
-10.528
-7.521
-3.9
0.193
4.629
9.288
14.071
18.914
23.741
28.46
32.985
37.225
41.106
44.591
47.674
50.366
52.694
54.693
56.401
57.871
59.161
60.329
61.428
62.506
63.604
64.768
66.043
67.478
69.113
70.977
73.084
75.444
78.058
80.926
84.042
87.396
90.969
94.749
98.72
102.871
107.188
111.655
116.255
120.965
125.765
130.635
135.554
140.5
145.452
150.386
155.281
160.114
164.865
169.51
174.026
178.39
182.577
186.565
190.331
193.853
197.112
200.087
202.761
205.119
207.146
208.83
210.159
211.125
211.72
211.939
211.779
211.236
210.312
209.008
207.328
205.277
202.864
200.096
196.985
193.543
189.784
185.722
181.375
176.761
171.896
166.802
161.498
156.005
150.346
144.541
138.614
132.586
126.481
120.319
114.124
107.916
101.717
95.545
89.422
83.366
77.393
71.522
65.768
60.145
54.668
49.348
44.197
39.225
34.441
29.853
25.465
21.285
17.315
13.558
10.015
6.687
3.574
0.672
-2.019
-4.505
-6.789
-8.878
-10.775
-12.49
-14.028
-15.397
-16.605
-17.661
-18.573
-19.349
-19.998
-20.53
-20.952
-21.273
-21.502
-21.646
-21.714
-21.714
-21.651
-21.535
-21.371
-21.165
-20.923
-20.651
-20.353
-20.035
-19.7
-19.352
-18.995
-18.631
-18.264
-17.896
-17.529
-17.164
-16.804
-16.45
-16.102
-15.761
-15.429
-15.106
-14.792
-14.488
-14.194
-13.91
-13.637
-13.375
-13.124
-12.885
-12.657
-12.442
-12.238
-12.047
-11.869
-11.704
-11.553
-11.416
-11.293
-11.185
-11.091
-11.013
-10.951
-10.904
-10.873
-10.858
-10.86
-10.877
-10.91
-10.959
-11.023
-11.103
-11.197
-11.306
-11.429
-11.565
-11.713
-11.874
-12.045
-12.227
-12.418
-12.618
-12.826
-13.041
-13.262
-13.488
-13.718
-13.952
-14.189
-14.429
-14.67
-14.912
-15.154
-15.397
-15.641
-15.884
-16.128
-16.373
-16.618
-16.864
-17.111
-17.36
-17.612
-17.868
-18.127
-18.392
-18.662
-18.938
-19.221
-19.512
-19.811
-20.119
-20.434
-20.758
-21.091
-21.43
-21.777
-22.131
-22.49
-22.854
-23.222
-23.592
-23.964
-24.335
-24.703
-25.066
-25.422
-25.769
-26.103
-26.422
-26.723
-27.003
-27.259
-27.487
-27.683
-27.845
-27.969
-28.052
-28.09
-28.08
-28.021
-27.909
-27.744
-27.524
-27.25
-26.922
-26.541
-26.108
-25.627
-25.098
-24.525
-23.91
-23.259
-22.573
-21.856
-21.112
-20.348
-19.567
-18.777
-17.984
-17.193
-16.412
-15.646
-14.903
-14.189
-13.513
-12.877
-12.286
-11.744
-11.259
-10.839
-10.488
-10.207
-9.991
-9.836
-9.739
-9.691
-9.681
-9.69
-9.697
-9.685
-9.641
-9.559
-9.432
-9.252
-9.003
-8.669
-8.242
-7.726
-7.13
-6.465
-5.739
-4.967
-4.187
-3.457
-2.837
-2.392
-2.163
-2.182
-2.483
-3.088
-4.041
-5.393
-7.176
-9.418
-12.135
-15.317
-18.986
-23.192
-27.87
-32.848
-37.863
-42.53
-46.534
-49.683
-51.726
-52.333
-51.324
-48.771
-45.046
-40.876
-36.976
-33.702
-31.364
-30.468
-31.281
-33.618
-36.837
-39.583
-40.241
-37.842
-31.561
-19.963
-1.919
22.974
54.688
91.316
129.494
167.673
204.522
238.336
269.282
293.691
304.651
296.504
262.361
200.6
117.657
21.439
-79.517
-180.204
-282.815
-389.997
-499.696
-604.428
-690.808
-746.327
-766.423
-754.577
-720.538
-674.498
-622.868
-567.854
-508.466
-444.818
-378.804
-313.641
-253.994
-202.999
-161.681
-130.031
-106.816
-90.493
-80.193
-74.627
-71.842
-70.005
-67.369
-62.929
-56.712
-49.041
-40.189
-30.658
-21.17
-12.563
-5.844
-1.499
0.595
0.737
-0.612
-2.973
-5.933
-8.963
-11.459
-13.044
-13.572
-13.026
-11.541
-9.234
-6.174
-2.484
1.695
6.237
11.02
15.947
20.943
25.921
30.783
35.434
39.778
43.736
47.265
50.351
53.008
55.267
57.162
58.736
60.039
61.131
62.072
62.918
63.718
64.519
65.368
66.315
67.409
68.696
70.205
71.956
73.956
76.21
78.715
81.47
84.463
87.679
91.103
94.723
98.528
102.506
106.643
110.921
115.32
119.821
124.404
129.05
133.738
138.448
143.157
147.844
152.488
157.069
161.564
165.95
170.203
174.3
178.218
181.934
185.428
188.678
191.665
194.371
196.78
198.878
200.65
202.087
203.177
203.913
204.288
204.298
203.939
203.211
202.113
200.649
198.821
196.637
194.104
191.23
188.027
184.508
180.685
176.574
172.192
167.556
162.683
157.594
152.309
146.848
141.232
135.484
129.624
123.674
117.658
111.594
105.506
99.412
93.334
87.291
81.302
75.383
69.554
63.828
58.223
52.752
47.428
42.263
37.269
32.454
27.827
23.396
19.165
15.14
11.325
7.72
4.328
1.148
-1.82
-4.581
-7.135
-9.489
-11.646
-13.614
-15.397
-17.003
-18.441
-19.717
-20.841
-21.821
-22.666
-23.385
-23.987
-24.481
-24.876
-25.181
-25.404
-25.555
-25.641
-25.67
-25.65
-25.588
-25.49
-25.364
-25.215
-25.048
-24.869
-24.681
-24.488
-24.295
-24.105
-23.919
-23.74
-23.57
-23.41
-23.262
-23.126
-23.003
-22.893
-22.797
-22.713
-22.643
-22.585
-22.54
-22.506
-22.485
-22.474
-22.473
-22.483
-22.503
-22.532
-22.569
-22.616
-22.671
-22.734
-22.806
-22.886
-22.974
-23.072
-23.178
-23.293
-23.418
-23.553
-23.698
-23.854
-24.021
-24.199
-24.389
-24.591
-24.805
-25.031
-25.27
-25.52
-25.784
-26.059
-26.346
-26.644
-26.953
-27.272
-27.6
-27.937
-28.283
-28.635
-28.994
-29.358
-29.725
-30.096
-30.469
-30.842
-31.214
-31.585
-31.952
-32.314
-32.671
-33.022
-33.365
-33.7
-34.025
-34.341
-34.646
-34.939
-35.221
-35.49
-35.748
-35.993
-36.226
-36.446
-36.655
-36.852
-37.037
-37.21
-37.372
-37.522
-37.66
-37.785
-37.899
-38
-38.088
-38.163
-38.225
-38.272
-38.305
-38.324
-38.326
-38.313
-38.281
-38.231
-38.16
-38.069
-37.954
-37.815
-37.65
-37.458
-37.235
-36.982
-36.693
-36.369
-36.006
-35.602
-35.154
-34.662
-34.124
-33.538
-32.904
-32.223
-31.494
-30.72
-29.903
-29.044
-28.144
-27.207
-26.236
-25.233
-24.203
-23.147
-22.069
-20.975
-19.871
-18.762
-17.654
-16.553
-15.465
-14.397
-13.354
-12.344
-11.372
-10.443
-9.563
-8.736
-7.971
-7.277
-6.66
-6.119
-5.653
-5.258
-4.927
-4.654
-4.428
-4.229
-4.044
-3.857
-3.653
-3.431
-3.178
-2.886
-2.544
-2.133
-1.643
-1.078
-0.439
0.263
1.007
1.78
2.55
3.263
3.873
4.331
4.579
4.591
4.331
3.759
2.856
1.579
-0.116
-2.248
-4.849
-7.929
-11.467
-15.471
-19.968
-24.873
-30.037
-35.217
-40.046
-44.223
-47.542
-49.736
-50.473
-49.547
-47.007
-43.203
-38.832
-34.618
-30.972
-28.244
-27.002
-27.602
-29.898
-33.287
-36.44
-37.686
-35.979
-30.441
-19.544
-2.042
22.555
54.298
91.332
130.224
169.342
207.333
242.39
274.559
300.119
312.019
304.566
270.929
209.366
126.222
29.338
-72.788
-175.02
-279.43
-388.67
-500.73
-608.096
-697.222
-755.316
-777.532
-767.309
-734.471
-689.221
-638.012
-582.935
-522.861
-458.07
-390.617
-323.667
-261.938
-208.54
-164.421
-129.947
-104.204
-85.597
-73.262
-66.035
-61.962
-59.425
-56.919
-53.039
-47.469
-40.499
-32.274
-23.249
-14.179
-5.667
1.515
6.614
9.521
10.452
9.724
7.839
5.273
2.431
-0.194
-2.127
-3.117
-3.07
-2.02
-0.103
2.573
5.914
9.801
14.101
18.688
23.455
28.299
33.142
37.906
42.501
46.843
50.857
54.477
57.669
60.439
62.805
64.802
66.47
67.851
68.997
69.972
70.833
71.634
72.426
73.25
74.152
75.177
76.367
77.763
79.39
81.261
83.381
85.753
88.373
91.237
94.334
97.647
101.161
104.865
108.744
112.789
116.982
121.307
125.743
130.272
134.873
139.526
144.212
148.908
153.593
158.245
162.842
167.364
171.788
176.09
180.247
184.236
188.033
191.618
194.968
198.062
200.883
203.412
205.634
207.534
209.099
210.318
211.182
211.682
211.812
211.568
210.946
209.946
208.568
206.814
204.69
202.202
199.356
196.164
192.636
188.784
184.624
180.171
175.442
170.455
165.23
159.786
154.144
148.326
142.353
136.249
130.036
123.737
117.374
110.97
104.547
98.126
91.729
85.377
79.089
72.885
66.782
60.799
54.951
49.254
43.722
38.369
33.206
28.244
23.491
18.957
14.646
10.565
6.717
3.105
-0.27
-3.409
-6.312
-8.982
-11.422
-13.638
-15.634
-17.418
-18.996
-20.375
-21.566
-22.576
-23.415
-24.093
-24.619
-25.005
-25.26
-25.396
-25.421
-25.348
-25.186
-24.945
-24.636
-24.267
-23.847
-23.386
-22.892
-22.372
-21.833
-21.283
-20.728
-20.173
-19.623
-19.082
-18.555
-18.045
-17.554
-17.086
-16.641
-16.222
-15.828
-15.462
-15.123
-14.812
-14.527
-14.269
-14.036
-13.828
-13.644
-13.483
-13.343
-13.222
-13.12
-13.034
-12.963
-12.906
-12.861
-12.827
-12.801
-12.784
-12.773
-12.767
-12.765
-12.767
-12.77
-12.775
-12.781
-12.787
-12.793
-12.797
-12.801
-12.803
-12.803
-12.801
-12.797
-12.79
-12.78
-12.767
-12.751
-12.732
-12.708
-12.681
-12.65
-12.615
-12.575
-12.531
-12.482
-12.428
-12.369
-12.305
-12.237
-12.163
-12.085
-12.002
-11.915
-11.824
-11.729
-11.631
-11.53
-11.427
-11.322
-11.216
-11.11
-11.003
-10.898
-10.795
-10.696
-10.601
-10.513
-10.432
-10.36
-10.298
-10.249
-10.214
-10.195
-10.193
-10.21
-10.249
-10.311
-10.398
-10.511
-10.652
-10.823
-11.023
-11.255
-11.518
-11.813
-12.14
-12.498
-12.887
-13.305
-13.754
-14.23
-14.732
-15.259
-15.809
-16.379
-16.967
-17.568
-18.18
-18.799
-19.422
-20.043
-20.659
-21.265
-21.855
-22.426
-22.972
-23.487
-23.966
-24.402
-24.792
-25.128
-25.406
-25.621
-25.77
-25.848
-25.853
-25.783
-25.636
-25.413
-25.112
-24.734
-24.278
-23.746
-23.14
-22.46
-21.71
-20.89
-20.007
-19.065
-18.071
-17.031
-15.951
-14.838
-13.7
-12.543
-11.377
-10.207
-9.04
-7.885
-6.749
-5.643
-4.578
-3.564
-2.602
-1.696
-0.844
-0.041
0.715
1.435
2.134
2.822
3.512
4.209
4.917
5.644
6.398
7.189
8.032
8.934
9.891
10.898
11.946
13.015
14.085
15.123
16.078
16.906
17.567
18.02
18.227
18.148
17.736
16.956
15.782
14.185
12.144
9.64
6.656
3.187
-0.741
-5.109
-9.923
-15.09
-20.447
-25.759
-30.649
-34.782
-37.948
-39.83
-40.052
-38.551
-35.453
-31.156
-26.561
-22.343
-18.835
-16.644
-16.343
-17.939
-21.188
-25.204
-28.139
-28.561
-25.51
-17.565
-3.355
17.785
46.135
81.066
119.764
159.578
199.092
235.194
266.102
290.426
302.459
298.284
274.235
225.895
156.635
71.886
-23.312
-122.095
-224.011
-331.493
-442.37
-552.087
-650.052
-721.494
-758.872
-761.656
-735.94
-693.989
-644.167
-590.186
-533.041
-470.979
-404.745
-337.396
-272.621
-214.479
-165.219
-125.575
-95.425
-73.632
-58.951
-50.209
-45.661
-43.546
-42.215
-40.02
-36.148
-30.559
-23.412
-15.116
-6.361
2.2
9.78
15.495
19.039
20.531
20.244
18.665
16.29
13.541
10.942
9.053
8.162
8.374
9.67
11.898
14.943
18.715
23.076
27.868
32.952
38.206
43.533
48.862
54.099
59.141
63.89
68.247
72.161
75.612
78.602
81.156
83.306
85.092
86.565
87.787
88.818
89.716
90.533
91.314
92.11
92.975
93.959
95.115
96.476
98.065
99.895
101.971
104.295
106.865
109.672
112.702
115.942
119.383
123.013
126.824
130.803
134.934
139.2
143.583
148.065
152.628
157.255
161.925
166.62
171.318
176.002
180.652
185.246
189.763
194.179
198.471
202.615
206.59
210.373
213.943
217.278
220.359
223.17
225.693
227.914
229.819
231.395
232.632
233.521
234.055
234.227
234.035
233.474
232.545
231.249
229.589
227.57
225.197
222.478
219.424
216.045
212.355
208.366
204.095
199.557
194.771
189.756
184.53
179.115
173.531
167.801
161.946
155.988
149.949
143.851
137.717
131.567
125.423
119.305
113.233
107.227
101.305
95.484
89.782
84.214
78.795
73.539
68.458
63.564
58.866
54.373
50.093
46.032
42.194
38.583
35.202
32.051
29.13
26.438
23.97
21.725
19.696
17.879
16.265
14.849
13.621
12.573
11.696
10.979
10.414
9.989
9.694
9.518
9.452
9.483
9.603
9.8
10.065
10.388
10.759
11.17
11.612
12.077
12.558
13.046
13.537
14.023
14.501
14.964
15.41
15.834
16.233
16.606
16.951
17.265
17.549
17.802
18.024
18.216
18.377
18.51
18.615
18.693
18.747
18.778
18.787
18.777
18.749
18.706
18.649
18.58
18.5
18.412
18.318
18.217
18.113
18.006
17.896
17.786
17.675
17.565
17.455
17.346
17.239
17.132
17.026
16.92
16.814
16.709
16.602
16.495
16.385
16.274
16.159
16.041
15.919
15.792
15.661
15.523
15.38
15.231
15.074
14.911
14.74
14.562
14.375
14.18
13.977
13.765
13.544
13.315
13.077
12.831
12.575
12.312
12.039
11.758
11.469
11.171
10.864
10.548
10.223
9.889
9.546
9.193
8.829
8.454
8.069
7.671
7.26
6.837
6.401
5.95
5.486
5.008
4.516
4.01
3.492
2.961
2.418
1.865
1.301
0.729
0.15
-0.436
-1.026
-1.619
-2.212
-2.803
-3.39
-3.97
-4.541
-5.1
-5.643
-6.167
-6.67
-7.147
-7.594
-8.009
-8.387
-8.724
-9.017
-9.261
-9.455
-9.595
-9.679
-9.706
-9.673
-9.581
-9.431
-9.224
-8.959
-8.641
-8.269
-7.848
-7.38
-6.868
-6.316
-5.728
-5.109
-4.465
-3.802
-3.128
-2.448
-1.771
-1.103
-0.452
0.174
0.767
1.322
1.83
2.287
2.682
3.005
3.249
3.412
3.492
3.493
3.42
3.275
3.069
2.818
2.537
2.24
1.941
1.643
1.357
1.093
0.86
0.679
0.559
0.498
0.494
0.537
0.607
0.692
0.762
0.761
0.643
0.357
-0.155
-0.921
-1.98
-3.373
-5.124
-7.276
-9.875
-12.938
-16.496
-20.56
-25.103
-30.131
-35.657
-41.585
-47.753
-53.913
-59.7
-64.818
-69.061
-72.164
-73.798
-73.78
-72.162
-69.277
-65.779
-62.323
-59.269
-56.955
-55.921
-56.477
-58.463
-61.29
-63.718
-64.248
-61.957
-56.006
-44.95
-27.676
-3.81
26.582
61.632
98.09
134.44
169.253
200.925
229.744
251.976
260.92
251.034
215.314
153.094
71.502
-22.407
-120.461
-219.583
-323.911
-433.806
-545.643
-649.826
-730.312
-777.582
-789.704
-771.77
-736.028
-690.982
-640.959
-587.546
-528.876
-465.685
-400.881
-337.851
-280.872
-232.543
-193.607
-163.964
-142.437
-127.601
-118.371
-113.221
-110.481
-108.564
-105.844
-101.505
-95.537
-88.172
-79.797
-71.009
-62.409
-54.749
-48.954
-45.405
-44.012
-44.519
-46.462
-49.379
-52.886
-56.482
-59.59
-61.857
-63.132
-63.392
-62.76
-61.341
-59.202
-56.459
-53.25
-49.703
-45.938
-42.05
-38.107
-34.183
-30.372
-26.762
-23.448
-20.508
-17.983
-15.883
-14.201
-12.91
-11.977
-11.365
-11.024
-10.894
-10.917
-11.041
-11.218
-11.408
-11.566
-11.644
-11.595
-11.375
-10.955
-10.319
-9.458
-8.369
-7.051
-5.509
-3.752
-1.798
0.342
2.656
5.132
7.761
10.53
13.423
16.424
19.516
22.681
25.903
29.167
32.455
35.749
39.034
42.294
45.513
48.675
51.763
54.76
57.648
60.411
63.033
65.5
67.797
69.91
71.829
73.543
75.044
76.323
77.374
78.191
78.771
79.11
79.207
79.06
78.671
78.041
77.172
76.069
74.735
73.178
71.402
69.416
67.228
64.846
62.281
59.542
56.64
53.585
