138.83
146.586
153.985
160.823
166.908
172.077
176.208
179.226
181.085
181.772
181.314
179.741
177.098
173.444
168.838
163.35
157.075
150.132
142.666
134.856
126.874
118.864
110.948
103.214
95.731
88.551
81.7
75.187
69.014
63.174
57.663
52.479
47.604
43.007
38.64
34.439
30.34
26.303
22.295
18.296
14.297
10.292
6.287
2.302
-1.643
-5.526
-9.333
-13.054
-16.674
-20.175
-23.533
-26.721
-29.72
-32.518
-35.107
-37.485
-39.653
-41.612
-43.371
-44.946
-46.352
-47.6
-48.702
-49.668
-50.508
-51.237
-51.868
-52.414
-52.886
-53.294
-53.648
-53.957
-54.231
-54.476
-54.699
-54.904
-55.098
-55.287
-55.477
-55.674
-55.885
-56.113
-56.364
-56.642
-56.952
-57.296
-57.677
-58.098
-58.56
-59.065
-59.614
-60.209
-60.85
-61.536
-62.268
-63.044
-63.864
-64.725
-65.626
-66.564
-67.538
-68.546
-69.583
-70.649
-71.738
-72.85
-73.979
-75.123
-76.278
-77.439
-78.602
-79.764
-80.918
-82.062
-83.189
-84.294
-85.373
-86.421
-87.432
-88.4
-89.321
-90.19
-91
-91.746
-92.424
-93.029
-93.557
-94.004
-94.366
-94.642
-94.829
-94.927
-94.936
-94.856
-94.688
-94.433
-94.093
-93.67
-93.167
-92.587
-91.932
-91.206
-90.414
-89.563
-88.66
-87.711
-86.723
-85.705
-84.662
-83.605
-82.542
-81.481
-80.429
-79.394
-78.385
-77.41
-76.483
-75.612
-74.801
-74.049
-73.357
-72.717
-72.129
-71.581
-71.056
-70.54
-70.019
-69.48
-68.922
-68.337
-67.714
-67.046
-66.314
-65.51
-64.639
-63.706
-62.723
-61.713
-60.692
-59.694
-58.779
-57.995
-57.397
-57.044
-56.965
-57.197
-57.784
-58.745
-60.125
-61.97
-64.298
-67.136
-70.496
-74.35
-78.707
-83.588
-88.898
-94.473
-100.062
-105.288
-109.859
-113.569
-116.149
-117.278
-116.755
-114.631
-111.266
-107.324
-103.446
-100
-97.275
-95.742
-95.721
-97.066
-99.17
-100.843
-100.65
-97.62
-90.975
-79.604
-62.462
-38.908
-8.985
26.318
64.642
102.921
139.268
171.578
198.517
220.688
234.271
232.73
210.099
158.686
79.004
-19.533
-128.525
-239.129
-348.881
-462.604
-579.417
-692.393
-788.819
-853.568
-879.862
-871.144
-837.978
-791.695
-739.254
-682.484
-619.524
-550.244
-477.25
-404.312
-336.551
-277.5
-228.344
-189.585
-160.628
-140.066
-126.709
-119.128
-115.222
-113.129
-111.225
-107.981
-102.811
-95.838
-87.281
-77.648
-67.759
-58.317
-50.11
-43.954
-40.041
-38.179
-38.049
-39.131
-40.909
-42.946
-44.723
-45.714
-45.668
-44.507
-42.275
-39.132
-35.202
-30.581
-25.411
-19.845
-14.023
-8.064
-2.071
3.881
9.699
15.284
20.539
25.373
29.734
33.609
37.005
39.955
42.493
44.662
46.514
48.111
49.515
50.783
51.97
53.123
54.295
55.538
56.907
58.455
60.216
62.213
64.459
66.955
69.701
72.694
75.924
79.377
83.045
86.916
90.979
95.219
99.618
104.146
108.771
113.46
118.175
122.89
127.581
132.228
136.822
141.351
145.806
150.175
154.43
158.549
162.507
166.283
169.866
173.255
176.455
179.477
182.338
185.038
187.571
189.917
192.04
193.895
195.43
196.606
197.406
197.825
197.862
197.506
196.738
195.521
193.816
191.576
188.745
185.283
181.157
176.355
170.898
164.832
158.218
151.102
143.503
135.419
126.849
117.812
108.344
98.503
88.348
77.956
67.427
56.862
46.377
36.061
25.968
16.125
6.543
-2.75
-11.7
-20.228
-28.265
-35.768
-42.708
-49.074
-54.854
-60.058
-64.728
-68.927
-72.745
-76.248
-79.474
-82.442
-85.163
-87.663
-89.987
-92.193
-94.326
-96.418
-98.494
-100.577
-102.693
-104.851
-107.038
-109.218
-111.338
-113.365
-115.282
-117.086
-118.775
-120.344
-121.781
-123.074
-124.223
-125.231
-126.099
-126.827
-127.41
-127.853
-128.171
-128.389
-128.536
-128.633
-128.692
-128.721
-128.725
-128.709
-128.677
-128.628
-128.554
-128.451
-128.313
-128.14
-127.929
-127.678
-127.379
-127.024
-126.605
-126.115
-125.55
-124.904
-124.175
-123.359
-122.454
-121.46
-120.381
-119.216
-117.966
-116.632
-115.215
-113.715
-112.134
-110.474
-108.737
-106.924
-105.039
-103.086
-101.068
-98.991
-96.859
-94.677
-92.451
-90.188
-87.891
-85.568
-83.224
-80.865
-78.496
-76.122
-73.747
-71.377
-69.015
-66.665
-64.33
-62.013
-59.716
-57.44
-55.186
-52.955
-50.748
-48.565
-46.406
-44.273
-42.164
-40.081
-38.026
-35.998
-34
-32.031
-30.092
-28.183
-26.305
-24.458
-22.641
-20.855
-19.097
-17.37
-15.672
-14.006
-12.373
-10.772
-9.206
-7.674
-6.18
-4.726
-3.314
-1.944
-0.615
0.672
1.914
3.106
4.247
5.339
6.388
7.399
8.378
9.33
10.267
11.208
12.172
13.178
14.238
15.358
16.544
17.804
19.151
20.601
22.157
23.811
25.549
27.357
29.223
31.131
33.041
34.891
36.615
38.141
39.417
40.404
41.052
41.325
41.17
40.525
39.347
37.606
35.277
32.369
28.858
24.683
19.911
14.721
9.379
4.311
-0.126
-3.717
-6.168
-7.113
-6.407
-4.114
-0.603
3.261
6.688
9.252
10.496
9.975
7.591
3.56
-1.37
-5.541
-7.178
-5
2.21
15.735
36.49
64.802
100.383
140.947
182.696
223.353
260.851
293.666
322.276
342.703
347.761
331.334
286.113
212.254
118.302
12.055
-97.549
-207.343
-321.881
-440.756
-559.605
-668.103
-749.145
-793.317
-799.724
-774.497
-731.095
-678.797
-621.616
-560.758
-494.37
-423.347
-351.107
-281.663
-219.477
-167.043
-125.114
-93.505
-70.869
-55.712
-46.682
-41.852
-39.303
-37.274
-34.032
-28.778
-21.548
-12.602
-2.451
8.141
18.461
27.664
34.824
39.619
42.174
42.787
41.979
40.26
38.064
35.928
34.414
33.845
34.35
35.924
38.423
41.729
45.746
50.337
55.343
60.619
66.042
71.511
76.948
82.271
87.386
92.201
96.633
100.614
104.106
107.107
109.633
111.717
113.4
114.73
115.766
116.575
117.221
117.764
118.259
118.753
119.296
119.941
120.734
121.722
122.935
124.389
126.096
128.06
130.279
132.75
135.464
138.404
141.556
144.906
148.442
152.15
156.016
160.019
164.14
168.356
172.646
176.989
181.363
185.744
190.108
194.432
198.692
202.866
206.929
210.856
214.621
218.199
221.565
224.696
227.569
230.161
232.453
234.426
236.063
237.349
238.273
238.821
238.985
238.757
238.132
237.106
235.679
233.852
231.626
229.007
226.002
222.619
218.871
214.769
210.328
205.564
200.495
195.141
189.521
183.657
177.572
171.289
164.834
158.23
151.503
144.679
137.784
130.842
123.88
116.922
109.992
103.116
96.314
89.611
83.027
76.581
70.294
64.182
58.263
52.551
47.061
41.803
36.79
32.029
27.529
23.296
19.333
15.644
12.23
9.09
6.224
3.628
1.298
-0.773
-2.589
-4.16
-5.495
-6.602
-7.492
-8.177
-8.669
-8.978
-9.119
-9.104
-8.945
-8.657
-8.251
-7.742
-7.141
-6.461
-5.714
-4.912
-4.066
-3.186
-2.282
-1.364
-0.439
0.484
1.398
2.297
3.175
4.026
4.848
5.635
6.386
7.097
7.767
8.395
8.98
9.521
10.02
10.476
10.891
11.265
11.601
11.899
12.162
12.391
12.589
12.756
12.894
13.005
13.091
13.152
13.19
13.205
13.197
13.168
13.116
13.042
12.945
12.825
12.681
12.511
12.316
12.094
11.845
11.567
11.261
10.926
10.561
10.166
9.741
9.285
8.798
8.282
7.736
7.162
6.56
5.932
5.28
4.607
3.915
3.207
2.486
1.756
1.023
0.289
-0.44
-1.158
-1.861
-2.541
-3.193
-3.812
-4.391
-4.925
-5.41
-5.839
-6.21
-6.52
-6.765
-6.945
-7.056
-7.099
-7.071
-6.973
-6.805
-6.567
-6.26
-5.884
-5.444
-4.943
-4.386
-3.78
-3.128
-2.438
-1.717
-0.97
-0.207
0.566
1.344
2.118
2.878
3.617
4.321
4.983
5.599
6.167
6.689
7.17
7.616
8.035
8.444
8.854
9.274
9.714
10.177
10.667
11.195
11.77
12.402
13.103
13.87
14.693
15.566
16.464
17.358
18.222
19.004
19.658
20.149
20.435
20.477
20.247
19.706
18.817
17.557
15.891
13.788
11.233
8.198
4.688
0.739
-3.641
-8.448
-13.602
-18.959
-24.284
-29.221
-33.472
-36.822
-39.006
-39.697
-38.708
-36.112
-32.276
-27.901
-23.709
-20.115
-17.496
-16.416
-17.197
-19.666
-23.183
-26.431
-27.817
-26.321
-21.034
-10.532
6.318
30.105
60.882
96.774
134.6
172.059
207.154
239.206
268.867
293.98
309.1
305.631
274.196
211.22
121.113
14.294
-98.025
-210.705
-325.748
-445.678
-568.454
-683.605
-773.764
-826.933
-839.664
-817.981
-776.143
-724.227
-667.503
-607.503
-541.582
-470.486
-397.52
-326.295
-261.606
-206.226
-160.729
-125.316
-99.01
-80.2
-67.76
-60.218
-55.8
-53.077
-50.615
-47.108
-42.152
-35.907
-28.588
-20.728
-12.972
-5.821
0.033
3.937
5.785
5.796
4.327
1.928
-0.902
-3.743
-6.078
-7.446
-7.63
-6.575
-4.353
-1.133
2.952
7.781
13.193
19.021
25.109
31.322
37.552
43.705
49.671
55.337
60.594
65.371
69.637
73.392
76.658
79.47
81.867
83.904
85.646
87.156
88.496
89.722
90.884
92.036
93.233
94.529
95.978
97.615
99.464
101.537
103.837
106.363
109.11
112.068
115.218
118.546
122.039
125.684
129.472
133.387
137.413
141.53
145.72
149.963
154.242
158.537
162.828
167.096
171.322
175.486
179.569
183.552
187.411
191.124
194.669
198.024
201.167
204.077
206.734
209.119
211.214
213.004
214.475
215.613
216.406
216.846
216.923
216.63
215.964
214.921
213.498
211.697
209.519
206.968
204.05
200.773
197.145
193.177
188.882
184.274
179.367
174.179
168.728
163.032
157.112
150.99
144.687
138.225
131.628
124.92
118.124
111.264
104.363
97.444
90.532
83.647
76.812
70.049
63.377
56.817
50.386
44.104
37.985
32.047
26.304
20.767
15.45
10.362
5.512
0.908
-3.444
-7.538
-11.373
-14.946
-18.257
-21.306
-24.096
-26.63
-28.914
-30.953
-32.754
-34.326
-35.677
-36.817
-37.756
-38.505
-39.076
-39.48
-39.729
-39.837
-39.814
-39.675
-39.43
-39.092
-38.674
-38.186
-37.641
-37.049
-36.42
-35.766
-35.095
-34.416
-33.738
-33.068
-32.413
-31.78
-31.173
-30.599
-30.061
-29.562
-29.106
-28.693
-28.327
-28.007
-27.734
-27.507
-27.326
-27.19
-27.097
-27.045
-27.032
-27.056
-27.114
-27.204
-27.323
-27.469
-27.639
-27.83
-28.04
-28.265
-28.505
-28.756
-29.016
-29.284
-29.557
-29.835
-30.115
-30.396
-30.679
-30.961
-31.243
-31.524
-31.805
-32.086
-32.367
-32.649
-32.934
-33.222
-33.514
-33.812
-34.117
-34.43
-34.753
-35.085
-35.428
-35.783
-36.149
-36.528
-36.917
-37.318
-37.731
-38.153
-38.584
-39.024
-39.47
-39.922
-40.376
-40.832
-41.285
-41.735
-42.178
-42.611
-43.03
-43.433
-43.814
-44.171
-44.499
-44.794
-45.051
-45.266
-45.434
-45.551
-45.613
-45.617
-45.559
-45.436
-45.247
-44.991
-44.667
-44.276
-43.818
-43.294
-42.706
-42.054
-41.343
-40.573
-39.746
-38.867
-37.939
-36.968
-35.959
-34.919
-33.855
-32.772
-31.677
-30.576
-29.477
-28.387
-27.31
-26.254
-25.224
-24.23
-23.283
-22.389
-21.549
-20.764
-20.029
-19.339
-18.686
-18.06
-17.443
-16.823
-16.185
-15.52
-14.824
-14.089
-13.304
-12.46
-11.539
-10.535
-9.453
-8.299
-7.09
-5.852
-4.602
-3.38
-2.242
-1.235
-0.405
0.202
0.551
0.603
0.304
-0.381
-1.486
-3.039
-5.056
-7.557
-10.551
-14.035
-17.979
-22.359
-27.156
-32.267
-37.514
-42.637
-47.255
-51.016
-53.682
-54.933
-54.389
-52.023
-48.003
-42.768
-37.272
-32.245
-28.113
-25.583
-25.275
-27.143
-30.861
-35.475
-39.07
-40.204
-37.691
-29.755
-15.064
6.96
36.472
72.387
112.446
154.545
195.958
232.777
261.318
277.859
278.896
262.239
226.149
170.142
96.273
7.679
-91.799
-199.898
-317.076
-441.073
-565.943
-680.347
-768.17
-819.69
-832.822
-813.236
-773.871
-723.541
-666.729
-605.05
-536.684
-462.921
-387.427
-314.257
-248.306
-192.609
-148.148
-114.908
-91.561
-76.35
-67.845
-64.136
-63.162
-62.97
-61.605
-58.048
-52.254
-44.524
-35.356
-25.49
-15.656
-6.739
0.215
4.774
7.02
7.244
5.975
3.732
0.956
-1.8
-3.924
-5.059
-5.054
-3.908
-1.769
1.236
5.012
9.418
14.291
19.485
24.874
30.36
35.868
41.32
46.62
51.677
56.405
60.735
64.628
68.079
71.101
73.724
75.99
77.944
79.641
81.144
82.513
83.805
85.07
86.351
87.694
89.145
90.749
92.546
94.562
96.811
99.296
102.019
104.974
108.154
111.545
115.128
118.886
122.801
126.861
131.05
135.35
139.743
144.207
148.721
153.264
157.816
162.357
166.865
171.319
175.698
179.983
184.154
188.191
192.07
195.773
199.277
202.562
205.608
208.398
210.913
213.138
215.058
216.66
217.933
218.868
219.457
219.692
219.571
219.089
218.245
217.04
215.474
213.553
211.28
208.663
205.71
202.43
198.834
194.935
190.746
186.282
181.558
176.592
171.401
166.003
160.418
154.665
148.765
142.738
136.605
130.387
124.105
117.78
111.432
105.082
98.748
92.45
86.206
80.035
73.953
67.976
62.12
56.399
50.826
45.415
40.175
35.118
30.252
25.586
21.126
16.878
12.847
9.035
5.445
2.079
-1.065
-3.986
-6.688
-9.174
-11.448
-13.514
-15.379
-17.049
-18.532
-19.836
-20.968
-21.939
-22.757
-23.431
-23.972
-24.389
-24.692
-24.891
-24.997
-25.018
-24.964
-24.845
-24.67
-24.447
-24.184
-23.89
-23.573
-23.239
-22.895
-22.546
-22.2
-21.86
-21.532
-21.219
-20.925
-20.654
-20.406
-20.186
-19.994
-19.831
-19.698
-19.596
-19.525
-19.485
-19.474
-19.493
-19.541
-19.616
-19.718
-19.845
-19.996
-20.171
-20.367
-20.584
-20.82
-21.075
-21.347
-21.635
-21.938
-22.256
-22.588
-22.933
-23.291
-23.662
-24.044
-24.439
-24.846
-25.265
-25.697
-26.141
-26.597
-27.067
-27.551
-28.049
-28.561
-29.088
-29.63
-30.188
-30.761
-31.349
-31.951
-32.566
-33.194
-33.833
-34.482
-35.139
-35.803
-36.472
-37.144
-37.816
-38.486
-39.151
-39.809
-40.456
-41.089
-41.706
-42.302
-42.875
-43.42
-43.935
-44.415
-44.858
-45.258
-45.613
-45.919
-46.172
-46.368
-46.504
-46.578
-46.587
-46.53
-46.405
-46.213
-45.955
-45.63
-45.243
-44.794
-44.286
-43.722
-43.106
-42.441
-41.732
-40.983
-40.197
-39.382
-38.544
-37.69
-36.826
-35.959
-35.097
-34.247
-33.414
-32.608
-31.834
-31.099
-30.409
-29.768
-29.187
-28.674
-28.235
-27.871
-27.58
-27.357
-27.197
-27.093
-27.033
-27
-26.976
-26.947
-26.899
-26.827
-26.722
-26.576
-26.372
-26.094
-25.732
-25.288
-24.775
-24.204
-23.589
-22.95
-22.322
-21.76
-21.32
-21.053
-21.006
-21.21
-21.703
-22.521
-23.695
-25.258
-27.243
-29.667
-32.54
-35.871
-39.647
-43.864
-48.532
-53.539
-58.698
-63.757
-68.346
-72.143
-74.938
-76.441
-76.284
-74.423
-71.004
-66.407
-61.514
-56.994
-53.165
-50.593
-49.819
-50.827
-53.38
-56.663
-58.891
-58.676
-55.092
-46.791
-32.526
-11.549
16.471
50.886
89.044
127.615
164.687
198.044
226.425
250.482
266.217
267.193
247.824
200.799
126.758
34.7
-67.335
-170.725
-272.861
-377.978
-485.538
-589.667
-679.076
-740.313
-767.018
-761.905
-734.339
-694.222
-647.74
-596.725
-539.573
-476.296
-409.331
-341.933
-278.584
-222.518
-174.969
-136.64
-107.246
-85.643
-70.816
-61.598
-56.238
-53.114
-50.722
-47.529
-42.831
-36.65
-29.13
-20.672
-11.966
-3.604
3.697
9.114
12.404
13.703
13.285
11.631
9.233
6.496
3.927
2.06
1.168
1.351
2.592
4.745
7.699
11.368
15.618
20.297
25.272
30.423
35.653
40.892
46.048
51.021
55.716
60.04
63.942
67.408
70.441
73.07
75.33
77.261
78.917
80.358
81.645
82.834
83.977
85.12
86.312
87.603
89.043
90.679
92.545
94.658
97.029
99.658
102.544
105.682
109.057
112.652
116.45
120.436
124.595
128.914
133.375
137.958
142.642
147.403
152.22
157.07
161.931
166.779
171.592
176.345
181.017
185.585
190.025
194.314
198.425
202.335
206.02
209.457
212.623
215.499
218.063
220.298
222.189
223.721
224.883
225.662
226.052
226.044
225.634
224.819
223.598
221.971
219.942
217.514
214.694
211.491
207.915
203.977
199.692
195.073
190.139
184.906
179.394
173.624
167.615
161.392
154.976
148.391
141.661
134.81
127.863
120.844
113.777
106.686
99.595
92.527
85.502
78.543
71.67
64.904
58.261
51.761
45.419
39.251
33.272
27.495
21.93
16.589
11.481
6.614
1.994
-2.374
-6.486
-10.339
-13.933
-17.266
-20.34
-23.159
-25.724
-28.04
-30.114
-31.95
-33.557
-34.942
-36.113
-37.08
-37.851
-38.437
-38.846
-39.09
-39.178
-39.12
-38.928
-38.611
-38.18
-37.644
-37.013
-36.297
-35.506
-34.648
-33.731
-32.766
-31.758
-30.717
-29.65
-28.562
-27.461
-26.353
-25.242
-24.135
-23.035
-21.946
-20.874
-19.82
-18.788
-17.781
-16.802
-15.852
-14.934
-14.049
-13.2
-12.388
-11.613
-10.878
-10.184
-9.532
-8.922
-8.355
-7.833
-7.356
-6.924
-6.537
-6.196
-5.901
-5.65
-5.444
-5.282
-5.161
-5.082
-5.043
-5.042
-5.078
-5.15
-5.255
-5.391
-5.556
-5.747
-5.962
-6.198
-6.451
-6.719
-6.997
-7.284
-7.574
-7.865
-8.152
-8.43
-8.697
-8.948
-9.179
-9.386
-9.564
-9.712
-9.826
-9.903
-9.941
-9.94
-9.899
-9.818
-9.698
-9.54
-9.345
-9.115
-8.852
-8.559
-8.237
-7.89
-7.52
-7.131
-6.727
-6.313
-5.895
-5.476
-5.063
-4.659
-4.271
-3.906
-3.568
-3.261
-2.986
-2.748
-2.552
-2.407
-2.316
-2.276
-2.286
-2.342
-2.439
-2.571
-2.726
-2.884
-3.024
-3.128
-3.181
-3.179
-3.116
-2.976
-2.748
-2.415
-1.969
-1.423
-0.788
-0.065
0.729
1.573
2.427
3.223
3.893
4.378
4.625
4.588
4.229
3.504
2.371
0.785
-1.291
-3.869
-6.959
-10.558
-14.667
-19.309
-24.391
-29.709
-34.986
-39.844
-43.958
-47.13
-49.073
-49.422
-48.108
-45.239
-41.186
-36.786
-32.62
-28.958
-26.357
-25.312
-25.823
-27.709
-30.154
-31.52
-30.755
-26.97
-18.578
-4.345
16.447
43.554
74.799
107.502
140.404
174.095
209.291
244.655
274.959
290.177
280.583
241.321
173.518
86.273
-8.959
-105.611
-201.325
-298.169
-399.498
-501.057
-593.289
-666.631
-711.636
-727.032
-719.306
-694.063
-657.74
-614.371
-563.356
-505.976
-444.546
-381.274
-319.965
-263.894
-214.785
-173.543
-140.388
-114.648
-95.211
-81.377
-72.215
-66.185
-62.014
-58.431
-54.161
-48.865
-42.719
-35.754
-28.276
-20.845
-13.885
-8.041
-4.014
-1.924
-1.584
-2.725
-4.894
-7.66
-10.668
-13.452
-15.531
-16.661
-16.755
-15.84
-14.059
-11.515
-8.289
-4.498
-0.277
4.25
8.973
13.796
18.65
23.45
28.105
32.522
36.614
40.329
43.651
46.592
49.18
51.452
53.446
55.211
56.806
58.288
59.711
61.123
62.566
64.084
65.723
67.531
69.552
71.816
74.339
77.128
80.181
83.495
87.061
90.866
94.887
99.107
103.508
108.073
112.788
117.633
122.585
127.622
132.718
137.849
142.991
148.12
153.21
158.237
163.177
168.004
172.696
177.229
181.577
185.715
189.619
193.264
196.628
199.689
202.427
204.822
206.858
208.521
209.798
210.679
211.154
211.217
210.864
210.092
208.9
207.291
205.268
202.836
200.004
196.781
193.18
189.213
184.898
180.25
175.288
170.033
164.507
158.731
152.729
146.526
140.147
133.617
126.963
120.211
113.387
106.518
99.63
92.748
85.897
79.102
72.384
65.766
59.269
52.914
46.718
40.699
34.874
29.257
23.861
18.698
13.778
9.11
4.7
0.555
-3.323
-6.93
-10.265
-13.33
-16.126
-18.656
-20.926
-22.94
-24.705
-26.23
-27.523
-28.594
-29.453
-30.112
-30.581
-30.873
-31
-30.973
-30.806
-30.511
-30.1
-29.585
-28.979
-28.292
-27.537
-26.724
-25.864
-24.967
-24.042
-23.098
-22.142
-21.183
-20.228
-19.282
-18.351
-17.441
-16.555
-15.697
-14.871
-14.078
-13.321
-12.601
-11.92
-11.277
-10.674
-10.109
-9.582
-9.094
-8.643
-8.228
-7.848
-7.501
-7.188
-6.906
-6.654
-6.431
-6.236
-6.068
-5.925
-5.808
-5.716
-5.649
-5.606
-5.586
-5.591
-5.621
-5.675
-5.754
-5.86
-5.991
-6.15
-6.337
-6.554
-6.8
-7.076
-7.383
-7.722
-8.092
-8.494
-8.926
-9.389
-9.882
-10.404
-10.953
-11.529
-12.13
-12.754
-13.399
-14.062
-14.74
-15.431
-16.131
-16.835
-17.541
-18.244
-18.939
-19.623
-20.29
-20.935
-21.555
-22.142
-22.693
-23.202
-23.664
-24.074
-24.428
-24.722
-24.952
-25.115
-25.21
-25.236
-25.192
-25.078
-24.895
-24.643
-24.323
-23.939
-23.491
-22.982
-22.415
-21.794
-21.123
-20.408
-19.656
-18.874
-18.067
-17.242
-16.408
-15.57
-14.738
-13.919
-13.118
-12.343
-11.6
-10.897
-10.247
-9.657
-9.126
-8.656
-8.244
-7.885
-7.577
-7.308
-7.061
-6.823
-6.58
-6.321
-6.042
-5.736
-5.393
-5.001
-4.546
-4.021
-3.432
-2.788
-2.097
-1.375
-0.64
0.075
0.714
1.227
1.565
1.677
1.526
1.071
0.271
-0.901
-2.48
-4.499
-6.976
-9.926
-13.369
-17.29
-21.687
-26.587
-31.882
-37.395
-42.886
-47.971
-52.322
-55.738
-57.919
-58.502
-57.438
-54.854
-51.137
-47.154
-43.544
-40.602
-38.837
-38.735
-40.264
-43.166
-46.62
-48.911
-48.677
-45.03
-36.795
-22.832
-2.483
24.491
57.545
94.23
131.305
166.937
199.191
226.856
250.654
266.962
269.28
252.034
208.194
138.013
49.812
-48.84
-150.063
-251.591
-357.218
-466.327
-573.081
-666.067
-731.796
-763.588
-763.555
-740.655
-704.73
-661.889
-613.876
-559.054
-497.359
-431.264
-364.162
-300.616
-243.864
-195.275
-155.741
-125.122
-102.435
-86.705
-76.786
-71.01
-67.781
-65.534
-62.622
-58.231
-52.3
-44.954
-36.575
-27.8
-19.212
-11.563
-5.744
-2.083
-0.496
-0.735
-2.327
-4.806
-7.773
-10.721
-13.096
-14.573
-15.015
-14.413
-12.895
-10.57
-7.518
-3.863
0.246
4.675
9.31
14.052
18.831
23.567
28.168
32.544
36.61
40.298
43.569
46.418
48.859
50.92
52.639
54.06
55.233
56.222
57.082
57.868
58.629
59.407
60.247
61.197
62.3
63.596
65.114
66.864
68.856
71.088
73.558
76.259
79.179
82.298
85.601
89.074
92.701
96.47
100.364
104.362
108.444
112.589
116.777
120.986
125.197
129.386
133.534
137.618
141.617
145.512
149.28
152.9
156.35
159.608
162.652
165.463
168.022
170.31
172.312
174.012
175.397
176.456
177.18
177.56
177.591
177.268
176.589
175.552
174.159
172.413
170.318
167.881
165.109
162.012
158.603
154.892
150.896
146.629
142.108
137.352
132.379
127.21
121.865
116.366
110.734
104.992
99.162
93.267
87.329
81.371
75.414
69.48
63.59
57.764
52.02
46.378
40.854
35.466
30.228
25.154
20.257
15.55
11.043
6.744
2.661
-1.198
-4.831
-8.231
-11.399
-14.332
-17.031
-19.498
-21.735
-23.747
-25.54
-27.118
-28.49
-29.664
-30.648
-31.452
-32.086
-32.561
-32.887
-33.077
-33.141
-33.09
-32.938
-32.694
-32.372
-31.981
-31.532
-31.037
-30.506
-29.947
-29.371
-28.785
-28.198
-27.617
-27.048
-26.497
-25.97
-25.471
-25.003
-24.569
-24.172
-23.814
-23.496
-23.217
-22.978
-22.778
-22.615
-22.489
-22.398
-22.339
-22.31
-22.308
-22.33
-22.374
-22.437
-22.514
-22.604
-22.704
-22.809
-22.918
-23.028
-23.137
-23.242
-23.342
-23.435
-23.52
-23.596
-23.662
-23.718
-23.764
-23.799
-23.826
-23.844
-23.855
-23.86
-23.86
-23.858
-23.854
-23.85
-23.848
-23.848
-23.853
-23.862
-23.877
-23.899
-23.928
-23.965
-24.01
-24.063
-24.124
-24.193
-24.268
-24.348
-24.433
-24.519
-24.606
-24.691
-24.771
-24.844
-24.906
-24.954
-24.985
-24.994
-24.977
-24.93
-24.848
-24.727
-24.563
-24.352
-24.09
-23.774
-23.402
-22.972
-22.482
-21.933
-21.326
-20.659
-19.935
-19.154
-18.318
-17.431
-16.493
-15.509
-14.48
-13.413
-12.312
-11.185
-10.037
-8.874
-7.704
-6.533
-5.369
-4.219
-3.091
-1.99
-0.924
0.101
1.077
1.991
2.838
3.617
4.326
4.97
5.554
6.083
6.567
7.024
7.467
7.911
8.368
8.84
9.337
9.866
10.437
11.069
11.77
12.534
13.36
14.233
15.133
16.045
16.94
17.76
18.46
18.992
19.3
19.359
19.137
18.594
17.712
16.449
14.762
12.635
10.042
6.971
3.448
-0.541
-5.021
-9.905
-15.041
-20.184
-24.968
-29.102
-32.381
-34.531
-35.215
-34.23
-31.635
-27.811
-23.469
-19.307
-15.738
-13.143
-12.106
-12.995
-15.655
-19.406
-22.897
-24.534
-23.25
-17.99
-7.223
10.182
34.706
66.146
103.041
143.317
185.149
225.997
262.15
289.934
305.813
306.628
290.499
255.968
201.781
129.134
41.89
-55.699
-159.446
-267.753
-381.071
-495.97
-604.34
-693.904
-752.283
-774.314
-763.512
-729.742
-683.375
-631.205
-575.345
-514.432
-448.637
-379.986
-311.65
-248.431
-193.502
-147.849
-111.926
-84.901
-65.224
-52.079
-44.344
-40.081
-37.665
-35.535
-32.182
-27.185
-20.76
-12.992
-4.28
4.645
13.19
20.56
25.933
29.158
30.431
30.05
28.508
26.288
23.793
21.537
20.036
19.534
20.11
21.72
24.202
27.439
31.337
35.766
40.582
45.655
50.87
56.132
61.367
66.488
71.399
76.008
80.225
83.999
87.314
90.183
92.637
94.714
96.454
97.91
99.142
100.21
101.17
102.075
102.969
103.899
104.914
106.063
107.395
108.942
110.72
112.741
115.005
117.51
120.251
123.216
126.387
129.749
133.287
136.987
140.837
144.821
148.921
153.115
157.383
161.704
166.057
170.421
174.774
179.094
183.36
187.551
191.645
195.622
199.458
203.13
206.615
209.891
212.937
215.732
218.258
220.494
222.427
224.04
225.321
226.259
226.845
227.071
226.931
226.421
225.538
224.283
222.656
220.661
218.302
215.586
212.521
209.117
205.386
201.341
196.997
192.368
187.473
182.329
176.956
171.373
165.602
159.663
153.578
147.37
141.06
134.672
128.227
121.748
115.256
108.772
102.317
95.911
89.572
83.319
77.17
71.139
65.243
59.496
53.91
48.498
43.271
38.237
33.405
28.781
24.372
20.182
16.213
12.468
8.947
5.65
2.575
-0.281
-2.92
-5.349
-7.571
-9.594
-11.425
-13.07
-14.539
-15.84
-16.981
-17.973
-18.824
-19.545
-20.145
-20.634
-21.02
-21.315
-21.527
-21.664
-21.736
-21.751
-21.716
-21.639
-21.527
-21.386
-21.223
-21.042
-20.849
-20.647
-20.442
-20.235
-20.031
-19.831
-19.637
-19.45
-19.272
-19.104
-18.945
-18.796
-18.656
-18.526
-18.403
-18.288
-18.179
-18.075
-17.976
-17.879
-17.783
-17.688
-17.593
-17.497
-17.398
-17.298
-17.194
-17.088
-16.98
-16.87
-16.757
-16.644
-16.531
-16.419
-16.31
-16.205
-16.106
-16.016
-15.935
-15.867
-15.813
-15.777
-15.759
-15.764
-15.793
-15.848
-15.933
-16.05
-16.201
-16.388
-16.614
-16.88
-17.188
-17.54
-17.937
-18.378
-18.865
-19.397
-19.973
-20.593
-21.256
-21.958
-22.7
-23.478
-24.29
-25.132
-26.001
-26.893
-27.805
-28.731
-29.667
-30.608
-31.55
-32.485
-33.411
-34.319
-35.206
-36.066
-36.891
-37.677
-38.418
-39.108
-39.74
-40.31
-40.813
-41.245
-41.602
-41.881
-42.08
-42.197
-42.234
-42.19
-42.065
-41.862
-41.582
-41.227
-40.801
-40.307
-39.748
-39.128
-38.455
-37.733
-36.97
-36.175
-35.354
-34.515
-33.665
-32.813
-31.967
-31.136
-30.325
-29.542
-28.793
-28.088
-27.437
-26.848
-26.323
-25.861
-25.46
-25.113
-24.816
-24.559
-24.323
-24.095
-23.859
-23.604
-23.324
-23.014
-22.664
-22.262
-21.793
-21.248
-20.632
-19.952
-19.219
-18.451
-17.667
-16.901
-16.21
-15.643
-15.252
-15.091
-15.195
-15.605
-16.36
-17.482
-19.01
-20.978
-23.408
-26.321
-29.733
-33.621
-37.979
-42.828
-48.072
-53.541
-58.981
-63.989
-68.212
-71.412
-73.302
-73.539
-71.996
-68.77
-64.233
-59.247
-54.63
-50.871
-48.499
-48.033
-49.62
-53.058
-57.625
-61.673
-63.409
-61.511
-54.65
-41.463
-20.987
7.145
42.636
83.191
124.999
165.678
203.021
235.434
263.331
282.763
286.701
269.113
222.869
148.399
54.406
-51.154
-159.252
-266.787
-378.302
-493.378
-607.76
-711.338
-787.392
-826.841
-829.01
-800.122
-753.602
-698.865
-640.036
-578.33
-511.915
-441.556
-370.571
-302.963
-243.062
-193.139
-153.727
-124.445
-103.865
-90.513
-83.01
-79.383
-77.729
-76.382
-73.778
-69.245
-62.877
-54.941
-45.948
-36.696
-27.907
-20.373
-14.934
-11.819
-10.845
-11.689
-13.821
-16.706
-19.895
-22.852
-25.029
-26.151
-26.125
-24.975
-22.855
-19.882
-16.147
-11.79
-6.97
-1.825
3.519
8.959
14.419
19.797
24.988
29.887
34.396
38.459
42.055
45.185
47.877
50.161
52.078
53.679
55.028
56.185
57.207
58.15
59.057
59.982
60.975
62.088
63.371
64.857
66.566
68.508
70.686
73.099
75.743
78.605
81.67
84.92
88.345
91.929
95.664
99.533
103.519
107.604
111.767
115.988
120.25
124.533
128.816
133.08
137.305
141.47
145.557
149.546
153.414
157.139
160.7
164.075
167.243
170.185
172.88
175.312
177.464
179.321
180.87
182.1
183.001
183.564
183.782
183.649
183.163
182.321
181.122
179.568
177.661
175.406
172.81
169.881
166.627
163.06
159.192
155.037
150.611
145.929
141.009
135.868
130.527
125.004
119.321
113.497
107.555
101.516
95.4
89.23
83.026
76.808
70.598
64.414
58.276
52.201
46.208
40.314
34.534
28.883
23.377
18.028
12.848
7.849
3.04
-1.571
-5.976
-10.168
-14.143
-17.898
-21.429
-24.735
-27.817
-30.675
-33.311
-35.729
-37.932
-39.926
-41.716
-43.31
-44.713
-45.934
-46.981
-47.863
-48.589
-49.168
-49.609
-49.923
-50.119
-50.208
-50.198
-50.1
-49.923
-49.678
-49.372
-49.016
-48.617
-48.184
-47.724
-47.244
-46.752
-46.254
-45.755
-45.261
-44.777
-44.307
-43.854
-43.422
-43.014
-42.631
-42.276
-41.95
-41.654
-41.39
-41.156
-40.953
-40.782
-40.642
-40.531
-40.449
-40.396
-40.37
-40.369
-40.392
-40.438
-40.505
-40.592
-40.697
-40.819
-40.957
-41.108
-41.272
-41.448
-41.635
-41.831
-42.036
-42.248
-42.467
-42.692
-42.922
-43.157
-43.397
-43.641
-43.889
-44.14
-44.395
-44.653
-44.914
-45.178
-45.444
-45.713
-45.985
-46.259
-46.535
-46.814
-47.095
-47.378
-47.662
-47.946
-48.229
-48.511
-48.79
-49.064
-49.331
-49.59
-49.839
-50.076
-50.298
-50.503
-50.69
-50.855
-50.997
-51.111
-51.196
-51.249
-51.266
-51.245
-51.182
-51.075
-50.922
-50.717
-50.46
-50.146
-49.772
-49.336
-48.833
-48.262
-47.62
-46.904
-46.114
-45.247
-44.304
-43.285
-42.191
-41.025
-39.788
-38.484
-37.115
-35.684
-34.196
-32.653
-31.06
-29.422
-27.741
-26.025
-24.28
-22.514
-20.733
-18.945
-17.157
-15.374
-13.605
-11.857
-10.135
-8.446
-6.795
-5.191
-3.639
-2.152
-0.735
0.612
1.889
3.102
4.259
5.367
6.439
7.492
8.541
9.597
10.671
11.767
12.893
14.06
15.277
16.562
17.923
19.356
20.858
22.413
23.998
25.596
27.171
28.674
30.062
31.297
32.336
33.152
33.712
33.975
33.911
33.49
32.686
31.481
29.856
27.804
25.324
22.438
19.16
15.489
11.509
7.383
3.35
-0.234
-3.046
-4.88
-5.443
-4.367
-1.605
2.681
8.061
13.593
18.546
22.559
25.039
25.406
23.673
20.12
15.635
12.099
11.016
13.401
20.602
33.905
54.08
81.438
115.387
153.377
192.091
229.513
263.462
292.468
316.892
332.864
333.88
314.37
267.198
192.654
99.285
-5.292
-112.282
-218.726
-329.435
-443.829
-557.092
-658.67
-731.532
-766.854
-764.688
-731.9
-682.372
-625.588
-565.422
-502.836
-435.833
-365.07
-293.828
-226.082
-166.018
-115.759
-75.783
-45.683
-24.095
-9.705
-1.25
3.171
5.373
6.996
9.637
13.985
20.004
27.525
36.113
45.042
53.65
61.151
66.689
70.018
71.301
70.848
69.175
66.793
64.13
61.708
60.074
59.502
60.076
61.761
64.388
67.826
71.977
76.696
81.818
87.201
92.714
98.251
103.732
109.06
114.132
118.849
123.121
126.899
130.168
132.94
135.247
137.128
138.627
139.801
140.715
141.43
142.008
142.505
142.969
143.454
144.01
144.689
145.541
146.597
147.877
149.391
151.142
153.128
155.345
157.782
160.424
163.257
166.267
169.442
172.772
176.242
179.834
183.53
187.309
191.152
195.04
198.954
202.872
206.774
210.639
214.446
218.175
221.803
225.308
228.667
231.855
234.851
237.631
240.175
242.462
244.473
246.19
247.597
248.679
249.424
249.82
249.858
249.529
248.828
247.75
246.293
244.455
242.238
239.645
236.68
233.351
229.665
225.632
221.264
216.574
211.577
206.289
200.727
194.91
188.856
182.586
176.122
169.485
162.697
155.782
148.761
141.659
134.497
127.299
120.086
112.882
105.706
98.58
91.523
84.555
77.693
70.956
64.359
57.918
51.646
45.557
39.661
33.969
28.49
23.232
18.201
13.402
8.838
4.513
0.427
-3.42
-7.029
-10.402
-13.543
-16.455
-19.145
-21.619
-23.882
-25.944
-27.811
-29.493
-30.999
-32.338
-33.519
-34.554
-35.452
-36.223
-36.877
-37.424
-37.874
-38.237
-38.522
-38.738
-38.894
-38.998
-39.058
-39.082
-39.076
-39.046
-39
-38.941
-38.876
-38.809
-38.744
-38.683
-38.631
-38.589
-38.561
-38.547
-38.55
-38.57
-38.608
-38.666
-38.743
-38.839
-38.954
-39.088
-39.24
-39.409
-39.595
-39.797
-40.013
-40.244
-40.487
-40.742
-41.008
-41.283
-41.566
-41.857
-42.155
-42.457
-42.765
-43.076
-43.39
-43.707
-44.025
-44.345
-44.665
-44.985
-45.305
-45.625
-45.942
-46.258
-46.571
-46.881
-47.188
-47.491
-47.789
-48.083
-48.373
-48.657
-48.937
-49.212
-49.481
-49.747
-50.008
-50.265
-50.519
-50.77
-51.02
-51.269
-51.517
-51.767
-52.019
-52.273
-52.53
-52.791
-53.057
-53.328
-53.604
-53.885
-54.172
-54.464
-54.762
-55.066
-55.376
-55.692
-56.013
-56.339
-56.668
-57.001
-57.336
-57.672
-58.007
-58.338
-58.665
-58.984
-59.293
-59.589
-59.867
-60.125
-60.359
-60.564
-60.735
-60.868
-60.959
-61.005
-61.001
-60.945
-60.833
-60.664
-60.437
-60.15
-59.803
-59.395
-58.926
-58.396
-57.804
-57.152
-56.439
-55.666
-54.836
-53.952
-53.018
-52.038
-51.017
-49.961
-48.873
-47.76
-46.629
-45.484
-44.33
-43.174
-42.022
-40.883
-39.77
-38.689
-37.642
-36.631
-35.653
-34.704
-33.776
-32.859
-31.937
-30.996
-30.026
-29.017
-27.967
-26.871
-25.721
-24.509
-23.223
-21.857
-20.419
-18.917
-17.367
-15.793
-14.223
-12.696
-11.272
-10
-8.924
-8.091
-7.542
-7.315
-7.455
-7.999
-8.967
-10.386
-12.275
-14.652
-17.534
-20.914
-24.756
-29.027
-33.713
-38.727
-43.912
-49.021
-53.678
-57.534
-60.35
-61.858
-61.726
-59.828
-56.265
-51.4
-46.068
-41.088
-36.944
-34.169
-33.311
-34.542
-37.684
-42.06
-46.074
-47.979
-46.503
-40.365
-28.2
-8.998
17.678
51.616
90.628
130.947
170.249
206.484
238.123
265.664
285.207
289.485
272.292
226.29
151.646
57.116
-49.322
-158.59
-267.373
-380.177
-496.488
-611.914
-716.377
-793.173
-833.298
-836.167
-807.905
-761.722
-706.779
-647.028
-583.732
-515.24
-442.51
-368.98
-298.705
-236.094
-183.581
-141.906
-110.85
-89.073
-75.13
-67.652
-64.647
-64.125
-64.252
-63.23
-60.202
-55.15
-48.267
-40.021
-31.187
-22.494
-14.809
-9.093
-5.671
-4.41
-5.007
-6.931
-9.645
-12.7
-15.543
-17.585
-18.53
-18.276
-16.853
-14.433
-11.146
-7.09
-2.413
2.721
8.167
13.798
19.509
25.227
30.852
36.281
41.412
46.148
50.436
54.258
57.621
60.552
63.088
65.269
67.148
68.787
70.247
71.584
72.852
74.096
75.367
76.714
78.187
79.834
81.689
83.767
86.078
88.623
91.399
94.399
97.611
101.017
104.601
108.348
112.245
116.281
120.44
124.704
129.054
133.47
137.932
142.423
146.922
151.411
155.87
160.279
164.62
168.873
173.02
177.04
180.91
184.61
188.119
191.417
194.485
197.305
199.86
202.133
204.112
205.783
207.137
208.163
208.854
209.204
209.208
208.862
208.167
207.121
205.726
203.986
201.906
199.492
196.752
193.695
190.332
186.676
182.739
178.537
174.084
169.399
164.497
159.398
154.121
148.686
143.113
137.422
131.635
125.772
119.854
113.902
107.936
101.975
96.039
90.147
84.317
78.565
72.909
67.363
61.943
56.662
51.534
46.569
41.778
37.171
32.757
28.542
24.533
20.734
17.149
13.781
10.632
7.7
4.987
2.488
0.203
-1.874
-3.748
-5.424
-6.909
-8.21
-9.335
-10.293
-11.093
-11.744
-12.256
-12.638
-12.901
-13.055
-13.109
-13.075
-12.961
-12.777
-12.534
-12.24
-11.905
-11.537
-11.144
-10.735
-10.317
-9.897
-9.481
-9.077
-8.689
-8.322
-7.982
-7.672
-7.396
-7.157
-6.957
-6.799
-6.684
-6.614
-6.588
-6.607
-6.672
-6.782
-6.936
-7.133
-7.372
-7.653
-7.973
-8.331
-8.725
-9.153
-9.614
-10.105
-10.625
-11.171
-11.742
-12.335
-12.949
-13.58
-14.229
-14.892
-15.567
-16.254
-16.95
-17.654
-18.364
-19.08
-19.799
-20.52
-21.243
-21.966
-22.689
-23.41
-24.129
-24.846
-25.56
-26.271
-26.978
-27.681
-28.381
-29.076
-29.769
-30.457
-31.143
-31.825
-32.506
-33.184
-33.861
-34.537
-35.213
-35.889
-36.565
-37.24
-37.917
-38.593
-39.268
-39.942
-40.615
-41.285
-41.952
-42.615
-43.273
-43.925
-44.568
-45.202
-45.825
-46.434
-47.027
-47.603
-48.157
-48.688
-49.193
-49.668
-50.11
-50.515
-50.879
-51.199
-51.471
-51.689
-51.851
-51.95
-51.985
-51.951
-51.846
-51.666
-51.41
-51.077
-50.667
-50.18
-49.616
-48.976
-48.26
-47.471
-46.611
-45.681
-44.684
-43.622
-42.5
-41.322
-40.096
-38.827
-37.522
-36.186
-34.826
-33.45
-32.067
-30.683
-29.305
-27.938
-26.591
-25.273
-23.996
-22.768
-21.592
-20.467
-19.393
-18.365
-17.381
-16.431
-15.501
-14.575
-13.643
-12.694
-11.726
-10.734
-9.711
-8.647
-7.528
-6.35
-5.12
-3.848
-2.546
-1.234
0.069
1.332
2.498
3.518
4.345
4.925
5.225
5.209
4.833
4.071
2.884
1.234
-0.897
-3.53
-6.678
-10.325
-14.479
-19.167
-24.319
-29.788
-35.341
-40.631
-45.348
-49.27
-52.127
-53.576
-53.397
-51.628
-48.616
-45.049
-41.631
-38.789
-36.86
-36.337
-37.575
-40.452
-44.346
-47.992
-49.831
-48.713
-43.732
-33.758
-17.648
5.302
35.053
70.701
109.834
149.176
186.779
220.636
249.381
273.666
289.691
290.596
270.26
221.059
143.334
46.102
-62.316
-173.224
-284.07
-398.847
-516.67
-631.136
-729.974
-798.699
-830.268
-827.087
-798.822
-756.161
-705.889
-650.08
-587.162
-517.223
-442.973
-368.135
-297.745
-235.299
-182.181
-139.241
-106.193
-81.882
-65.238
-54.964
-49.156
-46.052
-43.971
-41.183
-36.862
-30.964
-23.615
-15.222
-6.49
1.951
9.308
14.665
17.723
18.626
17.681
15.422
12.384
9.016
5.873
3.549
2.356
2.401
3.663
5.969
9.189
13.221
17.914
23.093
28.604
34.307
40.087
45.859
51.517
56.947
62.041
66.698
70.863
74.519
77.671
80.351
82.596
84.454
85.98
87.242
88.305
89.232
90.079
90.899
91.745
92.673
93.735
94.984
96.452
98.16
100.117
102.326
104.784
107.487
110.421
113.571
116.921
120.457
124.166
128.038
132.056
136.202
140.457
144.801
149.214
153.677
158.17
162.672
167.163
171.623
176.03
180.366
184.607
188.732
192.717
196.539
200.176
203.606
206.807
209.76
212.445
214.845
216.945
218.729
220.187
221.306
222.077
222.493
222.546
222.234
221.553
220.502
219.083
217.298
215.152
212.651
209.804
206.619
203.11
199.287
195.166
190.763
186.094
181.178
176.033
170.679
165.137
159.429
153.576
147.601
141.525
135.372
129.163
122.921
116.667
110.423
104.209
98.046
91.952
85.946
80.046
74.268
68.628
63.141
57.82
52.677
47.723
42.968
38.421
34.088
29.975
26.087
22.427
18.997
15.798
12.828
10.087
7.571
5.276
3.198
1.331
-0.332
-1.799
-3.077
-4.175
-5.102
-5.869
-6.485
-6.959
-7.304
-7.529
-7.644
-7.661
-7.59
-7.44
-7.223
-6.948
-6.625
-6.262
-5.868
-5.451
-5.019
-4.58
-4.14
-3.705
-3.281
-2.872
-2.485
-2.121
-1.785
-1.48
-1.208
-0.97
-0.769
-0.606
-0.48
-0.392
-0.343
-0.33
-0.355
-0.415
-0.509
-0.636
-0.794
-0.982
-1.196
-1.436
-1.7
-1.984
-2.288
-2.609
-2.945
-3.295
-3.656
-4.026
-4.405
-4.789
-5.179
-5.572
-5.967
-6.363
-6.76
-7.156
-7.551
-7.946
-8.338
-8.729
-9.118
-9.506
-9.893
-10.279
-10.665
-11.053
-11.442
-11.834
-12.231
-12.633
-13.043
-13.46
-13.887
-14.324
-14.773
-15.234
-15.709
-16.197
-16.699
-17.216
-17.748
-18.296
-18.859
-19.437
-20.029
-20.636
-21.256
-21.888
-22.531
-23.183
-23.842
-24.506
-25.173
-25.841
-26.506
-27.166
-27.817
-28.456
-29.077
-29.678
-30.254
-30.8
-31.311
-31.785
-32.216
-32.601
-32.937
-33.222
-33.452
-33.628
-33.748
-33.811
-33.816
-33.762
-33.651
-33.483
-33.258
-32.977
-32.641
-32.252
-31.815
-31.334
-30.813
-30.256
-29.67
-29.058
-28.426
-27.782
-27.13
-26.474
-25.823
-25.181
-24.558
-23.965
-23.41
-22.894
-22.419
-21.982
-21.578
-21.2
-20.839
-20.476
-20.098
-19.692
-19.248
-18.76
-18.221
-17.621
-16.952
-16.198
-15.348
-14.409
-13.383
-12.286
-11.145
-9.984
-8.84
-7.775
-6.846
-6.103
-5.604
-5.389
-5.5
-5.988
-6.893
-8.248
-10.094
-12.451
-15.342
-18.781
-22.752
-27.225
-32.172
-37.548
-43.25
-49.098
-54.82
-60.075
-64.55
-68
-70.161
-70.688
-69.394
-66.374
-61.969
-56.841
-51.676
-46.849
-42.756
-40.051
-39.101
-39.799
-41.626
-43.372
-43.588
-41.383
-35.882
-25.57
-9.155
13.881
43.599
78.261
114.444
150.414
184.701
215.662
243.604
264.485
270.644
255.434
211.079
137.364
42.948
-63.908
-173.9
-284.134
-399.905
-520.803
-641.855
-751.385
-830.485
-869.469
-868.34
-834.674
-783.816
-725.929
-664.869
-601.379
-532.973
-460.19
-386.536
-316.175
-253.501
-200.786
-158.528
-126.329
-102.816
-86.607
-76.411
-70.339
-66.577
-63.495
-59.491
-53.858
-46.64
-38.032
-28.487
-18.746
-9.478
-1.466
4.423
7.938
9.257
8.697
6.793
4.084
1.022
-1.839
-3.915
-4.908
-4.712
-3.346
-0.973
2.285
6.334
11.024
16.188
21.674
27.344
33.087
38.818
44.431
49.809
54.841
59.423
63.496
67.039
70.056
72.575
74.631
76.269
77.546
78.53
79.287
79.882
80.372
80.809
81.251
81.755
82.377
83.173
84.178
85.415
86.898
88.631
90.613
92.841
95.306
97.99
100.88
103.963
107.227
110.662
114.254
117.985
121.837
125.789
129.824
133.922
138.065
142.233
146.405
150.561
154.682
158.748
162.737
166.627
170.395
174.017
177.47
180.732
183.782
186.598
189.161
191.453
193.457
195.16
196.546
197.606
198.328
198.704
198.728
198.395
197.701
196.645
195.227
193.45
191.317
188.834
186.009
182.85
179.368
175.576
171.486
167.115
162.478
157.593
152.478
147.154
141.641
135.96
130.134
124.184
118.134
112.006
105.824
99.609
93.385
87.173
80.994
74.869
68.818
62.859
57.012
51.293
45.719
40.304
35.064
30.01
25.154
20.508
16.078
11.875
7.903
4.168
0.675
-2.575
-5.581
-8.341
-10.859
-13.135
-15.174
-16.981
-18.561
-19.921
-21.069
-22.013
-22.762
-23.326
-23.714
-23.938
-24.007
-23.933
-23.726
-23.398
-22.959
-22.42
-21.791
-21.084
-20.308
-19.473
-18.588
-17.662
-16.703
-15.721
-14.721
-13.712
-12.701
-11.692
-10.693
-9.708
-8.741
-7.798
-6.882
-5.995
-5.141
-4.322
-3.539
-2.794
-2.088
-1.422
-0.797
-0.212
0.331
0.833
1.294
1.713
2.091
2.428
2.723
2.977
3.189
3.36
3.489
3.576
3.62
3.622
3.581
3.497
3.37
3.2
2.988
2.734
2.44
2.105
1.732
1.32
0.871
0.388
-0.13
-0.68
-1.261
-1.869
-2.503
-3.16
-3.837
-4.53
-5.236
-5.951
-6.672
-7.393
-8.11
-8.819
-9.514
-10.19
-10.842
-11.463
-12.048
-12.591
-13.088
-13.532
-13.92
-14.248
-14.512
-14.71
-14.841
-14.903
-14.896
-14.818
-14.671
-14.453
-14.167
-13.812
-13.391
-12.904
-12.356
-11.75
-11.092
-10.389
-9.644
-8.866
-8.059
-7.23
-6.387
-5.536
-4.684
-3.837
-3.002
-2.189
-1.41
-0.673
0.02
0.667
1.27
1.833
2.362
2.867
3.364
3.865
4.38
4.92
5.487
6.089
6.735
7.434
8.197
9.034
9.937
10.901
11.915
12.954
13.994
15
15.917
16.696
17.295
17.664
17.76
17.539
16.95
15.954
14.525
12.631
10.246
7.348
3.913
-0.057
-4.527
-9.473
-14.886
-20.68
-26.696
-32.674
-38.215
-42.956
-46.646
-48.998
-49.666
-48.518
-45.654
-41.447
-36.758
-32.415
-28.907
-26.775
-26.564
-28.413
-32.117
-36.967
-41.326
-43.441
-42.028
-35.767
-23.29
-3.62
23.635
58.215
97.874
138.83
178.722
215.352
247.113
274.439
293.289
296.346
277.272
228.554
150.531
52.309
-57.855
-170.616
-282.894
-399.813
-520.879
-641.307
-749.997
-828.616
-867.432
-866.016
-831.402
-778.586
-718.006
-654.083
-588.011
-517.546
-443.27
-368.708
-298.155
-236.149
-184.912
-144.762
-115.075
-94.241
-80.72
-73.038
-69.072
-66.848
-64.699
-61.113
-55.531
-48.117
-39.161
-29.214
-19.126
-9.65
-1.597
4.224
7.631
8.849
8.237
6.345
3.727
0.85
-1.741
-3.504
-4.174
-3.67
-2.031
0.58
4.039
8.247
13.059
18.313
23.864
29.583
35.36
41.111
46.733
52.114
57.148
61.736
65.822
69.386
72.434
74.996
77.107
78.811
80.164
81.232
82.079
82.769
83.358
83.897
84.44
85.042
85.757
86.639
87.723
89.03
90.572
92.354
94.375
96.633
99.117
101.812
104.703
107.779
111.028
114.44
118
121.693
125.5
129.4
133.377
137.41
141.482
145.571
149.659
153.724
157.746
161.707
165.584
169.355
172.996
176.485
179.799
182.915
185.812
188.47
190.868
192.989
194.816
196.334
197.531
198.394
198.912
199.077
198.882
198.322
197.394
196.095
194.426
192.389
189.987
187.227
184.114
180.659
176.872
172.765
168.353
163.65
158.673
153.44
147.969
142.282
136.398
130.34
124.129
117.789
111.342
104.812
98.222
91.595
84.954
78.322
71.72
65.17
58.694
52.31
46.039
39.899
33.907
28.079
22.432
16.978
11.732
6.703
1.904
-2.658
-6.975
-11.041
-14.85
-18.4
-21.689
-24.716
-27.482
-29.987
-32.237
-34.235
-35.985
-37.496
-38.774
-39.827
-40.664
-41.295
-41.731
-41.982
-42.059
-41.974
-41.738
-41.365
-40.866
-40.253
-39.539
-38.735
-37.854
-36.907
-35.906
-34.863
-33.787
-32.688
-31.578
-30.465
-29.357
-28.263
-27.191
-26.148
-25.14
-24.174
-23.254
-22.385
-21.572
-20.818
-20.126
-19.5
-18.94
-18.449
-18.029
-17.679
-17.4
-17.193
-17.056
-16.99
-16.992
-17.061
-17.195
-17.391
-17.647
-17.959
-18.325
-18.74
-19.201
-19.704
-20.246
-20.821
-21.426
-22.057
-22.708
-23.374
-24.052
-24.736
-25.42
-26.1
-26.771
-27.427
-28.063
-28.675
-29.255
-29.8
-30.304
-30.761
-31.165
-31.513
-31.799
-32.019
-32.17
-32.249
-32.252
-32.18
-32.031
-31.806
-31.505
-31.13
-30.68
-30.159
-29.567
-28.908
-28.183
-27.395
-26.55
-25.652
-24.709
-23.727
-22.714
-21.676
-20.621
-19.556
-18.491
-17.431
-16.381
-15.351
-14.349
-13.384
-12.472
-11.62
-10.83
-10.106
-9.447
-8.845
-8.296
-7.786
-7.295
-6.811
-6.322
-5.818
-5.298
-4.752
-4.167
-3.531
-2.83
-2.051
-1.201
-0.284
0.695
1.709
2.732
3.723
4.621
5.374
5.945
6.289
6.375
6.157
5.583
4.607
3.195
1.326
-1.008
-3.825
-7.145
-10.958
-15.249
-19.952
-24.991
-30.347
-35.92
-41.524
-46.903
-51.649
-55.381
-57.878
-58.847
-57.935
-55.129
-50.572
-44.667
-38.383
-32.451
-27.29
-23.591
-21.918
-22.219
-24.253
-27.159
-29.082
-28.699
-25.018
-16.412
-1.592
20.118
49.143
84.026
121.451
158.919
194.377
227.017
257.48
283.685
300.012
297.57
266.937
204.508
114.689
7.971
-104.548
-217.987
-334.577
-456.68
-581.795
-698.73
-789.253
-841.193
-851.379
-826.215
-780.588
-724.801
-664.01
-599.809
-529.634
-454.334
-377.54
-303.394
-237.004
-181.376
-137.221
-104.272
-81.017
-65.641
-56.694
-52.213
-50.146
-48.625
-45.832
-40.905
-33.898
-25.138
-15.156
-4.729
5.4
14.368
21.186
25.496
27.427
27.295
25.652
23.036
19.904
16.822
14.397
12.982
12.724
13.63
15.554
18.376
22.004
26.294
31.087
36.234
41.606
47.098
52.629
58.108
63.434
68.506
73.231
77.531
81.364
84.719
87.611
90.067
92.128
93.84
95.26
96.452
97.481
98.404
99.276
100.142
101.053
102.059
103.208
104.545
106.097
107.881
109.904
112.168
114.669
117.401
120.351
123.501
126.835
130.338
133.996
137.796
141.723
145.756
149.875
154.061
158.292
162.55
166.815
171.065
175.279
179.438
183.52
187.507
191.376
195.106
198.675
202.06
205.24
208.195
210.905
213.35
215.514
217.38
218.935
220.166
221.062
221.614
221.814
221.656
221.135
220.25
218.999
217.384
215.407
213.072
210.386
207.355
203.99
200.301
196.3
192.001
187.419
182.57
177.471
172.14
166.596
160.86
154.951
148.892
142.703
136.407
130.024
123.578
117.09
110.581
104.072
97.584
91.137
84.75
78.442
72.229
66.13
60.159
54.332
48.662
43.162
37.844
32.718
27.792
23.075
18.573
14.292
10.235
6.407
2.807
-0.563
-3.704
-6.617
-9.306
-11.774
-14.026
-16.068
-17.907
-19.549
-21.002
-22.275
-23.376
-24.315
-25.102
-25.747
-26.258
-26.648
-26.925
-27.101
-27.185
-27.187
-27.118
-26.986
-26.801
-26.573
-26.309
-26.017
-25.705
-25.381
-25.052
-24.722
-24.4
-24.088
-23.794
-23.52
-23.271
-23.051
-22.862
-22.707
-22.588
-22.507
-22.466
-22.465
-22.507
-22.59
-22.715
-22.883
-23.093
-23.343
-23.633
-23.962
-24.328
-24.729
-25.162
-25.626
-26.117
-26.633
-27.172
-27.731
-28.306
-28.894
-29.493
-30.099
-30.708
-31.318
-31.924
-32.522
-33.11
-33.682
-34.236
-34.766
-35.27
-35.742
-36.178
-36.574
-36.926
-37.229
-37.478
-37.671
-37.804
-37.873
-37.875
-37.809
-37.673
-37.467
-37.191
-36.846
-36.433
-35.952
-35.407
-34.798
-34.129
-33.402
-32.618
-31.782
-30.898
-29.971
-29.008
-28.014
-26.995
-25.96
-24.913
-23.862
-22.814
-21.775
-20.751
-19.75
-18.777
-17.842
-16.956
-16.125
-15.351
-14.635
-13.971
-13.355
-12.78
-12.233
-11.699
-11.163
-10.612
-10.035
-9.427
-8.781
-8.085
-7.331
-6.501
-5.587
-4.597
-3.537
-2.425
-1.287
-0.142
0.971
1.992
2.873
3.566
4.024
4.21
4.083
3.588
2.69
1.355
-0.444
-2.723
-5.499
-8.782
-12.564
-16.812
-21.495
-26.59
-31.987
-37.508
-42.888
-47.734
-51.694
-54.542
-55.978
-55.646
-53.518
-49.745
-44.751
-39.494
-34.69
-30.704
-28.151
-27.571
-28.912
-31.912
-35.695
-38.365
-38.566
-35.383
-27.28
-13.001
8.112
36.531
70.785
107.41
143.904
178.403
210.476
241.286
268.953
287.588
287.777
259.492
198.817
110.337
5.043
-105.474
-216.047
-328.975
-447.252
-569.086
-683.859
-773.846
-826.765
-839.145
-817.217
-775.43
-723.815
-667.411
-607.495
-541.307
-469.651
-395.958
-323.962
-258.58
-202.712
-157.079
-121.993
-96.497
-78.939
-68.123
-62.488
-60.147
-59.534
-59.06
-57.299
-53.78
-48.642
-42.11
-34.752
-27.249
-20.169
-14.265
-10.238
-8.244
-8.097
-9.454
-11.78
-14.579
-17.418
-19.787
-21.229
-21.526
-20.629
-18.613
-15.644
-11.863
-7.394
-2.399
2.954
8.524
14.19
19.856
25.435
30.829
35.932
40.646
44.908
48.689
51.988
54.83
57.246
59.277
60.98
62.418
63.653
64.743
65.743
66.7
67.668
68.698
69.842
71.15
72.658
74.387
76.349
78.548
80.981
83.644
86.524
89.603
92.867
96.302
99.893
103.629
107.495
111.472
115.541
119.682
123.875
128.101
132.34
136.572
140.778
144.936
149.028
153.035
156.935
160.708
164.331
167.781
171.037
174.079
176.885
179.437
181.716
183.706
185.392
186.761
187.802
188.504
188.858
188.859
188.502
187.782
186.7
185.255
183.45
181.289
178.777
175.922
172.734
169.222
165.399
161.279
156.877
152.21
147.293
142.147
136.791
131.245
125.53
119.669
113.682
107.594
101.427
95.204
88.947
82.679
76.422
70.196
64.024
57.925
51.918
46.022
40.254
34.63
29.166
23.876
18.772
13.867
9.171
4.692
0.439
-3.581
-7.365
-10.908
-14.207
-17.262
-20.072
-22.638
-24.964
-27.053
-28.909
-30.538
-31.947
-33.144
-34.137
-34.935
-35.548
-35.987
-36.261
-36.382
-36.361
-36.211
-35.941
-35.566
-35.095
-34.54
-33.913
-33.224
-32.485
-31.705
-30.894
-30.062
-29.218
-28.37
-27.527
-26.696
-25.884
-25.098
-24.343
-23.626
-22.95
-22.32
-21.74
-21.213
-20.742
-20.329
-19.977
-19.686
-19.458
-19.292
-19.188
-19.146
-19.165
-19.243
-19.378
-19.568
-19.81
-20.102
-20.44
-20.822
-21.244
-21.703
-22.194
-22.715
-23.261
-23.828
-24.411
-25.007
-25.609
-26.215
-26.819
-27.416
-28.002
-28.572
-29.12
-29.641
-30.13
-30.582
-30.991
-31.353
-31.664
-31.918
-32.114
-32.246
-32.314
-32.316
-32.251
-32.119
-31.921
-31.657
-31.326
-30.932
-30.475
-29.958
-29.381
-28.748
-28.063
-27.33
-26.556
-25.746
-24.907
-24.044
-23.164
-22.274
-21.381
-20.491
-19.61
-18.747
-17.907
-17.101
-16.341
-15.635
-14.984
-14.393
-13.856
-13.37
-12.929
-12.522
-12.132
-11.748
-11.356
-10.947
-10.517
-10.056
-9.555
-9.006
-8.39
-7.7
-6.94
-6.112
-5.232
-4.324
-3.408
-2.521
-1.72
-1.051
-0.563
-0.304
-0.311
-0.621
-1.282
-2.326
-3.782
-5.679
-8.034
-10.866
-14.182
-17.971
-22.199
-26.838
-31.864
-37.171
-42.582
-47.834
-52.554
-56.413
-59.201
-60.634
-60.357
-58.321
-54.658
-49.76
-44.529
-39.635
-35.404
-32.414
-31.2
-31.744
-33.842
-36.675
-38.42
-37.787
-33.929
-25.368
-10.866
10.253
38.533
72.536
108.815
144.988
179.359
211.596
242.921
271.56
291.699
294.12
269.279
212.79
128.497
27.884
-77.504
-180.626
-281.063
-383.606
-488.258
-588.317
-672.175
-727.121
-748.29
-739.462
-709.546
-668.018
-620.673
-569.111
-512.531
-451.428
-387.812
-324.575
-265.78
-214.148
-170.606
-135.637
-108.582
-88.081
-73.45
-63.795
-57.493
-53.176
-49.451
-44.889
-39.072
-32.185
-24.277
-15.676
-6.992
1.292
8.461
13.731
16.936
18.237
17.901
16.392
14.149
11.543
9.056
7.189
6.221
6.268
7.317
9.239
11.933
15.313
19.265
23.655
28.355
33.257
38.263
43.299
48.29
53.147
57.786
62.128
66.105
69.683
72.861
75.657
78.101
80.233
82.093
83.73
85.205
86.574
87.887
89.192
90.528
91.935
93.458
95.137
97.01
99.1
101.417
103.966
106.746
109.75
112.97
116.394
120.001
123.773
127.695
131.752
135.929
140.209
144.57
148.993
153.455
157.934
162.41
166.861
171.264
175.598
179.841
183.971
187.969
191.812
195.479
198.948
202.196
205.204
207.952
210.421
212.594
214.454
215.988
217.183
218.028
218.515
218.637
218.387
217.762
216.76
215.381
213.625
211.498
209.002
206.146
202.937
199.386
195.504
191.304
186.801
182.011
176.951
171.639
166.095
160.338
154.39
148.273
142.007
135.617
129.125
122.553
115.924
109.263
102.589
95.927
89.297
82.72
76.216
69.804
63.503
57.331
51.302
45.435
39.741
34.236
28.93
23.835
18.959
14.313
9.901
5.729
1.802
-1.877
-5.307
-8.487
-11.42
-14.106
-16.55
-18.755
-20.728
-22.475
-24.003
-25.322
-26.439
-27.365
-28.11
-28.686
-29.103
-29.373
-29.508
-29.519
-29.42
-29.221
-28.935
-28.575
-28.151
-27.675
-27.159
-26.613
-26.048
-25.473
-24.899
-24.333
-23.785
-23.261
-22.77
-22.316
-21.906
-21.545
-21.236
-20.983
-20.788
-20.654
-20.582
-20.57
-20.62
-20.729
-20.896
-21.119
-21.393
-21.717
-22.084
-22.492
-22.936
-23.41
-23.909
-24.427
-24.959
-25.497
-26.036
-26.57
-27.09
-27.592
-28.069
-28.514
-28.921
-29.284
-29.598
-29.857
-30.055
-30.189
-30.253
-30.244
-30.159
-29.996
-29.753
-29.43
-29.028
-28.546
-27.989
-27.358
-26.658
-25.893
-25.066
-24.184
-23.252
-22.275
-21.26
-20.214
-19.142
-18.055
-16.961
-15.868
-14.785
-13.722
-12.686
-11.688
-10.735
-9.838
-9.001
-8.23
-7.531
-6.911
-6.38
-5.942
-5.597
-5.342
-5.173
-5.086
-5.075
-5.128
-5.227
-5.353
-5.489
-5.624
-5.752
-5.866
-5.957
-6.009
-6.006
-5.943
-5.823
-5.655
-5.448
-5.206
-4.941
-4.688
-4.497
-4.421
-4.512
-4.803
-5.32
-6.096
-7.152
-8.527
-10.264
-12.388
-14.92
-17.872
-21.236
-25.033
-29.305
-33.989
-38.927
-43.883
-48.509
-52.51
-55.699
-57.832
-58.592
-57.815
-55.585
-52.257
-48.524
-45.091
-42.332
-40.59
-40.394
-42.004
-45.217
-49.411
-53.274
-55.221
-54.273
-49.559
-39.597
-23.297
-0.34
29.219
63.431
98.864
134.009
167.533
197.901
225.763
247.63
256.487
246.455
210.427
147.136
63.706
-31.287
-129.725
-227.435
-326.019
-427.878
-529.194
-620.908
-693.121
-736.147
-748.841
-738.029
-709.745
-670.961
-625.761
-573.311
-514.817
-452.334
-387.956
-325.835
-269.447
-220.709
-180.758
-149.5
-125.945
-109.017
-97.918
-91.44
-87.862
-85.487
-82.632
-78.324
-72.536
-65.48
-57.349
-48.568
-39.745
-31.645
-25.228
-20.96
-18.734
-18.276
-19.167
-20.98
-23.344
-25.773
-27.684
-28.712
-28.719
-27.693
-25.765
-23.05
-19.611
-15.56
-11.04
-6.178
-1.096
4.107
9.366
14.604
19.729
24.655
29.292
33.561
37.427
40.883
43.939
46.625
48.972
51.018
52.813
54.413
55.875
57.252
58.589
59.926
61.308
62.78
64.386
66.17
68.157
70.361
72.789
75.443
78.319
81.413
84.712
88.198
91.857
95.673
99.634
103.726
107.935
112.239
116.619
121.055
125.526
130.012
134.491
138.944
143.347
147.681
151.925
156.059
160.062
163.912
167.587
171.065
174.327
177.351
180.119
182.613
184.816
186.713
188.291
189.539
190.446
191.006
191.211
191.056
190.54
189.66
188.419
186.817
184.859
182.552
179.903
176.921
173.617
170.004
166.096
161.907
157.455
152.756
147.83
142.695
137.373
131.883
126.247
120.487
114.624
108.682
102.681
96.645
90.594
84.55
78.533
72.563
66.659
60.841
55.124
49.527
44.064
38.751
33.6
28.624
23.834
19.241
14.854
10.679
6.723
2.992
-0.511
-3.782
-6.821
-9.627
-12.201
-14.543
-16.658
-18.548
-20.218
-21.674
-22.922
-23.968
-24.821
-25.489
-25.98
-26.303
-26.468
-26.484
-26.362
-26.11
-25.74
-25.262
-24.686
-24.021
-23.279
-22.468
-21.598
-20.68
-19.721
-18.731
-17.719
-16.691
-15.657
-14.624
-13.598
-12.586
-11.595
-10.63
-9.697
-8.801
-7.946
-7.137
-6.377
-5.67
-5.018
-4.424
-3.891
-3.42
-3.012
-2.669
-2.39
-2.177
-2.028
-1.943
-1.92
-1.959
-2.056
-2.21
-2.417
-2.676
-2.981
-3.331
-3.721
-4.147
-4.606
-5.091
-5.599
-6.125
-6.664
-7.209
-7.757
-8.3
-8.835
-9.355
-9.854
-10.327
-10.769
-11.173
-11.535
-11.848
-12.109
-12.311
-12.453
-12.529
-12.538
-12.477
-12.345
-12.141
-11.868
-11.525
-11.114
-10.637
-10.097
-9.498
-8.843
-8.135
-7.379
-6.58
-5.743
-4.875
-3.983
-3.074
-2.155
-1.233
-0.317
0.587
1.469
2.321
3.139
3.917
4.65
5.329
5.944
6.491
6.968
7.378
7.725
8.012
8.244
8.433
8.597
8.755
8.923
9.112
9.327
9.575
9.864
10.209
10.625
11.118
11.684
12.312
12.991
13.712
14.461
15.199
15.871
16.417
16.777
16.912
16.793
16.383
15.658
14.575
13.085
11.161
8.78
5.929
2.619
-1.173
-5.489
-10.269
-15.352
-20.492
-25.333
-29.57
-33.007
-35.39
-36.385
-35.786
-33.639
-30.276
-26.375
-22.649
-19.483
-17.21
-16.377
-17.324
-19.939
-23.671
-27.245
-29.043
-28.049
-23.417
-13.641
2.534
25.627
55.76
91.101
128.151
165.337
201.447
234.926
266.272
291.766
303.939
296.648
262.424
199.548
115.063
17.331
-84.654
-185.647
-288.079
-394.719
-503.577
-607.342
-692.835
-747.759
-767.788
-756.513
-723.415
-678.37
-627.548
-572.884
-513.389
-449.357
-382.733
-316.58
-255.416
-202.24
-158.019
-123.184
-96.944
-77.855
-65.169
-57.806
-53.878
-51.779
-49.969
-46.978
-42.389
-36.39
-29.05
-20.757
-12.233
-4.08
2.909
7.937
10.854
11.85
11.218
9.442
6.997
4.288
1.821
0.095
-0.651
-0.343
0.971
3.138
6.043
9.596
13.67
18.128
22.846
27.715
32.64
37.55
42.36
46.975
51.306
55.263
58.798
61.895
64.568
66.847
68.767
70.371
71.706
72.832
73.806
74.683
75.514
76.34
77.208
78.165
79.259
80.537
82.029
83.752
85.714
87.917
90.355
93.025
95.913
99.001
102.273
105.713
109.309
113.047
116.912
120.885
124.945
129.071
133.242
137.438
141.638
145.821
149.966
154.05
158.054
161.958
165.74
169.379
172.853
176.139
179.216
182.064
184.664
186.997
189.046
190.795
192.232
193.346
194.126
194.563
194.652
194.387
193.765
192.786
191.448
189.754
187.708
185.315
182.581
179.516
176.13
172.435
168.443
164.17
159.63
154.841
149.821
144.588
139.162
133.563
127.812
121.93
115.939
109.86
103.715
97.525
91.312
85.097
78.898
72.737
66.631
60.599
54.657
48.822
43.11
37.534
32.108
26.845
21.754
16.848
12.133
7.618
3.309
-0.789
-4.672
-8.336
-11.781
-15.006
-18.011
-20.798
-23.37
-25.731
-27.884
-29.836
-31.592
-33.16
-34.546
-35.759
-36.807
-37.699
-38.444
-39.05
-39.528
-39.886
-40.134
-40.282
-40.338
-40.311
-40.211
-40.047
-39.826
-39.558
-39.249
-38.907
-38.539
-38.151
-37.75
-37.342
-36.931
-36.521
-36.119
-35.726
-35.348
-34.986
-34.643
-34.322
-34.025
-33.753
-33.508
-33.289
-33.1
-32.939
-32.808
-32.706
-32.634
-32.592
-32.579
-32.595
-32.64
-32.711
-32.809
-32.932
-33.078
-33.245
-33.433
-33.64
-33.863
-34.102
-34.354
-34.617
-34.89
-35.17
-35.455
-35.743
-36.031
-36.317
-36.599
-36.872
-37.136
-37.386
-37.62
-37.834
-38.024
-38.188
-38.32
-38.418
-38.478
-38.494
-38.466
-38.388
-38.259
-38.076
-37.838
-37.543
-37.191
-36.784
-36.321
-35.802
-35.229
-34.603
-33.925
-33.198
-32.422
-31.6
-30.735
-29.832
-28.897
-27.934
-26.949
-25.948
-24.938
-23.923
-22.913
-21.912
-20.926
-19.961
-19.026
-18.128
-17.28
-16.488
-15.755
-15.082
-14.466
-13.902
-13.381
-12.895
-12.424
-11.954
-11.475
-10.975
-10.449
-9.892
-9.292
-8.639
-7.921
-7.129
-6.264
-5.335
-4.351
-3.336
-2.319
-1.333
-0.429
0.34
0.934
1.309
1.422
1.243
0.73
-0.155
-1.432
-3.135
-5.29
-7.909
-11.014
-14.597
-18.621
-23.067
-27.925
-33.109
-38.472
-43.771
-48.651
-52.799
-55.99
-57.949
-58.33
-56.937
-53.838
-49.4
-44.34
-39.417
-35.082
-31.75
-30.064
-30.415
-32.658
-36.166
-39.571
-41.156
-39.792
-34.505
-23.662
-5.861
19.453
52.35
90.92
131.438
172.032
211.174
247.154
280.197
306.089
317.098
306.733
267.449
198.919
109.256
6.349
-100.648
-208.345
-320.987
-438.207
-555.954
-664.091
-745.657
-791.34
-800.008
-777.411
-736.651
-686.64
-631.295
-572.002
-507.093
-437.597
-366.972
-299.135
-238.465
-187.495
-146.993
-116.773
-95.512
-81.648
-73.769
-69.952
-68.259
-66.921
-64.248
-59.461
-52.615
-44.027
-34.24
-24.031
-14.159
-5.479
1.087
5.206
7.02
6.851
5.222
2.656
-0.399
-3.405
-5.791
-7.221
-7.563
-6.812
-5.101
-2.541
0.789
4.765
9.244
14.095
19.194
24.438
29.75
35.048
40.231
45.206
49.88
54.174
58.049
61.496
64.526
67.167
69.453
71.426
73.137
74.647
76.017
77.302
78.551
79.809
81.121
82.535
84.099
85.855
87.83
90.037
92.484
95.171
98.096
101.251
104.624
108.195
111.948
115.868
119.94
124.151
128.484
132.918
137.431
142.003
146.612
151.237
155.855
160.445
164.984
169.449
173.82
178.074
182.19
186.145
189.916
193.479
196.813
199.897
202.71
205.234
207.45
209.344
210.902
212.112
212.963
213.447
213.558
213.29
212.64
211.608
210.194
208.401
206.232
203.694
200.795
197.545
193.955
190.039
185.81
181.285
176.48
171.416
166.11
160.584
154.859
148.956
142.899
136.711
130.414
124.033
117.59
111.109
104.613
98.123
91.663
85.252
78.911
72.659
66.514
60.495
54.616
48.894
43.342
37.974
32.801
27.832
23.078
18.546
14.242
10.171
6.337
2.741
-0.614
-3.73
-6.608
-9.249
-11.659
-13.842
-15.804
-17.551
-19.091
-20.432
-21.584
-22.555
-23.357
-23.998
-24.491
-24.844
-25.07
-25.18
-25.183
-25.091
-24.915
-24.664
-24.35
-23.981
-23.566
-23.116
-22.638
-22.14
-21.63
-21.114
-20.599
-20.09
-19.594
-19.113
-18.654
-18.218
-17.809
-17.429
-17.081
-16.766
-16.484
-16.236
-16.022
-15.842
-15.696
-15.582
-15.5
-15.448
-15.425
-15.428
-15.458
-15.511
-15.586
-15.682
-15.798
-15.93
-16.079
-16.243
-16.42
-16.609
-16.811
-17.023
-17.246
-17.479
-17.721
-17.972
-18.233
-18.502
-18.78
-19.066
-19.36
-19.662
-19.971
-20.287
-20.609
-20.937
-21.271
-21.61
-21.953
-22.3
-22.65
-23.001
-23.353
-23.703
-24.05
-24.393
-24.728
-25.055
-25.37
-25.671
-25.955
-26.218
-26.458
-26.671
-26.852
-26.998
-27.106
-27.171
-27.19
-27.16
-27.079
-26.943
-26.751
-26.503
-26.198
-25.837
-25.419
-24.944
-24.415
-23.831
-23.197
-22.512
-21.779
-21.001
-20.18
-19.323
-18.434
-17.52
-16.584
-15.632
-14.672
-13.709
-12.75
-11.802
-10.87
-9.961
-9.08
-8.236
-7.441
-6.701
-6.017
-5.39
-4.817
-4.294
-3.816
-3.374
-2.95
-2.531
-2.104
-1.656
-1.185
-0.683
-0.141
0.448
1.103
1.83
2.626
3.486
4.397
5.336
6.286
7.216
8.068
8.793
9.34
9.648
9.688
9.423
8.811
7.833
6.443
4.596
2.273
-0.556
-3.902
-7.74
-12.079
-16.942
-22.241
-27.823
-33.441
-38.72
-43.36
-47.149
-49.819
-51.047
-50.629
-48.606
-45.326
-41.471
-37.74
-34.538
-32.196
-31.213
-31.92
-34.178
-37.395
-40.313
-41.341
-39.462
-33.851
-23.181
-6.339
17.293
47.88
83.645
121.39
158.863
194.271
227.225
258.671
286.612
305.471
306.406
279.802
221.75
136.436
34.204
-73.78
-182.191
-292.838
-408.488
-527.454
-639.881
-729.415
-784.501
-801.723
-786.613
-751.978
-706.653
-655.333
-599.533
-537.013
-468.775
-397.935
-327.911
-263.788
-208.927
-164.395
-130.413
-105.838
-88.953
-78.718
-73.699
-71.746
-70.804
-68.913
-64.903
-58.725
-50.738
-41.271
-30.89
-20.409
-10.772
-3.099
2.048
4.767
5.364
4.327
2.163
-0.681
-3.635
-6.051
-7.523
-7.897
-7.155
-5.441
-2.879
0.459
4.443
8.926
13.776
18.867
24.103
29.408
34.692
39.854
44.794
49.413
53.626
57.39
60.688
63.534
65.958
67.996
69.691
71.094
72.267
73.271
74.164
74.997
75.816
76.673
77.617
78.7
79.97
81.458
83.182
85.152
87.37
89.837
92.548
95.492
98.653
102.017
105.569
109.298
113.193
117.237
121.414
125.702
130.082
134.533
139.035
143.567
148.108
152.635
157.126
161.56
165.915
170.169
174.297
178.277
182.082
185.691
189.08
192.228
195.112
197.713
200.012
201.995
203.644
204.949
205.897
206.478
206.684
206.51
205.951
205.005
203.671
201.95
199.845
197.362
194.507
191.29
187.72
183.809
179.572
175.024
170.181
165.062
159.685
154.071
148.241
142.217
136.022
129.679
123.212
116.645
110.001
103.306
96.582
89.852
83.141
76.469
69.858
63.329
56.902
50.596
44.429
38.417
32.577
26.922
21.467
16.223
11.201
6.41
1.857
-2.45
-6.507
-10.31
-13.857
-17.148
-20.183
-22.963
-25.491
-27.773
-29.813
-31.617
-33.194
-34.551
-35.698
-36.644
-37.399
-37.975
-38.383
-38.634
-38.74
-38.713
-38.565
-38.308
-37.953
-37.513
-36.999
-36.422
-35.792
-35.12
-34.417
-33.69
-32.95
-32.204
-31.46
-30.725
-30.005
-29.307
-28.634
-27.992
-27.384
-26.813
-26.282
-25.794
-25.348
-24.947
-24.589
-24.276
-24.006
-23.779
-23.593
-23.446
-23.337
-23.264
-23.223
-23.214
-23.232
-23.276
-23.344
-23.431
-23.537
-23.658
-23.793
-23.938
-24.092
-24.254
-24.421
-24.592
-24.766
-24.941
-25.116
-25.291
-25.465
-25.637
-25.808
-25.977
-26.144
-26.311
-26.477
-26.644
-26.811
-26.981
-27.154
-27.331
-27.514
-27.704
-27.902
-28.11
-28.328
-28.559
-28.802
-29.06
-29.331
-29.618
-29.919
-30.235
-30.565
-30.909
-31.266
-31.636
-32.016
-32.406
-32.805
-33.21
-33.619
-34.031
-34.443
-34.852
-35.255
-35.649
-36.032
-36.399
-36.748
-37.074
-37.375
-37.645
-37.882
-38.08
-38.236
-38.347
-38.407
-38.415
-38.367
-38.26
-38.094
-37.867
-37.578
-37.228
-36.819
-36.351
-35.825
-35.244
-34.611
-33.927
-33.197
-32.422
-31.607
-30.756
-29.875
-28.97
-28.047
-27.112
-26.17
-25.228
-24.294
-23.374
-22.475
-21.602
-20.759
-19.951
-19.187
-18.476
-17.823
-17.228
-16.689
-16.204
-15.767
-15.374
-15.014
-14.669
-14.321
-13.953
-13.556
-13.127
-12.659
-12.148
-11.578
-10.936
-10.215
-9.422
-8.568
-7.667
-6.729
-5.77
-4.83
-3.967
-3.242
-2.722
-2.445
-2.442
-2.747
-3.381
-4.388
-5.819
-7.704
-10.071
-12.932
-16.278
-20.134
-24.548
-29.465
-34.72
-40.055
-45.088
-49.503
-53.101
-55.629
-56.755
-56.273
-54.229
-50.986
-47.262
-43.791
-40.97
-39.107
-38.691
-40.033
-42.999
-46.986
-50.669
-52.385
-51.083
-45.932
-35.576
-18.86
4.881
35.85
72.23
110.737
149.089
185.529
219.564
251.97
280.833
300.548
302.184
276.348
218.279
131.337
26.871
-83.509
-192.604
-300.183
-411.633
-527.202
-639.24
-733.87
-795.915
-818.845
-806.608
-770.165
-721.011
-666.374
-608.221
-544.923
-476.576
-405.335
-334.577
-269.348
-212.956
-166.418
-130.156
-103.242
-83.997
-71.49
-64.513
-61.043
-59.398
-57.988
-55.277
-50.846
-44.947
-37.682
-29.468
-21.064
-13.069
-6.27
-1.486
1.158
1.899
1.037
-0.924
-3.489
-6.259
-8.714
-10.331
-10.874
-10.276
-8.588
-5.978
-2.569
1.544
6.215
11.286
16.613
22.068
27.552
32.993
38.299
43.376
48.129
52.472
56.358
59.781
62.749
65.296
67.457
69.274
70.803
72.106
73.245
74.278
75.26
76.233
77.247
78.351
79.593
81.019
82.659
84.53
86.639
88.99
91.58
94.405
97.452
100.706
104.151
107.773
111.561
115.502
119.581
123.78
128.08
132.46
136.901
141.384
145.888
150.392
154.876
159.319
163.701
168
172.196
176.266
180.187
183.936
187.492
190.833
193.938
196.788
199.364
201.649
203.628
205.288
206.616
207.602
208.238
208.515
208.428
207.975
207.152
205.961
204.401
202.477
200.194
197.559
194.581
191.269
187.636
183.694
179.459
174.947
170.174
165.159
159.921
154.48
148.857
143.074
137.152
131.114
124.981
118.778
112.525
106.245
99.959
93.69
87.457
81.28
75.18
69.173
63.279
57.513
51.892
46.429
41.14
36.035
31.125
26.422
21.933
17.666
13.626
9.819
6.247
2.914
-0.181
-3.038
-5.657
-8.042
-10.196
-12.125
-13.833
-15.328
-16.616
-17.705
-18.605
-19.324
-19.871
-20.257
-20.493
-20.588
-20.553
-20.398
-20.135
-19.775
-19.326
-18.801
-18.209
-17.559
-16.861
-16.125
-15.358
-14.569
-13.766
-12.955
-12.144
-11.338
-10.543
-9.764
-9.006
-8.272
-7.566
-6.89
-6.247
-5.639
-5.067
-4.533
-4.036
-3.577
-3.156
-2.773
-2.425
-2.114
-1.837
-1.592
-1.379
-1.195
-1.039
-0.908
-0.801
-0.715
-0.648
-0.599
-0.565
-0.544
-0.533
-0.532
-0.537
-0.548
-0.563
-0.58
-0.597
-0.613
-0.628
-0.639
-0.646
-0.648
-0.644
-0.635
-0.618
-0.594
-0.563
-0.525
-0.48
-0.428
-0.37
-0.305
-0.235
-0.161
-0.082
-0
0.084
0.168
0.253
0.336
0.416
0.492
0.562
0.624
0.677
0.719
0.749
0.765
0.766
0.749
0.713
0.658
0.58
0.48
0.356
0.206
0.032
-0.169
-0.397
-0.65
-0.93
-1.235
-1.565
-1.919
-2.296
-2.695
-3.114
-3.551
-4.005
-4.472
-4.951
-5.439
-5.932
-6.427
-6.921
-7.41
-7.89
-8.357
-8.807
-9.237
-9.641
-10.016
-10.357
-10.66
-10.921
-11.136
-11.302
-11.416
-11.475
-11.477
-11.422
-11.308
-11.137
-10.907
-10.621
-10.28
-9.885
-9.439
-8.943
-8.402
-7.816
-7.19
-6.527
-5.832
-5.111
-4.369
-3.61
-2.84
-2.067
-1.296
-0.534
0.214
0.946
1.658
2.345
3.004
3.625
4.205
4.746
5.249
5.715
6.147
6.551
6.938
7.329
7.743
8.193
8.691
9.24
9.844
10.512
11.254
12.081
12.994
13.987
15.051
16.185
17.379
18.611
19.843
21.008
22.036
22.871
23.462
23.773
23.775
23.423
22.665
21.458
19.762
17.555
14.832
11.549
7.639
3.115
-1.899
-7.152
-12.279
-16.955
-20.959
-24.028
-25.808
-26.064
-24.819
-22.417
-19.548
-16.901
-14.846
-13.686
-13.93
-15.913
-19.514
-24.123
-28.408
-30.801
-30.288
-25.941
-16.357
-0.371
22.662
52.787
88.699
128.37
170.104
211.652
249.561
280.204
299.835
304.818
293.002
262.957
213.053
143.955
59.089
-37.876
-142.179
-251.262
-366.312
-484.619
-599.801
-701.09
-773.27
-808.315
-806.461
-774.736
-726.361
-670.461
-611.062
-549.127
-482.731
-412.664
-342.138
-275.045
-215.711
-166.341
-127.407
-98.553
-78.35
-65.381
-58.329
-55.216
-54.125
-53.37
-51.356
-47.398
-41.574
-34.101
-25.46
-16.442
-7.763
-0.242
5.264
8.515
9.679
9.068
7.194
4.573
1.647
-1.053
-2.982
-3.871
-3.634
-2.307
-0.051
3.015
6.796
11.151
15.926
20.982
26.2
31.48
36.752
41.922
46.891
51.56
55.837
59.67
63.043
65.965
68.465
70.578
72.346
73.823
75.071
76.152
77.123
78.038
78.941
79.883
80.913
82.082
83.437
85.012
86.825
88.884
91.192
93.745
96.539
99.561
102.793
106.218
109.82
113.587
117.505
121.557
125.725
129.987
134.322
138.707
143.123
147.548
151.959
156.335
160.652
164.891
169.029
173.045
176.915
180.617
184.126
187.421
190.479
193.281
195.806
198.036
199.955
201.548
202.802
203.706
204.25
204.426
204.229
203.654
202.698
201.361
199.645
197.551
195.085
192.253
189.064
185.528
181.656
177.461
172.959
168.165
163.097
157.773
152.213
146.437
140.467
134.323
128.03
121.609
115.084
108.478
101.813
95.113
88.401
81.698
75.026
68.405
61.856
55.399
49.051
42.83
36.753
30.835
25.092
19.535
14.178
9.031
4.104
-0.595
-5.06
-9.283
-13.262
-16.994
-20.476
-23.708
-26.692
-29.429
-31.923
-34.177
-36.197
-37.989
-39.561
-40.92
-42.075
-43.036
-43.811
-44.411
-44.846
-45.128
-45.267
-45.275
-45.162
-44.94
-44.62
-44.213
-43.73
-43.181
-42.577
-41.927
-41.241
-40.527
-39.794
-39.051
-38.303
-37.559
-36.824
-36.103
-35.402
-34.725
-34.075
-33.456
-32.87
-32.32
-31.806
-31.329
-30.89
-30.49
-30.126
-29.8
-29.509
-29.252
-29.028
-28.835
-28.671
-28.533
-28.42
-28.329
-28.258
-28.205
-28.166
-28.141
-28.125
-28.119
-28.119
-28.123
-28.13
-28.138
-28.147
-28.153
-28.158
-28.158
-28.155
-28.147
-28.134
-28.115
-28.092
-28.063
-28.03
-27.991
-27.949
-27.904
-27.856
-27.806
-27.756
-27.704
-27.654
-27.605
-27.559
-27.516
-27.477
-27.443
-27.414
-27.392
-27.377
-27.37
-27.371
-27.381
-27.4
-27.429
-27.467
-27.517
-27.576
-27.647
-27.728
-27.821
-27.925
-28.04
-28.166
-28.304
-28.454
-28.614
-28.787
-28.971
-29.167
-29.375
-29.595
-29.827
-30.072
-30.329
-30.599
-30.882
-31.179
-31.489
-31.814
-32.153
-32.506
-32.873
-33.254
-33.648
-34.055
-34.475
-34.905
-35.347
-35.797
-36.256
-36.721
-37.192
-37.667
-38.143
-38.619
-39.092
-39.559
-40.018
-40.466
-40.9
-41.315
-41.71
-42.08
-42.421
-42.729
-43.001
-43.231
-43.416
-43.551
-43.631
-43.654
-43.615
-43.512
-43.341
-43.101
-42.792
-42.412
-41.962
-41.441
-40.851
-40.193
-39.468
-38.677
-37.824
-36.91
-35.937
-34.911
-33.835
-32.717
-31.562
-30.376
-29.164
-27.935
-26.694
-25.45
-24.211
-22.98
-21.765
-20.572
-19.411
-18.293
-17.226
-16.21
-15.248
-14.336
-13.47
-12.648
-11.858
-11.083
-10.309
-9.523
-8.713
-7.877
-7.01
-6.104
-5.151
-4.136
-3.056
-1.919
-0.734
0.488
1.724
2.955
4.142
5.221
6.14
6.845
7.278
7.405
7.184
6.574
5.556
4.096
2.16
-0.267
-3.21
-6.685
-10.667
-15.156
-20.161
-25.577
-31.228
-36.853
-42.061
-46.524
-50.014
-52.26
-52.93
-51.875
-49.215
-45.353
-41.05
-37.043
-33.729
-31.496
-30.93
-32.327
-35.456
-39.598
-43.334
-45.005
-43.566
-38.079
-26.994
-9.044
16.174
48.537
86.044
124.986
163.491
200.068
233.064
262.875
285.588
293.664
280.699
239.143
168.657
77.592
-25.865
-132.416
-238.746
-349.508
-464.759
-580.634
-686.903
-766.204
-808.84
-813.617
-786.633
-741.732
-688.608
-631.575
-571.919
-507.526
-438.927
-369.289
-302.485
-242.9
-192.938
-153.226
-123.46
-102.254
-88.153
-79.852
-75.472
-73.171
-71.28
-68.164
-63.108
-56.178
-47.622
-37.929
-27.842
-18.045
-9.347
-2.64
1.779
4.036
4.416
3.416
1.525
-0.845
-3.176
-4.918
-5.754
-5.553
-4.316
-2.175
0.759
4.403
8.629
13.29
18.252
23.397
28.632
33.884
39.078
44.121
48.927
53.409
57.497
61.151
64.364
67.15
69.535
71.558
73.262
74.7
75.935
77.027
78.03
78.996
79.967
80.989
82.112
83.381
84.839
86.516
88.428
90.584
92.987
95.636
98.525
101.645
104.977
108.508
112.223
116.109
120.155
124.345
128.66
133.08
137.584
142.154
146.768
151.405
156.044
160.664
165.242
169.757
174.188
178.513
182.709
186.752
190.618
194.286
197.733
200.937
203.879
206.54
208.902
210.949
212.669
214.049
215.078
215.747
216.049
215.978
215.532
214.709
213.507
211.93
209.981
207.664
204.988
201.961
198.594
194.898
190.887
186.576
181.981
177.121
172.013
166.677
161.134
155.404
149.511
143.475
137.321
131.07
124.747
118.373
111.97
105.563
99.17
92.815
86.516
80.295
74.168
68.154
62.27
56.532
50.953
45.549
40.331
35.31
30.496
25.898
21.522
17.375
13.461
9.784
6.346
3.146
0.185
-2.539
-5.029
-7.289
-9.324
-11.14
-12.744
-14.143
-15.346
-16.362
-17.2
-17.87
-18.383
-18.748
-18.976
-19.078
-19.065
-18.946
-18.734
-18.438
-18.068
-17.634
-17.146
-16.613
-16.044
-15.446
-14.828
-14.197
-13.561
-12.924
-12.293
-11.673
-11.069
-10.484
-9.923
-9.388
-8.882
-8.407
-7.964
-7.554
-7.178
-6.837
-6.531
-6.258
-6.019
-5.813
-5.639
-5.496
-5.382
-5.297
-5.239
-5.206
-5.198
-5.212
-5.247
-5.302
-5.376
-5.466
-5.573
-5.694
-5.828
-5.974
-6.132
-6.3
-6.477
-6.662
-6.855
-7.054
-7.259
-7.47
-7.685
-7.905
-8.128
-8.354
-8.582
-8.812
-9.044
-9.277
-9.511
-9.744
-9.976
-10.208
-10.437
-10.664
-10.888
-11.108
-11.324
-11.535
-11.74
-11.939
-12.132
-12.317
-12.495
-12.665
-12.828
-12.982
-13.128
-13.266
-13.396
-13.518
-13.633
-13.741
-13.843
-13.939
-14.03
-14.117
-14.202
-14.284
-14.366
-14.449
-14.534
-14.622
-14.715
-14.815
-14.923
-15.041
-15.171
-15.313
-15.47
-15.642
-15.831
-16.036
-16.26
-16.501
-16.76
-17.037
-17.332
-17.643
-17.971
-18.313
-18.669
-19.037
-19.414
-19.799
-20.189
-20.58
-20.971
-21.356
-21.734
-22.099
-22.448
-22.777
-23.081
-23.356
-23.596
-23.797
-23.954
-24.063
-24.117
-24.114
-24.049
-23.918
-23.719
-23.45
-23.109
-22.697
-22.212
-21.656
-21.028
-20.33
-19.564
-18.732
-17.837
-16.88
-15.867
-14.801
-13.688
-12.536
-11.35
-10.138
-8.907
-7.663
-6.416
-5.174
-3.944
-2.733
-1.548
-0.397
0.711
1.763
2.752
3.675
4.533
5.326
6.059
6.737
7.369
7.972
8.559
9.143
9.736
10.34
10.961
11.609
12.29
13.023
13.816
14.661
15.554
16.483
17.425
18.365
19.271
20.084
20.757
21.24
21.477
21.44
21.098
20.409
19.356
17.897
15.99
13.619
10.758
7.398
3.564
-0.755
-5.582
-10.827
-16.332
-21.85
-27.006
-31.51
-35.16
-37.684
-38.747
-38.152
-35.954
-32.533
-28.594
-24.817
-21.588
-19.258
-18.377
-19.298
-21.87
-25.433
-28.666
-30.03
-28.523
-23.171
-12.521
4.518
28.435
59.084
95.07
134.413
175.396
215.612
251.463
279.343
295.7
297.271
282.061
248.498
195.154
123.086
36.029
-61.951
-166.708
-276.627
-392.151
-509.537
-620.387
-712.182
-772.24
-795.482
-785.511
-752.143
-705.811
-653.171
-596.287
-534.012
-466.698
-396.616
-327.158
-263.198
-207.963
-162.453
-127.054
-100.847
-82.173
-70.085
-63.345
-59.912
-58.091
-56.301
-53.073
-48.044
-41.498
-33.584
-24.762
-15.819
-7.389
-0.278
4.722
7.491
8.256
7.338
5.253
2.502
-0.496
-3.217
-5.155
-6.068
-5.883
-4.645
-2.514
0.397
3.994
8.148
12.715
17.567
22.59
27.685
32.776
37.773
42.575
47.086
51.213
54.902
58.135
60.922
63.293
65.282
66.931
68.289
69.417
70.375
71.22
72.002
72.768
73.565
74.444
75.453
76.644
78.049
79.687
81.568
83.696
86.067
88.68
91.522
94.577
97.83
101.267
104.877
108.648
112.567
116.615
120.774
125.023
129.343
133.715
138.119
142.533
146.939
151.313
155.638
159.892
164.055
168.105
172.018
175.771
179.343
182.712
185.857
188.757
191.393
193.747
195.805
197.552
198.974
200.062
200.804
201.194
201.225
200.891
200.192
199.124
197.689
195.889
193.728
191.212
188.348
185.147
181.618
177.775
173.63
169.2
164.5
159.549
154.363
148.964
143.371
137.606
131.69
125.644
119.493
113.257
106.959
100.622
94.267
87.916
81.589
75.308
69.091
62.957
56.924
51.01
45.231
39.601
34.134
28.844
23.742
18.837
14.14
9.658
5.396
1.361
-2.445
-6.018
-9.357
-12.463
-15.337
-17.98
-20.397
-22.592
-24.569
-26.337
-27.901
-29.27
-30.451
-31.455
-32.289
-32.965
-33.491
-33.878
-34.136
-34.276
-34.307
-34.24
-34.084
-33.849
-33.545
-33.181
-32.764
-32.304
-31.808
-31.284
-30.737
-30.175
-29.602
-29.025
-28.447
-27.874
-27.308
-26.753
-26.21
-25.684
-25.174
-24.683
-24.211
-23.759
-23.327
-22.915
-22.523
-22.151
-21.797
-21.463
-21.146
-20.846
-20.563
-20.295
-20.042
-19.804
-19.579
-19.367
-19.168
-18.982
-18.807
-18.645
-18.495
-18.357
-18.231
-18.117
-18.016
-17.928
-17.854
-17.793
-17.747
-17.715
-17.699
-17.698
-17.714
-17.745
-17.794
-17.859
-17.942
-18.041
-18.157
-18.29
-18.439
-18.603
-18.782
-18.974
-19.18
-19.398
-19.626
-19.864
-20.109
-20.361
-20.619
-20.879
-21.142
-21.405
-21.667
-21.927
-22.183
-22.434
-22.678
-22.915
-23.142
-23.36
-23.568
-23.764
-23.949
-24.122
-24.282
-24.431
-24.568
-24.693
-24.808
-24.913
-25.009
-25.098
-25.181
-25.26
-25.337
-25.412
-25.489
-25.568
-25.652
-25.742
-25.84
-25.946
-26.063
-26.191
-26.33
-26.482
-26.647
-26.824
-27.014
-27.216
-27.43
-27.654
-27.888
-28.129
-28.376
-28.627
-28.878
-29.127
-29.371
-29.607
-29.83
-30.037
-30.223
-30.383
-30.514
-30.609
-30.663
-30.672
-30.63
-30.533
-30.377
-30.157
-29.871
-29.517
-29.093
-28.598
-28.031
-27.392
-26.68
-25.897
-25.045
-24.123
-23.134
-22.08
-20.965
-19.793
-18.571
-17.305
-15.999
-14.662
-13.298
-11.916
-10.523
-9.126
-7.731
-6.347
-4.981
-3.644
-2.348
-1.102
0.091
1.227
2.309
3.339
4.321
5.265
6.184
7.09
7.994
8.904
9.823
10.76
11.723
12.72
13.766
14.87
16.027
17.233
18.473
19.72
20.956
22.142
23.225
24.155
24.886
25.365
25.556
25.417
24.899
23.968
22.591
20.739
18.391
15.526
12.135
8.225
3.829
-1.029
-6.332
-11.974
-17.776
-23.467
-28.662
-33.024
-36.338
-38.301
-38.543
-37.012
-33.838
-29.44
-24.755
-20.461
-16.885
-14.643
-14.298
-15.835
-19.037
-23.022
-25.873
-26.282
-23.41
-15.641
-1.609
19.278
47.531
81.741
118.325
155.614
192.451
227.16
260.035
287.344
301.566
296.54
265.178
205.607
124.187
28.822
-72.012
-173.295
-277.334
-387.083
-500.681
-610.362
-701.878
-761.688
-784.596
-774.204
-740.955
-695.61
-644.742
-590.297
-530.851
-466.472
-399.191
-332.168
-270.091
-216.052
-171.014
-135.405
-108.385
-88.42
-74.715
-66.22
-61.117
-57.894
-55.071
-51.184
-45.826
-39.217
-31.438
-22.861
-14.178
-5.932
1.123
6.186
9.11
10.092
9.423
7.591
5.076
2.271
-0.31
-2.146
-2.984
-2.736
-1.437
0.758
3.737
7.409
11.644
16.293
21.225
26.32
31.479
36.628
41.675
46.522
51.071
55.229
58.945
62.2
65.003
67.385
69.38
71.031
72.39
73.516
74.472
75.315
76.097
76.864
77.663
78.547
79.563
80.763
82.179
83.829
85.726
87.87
90.261
92.895
95.761
98.842
102.124
105.592
109.234
113.041
116.995
121.081
125.277
129.565
133.923
138.333
142.774
147.225
151.666
156.074
160.43
164.714
168.904
172.977
176.911
180.682
184.268
187.647
190.8
193.704
196.342
198.696
200.75
202.491
203.907
204.985
205.717
206.095
206.113
205.766
205.053
203.972
202.524
200.711
198.539
196.013
193.141
189.933
186.399
182.553
178.407
173.979
169.283
164.337
159.161
153.773
148.194
142.444
136.545
130.518
124.386
118.171
111.895
105.579
99.245
92.913
86.605
80.341
74.139
68.018
61.995
56.088
50.312
44.682
39.212
33.915
28.801
23.881
19.163
14.656
10.366
6.298
2.455
-1.159
-4.545
-7.7
-10.628
-13.329
-15.807
-18.066
-20.112
-21.95
-23.588
-25.033
-26.294
-27.378
-28.296
-29.056
-29.669
-30.144
-30.492
-30.722
-30.846
-30.873
-30.813
-30.676
-30.471
-30.208
-29.895
-29.541
-29.154
-28.741
-28.309
-27.865
-27.414
-26.962
-26.513
-26.073
-25.644
-25.229
-24.832
-24.454
-24.098
-23.764
-23.453
-23.165
-22.901
-22.66
-22.442
-22.247
-22.072
-21.918
-21.782
-21.665
-21.563
-21.477
-21.403
-21.343
-21.293
-21.252
-21.22
-21.195
-21.177
-21.164
-21.157
-21.153
-21.154
-21.159
-21.168
-21.18
-21.196
-21.216
-21.24
-21.269
-21.304
-21.344
-21.391
-21.445
-21.506
-21.576
-21.655
-21.743
-21.841
-21.95
-22.07
-22.201
-22.343
-22.497
-22.664
-22.842
-23.033
-23.235
-23.449
-23.674
-23.911
-24.157
-24.414
-24.68
-24.954
-25.236
-25.526
-25.822
-26.124
-26.432
-26.743
-27.059
-27.377
-27.699
-28.022
-28.347
-28.673
-29.001
-29.329
-29.657
-29.986
-30.314
-30.641
-30.967
-31.291
-31.612
-31.931
-32.245
-32.555
-32.859
-33.157
-33.448
-33.732
-34.006
-34.271
-34.524
-34.765
-34.993
-35.204
-35.399
-35.574
-35.728
-35.859
-35.965
-36.042
-36.089
-36.103
-36.081
-36.02
-35.917
-35.77
-35.577
-35.334
-35.041
-34.695
-34.297
-33.846
-33.343
-32.788
-32.183
-31.529
-30.828
-30.081
-29.291
-28.46
-27.59
-26.684
-25.746
-24.781
-23.794
-22.789
-21.774
-20.753
-19.732
-18.718
-17.718
-16.737
-15.78
-14.854
-13.962
-13.113
-12.316
-11.577
-10.897
-10.276
-9.709
-9.19
-8.716
-8.276
-7.851
-7.428
-6.991
-6.528
-6.036
-5.508
-4.934
-4.306
-3.604
-2.823
-1.97
-1.05
-0.078
0.925
1.946
2.952
3.882
4.688
5.32
5.724
5.875
5.735
5.259
4.422
3.183
1.5
-0.637
-3.249
-6.347
-9.908
-13.935
-18.438
-23.317
-28.411
-33.49
-38.21
-42.283
-45.51
-47.624
-48.296
-47.353
-44.856
-41.142
-36.867
-32.687
-28.97
-26.069
-24.55
-24.754
-26.54
-29.337
-31.91
-32.728
-30.826
-25.359
-14.835
1.979
25.504
55.785
90.967
127.483
163.673
198.167
229.423
257.927
279.908
288.01
275.95
236.711
169.573
82.021
-17.05
-118.973
-219.313
-319.309
-420.69
-519.912
-608.665
-677.506
-717.535
-728.129
-715.83
-686.698
-647.765
-602.676
-550.606
-492.806
-431.116
-367.602
-306.295
-250.419
-201.756
-161.538
-129.794
-105.65
-88.172
-76.569
-69.605
-65.586
-62.818
-59.607
-54.978
-48.878
-41.486
-33.012
-23.904
-14.792
-6.474
0.091
4.442
6.68
7.082
6.063
4.057
1.447
-1.27
-3.504
-4.883
-5.264
-4.63
-3.103
-0.793
2.243
5.897
10.031
14.518
19.241
24.102
29.036
33.969
38.809
43.467
47.849
51.876
55.508
58.735
61.567
64.034
66.166
68
69.586
70.985
72.253
73.446
74.609
75.785
77.02
78.361
79.857
81.554
83.48
85.651
88.077
90.76
93.7
96.891
100.321
103.974
107.832
111.882
116.111
120.504
125.046
129.715
134.492
139.353
144.276
149.24
154.222
159.199
164.147
169.042
173.863
178.586
183.189
187.646
191.932
196.024
199.895
203.524
206.888
209.965
212.735
215.179
217.281
219.026
220.401
221.396
221.999
222.204
222.006
221.399
220.383
218.958
217.126
214.891
212.259
209.239
205.84
202.075
197.956
193.5
188.722
183.641
178.275
172.647
166.776
160.687
154.401
147.944
141.339
134.612
127.788
120.893
113.95
106.986
100.024
93.089
86.202
79.388
72.666
66.059
59.585
53.263
47.11
41.142
35.374
29.819
24.489
19.395
14.545
9.947
5.607
1.529
-2.283
-5.828
-9.105
-12.116
-14.863
-17.349
-19.579
-21.559
-23.297
-24.8
-26.077
-27.138
-27.993
-28.653
-29.13
-29.435
-29.58
-29.578
-29.442
-29.183
-28.814
-28.348
-27.797
-27.173
-26.486
-25.748
-24.971
-24.163
-23.334
-22.494
-21.652
-20.814
-19.988
-19.18
-18.398
-17.646
-16.928
-16.25
-15.613
-15.022
-14.478
-13.983
-13.537
-13.142
-12.797
-12.502
-12.257
-12.059
-11.908
-11.801
-11.736
-11.712
-11.724
-11.772
-11.852
-11.961
-12.096
-12.255
-12.435
-12.632
-12.845
-13.07
-13.305
-13.548
-13.795
-14.045
-14.295
-14.544
-14.79
-15.03
-15.263
-15.488
-15.704
-15.91
-16.104
-16.286
-16.456
-16.613
-16.758
-16.889
-17.008
-17.114
-17.209
-17.292
-17.364
-17.427
-17.48
-17.524
-17.562
-17.592
-17.618
-17.639
-17.657
-17.674
-17.69
-17.708
-17.728
-17.751
-17.781
-17.817
-17.863
-17.918
-17.985
-18.065
-18.16
-18.27
-18.398
-18.543
-18.707
-18.889
-19.091
-19.312
-19.551
-19.809
-20.085
-20.377
-20.686
-21.011
-21.349
-21.7
-22.061
-22.431
-22.808
-23.189
-23.572
-23.953
-24.33
-24.7
-25.058
-25.402
-25.727
-26.03
-26.306
-26.551
-26.76
-26.929
-27.053
-27.129
-27.154
-27.123
-27.033
-26.884
-26.674
-26.402
-26.069
-25.674
-25.217
-24.7
-24.124
-23.489
-22.798
-22.052
-21.253
-20.404
-19.511
-18.578
-17.611
-16.615
-15.597
-14.562
-13.516
-12.467
-11.419
-10.38
-9.355
-8.353
-7.38
-6.449
-5.567
-4.737
-3.959
-3.231
-2.545
-1.898
-1.277
-0.666
-0.052
0.579
1.236
1.923
2.649
3.422
4.25
5.152
6.134
7.19
8.317
9.495
10.701
11.912
13.089
14.173
15.114
15.865
16.373
16.604
16.516
16.058
15.199
13.906
12.152
9.919
7.191
3.959
0.233
-3.953
-8.567
-13.583
-18.892
-24.316
-29.592
-34.335
-38.207
-40.982
-42.355
-41.97
-39.788
-35.952
-30.876
-25.509
-20.553
-16.391
-13.694
-13.027
-14.345
-17.403
-21.293
-24.083
-24.41
-21.303
-13.025
1.788
23.635
52.899
88.042
125.384
163.114
199.811
233.609
264.842
289.906
301.436
293.396
258.956
196.681
113.364
17.352
-83.463
-184.681
-287.393
-393.691
-499.724
-596.445
-673.893
-722.205
-739.826
-733.32
-708.591
-672.352
-628.6
-576.473
-517.207
-453.24
-386.967
-322.468
-263.235
-211.2
-167.513
-132.573
-105.771
-85.944
-72.295
-63.781
-58.72
-55.659
-53.124
-49.663
-44.837
-38.809
-31.632
-23.657
-15.516
-7.723
-1.024
3.793
6.566
7.466
6.77
4.948
2.456
-0.327
-2.903
-4.768
-5.673
-5.532
-4.382
-2.375
0.379
3.789
7.732
12.064
16.662
21.411
26.218
31.015
35.716
40.228
44.46
48.322
51.765
54.772
57.355
59.543
61.372
62.883
64.126
65.159
66.043
66.832
67.576
68.318
69.103
69.98
70.998
72.202
73.626
75.288
77.196
79.354
81.758
84.405
87.283
90.374
93.663
97.136
100.779
104.582
108.527
112.597
116.772
121.03
125.35
129.714
134.1
138.485
142.849
147.171
151.428
155.602
159.67
163.61
167.399
171.015
174.435
177.638
180.605
183.316
185.751
187.896
189.735
191.255
192.445
193.296
193.798
193.945
193.733
193.16
192.222
190.922
189.262
187.245
184.877
182.166
179.122
175.754
172.075
168.1
163.843
159.32
154.548
149.547
144.336
138.933
133.361
127.641
121.794
115.842
109.807
103.711
97.577
91.425
85.277
79.152
73.072
67.055
61.119
55.282
49.562
43.972
38.529
33.246
28.135
23.208
18.474
13.942
9.62
5.515
1.63
-2.029
-5.462
-8.665
-11.64
-14.387
-16.909
-19.208
-21.29
-23.158
-24.82
-26.282
-27.551
-28.636
-29.544
-30.287
-30.872
-31.309
-31.609
-31.781
-31.837
-31.785
-31.636
-31.401
-31.089
-30.709
-30.271
-29.784
-29.257
-28.697
-28.112
-27.511
-26.898
-26.282
-25.667
-25.058
-24.461
-23.879
-23.317
-22.776
-22.261
-21.773
-21.314
-20.885
-20.487
-20.122
-19.789
-19.488
-19.219
-18.981
-18.775
-18.598
-18.45
-18.329
-18.235
-18.166
-18.119
-18.095
-18.091
-18.105
-18.137
-18.184
-18.246
-18.32
-18.406
-18.501
-18.605
-18.717
-18.836
-18.959
-19.088
-19.22
-19.355
-19.492
-19.63
-19.769
-19.909
-20.048
-20.186
-20.323
-20.458
-20.591
-20.721
-20.848
-20.972
-21.093
-21.21
-21.323
-21.432
-21.537
-21.639
-21.736
-21.831
-21.922
-22.011
-22.098
-22.183
-22.267
-22.352
-22.437
-22.523
-22.613
-22.705
-22.802
-22.904
-23.012
-23.127
-23.248
-23.378
-23.516
-23.663
-23.819
-23.984
-24.159
-24.344
-24.538
-24.742
-24.955
-25.177
-25.408
-25.646
-25.89
-26.14
-26.393
-26.647
-26.901
-27.152
-27.398
-27.636
-27.862
-28.074
-28.267
-28.439
-28.584
-28.701
-28.784
-28.831
-28.838
-28.803
-28.724
-28.599
-28.428
-28.208
-27.941
-27.625
-27.26
-26.847
-26.386
-25.878
-25.323
-24.723
-24.079
-23.395
-22.675
-21.921
-21.138
-20.33
-19.503
-18.66
-17.809
-16.954
-16.099
-15.251
-14.413
-13.594
-12.802
-12.044
-11.322
-10.636
-9.982
-9.358
-8.758
-8.174
-7.589
-6.99
-6.36
-5.688
-4.969
-4.196
-3.359
-2.452
-1.456
-0.364
0.817
2.08
3.413
4.792
6.2
7.603
8.938
10.151
11.184
11.97
12.472
12.646
12.439
11.824
10.751
9.171
7.063
4.394
1.148
-2.65
-7.01
-11.945
-17.353
-23.055
-28.791
-34.171
-38.874
-42.684
-45.315
-46.418
-45.815
-43.572
-40.052
-35.955
-31.956
-28.416
-25.678
-24.298
-24.585
-26.35
-28.945
-31.049
-31.085
-28.072
-21.153
-8.837
10.085
35.992
68.79
106.547
145.714
184.496
221.372
254.486
283.802
305.529
312.678
299.396
259.097
190.859
101.53
-0.554
-106.42
-211.004
-316.007
-423.329
-531.004
-632.071
-713.836
-764.758
-780.941
-765.777
-728.89
-680.523
-626.543
-568.895
-507.018
-441.091
-373.311
-307.36
-247.398
-196.096
-154.605
-122.9
-99.794
-83.958
-74.227
-68.915
-66.231
-64.443
-61.764
-57.289
-50.967
-42.994
-33.779
-23.982
-14.273
-5.492
1.365
5.883
8.144
8.415
7.18
4.927
2.072
-0.848
-3.229
-4.702
-5.114
-4.444
-2.824
-0.365
2.861
6.733
11.104
15.84
20.817
25.934
31.12
36.295
41.361
46.222
50.784
54.962
58.716
62.034
64.924
67.414
69.537
71.331
72.848
74.15
75.295
76.339
77.331
78.314
79.336
80.446
81.693
83.123
84.765
86.635
88.742
91.09
93.676
96.496
99.539
102.787
106.225
109.839
113.618
117.548
121.615
125.8
130.083
134.443
138.861
143.317
147.79
152.26
156.704
161.103
165.435
169.68
173.816
177.822
181.674
185.349
188.826
192.082
195.099
197.854
200.331
202.513
204.385
205.935
207.15
208.02
208.537
208.696
208.49
207.916
206.974
205.664
203.988
201.949
199.554
196.81
193.725
190.311
186.579
182.543
178.217
173.618
168.764
163.671
158.36
152.851
147.165
141.322
135.345
129.255
123.075
116.827
110.533
104.214
97.891
91.585
85.316
79.103
72.964
66.917
60.979
55.164
49.489
43.967
38.61
33.429
28.435
23.637
19.042
14.657
10.487
6.536
2.807
-0.698
-3.979
-7.038
-9.875
-12.494
-14.898
-17.094
-19.085
-20.879
-22.483
-23.905
-25.152
-26.234
-27.16
-27.938
-28.579
-29.092
-29.486
-29.771
-29.957
-30.053
-30.069
-30.013
-29.895
-29.722
-29.503
-29.245
-28.956
-28.643
-28.312
-27.969
-27.62
-27.269
-26.921
-26.58
-26.249
-25.931
-25.628
-25.344
-25.078
-24.833
-24.609
-24.407
-24.227
-24.069
-23.933
-23.817
-23.722
-23.646
-23.589
-23.549
-23.525
-23.515
-23.519
-23.535
-23.561
-23.597
-23.641
-23.691
-23.746
-23.805
-23.867
-23.931
-23.995
-24.058
-24.12
-24.179
-24.236
-24.288
-24.337
-24.381
-24.419
-24.452
-24.48
-24.501
-24.516
-24.525
-24.527
-24.523
-24.513
-24.497
-24.475
-24.447
-24.414
-24.376
-24.333
-24.286
-24.235
-24.181
-24.124
-24.065
-24.004
-23.942
-23.88
-23.819
-23.76
-23.704
-23.651
-23.604
-23.562
-23.528
-23.502
-23.486
-23.481
-23.488
-23.508
-23.544
-23.596
-23.666
-23.753
-23.86
-23.987
-24.135
-24.303
-24.492
-24.701
-24.931
-25.181
-25.451
-25.74
-26.047
-26.372
-26.712
-27.066
-27.433
-27.81
-28.195
-28.586
-28.979
-29.371
-29.759
-30.141
-30.51
-30.865
-31.201
-31.513
-31.797
-32.048
-32.262
-32.434
-32.561
-32.637
-32.66
-32.627
-32.535
-32.383
-32.17
-31.896
-31.56
-31.162
-30.703
-30.182
-29.603
-28.965
-28.27
-27.521
-26.72
-25.873
-24.983
-24.057
-23.1
-22.116
-21.113
-20.096
-19.073
-18.05
-17.033
-16.027
-15.04
-14.077
-13.152
-12.27
-11.433
-10.641
-9.892
-9.182
-8.508
-7.862
-7.226
-6.589
-5.936
-5.258
-4.551
-3.81
-3.024
-2.187
-1.284
-0.309
0.729
1.824
2.967
4.137
5.318
6.479
7.565
8.526
9.316
9.879
10.177
10.171
9.814
9.082
7.938
6.339
4.267
1.691
-1.409
-5.019
-9.15
-13.832
-18.989
-24.465
-30.014
-35.257
-39.866
-43.614
-46.211
-47.297
-46.686
-44.458
-41.02
-37.128
-33.514
-30.597
-28.773
-28.628
-30.474
-34.07
-38.628
-42.658
-44.494
-43.013
-37.117
-25.251
-6.315
20.073
53.567
92.532
134.723
178.176
220.256
257.169
285.23
300.979
301.339
284.546
249.372
194.722
121.862
34.684
-62.635
-166.053
-273.901
-386.528
-500.898
-609.268
-699.729
-760.362
-785.529
-778.012
-747.372
-703.525
-653.006
-598.033
-537.023
-469.957
-399.296
-328.559
-262.725
-205.296
-157.508
-119.952
-92.141
-72.798
-60.803
-54.742
-52.516
-52.226
-52.214
-50.928
-47.731
-42.688
-35.978
-28.078
-19.793
-11.838
-4.997
-0.075
2.733
3.62
2.886
1.024
-1.463
-4.15
-6.531
-8.096
-8.613
-8.022
-6.37
-3.821
-0.498
3.504
8.04
12.952
18.106
23.375
28.668
33.916
39.031
43.92
48.493
52.664
56.392
59.668
62.502
64.924
66.968
68.675
70.098
71.3
72.34
73.275
74.157
75.03
75.943
76.944
78.081
79.401
80.934
82.698
84.702
86.951
89.443
92.175
95.138
98.316
101.696
105.265
109.013
112.928
116.997
121.202
125.526
129.948
134.451
139.014
143.619
148.245
152.872
157.478
162.043
166.546
170.966
175.28
179.464
183.496
187.35
191.007
194.443
197.638
200.571
203.225
205.583
207.629
209.349
210.731
211.765
212.441
212.751
212.691
212.257
211.446
210.258
208.695
206.76
204.459
201.798
198.787
195.436
191.757
187.764
183.472
178.898
174.059
168.974
163.662
158.145
152.445
146.582
140.579
134.46
128.247
121.963
115.63
109.272
102.911
96.567
90.262
84.016
77.849
71.779
65.823
60
54.323
48.808
43.469
38.316
33.361
28.613
24.08
19.769
15.684
11.831
8.21
4.823
1.671
-1.249
-3.939
-6.402
-8.644
-10.67
-12.486
-14.101
-15.522
-16.759
-17.819
-18.714
-19.452
-20.044
-20.501
-20.832
-21.049
-21.162
-21.18
-21.115
-20.976
-20.773
-20.514
-20.209
-19.866
-19.493
-19.097
-18.685
-18.263
-17.836
-17.411
-16.99
-16.577
-16.177
-15.791
-15.422
-15.072
-14.741
-14.43
-14.139
-13.87
-13.621
-13.391
-13.181
-12.989
-12.815
-12.657
-12.513
-12.383
-12.266
-12.159
-12.062
-11.974
-11.892
-11.816
-11.745
-11.677
-11.612
-11.549
-11.487
-11.425
-11.364
-11.303
-11.242
-11.181
-11.12
-11.059
-10.999
-10.939
-10.881
-10.826
-10.772
-10.722
-10.675
-10.633
-10.594
-10.561
-10.532
-10.508
-10.49
-10.478
-10.47
-10.469
-10.473
-10.482
-10.498
-10.518
-10.545
-10.576
-10.613
-10.655
-10.702
-10.753
-10.809
-10.869
-10.933
-11.001
-11.073
-11.149
-11.229
-11.312
-11.399
-11.49
-11.585
-11.684
-11.787
-11.896
-12.01
-12.131
-12.258
-12.393
-12.536
-12.688
-12.849
-13.02
-13.201
-13.392
-13.593
-13.803
-14.023
-14.251
-14.488
-14.732
-14.982
-15.238
-15.498
-15.761
-16.025
-16.289
-16.549
-16.804
-17.052
-17.29
-17.515
-17.724
-17.915
-18.083
-18.227
-18.34
-18.421
-18.466
-18.469
-18.429
-18.341
-18.202
-18.01
-17.763
-17.459
-17.098
-16.679
-16.205
-15.674
-15.089
-14.45
-13.76
-13.022
-12.237
-11.408
-10.539
-9.634
-8.697
-7.736
-6.757
-5.765
-4.767
-3.77
-2.782
-1.809
-0.86
0.061
0.947
1.79
2.584
3.315
3.976
4.568
5.087
5.54
5.929
6.261
6.546
6.801
7.043
7.284
7.54
7.81
8.104
8.43
8.796
9.221
9.712
10.26
10.861
11.497
12.144
12.786
13.386
13.882
14.22
14.347
14.204
13.763
12.985
11.828
10.268
8.265
5.778
2.794
-0.711
-4.744
-9.274
-14.305
-19.847
-25.799
-31.993
-38.174
-43.962
-49.04
-53.182
-56.104
-57.458
-57.048
-54.941
-51.508
-47.47
-43.576
-40.266
-37.938
-37.203
-38.418
-41.408
-45.524
-49.395
-51.326
-50.233
-45.145
-34.455
-16.919
7.903
39.957
77.27
116.364
155.535
193.2
227.525
258.644
282.596
292.309
281.985
244.354
178.638
92.225
-7.519
-112.036
-218.026
-329.779
-447.583
-567.528
-679.298
-765.56
-815.956
-828.195
-807.576
-767.344
-716.745
-660.586
-600.755
-535.267
-464.967
-393.093
-323.396
-260.629
-207.681
-165.35
-133.486
-110.738
-95.475
-86.422
-81.799
-79.679
-78.257
-75.736
-71.229
-64.739
-56.541
-47.089
-37.08
-27.214
-18.342
-11.474
-7.019
-4.875
-4.755
-6.148
-8.546
-11.525
-14.541
-16.981
-18.479
-18.882
-18.176
-16.5
-13.972
-10.67
-6.719
-2.269
2.545
7.598
12.787
18.04
23.275
28.395
33.305
37.909
42.124
45.908
49.252
52.167
54.681
56.829
58.652
60.203
61.543
62.734
63.831
64.885
65.937
67.036
68.231
69.571
71.101
72.85
74.834
77.062
79.535
82.252
85.208
88.39
91.782
95.366
99.129
103.059
107.143
111.366
115.708
120.15
124.672
129.252
133.872
138.51
143.145
147.756
152.322
156.822
161.235
165.541
169.717
173.739
177.586
181.234
184.662
187.851
190.779
193.429
195.784
197.829
199.551
200.937
201.978
202.664
202.99
202.949
202.539
201.758
200.605
199.083
197.195
194.946
192.344
189.397
186.116
182.512
178.599
174.392
169.907
165.161
160.172
154.96
149.545
143.948
138.19
132.293
126.28
120.173
113.994
107.766
101.511
95.25
89.005
82.795
76.64
70.56
64.573
58.696
52.944
47.334
41.88
36.595
31.49
26.576
21.863
17.359
13.07
9.002
5.159
1.543
-1.843
-4.999
-7.926
-10.625
-13.101
-15.357
-17.399
-19.231
-20.861
-22.297
-23.547
-24.619
-25.522
-26.266
-26.86
-27.314
-27.638
-27.843
-27.938
-27.934
-27.839
-27.664
-27.417
-27.109
-26.746
-26.339
-25.894
-25.418
-24.919
-24.403
-23.875
-23.341
-22.806
-22.273
-21.747
-21.23
-20.726
-20.235
-19.76
-19.303
-18.864
-18.443
-18.042
-17.659
-17.295
-16.95
-16.622
-16.311
-16.017
-15.738
-15.473
-15.222
-14.983
-14.755
-14.539
-14.332
-14.134
-13.944
-13.763
-13.589
-13.421
-13.261
-13.107
-12.96
-12.819
-12.686
-12.56
-12.441
-12.33
-12.228
-12.134
-12.05
-11.976
-11.913
-11.861
-11.82
-11.792
-11.776
-11.772
-11.782
-11.805
-11.841
-11.89
-11.953
-12.028
-12.117
-12.219
-12.334
-12.46
-12.599
-12.749
-12.911
-13.083
-13.265
-13.457
-13.658
-13.867
-14.083
-14.307
-14.537
-14.774
-15.016
-15.263
-15.515
-15.772
-16.033
-16.299
-16.57
-16.845
-17.125
-17.411
-17.702
-18
-18.306
-18.619
-18.94
-19.271
-19.612
-19.962
-20.323
-20.695
-21.077
-21.47
-21.873
-22.286
-22.709
-23.14
-23.58
-24.028
-24.482
-24.941
-25.405
-25.871
-26.337
-26.803
-27.265
-27.722
-28.17
-28.607
-29.029
-29.434
-29.819
-30.178
-30.509
-30.807
-31.069
-31.29
-31.465
-31.593
-31.669
-31.69
-31.654
-31.559
-31.404
-31.189
-30.913
-30.578
-30.183
-29.73
-29.219
-28.653
-28.032
-27.359
-26.635
-25.865
-25.052
-24.203
-23.321
-22.412
-21.482
-20.536
-19.581
-18.624
-17.671
-16.727
-15.797
-14.887
-14.005
-13.161
-12.363
-11.61
-10.903
-10.238
-9.607
-9.008
-8.429
-7.851
-7.26
-6.642
-5.985
-5.287
-4.541
-3.739
-2.874
-1.928
-0.896
0.215
1.397
2.632
3.899
5.178
6.435
7.607
8.645
9.496
10.102
10.438
10.467
10.148
9.458
8.356
6.801
4.78
2.27
-0.739
-4.219
-8.179
-12.635
-17.493
-22.596
-27.698
-32.439
-36.525
-39.747
-41.837
-42.464
-41.43
-38.802
-34.947
-30.551
-26.311
-22.639
-19.885
-18.614
-19.195
-21.469
-24.813
-27.955
-29.329
-27.877
-22.685
-12.359
4.317
27.863
58.115
93.948
132.673
171.855
210.003
243.739
271.18
290.886
297.197
286.466
254.725
197.343
118.308
23.973
-79.753
-185.955
-295
-409.346
-525.747
-636.819
-728.725
-787.369
-807.508
-792.672
-753.665
-702.115
-645.081
-584.72
-519.827
-450.536
-379.249
-309.701
-246.552
-192.662
-148.853
-115.256
-90.789
-73.825
-63.18
-57.32
-54.426
-53.031
-51.664
-49.009
-44.669
-38.814
-31.668
-23.786
-15.835
-8.343
-2.031
2.419
4.877
5.534
4.72
2.954
0.71
-1.614
-3.52
-4.564
-4.538
-3.393
-1.204
1.862
5.677
10.126
15.057
20.312
25.75
31.248
36.713
42.062
47.202
52.032
56.453
60.402
63.856
66.819
69.314
71.38
73.056
74.396
75.468
76.331
77.048
77.676
78.263
78.863
79.531
80.32
81.285
82.463
83.878
85.546
87.473
89.661
92.107
94.805
97.738
100.894
104.262
107.831
111.591
115.529
119.628
123.869
128.233
132.7
137.251
141.866
146.524
151.203
155.882
160.539
165.155
169.706
174.167
178.515
182.724
186.77
190.63
194.279
197.695
200.857
203.745
206.34
208.626
210.588
212.211
213.483
214.395
214.937
215.102
214.886
214.286
213.3
211.929
210.176
208.045
205.543
202.678
199.46
195.901
192.013
187.812
183.313
178.534
173.493
168.21
162.706
157.001
151.118
145.079
138.907
132.624
126.255
119.823
113.349
106.856
100.366
93.902
87.483
81.13
74.862
68.698
62.656
56.752
51.002
45.419
40.017
34.808
29.802
25.009
20.435
16.089
11.974
8.096
4.456
1.055
-2.106
-5.028
-7.713
-10.167
-12.391
-14.393
-16.178
-17.754
-19.128
-20.308
-21.303
-22.123
-22.778
-23.278
-23.633
-23.854
-23.951
-23.935
-23.817
-23.607
-23.316
-22.952
-22.527
-22.049
-21.527
-20.97
-20.385
-19.781
-19.165
-18.541
-17.918
-17.299
-16.689
-16.093
-15.515
-14.956
-14.42
-13.91
-13.426
-12.969
-12.541
-12.143
-11.774
-11.433
-11.122
-10.838
-10.58
-10.349
-10.141
-9.957
-9.794
-9.651
-9.525
-9.417
-9.323
-9.242
-9.173
-9.114
-9.064
-9.021
-8.985
-8.953
-8.926
-8.903
-8.883
-8.865
-8.85
-8.837
-8.826
-8.817
-8.81
-8.806
-8.804
-8.804
-8.808
-8.814
-8.825
-8.839
-8.858
-8.882
-8.911
-8.946
-8.986
-9.033
-9.086
-9.146
-9.214
-9.288
-9.371
-9.462
-9.561
-9.668
-9.783
-9.906
-10.038
-10.177
-10.324
-10.479
-10.64
-10.808
-10.983
-11.164
-11.351
-11.544
-11.743
-11.947
-12.156
-12.371
-12.591
-12.816
-13.047
-13.284
-13.527
-13.776
-14.031
-14.294
-14.563
-14.838
-15.121
-15.409
-15.704
-16.004
-16.309
-16.618
-16.932
-17.25
-17.571
-17.894
-18.219
-18.544
-18.869
-19.193
-19.514
-19.83
-20.14
-20.442
-20.734
-21.015
-21.281
-21.53
-21.76
-21.968
-22.151
-22.306
-22.429
-22.518
-22.57
-22.583
-22.555
-22.483
-22.368
-22.207
-22.003
-21.754
-21.461
-21.125
-20.747
-20.328
-19.869
-19.372
-18.839
-18.27
-17.67
-17.042
-16.39
-15.718
-15.03
-14.33
-13.624
-12.917
-12.215
-11.522
-10.841
-10.176
-9.53
-8.909
-8.323
-7.775
-7.263
-6.786
-6.341
-5.925
-5.532
-5.153
-4.768
-4.363
-3.92
-3.43
-2.892
-2.299
-1.645
-0.919
-0.109
0.786
1.759
2.799
3.898
5.042
6.216
7.38
8.477
9.448
10.23
10.776
11.049
11.008
10.622
9.851
8.645
6.97
4.799
2.111
-1.099
-4.855
-9.21
-14.121
-19.425
-24.876
-30.107
-34.793
-38.723
-41.634
-43.171
-43.129
-41.569
-38.856
-35.699
-32.805
-30.544
-29.222
-29.349
-31.235
-34.712
-39.121
-43.114
-45.093
-43.992
-38.943
-28.621
-11.801
12.083
42.916
79.576
119.303
159.649
199.215
234.703
264.221
286.27
295.016
286.746
257.608
202.939
126.571
34.615
-67.246
-172.147
-280.197
-393.622
-509.551
-621.056
-715.094
-778.37
-805.297
-798.704
-768.426
-724.793
-674.203
-618.725
-556.901
-488.833
-417.163
-345.561
-279.018
-221.055
-172.931
-135.216
-107.369
-88.018
-75.959
-69.733
-67.216
-66.499
-65.91
-63.902
-59.866
-53.914
-46.279
-37.483
-28.361
-19.648
-12.155
-6.697
-3.476
-2.307
-2.867
-4.64
-7.109
-9.83
-12.287
-13.964
-14.617
-14.173
-12.678
-10.292
-7.135
-3.306
1.06
5.812
10.819
15.964
21.15
26.302
31.332
36.141
40.635
44.725
48.362
51.532
54.245
56.531
58.427
59.974
61.225
62.241
63.084
63.812
64.477
65.125
65.807
66.571
67.47
68.55
69.847
71.379
73.156
75.183
77.459
79.981
82.739
85.717
88.902
92.281
95.844
99.579
103.474
107.51
111.671
115.935
120.285
124.701
129.164
133.653
138.148
142.628
147.071
151.459
155.769
159.979
164.065
168.003
171.771
175.346
178.707
181.832
184.702
187.298
189.603
191.603
193.283
194.632
195.637
196.29
196.584
196.513
196.073
195.261
194.077
192.522
190.599
188.313
185.67
182.679
179.351
175.695
171.727
167.46
162.91
158.095
153.033
147.743
142.246
136.563
130.716
124.727
118.618
112.413
106.134
99.805
93.448
87.085
80.738
74.427
68.175
62.001
55.924
49.961
44.131
38.451
32.934
27.595
22.447
17.501
12.768
8.256
3.972
-0.076
-3.886
-7.452
-10.775
-13.853
-16.686
-19.278
-21.632
-23.751
-25.642
-27.312
-28.767
-30.016
-31.068
-31.934
-32.622
-33.144
-33.512
-33.735
-33.826
-33.795
-33.656
-33.418
-33.094
-32.694
-32.23
-31.711
-31.147
-30.55
-29.926
-29.285
-28.635
-27.984
-27.337
-26.7
-26.08
-25.481
-24.906
-24.36
-23.845
-23.363
-22.915
-22.503
-22.127
-21.786
-21.481
-21.211
-20.973
-20.768
-20.592
-20.444
-20.322
-20.223
-20.145
-20.086
-20.044
-20.015
-19.998
-19.99
-19.99
-19.995
-20.004
-20.014
-20.025
-20.035
-20.043
-20.048
-20.049
-20.045
-20.037
-20.024
-20.005
-19.982
-19.954
-19.921
-19.884
-19.844
-19.802
-19.757
-19.711
-19.666
-19.621
-19.577
-19.536
-19.498
-19.465
-19.436
-19.414
-19.398
-19.389
-19.387
-19.394
-19.408
-19.432
-19.464
-19.504
-19.554
-19.613
-19.681
-19.759
-19.845
-19.941
-20.046
-20.161
-20.285
-20.418
-20.561
-20.714
-20.876
-21.049
-21.233
-21.427
-21.632
-21.848
-22.074
-22.311
-22.559
-22.816
-23.083
-23.358
-23.641
-23.932
-24.229
-24.532
-24.84
-25.152
-25.467
-25.783
-26.1
-26.415
-26.727
-27.034
-27.333
-27.623
-27.901
-28.164
-28.41
-28.635
-28.837
-29.01
-29.153
-29.262
-29.331
-29.359
-29.341
-29.275
-29.157
-28.987
-28.762
-28.482
-28.146
-27.755
-27.31
-26.81
-26.257
-25.652
-24.997
-24.293
-23.541
-22.745
-21.906
-21.031
-20.124
-19.189
-18.233
-17.262
-16.279
-15.292
-14.308
-13.33
-12.365
-11.419
-10.498
-9.61
-8.767
-7.974
-7.235
-6.548
-5.911
-5.315
-4.757
-4.222
-3.695
-3.161
-2.609
-2.027
-1.413
-0.758
-0.053
0.711
1.551
2.475
3.476
4.55
5.681
6.842
8.014
9.157
10.215
11.138
11.88
12.392
12.639
12.583
12.173
11.377
10.165
8.505
6.382
3.774
0.671
-2.919
-6.964
-11.439
-16.326
-21.52
-26.844
-32.034
-36.708
-40.528
-43.279
-44.655
-44.285
-42.125
-38.316
-33.285
-27.993
-23.138
-19.078
-16.478
-15.928
-17.409
-20.685
-24.836
-27.887
-28.472
-25.655
-17.698
-3.171
18.519
47.839
83.274
121.131
159.647
197.455
232.713
265.622
292.299
305.249
298.345
264.51
202.171
117.987
20.11
-82.791
-185.654
-290.654
-400.516
-513.091
-620.647
-709.564
-766.977
-788.32
-777.363
-743.911
-698.173
-646.381
-590.358
-529.066
-462.85
-393.831
-325.274
-261.845
-206.658
-160.784
-124.716
-97.672
-78.157
-65.339
-58.074
-54.419
-52.711
-51.346
-48.783
-44.562
-38.874
-31.794
-23.716
-15.376
-7.378
-0.516
4.395
7.214
8.157
7.515
5.779
3.434
0.88
-1.369
-2.803
-3.192
-2.474
-0.698
1.969
5.407
9.519
14.163
19.183
24.443
29.817
35.207
40.544
45.738
50.694
55.323
59.539
63.3
66.599
69.446
71.875
73.922
75.628
77.049
78.245
79.279
80.208
81.084
81.953
82.864
83.865
85.005
86.33
87.871
89.643
91.657
93.915
96.416
99.157
102.127
105.31
108.694
112.266
116.014
119.927
123.992
128.19
132.504
136.914
141.4
145.945
150.529
155.13
159.728
164.302
168.832
173.297
177.676
181.944
186.08
190.059
193.859
197.458
200.834
203.966
206.834
209.422
211.711
213.688
215.338
216.65
217.613
218.218
218.458
218.327
217.823
216.941
215.683
214.05
212.045
209.674
206.943
203.861
200.439
196.687
192.621
188.253
183.602
178.684
173.517
168.121
162.517
156.726
150.77
144.671
138.452
132.136
125.745
119.303
112.833
106.355
99.892
93.466
87.097
80.804
74.608
68.526
62.576
56.775
51.137
45.677
40.408
35.341
30.487
25.854
21.451
17.283
13.356
9.673
6.236
3.046
0.103
-2.595
-5.052
-7.271
-9.257
-11.017
-12.558
-13.888
-15.016
-15.95
-16.702
-17.281
-17.698
-17.964
-18.092
-18.091
-17.975
-17.754
-17.44
-17.044
-16.578
-16.052
-15.478
-14.864
-14.221
-13.557
-12.882
-12.204
-11.53
-10.867
-10.222
-9.599
-9.005
-8.442
-7.916
-7.428
-6.981
-6.578
-6.218
-5.905
-5.636
-5.413
-5.235
-5.101
-5.009
-4.958
-4.947
-4.973
-5.034
-5.127
-5.25
-5.401
-5.576
-5.774
-5.991
-6.226
-6.475
-6.737
-7.008
-7.286
-7.57
-7.857
-8.146
-8.436
-8.724
-9.011
-9.295
-9.575
-9.852
-10.125
-10.393
-10.658
-10.918
-11.175
-11.428
-11.679
-11.928
-12.177
-12.425
-12.675
-12.928
-13.184
-13.444
-13.711
-13.985
-14.267
-14.559
-14.863
-15.179
-15.509
-15.854
-16.216
-16.596
-16.993
-17.41
-17.845
-18.3
-18.774
-19.266
-19.776
-20.303
-20.846
-21.403
-21.974
-22.556
-23.148
-23.749
-24.354
-24.963
-25.573
-26.18
-26.781
-27.375
-27.957
-28.524
-29.073
-29.6
-30.102
-30.575
-31.014
-31.415
-31.774
-32.087
-32.35
-32.56
-32.713
-32.806
-32.838
-32.807
-32.712
-32.554
-32.334
-32.051
-31.707
-31.304
-30.843
-30.327
-29.759
-29.14
-28.474
-27.766
-27.02
-26.244
-25.442
-24.62
-23.785
-22.943
-22.099
-21.262
-20.435
-19.626
-18.841
-18.087
-17.371
-16.706
-16.097
-15.546
-15.054
-14.617
-14.23
-13.886
-13.574
-13.277
-12.982
-12.677
-12.351
-11.999
-11.611
-11.179
-10.692
-10.132
-9.493
-8.775
-7.98
-7.124
-6.229
-5.314
-4.414
-3.583
-2.865
-2.305
-1.953
-1.842
-2.011
-2.504
-3.351
-4.58
-6.221
-8.294
-10.824
-13.824
-17.29
-21.192
-25.511
-30.237
-35.269
-40.431
-45.461
-49.984
-53.688
-56.387
-57.808
-57.61
-55.758
-52.397
-47.934
-43.283
-39.065
-35.528
-33.21
-32.605
-33.67
-36.193
-39.313
-41.176
-40.579
-36.837
-28.509
-14.344
6.207
33.685
66.737
101.828
137.419
172.616
206.074
238.402
266.05
281.451
278.361
249.675
193.487
116.004
24.793
-71.965
-169.471
-269.854
-375.649
-485.431
-592.156
-682.453
-743.887
-770.985
-766.328
-739.593
-700.528
-655.077
-605.314
-549.763
-488.336
-423.356
-357.927
-296.374
-241.808
-195.382
-157.752
-128.604
-106.847
-91.587
-81.801
-75.892
-72.383
-69.849
-66.751
-62.372
-56.695
-49.788
-41.966
-33.822
-25.851
-18.731
-13.31
-9.863
-8.277
-8.321
-9.541
-11.482
-13.784
-15.957
-17.454
-17.993
-17.468
-15.89
-13.415
-10.156
-6.197
-1.674
3.256
8.455
13.8
19.196
24.575
29.851
34.927
39.708
44.103
48.061
51.567
54.626
57.267
59.525
61.439
63.063
64.458
65.683
66.795
67.845
68.878
69.941
71.084
72.358
73.811
75.478
77.377
79.521
81.913
84.554
87.439
90.559
93.898
97.441
101.176
105.09
109.172
113.408
117.78
122.268
126.852
131.511
136.227
140.977
145.741
150.496
155.222
159.896
164.499
169.007
173.398
177.647
181.731
185.626
189.311
192.763
195.96
198.884
201.515
203.837
205.835
207.497
208.808
209.761
210.345
210.554
210.383
209.83
208.892
207.571
205.868
203.788
201.338
198.524
195.358
191.849
188.012
183.861
179.411
174.679
169.685
164.446
158.984
153.319
147.474
141.47
135.33
129.078
122.735
116.327
109.874
103.4
96.927
90.476
84.069
77.725
71.465
65.306
59.267
53.364
47.614
42.029
36.625
31.412
26.402
21.603
17.025
12.672
8.551
4.666
1.018
-2.39
-5.559
-8.49
-11.185
-13.648
-15.884
-17.897
-19.695
-21.284
-22.672
-23.869
-24.883
-25.724
-26.402
-26.927
-27.309
-27.561
-27.691
-27.712
-27.633
-27.467
-27.222
-26.91
-26.539
-26.121
-25.662
-25.173
-24.661
-24.133
-23.597
-23.058
-22.523
-21.996
-21.482
-20.985
-20.508
-20.054
-19.626
-19.224
-18.851
-18.507
-18.192
-17.907
-17.651
-17.424
-17.225
-17.051
-16.903
-16.779
-16.676
-16.593
-16.527
-16.477
-16.441
-16.416
-16.4
-16.391
-16.388
-16.389
-16.391
-16.394
-16.395
-16.395
-16.391
-16.383
-16.369
-16.351
-16.326
-16.296
-16.26
-16.218
-16.171
-16.118
-16.062
-16.002
-15.939
-15.874
-15.808
-15.742
-15.677
-15.614
-15.554
-15.499
-15.449
-15.407
-15.373
-15.35
-15.337
-15.337
-15.351
-15.38
-15.426
-15.489
-15.571
-15.673
-15.796
-15.941
-16.108
-16.298
-16.512
-16.749
-17.009
-17.292
-17.597
-17.923
-18.27
-18.636
-19.021
-19.422
-19.839
-20.269
-20.711
-21.163
-21.622
-22.086
-22.553
-23.019
-23.482
-23.939
-24.386
-24.821
-25.239
-25.637
-26.012
-26.359
-26.674
-26.955
-27.195
-27.393
-27.544
-27.646
-27.695
-27.69
-27.628
-27.509
-27.334
-27.102
-26.813
-26.469
-26.07
-25.618
-25.115
-24.562
-23.96
-23.313
-22.623
-21.895
-21.134
-20.344
-19.532
-18.702
-17.86
-17.011
-16.163
-15.319
-14.484
-13.666
-12.87
-12.102
-11.375
-10.693
-10.058
-9.472
-8.93
-8.426
-7.954
-7.502
-7.054
-6.597
-6.115
-5.599
-5.044
-4.438
-3.774
-3.041
-2.222
-1.309
-0.305
0.784
1.943
3.146
4.372
5.583
6.718
7.727
8.559
9.158
9.486
9.497
9.134
8.36
7.137
5.431
3.22
0.481
-2.799
-6.612
-10.925
-15.708
-20.934
-26.491
-32.192
-37.767
-42.83
-47.041
-50.164
-51.881
-51.821
-49.934
-46.353
-41.491
-36.262
-31.332
-27.091
-24.22
-23.302
-24.324
-27.033
-30.515
-32.905
-32.929
-29.556
-20.95
-5.831
16.311
45.865
81.053
118.974
158.544
197.354
233.192
264.444
285.272
290.825
276.753
238.481
177.698
98.245
5.919
-92.346
-194.296
-300.235
-410.977
-523.814
-629.791
-716.102
-770.89
-789.637
-776.397
-741.003
-693.699
-640.994
-584.837
-524.099
-458.936
-391.329
-324.485
-262.999
-209.825
-165.793
-131.17
-105.076
-86.053
-73.321
-65.773
-61.512
-58.972
-56.7
-53.316
-48.462
-42.348
-35.042
-26.923
-18.702
-10.947
-4.39
0.223
2.79
3.537
2.748
0.894
-1.556
-4.221
-6.605
-8.213
-8.821
-8.364
-6.886
-4.544
-1.448
2.315
6.61
11.292
16.229
21.3
26.412
31.5
36.478
41.254
45.738
49.841
53.518
56.757
59.57
61.986
64.038
65.767
67.222
68.466
69.558
70.553
71.502
72.445
73.429
74.502
75.711
77.101
78.703
80.533
82.6
84.905
87.447
90.221
93.215
96.412
99.795
103.352
107.07
110.937
114.938
119.054
123.267
127.556
131.901
136.284
140.683
145.079
149.45
153.776
158.037
162.214
166.285
170.229
174.025
177.649
181.081
184.301
187.288
190.024
192.491
194.673
196.557
198.129
199.378
200.295
200.872
201.101
200.978
200.499
199.664
198.471
196.923
195.023
192.775
190.188
187.269
184.028
180.477
176.628
172.497
168.097
163.447
158.563
153.464
148.17
142.701
137.078
131.32
125.451
119.491
113.462
107.385
101.281
95.171
89.075
83.013
77.003
71.064
65.214
59.47
53.846
48.359
43.022
37.848
32.849
28.035
23.415
18.999
14.791
10.798
7.025
3.473
0.146
-2.958
-5.837
-8.495
-10.935
-13.159
-15.173
-16.983
-18.595
-20.017
-21.256
-22.321
-23.221
-23.965
-24.562
-25.022
-25.356
-25.573
-25.683
-25.696
-25.623
-25.473
-25.255
-24.979
-24.653
-24.287
-23.888
-23.465
-23.023
-22.571
-22.113
-21.656
-21.204
-20.762
-20.334
-19.923
-19.531
-19.162
-18.816
-18.495
-18.199
-17.93
-17.687
-17.47
-17.278
-17.112
-16.969
-16.848
-16.749
-16.67
-16.609
-16.564
-16.534
-16.517
-16.511
-16.514
-16.525
-16.541
-16.562
-16.586
-16.61
-16.635
-16.659
-16.68
-16.699
-16.713
-16.723
-16.729
-16.729
-16.724
-16.714
-16.698
-16.678
-16.653
-16.623
-16.589
-16.552
-16.511
-16.468
-16.423
-16.376
-16.329
-16.282
-16.235
-16.19
-16.147
-16.107
-16.07
-16.038
-16.012
-15.991
-15.978
-15.972
-15.975
-15.988
-16.011
-16.045
-16.091
-16.15
-16.222
-16.307
-16.407
-16.522
-16.652
-16.797
-16.959
-17.137
-17.332
-17.543
-17.769
-18.012
-18.27
-18.542
-18.827
-19.125
-19.435
-19.755
-20.083
-20.419
-20.762
-21.107
-21.455
-21.803
-22.148
-22.487
-22.818
-23.138
-23.443
-23.731
-24
-24.245
-24.463
-24.651
-24.806
-24.924
-25.003
-25.039
-25.03
-24.972
-24.865
-24.705
-24.494
-24.229
-23.911
-23.541
-23.12
-22.65
-22.132
-21.569
-20.962
-20.316
-19.632
-18.913
-18.162
-17.384
-16.583
-15.765
-14.935
-14.098
-13.259
-12.424
-11.599
-10.792
-10.006
-9.244
-8.507
-7.8
-7.127
-6.496
-5.91
-5.366
-4.862
-4.397
-3.967
-3.567
-3.183
-2.795
-2.384
-1.935
-1.437
-0.888
-0.282
0.39
1.137
1.971
2.894
3.9
4.98
6.134
7.353
8.615
9.883
11.089
12.164
13.052
13.704
14.086
14.171
13.915
13.265
12.179
10.615
8.55
5.98
2.859
-0.88
-5.219
-10.03
-15.056
-19.92
-24.297
-27.963
-30.651
-32.013
-31.826
-30.136
-27.31
-24.06
-21.093
-18.797
-17.505
-17.749
-19.839
-23.594
-28.336
-32.678
-35.014
-34.273
-29.417
-18.948
-1.726
22.769
54.395
91.709
132.626
175.33
217.34
254.99
284.574
302.459
305.349
291.259
258.707
206.349
135.202
48.951
-48.236
-152.146
-261.069
-375.344
-491.576
-601.669
-693.212
-753.717
-777.832
-768.874
-736.723
-691.708
-640.594
-585.599
-525.421
-460.317
-392.411
-324.856
-262.407
-208.223
-163.282
-128.033
-101.629
-82.463
-69.668
-62.12
-57.914
-55.467
-53.254
-49.788
-44.666
-38.136
-30.309
-21.594
-12.717
-4.256
3.006
8.254
11.339
12.461
11.914
10.191
7.774
5.061
2.567
0.812
0.047
0.358
1.704
3.931
6.928
10.604
14.829
19.459
24.362
29.423
34.545
39.656
44.668
49.481
54.002
58.135
61.829
65.067
67.855
70.224
72.207
73.846
75.191
76.304
77.244
78.068
78.829
79.571
80.343
81.195
82.178
83.342
84.719
86.331
88.189
90.296
92.652
95.254
98.091
101.149
104.413
107.869
111.507
115.317
119.283
123.388
127.615
131.941
136.349
140.818
145.328
149.859
154.39
158.899
163.366
167.771
172.091
176.304
180.387
184.315
188.067
191.619
194.951
198.041
200.87
203.419
205.673
207.616
209.234
210.517
211.453
212.034
212.254
212.106
211.587
210.697
209.434
207.801
205.801
203.44
200.726
197.667
194.274
190.558
186.535
182.219
177.625
172.772
167.678
162.363
156.846
151.149
145.294
139.302
133.196
126.998
120.73
114.416
108.077
101.734
95.408
89.12
82.891
76.738
70.68
64.735
58.919
53.247
47.734
42.392
37.235
32.271
27.512
22.964
18.635
14.531
10.654
7.009
3.596
0.417
-2.53
-5.247
-7.736
-10.002
-12.05
-13.885
-15.516
-16.948
-18.191
-19.253
-20.143
-20.871
-21.446
-21.88
-22.181
-22.361
-22.43
-22.397
-22.274
-22.07
-21.794
-21.457
-21.067
-20.632
-20.162
-19.663
-19.143
-18.609
-18.068
-17.524
-16.983
-16.45
-15.93
-15.424
-14.938
-14.473
-14.032
-13.615
-13.225
-12.863
-12.528
-12.221
-11.942
-11.69
-11.465
-11.267
-11.093
-10.944
-10.818
-10.713
-10.629
-10.565
-10.519
-10.49
-10.476
-10.478
-10.494
-10.522
-10.563
-10.614
-10.676
-10.748
-10.829
-10.918
-11.015
-11.12
-11.233
-11.352
-11.479
-11.612
-11.752
-11.899
-12.053
-12.214
-12.383
-12.558
-12.741
-12.932
-13.13
-13.337
-13.552
-13.775
-14.007
-14.247
-14.496
-14.752
-15.017
-15.289
-15.569
-15.857
-16.151
-16.453
-16.761
-17.077
-17.398
-17.727
-18.062
-18.404
-18.752
-19.107
-19.468
-19.837
-20.211
-20.593
-20.982
-21.378
-21.78
-22.189
-22.605
-23.026
-23.452
-23.882
-24.315
-24.75
-25.186
-25.621
-26.056
-26.488
-26.916
-27.339
-27.754
-28.162
-28.559
-28.943
-29.313
-29.667
-30.001
-30.313
-30.6
-30.861
-31.093
-31.291
-31.454
-31.577
-31.659
-31.695
-31.683
-31.619
-31.502
-31.329
-31.099
-30.811
-30.464
-30.059
-29.597
-29.081
-28.51
-27.888
-27.217
-26.499
-25.737
-24.935
-24.095
-23.221
-22.317
-21.389
-20.443
-19.485
-18.52
-17.554
-16.592
-15.642
-14.71
-13.802
-12.922
-12.075
-11.267
-10.505
-9.799
-9.153
-8.567
-8.04
-7.568
-7.145
-6.766
-6.42
-6.089
-5.757
-5.408
-5.031
-4.619
-4.164
-3.656
-3.081
-2.425
-1.681
-0.854
0.048
1.014
2.03
3.077
4.121
5.106
5.981
6.694
7.19
7.431
7.37
6.965
6.186
4.998
3.361
1.253
-1.345
-4.462
-8.08
-12.208
-16.88
-21.991
-27.362
-32.748
-37.745
-42.016
-45.365
-47.48
-47.987
-46.837
-44.157
-40.36
-36.357
-32.803
-29.987
-28.417
-28.587
-30.477
-33.813
-37.707
-40.348
-40.311
-36.698
-28.336
-14.034
6.945
34.888
69.231
107.429
146.169
183.632
217.906
247.721
273.648
291.801
295.522
279.19
235.497
164.473
74.388
-27.363
-132.143
-237.014
-346.789
-461.294
-576.125
-680.932
-758.761
-800.36
-805.171
-779.644
-737.214
-686.948
-632.538
-574.802
-511.615
-443.647
-374.071
-306.672
-245.744
-193.745
-151.54
-119.114
-95.34
-78.954
-68.834
-63.285
-60.542
-58.881
-56.496
-52.477
-46.739
-39.425
-30.929
-21.897
-12.956
-4.929
1.209
5.078
6.756
6.508
4.833
2.218
-0.921
-4.045
-6.56
-8.113
-8.554
-7.876
-6.218
-3.698
-0.404
3.532
7.951
12.708
17.679
22.761
27.879
32.949
37.874
42.559
46.915
50.866
54.372
57.426
60.041
62.244
64.076
65.578
66.805
67.819
68.68
69.443
70.16
70.875
71.634
72.488
73.482
74.661
76.053
77.674
79.532
81.629
83.965
86.534
89.324
92.321
95.508
98.873
102.405
106.091
109.917
113.866
117.919
122.056
126.259
130.509
134.787
139.073
143.347
147.588
151.778
155.897
159.923
163.836
167.613
171.232
174.671
177.909
180.925
183.701
186.217
188.457
190.405
192.047
193.372
194.368
195.025
195.336
195.294
194.896
194.138
193.019
191.539
189.701
187.508
184.967
182.085
178.869
175.332
171.484
167.339
162.911
158.217
153.273
148.097
142.708
137.126
131.372
125.466
119.43
113.285
107.054
100.759
94.421
88.061
81.701
75.361
69.061
62.822
56.661
50.596
44.645
38.825
33.149
27.633
22.289
17.129
12.165
7.405
2.859
-1.469
-5.57
-9.442
-13.082
-16.486
-19.656
-22.59
-25.292
-27.765
-30.011
-32.037
-33.847
-35.45
-36.851
-38.061
-39.086
-39.937
-40.623
-41.155
-41.542
-41.795
-41.925
-41.943
-41.859
-41.683
-41.427
-41.101
-40.714
-40.276
-39.797
-39.286
-38.75
-38.198
-37.638
-37.075
-36.518
-35.97
-35.439
-34.927
-34.44
-33.98
-33.55
-33.154
-32.792
-32.466
-32.176
-31.924
-31.709
-31.531
-31.389
-31.281
-31.208
-31.166
-31.154
-31.171
-31.213
-31.279
-31.366
-31.472
-31.594
-31.73
-31.876
-32.032
-32.193
-32.358
-32.525
-32.691
-32.855
-33.015
-33.168
-33.314
-33.451
-33.578
-33.694
-33.799
-33.891
-33.971
-34.038
-34.093
-34.135
-34.164
-34.182
-34.189
-34.186
-34.174
-34.153
-34.125
-34.092
-34.055
-34.015
-33.975
-33.935
-33.898
-33.866
-33.839
-33.821
-33.813
-33.816
-33.833
-33.866
-33.916
-33.985
-34.076
-34.189
-34.325
-34.487
-34.676
-34.892
-35.137
-35.411
-35.715
-36.049
-36.414
-36.81
-37.236
-37.693
-38.179
-38.692
-39.233
-39.799
-40.389
-40.999
-41.629
-42.275
-42.934
-43.605
-44.284
-44.967
-45.652
-46.335
-47.012
-47.679
-48.332
-48.967
-49.579
-50.165
-50.72
-51.241
-51.723
-52.162
-52.555
-52.897
-53.185
-53.415
-53.585
-53.692
-53.733
-53.708
-53.615
-53.454
-53.225
-52.929
-52.57
-52.148
-51.666
-51.129
-50.539
-49.9
-49.217
-48.495
-47.736
-46.948
-46.134
-45.303
-44.459
-43.61
-42.763
-41.923
-41.099
-40.298
-39.526
-38.79
-38.092
-37.436
-36.826
-36.267
-35.766
-35.327
-34.948
-34.626
-34.361
-34.146
-33.977
-33.841
-33.715
-33.579
-33.418
-33.218
-32.976
-32.683
-32.329
-31.901
-31.387
-30.781
-30.089
-29.314
-28.458
-27.527
-26.541
-25.538
-24.583
-23.747
-23.084
-22.645
-22.467
-22.579
-23.029
-23.872
-25.152
-26.912
-29.177
-31.952
-35.279
-39.224
-43.766
-48.776
-54.003
-59.077
-63.67
-67.564
-70.504
-72.137
-72.241
-70.838
-68.247
-65.143
-62.219
-59.819
-58.218
-57.92
-59.234
-62.034
-65.768
-69.138
-70.536
-69.014
-63.809
-53.473
-36.729
-12.983
17.993
54.399
92.741
131.555
169.742
205.824
240.196
268.874
284.148
279.658
247.946
187.22
104.16
6.936
-95.709
-198.796
-304.676
-416.215
-531.624
-643.11
-736.626
-798.963
-824.748
-817.219
-786.464
-742.832
-692.559
-637.558
-576.387
-509.075
-438.203
-367.473
-301.828
-244.73
-197.397
-160.322
-132.915
-113.815
-101.85
-95.571
-92.849
-91.783
-90.709
-88.108
-83.425
-76.797
-68.464
-58.967
-49.151
-39.758
-31.615
-25.537
-21.73
-20.025
-20.11
-21.478
-23.633
-26.14
-28.494
-30.195
-30.972
-30.727
-29.487
-27.386
-24.535
-21.025
-16.975
-12.518
-7.778
-2.86
2.143
7.156
12.108
16.911
21.481
25.74
29.618
33.081
36.13
38.78
41.061
43.014
44.679
46.107
47.359
48.495
49.567
50.624
51.707
52.861
54.133
55.566
57.201
59.068
61.178
63.54
66.154
69.02
72.131
75.477
79.039
82.802
86.753
90.879
95.166
99.6
104.161
108.83
113.586
118.408
123.277
128.17
133.067
137.945
142.782
147.556
152.247
156.833
161.289
165.592
169.72
173.649
177.357
180.825
184.03
186.955
189.582
191.897
193.885
195.535
196.836
197.779
198.359
198.568
198.406
197.869
196.958
195.676
194.026
192.014
189.647
186.936
183.89
180.522
176.846
172.878
168.635
164.134
159.394
154.437
149.282
143.952
138.468
132.854
127.132
121.326
115.458
109.552
103.631
97.715
91.828
85.99
80.221
74.54
68.965
63.515
58.204
53.048
48.062
43.257
38.645
34.237
30.041
26.065
22.314
18.794
15.507
12.456
9.641
7.061
4.715
2.599
0.709
-0.959
-2.412
-3.657
-4.701
-5.554
-6.223
-6.719
-7.052
-7.233
-7.27
-7.177
-6.961
-6.635
-6.207
-5.688
-5.087
-4.414
-3.677
-2.885
-2.046
-1.168
-0.258
0.676
1.63
2.597
3.574
4.556
5.54
6.523
7.502
8.474
9.439
10.393
11.335
12.265
13.181
14.083
14.972
15.847
16.71
17.56
18.398
19.225
20.039
20.841
21.63
22.403
23.159
23.899
24.62
25.322
26.004
26.665
27.305
27.927
28.528
29.107
29.663
30.191
30.688
31.152
31.579
31.965
32.309
32.61
32.87
33.092
33.279
33.433
33.552
33.632
33.672
33.678
33.651
33.598
33.53
33.461
33.416
33.426
33.516
33.701
33.992
34.389
34.893
35.505
36.225
37.053
37.991
39.04
40.201
41.476
42.85
44.3
45.781
47.224
48.575
49.795
50.857
51.756
52.502
53.112
53.619
54.066
54.485
54.905
55.357
55.864
56.474
57.25
58.282
59.692
61.597
64.096
67.264
71.139
75.722
80.989
86.886
93.328
100.239
107.541
115.146
122.97
130.907
