14.084
17.279
20.312
23.15
25.771
28.169
30.322
32.196
33.758
34.959
35.794
36.298
36.498
36.419
36.079
35.478
34.626
33.551
32.27
30.8
29.154
27.334
25.364
23.281
21.124
18.938
16.744
14.526
12.282
10.012
7.721
5.425
3.13
0.83
-1.466
-3.745
-5.991
-8.186
-10.322
-12.405
-14.44
-16.433
-18.379
-20.263
-22.072
-23.801
-25.444
-27
-28.465
-29.831
-31.099
-32.278
-33.376
-34.404
-35.369
-36.273
-37.121
-37.92
-38.678
-39.405
-40.112
-40.807
-41.498
-42.196
-42.908
-43.645
-44.412
-45.211
-46.045
-46.915
-47.822
-48.771
-49.761
-50.793
-51.868
-52.988
-54.153
-55.363
-56.615
-57.904
-59.221
-60.562
-61.916
-63.273
-64.624
-65.957
-67.261
-68.53
-69.755
-70.928
-72.038
-73.068
-74.007
-74.848
-75.585
-76.216
-76.741
-77.159
-77.479
-77.722
-77.907
-78.054
-78.171
-78.256
-78.304
-78.317
-78.291
-78.23
-78.122
-77.941
-77.665
-77.281
-76.773
-76.129
-75.321
-74.29
-72.984
-71.364
-69.408
-67.121
-64.507
-61.565
-58.308
-54.762
-50.978
-47.046
-43.037
-38.997
-34.978
-31.023
-27.2
-23.618
-20.371
-17.531
-15.154
-13.269
-11.919
-11.161
-11.027
-11.514
-12.586
-14.17
-16.217
-18.724
-21.671
-25.041
-28.795
-32.84
-37.121
-41.617
-46.309
-51.185
-56.205
-61.282
-66.379
-71.543
-76.76
-81.956
-86.935
-91.335
-94.861
-97.338
-98.546
-98.21
-96.185
-92.571
-87.796
-82.659
-77.935
-74.077
-71.468
-70.618
-71.769
-74.643
-78.459
-81.759
-82.894
-80.79
-74.454
-62.475
-43.826
-18.138
14.346
52.144
93.125
135.505
176.933
213.857
242.619
259.662
261.717
246.736
213.511
161.011
89.291
1.546
-97.975
-205.683
-316.32
-427.383
-536.627
-635.519
-717.716
-777.12
-807.609
-813.31
-798.959
-768.083
-726.751
-675.768
-615.846
-550.11
-480.591
-410.557
-343.185
-280.788
-225.293
-177.769
-138.894
-108.54
-85.928
-70.493
-61.327
-56.764
-55.254
-55.148
-54.745
-53.349
-50.82
-46.994
-42.101
-36.713
-31.375
-26.876
-24.078
-23.22
-24.179
-26.763
-30.529
-35.008
-39.796
-44.341
-48.109
-50.848
-52.472
-52.997
-52.558
-51.253
-49.16
-46.429
-43.2
-39.569
-35.61
-31.341
-26.789
-22.03
-17.155
-12.26
-7.43
-2.713
1.843
6.185
10.285
14.135
17.748
21.17
24.427
27.531
30.484
33.27
35.893
38.378
40.752
43.048
45.301
47.541
49.811
52.177
54.678
57.334
60.152
63.117
66.225
69.481
72.885
76.441
80.144
83.983
87.948
92.027
96.2
100.439
104.703
108.94
113.108
117.176
121.115
124.903
128.517
131.931
135.129
138.096
140.813
143.256
145.399
147.219
148.708
149.863
150.683
151.168
151.32
151.143
150.648
149.838
148.712
147.254
145.45
143.29
140.78
137.937
134.779
131.317
127.549
123.473
119.095
114.427
109.473
104.225
98.669
92.81
86.683
80.349
73.869
67.287
60.634
53.929
47.196
40.474
33.804
27.224
20.763
14.451
8.329
2.459
-3.091
-8.281
-13.115
-17.626
-21.847
-25.791
-29.462
-32.856
-35.981
-38.855
-41.488
-43.885
-46.039
-47.959
-49.665
-51.2
-52.612
-53.922
-55.125
-56.191
-57.098
-57.838
-58.409
-58.81
-59.032
-59.07
-58.928
-58.622
-58.172
-57.589
-56.875
-56.021
-55.018
-53.868
-52.588
-51.202
-49.731
-48.19
-46.593
-44.957
-43.301
-41.641
-39.985
-38.334
-36.687
-35.048
-33.424
-31.826
-30.262
-28.735
-27.249
-25.805
-24.407
-23.055
-21.752
-20.495
-19.283
-18.115
-16.992
-15.916
-14.889
-13.911
-12.982
-12.102
-11.271
-10.487
-9.75
-9.057
-8.407
-7.797
-7.226
-6.693
-6.197
-5.736
-5.309
-4.917
-4.557
-4.229
-3.932
-3.665
-3.428
-3.219
-3.038
-2.883
-2.754
-2.65
-2.57
-2.513
-2.48
-2.468
-2.478
-2.509
-2.559
-2.627
-2.713
-2.814
-2.929
-3.056
-3.193
-3.34
-3.494
-3.653
-3.814
-3.974
-4.131
-4.281
-4.419
-4.543
-4.648
-4.73
-4.786
-4.812
-4.805
-4.762
-4.681
-4.56
-4.399
-4.195
-3.948
-3.655
-3.317
-2.932
-2.5
-2.018
-1.488
-0.91
-0.285
0.382
1.089
1.832
2.609
3.414
4.243
5.093
5.959
6.838
7.725
8.613
9.494
10.358
11.196
12.008
12.793
13.553
14.297
15.032
15.771
16.532
17.33
18.174
19.073
20.026
21.039
22.123
23.287
24.542
25.897
27.345
28.874
30.472
32.106
33.738
35.329
36.812
38.135
39.255
40.129
40.724
41.003
40.918
40.421
39.474
38.052
36.143
33.738
30.827
27.429
23.569
19.306
14.704
9.783
4.637
-0.563
-5.576
-10.026
-13.554
-15.913
-16.773
-15.747
-12.794
-8.072
-2.011
4.418
10.446
15.585
19.048
20.158
18.896
15.525
10.973
7.151
5.505
7.269
14.329
28.122
49.357
78.377
114.203
154.63
197.655
240.549
279.183
309.641
328.137
330.815
315.126
279.505
222.522
145.632
53.661
-49.916
-161.604
-278.803
-402.19
-525.128
-635.458
-722.388
-773.813
-788.08
-774.225
-739.888
-694.066
-641.585
-580.561
-511.902
-437.799
-360.941
-286.718
-219.422
-161.459
-114.322
-77.976
-51.348
-33.145
-22.28
-17.194
-15.725
-15.723
-15.091
-12.55
-7.969
-1.594
6.301
15.143
24.124
32.272
38.429
42.027
43.189
42.253
39.734
36.181
32.084
28.054
24.794
22.703
21.917
22.427
24.066
26.699
30.248
34.564
39.472
44.818
50.455
56.266
62.167
68.046
73.778
79.247
84.338
88.986
93.172
96.899
100.192
103.087
105.622
107.851
109.84
111.647
113.333
114.954
116.559
118.206
119.961
121.88
124.011
126.38
128.992
131.845
134.93
138.229
141.717
145.369
149.159
153.074
157.118
161.284
165.56
169.923
174.332
178.763
183.2
187.632
192.052
196.454
200.827
205.174
209.515
213.848
218.154
222.386
226.468
230.342
233.968
237.315
240.365
243.091
245.45
247.411
248.947
250.026
250.623
250.691
250.159
248.995
247.198
244.797
241.861
238.443
234.572
230.285
225.607
220.573
215.227
209.6
203.713
197.598
191.296
184.863
178.382
171.907
165.466
159.068
152.692
146.333
140.001
133.699
127.432
121.207
115.03
108.918
102.903
97.003
91.23
85.583
80.049
74.628
69.329
64.17
59.175
54.364
49.75
45.346
41.168
37.227
33.527
30.067
26.836
23.826
21.034
18.455
16.091
13.937
11.985
10.228
8.655
7.258
6.027
4.95
4.014
3.209
2.525
1.952
1.486
1.119
0.842
0.648
0.53
0.479
0.488
0.549
0.654
0.796
0.968
1.164
1.379
1.608
1.846
2.09
2.335
2.579
2.818
3.05
3.272
3.484
3.682
3.866
4.034
4.184
4.316
4.428
4.52
4.59
4.637
4.66
4.659
4.632
4.58
4.501
4.394
4.26
4.098
3.907
3.686
3.436
3.156
2.844
2.501
2.126
1.718
1.278
0.805
0.297
-0.245
-0.822
-1.435
-2.086
-2.774
-3.501
-4.268
-5.075
-5.921
-6.807
-7.732
-8.696
-9.698
-10.736
-11.812
-12.923
-14.07
-15.251
-16.465
-17.711
-18.987
-20.29
-21.617
-22.966
-24.331
-25.71
-27.1
-28.498
-29.9
-31.304
-32.708
-34.11
-35.508
-36.899
-38.277
-39.636
-40.97
-42.271
-43.533
-44.749
-45.91
-47.01
-48.043
-49.009
-49.905
-50.729
-51.473
-52.129
-52.69
-53.156
-53.528
-53.805
-53.99
-54.089
-54.119
-54.104
-54.069
-54.031
-53.995
-53.959
-53.92
-53.877
-53.831
-53.777
-53.701
-53.584
-53.416
-53.194
-52.919
-52.574
-52.12
-51.495
-50.646
-49.538
-48.153
-46.487
-44.527
-42.274
-39.748
-36.991
-34.075
-31.063
-27.994
-24.894
-21.783
-18.707
-15.746
-13.003
-10.562
-8.493
-6.857
-5.71
-5.13
-5.158
-5.79
-6.981
-8.653
-10.743
-13.227
-16.099
-19.345
-22.933
-26.806
-30.878
-35.101
-39.434
-43.814
-48.177
-52.434
-56.511
-60.428
-64.281
-68.084
-71.76
-75.123
-77.849
-79.686
-80.505
-80.058
-78.026
-74.354
-69.242
-63.237
-57.274
-52.077
-47.988
-45.466
-45.087
-46.914
-50.553
-54.976
-58.42
-59.476
-57.332
-50.894
-38.737
-20.05
5.412
36.961
72.648
110.713
149.648
186.962
219.18
242.785
254.381
251.389
232.337
195.715
140.504
67.086
-21.298
-120.071
-225.603
-333.323
-441.004
-545.98
-639.669
-715.781
-768.082
-791.121
-789.349
-766.978
-727.94
-679.204
-622.01
-557.929
-490.745
-421.892
-354.816
-293.507
-239.893
-195.365
-160.152
-133.101
-112.897
-98.69
-89.239
-82.78
-77.595
-71.937
-64.767
-56.109
-46.294
-35.588
-24.488
-13.638
-3.82
3.954
9.186
11.977
12.589
11.489
9.171
6.039
2.627
-0.444
-2.797
-4.22
-4.612
-4.051
-2.599
-0.297
2.728
6.35
10.456
14.929
19.693
24.674
29.765
34.886
39.956
44.901
49.675
54.204
58.404
62.245
65.715
68.828
71.629
74.15
76.426
78.514
80.463
82.326
84.163
86.002
87.864
89.775
91.748
93.825
96.062
98.486
101.111
103.946
106.976
110.191
113.579
117.097
120.709
124.389
128.113
131.874
135.678
139.516
143.386
147.277
151.163
155.032
158.868
162.648
166.368
170.032
173.652
177.269
180.904
184.551
188.196
191.812
195.356
198.794
202.079
205.15
207.971
210.509
212.734
214.632
216.163
217.265
217.868
217.877
217.22
215.867
213.797
211.002
207.502
203.32
198.495
193.097
187.157
180.688
173.716
166.259
158.363
150.117
141.616
132.976
124.318
115.727
107.278
99.044
91.059
83.35
75.94
68.826
62.04
55.649
49.691
44.206
39.213
34.688
30.6
26.904
23.519
20.387
17.46
14.692
12.065
9.573
7.2
4.942
2.777
0.658
-1.45
-3.573
-5.737
-7.94
-10.171
-12.412
-14.616
-16.738
-18.752
-20.633
-22.374
-23.977
-25.436
-26.753
-27.929
-28.951
-29.812
-30.509
-31.032
-31.384
-31.575
-31.619
-31.541
-31.37
-31.123
-30.816
-30.458
-30.053
-29.607
-29.125
-28.603
-28.042
-27.447
-26.818
-26.163
-25.485
-24.786
-24.064
-23.319
-22.548
-21.751
-20.929
-20.081
-19.211
-18.321
-17.415
-16.501
-15.582
-14.666
-13.755
-12.853
-11.964
-11.092
-10.239
-9.409
-8.604
-7.826
-7.08
-6.37
-5.697
-5.067
-4.483
-3.947
-3.463
-3.034
-2.663
-2.351
-2.101
-1.914
-1.791
-1.733
-1.742
-1.815
-1.955
-2.159
-2.429
-2.761
-3.154
-3.604
-4.107
-4.661
-5.261
-5.901
-6.578
-7.284
-8.018
-8.775
-9.551
-10.342
-11.141
-11.945
-12.748
-13.544
-14.326
-15.085
-15.812
-16.499
-17.14
-17.729
-18.261
-18.729
-19.13
-19.46
-19.72
-19.908
-20.02
-20.047
-19.983
-19.824
-19.576
-19.247
-18.844
-18.374
-17.844
-17.268
-16.664
-16.042
-15.405
-14.745
-14.05
-13.322
-12.566
-11.797
-11.031
-10.275
-9.526
-8.785
-8.054
-7.331
-6.607
-5.857
-5.044
-4.15
-3.176
-2.14
-1.066
0.036
1.164
2.315
3.487
4.673
5.86
7.045
8.23
9.399
10.522
11.552
12.42
13.077
13.496
13.656
13.545
13.157
12.483
11.52
10.273
8.742
6.92
4.787
2.324
-0.475
-3.593
-6.99
-10.607
-14.401
-18.336
-22.367
-26.463
-30.589
-34.742
-38.97
-43.233
-47.403
-51.26
-54.456
-56.681
-57.754
-57.407
-55.302
-51.444
-46.048
-39.605
-33.117
-27.317
-22.568
-19.496
-18.686
-20.122
-23.522
-27.965
-31.562
-32.959
-31.201
-24.714
-12.16
7.195
33.787
66.789
104.091
143.904
184.101
221.215
251.512
271.135
276.418
264.88
234.729
184.56
113.997
25.594
-75.17
-183.727
-296.256
-410.666
-527.231
-639.34
-735.503
-805.315
-837.761
-832.601
-799.435
-746.767
-685.374
-620.848
-551.749
-479.587
-405.657
-332.053
-264.494
-206.412
-158.749
-122.103
-95.17
-75.839
-63.256
-56.326
-52.928
-51.394
-50.312
-48.14
-44.652
-40.387
-35.137
-28.977
-22.631
-16.539
-11.245
-7.522
-5.168
-3.561
-2.746
-2.562
-2.581
-2.61
-2.277
-1.104
0.798
3.129
6.061
9.63
13.768
18.534
23.757
29.205
34.883
40.809
46.769
52.599
58.145
63.201
67.733
71.747
75.199
78.091
80.47
82.381
83.898
85.11
86.067
86.819
87.425
87.931
88.4
88.899
89.484
90.214
91.133
92.269
93.642
95.263
97.134
99.254
101.614
104.198
106.994
109.99
113.176
116.541
120.071
123.743
127.539
131.434
135.409
139.442
143.51
147.591
151.662
155.7
159.683
163.589
167.395
171.075
174.605
177.958
181.111
184.039
186.721
189.134
191.257
193.073
194.564
195.718
196.52
196.959
197.028
196.719
196.028
194.953
193.492
191.648
189.425
186.828
183.866
180.548
176.887
172.894
168.586
163.98
159.092
153.942
148.551
142.939
137.13
131.144
125.007
118.742
112.373
105.925
99.421
92.887
86.346
79.821
73.335
66.908
60.563
54.318
48.192
42.203
36.367
30.699
25.212
19.919
14.83
9.956
5.304
0.881
-3.308
-7.258
-10.966
-14.432
-17.655
-20.636
-23.376
-25.879
-28.148
-30.19
-32.011
-33.617
-35.016
-36.217
-37.229
-38.062
-38.726
-39.233
-39.592
-39.814
-39.912
-39.895
-39.776
-39.564
-39.27
-38.906
-38.48
-38.002
-37.482
-36.927
-36.346
-35.747
-35.136
-34.521
-33.907
-33.301
-32.707
-32.131
-31.578
-31.05
-30.551
-30.084
-29.652
-29.255
-28.896
-28.575
-28.293
-28.051
-27.848
-27.685
-27.561
-27.476
-27.428
-27.416
-27.439
-27.494
-27.582
-27.7
-27.846
-28.02
-28.221
-28.449
-28.702
-28.98
-29.282
-29.608
-29.956
-30.326
-30.717
-31.128
-31.558
-32.005
-32.469
-32.949
-33.446
-33.956
-34.48
-35.016
-35.562
-36.116
-36.675
-37.236
-37.796
-38.352
-38.902
-39.443
-39.974
-40.493
-40.998
-41.49
-41.966
-42.422
-42.855
-43.257
-43.624
-43.948
-44.223
-44.442
-44.599
-44.69
-44.712
-44.666
-44.55
-44.362
-44.097
-43.748
-43.31
-42.784
-42.169
-41.47
-40.692
-39.85
-38.964
-38.06
-37.156
-36.262
-35.384
-34.515
-33.652
-32.79
-31.92
-31.043
-30.154
-29.248
-28.33
-27.402
-26.455
-25.469
-24.403
-23.202
-21.836
-20.283
-18.529
-16.583
-14.45
-12.149
-9.724
-7.211
-4.642
-2.046
0.57
3.199
5.814
8.377
10.824
13.071
15.058
16.737
18.046
18.949
19.409
19.413
18.994
18.176
16.974
15.385
13.387
10.957
8.084
4.783
1.084
-2.963
-7.328
-11.976
-16.845
-21.883
-27.008
-32.187
-37.466
-42.79
-48.015
-52.908
-57.089
-60.209
-62.061
-62.342
-60.68
-57.047
-51.592
-44.734
-37.46
-30.549
-24.441
-19.85
-17.394
-17.055
-18.61
-21.225
-22.998
-22.422
-18.405
-9.286
6.444
29.479
60.095
97.667
138.985
180.944
222.056
258.664
289.254
312.793
322.332
313.478
281.6
221.434
137.854
36.946
-75.067
-189.129
-302.365
-412.284
-513.65
-602.592
-673.932
-723.469
-750.394
-755.168
-738.943
-703.887
-653.419
-591.628
-523.065
-452.293
-382.526
-316.387
-256.755
-205.74
-164.324
-132.539
-109.187
-92.505
-81.293
-74.153
-69.138
-64.491
-58.635
-50.725
-40.972
-29.918
-17.983
-5.758
5.991
16.467
24.748
30.411
33.642
34.765
34.227
32.508
30.009
27.212
24.675
22.715
21.44
20.894
20.973
21.599
22.751
24.335
26.238
28.384
30.693
33.126
35.687
38.339
41.033
43.738
46.407
49.038
51.664
54.29
56.941
59.652
62.435
65.326
68.364
71.564
74.935
78.471
82.129
85.891
89.755
93.708
97.744
101.842
105.952
110.047
114.11
118.119
122.064
125.931
129.692
133.35
136.92
140.422
143.902
147.384
150.876
154.388
157.923
161.483
165.082
168.715
172.361
176.004
179.622
183.193
186.705
190.128
193.425
196.558
199.483
202.16
204.559
206.646
208.394
209.785
210.798
211.424
211.668
211.534
211.039
210.199
209.021
207.514
205.684
203.526
201.044
198.236
195.099
191.641
187.868
183.783
179.397
174.715
169.73
164.433
158.798
152.792
146.406
139.648
132.536
125.115
117.434
109.549
101.537
93.462
85.376
77.337
69.384
61.555
53.908
46.504
39.422
32.755
26.562
20.887
15.76
11.178
7.125
3.568
0.44
-2.314
-4.736
-6.864
-8.719
-10.317
-11.695
-12.893
-13.955
-14.947
-15.913
-16.888
-17.907
-18.976
-20.09
-21.234
-22.361
-23.432
-24.426
-25.327
-26.133
-26.847
-27.466
-27.985
-28.407
-28.721
-28.92
-29.002
-28.96
-28.796
-28.525
-28.162
-27.738
-27.281
-26.808
-26.335
-25.869
-25.414
-24.974
-24.55
-24.138
-23.736
-23.345
-22.966
-22.603
-22.255
-21.922
-21.6
-21.284
-20.969
-20.65
-20.323
-19.987
-19.64
-19.281
-18.911
-18.531
-18.146
-17.755
-17.361
-16.962
-16.56
-16.155
-15.749
-15.34
-14.931
-14.523
-14.117
-13.716
-13.323
-12.94
-12.569
-12.213
-11.873
-11.553
-11.253
-10.976
-10.722
-10.492
-10.289
-10.111
-9.961
-9.838
-9.743
-9.674
-9.632
-9.614
-9.619
-9.645
-9.689
-9.748
-9.818
-9.896
-9.978
-10.062
-10.141
-10.212
-10.27
-10.311
-10.33
-10.321
-10.279
-10.2
-10.079
-9.911
-9.694
-9.425
-9.1
-8.719
-8.28
-7.783
-7.228
-6.616
-5.947
-5.222
-4.445
-3.616
-2.738
-1.814
-0.847
0.159
1.198
2.264
3.354
4.46
5.577
6.698
7.812
8.917
10.008
11.082
12.133
13.154
14.136
15.073
15.966
16.814
17.616
18.374
19.09
19.775
20.45
21.132
21.839
22.577
23.346
24.154
25.01
25.924
26.912
27.97
29.088
30.262
31.489
32.755
34.038
35.291
36.433
37.396
38.12
38.55
38.657
38.405
37.741
36.616
34.977
32.792
30.046
26.736
22.827
18.268
13.124
7.578
1.932
-3.403
-8.095
-11.944
-14.665
-15.892
-15.555
-13.771
-10.918
-7.851
-5.153
-3.058
-2.046
-2.562
-4.531
-7.718
-11.343
-13.726
-13.682
-10.337
-2.248
11.692
32.044
59.156
92.226
129.299
168.636
207.965
243.801
272.633
290.736
294.426
281.391
250.058
199.194
129.102
41.839
-59.248
-169.214
-282.542
-394.099
-498.157
-589.061
-662.267
-714.296
-743.626
-750.729
-736.69
-703.317
-653.956
-592.534
-523.427
-451.417
-379.967
-311.614
-249.139
-194.628
-149.197
-113.523
-87.008
-68.046
-55.559
-48.411
-44.791
-43.153
-41.97
-39.673
-35.79
-30.543
-24.001
-16.506
-8.699
-1.077
5.627
10.588
13.648
15.01
14.943
13.927
12.419
10.778
9.499
9.068
9.696
11.434
14.217
17.862
22.243
27.25
32.726
38.509
44.451
50.424
56.336
62.11
67.655
72.878
77.685
82.016
85.85
89.193
92.069
94.517
96.575
98.298
99.748
100.985
102.07
103.057
103.992
104.926
105.909
106.99
108.216
109.623
111.229
113.046
115.076
117.318
119.765
122.407
125.224
128.202
131.325
134.577
137.946
141.413
144.959
148.562
152.199
155.848
159.489
163.099
166.655
170.137
173.521
176.788
179.916
182.885
185.672
188.256
190.615
192.728
194.578
196.144
197.41
198.36
198.981
199.262
199.191
198.763
197.97
196.809
195.278
193.377
191.108
188.476
185.485
182.146
178.466
174.458
170.135
165.512
160.605
155.431
150.009
144.36
138.503
132.461
126.254
119.905
113.438
106.875
100.239
93.553
86.84
80.122
73.422
66.762
60.161
53.641
47.22
40.916
34.747
28.728
22.874
17.198
11.713
6.429
1.356
-3.498
-8.127
-12.525
-16.687
-20.612
-24.297
-27.743
-30.949
-33.92
-36.657
-39.165
-41.448
-43.514
-45.368
-47.018
-48.471
-49.738
-50.826
-51.745
-52.506
-53.12
-53.596
-53.945
-54.179
-54.309
-54.344
-54.296
-54.175
-53.99
-53.752
-53.467
-53.146
-52.797
-52.426
-52.04
-51.647
-51.251
-50.857
-50.471
-50.094
-49.731
-49.383
-49.053
-48.741
-48.448
-48.176
-47.925
-47.693
-47.482
-47.291
-47.117
-46.96
-46.817
-46.686
-46.564
-46.449
-46.338
-46.229
-46.12
-46.008
-45.891
-45.77
-45.642
-45.506
-45.361
-45.207
-45.043
-44.869
-44.685
-44.492
-44.291
-44.083
-43.871
-43.657
-43.442
-43.23
-43.022
-42.819
-42.624
-42.437
-42.258
-42.089
-41.932
-41.787
-41.659
-41.549
-41.46
-41.396
-41.36
-41.354
-41.38
-41.435
-41.519
-41.628
-41.761
-41.913
-42.079
-42.254
-42.434
-42.618
-42.805
-42.992
-43.172
-43.335
-43.473
-43.585
-43.67
-43.727
-43.758
-43.764
-43.758
-43.76
-43.79
-43.866
-43.995
-44.173
-44.396
-44.663
-44.972
-45.323
-45.7
-46.077
-46.433
-46.755
-47.031
-47.245
-47.36
-47.315
-47.06
-46.549
-45.756
-44.676
-43.297
-41.61
-39.624
-37.359
-34.871
-32.239
-29.52
-26.759
-23.999
-21.282
-18.689
-16.325
-14.279
-12.63
-11.442
-10.758
-10.645
-11.16
-12.319
-14.118
-16.501
-19.374
-22.671
-26.342
-30.336
-34.603
-39.063
-43.614
-48.182
-52.703
-57.113
-61.339
-65.284
-68.872
-72.063
-74.847
-77.266
-79.371
-81.22
-82.912
-84.45
-85.746
-86.666
-86.945
-86.343
-84.756
-81.972
-77.714
-72.07
-65.32
-58.005
-51.157
-45.49
-41.318
-39.231
-39.754
-42.815
-48.086
-54.538
-60.169
-63.528
-63.534
-58.55
-47.251
-28.859
-2.898
29.809
67.159
107.243
147.649
184.771
214.928
234.188
238.689
225.985
194.485
143.031
72.047
-16.256
-118.349
-229.084
-342.756
-454.049
-557.109
-646.275
-717.116
-766.348
-792.67
-796.778
-779.938
-744.13
-692.865
-630.145
-560.308
-488.019
-416.587
-348.426
-286.258
-232.116
-187.085
-151.847
-125.834
-107.517
-95.898
-89.86
-87.563
-87.403
-87.746
-86.913
-84.334
-80.133
-74.314
-67.198
-59.435
-51.555
-44.342
-38.672
-34.754
-32.422
-31.422
-31.272
-31.507
-31.758
-31.559
-30.455
-28.269
-24.988
-20.704
-15.623
-9.901
-3.663
2.919
9.673
16.453
23.121
29.549
35.621
41.193
46.141
50.387
53.893
56.673
58.772
60.26
61.232
61.78
62.001
61.988
61.821
61.575
61.34
61.213
61.309
61.758
62.66
64.083
66.075
68.641
71.766
75.414
79.511
83.989
88.792
93.866
99.18
104.704
110.393
116.196
122.055
127.89
133.642
139.262
144.703
149.944
154.973
159.795
164.44
168.932
173.279
177.483
181.531
185.401
189.084
192.564
195.828
198.869
201.679
204.249
206.572
208.634
210.415
211.889
213.021
213.778
214.138
214.087
213.615
212.722
211.405
209.668
207.524
204.981
202.049
198.738
195.059
191.025
186.655
181.968
176.989
171.743
166.253
160.546
154.647
148.579
142.367
136.035
129.604
123.098
116.539
109.952
103.361
96.789
90.258
83.79
77.408
71.131
64.977
58.963
53.105
47.417
41.912
36.6
31.491
26.594
21.916
17.463
13.237
9.243
5.482
1.954
-1.342
-4.408
-7.247
-9.863
-12.262
-14.448
-16.43
-18.213
-19.806
-21.216
-22.453
-23.526
-24.444
-25.217
-25.854
-26.366
-26.762
-27.051
-27.243
-27.346
-27.368
-27.318
-27.201
-27.025
-26.796
-26.519
-26.199
-25.842
-25.449
-25.027
-24.576
-24.1
-23.602
-23.082
-22.543
-21.985
-21.411
-20.819
-20.212
-19.588
-18.949
-18.295
-17.624
-16.939
-16.237
-15.521
-14.789
-14.042
-13.281
-12.507
-11.721
-10.924
-10.118
-9.306
-8.489
-7.671
-6.854
-6.042
-5.239
-4.449
-3.674
-2.919
-2.187
-1.483
-0.81
-0.171
0.431
0.992
1.51
1.982
2.406
2.779
3.099
3.365
3.576
3.731
3.83
3.872
3.858
3.79
3.668
3.495
3.272
3.003
2.692
2.341
1.956
1.542
1.103
0.646
0.177
-0.3
-0.778
-1.251
-1.716
-2.166
-2.598
-3.008
-3.395
-3.754
-4.084
-4.382
-4.647
-4.876
-5.068
-5.222
-5.335
-5.41
-5.445
-5.444
-5.408
-5.341
-5.245
-5.124
-4.981
-4.82
-4.645
-4.458
-4.265
-4.07
-3.881
-3.71
-3.563
-3.444
-3.354
-3.289
-3.242
-3.207
-3.168
-3.104
-2.997
-2.829
-2.589
-2.27
-1.861
-1.348
-0.715
0.059
0.984
2.059
3.275
4.613
6.049
7.551
9.059
10.491
11.773
12.83
13.606
14.053
14.099
13.676
12.712
11.144
8.948
6.108
2.611
-1.534
-6.326
-11.732
-17.63
-23.895
-30.423
-37.024
-43.504
-49.584
-54.798
-58.747
-61.101
-61.478
-59.65
-55.602
-49.425
-41.615
-32.994
-24.284
-16.315
-9.943
-5.568
-3.248
-2.688
-2.779
-2.067
0.894
7.967
20.872
40.603
67.595
101.43
140.375
182.001
223.231
259.82
287.282
301.471
298.574
275.775
231.654
165.96
79.955
-23.063
-138.41
-260.542
-383.217
-500.15
-605.373
-693.519
-760.32
-803.223
-821.487
-815.673
-787.622
-740.329
-677.633
-604.045
-524.498
-443.526
-364.762
-291.524
-226.465
-171.341
-127.26
-94.144
-70.723
-55.456
-46.796
-42.747
-41.383
-40.88
-39.376
-35.973
-30.671
-23.682
-15.474
-6.793
1.693
9.151
14.612
17.757
18.738
17.877
15.753
12.931
9.884
7.199
5.462
4.963
5.799
7.924
11.156
15.354
20.4
26.119
32.328
38.857
45.563
52.327
59.041
65.583
71.821
77.63
82.925
87.666
91.839
95.461
98.565
101.19
103.395
105.246
106.809
108.147
109.322
110.388
111.404
112.429
113.521
114.74
116.132
117.727
119.546
121.594
123.867
126.357
129.041
131.887
134.866
137.948
141.107
144.329
147.602
150.918
154.273
157.662
161.073
164.488
167.888
171.259
174.589
177.872
181.111
184.319
187.514
190.719
193.942
197.176
200.397
203.559
206.606
209.473
212.106
214.466
216.519
218.235
219.584
220.537
221.054
221.091
220.593
219.497
217.756
215.344
212.262
208.542
204.237
199.419
194.153
188.494
182.492
176.187
169.621
162.832
155.865
148.768
141.602
134.442
127.353
120.39
113.585
106.951
100.48
94.152
87.947
81.853
75.864
69.981
64.211
58.564
53.051
47.683
42.462
37.379
32.429
27.603
22.904
18.343
13.935
9.703
5.668
1.849
-1.742
-5.099
-8.218
-11.103
-13.761
-16.203
-18.436
-20.468
-22.304
-23.948
-25.409
-26.694
-27.814
-28.782
-29.609
-30.309
-30.894
-31.374
-31.761
-32.061
-32.282
-32.429
-32.507
-32.521
-32.476
-32.378
-32.233
-32.045
-31.82
-31.564
-31.279
-30.971
-30.642
-30.295
-29.932
-29.554
-29.163
-28.758
-28.34
-27.91
-27.466
-27.009
-26.538
-26.052
-25.553
-25.038
-24.508
-23.962
-23.4
-22.822
-22.229
-21.621
-20.999
-20.366
-19.722
-19.071
-18.416
-17.758
-17.101
-16.447
-15.799
-15.161
-14.533
-13.919
-13.322
-12.744
-12.187
-11.654
-11.147
-10.669
-10.222
-9.808
-9.429
-9.086
-8.781
-8.514
-8.287
-8.1
-7.952
-7.844
-7.774
-7.742
-7.744
-7.78
-7.845
-7.937
-8.051
-8.181
-8.324
-8.474
-8.624
-8.769
-8.904
-9.022
-9.118
-9.187
-9.224
-9.225
-9.187
-9.106
-8.98
-8.807
-8.586
-8.315
-7.993
-7.621
-7.198
-6.725
-6.202
-5.63
-5.011
-4.35
-3.65
-2.916
-2.153
-1.366
-0.561
0.256
1.077
1.896
2.707
3.504
4.28
5.028
5.735
6.395
7.008
7.573
8.095
8.578
9.028
9.452
9.87
10.292
10.734
11.206
11.707
12.245
12.827
13.46
14.161
14.935
15.773
16.665
17.595
18.541
19.487
20.401
21.222
21.905
22.401
22.659
22.656
22.357
21.72
20.724
19.329
17.499
15.221
12.474
9.247
5.561
1.402
-3.258
-8.33
-13.659
-19
-23.984
-28.304
-31.731
-33.965
-34.637
-33.54
-30.757
-26.713
-22.189
-17.968
-14.547
-12.405
-12.23
-14.461
-18.931
-24.879
-30.802
-34.89
-35.811
-32.257
-22.446
-4.978
20.757
54.568
94.927
139.392
185.562
230.386
269.656
299.062
314.505
312.386
290.524
247.87
184.086
100.344
-0.267
-113.327
-233.348
-354.277
-470.276
-575.656
-665.131
-734.413
-780.718
-803.06
-801.879
-778.765
-736.32
-678.051
-608.203
-531.587
-452.826
-375.635
-303.355
-238.759
-183.796
-139.745
-106.692
-83.44
-68.365
-59.859
-55.925
-54.575
-53.912
-52.04
-48.01
-41.815
-33.738
-24.291
-14.238
-4.31
4.605
11.484
15.94
18.079
18.199
16.834
14.524
11.729
9.031
7.061
6.15
6.425
7.878
10.344
13.701
17.856
22.655
27.927
33.52
39.302
45.173
51.06
56.862
62.468
67.772
72.666
77.094
81.033
84.483
87.467
90.017
92.175
93.997
95.547
96.888
98.082
99.184
100.241
101.306
102.436
103.683
105.102
106.726
108.577
110.666
112.997
115.567
118.372
121.397
124.624
128.036
131.617
135.352
139.227
143.225
147.323
151.502
155.738
160.008
164.291
168.565
172.807
176.995
181.107
185.121
189.015
192.768
196.356
199.755
202.941
205.891
208.584
210.998
213.114
214.912
216.378
217.495
218.253
218.641
218.649
218.271
217.503
216.342
214.788
212.842
210.508
207.791
204.699
201.241
197.428
193.273
188.79
183.994
178.904
173.538
167.915
162.058
155.987
149.726
143.299
136.73
130.043
123.263
116.417
109.528
102.623
95.724
88.857
82.045
75.309
68.671
62.151
55.768
49.54
43.482
37.612
31.941
26.482
21.247
16.244
11.483
6.969
2.709
-1.295
-5.039
-8.522
-11.745
-14.708
-17.414
-19.867
-22.073
-24.037
-25.767
-27.27
-28.556
-29.635
-30.517
-31.213
-31.734
-32.092
-32.3
-32.369
-32.31
-32.137
-31.859
-31.49
-31.039
-30.518
-29.936
-29.304
-28.63
-27.925
-27.197
-26.454
-25.702
-24.951
-24.206
-23.474
-22.761
-22.071
-21.41
-20.781
-20.189
-19.636
-19.126
-18.66
-18.24
-17.867
-17.543
-17.267
-17.04
-16.863
-16.734
-16.653
-16.622
-16.638
-16.702
-16.813
-16.97
-17.175
-17.425
-17.72
-18.061
-18.445
-18.872
-19.342
-19.853
-20.403
-20.991
-21.615
-22.274
-22.964
-23.682
-24.428
-25.196
-25.986
-26.793
-27.615
-28.45
-29.293
-30.142
-30.994
-31.845
-32.693
-33.533
-34.362
-35.175
-35.968
-36.738
-37.48
-38.189
-38.861
-39.491
-40.075
-40.609
-41.089
-41.509
-41.868
-42.161
-42.386
-42.541
-42.625
-42.638
-42.579
-42.451
-42.256
-41.994
-41.669
-41.282
-40.839
-40.341
-39.793
-39.196
-38.555
-37.875
-37.161
-36.42
-35.657
-34.877
-34.088
-33.296
-32.508
-31.732
-30.975
-30.241
-29.534
-28.86
-28.225
-27.639
-27.108
-26.629
-26.203
-25.825
-25.493
-25.201
-24.939
-24.689
-24.432
-24.152
-23.834
-23.475
-23.067
-22.6
-22.063
-21.44
-20.728
-19.936
-19.073
-18.15
-17.183
-16.188
-15.206
-14.296
-13.523
-12.956
-12.656
-12.666
-13.037
-13.806
-15.019
-16.734
-18.993
-21.826
-25.259
-29.294
-33.949
-39.286
-45.259
-51.694
-58.325
-64.721
-70.475
-75.312
-78.887
-80.783
-80.802
-79.001
-75.782
-72.067
-68.76
-66.452
-65.761
-67.29
-71.227
-77.311
-84.635
-91.307
-95.277
-94.875
-88.35
-74.057
-50.982
-18.783
21.928
69.04
119.734
171.046
219.2
259.92
289.164
303.251
299.028
274.571
229.102
162.491
77.185
-21.651
-129.903
-243.745
-360.226
-479.147
-594.615
-696.094
-774.389
-819.275
-829.544
-813.72
-779.353
-735.371
-686.783
-632.006
-571.554
-506.987
-440.297
-375.743
-316.354
-263.295
-217.084
-177.597
-144.483
-117.229
-95.413
-78.429
-65.242
-54.959
-46.802
-39.84
-33.328
-26.971
-20.563
-14.067
-7.755
-1.876
3.303
7.327
9.776
10.575
9.88
7.962
5.232
2.075
-1.156
-3.998
-5.987
-6.88
-6.611
-5.232
-2.898
0.27
4.19
8.73
13.733
19.073
24.627
30.325
36.138
41.991
47.773
53.352
58.593
63.419
67.815
71.788
75.359
78.555
81.406
83.962
86.29
88.436
90.44
92.314
94.048
95.665
97.211
98.753
100.374
102.128
104.044
106.141
108.43
110.914
113.585
116.411
119.348
122.363
125.437
128.568
131.772
135.053
138.408
141.825
145.276
148.73
152.165
155.555
158.877
162.118
165.276
168.367
171.418
174.457
177.493
180.521
183.511
186.42
189.194
191.771
194.101
196.15
197.885
199.281
200.316
200.962
201.184
200.938
200.171
198.818
196.834
194.193
190.896
186.975
182.479
177.481
172.047
166.229
160.078
153.634
146.935
140.02
132.933
125.72
118.44
111.166
103.963
96.882
89.957
83.2
76.605
70.15
63.82
57.6
51.486
45.482
39.593
33.831
28.208
22.735
17.418
12.248
7.221
2.333
-2.414
-7.007
-11.429
-15.656
-19.666
-23.44
-26.965
-30.232
-33.239
-35.986
-38.481
-40.731
-42.745
-44.528
-46.085
-47.42
-48.54
-49.455
-50.175
-50.714
-51.083
-51.297
-51.37
-51.315
-51.143
-50.865
-50.49
-50.028
-49.485
-48.871
-48.195
-47.466
-46.695
-45.889
-45.059
-44.213
-43.361
-42.51
-41.666
-40.838
-40.03
-39.249
-38.499
-37.784
-37.11
-36.479
-35.895
-35.36
-34.877
-34.449
-34.076
-33.761
-33.504
-33.304
-33.164
-33.083
-33.06
-33.095
-33.188
-33.337
-33.543
-33.803
-34.117
-34.483
-34.898
-35.361
-35.87
-36.42
-37.01
-37.635
-38.292
-38.978
-39.688
-40.419
-41.167
-41.926
-42.693
-43.462
-44.23
-44.992
-45.743
-46.478
-47.193
-47.883
-48.544
-49.171
-49.76
-50.307
-50.807
-51.256
-51.651
-51.987
-52.261
-52.469
-52.608
-52.675
-52.668
-52.585
-52.423
-52.182
-51.861
-51.46
-50.979
-50.42
-49.786
-49.077
-48.299
-47.455
-46.552
-45.594
-44.586
-43.535
-42.448
-41.33
-40.188
-39.026
-37.851
-36.667
-35.482
-34.301
-33.13
-31.975
-30.841
-29.736
-28.666
-27.637
-26.651
-25.708
-24.809
-23.953
-23.144
-22.385
-21.678
-21.021
-20.411
-19.845
-19.318
-18.822
-18.34
-17.845
-17.312
-16.719
-16.054
-15.31
-14.481
-13.558
-12.531
-11.389
-10.131
-8.761
-7.284
-5.705
-4.038
-2.312
-0.586
1.048
2.507
3.714
4.612
5.167
5.336
5.06
4.284
2.956
1.033
-1.493
-4.658
-8.557
-13.148
-18.282
-23.685
-28.863
-33.368
-36.914
-39.108
-39.515
-38.09
-34.986
-30.689
-26.3
-22.672
-20.327
-20.075
-22.521
-27.505
-34.553
-42.439
-48.879
-52.082
-50.489
-41.9
-24.743
1.582
37.125
80.455
128.754
179.414
229.124
273.17
307.226
327.384
329.926
312.601
274.329
214.238
134.012
38.639
-67.997
-182.219
-300.857
-423.739
-544.807
-652.818
-737.865
-789.189
-804.634
-791.925
-758.168
-711.747
-657.859
-595.635
-526.591
-453.345
-378.8
-308.313
-245.636
-192.521
-149.982
-117.491
-93.572
-76.718
-65.505
-58.112
-52.769
-47.871
-41.772
-33.719
-23.871
-12.635
-0.551
11.631
23.267
33.624
41.772
47.353
50.493
51.459
50.772
48.944
46.353
43.474
40.83
38.712
37.277
36.591
36.555
37.081
38.104
39.498
41.148
42.971
44.891
46.867
48.871
50.885
52.919
55.003
57.172
59.456
61.856
64.368
67.011
69.818
72.831
76.091
79.612
83.406
87.489
91.865
96.528
101.441
106.525
111.697
116.88
122.008
127.049
131.975
136.754
141.365
145.79
150.015
154.044
157.878
161.507
164.928
168.139
171.152
174.007
176.747
179.405
182.017
184.599
187.159
189.708
192.246
194.765
197.259
199.715
202.115
204.458
206.746
208.99
211.215
213.428
215.611
217.75
219.817
221.784
223.634
225.34
226.858
228.15
229.174
229.893
230.284
230.308
229.91
229.021
227.552
225.433
222.633
219.138
214.936
210.03
204.415
198.098
191.138
183.598
175.542
167.037
158.14
148.925
139.499
129.99
120.529
111.231
102.177
93.424
85.045
77.102
69.664
62.793
56.497
50.772
45.619
41.03
36.994
33.485
30.437
27.759
25.376
23.227
21.272
19.487
17.83
16.256
14.721
13.183
11.623
10.036
8.409
6.732
5.005
3.242
1.478
-0.225
-1.831
-3.317
-4.666
-5.878
-6.941
-7.838
-8.563
-9.111
-9.478
-9.67
-9.685
-9.521
-9.186
-8.696
-8.074
-7.358
-6.572
-5.732
-4.855
-3.948
-3.022
-2.088
-1.15
-0.211
0.727
1.657
2.575
3.47
4.34
5.181
5.993
6.779
7.538
8.27
8.973
9.646
10.285
10.889
11.452
11.97
12.437
12.853
13.214
13.521
13.774
13.971
14.114
14.203
14.24
14.225
14.159
14.043
13.878
13.665
13.406
13.104
12.76
12.378
11.958
11.505
11.021
10.51
9.973
9.414
8.837
8.244
7.639
7.026
6.408
5.789
5.172
4.562
3.962
3.376
2.806
2.256
1.728
1.225
0.749
0.301
-0.116
-0.5
-0.851
-1.166
-1.444
-1.684
-1.885
-2.048
-2.172
-2.258
-2.307
-2.32
-2.3
-2.25
-2.171
-2.067
-1.941
-1.796
-1.636
-1.464
-1.282
-1.094
-0.902
-0.711
-0.525
-0.346
-0.178
-0.023
0.113
0.229
0.317
0.377
0.409
0.411
0.384
0.325
0.229
0.094
-0.078
-0.284
-0.522
-0.787
-1.075
-1.372
-1.658
-1.91
-2.107
-2.233
-2.284
-2.251
-2.123
-1.89
-1.539
-1.065
-0.48
0.209
0.993
1.855
2.767
3.68
4.509
5.162
5.556
5.616
5.286
4.519
3.256
1.43
-1.018
-4.136
-7.958
-12.488
-17.763
-23.851
-30.69
-38.102
-45.773
-53.22
-60.008
-65.841
-70.321
-72.985
-73.724
-72.654
-70.206
-67.39
-64.992
-63.474
-63.589
-65.97
-70.549
-76.95
-84.091
-89.837
-92.523
-90.746
-82.439
-66.019
-40.782
-6.525
35.51
82.707
132.668
182.34
227.21
262.94
285.438
290.838
276.76
241.705
184.38
106.288
12.096
-93.357
-205.435
-322.547
-445.619
-570.987
-689.385
-786.578
-848.174
-868.413
-851.862
-810.664
-757.511
-700.423
-641.529
-578.618
-511.088
-440.722
-370.769
-306.251
-250.27
-203.45
-165.941
-136.715
-114.189
-97.652
-86.085
-77.652
-70.919
-64.539
-57.173
-48.546
-38.946
-28.453
-17.462
-6.686
3.331
11.839
18.043
21.812
23.334
22.879
20.913
17.885
14.179
10.301
6.785
3.936
1.9
0.688
0.196
0.363
1.162
2.543
4.441
6.796
9.56
12.701
16.225
20.124
24.356
28.864
33.574
38.409
43.318
48.279
53.279
58.296
63.302
68.257
73.116
77.862
82.478
86.94
91.213
95.267
99.089
102.683
106.076
109.293
112.354
115.269
118.052
120.727
123.33
125.907
128.502
131.144
133.852
136.643
139.535
142.531
145.629
148.807
152.037
155.297
158.572
161.854
165.132
168.392
171.607
174.735
177.74
180.592
183.271
185.76
188.054
190.155
192.075
193.848
195.495
197.027
198.437
199.696
200.772
201.633
202.256
202.634
202.757
202.609
202.169
201.419
200.329
198.864
196.972
194.571
191.593
187.997
183.762
178.9
173.436
167.392
160.791
153.655
146.012
137.903
129.378
120.481
111.27
101.815
92.215
82.605
73.125
63.882
54.962
46.431
38.34
30.752
23.724
17.29
11.48
6.307
1.772
-2.119
-5.368
-8.007
-10.09
-11.706
-12.963
-13.939
-14.698
-15.298
-15.789
-16.235
-16.693
-17.197
-17.771
-18.433
-19.195
-20.074
-21.085
-22.217
-23.445
-24.73
-26.014
-27.264
-28.454
-29.559
-30.562
-31.436
-32.162
-32.736
-33.164
-33.45
-33.599
-33.611
-33.488
-33.244
-32.898
-32.472
-31.994
-31.484
-30.952
-30.413
-29.877
-29.353
-28.847
-28.36
-27.887
-27.426
-26.975
-26.536
-26.109
-25.691
-25.279
-24.869
-24.458
-24.045
-23.63
-23.211
-22.789
-22.367
-21.944
-21.525
-21.113
-20.71
-20.317
-19.937
-19.571
-19.221
-18.887
-18.573
-18.278
-18.006
-17.756
-17.531
-17.333
-17.162
-17.02
-16.909
-16.829
-16.782
-16.77
-16.796
-16.86
-16.963
-17.105
-17.288
-17.509
-17.768
-18.061
-18.387
-18.742
-19.123
-19.528
-19.955
-20.4
-20.861
-21.338
-21.828
-22.328
-22.835
-23.344
-23.847
-24.34
-24.817
-25.269
-25.691
-26.077
-26.422
-26.724
-26.984
-27.199
-27.365
-27.478
-27.527
-27.51
-27.424
-27.268
-27.044
-26.759
-26.425
-26.062
-25.694
-25.337
-25
-24.687
-24.39
-24.105
-23.827
-23.545
-23.256
-22.958
-22.647
-22.328
-22.003
-21.659
-21.272
-20.796
-20.178
-19.38
-18.377
-17.15
-15.695
-14.019
-12.14
-10.103
-7.943
-5.685
-3.349
-0.939
1.543
4.065
6.581
9.023
11.302
13.347
15.087
16.448
17.369
17.807
17.745
17.207
16.21
14.75
12.81
10.353
7.344
3.789
-0.29
-4.854
-9.855
-15.24
-20.942
-26.874
-32.919
-38.997
-45.092
-51.133
-56.974
-62.38
-66.976
-70.404
-72.434
-72.76
-71.025
-67.187
-61.377
-53.982
-45.892
-37.815
-30.218
-23.858
-19.402
-16.931
-16.298
-16.776
-16.742
-14.99
-10.476
-1.503
13.296
34.663
62.999
97.489
136.104
176.939
217.464
253.84
282.227
298.687
299.392
281.963
244.925
187.225
109.474
14.13
-95.27
-213.716
-335.518
-455.362
-567.362
-665.579
-745.322
-803.001
-836.461
-845.351
-830.139
-792.123
-734.434
-661.394
-577.796
-488.868
-399.325
-313.286
-234.979
-167.951
-114.308
-74.676
-48.239
-33.195
-27.494
-28.735
-33.912
-40.022
-44.496
-45.829
-43.718
-38.469
-30.692
-21.276
-11.366
-2.288
4.661
8.862
10.378
9.581
7.065
3.446
-0.694
-4.661
-7.747
-9.564
-10
-9.1
-7.057
-4.021
-0.101
4.541
9.715
15.266
21.054
26.972
32.939
38.846
44.568
49.989
54.995
59.525
63.555
67.088
70.149
72.772
74.998
76.882
78.486
79.874
81.105
82.232
83.306
84.382
85.522
86.787
88.235
89.902
91.806
93.951
96.328
98.921
101.707
104.657
107.74
110.933
114.226
117.615
121.101
124.683
128.351
132.083
135.861
139.669
143.497
147.339
151.196
155.081
159.011
163.009
167.087
171.241
175.443
179.646
183.793
187.816
191.656
195.271
198.619
201.665
204.374
206.71
208.628
210.08
211.005
211.335
211.017
210.02
208.34
206.002
203.049
199.548
195.556
191.12
186.283
181.08
175.545
169.712
163.618
157.306
150.834
144.27
137.677
131.104
124.584
118.128
111.73
105.37
99.032
92.708
86.393
80.095
73.825
67.598
61.429
55.335
49.324
43.394
37.544
31.775
26.095
20.521
15.076
9.79
4.689
-0.2
-4.86
-9.276
-13.44
-17.348
-21.001
-24.402
-27.555
-30.46
-33.118
-35.529
-37.696
-39.626
-41.327
-42.809
-44.083
-45.162
-46.059
-46.786
-47.354
-47.774
-48.054
-48.203
-48.23
-48.144
-47.955
-47.671
-47.305
-46.864
-46.361
-45.804
-45.202
-44.565
-43.9
-43.213
-42.511
-41.8
-41.085
-40.37
-39.66
-38.958
-38.267
-37.59
-36.928
-36.284
-35.657
-35.049
-34.459
-33.886
-33.33
-32.79
-32.265
-31.754
-31.255
-30.767
-30.29
-29.822
-29.362
-28.91
-28.465
-28.025
-27.59
-27.16
-26.733
-26.311
-25.894
-25.481
-25.075
-24.677
-24.288
-23.91
-23.544
-23.192
-22.856
-22.538
-22.238
-21.96
-21.704
-21.472
-21.267
-21.089
-20.94
-20.822
-20.734
-20.677
-20.652
-20.658
-20.693
-20.756
-20.846
-20.962
-21.1
-21.257
-21.431
-21.618
-21.813
-22.012
-22.209
-22.398
-22.574
-22.731
-22.862
-22.962
-23.026
-23.048
-23.023
-22.948
-22.82
-22.635
-22.391
-22.085
-21.714
-21.278
-20.775
-20.204
-19.565
-18.858
-18.085
-17.25
-16.358
-15.414
-14.423
-13.391
-12.325
-11.23
-10.115
-8.985
-7.845
-6.705
-5.575
-4.465
-3.389
-2.357
-1.373
-0.44
0.441
1.276
2.068
2.828
3.573
4.31
5.046
5.783
6.519
7.257
8.007
8.774
9.568
10.396
11.253
12.133
13.033
13.927
14.785
15.574
16.243
16.755
17.083
17.201
17.086
16.713
16.051
15.072
13.76
12.103
10.094
7.716
4.949
1.798
-1.722
-5.571
-9.712
-14.171
-18.88
-23.682
-28.345
-32.505
-35.849
-38.202
-39.291
-38.752
-36.567
-32.923
-28.276
-23.609
-19.634
-16.684
-15.393
-16.342
-19.48
-24.484
-30.344
-35.055
-37.171
-35.675
-28.931
-15.568
5.117
33.492
68.572
108.012
149.835
191.797
230.377
261.858
282.492
288.729
278.287
249.788
202.136
135.159
51.462
-43.803
-146.404
-252.714
-360.874
-471.638
-579.155
-672.798
-742.996
-778.937
-779.869
-754.885
-711.739
-660.006
-604.601
-543.481
-477.46
-408.112
-337.721
-271.684
-213.605
-164.87
-126.424
-97.706
-77.266
-63.968
-56.481
-52.841
-51.269
-50.15
-47.859
-43.679
-37.694
-30.095
-21.337
-12.178
-3.245
4.717
10.84
14.859
16.923
17.312
16.524
15.053
13.28
11.68
10.77
10.803
11.866
13.939
16.863
20.517
24.795
29.544
34.601
39.823
45.081
50.253
55.246
59.961
64.325
68.289
71.809
74.861
77.443
79.561
81.25
82.562
83.558
84.309
84.884
85.352
85.793
86.303
86.973
87.874
89.037
90.461
92.149
94.108
96.344
98.859
101.639
104.661
107.903
111.348
114.978
118.77
122.687
126.675
130.677
134.655
138.602
142.528
146.439
150.328
154.183
157.991
161.746
165.442
169.062
172.577
175.958
179.183
182.237
185.119
187.824
190.339
192.639
194.691
196.466
197.941
199.098
199.917
200.376
200.459
200.16
199.48
198.424
196.992
195.186
193.003
190.446
187.523
184.244
180.62
176.665
172.394
167.823
162.971
157.862
152.514
146.95
141.188
135.248
129.154
122.927
116.593
110.175
103.696
97.181
90.656
84.144
77.671
71.26
64.932
58.709
52.611
46.657
40.864
35.248
29.824
24.605
19.603
14.827
10.285
5.986
1.933
-1.868
-5.417
-8.711
-11.752
-14.542
-17.085
-19.383
-21.444
-23.274
-24.881
-26.273
-27.461
-28.453
-29.261
-29.897
-30.374
-30.706
-30.904
-30.984
-30.958
-30.842
-30.647
-30.388
-30.076
-29.723
-29.341
-28.939
-28.528
-28.116
-27.711
-27.32
-26.949
-26.604
-26.288
-26.006
-25.759
-25.55
-25.38
-25.25
-25.159
-25.107
-25.093
-25.116
-25.174
-25.265
-25.387
-25.537
-25.711
-25.905
-26.117
-26.342
-26.576
-26.815
-27.054
-27.29
-27.52
-27.739
-27.946
-28.137
-28.311
-28.467
-28.603
-28.719
-28.816
-28.894
-28.953
-28.996
-29.024
-29.04
-29.046
-29.045
-29.04
-29.032
-29.026
-29.023
-29.025
-29.034
-29.053
-29.082
-29.124
-29.18
-29.25
-29.336
-29.439
-29.561
-29.701
-29.86
-30.038
-30.235
-30.449
-30.681
-30.928
-31.189
-31.461
-31.741
-32.026
-32.312
-32.595
-32.872
-33.136
-33.383
-33.608
-33.805
-33.969
-34.094
-34.175
-34.209
-34.191
-34.118
-33.988
-33.798
-33.547
-33.236
-32.864
-32.431
-31.939
-31.387
-30.779
-30.114
-29.395
-28.622
-27.798
-26.927
-26.013
-25.06
-24.073
-23.058
-22.021
-20.966
-19.902
-18.836
-17.775
-16.724
-15.689
-14.678
-13.698
-12.761
-11.875
-11.039
-10.254
-9.517
-8.821
-8.163
-7.528
-6.897
-6.25
-5.569
-4.838
-4.051
-3.198
-2.267
-1.248
-0.122
1.118
2.461
3.898
5.414
6.983
8.584
10.176
11.686
13.048
14.197
15.06
15.592
15.746
15.463
14.714
13.451
11.626
9.226
6.232
2.627
-1.558
-6.331
-11.713
-17.568
-23.681
-29.762
-35.384
-40.225
-44.096
-46.665
-47.541
-46.627
-44.048
-40.266
-36.104
-32.102
-28.434
-25.464
-23.72
-23.31
-23.96
-24.794
-24.259
-21.228
-15.166
-5.21
9.875
30.804
57.862
90.482
126.872
165.459
204.909
242.806
275.703
300.229
312.862
310.456
291.371
254.02
196.838
121.373
30.827
-72.516
-183.977
-300.558
-420.207
-534.174
-634.838
-714.823
-766.641
-792.476
-795.862
-780.018
-750.084
-706.229
-649.239
-582.245
-507.859
-430.765
-355.029
-283.357
-218.55
-162.385
-116.033
-80.011
-53.593
-35.656
-25.008
-19.855
-18.286
-18.335
-17.931
-15.923
-12.058
-6.347
0.9
9.04
17.39
25.024
30.831
34.352
35.637
34.902
32.598
29.2
25.116
20.922
17.284
14.55
12.842
12.16
12.346
13.309
15.027
17.396
20.272
23.547
27.117
30.942
35.046
39.398
43.936
48.582
53.228
57.815
62.328
66.743
71.042
75.192
79.14
82.871
86.408
89.762
92.952
95.974
98.787
101.383
103.778
105.998
108.089
110.082
111.985
113.822
115.626
117.443
119.326
121.301
123.358
125.485
127.668
129.911
132.237
134.659
137.172
139.77
142.442
145.181
147.998
150.892
153.842
156.823
159.806
162.782
165.771
168.807
171.918
175.106
178.356
181.639
184.935
188.212
191.428
194.525
197.424
200.053
202.365
204.325
205.896
207.031
207.656
207.681
207.037
205.684
203.602
200.793
197.258
193.017
188.115
182.627
176.652
170.277
163.566
156.57
149.339
141.938
134.448
126.96
119.545
112.258
105.141
98.229
91.554
85.137
78.971
73.03
67.267
61.656
56.184
50.852
45.66
40.604
35.67
30.846
26.134
21.535
17.054
12.692
8.447
4.326
0.347
-3.463
-7.074
-10.466
-13.628
-16.556
-19.248
-21.702
-23.919
-25.904
-27.669
-29.223
-30.576
-31.733
-32.701
-33.489
-34.11
-34.578
-34.909
-35.114
-35.207
-35.197
-35.097
-34.915
-34.661
-34.341
-33.961
-33.527
-33.047
-32.528
-31.977
-31.402
-30.806
-30.198
-29.581
-28.961
-28.342
-27.726
-27.115
-26.511
-25.916
-25.329
-24.753
-24.186
-23.629
-23.081
-22.543
-22.013
-21.492
-20.978
-20.472
-19.973
-19.481
-18.996
-18.518
-18.048
-17.587
-17.134
-16.692
-16.261
-15.843
-15.439
-15.051
-14.681
-14.331
-14.003
-13.7
-13.424
-13.177
-12.964
-12.786
-12.647
-12.551
-12.5
-12.497
-12.545
-12.647
-12.806
-13.023
-13.299
-13.636
-14.034
-14.494
-15.013
-15.592
-16.229
-16.922
-17.669
-18.465
-19.309
-20.196
-21.121
-22.079
-23.066
-24.074
-25.099
-26.133
-27.17
-28.202
-29.224
-30.227
-31.204
-32.148
-33.052
-33.909
-34.712
-35.455
-36.13
-36.733
-37.259
-37.703
-38.062
-38.333
-38.514
-38.606
-38.609
-38.525
-38.354
-38.1
-37.767
-37.357
-36.875
-36.326
-35.712
-35.041
-34.317
-33.549
-32.742
-31.905
-31.045
-30.171
-29.291
-28.412
-27.539
-26.676
-25.825
-24.992
-24.18
-23.4
-22.657
-21.955
-21.297
-20.686
-20.119
-19.594
-19.096
-18.607
-18.109
-17.588
-17.034
-16.447
-15.82
-15.151
-14.431
-13.648
-12.797
-11.879
-10.891
-9.837
-8.733
-7.606
-6.515
-5.54
-4.751
-4.211
-3.962
-4.045
-4.514
-5.425
-6.837
-8.801
-11.345
-14.519
-18.409
-23.034
-28.299
-33.996
-39.758
-45.195
-50.01
-53.863
-56.326
-57.142
-56.353
-54.33
-51.824
-49.65
-48.337
-48.402
-50.576
-55.271
-62.244
-70.639
-78.826
-84.838
-87.164
-84.272
-74.123
-55.127
-26.672
10.942
55.988
105.709
157.394
207.667
251.872
285.272
303.702
303.674
282.966
240.757
177.016
92.838
-7.422
-118.147
-234.987
-352.21
-466.331
-574.632
-668.86
-742.827
-790.901
-808.033
-798.606
-767.59
-719.944
-662.879
-597.993
-527.317
-454.635
-381.83
-313.008
-251.914
-200.039
-158.621
-127.506
-105.215
-90.333
-81.438
-76.552
-73.782
-71.356
-67.479
-61.31
-52.92
-42.633
-30.974
-18.742
-6.68
4.337
13.274
19.709
23.724
25.56
25.698
24.635
22.766
20.605
18.736
17.492
17.038
17.445
18.622
20.499
23.035
26.122
29.638
33.485
37.566
41.805
46.151
50.532
54.873
59.117
63.195
67.056
70.656
73.948
76.918
79.572
81.931
84.03
85.909
87.608
89.177
90.673
92.145
93.641
95.198
96.846
98.621
100.553
102.671
105.002
107.561
110.35
113.371
116.614
120.067
123.717
127.543
131.517
135.615
139.816
144.095
148.433
152.806
157.187
161.55
165.869
170.117
174.27
178.303
182.189
185.906
189.43
192.742
195.82
198.646
201.202
203.468
205.428
207.067
208.372
209.331
209.934
210.174
210.044
209.543
208.669
207.423
205.809
203.831
201.497
198.816
195.797
192.452
188.796
184.842
180.608
176.11
171.367
166.398
161.224
155.865
150.344
144.681
138.9
133.022
127.07
121.065
115.03
108.986
102.953
96.953
91.004
85.126
79.336
73.652
68.09
62.665
57.389
52.277
47.338
42.583
38.021
33.659
29.504
25.562
21.835
18.328
15.042
11.977
9.133
6.509
4.103
1.91
-0.073
-1.851
-3.431
-4.818
-6.019
-7.042
-7.895
-8.586
-9.123
-9.517
-9.776
-9.909
-9.927
-9.839
-9.654
-9.383
-9.035
-8.618
-8.143
-7.617
-7.05
-6.449
-5.823
-5.178
-4.521
-3.858
-3.196
-2.54
-1.893
-1.262
-0.649
-0.058
0.509
1.049
1.559
2.039
2.486
2.899
3.278
3.622
3.931
4.204
4.442
4.645
4.814
4.95
5.054
5.128
5.172
5.188
5.179
5.145
5.088
5.009
4.911
4.794
4.66
4.51
4.345
4.165
3.971
3.764
3.543
3.31
3.064
2.805
2.534
2.251
1.957
1.652
1.337
1.013
0.681
0.344
0.002
-0.344
-0.69
-1.037
-1.382
-1.724
-2.061
-2.391
-2.713
-3.025
-3.324
-3.609
-3.878
-4.127
-4.356
-4.561
-4.739
-4.888
-5.004
-5.085
-5.128
-5.13
-5.087
-4.997
-4.858
-4.669
-4.427
-4.133
-3.786
-3.389
-2.943
-2.451
-1.916
-1.341
-0.729
-0.085
0.588
1.285
2.003
2.738
3.484
4.236
4.989
5.735
6.469
7.185
7.877
8.54
9.166
9.749
10.285
10.77
11.201
11.57
11.869
12.094
12.245
12.327
12.345
12.305
12.215
12.089
11.945
11.805
11.686
11.604
11.567
11.586
11.671
11.839
12.108
12.485
12.965
13.535
14.181
14.891
15.644
16.399
17.096
17.675
18.078
18.251
18.152
17.727
16.93
15.721
14.06
11.91
9.249
6.063
2.336
-1.912
-6.676
-11.961
-17.639
-23.51
-29.298
-34.593
-39.039
-42.403
-44.353
-44.51
-42.849
-39.525
-34.964
-30.113
-25.655
-21.975
-19.754
-19.545
-21.282
-24.669
-28.787
-31.794
-32.348
-29.31
-20.915
-5.924
16.168
45.512
81.039
120.567
162.11
202.941
238.962
266.401
281.731
281.38
262.93
224.871
165.876
87.426
-5.554
-109.61
-221.54
-338.847
-462.188
-585.02
-695.084
-781.42
-831.862
-844.43
-827.943
-790.358
-741.192
-685.699
-622.219
-551.898
-477.008
-400.583
-328.599
-265.136
-212.077
-170.491
-139.763
-118.38
-104.82
-97.443
-94.087
-92.648
-91.224
-88.023
-82.222
-73.92
-63.51
-51.604
-39.095
-26.821
-15.679
-6.668
-0.178
3.9
5.847
6.177
5.427
4.029
2.478
1.313
0.817
1.114
2.236
4.05
6.417
9.235
12.352
15.628
18.976
22.303
25.532
28.618
31.504
34.157
36.588
38.783
40.728
42.423
43.86
45.087
46.205
47.299
48.451
49.729
51.172
52.832
54.774
57.025
59.597
62.468
65.583
68.912
72.449
76.178
80.088
84.14
88.261
92.398
96.517
100.586
104.587
108.496
112.278
115.926
119.453
122.887
126.274
129.637
132.976
136.297
139.599
142.885
146.172
149.457
152.723
155.955
159.137
162.253
165.295
168.238
171.048
173.685
176.106
178.277
180.175
181.778
183.063
184.013
184.613
184.853
184.733
184.251
183.404
182.19
180.607
178.659
176.353
173.698
170.706
167.387
163.753
159.816
155.593
151.096
146.341
141.343
136.117
130.678
125.047
119.244
113.288
107.201
101.006
94.725
88.382
81.999
75.6
69.207
62.842
56.527
50.284
44.132
38.09
32.179
26.414
20.814
15.392
10.164
5.142
0.336
-4.243
-8.586
-12.688
-16.543
-20.148
-23.498
-26.594
-29.436
-32.023
-34.359
-36.447
-38.293
-39.901
-41.28
-42.437
-43.382
-44.124
-44.675
-45.046
-45.25
-45.299
-45.206
-44.984
-44.647
-44.209
-43.682
-43.08
-42.416
-41.703
-40.952
-40.174
-39.38
-38.579
-37.78
-36.991
-36.217
-35.465
-34.741
-34.047
-33.389
-32.767
-32.186
-31.646
-31.149
-30.695
-30.283
-29.914
-29.586
-29.297
-29.045
-28.829
-28.645
-28.49
-28.361
-28.253
-28.165
-28.092
-28.029
-27.975
-27.925
-27.877
-27.827
-27.774
-27.715
-27.651
-27.58
-27.501
-27.417
-27.328
-27.236
-27.141
-27.048
-26.957
-26.871
-26.793
-26.725
-26.669
-26.627
-26.601
-26.593
-26.604
-26.636
-26.691
-26.769
-26.871
-26.999
-27.152
-27.331
-27.535
-27.765
-28.019
-28.295
-28.593
-28.909
-29.242
-29.588
-29.944
-30.305
-30.666
-31.022
-31.368
-31.697
-32.004
-32.283
-32.527
-32.732
-32.892
-33.003
-33.06
-33.061
-33.004
-32.887
-32.709
-32.468
-32.164
-31.799
-31.373
-30.886
-30.34
-29.736
-29.076
-28.365
-27.606
-26.803
-25.962
-25.086
-24.183
-23.258
-22.32
-21.376
-20.43
-19.487
-18.554
-17.639
-16.753
-15.903
-15.091
-14.32
-13.589
-12.898
-12.244
-11.618
-11.002
-10.378
-9.726
-9.035
-8.299
-7.509
-6.656
-5.727
-4.706
-3.591
-2.387
-1.106
0.242
1.646
3.084
4.511
5.855
7.042
7.994
8.649
8.957
8.862
8.319
7.272
5.658
3.441
0.593
-2.911
-7.066
-11.9
-17.463
-23.648
-30.236
-36.93
-43.309
-49.04
-53.926
-57.623
-59.703
-60.031
-58.707
-56.148
-53.128
-50.155
-47.383
-45.193
-44.165
-44.463
-45.864
-47.533
-47.957
-46.01
-41.066
-32.129
-17.778
2.947
30.448
64.198
102.501
143.663
186.016
226.824
262.19
288.122
300.917
297.343
275.211
232.995
169.7
87.094
-9.854
-117.022
-230.515
-347.284
-466.848
-582.706
-683.999
-761.029
-803.443
-810.441
-790.216
-750.38
-700.185
-644.331
-581.575
-513.238
-441.19
-368.096
-299.269
-238.123
-186.168
-144.497
-112.686
-89.462
-73.722
-64.14
-58.787
-55.855
-53.618
-50.279
-44.996
-37.769
-28.757
-18.398
-7.433
3.481
13.502
21.639
27.536
31.271
33.085
33.475
32.924
31.811
30.649
29.983
30.096
31.119
33.029
35.64
38.814
42.433
46.34
50.384
54.421
58.33
62.034
65.474
68.595
71.368
73.761
75.764
77.407
78.717
79.758
80.641
81.455
82.295
83.256
84.407
85.824
87.584
89.732
92.298
95.306
98.741
102.586
106.812
111.348
116.135
121.107
126.17
131.258
136.312
141.27
146.093
150.746
155.192
159.414
163.407
167.161
170.688
174.002
177.126
180.104
182.972
185.754
188.479
191.16
193.801
196.406
198.966
201.463
203.88
206.195
208.382
210.421
212.286
213.947
215.372
216.523
217.366
217.877
218.035
217.825
217.236
216.261
214.896
213.148
211.023
208.525
205.663
202.442
198.87
194.96
190.726
186.182
181.347
176.235
170.864
165.252
159.419
153.383
147.166
140.785
134.262
127.619
120.879
114.067
107.206
100.321
93.436
86.575
79.763
73.021
66.371
59.834
53.429
47.174
41.087
35.185
29.481
23.989
18.721
13.689
8.901
4.366
0.09
-3.921
-7.664
-11.136
-14.337
-17.267
-19.927
-22.321
-24.453
-26.329
-27.955
-29.339
-30.491
-31.42
-32.138
-32.657
-32.99
-33.149
-33.148
-33.002
-32.723
-32.325
-31.823
-31.23
-30.559
-29.823
-29.035
-28.206
-27.348
-26.472
-25.588
-24.706
-23.834
-22.981
-22.154
-21.361
-20.606
-19.896
-19.235
-18.629
-18.079
-17.589
-17.161
-16.797
-16.497
-16.262
-16.091
-15.982
-15.935
-15.947
-16.016
-16.139
-16.314
-16.538
-16.807
-17.118
-17.469
-17.857
-18.277
-18.727
-19.205
-19.707
-20.231
-20.774
-21.335
-21.91
-22.498
-23.097
-23.703
-24.316
-24.933
-25.551
-26.168
-26.781
-27.388
-27.987
-28.574
-29.149
-29.708
-30.251
-30.774
-31.276
-31.755
-32.209
-32.635
-33.031
-33.396
-33.725
-34.019
-34.272
-34.485
-34.653
-34.776
-34.849
-34.871
-34.84
-34.754
-34.61
-34.407
-34.144
-33.821
-33.437
-32.993
-32.491
-31.932
-31.32
-30.658
-29.95
-29.199
-28.412
-27.592
-26.745
-25.876
-24.992
-24.096
-23.194
-22.292
-21.396
-20.512
-19.647
-18.807
-17.997
-17.226
-16.5
-15.824
-15.204
-14.639
-14.131
-13.682
-13.294
-12.973
-12.721
-12.535
-12.412
-12.353
-12.35
-12.399
-12.484
-12.578
-12.658
-12.708
-12.713
-12.67
-12.57
-12.399
-12.147
-11.801
-11.357
-10.818
-10.183
-9.447
-8.62
-7.722
-6.797
-5.933
-5.201
-4.661
-4.367
-4.343
-4.632
-5.302
-6.41
-8.011
-10.158
-12.854
-16.146
-20.146
-24.844
-30.121
-35.722
-41.171
-46.044
-50.074
-52.926
-54.207
-53.78
-51.735
-48.521
-45.14
-42.504
-41.164
-41.704
-44.609
-49.885
-57.107
-65.208
-72.158
-75.897
-74.794
-67.106
-51.322
-26.652
7.041
48.916
96.675
147.475
198.33
245.413
284.55
311.89
323.956
317.878
291.955
245.502
178.521
93.635
-3.997
-110.378
-221.882
-335.971
-452.78
-566.53
-666.904
-744.802
-789.959
-801.274
-786.968
-754.007
-710.83
-661.895
-605.417
-542.148
-473.871
-402.854
-334.037
-271.388
-217.035
-172.418
-137.581
-111.554
-93.241
-81.646
-75.22
-71.851
-69.459
-66.02
-60.339
-52.313
-42.199
-30.349
-17.416
-4.277
8.047
18.41
26.229
31.533
34.554
35.713
35.462
34.21
32.469
30.786
29.481
28.674
28.389
28.551
29.089
29.966
31.098
32.378
33.739
35.147
36.591
38.08
39.631
41.247
42.952
44.798
46.816
49.031
51.457
54.089
56.942
60.038
63.384
66.987
70.85
74.95
79.269
83.78
88.418
93.125
97.844
102.497
107.037
111.43
115.641
119.658
123.475
127.082
130.489
133.711
136.751
139.631
142.373
145.002
147.568
150.105
152.627
155.154
157.691
160.233
162.792
165.361
167.924
170.466
172.966
175.407
177.796
180.134
182.411
184.618
186.739
188.779
190.776
192.762
194.763
196.802
198.877
200.994
203.161
205.376
207.619
209.844
211.974
213.926
215.641
217.057
218.109
218.707
218.725
218.056
216.615
214.333
211.164
207.054
201.957
195.859
188.784
180.801
172.017
162.554
152.514
142.007
131.158
120.12
109.081
98.199
87.607
77.421
67.748
58.713
50.431
42.98
36.394
30.667
25.761
21.625
18.218
15.48
13.332
11.671
10.369
9.33
8.479
7.751
7.079
6.378
5.568
4.595
3.436
2.087
0.558
-1.141
-2.999
-4.986
-7.059
-9.163
-11.233
-13.226
-15.119
-16.889
-18.517
-19.976
-21.239
-22.297
-23.154
-23.818
-24.296
-24.594
-24.719
-24.691
-24.536
-24.283
-23.966
-23.604
-23.212
-22.805
-22.392
-21.985
-21.594
-21.222
-20.867
-20.53
-20.215
-19.925
-19.666
-19.437
-19.236
-19.061
-18.91
-18.781
-18.677
-18.595
-18.537
-18.504
-18.498
-18.521
-18.579
-18.673
-18.804
-18.973
-19.182
-19.429
-19.717
-20.045
-20.412
-20.818
-21.263
-21.746
-22.264
-22.815
-23.398
-24.011
-24.65
-25.313
-25.999
-26.705
-27.432
-28.177
-28.939
-29.715
-30.501
-31.291
-32.08
-32.862
-33.628
-34.372
-35.087
-35.768
-36.41
-37.013
-37.571
-38.08
-38.535
-38.927
-39.249
-39.501
-39.68
-39.788
-39.832
-39.821
-39.774
-39.713
-39.65
-39.594
-39.55
-39.51
-39.468
-39.419
-39.353
-39.27
-39.169
-39.042
-38.889
-38.706
-38.476
-38.184
-37.796
-37.266
-36.566
-35.682
-34.605
-33.355
-31.948
-30.404
-28.76
-27.038
-25.261
-23.459
-21.651
-19.853
-18.097
-16.415
-14.851
-13.48
-12.351
-11.496
-10.945
-10.701
-10.768
-11.157
-11.855
-12.851
-14.144
-15.723
-17.59
-19.759
-22.223
-24.984
-28.038
-31.353
-34.905
-38.673
-42.628
-46.766
-51.073
-55.515
-60.083
-64.74
-69.447
-74.22
-78.968
-83.513
-87.645
-91.005
-93.244
-94.167
-93.472
-90.813
-86.216
-79.85
-72.142
-64.041
-56.293
-49.414
-44.218
-41.353
-40.819
-42.361
-45.097
-47.249
-47.383
-44.139
-35.618
-20.35
2.314
32.522
69.364
110.647
153.981
196.269
233.255
260.833
275.219
272.81
250.884
207.932
144.424
63.427
-30.786
-134.279
-245.877
-365.612
-489.413
-608.352
-708.059
-773.987
-800.301
-790.592
-755.924
-708.528
-655.831
-599.872
-539.044
-473.189
-404.377
-336.037
-273.065
-218.444
-173.003
-137.099
-109.774
-89.461
-75.386
-66.541
-61.209
-58.016
-55.546
-52.268
-47.723
-42.095
-35.397
-27.943
-20.353
-13.07
-6.806
-2.401
-0.017
0.533
-0.478
-2.541
-5.171
-7.986
-10.454
-12.048
-12.517
-11.768
-9.847
-6.921
-3.105
1.496
6.732
12.442
18.473
24.693
30.996
37.284
43.445
49.361
54.916
60.033
64.672
68.82
72.498
75.737
78.576
81.067
83.272
85.246
87.05
88.738
90.356
91.957
93.593
95.318
97.187
99.246
101.521
104.025
106.756
109.705
112.85
116.172
119.638
123.219
126.889
130.631
134.436
138.305
142.238
146.224
150.246
154.277
158.29
162.274
166.22
170.121
173.982
177.806
181.601
185.391
189.182
192.958
196.689
200.314
203.762
206.982
209.934
212.587
214.92
216.899
218.487
219.661
220.38
220.608
220.301
219.39
217.829
215.607
212.733
209.256
205.249
200.763
195.841
190.528
184.856
178.867
172.602
166.089
159.364
152.472
145.468
138.429
131.425
124.492
117.655
110.911
104.238
97.63
91.087
84.601
78.18
71.83
65.558
59.387
53.339
47.427
41.654
36.014
30.496
25.106
19.857
14.766
9.862
5.162
0.684
-3.553
-7.536
-11.258
-14.715
-17.913
-20.862
-23.567
-26.032
-28.261
-30.254
-32.017
-33.557
-34.885
-36.009
-36.942
-37.695
-38.281
-38.714
-39.006
-39.167
-39.208
-39.137
-38.962
-38.694
-38.341
-37.913
-37.42
-36.872
-36.277
-35.647
-34.99
-34.313
-33.626
-32.934
-32.244
-31.562
-30.892
-30.24
-29.61
-29.005
-28.43
-27.887
-27.379
-26.91
-26.48
-26.093
-25.749
-25.45
-25.194
-24.983
-24.815
-24.69
-24.605
-24.559
-24.55
-24.576
-24.635
-24.724
-24.84
-24.979
-25.139
-25.316
-25.505
-25.703
-25.905
-26.108
-26.308
-26.501
-26.682
-26.849
-26.997
-27.122
-27.219
-27.284
-27.312
-27.298
-27.238
-27.127
-26.963
-26.74
-26.458
-26.113
-25.704
-25.232
-24.697
-24.099
-23.439
-22.719
-21.94
-21.105
-20.216
-19.273
-18.282
-17.246
-16.171
-15.063
-13.928
-12.774
-11.606
-10.433
-9.26
-8.097
-6.948
-5.819
-4.719
-3.656
-2.639
-1.683
-0.796
0.019
0.76
1.426
2.025
2.563
3.052
3.51
3.951
4.384
4.819
5.257
5.705
6.177
6.681
7.232
7.839
8.498
9.203
9.946
10.7
11.434
12.113
12.677
13.081
13.289
13.265
12.979
12.397
11.48
10.188
8.495
6.385
3.854
0.896
-2.499
-6.311
-10.512
-15.044
-19.844
-24.899
-30.12
-35.338
-40.315
-44.684
-48.104
-50.358
-51.155
-50.145
-47.308
-42.816
-37.1
-31.109
-25.588
-20.988
-18.016
-17.26
-18.682
-21.981
-26.23
-29.566
-30.545
-27.979
-20.14
-5.745
15.778
44.613
79.714
118.847
159.917
200.269
236.136
263.88
279.896
280.867
264.901
230.885
178.138
107.505
21.463
-76.42
-181.281
-287.985
-391.873
-487.776
-570.725
-636.862
-683.319
-709.025
-714.649
-701.235
-670.386
-625.074
-568.696
-505.054
-438.349
-371.551
-306.828
-246.7
-193.166
-147.475
-110.576
-82.212
-61.148
-46.623
-37.777
-33.074
-31.101
-30.297
-28.975
-26.476
-22.837
-17.997
-12.178
-5.893
0.43
6.069
10.177
12.532
13.285
12.692
11.221
9.328
7.382
5.857
5.229
5.718
7.37
10.121
13.789
18.228
23.315
28.887
34.768
40.808
46.879
52.87
58.69
64.239
69.409
74.128
78.356
82.079
85.313
88.091
90.451
92.449
94.147
95.607
96.891
98.056
99.155
100.245
101.382
102.622
104.016
105.604
107.411
109.454
111.739
114.265
117.028
120.015
123.21
126.596
130.16
133.887
137.761
141.765
145.878
150.078
154.341
158.645
162.966
167.281
171.566
175.798
179.953
184.007
187.939
191.725
195.338
198.755
201.95
204.9
207.583
209.977
212.061
213.818
215.23
216.285
216.968
217.271
217.185
216.704
215.823
214.542
212.861
210.783
208.313
205.458
202.227
198.633
194.688
190.406
185.806
180.904
175.721
170.276
164.592
158.692
152.599
146.338
139.934
133.411
126.795
120.112
113.386
106.643
99.906
93.2
86.548
79.97
73.489
67.124
60.894
54.816
48.906
43.178
37.646
32.32
27.211
22.328
17.676
13.262
9.09
5.162
1.48
-1.955
-5.146
-8.095
-10.804
-13.278
-15.524
-17.547
-19.356
-20.958
-22.363
-23.579
-24.618
-25.49
-26.206
-26.777
-27.215
-27.532
-27.739
-27.848
-27.871
-27.818
-27.701
-27.53
-27.314
-27.064
-26.788
-26.494
-26.191
-25.885
-25.583
-25.291
-25.016
-24.76
-24.531
-24.33
-24.162
-24.029
-23.934
-23.878
-23.863
-23.889
-23.956
-24.064
-24.213
-24.402
-24.628
-24.89
-25.186
-25.514
-25.868
-26.248
-26.648
-27.066
-27.498
-27.938
-28.384
-28.832
-29.277
-29.717
-30.147
-30.563
-30.963
-31.343
-31.699
-32.029
-32.328
-32.594
-32.823
-33.013
-33.16
-33.263
-33.317
-33.322
-33.275
-33.173
-33.014
-32.797
-32.52
-32.182
-31.782
-31.319
-30.796
-30.211
-29.567
-28.867
-28.113
-27.308
-26.458
-25.566
-24.636
-23.672
-22.679
-21.662
-20.625
-19.573
-18.511
-17.444
-16.38
-15.326
-14.287
-13.272
-12.285
-11.333
-10.423
-9.561
-8.755
-8.006
-7.321
-6.704
-6.161
-5.701
-5.327
-5.038
-4.829
-4.696
-4.629
-4.622
-4.661
-4.727
-4.802
-4.871
-4.92
-4.944
-4.933
-4.877
-4.763
-4.577
-4.311
-3.969
-3.559
-3.089
-2.573
-2.03
-1.49
-1.006
-0.626
-0.395
-0.367
-0.575
-1.061
-1.86
-2.994
-4.493
-6.392
-8.712
-11.476
-14.708
-18.396
-22.552
-27.22
-32.303
-37.626
-42.932
-47.806
-51.9
-55.004
-56.799
-56.901
-55.28
-52.113
-47.871
-43.556
-39.888
-37.23
-36.217
-37.397
-40.706
-45.792
-51.594
-56.067
-57.685
-55.293
-47.178
-31.984
-9.043
21.956
59.948
102.497
147.432
192.166
232.908
265.877
287.207
293.103
281.329
250.76
200.501
131.058
44.709
-55.256
-164.062
-276.177
-386.645
-490.336
-581.976
-657.337
-713.311
-748.024
-761.431
-754.485
-728.509
-686.043
-630.629
-566.11
-496.63
-425.994
-357.25
-293.261
-236.688
-189.321
-151.816
-123.837
-104.204
-91.457
-84.038
-80.033
-77.313
-73.883
-68.541
-60.964
-51.357
-40.229
-28.22
-16.133
-4.99
4.098
10.554
14.363
15.767
15.245
13.291
10.344
6.973
3.81
1.253
-0.512
-1.425
-1.565
-0.991
0.296
2.239
4.74
7.71
11.046
14.661
18.499
22.492
26.561
30.634
34.641
38.528
42.276
45.884
49.351
52.678
55.846
58.824
61.606
64.213
66.674
69.036
71.332
73.589
75.839
78.121
80.463
82.884
85.384
87.939
90.545
93.214
95.971
98.852
101.875
105.033
108.319
111.725
115.236
118.834
122.498
126.198
129.92
133.673
137.463
141.3
145.174
149.051
152.902
156.701
160.427
164.072
167.625
171.066
174.397
177.636
180.783
183.833
186.748
189.458
191.909
194.066
195.902
197.407
198.566
199.348
199.729
199.695
199.224
198.302
196.891
194.931
192.394
189.284
185.633
181.518
176.995
172.1
166.87
161.336
155.536
149.516
143.311
136.942
130.443
123.852
117.227
110.65
104.172
97.82
91.6
85.488
79.476
73.569
67.768
62.074
56.488
51.012
45.659
40.454
35.413
30.54
25.832
21.27
16.847
12.571
8.452
4.511
0.765
-2.779
-6.111
-9.218
-12.093
-14.735
-17.147
-19.344
-21.335
-23.128
-24.725
-26.13
-27.347
-28.386
-29.255
-29.965
-30.526
-30.949
-31.244
-31.426
-31.506
-31.494
-31.398
-31.225
-30.981
-30.674
-30.311
-29.899
-29.445
-28.954
-28.434
-27.891
-27.333
-26.765
-26.191
-25.617
-25.046
-24.482
-23.929
-23.39
-22.868
-22.364
-21.882
-21.422
-20.988
-20.581
-20.201
-19.85
-19.529
-19.239
-18.979
-18.75
-18.553
-18.386
-18.249
-18.143
-18.066
-18.019
-18
-18.008
-18.044
-18.104
-18.189
-18.297
-18.425
-18.573
-18.737
-18.917
-19.108
-19.311
-19.52
-19.735
-19.951
-20.167
-20.378
-20.583
-20.777
-20.956
-21.118
-21.259
-21.375
-21.463
-21.519
-21.541
-21.526
-21.471
-21.375
-21.236
-21.053
-20.826
-20.556
-20.242
-19.886
-19.489
-19.053
-18.579
-18.071
-17.529
-16.955
-16.354
-15.728
-15.081
-14.419
-13.745
-13.064
-12.384
-11.709
-11.047
-10.403
-9.779
-9.179
-8.606
-8.065
-7.564
-7.107
-6.694
-6.327
-6.003
-5.721
-5.478
-5.262
-5.052
-4.826
-4.565
-4.257
-3.898
-3.48
-2.996
-2.434
-1.781
-1.037
-0.206
0.703
1.685
2.733
3.831
4.933
5.966
6.85
7.514
7.904
7.984
7.717
7.056
5.936
4.301
2.114
-0.66
-4.028
-8.036
-12.777
-18.22
-24.19
-30.389
-36.387
-41.828
-46.541
-50.256
-52.578
-53.413
-52.876
-51.417
-49.912
-48.905
-48.484
-48.864
-50.35
-52.834
-55.946
-58.708
-59.423
-56.958
-50.8
-40.286
-24.642
-3.361
23.733
55.956
91.651
129.395
168.005
205.739
240.108
268.035
286.348
292.446
284.211
259.533
216.737
154.941
75.737
-16.511
-118.327
-226.603
-339.082
-455.59
-569.811
-671.115
-749.813
-795.263
-806.19
-790.318
-754.702
-708.114
-655.029
-593.984
-526.207
-453.86
-379.818
-309.313
-245.883
-191.122
-146.148
-111.062
-85.017
-66.886
-55.45
-49.063
-46.008
-44.841
-44.022
-42.194
-38.893
-34.172
-28.227
-21.614
-14.945
-8.731
-3.681
-0.458
0.785
0.228
-1.793
-4.751
-8.159
-11.606
-14.589
-16.654
-17.58
-17.314
-15.927
-13.582
-10.417
-6.549
-2.134
2.661
7.698
12.854
18.033
23.149
28.105
32.794
37.115
41.004
44.43
47.395
49.926
52.056
53.831
55.306
56.547
57.616
58.575
59.477
60.368
61.299
62.321
63.486
64.849
66.452
68.317
70.457
72.87
75.548
78.472
81.613
84.936
88.405
91.992
95.675
99.441
103.285
107.195
111.165
115.179
119.212
123.243
127.254
131.23
135.161
139.046
142.894
146.721
150.548
154.382
158.214
162.016
165.742
169.336
172.732
175.873
178.721
181.239
183.397
185.165
186.512
187.401
187.786
187.616
186.827
185.374
183.233
180.406
176.926
172.845
168.233
163.156
157.669
151.821
145.655
139.21
132.526
125.647
118.622
111.511
104.39
97.322
90.362
83.544
76.881
70.369
63.988
57.724
51.566
45.51
39.561
33.727
28.02
22.452
17.037
11.779
6.671
1.708
-3.114
-7.793
-12.316
-16.668
-20.824
-24.763
-28.467
-31.922
-35.121
-38.062
-40.746
-43.179
-45.371
-47.329
-49.059
-50.565
-51.853
-52.929
-53.802
-54.485
-54.99
-55.33
-55.52
-55.573
-55.504
-55.323
-55.041
-54.669
-54.213
-53.684
-53.088
-52.436
-51.735
-50.995
-50.224
-49.43
-48.621
-47.805
-46.987
-46.173
-45.368
-44.578
-43.805
-43.053
-42.327
-41.629
-40.961
-40.325
-39.723
-39.156
-38.624
-38.127
-37.665
-37.236
-36.841
-36.477
-36.143
-35.838
-35.559
-35.305
-35.073
-34.862
-34.669
-34.491
-34.326
-34.171
-34.024
-33.883
-33.746
-33.611
-33.476
-33.339
-33.2
-33.055
-32.904
-32.744
-32.573
-32.39
-32.191
-31.974
-31.738
-31.481
-31.202
-30.9
-30.577
-30.23
-29.859
-29.466
-29.05
-28.608
-28.14
-27.642
-27.111
-26.548
-25.951
-25.321
-24.66
-23.967
-23.247
-22.502
-21.735
-20.947
-20.135
-19.291
-18.413
-17.505
-16.575
-15.635
-14.698
-13.772
-12.873
-12.017
-11.216
-10.476
-9.791
-9.141
-8.517
-7.914
-7.339
-6.811
-6.336
-5.912
-5.53
-5.172
-4.818
-4.452
-4.034
-3.511
-2.846
-2.017
-1.029
0.075
1.273
2.552
3.91
5.364
6.914
8.548
10.257
12.023
13.816
15.609
17.328
18.871
20.16
21.129
21.747
22.033
21.981
21.567
20.763
19.531
17.839
15.68
13.045
9.916
6.286
2.15
-2.446
-7.417
-12.673
-18.147
-23.843
-29.699
-35.546
-41.11
-45.984
-49.81
-52.371
-53.374
-52.451
-49.569
-44.907
-38.933
-32.674
-26.916
-22.076
-18.822
-17.696
-18.584
-21.14
-24.384
-26.361
-25.624
-21.085
-11.092
5.568
29.388
60.565
98.029
139.441
182.73
225.358
263.557
293.645
311.877
314.552
299.465
265.374
211.262
137.621
46.761
-57.997
-171.792
-288.986
-404.463
-512.765
-608.291
-686.597
-744.323
-779.438
-791.939
-782.796
-753.493
-706.918
-646.779
-577.07
-502.297
-426.473
-352.633
-283.767
-222.432
-170.204
-128.094
-96.045
-72.841
-57.159
-47.659
-42.449
-39.705
-37.695
-34.67
-29.848
-23.264
-15.109
-5.829
3.858
13.297
21.655
27.992
31.977
33.712
33.48
31.787
29.126
25.915
22.658
19.882
17.881
16.77
16.54
17.063
18.229
19.962
22.158
24.706
27.528
30.563
33.749
37.038
40.379
43.714
47.015
50.272
53.47
56.602
59.679
62.713
65.735
68.772
71.832
74.908
77.981
81.04
84.094
87.162
90.257
93.384
96.528
99.668
102.798
105.915
109.019
112.104
115.154
118.161
121.134
124.098
127.089
130.123
133.195
136.288
139.389
142.488
145.593
148.71
151.83
154.938
158.023
161.077
164.113
167.145
170.163
173.156
176.104
179
181.871
184.746
187.642
190.571
193.524
196.485
199.457
202.436
205.405
208.327
211.137
213.753
216.113
218.157
219.828
221.064
221.76
221.815
221.15
219.691
217.392
214.22
210.132
205.087
199.082
192.144
184.339
175.771
166.524
156.688
146.365
135.658
124.717
113.7
102.749
92.005
81.594
71.622
62.213
53.491
45.538
38.408
32.12
26.654
21.997
18.132
15.023
12.626
10.865
9.645
8.873
8.451
8.287
8.303
8.41
8.514
8.547
8.46
8.222
7.831
7.281
6.566
5.695
4.68
3.552
2.351
1.122
-0.083
-1.224
-2.266
-3.176
-3.918
-4.472
-4.821
-4.963
-4.907
-4.661
-4.233
-3.634
-2.878
-1.986
-0.983
0.104
1.245
2.415
3.596
4.768
5.917
7.029
8.095
9.11
10.074
10.986
11.842
12.64
13.378
14.055
14.672
15.231
15.732
16.176
16.564
16.896
17.17
17.387
17.546
17.645
17.682
17.657
17.57
17.422
17.214
16.948
16.625
16.249
15.822
15.349
14.832
14.277
13.688
13.071
12.431
11.772
11.1
10.419
9.734
9.048
8.365
7.689
7.024
6.375
5.749
5.151
4.59
4.072
3.604
3.191
2.837
2.545
2.316
2.15
2.048
2.01
2.042
2.151
2.339
2.609
2.958
3.381
3.864
4.391
4.942
5.495
6.034
6.549
7.037
7.506
7.962
8.42
8.883
9.346
9.801
10.245
10.674
11.094
11.525
11.999
12.555
13.245
14.111
15.181
16.472
17.974
19.66
21.489
23.426
25.453
27.56
29.74
31.983
34.277
36.583
38.849
41.012
42.972
44.641
45.94
46.795
47.166
47.046
46.449
45.381
43.837
41.795
39.22
36.093
32.402
28.157
23.369
18.062
12.305
6.165
-0.26
-6.881
-13.678
-20.565
-27.389
-33.917
-39.753
-44.495
-47.848
-49.434
-48.839
-46.035
-41.211
-34.852
-28.049
-21.735
-16.58
-13.554
-13.416
-16.098
-21.153
-27.432
-32.707
-35.146
-33.131
-24.403
-7.277
18.843
53.926
96.583
143.934
193.153
240.837
282.18
312.63
328.294
325.583
302.176
257.139
190.02
103.011
1.602
-108.918
-224.041
-342.109
-463.772
-585.368
-697.894
-787.397
-840.059
-851.117
-825.596
-776.304
-717.086
-655.776
-594.246
-530.648
-463.916
-395.981
-330.889
-273.008
-224.607
-186.019
-156.421
-134.113
-117.632
-105.769
-96.81
-89.206
-81.72
-73.177
-63.247
-52.273
-40.633
-28.857
-17.679
-7.684
0.505
6.204
9.288
10.022
8.765
6.067
2.46
-1.631
-5.694
-9.188
-11.793
-13.333
-13.749
-13.13
-11.545
-9.055
-5.776
-1.837
2.629
7.488
12.623
17.936
23.323
28.681
33.906
38.899
43.575
47.867
51.74
55.19
58.231
60.894
63.219
65.254
67.056
68.693
70.225
71.709
73.196
74.731
76.358
78.125
80.072
82.235
84.634
87.279
90.172
93.309
96.681
100.278
104.079
108.061
112.204
116.488
120.893
125.4
129.987
134.628
139.3
143.976
148.631
153.241
157.781
162.225
166.549
170.729
174.741
178.564
182.174
185.548
188.663
191.499
194.033
196.249
198.128
199.655
200.815
201.597
201.992
201.992
201.592
200.787
199.577
197.961
195.942
193.526
190.718
187.527
183.964
180.042
175.775
171.179
166.272
161.073
155.603
149.882
143.934
137.783
131.453
124.968
118.353
111.634
104.837
97.984
91.102
84.215
77.344
70.515
63.748
57.064
50.484
44.027
37.71
31.552
25.567
19.77
14.175
8.793
3.634
-1.293
-5.98
-10.421
-14.611
-18.547
-22.228
-25.653
-28.822
-31.739
-34.406
-36.828
-39.011
-40.961
-42.686
-44.192
-45.489
-46.585
-47.49
-48.213
-48.764
-49.152
-49.388
-49.484
-49.448
-49.293
-49.028
-48.665
-48.215
-47.687
-47.094
-46.444
-45.747
-45.015
-44.255
-43.477
-42.689
-41.899
-41.115
-40.343
-39.589
-38.859
-38.158
-37.49
-36.859
-36.267
-35.717
-35.213
-34.754
-34.345
-33.984
-33.674
-33.414
-33.204
-33.044
-32.932
-32.868
-32.848
-32.871
-32.933
-33.031
-33.162
-33.32
-33.503
-33.703
-33.917
-34.139
-34.363
-34.583
-34.793
-34.989
-35.164
-35.314
-35.433
-35.517
-35.563
-35.566
-35.524
-35.433
-35.292
-35.097
-34.85
-34.547
-34.19
-33.779
-33.315
-32.8
-32.239
-31.635
-30.992
-30.314
-29.608
-28.879
-28.134
-27.378
-26.616
-25.856
-25.104
-24.37
-23.66
-22.984
-22.348
-21.761
-21.23
-20.761
-20.357
-20.019
-19.748
-19.544
-19.41
-19.35
-19.366
-19.458
-19.624
-19.859
-20.158
-20.512
-20.901
-21.303
-21.698
-22.069
-22.406
-22.702
-22.951
-23.142
-23.264
-23.305
-23.254
-23.106
-22.857
-22.507
-22.071
-21.575
-21.076
-20.64
-20.332
-20.2
-20.274
-20.591
-21.195
-22.135
-23.463
-25.22
-27.43
-30.138
-33.418
-37.266
-41.576
-46.128
-50.567
-54.557
-57.857
-60.192
-61.204
-60.707
-58.79
-55.814
-52.482
-49.464
-47.114
-45.817
-46.162
-48.469
-52.556
-57.731
-62.629
-65.732
-65.972
-62.172
-52.698
-36.237
-12.139
19.446
57.174
98.914
142.443
184.836
222.027
249.745
263.936
261.06
238.782
195.953
132.339
49.204
-50.219
-161.381
-278.848
-396.526
-508.3
-608.37
-691.532
-753.75
-792.709
-807.681
-799.18
-769.076
-720.484
-657.517
-584.904
-507.487
-429.587
-354.915
-286.836
-227.974
-179.918
-142.976
-116.276
-98.257
-87.185
-81.185
-78.093
-75.73
-72.158
-66.333
-58.174
-48.043
-36.52
-24.312
-12.241
-1.306
7.428
13.45
16.829
17.867
17.092
15.029
12.139
9.01
6.286
4.379
3.494
3.694
4.875
6.953
9.87
13.508
17.729
22.41
27.423
32.675
38.09
43.574
49.033
54.37
59.487
64.302
68.749
72.785
76.405
79.624
82.468
84.979
87.198
89.178
90.983
92.669
94.291
95.898
97.53
99.232
101.051
103.028
105.199
107.591
110.212
113.065
116.149
119.456
122.975
126.689
130.575
134.611
138.778
143.058
147.434
151.884
156.383
160.908
165.433
169.933
174.386
178.765
183.046
187.205
191.22
195.066
198.724
202.173
205.389
208.352
211.041
213.437
215.521
217.279
218.693
219.75
220.44
220.754
220.683
220.224
219.371
218.125
216.486
214.456
212.039
209.242
206.073
202.543
198.661
194.444
189.905
185.061
179.932
174.536
168.895
163.03
156.964
150.72
144.322
137.794
131.159
124.443
117.669
110.861
104.043
97.237
90.467
83.754
77.119
70.583
64.164
57.88
51.748
45.784
40.002
34.414
29.034
23.871
18.935
14.233
9.772
5.556
1.59
-2.126
-5.591
-8.806
-11.772
-14.494
-16.975
-19.222
-21.241
-23.039
-24.624
-26.004
-27.19
-28.191
-29.017
-29.68
-30.19
-30.56
-30.8
-30.924
-30.942
-30.866
-30.707
-30.476
-30.184
-29.841
-29.457
-29.042
-28.605
-28.155
-27.7
-27.249
-26.809
-26.388
-25.991
-25.623
-25.289
-24.995
-24.742
-24.535
-24.375
-24.264
-24.205
-24.199
-24.246
-24.346
-24.499
-24.704
-24.959
-25.261
-25.607
-25.991
-26.412
-26.866
-27.348
-27.857
-28.389
-28.941
-29.512
-30.1
-30.701
-31.31
-31.921
-32.528
-33.123
-33.699
-34.249
-34.763
-35.234
-35.656
-36.028
-36.345
-36.603
-36.796
-36.912
-36.946
-36.896
-36.763
-36.547
-36.251
-35.879
-35.447
-34.978
-34.496
-34.014
-33.538
-33.063
-32.587
-32.109
-31.629
-31.147
-30.648
-30.111
-29.525
-28.882
-28.177
-27.398
-26.511
-25.46
-24.197
-22.694
-20.942
-18.948
-16.711
-14.231
-11.521
-8.614
-5.571
-2.461
0.671
3.79
6.868
9.866
12.715
15.316
17.591
19.483
20.955
21.979
22.511
22.507
21.947
20.858
19.309
17.37
15.089
12.492
9.605
6.455
3.095
-0.401
-3.987
-7.623
-11.266
-14.878
-18.406
-21.789
-25
-28.057
-30.993
-33.877
-36.799
-39.738
-42.588
-45.17
-47.182
-48.387
-48.656
-47.754
-45.384
-41.571
-36.548
-30.826
-25.371
-20.84
-17.506
-15.876
-16.408
-19.006
-23.341
-28.459
-32.495
-34.116
-32.399
-25.894
-13.435
5.58
31.513
63.506
99.43
137.462
175.458
210.126
238.133
255.966
260.036
248.205
219.387
172.566
107.922
27.26
-66.692
-169.657
-276.432
-382.43
-482.924
-572.85
-647.986
-704.94
-741.281
-756.583
-751.646
-727.567
-686.634
-632.083
-567.348
-496.587
-424.018
-352.74
-285.448
-224.618
-171.638
-127.377
-92.431
-66.132
-47.233
-34.869
-27.785
-24.643
-24.741
-27.066
-30.226
-33.589
-36.713
-38.796
-39.625
-39.039
-36.351
-31.488
-24.982
-17.097
-8.376
0.25
8.432
15.854
21.822
26.162
29.054
30.601
31.33
32.006
32.956
34.445
36.831
40.151
44.356
49.394
54.919
60.482
65.825
70.732
75.039
78.714
81.723
84.056
85.806
87.1
88.032
88.674
89.074
89.263
89.297
89.249
89.201
89.244
89.475
89.998
90.904
92.263
94.11
96.443
99.23
102.414
105.944
109.778
113.878
118.21
122.738
127.43
132.244
137.137
142.051
146.915
151.666
156.251
160.64
164.824
168.808
172.615
176.263
179.762
183.118
186.324
189.369
192.24
194.918
197.385
199.63
201.653
203.453
205.025
206.36
207.437
208.232
208.717
208.864
208.649
208.054
207.07
205.692
203.921
201.763
199.228
196.326
193.066
189.455
185.504
181.224
176.63
171.741
166.576
161.159
155.511
149.656
143.618
137.42
131.083
124.631
118.085
111.465
104.795
98.098
91.398
84.718
78.082
71.511
65.03
58.657
52.414
46.318
40.385
34.63
29.067
23.708
18.564
13.644
8.955
4.505
0.298
-3.66
-7.368
-10.823
-14.025
-16.975
-19.675
-22.128
-24.338
-26.309
-28.048
-29.561
-30.857
-31.943
-32.828
-33.523
-34.039
-34.385
-34.575
-34.621
-34.534
-34.327
-34.013
-33.603
-33.108
-32.54
-31.908
-31.222
-30.491
-29.724
-28.927
-28.11
-27.28
-26.443
-25.607
-24.778
-23.961
-23.162
-22.386
-21.637
-20.92
-20.239
-19.596
-18.995
-18.439
-17.929
-17.468
-17.057
-16.697
-16.386
-16.126
-15.914
-15.749
-15.628
-15.546
-15.504
-15.497
-15.525
-15.586
-15.678
-15.801
-15.957
-16.145
-16.363
-16.61
-16.882
-17.174
-17.481
-17.799
-18.121
-18.44
-18.75
-19.045
-19.324
-19.585
-19.822
-20.029
-20.196
-20.315
-20.385
-20.408
-20.383
-20.313
-20.205
-20.072
-19.939
-19.827
-19.752
-19.716
-19.714
-19.743
-19.798
-19.878
-19.98
-20.088
-20.184
-20.251
-20.279
-20.255
-20.163
-19.968
-19.614
-19.05
-18.247
-17.196
-15.903
-14.376
-12.623
-10.655
-8.504
-6.228
-3.886
-1.531
0.803
3.082
5.267
7.295
9.077
10.531
11.606
12.27
12.506
12.295
11.612
10.444
8.813
6.777
4.405
1.753
-1.146
-4.268
-7.585
-11.063
-14.636
-18.251
-21.879
-25.488
-29.064
-32.591
-36.043
-39.398
-42.671
-45.885
-49.112
-52.455
-55.917
-59.414
-62.767
-65.68
-67.925
-69.367
-69.799
-68.936
-66.64
-63.029
-58.546
-53.972
-50.013
-47.013
-45.249
-45.161
-47.002
-50.563
-55.129
-59.321
-61.591
-60.967
-56.6
-47.194
-31.695
-9.582
19.068
52.972
90.182
129.053
167.445
202.059
229.327
245.645
247.795
233.718
201.89
151.152
81.44
-4.636
-102.043
-206.53
-314.384
-423.526
-533.973
-639.704
-730.777
-798.225
-832.155
-832.073
-806.091
-761.259
-706.577
-646.756
-580.462
-509.056
-434.433
-359.202
-288.814
-226.945
-175.163
-134.525
-104.541
-83.803
-71.127
-65.05
-63.418
-64.241
-65.694
-65.974
-64.254
-60.522
-54.922
-47.905
-40.256
-32.672
-25.955
-20.981
-18
-16.832
-17.158
-18.444
-20.15
-21.829
-22.98
-23.114
-22.017
-19.664
-16.13
-11.607
-6.257
-0.211
6.356
13.259
20.341
27.467
34.518
41.396
47.988
54.173
59.874
65.041
69.659
73.743
77.32
80.427
83.115
85.447
87.482
89.281
90.9
92.393
93.815
95.225
96.679
98.234
99.928
101.79
103.836
106.073
108.501
111.115
113.905
116.855
119.952
123.183
126.537
130.004
133.57
137.219
140.932
144.693
148.483
152.283
156.077
159.846
163.572
167.237
170.823
174.314
177.691
180.934
184.022
186.935
189.652
192.156
194.427
196.449
198.204
199.679
200.861
201.739
202.302
202.541
202.45
202.023
201.256
200.147
198.693
196.898
194.761
192.288
189.484
186.356
182.913
179.165
175.123
170.799
166.208
161.366
156.287
150.99
145.493
139.814
133.972
127.987
121.88
115.671
109.379
103.025
96.628
90.209
83.785
77.376
71
64.675
58.417
52.243
46.168
40.208
34.376
28.687
23.152
17.784
12.592
7.586
2.776
-1.832
-6.23
-10.414
-14.378
-18.119
-21.636
-24.927
-27.991
-30.83
-33.446
-35.841
-38.018
-39.982
-41.737
-43.289
-44.644
-45.808
-46.788
-47.592
-48.227
-48.702
-49.025
-49.204
-49.25
-49.17
-48.974
-48.673
-48.274
-47.788
-47.223
-46.59
-45.897
-45.154
-44.368
-43.549
-42.705
-41.844
-40.972
-40.097
-39.225
-38.363
-37.516
-36.689
-35.888
-35.116
-34.378
-33.678
-33.018
-32.402
-31.833
-31.312
-30.841
-30.423
-30.057
-29.745
-29.486
-29.281
-29.129
-29.029
-28.98
-28.98
-29.027
-29.12
-29.256
-29.432
-29.646
-29.896
-30.177
-30.486
-30.821
-31.177
-31.551
-31.938
-32.336
-32.741
-33.147
-33.552
-33.951
-34.339
-34.713
-35.069
-35.402
-35.708
-35.983
-36.224
-36.428
-36.591
-36.712
-36.787
-36.816
-36.798
-36.733
-36.62
-36.462
-36.258
-36.01
-35.719
-35.387
-35.015
-34.604
-34.156
-33.673
-33.156
-32.611
-32.04
-31.448
-30.84
-30.219
-29.589
-28.953
-28.311
-27.663
-27.012
-26.358
-25.709
-25.069
-24.441
-23.829
-23.235
-22.655
-22.085
-21.512
-20.914
-20.275
-19.579
-18.815
-17.98
-17.067
-16.07
-14.982
-13.791
-12.489
-11.072
-9.537
-7.884
-6.125
-4.288
-2.437
-0.651
0.993
2.429
3.609
4.483
4.977
5.016
4.515
3.398
1.628
-0.873
-4.222
-8.455
-13.52
-19.218
-25.156
-30.976
-36.44
-41.251
-45.091
-47.77
-49.202
-49.7
-49.999
-50.653
-51.999
-54.266
-57.527
-61.829
-67.096
-72.508
-76.635
-78.179
-75.923
-69.013
-56.901
-38.689
-13.589
18.201
55.814
97.949
142.709
188.466
233.405
274.44
308.059
331.068
340.289
333.271
308.509
264.269
199.742
116.16
16.02
-96.896
-217.501
-340.651
-461.12
-572.622
-669.338
-746.634
-800.893
-830.512
-835.503
-816.609
-775.79
-716.747
-643.994
-562.708
-478.241
-394.799
-316.126
-245.636
-185.786
-137.959
-102.242
-77.264
-60.998
-51.591
-46.836
-44.437
-42.293
-38.425
-31.879
-22.791
-11.684
0.764
13.647
26.081
37.084
45.556
51.042
53.654
53.721
51.795
48.431
44.096
39.367
34.875
31.003
27.957
25.799
24.429
23.788
23.855
24.569
25.871
27.709
30.026
32.799
36.039
39.733
43.849
48.339
53.128
58.143
63.308
68.569
73.891
79.231
84.547
89.789
94.901
99.849
104.618
109.184
113.512
117.578
121.359
124.856
128.087
131.079
133.861
136.465
138.921
141.268
143.549
145.809
148.102
150.463
152.908
155.449
158.091
160.834
163.682
166.635
169.685
172.819
176.026
179.288
182.584
185.899
189.218
192.517
195.766
198.943
202.046
205.088
208.106
211.12
214.132
217.128
220.084
222.982
225.796
228.495
231.04
233.372
235.442
237.213
238.657
239.734
240.387
240.529
240.055
238.888
236.989
234.34
230.942
226.791
221.899
216.293
210.02
203.147
195.723
187.785
179.372
170.541
161.384
152.021
142.596
133.218
123.966
114.905
106.09
97.574
89.398
81.592
74.165
67.122
60.496
54.323
48.632
43.424
38.67
34.312
30.274
26.503
22.961
19.612
16.434
13.399
10.491
7.703
5.032
2.469
-0.021
-2.471
-4.908
-7.344
-9.765
-12.147
-14.449
-16.646
-18.714
-20.637
-22.404
-24.01
-25.457
-26.75
-27.902
-28.916
-29.782
-30.494
-31.046
-31.441
-31.69
-31.813
-31.833
-31.771
-31.649
-31.485
-31.292
-31.08
-30.853
-30.615
-30.363
-30.101
-29.832
-29.562
-29.297
-29.04
-28.794
-28.557
-28.33
-28.111
-27.897
-27.685
-27.476
-27.27
-27.067
-26.87
-26.683
-26.508
-26.349
-26.206
-26.081
-25.975
-25.887
-25.817
-25.765
-25.73
-25.71
-25.706
-25.716
-25.742
-25.781
-25.834
-25.898
-25.973
-26.057
-26.147
-26.243
-26.342
-26.44
-26.536
-26.627
-26.711
-26.783
-26.841
-26.882
-26.902
-26.896
-26.861
-26.792
-26.686
-26.537
-26.343
-26.099
-25.803
-25.454
-25.05
-24.592
-24.079
-23.513
-22.895
-22.227
-21.509
-20.745
-19.935
-19.084
-18.193
-17.266
-16.308
-15.323
-14.319
-13.301
-12.277
-11.25
-10.229
-9.22
-8.229
-7.265
-6.331
-5.434
-4.579
-3.772
-3.026
-2.344
-1.728
-1.174
-0.68
-0.238
0.156
0.513
0.85
1.187
1.536
1.911
2.316
2.759
3.246
3.793
4.414
5.113
5.884
6.713
7.585
8.488
9.402
10.289
11.093
11.758
12.23
12.462
12.416
12.045
11.309
10.175
8.607
6.575
4.062
1.054
-2.464
-6.473
-10.974
-15.979
-21.37
-26.953
-32.456
-37.474
-41.659
-44.787
-46.538
-46.542
-44.779
-41.425
-36.928
-32.256
-28.101
-24.831
-23.089
-23.407
-25.707
-29.661
-34.319
-37.795
-38.723
-36.012
-27.961
-13.352
8.325
37.277
72.473
111.741
153.157
194.127
230.698
259.178
276.025
277.579
261.4
225.918
169.668
93.927
3.26
-98.943
-209.307
-325.126
-446.757
-567.785
-676.354
-762.054
-813.305
-828.11
-814.865
-780.725
-734.175
-680.246
-617.57
-547.354
-472.113
-394.608
-320.147
-253.062
-195.699
-149.417
-114.067
-88.403
-70.967
-60.564
-55.553
-53.731
-53.017
-51.456
-47.902
-42.338
-35.094
-26.493
-17.149
-7.87
0.424
6.678
10.412
11.784
11.145
9.005
5.904
2.321
-1.154
-3.87
-5.464
-5.82
-4.953
-3.029
-0.18
3.503
7.87
12.744
17.969
23.409
28.956
34.531
40.029
45.335
50.337
54.926
59.045
62.67
65.801
68.463
70.692
72.527
74.027
75.256
76.279
77.157
77.948
78.7
79.469
80.31
81.278
82.425
83.786
85.382
87.224
89.312
91.645
94.217
97.013
100.014
103.202
106.561
110.076
113.732
117.512
121.393
125.353
129.37
133.42
137.482
141.534
145.552
149.515
153.4
157.186
160.852
164.376
167.736
170.91
173.873
176.605
179.087
181.298
183.221
184.839
186.138
187.105
187.731
188.007
187.925
187.481
186.671
185.494
183.951
182.045
179.78
177.161
174.199
170.901
167.28
163.35
159.124
154.619
149.853
144.843
139.61
134.173
128.555
122.776
116.859
110.827
104.703
98.508
92.266
85.998
79.727
73.473
67.258
61.101
55.02
49.034
43.161
37.415
31.813
26.368
21.092
15.999
11.098
6.399
1.909
-2.364
-6.416
-10.241
-13.836
-17.2
-20.331
-23.231
-25.9
-28.341
-30.557
-32.553
-34.334
-35.906
-37.275
-38.448
-39.434
-40.24
-40.875
-41.348
-41.667
-41.843
-41.885
-41.802
-41.604
-41.301
-40.903
-40.418
-39.858
-39.23
-38.544
-37.809
-37.033
-36.225
-35.392
-34.542
-33.682
-32.819
-31.959
-31.108
-30.271
-29.454
-28.661
-27.896
-27.163
-26.465
-25.807
-25.19
-24.617
-24.09
-23.611
-23.181
-22.803
-22.476
-22.201
-21.978
-21.809
-21.691
-21.625
-21.61
-21.644
-21.727
-21.855
-22.028
-22.243
-22.496
-22.787
-23.11
-23.465
-23.847
-24.253
-24.681
-25.126
-25.585
-26.054
-26.53
-27.008
-27.484
-27.955
-28.416
-28.863
-29.291
-29.696
-30.074
-30.42
-30.731
-31.002
-31.228
-31.406
-31.532
-31.602
-31.615
-31.567
-31.457
-31.284
-31.046
-30.746
-30.382
-29.958
-29.474
-28.931
-28.333
-27.682
-26.981
-26.233
-25.44
-24.607
-23.739
-22.84
-21.915
-20.972
-20.015
-19.05
-18.083
-17.122
-16.174
-15.245
-14.339
-13.461
-12.617
-11.813
-11.058
-10.357
-9.709
-9.113
-8.567
-8.066
-7.607
-7.178
-6.762
-6.341
-5.9
-5.428
-4.92
-4.372
-3.776
-3.121
-2.394
-1.59
-0.718
0.215
1.199
2.223
3.272
4.309
5.274
6.108
6.745
7.141
7.263
7.075
6.555
5.662
4.345
2.573
0.323
-2.431
-5.685
-9.477
-13.876
-18.809
-24.088
-29.443
-34.474
-38.879
-42.506
-45.065
-46.188
-45.783
-43.987
-41.268
-38.474
-36.169
-34.519
-33.868
-34.715
-37.118
-40.772
-44.753
-47.411
-47.526
-44.481
-37.327
-24.758
-6.008
19.252
50.478
85.876
123.927
163.36
201.794
235.805
261.982
276.915
277.662
262.431
229.408
176.947
106.259
21.511
-74.01
-176.946
-285.025
-398.796
-511.965
-613.397
-693.34
-740.947
-754.834
-743.163
-712.786
-671.887
-625.126
-571.122
-510.858
-446.368
-379.998
-316.474
-259.538
-211.088
-172.087
-142.171
-120.126
-104.632
-94.656
-88.787
-85.108
-81.873
-77.495
-71.118
-62.878
-53.179
-42.377
-31.065
-20.008
-10.03
-2.07
3.446
6.661
7.876
7.542
6.129
4.042
1.785
-0.086
-1.23
-1.484
-0.803
0.716
2.993
5.979
9.568
13.652
18.129
22.893
27.864
32.973
38.136
43.275
48.31
53.156
57.744
62.012
65.92
69.47
72.673
75.554
78.149
80.492
82.628
84.615
86.504
88.345
90.179
92.043
93.975
96.015
98.201
100.567
103.135
105.912
108.901
112.1
115.499
119.089
122.853
126.768
130.812
134.967
139.214
143.537
147.914
152.323
156.74
161.142
165.505
169.807
174.025
178.136
182.119
185.951
189.611
193.081
196.341
199.369
202.146
204.652
206.87
208.782
210.373
211.628
212.535
213.084
213.268
213.08
212.516
211.575
210.255
208.56
206.492
204.057
201.262
198.116
194.628
190.812
186.679
182.244
177.524
172.535
167.295
161.823
156.138
150.262
144.215
138.019
131.697
125.27
118.761
112.194
105.59
98.973
92.365
85.787
79.259
72.803
66.437
60.179
54.046
48.054
42.217
36.55
31.063
25.768
20.674
15.791
11.125
6.682
2.467
-1.516
-5.266
-8.78
-12.058
-15.101
-17.912
-20.492
-22.845
-24.978
-26.895
-28.603
-30.11
-31.424
-32.554
-33.51
-34.301
-34.938
-35.431
-35.791
-36.028
-36.153
-36.177
-36.11
-35.961
-35.741
-35.459
-35.124
-34.745
-34.329
-33.885
-33.419
-32.938
-32.449
-31.958
-31.471
-30.992
-30.526
-30.077
-29.65
-29.247
-28.872
-28.526
-28.211
-27.928
-27.678
-27.462
-27.279
-27.128
-27.01
-26.922
-26.863
-26.832
-26.827
-26.846
-26.887
-26.947
-27.025
-27.117
-27.222
-27.336
-27.457
-27.582
-27.709
-27.835
-27.957
-28.073
-28.179
-28.273
-28.351
-28.411
-28.448
-28.46
-28.443
-28.395
-28.313
-28.195
-28.037
-27.837
-27.595
-27.307
-26.974
-26.592
-26.163
-25.684
-25.157
-24.582
-23.959
-23.291
-22.579
-21.826
-21.036
-20.213
-19.36
-18.481
-17.582
-16.666
-15.739
-14.806
-13.87
-12.938
-12.013
-11.104
-10.216
-9.354
-8.525
-7.735
-6.988
-6.293
-5.655
-5.076
-4.557
-4.099
-3.703
-3.372
-3.11
-2.918
-2.792
-2.729
-2.722
-2.768
-2.858
-2.976
-3.1
-3.205
-3.272
-3.291
-3.253
-3.148
-2.969
-2.701
-2.337
-1.877
-1.32
-0.671
0.064
0.873
1.731
2.594
3.397
4.07
4.544
4.766
4.689
4.284
3.519
2.347
0.742
-1.327
-3.892
-6.941
-10.489
-14.567
-19.093
-23.903
-28.723
-33.119
-36.719
-39.248
-40.349
-39.778
-37.541
-33.778
-29.05
-24.247
-20.047
-17.119
-16.15
-17.379
-20.673
-25.559
-30.706
-34.443
-35.259
-31.313
-20.983
-3.374
21.902
54.289
92.032
132.836
173.754
210.787
239.886
257.168
259.118
243.428
208.619
154.066
80.838
-8.313
-109.461
-217.547
-327.289
-433.679
-531.132
-614.465
-679.809
-724.454
-747.522
-749.644
-731.755
-695.607
-644.547
-582.507
-513.733
-442.574
-372.145
-305.084
-244.407
-192.423
-150.367
-118.508
-95.855
-80.814
-72.214
-68.548
-67.697
-67.63
-66.465
-63.102
-57.515
-50.036
-40.987
-30.926
-20.626
-10.987
-3.032
2.749
6.443
8.331
8.844
8.428
7.491
6.544
6.146
6.616
8.051
10.421
13.563
17.336
21.617
26.223
30.963
35.671
40.225
44.55
48.596
52.302
55.609
58.464
60.842
62.754
64.222
65.284
66.001
66.445
66.718
66.955
67.276
67.79
68.584
69.71
71.216
73.145
75.517
78.332
81.566
85.167
89.091
93.308
97.775
102.449
107.266
112.138
116.991
121.771
126.434
130.953
135.301
139.448
143.389
147.137
150.714
154.163
157.507
160.748
163.89
166.934
169.883
172.754
175.548
178.248
180.844
183.317
185.654
187.844
189.863
191.678
193.251
194.542
195.521
196.17
196.472
196.414
195.986
195.18
193.995
192.44
190.52
188.242
185.612
182.636
179.326
175.698
171.77
167.56
163.087
158.37
153.427
148.28
142.948
137.451
131.808
126.038
120.161
114.199
108.174
102.108
96.024
89.944
83.889
77.882
71.941
66.087
60.337
54.706
49.211
43.865
38.679
33.667
28.836
24.196
19.753
15.513
11.482
7.662
4.055
0.662
-2.516
-5.482
-8.236
-10.781
-13.122
-15.263
-17.209
-18.965
-20.539
-21.939
-23.173
-24.249
-25.177
-25.966
-26.627
-27.169
-27.603
-27.938
-28.184
-28.35
-28.446
-28.478
-28.456
-28.387
-28.278
-28.135
-27.964
-27.769
-27.557
-27.331
-27.095
-26.852
-26.607
-26.361
-26.118
-25.88
-25.649
-25.427
-25.216
-25.018
-24.833
-24.662
-24.507
-24.366
-24.242
-24.133
-24.04
-23.963
-23.901
-23.855
-23.823
-23.806
-23.804
-23.818
-23.846
-23.89
-23.95
-24.027
-24.122
-24.235
-24.368
-24.521
-24.696
-24.891
-25.108
-25.346
-25.604
-25.882
-26.178
-26.49
-26.817
-27.157
-27.506
-27.863
-28.225
-28.589
-28.951
-29.308
-29.658
-29.996
-30.318
-30.622
-30.903
-31.158
-31.383
-31.574
-31.728
-31.84
-31.907
-31.926
-31.893
-31.804
-31.658
-31.452
-31.184
-30.853
-30.458
-30.001
-29.483
-28.906
-28.275
-27.592
-26.863
-26.093
-25.288
-24.453
-23.595
-22.717
-21.825
-20.925
-20.023
-19.123
-18.234
-17.36
-16.507
-15.685
-14.896
-14.147
-13.441
-12.776
-12.155
-11.578
-11.046
-10.565
-10.139
-9.765
-9.447
-9.182
-8.964
-8.786
-8.63
-8.469
-8.284
-8.058
-7.774
-7.426
-7.006
-6.5
-5.904
-5.211
-4.408
-3.497
-2.477
-1.349
-0.134
1.129
2.387
3.562
4.584
5.401
5.962
6.223
6.134
5.637
4.691
3.255
1.308
-1.19
-4.314
-8.041
-12.242
-16.686
-21.002
-24.839
-27.97
-30.083
-30.787
-30.016
-27.885
-24.77
-21.533
-18.788
-16.818
-16.18
-17.37
-20.316
-24.74
-29.76
-33.603
-35.024
-33.066
-26.159
-13.08
6.806
33.873
67.261
104.95
145.213
185.768
223.007
253.393
273.371
279.208
268.421
239.49
190.878
123.437
41.096
-53.146
-156.092
-265.009
-380.148
-495.682
-600.559
-684.885
-737.561
-756.34
-748.948
-722.093
-683.528
-637.747
-583.172
-520.747
-453.033
-382.73
-314.521
-252.131
-197.49
-151.871
-115.86
-88.983
-69.957
-57.829
-51.528
-49.542
-50.702
-53.454
-55.733
-56.367
-55.131
-51.843
-46.596
-39.527
-30.429
-19.797
-8.918
1.124
9.786
16.916
22.664
27.023
29.668
30.659
30.632
30.419
30.637
31.507
32.977
35.001
37.697
41.131
45.121
49.3
53.335
57.026
60.305
63.188
65.634
67.569
68.986
69.921
70.434
70.632
70.605
70.424
70.202
70.037
70.023
70.269
70.861
71.87
73.353
75.337
77.829
80.842
84.362
88.367
92.817
97.627
102.711
107.988
113.362
118.76
124.118
129.364
134.441
139.312
143.944
148.32
152.438
156.285
159.862
163.183
166.268
169.161
171.897
174.5
176.995
179.393
181.699
183.919
186.045
188.06
189.946
191.682
193.244
194.616
195.775
196.695
197.348
197.698
197.72
197.393
196.703
195.641
194.201
192.38
190.182
187.62
184.704
181.444
177.854
173.943
169.725
165.218
160.438
155.406
150.142
144.664
138.995
133.155
127.164
121.046
114.821
108.509
102.131
95.71
89.269
82.831
76.418
70.052
63.754
57.546
51.447
45.475
39.647
33.978
28.482
23.172
18.058
13.152
8.461
3.994
-0.243
-4.246
-8.011
-11.535
-14.818
-17.859
-20.659
-23.221
-25.549
-27.646
-29.519
-31.173
-32.618
-33.861
-34.912
-35.78
-36.476
-37.011
-37.396
-37.643
-37.764
-37.769
-37.671
-37.48
-37.207
-36.862
-36.455
-35.994
-35.489
-34.946
-34.374
-33.779
-33.168
-32.545
-31.917
-31.288
-30.663
-30.045
-29.437
-28.843
-28.266
-27.707
-27.167
-26.649
-26.153
-25.68
-25.23
-24.803
-24.399
-24.017
-23.658
-23.32
-23.004
-22.707
-22.431
-22.174
-21.937
-21.719
-21.521
-21.345
-21.19
-21.058
-20.951
-20.871
-20.818
-20.795
-20.804
-20.845
-20.921
-21.033
-21.181
-21.367
-21.591
-21.853
-22.153
-22.491
-22.866
-23.276
-23.72
-24.197
-24.705
-25.241
-25.804
-26.391
-26.998
-27.623
-28.263
-28.914
-29.571
-30.231
-30.889
-31.539
-32.176
-32.795
-33.389
-33.954
-34.482
-34.968
-35.407
-35.794
-36.122
-36.388
-36.589
-36.72
-36.779
-36.766
-36.678
-36.516
-36.282
-35.977
-35.604
-35.166
-34.666
-34.109
-33.499
-32.84
-32.136
-31.391
-30.611
-29.799
-28.963
-28.109
-27.241
-26.368
-25.497
-24.635
-23.79
-22.967
-22.167
-21.395
-20.654
-19.948
-19.284
-18.667
-18.096
-17.572
-17.093
-16.658
-16.26
-15.886
-15.511
-15.118
-14.687
-14.208
-13.677
-13.089
-12.433
-11.704
-10.888
-9.982
-8.995
-7.927
-6.778
-5.566
-4.311
-3.062
-1.907
-0.915
-0.151
0.331
0.508
0.336
-0.245
-1.285
-2.842
-4.96
-7.645
-10.946
-14.953
-19.663
-24.959
-30.591
-36.128
-41.18
-45.472
-48.685
-50.428
-50.484
-48.936
-46.215
-43.152
-40.588
-39.032
-38.959
-41.02
-45.501
-52.056
-59.758
-66.912
-71.59
-72.422
-67.975
-56.35
-36.287
-7.4
29.837
73.529
121.145
170.362
217.966
259.511
290.847
308.24
308.41
289.439
250.168
189.693
109.755
15.245
-90.028
-202.466
-319.179
-440.057
-558.909
-664.698
-747.729
-797.472
-811.954
-798.564
-764.08
-716.751
-661.798
-598.682
-529.086
-455.699
-381.844
-313.19
-253.763
-205.451
-168.713
-142.418
-124.808
-113.995
-107.99
-104.496
-101.18
-96.112
-88.242
-77.431
-64.148
-49.21
-33.515
-18.093
-4.081
7.494
16.101
21.747
24.73
25.542
24.723
22.789
20.316
17.884
15.831
14.304
13.363
12.978
13.126
13.801
14.933
16.417
18.19
20.208
22.455
24.942
27.632
30.469
33.423
36.477
39.649
42.961
46.403
49.951
53.593
57.326
61.165
65.129
69.214
73.403
77.671
81.981
86.319
90.676
95.03
99.353
103.597
107.722
111.714
115.573
119.299
122.892
126.346
129.655
132.84
135.928
138.951
141.95
144.944
147.949
150.98
154.052
157.181
160.379
163.641
166.95
170.289
173.642
176.991
180.318
183.59
186.772
189.825
192.708
195.389
197.841
200.036
201.952
203.565
204.859
205.821
206.446
206.725
206.652
206.221
205.427
204.271
202.756
200.888
198.673
196.119
193.233
190.024
186.504
182.682
178.571
174.183
169.529
164.626
159.49
154.139
148.592
142.87
136.992
130.981
124.858
118.644
112.363
106.034
99.679
93.319
86.975
80.667
74.415
68.238
62.154
56.182
50.336
44.632
39.084
33.705
28.507
23.499
18.691
14.091
9.706
5.542
1.602
-2.109
-5.59
-8.839
-11.857
-14.645
-17.204
-19.538
-21.651
-23.548
-25.233
-26.714
-27.998
-29.09
-30
-30.735
-31.305
-31.719
-31.986
-32.116
-32.119
-32.005
-31.784
-31.467
-31.062
-30.58
-30.029
-29.418
-28.756
-28.051
-27.309
-26.539
-25.748
-24.94
-24.123
-23.303
-22.483
-21.67
-20.866
-20.077
-19.306
-18.557
-17.831
-17.133
-16.463
-15.825
-15.219
-14.648
-14.111
-13.611
-13.146
-12.717
-12.324
-11.965
-11.639
-11.346
-11.084
-10.853
-10.65
-10.474
-10.326
-10.204
-10.106
-10.034
-9.986
-9.961
-9.96
-9.981
-10.024
-10.088
-10.174
-10.28
-10.405
-10.549
-10.712
-10.892
-11.089
-11.301
-11.528
-11.766
-12.017
-12.277
-12.546
-12.821
-13.1
-13.384
-13.672
-13.963
-14.256
-14.55
-14.844
-15.137
-15.426
-15.709
-15.98
-16.234
-16.469
-16.681
-16.868
-17.024
-17.149
-17.237
-17.288
-17.305
-17.285
-17.223
-17.116
-16.956
-16.744
-16.488
-16.193
-15.86
-15.493
-15.097
-14.679
-14.256
-13.831
-13.398
-12.951
-12.481
-11.991
-11.492
-10.993
-10.501
-10.015
-9.525
-9.03
-8.545
-8.068
-7.587
-7.088
-6.538
-5.932
-5.293
-4.629
-3.943
-3.231
-2.475
-1.669
-0.823
0.059
0.965
1.899
2.881
3.905
4.942
5.963
6.921
7.794
8.592
9.288
9.848
10.237
10.408
10.339
10.027
9.451
8.589
7.403
5.843
3.89
1.551
-1.154
-4.194
-7.564
-11.27
-15.277
-19.543
-24
-28.594
-33.345
-38.179
-42.918
-47.324
-50.99
-53.529
-54.732
-54.294
-51.865
-47.489
-41.377
-34.023
-26.501
-19.647
-13.995
-10.375
-9.427
-11.081
-15.002
-20.159
-24.536
-26.579
-24.903
-17.511
-2.888
19.632
50.235
87.858
130.049
174.365
217.741
255.722
283.991
298.71
296.069
273.324
229.332
163.489
77.668
-22.766
-133.546
-250.885
-371.332
-494.09
-612.767
-716.107
-794.067
-836.042
-840.635
-816.072
-770.355
-713.261
-650.297
-580.674
-506.088
-428.827
-351.931
-281.201
-220.24
-170.307
-132.029
-104.409
-85.662
-74.296
-68.577
-66.199
-65.206
-64.006
-61.143
-56.129
-49.228
-40.782
-31.403
-21.999
-13.295
-6.035
-0.961
1.814
2.558
1.651
-0.315
-2.767
-5.231
-7.17
-8.101
-7.811
-6.258
-3.524
0.198
4.766
10.053
15.905
22.159
28.653
35.244
41.81
48.223
54.35
60.05
65.174
69.623
73.364
76.399
78.791
80.626
81.975
82.92
83.539
83.902
84.095
84.201
84.291
84.451
84.77
85.343
86.286
87.687
89.58
91.973
94.828
98.08
101.682
105.592
109.761
114.158
118.742
123.475
128.336
133.294
138.304
143.316
148.253
153.048
157.667
162.09
166.319
170.38
174.277
178.015
181.6
185.025
188.282
191.36
194.232
196.872
199.264
201.399
203.279
204.91
206.282
207.381
208.186
208.669
208.809
208.589
207.99
206.999
205.611
203.825
201.647
199.091
196.168
192.885
189.253
185.277
180.973
176.356
171.444
166.257
160.818
155.149
149.277
143.226
137.021
130.687
124.247
117.722
111.136
104.512
97.873
91.242
84.642
78.096
71.624
65.248
58.989
52.865
46.892
41.086
35.462
30.033
24.809
19.801
15.019
10.468
6.156
2.087
-1.736
-5.309
-8.634
-11.709
-14.537
-17.12
-19.463
-21.571
-23.45
-25.108
-26.551
-27.789
-28.831
-29.687
-30.368
-30.883
-31.244
-31.463
-31.549
-31.516
-31.375
-31.135
-30.809
-30.406
-29.937
-29.409
-28.833
-28.215
-27.564
-26.886
-26.187
-25.475
-24.754
-24.03
-23.308
-22.591
-21.883
-21.188
-20.508
-19.846
-19.203
-18.581
-17.98
-17.402
-16.847
-16.315
-15.805
-15.318
-14.851
-14.405
-13.978
-13.569
-13.176
-12.799
-12.435
-12.084
-11.747
-11.421
-11.108
-10.809
-10.523
-10.252
-9.997
-9.759
-9.538
-9.335
-9.151
-8.987
-8.842
-8.719
-8.617
-8.536
-8.48
-8.447
-8.44
-8.459
-8.504
-8.577
-8.679
-8.81
-8.971
-9.162
-9.386
-9.643
-9.935
-10.262
-10.626
-11.025
-11.461
-11.931
-12.434
-12.966
-13.523
-14.104
-14.703
-15.319
-15.948
-16.587
-17.235
-17.891
-18.554
-19.221
-19.89
-20.556
-21.215
-21.861
-22.489
-23.093
-23.666
-24.201
-24.692
-25.138
-25.534
-25.878
-26.163
-26.378
-26.517
-26.578
-26.56
-26.464
-26.296
-26.056
-25.758
-25.426
-25.08
-24.743
-24.427
-24.13
-23.853
-23.599
-23.368
-23.163
-22.977
-22.78
-22.555
-22.288
-21.964
-21.576
-21.093
-20.458
-19.619
-18.537
-17.186
-15.568
-13.68
-11.506
-9.053
-6.34
-3.412
-0.355
2.771
5.925
9.066
12.16
15.147
17.923
20.403
22.523
24.229
25.491
26.262
26.467
26.066
25.06
23.486
21.423
18.926
16.011
12.7
9.013
4.992
0.708
-3.784
-8.455
-13.258
-18.146
-23.058
-27.893
-32.574
-37.088
-41.422
-45.606
-49.703
-53.649
-57.296
-60.458
-62.815
-64.078
-64.076
-62.508
-59.01
-53.589
-46.456
-38.131
-29.633
-21.708
-14.792
-9.626
-6.898
-6.703
-8.854
-12.438
-15.58
-16.919
-15.332
-9.048
3.437
23.045
50.305
84.423
123.336
165.191
207.56
246.585
278.28
298.58
303.437
290.047
256.433
200.885
124.213
30.409
-75.931
-190.319
-310.916
-438.057
-568.077
-691.548
-793.293
-858.312
-879.754
-861.026
-814.715
-754.086
-687.745
-618.974
-546.305
-469.614
-391.528
-316.265
-249.112
-193.307
-149.603
-117.446
-95.021
-80.322
-71.78
-67.36
-64.969
-62.802
-59.176
-53.346
-45.477
-35.988
-25.45
-14.688
-4.49
4.299
10.739
14.519
15.853
15.111
12.868
9.715
6.139
2.727
0.111
-1.375
-1.612
-0.607
1.479
4.522
8.436
13.07
18.253
23.836
29.669
35.638
41.654
47.605
53.366
58.822
63.854
68.398
72.431
75.951
78.984
81.566
83.735
85.552
87.084
88.397
89.558
90.625
91.651
92.694
93.813
95.063
96.502
98.166
100.074
102.239
104.661
107.339
110.266
113.428
116.803
120.373
124.122
128.034
132.093
136.281
140.575
144.953
149.39
153.862
158.348
162.823
167.266
171.651
175.956
180.159
184.238
188.17
191.931
195.496
198.842
201.946
204.785
207.339
209.587
211.513
213.099
214.332
215.199
215.692
215.8
215.519
214.842
213.77
212.3
210.435
208.178
205.534
202.512
199.119
195.368
191.271
186.841
182.095
177.05
171.724
166.135
160.305
154.255
148.006
141.582
135.005
128.299
121.487
114.594
107.644
100.66
93.665
86.682
79.734
72.842
66.026
59.306
52.701
46.23
39.908
33.751
27.773
21.989
16.409
11.045
5.906
1
-3.665
-8.085
-12.255
-16.172
-19.833
-23.238
-26.387
-29.282
-31.925
-34.319
-36.469
-38.38
-40.059
-41.513
-42.749
-43.775
-44.602
-45.238
-45.693
-45.979
-46.105
-46.082
-45.921
-45.632
-45.228
-44.718
-44.113
-43.423
-42.659
-41.829
-40.943
-40.01
-39.039
-38.037
-37.012
-35.97
-34.92
-33.866
-32.814
-31.77
-30.738
-29.722
-28.726
-27.754
-26.807
-25.889
-25.001
-24.145
-23.32
-22.529
-21.77
-21.044
-20.35
-19.688
-19.056
-18.453
-17.878
-17.331
-16.809
-16.311
-15.837
-15.385
-14.953
-14.542
-14.15
-13.777
-13.422
-13.085
-12.765
-12.464
-12.18
-11.914
-11.666
-11.437
-11.227
-11.038
-10.869
-10.722
-10.598
-10.497
-10.422
-10.373
-10.352
-10.36
-10.398
-10.468
-10.571
-10.709
-10.882
-11.09
-11.335
-11.616
-11.934
-12.288
-12.676
-13.097
-13.551
-14.034
-14.546
-15.082
-15.641
-16.22
-16.814
-17.42
-18.034
-18.653
-19.271
-19.883
-20.487
-21.076
-21.646
-22.192
-22.709
-23.192
-23.638
-24.04
-24.396
-24.7
-24.948
-25.137
-25.265
-25.328
-25.326
-25.257
-25.121
-24.919
-24.654
-24.326
-23.94
-23.498
-23.005
-22.465
-21.882
-21.261
-20.607
-19.924
-19.219
-18.498
-17.768
-17.035
-16.307
-15.59
-14.892
-14.221
-13.581
-12.972
-12.398
-11.862
-11.369
-10.925
-10.533
-10.192
-9.903
-9.667
-9.479
-9.334
-9.217
-9.103
-8.974
-8.813
-8.607
-8.355
-8.044
-7.664
-7.205
-6.655
-6.012
-5.283
-4.462
-3.545
-2.55
-1.498
-0.439
0.541
1.382
2.026
2.418
2.532
2.313
1.695
0.629
-0.937
-3.039
-5.675
-8.893
-12.777
-17.297
-22.328
-27.629
-32.797
-37.503
-41.545
-44.652
-46.476
-46.812
-45.688
-43.425
-40.709
-38.193
-36.172
-34.898
-34.843
-36.303
-39.155
-42.859
-46.186
-47.62
-46.266
-41.401
-31.583
-15.423
7.753
38.301
74.533
112.682
151.159
188.963
224.972
260.436
290.986
307.183
300.797
262.268
190.774
96.129
-12.348
-124.997
-239.001
-359.215
-484.868
-608.994
-717.702
-794.089
-830.246
-828.869
-800.674
-757.929
-707.977
-652.769
-590.566
-521.314
-447.929
-374.545
-306.442
-247.086
-197.656
-158.648
-129.388
-108.402
-94.329
-85.661
-80.366
-76.667
-73.005
-67.864
-60.673
-51.636
-41.083
-29.578
-17.933
-6.816
3.014
10.705
16.019
19.112
20.271
20.016
18.837
17.116
15.335
14.002
13.389
13.638
14.749
16.56
18.95
21.81
24.995
28.379
31.846
35.294
38.645
41.849
44.863
47.672
50.269
52.633
54.756
56.627
58.276
59.795
61.271
62.787
64.423
66.229
68.259
70.576
73.229
76.233
79.587
83.253
87.18
91.345
95.725
100.297
105.022
109.829
114.652
119.444
124.167
128.797
133.309
137.668
141.851
145.861
149.712
153.434
157.066
160.625
164.119
167.557
170.944
174.294
177.615
180.899
184.126
187.28
190.341
193.294
196.125
198.801
201.289
203.55
205.544
207.241
208.617
209.647
210.312
210.599
210.493
209.991
209.096
207.807
206.127
204.058
201.603
198.769
195.569
192.014
188.118
183.896
179.362
174.534
169.428
164.063
158.457
152.628
146.595
140.379
134.001
127.485
120.854
114.132
107.344
100.513
93.664
86.821
80.006
73.243
66.552
59.954
53.468
47.112
40.905
34.861
28.997
23.325
17.859
12.608
7.584
2.794
-1.754
-6.055
-10.105
-13.9
-17.44
-20.723
-23.751
-26.527
-29.054
-31.337
-33.382
-35.197
-36.789
-38.168
-39.342
-40.323
-41.121
-41.748
-42.214
-42.532
-42.714
-42.77
-42.714
-42.557
-42.31
-41.984
-41.59
-41.139
-40.641
-40.105
-39.541
-38.958
-38.364
-37.765
-37.17
-36.584
-36.012
-35.46
-34.931
-34.428
-33.955
-33.513
-33.104
-32.728
-32.386
-32.079
-31.805
-31.563
-31.354
-31.175
-31.024
-30.901
-30.803
-30.728
-30.674
-30.64
-30.623
-30.621
-30.633
-30.656
-30.688
-30.728
-30.773
-30.823
-30.875
-30.928
-30.981
-31.033
-31.083
-31.131
-31.176
-31.22
-31.261
-31.3
-31.34
-31.379
-31.42
-31.463
-31.509
-31.561
-31.62
-31.686
-31.762
-31.849
-31.948
-32.06
-32.187
-32.33
-32.489
-32.665
-32.858
-33.07
-33.3
-33.549
-33.815
-34.1
-34.403
-34.723
-35.06
-35.414
-35.784
-36.167
-36.563
-36.97
-37.386
-37.808
-38.234
-38.661
-39.085
-39.504
-39.913
-40.31
-40.69
-41.049
-41.383
-41.688
-41.959
-42.194
-42.386
-42.534
-42.634
-42.683
-42.679
-42.621
-42.506
-42.335
-42.108
-41.825
-41.485
-41.089
-40.638
-40.133
-39.574
-38.963
-38.301
-37.59
-36.835
-36.039
-35.207
-34.343
-33.453
-32.539
-31.609
-30.668
-29.721
-28.774
-27.829
-26.892
-25.968
-25.067
-24.195
-23.351
-22.533
-21.737
-20.959
-20.191
-19.424
-18.641
-17.825
-16.962
-16.04
-15.056
-14.003
-12.875
-11.661
-10.346
-8.928
-7.416
-5.826
-4.174
-2.475
-0.755
0.946
2.564
4.04
5.317
6.341
7.071
7.456
7.45
7.018
6.12
4.727
2.82
0.386
-2.591
-6.091
-10.109
-14.648
-19.583
-24.721
-29.796
-34.407
-38.203
-40.941
-42.281
-41.843
-39.592
-35.687
-30.558
-25.147
-20.166
-16.049
-13.508
-13.157
-14.977
-18.656
-23.253
-26.85
-27.92
-25.193
-16.831
-1.396
21.735
52.729
90.537
132.707
176.773
219.752
257.448
285.723
300.704
298.829
277.91
237.04
175.999
96.107
0.533
-106.373
-219.225
-332.27
-440.116
-537.474
-619.534
-682.669
-724.567
-744.738
-744.235
-724.609
-688.118
-637.949
-577.548
-510.712
-441.357
-372.224
-305.416
-243.35
-187.853
-140.181
-101.345
-71.148
-48.561
-32.961
-23.498
-18.607
-16.828
-16.51
-15.855
-14.112
-11.189
-6.92
-1.493
4.58
10.828
16.457
20.535
22.774
23.279
22.261
20.177
17.482
14.558
11.945
10.191
9.559
10.129
11.847
14.537
18.063
22.32
27.144
32.363
37.832
43.427
49.053
54.636
60.081
65.28
70.13
74.563
78.549
82.085
85.196
87.915
90.282
92.349
94.179
95.83
97.36
98.821
100.258
101.719
103.257
104.923
106.767
108.827
111.122
113.663
116.453
119.486
122.756
126.246
129.936
133.808
137.843
142.025
146.34
150.768
155.288
159.877
164.51
169.164
173.816
178.443
183.021
187.528
191.939
196.234
200.39
204.385
208.193
211.792
215.157
218.265
221.093
223.621
225.828
227.697
229.212
230.358
231.124
231.5
231.478
231.052
230.218
228.975
227.322
225.263
222.802
219.945
216.7
213.077
209.089
204.749
200.072
195.075
189.777
184.196
178.354
172.272
165.975
159.484
152.825
146.024
139.105
132.094
125.017
117.9
110.768
103.645
96.556
89.524
82.572
75.72
68.989
62.397
55.963
49.703
43.631
37.763
32.109
26.681
21.489
16.541
11.844
7.403
3.223
-0.694
-4.347
-7.734
-10.859
-13.723
-16.33
-18.686
-20.795
-22.666
-24.307
-25.726
-26.934
-27.94
-28.755
-29.391
-29.86
-30.174
-30.344
-30.382
-30.301
-30.112
-29.827
-29.456
-29.011
-28.502
-27.939
-27.33
-26.686
-26.014
-25.323
-24.62
-23.913
-23.206
-22.507
-21.82
-21.148
-20.497
-19.868
-19.263
-18.686
-18.136
-17.615
-17.123
-16.659
-16.223
-15.814
-15.431
-15.071
-14.733
-14.413
-14.11
-13.82
-13.541
-13.272
-13.009
-12.752
-12.5
-12.251
-12.004
-11.759
-11.515
-11.271
-11.028
-10.785
-10.543
-10.301
-10.06
-9.822
-9.588
-9.361
-9.141
-8.93
-8.73
-8.542
-8.367
-8.207
-8.062
-7.931
-7.818
-7.723
-7.648
-7.595
-7.566
-7.564
-7.592
-7.652
-7.744
-7.866
-8.016
-8.19
-8.383
-8.593
-8.811
-9.034
-9.257
-9.475
-9.688
-9.896
-10.093
-10.273
-10.427
-10.547
-10.634
-10.685
-10.699
-10.678
-10.628
-10.564
-10.512
-10.489
-10.502
-10.555
-10.639
-10.748
-10.878
-11.022
-11.172
-11.314
-11.433
-11.522
-11.583
-11.611
-11.587
-11.471
-11.2
-10.732
-10.046
-9.128
-7.976
-6.585
-4.956
-3.118
-1.121
0.985
3.156
5.365
7.606
9.856
12.073
14.184
16.097
17.746
19.081
20.053
20.604
20.667
20.203
19.224
17.779
15.916
13.661
11.02
7.987
4.572
0.805
-3.272
-7.605
-12.15
-16.863
-21.69
-26.549
-31.342
-36.009
-40.521
-44.902
-49.211
-53.394
-57.309
-60.754
-63.421
-65.035
-65.429
-64.334
-61.414
-56.671
-50.318
-42.853
-35.271
-28.317
-22.4
-18.19
-16.268
-16.636
-19.05
-22.604
-25.467
-26.294
-24.016
-16.989
-3.958
15.712
42.367
75.118
111.915
150.958
189.878
225.022
252.877
269.992
272.771
258.845
226.79
175.18
105.013
20.328
-75.854
-180.328
-290.436
-406.458
-522.457
-627.417
-711.444
-763.45
-781.373
-772.952
-744.899
-705.052
-657.855
-601.804
-537.917
-468.701
-396.899
-327.231
-263.475
-207.632
-160.91
-123.684
-95.309
-74.522
-60.393
-51.79
-46.974
-44.463
-42.747
-40.245
-36.448
-31.511
-25.465
-18.658
-11.713
-5.095
0.476
4.187
5.89
5.795
4.192
1.593
-1.514
-4.742
-7.565
-9.47
-10.223
-9.752
-8.112
-5.474
-1.963
2.316
7.202
12.527
18.133
23.882
29.667
35.394
40.954
46.237
51.134
55.576
59.538
63.019
66.042
68.644
70.865
72.758
74.39
75.821
77.111
78.317
79.491
80.69
81.98
83.415
85.044
86.897
88.982
91.3
93.848
96.61
99.564
102.688
105.96
109.371
112.928
116.627
120.458
124.402
128.423
132.498
136.618
140.771
144.954
149.162
153.386
157.629
161.913
166.235
170.574
174.886
179.092
183.134
186.97
190.567
193.904
196.952
199.666
202.012
203.961
205.478
206.534
207.08
207.042
206.387
205.109
203.232
200.824
197.932
194.582
190.804
186.622
182.066
177.174
171.975
166.484
160.731
154.752
148.602
142.361
136.08
129.784
123.484
117.158
110.801
104.425
98.034
91.634
85.235
78.844
72.481
66.179
59.96
53.836
47.812
41.876
36.029
30.286
24.665
19.195
13.898
8.789
3.887
-0.79
-5.228
-9.416
-13.354
-17.047
-20.5
-23.714
-26.686
-29.416
-31.905
-34.157
-36.18
-37.981
-39.571
-40.958
-42.154
-43.173
-44.028
-44.728
-45.285
-45.706
-46.001
-46.179
-46.25
-46.223
-46.108
-45.914
-45.65
-45.326
-44.951
-44.534
-44.083
-43.606
-43.108
-42.598
-42.081
-41.563
-41.05
-40.545
-40.054
-39.58
-39.126
-38.695
-38.288
-37.906
-37.55
-37.221
-36.917
-36.637
-36.38
-36.145
-35.929
-35.731
-35.549
-35.381
-35.225
-35.079
-34.943
-34.814
-34.69
-34.571
-34.454
-34.339
-34.225
-34.109
-33.993
-33.874
-33.752
-33.627
-33.499
-33.368
-33.234
-33.096
-32.956
-32.814
-32.671
-32.527
-32.385
-32.245
-32.11
-31.98
-31.859
-31.746
-31.645
-31.556
-31.482
-31.422
-31.377
-31.349
-31.336
-31.338
-31.356
-31.388
-31.434
-31.491
-31.559
-31.635
-31.719
-31.807
-31.896
-31.986
-32.071
-32.151
-32.221
-32.28
-32.324
-32.349
-32.354
-32.336
-32.291
-32.217
-32.111
-31.971
-31.795
-31.581
-31.327
-31.034
-30.7
-30.327
-29.915
-29.468
-28.987
-28.475
-27.936
-27.374
-26.793
-26.196
-25.587
-24.97
-24.348
-23.726
-23.109
-22.502
-21.908
-21.332
-20.779
-20.256
-19.764
-19.308
-18.886
-18.497
-18.142
-17.824
-17.544
-17.303
-17.099
-16.929
-16.792
-16.685
-16.599
-16.521
-16.427
-16.294
-16.106
-15.85
-15.518
-15.099
-14.584
-13.959
-13.219
-12.363
-11.393
-10.311
-9.122
-7.838
-6.487
-5.122
-3.818
-2.646
-1.675
-0.956
-0.531
-0.447
-0.762
-1.532
-2.8
-4.604
-6.955
-9.887
-13.474
-17.675
-22.347
-27.237
-31.918
-35.997
-39.206
-41.179
-41.5
-40.106
-37.127
-32.99
-28.678
-24.973
-22.368
-21.634
-23.412
-27.637
-33.922
-41.214
-47.416
-50.809
-49.913
-42.655
-27.396
-3.414
29.462
70.08
115.758
163.777
210.898
252.62
284.489
302.378
302.532
282.631
241.829
180.049
98.67
1.017
-108.409
-224.165
-340.22
-450.772
-550.36
-634.03
-697.869
-739.515
-758.283
-754.781
-730.788
-689.094
-633.257
-567.408
-496.101
-423.562
-353.171
-287.998
-230.454
-182.079
-143.789
-115.411
-95.667
-83.005
-75.888
-72.395
-70.731
-69.256
-66.377
-61.408
-54.468
-45.876
-36.155
-26.037
-16.179
-7.355
-0.428
4.311
6.98
7.854
7.413
6.124
4.392
2.713
1.61
1.378
2.13
3.842
6.352
9.515
13.203
17.259
21.522
25.862
30.191
34.449
38.616
42.653
46.499
50.092
53.372
56.289
58.83
61.021
62.912
64.583
66.135
67.655
69.226
70.913
72.75
74.75
76.9
79.189
81.621
84.206
86.965
89.914
93.063
96.4
99.908
103.549
107.269
111.021
114.762
118.463
122.117
125.74
129.36
133.003
136.685
140.413
144.181
147.981
151.797
155.613
159.407
163.166
166.886
170.562
174.189
177.75
181.221
184.567
187.749
190.73
193.473
195.943
198.11
199.947
201.439
202.584
203.382
203.826
203.914
203.639
203.001
202.008
200.66
198.951
196.878
194.437
191.634
188.491
185.025
181.255
177.193
172.834
168.185
163.263
158.077
152.634
146.938
140.981
134.785
128.402
121.881
115.269
108.603
101.897
95.176
88.466
81.799
75.215
68.741
62.392
56.198
50.201
44.443
38.98
33.828
28.961
24.361
20.011
15.904
12.05
8.448
5.082
1.945
-0.972
-3.671
-6.145
-8.406
-10.483
-12.405
-14.21
-15.909
-17.478
-18.907
-20.19
-21.323
-22.318
-23.173
-23.881
-24.444
-24.874
-25.184
-25.393
-25.507
-25.521
-25.431
-25.233
-24.934
-24.554
-24.11
-23.611
-23.07
-22.495
-21.898
-21.295
-20.693
-20.092
-19.494
-18.897
-18.306
-17.726
-17.165
-16.624
-16.107
-15.614
-15.145
-14.704
-14.289
-13.901
-13.539
-13.201
-12.885
-12.595
-12.331
-12.093
-11.882
-11.697
-11.536
-11.401
-11.291
-11.203
-11.136
-11.089
-11.06
-11.047
-11.05
-11.066
-11.094
-11.132
-11.179
-11.234
-11.296
-11.363
-11.435
-11.511
-11.59
-11.671
-11.755
-11.839
-11.924
-12.01
-12.096
-12.183
-12.271
-12.36
-12.451
-12.545
-12.64
-12.739
-12.84
-12.945
-13.053
-13.165
-13.279
-13.396
-13.517
-13.642
-13.773
-13.909
-14.054
-14.209
-14.375
-14.554
-14.745
-14.946
-15.156
-15.372
-15.588
-15.802
-16.01
-16.209
-16.395
-16.566
-16.723
-16.862
-16.982
-17.076
-17.136
-17.157
-17.138
-17.08
-16.985
-16.864
-16.73
-16.596
-16.479
-16.388
-16.329
-16.297
-16.282
-16.272
-16.252
-16.218
-16.171
-16.112
-16.041
-15.952
-15.836
-15.673
-15.434
-15.086
-14.59
-13.921
-13.073
-12.054
-10.889
-9.614
-8.271
-6.892
-5.494
-4.086
-2.671
-1.258
0.14
1.495
2.767
3.909
4.863
5.586
6.062
6.292
6.295
6.112
5.789
5.356
4.836
4.229
3.509
2.659
1.663
0.505
-0.812
-2.28
-3.882
-5.599
-7.427
-9.384
-11.505
-13.846
-16.469
-19.415
-22.695
-26.327
-30.331
-34.638
-39.095
-43.463
-47.389
-50.585
-52.902
-54.092
-53.811
-52.013
-48.813
-44.597
-40.273
-36.475
-33.455
-31.745
-31.889
-33.907
-37.639
-42.266
-45.873
-47.095
-45.089
-38.354
-25.48
-5.514
22.396
56.874
94.13
131.359
166.828
200.909
235.658
269.595
296.039
303.482
280.286
221.041
129.453
18.214
-99.207
-213.593
-320.782
-421.974
-516.873
-601.763
-672.209
-723.294
-752.457
-760.39
-748.568
-718.948
-674.476
-618.371
-554.127
-485.724
-416.565
-349.2
-286.28
-230.101
-182.11
-143.335
-113.854
-92.678
-78.735
-70.871
-67.341
-66.42
-66.438
-65.672
-63.268
-59.138
-53.355
-46.279
-38.566
-30.834
-23.875
-18.571
-15.219
-13.714
-13.784
-14.935
-16.677
-18.588
-20.152
-20.87
-20.498
-18.97
-16.348
-12.805
-8.479
-3.489
2.01
7.856
13.902
20.03
26.14
32.146
37.954
43.46
48.571
53.226
57.401
61.095
64.335
67.159
69.609
71.74
73.615
75.292
76.831
78.286
79.706
81.144
82.653
84.28
86.077
88.078
90.304
92.766
95.469
98.408
101.577
104.965
108.553
112.327
116.27
120.368
124.605
128.965
133.426
137.966
142.563
147.193
151.833
156.46
161.05
165.58
170.026
174.365
178.574
182.631
186.509
190.186
193.637
196.838
199.769
202.408
204.736
206.734
208.388
209.683
210.608
211.153
211.309
211.071
210.435
209.399
207.964
206.132
203.908
201.299
198.314
194.963
191.26
187.219
182.856
178.19
173.24
168.027
162.571
156.897
151.027
144.985
138.798
132.489
126.085
119.61
113.091
106.552
100.018
93.513
87.061
80.684
74.404
68.242
62.217
56.347
50.652
45.145
39.843
34.757
29.901
25.284
20.915
16.801
12.947
9.357
6.034
2.979
0.19
-2.332
-4.593
-6.595
-8.346
-9.851
-11.119
-12.159
-12.981
-13.596
-14.014
-14.249
-14.312
-14.217
-13.978
-13.607
-13.119
-12.528
-11.848
-11.093
-10.277
-9.414
-8.516
-7.597
-6.669
-5.743
-4.83
-3.94
-3.082
-2.266
-1.499
-0.787
-0.138
0.445
0.955
1.39
1.748
2.026
2.224
2.341
2.379
2.339
2.224
2.035
1.777
1.454
1.07
0.631
0.141
-0.392
-0.962
-1.563
-2.189
-2.832
-3.485
-4.143
-4.799
-5.447
-6.081
-6.695
-7.285
-7.847
-8.375
-8.866
-9.318
-9.727
-10.092
-10.411
-10.684
-10.91
-11.09
-11.225
-11.316
-11.365
-11.375
-11.349
-11.291
-11.204
-11.093
-10.964
-10.82
-10.667
-10.511
-10.358
-10.213
-10.081
-9.968
-9.879
-9.819
-9.793
-9.803
-9.855
-9.951
-10.093
-10.284
-10.525
-10.815
-11.156
-11.546
-11.984
-12.468
-12.996
-13.564
-14.17
-14.808
-15.474
-16.163
-16.87
-17.588
-18.31
-19.03
-19.741
-20.434
-21.104
-21.743
-22.342
-22.896
-23.396
-23.837
-24.211
-24.514
-24.74
-24.883
-24.941
-24.911
-24.791
-24.58
-24.278
-23.884
-23.403
-22.838
-22.192
-21.47
-20.677
-19.82
-18.906
-17.941
-16.932
-15.885
-14.807
-13.705
-12.588
-11.463
-10.338
-9.222
-8.123
-7.05
-6.011
-5.01
-4.05
-3.131
-2.256
-1.429
-0.656
0.057
0.71
1.301
1.829
2.294
2.703
3.068
3.416
3.765
4.133
4.531
4.962
5.431
5.948
6.52
7.158
7.87
8.656
9.517
10.457
11.461
12.503
13.518
14.425
15.145
15.618
15.804
15.669
15.16
14.218
12.788
10.804
8.24
5.049
1.114
-3.561
-8.858
-14.537
-20.12
-25.122
-29.22
-31.979
-32.918
-31.996
-29.41
-25.712
-22.139
-19.712
-19.098
-21.268
-26.96
-36.004
-47.787
-60.823
-72.375
-80.147
-82.138
-75.719
-58.857
-30.715
8.778
58.039
113.622
172.056
229.329
280.08
319.106
341.757
343.949
323.327
279.362
212.361
124.143
18.635
-99.126
-223.251
-347.305
-465.179
-571.243
-660.394
-728.632
-773.619
-794.543
-791.885
-767.376
-723.837
-665.134
-595.802
-520.651
-444.217
-370.434
-302.877
-244.458
-197.042
-161.141
-136.051
-120.195
-111.531
-107.868
-106.7
-105.451
-101.946
-94.967
-84.294
-70.341
-53.919
-36.003
-17.762
-0.558
14.338
26.233
35.03
40.965
44.485
46.06
46.139
45.27
44.011
42.704
41.49
40.394
39.363
38.376
37.459
36.624
35.844
35.113
34.434
33.825
33.331
33.001
32.88
33.022
33.489
34.334
35.596
37.314
39.5
42.156
45.273
48.814
52.741
57.029
61.652
66.58
71.779
77.182
82.7
88.255
93.762
99.149
104.37
109.376
114.133
118.623
122.847
126.821
130.577
134.139
137.525
140.756
143.854
146.858
149.82
152.776
155.757
158.777
161.845
164.973
168.171
171.446
174.793
178.194
181.617
185.027
188.391
191.683
194.878
197.946
200.866
203.624
206.212
208.645
210.919
213.016
214.91
216.555
217.899
218.913
219.578
219.889
219.858
219.481
218.755
217.675
216.213
214.339
212.021
209.198
205.833
201.912
197.426
192.41
186.923
181
174.673
167.954
160.82
153.273
145.321
136.978
128.295
119.324
110.128
100.805
91.453
82.156
73.012
64.073
55.354
46.892
38.724
30.903
23.523
16.656
10.353
4.659
-0.408
-4.843
-8.646
-11.857
-14.537
-16.756
-18.603
-20.138
-21.387
-22.387
-23.175
-23.799
-24.338
-24.85
-25.376
-25.955
-26.615
-27.379
-28.269
-29.28
-30.384
-31.542
-32.702
-33.828
-34.911
-35.935
-36.889
-37.76
-38.524
-39.169
-39.698
-40.111
-40.408
-40.587
-40.645
-40.592
-40.449
-40.241
-39.999
-39.744
-39.487
-39.238
-39.007
-38.8
-38.622
-38.473
-38.347
-38.239
-38.149
-38.076
-38.02
-37.979
-37.947
-37.919
-37.888
-37.851
-37.804
-37.745
-37.671
-37.58
-37.472
-37.349
-37.212
-37.061
-36.898
-36.722
-36.532
-36.328
-36.11
-35.877
-35.628
-35.363
-35.084
-34.791
-34.487
-34.173
-33.851
-33.525
-33.198
-32.872
-32.551
-32.239
-31.938
-31.653
-31.388
-31.146
-30.933
-30.752
-30.607
-30.502
-30.441
-30.429
-30.467
-30.56
-30.71
-30.921
-31.195
-31.536
-31.945
-32.426
-32.98
-33.609
-34.313
-35.093
-35.947
-36.875
-37.872
-38.937
-40.065
-41.249
-42.485
-43.768
-45.092
-46.448
-47.829
-49.227
-50.633
-52.038
-53.432
-54.803
-56.137
-57.424
-58.649
-59.803
-60.875
-61.851
-62.72
-63.471
-64.093
-64.579
-64.919
-65.099
-65.107
-64.93
-64.561
-64.004
-63.259
-62.324
-61.202
-59.894
-58.408
-56.757
-54.945
-52.966
-50.818
-48.495
-46.002
-43.358
-40.578
-37.681
-34.676
-31.56
-28.339
-25.031
-21.643
-18.18
-14.64
-11.013
-7.315
-3.595
0.107
3.748
7.299
10.75
