-58.983
-68.265
-77.405
-86.237
-94.613
-102.411
-109.549
-115.957
-121.597
-126.459
-130.559
-133.919
-136.585
-138.632
-140.173
-141.374
-142.414
-143.48
-144.731
-146.312
-148.386
-150.963
-153.917
-157.009
-159.795
-161.843
-162.887
-162.714
-161.11
-158.28
-154.629
-150.588
-147.03
-144.634
-143.649
-144.369
-146.868
-150.329
-153.572
-154.918
-151.666
-141.968
-125.002
-101.739
-74.901
-46.811
-18.204
14.766
57.095
111.863
178.734
248.568
309.368
349.079
356.069
327.162
264.422
175.02
71.755
-37.051
-148.928
-266.842
-395.998
-533.814
-667.741
-778.732
-850.97
-879.694
-870.584
-837.117
-791.134
-738.228
-680.982
-618.732
-550.601
-478.638
-405.645
-335.211
-272.127
-219.207
-176.769
-144.06
-119.446
-101.725
-90.307
-83.99
-80.452
-77.154
-72.554
-66.175
-58.261
-49.137
-38.976
-28.148
-17.656
-8.88
-2.598
1.088
2.499
2.215
0.726
-1.563
-4.015
-5.827
-6.494
-5.788
-3.69
-0.401
3.928
9.208
15.277
21.936
29.008
36.321
43.744
51.188
58.531
65.64
72.387
78.644
84.333
89.425
93.912
97.819
101.187
104.058
106.489
108.548
110.302
111.82
113.168
114.403
115.589
116.792
118.076
119.509
121.14
123
125.111
127.486
130.134
133.065
136.286
139.792
143.573
147.622
151.929
156.484
161.27
166.262
171.426
176.728
182.144
187.653
193.24
198.882
204.552
210.217
215.849
221.428
226.943
232.382
237.736
243.006
248.204
253.361
258.515
263.689
268.884
274.091
279.295
284.485
289.656
294.801
299.906
304.942
309.876
314.671
319.276
323.62
327.603
331.099
333.981
336.15
337.533
338.077
337.734
336.454
334.194
330.914
326.587
321.2
314.734
307.19
298.6
289.032
278.595
267.435
255.694
243.5
230.972
218.22
205.357
192.506
179.778
167.297
155.189
143.578
132.598
122.362
112.941
104.378
96.681
89.825
83.789
78.547
74.06
70.292
67.202
64.733
62.833
61.428
60.421
59.716
59.213
58.821
58.486
58.16
57.815
57.439
57.025
56.569
56.083
55.574
55.045
54.512
53.989
53.503
53.103
52.831
52.721
52.803
53.087
53.58
54.286
55.197
56.295
57.564
58.978
60.519
62.171
63.916
65.732
67.592
69.464
71.32
73.14
74.907
76.609
78.235
79.778
81.235
82.611
83.908
85.131
86.282
87.36
88.369
89.313
90.196
91.026
91.806
92.541
93.233
93.887
94.506
95.093
95.651
96.179
96.68
97.155
97.609
98.043
98.462
98.868
99.264
99.653
100.038
100.421
100.805
101.189
101.575
101.963
102.354
102.747
103.143
103.539
103.936
104.33
104.723
105.111
105.494
105.871
106.239
106.597
106.944
107.277
107.596
107.898
108.182
108.446
108.689
108.908
109.104
109.274
109.417
109.531
109.616
109.669
109.69
109.677
109.631
109.55
109.435
109.289
109.111
108.904
108.671
108.415
108.139
107.847
107.542
107.226
106.903
106.574
106.243
105.913
105.586
105.267
104.958
104.667
104.398
104.159
103.954
103.787
103.662
103.584
103.558
103.586
103.669
103.811
104.013
104.284
104.632
105.062
105.57
106.151
106.792
107.483
108.214
108.972
109.738
110.499
111.249
111.989
112.732
113.485
114.244
114.998
115.727
116.42
117.079
117.706
118.307
118.889
119.455
120.021
120.62
121.259
121.932
122.61
123.234
123.767
124.182
124.465
124.616
124.624
124.47
124.145
123.642
122.958
122.089
121.014
119.691
118.112
116.295
114.292
112.182
110.029
107.877
105.761
103.711
101.758
99.932
98.244
96.679
95.219
93.84
92.537
91.316
90.145
88.949
87.63
86.075
84.203
81.982
79.371
76.292
72.669
68.415
63.485
57.966
51.928
45.383
38.468
31.388
24.491
18.467
13.961
11.243
10.554
12.006
15.303
20.329
26.679
33.108
38.503
42.25
43.937
43.967
43.552
43.281
44.037
47.987
57.287
73.985
99.981
134.574
174.963
219.776
267.262
316.786
369.85
423.42
471.501
504.943
510.476
480.15
413.32
317.211
205.893
90.147
-26.659
-147.786
-276.427
-408.617
-531.228
-625.43
-679.915
-693.358
-673.505
-635.224
-588.005
-536.442
-482.483
-423.99
-361.282
-297.243
-235.066
-179.512
-133.983
-98.887
-73.331
-55.63
-44.15
-37.842
-35.285
-34.079
-31.869
-27.38
-20.262
-10.918
-0.058
11.843
24.011
35.051
43.795
49.663
52.54
52.846
51.155
47.902
43.681
39.289
35.32
32.159
30.014
28.858
28.654
29.397
31.003
33.34
36.295
39.761
43.657
47.926
52.484
57.22
62.021
66.783
71.429
75.894
80.118
84.051
87.643
90.877
93.762
96.319
98.577
100.573
102.345
103.942
105.424
106.844
108.255
109.704
111.228
112.866
114.655
116.626
118.814
121.241
123.922
126.865
130.081
133.568
137.32
141.325
145.56
150.005
154.637
159.43
164.352
169.377
174.475
179.623
184.799
189.977
195.13
200.233
205.256
210.18
214.995
219.692
224.268
228.733
233.093
237.369
241.591
245.77
249.906
253.991
258.006
261.942
265.786
269.514
273.102
276.518
279.719
282.665
285.308
287.572
289.378
290.632
291.232
291.107
290.199
288.465
285.871
282.375
277.951
272.6
266.331
259.161
251.112
242.198
232.455
221.967
210.824
199.143
187.047
174.635
162.009
149.275
136.54
123.926
111.535
99.437
87.698
76.381
65.559
55.319
45.722
36.783
28.506
20.876
13.871
7.483
1.684
-3.577
-8.361
-12.747
-16.794
-20.534
-24.002
-27.234
-30.28
-33.206
-36.055
-38.844
-41.586
-44.286
-46.95
-49.592
-52.203
-54.756
-57.215
-59.536
-61.689
-63.667
-65.459
-67.058
-68.452
-69.623
-70.567
-71.295
-71.815
-72.138
-72.271
-72.22
-72.001
-71.643
-71.177
-70.636
-70.045
-69.42
-68.777
-68.13
-67.491
-66.871
-66.275
-65.702
-65.154
-64.633
-64.143
-63.688
-63.267
-62.877
-62.514
-62.175
-61.856
-61.556
-61.273
-61.006
-60.752
-60.513
-60.29
-60.084
-59.897
-59.729
-59.579
-59.447
-59.332
-59.234
-59.154
-59.092
-59.047
-59.021
-59.015
-59.031
-59.07
-59.135
-59.228
-59.351
-59.506
-59.694
-59.92
-60.184
-60.49
-60.839
-61.233
-61.674
-62.162
-62.698
-63.282
-63.912
-64.589
-65.31
-66.072
-66.875
-67.713
-68.584
-69.487
-70.416
-71.368
-72.339
-73.324
-74.318
-75.317
-76.313
-77.3
-78.269
-79.212
-80.122
-80.991
-81.811
-82.575
-83.276
-83.905
-84.456
-84.927
-85.311
-85.6
-85.786
-85.862
-85.827
-85.687
-85.449
-85.115
-84.69
-84.179
-83.592
-82.943
-82.237
-81.469
-80.638
-79.738
-78.776
-77.767
-76.726
-75.668
-74.6
-73.518
-72.424
-71.329
-70.236
-69.142
-68.044
-66.928
-65.804
-64.715
-63.691
-62.761
-61.942
-61.229
-60.62
-60.117
-59.717
-59.421
-59.227
-59.118
-59.096
-59.172
-59.352
-59.652
-60.062
-60.523
-60.994
-61.451
-61.868
-62.249
-62.603
-62.927
-63.249
-63.619
-64.075
-64.668
-65.438
-66.408
-67.625
-69.142
-71.007
-73.294
-76.035
-79.243
-82.975
-87.267
-92.152
-97.657
-103.675
-110.076
-116.817
-123.732
-130.585
-137.057
-142.518
-146.365
-148.375
-148.346
-146.176
-142.129
-136.303
-129.084
-121.699
-115.277
-110.467
-107.688
-106.514
-105.882
-105.454
-104.379
-100.459
-91.501
-75.162
-50.35
-18.857
17.135
56.691
100.647
150.937
206.18
260.856
304.597
324.46
313.057
267.721
193.209
102.432
4.753
-93.78
-192.499
-298.644
-413.33
-530.156
-636.845
-715.766
-758.065
-764.681
-743.313
-706.871
-663.239
-616.027
-566.63
-513.233
-456.239
-398.023
-341.272
-290.362
-248.39
-215.702
-191.574
-174.468
-162.91
-156.067
-152.732
-150.753
-148.008
-143.36
-136.5
-127.798
-117.881
-107.138
-96.215
-86.321
-78.49
-73.222
-70.603
-70.243
-71.603
-74.279
-77.752
-81.309
-84.414
-86.719
-88.023
-88.367
-87.835
-86.47
-84.381
-81.709
-78.562
-75.047
-71.256
-67.247
-63.103
-58.925
-54.805
-50.839
-47.113
-43.695
-40.654
-38.028
-35.827
-34.04
-32.636
-31.577
-30.827
-30.338
-30.053
-29.918
-29.876
-29.874
-29.866
-29.802
-29.634
-29.315
-28.796
-28.043
-27.026
-25.727
-24.139
-22.259
-20.088
-17.638
-14.927
-11.979
-8.823
-5.482
-1.978
1.668
5.44
9.312
13.263
17.273
21.32
25.388
29.473
33.569
37.675
41.805
45.972
50.196
54.509
58.925
63.451
68.087
72.819
77.637
82.519
87.427
92.318
97.144
101.838
106.332
110.552
114.401
117.794
120.645
122.857
124.358
125.088
124.984
124.006
122.117
119.292
115.538
110.882
105.357
99.021
91.937
84.184
75.863
67.059
57.847
48.31
38.516
28.536
18.456
8.36
-1.67
-11.543
-21.199
-30.594
-39.687
-48.457
-56.89
-64.982
-72.741
-80.158
-87.206
-93.852
-100.062
-105.813
-111.11
-115.966
-120.404
-124.468
-128.192
-131.594
-134.698
-137.51
-140.031
-142.262
-144.2
-145.851
-147.241
-148.412
-149.4
-150.236
-150.936
-151.501
-151.923
-152.18
-152.253
-152.127
-151.795
-151.259
-150.528
-149.614
-148.533
-147.301
-145.928
-144.41
-142.752
-140.953
-139.023
-136.981
-134.847
-132.651
-130.422
-128.188
-125.971
-123.789
-121.657
-119.583
-117.576
-115.636
-113.768
-111.979
-110.272
-108.656
-107.133
-105.705
-104.371
-103.13
-101.978
-100.91
-99.923
-99.013
-98.177
-97.412
-96.716
-96.088
-95.527
-95.031
-94.596
-94.219
-93.897
-93.624
-93.398
-93.213
-93.064
-92.948
-92.862
-92.801
-92.764
-92.746
-92.746
-92.76
-92.788
-92.827
-92.876
-92.934
-92.999
-93.07
-93.147
-93.229
-93.316
-93.407
-93.501
-93.599
-93.7
-93.802
-93.907
-94.013
-94.118
-94.223
-94.326
-94.426
-94.522
-94.611
-94.694
-94.767
-94.829
-94.878
-94.91
-94.922
-94.911
-94.874
-94.805
-94.702
-94.559
-94.372
-94.137
-93.848
-93.501
-93.091
-92.612
-92.06
-91.43
-90.718
-89.917
-89.025
-88.037
-86.95
-85.759
-84.461
-83.053
-81.533
-79.9
-78.15
-76.283
-74.3
-72.199
-69.984
-67.657
-65.221
-62.681
-60.043
-57.314
-54.502
-51.614
-48.661
-45.651
-42.594
-39.501
-36.38
-33.243
-30.104
-26.974
-23.867
-20.795
-17.773
-14.814
-11.931
-9.138
-6.446
-3.867
-1.408
0.917
3.095
5.115
6.962
8.627
10.109
11.403
12.51
13.434
14.183
14.773
15.228
15.568
15.806
15.957
16.034
16.059
16.064
16.075
16.12
16.217
16.37
16.589
16.886
17.255
17.679
18.123
18.522
18.831
19.015
19.03
18.84
18.377
17.538
16.251
14.448
12.1
9.23
5.816
1.806
-2.824
-8.088
-13.908
-20.086
-26.501
-33.143
-39.866
-46.434
-52.377
-56.934
-59.636
-60.377
-59.123
-55.847
-50.505
-43.132
-34.347
-25.473
-17.594
-11.216
-6.124
-1.721
2.745
8.537
16.549
28.184
44.088
62.618
83.829
108.896
139.877
181.159
233.063
291.374
350.421
401.429
436.289
448.262
430.141
379.315
299.153
198.255
88.012
-25.737
-144.269
-270.696
-404.463
-534.696
-642.273
-711.721
-737.05
-723.265
-684.625
-633.642
-576.901
-517.699
-454.957
-387.254
-316.792
-246.587
-180.766
-124.728
-80.625
-47.817
-25.145
-10.504
-2.039
1.227
1.294
1.283
3.096
7.479
14.559
23.548
33.727
44.756
55.629
64.771
71.275
74.812
75.472
73.908
70.708
66.262
61.2
56.309
52.115
48.945
46.948
46.013
46.044
47.003
48.771
51.203
54.184
57.59
61.32
65.313
69.473
73.692
77.879
81.935
85.779
89.35
92.59
95.467
97.986
100.169
102.049
103.669
105.069
106.303
107.434
108.522
109.624
110.795
112.081
113.53
115.191
117.106
119.314
121.844
124.704
127.903
131.442
135.32
139.534
144.075
148.92
154.047
159.435
165.059
170.892
176.905
183.053
189.296
195.595
201.913
208.227
214.51
220.736
226.876
232.901
238.791
244.538
250.14
255.586
260.871
265.993
270.954
275.779
280.483
285.067
289.531
293.855
298.014
301.989
305.759
309.292
312.552
315.485
318.024
320.121
321.725
322.782
323.235
322.998
322.003
320.206
317.571
314.075
309.708
304.455
298.308
291.291
283.432
274.774
265.389
255.334
244.669
233.472
221.827
209.847
197.64
185.297
172.911
160.581
148.407
136.503
124.973
113.891
103.327
93.348
83.994
75.307
67.324
60.057
53.511
47.671
42.515
38.023
34.164
30.888
28.126
25.794
23.812
22.122
20.663
19.372
18.201
17.101
16.036
14.984
13.928
12.852
11.749
10.611
9.44
8.252
7.077
5.954
4.916
3.982
3.17
2.5
1.981
1.621
1.417
1.357
1.426
1.615
1.913
2.306
2.778
3.308
3.869
4.433
4.978
5.485
5.94
6.331
6.648
6.886
7.045
7.13
7.144
7.091
6.975
6.797
6.562
6.278
5.949
5.584
5.187
4.765
4.322
3.863
3.392
2.913
2.429
1.941
1.451
0.962
0.477
-0
-0.467
-0.921
-1.359
-1.779
-2.178
-2.555
-2.909
-3.24
-3.547
-3.83
-4.09
-4.328
-4.544
-4.741
-4.919
-5.081
-5.229
-5.364
-5.488
-5.605
-5.714
-5.82
-5.924
-6.027
-6.132
-6.241
-6.356
-6.478
-6.611
-6.755
-6.913
-7.085
-7.275
-7.482
-7.709
-7.956
-8.225
-8.516
-8.831
-9.168
-9.529
-9.912
-10.317
-10.743
-11.188
-11.649
-12.126
-12.616
-13.117
-13.625
-14.138
-14.653
-15.167
-15.676
-16.177
-16.666
-17.139
-17.592
-18.021
-18.421
-18.788
-19.118
-19.407
-19.651
-19.846
-19.988
-20.072
-20.095
-20.053
-19.944
-19.763
-19.509
-19.181
-18.776
-18.295
-17.739
-17.109
-16.408
-15.64
-14.809
-13.919
-12.975
-11.983
-10.947
-9.874
-8.771
-7.645
-6.504
-5.358
-4.217
-3.09
-1.987
-0.919
0.105
1.076
1.985
2.824
3.586
4.261
4.84
5.311
5.666
5.896
6.001
5.979
5.83
5.563
5.188
4.72
4.178
3.578
2.933
2.259
1.569
0.887
0.237
-0.36
-0.881
-1.308
-1.632
-1.841
-1.93
-1.913
-1.807
-1.65
-1.494
-1.378
-1.345
-1.442
-1.723
-2.271
-3.165
-4.47
-6.232
-8.459
-11.166
-14.41
-18.228
-22.639
-27.634
-33.095
-38.911
-45.086
-51.479
-57.802
-63.676
-68.431
-71.435
-72.489
-71.442
-68.093
-62.637
-55.386
-46.835
-38.269
-31.102
-25.979
-23.068
-22.182
-21.881
-20.219
-16.27
-8.407
4.545
21.222
42.213
69.157
103.206
148.035
205.192
271.53
340.651
402.954
446.528
460.314
439.051
381.601
293.983
190.425
81.188
-27.588
-135.731
-251.77
-377.141
-504.309
-619.501
-703.455
-746.353
-749.418
-721.197
-675.47
-621.339
-563.291
-502.616
-437.396
-368.492
-298.808
-232.263
-174.678
-128.99
-94.982
-71.716
-57.135
-49.357
-47.35
-49.002
-51.05
-51.376
-48.97
-43.493
-35.606
-25.949
-14.857
-3.402
6.711
14.441
19.343
21.419
21.289
19.513
16.479
12.863
9.533
7.091
5.886
6.038
7.391
9.81
13.232
17.518
22.493
28.002
33.896
40.053
46.401
52.843
59.248
65.492
71.444
76.989
82.064
86.634
90.691
94.249
97.336
99.986
102.245
104.171
105.82
107.251
108.519
109.674
110.775
111.882
113.058
114.361
115.836
117.508
119.396
121.515
123.874
126.482
129.344
132.453
135.803
139.387
143.197
147.223
151.448
155.847
160.39
165.049
169.798
174.617
179.488
184.388
189.294
194.186
199.039
203.838
208.576
213.244
217.836
222.361
226.824
231.24
235.634
240.016
244.385
248.738
253.056
257.321
261.515
265.608
269.571
273.368
276.947
280.254
283.231
285.8
287.887
289.416
290.293
290.451
289.839
288.409
286.138
283.009
279.008
274.134
268.393
261.792
254.359
246.132
237.155
227.497
217.224
206.411
195.152
183.527
171.615
159.501
147.253
134.936
122.629
110.409
98.358
86.569
75.12
64.072
53.492
43.43
33.931
25.036
16.765
9.132
2.146
-4.196
-9.899
-14.966
-19.428
-23.326
-26.714
-29.668
-32.253
-34.523
-36.534
-38.345
-40.006
-41.564
-43.056
-44.5
-45.918
-47.323
-48.726
-50.137
-51.55
-52.947
-54.301
-55.575
-56.739
-57.774
-58.66
-59.381
-59.925
-60.283
-60.457
-60.461
-60.305
-60.001
-59.56
-58.997
-58.33
-57.584
-56.784
-55.96
-55.137
-54.332
-53.563
-52.844
-52.185
-51.594
-51.073
-50.62
-50.235
-49.916
-49.664
-49.48
-49.361
-49.305
-49.308
-49.366
-49.478
-49.64
-49.85
-50.107
-50.409
-50.754
-51.143
-51.574
-52.048
-52.562
-53.114
-53.701
-54.319
-54.964
-55.635
-56.325
-57.032
-57.751
-58.481
-59.217
-59.957
-60.697
-61.435
-62.168
-62.894
-63.609
-64.311
-64.998
-65.668
-66.317
-66.943
-67.545
-68.119
-68.664
-69.178
-69.658
-70.104
-70.512
-70.884
-71.216
-71.51
-71.764
-71.98
-72.157
-72.297
-72.402
-72.472
-72.51
-72.518
-72.5
-72.457
-72.393
-72.31
-72.214
-72.106
-71.99
-71.87
-71.751
-71.635
-71.526
-71.429
-71.347
-71.284
-71.243
-71.228
-71.242
-71.288
-71.369
-71.486
-71.642
-71.838
-72.074
-72.352
-72.67
-73.029
-73.426
-73.859
-74.327
-74.827
-75.354
-75.905
-76.477
-77.063
-77.658
-78.257
-78.853
-79.441
-80.014
-80.564
-81.086
-81.573
-82.018
-82.413
-82.753
-83.03
-83.239
-83.373
-83.426
-83.392
-83.268
-83.05
-82.734
-82.318
-81.802
-81.184
-80.466
-79.65
-78.739
-77.735
-76.644
-75.471
-74.22
-72.899
-71.516
-70.077
-68.591
-67.068
-65.516
-63.946
-62.369
-60.795
-59.233
-57.694
-56.187
-54.723
-53.313
-51.966
-50.69
-49.492
-48.38
-47.365
-46.454
-45.648
-44.949
-44.354
-43.858
-43.456
-43.14
-42.892
-42.696
-42.532
-42.376
-42.214
-42.03
-41.81
-41.534
-41.182
-40.733
-40.178
-39.516
-38.746
-37.877
-36.924
-35.909
-34.888
-33.915
-33.058
-32.405
-32.02
-31.973
-32.317
-33.082
-34.315
-36.082
-38.439
-41.435
-45.103
-49.41
-54.347
-59.94
-66.048
-72.405
-78.617
-84.126
-88.459
-91.295
-92.352
-91.368
-88.419
-83.875
-78.324
-72.613
-67.571
-63.932
-62.142
-62.397
-63.66
-63.646
-60.53
-53.213
-42.318
-29.64
-15.463
3.014
30.763
71.565
126.301
190.464
255.213
314.254
363.077
398.141
417.465
413.662
378.207
309.18
209.858
91.1
-34.908
-164.496
-297.771
-434.047
-567.509
-682.142
-761.721
-798.689
-794.483
-761.08
-712.201
-655.703
-596.197
-533.75
-466.408
-395.842
-324.973
-257.826
-200.239
-154.833
-121.166
-98.147
-83.504
-75.209
-72.179
-72.324
-72.458
-70.604
-65.934
-58.279
-48.464
-37.252
-25.028
-12.866
-2.412
5.37
10.098
11.841
11.283
9.026
5.479
1.317
-2.63
-5.795
-7.804
-8.517
-8.068
-6.565
-4.068
-0.706
3.374
8.033
13.128
18.546
24.203
29.996
35.807
41.52
47.014
52.184
56.946
61.249
65.077
68.437
71.355
73.868
76.012
77.842
79.419
80.805
82.057
83.231
84.379
85.556
86.82
88.227
89.825
91.65
93.725
96.066
98.681
101.573
104.739
108.171
111.857
115.788
119.959
124.362
128.983
133.807
138.816
143.984
149.286
154.686
160.144
165.625
171.102
176.55
181.956
187.301
192.567
197.735
202.787
207.705
212.473
217.075
221.489
225.705
229.721
233.547
237.212
240.726
244.085
247.277
250.278
253.061
255.596
257.85
259.781
261.354
262.54
263.311
263.646
263.511
262.86
261.639
259.774
257.209
253.902
249.828
244.982
239.374
233.023
225.962
218.231
209.867
200.906
191.389
181.366
170.901
160.069
148.963
137.695
126.382
115.148
104.095
93.304
82.845
72.77
63.131
53.982
45.37
37.336
29.91
23.109
16.938
11.399
6.469
2.103
-1.763
-5.214
-8.319
-11.124
-13.672
-15.995
-18.133
-20.137
-22.045
-23.883
-25.677
-27.441
-29.191
-30.946
-32.704
-34.45
-36.154
-37.766
-39.257
-40.615
-41.826
-42.887
-43.788
-44.516
-45.068
-45.456
-45.687
-45.771
-45.717
-45.529
-45.219
-44.814
-44.342
-43.835
-43.319
-42.812
-42.327
-41.88
-41.481
-41.142
-40.868
-40.657
-40.509
-40.427
-40.411
-40.464
-40.587
-40.775
-41.021
-41.322
-41.673
-42.07
-42.51
-42.988
-43.5
-44.043
-44.616
-45.217
-45.844
-46.493
-47.16
-47.841
-48.53
-49.226
-49.922
-50.615
-51.3
-51.973
-52.631
-53.27
-53.889
-54.483
-55.051
-55.591
-56.1
-56.578
-57.024
-57.435
-57.813
-58.156
-58.465
-58.738
-58.978
-59.183
-59.355
-59.495
-59.603
-59.681
-59.731
-59.753
-59.75
-59.724
-59.677
-59.611
-59.529
-59.432
-59.325
-59.209
-59.087
-58.962
-58.836
-58.711
-58.59
-58.474
-58.366
-58.265
-58.175
-58.095
-58.027
-57.972
-57.932
-57.906
-57.896
-57.902
-57.926
-57.969
-58.029
-58.109
-58.207
-58.323
-58.458
-58.609
-58.778
-58.962
-59.161
-59.373
-59.599
-59.836
-60.083
-60.339
-60.603
-60.872
-61.146
-61.422
-61.701
-61.981
-62.262
-62.541
-62.82
-63.096
-63.37
-63.639
-63.902
-64.157
-64.401
-64.63
-64.843
-65.034
-65.203
-65.345
-65.46
-65.544
-65.596
-65.615
-65.6
-65.549
-65.462
-65.333
-65.159
-64.937
-64.663
-64.332
-63.94
-63.481
-62.951
-62.349
-61.672
-60.917
-60.079
-59.15
-58.123
-57
-55.784
-54.478
-53.09
-51.629
-50.109
-48.556
-46.993
-45.441
-43.911
-42.403
-40.918
-39.46
-38.031
-36.639
-35.281
-33.937
-32.595
-31.246
-29.879
-28.484
-27.03
-25.465
-23.745
-21.843
-19.751
-17.489
-15.077
-12.531
-9.876
-7.143
-4.385
-1.676
0.934
3.416
5.743
7.886
9.789
11.363
12.542
13.288
13.591
13.472
12.949
12.035
10.761
9.181
7.375
5.434
3.413
1.329
-0.823
-3.039
-5.286
-7.513
-9.692
-11.84
-14.012
-16.269
-18.655
-21.192
-23.894
-26.814
-30.06
-33.719
-37.848
-42.453
-47.414
-52.669
-58.238
-63.994
-69.736
-75.156
-79.647
-82.679
-84.063
-83.58
-81.102
-76.878
-70.93
-63.479
-55.601
-48.377
-42.54
-38.704
-36.073
-32.626
-27.554
-20.551
-12.18
-4.119
4.257
15.858
34.88
65.771
110.576
167.687
232.233
297.645
356.428
400.43
421.172
410.947
365.754
288.38
188.898
79.783
-30.998
-142.858
-260.334
-385.485
-510.664
-619.603
-695.837
-730.686
-726.641
-695.663
-650.518
-599.035
-545.141
-488.327
-426.774
-361.871
-296.181
-233.523
-179.258
-135.792
-102.844
-79.508
-63.793
-53.947
-49.053
-47.226
-45.553
-42.201
-36.361
-27.846
-17.4
-5.723
6.826
19.249
30.018
38.219
43.472
45.804
45.815
44.046
40.873
36.917
32.95
29.501
26.916
25.361
24.772
25.102
26.337
28.388
31.128
34.449
38.243
42.422
46.926
51.668
56.538
61.439
66.28
70.979
75.472
79.701
83.611
87.182
90.416
93.332
95.962
98.343
100.518
102.537
104.461
106.346
108.243
110.202
112.264
114.469
116.855
119.456
122.304
125.42
128.814
132.491
136.449
140.682
145.183
149.935
154.92
160.116
165.503
171.064
176.778
182.627
188.585
194.63
200.737
206.883
213.044
219.196
225.312
231.364
237.323
243.163
248.855
254.37
259.677
264.749
269.557
274.075
278.279
282.145
285.649
288.765
291.468
293.737
295.557
296.915
297.802
298.214
298.155
297.638
296.678
295.285
293.468
291.228
288.561
285.468
281.949
278.002
273.637
268.862
263.683
258.116
252.173
245.854
239.159
232.069
224.561
216.633
208.298
199.577
190.518
181.169
171.587
161.849
152.018
142.149
132.3
122.513
112.828
103.306
94.007
85.008
76.399
68.24
60.577
53.443
46.841
40.763
35.185
30.051
25.316
20.946
16.912
13.198
9.793
6.665
3.784
1.109
-1.414
-3.826
-6.155
-8.432
-10.664
-12.845
-14.96
-16.969
-18.838
-20.547
-22.085
-23.45
-24.648
-25.677
-26.538
-27.233
-27.756
-28.104
-28.279
-28.276
-28.104
-27.775
-27.311
-26.742
-26.097
-25.397
-24.659
-23.895
-23.113
-22.321
-21.525
-20.724
-19.922
-19.124
-18.334
-17.56
-16.807
-16.076
-15.369
-14.685
-14.021
-13.378
-12.756
-12.154
-11.575
-11.019
-10.491
-9.994
-9.533
-9.11
-8.728
-8.389
-8.092
-7.84
-7.634
-7.474
-7.361
-7.295
-7.278
-7.31
-7.393
-7.528
-7.716
-7.957
-8.252
-8.601
-9.004
-9.461
-9.971
-10.534
-11.149
-11.815
-12.531
-13.297
-14.11
-14.969
-15.872
-16.816
-17.8
-18.821
-19.875
-20.961
-22.074
-23.213
-24.375
-25.557
-26.757
-27.972
-29.201
-30.44
-31.688
-32.94
-34.196
-35.451
-36.704
-37.951
-39.191
-40.421
-41.64
-42.845
-44.035
-45.208
-46.363
-47.498
-48.611
-49.702
-50.769
-51.81
-52.827
-53.816
-54.778
-55.711
-56.614
-57.487
-58.328
-59.134
-59.904
-60.635
-61.324
-61.97
-62.57
-63.118
-63.614
-64.054
-64.437
-64.76
-65.022
-65.219
-65.35
-65.414
-65.407
-65.328
-65.171
-64.933
-64.609
-64.198
-63.697
-63.104
-62.417
-61.633
-60.752
-59.776
-58.706
-57.542
-56.278
-54.91
-53.442
-51.883
-50.245
-48.542
-46.784
-44.981
-43.149
-41.308
-39.471
-37.643
-35.818
-33.993
-32.168
-30.356
-28.577
-26.849
-25.182
-23.575
-22.023
-20.529
-19.093
-17.71
-16.366
-15.042
-13.736
-12.473
-11.295
-10.242
-9.335
-8.584
-7.984
-7.528
-7.218
-7.05
-7.025
-7.137
-7.384
-7.777
-8.336
-9.075
-9.989
-11.04
-12.165
-13.316
-14.455
-15.551
-16.597
-17.589
-18.534
-19.469
-20.427
-21.435
-22.526
-23.72
-25.038
-26.531
-28.25
-30.259
-32.623
-35.36
-38.518
-42.176
-46.389
-51.221
-56.659
-62.546
-68.78
-75.325
-82.018
-88.671
-94.878
-99.919
-103.344
-105.024
-104.847
-102.854
-99.111
-93.446
-86.317
-78.966
-72.197
-66.497
-61.94
-57.715
-53.21
-48.551
-43.057
-34.835
-22.086
-2.814
24.166
57.285
94.305
134.406
176.755
221.387
268.863
315.795
355.262
378.162
374.468
337.748
269.385
178.801
76.778
-27.888
-133.166
-245.593
-367.334
-493.324
-610.922
-700.704
-751.81
-763.675
-743.832
-706.362
-660.35
-610.231
-557.71
-500.664
-439.254
-375.879
-313.511
-257.173
-210.509
-174.158
-147.46
-128.661
-116.078
-108.758
-105.326
-103.426
-100.746
-95.979
-88.745
-79.467
-68.849
-57.352
-45.728
-35.301
-27.183
-21.922
-19.602
-19.782
-21.853
-25.342
-29.635
-33.922
-37.587
-40.23
-41.619
-41.785
-40.808
-38.729
-35.662
-31.764
-27.161
-21.976
-16.323
-10.281
-3.956
2.52
9.024
15.424
21.607
27.481
32.961
37.996
42.565
46.67
50.336
53.594
56.479
59.038
61.325
63.397
65.309
67.116
68.868
70.621
72.428
74.335
76.389
78.622
81.059
83.722
86.625
89.768
93.152
96.766
100.594
104.618
108.819
113.165
117.632
122.195
126.834
131.539
136.293
141.074
145.859
150.615
155.323
159.978
164.576
169.115
173.605
178.061
182.519
187.037
191.654
196.391
201.251
206.21
211.251
216.368
221.548
226.777
232.028
237.246
242.386
247.404
252.227
256.764
260.888
264.428
267.251
269.259
270.372
270.548
269.741
267.891
264.962
260.931
255.781
249.52
242.151
233.664
224.106
213.555
202.133
190.02
177.36
164.273
150.878
137.272
123.558
109.863
96.29
82.934
69.914
57.33
45.29
33.924
23.303
13.466
4.426
-3.855
-11.399
-18.214
-24.33
-29.77
-34.562
-38.758
-42.403
-45.54
-48.254
-50.621
-52.717
-54.637
-56.441
-58.169
-59.853
-61.501
-63.118
-64.714
-66.286
-67.827
-69.337
-70.802
-72.208
-73.539
-74.753
-75.816
-76.702
-77.379
-77.834
-78.062
-78.058
-77.829
-77.395
-76.768
-75.97
-75.022
-73.941
-72.746
-71.462
-70.112
-68.729
-67.34
-65.964
-64.619
-63.32
-62.075
-60.893
-59.778
-58.725
-57.733
-56.799
-55.919
-55.094
-54.319
-53.59
-52.901
-52.247
-51.622
-51.023
-50.445
-49.886
-49.341
-48.81
-48.29
-47.782
-47.284
-46.797
-46.317
-45.844
-45.376
-44.912
-44.452
-43.995
-43.541
-43.091
-42.645
-42.205
-41.774
-41.354
-40.946
-40.553
-40.178
-39.823
-39.493
-39.19
-38.917
-38.676
-38.471
-38.305
-38.179
-38.096
-38.056
-38.061
-38.111
-38.207
-38.349
-38.536
-38.768
-39.043
-39.36
-39.716
-40.11
-40.54
-41.001
-41.492
-42.008
-42.546
-43.102
-43.67
-44.248
-44.83
-45.412
-45.989
-46.556
-47.109
-47.643
-48.154
-48.638
-49.091
-49.511
-49.892
-50.234
-50.534
-50.789
-50.999
-51.163
-51.28
-51.35
-51.373
-51.351
-51.285
-51.175
-51.025
-50.836
-50.61
-50.352
-50.063
-49.748
-49.409
-49.052
-48.678
-48.293
-47.901
-47.505
-47.109
-46.718
-46.335
-45.963
-45.607
-45.269
-44.951
-44.656
-44.385
-44.14
-43.921
-43.727
-43.559
-43.415
-43.293
-43.192
-43.109
-43.041
-42.984
-42.936
-42.891
-42.845
-42.793
-42.731
-42.651
-42.549
-42.419
-42.254
-42.049
-41.797
-41.492
-41.127
-40.696
-40.194
-39.613
-38.948
-38.193
-37.345
-36.399
-35.352
-34.203
-32.95
-31.593
-30.136
-28.58
-26.93
-25.188
-23.361
-21.454
-19.475
-17.428
-15.323
-13.167
-10.97
-8.745
-6.502
-4.256
-2.019
0.197
2.377
4.508
6.577
8.571
10.482
12.295
13.996
15.569
16.995
18.263
19.366
20.301
21.065
21.66
22.093
22.374
22.526
22.565
22.499
22.338
22.086
21.755
21.372
20.96
20.544
20.141
19.756
19.395
19.064
18.757
18.458
18.136
17.736
17.219
16.561
15.734
14.718
13.471
11.921
10.007
7.674
4.892
1.668
-2.003
-6.151
-10.791
-15.929
-21.549
-27.542
-33.842
-40.45
-47.23
-53.953
-60.234
-65.45
-69.038
-70.622
-69.904
-66.702
-61.212
-53.817
-45.24
-36.705
-29.403
-24.339
-22.081
-22.555
-24.898
-27.854
-29.99
-29.22
-23.02
-8.786
15.379
49.457
91.218
138.188
188.932
243.617
302.376
361.714
414.266
448.705
454.501
426.717
366.425
282.324
185.12
82.163
-24.381
-139.005
-265.586
-401.019
-533.797
-645.101
-718.963
-749.574
-740.701
-704.685
-654.387
-597.236
-537.233
-474.256
-406.982
-337.264
-268.309
-204.59
-151.223
-110.039
-80.429
-61.062
-49.406
-43.422
-41.515
-40.979
-39.288
-35.151
-27.93
-17.844
-5.904
7.147
20.402
32.28
41.65
48.006
51.16
51.519
49.726
46.266
41.805
37.215
33.098
29.843
27.68
26.589
26.524
27.476
29.341
31.969
35.234
39.018
43.222
47.778
52.592
57.544
62.517
67.402
72.104
76.547
80.664
84.391
87.693
90.564
93.02
95.093
96.819
98.241
99.411
100.39
101.239
102.019
102.784
103.582
104.461
105.467
106.644
108.031
109.657
111.54
113.694
116.131
118.859
121.883
125.194
128.776
132.612
136.687
140.979
145.467
150.115
154.891
159.767
164.72
169.734
174.786
179.847
184.883
189.861
194.76
199.57
204.282
208.888
213.39
217.798
222.146
226.473
230.806
235.148
239.483
243.79
248.059
252.282
256.453
260.557
264.563
268.432
272.137
275.637
278.869
281.744
284.133
285.908
286.974
287.27
286.76
285.41
283.178
280.025
275.928
270.874
264.86
257.873
249.888
240.911
230.992
220.228
208.761
196.733
184.257
171.424
158.322
145.05
131.717
118.426
105.267
92.336
79.744
67.638
56.171
45.46
35.574
26.534
18.326
10.94
4.378
-1.369
-6.318
-10.506
-13.977
-16.768
-18.917
-20.483
-21.558
-22.274
-22.766
-23.137
-23.458
-23.773
-24.112
-24.507
-24.989
-25.568
-26.244
-27.012
-27.867
-28.814
-29.854
-30.968
-32.115
-33.23
-34.258
-35.16
-35.916
-36.515
-36.95
-37.216
-37.317
-37.273
-37.106
-36.835
-36.477
-36.038
-35.532
-34.98
-34.408
-33.85
-33.331
-32.869
-32.477
-32.164
-31.939
-31.807
-31.766
-31.807
-31.922
-32.106
-32.356
-32.67
-33.044
-33.472
-33.948
-34.465
-35.017
-35.602
-36.213
-36.846
-37.496
-38.16
-38.834
-39.519
-40.209
-40.903
-41.595
-42.282
-42.959
-43.622
-44.267
-44.889
-45.484
-46.048
-46.579
-47.074
-47.53
-47.945
-48.317
-48.645
-48.927
-49.163
-49.353
-49.496
-49.592
-49.642
-49.647
-49.607
-49.524
-49.398
-49.232
-49.027
-48.786
-48.511
-48.205
-47.871
-47.512
-47.131
-46.732
-46.318
-45.894
-45.464
-45.031
-44.599
-44.173
-43.757
-43.354
-42.967
-42.601
-42.258
-41.94
-41.652
-41.394
-41.168
-40.976
-40.82
-40.7
-40.616
-40.569
-40.557
-40.581
-40.64
-40.731
-40.853
-41.004
-41.181
-41.382
-41.603
-41.843
-42.096
-42.361
-42.632
-42.907
-43.181
-43.451
-43.713
-43.963
-44.198
-44.413
-44.607
-44.776
-44.918
-45.029
-45.109
-45.155
-45.166
-45.141
-45.079
-44.98
-44.845
-44.673
-44.467
-44.227
-43.954
-43.651
-43.319
-42.961
-42.578
-42.174
-41.75
-41.307
-40.85
-40.379
-39.897
-39.407
-38.909
-38.405
-37.898
-37.387
-36.874
-36.36
-35.844
-35.327
-34.807
-34.285
-33.759
-33.227
-32.688
-32.141
-31.581
-31.008
-30.418
-29.807
-29.172
-28.51
-27.818
-27.093
-26.331
-25.531
-24.691
-23.81
-22.887
-21.924
-20.921
-19.879
-18.801
-17.69
-16.548
-15.38
-14.189
-12.978
-11.753
-10.521
-9.29
-8.068
-6.863
-5.682
-4.536
-3.434
-2.386
-1.399
-0.482
0.359
1.115
1.773
2.321
2.748
3.043
3.207
3.238
3.133
2.898
2.54
2.072
1.515
0.886
0.195
-0.549
-1.337
-2.153
-2.969
-3.76
-4.503
-5.179
-5.781
-6.307
-6.744
-7.096
-7.382
-7.629
-7.889
-8.206
-8.606
-9.121
-9.784
-10.639
-11.767
-13.245
-15.129
-17.459
-20.227
-23.436
-27.144
-31.376
-36.142
-41.438
-47.123
-53.09
-59.351
-65.755
-72.055
-77.927
-82.733
-85.883
-87.195
-86.464
-83.563
-78.802
-72.378
-64.678
-56.794
-49.831
-44.497
-41.21
-39.774
-38.62
-35.969
-31.199
-23.313
-11.957
1.512
19.174
43.823
76.014
119.116
171.81
229.063
289.152
345.672
392.02
422.201
424.89
393.294
327.197
232.849
123.806
10.885
-102.476
-219.617
-344.579
-474.266
-596.458
-692.96
-751.243
-768.635
-752.098
-715.546
-668.435
-615.716
-558.885
-495.475
-426.488
-355.404
-285.988
-223.867
-172.847
-133.544
-105.612
-87.71
-77.823
-74.484
-75.97
-79.421
-82.06
-82.278
-79.342
-73.333
-64.924
-54.647
-43.159
-31.814
-22.093
-14.844
-10.349
-8.381
-8.377
-9.862
-12.406
-15.35
-17.939
-19.664
-20.249
-19.641
-17.977
-15.366
-11.877
-7.633
-2.793
2.508
8.138
13.995
20.016
26.109
32.174
38.109
43.813
49.197
54.194
58.761
62.884
66.571
69.848
72.74
75.285
77.527
79.52
81.318
82.973
84.532
86.038
87.537
89.08
90.714
92.484
94.418
96.536
98.852
101.377
104.117
107.083
110.272
113.673
117.277
121.074
125.05
129.19
133.471
137.861
142.333
146.861
151.422
156.001
160.577
165.13
169.641
174.089
178.46
182.751
186.957
191.08
195.131
199.122
203.071
207.014
210.966
214.94
218.936
222.942
226.946
230.927
234.852
238.692
242.408
245.94
249.232
252.219
254.82
256.97
258.591
259.582
259.872
259.392
258.085
255.922
252.877
248.934
244.1
238.39
231.831
224.482
216.399
207.643
198.295
188.408
178.052
167.332
156.336
145.157
133.891
122.614
111.408
100.367
89.56
79.044
68.869
59.05
49.613
40.587
31.993
23.881
16.282
9.199
2.636
-3.41
-8.96
-14.028
-18.649
-22.888
-26.79
-30.386
-33.702
-36.74
-39.513
-42.048
-44.368
-46.514
-48.52
-50.404
-52.185
-53.88
-55.492
-57.021
-58.448
-59.73
-60.839
-61.763
-62.493
-63.038
-63.403
-63.583
-63.581
-63.397
-63.034
-62.497
-61.792
-60.922
-59.898
-58.737
-57.463
-56.113
-54.717
-53.295
-51.864
-50.435
-49.02
-47.629
-46.27
-44.944
-43.654
-42.403
-41.197
-40.041
-38.937
-37.887
-36.889
-35.938
-35.031
-34.167
-33.343
-32.559
-31.814
-31.106
-30.436
-29.807
-29.219
-28.674
-28.17
-27.705
-27.279
-26.891
-26.54
-26.222
-25.937
-25.684
-25.461
-25.268
-25.105
-24.97
-24.865
-24.787
-24.738
-24.716
-24.723
-24.758
-24.821
-24.912
-25.032
-25.18
-25.358
-25.564
-25.799
-26.063
-26.355
-26.677
-27.025
-27.401
-27.803
-28.231
-28.683
-29.159
-29.657
-30.177
-30.717
-31.277
-31.856
-32.451
-33.061
-33.685
-34.32
-34.964
-35.615
-36.271
-36.928
-37.585
-38.239
-38.886
-39.525
-40.153
-40.767
-41.364
-41.941
-42.496
-43.027
-43.53
-44.003
-44.444
-44.85
-45.219
-45.549
-45.839
-46.086
-46.289
-46.445
-46.555
-46.616
-46.627
-46.588
-46.498
-46.357
-46.165
-45.922
-45.63
-45.29
-44.902
-44.47
-43.995
-43.481
-42.929
-42.344
-41.727
-41.083
-40.415
-39.727
-39.023
-38.307
-37.582
-36.854
-36.127
-35.406
-34.696
-34.002
-33.327
-32.678
-32.058
-31.474
-30.929
-30.427
-29.974
-29.572
-29.225
-28.938
-28.711
-28.547
-28.447
-28.411
-28.44
-28.531
-28.683
-28.892
-29.155
-29.47
-29.833
-30.239
-30.686
-31.168
-31.683
-32.228
-32.796
-33.383
-33.979
-34.577
-35.168
-35.743
-36.293
-36.806
-37.271
-37.68
-38.028
-38.306
-38.508
-38.623
-38.639
-38.548
-38.349
-38.042
-37.627
-37.107
-36.49
-35.788
-35.027
-34.226
-33.401
-32.555
-31.688
-30.8
-29.895
-28.979
-28.056
-27.117
-26.152
-25.156
-24.13
-23.069
-21.959
-20.769
-19.455
-17.984
-16.351
-14.565
-12.643
-10.6
-8.454
-6.231
-3.969
-1.72
0.477
2.596
4.621
6.527
8.268
9.781
10.992
11.856
12.363
12.515
12.313
11.762
10.875
9.678
8.223
6.566
4.723
2.702
0.495
-1.893
-4.429
-7.074
-9.798
-12.597
-15.517
-18.597
-21.859
-25.313
-28.946
-32.767
-36.843
-41.222
-45.93
-50.969
-56.236
-61.657
-67.255
-72.909
-78.421
-83.467
-87.388
-89.603
-89.911
-88.126
-84.188
-78.406
-70.915
-62.165
-53.435
-45.87
-40.128
-36.639
-35.012
-34.125
-33.446
-32.119
-28.069
-19.179
-3.419
21.029
53.545
91.53
133.679
178.255
224.425
273.3
321.88
364.603
393.18
395.529
364.249
298.619
205.161
96.534
-17.312
-132.935
-252.839
-378.845
-506.2
-622.737
-711.683
-763.223
-776.712
-758.655
-721.074
-672.034
-615.736
-554.418
-487.551
-416.87
-345.876
-278.536
-220.085
-173.328
-138.251
-113.892
-98.193
-89.205
-85.679
-85.47
-85.486
-83.669
-79.042
-71.377
-61.411
-49.881
-37.218
-24.498
-13.384
-4.893
0.524
2.856
2.718
0.677
-2.853
-7.184
-11.458
-15.082
-17.669
-19.028
-19.249
-18.404
-16.527
-13.748
-10.216
-6.067
-1.432
3.584
8.908
14.439
20.053
25.632
31.056
36.221
41.045
45.452
49.398
52.87
55.878
58.452
60.628
62.446
63.957
65.22
66.293
67.235
68.1
68.938
69.803
70.747
71.818
73.061
74.509
76.181
78.093
80.255
82.677
85.366
88.321
91.532
94.987
98.677
102.587
106.705
111.006
115.461
120.04
124.722
129.486
134.318
139.198
144.097
148.992
153.856
158.673
163.437
168.142
172.782
177.364
181.904
186.429
190.978
195.57
200.207
204.88
209.573
214.279
218.995
223.706
228.388
233.008
237.524
241.898
246.082
250.002
253.56
256.643
259.13
260.929
261.978
262.226
261.629
260.136
257.698
254.295
249.924
244.592
238.306
231.07
222.906
213.883
204.106
193.703
182.809
171.539
159.987
148.258
136.46
124.711
113.133
101.816
90.833
80.261
70.181
60.689
51.858
43.719
36.265
29.473
23.314
17.767
12.815
8.413
4.509
1.033
-2.09
-4.908
-7.462
-9.798
-11.969
-14.043
-16.076
-18.092
-20.097
-22.092
-24.074
-26.045
-28.006
-29.933
-31.795
-33.553
-35.166
-36.609
-37.868
-38.923
-39.758
-40.351
-40.688
-40.769
-40.604
-40.205
-39.58
-38.74
-37.696
-36.47
-35.092
-33.59
-31.997
-30.335
-28.623
-26.881
-25.125
-23.368
-21.624
-19.899
-18.196
-16.518
-14.872
-13.262
-11.694
-10.169
-8.687
-7.247
-5.849
-4.493
-3.178
-1.905
-0.675
0.511
1.652
2.746
3.79
4.782
5.721
6.609
7.445
8.229
8.963
9.648
10.284
10.873
11.417
11.914
12.367
12.775
13.14
13.462
13.741
13.98
14.178
14.335
14.453
14.531
14.57
14.57
14.531
14.453
14.337
14.181
13.988
13.755
13.485
13.178
12.833
12.45
12.032
11.576
11.085
10.559
9.998
9.403
8.775
8.115
7.424
6.704
5.955
5.181
4.382
3.56
2.717
1.857
0.98
0.09
-0.812
-1.721
-2.637
-3.555
-4.473
-5.387
-6.295
-7.194
-8.08
-8.95
-9.801
-10.63
-11.435
-12.212
-12.959
-13.674
-14.354
-14.998
-15.604
-16.172
-16.699
-17.185
-17.631
-18.036
-18.4
-18.724
-19.009
-19.256
-19.467
-19.643
-19.786
-19.9
-19.985
-20.046
-20.086
-20.107
-20.114
-20.109
-20.096
-20.081
-20.065
-20.054
-20.05
-20.058
-20.082
-20.124
-20.188
-20.277
-20.391
-20.533
-20.704
-20.904
-21.133
-21.391
-21.675
-21.985
-22.318
-22.671
-23.04
-23.423
-23.814
-24.208
-24.6
-24.985
-25.355
-25.706
-26.029
-26.318
-26.566
-26.766
-26.909
-26.989
-26.998
-26.928
-26.772
-26.523
-26.174
-25.719
-25.152
-24.468
-23.664
-22.738
-21.686
-20.51
-19.209
-17.788
-16.248
-14.595
-12.834
-10.972
-9.014
-6.971
-4.85
-2.661
-0.412
1.881
4.208
6.553
8.903
11.243
13.559
15.836
18.057
20.21
22.28
24.256
26.124
27.867
29.467
30.909
32.181
33.276
34.191
34.922
35.469
35.839
36.042
36.096
36.015
35.806
35.476
35.031
34.483
33.858
33.18
32.47
31.743
31.008
30.269
29.54
28.817
28.087
27.327
26.496
25.558
24.5
23.303
21.948
20.402
18.608
16.506
14.055
11.231
8.041
4.492
0.541
-3.835
-8.657
-13.93
-19.536
-25.389
-31.491
-37.714
-43.86
-49.63
-54.409
-57.621
-59.077
-58.606
-56.138
-51.993
-46.313
-39.505
-32.815
-27.37
-23.783
-22.464
-23.005
-24.193
-25.513
-26.169
-23.959
-16.726
-2.406
20.944
52.52
89.496
130.724
174.683
220.46
269.215
317.772
360.204
388.735
391.947
362.687
300.534
212.372
111.029
6.762
-96.891
-203.664
-317.003
-433.223
-540.33
-620.859
-664.436
-670.602
-647.357
-608.511
-562.73
-513.913
-463.311
-409.111
-351.836
-294.263
-239.525
-191.582
-153.018
-124.144
-104.044
-90.741
-82.52
-77.894
-74.978
-72.237
-68.192
-61.841
-53.2
-42.851
-31.442
-19.92
-9.498
-0.926
5.188
8.506
9.283
7.923
4.882
0.857
-3.362
-7.237
-10.354
-12.445
-13.503
-13.518
-12.504
-10.584
-7.898
-4.566
-0.709
3.587
8.258
13.205
18.315
23.474
28.551
33.441
38.053
42.301
46.135
49.527
52.474
54.997
57.127
58.9
60.363
61.566
62.561
63.4
64.136
64.82
65.508
66.252
67.102
68.106
69.3
70.708
72.352
74.24
76.378
78.769
81.414
84.311
87.457
90.843
94.46
98.298
102.338
106.564
110.951
115.466
120.08
124.764
129.493
134.252
139.025
143.793
148.535
153.23
157.861
162.426
166.923
171.344
175.688
179.952
184.145
188.292
192.412
196.507
200.573
204.587
208.523
212.361
216.075
219.629
222.982
226.076
228.853
231.27
233.277
234.82
235.83
236.217
235.908
234.852
233.01
230.36
226.887
222.584
217.456
211.538
204.869
197.495
189.466
180.816
171.597
161.882
151.76
141.338
130.721
120
109.271
98.636
88.186
77.999
68.135
58.627
49.514
40.838
32.65
24.999
17.915
11.406
5.466
0.085
-4.763
-9.108
-12.998
-16.506
-19.694
-22.603
-25.263
-27.689
-29.906
-31.953
-33.874
-35.704
-37.468
-39.181
-40.856
-42.508
-44.14
-45.742
-47.286
-48.727
-50.034
-51.192
-52.197
-53.05
-53.749
-54.286
-54.652
-54.854
-54.897
-54.79
-54.539
-54.147
-53.623
-52.989
-52.272
-51.508
-50.722
-49.933
-49.154
-48.397
-47.674
-46.994
-46.365
-45.786
-45.258
-44.782
-44.363
-44.005
-43.708
-43.471
-43.289
-43.156
-43.07
-43.028
-43.026
-43.062
-43.132
-43.235
-43.371
-43.54
-43.742
-43.974
-44.235
-44.521
-44.832
-45.164
-45.515
-45.883
-46.264
-46.658
-47.061
-47.474
-47.894
-48.32
-48.751
-49.186
-49.625
-50.066
-50.509
-50.953
-51.397
-51.843
-52.288
-52.734
-53.179
-53.624
-54.069
-54.513
-54.956
-55.398
-55.838
-56.276
-56.711
-57.142
-57.569
-57.991
-58.407
-58.816
-59.217
-59.608
-59.99
-60.359
-60.715
-61.056
-61.38
-61.686
-61.971
-62.233
-62.472
-62.684
-62.869
-63.024
-63.149
-63.242
-63.3
-63.325
-63.314
-63.267
-63.183
-63.062
-62.903
-62.708
-62.477
-62.21
-61.908
-61.573
-61.207
-60.811
-60.389
-59.943
-59.475
-58.99
-58.491
-57.981
-57.465
-56.948
-56.433
-55.924
-55.428
-54.948
-54.49
-54.058
-53.656
-53.29
-52.965
-52.683
-52.449
-52.267
-52.14
-52.071
-52.062
-52.115
-52.233
-52.415
-52.662
-52.973
-53.348
-53.785
-54.28
-54.83
-55.432
-56.08
-56.77
-57.494
-58.246
-59.019
-59.806
-60.598
-61.387
-62.165
-62.921
-63.646
-64.332
-64.968
-65.544
-66.05
-66.474
-66.807
-67.04
-67.164
-67.169
-67.047
-66.791
-66.394
-65.85
-65.158
-64.311
-63.306
-62.14
-60.811
-59.325
-57.69
-55.911
-53.995
-51.951
-49.788
-47.519
-45.159
-42.712
-40.188
-37.594
-34.938
-32.241
-29.521
-26.797
-24.088
-21.406
-18.758
-16.161
-13.631
-11.173
-8.797
-6.511
-4.316
-2.246
-0.327
1.426
2.992
4.372
5.571
6.589
7.435
8.12
8.648
9.029
9.272
9.366
9.315
9.126
8.802
8.386
7.913
7.397
6.862
6.316
5.755
5.177
4.567
3.883
3.1
2.201
1.162
-0.014
-1.353
-2.906
-4.713
-6.839
-9.326
-12.173
-15.398
-19.037
-23.112
-27.649
-32.65
-38.016
-43.693
-49.694
-55.9
-62.107
-67.956
-72.86
-76.301
-77.942
-77.521
-74.858
-70.114
-63.641
-56.126
-48.732
-42.549
-38.438
-36.853
-37.725
-40.305
-43.383
-45.511
-44.771
-38.908
-25.69
-3.593
28.185
68.412
114.144
163.12
212.433
260.218
306.559
348.635
381.868
399.126
389.214
345.932
269.938
168.406
55.074
-61.412
-180.08
-302.865
-431.211
-557.493
-665.125
-738.947
-771.351
-764.704
-730.969
-682.701
-627.42
-569.534
-509.049
-444.281
-376.807
-309.272
-245.485
-190.967
-148.136
-116.482
-94.932
-81.357
-73.875
-71.525
-72.333
-73.24
-72.367
-68.924
-62.73
-54.537
-45.019
-34.508
-23.994
-15.015
-8.462
-4.656
-3.497
-4.337
-6.609
-9.917
-13.626
-16.948
-19.343
-20.509
-20.358
-19.043
-16.698
-13.393
-9.258
-4.461
0.848
6.521
12.433
18.508
24.65
30.729
36.623
42.21
47.379
52.075
56.273
59.962
63.161
65.9
68.213
70.148
71.767
73.125
74.279
75.284
76.189
77.051
77.931
78.888
79.978
81.241
82.703
84.386
86.304
88.463
90.866
93.509
96.385
99.492
102.832
106.4
110.192
114.194
118.391
122.767
127.301
131.964
136.721
141.537
146.386
151.249
156.115
160.971
165.802
170.587
175.308
179.957
184.527
189.008
193.381
197.635
201.767
205.792
209.742
213.638
217.477
221.241
224.903
228.439
231.822
235.016
237.973
240.634
242.952
244.894
246.441
247.565
248.215
248.321
247.801
246.592
244.661
241.985
238.547
234.335
229.358
223.645
217.252
210.243
202.652
194.502
185.813
176.623
167.008
157.058
146.871
136.539
126.146
115.783
105.558
95.565
85.865
76.506
67.504
58.886
50.717
43.058
35.96
29.457
23.551
18.233
13.499
9.33
5.688
2.518
-0.265
-2.726
-4.902
-6.822
-8.504
-9.977
-11.299
-12.519
-13.668
-14.775
-15.85
-16.907
-17.969
-19.038
-20.098
-21.116
-22.046
-22.857
-23.541
-24.09
-24.502
-24.771
-24.881
-24.828
-24.622
-24.272
-23.786
-23.172
-22.432
-21.578
-20.637
-19.635
-18.607
-17.576
-16.558
-15.566
-14.613
-13.71
-12.866
-12.086
-11.366
-10.705
-10.104
-9.565
-9.09
-8.678
-8.322
-8.019
-7.764
-7.551
-7.378
-7.241
-7.135
-7.058
-7.008
-6.984
-6.984
-7.008
-7.053
-7.115
-7.193
-7.283
-7.382
-7.489
-7.599
-7.711
-7.822
-7.931
-8.037
-8.139
-8.237
-8.328
-8.415
-8.496
-8.572
-8.643
-8.711
-8.775
-8.836
-8.896
-8.956
-9.016
-9.078
-9.143
-9.212
-9.285
-9.364
-9.45
-9.543
-9.644
-9.756
-9.877
-10.009
-10.154
-10.31
-10.48
-10.662
-10.859
-11.068
-11.291
-11.527
-11.776
-12.037
-12.31
-12.593
-12.886
-13.189
-13.499
-13.815
-14.137
-14.463
-14.791
-15.121
-15.451
-15.778
-16.103
-16.423
-16.737
-17.044
-17.341
-17.628
-17.903
-18.164
-18.412
-18.645
-18.862
-19.063
-19.248
-19.418
-19.572
-19.711
-19.835
-19.945
-20.04
-20.121
-20.189
-20.244
-20.288
-20.321
-20.346
-20.363
-20.376
-20.384
-20.391
-20.398
-20.407
-20.421
-20.441
-20.471
-20.513
-20.569
-20.642
-20.737
-20.853
-20.995
-21.162
-21.357
-21.58
-21.829
-22.104
-22.402
-22.722
-23.064
-23.424
-23.803
-24.198
-24.609
-25.035
-25.475
-25.928
-26.389
-26.854
-27.318
-27.775
-28.218
-28.642
-29.039
-29.4
-29.721
-29.997
-30.223
-30.394
-30.499
-30.527
-30.468
-30.32
-30.081
-29.75
-29.33
-28.826
-28.253
-27.633
-26.99
-26.337
-25.679
-25.012
-24.334
-23.646
-22.947
-22.237
-21.504
-20.736
-19.922
-19.061
-18.146
-17.162
-16.079
-14.845
-13.42
-11.788
-9.948
-7.921
-5.724
-3.382
-0.932
1.575
4.07
6.492
8.799
10.962
12.954
14.737
16.254
17.435
18.227
18.603
18.559
18.11
17.273
16.08
14.586
12.873
11.036
9.151
7.271
5.428
3.646
1.947
0.361
-1.09
-2.402
-3.586
-4.681
-5.746
-6.845
-8.056
-9.454
-11.108
-13.106
-15.536
-18.475
-21.985
-26.1
-30.782
-36.004
-41.774
-47.969
-54.355
-60.531
-65.909
-69.949
-72.269
-72.573
-70.63
-66.538
-60.63
-53.593
-46.488
-40.294
-35.983
-34.098
-34.569
-36.843
-39.209
-39.692
-37.026
-29.152
-15.225
4.983
33.584
69.87
113.824
165.881
222.725
283.27
343.105
394.142
428.659
435.257
406.941
343.837
252.002
144.146
30.467
-84.968
-204.351
-332.086
-465.469
-593.473
-698.723
-765.496
-788.501
-773.191
-732.523
-679.047
-620.58
-558.712
-490.956
-418.518
-344.607
-274.941
-217.357
-173.292
-141.295
-119.196
-103.081
-92.125
-86.3
-83.932
-82.865
-80.567
-75.516
-67.469
-56.882
-44.735
-31.724
-18.847
-7.761
0.608
5.924
8.164
7.936
5.831
2.25
-2.121
-6.431
-10.112
-12.786
-14.259
-14.623
-13.929
-12.193
-9.533
-6.087
-1.99
2.622
7.636
12.973
18.528
24.179
29.81
35.298
40.544
45.461
49.977
54.049
57.661
60.82
63.556
65.901
67.9
69.608
71.087
72.4
73.606
74.759
75.91
77.113
78.418
79.87
81.512
83.373
85.473
87.829
90.45
93.337
96.493
99.911
103.58
107.492
111.638
116.005
120.584
125.363
130.329
135.474
140.784
146.236
151.807
157.468
163.191
168.951
174.719
180.46
186.148
191.757
197.27
202.682
207.976
213.131
218.116
222.891
227.427
231.708
235.723
239.463
242.923
246.089
248.96
251.554
253.872
255.903
257.615
258.954
259.885
260.394
260.484
260.168
259.451
258.318
256.755
254.751
252.289
249.36
245.936
241.962
237.401
232.239
226.496
220.225
213.459
206.208
198.46
190.207
181.459
172.242
162.594
152.552
142.16
131.477
120.586
109.606
98.652
87.828
77.198
66.807
56.706
46.969
37.691
28.952
20.812
13.317
6.495
0.373
-5.03
-9.717
-13.725
-17.117
-19.97
-22.365
-24.354
-25.978
-27.282
-28.321
-29.165
-29.877
-30.5
-31.066
-31.604
-32.138
-32.694
-33.287
-33.903
-34.518
-35.1
-35.605
-36.012
-36.308
-36.478
-36.512
-36.394
-36.112
-35.669
-35.076
-34.341
-33.473
-32.48
-31.369
-30.163
-28.886
-27.567
-26.237
-24.917
-23.626
-22.379
-21.188
-20.064
-19.016
-18.044
-17.147
-16.324
-15.574
-14.898
-14.298
-13.77
-13.31
-12.914
-12.576
-12.292
-12.061
-11.878
-11.74
-11.644
-11.591
-11.577
-11.604
-11.671
-11.776
-11.917
-12.092
-12.3
-12.538
-12.806
-13.1
-13.42
-13.764
-14.132
-14.522
-14.933
-15.367
-15.821
-16.295
-16.789
-17.303
-17.836
-18.386
-18.954
-19.539
-20.139
-20.753
-21.381
-22.021
-22.671
-23.331
-23.997
-24.668
-25.343
-26.018
-26.692
-27.362
-28.025
-28.679
-29.32
-29.946
-30.554
-31.141
-31.704
-32.24
-32.747
-33.22
-33.659
-34.06
-34.421
-34.74
-35.016
-35.247
-35.431
-35.569
-35.66
-35.704
-35.702
-35.654
-35.563
-35.429
-35.255
-35.042
-34.794
-34.513
-34.203
-33.867
-33.509
-33.134
-32.745
-32.349
-31.951
-31.556
-31.169
-30.796
-30.443
-30.115
-29.818
-29.557
-29.336
-29.161
-29.035
-28.965
-28.953
-29.003
-29.12
-29.305
-29.561
-29.89
-30.292
-30.769
-31.321
-31.946
-32.645
-33.415
-34.255
-35.162
-36.132
-37.163
-38.249
-39.384
-40.564
-41.781
-43.027
-44.295
-45.577
-46.863
-48.145
-49.416
-50.666
-51.889
-53.077
-54.221
-55.315
-56.352
-57.321
-58.216
-59.025
-59.738
-60.348
-60.845
-61.223
-61.475
-61.596
-61.583
-61.433
-61.146
-60.719
-60.151
-59.434
-58.568
-57.556
-56.406
-55.131
-53.748
-52.272
-50.72
-49.114
-47.472
-45.806
-44.123
-42.421
-40.693
-38.942
-37.178
-35.421
-33.688
-31.985
-30.313
-28.668
-27.04
-25.422
-23.808
-22.173
-20.501
-18.794
-17.064
-15.351
-13.704
-12.148
-10.693
-9.335
-8.065
-6.896
-5.846
-4.925
-4.15
-3.526
-3.066
-2.81
-2.79
-3.016
-3.482
-4.139
-4.93
-5.836
-6.855
-8.012
-9.334
-10.822
-12.479
-14.327
-16.399
-18.752
-21.43
-24.434
-27.758
-31.381
-35.305
-39.605
-44.355
-49.606
-55.387
-61.6
-68.171
-75.112
-82.295
-89.501
-96.389
-102.304
-106.644
-109.202
-109.788
-108.323
-105.111
-100.275
-94.193
-88.044
-82.918
-79.418
-77.916
-78.003
-78.493
-78.773
-78.095
-74.594
-66.22
-51.002
-27.219
4.673
42.076
83.442
127.448
173.794
223.682
274.661
321.611
356.066
366.461
345.532
291.083
208.37
109.567
3.98
-104.623
-218.859
-344.234
-478.779
-610.796
-721.844
-795.529
-826.029
-817.965
-784.011
-736.525
-682.209
-624.572
-563.296
-497.03
-427.749
-358.42
-293.089
-237.302
-193.452
-161.031
-138.941
-125.036
-117.397
-114.988
-115.723
-116.411
-115.08
-110.912
-103.748
-94.38
-83.545
-71.625
-59.68
-49.336
-41.547
-36.681
-34.672
-34.889
-36.763
-39.908
-43.695
-47.327
-50.268
-52.188
-52.936
-52.622
-51.336
-49.115
-46.075
-42.36
-38.088
-33.383
-28.348
-23.043
-17.56
-12.009
-6.484
-1.088
4.091
8.984
13.524
17.671
21.421
24.784
27.788
30.47
32.867
35.029
37.014
38.879
40.676
42.456
44.256
46.124
48.104
50.236
52.56
55.105
57.885
60.913
64.195
67.733
71.527
75.567
79.837
84.324
89.018
93.911
98.998
104.268
109.7
115.278
120.981
126.784
132.663
138.583
144.502
150.385
156.206
161.945
167.588
173.121
178.524
183.778
188.868
193.778
198.5
203.021
207.32
211.395
215.252
218.911
222.41
225.769
228.979
232.029
234.895
237.55
239.97
242.121
243.958
245.447
246.56
247.277
247.588
247.461
246.842
245.668
243.853
241.343
238.124
234.189
229.545
224.215
218.226
211.622
204.47
196.816
188.687
180.114
171.121
161.767
152.143
142.353
132.526
122.763
113.135
103.71
94.543
85.675
77.138
68.952
61.116
53.656
46.626
40.066
34.016
28.484
23.442
18.85
14.646
10.781
7.217
3.922
0.869
-1.958
-4.57
-6.97
-9.157
-11.149
-12.987
-14.707
-16.339
-17.899
-19.378
-20.76
-22.018
-23.127
-24.068
-24.827
-25.397
-25.781
-25.985
-26.022
-25.908
-25.649
-25.241
-24.683
-23.974
-23.121
-22.14
-21.051
-19.881
-18.655
-17.397
-16.129
-14.868
-13.626
-12.411
-11.227
-10.079
-8.968
-7.902
-6.886
-5.927
-5.03
-4.197
-3.427
-2.72
-2.074
-1.485
-0.951
-0.469
-0.038
0.344
0.675
0.956
1.186
1.366
1.497
1.58
1.619
1.615
1.572
1.491
1.377
1.231
1.057
0.857
0.632
0.386
0.12
-0.162
-0.459
-0.769
-1.089
-1.417
-1.752
-2.093
-2.437
-2.783
-3.13
-3.477
-3.823
-4.166
-4.507
-4.843
-5.174
-5.499
-5.818
-6.13
-6.433
-6.728
-7.014
-7.29
-7.557
-7.815
-8.063
-8.301
-8.531
-8.751
-8.964
-9.168
-9.364
-9.553
-9.736
-9.913
-10.086
-10.253
-10.418
-10.579
-10.738
-10.896
-11.054
-11.212
-11.37
-11.53
-11.691
-11.855
-12.022
-12.191
-12.363
-12.537
-12.716
-12.897
-13.082
-13.271
-13.465
-13.662
-13.865
-14.073
-14.285
-14.502
-14.723
-14.947
-15.174
-15.403
-15.633
-15.864
-16.096
-16.327
-16.557
-16.786
-17.013
-17.237
-17.457
-17.674
-17.886
-18.093
-18.295
-18.492
-18.684
-18.872
-19.055
-19.233
-19.407
-19.574
-19.734
-19.886
-20.028
-20.156
-20.268
-20.364
-20.44
-20.496
-20.53
-20.541
-20.528
-20.492
-20.433
-20.348
-20.235
-20.091
-19.912
-19.695
-19.435
-19.127
-18.766
-18.349
-17.872
-17.336
-16.739
-16.076
-15.343
-14.532
-13.638
-12.663
-11.61
-10.48
-9.282
-8.027
-6.733
-5.428
-4.132
-2.854
-1.602
-0.369
0.845
2.039
3.215
4.376
5.526
6.671
7.814
8.95
10.091
11.252
12.468
13.79
15.247
16.846
18.585
20.44
22.388
24.406
26.454
28.478
30.441
32.304
34.05
35.683
37.179
38.505
39.613
40.43
40.921
41.082
40.91
40.423
39.648
38.606
37.355
35.976
34.518
33.014
31.464
29.825
28.088
26.26
24.345
22.352
20.245
17.956
15.44
12.658
9.599
6.246
2.508
-1.723
-6.52
-11.928
-17.854
-24.186
-30.922
-37.942
-45.025
-51.873
-57.886
-62.449
-65.326
-66.306
-65.242
-62.391
-57.896
-52.017
-45.693
-40.02
-35.766
-33.374
-32.681
-32.203
-30.221
-26.15
-19.144
-8.936
3.27
18.845
40.052
68.611
108.486
160.853
223.146
290.232
353.003
400.593
422.482
412.54
368.73
295.225
203.252
101.68
-3.252
-110.727
-227.381
-354.083
-484.556
-605.551
-697.386
-749.423
-761.113
-739.775
-699.901
-650.846
-597.048
-540.467
-479.165
-413.486
-346.3
-280.942
-222.274
-173.753
-135.877
-107.81
-87.878
-74.49
-66.628
-62.862
-60.788
-58.049
-53.356
-46.32
-37.299
-26.932
-15.631
-4.13
6.205
14.23
19.384
21.581
21.268
19.049
15.389
10.915
6.459
2.655
-0.082
-1.546
-1.802
-0.953
0.933
3.728
7.265
11.405
16.014
20.978
26.219
31.637
37.109
42.506
47.696
52.567
57.025
61.011
64.5
67.49
70.008
72.093
73.789
75.151
76.24
77.116
77.841
78.472
79.063
79.671
80.355
81.172
82.175
83.401
84.876
86.619
88.64
90.945
93.537
96.413
99.561
102.972
106.637
110.545
114.69
119.063
123.654
128.448
133.426
138.57
143.859
149.268
154.767
160.318
165.88
171.423
176.918
182.343
187.68
192.908
198.007
202.961
207.745
212.339
216.726
220.882
224.791
228.452
231.868
235.058
238.048
240.84
243.428
245.802
247.932
249.794
251.358
252.577
253.419
253.866
253.894
253.489
252.634
251.282
249.381
246.877
243.707
239.847
235.288
230.019
224.061
217.442
210.196
202.391
194.081
185.29
176.053
166.413
156.419
146.169
135.768
125.314
114.908
104.628
94.532
84.694
75.161
65.963
57.13
48.665
40.584
32.943
25.782
19.121
12.968
7.285
2.018
-2.866
-7.402
-11.623
-15.546
-19.203
-22.613
-25.778
-28.699
-31.378
-33.825
-36.084
-38.192
-40.166
-42.01
-43.708
-45.229
-46.563
-47.702
-48.631
-49.35
-49.856
-50.151
-50.255
-50.188
-49.965
-49.595
-49.075
-48.401
-47.584
-46.64
-45.592
-44.47
-43.295
-42.089
-40.877
-39.679
-38.51
-37.383
-36.304
-35.274
-34.297
-33.382
-32.535
-31.766
-31.079
-30.476
-29.958
-29.525
-29.174
-28.905
-28.711
-28.589
-28.537
-28.55
-28.628
-28.77
-28.974
-29.236
-29.554
-29.924
-30.341
-30.802
-31.301
-31.831
-32.39
-32.971
-33.57
-34.184
-34.807
-35.435
-36.065
-36.693
-37.316
-37.929
-38.53
-39.117
-39.686
-40.237
-40.766
-41.273
-41.756
-42.213
-42.646
-43.052
-43.431
-43.783
-44.108
-44.406
-44.677
-44.923
-45.142
-45.335
-45.504
-45.65
-45.773
-45.876
-45.959
-46.026
-46.077
-46.115
-46.142
-46.161
-46.174
-46.182
-46.189
-46.196
-46.206
-46.22
-46.24
-46.268
-46.307
-46.358
-46.424
-46.507
-46.608
-46.73
-46.874
-47.043
-47.237
-47.458
-47.707
-47.986
-48.295
-48.636
-49.009
-49.416
-49.857
-50.331
-50.839
-51.378
-51.947
-52.543
-53.164
-53.805
-54.464
-55.135
-55.814
-56.499
-57.185
-57.87
-58.548
-59.216
-59.871
-60.508
-61.122
-61.704
-62.249
-62.747
-63.191
-63.575
-63.892
-64.135
-64.299
-64.378
-64.371
-64.272
-64.076
-63.777
-63.364
-62.829
-62.174
-61.399
-60.514
-59.53
-58.461
-57.319
-56.123
-54.887
-53.618
-52.318
-50.978
-49.586
-48.142
-46.649
-45.121
-43.571
-42.002
-40.415
-38.806
-37.159
-35.462
-33.701
-31.847
-29.883
-27.813
-25.651
-23.441
-21.24
-19.088
-17.015
-15.037
-13.161
-11.406
-9.79
-8.325
-7.036
-5.935
-5.041
-4.397
-4.025
-3.924
-4.082
-4.441
-4.924
-5.473
-6.038
-6.585
-7.102
-7.561
-7.951
-8.28
-8.56
-8.824
-9.103
-9.408
-9.774
-10.254
-10.904
-11.802
-13.014
-14.598
-16.644
-19.225
-22.41
-26.268
-30.752
-35.805
-41.417
-47.426
-53.598
-59.614
-64.858
-68.749
-71.073
-71.617
-70.257
-67.239
-62.655
-56.877
-51.089
-46.352
-43.222
-42.04
-42.376
-43.171
-44.062
-44.22
-41.485
-33.69
-18.541
5.105
35.631
70.88
109.763
152.982
202.401
256.843
311.411
356.205
378.219
369.662
326.93
253.807
163.07
64.367
-35.606
-135.395
-242.233
-357.728
-475.985
-585.08
-667.185
-712.723
-721.96
-702.133
-665.886
-621.225
-571.995
-519.791
-463.08
-402.419
-340.26
-279.463
-224.636
-179.1
-143.417
-116.961
-98.122
-85.35
-77.75
-74.01
-71.865
-69.101
-64.478
-57.624
-48.914
-38.982
-28.234
-17.364
-7.65
-0.166
4.558
6.43
5.864
3.431
-0.426
-5.126
-9.882
-14.096
-17.38
-19.501
-20.487
-20.414
-19.318
-17.308
-14.535
-11.116
-7.164
-2.784
1.959
6.972
12.134
17.334
22.453
27.39
32.06
36.387
40.324
43.858
46.999
49.776
52.226
54.385
56.301
58.029
59.621
61.132
62.614
64.111
65.676
67.359
69.204
71.254
73.54
76.08
78.886
81.961
85.304
88.914
92.783
96.906
101.271
105.865
110.674
115.682
120.867
126.208
131.674
137.228
142.837
148.47
154.097
159.7
165.26
170.754
176.161
181.457
186.625
191.658
196.555
201.308
205.915
210.377
214.702
218.92
223.047
227.092
231.05
234.901
238.621
242.189
245.58
248.761
251.694
254.325
256.599
258.471
259.89
260.801
261.135
260.801
259.727
257.858
255.155
251.603
247.195
241.932
235.834
228.934
221.274
212.904
203.873
194.231
184.041
173.383
162.348
151.058
139.624
128.153
116.754
105.517
94.52
83.832
73.498
63.555
54.044
45.003
36.48
28.517
21.13
14.331
8.114
2.453
-2.684
-7.342
-11.589
-15.475
-19.04
-22.315
-25.313
-28.05
-30.55
-32.842
-34.963
-36.944
-38.805
-40.563
-42.235
-43.823
-45.321
-46.709
-47.947
-49.006
-49.874
-50.546
-51.028
-51.326
-51.441
-51.376
-51.134
-50.722
-50.147
-49.419
-48.542
-47.529
-46.398
-45.177
-43.902
-42.604
-41.303
-40.016
-38.755
-37.53
-36.354
-35.232
-34.165
-33.156
-32.207
-31.321
-30.504
-29.755
-29.074
-28.456
-27.895
-27.384
-26.919
-26.497
-26.111
-25.759
-25.436
-25.14
-24.87
-24.624
-24.4
-24.193
-24
-23.816
-23.64
-23.468
-23.295
-23.12
-22.939
-22.752
-22.557
-22.352
-22.138
-21.914
-21.68
-21.437
-21.185
-20.925
-20.659
-20.387
-20.113
-19.837
-19.563
-19.292
-19.028
-18.771
-18.525
-18.292
-18.075
-17.874
-17.693
-17.532
-17.393
-17.278
-17.189
-17.125
-17.088
-17.08
-17.099
-17.148
-17.224
-17.33
-17.462
-17.621
-17.806
-18.014
-18.245
-18.497
-18.767
-19.055
-19.359
-19.677
-20.007
-20.347
-20.695
-21.051
-21.412
-21.778
-22.146
-22.516
-22.886
-23.257
-23.628
-23.999
-24.369
-24.74
-25.11
-25.482
-25.855
-26.232
-26.612
-26.999
-27.392
-27.794
-28.207
-28.632
-29.072
-29.529
-30.004
-30.499
-31.015
-31.554
-32.115
-32.7
-33.308
-33.94
-34.593
-35.269
-35.964
-36.678
-37.407
-38.15
-38.904
-39.664
-40.426
-41.187
-41.941
-42.683
-43.408
-44.11
-44.783
-45.421
-46.017
-46.564
-47.056
-47.486
-47.847
-48.132
-48.334
-48.447
-48.466
-48.385
-48.201
-47.908
-47.506
-46.993
-46.368
-45.633
-44.788
-43.836
-42.78
-41.623
-40.37
-39.027
-37.598
-36.092
-34.517
-32.881
-31.195
-29.47
-27.717
-25.946
-24.17
-22.398
-20.645
-18.92
-17.235
-15.605
-14.04
-12.554
-11.161
-9.871
-8.693
-7.632
-6.689
-5.865
-5.156
-4.554
-4.049
-3.628
-3.281
-2.995
-2.756
-2.549
-2.358
-2.168
-1.96
-1.721
-1.444
-1.123
-0.76
-0.367
0.038
0.423
0.743
0.951
1.001
0.83
0.369
-0.448
-1.688
-3.398
-5.601
-8.329
-11.623
-15.524
-20.076
-25.299
-31.149
-37.588
-44.589
-52.001
-59.584
-66.947
-73.514
-78.75
-82.257
-83.716
-82.915
-79.982
-75.247
-69.335
-63.284
-58.111
-54.708
-53.601
-54.792
-57.56
-60.76
-63.102
-62.732
-57.431
-44.843
-22.992
8.341
47.146
91.176
138.426
188.739
243.57
300.51
354.367
395.488
410.506
392.013
337.993
254.014
153.688
47.099
-61.379
-173.4
-294.855
-425.02
-553.59
-663.569
-738.67
-772.084
-767.247
-735.777
-689.922
-636.855
-580.546
-521.028
-456.856
-389.675
-322.171
-258.179
-203.159
-159.549
-126.934
-104.303
-89.597
-81.005
-77.587
-77.369
-77.264
-75.333
-70.743
-63.298
-53.732
-42.724
-30.602
-18.369
-7.626
0.667
6.118
8.749
9.175
7.948
5.425
2.225
-0.867
-3.32
-4.799
-5.147
-4.483
-2.902
-0.447
2.757
6.565
10.857
15.507
20.413
25.51
30.704
35.886
40.963
45.834
50.414
54.639
58.443
61.797
64.701
67.171
69.239
70.943
72.322
73.429
74.325
75.068
75.716
76.321
76.928
77.587
78.346
79.247
80.332
81.629
83.155
84.923
86.94
89.21
91.732
94.502
97.509
100.744
104.199
107.866
111.735
115.796
120.035
124.435
128.982
133.656
138.442
143.32
148.269
153.269
158.298
163.335
168.356
173.34
178.26
183.091
187.807
192.382
196.791
201.007
205.005
208.761
212.252
215.457
218.355
220.926
223.154
225.022
226.516
227.622
228.33
228.631
228.518
227.984
227.027
225.646
223.841
221.614
218.971
215.919
212.466
208.623
204.402
199.818
194.886
189.625
184.052
178.188
172.056
165.677
159.076
152.277
145.307
138.19
130.953
123.622
116.223
108.784
101.33
93.886
86.478
79.13
71.866
64.71
57.682
50.804
44.095
37.574
31.259
25.164
19.304
13.692
8.339
3.255
-1.553
-6.078
-10.315
-14.26
-17.912
-21.272
-24.339
-27.118
-29.613
-31.829
-33.773
-35.453
-36.878
-38.058
-39.004
-39.727
-40.239
-40.554
-40.683
-40.641
-40.44
-40.094
-39.617
-39.023
-38.323
-37.532
-36.662
-35.725
-34.733
-33.698
-32.63
-31.539
-30.435
-29.328
-28.226
-27.136
-26.066
-25.021
-24.009
-23.033
-22.098
-21.207
-20.364
-19.57
-18.828
-18.139
-17.504
-16.922
-16.393
-15.918
-15.494
-15.121
-14.797
-14.521
-14.29
-14.102
-13.956
-13.85
-13.78
-13.746
-13.745
-13.775
-13.833
-13.917
-14.026
-14.156
-14.307
-14.474
-14.658
-14.855
-15.063
-15.282
-15.508
-15.74
-15.976
-16.215
-16.455
-16.694
-16.93
-17.162
-17.387
-17.606
-17.816
-18.016
-18.205
-18.382
-18.545
-18.694
-18.827
-18.942
-19.04
-19.117
-19.175
-19.21
-19.224
-19.215
-19.183
-19.127
-19.047
-18.943
-18.816
-18.664
-18.49
-18.292
-18.072
-17.832
-17.572
-17.296
-17.003
-16.698
-16.383
-16.06
-15.733
-15.404
-15.077
-14.754
-14.439
-14.135
-13.846
-13.573
-13.322
-13.096
-12.898
-12.732
-12.601
-12.51
-12.462
-12.458
-12.503
-12.598
-12.748
-12.953
-13.215
-13.537
-13.92
-14.366
-14.873
-15.442
-16.071
-16.76
-17.504
-18.302
-19.148
-20.037
-20.966
-21.928
-22.918
-23.931
-24.962
-26.005
-27.055
-28.108
-29.157
-30.195
-31.214
-32.206
-33.161
-34.07
-34.922
-35.708
-36.419
-37.044
-37.579
-38.018
-38.356
-38.584
-38.696
-38.681
-38.534
-38.254
-37.841
-37.298
-36.634
-35.86
-34.997
-34.071
-33.093
-32.075
-31.022
-29.93
-28.8
-27.631
-26.42
-25.17
-23.887
-22.57
-21.229
-19.865
-18.468
-17.02
-15.49
-13.839
-12.058
-10.145
-8.109
-5.975
-3.769
-1.527
0.698
2.872
4.974
6.989
8.918
10.749
12.45
13.982
15.297
16.342
17.1
17.567
17.735
17.621
17.247
16.66
15.928
15.093
14.167
13.131
11.959
10.633
9.162
7.553
5.804
3.903
1.793
-0.57
-3.217
-6.169
-9.422
-13.034
-17.102
-21.694
-26.847
-32.484
-38.442
-44.636
-51.082
-57.672
-64.181
-70.15
-74.849
-77.873
-79.172
-78.731
-76.502
-72.395
-66.407
-59.146
-51.921
-45.684
-40.768
-36.973
-33.748
-30.26
-25.287
-17.393
-4.734
12.241
31.106
50.479
70.221
94.805
130.62
180.071
241.348
306.407
364.147
404.679
418.486
399.039
344.925
260.144
154.952
41.164
-75.534
-196.394
-324.916
-460.715
-593.071
-703.007
-774.492
-801.162
-787.617
-747.503
-693.9
-634.093
-571.203
-504.263
-432.626
-358.928
-287.297
-223.16
-170.962
-131.785
-104.908
-88.695
-80.433
-78.03
-79.235
-80.627
-79.975
-76.293
-69.029
-58.676
-46.236
-32.382
-18.358
-6.081
3.418
9.725
12.724
12.976
11.07
7.422
2.786
-1.905
-6.054
-9.274
-11.369
-12.411
-12.425
-11.406
-9.457
-6.72
-3.329
0.591
4.947
9.676
14.685
19.854
25.061
30.196
35.161
39.88
44.286
48.319
51.94
55.145
57.95
60.38
62.475
64.279
65.839
67.215
68.467
69.649
70.816
72.016
73.297
74.701
76.269
78.04
80.043
82.295
84.805
87.579
90.618
93.923
97.491
101.314
105.378
109.669
114.171
118.865
123.732
128.745
133.869
139.07
144.317
149.581
154.847
160.097
165.312
170.472
175.554
180.542
185.433
190.228
194.921
199.51
203.995
208.382
212.699
216.969
221.201
225.395
229.53
233.573
237.5
241.284
244.886
248.264
251.355
254.088
256.423
258.317
259.725
260.591
260.83
260.36
259.127
257.089
254.227
250.545
246.045
240.735
234.658
227.867
220.426
212.416
203.874
194.827
185.327
175.44
165.261
154.901
144.449
133.991
123.619
113.404
103.411
93.703
84.299
75.211
66.455
58.037
50
42.408
35.292
28.673
22.552
16.904
11.709
6.938
2.532
-1.556
-5.362
-8.92
-12.234
-15.3
-18.132
-20.739
-23.146
-25.402
-27.539
-29.578
-31.544
-33.439
-35.261
-37.001
-38.62
-40.086
-41.382
-42.495
-43.428
-44.194
-44.793
-45.233
-45.52
-45.65
-45.623
-45.444
-45.11
-44.63
-44.02
-43.297
-42.493
-41.64
-40.759
-39.869
-38.982
-38.107
-37.254
-36.43
-35.634
-34.871
-34.145
-33.46
-32.822
-32.234
-31.698
-31.213
-30.774
-30.379
-30.024
-29.708
-29.426
-29.179
-28.965
-28.783
-28.634
-28.52
-28.44
-28.393
-28.377
-28.39
-28.43
-28.496
-28.584
-28.692
-28.818
-28.96
-29.116
-29.285
-29.464
-29.652
-29.848
-30.05
-30.256
-30.464
-30.675
-30.885
-31.094
-31.302
-31.507
-31.708
-31.905
-32.097
-32.283
-32.464
-32.637
-32.804
-32.962
-33.112
-33.253
-33.385
-33.507
-33.619
-33.721
-33.813
-33.896
-33.97
-34.036
-34.094
-34.144
-34.188
-34.226
-34.258
-34.287
-34.313
-34.337
-34.361
-34.386
-34.414
-34.447
-34.487
-34.535
-34.592
-34.662
-34.746
-34.845
-34.962
-35.097
-35.254
-35.433
-35.636
-35.866
-36.122
-36.408
-36.723
-37.068
-37.446
-37.855
-38.297
-38.772
-39.279
-39.819
-40.39
-40.992
-41.624
-42.284
-42.97
-43.68
-44.411
-45.16
-45.924
-46.698
-47.479
-48.262
-49.043
-49.816
-50.576
-51.318
-52.037
-52.727
-53.383
-53.999
-54.569
-55.088
-55.549
-55.948
-56.278
-56.534
-56.711
-56.805
-56.81
-56.723
-56.54
-56.257
-55.873
-55.384
-54.788
-54.085
-53.274
-52.357
-51.335
-50.211
-48.987
-47.67
-46.265
-44.779
-43.219
-41.593
-39.909
-38.176
-36.404
-34.603
-32.783
-30.955
-29.127
-27.312
-25.52
-23.766
-22.059
-20.409
-18.826
-17.321
-15.905
-14.589
-13.38
-12.284
-11.307
-10.453
-9.73
-9.145
-8.698
-8.387
-8.209
-8.157
-8.223
-8.399
-8.666
-9.004
-9.388
-9.79
-10.19
-10.572
-10.917
-11.208
-11.425
-11.546
-11.559
-11.461
-11.245
-10.92
-10.5
-10.008
-9.491
-9.005
-8.616
-8.418
-8.494
-8.915
-9.737
-10.979
-12.671
-14.885
-17.685
-21.149
-25.34
-30.195
-35.669
-41.777
-48.36
-55.182
-61.866
-67.681
-71.974
-74.488
-74.994
-73.4
-70.024
-65.007
-58.804
-52.727
-47.932
-45.033
-44.411
-45.6
-47.333
-48.967
-49.543
-46.801
-38.49
-22.496
3.113
37.683
78.397
123.767
171.825
221.627
274.477
327.467
374.997
408.253
414.025
383.952
316.512
218.461
104.157
-15.095
-134.53
-256.615
-385.925
-519.345
-645.527
-746.844
-808.25
-825.561
-803.798
-755.36
-693.773
-627.307
-560.063
-492.334
-422.523
-351.663
-283.007
-221.046
-170.049
-131.201
-103.244
-84.192
-72.33
-66.436
-65.03
-65.638
-65.505
-63.046
-57.937
-50.595
-41.541
-31.148
-19.938
-9.074
-0.071
6.21
9.621
10.499
9.445
6.95
3.421
-0.505
-4.044
-6.659
-8.06
-8.194
-7.216
-5.247
-2.36
1.321
5.639
10.447
15.599
20.98
26.512
32.098
37.633
43.01
48.121
52.878
57.212
61.087
64.502
67.474
70.034
72.223
74.084
75.671
77.049
78.277
79.413
80.512
81.622
82.796
84.088
85.548
87.222
89.14
91.322
93.78
96.519
99.537
102.832
106.396
110.219
114.293
118.609
123.153
127.913
132.873
138.009
143.295
148.697
154.173
159.69
165.224
170.749
176.251
181.711
187.11
192.43
197.655
202.764
207.746
212.58
217.245
221.732
226.039
230.177
234.176
238.041
241.762
245.328
248.71
251.875
254.798
257.438
259.747
261.697
263.257
264.398
265.104
265.334
265.037
264.155
262.606
260.336
257.316
253.525
248.96
243.645
237.599
230.861
223.488
215.498
206.924
197.808
188.182
178.113
167.685
156.992
146.151
135.284
124.485
113.843
103.431
93.288
83.461
73.988
64.894
56.239
48.072
40.423
33.323
26.782
20.786
15.315
10.321
5.726
1.477
-2.472
-6.161
-9.598
-12.803
-15.8
-18.607
-21.263
-23.801
-26.24
-28.603
-30.91
-33.158
-35.347
-37.453
-39.429
-41.241
-42.871
-44.306
-45.549
-46.603
-47.464
-48.132
-48.611
-48.901
-49.009
-48.939
-48.693
-48.282
-47.723
-47.038
-46.266
-45.434
-44.563
-43.672
-42.771
-41.871
-40.985
-40.118
-39.273
-38.453
-37.662
-36.904
-36.186
-35.51
-34.877
-34.285
-33.73
-33.208
-32.717
-32.255
-31.82
-31.412
-31.028
-30.668
-30.336
-30.03
-29.751
-29.498
-29.268
-29.061
-28.874
-28.706
-28.555
-28.419
-28.297
-28.187
-28.089
-28.001
-27.924
-27.854
-27.793
-27.74
-27.694
-27.655
-27.622
-27.596
-27.577
-27.564
-27.559
-27.56
-27.57
-27.587
-27.612
-27.645
-27.686
-27.736
-27.793
-27.857
-27.928
-28.005
-28.087
-28.175
-28.268
-28.364
-28.464
-28.567
-28.672
-28.778
-28.885
-28.992
-29.097
-29.199
-29.299
-29.395
-29.486
-29.571
-29.651
-29.725
-29.792
-29.851
-29.904
-29.949
-29.987
-30.018
-30.042
-30.059
-30.07
-30.076
-30.078
-30.078
-30.076
-30.074
-30.074
-30.077
-30.086
-30.102
-30.128
-30.165
-30.215
-30.281
-30.365
-30.468
-30.593
-30.742
-30.916
-31.117
-31.345
-31.602
-31.888
-32.204
-32.548
-32.921
-33.322
-33.75
-34.204
-34.681
-35.18
-35.699
-36.235
-36.784
-37.344
-37.911
-38.48
-39.046
-39.606
-40.155
-40.687
-41.197
-41.68
-42.131
-42.543
-42.912
-43.233
-43.499
-43.705
-43.848
-43.921
-43.923
-43.848
-43.696
-43.465
-43.153
-42.762
-42.293
-41.747
-41.128
-40.437
-39.679
-38.857
-37.976
-37.04
-36.056
-35.029
-33.969
-32.883
-31.78
-30.67
-29.561
-28.464
-27.387
-26.338
-25.327
-24.361
-23.451
-22.606
-21.837
-21.155
-20.57
-20.084
-19.702
-19.425
-19.246
-19.16
-19.154
-19.21
-19.316
-19.459
-19.624
-19.801
-19.967
-20.101
-20.184
-20.192
-20.112
-19.935
-19.655
-19.269
-18.79
-18.241
-17.662
-17.111
-16.631
-16.273
-16.089
-16.141
-16.52
-17.312
-18.588
-20.399
-22.763
-25.702
-29.267
-33.486
-38.368
-43.888
-49.923
-56.364
-63.187
-70.233
-77.231
-83.82
-89.361
-93.267
-95.313
-95.298
-93.013
-88.626
-82.324
-74.449
-66.243
-59.038
-53.435
-49.83
-47.558
-44.71
-40.26
-33.744
-25.239
-15.697
-4.652
10.142
32.564
66.842
114.29
173.597
239.812
304.387
359.807
397.177
406.861
384.384
328.079
242.851
141.32
33.147
-76.933
-190.22
-312.617
-443.494
-572.618
-683.066
-758.498
-792.078
-787.212
-755.27
-708.208
-653.033
-593.719
-530.543
-462.398
-391.189
-319.773
-252.119
-193.862
-147.581
-112.949
-88.994
-73.601
-64.883
-61.846
-62.424
-63.4
-62.737
-59.535
-53.532
-45.445
-35.941
-25.324
-14.618
-5.454
1.202
4.97
5.906
4.659
1.809
-2.255
-6.87
-11.198
-14.67
-16.928
-17.84
-17.548
-16.17
-13.77
-10.482
-6.473
-1.892
3.113
8.422
13.96
19.628
25.307
30.88
36.23
41.258
45.888
50.076
53.806
57.086
59.947
62.426
64.567
66.423
68.057
69.528
70.895
72.213
73.531
74.902
76.379
78.013
79.849
81.92
84.245
86.837
89.699
92.834
96.238
99.906
103.821
107.971
112.343
116.926
121.715
126.702
131.873
137.206
142.677
148.258
153.923
159.647
165.401
171.149
176.865
182.524
188.113
193.626
199.048
204.355
209.517
214.495
219.261
223.8
228.097
232.144
235.938
239.467
242.737
245.764
248.54
251.046
253.251
255.095
256.545
257.585
258.2
258.396
258.174
257.514
256.404
254.823
252.735
250.116
246.933
243.136
238.722
233.704
228.111
222.01
215.445
208.441
201.031
193.226
185.028
176.472
167.595
158.448
149.118
139.684
130.221
120.823
111.543
102.422
93.495
84.764
76.239
67.953
59.929
52.212
44.868
37.933
31.425
25.346
19.654
14.315
9.308
4.595
0.158
-4.013
-7.933
-11.598
-14.993
-18.126
-21.007
-23.659
-26.136
-28.465
-30.658
-32.718
-34.619
-36.341
-37.882
-39.231
-40.379
-41.327
-42.074
-42.631
-43.024
-43.268
-43.373
-43.341
-43.161
-42.833
-42.369
-41.784
-41.101
-40.343
-39.524
-38.662
-37.778
-36.885
-35.998
-35.122
-34.255
-33.4
-32.56
-31.742
-30.953
-30.198
-29.48
-28.799
-28.154
-27.546
-26.974
-26.435
-25.926
-25.444
-24.987
-24.555
-24.149
-23.769
-23.414
-23.083
-22.775
-22.488
-22.222
-21.975
-21.743
-21.525
-21.319
-21.124
-20.937
-20.758
-20.586
-20.418
-20.254
-20.093
-19.935
-19.778
-19.623
-19.468
-19.314
-19.161
-19.009
-18.859
-18.711
-18.565
-18.423
-18.286
-18.154
-18.029
-17.911
-17.802
-17.703
-17.615
-17.538
-17.475
-17.425
-17.391
-17.375
-17.377
-17.399
-17.443
-17.511
-17.605
-17.725
-17.875
-18.053
-18.264
-18.506
-18.783
-19.094
-19.441
-19.824
-20.243
-20.7
-21.193
-21.722
-22.285
-22.883
-23.512
-24.171
-24.858
-25.569
-26.302
-27.054
-27.821
-28.601
-29.388
-30.18
-30.971
-31.758
-32.535
-33.297
-34.039
-34.755
-35.44
-36.088
-36.693
-37.25
-37.752
-38.195
-38.572
-38.879
-39.11
-39.261
-39.328
-39.307
-39.196
-38.991
-38.693
-38.3
-37.815
-37.238
-36.573
-35.822
-34.992
-34.085
-33.109
-32.067
-30.965
-29.811
-28.611
-27.373
-26.105
-24.815
-23.514
-22.211
-20.917
-19.642
-18.397
-17.189
-16.028
-14.924
-13.884
-12.919
-12.038
-11.248
-10.561
-9.981
-9.513
-9.158
-8.913
-8.771
-8.724
-8.757
-8.851
-8.993
-9.167
-9.359
-9.555
-9.732
-9.872
-9.954
-9.956
-9.867
-9.676
-9.377
-8.969
-8.46
-7.869
-7.237
-6.615
-6.043
-5.567
-5.227
-5.074
-5.198
-5.673
-6.565
-7.916
-9.722
-12.007
-14.825
-18.23
-22.259
-26.877
-31.932
-37.303
-42.973
-48.824
-54.647
-60
-64.163
-66.683
-67.446
-66.435
-63.63
-58.979
-52.509
-44.88
-37.424
-31.095
-26.36
-23.049
-20.438
-18.388
-16.15
-11.954
-4.204
9.251
28.756
52.211
79.19
109.777
145.132
188.605
239.648
293.604
343.309
376.759
382.082
352.993
288.79
197.538
93.147
-14.404
-120.956
-229.267
-344.442
-464.168
-578.225
-670.597
-727.343
-744.374
-726.27
-684.456
-631.228
-574.003
-516.489
-458.824
-399.201
-338.266
-278.523
-223.541
-177.23
-140.768
-113.157
-92.881
-78.392
-68.668
-62.59
-58.107
-53.101
-46.458
-37.927
-27.892
-16.953
-5.46
5.976
16.137
23.975
28.99
31.119
30.793
28.591
24.942
20.409
15.771
11.625
8.373
6.256
5.252
5.289
6.336
8.283
10.984
14.325
18.186
22.46
27.078
31.941
36.927
41.927
46.82
51.501
55.885
59.89
63.47
66.613
69.332
71.658
73.633
75.298
76.704
77.913
78.984
79.976
80.941
81.928
82.989
84.177
85.54
87.125
88.965
91.078
93.479
96.174
99.167
102.456
106.028
109.87
113.967
118.312
122.897
127.711
132.738
137.955
143.341
148.869
154.514
160.24
166.006
171.771
177.498
183.164
188.75
194.235
199.597
204.81
209.851
214.706
219.365
223.814
228.038
232.023
235.763
239.271
242.572
245.687
248.622
251.368
253.901
256.208
258.266
260.053
261.54
262.678
263.422
263.741
263.604
262.983
261.837
260.109
257.727
254.631
250.774
246.126
240.681
234.426
227.368
219.526
210.926
201.625
191.683
181.144
170.067
158.518
146.572
134.327
121.903
109.411
96.969
84.698
72.692
61.049
49.849
39.159
29.048
19.559
10.723
2.576
-4.864
-11.592
-17.607
-22.928
-27.598
-31.663
-35.19
-38.265
-40.95
-43.306
-45.389
-47.243
-48.927
-50.486
-51.951
-53.347
-54.695
-56.006
-57.296
-58.573
-59.826
-61.041
-62.189
-63.227
-64.133
-64.887
-65.477
-65.893
-66.122
-66.156
-65.998
-65.663
-65.162
-64.509
-63.715
-62.791
-61.758
-60.642
-59.471
-58.278
-57.087
-55.915
-54.781
-53.698
-52.68
-51.736
-50.871
-50.082
-49.37
-48.736
-48.181
-47.705
-47.307
-46.98
-46.722
-46.525
-46.385
-46.299
-46.262
-46.269
-46.317
-46.402
-46.521
-46.674
-46.855
-47.062
-47.289
-47.534
-47.79
-48.055
-48.325
-48.593
-48.856
-49.112
-49.356
-49.586
-49.799
-49.994
-50.167
-50.318
-50.445
-50.547
-50.624
-50.674
-50.699
-50.697
-50.67
-50.618
-50.541
-50.441
-50.319
-50.176
-50.015
-49.837
-49.644
-49.439
-49.223
-48.999
-48.77
-48.537
-48.302
-48.069
-47.839
-47.614
-47.399
-47.193
-47.001
-46.823
-46.662
-46.521
-46.399
-46.3
-46.223
-46.171
-46.144
-46.144
-46.171
-46.226
-46.31
-46.423
-46.564
-46.733
-46.928
-47.148
-47.389
-47.651
-47.929
-48.22
-48.52
-48.827
-49.137
-49.448
-49.757
-50.062
-50.359
-50.647
-50.922
-51.181
-51.418
-51.627
-51.802
-51.938
-52.03
-52.072
-52.06
-51.991
-51.861
-51.668
-51.411
-51.087
-50.691
-50.215
-49.654
-49.01
-48.289
-47.501
-46.66
-45.779
-44.872
-43.957
-43.049
-42.154
-41.274
-40.398
-39.516
-38.625
-37.73
-36.844
-35.98
-35.139
-34.318
-33.51
-32.7
-31.872
-31.007
-30.075
-29.055
-27.95
-26.779
-25.583
-24.41
-23.294
-22.254
-21.297
-20.422
-19.634
-18.936
-18.332
-17.836
-17.463
-17.238
-17.194
-17.358
-17.725
-18.268
-18.937
-19.664
-20.393
-21.089
-21.731
-22.318
-22.864
-23.4
-23.95
-24.549
-25.224
-26.001
-26.92
-28.016
-29.331
-30.904
-32.757
-34.963
-37.624
-40.828
-44.661
-49.128
-54.101
-59.488
-65.263
-71.269
-77.293
-82.903
-87.381
-90.3
-91.565
-91.102
-88.947
-85.135
-79.532
-72.674
-65.773
-59.532
-54.461
-50.594
-47.078
-43.542
-39.508
-33.613
-24.673
-11.089
7.597
30.701
58.718
90.992
128.922
174.231
224.023
276.181
325.287
362.248
380.486
372.308
332.744
264.818
176.013
75.107
-31.357
-143.899
-267.044
-400.07
-533.805
-651.119
-734.074
-774.221
-774.062
-745.042
-700.257
-647.592
-591.055
-530.686
-464.938
-395.442
-325.099
-257.98
-199.869
-153.517
-118.782
-94.743
-79.206
-70.21
-66.676
-66.524
-66.615
-64.94
-60.593
-53.344
-43.955
-33.153
-21.31
-9.481
0.692
8.23
12.729
14.224
13.372
10.761
6.781
2.109
-2.417
-6.212
-8.884
-10.275
-10.507
-9.677
-7.836
-5.107
-1.634
2.445
6.987
11.882
17.049
22.387
27.779
33.107
38.246
43.088
47.543
51.554
55.102
58.186
60.832
63.071
64.939
66.485
67.77
68.852
69.79
70.64
71.449
72.275
73.176
74.207
75.42
76.852
78.525
80.456
82.654
85.122
87.863
90.876
94.153
97.688
101.471
105.489
109.733
114.182
118.814
123.602
128.51
133.508
138.568
143.665
148.779
153.887
158.97
164.006
168.972
173.851
178.638
183.327
187.919
192.42
196.837
201.188
205.499
209.788
214.059
218.313
222.54
226.726
230.851
234.892
238.823
242.609
246.207
249.563
252.612
255.283
257.498
259.173
260.218
260.555
260.127
258.881
256.775
253.784
249.9
245.124
239.473
232.966
225.623
217.491
208.64
199.154
189.132
178.68
167.91
156.935
145.862
134.805
123.881
113.185
102.792
92.77
83.174
74.066
65.523
57.588
50.279
43.6
37.536
32.07
27.187
22.849
19.007
15.598
12.544
9.788
7.294
5.024
2.945
1.014
-0.829
-2.622
-4.38
-6.119
-7.84
-9.551
-11.264
-12.97
-14.644
-16.252
-17.752
-19.116
-20.335
-21.399
-22.299
-23.027
-23.565
-23.908
-24.07
-24.056
-23.877
-23.542
-23.053
-22.426
-21.69
-20.871
-20.003
-19.109
-18.205
-17.306
-16.427
-15.578
-14.772
-14.013
-13.301
-12.637
-12.024
-11.465
-10.964
-10.522
-10.134
-9.798
-9.509
-9.265
-9.063
-8.901
-8.776
-8.687
-8.633
-8.613
-8.629
-8.68
-8.765
-8.881
-9.027
-9.199
-9.397
-9.616
-9.855
-10.111
-10.381
-10.663
-10.957
-11.26
-11.571
-11.889
-12.213
-12.541
-12.873
-13.209
-13.546
-13.886
-14.226
-14.568
-14.91
-15.253
-15.595
-15.937
-16.277
-16.617
-16.954
-17.288
-17.619
-17.946
-18.268
-18.584
-18.895
-19.2
-19.498
-19.79
-20.075
-20.353
-20.623
-20.886
-21.141
-21.388
-21.626
-21.855
-22.073
-22.282
-22.479
-22.666
-22.842
-23.007
-23.161
-23.303
-23.435
-23.556
-23.667
-23.768
-23.861
-23.945
-24.021
-24.092
-24.157
-24.219
-24.277
-24.334
-24.39
-24.447
-24.504
-24.564
-24.626
-24.691
-24.759
-24.83
-24.903
-24.98
-25.06
-25.142
-25.225
-25.31
-25.396
-25.481
-25.563
-25.643
-25.718
-25.786
-25.845
-25.893
-25.927
-25.945
-25.944
-25.922
-25.875
-25.801
-25.695
-25.556
-25.38
-25.164
-24.905
-24.602
-24.253
-23.857
-23.413
-22.921
-22.382
-21.798
-21.173
-20.508
-19.807
-19.073
-18.309
-17.52
-16.709
-15.881
-15.04
-14.193
-13.346
-12.505
-11.677
-10.87
-10.091
-9.348
-8.647
-7.994
-7.395
-6.856
-6.385
-5.989
-5.675
-5.451
-5.321
-5.287
-5.352
-5.511
-5.758
-6.082
-6.468
-6.896
-7.351
-7.818
-8.279
-8.718
-9.111
-9.436
-9.675
-9.804
-9.813
-9.691
-9.428
-9.021
-8.483
-7.835
-7.121
-6.394
-5.699
-5.086
-4.611
-4.339
-4.369
-4.78
-5.645
-7.008
-8.872
-11.273
-14.271
-17.924
-22.281
-27.31
-32.866
-38.837
-45.2
-51.812
-58.439
-64.605
-69.516
-72.666
-73.916
-73.214
-70.546
-65.883
-59.222
-51.213
-43.365
-36.8
-31.906
-28.482
-25.753
-23.274
-20.918
-17.564
-10.635
2.433
23.503
52.525
87.172
125.854
167.647
212.78
262.206
313.409
361.54
397.85
410.137
390.463
335.645
250.483
148.036
38.604
-73.184
-189.169
-314.914
-448.822
-579.554
-689.39
-762.655
-793.696
-786.898
-754.26
-707.166
-651.927
-592.213
-528.091
-458.8
-386.632
-314.585
-246.777
-188.849
-143.305
-109.757
-87.162
-73.349
-66.355
-65.081
-67.315
-69.671
-70.011
-67.405
-61.611
-53.397
-43.488
-32.255
-20.792
-10.804
-3.308
1.291
3.028
2.544
0.422
-2.955
-6.938
-10.706
-13.719
-15.648
-16.354
-15.971
-14.611
-12.327
-9.256
-5.558
-1.363
3.199
8.022
13.048
18.182
23.313
28.35
33.195
37.767
42.005
45.85
49.27
52.27
54.87
57.102
59.006
60.624
62.007
63.214
64.301
65.322
66.325
67.35
68.443
69.651
71.011
72.563
74.333
76.337
78.586
81.088
83.841
86.842
90.082
93.547
97.229
101.124
105.221
109.51
113.973
118.593
123.349
128.217
133.166
138.158
143.155
148.127
153.051
157.914
162.699
167.388
171.963
176.403
180.7
184.85
188.846
192.675
196.329
199.809
203.134
206.341
209.454
212.478
215.4
218.196
220.848
223.333
225.626
227.69
229.472
230.927
232.018
232.721
233.002
232.808
232.065
230.682
228.593
225.768
222.195
217.88
212.824
207.045
200.57
193.448
185.747
177.515
168.792
159.62
150.056
140.19
130.138
120.034
109.985
100.067
90.347
80.88
71.722
62.914
54.488
46.457
38.83
31.641
24.926
18.712
13.004
7.778
2.982
-1.449
-5.563
-9.392
-12.968
-16.313
-19.449
-22.391
-25.147
-27.718
-30.115
-32.37
-34.514
-36.573
-38.558
-40.461
-42.259
-43.923
-45.431
-46.767
-47.919
-48.883
-49.658
-50.251
-50.674
-50.942
-51.061
-51.031
-50.849
-50.517
-50.041
-49.439
-48.733
-47.948
-47.108
-46.237
-45.357
-44.481
-43.623
-42.791
-41.989
-41.219
-40.486
-39.795
-39.153
-38.565
-38.036
-37.566
-37.155
-36.802
-36.502
-36.253
-36.05
-35.89
-35.77
-35.689
-35.645
-35.637
-35.666
-35.73
-35.826
-35.952
-36.105
-36.281
-36.479
-36.693
-36.922
-37.161
-37.41
-37.665
-37.925
-38.187
-38.45
-38.712
-38.971
-39.226
-39.475
-39.718
-39.954
-40.183
-40.404
-40.618
-40.824
-41.024
-41.217
-41.405
-41.588
-41.766
-41.94
-42.111
-42.279
-42.445
-42.608
-42.77
-42.931
-43.091
-43.251
-43.411
-43.572
-43.733
-43.896
-44.06
-44.225
-44.391
-44.558
-44.726
-44.894
-45.062
-45.23
-45.398
-45.565
-45.73
-45.894
-46.056
-46.214
-46.37
-46.521
-46.668
-46.811
-46.949
-47.081
-47.208
-47.33
-47.446
-47.556
-47.661
-47.761
-47.855
-47.944
-48.028
-48.108
-48.184
-48.256
-48.324
-48.388
-48.448
-48.504
-48.554
-48.6
-48.639
-48.671
-48.696
-48.711
-48.717
-48.711
-48.692
-48.658
-48.608
-48.539
-48.449
-48.336
-48.196
-48.028
-47.828
-47.595
-47.325
-47.016
-46.664
-46.267
-45.822
-45.326
-44.776
-44.171
-43.508
-42.786
-42.005
-41.163
-40.261
-39.302
-38.286
-37.218
-36.099
-34.932
-33.723
-32.475
-31.193
-29.883
-28.551
-27.201
-25.842
-24.48
-23.123
-21.78
-20.459
-19.165
-17.908
-16.694
-15.532
-14.43
-13.396
-12.435
-11.552
-10.753
-10.048
-9.443
-8.94
-8.536
-8.23
-8.017
-7.89
-7.841
-7.853
-7.908
-7.987
-8.065
-8.129
-8.165
-8.156
-8.087
-7.935
-7.683
-7.322
-6.853
-6.274
-5.597
-4.837
-4.019
-3.2
-2.437
-1.802
-1.379
-1.236
-1.439
-2.043
-3.082
-4.6
-6.662
-9.319
-12.625
-16.628
-21.303
-26.64
-32.651
-39.18
-45.967
-52.615
-58.538
-63.213
-66.282
-67.447
-66.479
-63.481
-58.782
-52.982
-47.09
-42.048
-38.588
-37.087
-37.536
-39.302
-41.239
-42.079
-40.176
-33.47
-19.881
2.032
33.257
72.823
117.688
165.571
213.946
261.049
307.873
353.35
392.976
419.686
421.173
386.91
315.41
212.383
90.966
-36.168
-165.644
-297.83
-432.289
-562.688
-672.866
-747.955
-781.76
-777.091
-746.439
-702.005
-650.117
-594.176
-533.597
-467.195
-397.268
-326.926
-260.274
-202.738
-156.742
-122.02
-97.662
-81.652
-72.163
-68.189
-67.688
-67.496
-65.59
-61.057
-53.64
-44.061
-33.006
-20.812
-8.528
2.185
10.325
15.474
17.643
17.463
15.504
12.145
8.042
4.035
0.695
-1.613
-2.717
-2.73
-1.746
0.196
2.967
6.413
10.403
14.802
19.5
24.426
29.478
34.54
39.508
44.274
48.745
52.853
56.531
59.747
62.503
64.818
66.728
68.275
69.502
70.469
71.24
71.877
72.441
72.987
73.563
74.222
75.013
75.983
77.174
78.618
80.333
82.334
84.628
87.218
90.102
93.274
96.719
100.424
104.38
108.578
113.011
117.669
122.535
127.589
132.806
138.158
143.614
149.14
154.698
160.257
165.786
171.264
176.676
182.007
187.241
192.357
197.324
202.114
206.706
211.079
215.22
219.126
222.8
226.25
229.489
232.523
235.346
237.938
240.268
242.298
243.988
245.309
246.248
246.791
246.925
246.626
245.865
244.605
242.799
240.401
237.363
233.652
229.25
224.165
218.424
212.064
205.136
197.673
189.697
181.234
172.32
163.004
153.356
143.459
133.41
123.307
113.249
103.321
93.597
84.132
74.961
66.115
57.616
49.499
41.817
34.611
27.914
21.736
16.065
10.874
6.115
1.742
-2.291
-6.022
-9.483
-12.693
-15.665
-18.409
-20.932
-23.256
-25.419
-27.453
-29.386
-31.231
-32.985
-34.635
-36.155
-37.522
-38.718
-39.727
-40.547
-41.179
-41.631
-41.915
-42.043
-42.024
-41.856
-41.54
-41.075
-40.47
-39.742
-38.912
-38.005
-37.048
-36.064
-35.074
-34.094
-33.134
-32.203
-31.303
-30.438
-29.608
-28.819
-28.077
-27.386
-26.749
-26.167
-25.639
-25.162
-24.732
-24.345
-23.996
-23.681
-23.398
-23.144
-22.917
-22.717
-22.542
-22.392
-22.265
-22.157
-22.065
-21.988
-21.921
-21.862
-21.807
-21.756
-21.706
-21.655
-21.603
-21.549
-21.492
-21.431
-21.366
-21.297
-21.224
-21.146
-21.064
-20.979
-20.89
-20.8
-20.708
-20.617
-20.525
-20.436
-20.35
-20.268
-20.19
-20.118
-20.053
-19.994
-19.943
-19.9
-19.866
-19.841
-19.825
-19.82
-19.825
-19.841
-19.867
-19.904
-19.95
-20.005
-20.068
-20.138
-20.216
-20.298
-20.386
-20.477
-20.572
-20.669
-20.767
-20.867
-20.967
-21.067
-21.166
-21.263
-21.359
-21.453
-21.544
-21.634
-21.721
-21.805
-21.888
-21.969
-22.049
-22.128
-22.207
-22.287
-22.367
-22.45
-22.535
-22.624
-22.719
-22.82
-22.929
-23.048
-23.176
-23.316
-23.468
-23.632
-23.81
-24.002
-24.206
-24.423
-24.653
-24.893
-25.143
-25.403
-25.669
-25.941
-26.217
-26.493
-26.769
-27.04
-27.304
-27.558
-27.799
-28.022
-28.225
-28.404
-28.554
-28.673
-28.755
-28.797
-28.794
-28.741
-28.636
-28.472
-28.247
-27.958
-27.6
-27.172
-26.672
-26.1
-25.455
-24.739
-23.954
-23.102
-22.185
-21.208
-20.175
-19.091
-17.959
-16.784
-15.572
-14.33
-13.067
-11.791
-10.512
-9.238
-7.98
-6.747
-5.55
-4.398
-3.301
-2.263
-1.294
-0.403
0.395
1.085
1.659
2.112
2.443
2.651
2.741
2.716
2.591
2.387
2.121
1.807
1.452
1.059
0.639
0.213
-0.193
-0.55
-0.84
-1.057
-1.197
-1.254
-1.233
-1.145
-1.023
-0.919
-0.881
-0.943
-1.129
-1.462
-1.977
-2.737
-3.824
-5.314
-7.262
-9.695
-12.606
-16.011
-19.943
-24.404
-29.387
-34.834
-40.604
-46.616
-52.882
-59.261
-65.492
-71.204
-75.719
-78.446
-79.21
-77.851
-74.183
-68.421
-60.85
-51.933
-43.019
-35.542
-29.982
-26.49
-24.998
-23.866
-21.823
-18.796
-12.432
-1.591
13.439
36.041
66.853
105.118
152.199
203.766
255.242
304.871
348.17
381.887
401.603
397.43
361.376
291.661
192.574
75.582
-48.396
-176.631
-309.43
-445.718
-578.421
-690.66
-766.745
-800.16
-793.606
-759.866
-712.174
-657.567
-599.835
-538.446
-471.603
-401.206
-330.262
-262.855
-204.646
-158.16
-123.045
-98.348
-82.018
-72.229
-68.033
-67.423
-67.225
-65.422
-61.123
-54.08
-45.009
-34.576
-23.081
-11.539
-1.601
5.743
10.093
11.475
10.533
7.852
3.815
-0.918
-5.497
-9.345
-12.091
-13.561
-13.867
-13.109
-11.324
-8.645
-5.231
-1.213
3.269
8.101
13.212
18.492
23.82
29.089
34.182
39.004
43.482
47.545
51.16
54.328
57.068
59.414
61.407
63.088
64.513
65.747
66.848
67.874
68.877
69.904
71.009
72.241
73.643
75.259
77.114
79.226
81.608
84.266
87.202
90.411
93.884
97.609
101.577
105.785
110.224
114.879
119.735
124.772
129.968
135.3
140.735
146.234
151.76
157.281
162.777
168.232
173.628
178.946
184.164
189.261
194.228
199.055
203.73
208.239
212.568
216.717
220.7
224.549
228.284
231.905
235.395
238.73
241.887
244.839
247.556
249.994
252.101
253.838
255.174
256.084
256.538
256.487
255.862
254.583
252.585
249.827
246.292
241.972
236.867
231
224.402
217.125
209.229
200.745
191.704
182.145
172.118
161.698
150.986
140.091
129.121
118.184
107.371
96.763
86.429
76.409
66.74
57.447
48.555
40.12
32.193
24.804
17.977
11.717
6.001
0.804
-3.918
-8.235
-12.202
-15.862
-19.253
-22.385
-25.272
-27.934
-30.391
-32.681
-34.842
-36.893
-38.857
-40.751
-42.579
-44.337
-46.008
-47.546
-48.921
-50.116
-51.122
-51.943
-52.587
-53.05
-53.338
-53.452
-53.396
-53.179
-52.807
-52.284
-51.623
-50.839
-49.958
-49.019
-48.049
-47.072
-46.106
-45.162
-44.252
-43.389
-42.579
-41.825
-41.129
-40.497
-39.931
-39.438
-39.02
-38.678
-38.407
-38.205
-38.065
-37.984
-37.961
-37.991
-38.07
-38.197
-38.37
-38.587
-38.849
-39.151
-39.49
-39.862
-40.263
-40.688
-41.133
-41.594
-42.065
-42.543
-43.024
-43.505
-43.982
-44.454
-44.916
-45.365
-45.8
-46.218
-46.618
-46.997
-47.353
-47.687
-47.997
-48.282
-48.543
-48.779
-48.99
-49.175
-49.336
-49.471
-49.583
-49.671
-49.735
-49.778
-49.799
-49.802
-49.788
-49.759
-49.717
-49.664
-49.602
-49.534
-49.462
-49.385
-49.308
-49.23
-49.155
-49.083
-49.017
-48.958
-48.908
-48.869
-48.841
-48.827
-48.826
-48.84
-48.87
-48.917
-48.98
-49.062
-49.161
-49.279
-49.415
-49.568
-49.738
-49.923
-50.122
-50.331
-50.548
-50.77
-50.992
-51.212
-51.426
-51.63
-51.822
-51.999
-52.158
-52.297
-52.413
-52.503
-52.564
-52.589
-52.574
-52.511
-52.397
-52.224
-51.99
-51.69
-51.321
-50.879
-50.365
-49.777
-49.113
-48.37
-47.54
-46.621
-45.615
-44.529
-43.372
-42.16
-40.907
-39.626
-38.337
-37.054
-35.785
-34.532
-33.288
-32.043
-30.795
-29.549
-28.32
-27.123
-25.958
-24.821
-23.707
-22.594
-21.471
-20.323
-19.118
-17.84
-16.492
-15.083
-13.652
-12.247
-10.894
-9.608
-8.388
-7.219
-6.106
-5.062
-4.095
-3.226
-2.472
-1.843
-1.378
-1.103
-1.014
-1.103
-1.323
-1.601
-1.905
-2.22
-2.545
-2.92
-3.365
-3.888
-4.514
-5.265
-6.173
-7.294
-8.654
-10.267
-12.161
-14.332
-16.816
-19.717
-23.092
-26.985
-31.406
-36.221
-41.341
-46.774
-52.369
-57.893
-63.01
-67.094
-69.609
-70.404
-69.306
-66.204
-61.328
-54.78
-46.923
-38.834
-31.546
-25.729
-21.861
-19.718
-17.877
-14.982
-9.8
-0.736
11.835
26.627
43.312
61.927
85.902
120.6
169.594
233.074
303.348
368.794
416.241
432.874
414.754
361.872
279.644
181.418
75.853
-31.053
-137.72
-251.298
-372.832
-495.835
-608.131
-691.729
-737.231
-745.224
-723.199
-684.004
-635.701
-582.323
-525.729
-464.56
-399.581
-333.379
-268.895
-210.893
-162.803
-125.181
-97.348
-77.646
-64.474
-56.878
-53.457
-51.794
-49.505
-45.271
-38.692
-30.137
-20.251
-9.445
1.579
11.494
19.161
24.036
26.035
25.6
23.354
19.751
15.378
11.038
7.333
4.648
3.202
2.944
3.764
5.606
8.342
11.803
15.863
20.392
25.274
30.434
35.767
41.152
46.482
51.642
56.534
61.085
65.223
68.912
72.152
74.96
77.372
79.432
81.182
82.675
83.977
85.145
86.239
87.313
88.413
89.591
90.896
92.374
94.066
96.002
98.198
100.668
103.418
106.452
109.77
113.361
117.213
121.315
125.659
130.238
135.046
140.066
145.278
150.661
156.192
161.846
167.594
173.395
179.211
185.003
190.741
196.406
201.979
207.434
212.747
217.889
222.843
227.608
232.177
236.54
240.692
244.621
248.335
251.864
255.233
258.458
261.541
264.463
267.207
269.765
272.124
274.262
276.138
277.685
278.842
279.565
279.808
279.53
278.673
277.146
274.866
271.768
267.813
262.985
257.273
250.656
243.122
234.686
225.401
215.352
204.629
193.306
181.465
169.187
156.584
143.8
130.981
118.263
105.758
93.559
81.763
70.471
59.789
49.787
40.499
31.931
24.078
16.938
10.51
4.781
-0.294
-4.784
-8.766
-12.324
-15.517
-18.399
-21.026
-23.463
-25.779
-28.026
-30.229
-32.399
-34.539
-36.658
-38.763
-40.857
-42.92
-44.924
-46.832
-48.603
-50.216
-51.654
-52.9
-53.938
-54.751
-55.329
-55.676
-55.807
-55.735
-55.473
-55.033
-54.429
-53.686
-52.832
-51.898
-50.915
-49.909
-48.897
-47.899
-46.932
-46.008
-45.14
-44.334
-43.589
-42.909
-42.298
-41.757
-41.29
-40.896
-40.572
-40.313
-40.116
-39.977
-39.893
-39.861
-39.877
-39.938
-40.042
-40.186
-40.369
-40.588
-40.839
-41.118
-41.421
-41.742
-42.077
-42.422
-42.772
-43.122
-43.469
-43.808
-44.136
-44.451
-44.749
-45.028
-45.284
-45.516
-45.723
-45.901
-46.052
-46.173
-46.264
-46.325
-46.357
-46.36
-46.335
-46.282
-46.204
-46.1
-45.974
-45.826
-45.659
-45.475
-45.275
-45.063
-44.841
-44.611
-44.377
-44.14
-43.905
-43.673
-43.448
-43.232
-43.028
-42.838
-42.664
-42.508
-42.373
-42.261
-42.172
-42.11
-42.074
-42.067
-42.088
-42.139
-42.22
-42.33
-42.469
-42.636
-42.83
-43.048
-43.29
-43.553
-43.836
-44.135
-44.448
-44.773
-45.105
-45.442
-45.78
-46.116
-46.445
-46.763
-47.066
-47.349
-47.608
-47.839
-48.037
-48.197
-48.316
-48.388
-48.409
-48.376
-48.283
-48.128
-47.907
-47.618
-47.259
-46.83
-46.329
-45.759
-45.12
-44.415
-43.647
-42.819
-41.935
-40.998
-40.014
-38.987
-37.922
-36.824
-35.702
-34.561
-33.41
-32.258
-31.112
-29.981
-28.872
-27.795
-26.756
-25.764
-24.827
-23.952
-23.147
-22.419
-21.78
-21.234
-20.785
-20.431
-20.172
-20.001
-19.91
-19.888
-19.917
-19.982
-20.066
-20.155
-20.233
-20.282
-20.286
-20.226
-20.083
-19.848
-19.515
-19.084
-18.556
-17.944
-17.267
-16.563
-15.884
-15.278
-14.792
-14.487
-14.433
-14.707
-15.385
-16.515
-18.122
-20.231
-22.878
-26.103
-29.945
-34.408
-39.425
-44.943
-50.94
-57.277
-63.721
-69.901
-75.284
-79.392
-81.879
-82.451
-80.87
-77.243
-71.924
-65.483
-58.777
-52.667
-48.012
-45.452
-45.264
-46.335
-46.478
-44.012
-37.663
-28.163
-17.305
-4.501
12.374
37.303
75.189
126.664
189.401
258.826
326.067
382.795
419.732
425.985
396.417
331.112
237.176
128.334
14.955
-99.284
-217.327
-343.333
-474.645
-598.881
-697.365
-757.58
-776.668
-761.956
-728.286
-684.652
-635.209
-581.317
-520.215
-452.723
-382.489
-312.744
-248.378
-193.711
-149.963
-116.982
-93.813
-78.597
-69.86
-66.478
-66.285
-66.262
-64.51
-60.184
-53.101
-43.991
-33.516
-22.076
-10.731
-1.051
6.031
10.17
11.445
10.487
7.877
4.018
-0.453
-4.743
-8.322
-10.863
-12.216
-12.488
-11.774
-10.113
-7.627
-4.459
-0.727
3.443
7.94
12.7
17.621
22.588
27.506
32.269
36.788
40.997
44.833
48.261
51.282
53.912
56.182
58.132
59.802
61.247
62.527
63.702
64.827
65.954
67.126
68.393
69.798
71.381
73.18
75.222
77.523
80.092
82.934
86.047
89.427
93.065
96.947
101.056
105.379
109.899
114.604
119.481
124.52
129.705
135.011
140.414
145.885
151.394
156.919
162.428
167.886
173.262
178.533
183.681
188.701
193.579
198.289
202.804
207.084
211.105
214.856
218.329
221.516
224.411
227.001
229.293
231.312
233.063
234.538
235.71
236.53
236.975
237.05
236.756
236.102
235.08
233.663
231.83
229.571
226.864
223.693
220.019
215.778
210.947
205.536
199.569
193.102
186.155
178.709
170.77
162.36
153.514
144.295
134.759
124.951
114.948
104.846
94.749
84.78
75.022
65.518
56.311
47.431
38.932
30.905
23.409
16.473
10.119
4.352
-0.831
-5.427
-9.476
-13.052
-16.224
-19.059
-21.604
-23.871
-25.886
-27.677
-29.285
-30.768
-32.165
-33.496
-34.783
-36.046
-37.292
-38.529
-39.734
-40.858
-41.865
-42.734
-43.453
-44.029
-44.463
-44.748
-44.884
-44.869
-44.703
-44.395
-43.95
-43.369
-42.662
-41.842
-40.935
-39.979
-39.002
-38.022
-37.055
-36.109
-35.193
-34.319
-33.489
-32.704
-31.963
-31.27
-30.626
-30.037
-29.503
-29.024
-28.595
-28.211
-27.866
-27.558
-27.283
-27.038
-26.821
-26.629
-26.461
-26.319
-26.202
-26.108
-26.036
-25.982
-25.944
-25.921
-25.91
-25.907
-25.913
-25.923
-25.939
-25.959
-25.982
-26.007
-26.034
-26.062
-26.091
-26.12
-26.15
-26.179
-26.208
-26.237
-26.266
-26.294
-26.322
-26.349
-26.376
-26.404
-26.431
-26.459
-26.487
-26.516
-26.546
-26.577
-26.609
-26.643
-26.68
-26.719
-26.762
-26.809
-26.861
-26.918
-26.98
-27.048
-27.123
-27.204
-27.293
-27.389
-27.494
-27.608
-27.732
-27.867
-28.014
-28.174
-28.349
-28.539
-28.746
-28.972
-29.216
-29.481
-29.767
-30.074
-30.404
-30.757
-31.134
-31.533
-31.956
-32.402
-32.87
-33.358
-33.867
-34.394
-34.938
-35.497
-36.068
-36.648
-37.235
-37.826
-38.418
-39.006
-39.588
-40.158
-40.712
-41.246
-41.755
-42.233
-42.675
-43.076
-43.43
-43.733
-43.979
-44.163
-44.28
-44.326
-44.297
-44.189
-43.999
-43.723
-43.36
-42.908
-42.366
-41.734
-41.013
-40.204
-39.31
-38.335
-37.283
-36.16
-34.972
-33.724
-32.423
-31.078
-29.695
-28.286
-26.856
-25.417
-23.977
-22.545
-21.134
-19.754
-18.416
-17.127
-15.896
-14.734
-13.649
-12.654
-11.752
-10.951
-10.254
-9.667
-9.197
-8.853
-8.631
-8.53
-8.543
-8.662
-8.88
-9.187
-9.562
-9.983
-10.425
-10.859
-11.267
-11.633
-11.938
-12.157
-12.264
-12.234
-12.058
-11.734
-11.264
-10.659
-9.933
-9.112
-8.257
-7.431
-6.711
-6.191
-5.946
-6.044
-6.546
-7.48
-8.899
-10.881
-13.473
-16.726
-20.678
-25.256
-30.419
-36.191
-42.4
-48.752
-54.859
-60.026
-63.626
-65.447
-65.295
-62.953
-58.605
-52.508
-45.1
-37.708
-31.769
-27.77
-25.8
-25.695
-25.819
-24.904
-22.731
-16.835
-5.892
10.268
34.355
66.04
105.099
152.856
207.083
266.348
326.353
379.705
418.667
432.261
413.964
361.556
278.222
176.822
67.767
-42.485
-152.62
-270.166
-396.736
-525.423
-642.99
-730.394
-777.225
-783.688
-757.628
-712.607
-657.979
-598.719
-536.474
-469.436
-398.441
-326.352
-257.155
-196.883
-148.671
-112.435
-87.267
-71.029
-61.786
-58.474
-58.935
-59.866
-59.101
-55.605
-49.07
-40.209
-29.708
-17.923
-5.938
4.524
12.403
17.237
19.014
18.363
15.869
11.924
7.211
2.608
-1.287
-4.088
-5.61
-5.969
-5.259
-3.521
-0.889
2.474
6.433
10.848
15.608
20.643
25.847
31.098
36.289
41.303
46.044
50.436
54.409
57.929
60.996
63.625
65.852
67.715
69.257
70.532
71.604
72.532
73.372
74.178
74.997
75.883
76.887
78.053
79.425
81.031
82.888
85.012
87.409
90.081
93.025
96.233
99.692
103.396
107.341
111.518
115.917
120.519
125.308
130.263
135.358
140.563
145.84
151.149
156.462
161.756
167.017
172.226
177.366
182.416
187.354
192.172
196.861
201.41
205.804
210.034
214.098
218.012
221.806
225.5
229.098
232.588
235.947
239.151
242.176
244.99
247.555
249.824
251.75
253.301
254.443
255.139
255.341
254.98
253.975
252.259
249.786
246.526
242.472
237.624
231.996
225.617
218.525
210.768
202.387
193.426
183.933
173.973
163.62
152.972
142.147
131.256
120.416
109.728
99.269
89.109
79.297
69.879
60.896
52.392
44.406
36.972
30.111
23.829
18.128
12.986
8.363
4.204
0.435
-3.007
-6.167
-9.077
-11.762
-14.246
-16.563
-18.751
-20.839
-22.848
-24.796
-26.697
-28.563
-30.397
-32.185
-33.898
-35.489
-36.925
-38.19
-39.275
-40.177
-40.893
-41.414
-41.733
-41.855
-41.786
-41.534
-41.104
-40.5
-39.731
-38.819
-37.79
-36.68
-35.515
-34.314
-33.092
-31.861
-30.633
-29.421
-28.231
-27.066
-25.926
-24.817
-23.743
-22.71
-21.721
-20.775
-19.87
-19.003
-18.172
-17.377
-16.618
-15.892
-15.201
-14.544
-13.924
-13.342
-12.802
-12.303
-11.845
-11.427
-11.048
-10.709
-10.408
-10.145
-9.917
-9.724
-9.565
-9.44
-9.349
-9.289
-9.261
-9.264
-9.297
-9.358
-9.449
-9.567
-9.712
-9.883
-10.08
-10.3
-10.545
-10.812
-11.1
-11.407
-11.734
-12.077
-12.435
-12.806
-13.189
-13.581
-13.982
-14.388
-14.798
-15.211
-15.625
-16.038
-16.449
-16.856
-17.257
-17.652
-18.037
-18.414
-18.779
-19.133
-19.474
-19.802
-20.116
-20.416
-20.702
-20.974
-21.232
-21.477
-21.71
-21.93
-22.14
-22.34
-22.531
-22.716
-22.896
-23.071
-23.245
-23.418
-23.592
-23.77
-23.953
-24.142
-24.341
-24.549
-24.77
-25.003
-25.25
-25.513
-25.791
-26.084
-26.394
-26.718
-27.058
-27.41
-27.775
-28.151
-28.536
-28.927
-29.321
-29.717
-30.109
-30.496
-30.873
-31.236
-31.58
-31.903
-32.2
-32.466
-32.697
-32.889
-33.038
-33.138
-33.187
-33.18
-33.113
-32.983
-32.787
-32.523
-32.189
-31.785
-31.309
-30.764
-30.151
-29.473
-28.733
-27.933
-27.079
-26.175
-25.226
-24.24
-23.221
-22.177
-21.114
-20.041
-18.966
-17.898
-16.845
-15.817
-14.819
-13.862
-12.954
-12.106
-11.324
-10.615
-9.982
-9.434
-8.977
-8.622
-8.369
-8.219
-8.17
-8.216
-8.352
-8.57
-8.853
-9.181
-9.531
-9.879
-10.207
-10.504
-10.754
-10.943
-11.051
-11.056
-10.947
-10.725
-10.386
-9.943
-9.413
-8.819
-8.219
-7.675
-7.263
-7.076
-7.188
-7.662
-8.551
-9.878
-11.678
-14.03
-16.994
-20.635
-25.017
-30.087
-35.808
-42.197
-49.081
-56.201
-63.192
-69.38
-74.172
-77.35
-78.686
-78.057
-75.742
-71.861
-66.79
-61.66
-57.437
-54.581
-53.383
-53.442
-53.63
-53.366
-51.935
-47.571
-38.383
-22.575
1.503
33.465
70.768
111.775
155.087
200.561
249.879
301.278
350.12
387.779
401.853
384.128
331.482
248.754
148.882
42.158
-66.394
-178.533
-301.046
-433.819
-567.053
-683.381
-764.515
-802.027
-798.435
-765.331
-716.549
-660.663
-602.294
-541.595
-476.369
-407.673
-338.1
-271.573
-213.935
-167.891
-133.076
-108.504
-92.097
-82.046
-77.476
-76.455
-75.893
-73.847
-69.476
-62.538
-53.733
-43.704
-32.722
-21.775
-12.471
-5.756
-2.004
-1.168
-2.596
-5.706
-10.118
-15.162
-19.995
-24.031
-26.888
-28.414
-28.739
-27.967
-26.153
-23.429
-19.949
-15.858
-11.303
-6.402
-1.237
4.086
9.445
14.719
19.78
24.524
28.861
32.74
36.142
39.073
41.562
43.645
45.363
46.767
47.922
48.887
49.724
50.489
51.234
52.016
52.894
53.924
55.157
56.63
58.364
60.375
62.67
65.255
68.131
71.296
74.743
78.465
82.454
86.699
91.188
95.902
100.817
105.905
111.132
116.466
121.877
127.339
132.829
138.324
143.805
149.25
154.634
159.941
165.159
170.281
175.306
180.236
185.074
189.832
194.532
199.19
203.817
208.414
212.969
217.463
221.864
226.137
230.254
234.171
237.832
241.18
244.143
246.655
248.66
250.09
250.862
250.901
250.136
248.509
245.994
242.581
238.284
233.128
227.137
220.354
212.841
204.661
195.898
186.625
176.894
166.774
156.363
145.763
135.091
124.463
113.959
103.644
93.571
83.773
74.293
65.16
56.383
47.973
39.933
32.279
25.06
18.306
12.014
6.17
0.727
-4.371
-9.151
-13.633
-17.838
-21.773
-25.453
-28.888
-32.068
-34.991
-37.659
-40.09
-42.328
-44.413
-46.359
-48.168
-49.824
-51.297
-52.577
-53.661
-54.536
-55.204
-55.667
-55.931
-56.019
-55.952
-55.746
-55.408
-54.933
-54.318
-53.571
-52.707
-51.749
-50.726
-49.659
-48.569
-47.481
-46.414
-45.383
-44.399
-43.467
-42.584
-41.756
-40.987
-40.283
-39.651
-39.094
-38.611
-38.203
-37.866
-37.597
-37.393
-37.246
-37.151
-37.103
-37.098
-37.132
-37.204
-37.309
-37.445
-37.607
-37.791
-37.993
-38.209
-38.432
-38.658
-38.883
-39.102
-39.311
-39.508
-39.689
-39.852
-39.995
-40.116
-40.214
-40.287
-40.336
-40.359
-40.356
-40.328
-40.275
-40.198
-40.098
-39.976
-39.834
-39.674
-39.498
-39.308
-39.106
-38.894
-38.674
-38.449
-38.219
-37.987
-37.756
-37.526
-37.3
-37.081
-36.868
-36.665
-36.472
-36.291
-36.121
-35.963
-35.817
-35.684
-35.562
-35.453
-35.355
-35.269
-35.195
-35.132
-35.081
-35.041
-35.012
-34.993
-34.984
-34.983
-34.991
-35.007
-35.03
-35.06
-35.097
-35.14
-35.191
-35.249
-35.313
-35.385
-35.464
-35.551
-35.645
-35.748
-35.86
-35.983
-36.116
-36.262
-36.422
-36.596
-36.785
-36.989
-37.208
-37.441
-37.688
-37.946
-38.215
-38.492
-38.776
-39.064
-39.357
-39.651
-39.947
-40.243
-40.537
-40.828
-41.113
-41.387
-41.646
-41.884
-42.095
-42.273
-42.412
-42.509
-42.557
-42.554
-42.496
-42.381
-42.205
-41.96
-41.64
-41.238
-40.755
-40.19
-39.551
-38.847
-38.092
-37.302
-36.496
-35.686
-34.879
-34.077
-33.274
-32.461
-31.632
-30.785
-29.928
-29.067
-28.206
-27.344
-26.477
-25.589
-24.659
-23.66
-22.562
-21.345
-20.006
-18.557
-17.025
-15.446
-13.868
-12.321
-10.823
-9.382
-7.998
-6.682
-5.445
-4.308
-3.301
-2.453
-1.805
-1.387
-1.207
-1.258
-1.518
-1.936
-2.449
-3.02
-3.626
-4.267
-4.975
-5.763
-6.646
-7.648
-8.787
-10.105
-11.634
-13.392
-15.4
-17.657
-20.182
-23.058
-26.385
-30.241
-34.677
-39.619
-44.981
-50.764
-56.849
-63.019
-68.933
-73.981
-77.625
-79.69
-80.005
-78.474
-75.333
-70.676
-64.891
-59.03
-53.891
-49.967
-47.71
-46.748
-46.159
-45.003
-41.34
-33.612
-21.029
-3.533
17.101
40.513
67.53
100.084
141.976
194.053
254.004
316.391
371.971
410.017
420.016
395.444
335.586
247.668
144.956
37.621
-70.233
-181.758
-303.251
-433.298
-560.632
-667.279
-737.323
-765.363
-756.26
-722.515
-676.012
-623.139
-567.23
-507.896
-443.845
-376.9
-309.711
-245.991
-190.917
-146.716
-112.939
-88.661
-72.013
-61.372
-55.963
-53.967
-52.43
-49.508
-44.414
-36.928
-27.706
-17.34
-6.073
5.167
14.851
22.081
26.513
28.2
27.741
25.671
22.339
18.356
14.515
11.357
9.217
8.251
8.352
9.427
11.443
14.279
17.781
21.817
26.254
30.977
35.923
40.995
46.082
51.086
55.904
60.448
64.655
68.469
71.857
74.824
77.39
79.587
81.461
83.056
84.429
85.642
86.756
87.826
88.905
90.04
91.283
92.683
94.283
96.123
98.232
100.628
103.323
106.325
109.631
113.239
117.14
121.321
125.773
130.491
135.464
140.678
146.114
151.752
157.564
163.522
169.586
175.712
181.86
187.999
194.106
200.163
206.154
212.058
217.853
223.521
229.042
234.4
239.576
244.544
249.291
253.815
258.13
262.271
266.252
270.067
273.697
277.106
280.256
283.116
285.635
287.754
289.427
290.617
291.305
291.495
291.164
290.275
288.772
286.572
283.622
279.898
275.381
270.08
264.021
257.23
249.775
241.744
233.2
224.189
214.733
204.823
194.491
183.795
172.806
161.633
150.369
139.097
127.918
116.911
106.132
95.629
85.413
75.467
65.81
56.479
47.532
39.056
31.103
23.698
16.861
10.581
4.837
-0.403
-5.202
-9.617
-13.681
-17.421
-20.836
-23.911
-26.66
-29.106
-31.281
-33.245
-35.035
-36.681
-38.215
-39.651
-40.99
-42.221
-43.307
-44.212
-44.923
-45.433
-45.748
-45.886
-45.852
-45.654
-45.301
-44.793
-44.133
-43.326
-42.372
-41.281
-40.069
-38.759
-37.385
-35.981
-34.57
-33.173
-31.803
-30.47
-29.185
-27.954
-26.778
-25.658
-24.6
-23.607
-22.685
-21.836
-21.061
-20.357
-19.721
-19.149
-18.635
-18.178
-17.773
-17.416
-17.107
-16.842
-16.621
-16.444
-16.308
-16.21
-16.147
-16.115
-16.111
-16.131
-16.171
-16.227
-16.296
-16.375
-16.461
-16.552
-16.645
-16.74
-16.833
-16.926
-17.015
-17.102
-17.184
-17.262
-17.336
-17.405
-17.471
-17.534
-17.593
-17.652
-17.709
-17.767
-17.826
-17.889
-17.955
-18.027
-18.106
-18.194
-18.291
-18.401
-18.525
-18.666
-18.825
-19.005
-19.207
-19.434
-19.688
-19.969
-20.279
-20.619
-20.991
-21.395
-21.831
-22.299
-22.801
-23.334
-23.9
-24.496
-25.121
-25.774
-26.452
-27.154
-27.876
-28.617
-29.373
-30.14
-30.916
-31.697
-32.479
-33.257
-34.027
-34.784
-35.524
-36.24
-36.929
-37.586
-38.204
-38.779
-39.307
-39.781
-40.198
-40.554
-40.844
-41.064
-41.211
-41.283
-41.278
-41.195
-41.034
-40.795
-40.481
-40.096
-39.641
-39.122
-38.542
-37.905
-37.218
-36.487
-35.716
-34.914
-34.087
-33.245
-32.396
-31.549
-30.714
-29.902
-29.119
-28.376
-27.681
-27.044
-26.473
-25.976
-25.56
-25.234
-25.007
-24.883
-24.867
-24.958
-25.154
-25.448
-25.833
-26.295
-26.817
-27.383
-27.976
-28.577
-29.168
-29.728
-30.241
-30.687
-31.049
-31.317
-31.479
-31.531
-31.472
-31.311
-31.065
-30.767
-30.464
-30.197
-30.016
-29.979
-30.156
-30.623
-31.441
-32.656
-34.281
-36.329
-38.848
-41.883
-45.491
-49.711
-54.474
-59.709
-65.397
-71.386
-77.455
-83.276
-88.214
-91.675
-93.425
-93.254
-91.079
-87.204
-81.774
-75.178
-68.563
-62.978
-58.989
-56.962
-56.529
-56.545
-56.405
-55.359
-51.566
-43.041
-27.879
-4.377
26.993
63.581
103.74
145.984
190.107
237.829
287.201
333.548
368.357
379.225
358.294
303.082
218.94
119.028
13.529
-92.934
-201.907
-318.75
-442.255
-562.563
-664.245
-733.2
-764.211
-760.879
-733.373
-691.77
-641.859
-587.215
-528.35
-464.737
-398.351
-331.736
-268.394
-213.355
-168.967
-135.015
-110.719
-94.262
-83.998
-79.09
-77.688
-76.84
-74.67
-70.328
-63.529
-54.89
-44.988
-34.081
-23.114
-13.614
-6.484
-2.086
-0.38
-0.779
-2.76
-5.97
-9.783
-13.402
-16.273
-18.049
-18.598
-18.046
-16.495
-14
-10.686
-6.711
-2.218
2.648
7.773
13.086
18.496
23.894
29.169
34.21
38.919
43.222
47.077
50.467
53.401
55.907
58.02
59.782
61.247
62.477
63.53
64.466
65.339
66.198
67.1
68.102
69.257
70.615
72.21
74.067
76.204
78.628
81.345
84.355
87.657
91.245
95.113
99.25
103.642
108.278
113.136
118.193
123.422
128.784
134.245
139.772
145.334
150.911
156.484
162.03
167.524
172.944
178.269
183.495
188.619
193.632
198.53
203.309
207.974
212.551
217.055
221.492
225.859
230.131
234.282
238.293
242.138
245.784
249.187
252.285
255.013
257.323
259.166
260.493
261.242
261.322
260.661
259.212
256.941
253.834
249.879
245.056
239.368
232.837
225.503
217.428
208.668
199.268
189.28
178.765
167.808
156.522
145.009
133.351
121.632
109.935
98.355
87.004
75.967
65.304
55.065
45.288
36.027
27.336
19.259
11.821
5.029
-1.135
-6.678
-11.608
-15.948
-19.735
-23.03
-25.914
-28.444
-30.661
-32.605
-34.311
-35.833
-37.225
-38.523
-39.753
-40.93
-42.065
-43.175
-44.274
-45.359
-46.416
-47.416
-48.318
-49.099
-49.749
-50.256
-50.612
-50.805
-50.821
-50.664
-50.347
-49.88
-49.275
-48.54
-47.682
-46.721
-45.681
-44.589
-43.477
-42.365
-41.271
-40.21
-39.195
-38.238
-37.348
-36.526
-35.769
-35.076
-34.446
-33.879
-33.376
-32.931
-32.54
-32.197
-31.896
-31.632
-31.401
-31.197
-31.016
-30.854
-30.709
-30.579
-30.462
-30.356
-30.259
-30.168
-30.08
-29.991
-29.9
-29.804
-29.699
-29.584
-29.457
-29.316
-29.161
-28.991
-28.806
-28.606
-28.391
-28.162
-27.921
-27.667
-27.403
-27.131
-26.852
-26.568
-26.283
-25.997
-25.714
-25.436
-25.165
-24.904
-24.654
-24.418
-24.198
-23.995
-23.813
-23.651
-23.513
-23.4
-23.313
-23.254
-23.223
-23.223
-23.252
-23.313
-23.405
-23.528
-23.684
-23.87
-24.089
-24.338
-24.619
-24.93
-25.272
-25.644
-26.044
-26.472
-26.928
-27.409
-27.915
-28.444
-28.996
-29.568
-30.16
-30.77
-31.396
-32.037
-32.69
-33.354
-34.026
-34.704
-35.386
-36.07
-36.753
-37.434
-38.11
-38.779
-39.437
-40.084
-40.716
-41.33
-41.923
-42.492
-43.033
-43.544
-44.02
-44.459
-44.857
-45.21
-45.515
-45.769
-45.968
-46.108
-46.188
-46.203
-46.151
-46.031
-45.84
-45.577
-45.243
-44.838
-44.362
-43.82
-43.212
-42.541
-41.812
-41.026
-40.188
-39.302
-38.372
-37.402
-36.398
-35.367
-34.316
-33.253
-32.185
-31.122
-30.07
-29.04
-28.037
-27.071
-26.147
-25.273
-24.457
-23.709
-23.037
-22.453
-21.961
-21.562
-21.259
-21.051
-20.931
-20.892
-20.918
-20.989
-21.094
-21.22
-21.354
-21.487
-21.596
-21.661
-21.665
-21.591
-21.425
-21.164
-20.797
-20.319
-19.743
-19.083
-18.38
-17.69
-17.051
-16.505
-16.102
-15.893
-15.961
-16.387
-17.226
-18.523
-20.281
-22.515
-25.292
-28.66
-32.652
-37.282
-42.428
-47.986
-53.958
-60.177
-66.373
-72.199
-76.998
-80.19
-81.607
-81.054
-78.38
-73.873
-67.715
-60.288
-52.702
-46.06
-41.035
-38.031
-36.872
-35.97
-33.565
-29.107
-21.482
-10.41
2.603
19.866
44.226
76.362
120.119
173.877
231.856
292.108
347.662
391.838
419.401
418.52
382.179
310.51
209.572
94.033
-25.321
-146.325
-271.287
-403.001
-534.96
-650.654
-733.567
-774.446
-775.189
-747.742
-704.655
-653.475
-598.081
-538.165
-472.427
-402.792
-332.181
-264.688
-205.978
-158.773
-123.061
-98.038
-81.598
-71.834
-67.677
-67.04
-66.77
-64.81
-60.179
-52.602
-42.825
-31.57
-19.232
-6.892
3.777
11.755
16.602
18.326
17.563
14.904
10.757
5.809
0.926
-3.292
-6.453
-8.362
-9.112
-8.784
-7.407
-5.104
-2.025
1.698
5.928
10.551
15.491
20.638
25.868
31.069
36.119
40.918
45.384
49.443
53.059
56.224
58.951
61.271
63.22
64.839
66.182
67.315
68.297
69.19
70.051
70.929
71.882
72.962
74.215
75.688
77.408
79.392
81.656
84.207
87.051
90.193
93.631
97.35
101.338
105.581
110.062
114.764
119.659
124.712
129.895
135.176
140.531
145.94
151.376
156.815
162.234
167.606
172.911
178.145
183.299
188.372
193.374
198.311
203.203
208.085
212.971
217.869
222.778
227.68
232.565
237.422
242.222
246.938
251.534
255.952
260.141
264.042
267.572
270.652
273.193
275.081
276.235
276.591
276.092
274.708
272.406
269.148
264.932
259.769
253.675
246.697
238.873
230.24
220.88
210.877
200.326
189.36
178.082
166.583
154.966
143.32
131.739
120.342
109.209
98.4
87.978
77.985
68.475
59.517
51.135
43.343
36.148
29.522
23.454
17.942
12.953
8.452
4.392
0.696
-2.685
-5.779
-8.622
-11.241
-13.676
-15.985
-18.197
-20.328
-22.393
-24.396
-26.343
-28.252
-30.114
-31.911
-33.616
-35.187
-36.598
-37.844
-38.916
-39.805
-40.507
-41.004
-41.295
-41.393
-41.305
-41.044
-40.619
-40.036
-39.312
-38.475
-37.553
-36.579
-35.58
-34.571
-33.57
-32.591
-31.648
-30.751
-29.908
-29.118
-28.383
-27.706
-27.089
-26.536
-26.048
-25.62
-25.248
-24.928
-24.657
-24.432
-24.25
-24.108
-24.004
-23.935
-23.9
-23.9
-23.933
-23.997
-24.087
-24.202
-24.336
-24.488
-24.652
-24.826
-25.006
-25.188
-25.369
-25.548
-25.723
-25.89
-26.05
-26.2
-26.339
-26.467
-26.583
-26.688
-26.781
-26.863
-26.933
-26.994
-27.046
-27.088
-27.123
-27.15
-27.171
-27.187
-27.197
-27.203
-27.206
-27.206
-27.206
-27.205
-27.206
-27.209
-27.217
-27.229
-27.249
-27.276
-27.312
-27.358
-27.414
-27.482
-27.563
-27.657
-27.764
-27.884
-28.019
-28.167
-28.33
-28.507
-28.699
-28.906
-29.128
-29.365
-29.618
-29.887
-30.173
-30.476
-30.796
-31.134
-31.49
-31.866
-32.26
-32.674
-33.108
-33.562
-34.036
-34.531
-35.044
-35.577
-36.128
-36.696
-37.28
-37.879
-38.49
-39.112
-39.743
-40.382
-41.025
-41.671
-42.317
-42.96
-43.596
-44.223
-44.837
-45.434
-46.01
-46.56
-47.082
-47.57
-48.02
-48.427
-48.787
-49.096
-49.349
-49.542
-49.67
-49.729
-49.716
-49.627
-49.461
-49.215
-48.889
-48.483
-47.997
-47.433
-46.794
-46.083
-45.303
-44.457
-43.551
-42.588
-41.575
-40.517
-39.419
-38.29
-37.138
-35.971
-34.798
-33.629
-32.472
-31.335
-30.227
-29.158
-28.135
-27.166
-26.26
-25.424
-24.668
-24.001
-23.43
-22.957
-22.58
-22.299
-22.106
-21.995
-21.952
-21.963
-22.012
-22.083
-22.163
-22.236
-22.284
-22.291
-22.238
-22.107
-21.884
-21.565
-21.146
-20.631
-20.029
-19.36
-18.656
-17.962
-17.326
-16.79
-16.411
-16.253
-16.383
-16.867
-17.754
-19.065
-20.826
-23.076
-25.856
-29.21
-33.163
-37.669
-42.685
-48.191
-54.05
-60.03
-65.759
-70.668
-74.229
-76.086
-75.959
-73.652
-69.302
-63.257
-56.155
-49.065
-43.011
-38.802
-36.889
-37.275
-39.284
-41.752
-43.332
-42.254
-36.377
-23.555
-2.261
28.427
67.36
111.598
159.011
206.951
253.905
300.403
343.696
378.811
398.094
389.776
347.469
272.149
171.219
58.455
-57.846
-177.484
-302.706
-434.628
-564.734
-675.147
-750.117
-782.31
-774.901
-740.813
-692.786
-637.89
-579.881
-518.267
-451.424
-381.266
-310.763
-243.982
-186.599
-141.167
-107.331
-84.141
-69.52
-61.581
-59.312
-60.628
-62.28
-62.202
-59.468
-53.782
-45.835
-36.287
-25.451
-14.372
-4.706
2.556
7.016
8.71
8.265
6.243
3.017
-0.765
-4.276
-6.956
-8.463
-8.677
-7.75
-5.806
-2.912
0.794
5.146
9.995
15.195
20.63
26.231
31.902
37.53
43.007
48.222
53.083
57.52
61.495
64.996
68.032
70.635
72.842
74.694
76.246
77.555
78.682
79.684
80.616
81.528
82.474
83.508
84.682
86.042
87.621
89.44
91.515
93.854
96.461
99.34
102.489
105.904
109.58
113.508
117.675
122.071
126.677
131.471
136.424
141.504
146.68
151.924
157.21
162.517
167.824
173.11
178.352
183.527
188.616
193.611
198.506
203.3
207.995
212.593
217.108
221.563
225.973
230.344
234.668
238.931
243.116
247.202
251.164
254.978
258.603
261.992
265.092
267.843
270.181
272.049
273.369
274.054
274.035
273.255
271.679
269.283
266.041
261.935
256.965
251.138
244.481
237.035
228.833
219.934
210.404
200.306
189.735
178.8
167.596
156.214
144.744
133.267
121.884
110.701
99.799
89.249
79.112
69.437
60.292
51.721
43.753
36.412
29.697
23.592
18.09
13.174
8.813
4.972
1.591
-1.409
-4.081
-6.473
-8.629
-10.589
-12.41
-14.141
-15.812
-17.446
-19.057
-20.653
-22.247
-23.848
-25.445
-27.024
-28.555
-29.995
-31.319
-32.513
-33.561
-34.452
-35.171
-35.704
-36.053
-36.226
-36.234
-36.086
-35.79
-35.352
-34.792
-34.133
-33.401
-32.627
-31.833
-31.034
-30.248
-29.488
-28.763
-28.085
-27.455
-26.872
-26.336
-25.846
-25.403
-25.01
-24.664
-24.359
-24.093
-23.861
-23.659
-23.484
-23.333
-23.204
-23.094
-23.002
-22.928
-22.873
-22.835
-22.813
-22.805
-22.809
-22.824
-22.846
-22.874
-22.905
-22.937
-22.969
-22.997
-23.022
-23.042
-23.056
-23.063
-23.062
-23.054
-23.037
-23.013
-22.981
-22.941
-22.894
-22.84
-22.78
-22.713
-22.641
-22.564
-22.482
-22.395
-22.303
-22.208
-22.109
-22.006
-21.901
-21.793
-21.683
-21.572
-21.46
-21.348
-21.238
-21.129
-21.024
-20.923
-20.827
-20.737
-20.655
-20.582
-20.518
-20.464
-20.423
-20.394
-20.379
-20.379
-20.395
-20.429
-20.481
-20.553
-20.647
-20.763
-20.903
-21.068
-21.26
-21.479
-21.727
-22.005
-22.314
-22.654
-23.027
-23.434
-23.874
-24.348
-24.856
-25.398
-25.972
-26.578
-27.214
-27.878
-28.569
-29.284
-30.02
-30.774
-31.545
-32.327
-33.119
-33.916
-34.713
-35.507
-36.294
-37.067
-37.823
-38.556
-39.261
-39.933
-40.567
-41.157
-41.699
-42.186
-42.615
-42.979
-43.274
-43.496
-43.639
-43.701
-43.678
-43.568
-43.369
-43.08
-42.703
-42.236
-41.684
-41.049
-40.333
-39.542
-38.678
-37.747
-36.755
-35.707
-34.609
-33.47
-32.297
-31.099
-29.884
-28.663
-27.445
-26.24
-25.057
-23.904
-22.79
-21.726
-20.72
-19.781
-18.917
-18.136
-17.448
-16.859
-16.371
-15.986
-15.702
-15.514
-15.414
-15.392
-15.433
-15.524
-15.65
-15.794
-15.938
-16.063
-16.153
-16.192
-16.163
-16.054
-15.854
-15.555
-15.158
-14.669
-14.105
-13.498
-12.886
-12.312
-11.822
-11.476
-11.348
-11.515
-12.041
-12.973
-14.327
-16.126
-18.428
-21.294
-24.796
-28.977
-33.764
-39.099
-44.97
-51.233
-57.67
-63.92
-69.305
-73.238
-75.511
-75.924
-74.402
-71.234
-66.531
-60.719
-55.032
-50.441
-47.375
-46.229
-46.582
-47.198
-47.666
-46.584
-41.424
-30.972
-13.542
11.035
40.366
73.742
110.893
152.477
201.232
256.433
313.771
366.606
403.462
413.312
390.009
331.646
244.981
142.815
34.548
-75.328
-189.23
-313.419
-446.754
-578.579
-691.311
-767.971
-801.613
-795.78
-762.279
-713.684
-657.422
-597.616
-534.36
-466.208
-394.863
-323.145
-255.124
-196.582
-150.142
-115.429
-91.416
-75.951
-67.136
-63.982
-64.403
-65.146
-64.16
-60.55
-54.089
-45.533
-35.574
-24.543
-13.474
-4.012
2.868
6.79
7.811
6.58
3.688
-0.47
-5.241
-9.79
-13.556
-16.192
-17.544
-17.732
-16.858
-14.969
-12.196
-8.704
-4.626
-0.103
4.75
9.865
15.137
20.446
25.688
30.753
35.55
40.011
44.074
47.705
50.906
53.695
56.106
58.179
59.957
61.494
62.852
64.088
65.258
66.415
67.603
68.874
70.274
71.845
73.626
75.645
77.916
80.452
83.258
86.331
89.671
93.27
97.116
101.205
105.526
110.068
114.817
119.755
124.859
130.105
135.464
140.9
146.38
151.871
157.343
162.775
168.149
173.443
178.634
183.698
188.618
193.389
198.009
202.473
206.784
210.942
214.956
218.853
222.652
226.361
229.987
233.516
236.927
240.205
243.331
246.279
249.02
251.498
253.649
255.423
256.76
257.598
257.878
257.511
256.425
254.569
251.886
248.348
243.942
238.654
232.482
225.445
217.556
208.863
199.444
189.358
178.686
167.521
155.951
144.093
132.066
119.978
107.946
96.086
84.488
73.245
62.44
52.137
42.414
33.323
24.882
17.113
10.02
3.592
-2.177
-7.314
-11.867
-15.883
-19.426
-22.576
-25.39
-27.921
-30.225
-32.344
-34.34
-36.26
-38.127
-39.96
-41.771
-43.566
-45.355
-47.143
-48.913
-50.644
-52.31
-53.866
-55.289
-56.564
-57.672
-58.604
-59.343
-59.879
-60.214
-60.36
-60.329
-60.132
-59.779
-59.279
-58.653
-57.928
-57.129
-56.287
-55.424
-54.559
-53.706
-52.882
-52.096
-51.36
-50.678
-50.047
-49.469
-48.946
-48.477
-48.067
-47.712
-47.408
-47.152
-46.94
-46.768
-46.634
-46.534
-46.465
-46.425
-46.413
-46.427
-46.468
-46.534
-46.623
-46.732
-46.86
-47.002
-47.158
-47.324
-47.497
-47.675
-47.855
-48.037
-48.218
-48.398
-48.575
-48.747
-48.915
-49.077
-49.233
-49.382
-49.525
-49.66
-49.789
-49.911
-50.027
-50.136
-50.239
-50.336
-50.427
-50.513
-50.594
-50.67
-50.741
-50.808
-50.872
-50.932
-50.99
-51.047
-51.102
-51.158
-51.214
-51.272
-51.333
-51.397
-51.465
-51.539
-51.618
-51.705
-51.799
-51.902
-52.014
-52.137
-52.272
-52.419
-52.58
-52.755
-52.945
-53.152
-53.376
-53.617
-53.877
-54.157
-54.455
-54.773
-55.111
-55.468
-55.843
-56.237
-56.646
-57.072
-57.511
-57.963
-58.425
-58.895
-59.37
-59.849
-60.326
-60.8
-61.266
-61.721
-62.16
-62.579
-62.974
-63.34
-63.672
-63.967
-64.218
-64.423
-64.575
-64.671
-64.707
-64.677
-64.58
-64.411
-64.168
-63.85
-63.456
-62.985
-62.439
-61.819
-61.127
-60.366
-59.539
-58.648
-57.699
-56.696
-55.643
-54.547
-53.415
-52.253
-51.07
-49.874
-48.675
-47.482
-46.302
-45.143
-44.017
-42.929
-41.891
-40.911
-39.995
-39.153
-38.394
-37.725
-37.149
-36.669
-36.284
-35.988
-35.777
-35.638
-35.558
-35.524
-35.52
-35.531
-35.538
-35.521
-35.467
-35.359
-35.178
-34.916
-34.563
-34.113
-33.567
-32.934
-32.234
-31.503
-30.785
-30.125
-29.574
-29.195
-29.065
-29.268
-29.87
-30.923
-32.441
-34.441
-36.978
-40.104
-43.883
-48.357
-53.446
-59.077
-65.229
-71.748
-78.406
-84.847
-90.392
-94.404
-96.629
-96.846
-94.966
-91.307
-86.015
-79.499
-72.997
-67.633
-64.028
-62.586
-62.885
-63.682
-64.346
-64.022
-60.601
-51.903
-35.865
-10.595
23.181
62.484
105.771
151.416
199.087
250.605
303.241
350.9
384.15
389.883
360.451
295.608
202.979
96.653
-12.745
-121.71
-233.487
-352.551
-476.584
-594.201
-688.012
-745.583
-763.552
-748.393
-713.954
-669.631
-620.566
-568.366
-510.172
-446.541
-380.493
-315.188
-255.798
-205.991
-166.363
-136.757
-116.124
-102.487
-94.51
-90.685
-88.389
-85.403
-80.575
-73.25
-63.561
-52.319
-40.073
-27.65
-16.554
-7.824
-1.932
0.952
1.214
-0.56
-3.93
-8.265
-12.723
-16.717
-19.871
-21.954
-22.98
-22.985
-21.974
-20.042
-17.333
-13.967
-10.056
-5.696
-0.953
4.08
9.284
14.541
19.744
24.799
29.63
34.168
38.351
42.144
45.544
48.568
51.245
53.613
55.711
57.588
59.301
60.909
62.466
64.026
65.634
67.336
69.178
71.199
73.439
75.926
78.678
81.703
85.005
88.586
92.446
96.582
100.984
105.636
110.523
115.627
120.931
126.409
132.031
137.762
143.566
149.41
155.266
161.112
166.923
172.677
178.35
183.917
189.361
194.675
199.854
204.899
209.813
214.6
219.276
223.868
228.394
232.862
237.268
241.598
245.837
249.963
253.953
257.781
261.406
264.776
267.838
270.526
272.778
274.533
275.712
276.222
275.993
274.965
273.103
270.382
266.777
262.272
256.87
250.579
243.434
235.481
226.759
217.334
207.275
196.651
185.563
174.123
162.432
150.583
138.669
126.772
114.995
103.447
92.208
81.351
70.933
61.002
51.623
42.838
34.675
27.156
20.28
14.03
8.398
3.37
-1.084
-4.998
-8.431
-11.463
-14.147
-16.529
-18.652
-20.557
-22.299
-23.926
-25.466
-26.942
-28.368
-29.75
-31.104
-32.441
-33.749
-35.017
-36.214
-37.298
-38.245
-39.04
-39.667
-40.116
-40.372
-40.421
-40.267
-39.919
-39.389
-38.686
-37.82
-36.798
-35.642
-34.374
-33.023
-31.62
-30.19
-28.75
-27.32
-25.912
-24.54
-23.215
-21.941
-20.718
-19.546
-18.428
-17.366
-16.362
-15.418
-14.529
-13.694
-12.908
-12.171
-11.48
-10.833
-10.23
-9.669
-9.151
-8.677
-8.247
-7.861
-7.519
-7.218
-6.953
-6.72
-6.517
-6.339
-6.18
-6.036
-5.905
-5.782
-5.667
-5.559
-5.454
-5.349
-5.241
-5.127
-5.003
-4.866
-4.709
-4.53
-4.322
-4.084
-3.813
-3.509
-3.167
-2.782
-2.347
-1.857
-1.313
-0.715
-0.066
0.627
1.355
2.102
2.843
3.557
4.223
4.825
5.351
5.785
6.114
6.327
6.411
6.363
6.194
5.913
5.535
5.085
4.589
4.089
3.644
3.294
3.08
3.033
3.172
3.521
4.092
4.88
5.874
7.043
8.332
9.678
11.007
12.221
13.23
13.923
14.17
13.865
12.914
11.233
8.768
5.462
1.279
-3.781
-9.704
-16.451
-23.941
-32.075
-40.731
-49.751
