-18.793
12.987
-9.552
-10.045
-30.033
-32.166
-19.08
-12.108
-8.596
1.304
17.938
37.474
54.921
65.471
67.866
63.206
53.25
40.517
27.14
14.804
5.532
0.537
0.021
3.782
11.009
20.522
31.203
41.825
51.028
57.999
62.442
64.293
63.848
61.491
57.558
52.527
46.932
41.132
35.344
29.691
24.207
18.948
14.008
9.442
5.294
1.61
-1.564
-4.164
-6.133
-7.427
-8.028
-7.953
-7.242
-5.943
-4.109
-1.789
0.961
4.078
7.498
11.16
15.007
18.995
23.081
27.215
31.353
35.449
39.453
43.344
47.118
50.776
54.334
57.807
61.211
64.574
67.931
71.311
74.742
78.247
81.848
85.574
89.454
93.52
97.804
102.327
107.102
112.14
117.443
123.011
128.844
134.935
141.272
147.851
154.664
161.708
168.977
176.464
184.159
192.052
200.132
208.387
216.806
225.378
234.093
242.946
251.934
261.049
270.278
279.604
289.01
298.481
308.001
317.549
327.104
336.645
346.16
355.65
365.113
374.544
383.928
393.246
402.477
411.611
420.648
429.592
438.438
447.18
455.819
464.365
472.836
481.235
489.544
497.722
505.731
513.55
521.173
528.598
535.818
542.814
549.559
556.035
562.236
568.152
573.771
579.061
583.99
588.557
592.791
596.749
600.48
604.012
607.36
610.545
613.6
616.569
619.498
622.409
625.313
628.226
631.157
634.127
637.146
640.184
643.195
646.113
648.863
651.387
653.622
655.489
656.92
657.818
658.04
657.536
656.324
654.493
652.288
649.944
647.603
645.518
644.008
643.226
643.266
643.982
644.753
645.071
644.69
643.275
640.669
636.934
632.021
626.37
621.287
618.02
617.689
621.562
630.397
644.873
666.183
694.856
730.354
771.822
817.762
866.12
915.171
962.575
1004.648
1037.892
1059.272
1065.956
1056.208
1028.956
983.128
919.722
842.482
755.454
662.482
565.413
463.894
360.173
261.134
177.79
120.955
95.642
98.743
120.192
150.206
183.28
218.162
257.483
302.81
353.072
406.284
459.755
511.536
560.559
606.011
647.23
683.401
713.878
738.315
756.5
768.509
775.015
776.88
775.127
771.32
766.837
762.5
758.888
756.366
754.953
754.669
755.514
756.763
757.55
757.559
756.717
755.127
753.063
750.568
747.504
744.236
741.376
739.229
737.963
737.545
737.779
738.648
740.27
742.539
745.182
747.953
750.61
753.015
755.138
756.902
758.205
759.006
759.3
759.102
758.464
757.426
755.998
754.198
752.025
749.458
746.514
743.241
739.653
735.785
731.688
727.391
722.968
718.52
714.085
709.685
705.507
701.738
698.346
695.394
692.974
690.882
689.979
691.075
693.113
695.772
697.046
694.534
690.865
687.76
687.792
694.5
704.602
715.322
724.74
729.721
732.379
734.834
737.478
741.575
746.27
750.499
754.419
757.88
760.924
763.737
766.182
768.148
769.708
770.927
771.819
772.405
772.713
772.747
772.584
772.38
772.135
771.754
771.157
770.198
768.883
767.431
765.896
764.163
762.298
760.453
758.841
757.854
757.457
757.098
756.439
755.325
753.443
750.496
746.075
739.503
730.71
720.29
708.628
695.984
682.682
668.912
655.031
641.675
628.99
616.613
604.363
592.135
579.896
567.818
555.919
544.018
532.173
520.649
509.633
499.295
489.697
480.74
472.396
464.708
457.66
451.215
445.312
439.844
434.733
429.933
425.388
421.046
416.842
412.691
408.534
404.337
400.083
395.773
391.405
386.968
382.462
377.889
373.258
368.594
363.919
359.261
354.642
350.08
345.594
341.207
336.932
332.773
328.726
324.775
320.907
317.11
313.371
309.675
306.004
302.337
298.652
294.925
291.136
287.268
283.304
279.232
275.041
270.722
266.271
261.689
256.977
252.132
247.156
242.049
236.814
231.452
225.97
220.371
214.659
208.839
202.915
196.891
190.77
184.558
178.258
171.873
165.408
158.868
152.258
145.584
138.855
132.074
125.25
118.39
111.501
104.591
97.665
90.733
83.799
76.872
69.957
63.061
56.189
49.347
42.54
35.772
29.047
22.37
15.744
9.174
2.663
-3.786
-10.17
-16.487
-22.733
-28.908
-35.01
-41.037
-46.991
-52.869
-58.671
-64.399
-70.052
-75.63
-81.136
-86.57
-91.934
-97.23
-102.46
-107.627
-112.732
-117.777
-122.765
-127.695
-132.568
-137.384
-142.143
-146.843
-151.485
-156.068
-160.592
-165.058
-169.466
-173.817
-178.113
-182.353
-186.538
-190.665
-194.732
-198.737
-202.676
-206.545
-210.342
-214.06
-217.697
-221.25
-224.72
-228.103
-231.396
-234.59
-237.681
-240.668
-243.552
-246.334
-249.022
-251.62
-254.142
-256.608
-259.041
-261.461
-263.886
-266.322
-268.773
-271.244
-273.74
-276.265
-278.816
-281.375
-283.923
-286.447
-288.933
-291.365
-293.716
-295.933
-297.971
-299.787
-301.345
-302.63
-303.628
-304.329
-304.734
-304.861
-304.749
-304.46
-304.066
-303.619
-303.167
-302.758
-302.456
-302.355
-302.538
-303.084
-304.06
-305.522
-307.534
-310.144
-313.384
-317.248
-321.695
-326.655
-332.046
-337.805
-343.879
-350.218
-356.769
-363.454
-370.21
-376.969
-383.651
-390.184
-396.482
-402.479
-408.133
-413.434
-418.383
-423.024
-427.465
-431.724
-435.735
-439.329
-442.175
-443.962
-444.492
-443.548
-440.852
-436.372
-430.336
-423.244
-416.126
-409.991
-405.475
-403.212
-403.76
-407.201
-413.198
-420.843
-428.206
-433.208
-434.233
-429.615
-417.762
-397.534
-368.51
-331.182
-288.112
-243.495
-200.086
-160.433
-126.371
-97.486
-77.851
-74.86
-94.872
-145.614
-226.592
-327.512
-439.087
-551.126
-660.33
-773.142
-889.977
-1006.119
-1109.726
-1181.173
-1210.517
-1198.529
-1154.677
-1096.464
-1035.861
-977.53
-921.976
-865.792
-808.278
-752.043
-700.336
-656.532
-621.814
-595.554
-576.228
-561.813
-551.102
-543.057
-536.514
-530.88
-525.528
-519.944
-514.742
-510.739
-508.186
-507.398
-508.36
-510.418
-513.361
-517.006
-520.289
-522.285
-522.546
-520.688
-517.005
-512.369
-507.176
-501.732
-496.785
-492.813
-490.051
-488.681
-488.319
-488.242
-488.091
-487.62
-486.524
-484.738
-482.266
-479.11
-475.547
-471.971
-468.601
-465.597
-463.065
-460.981
-459.331
-458.113
-457.25
-456.654
-456.267
-456.031
-455.913
-455.898
-455.952
-456.034
-456.105
-456.119
-456.034
-455.814
-455.424
-454.836
-454.033
-453
-451.728
-450.207
-448.428
-446.386
-444.078
-441.504
-438.662
-435.554
-432.181
-428.547
-424.66
-420.53
-416.172
-411.598
-406.827
-401.877
-396.769
-391.534
-386.199
-380.792
-375.338
-369.857
-364.365
-358.884
-353.435
-348.039
-342.712
-337.457
-332.272
-327.158
-322.112
-317.133
-312.214
-307.333
-302.473
-297.622
-292.772
-287.934
-283.12
-278.339
-273.601
-268.918
-264.313
-259.835
-255.542
-251.482
-247.707
-244.264
-241.206
-238.604
-236.527
-235.031
-234.164
-233.957
-234.432
-235.611
-237.516
-240.156
-243.521
-247.568
-252.229
-257.443
-263.146
-269.262
-275.711
-282.388
-289.18
-295.981
-302.684
-309.183
-315.384
-321.191
-326.507
-331.245
-335.342
-338.756
-341.476
-343.496
-344.811
-345.434
-345.386
-344.708
-343.456
-341.691
-339.483
-336.911
-334.05
-330.969
-327.742
-324.438
-321.115
-317.815
-314.564
-311.379
-308.275
-305.258
-302.332
-299.491
-296.716
-293.984
-291.268
-288.528
-285.735
-282.866
-279.897
-276.809
-273.59
-270.23
-266.733
-263.109
-259.367
-255.518
-251.573
-247.544
-243.451
-239.312
-235.151
-230.992
-226.853
-222.748
-218.69
-214.688
-210.748
-206.875
-203.068
-199.325
-195.641
-192.017
-188.449
-184.937
-181.478
-178.067
-174.702
-171.377
-168.089
-164.836
-161.617
-158.429
-155.272
-152.144
-149.047
-145.981
-142.946
-139.942
-136.968
-134.024
-131.11
-128.227
-125.374
-122.554
-119.768
-117.019
-114.308
-111.641
-109.02
-106.448
-103.929
-101.466
-99.062
-96.72
-94.442
-92.231
-90.089
-88.017
-86.016
-84.088
-82.232
-80.45
-78.74
-77.103
-75.537
-74.043
-72.62
-71.267
-69.985
-68.774
-67.632
-66.56
-65.558
-64.623
-63.756
-62.955
-62.216
-61.539
-60.919
-60.355
-59.842
-59.377
-58.958
-58.581
-58.244
-57.945
-57.68
-57.449
-57.25
-57.081
-56.943
-56.833
-56.753
-56.703
-56.683
-56.694
-56.736
-56.81
-56.915
-57.052
-57.219
-57.415
-57.637
-57.882
-58.148
-58.432
-58.734
-59.05
-59.379
-59.721
-60.075
-60.442
-60.822
-61.211
-61.608
-62.008
-62.409
-62.806
-63.194
-63.567
-63.919
-64.247
-64.548
-64.818
-65.054
-65.248
-65.391
-65.477
-65.503
-65.468
-65.373
-65.219
-65.011
-64.76
-64.487
-64.211
-63.945
-63.692
-63.45
-63.218
-62.995
-62.782
-62.577
-62.369
-62.146
-61.897
-61.614
-61.29
-60.909
-60.44
-59.841
-59.075
-58.118
-56.967
-55.631
-54.115
-52.43
-50.593
-48.624
-46.567
-44.461
-42.336
-40.217
-38.123
-36.084
-34.15
-32.379
-30.823
-29.515
-28.466
-27.674
-27.144
-26.874
-26.858
-27.083
-27.511
-28.111
-28.865
-29.76
-30.795
-31.964
-33.242
-34.603
-36.027
-37.507
-39.067
-40.731
-42.512
-44.415
-46.419
-48.504
-50.677
-52.932
-55.256
-57.604
-59.886
-62.043
-64.045
-65.809
-67.211
-68
-67.825
-66.426
-63.567
-58.968
-52.462
-44.015
-33.724
-22.141
-9.948
2.413
14.114
24.153
32.109
37.654
41.505
46.057
52.219
59.955
68.902
76.861
84.655
95.678
113.447
142.633
184.37
235.778
290.493
338.386
368.599
370.512
338.544
273.35
181.134
74.54
-35.585
-142.972
-245.438
-347.248
-451.089
-553.313
-646.098
-716.723
-754.134
-755.95
-726.699
-676.618
-617.052
-554.543
-491.148
-426.256
-359.466
-292.522
-229.092
-173.212
-127.105
-91.424
-65.696
-48.484
-38.593
-34.877
-35.417
-38.313
-41.826
-44.237
-44.762
-43.353
-40.039
-35.152
-29.379
-23.354
-17.851
-13.733
-11.246
-10.223
-10.387
-11.242
-12.286
-13.143
-13.362
-12.486
-10.338
-6.902
-2.262
3.37
9.816
16.929
24.497
32.309
40.206
48.035
55.669
62.979
69.78
75.912
81.294
85.896
89.711
92.673
94.666
95.699
95.94
95.648
95.107
94.362
93.37
92.402
91.727
91.338
91.194
90.797
90.113
90.589
92.417
94.586
95.007
89.481
78.511
67.173
61.012
66.943
84.987
108.35
131.48
148.642
158.457
164.769
169.177
172.681
175.883
177.497
177.639
177.106
176.121
175.33
175.46
176.919
179.885
184.158
189.085
194.146
199.187
204.11
208.777
212.982
216.551
219.521
222.164
224.707
227.214
229.708
232.214
234.745
237.317
239.793
241.86
243.353
244.301
244.792
244.974
245.018
245.046
245.429
246.815
249.489
253.344
258.013
262.814
267.165
270.706
272.791
272.504
269.374
263.37
254.911
244.944
234.211
223.131
212.303
202.458
194.042
187.264
181.947
177.475
173.446
169.71
166.06
162.3
158.304
153.96
149.346
144.731
140.248
135.923
131.773
127.756
123.86
120.113
116.483
112.907
109.355
105.814
102.295
98.834
95.45
92.148
88.941
85.846
82.884
80.078
77.435
74.962
72.658
70.523
68.552
66.739
65.071
63.537
62.127
60.83
59.639
58.546
57.544
56.625
55.781
55.005
54.29
53.629
53.016
52.447
51.918
51.427
50.974
50.558
50.175
49.825
49.505
49.213
48.947
48.704
48.484
48.285
48.108
47.954
47.824
47.72
47.644
47.6
47.589
47.614
47.677
47.782
47.929
48.121
48.359
48.645
48.979
49.362
49.794
50.275
50.805
51.383
52.007
52.677
53.391
54.148
54.946
55.784
56.661
57.574
58.523
59.504
60.517
61.558
62.625
63.715
64.824
65.95
67.087
68.234
69.385
70.536
71.685
72.828
73.961
75.082
76.188
77.276
78.345
79.392
80.418
81.42
82.397
83.351
84.279
85.183
86.061
86.914
87.741
88.542
89.318
90.067
90.791
91.489
92.162
92.81
93.434
94.035
94.613
95.169
95.706
96.223
96.723
97.207
97.674
98.127
98.567
98.993
99.407
99.808
100.197
100.574
100.938
101.29
101.629
101.956
102.269
102.57
102.86
103.142
103.415
103.683
103.947
104.209
104.472
104.738
105.007
105.28
105.561
105.85
106.153
106.471
106.807
107.167
107.556
107.977
108.439
108.946
109.501
110.111
110.781
111.519
112.336
113.238
114.228
115.306
116.474
117.727
119.062
120.465
121.92
123.415
124.936
126.474
128.023
129.572
131.113
132.639
134.141
135.617
137.076
138.527
139.986
141.483
143.046
144.709
146.52
148.505
150.686
153.084
155.703
158.55
161.626
164.914
168.402
172.074
175.889
179.797
183.736
187.609
191.334
194.823
197.978
200.725
202.999
204.731
205.882
206.418
206.316
205.567
204.164
202.09
199.361
196.02
192.128
187.789
183.093
178.121
172.972
167.734
162.494
157.336
152.323
147.489
142.865
138.485
134.383
130.619
127.234
124.226
121.565
119.193
117.051
115.096
113.285
111.533
109.713
107.778
105.783
103.912
102.476
101.732
101.827
102.925
105.268
108.956
113.8
119.292
124.553
128.711
131.246
131.773
129.812
125.179
118.269
110.028
102.106
96.434
94.464
97.413
106.658
123.339
147.979
180.218
218.686
260.462
301.756
340.089
372.996
398.869
418.231
427.501
420.529
392.161
336.065
252.98
151.297
39.317
-73.289
-180.356
-280.886
-372.347
-451.764
-515.692
-559.79
-582.303
-583.567
-564.948
-529.122
-479.362
-419.352
-353.507
-286.109
-220.591
-160.031
-106.766
-62.338
-27.807
-3.127
12.89
21.644
24.566
23.37
19.396
14
8.881
4.946
2.503
1.948
3.277
6.3
11.242
17.889
25.422
33.391
41.294
48.371
54.394
59.18
62.217
63.448
63.182
61.643
59.38
57.131
55.207
53.863
53.435
53.968
55.432
57.793
60.776
64.036
67.396
70.714
73.884
76.903
79.727
82.298
84.622
86.704
88.544
90.155
91.531
92.663
93.57
94.282
94.842
95.306
95.719
96.12
96.546
97.025
97.592
98.285
99.135
100.18
101.444
102.946
104.701
106.719
109.004
111.563
114.393
117.485
120.828
124.412
128.227
132.264
136.506
140.927
145.496
150.179
154.949
159.79
164.69
169.633
174.605
179.59
184.574
189.553
194.527
199.486
204.417
209.308
214.156
218.973
223.786
228.616
233.462
238.311
243.135
247.907
252.598
257.166
261.559
265.708
269.547
273.027
276.113
278.768
280.945
282.579
283.592
283.922
283.532
282.405
280.539
277.933
274.604
270.588
265.949
260.772
255.134
249.091
242.692
235.984
229.023
221.885
214.65
207.385
200.139
192.953
185.863
178.904
172.101
165.459
158.963
152.584
146.305
140.128
134.061
128.117
122.299
116.602
111.025
105.576
100.269
95.122
90.147
85.35
80.742
76.342
72.177
68.272
64.638
61.269
58.151
55.272
52.627
50.223
48.058
46.126
44.421
42.936
41.68
40.668
39.91
39.402
39.139
39.121
39.369
39.928
40.837
42.125
43.802
45.858
48.287
51.077
54.195
57.592
61.187
64.89
68.632
72.367
76.053
79.642
83.055
86.189
88.953
91.276
93.11
94.418
95.159
95.312
94.901
93.988
92.684
91.104
89.327
87.406
85.386
83.319
81.282
79.368
77.649
76.182
75.019
74.212
73.832
73.922
74.472
75.43
76.697
78.179
79.819
81.576
83.417
85.307
87.201
89.057
90.855
92.578
94.202
95.69
96.984
98.05
98.889
99.53
100.028
100.433
100.771
101.064
101.332
101.594
101.865
102.149
102.434
102.71
102.981
103.258
103.565
103.916
104.309
104.736
105.177
105.621
106.059
106.483
106.882
107.25
107.581
107.882
108.162
108.43
108.688
108.935
109.169
109.387
109.591
109.78
109.955
110.115
110.26
110.39
110.506
110.609
110.696
110.764
110.807
110.821
110.802
110.745
110.644
110.494
110.29
110.027
109.698
109.299
108.822
108.26
107.605
106.852
105.992
105.018
103.922
102.698
101.339
99.839
98.191
96.389
94.427
92.301
90.008
87.543
84.904
82.089
79.098
75.93
72.587
69.07
65.38
61.519
57.488
53.292
48.932
44.412
39.734
34.903
29.927
24.813
19.571
14.21
8.741
3.173
-2.479
-8.206
-13.997
-19.845
-25.741
-31.675
-37.633
-43.598
-49.558
-55.505
-61.43
-67.326
-73.188
-79.017
-84.818
-90.608
-96.401
-102.204
-108.014
-113.822
-119.62
-125.405
-131.169
-136.908
-142.607
-148.251
-153.832
-159.343
-164.772
-170.098
-175.278
-180.251
-184.965
-189.383
-193.483
-197.259
-200.707
-203.827
-206.634
-209.157
-211.44
-213.526
-215.44
-217.203
-218.847
-220.422
-221.999
-223.681
-225.557
-227.697
-230.164
-232.992
-236.204
-239.82
-243.837
-248.231
-252.945
-257.903
-263.026
-268.25
-273.517
-278.781
-283.957
-288.886
-293.459
-297.661
-301.559
-305.273
-308.819
-312.031
-314.754
-316.997
-318.723
-319.789
-319.882
-318.528
-315.543
-311.172
-305.75
-299.433
-292.408
-284.93
-277.457
-270.72
-265.115
-260.642
-257.305
-255.35
-255.011
-256.309
-259.237
-263.607
-269.136
-275.625
-281.758
-284.773
-283.419
-277.487
-267.562
-256.403
-242.368
-221.275
-191.131
-148.39
-95.52
-38.512
21.03
77.54
125.927
160.306
167.296
139.54
76.184
-17.212
-124.72
-234.116
-338.812
-435.959
-528.468
-615.989
-694.45
-759.781
-807.389
-835.263
-844.414
-836.284
-812.67
-776.208
-729.709
-676.193
-619.11
-561.408
-505.236
-452.793
-405.976
-365.883
-333.296
-308.279
-289.901
-277.147
-268.94
-263.622
-259.757
-256.176
-251.663
-245.775
-238.763
-230.919
-222.971
-216.134
-211.164
-208.573
-208.731
-211.177
-215.22
-220.281
-225.291
-228.914
-230.337
-229.056
-225.005
-218.884
-211.295
-202.629
-193.597
-185.011
-177.391
-171.082
-166.019
-161.655
-157.663
-153.942
-150.315
-146.631
-142.787
-138.71
-134.525
-130.556
-127
-123.9
-121.246
-118.958
-116.968
-115.239
-113.692
-112.186
-110.591
-108.829
-106.864
-104.711
-102.407
-99.946
-97.314
-94.501
-91.497
-88.311
-84.962
-81.457
-77.798
-73.996
-70.067
-66.04
-61.966
-57.868
-53.744
-49.579
-45.329
-40.972
-36.504
-31.923
-27.225
-22.413
-17.491
-12.479
-7.417
-2.336
2.743
7.807
12.864
17.903
22.9
27.82
32.623
37.283
41.792
46.145
50.336
54.371
58.268
62.064
65.822
69.59
73.401
77.273
81.209
85.22
89.323
93.536
97.859
102.269
106.721
111.163
115.535
119.764
123.756
127.39
130.522
133.026
134.803
135.773
135.864
135
133.101
130.094
125.947
120.667
114.288
106.866
98.468
89.185
79.142
68.502
57.446
46.143
34.74
23.374
12.185
1.332
-9.012
-18.687
-27.578
-35.601
-42.704
-48.848
-54.01
-58.192
-61.43
-63.795
-65.372
-66.234
-66.444
-66.069
-65.19
-63.913
-62.365
-60.658
-58.877
-57.087
-55.336
-53.665
-52.109
-50.685
-49.385
-48.186
-47.064
-46.002
-44.991
-44.017
-43.053
-42.055
-40.969
-39.753
-38.38
-36.833
-35.102
-33.182
-31.07
-28.774
-26.317
-23.724
-21.018
-18.215
-15.33
-12.379
-9.386
-6.378
-3.386
-0.432
2.465
5.291
8.035
10.688
13.243
15.699
18.06
20.332
22.515
24.611
26.62
28.544
30.386
32.152
33.843
35.465
37.019
38.508
39.934
41.301
42.609
43.86
45.054
46.192
47.275
48.305
49.285
50.216
51.1
51.941
52.739
53.497
54.217
54.9
55.546
56.156
56.731
57.27
57.774
58.242
58.674
59.07
59.428
59.748
60.03
60.273
60.475
60.639
60.762
60.845
60.889
60.893
60.859
60.785
60.673
60.524
60.338
60.117
59.86
59.569
59.246
58.891
58.505
58.09
57.648
57.179
56.686
56.171
55.636
55.083
54.515
53.934
53.344
52.746
52.144
51.54
50.936
50.335
49.739
49.15
48.568
47.997
47.437
46.889
46.354
45.833
45.325
44.831
44.35
43.882
43.427
42.983
42.551
42.128
41.714
41.307
40.907
40.512
40.12
39.73
39.34
38.948
38.552
38.149
37.739
37.319
36.886
36.441
35.98
35.503
35.008
34.496
33.965
33.415
32.847
32.262
31.659
31.042
30.411
29.769
29.119
28.465
27.809
27.155
26.507
25.87
25.246
24.642
24.06
23.506
22.984
22.499
22.055
21.658
21.313
21.024
20.795
20.632
20.538
20.517
20.572
20.707
20.924
21.224
21.61
22.082
22.64
23.284
24.013
24.823
25.711
26.674
27.705
28.798
29.946
31.14
32.372
33.634
34.916
36.208
37.503
38.79
40.06
41.305
42.514
43.677
44.784
45.825
46.789
47.668
48.452
49.135
49.712
50.181
50.538
50.78
50.9
50.894
50.76
50.495
50.098
49.571
48.92
48.159
47.309
46.389
45.418
44.414
43.387
42.351
41.321
40.313
39.346
38.433
37.586
36.817
36.138
35.553
35.049
34.582
34.096
33.531
32.835
31.975
30.905
29.561
27.878
25.781
23.206
20.12
16.455
12.107
7.035
1.279
-4.985
-11.399
-17.614
-23.356
-28.297
-32.08
-34.467
-35.379
-35.122
-34.407
-33.95
-34.32
-36.016
-39.486
-44.977
-52.377
-60.854
-68.874
-74.65
-76.407
-72.546
-61.475
-41.778
-12.659
25.7
72.037
124.176
179.355
234.51
285.89
329.253
360.591
376.518
374.387
352.553
310.483
248.424
168.857
76.681
-23.931
-129.135
-235.945
-343.733
-447.417
-538.29
-608.811
-650.698
-663.177
-653.476
-627.972
-593.99
-555.511
-511.068
-460.987
-406.577
-349.478
-293.138
-240.099
-191.628
-148.668
-111.716
-80.962
-56.201
-37.199
-23.547
-14.369
-8.709
-5.511
-3.487
-1.56
0.762
3.763
7.518
11.756
16.167
20.332
23.627
25.485
25.709
24.373
21.711
18.118
13.977
9.655
5.6
2.227
-0.239
-1.726
-2.251
-1.901
-0.758
1.12
3.632
6.672
10.181
14.1
18.373
22.955
27.764
32.699
37.673
42.614
47.463
52.179
56.72
61.036
65.107
68.927
72.498
75.821
78.878
81.654
84.151
86.386
88.388
90.191
91.832
93.342
94.762
96.135
97.512
98.948
100.481
102.135
103.933
105.893
108.042
110.402
112.983
115.787
118.815
122.066
125.54
129.229
133.115
137.172
141.37
145.67
150.036
154.427
158.81
163.16
167.457
171.687
175.842
179.913
183.891
187.767
191.531
195.178
198.701
202.09
205.343
208.469
211.486
214.429
217.317
220.145
222.904
225.569
228.108
230.493
232.678
234.609
236.239
237.524
238.432
238.949
239.044
238.677
237.799
236.341
234.26
231.541
228.174
224.168
219.544
214.332
208.589
202.396
195.822
188.927
181.76
174.355
166.76
159.033
151.24
143.454
135.737
128.132
120.682
113.423
106.377
99.559
92.959
86.547
80.306
74.23
68.319
62.587
57.037
51.668
46.478
41.468
36.637
31.991
27.528
23.248
19.156
15.261
11.581
8.14
4.957
2.038
-0.611
-2.993
-5.11
-6.967
-8.57
-9.933
-11.068
-11.985
-12.695
-13.207
-13.532
-13.684
-13.678
-13.53
-13.256
-12.868
-12.379
-11.801
-11.145
-10.422
-9.638
-8.801
-7.918
-6.995
-6.041
-5.064
-4.069
-3.063
-2.053
-1.043
-0.038
0.957
1.939
2.907
3.859
4.792
5.708
6.605
7.484
8.345
9.189
10.017
10.829
11.626
12.41
13.18
13.937
14.681
15.412
16.128
16.83
17.517
18.186
18.837
19.468
20.077
20.664
21.225
21.76
22.267
22.745
23.191
23.604
23.983
24.325
24.629
24.893
25.114
25.292
25.423
25.507
25.542
25.526
25.459
25.339
25.166
24.939
24.66
24.328
23.945
23.513
23.033
22.507
21.939
21.33
20.684
20.005
19.295
18.557
17.796
17.015
16.218
15.408
14.589
13.764
12.937
12.111
11.291
10.479
9.679
8.894
8.127
7.381
6.659
5.964
5.296
4.66
4.055
3.484
2.947
2.445
1.978
1.546
1.148
0.783
0.451
0.149
-0.123
-0.368
-0.587
-0.782
-0.955
-1.108
-1.244
-1.364
-1.472
-1.568
-1.657
-1.741
-1.821
-1.901
-1.984
-2.071
-2.165
-2.268
-2.382
-2.511
-2.654
-2.815
-2.995
-3.193
-3.412
-3.652
-3.911
-4.191
-4.489
-4.804
-5.135
-5.48
-5.837
-6.204
-6.578
-6.957
-7.339
-7.72
-8.097
-8.468
-8.829
-9.175
-9.505
-9.812
-10.095
-10.348
-10.569
-10.752
-10.894
-10.99
-11.039
-11.034
-10.974
-10.855
-10.673
-10.428
-10.118
-9.741
-9.3
-8.793
-8.224
-7.596
-6.913
-6.178
-5.397
-4.574
-3.714
-2.824
-1.909
-0.977
-0.034
0.911
1.849
2.771
3.664
4.52
5.327
6.077
6.758
7.362
7.877
8.296
8.611
8.812
8.888
8.828
8.624
8.274
7.777
7.136
6.358
5.449
4.423
3.297
2.086
0.804
-0.538
-1.929
-3.355
-4.799
-6.241
-7.658
-9.033
-10.356
-11.619
-12.819
-13.96
-15.054
-16.12
-17.194
-18.302
-19.47
-20.724
-22.097
-23.624
-25.347
-27.305
-29.525
-32.039
-34.879
-38.073
-41.65
-45.622
-49.968
-54.675
-59.747
-65.138
-70.728
-76.31
-81.53
-86.026
-89.514
-91.668
-92.114
-90.661
-87.332
-82.44
-76.751
-71.09
-66.081
-62.375
-60.587
-60.922
-63.152
-66.508
-69.35
-69.83
-66.356
-57.238
-40.945
-16.606
16.026
56.344
102.382
151.516
200.906
246.957
285.783
313.824
327.728
324.692
303.287
262.993
203.871
128.445
40.32
-57.628
-160.833
-266.224
-371.3
-468.747
-552.672
-617.361
-657.129
-674.392
-672.536
-654.698
-625.932
-587.151
-539.428
-485.64
-427.965
-369.713
-313.727
-261.679
-214.989
-174.24
-139.707
-111.475
-88.916
-71.451
-58.512
-49.121
-42.389
-37.491
-33.426
-29.39
-25.103
-20.424
-15.349
-10.16
-5.121
-0.522
3.157
5.452
6.228
5.574
3.699
0.958
-2.314
-5.825
-9.193
-12.025
-14.116
-15.404
-15.917
-15.768
-15.045
-13.788
-12.08
-9.999
-7.576
-4.84
-1.786
1.597
5.275
9.201
13.327
17.594
21.977
26.474
31.075
35.784
40.607
45.535
50.563
55.668
60.793
65.886
70.892
75.767
80.497
85.074
89.496
93.774
97.915
101.924
105.816
109.598
113.273
116.855
120.361
123.82
127.285
130.801
134.406
138.13
141.988
145.986
150.13
154.413
158.82
163.333
167.931
172.592
177.303
182.042
186.781
191.491
196.129
200.66
205.051
209.274
213.302
217.111
220.677
223.982
227.013
229.757
232.2
234.326
236.119
237.564
238.648
239.361
239.694
239.637
239.18
238.315
237.037
235.339
233.218
230.669
227.691
224.282
220.445
216.185
211.507
206.42
200.933
195.058
188.809
182.201
175.25
167.974
160.392
152.525
144.394
136.021
127.432
118.65
109.701
100.611
91.407
82.117
72.768
63.388
54.006
44.649
35.345
26.123
17.008
8.026
-0.796
-9.434
-17.866
-26.07
-34.024
-41.708
-49.106
-56.199
-62.974
-69.416
-75.515
-81.261
-86.645
-91.661
-96.306
-100.575
-104.469
-107.988
-111.133
-113.91
-116.324
-118.381
-120.091
-121.464
-122.511
-123.245
-123.681
-123.833
-123.716
-123.348
-122.744
-121.922
-120.899
-119.693
-118.321
-116.801
-115.152
-113.389
-111.532
-109.598
-107.602
-105.562
-103.492
-101.407
-99.322
-97.249
-95.2
-93.188
-91.222
-89.314
-87.472
-85.705
-84.02
-82.423
-80.92
-79.517
-78.215
-77.016
-75.922
-74.93
-74.042
-73.256
-72.569
-71.978
-71.482
-71.078
-70.767
-70.546
-70.413
-70.362
-70.39
-70.492
-70.665
-70.902
-71.196
-71.541
-71.932
-72.368
-72.85
-73.377
-73.939
-74.527
-75.127
-75.726
-76.316
-76.883
-77.411
-77.891
-78.318
-78.695
-79.041
-79.364
-79.664
-79.939
-80.173
-80.365
-80.521
-80.651
-80.768
-80.887
-81.016
-81.179
-81.41
-81.727
-82.131
-82.601
-83.092
-83.575
-84.036
-84.466
-84.869
-85.239
-85.556
-85.806
-85.981
-86.065
-86.043
-85.883
-85.531
-84.964
-84.181
-83.209
-82.108
-80.919
-79.664
-78.369
-77.048
-75.724
-74.424
-73.165
-71.95
-70.794
-69.717
-68.753
-67.955
-67.352
-66.95
-66.736
-66.674
-66.738
-66.916
-67.189
-67.54
-67.953
-68.41
-68.905
-69.443
-70.019
-70.623
-71.236
-71.829
-72.382
-72.888
-73.345
-73.759
-74.134
-74.467
-74.754
-74.998
-75.195
-75.341
-75.425
-75.43
-75.346
-75.162
-74.873
-74.477
-73.974
-73.356
-72.615
-71.745
-70.737
-69.589
-68.308
-66.895
-65.353
-63.688
-61.909
-60.029
-58.067
-56.032
-53.925
-51.75
-49.507
-47.204
-44.861
-42.493
-40.117
-37.741
-35.365
-32.996
-30.649
-28.33
-26.041
-23.782
-21.54
-19.329
-17.185
-15.138
-13.214
-11.432
-9.791
-8.297
-6.964
-5.802
-4.825
-4.037
-3.432
-3.014
-2.794
-2.783
-2.99
-3.396
-3.949
-4.606
-5.336
-6.11
-6.913
-7.72
-8.494
-9.212
-9.86
-10.427
-10.908
-11.29
-11.559
-11.714
-11.774
-11.787
-11.816
-11.918
-12.131
-12.483
-13.01
-13.764
-14.801
-16.165
-17.877
-19.942
-22.396
-25.311
-28.688
-32.419
-36.27
-39.887
-42.946
-45.23
-46.476
-46.315
-44.507
-41.102
-36.487
-31.399
-26.558
-22.37
-19.235
-17.807
-18.524
-21.244
-25.177
-28.856
-30.719
-29.603
-24.134
-12.393
7.311
35.069
69.169
107.333
147.888
191.966
241.548
294.78
345.104
380.856
389.818
365.796
310.42
233.113
145.299
54.767
-36.109
-131.26
-234.553
-344.347
-452.868
-546.077
-610.873
-641.424
-640.026
-616.333
-580.506
-538.911
-493.704
-443.25
-387.308
-328.09
-268.913
-214.43
-167.688
-129.716
-100.91
-80.51
-67.153
-59.573
-56.31
-55.61
-55.93
-55.738
-53.612
-49.126
-42.477
-34.178
-24.987
-15.355
-5.75
2.856
9.69
14.718
18.052
20.448
22.127
21.675
19.459
17.146
17.269
24.185
37.51
52.64
64.816
68.015
62.165
52.961
44.882
42.687
46.943
53.441
59.679
63.696
64.899
64.977
64.601
63.763
62.595
60.855
58.548
56.015
53.434
50.879
48.466
46.276
44.363
42.783
41.574
40.754
40.362
40.453
41.052
42.169
43.804
45.934
48.518
51.508
54.824
58.398
62.17
66.078
70.077
74.127
78.192
82.246
86.275
90.26
94.192
98.06
101.852
105.57
109.219
112.811
116.371
119.914
123.448
126.984
130.527
134.075
137.627
141.169
144.676
148.135
151.539
154.881
158.164
161.388
164.55
167.654
170.705
173.708
176.659
179.548
182.358
185.074
187.677
190.148
192.475
194.63
196.576
198.276
199.676
200.722
201.362
201.531
201.159
200.193
198.595
196.342
193.422
189.823
185.542
180.581
174.943
168.639
161.68
154.077
145.87
137.108
127.851
118.179
108.172
97.897
87.414
76.778
66.043
55.271
44.522
33.851
23.333
13.053
3.126
-6.328
-15.223
-23.495
-31.099
-38.013
-44.218
-49.686
-54.399
-58.352
-61.538
-63.964
-65.638
-66.567
-66.794
-66.405
-65.524
-64.294
-62.838
-61.25
-59.6
-57.945
-56.338
-54.831
-53.46
-52.249
-51.227
-50.425
-49.881
-49.635
-49.698
-50.029
-50.556
-51.197
-51.87
-52.524
-53.13
-53.642
-54.024
-54.262
-54.346
-54.287
-54.104
-53.751
-53.164
-52.376
-51.412
-50.338
-49.268
-48.156
-46.927
-45.664
-44.42
-43.078
-41.58
-39.753
-37.362
-34.633
-31.83
-28.957
-26.094
-23.432
-21.047
-19.241
-18.354
-18.081
-18.099
-18.34
-18.633
-18.874
-19.056
-18.907
-18.142
-16.985
-15.647
-14.205
-12.817
-11.479
-10.137
-8.929
-7.983
-7.211
-6.546
-5.945
-5.327
-4.727
-4.193
-3.693
-3.213
-2.761
-2.334
-1.946
-1.613
-1.316
-1.041
-0.781
-0.526
-0.277
-0.038
0.195
0.424
0.652
0.883
1.12
1.365
1.62
1.886
2.168
2.467
2.783
3.119
3.473
3.847
4.242
4.661
5.106
5.578
6.079
6.608
7.167
7.754
8.37
9.012
9.68
10.371
11.084
11.815
12.563
13.325
14.098
14.879
15.665
16.452
17.237
18.016
18.785
19.541
20.279
20.996
21.688
22.352
22.984
23.583
24.144
24.666
25.144
25.577
25.962
26.297
26.579
26.806
26.977
27.092
27.149
27.148
27.089
26.973
26.8
26.571
26.289
25.954
25.57
25.138
24.663
24.147
23.595
23.012
22.402
21.77
21.121
20.461
19.792
19.12
18.446
17.776
17.112
16.458
15.816
15.19
14.587
14.011
13.469
12.964
12.501
12.083
11.713
11.394
11.128
10.913
10.75
10.639
10.582
10.585
10.648
10.766
10.931
11.13
11.351
11.586
11.823
12.043
12.235
12.39
12.508
12.601
12.671
12.715
12.724
12.679
12.57
12.403
12.184
11.923
11.627
11.297
10.945
10.603
10.283
9.988
9.7
9.38
9.008
8.584
8.121
7.637
7.138
6.609
6.038
5.422
4.757
4.042
3.261
2.369
1.342
0.183
-1.088
-2.422
-3.801
-5.244
-6.779
-8.43
-10.207
-12.104
-14.12
-16.277
-18.601
-21.108
-23.8
-26.645
-29.614
-32.711
-35.962
-39.409
-43.07
-46.922
-50.91
-55.012
-59.268
-63.652
-68.051
-72.232
-75.802
-78.38
-79.692
-79.452
-77.308
-73.131
-67.047
-59.491
-51.465
-44.037
-38.016
-34.255
-33.479
-35.874
-41.121
-48.228
-55.141
-59.626
-59.698
-53.13
-38.08
-13.466
21.041
64.449
114.317
167.586
220.734
269.37
309.037
335.368
344.572
334.411
303.559
251.503
179.205
88.949
-14.934
-125.811
-238.447
-348.94
-453.993
-552.726
-640.058
-707.557
-748.462
-755.628
-729.429
-678.172
-610.435
-536.276
-461.938
-388.126
-316.601
-249.379
-189.261
-140.574
-104.909
-81.497
-68.625
-63.472
-63.469
-66.313
-69.434
-70.563
-68.497
-63.01
-54.556
-44.075
-32.527
-20.928
-10.499
-2.368
2.908
5.339
5.292
3.374
0.172
-3.759
-7.777
-11.238
-13.725
-15.06
-15.224
-14.325
-12.464
-9.714
-6.193
-2.053
2.565
7.531
12.727
18.066
23.441
28.73
33.815
38.585
42.944
46.84
50.25
53.165
55.599
57.575
59.127
60.302
61.159
61.755
62.15
62.399
62.554
62.673
62.812
63.025
63.364
63.861
64.54
65.416
66.499
67.795
69.307
71.031
72.963
75.1
77.44
79.982
82.726
85.671
88.81
92.14
95.653
99.341
103.198
107.214
111.382
115.699
120.154
124.734
129.426
134.211
139.067
143.969
148.886
153.782
158.62
163.365
167.985
172.452
176.744
180.836
184.706
188.331
191.699
194.807
197.657
200.252
202.596
204.698
206.581
208.281
209.83
211.259
212.593
213.849
215.047
216.196
217.298
218.346
219.306
220.135
220.78
221.183
221.294
221.061
220.411
219.258
217.521
215.118
211.975
208.023
203.18
197.386
190.609
182.837
174.102
164.462
153.986
142.761
130.873
118.4
105.456
92.172
78.68
65.131
51.689
38.523
25.833
13.811
2.613
-7.625
-16.807
-24.877
-31.787
-37.517
-42.053
-45.368
-47.47
-48.392
-48.177
-46.908
-44.7
-41.684
-38.037
-33.956
-29.612
-25.176
-20.8
-16.593
-12.657
-9.079
-5.929
-3.297
-1.257
0.149
0.888
0.959
0.398
-0.745
-2.389
-4.415
-6.711
-9.16
-11.64
-14.07
-16.38
-18.504
-20.394
-21.989
-23.231
-24.086
-24.53
-24.552
-24.161
-23.37
-22.206
-20.73
-18.999
-17.082
-15.054
-12.962
-10.843
-8.732
-6.652
-4.629
-2.69
-0.846
0.898
2.536
4.066
5.487
6.798
8.016
9.16
10.25
11.313
12.364
13.411
14.464
15.525
16.597
17.682
18.775
19.87
20.964
22.053
23.138
24.217
25.288
26.344
27.379
28.388
29.365
30.306
31.207
32.065
32.877
33.64
34.354
35.019
35.634
36.195
36.703
37.152
37.542
37.87
38.135
38.332
38.462
38.523
38.513
38.434
38.284
38.065
37.775
37.416
36.987
36.491
35.927
35.298
34.604
33.848
33.033
32.16
31.235
30.26
29.239
28.178
27.079
25.948
24.79
23.609
22.412
21.202
19.986
18.77
17.558
16.355
15.168
14.001
12.859
11.747
10.668
9.627
8.628
7.673
6.767
5.912
5.11
4.365
3.676
3.046
2.476
1.965
1.515
1.123
0.791
0.516
0.298
0.133
0.021
-0.042
-0.058
-0.032
0.034
0.135
0.269
0.431
0.617
0.824
1.049
1.287
1.536
1.793
2.055
2.318
2.579
2.837
3.089
3.332
3.566
3.789
4
4.2
4.39
4.571
4.744
4.909
5.066
5.215
5.354
5.483
5.602
5.713
5.818
5.918
6.021
6.132
6.258
6.402
6.567
6.755
6.964
7.194
7.447
7.724
8.028
8.366
8.745
9.163
9.615
10.099
10.617
11.163
11.722
12.27
12.775
13.226
13.65
14.034
14.317
14.451
14.378
14.086
13.655
13.117
12.404
11.581
10.875
10.375
10.128
10.186
10.218
10.59
12.644
16.102
19.813
21.661
17.357
7.146
-4.518
-13.208
-12.55
-1.997
12.264
25.56
33.106
33.645
31.107
27.723
24.549
22.122
19.36
15.829
11.841
7.598
3.433
-0.315
-3.335
-5.664
-7.711
-9.788
-12.166
-14.987
-18.194
-21.87
-26.232
-31.33
-37.078
-43.326
-49.834
-56.335
-62.517
-68.03
-72.573
-75.827
-77.421
-77.187
-75.203
-71.837
-67.91
-64.227
-61.249
-59.417
-59.225
-60.813
-63.919
-67.76
-70.591
-70.464
-66.011
-55.975
-38.924
-13.812
19.757
61.571
109.215
158.595
207.315
253.269
294.704
331.844
360.57
373.45
364.265
325.983
257.962
167.815
64.15
-43.712
-150.493
-258.102
-368.427
-479.387
-583.9
-668.966
-722.631
-740.795
-726.986
-691.153
-644.009
-591.846
-536.713
-478.034
-416.102
-353.177
-292.756
-238.713
-193.203
-156.765
-129.281
-109.579
-96.14
-87.785
-83.014
-80.262
-78.38
-76.208
-72.755
-67.838
-61.724
-54.738
-47.491
-40.596
-34.47
-29.68
-26.758
-25.782
-26.574
-28.809
-32.003
-35.739
-39.683
-43.439
-46.629
-49.026
-50.532
-51.151
-50.96
-50.036
-48.456
-46.32
-43.76
-40.889
-37.793
-34.558
-31.248
-27.919
-24.641
-21.459
-18.393
-15.484
-12.764
-10.254
-7.994
-5.99
-4.222
-2.67
-1.298
-0.065
1.058
2.111
3.135
4.156
5.201
6.283
7.394
8.551
9.779
11.106
12.58
14.234
16.084
18.145
20.426
22.929
25.659
28.614
31.786
35.17
38.763
42.564
46.58
50.805
55.224
59.805
64.503
69.277
74.093
78.92
83.737
88.525
93.26
97.929
102.516
107.016
111.429
115.749
119.966
124.071
128.062
131.949
135.763
139.527
143.25
146.932
150.549
154.081
157.506
160.791
163.898
166.769
169.331
171.526
173.312
174.641
175.473
175.752
175.397
174.349
172.57
170.038
166.757
162.737
157.984
152.531
146.432
139.757
132.604
125.049
117.151
108.97
100.567
92.015
83.409
74.823
66.309
57.919
49.686
41.648
33.843
26.289
18.981
11.905
5.033
-1.648
-8.133
-14.421
-20.515
-26.415
-32.132
-37.662
-42.986
-48.095
-52.984
-57.654
-62.108
-66.338
-70.326
-74.06
-77.525
-80.712
-83.615
-86.218
-88.506
-90.473
-92.124
-93.477
-94.554
-95.369
-95.921
-96.21
-96.24
-96.02
-95.556
-94.846
-93.878
-92.658
-91.213
-89.592
-87.844
-86.001
-84.082
-82.098
-80.061
-77.994
-75.928
-73.886
-71.886
-69.946
-68.092
-66.371
-64.83
-63.493
-62.352
-61.369
-60.508
-59.749
-59.082
-58.501
-57.991
-57.532
-57.108
-56.71
-56.337
-55.98
-55.617
-55.211
-54.72
-54.126
-53.432
-52.665
-51.844
-50.979
-50.075
-49.137
-48.176
-47.205
-46.226
-45.232
-44.213
-43.169
-42.107
-41.043
-39.995
-38.969
-37.964
-36.97
-35.981
-34.995
-34.011
-33.028
-32.041
-31.046
-30.048
-29.057
-28.083
-27.13
-26.201
-25.297
-24.418
-23.567
-22.746
-21.96
-21.21
-20.499
-19.827
-19.199
-18.617
-18.081
-17.592
-17.147
-16.743
-16.378
-16.049
-15.755
-15.493
-15.26
-15.052
-14.867
-14.704
-14.559
-14.428
-14.308
-14.195
-14.084
-13.971
-13.853
-13.726
-13.587
-13.431
-13.256
-13.058
-12.836
-12.585
-12.305
-11.992
-11.643
-11.255
-10.829
-10.365
-9.864
-9.327
-8.753
-8.141
-7.491
-6.804
-6.079
-5.321
-4.527
-3.698
-2.837
-1.948
-1.037
-0.109
0.834
1.791
2.763
3.751
4.742
5.726
6.689
7.614
8.505
9.369
10.197
10.984
11.724
12.393
13.024
13.659
14.224
14.674
14.951
14.968
14.822
14.648
14.398
14.047
13.75
13.588
13.755
14.5
15.58
16.714
17.907
19.089
20.087
20.84
21.046
20.35
19.07
17.534
15.81
14.072
12.423
10.872
9.711
9.252
9.276
9.577
10.084
10.636
11.236
11.933
12.577
13.017
13.333
13.581
13.801
14.073
14.356
14.592
14.803
14.999
15.168
15.321
15.461
15.582
15.731
15.956
16.301
16.831
17.591
18.61
19.92
21.539
23.485
25.782
28.444
31.461
34.811
38.449
42.308
46.323
50.401
54.434
58.313
61.912
65.117
67.843
70.008
71.541
72.382
72.461
71.716
70.126
67.69
64.435
60.428
55.742
50.483
44.784
38.775
32.598
26.398
20.283
14.355
8.709
3.418
-1.434
-5.754
-9.484
-12.58
-15.025
-16.863
-18.145
-18.953
-19.401
-19.57
-19.585
-19.606
-19.711
-19.905
-20.1
-20.053
-19.562
-18.533
-16.798
-14.152
-10.495
-5.823
-0.452
4.961
9.772
13.498
15.746
16.153
14.488
10.757
5.512
-0.034
-4.327
-5.909
-3.627
3.888
18.026
39.861
69.974
106.848
147.071
187.829
227.284
265.883
305.535
344.208
375.054
386.889
368.118
314.073
228.762
123.783
11.826
-98.871
-204.937
-307.107
-404.772
-493.996
-569.504
-625.896
-660.152
-671.861
-662.665
-634.92
-590.429
-532.611
-463.895
-386.762
-307.987
-232.794
-167.085
-117.128
-81.457
-57.762
-43.355
-33.524
-28.454
-28.245
-30.964
-35.57
-39.364
-40.302
-38.471
-34.155
-28.013
-20.985
-13.856
-7.519
-2.991
-0.728
-0.584
-2.214
-5.122
-8.802
-12.824
-16.679
-19.797
-21.864
-22.807
-22.668
-21.611
-19.777
-17.251
-14.173
-10.711
-7.006
-3.19
0.637
4.411
8.048
11.453
14.542
17.232
19.478
21.274
22.625
23.556
24.1
24.295
24.191
23.85
23.329
22.688
21.98
21.25
20.55
19.928
19.431
19.104
18.98
19.078
19.415
19.999
20.839
21.94
23.299
24.914
26.781
28.899
31.267
33.88
36.734
39.823
43.142
46.687
50.452
54.425
58.591
62.936
67.439
72.079
76.829
81.656
86.526
91.408
96.278
101.112
105.886
110.571
115.135
119.547
123.788
127.847
131.72
135.405
138.909
142.247
145.452
148.564
151.613
154.62
157.591
160.527
163.436
166.327
169.211
172.093
174.961
177.783
180.523
183.126
185.522
187.623
189.319
190.496
191.064
190.946
190.08
188.419
185.909
182.496
178.131
172.76
166.354
158.912
150.454
141.036
130.747
119.698
108.029
95.882
83.385
70.661
57.828
44.984
32.236
19.702
7.509
-4.188
-15.235
-25.514
-34.93
-43.429
-50.99
-57.602
-63.278
-68.051
-71.951
-75.017
-77.283
-78.764
-79.473
-79.451
-78.769
-77.548
-75.931
-74.035
-71.959
-69.79
-67.601
-65.475
-63.477
-61.64
-59.985
-58.531
-57.305
-56.36
-55.76
-55.541
-55.7
-56.2
-56.976
-57.981
-59.169
-60.486
-61.869
-63.236
-64.526
-65.711
-66.781
-67.725
-68.52
-69.123
-69.481
-69.566
-69.369
-68.896
-68.165
-67.185
-65.974
-64.564
-63.006
-61.358
-59.664
-57.945
-56.208
-54.462
-52.722
-51.01
-49.349
-47.748
-46.214
-44.752
-43.367
-42.066
-40.85
-39.71
-38.625
-37.575
-36.544
-35.528
-34.526
-33.536
-32.558
-31.589
-30.632
-29.692
-28.774
-27.88
-27.01
-26.163
-25.341
-24.548
-23.791
-23.075
-22.405
-21.783
-21.212
-20.694
-20.23
-19.821
-19.464
-19.156
-18.895
-18.679
-18.505
-18.373
-18.279
-18.22
-18.195
-18.2
-18.234
-18.291
-18.369
-18.464
-18.571
-18.687
-18.807
-18.928
-19.044
-19.153
-19.25
-19.332
-19.394
-19.434
-19.446
-19.428
-19.377
-19.288
-19.16
-18.99
-18.774
-18.512
-18.202
-17.843
-17.434
-16.975
-16.466
-15.908
-15.301
-14.647
-13.948
-13.204
-12.419
-11.593
-10.73
-9.833
-8.904
-7.946
-6.963
-5.959
-4.937
-3.902
-2.858
-1.808
-0.759
0.288
1.326
2.353
3.364
4.354
5.32
6.258
7.164
8.034
8.863
9.648
10.386
11.073
11.706
12.284
12.803
13.261
13.657
13.988
14.253
14.451
14.578
14.634
14.618
14.529
14.368
14.134
13.828
13.452
13.009
12.501
11.931
11.302
10.617
9.88
9.094
8.262
7.387
6.473
5.523
4.544
3.54
2.519
1.489
0.456
-0.571
-1.583
-2.574
-3.535
-4.461
-5.347
-6.187
-6.973
-7.696
-8.344
-8.91
-9.388
-9.773
-10.063
-10.262
-10.374
-10.414
-10.398
-10.335
-10.23
-10.084
-9.891
-9.646
-9.345
-8.981
-8.555
-8.066
-7.513
-6.898
-6.221
-5.473
-4.639
-3.689
-2.589
-1.324
0.111
1.711
3.451
5.303
7.228
9.173
11.1
12.975
14.764
16.446
17.995
19.376
20.552
21.477
22.09
22.356
22.254
21.776
20.952
19.817
18.423
16.846
15.145
13.366
11.564
9.773
8.03
6.378
4.841
3.452
2.264
1.303
0.585
0.106
-0.182
-0.338
-0.433
-0.557
-0.789
-1.194
-1.831
-2.748
-4.003
-5.648
-7.705
-10.195
-13.13
-16.531
-20.457
-24.865
-29.578
-34.32
-38.709
-42.383
-45.08
-46.467
-46.149
-44.004
-40.148
-35.089
-29.696
-24.664
-20.708
-18.551
-18.678
-21.351
-25.478
-29.166
-31.426
-30.711
-27.045
-20.81
-8.123
13.334
45.862
91.427
144.384
199.092
249.877
289.526
315.995
327.54
321.744
298.005
254.507
191.357
112.488
22.064
-74.946
-176.007
-282.6
-392.515
-500.139
-594.631
-660.126
-688.387
-679.284
-640.459
-586.995
-529.377
-472.439
-417.434
-361.438
-304.032
-247.97
-196.438
-153.158
-119.856
-95.937
-80.008
-70.24
-65.115
-63.105
-62.535
-61.79
-59.383
-54.635
-47.68
-38.929
-28.918
-18.372
-8.01
1.377
8.897
14.186
17.338
18.573
18.316
17.01
15.014
12.784
10.821
9.4
8.655
8.648
9.304
10.563
12.391
14.686
17.339
20.267
23.382
26.62
29.933
33.246
36.491
39.611
42.541
45.234
47.652
49.746
51.501
52.923
54.027
54.847
55.417
55.774
55.965
56.041
56.049
56.034
56.035
56.086
56.223
56.481
56.894
57.495
58.309
59.35
60.63
62.159
63.939
65.971
68.252
70.776
73.539
76.541
79.777
83.24
86.921
90.805
94.875
99.11
103.485
107.969
112.535
117.154
121.803
126.461
131.105
135.706
140.239
144.678
149.003
153.206
157.279
161.222
165.044
168.762
172.398
175.988
179.553
183.107
186.662
190.217
193.779
197.359
200.958
204.572
208.185
211.765
215.265
218.631
221.786
224.639
227.093
229.044
230.403
231.099
231.063
230.237
228.562
225.975
222.426
217.88
212.318
205.752
198.215
189.763
180.484
170.493
159.913
148.878
137.517
125.946
114.29
102.667
91.21
80.06
69.349
59.2
49.717
40.975
33.028
25.906
19.609
14.111
9.374
5.344
1.97
-0.796
-3.017
-4.761
-6.11
-7.168
-8.028
-8.78
-9.502
-10.253
-11.078
-12.011
-13.066
-14.24
-15.524
-16.897
-18.342
-19.845
-21.383
-22.926
-24.434
-25.855
-27.147
-28.272
-29.199
-29.911
-30.394
-30.639
-30.649
-30.437
-30.018
-29.41
-28.629
-27.689
-26.607
-25.404
-24.105
-22.74
-21.332
-19.9
-18.459
-17.022
-15.598
-14.196
-12.82
-11.469
-10.142
-8.84
-7.563
-6.315
-5.094
-3.901
-2.733
-1.588
-0.464
0.639
1.72
2.782
3.822
4.842
5.841
6.817
7.769
8.698
9.605
10.491
11.357
12.205
13.037
13.852
14.654
15.441
16.216
16.978
17.727
18.466
19.193
19.911
20.619
21.318
22.008
22.69
23.363
24.028
24.683
25.329
25.965
26.593
27.21
27.818
28.416
29.003
29.58
30.146
30.699
31.24
31.768
32.282
32.782
33.267
33.737
34.192
34.634
35.061
35.474
35.875
36.263
36.639
37.004
37.358
37.702
38.036
38.361
38.677
38.985
39.284
39.575
39.859
40.135
40.403
40.663
40.915
41.159
41.394
41.621
41.84
42.049
42.25
42.441
42.622
42.792
42.951
43.096
43.227
43.342
43.439
43.517
43.572
43.604
43.61
43.589
43.538
43.455
43.34
43.19
43.005
42.784
42.527
42.234
41.905
41.54
41.14
40.707
40.242
39.746
39.221
38.669
38.091
37.491
36.87
36.232
35.579
34.915
34.244
33.57
32.897
32.23
31.573
30.933
30.314
29.721
29.16
28.636
28.155
27.721
27.338
27.013
26.747
26.545
26.408
26.339
26.34
26.41
26.551
26.762
27.043
27.392
27.806
28.285
28.824
29.42
30.068
30.764
31.5
32.271
33.069
33.886
34.712
35.539
36.356
37.153
37.92
38.644
39.317
39.926
40.462
40.914
41.27
41.522
41.66
41.676
41.561
41.309
40.913
40.367
39.669
38.82
37.816
36.657
35.338
33.858
32.225
30.442
28.517
26.459
24.279
21.993
19.629
17.213
14.773
12.33
9.9
7.504
5.166
2.913
0.776
-1.227
-3.086
-4.796
-6.349
-7.747
-9.004
-10.153
-11.259
-12.393
-13.617
-14.994
-16.572
-18.396
-20.531
-23.043
-25.997
-29.452
-33.433
-37.93
-42.945
-48.506
-54.56
-60.969
-67.484
-73.716
-79.327
-84.115
-87.852
-90.198
-90.943
-90.023
-87.578
-84.265
-80.672
-76.959
-73.461
-70.774
-69.291
-69.242
-69.725
-68.152
-62.342
-51.747
-38.366
-25.505
-14.906
-5.141
10.51
39.136
84.626
147.371
219.009
287.445
340.845
365.961
355.579
309.413
231.273
131.95
23.726
-86.018
-192.651
-295.342
-395.384
-489.977
-574.334
-643.949
-694.407
-723.999
-733.353
-723.297
-695.331
-652.278
-597.519
-534.727
-467.858
-400.201
-334.478
-273.764
-220.878
-177.544
-144.437
-121.225
-106.741
-99.92
-99.687
-104.003
-110.374
-116.377
-120.153
-120.893
-118.511
-112.856
-103.723
-91.655
-77.815
-63.816
-51.206
-40.714
-32.527
-26.853
-24.03
-24.118
-26.763
-31.15
-36.254
-41.48
-46.603
-51.454
-55.82
-59.506
-62.432
-64.737
-66.756
-68.695
-70.575
-72.357
-73.944
-75.251
-76.248
-76.884
-77.065
-76.736
-75.878
-74.498
-72.651
-70.394
-67.757
-64.768
-61.443
-57.79
-53.846
-49.656
-45.288
-40.837
-36.381
-31.984
-27.703
-23.575
-19.628
-15.881
-12.337
-8.985
-5.816
-2.809
0.04
2.73
5.257
7.614
9.809
11.871
13.827
15.699
17.511
19.273
21.009
22.75
24.529
26.381
28.329
30.371
32.523
34.811
37.283
40.008
43.047
46.443
50.244
54.502
59.258
64.544
70.356
76.656
83.382
90.466
97.853
105.507
113.387
121.423
129.514
137.539
145.368
152.875
159.915
166.318
171.915
176.562
180.154
182.633
183.969
184.132
183.081
180.774
177.172
172.271
166.106
158.726
150.197
140.613
130.095
118.817
106.982
94.767
82.328
69.799
57.298
44.961
32.944
21.381
10.405
0.125
-9.385
-18.051
-25.816
-32.656
-38.575
-43.624
-47.887
-51.439
-54.344
-56.678
-58.513
-59.947
-61.099
-62.061
-62.916
-63.738
-64.579
-65.496
-66.539
-67.735
-69.096
-70.621
-72.291
-74.091
-76.003
-77.991
-80.008
-81.996
-83.88
-85.606
-87.131
-88.414
-89.427
-90.143
-90.542
-90.609
-90.336
-89.703
-88.684
-87.265
-85.446
-83.244
-80.694
-77.84
-74.729
-71.409
-67.933
-64.351
-60.713
-57.061
-53.431
-49.869
-46.425
-43.172
-40.19
-37.543
-35.271
-33.4
-31.939
-30.893
-30.263
-30.039
-30.195
-30.699
-31.518
-32.621
-33.975
-35.529
-37.216
-38.944
-40.626
-42.191
-43.582
-44.762
-45.698
-46.357
-46.71
-46.739
-46.432
-45.791
-44.816
-43.513
-41.899
-40.008
-37.895
-35.635
-33.295
-30.926
-28.57
-26.256
-24.011
-21.867
-19.85
-17.983
-16.291
-14.792
-13.502
-12.436
-11.592
-10.957
-10.505
-10.193
-9.986
-9.859
-9.794
-9.78
-9.808
-9.867
-9.95
-10.051
-10.16
-10.264
-10.356
-10.424
-10.465
-10.484
-10.487
-10.491
-10.511
-10.554
-10.624
-10.723
-10.849
-11.001
-11.175
-11.363
-11.562
-11.771
-11.986
-12.209
-12.436
-12.665
-12.889
-13.104
-13.301
-13.476
-13.626
-13.746
-13.835
-13.892
-13.917
-13.912
-13.878
-13.816
-13.726
-13.609
-13.466
-13.296
-13.1
-12.88
-12.635
-12.369
-12.081
-11.773
-11.446
-11.101
-10.737
-10.354
-9.952
-9.528
-9.083
-8.617
-8.129
-7.62
-7.089
-6.539
-5.971
-5.385
-4.782
-4.16
-3.516
-2.85
-2.158
-1.436
-0.681
0.109
0.938
1.807
2.714
3.662
4.653
5.69
6.78
7.926
9.127
10.383
11.689
13.035
14.41
15.793
17.163
18.505
19.808
21.068
22.289
23.476
24.631
25.76
26.861
27.931
28.975
29.988
30.972
31.94
32.907
33.908
34.982
36.151
37.424
38.8
40.255
41.759
43.278
44.764
46.186
47.521
48.746
49.853
50.835
51.676
52.355
52.837
53.068
53.018
52.673
52.029
51.115
49.977
48.667
47.255
45.796
44.323
42.858
41.413
39.979
38.543
37.093
35.622
34.131
32.628
31.097
29.516
27.852
26.044
24.021
21.709
19.034
15.959
12.496
8.652
4.416
-0.137
-4.876
-9.589
-13.927
-17.6
-20.434
-22.191
-22.536
-21.266
-18.346
-14.002
-8.964
-3.889
0.939
5.055
7.77
8.635
7.486
5.445
5.3
9.232
17.987
29.965
41.978
52.712
64.015
82.282
115.084
166.82
236.071
312.445
381.385
428.11
442.313
422.87
374.142
305.28
225.878
140.697
51.835
-43.243
-149.049
-264.251
-382.606
-491.549
-574.32
-621.842
-632.894
-614.188
-579.38
-537.363
-492.632
-446.365
-395.57
-340.416
-283.348
-227.133
-176.08
-132.751
-97.545
-70.325
-50.03
-35.301
-25.482
-19.603
-16.092
-13.517
-10.489
-6.191
-0.667
5.79
12.956
20.41
27.562
33.751
38.176
40.487
40.865
39.61
37.163
33.992
30.501
27.191
24.598
23.017
22.544
23.175
24.779
27.252
30.519
34.44
38.856
43.624
48.604
53.691
58.785
63.764
68.502
72.877
76.797
80.218
83.121
85.503
87.383
88.788
89.758
90.35
90.619
90.617
90.403
90.026
89.544
89.018
88.509
88.077
87.771
87.624
87.659
87.897
88.347
89.019
89.915
91.032
92.37
93.929
95.71
97.715
99.944
102.389
105.046
107.907
110.963
114.206
117.625
121.212
124.952
128.835
132.845
136.97
141.193
145.495
149.855
154.251
158.661
163.06
167.425
171.729
175.947
180.054
184.025
187.835
191.459
194.873
198.055
200.981
203.629
205.979
208.01
209.704
211.043
212.011
212.594
212.781
212.561
211.926
210.872
209.394
207.492
205.167
202.421
199.26
195.688
191.715
187.349
182.601
177.484
172.014
166.205
160.078
153.655
146.957
140.012
132.843
125.476
117.939
110.258
102.459
94.57
86.617
78.626
70.627
62.649
54.725
46.887
39.159
31.562
24.114
16.825
9.708
2.775
-3.971
-10.52
-16.86
-22.973
-28.833
-34.414
-39.699
-44.678
-49.351
-53.72
-57.775
-61.507
-64.906
-67.952
-70.63
-72.924
-74.802
-76.249
-77.269
-77.879
-78.123
-78.056
-77.718
-77.139
-76.345
-75.355
-74.201
-72.918
-71.532
-70.083
-68.612
-67.164
-65.807
-64.595
-63.55
-62.676
-61.948
-61.322
-60.771
-60.276
-59.819
-59.392
-58.98
-58.568
-58.153
-57.726
-57.272
-56.766
-56.165
-55.434
-54.562
-53.551
-52.426
-51.227
-49.978
-48.7
-47.417
-46.145
-44.894
-43.677
-42.49
-41.331
-40.204
-39.12
-38.099
-37.161
-36.311
-35.551
-34.873
-34.264
-33.715
-33.219
-32.763
-32.341
-31.952
-31.592
-31.268
-30.987
-30.752
-30.564
-30.421
-30.319
-30.258
-30.238
-30.259
-30.322
-30.428
-30.577
-30.773
-31.016
-31.306
-31.641
-32.018
-32.433
-32.882
-33.361
-33.867
-34.395
-34.944
-35.508
-36.084
-36.67
-37.261
-37.854
-38.445
-39.028
-39.6
-40.156
-40.693
-41.206
-41.691
-42.145
-42.565
-42.947
-43.29
-43.592
-43.849
-44.06
-44.222
-44.334
-44.395
-44.402
-44.355
-44.251
-44.091
-43.874
-43.601
-43.274
-42.893
-42.458
-41.97
-41.429
-40.838
-40.198
-39.512
-38.779
-38.004
-37.191
-36.344
-35.47
-34.572
-33.652
-32.712
-31.752
-30.779
-29.798
-28.818
-27.844
-26.881
-25.933
-25.009
-24.114
-23.255
-22.43
-21.64
-20.88
-20.151
-19.458
-18.81
-18.216
-17.674
-17.168
-16.683
-16.194
-15.697
-15.211
-14.738
-14.273
-13.812
-13.327
-12.835
-12.413
-12.034
-11.578
-10.943
-9.982
-8.705
-7.338
-5.962
-4.5
-3.077
-1.92
-1.3
-1.654
-2.979
-4.746
-6.676
-8.694
-10.55
-12.003
-12.677
-11.906
-9.648
-6.537
-2.954
0.867
4.66
8.324
11.57
13.813
14.981
15.507
15.672
15.71
15.774
15.799
15.871
16.257
16.989
17.894
18.846
19.703
20.403
21.019
21.559
21.97
22.243
22.385
22.405
22.335
22.182
21.925
21.552
21.061
20.455
19.758
18.996
18.19
17.36
16.522
15.684
14.86
14.066
13.324
12.66
12.088
11.611
11.23
10.942
10.749
10.642
10.591
10.548
10.461
10.278
9.966
9.499
8.848
7.989
6.88
5.472
3.73
1.626
-0.85
-3.697
-6.934
-10.618
-14.704
-19.039
-23.379
-27.358
-30.657
-33.054
-34.248
-33.845
-31.63
-27.65
-22.281
-16.35
-10.659
-5.779
-2.379
-1.167
-2.518
-6.307
-11.656
-16.846
-20.154
-19.879
-13.912
-0.436
22.078
53.621
91.822
134.887
181.531
231.004
283.818
335.155
375.861
397.381
390.445
353.1
291.135
210.112
118.449
22.404
-77.144
-178.318
-281.322
-386.153
-487.346
-577.27
-645.575
-682.54
-685.735
-659.224
-612.65
-557.177
-499.757
-442.964
-386.2
-328.593
-271.553
-218.409
-172.854
-136.719
-109.819
-90.756
-77.589
-69.124
-64.223
-61.129
-58.158
-53.835
-47.396
-39.082
-29.452
-18.927
-8.06
2.428
11.746
18.996
23.747
26.149
26.526
25.32
22.989
19.926
16.593
13.527
11.072
9.387
8.541
8.47
9.098
10.387
12.257
14.607
17.353
20.404
23.67
27.076
30.536
33.96
37.276
40.408
43.281
45.833
48.018
49.818
51.25
52.343
53.107
53.562
53.736
53.664
53.4
52.998
52.497
51.936
51.351
50.781
50.272
49.87
49.601
49.485
49.53
49.738
50.128
50.72
51.525
52.553
53.809
55.296
57.02
58.988
61.195
63.628
66.273
69.102
72.093
75.219
78.456
81.785
85.183
88.624
92.086
95.539
98.954
102.305
105.577
108.766
111.872
114.91
117.9
120.879
123.903
127.032
130.313
133.78
137.448
141.329
145.437
149.79
154.396
159.247
164.305
169.506
174.784
180.051
185.199
190.099
194.578
198.453
201.569
203.794
205.018
205.148
204.075
201.69
197.91
192.69
186.025
177.955
168.532
157.831
145.967
133.092
119.404
105.134
90.49
75.659
60.819
46.153
31.858
18.156
5.243
-6.732
-17.656
-27.454
-36.072
-43.471
-49.649
-54.648
-58.545
-61.447
-63.456
-64.658
-65.147
-65.034
-64.451
-63.561
-62.52
-61.444
-60.428
-59.546
-58.853
-58.403
-58.228
-58.327
-58.683
-59.267
-60.052
-61.022
-62.157
-63.42
-64.762
-66.114
-67.408
-68.597
-69.653
-70.551
-71.281
-71.833
-72.205
-72.415
-72.486
-72.439
-72.296
-72.069
-71.769
-71.418
-71.04
-70.661
-70.311
-70.01
-69.768
-69.596
-69.496
-69.471
-69.518
-69.627
-69.787
-69.986
-70.215
-70.469
-70.742
-71.025
-71.311
-71.59
-71.855
-72.098
-72.313
-72.494
-72.637
-72.738
-72.794
-72.804
-72.77
-72.69
-72.565
-72.395
-72.179
-71.919
-71.615
-71.272
-70.889
-70.472
-70.023
-69.548
-69.052
-68.541
-68.021
-67.497
-66.975
-66.461
-65.961
-65.479
-65.022
-64.595
-64.201
-63.844
-63.529
-63.258
-63.034
-62.86
-62.737
-62.666
-62.648
-62.683
-62.772
-62.912
-63.104
-63.346
-63.635
-63.968
-64.344
-64.757
-65.204
-65.681
-66.183
-66.705
-67.242
-67.788
-68.338
-68.887
-69.43
-69.962
-70.479
-70.976
-71.45
-71.898
-72.316
-72.702
-73.054
-73.371
-73.651
-73.895
-74.102
-74.272
-74.406
-74.505
-74.571
-74.606
-74.612
-74.591
-74.548
-74.485
-74.407
-74.318
-74.222
-74.123
-74.027
-73.938
-73.861
-73.8
-73.759
-73.743
-73.755
-73.799
-73.879
-73.998
-74.157
-74.359
-74.605
-74.897
-75.235
-75.618
-76.047
-76.52
-77.035
-77.592
-78.188
-78.82
-79.484
-80.177
-80.894
-81.63
-82.378
-83.131
-83.882
-84.622
-85.344
-86.04
-86.701
-87.319
-87.887
-88.396
-88.841
-89.212
-89.501
-89.697
-89.792
-89.776
-89.639
-89.371
-88.963
-88.405
-87.69
-86.813
-85.771
-84.556
-83.162
-81.579
-79.801
-77.827
-75.658
-73.296
-70.745
-68.011
-65.109
-62.062
-58.892
-55.615
-52.238
-48.764
-45.196
-41.542
-37.81
-34.007
-30.131
-26.179
-22.15
-18.05
-13.881
-9.638
-5.301
-0.834
3.789
8.576
13.514
18.582
23.754
29.003
34.292
39.573
44.781
49.859
54.765
59.464
63.923
68.091
71.903
75.277
78.152
80.492
82.283
83.53
84.247
84.471
84.253
83.67
82.813
81.755
80.55
79.247
77.89
76.543
75.282
74.179
73.291
72.659
72.298
72.199
72.323
72.595
72.92
73.199
73.332
73.233
72.818
72.001
70.701
68.839
66.354
63.172
59.188
54.37
48.803
42.708
36.468
30.486
25.062
20.524
17.311
15.698
15.678
16.918
18.661
20.154
21.028
20.966
19.448
16.214
11.529
6.239
2.062
0.87
3.801
12.027
27.295
51.044
84.084
125.484
171.939
220.086
268.12
316.678
366.866
416.405
458.645
481.965
474.921
432.867
358.67
262.601
157.6
52.433
-50.169
-150.553
-250.068
-347.41
-434.83
-505.232
-552.916
-574.103
-573.321
-555.355
-524.485
-486.753
-443.327
-395.372
-345.633
-295.025
-245.795
-200.293
-159.183
-122.816
-91.188
-63.871
-40.291
-20.125
-3.078
11.414
23.772
34.291
43.499
51.884
59.543
66.55
72.94
78.535
83.251
87.058
89.698
90.85
90.483
88.728
85.824
82.139
77.974
73.57
69.273
65.49
62.476
60.36
59.172
58.839
59.294
60.484
62.308
64.635
67.344
70.323
73.485
76.781
80.157
83.56
86.929
90.192
93.29
96.184
98.842
101.235
103.354
105.203
106.805
108.198
109.423
110.516
111.506
112.414
113.253
114.028
114.751
115.446
116.141
116.869
117.668
118.585
119.658
120.917
122.383
124.06
125.948
128.045
130.351
132.866
135.596
138.552
141.734
145.142
148.767
152.589
156.584
160.715
164.934
169.198
173.465
177.707
181.908
186.048
190.111
194.08
197.935
201.665
205.273
208.753
212.097
215.299
218.348
221.258
224.062
226.788
229.456
232.07
234.616
237.089
239.492
241.811
244.022
246.074
247.885
249.395
250.56
251.333
251.674
251.513
250.754
249.326
247.18
244.281
240.613
236.144
230.829
224.657
217.655
209.89
201.472
192.488
183.015
173.14
162.963
152.612
142.236
131.947
121.827
111.957
102.412
93.288
84.703
76.731
69.404
62.721
56.65
51.171
46.269
41.906
38.02
34.527
31.345
28.423
25.737
23.259
20.952
18.761
16.618
14.484
12.344
10.195
8.046
5.896
3.752
1.634
-0.414
-2.341
-4.111
-5.708
-7.134
-8.39
-9.471
-10.366
-11.063
-11.566
-11.884
-12.026
-12.003
-11.821
-11.494
-11.045
-10.506
-9.913
-9.291
-8.657
-8.021
-7.393
-6.784
-6.205
-5.659
-5.149
-4.675
-4.242
-3.855
-3.518
-3.235
-3.001
-2.814
-2.668
-2.56
-2.486
-2.444
-2.429
-2.439
-2.472
-2.527
-2.604
-2.701
-2.817
-2.948
-3.092
-3.246
-3.41
-3.58
-3.756
-3.937
-4.123
-4.314
-4.511
-4.715
-4.925
-5.145
-5.373
-5.612
-5.862
-6.124
-6.4
-6.69
-6.998
-7.324
-7.67
-8.038
-8.43
-8.847
-9.291
-9.763
-10.264
-10.796
-11.358
-11.952
-12.579
-13.238
-13.93
-14.653
-15.408
-16.192
-17.004
-17.841
-18.701
-19.581
-20.477
-21.387
-22.307
-23.235
-24.165
-25.097
-26.025
-26.947
-27.86
-28.76
-29.644
-30.508
-31.35
-32.166
-32.954
-33.711
-34.435
-35.124
-35.775
-36.388
-36.959
-37.488
-37.974
-38.414
-38.809
-39.157
-39.459
-39.716
-39.929
-40.098
-40.227
-40.316
-40.369
-40.386
-40.369
-40.321
-40.243
-40.135
-40.001
-39.841
-39.657
-39.452
-39.227
-38.984
-38.726
-38.455
-38.174
-37.884
-37.588
-37.287
-36.982
-36.674
-36.364
-36.054
-35.744
-35.438
-35.136
-34.843
-34.562
-34.295
-34.043
-33.806
-33.584
-33.375
-33.178
-32.991
-32.812
-32.64
-32.478
-32.333
-32.21
-32.109
-32.028
-31.962
-31.897
-31.826
-31.74
-31.622
-31.461
-31.254
-30.997
-30.704
-30.387
-30.051
-29.694
-29.306
-28.872
-28.396
-27.884
-27.349
-26.812
-26.3
-25.841
-25.484
-25.275
-25.234
-25.368
-25.658
-26.069
-26.583
-27.19
-27.882
-28.66
-29.508
-30.391
-31.281
-32.13
-32.877
-33.455
-33.77
-33.731
-33.286
-32.406
-31.094
-29.391
-27.319
-24.895
-22.153
-19.109
-15.795
-12.273
-8.601
-4.86
-1.162
2.383
5.645
8.485
10.809
12.544
13.639
14.091
13.886
13.015
11.49
9.301
6.441
2.939
-1.176
-5.832
-10.894
-16.244
-21.768
-27.339
-32.892
-38.346
-43.565
-48.549
-53.372
-58.08
-62.782
-67.441
-71.825
-75.878
-79.704
-83.211
-86.268
-88.746
-90.286
-90.886
-90.923
-90.383
-89.085
-87.107
-84.482
-81.321
-78.154
-75.081
-71.901
-69.048
-67.051
-66.178
-66.776
-68.982
-72.472
-77.094
-82.498
-87.398
-90.314
-89.941
-84.81
-73.44
-54.665
-27.304
8.073
48.456
90.991
133.157
175.299
220.616
268.359
313.736
346.348
351.066
319.9
253.178
159.202
54.462
-48.537
-145.041
-235.357
-324.839
-417.482
-508.979
-590.383
-652.931
-688.131
-695.963
-683.985
-658.094
-625.119
-588.604
-546.463
-498.778
-446.691
-391.463
-336.606
-285.193
-238.731
-198.407
-164.907
-138.007
-117.184
-102.147
-92.207
-86.086
-82.615
-80.429
-78.056
-74.912
-70.921
-65.954
-60.196
-54.087
-48.01
-42.626
-38.709
-36.478
-35.829
-36.556
-38.255
-40.533
-43.07
-45.417
-47.087
-47.838
-47.586
-46.363
-44.325
-41.59
-38.246
-34.422
-30.265
-25.903
-21.45
-16.996
-12.605
-8.351
-4.32
-0.592
2.755
5.678
8.167
10.234
11.91
13.231
14.236
14.976
15.508
15.889
16.173
16.409
16.639
16.909
17.263
17.75
18.414
19.286
20.387
21.729
23.319
25.161
27.26
29.613
32.212
35.052
38.129
41.44
44.983
48.748
52.725
56.901
61.264
65.806
70.517
75.379
80.376
85.488
90.692
95.968
101.289
106.619
111.924
117.168
122.318
127.351
132.248
136.986
141.541
145.892
150.022
153.931
157.622
161.094
164.347
167.382
170.203
172.837
175.311
177.641
179.843
181.913
183.845
185.638
187.293
188.797
190.124
191.223
192.027
192.487
192.558
192.198
191.368
190.003
188.037
185.424
182.127
178.122
173.395
167.918
161.657
154.606
146.785
138.254
129.106
119.42
109.27
98.729
87.869
76.784
65.581
54.35
43.169
32.113
21.259
10.705
0.585
-8.987
-17.928
-26.191
-33.766
-40.642
-46.798
-52.211
-56.868
-60.774
-63.952
-66.421
-68.185
-69.244
-69.61
-69.33
-68.501
-67.235
-65.624
-63.738
-61.63
-59.354
-56.983
-54.602
-52.275
-50.048
-47.953
-46.023
-44.313
-42.889
-41.81
-41.106
-40.76
-40.733
-40.988
-41.503
-42.25
-43.192
-44.271
-45.412
-46.564
-47.701
-48.803
-49.851
-50.809
-51.628
-52.261
-52.68
-52.878
-52.863
-52.639
-52.211
-51.594
-50.812
-49.908
-48.932
-47.919
-46.883
-45.838
-44.794
-43.763
-42.762
-41.801
-40.882
-40.007
-39.181
-38.409
-37.683
-36.991
-36.315
-35.627
-34.923
-34.202
-33.455
-32.673
-31.841
-30.935
-30.001
-29.108
-28.227
-27.335
-26.373
-25.244
-24.033
-22.879
-21.763
-20.655
-19.645
-18.796
-18.373
-18.793
-20.02
-21.84
-24.109
-26.56
-28.962
-31.174
-32.686
-32.712
-31.009
-27.662
-23.013
-17.776
-12.406
-7.154
-2.615
0.365
1.247
-0.157
-3.487
-7.855
-12.693
-17.707
-22.481
-26.5
-29.249
-30.409
-30.172
-29.161
-27.809
-26.323
-24.847
-23.48
-22.443
-21.933
-21.898
-22.098
-22.332
-22.501
-22.6
-22.688
-22.757
-22.76
-22.697
-22.596
-22.497
-22.423
-22.369
-22.301
-22.193
-22.04
-21.843
-21.614
-21.357
-21.072
-20.76
-20.419
-20.053
-19.667
-19.266
-18.854
-18.434
-18.01
-17.586
-17.168
-16.764
-16.377
-16.009
-15.657
-15.321
-15.001
-14.698
-14.413
-14.146
-13.895
-13.661
-13.443
-13.24
-13.05
-12.872
-12.703
-12.541
-12.382
-12.224
-12.064
-11.901
-11.73
-11.549
-11.354
-11.142
-10.909
-10.654
-10.371
-10.058
-9.713
-9.332
-8.914
-8.456
-7.957
-7.415
-6.829
-6.199
-5.524
-4.803
-4.039
-3.231
-2.381
-1.491
-0.564
0.397
1.387
2.402
3.436
4.485
5.542
6.601
7.656
8.7
9.726
10.727
11.698
12.629
13.514
14.345
15.115
15.816
16.442
16.986
17.441
17.801
18.061
18.22
18.276
18.228
18.074
17.81
17.437
16.959
16.382
15.711
14.953
14.116
13.213
12.264
11.292
10.313
9.341
8.384
7.451
6.556
5.714
4.942
4.25
3.639
3.11
2.667
2.312
2.039
1.827
1.628
1.391
1.071
0.628
0.041
-0.712
-1.669
-2.88
-4.398
-6.275
-8.547
-11.227
-14.367
-18.044
-22.265
-26.943
-31.848
-36.609
-40.887
-44.438
-46.989
-48.213
-47.905
-46.047
-42.992
-39.505
-36.365
-34.16
-33.414
-34.646
-38.153
-43.871
-51.052
-58.111
-63.241
-64.843
-61.254
-50.668
-31.57
-2.693
35.227
78.998
125.598
172.064
218.179
266.711
316.506
362.821
395.343
398.556
364.307
292.467
191.342
77.822
-36.337
-145.238
-246.857
-344.011
-435.747
-517.57
-585.341
-634.731
-663.845
-673.656
-665.53
-641.075
-602.867
-553.736
-496.576
-434.768
-371.408
-308.791
-249.217
-194.908
-147.29
-107.455
-76.083
-52.749
-36.605
-26.833
-22.132
-20.988
-22.016
-23.647
-24.486
-23.969
-21.987
-18.607
-14.243
-9.398
-4.575
-0.476
2.245
3.395
3.101
1.662
-0.471
-2.869
-5.161
-6.928
-7.789
-7.571
-6.264
-3.958
-0.823
2.983
7.335
12.076
17.04
22.101
27.144
32.068
36.796
41.239
45.3
48.921
52.07
54.735
56.934
58.699
60.067
61.089
61.824
62.328
62.657
62.864
62.995
63.101
63.233
63.438
63.766
64.254
64.928
65.808
66.905
68.223
69.767
71.535
73.523
75.727
78.147
80.779
83.624
86.68
89.944
93.413
97.08
100.934
104.965
109.159
113.5
117.97
122.545
127.198
131.904
136.639
141.377
146.097
150.771
155.375
159.885
164.276
168.528
172.636
176.593
180.402
184.075
187.624
191.067
194.43
197.729
200.976
204.18
207.34
210.46
213.542
216.576
219.56
222.473
225.277
227.928
230.364
232.505
234.277
235.601
236.388
236.571
236.082
234.861
232.865
230.042
226.352
221.769
216.267
209.841
202.518
194.342
185.387
175.754
165.544
154.868
143.849
132.596
121.229
109.867
98.621
87.616
76.966
66.779
57.162
48.204
39.962
32.476
25.758
19.788
14.548
10.005
6.111
2.827
0.097
-2.145
-3.962
-5.438
-6.652
-7.676
-8.587
-9.449
-10.309
-11.206
-12.159
-13.168
-14.238
-15.361
-16.524
-17.72
-18.931
-20.13
-21.294
-22.383
-23.365
-24.216
-24.911
-25.432
-25.771
-25.922
-25.889
-25.687
-25.327
-24.825
-24.199
-23.462
-22.633
-21.733
-20.783
-19.81
-18.835
-17.873
-16.938
-16.043
-15.194
-14.397
-13.654
-12.962
-12.319
-11.724
-11.173
-10.666
-10.201
-9.772
-9.377
-9.01
-8.667
-8.345
-8.041
-7.752
-7.477
-7.214
-6.962
-6.722
-6.493
-6.274
-6.065
-5.864
-5.67
-5.484
-5.303
-5.127
-4.957
-4.791
-4.631
-4.477
-4.332
-4.195
-4.068
-3.952
-3.85
-3.762
-3.689
-3.634
-3.598
-3.581
-3.586
-3.613
-3.663
-3.738
-3.837
-3.96
-4.107
-4.278
-4.472
-4.687
-4.922
-5.175
-5.445
-5.729
-6.025
-6.332
-6.647
-6.968
-7.292
-7.617
-7.941
-8.259
-8.57
-8.871
-9.158
-9.43
-9.684
-9.917
-10.127
-10.312
-10.471
-10.602
-10.703
-10.772
-10.81
-10.815
-10.787
-10.725
-10.631
-10.506
-10.35
-10.165
-9.954
-9.719
-9.462
-9.187
-8.895
-8.59
-8.274
-7.949
-7.619
-7.286
-6.953
-6.623
-6.298
-5.98
-5.674
-5.381
-5.103
-4.844
-4.604
-4.387
-4.193
-4.026
-3.886
-3.775
-3.693
-3.644
-3.626
-3.641
-3.688
-3.767
-3.877
-4.015
-4.178
-4.364
-4.57
-4.793
-5.029
-5.275
-5.528
-5.788
-6.051
-6.317
-6.582
-6.844
-7.1
-7.345
-7.576
-7.787
-7.973
-8.129
-8.249
-8.328
-8.362
-8.347
-8.278
-8.149
-7.954
-7.686
-7.344
-6.929
-6.443
-5.89
-5.277
-4.616
-3.923
-3.215
-2.507
-1.813
-1.143
-0.504
0.098
0.656
1.163
1.616
2.027
2.411
2.79
3.183
3.611
4.098
4.682
5.399
6.278
7.342
8.604
10.072
11.75
13.643
15.75
18.047
20.492
23.023
25.572
28.07
30.459
32.673
34.633
36.258
37.486
38.261
38.543
38.296
37.481
36.055
33.997
31.32
28.061
24.293
20.1
15.566
10.772
5.802
0.752
-4.289
-9.254
-14.088
-18.739
-23.152
-27.248
-30.948
-34.208
-37.02
-39.406
-41.412
-43.084
-44.497
-45.772
-46.982
-48.119
-49.071
-49.591
-49.44
-48.491
-46.592
-43.519
-39.163
-33.648
-27.387
-21.172
-15.8
-11.712
-9.245
-8.897
-10.968
-15.286
-21.121
-26.89
-30.765
-31.58
-28.163
-18.832
-2.178
22.76
55.31
92.452
131.288
170.449
210.835
254.2
298.968
338.534
361.609
357.227
320.343
254.356
170.038
77.764
-15.585
-108.834
-204.913
-301.434
-393.279
-472.878
-531.632
-569.207
-587.62
-589.719
-579.753
-557.263
-522.749
-478.723
-427.211
-372.479
-317.845
-264.781
-215.452
-171.448
-133.583
-102.829
-79.114
-61.368
-49.052
-41.578
-37.697
-36.263
-35.95
-35.187
-33.322
-30.366
-26.205
-20.988
-15.138
-8.989
-3.215
1.324
4.348
5.906
6.148
5.453
4.18
2.611
1.195
0.406
0.476
1.494
3.42
6.099
9.424
13.303
17.602
22.179
26.901
31.667
36.398
41.032
45.492
49.692
53.541
56.981
59.985
62.545
64.676
66.407
67.766
68.797
69.553
70.082
70.436
70.661
70.798
70.89
70.986
71.131
71.373
71.751
72.288
73.002
73.903
74.997
76.291
77.784
79.472
81.353
83.426
85.692
88.153
90.809
93.655
96.682
99.882
103.248
106.773
110.454
114.281
118.242
122.321
126.504
130.773
135.107
139.477
143.846
148.178
152.443
156.619
160.693
164.646
168.46
172.12
175.606
178.914
182.042
184.981
187.723
190.262
192.598
194.75
196.748
198.615
200.357
201.969
203.432
204.732
205.852
206.77
207.455
207.865
207.959
207.711
207.105
206.118
204.718
202.851
200.451
197.47
193.877
189.65
184.781
179.255
173.071
166.247
158.817
150.826
142.315
133.314
123.851
113.965
103.711
93.169
82.431
71.576
60.686
49.846
39.146
28.686
18.55
8.801
-0.513
-9.346
-17.653
-25.383
-32.494
-38.96
-44.77
-49.931
-54.461
-58.376
-61.709
-64.512
-66.85
-68.805
-70.446
-71.826
-72.992
-73.996
-74.886
-75.708
-76.5
-77.285
-78.081
-78.9
-79.751
-80.641
-81.562
-82.493
-83.403
-84.25
-85.001
-85.638
-86.142
-86.494
-86.682
-86.697
-86.538
-86.215
-85.736
-85.11
-84.344
-83.447
-82.436
-81.329
-80.151
-78.928
-77.681
-76.425
-75.177
-73.947
-72.745
-71.579
-70.45
-69.356
-68.297
-67.273
-66.287
-65.339
-64.43
-63.559
-62.724
-61.926
-61.163
-60.436
-59.746
-59.092
-58.476
-57.898
-57.362
-56.867
-56.416
-56.009
-55.645
-55.322
-55.041
-54.798
-54.593
-54.422
-54.284
-54.177
-54.097
-54.043
-54.014
-54.005
-54.016
-54.043
-54.085
-54.137
-54.198
-54.265
-54.333
-54.399
-54.46
-54.513
-54.552
-54.575
-54.578
-54.557
-54.51
-54.434
-54.326
-54.184
-54.007
-53.793
-53.543
-53.256
-52.933
-52.575
-52.183
-51.758
-51.304
-50.822
-50.314
-49.785
-49.237
-48.672
-48.095
-47.507
-46.914
-46.318
-45.722
-45.131
-44.549
-43.978
-43.423
-42.887
-42.373
-41.884
-41.423
-40.992
-40.592
-40.224
-39.89
-39.588
-39.317
-39.078
-38.866
-38.681
-38.518
-38.374
-38.245
-38.125
-38.01
-37.894
-37.771
-37.635
-37.48
-37.299
-37.088
-36.84
-36.548
-36.208
-35.815
-35.362
-34.846
-34.262
-33.605
-32.874
-32.065
-31.177
-30.209
-29.161
-28.034
-26.831
-25.555
-24.212
-22.807
-21.347
-19.84
-18.293
-16.717
-15.12
-13.512
-11.902
-10.3
-8.716
-7.162
-5.65
-4.19
-2.795
-1.476
-0.243
0.893
1.925
2.848
3.657
4.347
4.914
5.348
5.643
5.794
5.798
5.654
5.365
4.938
4.389
3.742
3.018
2.24
1.424
0.58
-0.277
-1.132
-1.972
-2.776
-3.527
-4.214
-4.825
-5.351
-5.796
-6.183
-6.559
-6.996
-7.562
-8.311
-9.287
-10.537
-12.116
-14.088
-16.512
-19.439
-22.9
-26.94
-31.649
-37.042
-43.024
-49.377
-55.73
-61.719
-67.095
-71.58
-74.79
-76.498
-76.734
-75.836
-74.541
-73.542
-73.156
-73.669
-75.551
-79.033
-83.89
-89.342
-93.786
-95.544
-93.633
-86.978
-73.991
-53.367
-24.281
12.372
53.416
95.958
138.54
181.971
227.756
273.571
312.594
333.577
325.367
283.786
212.098
120.287
19.977
-81.491
-181.065
-278.754
-373.893
-462.844
-540.403
-601.394
-642.833
-664.431
-667.458
-653.833
-625.748
-585.995
-537.735
-484.218
-428.705
-373.595
-320.46
-270.804
-225.776
-185.914
-151.765
-123.65
-101.073
-83.572
-70.898
-62.432
-57.59
-55.945
-56.365
-57.362
-58.253
-58.698
-58.335
-57.135
-54.949
-51.411
-47.009
-42.891
-39.605
-37.307
-36.038
-35.521
-35.698
-36.84
-38.641
-40.29
-41.305
-41.415
-40.52
-38.819
-36.355
-32.953
-28.712
-23.956
-18.934
-13.897
-9.004
-4.253
0.28
4.447
8.182
11.46
14.284
16.708
18.768
20.469
21.842
22.931
23.784
24.462
25.022
25.505
25.962
26.438
26.984
27.649
28.473
29.483
30.7
32.136
33.8
35.698
37.834
40.207
42.813
45.652
48.722
52.028
55.571
59.351
63.358
67.581
72.009
76.628
81.419
86.36
91.421
96.575
101.8
107.073
112.376
117.683
122.963
128.187
133.326
138.36
143.28
148.079
152.754
157.316
161.787
166.196
170.582
174.967
179.357
183.753
188.151
192.548
196.949
201.346
205.722
210.054
214.304
218.421
222.348
225.992
229.236
231.962
234.041
235.377
235.908
235.58
234.347
232.173
229.021
224.869
219.716
213.565
206.426
198.342
189.377
179.645
169.31
158.536
147.499
136.341
125.17
114.087
103.187
92.553
82.266
72.397
63.002
54.144
45.897
38.3
31.364
25.05
19.265
13.912
8.893
4.138
-0.391
-4.728
-8.894
-12.9
-16.747
-20.426
-23.925
-27.252
-30.436
-33.487
-36.397
-39.113
-41.544
-43.6
-45.208
-46.32
-46.92
-46.998
-46.566
-45.658
-44.33
-42.659
-40.716
-38.552
-36.194
-33.674
-31.041
-28.374
-25.78
-23.353
-21.166
-19.273
-17.706
-16.49
-15.629
-15.1
-14.85
-14.802
-14.892
-15.079
-15.339
-15.649
-15.977
-16.271
-16.47
-16.526
-16.407
-16.087
-15.551
-14.784
-13.788
-12.586
-11.224
-9.764
-8.252
-6.716
-5.175
-3.641
-2.133
-0.675
0.712
2.016
3.231
4.348
5.362
6.263
7.052
7.742
8.355
8.918
9.45
9.961
10.457
10.943
11.422
11.897
12.368
12.829
13.275
13.705
14.119
14.516
14.896
15.252
15.579
15.87
16.121
16.327
16.487
16.599
16.662
16.676
16.644
16.568
16.451
16.294
16.099
15.866
15.596
15.292
14.953
14.581
14.178
13.744
13.281
12.792
12.28
11.745
11.19
10.618
10.031
9.432
8.823
8.206
7.584
6.959
6.334
5.712
5.093
4.48
3.875
3.278
2.691
2.115
1.55
0.997
0.455
-0.074
-0.592
-1.098
-1.592
-2.073
-2.543
-3.001
-3.446
-3.878
-4.296
-4.7
-5.09
-5.464
-5.821
-6.16
-6.48
-6.781
-7.059
-7.315
-7.547
-7.753
-7.931
-8.08
-8.199
-8.284
-8.335
-8.349
-8.324
-8.258
-8.15
-7.997
-7.798
-7.55
-7.252
-6.902
-6.499
-6.043
-5.532
-4.965
-4.345
-3.671
-2.945
-2.17
-1.348
-0.484
0.418
1.351
2.311
3.29
4.281
5.278
6.272
7.256
8.223
9.165
10.076
10.949
11.774
12.544
13.252
13.891
14.452
14.931
15.32
15.616
15.818
15.926
15.937
15.852
15.664
15.374
14.982
14.491
13.902
13.225
12.467
11.646
10.789
9.916
9.048
8.201
7.384
6.613
5.903
5.268
4.727
4.294
3.973
3.778
3.716
3.784
3.962
4.208
4.456
4.651
4.746
4.707
4.497
4.066
3.355
2.31
0.88
-0.959
-3.246
-6.064
-9.443
-13.331
-17.563
-21.814
-25.74
-29.086
-31.574
-32.875
-32.773
-31.183
-28.333
-24.855
-21.437
-18.621
-16.875
-16.65
-18.241
-21.699
-26.501
-31.414
-34.866
-35.341
-31.564
-22.053
-5.308
19.61
53.045
93.644
138.23
184.711
231.527
277.205
321.779
361.073
387.338
393.482
371.524
319.912
245.168
155.085
58.515
-39.82
-142.538
-251.97
-366.455
-478.602
-573.903
-638.861
-667.505
-662.303
-633.712
-592.784
-546.376
-496.832
-442.343
-382.446
-319.343
-256.444
-198.635
-149.119
-108.806
-77.963
-55.808
-40.975
-32.356
-28.594
-27.745
-28.133
-28.328
-27.029
-23.816
-18.872
-12.456
-5.084
2.473
9.553
15.435
19.401
21.296
21.297
19.694
16.956
13.539
9.839
6.322
3.45
1.471
0.482
0.471
1.325
2.954
5.282
8.197
11.571
15.282
19.23
23.325
27.494
31.661
35.735
39.634
43.281
46.614
49.594
52.21
54.462
56.366
57.954
59.259
60.326
61.21
61.964
62.645
63.316
64.032
64.846
65.807
66.948
68.3
69.887
71.718
73.799
76.122
78.665
81.41
84.343
87.441
90.676
94.002
97.354
100.674
103.911
107.024
109.991
112.788
115.399
117.828
120.092
122.225
124.279
126.283
128.251
130.206
132.182
134.236
136.455
138.917
141.688
144.838
148.426
152.503
157.102
162.214
167.789
173.763
180.049
186.584
193.324
200.211
207.178
214.134
220.965
227.553
233.776
239.489
244.53
248.747
252.014
254.257
255.444
255.56
254.603
252.563
249.421
245.163
239.788
233.3
225.728
217.124
207.563
197.166
186.089
174.494
162.527
150.31
137.942
125.515
113.124
100.868
88.85
77.188
65.993
55.384
45.46
36.292
27.921
20.352
13.556
7.489
2.107
-2.64
-6.793
-10.396
-13.504
-16.172
-18.471
-20.488
-22.312
-24.035
-25.738
-27.476
-29.293
-31.214
-33.245
-35.379
-37.603
-39.894
-42.233
-44.604
-46.981
-49.339
-51.64
-53.836
-55.883
-57.743
-59.386
-60.795
-61.957
-62.866
-63.527
-63.954
-64.163
-64.175
-64.009
-63.678
-63.202
-62.601
-61.901
-61.131
-60.316
-59.474
-58.62
-57.766
-56.922
-56.096
-55.29
-54.504
-53.736
-52.985
-52.252
-51.539
-50.846
-50.171
-49.512
-48.867
-48.232
-47.607
-46.992
-46.384
-45.783
-45.188
-44.599
-44.018
-43.445
-42.878
-42.317
-41.761
-41.208
-40.658
-40.109
-39.56
-39.011
-38.46
-37.91
-37.358
-36.807
-36.256
-35.705
-35.156
-34.608
-34.062
-33.519
-32.98
-32.445
-31.916
-31.393
-30.877
-30.37
-29.873
-29.385
-28.909
-28.446
-27.995
-27.559
-27.137
-26.731
-26.34
-25.965
-25.606
-25.265
-24.94
-24.632
-24.341
-24.066
-23.807
-23.565
-23.339
-23.128
-22.934
-22.755
-22.593
-22.448
-22.319
-22.207
-22.112
-22.033
-21.975
-21.937
-21.922
-21.931
-21.964
-22.022
-22.108
-22.222
-22.364
-22.534
-22.729
-22.951
-23.202
-23.486
-23.807
-24.164
-24.554
-24.974
-25.423
-25.9
-26.404
-26.932
-27.48
-28.046
-28.633
-29.244
-29.884
-30.551
-31.24
-31.943
-32.645
-33.347
-34.058
-34.789
-35.558
-36.364
-37.181
-38.001
-38.823
-39.645
-40.488
-41.33
-42.084
-42.772
-43.501
-44.364
-45.497
-46.88
-48.275
-49.593
-50.902
-52.067
-52.856
-52.995
-52.04
-49.99
-47.362
-44.425
-41.256
-38.106
-35.217
-32.972
-32.051
-32.508
-33.745
-35.408
-37.282
-39.112
-40.806
-42.08
-42.363
-41.596
-40.217
-38.51
-36.712
-34.981
-33.267
-31.659
-30.413
-29.536
-28.818
-28.114
-27.289
-26.293
-25.221
-24.103
-22.911
-21.671
-20.442
-19.267
-18.201
-17.261
-16.417
-15.672
-15.056
-14.61
-14.404
-14.481
-14.84
-15.484
-16.405
-17.579
-18.976
-20.552
-22.24
-24.013
-25.875
-27.826
-29.88
-32.037
-34.27
-36.557
-38.874
-41.204
-43.562
-45.97
-48.442
-51.015
-53.72
-56.588
-59.683
-63.012
-66.537
-70.236
-74.044
-77.917
-81.875
-85.842
-89.658
-93.109
-95.826
-97.45
-97.74
-96.342
-92.889
-87.299
-79.647
-70.394
-60.487
-50.728
-41.832
-34.662
-29.849
-27.542
-27.506
-28.689
-29.396
-27.984
-22.465
-10.724
8.919
36.605
70.659
108.805
149.087
192.141
239.378
288.55
332.537
358.646
354
312.657
237.442
139.354
30.845
-79.659
-188.359
-295.463
-399.992
-497.796
-583.345
-650.483
-695.339
-717.155
-716.62
-695.462
-656.096
-601.581
-535.69
-462.894
-387.743
-313.901
-244.423
-181.966
-128.424
-84.993
-52.262
-29.679
-15.752
-8.945
-7.626
-10.044
-14.692
-20.179
-24.965
-28.019
-29.191
-28.678
-26.824
-24.089
-20.743
-16.94
-13.356
-10.78
-9.382
-9.018
-9.416
-10.179
-11.17
-12.5
-13.835
-14.574
-14.434
-13.281
-11.147
-8.251
-4.641
-0.211
4.902
10.403
16.048
21.592
26.894
31.934
36.625
40.86
44.599
47.842
50.625
53.013
55.051
56.763
58.191
59.377
60.374
61.244
62.04
62.816
63.622
64.508
65.52
66.697
68.065
69.645
71.445
73.472
75.728
78.214
80.925
83.859
87.012
90.379
93.957
97.745
101.736
105.92
110.286
114.819
119.504
124.321
129.251
134.261
139.323
144.411
149.497
154.564
159.595
164.569
169.467
174.267
178.955
183.528
187.987
192.329
196.556
200.671
204.682
208.618
212.499
216.335
220.136
223.889
227.574
231.171
234.658
237.998
241.149
244.051
246.623
248.808
250.544
251.772
252.436
252.459
251.772
250.333
248.104
245.066
241.229
236.598
231.188
225.042
218.211
210.767
202.822
194.463
185.774
176.842
167.741
158.564
149.4
140.316
131.373
122.622
114.095
105.825
97.849
90.176
82.812
75.753
68.954
62.387
56.037
49.88
43.907
38.106
32.465
26.973
21.623
16.412
11.337
6.403
1.625
-2.974
-7.386
-11.573
-15.446
-18.956
-22.067
-24.739
-27.031
-29.023
-30.728
-32.294
-34.019
-35.92
-37.871
-39.957
-41.893
-43.876
-47.223
-51.608
-55.655
-57.539
-52.563
-39.306
-21.521
-4.306
2.614
-7.106
-30.167
-59.176
-81.229
-85.737
-72.66
-48.161
-23.375
-7.727
-3.191
-7.143
-13.865
-19.018
-21.766
-22.556
-22.824
-23.436
-24.161
-24.733
-24.953
-24.63
-23.741
-22.592
-21.395
-20.248
-19.293
-18.506
-17.804
-17.271
-16.998
-16.89
-16.894
-16.965
-17.019
-17.085
-17.207
-17.356
-17.518
-17.702
-17.902
-18.129
-18.4
-18.697
-19.005
-19.319
-19.627
-19.932
-20.236
-20.535
-20.83
-21.118
-21.397
-21.666
-21.923
-22.17
-22.406
-22.63
-22.841
-23.041
-23.229
-23.408
-23.578
-23.738
-23.886
-24.021
-24.143
-24.252
-24.347
-24.43
-24.499
-24.556
-24.601
-24.637
-24.663
-24.682
-24.693
-24.7
-24.702
-24.701
-24.7
-24.699
-24.699
-24.704
-24.713
-24.729
-24.753
-24.786
-24.828
-24.882
-24.949
-25.028
-25.122
-25.231
-25.357
-25.5
-25.66
-25.84
-26.04
-26.26
-26.501
-26.762
-27.044
-27.347
-27.669
-28.01
-28.369
-28.744
-29.133
-29.536
-29.948
-30.368
-30.794
-31.221
-31.647
-32.069
-32.482
-32.884
-33.27
-33.637
-33.982
-34.302
-34.592
-34.85
-35.073
-35.256
-35.397
-35.493
-35.541
-35.538
-35.481
-35.369
-35.199
-34.969
-34.679
-34.327
-33.913
-33.436
-32.897
-32.296
-31.635
-30.915
-30.141
-29.314
-28.44
-27.524
-26.572
-25.59
-24.585
-23.565
-22.538
-21.51
-20.492
-19.491
-18.516
-17.574
-16.674
-15.826
-15.037
-14.317
-13.675
-13.117
-12.65
-12.284
-12.024
-11.878
-11.851
-11.945
-12.161
-12.502
-12.97
-13.569
-14.298
-15.151
-16.123
-17.208
-18.398
-19.684
-21.05
-22.473
-23.928
-25.394
-26.853
-28.295
-29.705
-31.067
-32.361
-33.568
-34.675
-35.678
-36.574
-37.355
-38.016
-38.563
-39.019
-39.435
-39.867
-40.364
-40.971
-41.72
-42.636
-43.758
-45.134
-46.809
-48.829
-51.235
-54.032
-57.247
-60.956
-65.151
-69.728
-74.466
-78.955
-82.78
-85.702
-87.482
-87.785
-86.45
-83.511
-79.277
-74.656
-70.663
-67.809
-66.382
-66.904
-69.671
-74.452
-80.731
-86.008
-86.545
-81.229
-69.787
-52.98
-34.085
-11.642
17.944
55.935
105.373
163.8
224.812
284.371
335.099
370.156
382.934
365.1
314.074
233.04
131.482
22.421
-86.235
-191.858
-296.326
-402.987
-507.46
-599.725
-669.454
-706.687
-711.062
-690.401
-652.144
-605.11
-553.774
-497.162
-436.571
-373.579
-310.453
-251.964
-201.041
-158.757
-125.769
-101.361
-84.173
-73.157
-67.06
-64.078
-62.6
-61.174
-58.374
-53.641
-47.096
-38.962
-29.696
-20.018
-10.579
-2.122
4.516
9.054
11.602
12.38
11.806
10.319
8.275
6.116
4.326
3.159
2.715
3.012
3.922
5.328
7.155
9.28
11.581
13.981
16.406
18.807
21.176
23.476
25.664
27.711
29.571
31.215
32.637
33.836
34.849
35.753
36.605
37.465
38.389
39.404
40.536
41.805
43.194
44.695
46.308
48.03
49.875
51.864
53.999
56.282
58.701
61.22
63.817
66.475
69.177
71.919
74.709
77.559
80.51
83.601
86.854
90.283
93.889
97.66
101.588
105.664
109.868
114.184
118.591
123.067
127.595
132.161
136.744
141.316
145.84
150.273
154.592
158.786
162.854
166.794
170.608
174.3
177.884
181.394
184.855
188.278
191.669
195.01
198.281
201.464
204.537
207.469
210.218
212.72
214.903
216.709
218.082
218.968
219.305
219.01
218.013
216.271
213.75
210.447
206.371
201.531
195.951
189.678
182.774
175.322
167.425
159.159
150.6
141.824
132.908
123.949
115.035
106.233
97.599
89.173
80.991
73.086
65.486
58.194
51.202
44.493
38.034
31.811
25.817
20.043
14.481
9.118
3.941
-1.05
-5.848
-10.447
-14.841
-19.026
-23
-26.749
-30.258
-33.507
-36.476
-39.155
-41.539
-43.626
-45.417
-46.914
-48.124
-49.059
-49.736
-50.169
-50.374
-50.364
-50.154
-49.759
-49.201
-48.495
-47.662
-46.719
-45.68
-44.563
-43.381
-42.147
-40.875
-39.573
-38.251
-36.918
-35.584
-34.257
-32.946
-31.658
-30.401
-29.182
-28.005
-26.877
-25.8
-24.777
-23.81
-22.9
-22.048
-21.252
-20.512
-19.826
-19.193
-18.61
-18.075
-17.584
-17.135
-16.724
-16.347
-16
-15.682
-15.387
-15.112
-14.856
-14.614
-14.385
-14.167
-13.956
-13.752
-13.552
-13.355
-13.158
-12.961
-12.762
-12.559
-12.353
-12.141
-11.924
-11.702
-11.474
-11.241
-11.003
-10.761
-10.514
-10.263
-10.008
-9.75
-9.489
-9.224
-8.958
-8.689
-8.419
-8.147
-7.874
-7.599
-7.323
-7.046
-6.766
-6.483
-6.197
-5.907
-5.612
-5.312
-5.006
-4.692
-4.372
-4.044
-3.707
-3.361
-3.005
-2.638
-2.259
-1.87
-1.468
-1.054
-0.629
-0.194
0.252
0.707
1.169
1.637
2.111
2.587
3.066
3.545
4.023
4.496
4.965
5.425
5.876
6.315
6.739
7.148
7.538
7.908
8.257
8.582
8.883
9.158
9.406
9.626
9.816
9.976
10.106
10.206
10.275
10.316
10.329
10.317
10.283
10.228
10.158
10.075
9.983
9.887
9.79
9.697
9.613
9.543
9.492
9.465
9.468
9.504
9.58
9.7
9.868
10.088
10.364
10.7
11.099
11.563
12.095
12.698
13.373
14.123
14.947
15.844
16.815
17.857
18.966
20.139
21.369
22.65
23.976
25.339
26.731
28.143
29.565
30.989
32.405
33.804
35.176
36.508
37.791
39.013
40.166
41.238
42.222
43.107
43.884
44.546
45.089
45.51
45.803
45.964
45.986
45.866
45.608
45.214
44.688
44.037
43.268
42.394
41.438
40.425
39.375
38.307
37.232
36.165
35.125
34.132
33.207
32.36
31.591
30.903
30.297
29.773
29.319
28.904
28.47
27.956
27.305
26.465
25.394
24.056
22.405
20.389
17.961
15.084
11.738
7.921
3.607
-1.26
-6.665
-12.483
-18.468
-24.225
-29.352
-33.536
-36.423
-37.583
-36.774
-34.01
-29.635
-24.515
-19.583
-15.555
-13.219
-13.325
-16.199
-21.673
-28.85
-35.866
-40.722
-41.491
-35.856
-21.748
2.338
36.35
78.166
125.009
174.472
226.12
279.872
332.673
377.892
404.446
401.493
364.542
295.744
204.903
104.49
1.415
-101.848
-206.761
-316.397
-426.15
-525.968
-606.108
-656.894
-676.903
-672.913
-650.98
-617.803
-577.201
-528.176
-471.606
-409.473
-344.332
-280.355
-220.822
-167.866
-122.996
-86.898
-59.552
-40.352
-28.489
-23.146
-23.175
-27.074
-33.017
-39.001
-43.638
-46.33
-46.825
-44.895
-40.335
-33.376
-24.861
-16.096
-8.265
-1.945
2.754
5.733
6.758
5.835
3.332
0.018
-3.168
-5.69
-7.395
-8.198
-7.988
-6.702
-4.36
-1.194
2.376
6.069
9.75
13.332
16.773
19.998
22.891
25.39
27.504
29.249
30.643
31.704
32.424
32.82
32.939
32.836
32.577
32.219
31.809
31.387
30.998
30.692
30.517
30.523
30.743
31.198
31.904
32.872
34.114
35.637
37.44
39.515
41.854
44.452
47.306
50.414
53.768
57.357
61.166
65.183
69.397
73.798
78.373
83.1
87.961
92.935
97.998
103.124
108.278
113.419
118.509
123.519
128.423
133.204
137.841
142.314
146.604
150.697
154.577
158.235
161.658
164.83
167.746
170.41
172.837
175.057
177.086
178.926
180.573
182.012
183.226
184.198
184.898
185.294
185.361
185.075
184.42
183.387
181.95
180.075
177.718
174.821
171.341
167.248
162.515
157.137
151.119
144.476
137.241
129.456
121.155
112.374
103.145
93.507
83.519
73.249
62.773
52.19
41.594
31.087
20.777
10.751
1.081
-8.172
-16.963
-25.246
-32.972
-40.103
-46.607
-52.463
-57.67
-62.232
-66.158
-69.485
-72.259
-74.545
-76.425
-77.964
-79.211
-80.214
-81.013
-81.657
-82.193
-82.656
-83.072
-83.461
-83.836
-84.21
-84.597
-84.99
-85.374
-85.72
-85.986
-86.149
-86.194
-86.106
-85.876
-85.492
-84.943
-84.228
-83.359
-82.345
-81.195
-79.917
-78.516
-77.01
-75.42
-73.769
-72.086
-70.392
-68.7
-67.026
-65.382
-63.778
-62.224
-60.723
-59.272
-57.873
-56.527
-55.236
-54.003
-52.826
-51.704
-50.635
-49.615
-48.644
-47.722
-46.846
-46.015
-45.23
-44.491
-43.798
-43.152
-42.553
-42.001
-41.495
-41.032
-40.612
-40.232
-39.891
-39.587
-39.316
-39.078
-38.87
-38.69
-38.537
-38.409
-38.302
-38.216
-38.147
-38.094
-38.055
-38.026
-38.005
-37.991
-37.98
-37.97
-37.959
-37.944
-37.923
-37.894
-37.854
-37.803
-37.738
-37.658
-37.562
-37.449
-37.319
-37.171
-37.005
-36.822
-36.622
-36.404
-36.171
-35.921
-35.655
-35.375
-35.081
-34.775
-34.457
-34.13
-33.796
-33.456
-33.113
-32.769
-32.427
-32.088
-31.756
-31.432
-31.119
-30.818
-30.532
-30.263
-30.012
-29.781
-29.572
-29.385
-29.222
-29.082
-28.966
-28.874
-28.806
-28.761
-28.74
-28.741
-28.766
-28.813
-28.883
-28.975
-29.089
-29.222
-29.373
-29.54
-29.721
-29.911
-30.107
-30.306
-30.505
-30.7
-30.888
-31.066
-31.232
-31.385
-31.522
-31.642
-31.741
-31.817
-31.866
-31.884
-31.867
-31.813
-31.716
-31.575
-31.386
-31.149
-30.865
-30.531
-30.147
-29.707
-29.206
-28.641
-28.013
-27.322
-26.572
-25.773
-24.937
-24.084
-23.238
-22.411
-21.616
-20.856
-20.128
-19.431
-18.76
-18.108
-17.479
-16.874
-16.29
-15.733
-15.2
-14.68
-14.155
-13.593
-12.952
-12.213
-11.363
-10.402
-9.35
-8.234
-7.092
-5.974
-4.914
-3.939
-3.072
-2.321
-1.693
-1.209
-0.886
-0.757
-0.871
-1.249
-1.908
-2.852
-4.054
-5.472
-7.047
-8.697
-10.361
-11.996
-13.57
-15.074
-16.507
-17.868
-19.178
-20.449
-21.684
-22.907
-24.134
-25.391
-26.725
-28.18
-29.828
-31.763
-34.06
-36.778
-39.952
-43.572
-47.628
-52.134
-57.001
-62.068
-67.095
-71.707
-75.56
-78.402
-79.916
-79.718
-77.604
-73.571
-67.889
-61.296
-54.507
-48.034
-42.531
-38.648
-36.683
-36.569
-37.608
-38.27
-37.056
-32.567
-22.923
-6.415
18.215
50.888
89.557
131.553
174.98
220.126
267.744
315.907
358.375
383.876
381.436
345.569
278.062
188.62
88.25
-15.511
-118.731
-221.588
-323.403
-419.944
-505.748
-575.018
-623.892
-651.553
-658.646
-646.207
-615.831
-570.44
-513.746
-449.969
-383.471
-317.404
-254.409
-197.473
-148.955
-110.125
-81.243
-61.289
-48.53
-41.654
-39.114
-38.77
-38.614
-36.841
-32.407
-25.366
-16.224
-5.474
6.182
17.836
28.543
37.275
43.496
47.279
48.881
48.702
47.182
44.711
41.746
38.802
36.19
34.029
32.376
31.18
30.39
29.995
29.925
30.099
30.468
30.998
31.677
32.522
33.549
34.765
36.2
37.867
39.763
41.887
44.222
46.746
49.462
52.373
55.476
58.774
62.267
65.944
69.798
73.799
77.89
82.015
86.114
90.14
94.072
97.892
101.592
105.175
108.642
112.004
115.279
118.481
121.619
124.715
127.789
130.882
134.052
137.348
140.806
144.457
148.311
152.373
156.642
161.1
165.715
170.457
175.291
180.193
185.145
190.118
195.08
199.987
204.791
209.458
213.968
218.304
222.457
226.432
230.238
233.908
237.486
241.001
244.468
247.894
251.271
254.601
257.89
261.142
264.358
267.527
270.62
273.604
276.437
279.055
281.375
283.294
284.696
285.492
285.613
285
283.604
281.38
278.273
274.238
269.241
263.254
256.272
248.308
239.393
229.594
219.006
207.751
195.967
183.778
171.3
158.646
145.929
133.265
120.786
108.623
96.897
85.733
75.234
65.478
56.525
48.405
41.117
34.638
28.93
23.947
19.645
15.978
12.886
10.306
8.155
6.335
4.758
3.334
1.982
0.647
-0.722
-2.158
-3.676
-5.278
-6.956
-8.694
-10.476
-12.292
-14.117
-15.924
-17.675
-19.32
-20.818
-22.135
-23.24
-24.121
-24.766
-25.17
-25.339
-25.288
-25.032
-24.594
-23.992
-23.242
-22.366
-21.387
-20.332
-19.235
-18.122
-17.013
-15.927
-14.878
-13.876
-12.932
-12.051
-11.231
-10.474
-9.78
-9.151
-8.591
-8.1
-7.678
-7.324
-7.035
-6.811
-6.652
-6.555
-6.521
-6.548
-6.636
-6.783
-6.99
-7.256
-7.58
-7.958
-8.386
-8.861
-9.379
-9.937
-10.529
-11.152
-11.801
-12.473
-13.165
-13.873
-14.594
-15.326
-16.064
-16.807
-17.552
-18.295
-19.034
-19.766
-20.489
-21.2
-21.897
-22.577
-23.239
-23.881
-24.501
-25.098
-25.67
-26.218
-26.74
-27.237
-27.708
-28.155
-28.577
-28.975
-29.352
-29.708
-30.045
-30.365
-30.67
-30.961
-31.239
-31.506
-31.764
-32.013
-32.255
-32.491
-32.723
-32.952
-33.179
-33.406
-33.635
-33.867
-34.104
-34.347
-34.597
-34.856
-35.123
-35.401
-35.688
-35.986
-36.293
-36.61
-36.935
-37.269
-37.609
-37.953
-38.3
-38.648
-38.995
-39.337
-39.672
-39.997
-40.311
-40.611
-40.893
-41.157
-41.4
-41.619
-41.813
-41.979
-42.115
-42.219
-42.289
-42.322
-42.319
-42.278
-42.197
-42.078
-41.92
-41.725
-41.496
-41.233
-40.941
-40.622
-40.281
-39.921
-39.549
-39.169
-38.785
-38.405
-38.035
-37.682
-37.353
-37.056
-36.797
-36.583
-36.421
-36.317
-36.278
-36.31
-36.416
-36.599
-36.864
-37.214
-37.657
-38.195
-38.826
-39.547
-40.353
-41.239
-42.197
-43.216
-44.278
-45.365
-46.456
-47.537
-48.597
-49.624
-50.601
-51.508
-52.324
-53.035
-53.637
-54.13
-54.514
-54.795
-54.979
-55.093
-55.184
-55.3
-55.496
-55.821
-56.313
-57.015
-57.968
-59.215
-60.813
-62.804
-65.219
-68.079
-71.386
-75.152
-79.423
-84.162
-89.216
-94.35
-99.192
-103.379
-106.653
-108.693
-109.083
-107.591
-104.215
-99.272
-93.572
-87.927
-82.91
-79.203
-77.492
-78.121
-81.003
-85.319
-89.338
-91.306
-89.547
-81.964
-66.635
-42.039
-8.319
32.083
76.304
122.343
170.882
223.606
278.438
327.984
359.323
359.52
322.833
252.554
160.309
59.04
-43.031
-142.624
-240.77
-337.582
-429.295
-510.564
-575.781
-621.454
-647.22
-654.297
-644.216
-618.748
-580.625
-532.961
-479.21
-423.067
-366.882
-312.197
-260.961
-214.685
-174.388
-141.096
-114.662
-93.953
-78.573
-68.2
-61.889
-58.928
-57.963
-56.909
-54.891
-51.908
-47.645
-42.049
-35.214
-26.866
-17.72
-9.374
-2.558
2.521
5.727
7.361
7.522
5.926
2.995
-0.278
-3.287
-5.598
-7.002
-7.659
-7.541
-6.42
-4.358
-1.623
1.567
4.983
8.502
12.146
15.854
19.505
23.016
26.319
29.366
32.133
34.597
36.73
38.528
40.006
41.193
42.128
42.857
43.432
43.897
44.297
44.675
45.066
45.513
46.063
46.758
47.638
48.733
50.059
51.63
53.461
55.556
57.923
60.561
63.459
66.607
69.998
73.619
77.458
81.496
85.708
90.067
94.547
99.125
103.788
108.516
113.287
118.073
122.839
127.556
132.21
136.797
141.316
145.774
150.179
154.552
158.927
163.343
167.828
172.397
177.048
181.779
186.597
191.514
196.554
201.724
207
212.337
217.666
222.918
228.013
232.861
237.355
241.363
244.753
247.405
249.21
250.077
249.942
248.702
246.21
242.414
237.34
231.145
224.147
216.508
208.209
199.248
189.628
179.319
168.308
156.305
142.701
127.323
110.455
92.628
74.665
57.268
40.894
26.327
14.657
6.441
1.708
-0.018
0.226
1.642
3.78
5.959
7.321
7.314
5.674
2.594
-1.231
-5.331
-9.534
-13.628
-17.412
-20.756
-23.534
-25.81
-27.908
-30.072
-32.375
-34.788
-37.093
-38.951
-40.208
-40.895
-41.072
-40.832
-40.302
-39.667
-39.436
-40.511
-43.512
-48.458
-54.926
-62.172
-69.482
-76.314
-81.847
-84.679
-83.603
-78.278
-69.217
-57.701
-45.108
-32.378
-20.45
-10.749
-4.692
-2.953
-5.33
-10.687
-17.574
-25.054
-32.476
-38.988
-43.661
-45.937
-45.749
-43.684
-40.694
-37.358
-33.93
-30.697
-27.955
-25.851
-24.442
-23.519
-22.658
-21.72
-20.723
-19.585
-18.294
-16.997
-15.796
-14.899
-14.524
-14.541
-14.955
-15.807
-16.905
-18.085
-19
-19.874
-22.002
-25.332
-28.67
-29.599
-23.633
-11.146
3.195
14.469
15.787
6.943
-5.626
-17.032
-21.917
-19.382
-14.144
-8.927
-5.557
-4.713
-4.562
-4.289
-4.043
-3.725
-3.577
-3.702
-3.858
-3.959
-4.046
-4.098
-4.082
-4.02
-3.937
-3.857
-3.832
-3.868
-3.94
-4.038
-4.163
-4.313
-4.492
-4.697
-4.92
-5.161
-5.417
-5.688
-5.973
-6.267
-6.566
-6.864
-7.156
-7.445
-7.734
-8.028
-8.332
-8.646
-8.965
-9.285
-9.595
-9.881
-10.13
-10.324
-10.451
-10.5
-10.472
-10.374
-10.215
-10.002
-9.734
-9.404
-9.01
-8.558
-8.059
-7.531
-7.002
-6.509
-6.095
-5.816
-5.717
-5.832
-6.174
-6.731
-7.477
-8.377
-9.411
-10.555
-11.78
-13.047
-14.299
-15.484
-16.542
-17.406
-17.996
-18.217
-17.98
-17.21
-15.851
-13.899
-11.4
-8.428
-5.065
-1.39
2.539
6.616
10.677
14.626
18.408
22.062
25.736
29.412
32.899
36.007
38.545
40.315
41.189
40.808
38.535
34.132
27.769
19.881
11.213
2.397
-6.16
-13.744
-19.333
-22.351
-22.673
-20.652
-17.196
-13.006
-8.483
-4.232
-0.999
0.739
0.759
-0.774
-3.259
-6.304
-9.765
-13.438
-17.114
-20.686
-24.122
-27.487
-30.938
-34.407
-37.56
-40.103
-41.809
-42.404
-41.565
-39.116
-35.069
-29.801
-24.192
-19.037
-14.817
-12.059
-11.28
-12.653
-15.971
-20.341
-23.997
-25.305
-22.959
-15.312
-0.808
21.716
52.159
88.443
127.795
168.392
210.836
256.296
303.15
345.437
372.424
373.577
343.662
284.343
204.196
113.9
21.872
-68.109
-157.181
-248.534
-344.009
-439.929
-527.326
-594.369
-630.664
-633.789
-608.901
-566.186
-516.824
-466.997
-417.955
-368.465
-317.176
-264.977
-215.031
-170.753
-133.883
-104.838
-82.836
-66.309
-54.489
-46.753
-41.792
-38.449
-35.568
-31.917
-27.181
-21.609
-15.255
-8.378
-1.479
5.062
10.638
14.535
16.598
16.984
15.926
13.831
11.084
7.989
4.97
2.485
0.795
0.01
0.126
1.024
2.607
4.799
7.495
10.571
13.914
17.423
21.009
24.606
28.144
31.535
34.711
37.615
40.197
42.449
44.374
45.965
47.245
48.252
49.021
49.625
50.099
50.414
50.645
50.946
51.452
52.341
53.641
55.164
56.863
58.837
60.97
63.044
64.794
65.785
66.019
66.011
66.024
66.121
66.545
67.525
69.43
72.911
77.997
84.053
90.693
97.679
104.742
111.776
118.483
124.273
129.063
133.264
137.137
140.896
144.662
148.348
152.015
155.907
160.039
164.231
168.346
172.234
175.815
179.148
182.243
185.049
187.566
189.823
191.822
193.597
195.214
196.692
198.051
199.321
200.478
201.493
202.403
203.254
203.93
204.281
204.328
204.011
203.272
202.35
200.487
196.932
192.614
187.772
184.21
184.095
184.939
185.06
181.964
172.274
158.956
144.556
130.863
120.804
112.412
103.695
94.278
83.006
70.739
58.539
46.34
34.382
22.733
11.359
0.548
-9.472
-18.652
-26.953
-34.346
-40.83
-46.4
-51.062
-54.857
-57.852
-60.094
-61.635
-62.535
-62.872
-62.748
-62.302
-61.667
-60.952
-60.232
-59.562
-58.983
-58.527
-58.225
-58.09
-58.12
-58.307
-58.645
-59.131
-59.755
-60.494
-61.303
-62.119
-62.883
-63.557
-64.115
-64.542
-64.827
-64.964
-64.952
-64.807
-64.545
-64.181
-63.728
-63.19
-62.577
-61.907
-61.202
-60.491
-59.796
-59.131
-58.507
-57.93
-57.407
-56.94
-56.528
-56.16
-55.829
-55.53
-55.26
-55.016
-54.798
-54.598
-54.413
-54.239
-54.071
-53.909
-53.751
-53.596
-53.442
-53.29
-53.141
-52.997
-52.861
-52.733
-52.613
-52.502
-52.398
-52.304
-52.217
-52.138
-52.066
-52.001
-51.944
-51.895
-51.854
-51.821
-51.798
-51.783
-51.777
-51.78
-51.792
-51.813
-51.843
-51.881
-51.927
-51.979
-52.036
-52.097
-52.16
-52.222
-52.283
-52.341
-52.392
-52.434
-52.467
-52.489
-52.497
-52.492
-52.472
-52.436
-52.385
-52.319
-52.236
-52.138
-52.023
-51.893
-51.748
-51.588
-51.414
-51.226
-51.025
-50.812
-50.587
-50.354
-50.112
-49.863
-49.609
-49.351
-49.093
-48.835
-48.581
-48.334
-48.096
-47.87
-47.659
-47.466
-47.293
-47.142
-47.015
-46.912
-46.832
-46.776
-46.744
-46.733
-46.743
-46.774
-46.823
-46.889
-46.973
-47.072
-47.185
-47.309
-47.442
-47.579
-47.716
-47.849
-47.971
-48.078
-48.163
-48.219
-48.243
-48.228
-48.171
-48.062
-47.891
-47.651
-47.337
-46.947
-46.48
-45.939
-45.324
-44.644
-43.914
-43.147
-42.355
-41.55
-40.734
-39.904
-39.065
-38.218
-37.368
-36.512
-35.637
-34.725
-33.763
-32.736
-31.629
-30.422
-29.073
-27.552
-25.833
-23.901
-21.761
-19.428
-16.915
-14.242
-11.439
-8.548
-5.635
-2.772
-0.019
2.569
4.939
7.036
8.778
10.094
10.932
11.252
11.042
10.304
9.038
7.261
5.013
2.357
-0.614
-3.795
-7.103
-10.467
-13.821
-17.096
-20.203
-23.064
-25.616
-27.812
-29.628
-31.041
-32.03
-32.592
-32.757
-32.586
-32.184
-31.66
-31.098
-30.568
-30.117
-29.802
-29.704
-29.892
-30.431
-31.362
-32.699
-34.493
-36.836
-39.734
-43.083
-46.643
-50.025
-52.872
-54.953
-55.991
-55.623
-53.636
-50.095
-45.411
-40.349
-35.648
-31.72
-28.952
-27.941
-29.033
-31.989
-35.943
-39.387
-40.743
-38.865
-32.459
-19.718
0.87
29.194
63.437
101.312
141.091
183.858
231.609
282.256
329.377
362.129
369.01
344.694
291.418
217.272
132.14
43.793
-45.629
-137.983
-234.548
-335.966
-436.827
-526.673
-596.821
-639.124
-652.363
-642.826
-616.195
-579.125
-535.554
-484.823
-428.177
-367.663
-306.022
-248.037
-197.189
-155.33
-123.252
-100.347
-85.425
-77.113
-73.757
-73.362
-73.76
-72.949
-69.717
-63.687
-55.022
-44.273
-32.152
-19.516
-7.467
2.869
10.871
16.43
19.726
21.165
21.175
20.165
18.671
17.279
16.345
16.035
16.4
17.375
18.926
21.029
23.595
26.49
29.598
32.803
36.007
39.14
42.109
44.814
47.173
49.115
50.606
51.626
52.161
52.208
51.782
50.926
49.718
48.246
46.605
44.9
43.243
41.746
40.513
39.635
39.181
39.202
39.73
40.786
42.384
44.518
47.167
50.291
53.824
57.706
61.881
66.284
70.847
75.507
80.201
84.881
89.518
94.088
98.578
102.976
107.275
111.475
115.587
119.63
123.63
127.602
131.546
135.463
139.352
143.212
147.042
150.832
154.563
158.215
161.768
165.204
168.52
171.706
174.755
177.657
180.401
182.985
185.429
187.75
189.962
192.078
194.101
196.033
197.881
199.645
201.32
202.881
204.286
205.481
206.409
207.011
207.235
207.02
206.29
204.967
202.988
200.296
196.842
192.591
187.509
181.566
174.759
167.114
158.679
149.531
139.76
129.452
118.703
107.616
96.305
84.897
73.51
62.258
51.265
40.639
30.488
20.922
12.019
3.828
-3.617
-10.316
-16.281
-21.527
-26.082
-29.983
-33.272
-36.009
-38.255
-40.078
-41.562
-42.785
-43.822
-44.754
-45.641
-46.524
-47.44
-48.404
-49.419
-50.491
-51.614
-52.779
-53.981
-55.201
-56.416
-57.602
-58.717
-59.728
-60.609
-61.331
-61.877
-62.238
-62.406
-62.387
-62.193
-61.835
-61.328
-60.688
-59.927
-59.062
-58.113
-57.099
-56.048
-54.982
-53.915
-52.863
-51.838
-50.847
-49.897
-48.992
-48.127
-47.303
-46.517
-45.767
-45.055
-44.379
-43.735
-43.121
-42.533
-41.968
-41.424
-40.9
-40.395
-39.906
-39.434
-38.978
-38.539
-38.117
-37.712
-37.321
-36.945
-36.581
-36.23
-35.888
-35.555
-35.23
-34.912
-34.601
-34.296
-33.998
-33.707
-33.424
-33.148
-32.881
-32.623
-32.376
-32.14
-31.916
-31.705
-31.507
-31.324
-31.156
-31.004
-30.868
-30.747
-30.641
-30.552
-30.477
-30.417
-30.37
-30.337
-30.316
-30.307
-30.308
-30.32
-30.34
-30.368
-30.403
-30.443
-30.487
-30.533
-30.58
-30.627
-30.671
-30.711
-30.746
-30.773
-30.791
-30.799
-30.796
-30.78
-30.75
-30.706
-30.646
-30.569
-30.476
-30.367
-30.241
-30.098
-29.94
-29.766
-29.578
-29.377
-29.164
-28.94
-28.706
-28.463
-28.213
-27.957
-27.697
-27.433
-27.168
-26.901
-26.634
-26.368
-26.104
-25.841
-25.581
-25.323
-25.067
-24.812
-24.557
-24.303
-24.046
-23.787
-23.522
-23.251
-22.969
-22.675
-22.364
-22.034
-21.68
-21.298
-20.886
-20.437
-19.947
-19.413
-18.83
-18.194
-17.5
-16.743
-15.92
-15.027
-14.059
-13.014
-11.889
-10.68
-9.387
-8.008
-6.541
-4.987
-3.345
-1.617
0.197
2.094
4.071
6.124
8.25
10.442
12.693
14.997
17.345
19.727
22.135
24.558
26.985
29.407
31.811
34.187
36.526
38.815
41.044
43.2
45.274
47.254
49.132
50.896
52.537
54.045
55.413
56.637
57.713
58.638
59.408
60.016
60.461
60.744
60.87
60.842
60.667
60.351
59.91
59.37
58.755
58.094
57.408
56.713
56.029
55.379
54.785
54.274
53.861
53.554
53.358
53.278
53.315
53.46
53.682
53.921
54.105
54.169
54.049
53.694
53.062
52.095
50.728
48.899
46.556
43.665
40.224
36.204
31.542
26.27
20.535
14.608
8.923
3.889
-0.195
-2.97
-4.012
-3.121
-0.33
4.004
9.024
13.923
18.117
20.905
21.673
20.265
16.959
12.731
9.422
8.765
12.525
22.918
41.622
69.759
107.035
150.865
199.047
249.966
302.297
355.814
405.779
443.591
461.023
449.117
406.28
338.506
252.677
158.732
61.858
-38.53
-142.002
-249.426
-355.801
-450.372
-524.39
-569.564
-585.268
-578.431
-555.006
-521.761
-482.281
-435.733
-383.289
-326.771
-268.348
-212.013
-160.878
-116.734
-80.747
-52.868
-32.213
-17.73
-8.54
-3.439
-0.788
1.04
3.679
8.078
14.255
21.939
30.834
40.432
50.073
58.969
66.164
71.176
74.075
75.073
74.541
72.881
70.435
67.661
65.089
63.027
61.587
60.79
60.537
60.755
61.411
62.411
63.653
65.057
66.557
68.132
69.764
71.407
73.012
74.529
75.915
77.157
78.261
79.237
80.117
80.932
81.713
82.502
83.319
84.179
85.086
86.023
86.986
87.984
89.024
90.124
91.301
92.557
93.892
95.3
96.764
98.271
99.814
101.382
102.982
104.628
106.347
108.183
110.173
112.342
114.709
117.277
120.041
123.004
126.156
129.483
132.978
136.617
140.38
144.252
148.207
152.22
156.255
160.264
164.2
168.027
171.717
175.256
178.642
181.87
184.951
187.906
190.76
193.552
196.312
199.053
201.785
204.514
207.246
210
212.785
215.593
218.404
221.175
223.851
226.373
228.661
230.616
232.135
233.099
233.402
232.968
231.723
229.6
226.535
222.454
217.293
211.03
203.662
195.218
185.753
175.332
164.052
152.042
139.441
126.404
113.084
99.61
86.115
72.742
59.641
46.977
34.912
23.561
13.015
3.342
-5.42
-13.246
-20.138
-26.135
-31.29
-35.665
-39.326
-42.327
-44.733
-46.63
-48.117
-49.314
-50.341
-51.282
-52.209
-53.178
-54.226
-55.388
-56.679
-58.087
-59.595
-61.184
-62.836
-64.54
-66.278
-68.016
-69.708
-71.301
-72.743
-74.004
-75.059
-75.893
-76.498
-76.87
-77.014
-76.95
-76.7
-76.283
-75.715
-75.008
-74.18
-73.253
-72.253
-71.211
-70.151
-69.09
-68.041
-67.017
-66.027
-65.075
-64.164
-63.289
-62.447
-61.636
-60.854
-60.104
-59.382
-58.686
-58.014
-57.36
-56.724
-56.103
-55.495
-54.9
-54.316
-53.743
-53.181
-52.631
-52.095
-51.573
-51.063
-50.566
-50.08
-49.605
-49.141
-48.687
-48.242
-47.805
-47.378
-46.961
-46.554
-46.157
-45.771
-45.397
-45.035
-44.686
-44.351
-44.03
-43.726
-43.437
-43.166
-42.912
-42.676
-42.458
-42.258
-42.077
-41.913
-41.767
-41.638
-41.526
-41.429
-41.346
-41.277
-41.221
-41.176
-41.141
-41.115
-41.098
-41.087
-41.082
-41.08
-41.081
-41.083
-41.085
-41.084
-41.081
-41.073
-41.059
-41.038
-41.009
-40.971
-40.923
-40.864
-40.793
-40.71
-40.615
-40.507
-40.386
-40.252
-40.106
-39.949
-39.782
-39.606
-39.422
-39.233
-39.038
-38.841
-38.643
-38.445
-38.249
-38.058
-37.872
-37.695
-37.529
-37.375
-37.235
-37.112
-37.007
-36.921
-36.857
-36.815
-36.796
-36.802
-36.833
-36.892
-36.978
-37.092
-37.235
-37.407
-37.608
-37.837
-38.093
-38.375
-38.681
-39.009
-39.354
-39.715
-40.088
-40.47
-40.858
-41.249
-41.642
-42.031
-42.414
-42.788
-43.146
-43.484
-43.794
-44.071
-44.307
-44.496
-44.633
-44.715
-44.736
-44.694
-44.587
-44.411
-44.161
-43.831
-43.412
-42.896
-42.282
-41.571
-40.768
-39.885
-38.931
-37.92
-36.866
-35.777
-34.658
-33.505
-32.31
-31.067
-29.776
-28.443
-27.086
-25.718
-24.346
-22.973
-21.599
-20.211
-18.796
-17.336
-15.8
-14.175
-12.472
-10.716
-8.946
-7.198
-5.49
-3.826
-2.222
-0.707
0.687
1.943
3.049
4.002
4.758
5.202
5.298
5.117
4.748
4.34
3.926
3.338
2.541
1.656
0.61
-0.783
-2.747
-5.679
-9.558
-13.835
-18.195
-22.518
-26.489
-29.816
-32.105
-32.691
-31.548
-29.358
-26.56
-23.46
-20.419
-17.62
-15.409
-14.429
-14.81
-16.172
-18.31
-21.062
-24.317
-28.188
-32.646
-37.412
-42.371
-47.495
-52.566
-57.347
-61.6
-64.956
-67.087
-67.841
-67.179
-65.328
-62.847
-60.38
-58.386
-57.132
-57.054
-58.577
-61.768
-66.238
-70.194
-70.675
-65.674
-54.585
-39.255
-23.123
-7.83
7.897
30.311
66.407
120.12
191.18
268.816
338.894
387.659
401.239
376.809
318.083
232.221
132.754
28.919
-75.586
-179.269
-284.782
-393.373
-499.094
-592.586
-664.298
-705.562
-716.084
-702.285
-670.424
-628.056
-579.41
-524.355
-464.738
-402.694
-340.704
-283.215
-233.091
-191.528
-159.257
-135.674
-119.423
-109.295
-103.954
-101.584
-100.516
-99.232
-96.238
-90.915
-83.379
-73.887
-62.932
-51.27
-39.613
-28.799
-19.752
-12.815
-7.91
-4.838
-3.201
-2.605
-2.743
-3.197
-3.524
-3.514
-3.119
-2.394
-1.479
-0.455
0.657
1.808
2.927
3.942
4.797
5.462
5.934
6.209
6.279
6.14
5.818
5.38
4.91
4.514
4.276
4.252
4.485
5
5.826
7.002
8.556
10.498
12.835
15.561
18.663
22.127
25.905
29.917
34.082
38.311
42.534
46.713
50.815
54.821
58.718
62.493
66.147
69.693
73.147
76.523
79.841
83.118
86.389
89.707
93.114
96.644
100.315
104.119
108.046
112.083
116.214
120.417
124.665
128.92
133.145
137.309
141.39
145.374
149.243
152.975
156.564
160.014
163.357
166.646
169.924
173.223
176.569
179.981
183.485
187.116
190.894
194.819
198.862
202.977
207.114
211.215
215.204
218.98
222.4
225.304
227.557
229.041
229.655
229.301
227.87
225.25
221.367
216.191
209.73
202.023
193.116
183.075
172
160.035
147.372
134.218
120.758
107.164
93.608
80.272
67.365
55.087
43.595
33
23.375
14.773
7.24
0.797
-4.575
-8.938
-12.393
-15.043
-16.977
-18.287
-19.078
-19.478
-19.639
-19.707
-19.783
-19.945
-20.25
-20.744
-21.474
-22.465
-23.712
-25.19
-26.858
-28.681
-30.633
-32.683
-34.784
-36.876
-38.884
-40.749
-42.433
-43.912
-45.168
-46.19
-46.965
-47.498
-47.806
-47.913
-47.842
-47.612
-47.236
-46.735
-46.134
-45.463
-44.758
-44.041
-43.331
-42.639
-41.977
-41.353
-40.773
-40.237
-39.74
-39.275
-38.842
-38.437
-38.061
-37.711
-37.381
-37.065
-36.76
-36.459
-36.162
-35.863
-35.561
-35.251
-34.933
-34.606
-34.268
-33.918
-33.555
-33.176
-32.779
-32.361
-31.921
-31.457
-30.967
-30.449
-29.905
-29.333
-28.735
-28.11
-27.46
-26.785
-26.089
-25.373
-24.64
-23.891
-23.131
-22.363
-21.59
-20.816
-20.044
-19.278
-18.52
-17.774
-17.043
-16.33
-15.638
-14.97
-14.328
-13.716
-13.136
-12.591
-12.082
-11.612
-11.181
-10.792
-10.445
-10.141
-9.879
-9.661
-9.484
-9.349
-9.254
-9.198
-9.178
-9.192
-9.238
-9.313
-9.415
-9.541
-9.688
-9.854
-10.036
-10.233
-10.441
-10.661
-10.889
-11.124
-11.365
-11.61
-11.858
-12.107
-12.358
-12.607
-12.856
-13.103
-13.347
-13.588
-13.827
-14.062
-14.294
-14.524
-14.752
-14.98
-15.208
-15.439
-15.673
-15.914
-16.163
-16.421
-16.691
-16.975
-17.273
-17.586
-17.916
-18.263
-18.626
-19.005
-19.4
-19.811
-20.237
-20.677
-21.131
-21.598
-22.078
-22.57
-23.074
-23.589
-24.116
-24.653
-25.202
-25.761
-26.329
-26.907
-27.492
-28.082
-28.675
-29.269
-29.859
-30.442
-31.016
-31.576
-32.121
-32.646
-33.151
-33.634
-34.094
-34.53
-34.942
-35.327
-35.685
-36.013
-36.309
-36.57
-36.793
-36.974
-37.11
-37.198
-37.234
-37.215
-37.134
-36.984
-36.759
-36.457
-36.079
-35.627
-35.106
-34.524
-33.893
-33.23
-32.552
-31.874
-31.207
-30.557
-29.93
-29.33
-28.76
-28.228
-27.732
-27.262
-26.802
-26.329
-25.823
-25.258
-24.6
-23.804
-22.831
-21.654
-20.254
-18.631
-16.789
-14.735
-12.483
-10.049
-7.462
-4.766
-2.009
0.759
3.482
6.109
8.572
10.789
12.694
14.238
15.388
16.135
16.474
16.401
15.927
15.07
13.859
12.33
10.517
8.451
6.165
3.697
1.091
-1.594
-4.321
-7.078
-9.857
-12.676
-15.545
-18.455
-21.419
-24.459
-27.596
-30.856
-34.249
-37.741
-41.314
-44.997
-48.766
-52.542
-56.154
-59.264
-61.511
-62.646
-62.431
-60.551
-56.844
-51.357
-44.386
-36.742
-29.401
-22.994
-18.013
-15.162
-14.923
-17.175
-21.409
-25.485
-26.082
-21.814
-11.967
3.235
21.207
42.271
68.638
102.088
146.653
203.202
267.468
332.437
385.9
414.292
408.816
366.555
293.122
201.214
102.022
1.797
-99.85
-208.252
-323.92
-439.485
-540.901
-612.651
-647.333
-647.872
-625.136
-590.937
-552.12
-510.356
-463.424
-410.542
-353.981
-297.07
-243.873
-196.937
-156.868
-123.792
-97.515
-77.333
-62.358
-51.795
-44.637
-39.876
-36.748
-34.299
-31.494
-27.938
-23.636
-18.621
-13.206
-7.728
-2.403
2.278
5.717
7.747
8.446
8.019
6.866
5.327
3.671
2.291
1.594
1.786
2.939
5.007
7.839
11.319
15.348
19.789
24.492
29.32
34.162
38.929
43.549
47.945
52.028
55.717
58.958
61.73
64.03
65.881
67.315
68.37
69.094
69.545
69.776
69.844
69.799
69.689
69.562
69.467
69.452
69.566
69.847
70.319
71
71.902
73.032
74.395
75.995
77.828
79.894
82.195
84.73
87.503
90.513
93.756
97.222
100.902
104.786
108.867
113.14
117.595
122.217
126.99
131.898
136.923
142.042
147.226
152.433
157.625
162.767
167.833
172.805
177.66
182.378
186.937
191.317
195.513
199.52
203.331
206.938
210.333
213.515
216.499
219.315
221.988
224.526
226.925
229.172
231.256
233.168
234.888
236.388
237.617
238.523
239.066
239.208
238.913
238.132
236.804
234.862
232.252
228.945
224.926
220.195
214.745
208.577
201.708
194.177
186.054
177.41
168.316
158.847
149.085
139.135
129.105
119.103
109.216
99.515
90.061
80.911
72.129
63.773
55.889
48.509
41.64
35.284
29.437
24.079
19.176
14.672
10.512
6.651
3.06
-0.28
-3.389
-6.285
-8.995
-11.538
-13.939
-16.222
-18.401
-20.489
-22.491
-24.398
-26.188
-27.829
-29.292
-30.561
-31.628
-32.494
-33.163
-33.639
-33.93
-34.046
-33.994
-33.775
-33.391
-32.845
-32.147
-31.314
-30.368
-29.339
-28.253
-27.132
-25.995
-24.856
-23.728
-22.619
-21.534
-20.476
-19.451
-18.463
-17.522
-16.634
-15.806
-15.038
-14.332
-13.687
-13.102
-12.574
-12.101
-11.68
-11.309
-10.988
-10.717
-10.496
-10.324
-10.201
-10.126
-10.095
-10.107
-10.158
-10.245
-10.364
-10.512
-10.686
-10.883
-11.099
-11.333
-11.58
-11.839
-12.106
-12.379
-12.655
-12.93
-13.204
-13.473
-13.735
-13.988
-14.232
-14.464
-14.683
-14.889
-15.081
-15.258
-15.419
-15.565
-15.694
-15.808
-15.904
-15.985
-16.049
-16.099
-16.135
-16.158
-16.17
-16.174
-16.172
-16.166
-16.159
-16.153
-16.151
-16.157
-16.174
-16.203
-16.249
-16.315
-16.404
-16.519
-16.663
-16.839
-17.049
-17.296
-17.582
-17.91
-18.28
-18.694
-19.155
-19.662
-20.217
-20.822
-21.475
-22.177
-22.928
-23.726
-24.57
-25.458
-26.388
-27.356
-28.358
-29.391
-30.451
-31.531
-32.628
-33.736
-34.849
-35.961
-37.066
-38.158
-39.23
-40.275
-41.289
-42.263
-43.194
-44.074
-44.9
-45.665
-46.365
-46.995
-47.552
-48.03
-48.427
-48.74
-48.965
-49.101
-49.146
-49.101
-48.965
-48.741
-48.429
-48.035
-47.56
-47.01
-46.39
-45.706
-44.965
-44.174
-43.341
-42.476
-41.588
-40.689
-39.789
-38.899
-38.031
-37.196
-36.405
-35.669
-34.998
-34.398
-33.879
-33.448
-33.113
-32.885
-32.77
-32.774
-32.902
-33.157
-33.541
-34.055
-34.697
-35.458
-36.334
-37.319
-38.41
-39.609
-40.915
-42.32
-43.817
-45.395
-47.038
-48.736
-50.469
-52.209
-53.934
-55.621
-57.254
-58.824
-60.318
-61.718
-62.999
-64.128
-65.079
-65.834
-66.382
-66.725
-66.871
-66.833
-66.636
-66.317
-65.921
-65.506
-65.122
-64.825
-64.671
-64.702
-65.003
-65.705
-66.869
-68.496
-70.478
-72.565
-74.549
-76.299
-77.598
-78.199
-77.96
-76.815
-75.076
-73.42
-72.367
-72.309
-73.537
-76.15
-80.229
-85.736
-91.927
-97.508
-101.231
-101.768
-98.111
-89.649
-75.546
-54.941
-27.641
5.746
44.22
85.4
126.066
164.641
199.39
229.334
255.782
275.255
281.09
267.354
226.212
157.937
71.934
-23.263
-118.628
-211.284
-305.89
-402.86
-497.337
-578.987
-635.281
-660.519
-657.844
-637.212
-608.654
-577.669
-545.323
-509.019
-467.22
-420.953
-372.069
-322.966
-275.362
-230.128
-187.903
-149.372
-115.412
-86.6
-63.237
-45.666
-33.898
-27.507
-25.958
-28.087
-32.133
-36.743
-41.046
-44.338
-46.219
-46.379
-44.428
-40.626
-35.997
-31.507
-27.694
-24.769
-22.673
-21.44
-21.339
-22.321
-23.815
-25.107
-25.709
-25.437
-24.341
-22.463
-19.678
-15.941
-11.444
-6.529
-1.514
3.406
8.15
12.681
16.897
20.697
24.043
26.953
29.487
31.697
33.609
35.239
36.618
37.791
38.812
39.735
40.608
41.477
42.388
43.389
44.527
45.84
47.357
49.098
51.073
53.291
55.756
58.47
61.43
64.635
68.081
71.76
75.664
79.785
84.114
88.644
93.367
98.273
103.347
108.576
113.945
119.435
125.024
130.684
136.377
142.072
147.743
153.365
158.924
164.399
169.772
175.024
180.14
185.105
189.911
194.545
198.991
203.242
207.299
211.176
214.9
218.485
221.927
225.218
228.34
231.273
234
236.489
238.7
240.593
242.131
243.278
244.011
244.286
244.052
243.252
241.82
239.711
236.906
233.392
229.165
224.231
218.599
212.298
205.381
197.895
189.891
181.43
172.57
163.394
154.007
144.508
134.994
125.549
116.237
107.122
98.262
89.71
81.515
73.713
66.328
59.384
52.9
46.881
41.319
36.183
31.42
26.985
22.846
18.973
15.351
11.961
8.784
5.806
3.013
0.39
-2.081
-4.418
-6.639
-8.748
-10.737
-12.584
-14.257
-15.728
-16.985
-18.015
-18.818
-19.394
-19.745
-19.881
-19.814
-19.551
-19.092
-18.44
-17.597
-16.572
-15.383
-14.053
-12.61
-11.08
-9.486
-7.847
-6.181
-4.5
-2.815
-1.133
0.543
2.208
3.851
5.467
7.046
8.582
10.073
11.518
12.915
14.267
15.576
16.843
18.071
19.261
20.413
21.528
22.606
23.646
24.649
25.617
26.552
27.457
28.332
29.183
30.01
30.817
31.606
32.379
33.138
33.886
34.623
35.352
36.074
36.791
37.503
38.213
38.919
39.623
40.325
41.024
41.719
42.411
43.098
43.779
44.452
45.117
45.771
46.413
47.041
47.653
48.247
48.821
49.375
49.905
50.41
50.888
51.336
51.754
52.138
52.486
52.797
53.069
53.3
53.488
53.632
53.732
53.785
53.793
53.753
53.667
53.534
53.354
53.128
52.858
52.544
52.188
51.792
51.358
50.889
50.387
49.856
49.299
48.719
48.12
47.506
46.881
46.249
45.615
44.984
44.36
43.75
43.159
42.593
42.057
41.557
41.099
40.687
40.326
40.023
39.781
39.605
39.499
39.467
39.512
39.638
39.846
40.14
40.519
40.984
41.536
42.173
42.895
43.699
44.582
45.543
46.576
47.677
48.842
50.064
51.336
52.652
54.003
55.378
56.767
58.16
59.545
60.912
62.248
63.544
64.788
65.973
67.089
68.128
69.08
69.935
70.684
71.321
71.84
72.236
72.506
72.646
72.658
72.545
72.312
71.961
71.491
70.897
70.176
69.333
68.372
67.301
66.132
64.875
63.547
62.175
60.781
59.387
58.009
56.655
55.34
54.081
52.906
51.847
50.93
50.171
49.58
49.151
48.874
48.733
48.693
48.713
48.741
48.715
48.579
48.279
47.753
46.954
45.798
44.159
41.984
39.282
36.164
32.884
29.659
26.648
24.077
22.204
21.196
21.121
21.69
22.278
22.375
21.564
19.584
16.331
11.677
5.67
-0.966
-7.021
-11.206
-12.078
-8.704
-0.536
13.564
34.588
62.53
97.015
136.069
175.881
214.964
252.651
288.274
323.54
354.856
374.147
374.516
347.651
292.488
216.677
127.992
35.516
-55.403
-145.117
-232.638
-315.894
-391.226
-453.293
-499.063
-527.511
-539.138
-535.739
-518.705
-489.902
-452.036
-407.717
-359.688
-310.563
-261.876
-214.806
-170.939
-131.303
-96.501
-67.11
-42.804
-22.723
-6.583
5.908
15.506
22.757
28.365
33.327
37.69
40.838
42.648
43.144
42.395
40.884
38.752
35.742
32.353
29.638
28.253
28.621
30.716
33.889
37.815
42.531
47.667
52.58
56.834
60.116
62.539
64.714
66.973
69.364
72.003
74.991
78.375
82.2
86.291
90.243
93.809
96.888
99.43
101.486
103.088
104.234
104.981
105.438
105.685
105.788
105.787
105.692
105.534
105.363
105.235
105.213
105.341
105.649
106.161
106.891
107.851
109.05
110.492
112.173
114.095
116.259
118.669
121.331
124.244
127.403
130.8
134.422
138.255
142.29
146.512
150.91
155.47
160.176
165.011
169.96
175.004
180.12
185.286
190.475
195.662
200.82
205.924
210.946
215.86
220.639
225.256
229.688
233.908
237.891
241.614
245.054
248.189
250.999
253.466
255.571
257.3
258.638
259.574
260.096
260.198
259.872
259.114
257.92
256.291
254.228
251.733
248.813
245.474
241.726
237.581
233.051
228.151
222.899
217.312
211.409
205.213
198.744
192.026
185.083
177.939
170.622
163.156
155.569
147.887
140.137
132.346
124.539
116.744
108.986
101.29
93.679
86.179
78.81
71.596
64.555
57.708
51.072
44.663
38.496
32.584
26.939
21.569
16.484
11.689
7.189
2.988
-0.914
-4.515
-7.819
-10.827
-13.546
-15.981
-18.139
-20.03
-21.664
-23.051
-24.204
-25.133
-25.854
-26.379
-26.722
-26.9
-26.925
-26.815
-26.582
-26.243
-25.813
-25.305
-24.732
-24.11
-23.449
-22.762
-22.06
-21.353
-20.651
-19.963
-19.297
-18.66
-18.058
-17.497
-16.982
-16.516
-16.102
-15.742
-15.438
-15.191
-15.001
-14.867
-14.789
-14.765
-14.793
-14.871
-14.994
-15.16
-15.366
-15.607
-15.88
-16.181
-16.507
-16.857
-17.226
-17.613
-18.016
-18.433
-18.865
-19.309
-19.767
-20.239
-20.725
-21.226
-21.745
-22.284
-22.845
-23.43
-24.042
-24.683
-25.357
-26.064
-26.807
-27.589
-28.41
-29.275
-30.185
-31.144
-32.156
-33.225
-34.355
-35.551
-36.814
-38.148
-39.553
-41.03
-42.575
-44.188
-45.867
-47.608
-49.409
-51.267
-53.18
-55.147
-57.164
-59.227
-61.328
-63.457
-65.607
-67.772
-69.949
-72.139
-74.345
-76.575
-78.838
-81.144
-83.498
-85.903
-88.351
-90.827
-93.318
-95.806
-98.281
-100.74
-103.18
-105.594
-107.974
-110.307
-112.572
-114.742
-116.787
-118.668
-120.36
-121.851
-123.146
-124.268
-125.25
-126.136
-126.958
-127.737
-128.493
-129.245
-130.009
-130.807
-131.666
-132.621
-133.716
-135.004
-136.526
-138.307
-140.346
-142.622
-145.093
-147.706
-150.414
-153.181
-155.974
-158.771
-161.549
-164.288
-166.965
-169.553
-172.016
-174.305
-176.38
-178.211
-179.786
-181.114
-182.217
-183.13
-183.885
-184.511
-185.028
-185.451
-185.791
-186.056
-186.253
-186.388
-186.474
-186.534
-186.591
-186.666
-186.772
-186.915
-187.093
-187.301
-187.534
-187.787
-188.059
-188.353
-188.673
-189.028
-189.43
-189.892
-190.426
-191.04
-191.739
-192.529
-193.416
-194.404
-195.499
-196.701
-198.012
-199.435
-200.973
-202.632
-204.412
-206.313
-208.333
-210.464
-212.696
-215.016
-217.403
-219.829
-222.271
-224.706
-227.116
-229.486
-231.8
-234.041
-236.191
-238.227
-240.134
-241.892
-243.485
-244.905
-246.162
-247.287
-248.33
-249.356
-250.42
-251.57
-252.86
-254.351
-256.115
-258.219
-260.724
-263.669
-267.108
-271.146
-275.825
-281.091
-286.77
-292.525
-298.001
-302.936
-307.041
-309.93
-311.389
-311.409
-310.263
-308.721
-307.555
-307.259
-308.343
-311.289
-316.258
-323.06
-330.923
-338.103
-342.749
-343.397
-338.33
-325.964
-305.073
-274.638
-235.622
-191.374
-145.101
-100.063
-57.316
-14.817
25.978
60.792
80.845
72.357
28.278
-51.252
-158.234
-276.523
-394.108
-504.201
-604.189
-695.896
-778.204
-847.517
-900.475
-933.746
-946.943
-941.871
-920.452
-885.583
-840.534
-788.464
-732.993
-677.298
-623.551
-573.81
-529.835
-492.721
-463.233
-441.344
-426.082
-416.423
-411.44
-409.827
-410.318
-411.633
-412.321
-411.674
-409.667
-406.388
-402.107
-397.29
-392.342
-387.85
-384.59
-382.843
-382.516
-383.39
-385.054
-387.108
-389.233
-391.024
-392.034
-392.044
-391.011
-388.985
-386.131
-382.59
-378.465
-373.916
-369.13
-364.262
-359.45
-354.811
-350.438
-346.45
-342.992
-340.169
-338.054
-336.676
-336.017
-336.047
-336.73
-338.002
-339.787
-341.984
-344.473
-347.15
-349.927
-352.712
-355.413
-357.921
-360.102
-361.851
-363.094
-363.777
-363.885
-363.402
-362.319
-360.652
-358.441
-355.74
-352.629
-349.166
-345.384
-341.327
-337.035
-332.562
-327.989
-323.374
-318.757
-314.168
-309.622
-305.137
-300.737
-296.426
-292.189
-288.006
-283.844
-279.691
-275.563
-271.472
-267.432
-263.455
-259.531
-255.663
-251.867
-248.159
-244.556
-241.071
-237.695
-234.431
-231.294
-228.3
-225.473
-222.823
-220.328
-217.967
-215.724
-213.584
-211.55
-209.628
-207.809
-206.087
-204.472
-202.989
-201.692
-200.652
-199.911
-199.509
-199.48
-199.855
-200.703
-202.096
-204.085
-206.715
-210.019
-214.023
-218.775
-224.331
-230.702
-237.867
-245.765
-254.294
-263.381
-272.967
-282.98
-293.353
-303.985
-314.764
-325.604
-336.429
-347.142
-357.637
-367.77
-377.36
-386.287
-394.465
-401.841
-408.412
-414.157
-419.041
-423.059
-426.213
-428.516
-429.997
-430.656
-430.481
-429.511
-427.818
-425.518
-422.782
-419.743
-416.505
-413.178
-409.825
-406.511
-403.308
-400.251
-397.361
-394.672
-392.212
-390.035
-388.214
-386.772
-385.698
-384.954
-384.452
-384.118
-383.884
-383.662
-383.387
-383.011
-382.49
-381.81
-380.976
-379.968
-378.77
-377.352
-375.664
-373.682
-371.404
-368.828
-365.987
-362.913
-359.642
-356.236
-352.744
-349.199
-345.626
-342.033
-338.417
-334.785
-331.146
-327.506
-323.884
-320.294
-316.743
-313.245
-309.801
-306.406
-303.052
-299.717
-296.383
-293.039
-289.678
-286.298
-282.903
-279.493
-276.071
-272.643
-269.212
-265.779
-262.345
-258.906
-255.463
-252.016
-248.568
-245.124
-241.688
-238.263
-234.852
-231.455
-228.073
-224.706
-221.351
-218.003
-214.659
-211.314
-207.964
-204.607
-201.238
-197.854
-194.449
-191.022
-187.569
-184.088
-180.577
-177.032
-173.45
-169.827
-166.157
-162.438
-158.668
-154.841
-150.956
-147.01
-143.001
-138.929
-134.797
-130.603
-126.347
-122.023
-117.627
-113.158
-108.62
-104.018
-99.359
-94.647
-89.888
-85.087
-80.254
-75.394
-70.512
-65.604
-60.666
-55.695
-50.695
-45.676
-40.654
-35.632
-30.602
-25.539
-20.415
-15.219
-9.958
-4.652
0.691
6.076
11.525
17.022
22.497
27.932
33.403
39.087
45.181
51.734
58.592
65.552
72.555
79.518
86.22
92.209
96.935
100.179
102.246
103.703
104.925
106.177
107.801
110.38
114.698
121.154
129.451
138.852
148.782
158.894
168.914
178.45
186.887
193.845
199.493
204.389
209.017
213.642
218.386
223.349
228.786
234.903
241.667
248.853
256.243
263.723
271.279
278.951
286.717
294.523
302.351
310.221
318.168
326.203
334.306
342.438
350.561
358.665
366.76
374.863
382.995
391.18
399.442
407.812
416.336
425.042
433.952
443.079
452.423
461.985
471.764
481.741
491.901
502.216
512.633
523.094
533.534
543.86
553.992
563.853
573.349
582.419
591.018
599.112
606.692
613.762
620.331
626.427
632.089
637.359
642.311
647.03
651.613
656.19
660.879
665.784
671.02
676.676
682.816
689.497
696.742
704.548
712.919
721.84
731.286
741.227
751.592
762.294
773.233
784.285
795.354
806.341
817.128
827.606
837.674
847.245
856.288
864.764
872.58
879.712
886.212
892.258
898.235
904.518
911.392
919.211
928.354
939.056
951.397
965.035
979.125
992.836
1005.539
1016.675
1025.81
1032.77
1037.712
1041.586
1046.258
1053.711
1065.59
1083.429
1108.648
1142.074
1184.152
1233.724
1287.29
1342.139
1396.532
1449.468
1501.494
1549.965
1588.319
1609.111
1605.468
1574.027
1516.261
1437.997
1345.934
1247.217
1151.831
1065.936
975.265
868.706
780.78
690.864
675.81
