-45.201
-46.34
-47.325
-48.157
-48.838
-49.37
-49.754
-49.992
-50.088
-50.042
-49.859
-49.54
-49.09
-48.512
-47.81
-46.988
-46.052
-45.006
-43.856
-42.609
-41.27
-39.847
-38.347
-36.779
-35.151
-33.473
-31.753
-30.004
-28.234
-26.456
-24.682
-22.924
-21.193
-19.505
-17.87
-16.303
-14.817
-13.426
-12.142
-10.98
-9.953
-9.073
-8.352
-7.804
-7.437
-7.264
-7.294
-7.536
-7.997
-8.684
-9.602
-10.757
-12.151
-13.786
-15.664
-17.783
-20.143
-22.738
-25.566
-28.62
-31.893
-35.377
-39.062
-42.938
-46.993
-51.214
-55.588
-60.1
-64.736
-69.479
-74.312
-79.22
-84.184
-89.187
-94.211
-99.239
-104.254
-109.237
-114.172
-119.044
-123.835
-128.531
-133.118
-137.583
-141.912
-146.094
-150.119
-153.976
-157.659
-161.158
-164.468
-167.584
-170.502
-173.219
-175.733
-178.043
-180.149
-182.052
-183.754
-185.259
-186.569
-187.689
-188.625
-189.382
-189.967
-190.386
-190.649
-190.762
-190.734
-190.572
-190.287
-189.885
-189.377
-188.77
-188.074
-187.295
-186.443
-185.525
-184.549
-183.521
-182.449
-181.339
-180.198
-179.031
-177.843
-176.64
-175.426
-174.206
-172.984
-171.764
-170.55
-169.344
-168.149
-166.968
-165.804
-164.658
-163.532
-162.428
-161.346
-160.288
-159.255
-158.246
-157.264
-156.307
-155.376
-154.471
-153.593
-152.741
-151.915
-151.115
-150.342
-149.594
-148.872
-148.176
-147.505
-146.859
-146.237
-145.64
-145.066
-144.516
-143.988
-143.482
-142.997
-142.532
-142.087
-141.659
-141.249
-140.855
-140.476
-140.111
-139.759
-139.419
-139.09
-138.771
-138.462
-138.161
-137.868
-137.581
-137.301
-137.026
-136.755
-136.488
-136.224
-135.962
-135.702
-135.442
-135.182
-134.922
-134.659
-134.394
-134.125
-133.851
-133.571
-133.282
-132.985
-132.677
-132.356
-132.022
-131.671
-131.304
-130.916
-130.508
-130.075
-129.615
-129.126
-128.605
-128.048
-127.452
-126.814
-126.13
-125.398
-124.612
-123.769
-122.866
-121.898
-120.862
-119.754
-118.569
-117.304
-115.957
-114.523
-113.002
-111.39
-109.687
-107.893
-106.007
-104.032
-101.967
-99.815
-97.578
-95.257
-92.856
-90.378
-87.825
-85.201
-82.513
-79.764
-76.961
-74.111
-71.22
-68.295
-65.345
-62.374
-59.393
-56.406
-53.42
-50.445
-47.488
-44.559
-41.668
-38.821
-36.02
-33.272
-30.578
-27.934
-25.339
-22.78
-20.244
-17.721
-15.202
-12.675
-10.134
-7.559
-4.936
-2.255
0.497
3.322
6.22
9.197
12.25
15.367
18.529
21.693
24.809
27.837
30.733
33.449
35.934
38.107
39.902
41.268
42.175
42.635
42.633
42.12
41.057
39.396
37.151
34.447
31.383
27.989
24.405
20.802
17.543
15.269
14.373
14.959
17.09
20.683
25.653
32.081
39.506
46.832
53.368
58.721
62.872
66.496
70.008
73.356
77.283
83.342
92.933
107.506
127.73
152.932
182.651
216.788
254.221
292.693
329.145
359.625
380.499
389.249
383.179
359.133
316.053
255.486
180.11
94.214
-0.907
-108.028
-225.394
-346.858
-459.449
-543.106
-586.339
-587.205
-552.732
-499.996
-441.351
-382.664
-325.711
-267.266
-206.894
-147.9
-94.737
-51.929
-20.957
-0.883
10.095
14.574
14.482
11.745
9.166
8.476
10.361
15.123
22.198
30.696
40.064
49.316
56.956
62.204
64.783
64.681
62.438
58.599
53.537
47.876
42.378
37.536
33.683
30.972
29.311
28.646
28.951
30.12
32.029
34.554
37.564
40.96
44.664
48.586
52.619
56.645
60.548
64.228
67.599
70.609
73.236
75.465
77.307
78.786
79.927
80.773
81.378
81.789
82.055
82.224
82.341
82.453
82.611
82.861
83.244
83.788
84.509
85.42
86.531
87.842
89.356
91.066
92.965
95.047
97.306
99.738
102.337
105.096
108.007
111.058
114.239
117.541
120.954
124.466
128.066
131.741
135.479
139.266
143.09
146.934
150.782
154.615
158.416
162.166
165.846
169.437
172.921
176.279
179.493
182.545
185.42
188.102
190.574
192.823
194.834
196.595
198.095
199.322
200.267
200.922
201.28
201.335
201.082
200.518
199.642
198.453
196.953
195.144
193.031
190.618
187.913
184.924
181.661
178.133
174.354
170.337
166.094
161.642
156.996
152.172
147.187
142.06
136.808
131.448
126.001
120.483
114.913
109.311
103.694
98.081
92.489
86.936
81.438
76.014
70.677
65.443
60.327
55.341
50.499
45.81
41.287
36.938
32.771
28.792
25.009
21.426
18.045
14.87
11.902
9.141
6.585
4.233
2.083
0.13
-1.631
-3.204
-4.595
-5.811
-6.859
-7.747
-8.482
-9.073
-9.528
-9.857
-10.068
-10.171
-10.175
-10.087
-9.919
-9.678
-9.373
-9.011
-8.602
-8.153
-7.671
-7.163
-6.636
-6.094
-5.545
-4.993
-4.441
-3.896
-3.359
-2.834
-2.324
-1.832
-1.358
-0.905
-0.473
-0.064
0.322
0.684
1.022
1.336
1.627
1.895
2.139
2.361
2.561
2.739
2.897
3.035
3.152
3.251
3.331
3.393
3.438
3.465
3.474
3.467
3.442
3.401
3.342
3.266
3.173
3.062
2.934
2.788
2.623
2.441
2.241
2.022
1.784
1.528
1.254
0.961
0.651
0.322
-0.023
-0.385
-0.762
-1.155
-1.561
-1.981
-2.413
-2.857
-3.312
-3.775
-4.246
-4.724
-5.206
-5.691
-6.177
-6.663
-7.146
-7.626
-8.101
-8.57
-9.032
-9.486
-9.931
-10.366
-10.791
-11.204
-11.604
-11.992
-12.366
-12.727
-13.073
-13.405
-13.722
-14.024
-14.311
-14.582
-14.837
-15.075
-15.294
-15.494
-15.673
-15.83
-15.965
-16.077
-16.168
-16.236
-16.283
-16.31
-16.318
-16.305
-16.271
-16.212
-16.127
-16.012
-15.863
-15.677
-15.45
-15.181
-14.868
-14.513
-14.113
-13.667
-13.174
-12.627
-12.027
-11.374
-10.668
-9.916
-9.124
-8.303
-7.47
-6.644
-5.836
-5.054
-4.302
-3.576
-2.874
-2.192
-1.524
-0.871
-0.233
0.392
1.003
1.604
2.208
2.831
3.5
4.244
5.08
6.017
7.061
8.197
9.41
10.675
11.96
13.251
14.537
15.805
17.046
18.243
19.371
20.406
21.318
22.074
22.651
23.027
23.184
23.129
22.874
22.447
21.879
21.175
20.334
19.354
18.227
16.963
15.566
14.028
12.334
10.453
8.366
6.066
3.561
0.874
-2.013
-5.148
-8.579
-12.347
-16.437
-20.74
-25.203
-29.837
-34.538
-39.155
-43.332
-46.437
-48.096
-48.238
-46.825
-43.928
-39.634
-33.854
-27.074
-20.483
-14.859
-10.625
-7.8
-5.652
-3.68
-1.939
0.34
4.952
13.524
27.736
48.42
74.68
105.732
141.401
180.416
220.056
256.741
285.788
303.15
306.805
294.632
263.91
213.065
143.304
58.813
-34.59
-132.055
-233.434
-339.823
-447.649
-548.525
-628.817
-675.437
-684.049
-659.184
-612.058
-555.119
-496.749
-439.75
-382.352
-323.36
-263.651
-206.274
-156.609
-117.449
-88.518
-68.729
-56
-48.639
-45.849
-45.893
-46.051
-44.652
-41.018
-35.039
-27.395
-18.664
-9.103
0.423
8.519
14.363
17.651
18.44
17.286
14.678
10.932
6.59
2.36
-1.276
-4.013
-5.71
-6.457
-6.336
-5.374
-3.673
-1.366
1.434
4.611
8.065
11.741
15.553
19.399
23.193
26.836
30.248
33.366
36.13
38.505
40.487
42.087
43.33
44.249
44.879
45.264
45.458
45.511
45.473
45.388
45.296
45.24
45.264
45.404
45.696
46.164
46.824
47.684
48.75
50.023
51.502
53.183
55.055
57.109
59.339
61.741
64.31
67.04
69.918
72.929
76.06
79.3
82.634
86.05
89.528
93.051
96.607
100.186
103.776
107.368
110.938
114.467
117.935
121.318
124.606
127.786
130.838
133.746
136.499
139.084
141.495
143.73
145.764
147.572
149.136
150.432
151.453
152.194
152.645
152.797
152.64
152.161
151.362
150.242
148.791
147.005
144.874
142.384
139.56
136.422
132.989
129.284
125.319
121.105
116.663
112.017
107.185
102.187
97.041
91.759
86.373
80.91
75.399
69.876
64.348
58.823
53.317
47.842
42.416
37.057
31.777
26.584
21.498
16.535
11.711
7.044
2.54
-1.794
-5.953
-9.934
-13.724
-17.312
-20.693
-23.861
-26.812
-29.544
-32.053
-34.337
-36.4
-38.246
-39.881
-41.312
-42.544
-43.58
-44.43
-45.099
-45.597
-45.934
-46.119
-46.162
-46.073
-45.865
-45.547
-45.131
-44.628
-44.047
-43.397
-42.688
-41.93
-41.131
-40.301
-39.446
-38.575
-37.694
-36.811
-35.931
-35.061
-34.204
-33.365
-32.549
-31.758
-30.997
-30.266
-29.57
-28.908
-28.284
-27.697
-27.149
-26.64
-26.17
-25.739
-25.346
-24.99
-24.671
-24.387
-24.138
-23.92
-23.733
-23.576
-23.447
-23.344
-23.267
-23.213
-23.182
-23.172
-23.182
-23.212
-23.26
-23.325
-23.407
-23.504
-23.616
-23.741
-23.878
-24.027
-24.185
-24.353
-24.528
-24.709
-24.896
-25.086
-25.278
-25.471
-25.664
-25.855
-26.044
-26.229
-26.41
-26.585
-26.753
-26.915
-27.068
-27.213
-27.347
-27.472
-27.585
-27.686
-27.774
-27.848
-27.909
-27.955
-27.987
-28.004
-28.008
-27.999
-27.976
-27.943
-27.898
-27.845
-27.783
-27.715
-27.643
-27.567
-27.492
-27.418
-27.348
-27.284
-27.229
-27.186
-27.156
-27.14
-27.142
-27.162
-27.202
-27.264
-27.349
-27.457
-27.59
-27.749
-27.934
-28.146
-28.384
-28.647
-28.936
-29.247
-29.578
-29.928
-30.293
-30.67
-31.056
-31.448
-31.845
-32.242
-32.637
-33.027
-33.407
-33.772
-34.118
-34.436
-34.721
-34.964
-35.16
-35.305
-35.392
-35.418
-35.379
-35.274
-35.101
-34.857
-34.539
-34.141
-33.657
-33.089
-32.44
-31.716
-30.93
-30.089
-29.204
-28.29
-27.36
-26.42
-25.474
-24.516
-23.536
-22.535
-21.518
-20.496
-19.483
-18.477
-17.476
-16.477
-15.469
-14.448
-13.407
-12.316
-11.157
-9.927
-8.63
-7.294
-5.949
-4.607
-3.273
-1.948
-0.631
0.662
1.91
3.106
4.232
5.28
6.235
7.055
7.701
8.163
8.434
8.531
8.481
8.278
7.915
7.393
6.7
5.846
4.846
3.693
2.38
0.893
-0.8
-2.697
-4.788
-7.078
-9.532
-12.143
-14.944
-17.933
-21.132
-24.569
-28.164
-31.879
-35.752
-39.68
-43.501
-46.951
-49.459
-50.528
-50.004
-47.752
-43.764
-38.348
-31.676
-24.21
-17.137
-11.54
-8.039
-6.98
-7.971
-10.009
-12.525
-14.594
-14.27
-9.513
1.576
20.376
46.773
79.587
117.973
160.471
204.218
245.434
279.491
301.988
309.899
301.031
272.975
224.114
155.495
71.095
-23.667
-124.117
-229.232
-339.597
-451.897
-557.536
-642.69
-694.132
-706.427
-683.26
-636.011
-577.149
-515.399
-454.183
-392.028
-328.119
-263.833
-202.655
-150.159
-109.238
-79.636
-60.067
-48.212
-42.147
-40.76
-42.042
-43.117
-42.196
-38.565
-32.183
-23.852
-14.284
-3.874
6.4
15.081
21.307
24.76
25.533
24.245
21.45
17.53
13.086
8.844
5.303
2.781
1.399
1.044
1.624
3.083
5.31
8.176
11.561
15.342
19.416
23.712
28.138
32.587
36.952
41.121
45
48.51
51.604
54.261
56.48
58.282
59.696
60.756
61.507
62.003
62.299
62.447
62.498
62.495
62.489
62.529
62.662
62.928
63.358
63.97
64.777
65.789
67.01
68.442
70.084
71.926
73.962
76.189
78.602
81.193
83.956
86.88
89.958
93.183
96.548
100.041
103.647
107.348
111.12
114.943
118.797
122.654
126.493
130.295
134.043
137.732
141.355
144.901
148.351
151.68
154.863
157.886
160.742
163.424
165.934
168.274
170.442
172.456
174.328
176.052
177.613
178.978
180.104
180.97
181.568
181.897
181.963
181.756
181.259
180.458
179.334
177.868
176.036
173.789
171.08
167.89
164.216
160.082
155.532
150.586
145.238
139.494
133.356
126.84
119.984
112.817
105.375
97.706
89.872
81.965
74.089
66.337
58.77
51.433
44.354
37.577
31.174
25.198
19.695
14.698
10.223
6.282
2.89
0.046
-2.281
-4.144
-5.614
-6.769
-7.659
-8.326
-8.806
-9.139
-9.385
-9.595
-9.801
-10.033
-10.308
-10.645
-11.069
-11.592
-12.204
-12.888
-13.612
-14.333
-15.031
-15.69
-16.296
-16.835
-17.291
-17.65
-17.911
-18.08
-18.161
-18.158
-18.071
-17.902
-17.664
-17.374
-17.051
-16.718
-16.39
-16.079
-15.795
-15.547
-15.34
-15.18
-15.064
-14.99
-14.953
-14.952
-14.987
-15.056
-15.156
-15.283
-15.432
-15.599
-15.78
-15.971
-16.172
-16.377
-16.587
-16.799
-17.014
-17.233
-17.455
-17.678
-17.904
-18.129
-18.354
-18.577
-18.797
-19.013
-19.222
-19.425
-19.621
-19.809
-19.988
-20.159
-20.32
-20.473
-20.615
-20.748
-20.872
-20.985
-21.089
-21.184
-21.269
-21.345
-21.412
-21.471
-21.522
-21.565
-21.601
-21.63
-21.653
-21.67
-21.682
-21.688
-21.69
-21.689
-21.685
-21.679
-21.673
-21.667
-21.664
-21.664
-21.669
-21.68
-21.699
-21.726
-21.764
-21.814
-21.877
-21.955
-22.049
-22.162
-22.294
-22.446
-22.619
-22.813
-23.028
-23.265
-23.523
-23.801
-24.099
-24.415
-24.75
-25.102
-25.469
-25.85
-26.243
-26.647
-27.058
-27.475
-27.895
-28.314
-28.73
-29.14
-29.54
-29.926
-30.296
-30.644
-30.968
-31.262
-31.522
-31.745
-31.925
-32.058
-32.141
-32.17
-32.143
-32.057
-31.912
-31.706
-31.439
-31.114
-30.729
-30.286
-29.786
-29.232
-28.626
-27.97
-27.266
-26.516
-25.726
-24.9
-24.046
-23.169
-22.275
-21.37
-20.462
-19.558
-18.664
-17.788
-16.932
-16.104
-15.311
-14.565
-13.879
-13.26
-12.711
-12.233
-11.824
-11.483
-11.207
-10.983
-10.798
-10.636
-10.488
-10.354
-10.233
-10.123
-10.011
-9.878
-9.706
-9.486
-9.217
-8.904
-8.547
-8.151
-7.729
-7.308
-6.929
-6.632
-6.443
-6.374
-6.438
-6.656
-7.065
-7.724
-8.687
-9.984
-11.631
-13.615
-15.933
-18.614
-21.668
-25.103
-28.903
-32.972
-37.249
-41.749
-46.372
-50.955
-55.23
-58.659
-60.768
-61.399
-60.418
-57.791
-53.774
-48.515
-42.411
-36.522
-31.822
-28.84
-27.864
-28.545
-29.971
-31.622
-32.684
-31.443
-26.114
-15.07
2.863
27.565
57.924
93.087
131.751
171.427
208.818
239.899
260.727
268.483
261.346
237.413
195.247
135.576
61.511
-22.658
-112.716
-207.167
-306.442
-407.681
-503.637
-583.044
-634.723
-653.908
-643.768
-613.429
-572.019
-525.695
-476.742
-423.899
-367.253
-308.754
-251.222
-199.045
-155.436
-121.027
-95.53
-77.894
-66.407
-59.881
-56.974
-55.433
-53.331
-49.69
-44.005
-36.411
-27.59
-17.991
-8.281
0.291
6.84
10.98
12.589
12.012
9.773
6.263
2.011
-2.265
-6.065
-9.07
-11.079
-12.13
-12.285
-11.574
-10.102
-8.002
-5.38
-2.34
1.027
4.664
8.487
12.393
16.285
20.064
23.642
26.95
29.924
32.526
34.744
36.589
38.088
39.274
40.182
40.857
41.348
41.706
41.979
42.214
42.452
42.738
43.113
43.616
44.284
45.14
46.198
47.469
48.954
50.652
52.562
54.676
56.982
59.471
62.134
64.961
67.946
71.078
74.345
77.734
81.231
84.824
88.5
92.246
96.045
99.885
103.751
107.627
111.498
115.35
119.165
122.924
126.61
130.204
133.688
137.046
140.258
143.307
146.178
148.855
151.324
153.57
155.581
157.345
158.851
160.09
161.052
161.73
162.117
162.208
161.999
161.486
160.668
159.544
158.116
156.385
154.355
152.031
149.418
146.524
143.358
139.928
136.246
132.325
128.177
123.817
119.259
114.52
109.617
104.567
99.388
94.099
88.718
83.264
77.757
72.215
66.657
61.103
55.572
50.081
44.649
39.294
34.032
28.879
23.853
18.966
14.234
9.668
5.282
1.086
-2.911
-6.701
-10.274
-13.627
-16.755
-19.653
-22.321
-24.758
-26.964
-28.941
-30.693
-32.224
-33.539
-34.646
-35.55
-36.262
-36.789
-37.142
-37.33
-37.366
-37.259
-37.022
-36.666
-36.204
-35.647
-35.007
-34.296
-33.525
-32.707
-31.851
-30.969
-30.071
-29.166
-28.262
-27.37
-26.496
-25.646
-24.828
-24.047
-23.307
-22.612
-21.965
-21.369
-20.825
-20.334
-19.897
-19.511
-19.177
-18.893
-18.657
-18.465
-18.315
-18.203
-18.127
-18.082
-18.064
-18.07
-18.096
-18.137
-18.191
-18.252
-18.319
-18.387
-18.454
-18.517
-18.573
-18.62
-18.657
-18.682
-18.694
-18.692
-18.676
-18.645
-18.6
-18.541
-18.47
-18.387
-18.294
-18.193
-18.086
-17.976
-17.864
-17.754
-17.648
-17.55
-17.461
-17.386
-17.325
-17.283
-17.262
-17.263
-17.289
-17.342
-17.423
-17.533
-17.673
-17.844
-18.045
-18.276
-18.536
-18.825
-19.14
-19.48
-19.843
-20.227
-20.629
-21.046
-21.475
-21.914
-22.358
-22.804
-23.248
-23.684
-24.11
-24.52
-24.91
-25.275
-25.611
-25.912
-26.176
-26.396
-26.57
-26.693
-26.761
-26.772
-26.721
-26.606
-26.426
-26.18
-25.866
-25.484
-25.037
-24.526
-23.953
-23.32
-22.632
-21.891
-21.102
-20.267
-19.391
-18.478
-17.533
-16.562
-15.571
-14.567
-13.556
-12.545
-11.542
-10.555
-9.59
-8.653
-7.751
-6.889
-6.072
-5.311
-4.611
-3.983
-3.43
-2.954
-2.557
-2.24
-1.999
-1.828
-1.713
-1.638
-1.592
-1.565
-1.548
-1.535
-1.508
-1.451
-1.347
-1.184
-0.955
-0.659
-0.287
0.164
0.687
1.267
1.866
2.438
2.947
3.362
3.648
3.77
3.668
3.273
2.532
1.404
-0.116
-2.023
-4.343
-7.126
-10.416
-14.217
-18.452
-22.983
-27.72
-32.657
-37.719
-42.672
-47.055
-50.35
-52.249
-52.768
-52.047
-49.949
-46.281
-41.179
-35.29
-29.654
-25.079
-21.566
-18.541
-15.822
-13.481
-11.251
-8.189
-2.436
7.903
23.534
44.081
69.205
98.696
131.938
167.324
201.496
230.291
250.348
259.085
254.094
233.204
194.459
137.902
67.064
-14.372
-103.227
-197.318
-296.285
-394.564
-482.359
-550.384
-590.363
-602.911
-594.436
-569.734
-533.627
-485.808
-426.265
-361.311
-297.023
-241.771
-200.236
-168.888
-144.382
-122.3
-100.411
-81.392
-66.827
-57.164
-51.399
-46.616
-40.836
-33.412
-24.436
-14.699
-4.783
4.832
13.303
20.044
24.616
26.817
26.913
25.284
22.334
18.603
14.724
11.165
8.286
6.318
5.286
5.191
6.014
7.653
9.984
12.897
16.286
20.059
24.146
28.449
32.855
37.263
41.559
45.648
49.448
52.881
55.903
58.494
60.657
62.414
63.796
64.842
65.596
66.109
66.433
66.62
66.718
66.773
66.832
66.939
67.137
67.467
67.958
68.63
69.496
70.568
71.849
73.344
75.051
76.964
79.075
81.378
83.868
86.542
89.398
92.428
95.622
98.967
102.449
106.055
109.769
113.567
117.418
121.292
125.163
129.015
132.836
136.611
140.326
143.963
147.505
150.946
154.286
157.52
160.638
163.633
166.501
169.256
171.932
174.555
177.139
179.68
182.163
184.581
186.929
189.192
191.345
193.338
195.112
196.629
197.859
198.773
199.334
199.479
199.118
198.184
196.634
194.443
191.6
188.082
183.862
178.94
173.347
167.149
160.426
153.239
145.636
137.68
129.446
121.043
112.607
104.244
96.032
88.045
80.347
73.018
66.153
59.808
54.006
48.74
43.989
39.745
36.01
32.76
29.954
27.525
25.385
23.475
21.76
20.2
18.758
17.381
16.007
14.596
13.138
11.629
10.075
8.475
6.821
5.127
3.421
1.743
0.142
-1.354
-2.734
-3.984
-5.092
-6.04
-6.808
-7.389
-7.79
-8.015
-8.073
-7.968
-7.704
-7.295
-6.765
-6.14
-5.447
-4.708
-3.936
-3.143
-2.343
-1.547
-0.767
-0.008
0.727
1.434
2.107
2.739
3.324
3.857
4.339
4.769
5.146
5.47
5.739
5.952
6.108
6.205
6.243
6.218
6.128
5.973
5.752
5.465
5.116
4.705
4.234
3.706
3.124
2.491
1.809
1.081
0.31
-0.5
-1.346
-2.225
-3.132
-4.065
-5.019
-5.991
-6.975
-7.969
-8.969
-9.971
-10.971
-11.967
-12.955
-13.931
-14.895
-15.842
-16.771
-17.68
-18.568
-19.433
-20.274
-21.09
-21.882
-22.648
-23.39
-24.107
-24.8
-25.471
-26.118
-26.744
-27.35
-27.935
-28.503
-29.052
-29.585
-30.102
-30.605
-31.094
-31.57
-32.033
-32.485
-32.925
-33.355
-33.774
-34.183
-34.58
-34.965
-35.337
-35.696
-36.038
-36.364
-36.67
-36.955
-37.216
-37.451
-37.657
-37.833
-37.974
-38.08
-38.148
-38.174
-38.158
-38.096
-37.987
-37.83
-37.624
-37.368
-37.061
-36.705
-36.301
-35.85
-35.356
-34.82
-34.245
-33.634
-32.991
-32.32
-31.626
-30.913
-30.184
-29.445
-28.702
-27.96
-27.228
-26.51
-25.811
-25.137
-24.495
-23.891
-23.333
-22.823
-22.365
-21.961
-21.614
-21.334
-21.124
-20.987
-20.919
-20.918
-20.977
-21.094
-21.262
-21.465
-21.683
-21.898
-22.087
-22.241
-22.35
-22.402
-22.386
-22.282
-22.072
-21.754
-21.329
-20.801
-20.186
-19.496
-18.753
-18.014
-17.333
-16.776
-16.429
-16.346
-16.584
-17.183
-18.15
-19.532
-21.392
-23.779
-26.751
-30.31
-34.372
-38.898
-43.897
-49.245
-54.74
-59.982
-64.313
-67.334
-68.952
-69.129
-67.844
-65.084
-60.874
-55.794
-51.129
-47.792
-46.02
-45.56
-45.747
-46.133
-46.436
-45.606
-41.393
-31.664
-15.226
8.077
37.204
71.114
109.071
149.335
188.331
221.729
245.632
256.991
254.164
235.847
200.31
146.723
77.498
-3.279
-92.216
-184.908
-279.731
-375.049
-462.888
-536.813
-590.894
-619.806
-627.068
-616.359
-589.962
-552.731
-506.064
-451.711
-393.327
-333.079
-274.001
-219.489
-172.419
-134.615
-106.111
-86.057
-73.012
-65.545
-62.618
-62.494
-62.654
-61.464
-58.177
-52.6
-45.309
-36.851
-27.538
-18.23
-10.215
-4.267
-0.707
0.498
-0.153
-2.209
-5.349
-9.034
-12.597
-15.576
-17.674
-18.776
-18.98
-18.365
-16.976
-14.913
-12.301
-9.249
-5.869
-2.249
1.556
5.471
9.404
13.265
16.957
20.396
23.511
26.262
28.627
30.609
32.227
33.506
34.477
35.179
35.663
35.974
36.158
36.259
36.314
36.367
36.463
36.646
36.954
37.415
38.047
38.861
39.863
41.057
42.442
44.012
45.759
47.675
49.753
51.987
54.374
56.905
59.571
62.36
65.262
68.266
71.362
74.539
77.784
81.087
84.434
87.813
91.214
94.621
98.021
101.396
104.732
108.012
111.219
114.336
117.348
120.237
122.989
125.588
128.02
130.272
132.332
134.186
135.825
137.237
138.413
139.345
140.026
140.449
140.608
140.5
140.122
139.471
138.546
137.349
135.881
134.145
132.144
129.885
127.374
124.619
121.627
118.41
114.978
111.343
107.518
103.517
99.356
95.048
90.611
86.061
81.414
76.688
71.899
67.065
62.203
57.331
52.465
47.623
42.821
38.076
33.403
28.818
24.335
19.968
15.731
11.635
7.692
3.912
0.305
-3.122
-6.361
-9.406
-12.253
-14.897
-17.337
-19.572
-21.602
-23.427
-25.051
-26.477
-27.709
-28.752
-29.612
-30.297
-30.814
-31.17
-31.375
-31.437
-31.367
-31.174
-30.868
-30.46
-29.96
-29.378
-28.726
-28.013
-27.249
-26.445
-25.609
-24.752
-23.882
-23.006
-22.134
-21.271
-20.425
-19.602
-18.806
-18.041
-17.313
-16.624
-15.976
-15.372
-14.813
-14.3
-13.834
-13.415
-13.042
-12.714
-12.431
-12.191
-11.992
-11.831
-11.708
-11.618
-11.559
-11.529
-11.524
-11.542
-11.578
-11.631
-11.697
-11.773
-11.856
-11.943
-12.033
-12.122
-12.209
-12.293
-12.372
-12.445
-12.51
-12.569
-12.619
-12.661
-12.695
-12.721
-12.739
-12.749
-12.751
-12.747
-12.737
-12.722
-12.702
-12.679
-12.654
-12.628
-12.603
-12.579
-12.559
-12.544
-12.535
-12.534
-12.543
-12.564
-12.596
-12.643
-12.704
-12.78
-12.872
-12.98
-13.103
-13.241
-13.393
-13.558
-13.734
-13.919
-14.114
-14.315
-14.521
-14.73
-14.939
-15.147
-15.351
-15.549
-15.736
-15.912
-16.072
-16.213
-16.332
-16.425
-16.49
-16.522
-16.517
-16.471
-16.382
-16.245
-16.056
-15.814
-15.514
-15.155
-14.735
-14.254
-13.712
-13.11
-12.448
-11.73
-10.957
-10.133
-9.262
-8.345
-7.388
-6.394
-5.367
-4.313
-3.236
-2.143
-1.039
0.069
1.173
2.267
3.343
4.394
5.414
6.395
7.33
8.211
9.031
9.783
10.458
11.051
11.557
11.972
12.297
12.535
12.691
12.776
12.805
12.788
12.739
12.671
12.597
12.535
12.501
12.505
12.56
12.675
12.857
13.116
13.454
13.862
14.327
14.814
15.28
15.689
15.996
16.153
16.105
15.778
15.107
14.052
12.589
10.713
8.395
5.568
2.168
-1.834
-6.411
-11.443
-16.834
-22.564
-28.523
-34.471
-39.973
-44.501
-47.751
-49.728
-50.49
-49.935
-47.919
-44.42
-39.94
-35.305
-31
-27.025
-22.982
-18.606
-13.961
-9.119
-3.436
4.356
15.37
30.318
49.299
72.144
98.837
129.565
162.701
195.457
225.807
250.564
268.762
280.01
278.885
260.897
221.355
157.182
74.942
-18.401
-117.338
-217.755
-321.691
-427.194
-526.155
-607.257
-657.858
-672.653
-655.115
-614.513
-561.591
-503.707
-443.784
-381.404
-316.595
-251.244
-189.035
-135.137
-92.425
-61.002
-39.835
-26.829
-20.135
-18.561
-20.066
-21.769
-21.78
-19.214
-13.873
-6.439
2.431
12.347
22.325
30.899
37.179
40.8
41.801
40.753
38.185
34.469
30.207
26.137
22.759
20.387
19.138
18.893
19.55
21.051
23.271
26.067
29.312
32.875
36.656
40.589
44.582
48.533
52.34
55.9
59.126
61.953
64.343
66.28
67.77
68.838
69.517
69.844
69.867
69.64
69.216
68.65
67.993
67.29
66.592
65.949
65.407
65.007
64.779
64.739
64.902
65.274
65.859
66.659
67.67
68.883
70.294
71.897
73.687
75.657
77.802
80.11
82.572
85.174
87.906
90.757
93.713
96.762
99.887
103.076
106.312
109.58
112.863
116.141
119.394
122.604
125.749
128.809
131.764
134.594
137.279
139.801
142.14
144.282
146.208
147.905
149.357
150.552
151.478
152.124
152.482
152.543
152.301
151.751
150.89
149.715
148.227
146.426
144.316
141.9
139.186
136.18
132.891
129.329
125.508
121.439
117.136
112.616
107.894
102.988
97.915
92.695
87.347
81.889
76.342
70.726
65.061
59.367
53.663
47.969
42.304
36.688
31.137
25.671
20.305
15.057
9.941
4.971
0.161
-4.476
-8.93
-13.191
-17.251
-21.101
-24.736
-28.151
-31.343
-34.309
-37.049
-39.562
-41.85
-43.915
-45.761
-47.392
-48.814
-50.033
-51.055
-51.889
-52.543
-53.026
-53.347
-53.516
-53.543
-53.439
-53.213
-52.877
-52.441
-51.916
-51.311
-50.638
-49.906
-49.124
-48.303
-47.451
-46.576
-45.687
-44.79
-43.892
-43
-42.12
-41.256
-40.413
-39.596
-38.808
-38.052
-37.33
-36.646
-36.001
-35.395
-34.83
-34.306
-33.822
-33.379
-32.975
-32.609
-32.28
-31.986
-31.727
-31.499
-31.3
-31.13
-30.984
-30.861
-30.759
-30.675
-30.607
-30.552
-30.508
-30.474
-30.446
-30.424
-30.404
-30.386
-30.367
-30.345
-30.319
-30.286
-30.246
-30.195
-30.135
-30.062
-29.977
-29.879
-29.768
-29.643
-29.505
-29.353
-29.188
-29.01
-28.82
-28.617
-28.402
-28.177
-27.941
-27.697
-27.446
-27.188
-26.926
-26.661
-26.394
-26.127
-25.862
-25.6
-25.344
-25.094
-24.855
-24.626
-24.412
-24.214
-24.034
-23.874
-23.735
-23.618
-23.524
-23.453
-23.403
-23.375
-23.368
-23.379
-23.408
-23.453
-23.514
-23.59
-23.679
-23.78
-23.892
-24.012
-24.138
-24.265
-24.388
-24.503
-24.604
-24.685
-24.743
-24.773
-24.77
-24.729
-24.647
-24.522
-24.347
-24.116
-23.821
-23.453
-23.012
-22.5
-21.921
-21.286
-20.603
-19.881
-19.135
-18.373
-17.601
-16.817
-16.011
-15.171
-14.295
-13.384
-12.448
-11.499
-10.533
-9.55
-8.546
-7.508
-6.425
-5.284
-4.055
-2.721
-1.287
0.232
1.795
3.353
4.878
6.347
7.749
9.076
10.314
11.45
12.49
13.421
14.232
14.903
15.387
15.658
15.72
15.594
15.332
14.999
14.634
14.27
13.944
13.67
13.463
13.323
13.209
13.09
12.948
12.766
12.555
12.309
11.98
11.514
10.839
9.863
8.527
6.767
4.51
1.718
-1.628
-5.51
-9.829
-14.48
-19.363
-24.365
-29.401
-34.356
-39.037
-43.237
-46.722
-49.236
-50.578
-50.484
-48.593
-44.672
-38.632
-30.625
-21.144
-10.701
0.325
11.449
22.115
31.965
40.911
49.539
59.135
70.974
86.004
104.892
128.05
155.39
185.962
217.368
245.975
267.829
279.095
276.431
256.808
217.848
159.672
85.238
-1.494
-96.415
-197.994
-306.376
-417.259
-521.982
-607.846
-661.926
-679.547
-664.566
-626.776
-577.073
-522.381
-464.794
-403.191
-337.851
-271.158
-206.996
-150.687
-105.183
-70.602
-46.383
-31.043
-22.557
-19.548
-20.002
-20.909
-20.47
-17.93
-12.859
-5.677
2.883
12.395
21.868
29.725
35.149
37.857
37.834
35.633
31.81
26.742
21.08
15.638
10.935
7.31
4.913
3.632
3.391
4.153
5.798
8.185
11.182
14.65
18.481
22.596
26.888
31.241
35.532
39.636
43.452
46.896
49.916
52.495
54.629
56.337
57.65
58.602
59.239
59.616
59.786
59.802
59.715
59.571
59.421
59.315
59.302
59.421
59.704
60.165
60.818
61.668
62.719
63.969
65.413
67.041
68.845
70.816
72.949
75.24
77.683
80.272
83.002
85.861
88.838
91.919
95.087
98.318
101.589
104.876
108.157
111.415
114.64
117.824
120.961
124.047
127.069
130.011
132.856
135.59
138.202
140.686
143.044
145.285
147.423
149.479
151.464
153.376
155.202
156.911
158.466
159.821
160.939
161.797
162.372
162.647
162.605
162.227
161.489
160.362
158.809
156.784
154.258
151.216
147.663
143.631
139.164
134.324
129.166
123.739
118.085
112.24
106.24
100.118
93.913
87.663
81.419
75.242
69.184
63.288
57.581
52.073
46.76
41.625
36.655
31.839
27.171
22.655
18.295
14.098
10.071
6.223
2.553
-0.945
-4.281
-7.459
-10.483
-13.345
-16.037
-18.544
-20.852
-22.953
-24.839
-26.51
-27.968
-29.221
-30.277
-31.15
-31.85
-32.387
-32.768
-33.003
-33.099
-33.068
-32.923
-32.676
-32.341
-31.931
-31.459
-30.937
-30.376
-29.785
-29.171
-28.541
-27.901
-27.257
-26.616
-25.982
-25.362
-24.759
-24.18
-23.627
-23.105
-22.615
-22.16
-21.739
-21.354
-21.005
-20.69
-20.409
-20.161
-19.945
-19.758
-19.599
-19.466
-19.358
-19.27
-19.203
-19.151
-19.115
-19.09
-19.074
-19.067
-19.065
-19.067
-19.072
-19.078
-19.085
-19.092
-19.099
-19.104
-19.107
-19.108
-19.106
-19.101
-19.094
-19.085
-19.073
-19.06
-19.046
-19.032
-19.017
-19.002
-18.988
-18.974
-18.961
-18.949
-18.939
-18.929
-18.922
-18.918
-18.917
-18.919
-18.926
-18.937
-18.954
-18.976
-19.003
-19.035
-19.072
-19.114
-19.16
-19.212
-19.268
-19.329
-19.395
-19.466
-19.542
-19.624
-19.712
-19.805
-19.905
-20.012
-20.128
-20.253
-20.388
-20.535
-20.696
-20.872
-21.063
-21.27
-21.493
-21.732
-21.987
-22.257
-22.541
-22.836
-23.143
-23.459
-23.785
-24.118
-24.459
-24.806
-25.161
-25.52
-25.883
-26.247
-26.609
-26.964
-27.308
-27.636
-27.944
-28.226
-28.478
-28.696
-28.879
-29.023
-29.123
-29.173
-29.165
-29.094
-28.958
-28.756
-28.49
-28.165
-27.79
-27.381
-26.955
-26.523
-26.092
-25.662
-25.228
-24.785
-24.331
-23.859
-23.37
-22.863
-22.336
-21.791
-21.227
-20.633
-19.991
-19.268
-18.426
-17.451
-16.337
-15.09
-13.734
-12.288
-10.781
-9.254
-7.74
-6.258
-4.826
-3.441
-2.106
-0.845
0.31
1.31
2.103
2.666
2.995
3.091
2.974
2.663
2.191
1.623
1.002
0.348
-0.333
-1.073
-1.898
-2.806
-3.789
-4.838
-5.937
-7.111
-8.409
-9.861
-11.513
-13.387
-15.494
-17.904
-20.684
-23.879
-27.523
-31.557
-35.854
-40.363
-45.087
-49.928
-54.723
-59.074
-62.344
-64.163
-64.453
-63.215
-60.446
-56.132
-50.314
-43.6
-37.318
-32.443
-29.257
-27.54
-26.671
-26.238
-26.029
-25.092
-21.199
-12.249
2.961
24.7
51.99
83.921
120.038
158.833
196.858
229.975
254.289
266.444
264.661
247.153
211.143
156.218
85.393
2.491
-87.953
-184.558
-290.584
-404.549
-519.456
-622.338
-694.935
-727.614
-720.408
-681.42
-625.988
-564.752
-502.823
-441.383
-377.648
-311.754
-246.903
-187.462
-138.442
-101.758
-76.504
-61.056
-53.115
-50.767
-52.401
-55.464
-57.401
-56.835
-53.275
-46.967
-38.661
-28.956
-18.482
-8.46
-0.191
5.631
8.806
9.601
8.574
6.171
2.787
-0.983
-4.484
-7.268
-9.083
-9.887
-9.797
-8.9
-7.255
-4.961
-2.144
1.075
4.586
8.299
12.153
16.074
19.976
23.771
27.369
30.69
33.669
36.272
38.487
40.323
41.801
42.951
43.805
44.411
44.824
45.096
45.277
45.411
45.538
45.702
45.949
46.319
46.852
47.572
48.496
49.635
50.996
52.579
54.384
56.404
58.626
61.042
63.644
66.422
69.368
72.471
75.721
79.109
82.625
86.255
89.978
93.778
97.635
101.534
105.454
109.375
113.272
117.129
120.932
124.672
128.339
131.915
135.376
138.699
141.862
144.848
147.656
150.276
152.693
154.902
156.898
158.686
160.277
161.662
162.813
163.702
164.306
164.61
164.619
164.33
163.737
162.834
161.609
160.059
158.193
156.006
153.488
150.625
147.397
143.811
139.911
135.733
131.31
126.671
121.829
116.805
111.632
106.337
100.943
95.472
89.936
84.36
78.782
73.242
67.78
62.42
57.154
51.983
46.913
41.951
37.111
32.401
27.819
23.372
19.074
14.938
10.979
7.204
3.607
0.187
-3.064
-6.143
-9.037
-11.74
-14.248
-16.558
-18.67
-20.584
-22.295
-23.804
-25.122
-26.258
-27.221
-28.019
-28.656
-29.139
-29.475
-29.673
-29.743
-29.695
-29.537
-29.279
-28.933
-28.507
-28.013
-27.461
-26.857
-26.209
-25.524
-24.811
-24.076
-23.326
-22.567
-21.806
-21.049
-20.302
-19.57
-18.857
-18.168
-17.506
-16.875
-16.276
-15.714
-15.189
-14.702
-14.255
-13.849
-13.484
-13.161
-12.878
-12.635
-12.432
-12.268
-12.14
-12.049
-11.992
-11.968
-11.974
-12.008
-12.069
-12.155
-12.262
-12.389
-12.535
-12.695
-12.868
-13.052
-13.244
-13.441
-13.641
-13.842
-14.041
-14.237
-14.426
-14.608
-14.781
-14.942
-15.091
-15.226
-15.346
-15.45
-15.537
-15.608
-15.661
-15.698
-15.718
-15.722
-15.711
-15.685
-15.647
-15.597
-15.536
-15.467
-15.391
-15.31
-15.227
-15.144
-15.062
-14.986
-14.917
-14.859
-14.814
-14.785
-14.774
-14.785
-14.821
-14.884
-14.976
-15.1
-15.259
-15.455
-15.688
-15.962
-16.277
-16.633
-17.031
-17.471
-17.951
-18.472
-19.031
-19.627
-20.256
-20.918
-21.607
-22.323
-23.059
-23.814
-24.582
-25.359
-26.14
-26.92
-27.693
-28.454
-29.197
-29.916
-30.605
-31.258
-31.87
-32.433
-32.942
-33.39
-33.772
-34.083
-34.315
-34.466
-34.53
-34.503
-34.383
-34.168
-33.856
-33.448
-32.944
-32.347
-31.656
-30.876
-30.01
-29.062
-28.034
-26.933
-25.761
-24.524
-23.23
-21.886
-20.5
-19.08
-17.635
-16.173
-14.705
-13.239
-11.785
-10.351
-8.942
-7.568
-6.24
-4.968
-3.767
-2.645
-1.604
-0.646
0.224
1.009
1.711
2.341
2.916
3.449
3.949
4.42
4.865
5.292
5.719
6.166
6.649
7.178
7.749
8.364
9.03
9.745
10.499
11.262
11.983
12.623
13.155
13.556
13.804
13.864
13.672
13.165
12.292
11.021
9.357
7.303
4.829
1.897
-1.531
-5.442
-9.737
-14.284
-19.008
-23.901
-28.897
-33.759
-38.022
-41.18
-42.931
-43.285
-42.376
-40.05
-36.092
-30.616
-24.238
-17.978
-12.66
-8.315
-4.408
-0.807
2.361
5.287
8.818
14.768
25.064
40.548
61.015
86.267
116.23
150.418
187.325
223.627
255.046
277.888
289.208
286.214
266.084
226.402
167.192
91.932
5.221
-88.945
-189.82
-298.141
-409.869
-515.825
-601.892
-654.292
-668.911
-650.449
-608.983
-556.536
-499.04
-437.085
-372.085
-305.012
-240.028
-184.206
-139.531
-106.033
-81.663
-62.138
-47.382
-37.757
-32.695
-31.678
-31.341
-29.097
-24.505
-17.436
-8.708
0.836
10.997
21.007
29.476
35.6
39.095
40.039
39.021
36.561
32.987
28.84
24.826
21.44
19.003
17.651
17.28
17.804
19.179
21.3
24.047
27.306
30.957
34.901
39.067
43.363
47.689
51.942
56.014
59.812
63.257
66.299
68.92
71.123
72.927
74.363
75.463
76.269
76.837
77.217
77.463
77.622
77.738
77.858
78.033
78.307
78.724
79.314
80.094
81.076
82.267
83.67
85.285
87.108
89.128
91.339
93.734
96.308
99.055
101.967
105.034
108.244
111.585
115.045
118.611
122.272
126.014
129.821
133.679
137.574
141.491
145.413
149.322
153.199
157.025
160.781
164.447
168.004
171.434
174.716
177.834
180.769
183.506
186.029
188.322
190.372
192.165
193.688
194.932
195.886
196.541
196.89
196.926
196.646
196.046
195.124
193.881
192.318
190.439
188.248
185.751
182.955
179.87
176.505
172.872
168.984
164.853
160.496
155.927
151.163
146.222
141.121
135.88
130.516
125.049
119.499
113.885
108.227
102.544
96.857
91.185
85.547
79.961
74.446
69.02
63.699
58.498
53.434
48.518
43.765
39.185
34.788
30.584
26.581
22.784
19.2
15.831
12.681
9.75
7.039
4.546
2.27
0.206
-1.649
-3.301
-4.756
-6.023
-7.108
-8.02
-8.769
-9.365
-9.818
-10.14
-10.343
-10.436
-10.433
-10.345
-10.184
-9.961
-9.688
-9.375
-9.033
-8.672
-8.302
-7.931
-7.568
-7.221
-6.896
-6.599
-6.338
-6.116
-5.938
-5.807
-5.726
-5.699
-5.725
-5.807
-5.945
-6.139
-6.389
-6.692
-7.049
-7.456
-7.911
-8.412
-8.954
-9.534
-10.149
-10.794
-11.465
-12.158
-12.869
-13.593
-14.327
-15.066
-15.807
-16.546
-17.279
-18.005
-18.719
-19.42
-20.104
-20.771
-21.418
-22.045
-22.649
-23.23
-23.787
-24.32
-24.828
-25.312
-25.772
-26.207
-26.62
-27.009
-27.378
-27.726
-28.057
-28.37
-28.67
-28.957
-29.234
-29.504
-29.769
-30.031
-30.293
-30.557
-30.825
-31.099
-31.382
-31.675
-31.98
-32.298
-32.631
-32.978
-33.342
-33.722
-34.119
-34.532
-34.961
-35.406
-35.866
-36.339
-36.825
-37.322
-37.828
-38.343
-38.863
-39.386
-39.909
-40.428
-40.942
-41.445
-41.934
-42.404
-42.852
-43.273
-43.663
-44.017
-44.331
-44.601
-44.822
-44.99
-45.102
-45.154
-45.143
-45.065
-44.92
-44.705
-44.419
-44.063
-43.636
-43.139
-42.575
-41.945
-41.251
-40.498
-39.688
-38.824
-37.91
-36.95
-35.95
-34.915
-33.853
-32.768
-31.67
-30.566
-29.464
-28.372
-27.299
-26.251
-25.236
-24.259
-23.33
-22.457
-21.649
-20.916
-20.265
-19.699
-19.222
-18.834
-18.534
-18.314
-18.164
-18.07
-18.02
-18.005
-18.015
-18.044
-18.075
-18.091
-18.072
-18.001
-17.866
-17.658
-17.372
-17.006
-16.564
-16.066
-15.55
-15.066
-14.657
-14.36
-14.21
-14.248
-14.539
-15.16
-16.18
-17.651
-19.594
-22.018
-24.946
-28.425
-32.486
-37.104
-42.185
-47.568
-53.152
-58.921
-64.778
-70.454
-75.468
-79.269
-81.52
-82.23
-81.43
-78.882
-74.46
-68.344
-61.311
-54.621
-49.077
-44.637
-40.887
-37.694
-34.947
-32.313
-28.337
-20.432
-6.78
13.286
38.789
67.675
99.404
133.771
169.967
207.502
241.548
264.495
269.795
249.562
201.987
132.431
47.129
-45.102
-138.403
-232.002
-323.761
-410.457
-487.415
-548.472
-590.366
-612.612
-615.865
-601.63
-571.588
-528.401
-476.119
-419.148
-361.032
-304.393
-251.416
-204.377
-165.383
-135.2
-113.208
-98.025
-88.237
-82.731
-80.217
-78.777
-76.485
-72.278
-65.923
-57.822
-48.585
-38.632
-28.569
-19.469
-12.254
-7.388
-4.943
-4.562
-5.751
-8.127
-11.211
-14.363
-17.1
-19.107
-20.201
-20.413
-19.813
-18.444
-16.408
-13.832
-10.816
-7.456
-3.841
-0.025
3.91
7.867
11.761
15.498
19.002
22.21
25.063
27.526
29.592
31.274
32.598
33.6
34.311
34.773
35.035
35.146
35.156
35.111
35.054
35.031
35.086
35.259
35.592
36.112
36.838
37.782
38.948
40.342
41.967
43.822
45.907
48.217
50.747
53.491
56.441
59.584
62.899
66.36
69.937
73.608
77.353
81.159
85.018
88.92
92.857
96.823
100.805
104.788
108.763
112.712
116.62
120.485
124.308
128.103
131.893
135.68
139.46
143.217
146.918
150.528
154.005
157.292
160.345
163.126
165.598
167.738
169.523
170.916
171.879
172.361
172.299
171.659
170.418
168.565
166.117
163.099
159.553
155.546
151.139
146.377
141.308
135.964
130.374
124.583
118.638
112.588
106.501
100.428
94.41
88.488
82.683
77.002
71.446
65.99
60.616
55.319
50.096
44.957
39.913
34.971
30.137
25.419
20.816
16.329
11.961
7.711
3.585
-0.403
-4.24
-7.899
-11.358
-14.604
-17.626
-20.42
-22.986
-25.324
-27.437
-29.333
-31.019
-32.499
-33.78
-34.866
-35.763
-36.48
-37.027
-37.417
-37.664
-37.778
-37.773
-37.66
-37.449
-37.151
-36.775
-36.328
-35.818
-35.254
-34.643
-33.995
-33.318
-32.619
-31.905
-31.185
-30.464
-29.748
-29.042
-28.349
-27.672
-27.016
-26.381
-25.771
-25.186
-24.627
-24.097
-23.594
-23.12
-22.674
-22.257
-21.866
-21.501
-21.161
-20.844
-20.548
-20.272
-20.015
-19.773
-19.547
-19.334
-19.133
-18.942
-18.761
-18.587
-18.42
-18.259
-18.103
-17.952
-17.804
-17.662
-17.524
-17.392
-17.266
-17.147
-17.037
-16.936
-16.846
-16.767
-16.7
-16.647
-16.61
-16.588
-16.584
-16.599
-16.634
-16.69
-16.77
-16.873
-17.001
-17.154
-17.334
-17.541
-17.775
-18.037
-18.327
-18.644
-18.987
-19.356
-19.749
-20.165
-20.602
-21.056
-21.526
-22.009
-22.501
-22.999
-23.5
-24.001
-24.497
-24.985
-25.46
-25.921
-26.361
-26.777
-27.165
-27.521
-27.84
-28.118
-28.352
-28.538
-28.671
-28.748
-28.767
-28.723
-28.614
-28.438
-28.193
-27.877
-27.491
-27.034
-26.506
-25.91
-25.247
-24.522
-23.737
-22.897
-22.005
-21.068
-20.088
-19.073
-18.026
-16.952
-15.858
-14.75
-13.635
-12.52
-11.414
-10.323
-9.255
-8.217
-7.218
-6.263
-5.358
-4.508
-3.718
-2.997
-2.353
-1.795
-1.327
-0.951
-0.668
-0.475
-0.367
-0.334
-0.36
-0.429
-0.526
-0.64
-0.762
-0.883
-0.992
-1.068
-1.088
-1.032
-0.883
-0.631
-0.272
0.197
0.765
1.404
2.066
2.7
3.257
3.696
3.981
4.064
3.89
3.394
2.507
1.165
-0.694
-3.113
-6.125
-9.743
-13.94
-18.643
-23.743
-29.116
-34.642
-40.208
-45.677
-50.869
-55.567
-59.522
-62.496
-64.209
-64.335
-62.612
-58.847
-53.086
-45.675
-37.024
-27.544
-17.707
-7.945
1.347
9.801
17.951
27.136
38.435
53.007
70.944
90.865
113.13
138.61
167.416
200.695
234.75
261.237
272.542
259.514
218.768
155.959
78.409
-5.007
-89.494
-178.106
-273.938
-375.973
-476.787
-562.154
-619.268
-642.716
-634.868
-605.019
-562.599
-513.666
-461.103
-404.21
-343.512
-281.508
-221.625
-168.909
-126.533
-94.894
-73.402
-60.473
-53.944
-52.286
-53.576
-54.941
-54.57
-51.664
-45.813
-37.463
-27.413
-16.169
-4.722
5.37
13.273
18.642
21.373
21.917
20.74
18.175
14.813
11.388
8.359
6.01
4.478
3.688
3.593
4.161
5.287
6.854
8.773
10.99
13.464
16.167
19.041
21.992
24.935
27.806
30.548
33.114
35.469
37.576
39.437
41.103
42.614
43.995
45.261
46.394
47.399
48.307
49.145
49.947
50.738
51.53
52.346
53.22
54.173
55.224
56.369
57.574
58.825
60.127
61.495
62.963
64.549
66.254
68.086
70.056
72.174
74.449
76.875
79.429
82.098
84.87
87.742
90.715
93.772
96.887
100.03
103.171
106.294
109.386
112.425
115.391
118.261
121.025
123.691
126.267
128.752
131.148
133.454
135.683
137.867
140.027
142.177
144.319
146.436
148.517
150.553
152.527
154.414
156.18
157.775
159.161
160.313
161.199
161.779
161.998
161.783
161.076
159.841
158.048
155.681
152.727
149.178
145.047
140.364
135.164
129.488
123.37
116.83
109.91
102.668
95.176
87.519
79.78
72.029
64.345
56.815
49.51
42.492
35.804
29.47
23.519
17.989
12.914
8.328
4.248
0.668
-2.42
-5.033
-7.2
-8.953
-10.345
-11.448
-12.318
-12.994
-13.511
-13.889
-14.161
-14.372
-14.559
-14.749
-14.962
-15.209
-15.501
-15.853
-16.262
-16.715
-17.189
-17.644
-18.053
-18.408
-18.698
-18.921
-19.068
-19.124
-19.084
-18.954
-18.739
-18.443
-18.07
-17.62
-17.102
-16.533
-15.934
-15.328
-14.733
-14.158
-13.613
-13.103
-12.636
-12.217
-11.847
-11.519
-11.232
-10.983
-10.77
-10.594
-10.451
-10.335
-10.239
-10.157
-10.083
-10.015
-9.947
-9.877
-9.8
-9.716
-9.625
-9.525
-9.418
-9.301
-9.174
-9.036
-8.887
-8.727
-8.554
-8.369
-8.172
-7.964
-7.745
-7.519
-7.286
-7.047
-6.805
-6.562
-6.321
-6.083
-5.852
-5.63
-5.421
-5.226
-5.05
-4.894
-4.763
-4.658
-4.582
-4.537
-4.524
-4.545
-4.601
-4.693
-4.82
-4.985
-5.186
-5.425
-5.7
-6.012
-6.359
-6.742
-7.159
-7.607
-8.086
-8.593
-9.126
-9.682
-10.26
-10.857
-11.469
-12.094
-12.729
-13.371
-14.014
-14.657
-15.293
-15.92
-16.533
-17.127
-17.697
-18.241
-18.755
-19.236
-19.682
-20.089
-20.455
-20.78
-21.059
-21.29
-21.471
-21.595
-21.66
-21.663
-21.602
-21.475
-21.282
-21.02
-20.691
-20.296
-19.836
-19.313
-18.725
-18.067
-17.34
-16.55
-15.705
-14.817
-13.898
-12.956
-12.002
-11.052
-10.118
-9.206
-8.315
-7.433
-6.556
-5.687
-4.833
-4.012
-3.232
-2.488
-1.774
-1.082
-0.404
0.262
0.932
1.631
2.372
3.154
3.958
4.742
5.483
6.175
6.821
7.438
8.028
8.581
9.092
9.554
9.969
10.338
10.643
10.85
10.942
10.92
10.817
10.686
10.551
10.416
10.267
10.069
9.805
9.468
9.029
8.462
7.72
6.744
5.511
4.015
2.26
0.246
-2.079
-4.805
-7.999
-11.687
-15.824
-20.283
-24.997
-29.976
-35.141
-40.252
-44.858
-48.438
-50.69
-51.64
-51.407
-49.825
-46.661
-42.018
-36.51
-31.154
-26.746
-23.249
-20.053
-16.966
-14.049
-11.052
-7.114
-0.362
11.196
28.24
50.375
77.174
108.221
143
180.214
216.559
247.704
270.149
281.299
279.07
261.471
226.33
172.321
101.528
19.081
-70.94
-165.306
-262.436
-362.593
-459.696
-543.638
-606
-638.062
-639.477
-617.861
-579.15
-531.169
-479.098
-422.448
-362.805
-301.947
-241.772
-186.969
-141.13
-105.281
-79.292
-61.829
-50.759
-44.576
-41.868
-40.359
-38.04
-33.882
-27.391
-18.777
-8.901
1.615
12.021
21.029
27.754
31.822
33.115
32.003
29.062
24.738
19.621
14.464
9.783
5.919
3.087
1.267
0.416
0.516
1.469
3.149
5.45
8.264
11.498
15.082
18.922
22.902
26.911
30.833
34.569
38.037
41.163
43.903
46.236
48.165
49.714
50.913
51.796
52.41
52.805
53.032
53.144
53.189
53.212
53.26
53.377
53.604
53.978
54.527
55.266
56.207
57.354
58.71
60.272
62.035
63.988
66.12
68.423
70.887
73.507
76.275
79.185
82.228
85.392
88.663
92.026
95.459
98.938
102.438
105.931
109.394
112.809
116.164
119.45
122.663
125.797
128.841
131.779
134.594
137.273
139.805
142.187
144.421
146.518
148.496
150.377
152.173
153.889
155.511
157.012
158.356
159.498
160.404
161.051
161.42
161.496
161.264
160.707
159.803
158.524
156.835
154.693
152.067
148.943
145.327
141.25
136.76
131.921
126.789
121.413
115.835
110.093
104.221
98.252
92.224
86.176
80.157
74.226
68.435
62.828
57.43
52.25
47.28
42.502
37.898
33.456
29.168
25.035
21.057
17.239
13.588
10.109
6.801
3.654
0.659
-2.195
-4.909
-7.479
-9.897
-12.149
-14.222
-16.107
-17.799
-19.295
-20.6
-21.719
-22.663
-23.444
-24.073
-24.559
-24.91
-25.134
-25.239
-25.236
-25.138
-24.955
-24.701
-24.39
-24.032
-23.638
-23.22
-22.784
-22.338
-21.888
-21.438
-20.994
-20.561
-20.143
-19.746
-19.373
-19.028
-18.714
-18.434
-18.19
-17.983
-17.812
-17.678
-17.581
-17.518
-17.489
-17.492
-17.524
-17.584
-17.668
-17.775
-17.9
-18.042
-18.197
-18.363
-18.536
-18.714
-18.895
-19.076
-19.254
-19.429
-19.599
-19.761
-19.916
-20.063
-20.199
-20.327
-20.444
-20.55
-20.647
-20.734
-20.811
-20.879
-20.939
-20.992
-21.038
-21.079
-21.116
-21.149
-21.18
-21.211
-21.242
-21.276
-21.313
-21.355
-21.404
-21.46
-21.526
-21.601
-21.686
-21.783
-21.892
-22.013
-22.146
-22.292
-22.45
-22.622
-22.808
-23.006
-23.217
-23.441
-23.677
-23.925
-24.184
-24.454
-24.734
-25.024
-25.323
-25.632
-25.949
-26.273
-26.605
-26.943
-27.286
-27.633
-27.981
-28.329
-28.675
-29.016
-29.351
-29.678
-29.995
-30.302
-30.596
-30.879
-31.148
-31.402
-31.64
-31.859
-32.054
-32.222
-32.359
-32.46
-32.522
-32.54
-32.513
-32.439
-32.316
-32.144
-31.919
-31.639
-31.297
-30.891
-30.419
-29.885
-29.291
-28.648
-27.968
-27.264
-26.55
-25.836
-25.129
-24.429
-23.733
-23.033
-22.323
-21.6
-20.871
-20.139
-19.409
-18.679
-17.945
-17.19
-16.398
-15.546
-14.612
-13.583
-12.451
-11.223
-9.918
-8.566
-7.204
-5.856
-4.53
-3.226
-1.947
-0.701
0.497
1.622
2.649
3.554
4.304
4.879
5.266
5.462
5.483
5.367
5.156
4.872
4.52
4.077
3.519
2.834
2.014
1.052
-0.058
-1.34
-2.826
-4.532
-6.483
-8.685
-11.13
-13.867
-16.954
-20.438
-24.362
-28.682
-33.271
-38.069
-43.071
-48.174
-53.213
-57.805
-61.311
-63.35
-63.84
-62.771
-60.156
-55.988
-50.288
-43.637
-37.346
-32.393
-29.115
-27.324
-26.38
-25.846
-25.491
-24.332
-20.146
-10.749
5.225
28.143
57.066
91.046
129.514
170.897
211.733
247.644
274.357
288.405
287.947
271.205
235.844
180.648
107.462
20.973
-73.698
-172.248
-273.937
-379.034
-483.013
-577.621
-650.975
-691.883
-697.078
-670.472
-621.545
-561.502
-497.617
-432.736
-367.175
-301.167
-237.056
-179.299
-132.067
-96.92
-73.386
-59.74
-53.261
-51.932
-53.703
-55.544
-55.491
-52.688
-46.693
-38.028
-27.666
-16.237
-4.826
4.924
12.156
16.536
18.002
17.096
14.381
10.261
5.417
0.67
-3.457
-6.614
-8.646
-9.651
-9.682
-8.771
-7.03
-4.587
-1.572
1.885
5.693
9.782
14.061
18.423
22.747
26.913
30.818
34.376
37.534
40.268
42.565
44.441
45.924
47.042
47.844
48.383
48.709
48.876
48.934
48.929
48.913
48.941
49.061
49.317
49.742
50.353
51.166
52.186
53.417
54.858
56.504
58.343
60.371
62.579
64.961
67.514
70.229
73.095
76.101
79.234
82.484
85.838
89.284
92.809
96.398
100.039
103.719
107.424
111.14
114.849
118.536
122.182
125.769
129.28
132.694
135.991
139.153
142.161
145
147.654
150.109
152.35
154.365
156.144
157.675
158.95
159.954
160.674
161.099
161.227
161.057
160.595
159.846
158.813
157.505
155.935
154.112
152.043
149.726
147.151
144.317
141.23
137.904
134.36
130.614
126.669
122.532
118.205
113.689
108.993
104.111
99.028
93.747
88.283
82.672
76.975
71.235
65.483
59.747
54.042
48.391
42.832
37.394
32.104
26.991
22.086
17.433
13.094
9.105
5.477
2.199
-0.773
-3.467
-5.895
-8.071
-10.006
-11.712
-13.211
-14.516
-15.63
-16.566
-17.342
-17.991
-18.564
-19.091
-19.581
-20.032
-20.416
-20.721
-20.943
-21.078
-21.121
-21.071
-20.924
-20.69
-20.387
-20.026
-19.612
-19.143
-18.606
-17.999
-17.329
-16.61
-15.861
-15.098
-14.33
-13.57
-12.834
-12.129
-11.464
-10.84
-10.252
-9.698
-9.18
-8.699
-8.261
-7.867
-7.516
-7.209
-6.942
-6.714
-6.523
-6.365
-6.237
-6.135
-6.056
-5.999
-5.964
-5.95
-5.955
-5.977
-6.016
-6.069
-6.136
-6.212
-6.298
-6.389
-6.486
-6.586
-6.69
-6.796
-6.905
-7.015
-7.126
-7.239
-7.354
-7.469
-7.586
-7.704
-7.823
-7.943
-8.064
-8.186
-8.31
-8.435
-8.563
-8.692
-8.824
-8.959
-9.098
-9.24
-9.386
-9.538
-9.694
-9.855
-10.023
-10.196
-10.376
-10.562
-10.756
-10.957
-11.166
-11.382
-11.606
-11.838
-12.078
-12.326
-12.582
-12.847
-13.12
-13.403
-13.694
-13.996
-14.307
-14.629
-14.962
-15.305
-15.659
-16.023
-16.397
-16.779
-17.17
-17.566
-17.969
-18.375
-18.784
-19.194
-19.603
-20.01
-20.412
-20.808
-21.196
-21.573
-21.937
-22.285
-22.615
-22.924
-23.208
-23.466
-23.694
-23.889
-24.047
-24.165
-24.241
-24.27
-24.248
-24.174
-24.043
-23.854
-23.605
-23.294
-22.921
-22.486
-21.99
-21.434
-20.82
-20.15
-19.428
-18.655
-17.834
-16.968
-16.06
-15.115
-14.137
-13.131
-12.103
-11.059
-10.005
-8.948
-7.894
-6.851
-5.824
-4.819
-3.841
-2.899
-1.999
-1.152
-0.365
0.355
1.006
1.582
2.083
2.51
2.868
3.166
3.419
3.638
3.829
4.002
4.163
4.326
4.51
4.727
4.992
5.311
5.687
6.128
6.641
7.219
7.848
8.497
9.12
9.684
10.157
10.501
10.679
10.631
10.282
9.576
8.466
6.933
4.97
2.539
-0.423
-3.97
-8.115
-12.802
-17.904
-23.338
-29.098
-35.102
-41.109
-46.671
-51.278
-54.615
-56.672
-57.541
-57.044
-54.947
-51.311
-46.683
-41.989
-37.958
-34.561
-31.252
-27.855
-24.453
-20.894
-16.451
-9.423
1.989
18.473
39.777
65.537
95.424
129.082
165.382
201.275
232.819
256.629
269.821
270.215
255.773
223.755
173.233
106.744
27.961
-58.816
-151.71
-252.931
-361.215
-470.456
-569.201
-641.593
-678.664
-679.821
-651.861
-607.441
-555.55
-501.182
-445.837
-387.241
-325.626
-263.336
-203.799
-152.412
-111.896
-81.983
-61.756
-49.285
-42.846
-41.52
-43.446
-45.766
-46.646
-45.241
-41.302
-35.442
-28.227
-19.931
-11.444
-4.186
0.995
3.767
4.176
2.782
0.091
-3.554
-7.584
-11.274
-14.134
-15.888
-16.45
-15.964
-14.559
-12.301
-9.319
-5.772
-1.797
2.475
6.936
11.526
16.159
20.721
25.107
29.213
32.947
36.263
39.139
41.568
43.569
45.172
46.41
47.33
47.981
48.414
48.678
48.821
48.888
48.926
48.986
49.117
49.365
49.761
50.326
51.075
52.015
53.149
54.48
56.003
57.712
59.602
61.667
63.904
66.309
68.876
71.597
74.462
77.461
80.583
83.819
87.159
90.591
94.104
97.684
101.32
104.998
108.705
112.422
116.134
119.822
123.467
127.051
130.556
133.961
137.248
140.399
143.396
146.223
148.862
151.297
153.514
155.499
157.238
158.719
159.933
160.869
161.519
161.876
161.935
161.692
161.144
160.289
159.129
157.663
155.896
153.833
151.478
148.839
145.924
142.743
139.308
135.63
131.723
127.601
123.28
118.775
114.104
109.286
104.337
99.277
94.126
88.902
83.625
78.315
72.99
67.67
62.374
57.12
51.926
46.809
41.786
36.872
32.081
27.429
22.927
18.587
14.421
10.437
6.644
3.05
-0.339
-3.519
-6.485
-9.235
-11.767
-14.082
-16.179
-18.062
-19.733
-21.196
-22.458
-23.523
-24.399
-25.094
-25.616
-25.975
-26.178
-26.237
-26.161
-25.961
-25.647
-25.231
-24.721
-24.13
-23.466
-22.741
-21.963
-21.142
-20.287
-19.407
-18.509
-17.601
-16.691
-15.785
-14.89
-14.011
-13.154
-12.323
-11.523
-10.757
-10.028
-9.339
-8.692
-8.087
-7.527
-7.011
-6.539
-6.112
-5.728
-5.387
-5.087
-4.827
-4.605
-4.42
-4.268
-4.149
-4.061
-4
-3.966
-3.956
-3.969
-4.002
-4.054
-4.123
-4.208
-4.307
-4.419
-4.541
-4.673
-4.814
-4.962
-5.116
-5.275
-5.439
-5.606
-5.776
-5.948
-6.122
-6.298
-6.474
-6.652
-6.83
-7.01
-7.19
-7.371
-7.554
-7.738
-7.924
-8.112
-8.303
-8.496
-8.692
-8.891
-9.093
-9.299
-9.509
-9.723
-9.94
-10.163
-10.39
-10.621
-10.859
-11.102
-11.351
-11.606
-11.868
-12.137
-12.414
-12.698
-12.99
-13.291
-13.601
-13.919
-14.246
-14.582
-14.927
-15.28
-15.641
-16.009
-16.383
-16.762
-17.145
-17.531
-17.918
-18.306
-18.692
-19.075
-19.454
-19.825
-20.188
-20.54
-20.88
-21.204
-21.51
-21.797
-22.061
-22.3
-22.511
-22.693
-22.842
-22.956
-23.032
-23.068
-23.062
-23.013
-22.917
-22.775
-22.585
-22.347
-22.062
-21.73
-21.352
-20.932
-20.471
-19.973
-19.44
-18.877
-18.287
-17.674
-17.04
-16.392
-15.731
-15.064
-14.396
-13.732
-13.078
-12.441
-11.826
-11.239
-10.687
-10.175
-9.707
-9.287
-8.919
-8.61
-8.368
-8.201
-8.111
-8.103
-8.175
-8.325
-8.551
-8.839
-9.174
-9.538
-9.914
-10.291
-10.659
-11.005
-11.318
-11.579
-11.765
-11.859
-11.847
-11.72
-11.472
-11.102
-10.619
-10.057
-9.469
-8.908
-8.432
-8.086
-7.91
-7.959
-8.289
-8.965
-10.052
-11.607
-13.685
-16.331
-19.579
-23.45
-27.924
-32.915
-38.303
-43.951
-49.718
-55.495
-61.149
-66.484
-71.284
-75.305
-78.299
-80.058
-80.308
-78.687
-74.962
-69.093
-61.279
-52.05
-41.961
-31.388
-20.802
-10.831
-1.814
6.394
14.508
23.975
36.204
51.875
71.449
95.473
123.72
154.726
185.876
213.161
232.198
239.764
232.953
208.368
164.697
103.431
27.061
-59.786
-154.305
-257.815
-367.766
-477.615
-576.248
-647.954
-684.282
-684.999
-656.563
-611.293
-557.797
-501.013
-443.003
-382.039
-318.825
-255.902
-196.54
-146
-106.865
-78.709
-60.504
-50.179
-45.827
-46.358
-49.771
-53.101
-54.491
-53.137
-48.865
-42.381
-34.359
-25.175
-15.814
-7.758
-1.887
1.455
2.321
1.285
-1.13
-4.565
-8.437
-12.023
-14.84
-16.615
-17.267
-16.938
-15.748
-13.76
-11.088
-7.874
-4.24
-0.3
3.852
8.164
12.555
16.915
21.143
25.132
28.788
32.062
34.927
37.374
39.418
41.086
42.407
43.422
44.179
44.725
45.106
45.369
45.555
45.713
45.892
46.142
46.511
47.032
47.725
48.606
49.682
50.956
52.43
54.099
55.955
57.993
60.206
62.591
65.145
67.86
70.729
73.742
76.887
80.154
83.534
87.016
90.588
94.24
97.958
101.731
105.546
109.388
113.241
117.087
120.907
124.681
128.391
132.017
135.54
138.94
142.199
145.299
148.224
150.958
153.488
155.796
157.868
159.69
161.247
162.531
163.537
164.256
164.681
164.81
164.637
164.164
163.393
162.319
160.941
159.257
157.265
154.975
152.395
149.535
146.408
143.021
139.376
135.49
131.377
127.046
122.51
117.778
112.854
107.77
102.554
97.233
91.839
86.387
80.895
75.386
69.88
64.402
58.98
53.63
48.368
43.223
38.22
33.386
28.756
24.327
20.096
16.069
12.243
8.627
5.232
2.055
-0.904
-3.645
-6.17
-8.475
-10.558
-12.431
-14.106
-15.599
-16.927
-18.088
-19.075
-19.893
-20.543
-21.034
-21.375
-21.57
-21.621
-21.543
-21.346
-21.043
-20.652
-20.176
-19.622
-18.997
-18.306
-17.563
-16.784
-15.98
-15.161
-14.338
-13.518
-12.713
-11.934
-11.184
-10.467
-9.786
-9.143
-8.543
-7.989
-7.484
-7.03
-6.625
-6.271
-5.966
-5.71
-5.5
-5.336
-5.213
-5.129
-5.081
-5.067
-5.085
-5.131
-5.202
-5.294
-5.405
-5.531
-5.668
-5.815
-5.966
-6.119
-6.272
-6.423
-6.568
-6.706
-6.836
-6.956
-7.065
-7.164
-7.25
-7.325
-7.389
-7.441
-7.483
-7.516
-7.541
-7.558
-7.571
-7.579
-7.586
-7.592
-7.601
-7.614
-7.633
-7.661
-7.701
-7.753
-7.821
-7.907
-8.012
-8.139
-8.29
-8.466
-8.669
-8.9
-9.159
-9.447
-9.765
-10.112
-10.488
-10.891
-11.32
-11.775
-12.252
-12.751
-13.268
-13.801
-14.347
-14.903
-15.465
-16.031
-16.595
-17.153
-17.702
-18.237
-18.754
-19.247
-19.712
-20.144
-20.538
-20.889
-21.193
-21.444
-21.638
-21.77
-21.837
-21.834
-21.759
-21.609
-21.382
-21.077
-20.694
-20.234
-19.698
-19.087
-18.404
-17.652
-16.833
-15.953
-15.014
-14.019
-12.975
-11.887
-10.763
-9.61
-8.437
-7.25
-6.059
-4.873
-3.701
-2.551
-1.431
-0.347
0.693
1.679
2.598
3.439
4.192
4.855
5.427
5.906
6.293
6.592
6.813
6.972
7.081
7.148
7.175
7.162
7.115
7.05
6.988
6.947
6.938
6.963
7.019
7.11
7.232
7.372
7.503
7.584
7.574
7.449
7.196
6.801
6.243
5.477
4.433
3.061
1.318
-0.805
-3.283
-6.13
-9.37
-13.019
-17.09
-21.518
-26.165
-30.964
-35.923
-40.955
-45.914
-50.433
-53.862
-55.808
-56.183
-54.966
-52.197
-47.923
-42.178
-35.544
-29.359
-24.616
-21.702
-20.512
-20.386
-20.79
-21.448
-21.404
-18.375
-10.02
5.124
27.674
56.282
88.627
124.17
162.186
201.18
240.808
276.326
300.005
305.228
283.775
233.721
160.656
72.138
-21.937
-116.452
-210.796
-304.694
-396.94
-480.024
-546.077
-589.392
-606.188
-600.581
-577.012
-539.236
-493.243
-441.153
-385.231
-328.517
-272.178
-218.977
-172.044
-133.167
-103.086
-81.058
-65.528
-55.259
-49.332
-46.516
-44.932
-42.711
-38.837
-33.059
-25.732
-17.407
-8.427
0.624
8.673
14.812
18.596
19.966
19.296
17.085
13.718
9.701
5.699
2.221
-0.397
-1.986
-2.594
-2.302
-1.166
0.713
3.203
6.196
9.586
13.282
17.222
21.323
25.483
29.595
33.55
37.254
40.627
43.617
46.203
48.379
50.167
51.598
52.705
53.53
54.121
54.524
54.786
54.952
55.062
55.162
55.299
55.519
55.866
56.37
57.052
57.926
59.001
60.281
61.769
63.459
65.341
67.408
69.657
72.083
74.689
77.471
80.417
83.515
86.754
90.118
93.588
97.141
100.742
104.364
107.989
111.601
115.192
118.753
122.269
125.73
129.126
132.447
135.688
138.838
141.882
144.816
147.643
150.378
153.054
155.689
158.28
160.818
163.284
165.649
167.887
169.959
171.81
173.396
174.677
175.621
176.215
176.429
176.224
175.554
174.354
172.583
170.224
167.269
163.722
159.606
154.949
149.807
144.259
138.372
132.201
125.797
119.189
112.424
105.557
98.647
91.765
84.967
78.294
71.787
65.48
59.391
53.531
47.891
42.438
37.152
32.028
27.063
22.266
17.641
13.185
8.896
4.772
0.812
-2.983
-6.614
-10.086
-13.396
-16.536
-19.492
-22.241
-24.767
-27.065
-29.13
-30.966
-32.577
-33.965
-35.141
-36.116
-36.902
-37.51
-37.95
-38.23
-38.36
-38.355
-38.226
-37.992
-37.666
-37.26
-36.789
-36.262
-35.691
-35.085
-34.452
-33.798
-33.129
-32.452
-31.773
-31.099
-30.433
-29.782
-29.149
-28.538
-27.952
-27.394
-26.864
-26.363
-25.891
-25.447
-25.031
-24.641
-24.276
-23.933
-23.611
-23.308
-23.021
-22.748
-22.487
-22.236
-21.993
-21.755
-21.523
-21.293
-21.066
-20.84
-20.615
-20.391
-20.169
-19.948
-19.729
-19.513
-19.301
-19.095
-18.896
-18.706
-18.526
-18.359
-18.206
-18.07
-17.954
-17.859
-17.788
-17.744
-17.728
-17.743
-17.791
-17.873
-17.99
-18.144
-18.335
-18.563
-18.829
-19.13
-19.467
-19.837
-20.239
-20.671
-21.129
-21.611
-22.113
-22.631
-23.163
-23.703
-24.247
-24.789
-25.326
-25.853
-26.363
-26.851
-27.313
-27.744
-28.137
-28.489
-28.794
-29.047
-29.244
-29.381
-29.453
-29.457
-29.39
-29.249
-29.032
-28.74
-28.37
-27.924
-27.403
-26.809
-26.145
-25.415
-24.622
-23.773
-22.871
-21.922
-20.933
-19.909
-18.857
-17.783
-16.694
-15.599
-14.504
-13.42
-12.352
-11.311
-10.304
-9.34
-8.427
-7.571
-6.779
-6.056
-5.408
-4.843
-4.37
-3.996
-3.724
-3.556
-3.491
-3.524
-3.651
-3.859
-4.129
-4.445
-4.79
-5.152
-5.522
-5.889
-6.239
-6.556
-6.815
-6.999
-7.095
-7.091
-6.983
-6.771
-6.46
-6.082
-5.683
-5.311
-5.012
-4.821
-4.765
-4.886
-5.226
-5.834
-6.77
-8.077
-9.8
-11.983
-14.649
-17.817
-21.474
-25.549
-29.934
-34.513
-39.161
-43.787
-48.293
-52.521
-56.298
-59.416
-61.654
-62.842
-62.747
-61.058
-57.574
-52.206
-45.086
-36.662
-27.391
-17.629
-7.836
1.499
10.054
17.704
25.008
33.17
43.238
56.048
72.195
91.981
115.542
142.323
170.153
195.719
215.72
226.791
225.999
210.768
178.297
127.858
62.016
-15.493
-101.24
-193.935
-293.769
-397.641
-497.065
-579.091
-631.9
-650.461
-637.326
-601.911
-554.276
-501.048
-445.797
-388.328
-328.571
-268.533
-211.536
-162.29
-123.626
-95.659
-77.071
-65.633
-59.483
-57.385
-57.573
-57.577
-55.73
-51.341
-44.428
-35.764
-26.058
-15.732
-5.633
2.949
9.23
12.91
14.044
13.178
10.822
7.318
3.202
-0.864
-4.427
-7.181
-8.975
-9.881
-9.962
-9.243
-7.818
-5.798
-3.276
-0.359
2.869
6.349
9.994
13.71
17.407
20.992
24.382
27.513
30.321
32.774
34.867
36.609
38.025
39.144
39.999
40.632
41.094
41.433
41.697
41.929
42.168
42.457
42.837
43.347
44.023
44.887
45.952
47.227
48.714
50.414
52.324
54.435
56.733
59.211
61.862
64.683
67.67
70.811
74.09
77.49
80.985
84.555
88.18
91.831
95.487
99.13
102.748
106.339
109.902
113.428
116.901
120.298
123.597
126.786
129.856
132.799
135.618
138.315
140.895
143.378
145.773
148.071
150.254
152.282
154.106
155.693
157.019
158.068
158.831
159.287
159.417
159.208
158.636
157.68
156.313
154.488
152.175
149.371
146.091
142.377
138.292
133.881
129.181
124.233
119.066
113.714
108.216
102.595
96.882
91.113
85.333
79.603
73.978
68.486
63.147
57.956
52.897
47.964
43.153
38.459
33.884
29.429
25.099
20.908
16.87
12.991
9.272
5.704
2.275
-1.014
-4.158
-7.147
-9.963
-12.597
-15.039
-17.279
-19.313
-21.139
-22.758
-24.181
-25.419
-26.481
-27.375
-28.107
-28.682
-29.109
-29.398
-29.557
-29.599
-29.534
-29.374
-29.131
-28.816
-28.44
-28.013
-27.54
-27.03
-26.487
-25.921
-25.336
-24.738
-24.135
-23.532
-22.935
-22.348
-21.777
-21.226
-20.697
-20.193
-19.716
-19.267
-18.846
-18.453
-18.089
-17.752
-17.44
-17.154
-16.892
-16.651
-16.431
-16.229
-16.044
-15.873
-15.716
-15.569
-15.432
-15.302
-15.179
-15.06
-14.946
-14.834
-14.724
-14.616
-14.508
-14.4
-14.291
-14.18
-14.068
-13.954
-13.838
-13.72
-13.602
-13.484
-13.367
-13.252
-13.142
-13.038
-12.941
-12.854
-12.776
-12.71
-12.658
-12.62
-12.598
-12.595
-12.61
-12.645
-12.702
-12.782
-12.885
-13.012
-13.163
-13.339
-13.539
-13.763
-14.012
-14.284
-14.579
-14.896
-15.235
-15.594
-15.971
-16.366
-16.776
-17.197
-17.629
-18.066
-18.506
-18.946
-19.381
-19.809
-20.229
-20.637
-21.03
-21.405
-21.761
-22.094
-22.4
-22.676
-22.914
-23.11
-23.261
-23.362
-23.41
-23.404
-23.339
-23.215
-23.033
-22.793
-22.496
-22.137
-21.712
-21.219
-20.662
-20.048
-19.389
-18.692
-17.965
-17.218
-16.466
-15.721
-14.989
-14.269
-13.548
-12.822
-12.093
-11.37
-10.669
-9.998
-9.351
-8.722
-8.105
-7.496
-6.898
-6.297
-5.661
-4.975
-4.239
-3.469
-2.705
-1.966
-1.249
-0.548
0.149
0.84
1.507
2.14
2.743
3.317
3.871
4.385
4.808
5.112
5.296
5.377
5.397
5.368
5.261
5.047
4.702
4.216
3.589
2.802
1.809
0.552
-1.028
-2.953
-5.207
-7.763
-10.618
-13.802
-17.375
-21.38
-25.782
-30.495
-35.398
-40.424
-45.575
-50.769
-55.738
-60.008
-63.08
-64.665
-64.794
-63.588
-60.869
-56.425
-50.373
-43.329
-36.295
-30.065
-24.662
-19.592
-14.789
-10.396
-6.258
-1.677
5.05
15.893
31.786
52.752
78.079
106.325
136.396
167.385
199.424
233.331
267.081
295.067
306.936
290.769
241.669
163.947
68.785
-31.227
-131.126
-234.67
-345.111
-460.053
-567.913
-649.807
-693.626
-697.309
-668.054
-620.576
-565.353
-507.688
-449.154
-387.245
-322.284
-257.197
-195.896
-143.905
-103.897
-75.446
-57.286
-47.168
-43.057
-43.648
-46.805
-49.582
-50.135
-47.702
-42.224
-34.512
-25.343
-15.207
-5.152
3.344
9.408
12.714
13.358
11.956
9.077
5.124
0.706
-3.465
-6.916
-9.348
-10.663
-10.982
-10.405
-8.997
-6.873
-4.162
-0.976
2.565
6.366
10.36
14.455
18.551
22.544
26.335
29.837
32.984
35.737
38.079
40.016
41.574
42.78
43.67
44.286
44.679
44.901
45.003
45.031
45.029
45.044
45.123
45.31
45.646
46.156
46.857
47.758
48.864
50.178
51.698
53.419
55.33
57.423
59.692
62.137
64.757
67.547
70.49
73.57
76.771
80.077
83.475
86.945
90.465
94.017
97.59
101.183
104.794
108.414
112.027
115.607
119.129
122.577
125.945
129.227
132.413
135.491
138.457
141.316
144.079
146.745
149.289
151.669
153.843
155.784
157.476
158.913
160.085
160.973
161.557
161.819
161.75
161.341
160.573
159.415
157.828
155.801
153.351
150.523
147.359
143.887
140.128
136.098
131.823
127.332
122.654
117.809
112.811
107.683
102.457
97.184
91.914
86.68
81.491
76.34
71.221
66.141
61.11
56.14
51.234
46.396
41.638
36.983
32.451
28.057
23.808
19.7
15.729
11.899
8.225
4.723
1.409
-1.709
-4.623
-7.324
-9.804
-12.057
-14.085
-15.895
-17.496
-18.894
-20.094
-21.099
-21.912
-22.542
-22.997
-23.287
-23.422
-23.413
-23.27
-23.006
-22.633
-22.166
-21.614
-20.986
-20.293
-19.546
-18.753
-17.927
-17.075
-16.208
-15.335
-14.465
-13.606
-12.766
-11.952
-11.169
-10.421
-9.714
-9.049
-8.431
-7.861
-7.339
-6.868
-6.446
-6.075
-5.754
-5.481
-5.256
-5.076
-4.94
-4.845
-4.789
-4.768
-4.78
-4.821
-4.887
-4.976
-5.084
-5.207
-5.342
-5.485
-5.634
-5.784
-5.934
-6.078
-6.216
-6.345
-6.463
-6.568
-6.66
-6.738
-6.801
-6.851
-6.886
-6.907
-6.916
-6.912
-6.898
-6.873
-6.839
-6.798
-6.751
-6.7
-6.646
-6.591
-6.537
-6.486
-6.44
-6.4
-6.369
-6.349
-6.342
-6.349
-6.372
-6.415
-6.478
-6.563
-6.672
-6.807
-6.968
-7.156
-7.371
-7.614
-7.885
-8.181
-8.503
-8.85
-9.219
-9.61
-10.021
-10.45
-10.895
-11.352
-11.821
-12.298
-12.78
-13.265
-13.748
-14.227
-14.698
-15.159
-15.604
-16.031
-16.436
-16.815
-17.164
-17.478
-17.754
-17.987
-18.172
-18.307
-18.387
-18.41
-18.374
-18.275
-18.114
-17.889
-17.601
-17.251
-16.841
-16.371
-15.843
-15.261
-14.627
-13.944
-13.216
-12.446
-11.638
-10.799
-9.935
-9.054
-8.161
-7.264
-6.37
-5.486
-4.621
-3.783
-2.976
-2.206
-1.48
-0.81
-0.208
0.315
0.756
1.112
1.383
1.572
1.68
1.717
1.697
1.636
1.547
1.438
1.31
1.168
1.021
0.887
0.786
0.738
0.746
0.812
0.935
1.112
1.334
1.58
1.812
1.988
2.071
2.033
1.857
1.522
0.996
0.239
-0.806
-2.191
-3.955
-6.112
-8.665
-11.601
-14.92
-18.624
-22.703
-27.109
-31.744
-36.477
-41.222
-45.959
-50.611
-54.919
-58.438
-60.675
-61.339
-60.458
-58.138
-54.211
-48.478
-41.089
-32.757
-24.606
-17.531
-11.622
-6.402
-1.758
2.09
5.296
8.933
15.017
25.703
42.029
63.552
89.784
120.658
155.499
192.269
227.26
255.605
273.122
277.423
266.321
237.231
188.383
120.424
37.103
-56.234
-154.857
-257.791
-364.977
-471.941
-570.356
-647.494
-692.224
-702.409
-682.293
-640.716
-585.44
-518.735
-441.687
-357.267
-273.547
-201.674
-149.708
-119.056
-102.714
-91.874
-81.385
-69.934
-60.783
-56.132
-54.271
-52.798
-49.151
-42.05
-32.281
-21.081
-9.327
1.936
11.351
18.173
22.086
23.083
21.745
18.66
14.229
9.075
3.954
-0.637
-4.341
-6.968
-8.585
-9.229
-8.907
-7.719
-5.776
-3.19
-0.082
3.452
7.34
11.484
15.769
20.081
24.303
28.332
32.084
35.483
38.483
41.061
43.218
44.976
46.361
47.41
48.171
48.696
49.038
49.25
49.381
49.476
49.582
49.745
50.006
50.404
50.964
51.706
52.64
53.773
55.108
56.645
58.378
60.298
62.395
64.663
67.095
69.689
72.442
75.346
78.39
81.561
84.847
88.232
91.696
95.212
98.753
102.298
105.828
109.333
112.806
116.237
119.615
122.933
126.175
129.328
132.383
135.327
138.148
140.847
143.43
145.92
148.344
150.711
153.018
155.249
157.375
159.372
161.208
162.845
164.251
165.401
166.272
166.859
167.152
167.122
166.731
165.915
164.61
162.782
160.417
157.516
154.102
150.193
145.822
141.043
135.905
130.444
124.687
118.631
112.291
105.712
98.955
92.115
85.282
78.519
71.875
65.388
59.085
52.994
47.127
41.472
36.025
30.796
25.812
21.132
16.79
12.79
9.114
5.716
2.557
-0.385
-3.128
-5.689
-8.081
-10.318
-12.401
-14.311
-16.039
-17.592
-18.992
-20.285
-21.498
-22.638
-23.699
-24.657
-25.497
-26.216
-26.806
-27.26
-27.572
-27.742
-27.779
-27.706
-27.536
-27.278
-26.931
-26.484
-25.935
-25.294
-24.573
-23.791
-22.964
-22.103
-21.222
-20.337
-19.461
-18.603
-17.767
-16.948
-16.149
-15.373
-14.622
-13.904
-13.222
-12.577
-11.969
-11.398
-10.864
-10.366
-9.901
-9.468
-9.064
-8.687
-8.337
-8.017
-7.726
-7.464
-7.23
-7.024
-6.845
-6.694
-6.567
-6.465
-6.385
-6.327
-6.291
-6.275
-6.28
-6.305
-6.349
-6.413
-6.496
-6.598
-6.719
-6.857
-7.013
-7.186
-7.376
-7.581
-7.802
-8.036
-8.284
-8.545
-8.816
-9.098
-9.39
-9.689
-9.995
-10.306
-10.622
-10.941
-11.261
-11.582
-11.903
-12.223
-12.54
-12.854
-13.164
-13.469
-13.769
-14.061
-14.347
-14.625
-14.894
-15.154
-15.406
-15.649
-15.884
-16.111
-16.331
-16.546
-16.755
-16.961
-17.166
-17.37
-17.575
-17.782
-17.993
-18.21
-18.432
-18.662
-18.899
-19.145
-19.399
-19.662
-19.934
-20.215
-20.503
-20.8
-21.102
-21.41
-21.722
-22.036
-22.35
-22.662
-22.971
-23.273
-23.566
-23.846
-24.111
-24.357
-24.579
-24.774
-24.937
-25.064
-25.15
-25.192
-25.185
-25.125
-25.011
-24.838
-24.605
-24.312
-23.957
-23.542
-23.066
-22.531
-21.94
-21.295
-20.598
-19.852
-19.062
-18.229
-17.359
-16.458
-15.53
-14.582
-13.619
-12.65
-11.681
-10.721
-9.776
-8.854
-7.961
-7.104
-6.29
-5.53
-4.836
-4.217
-3.679
-3.23
-2.873
-2.608
-2.433
-2.338
-2.307
-2.326
-2.38
-2.456
-2.546
-2.638
-2.718
-2.771
-2.775
-2.714
-2.574
-2.34
-2.006
-1.574
-1.056
-0.483
0.09
0.613
1.029
1.284
1.337
1.131
0.613
-0.27
-1.583
-3.379
-5.708
-8.626
-12.166
-16.341
-21.137
-26.481
-32.259
-38.342
-44.586
-50.853
-57.003
-62.844
-68.168
-72.744
-76.324
-78.706
-79.619
-78.713
-75.745
-70.59
-63.348
-54.441
-44.316
-33.338
-21.992
-10.826
-0.248
9.518
18.977
29.312
41.606
56.78
75.436
97.86
124.233
154.067
185.225
214.358
237.908
252.128
253.937
240.659
209.354
159.154
92.252
12.023
-77.985
-176.305
-283.32
-395.854
-505.262
-598.195
-661.492
-689.037
-683.202
-653.378
-609.445
-557.878
-501.638
-440.059
-373.964
-306.373
-241.224
-183.974
-138.042
-103.88
-80.878
-67.316
-60.749
-59.363
-60.99
-62.566
-62.186
-59.03
-52.701
-43.716
-33.015
-21.244
-9.507
0.542
8.046
12.687
14.395
13.692
11.126
7.091
2.253
-2.573
-6.875
-10.316
-12.715
-14.146
-14.646
-14.221
-12.978
-11.035
-8.504
-5.498
-2.102
1.624
5.591
9.69
13.812
17.842
21.684
25.257
28.487
31.33
33.764
35.793
37.438
38.724
39.689
40.374
40.832
41.112
41.263
41.333
41.364
41.404
41.497
41.685
42.008
42.492
43.156
44.011
45.065
46.322
47.783
49.444
51.296
53.334
55.555
57.959
60.545
63.306
66.228
69.301
72.507
75.832
79.256
82.753
86.298
89.866
93.437
96.999
100.543
104.054
107.517
110.916
114.239
117.487
120.665
123.773
126.812
129.787
132.708
135.604
138.496
141.397
144.309
147.22
150.113
152.973
155.784
158.52
161.149
163.621
165.881
167.891
169.609
170.994
171.999
172.551
172.59
172.073
170.97
169.27
166.961
164.03
160.468
156.29
151.521
146.202
140.381
134.092
127.372
120.264
112.825
105.133
97.268
89.294
81.268
73.25
65.307
57.519
49.967
42.709
35.791
29.252
23.127
17.46
12.289
7.638
3.519
-0.074
-3.153
-5.725
-7.802
-9.411
-10.595
-11.415
-11.943
-12.235
-12.334
-12.289
-12.146
-11.952
-11.752
-11.577
-11.446
-11.375
-11.377
-11.464
-11.645
-11.915
-12.258
-12.646
-13.044
-13.423
-13.768
-14.06
-14.283
-14.422
-14.469
-14.423
-14.291
-14.079
-13.792
-13.436
-13.016
-12.544
-12.035
-11.508
-10.984
-10.481
-10.01
-9.581
-9.203
-8.881
-8.618
-8.414
-8.261
-8.157
-8.096
-8.078
-8.098
-8.153
-8.237
-8.346
-8.474
-8.617
-8.771
-8.933
-9.099
-9.268
-9.437
-9.605
-9.772
-9.937
-10.1
-10.259
-10.411
-10.557
-10.695
-10.823
-10.94
-11.046
-11.14
-11.221
-11.29
-11.346
-11.391
-11.425
-11.448
-11.462
-11.468
-11.467
-11.46
-11.448
-11.433
-11.415
-11.396
-11.376
-11.356
-11.336
-11.318
-11.302
-11.289
-11.28
-11.274
-11.273
-11.278
-11.288
-11.304
-11.327
-11.356
-11.393
-11.438
-11.492
-11.554
-11.626
-11.709
-11.801
-11.905
-12.02
-12.145
-12.281
-12.428
-12.585
-12.753
-12.932
-13.121
-13.322
-13.533
-13.756
-13.991
-14.238
-14.498
-14.769
-15.053
-15.349
-15.659
-15.98
-16.314
-16.661
-17.021
-17.394
-17.778
-18.173
-18.578
-18.992
-19.412
-19.836
-20.262
-20.687
-21.108
-21.524
-21.932
-22.331
-22.718
-23.092
-23.453
-23.799
-24.127
-24.433
-24.715
-24.966
-25.183
-25.361
-25.494
-25.579
-25.61
-25.585
-25.504
-25.365
-25.164
-24.898
-24.56
-24.146
-23.659
-23.098
-22.468
-21.775
-21.032
-20.256
-19.468
-18.68
-17.901
-17.135
-16.377
-15.624
-14.874
-14.12
-13.364
-12.607
-11.846
-11.085
-10.323
-9.551
-8.753
-7.896
-6.943
-5.877
-4.691
-3.391
-2
-0.538
0.962
2.455
3.912
5.307
6.621
7.855
9.006
10.054
10.976
11.726
12.255
12.538
12.565
12.337
11.881
11.226
10.417
9.526
8.605
7.685
6.786
5.893
4.98
4.043
3.073
2.069
1.046
-0.009
-1.126
-2.337
-3.698
-5.27
-7.124
-9.36
-12.053
-15.24
-18.939
-23.102
-27.635
-32.449
-37.433
-42.468
-47.476
-52.325
-56.824
-60.772
-63.926
-66.039
-66.893
-66.186
-63.541
-58.746
-51.794
-42.937
-32.75
-21.784
-10.399
0.939
11.606
21.29
30.17
39.01
49.303
62.421
78.94
99.233
123.742
152.083
182.681
212.826
238.433
255.197
260.024
250.066
222.146
175.295
111.239
32.845
-55.088
-150.029
-253.482
-363.213
-473.085
-571.856
-643.013
-677.321
-674.044
-639.894
-588.904
-531.409
-472.755
-414.583
-354.772
-293.502
-233.652
-179.289
-134.637
-101.069
-77.838
-63.461
-55.571
-52.391
-52.121
-52.004
-50.261
-46.165
-39.365
-30.337
-19.929
-8.68
2.426
11.858
18.811
22.992
24.353
23.405
20.669
16.516
11.578
6.642
2.215
-1.365
-3.913
-5.494
-6.14
-5.85
-4.723
-2.877
-0.424
2.519
5.862
9.544
13.473
17.538
21.629
25.63
29.445
32.991
36.194
39.013
41.426
43.434
45.061
46.333
47.285
47.963
48.416
48.697
48.854
48.936
48.985
49.05
49.174
49.399
49.765
50.298
51.014
51.927
53.041
54.36
55.887
57.616
59.538
61.646
63.933
66.397
69.04
71.854
74.828
77.949
81.202
84.572
88.044
91.596
95.199
98.827
102.455
106.067
109.656
113.21
116.714
120.154
123.51
126.774
129.951
133.036
136.026
138.918
141.713
144.428
147.093
149.729
152.345
154.937
157.486
159.975
162.391
164.713
166.912
168.954
170.788
172.379
173.706
174.735
175.426
175.724
175.555
174.862
173.61
171.771
169.328
166.273
162.598
158.319
153.466
148.076
142.187
135.831
129.028
121.819
114.262
106.429
98.409
90.285
82.128
74.017
66.042
58.276
50.782
43.606
36.77
30.309
24.264
18.675
13.579
8.998
4.929
1.364
-1.712
-4.326
-6.511
-8.318
-9.824
-11.083
-12.137
-13.019
-13.752
-14.367
-14.913
-15.428
-15.941
-16.474
-17.037
-17.641
-18.302
-19.018
-19.774
-20.543
-21.282
-21.964
-22.576
-23.108
-23.555
-23.908
-24.151
-24.278
-24.294
-24.202
-24.007
-23.713
-23.319
-22.834
-22.276
-21.666
-21.03
-20.387
-19.746
-19.12
-18.514
-17.938
-17.396
-16.892
-16.42
-15.979
-15.568
-15.188
-14.841
-14.524
-14.233
-13.964
-13.712
-13.474
-13.247
-13.031
-12.822
-12.619
-12.423
-12.234
-12.053
-11.882
-11.719
-11.567
-11.423
-11.287
-11.161
-11.042
-10.932
-10.829
-10.735
-10.648
-10.572
-10.504
-10.447
-10.401
-10.367
-10.344
-10.334
-10.337
-10.354
-10.385
-10.431
-10.491
-10.566
-10.656
-10.761
-10.88
-11.014
-11.16
-11.319
-11.49
-11.671
-11.862
-12.062
-12.27
-12.484
-12.704
-12.928
-13.157
-13.388
-13.621
-13.856
-14.091
-14.326
-14.559
-14.79
-15.019
-15.246
-15.47
-15.691
-15.909
-16.124
-16.336
-16.546
-16.753
-16.958
-17.161
-17.361
-17.56
-17.756
-17.95
-18.142
-18.331
-18.517
-18.7
-18.879
-19.054
-19.224
-19.388
-19.545
-19.694
-19.833
-19.962
-20.079
-20.181
-20.267
-20.335
-20.382
-20.406
-20.404
-20.373
-20.31
-20.212
-20.077
-19.9
-19.68
-19.413
-19.098
-18.734
-18.319
-17.852
-17.334
-16.765
-16.148
-15.483
-14.773
-14.019
-13.225
-12.394
-11.529
-10.631
-9.707
-8.76
-7.796
-6.822
-5.843
-4.866
-3.897
-2.944
-2.015
-1.116
-0.253
0.57
1.345
2.063
2.715
3.289
3.779
4.184
4.503
4.733
4.875
4.934
4.921
4.852
4.739
4.592
4.414
4.209
3.987
3.765
3.565
3.403
3.29
3.224
3.211
3.261
3.37
3.532
3.719
3.886
3.997
4.028
3.958
3.765
3.416
2.853
2.01
0.84
-0.692
-2.586
-4.84
-7.488
-10.569
-14.125
-18.142
-22.527
-27.155
-31.949
-36.911
-41.976
-46.905
-51.251
-54.511
-56.396
-56.925
-56.221
-54.121
-50.424
-45.258
-39.243
-33.404
-28.527
-24.594
-21.069
-17.796
-14.849
-11.982
-8.271
-1.869
9.086
25.3
46.444
72.191
102.337
136.256
172.282
207.029
236.315
256.715
265.651
260.729
239.607
200.292
143.104
71.743
-9.384
-96.545
-188.822
-287.015
-387.511
-481.877
-557.704
-603.352
-615.345
-598.212
-562.187
-517.947
-471.468
-424.487
-376.11
-325.456
-274.031
-225.002
-181.695
-146.35
-119.35
-99.649
-85.516
-75.659
-68.849
-63.491
-58.371
-52.308
-44.522
-35.127
-24.634
-13.566
-2.706
6.937
14.735
20.186
23.02
23.467
21.882
18.67
14.439
9.872
5.452
1.55
-1.584
-3.889
-5.317
-5.846
-5.551
-4.543
-2.913
-0.746
1.895
4.958
8.362
12.004
15.776
19.572
23.295
26.865
30.2
33.226
35.897
38.194
40.122
41.706
42.975
43.96
44.699
45.241
45.634
45.926
46.164
46.386
46.634
46.948
47.37
47.938
48.682
49.619
50.764
52.122
53.699
55.494
57.504
59.716
62.121
64.712
67.484
70.438
73.564
76.852
80.287
83.856
87.542
91.325
95.181
99.075
102.981
106.878
110.75
114.589
118.383
122.118
125.78
129.359
132.843
136.229
139.504
142.654
145.677
148.577
151.369
154.085
156.738
159.323
161.833
164.25
166.551
168.719
170.724
172.525
174.092
175.392
176.4
177.099
177.453
177.413
176.921
175.906
174.328
172.169
169.418
166.072
162.144
157.646
152.609
147.085
141.106
134.706
127.922
120.788
113.368
105.747
98.02
90.283
82.611
75.063
67.691
60.543
53.656
47.065
40.787
34.831
29.226
23.998
19.169
14.75
10.723
7.052
3.687
0.586
-2.285
-4.951
-7.434
-9.754
-11.923
-13.954
-15.852
-17.623
-19.292
-20.884
-22.42
-23.91
-25.348
-26.716
-27.987
-29.143
-30.17
-31.057
-31.801
-32.399
-32.857
-33.183
-33.389
-33.481
-33.457
-33.318
-33.061
-32.696
-32.233
-31.692
-31.094
-30.459
-29.805
-29.149
-28.503
-27.876
-27.276
-26.705
-26.162
-25.652
-25.178
-24.744
-24.356
-24.014
-23.72
-23.472
-23.268
-23.105
-22.98
-22.887
-22.825
-22.79
-22.78
-22.793
-22.829
-22.886
-22.963
-23.056
-23.164
-23.283
-23.41
-23.541
-23.673
-23.804
-23.931
-24.051
-24.162
-24.263
-24.351
-24.425
-24.485
-24.527
-24.553
-24.561
-24.551
-24.523
-24.477
-24.413
-24.333
-24.238
-24.128
-24.004
-23.87
-23.725
-23.572
-23.412
-23.247
-23.08
-22.911
-22.745
-22.581
-22.424
-22.275
-22.136
-22.012
-21.903
-21.812
-21.742
-21.694
-21.672
-21.676
-21.708
-21.771
-21.864
-21.988
-22.145
-22.334
-22.556
-22.809
-23.093
-23.406
-23.747
-24.114
-24.504
-24.916
-25.345
-25.79
-26.246
-26.71
-27.179
-27.649
-28.114
-28.571
-29.015
-29.441
-29.845
-30.22
-30.563
-30.868
-31.13
-31.344
-31.505
-31.608
-31.649
-31.622
-31.525
-31.353
-31.105
-30.778
-30.371
-29.884
-29.317
-28.673
-27.953
-27.161
-26.3
-25.374
-24.388
-23.347
-22.256
-21.12
-19.947
-18.743
-17.517
-16.278
-15.033
-13.791
-12.562
-11.356
-10.182
-9.048
-7.963
-6.932
-5.967
-5.075
-4.268
-3.557
-2.949
-2.447
-2.054
-1.773
-1.601
-1.537
-1.566
-1.673
-1.846
-2.074
-2.35
-2.669
-3.015
-3.372
-3.722
-4.045
-4.33
-4.574
-4.762
-4.887
-4.949
-4.952
-4.921
-4.902
-4.923
-5.013
-5.198
-5.497
-5.948
-6.601
-7.513
-8.728
-10.27
-12.149
-14.381
-17.003
-20.067
-23.597
-27.557
-31.849
-36.339
-40.95
-45.704
-50.487
-54.999
-58.903
-61.781
-63.43
-64.01
-63.481
-61.457
-57.801
-52.695
-46.555
-40.324
-34.55
-28.875
-23.168
-17.724
-12.662
-7.829
-2.43
5.392
17.175
33.215
53.498
77.985
106.53
138.569
172.182
203.809
229.333
245.326
249.307
239.193
212.798
168.634
106.999
30.269
-57.254
-150.745
-246.188
-339.28
-424.797
-497.751
-554.088
-591.398
-609.576
-609.369
-591.069
-556.233
-508.096
-450.597
-388.27
-325.075
-263.595
-206.461
-156.919
-116.903
-86.881
-66.361
-53.632
-46.98
-45.196
-46.379
-47.936
-48.125
-46.039
-41.414
-34.879
-27.058
-18.361
-9.718
-2.429
2.709
5.363
5.578
3.869
0.73
-3.455
-8.096
-12.483
-16.122
-18.724
-20.188
-20.611
-20.089
-18.67
-16.464
-13.618
-10.262
-6.521
-2.502
1.734
6.099
10.48
14.766
18.844
22.614
26.022
29.041
31.654
33.872
35.715
37.211
38.401
39.336
40.064
40.633
41.09
41.477
41.841
42.235
42.706
43.303
44.055
44.982
46.097
47.408
48.916
50.623
52.521
54.6
56.853
59.273
61.855
64.592
67.477
70.5
73.649
76.911
80.277
83.734
87.271
90.876
94.535
98.237
101.967
105.713
109.458
113.188
116.883
120.527
124.1
127.586
130.964
134.218
137.33
140.284
143.062
145.651
148.036
150.203
152.14
153.836
155.279
156.461
157.373
158.007
158.358
158.421
158.192
157.669
156.852
155.74
154.335
152.641
150.663
148.407
145.88
143.091
140.049
136.767
133.256
129.531
125.604
121.492
117.211
112.777
108.208
103.521
98.734
93.864
88.929
83.947
78.936
73.912
68.894
63.896
58.937
54.031
49.194
44.441
39.786
35.242
30.821
26.536
22.396
18.412
14.592
10.943
7.473
4.186
1.087
-1.822
-4.537
-7.059
-9.388
-11.525
-13.473
-15.235
-16.814
-18.217
-19.448
-20.514
-21.42
-22.175
-22.786
-23.259
-23.602
-23.824
-23.933
-23.937
-23.844
-23.663
-23.401
-23.068
-22.67
-22.216
-21.713
-21.169
-20.59
-19.985
-19.358
-18.717
-18.067
-17.413
-16.761
-16.114
-15.477
-14.851
-14.242
-13.65
-13.077
-12.525
-11.996
-11.49
-11.008
-10.55
-10.118
-9.71
-9.328
-8.971
-8.64
-8.333
-8.05
-7.792
-7.557
-7.345
-7.156
-6.988
-6.841
-6.714
-6.606
-6.515
-6.44
-6.38
-6.334
-6.299
-6.274
-6.258
-6.25
-6.248
-6.252
-6.26
-6.271
-6.285
-6.3
-6.316
-6.332
-6.347
-6.361
-6.372
-6.38
-6.384
-6.384
-6.379
-6.368
-6.352
-6.328
-6.297
-6.259
-6.213
-6.159
-6.097
-6.029
-5.953
-5.873
-5.788
-5.7
-5.611
-5.522
-5.435
-5.351
-5.274
-5.204
-5.144
-5.095
-5.06
-5.04
-5.037
-5.054
-5.091
-5.151
-5.234
-5.342
-5.476
-5.638
-5.827
-6.045
-6.292
-6.569
-6.875
-7.21
-7.573
-7.964
-8.38
-8.82
-9.283
-9.764
-10.263
-10.774
-11.294
-11.821
-12.348
-12.872
-13.389
-13.893
-14.379
-14.842
-15.277
-15.68
-16.045
-16.368
-16.644
-16.868
-17.037
-17.147
-17.194
-17.174
-17.086
-16.927
-16.695
-16.39
-16.012
-15.561
-15.038
-14.447
-13.79
-13.069
-12.291
-11.457
-10.573
-9.644
-8.676
-7.675
-6.649
-5.604
-4.549
-3.493
-2.443
-1.409
-0.399
0.58
1.519
2.413
3.253
4.033
4.745
5.381
5.934
6.398
6.771
7.051
7.238
7.339
7.359
7.312
7.211
7.068
6.894
6.701
6.503
6.316
6.158
6.043
5.988
6.001
6.092
6.269
6.534
6.876
7.276
7.701
8.105
8.451
8.698
8.805
8.716
8.359
7.673
6.605
5.126
3.238
0.914
-1.885
-5.207
-9.083
-13.477
-18.264
-23.35
-28.704
-34.208
-39.664
-44.665
-48.583
-51.024
-51.892
-51.176
-48.858
-44.919
-39.401
-32.892
-26.632
-21.545
-17.944
-15.657
-14.17
-13.187
-12.469
-10.948
-6.549
2.697
18.226
40.357
68.266
101.527
138.679
177.049
214.052
245.612
269.381
284.264
285.566
269.383
231.256
168.254
86.806
-5.987
-104.009
-203.024
-305.94
-411.705
-512.652
-597.321
-651.908
-669.975
-655.288
-617.978
-569.133
-516.33
-461.64
-403.214
-341.067
-277.308
-215.611
-161.497
-118.02
-85.334
-63.008
-49.611
-43.099
-42.069
-44.427
-47.058
-48.08
-46.665
-42.319
-35.417
-26.677
-16.556
-6.1
3.028
9.935
14.268
15.941
15.446
13.288
9.799
5.592
1.459
-2.109
-4.8
-6.453
-7.174
-7.03
-6.042
-4.323
-2.006
0.801
3.98
7.443
11.135
14.968
18.842
22.668
26.344
29.791
32.944
35.746
38.168
40.205
41.866
43.176
44.165
44.865
45.323
45.587
45.707
45.729
45.698
45.656
45.648
45.716
45.898
46.229
46.733
47.426
48.319
49.417
50.719
52.225
53.931
55.83
57.922
60.203
62.666
65.304
68.106
71.061
74.15
77.353
80.639
83.979
87.352
90.742
94.14
97.535
100.918
104.275
107.596
110.877
114.117
117.311
120.45
123.528
126.545
129.516
132.473
135.438
138.419
141.407
144.381
147.322
150.204
152.995
155.65
158.111
160.321
162.24
163.836
165.081
165.935
166.341
166.232
165.552
164.272
162.38
159.879
156.774
153.085
148.85
144.13
139.007
133.552
127.819
121.852
115.692
109.393
103.02
96.65
90.339
84.134
78.07
72.179
66.491
61.024
55.776
50.729
45.849
41.118
36.528
32.082
27.782
23.627
19.609
15.721
11.965
8.344
4.861
1.517
-1.689
-4.754
-7.664
-10.4
-12.938
-15.265
-17.374
-19.263
-20.933
-22.385
-23.621
-24.649
-25.48
-26.125
-26.595
-26.897
-27.04
-27.034
-26.892
-26.63
-26.262
-25.802
-25.263
-24.657
-23.996
-23.292
-22.555
-21.793
-21.013
-20.223
-19.432
-18.646
-17.874
-17.122
-16.397
-15.702
-15.044
-14.427
-13.854
-13.327
-12.847
-12.415
-12.031
-11.695
-11.407
-11.165
-10.967
-10.812
-10.697
-10.62
-10.578
-10.567
-10.586
-10.63
-10.698
-10.784
-10.887
-11.004
-11.13
-11.263
-11.402
-11.542
-11.682
-11.819
-11.951
-12.077
-12.196
-12.304
-12.403
-12.49
-12.566
-12.63
-12.683
-12.725
-12.756
-12.778
-12.791
-12.798
-12.798
-12.794
-12.786
-12.777
-12.767
-12.758
-12.752
-12.749
-12.752
-12.76
-12.775
-12.799
-12.833
-12.877
-12.932
-13
-13.08
-13.174
-13.282
-13.404
-13.54
-13.692
-13.858
-14.039
-14.234
-14.443
-14.666
-14.903
-15.152
-15.413
-15.687
-15.971
-16.266
-16.571
-16.885
-17.208
-17.54
-17.88
-18.228
-18.583
-18.945
-19.315
-19.691
-20.072
-20.459
-20.851
-21.246
-21.644
-22.043
-22.442
-22.841
-23.236
-23.627
-24.013
-24.391
-24.759
-25.116
-25.46
-25.788
-26.099
-26.389
-26.657
-26.899
-27.114
-27.297
-27.447
-27.561
-27.634
-27.666
-27.651
-27.587
-27.472
-27.302
-27.075
-26.788
-26.441
-26.031
-25.559
-25.023
-24.425
-23.766
-23.048
-22.274
-21.447
-20.571
-19.65
-18.688
-17.691
-16.662
-15.608
-14.534
-13.446
-12.352
-11.257
-10.169
-9.096
-8.046
-7.028
-6.047
-5.112
-4.229
-3.406
-2.648
-1.964
-1.36
-0.841
-0.414
-0.084
0.147
0.277
0.308
0.246
0.098
-0.125
-0.408
-0.742
-1.114
-1.51
-1.916
-2.316
-2.695
-3.038
-3.332
-3.562
-3.714
-3.778
-3.746
-3.622
-3.422
-3.169
-2.896
-2.635
-2.42
-2.29
-2.298
-2.509
-2.977
-3.747
-4.838
-6.267
-8.076
-10.329
-13.097
-16.405
-20.211
-24.41
-28.923
-33.741
-38.784
-43.812
-48.382
-52.001
-54.38
-55.53
-55.547
-54.25
-51.417
-47.119
-41.913
-36.722
-32.217
-28.347
-24.614
-20.914
-17.364
-13.836
-9.616
-2.988
7.829
23.647
44.647
70.163
98.76
129.535
160.824
192.047
224.878
258.031
288.176
307.041
300.57
260.893
187.885
90.136
-16.25
-121.075
-222.433
-322.796
-424.731
-522.982
-604.553
-656.662
-672.962
-656.183
-616.72
-565.749
-510.689
-454.428
-396.036
-335.123
-273.367
-214.268
-162.816
-121.772
-91.233
-70.229
-56.827
-49.365
-46.784
-47.167
-47.756
-46.755
-43.337
-37.317
-29.33
-19.97
-9.579
0.89
9.955
16.7
20.723
22.013
21.113
18.52
14.572
9.859
5.123
0.89
-2.466
-4.758
-6.05
-6.4
-5.837
-4.473
-2.43
0.184
3.262
6.719
10.49
14.488
18.625
22.82
26.994
31.06
34.914
38.459
41.634
44.413
46.801
48.815
50.47
51.789
52.811
53.581
54.151
54.565
54.85
55.025
55.111
55.143
55.177
55.272
55.473
55.806
56.29
56.937
57.765
58.786
59.994
61.383
62.945
64.68
66.597
68.704
71.005
73.5
76.173
79.006
81.982
85.082
88.289
91.592
94.973
98.419
101.925
105.478
109.065
112.669
116.268
119.846
123.389
126.877
130.291
133.62
136.849
139.969
142.977
145.845
148.547
151.062
153.36
155.428
157.254
158.821
160.116
161.121
161.819
162.204
162.27
162.004
161.394
160.427
159.085
157.385
155.346
152.981
150.307
147.334
144.069
140.53
136.737
132.705
128.455
123.999
119.351
114.54
109.592
104.538
99.411
94.219
88.972
83.687
78.375
73.056
67.753
62.476
57.239
52.062
46.964
41.964
37.083
32.329
27.711
23.239
18.916
14.759
10.782
6.993
3.401
0.012
-3.169
-6.136
-8.884
-11.414
-13.729
-15.833
-17.73
-19.424
-20.917
-22.215
-23.324
-24.253
-25.01
-25.604
-26.045
-26.342
-26.507
-26.551
-26.486
-26.322
-26.068
-25.735
-25.333
-24.871
-24.36
-23.809
-23.225
-22.617
-21.994
-21.361
-20.727
-20.097
-19.475
-18.868
-18.28
-17.714
-17.173
-16.661
-16.179
-15.729
-15.313
-14.932
-14.587
-14.276
-14.001
-13.76
-13.553
-13.377
-13.231
-13.113
-13.022
-12.954
-12.907
-12.879
-12.868
-12.872
-12.888
-12.914
-12.949
-12.991
-13.039
-13.09
-13.145
-13.201
-13.259
-13.317
-13.376
-13.434
-13.491
-13.547
-13.602
-13.655
-13.706
-13.756
-13.803
-13.849
-13.893
-13.935
-13.975
-14.014
-14.053
-14.091
-14.129
-14.169
-14.21
-14.252
-14.297
-14.345
-14.396
-14.45
-14.507
-14.567
-14.63
-14.695
-14.762
-14.831
-14.901
-14.971
-15.041
-15.111
-15.181
-15.25
-15.318
-15.386
-15.452
-15.518
-15.584
-15.649
-15.714
-15.78
-15.846
-15.913
-15.983
-16.056
-16.132
-16.213
-16.298
-16.389
-16.486
-16.591
-16.704
-16.825
-16.956
-17.097
-17.251
-17.417
-17.596
-17.789
-17.997
-18.219
-18.454
-18.702
-18.96
-19.228
-19.506
-19.79
-20.08
-20.374
-20.671
-20.971
-21.273
-21.575
-21.874
-22.165
-22.445
-22.709
-22.952
-23.168
-23.352
-23.496
-23.598
-23.656
-23.666
-23.626
-23.529
-23.369
-23.142
-22.846
-22.484
-22.055
-21.563
-21.013
-20.418
-19.796
-19.166
-18.539
-17.921
-17.31
-16.706
-16.11
-15.523
-14.947
-14.372
-13.788
-13.188
-12.568
-11.921
-11.236
-10.489
-9.643
-8.667
-7.543
-6.268
-4.852
-3.304
-1.634
0.138
1.988
3.872
5.748
7.583
9.35
11.026
12.581
13.969
15.134
16.029
16.623
16.904
16.871
16.521
15.863
14.912
13.699
12.274
10.687
8.974
7.158
5.255
3.283
1.264
-0.776
-2.823
-4.88
-6.96
-9.085
-11.279
-13.568
-15.985
-18.572
-21.375
-24.434
-27.768
-31.354
-35.147
-39.088
-43.101
-47.12
-51.052
-54.748
-58.041
-60.728
-62.593
-63.46
-63.09
-61.166
-57.471
-51.896
-44.558
-35.875
-26.272
-16.082
-5.758
4.185
13.374
21.645
29.577
38.427
49.314
63.15
80.574
101.919
127.403
156.515
186.976
215.284
237.84
250.899
251.35
236.504
203.302
150.983
82.381
1.375
-88.322
-185.49
-291.449
-403.615
-512.688
-604.116
-663.993
-686.095
-674.12
-639.718
-593.747
-542.736
-489.437
-431.997
-369.621
-304.488
-239.516
-179.335
-128.434
-88.304
-58.515
-38.01
-25.236
-18.887
-18.052
-20.8
-24.167
-26.291
-26.353
-24.025
-19.764
-14
-6.9
0.636
7.099
11.614
13.84
13.804
12.066
9.095
5.188
0.92
-2.964
-5.966
-7.81
-8.424
-7.988
-6.64
-4.453
-1.562
1.876
5.719
9.833
14.115
18.505
22.919
27.254
31.405
35.27
38.762
41.838
44.48
46.692
48.496
49.926
51.018
51.815
52.37
52.732
52.95
53.07
53.132
53.183
53.266
53.428
53.711
54.142
54.739
55.511
56.465
57.603
58.925
60.427
62.101
63.94
65.939
68.089
70.389
72.832
75.411
78.124
80.963
83.917
86.978
90.134
93.368
96.661
99.988
103.319
106.635
109.918
113.152
116.332
119.448
122.492
125.458
128.334
131.107
133.772
136.316
138.731
141.021
143.194
145.272
147.286
149.245
151.153
153.002
154.767
156.42
157.93
159.247
160.338
161.174
161.726
161.977
161.915
161.51
160.731
159.534
157.865
155.694
153.007
149.798
146.089
141.912
137.31
132.354
127.106
121.613
115.926
110.075
104.093
98.022
91.908
85.803
79.77
73.858
68.106
62.552
57.212
52.092
47.188
42.474
37.928
33.538
29.301
25.218
21.297
17.539
13.944
10.514
7.241
4.121
1.15
-1.68
-4.368
-6.908
-9.292
-11.501
-13.52
-15.342
-16.962
-18.382
-19.607
-20.642
-21.495
-22.179
-22.704
-23.078
-23.311
-23.409
-23.382
-23.24
-22.995
-22.661
-22.252
-21.779
-21.253
-20.687
-20.088
-19.467
-18.829
-18.181
-17.527
-16.874
-16.227
-15.59
-14.97
-14.37
-13.794
-13.245
-12.728
-12.242
-11.791
-11.374
-10.993
-10.646
-10.333
-10.054
-9.808
-9.592
-9.407
-9.25
-9.12
-9.014
-8.933
-8.873
-8.832
-8.809
-8.802
-8.809
-8.828
-8.858
-8.897
-8.945
-9.001
-9.064
-9.132
-9.207
-9.287
-9.371
-9.461
-9.554
-9.652
-9.755
-9.861
-9.973
-10.089
-10.211
-10.338
-10.472
-10.612
-10.759
-10.914
-11.075
-11.243
-11.419
-11.602
-11.792
-11.99
-12.194
-12.406
-12.624
-12.849
-13.081
-13.318
-13.561
-13.808
-14.06
-14.315
-14.573
-14.833
-15.096
-15.359
-15.624
-15.888
-16.153
-16.417
-16.68
-16.942
-17.203
-17.463
-17.722
-17.979
-18.236
-18.493
-18.749
-19.006
-19.264
-19.522
-19.782
-20.045
-20.309
-20.576
-20.846
-21.119
-21.395
-21.674
-21.956
-22.242
-22.531
-22.822
-23.116
-23.411
-23.706
-24
-24.292
-24.581
-24.864
-25.14
-25.407
-25.663
-25.905
-26.131
-26.338
-26.523
-26.683
-26.815
-26.916
-26.984
-27.014
-27.004
-26.953
-26.856
-26.711
-26.516
-26.271
-25.971
-25.617
-25.207
-24.741
-24.217
-23.638
-23.002
-22.313
-21.571
-20.781
-19.945
-19.069
-18.155
-17.21
-16.237
-15.243
-14.233
-13.211
-12.185
-11.158
-10.139
-9.134
-8.15
-7.196
-6.278
-5.403
-4.577
-3.808
-3.102
-2.46
-1.886
-1.385
-0.962
-0.627
-0.384
-0.236
-0.185
-0.228
-0.363
-0.581
-0.871
-1.212
-1.586
-1.977
-2.37
-2.755
-3.122
-3.452
-3.726
-3.92
-4.01
-3.985
-3.836
-3.549
-3.126
-2.587
-1.964
-1.314
-0.695
-0.153
0.264
0.509
0.529
0.261
-0.361
-1.4
-2.92
-4.972
-7.593
-10.822
-14.656
-19.033
-23.863
-29.011
-34.335
-39.735
-45.075
-50.172
-54.819
-58.773
-61.789
-63.66
-64.109
-62.779
-59.433
-54.013
-46.704
-38.011
-28.461
-18.427
-8.365
1.114
9.667
17.437
25.132
34.174
45.952
61.125
80.113
103.426
130.841
160.919
191.083
217.382
235.516
242.353
235.065
210.354
166.906
106.229
30.99
-54.175
-146.692
-248.431
-357.768
-468.654
-569.618
-643.909
-681.734
-682.237
-652.369
-605.563
-551.495
-495.414
-438.859
-379.284
-316.768
-253.647
-193.347
-141.394
-100.576
-70.644
-50.712
-38.844
-33.271
-33.005
-36.104
-39.626
-41.669
-41.348
-38.37
-33.317
-26.756
-18.977
-10.907
-4.01
0.858
3.369
3.571
2.037
-0.722
-4.362
-8.293
-11.774
-14.338
-15.731
-15.889
-14.985
-13.153
-10.464
-7.063
-3.119
1.218
5.804
10.53
15.33
20.103
24.733
29.106
33.112
36.681
39.786
42.415
44.577
46.296
47.605
48.547
49.177
49.546
49.706
49.708
49.6
49.435
49.267
49.15
49.139
49.271
49.571
50.058
50.741
51.626
52.717
54.011
55.503
57.187
59.063
61.125
63.374
65.802
68.403
71.168
74.086
77.149
80.345
83.666
87.1
90.635
94.26
97.96
101.723
105.533
109.372
113.223
117.065
120.879
124.646
128.344
131.955
135.456
138.83
142.057
145.119
147.999
150.679
153.143
155.375
157.362
159.091
160.55
161.727
162.613
163.201
163.484
163.457
163.115
162.458
161.484
160.195
158.593
156.684
154.471
151.964
149.171
146.101
142.767
139.181
135.357
131.311
127.058
122.615
118.001
113.232
108.329
103.31
98.195
93.003
87.754
82.468
77.163
71.86
66.578
61.334
56.148
51.037
46.017
41.104
36.314
31.66
27.157
22.815
18.646
14.659
10.863
7.265
3.87
0.684
-2.291
-5.053
-7.6
-9.934
-12.056
-13.969
-15.677
-17.185
-18.499
-19.625
-20.571
-21.345
-21.955
-22.411
-22.723
-22.899
-22.951
-22.889
-22.723
-22.465
-22.124
-21.711
-21.236
-20.709
-20.141
-19.539
-18.913
-18.272
-17.622
-16.972
-16.327
-15.693
-15.076
-14.48
-13.91
-13.367
-12.856
-12.377
-11.933
-11.524
-11.15
-10.813
-10.51
-10.241
-10.006
-9.802
-9.628
-9.483
-9.363
-9.267
-9.193
-9.137
-9.099
-9.074
-9.062
-9.059
-9.064
-9.074
-9.087
-9.103
-9.119
-9.134
-9.148
-9.159
-9.168
-9.175
-9.178
-9.18
-9.179
-9.177
-9.176
-9.174
-9.175
-9.179
-9.187
-9.2
-9.221
-9.249
-9.287
-9.336
-9.397
-9.47
-9.558
-9.661
-9.78
-9.916
-10.07
-10.243
-10.435
-10.647
-10.879
-11.131
-11.404
-11.696
-12.008
-12.34
-12.689
-13.056
-13.44
-13.84
-14.255
-14.683
-15.124
-15.576
-16.039
-16.51
-16.989
-17.475
-17.966
-18.461
-18.959
-19.459
-19.961
-20.461
-20.961
-21.457
-21.949
-22.436
-22.915
-23.385
-23.844
-24.291
-24.723
-25.14
-25.539
-25.919
-26.277
-26.614
-26.926
-27.212
-27.469
-27.698
-27.895
-28.058
-28.186
-28.276
-28.328
-28.337
-28.304
-28.225
-28.099
-27.924
-27.698
-27.42
-27.088
-26.702
-26.261
-25.764
-25.213
-24.608
-23.951
-23.243
-22.486
-21.685
-20.843
-19.964
-19.051
-18.108
-17.141
-16.155
-15.155
-14.146
-13.132
-12.118
-11.11
-10.114
-9.137
-8.185
-7.263
-6.376
-5.532
-4.737
-3.999
-3.322
-2.707
-2.156
-1.673
-1.265
-0.939
-0.695
-0.53
-0.443
-0.43
-0.487
-0.61
-0.782
-0.986
-1.201
-1.408
-1.599
-1.768
-1.906
-2
-2.028
-1.971
-1.823
-1.585
-1.251
-0.827
-0.319
0.256
0.849
1.408
1.873
2.177
2.266
2.102
1.653
0.894
-0.223
-1.784
-3.862
-6.509
-9.743
-13.508
-17.775
-22.561
-27.768
-33.169
-38.36
-42.866
-46.399
-48.958
-50.591
-51.176
-50.568
-48.755
-46.196
-43.648
-41.553
-39.863
-38.129
-36.074
-33.703
-31.002
-27.328
-21.451
-12.159
1.37
19.168
41.118
67.254
97.48
130.982
165.803
198.964
227.06
247.193
256.616
252.515
232.185
193.514
136.805
65.242
-17.064
-106.524
-201.959
-303.197
-406.409
-503.447
-582.136
-631.056
-645.892
-629.731
-591.828
-542.585
-489.006
-434.098
-377.393
-318.74
-259.815
-203.932
-155.795
-117.911
-90.163
-71.426
-59.688
-53.237
-51.02
-51.229
-51.303
-49.633
-45.555
-39.007
-30.689
-21.23
-10.975
-0.808
7.928
14.433
18.388
19.844
19.352
17.401
14.316
10.647
7.066
4.045
1.899
0.759
0.526
1.124
2.511
4.587
7.242
10.371
13.86
17.621
21.59
25.682
29.803
33.856
37.738
41.359
44.642
47.536
50.023
52.102
53.793
55.12
56.112
56.81
57.264
57.523
57.636
57.648
57.598
57.532
57.496
57.536
57.695
58.004
58.48
59.14
59.992
61.043
62.298
63.757
65.411
67.255
69.288
71.507
73.915
76.509
79.277
82.209
85.292
88.51
91.848
95.287
98.801
102.364
105.955
109.551
113.142
116.713
120.248
123.729
127.138
130.462
133.698
136.85
139.915
142.899
145.806
148.646
151.448
154.226
156.992
159.753
162.5
165.217
167.893
170.511
173.054
175.498
177.801
179.911
181.781
183.358
184.589
185.422
185.78
185.603
184.84
183.44
181.382
178.657
175.254
171.174
166.429
161.02
154.986
148.386
141.272
133.719
125.799
117.584
109.174
100.668
92.162
83.76
75.541
67.564
59.894
52.586
45.69
39.271
33.364
27.976
23.116
18.773
14.933
11.586
8.695
6.207
4.066
2.201
0.557
-0.896
-2.201
-3.391
-4.506
-5.598
-6.702
-7.829
-8.994
-10.202
-11.458
-12.772
-14.134
-15.52
-16.9
-18.236
-19.503
-20.69
-21.786
-22.78
-23.661
-24.413
-25.029
-25.514
-25.873
-26.11
-26.23
-26.232
-26.127
-25.934
-25.675
-25.372
-25.043
-24.697
-24.343
-23.99
-23.644
-23.312
-22.995
-22.69
-22.396
-22.114
-21.843
-21.587
-21.342
-21.106
-20.875
-20.644
-20.411
-20.174
-19.933
-19.685
-19.432
-19.173
-18.91
-18.647
-18.384
-18.123
-17.865
-17.61
-17.359
-17.113
-16.874
-16.641
-16.416
-16.201
-15.996
-15.804
-15.627
-15.467
-15.325
-15.204
-15.105
-15.03
-14.981
-14.961
-14.97
-15.011
-15.086
-15.195
-15.34
-15.521
-15.74
-15.995
-16.287
-16.615
-16.978
-17.374
-17.803
-18.264
-18.753
-19.27
-19.812
-20.377
-20.963
-21.568
-22.187
-22.818
-23.457
-24.101
-24.747
-25.391
-26.029
-26.657
-27.272
-27.87
-28.445
-28.995
-29.515
-30
-30.447
-30.852
-31.211
-31.522
-31.78
-31.984
-32.13
-32.217
-32.243
-32.206
-32.105
-31.939
-31.708
-31.411
-31.05
-30.626
-30.141
-29.597
-28.997
-28.347
-27.648
-26.907
-26.127
-25.312
-24.468
-23.599
-22.71
-21.807
-20.896
-19.982
-19.073
-18.175
-17.296
-16.443
-15.623
-14.84
-14.101
-13.411
-12.776
-12.2
-11.69
-11.248
-10.883
-10.598
-10.395
-10.277
-10.241
-10.28
-10.385
-10.545
-10.742
-10.964
-11.195
-11.42
-11.625
-11.793
-11.91
-11.966
-11.946
-11.836
-11.628
-11.314
-10.893
-10.377
-9.789
-9.164
-8.55
-7.992
-7.541
-7.249
-7.177
-7.397
-7.968
-8.933
-10.316
-12.132
-14.413
-17.211
-20.583
-24.537
-29.016
-33.899
-39.08
-44.521
-50.121
-55.626
-60.586
-64.489
-67.026
-68.188
-68.058
-66.474
-63.232
-58.414
-52.624
-46.874
-41.938
-37.856
-34.154
-30.647
-27.444
-24.457
-20.781
-14.425
-3.393
13.161
35.034
60.927
89.907
122.357
156.645
191.225
223.823
247.875
259.505
254.14
226.037
176.989
109.479
28.441
-57.686
-146.905
-237.506
-327.757
-416.435
-495.068
-556.559
-596.081
-609.827
-602.42
-578.099
-540.414
-495.413
-444.75
-390.622
-336.072
-282.172
-231.85
-187.911
-151.627
-123.712
-103.409
-88.904
-78.923
-72.19
-67.04
-62.246
-56.628
-49.387
-40.59
-30.762
-20.42
-10.314
-1.435
5.624
10.398
12.64
12.605
10.673
7.258
2.96
-1.539
-5.761
-9.334
-12.005
-13.746
-14.539
-14.394
-13.41
-11.708
-9.393
-6.568
-3.319
0.291
4.165
8.197
12.283
16.31
20.18
23.806
27.106
30.028
32.552
34.674
36.414
37.8
38.867
39.658
40.224
40.616
40.884
41.076
41.235
41.41
41.645
41.982
42.461
43.11
43.946
44.984
46.231
47.689
49.362
51.244
53.329
55.611
58.083
60.736
63.563
66.555
69.7
72.994
76.424
79.979
83.642
87.4
91.236
95.132
99.064
102.999
106.907
110.761
114.541
118.234
121.826
125.302
128.644
131.838
134.88
137.772
140.512
143.092
145.507
147.754
149.851
151.834
153.733
155.563
157.324
159.006
160.606
162.124
163.551
164.86
165.998
166.912
167.564
167.927
167.976
167.676
166.962
165.755
163.993
161.644
158.688
155.115
150.902
146.025
140.488
134.334
127.643
120.497
112.961
105.092
96.955
88.638
80.257
71.933
63.76
55.806
48.134
40.808
33.911
27.527
21.708
16.463
11.771
7.608
3.965
0.827
-1.835
-4.078
-5.981
-7.612
-9.014
-10.214
-11.239
-12.129
-12.938
-13.722
-14.512
-15.319
-16.139
-16.973
-17.826
-18.697
-19.571
-20.414
-21.182
-21.847
-22.4
-22.842
-23.169
-23.377
-23.453
-23.386
-23.181
-22.846
-22.388
-21.816
-21.133
-20.351
-19.49
-18.576
-17.641
-16.704
-15.778
-14.875
-14.002
-13.17
-12.386
-11.656
-10.979
-10.356
-9.789
-9.281
-8.836
-8.454
-8.132
-7.864
-7.646
-7.473
-7.342
-7.248
-7.19
-7.162
-7.163
-7.191
-7.245
-7.324
-7.425
-7.544
-7.677
-7.822
-7.975
-8.133
-8.292
-8.448
-8.6
-8.745
-8.881
-9.006
-9.12
-9.22
-9.307
-9.379
-9.436
-9.479
-9.507
-9.523
-9.525
-9.517
-9.5
-9.475
-9.445
-9.411
-9.375
-9.339
-9.306
-9.278
-9.255
-9.24
-9.236
-9.244
-9.266
-9.305
-9.362
-9.439
-9.539
-9.663
-9.813
-9.989
-10.193
-10.425
-10.685
-10.973
-11.289
-11.63
-11.995
-12.384
-12.794
-13.222
-13.666
-14.123
-14.59
-15.063
-15.54
-16.015
-16.486
-16.947
-17.397
-17.829
-18.241
-18.628
-18.986
-19.311
-19.599
-19.845
-20.045
-20.196
-20.293
-20.331
-20.309
-20.223
-20.07
-19.849
-19.558
-19.197
-18.768
-18.27
-17.707
-17.079
-16.39
-15.643
-14.842
-13.991
-13.093
-12.154
-11.179
-10.173
-9.145
-8.101
-7.048
-5.993
-4.944
-3.909
-2.897
-1.915
-0.968
-0.064
0.788
1.581
2.302
2.943
3.499
3.968
4.346
4.635
4.836
4.954
5.005
5.001
4.955
4.877
4.773
4.652
4.528
4.415
4.332
4.291
4.297
4.353
4.467
4.637
4.86
5.116
5.373
5.595
5.747
5.796
5.713
5.463
5.007
4.3
3.299
1.967
0.272
-1.812
-4.315
-7.262
-10.657
-14.485
-18.702
-23.237
-27.996
-32.878
-37.764
-42.534
-47.086
-51.278
-54.941
-57.891
-59.919
-60.831
-60.452
-58.557
-54.857
-49.199
-41.63
-32.439
-22.198
-11.467
-0.652
9.784
19.236
27.383
34.437
41.21
49.186
59.785
73.726
91.483
113.554
139.633
168.19
196.446
220.322
235.707
239.439
228.544
200.254
152.974
87.617
8.085
-81.33
-176.661
-275.38
-376.501
-473.674
-557.172
-618.339
-648.442
-647.061
-621.207
-577.188
-523.413
-465.247
-402.776
-338.218
-273.699
-211.774
-157.683
-114.446
-82.408
-61.112
-48.78
-43.018
-42.188
-44.256
-46.267
-46.4
-43.909
-38.443
-30.514
-20.994
-10.426
0.186
9.276
16.021
20.129
21.554
20.82
18.458
14.817
10.505
6.284
2.635
-0.118
-1.831
-2.61
-2.519
-1.585
0.089
2.386
5.193
8.389
11.883
15.614
19.493
23.426
27.308
31.027
34.492
37.622
40.367
42.709
44.64
46.176
47.34
48.16
48.676
48.943
49.01
48.926
48.74
48.495
48.239
48.025
47.899
47.904
48.069
48.413
48.947
49.681
50.617
51.757
53.095
54.622
56.332
58.22
60.279
62.507
64.894
67.431
70.108
72.913
75.836
78.867
81.993
85.204
88.486
91.827
95.213
98.631
102.066
105.501
108.919
112.302
115.632
118.891
122.061
125.125
128.065
130.865
133.509
135.983
138.272
140.362
142.242
143.898
145.321
146.5
147.426
148.092
148.49
148.616
148.465
148.033
147.32
146.324
145.048
143.492
141.662
139.561
137.196
134.576
131.708
128.603
125.272
121.728
117.983
114.051
109.947
105.686
101.284
96.757
92.122
87.396
82.594
77.735
72.836
67.912
62.982
58.061
53.167
48.314
43.52
38.798
34.164
29.632
25.213
20.921
16.767
12.761
8.912
5.228
1.717
-1.616
-4.765
-7.727
-10.499
-13.079
-15.467
-17.663
-19.668
-21.485
-23.116
-24.566
-25.839
-26.94
-27.876
-28.651
-29.275
-29.753
-30.093
-30.304
-30.393
-30.37
-30.243
-30.021
-29.712
-29.325
-28.869
-28.352
-27.782
-27.167
-26.514
-25.831
-25.124
-24.4
-23.664
-22.922
-22.18
-21.441
-20.711
-19.992
-19.289
-18.603
-17.939
-17.297
-16.681
-16.092
-15.531
-15
-14.499
-14.029
-13.591
-13.184
-12.809
-12.465
-12.152
-11.87
-11.619
-11.396
-11.203
-11.038
-10.901
-10.791
-10.707
-10.647
-10.613
-10.602
-10.613
-10.647
-10.702
-10.778
-10.873
-10.988
-11.121
-11.271
-11.438
-11.621
-11.817
-12.027
-12.249
-12.481
-12.724
-12.975
-13.234
-13.5
-13.771
-14.047
-14.326
-14.608
-14.89
-15.172
-15.453
-15.732
-16.008
-16.28
-16.549
-16.813
-17.074
-17.33
-17.581
-17.828
-18.07
-18.307
-18.539
-18.766
-18.989
-19.207
-19.421
-19.631
-19.839
-20.044
-20.247
-20.448
-20.646
-20.841
-21.033
-21.22
-21.403
-21.579
-21.751
-21.916
-22.077
-22.232
-22.382
-22.526
-22.664
-22.794
-22.913
-23.016
-23.1
-23.16
-23.192
-23.192
-23.159
-23.089
-22.98
-22.831
-22.642
-22.41
-22.132
-21.801
-21.412
-20.965
-20.463
-19.911
-19.317
-18.691
-18.04
-17.379
-16.717
-16.06
-15.408
-14.752
-14.083
-13.399
-12.701
-12
-11.303
-10.609
-9.916
-9.222
-8.515
-7.788
-7.025
-6.198
-5.289
-4.292
-3.211
-2.069
-0.889
0.312
1.524
2.743
3.96
5.16
6.327
7.448
8.504
9.472
10.32
11.003
11.486
11.744
11.769
11.564
11.133
10.487
9.631
8.575
7.336
5.927
4.364
2.664
0.839
-1.093
-3.112
-5.21
-7.377
-9.599
-11.862
-14.122
-16.346
-18.557
-20.775
-23.054
-25.453
-27.934
-30.489
-33.189
-35.967
-38.691
-41.13
-42.752
-43.096
-42.061
-39.559
-35.622
-30.616
-24.767
-18.563
-13.187
-9.667
-8.512
-9.935
-13.445
-17.92
-22.635
-26.593
-27.894
-24.542
-14.764
2.604
27.402
58.275
94.068
133.495
174.173
212.77
245.175
267.434
276.784
271.843
251.133
212.922
156.587
84.071
0.047
-90.521
-183.833
-279.665
-378.891
-477.624
-567.874
-637.694
-675.539
-678.251
-650.961
-603.196
-545.138
-482.085
-412.739
-337.369
-260.278
-188.103
-131.436
-94.779
-73.774
-63.184
-56.167
-49.146
-44.447
-42.685
-42.751
-43.264
-41.644
-36.782
-29.356
-20.293
-10.504
-1.077
6.703
12.111
14.85
14.945
12.992
9.584
5.135
0.261
-4.314
-8.123
-10.858
-12.403
-12.885
-12.4
-10.999
-8.801
-5.94
-2.544
1.25
5.336
9.639
14.065
18.495
22.814
26.901
30.654
34.011
36.941
39.432
41.493
43.143
44.41
45.336
45.974
46.375
46.591
46.672
46.665
46.621
46.594
46.637
46.8
47.116
47.606
48.285
49.162
50.24
51.522
53.003
54.674
56.528
58.562
60.77
63.148
65.69
68.386
71.226
74.2
77.296
80.505
83.817
87.22
90.702
94.251
97.855
101.502
105.176
108.863
112.543
116.202
119.819
123.378
126.86
130.248
133.523
136.668
139.668
142.506
145.166
147.635
149.898
151.941
153.754
155.323
156.639
157.693
158.476
158.982
159.204
159.138
158.782
158.133
157.19
155.956
154.432
152.622
150.531
148.165
145.532
142.64
139.499
136.121
132.516
128.698
124.68
120.478
116.105
111.579
106.916
102.131
97.243
92.269
87.226
82.132
77.005
71.862
66.722
61.6
56.515
51.482
46.519
41.639
36.859
32.192
27.651
23.248
18.995
14.902
10.978
7.231
3.668
0.296
-2.881
-5.859
-8.635
-11.208
-13.577
-15.742
-17.706
-19.471
-21.041
-22.419
-23.612
-24.626
-25.467
-26.143
-26.662
-27.032
-27.263
-27.364
-27.344
-27.215
-26.986
-26.667
-26.269
-25.8
-25.272
-24.694
-24.074
-23.422
-22.747
-22.055
-21.356
-20.656
-19.962
-19.279
-18.615
-17.972
-17.357
-16.773
-16.223
-15.71
-15.235
-14.801
-14.409
-14.059
-13.751
-13.486
-13.261
-13.077
-12.931
-12.822
-12.747
-12.705
-12.692
-12.707
-12.746
-12.806
-12.886
-12.983
-13.093
-13.215
-13.346
-13.485
-13.628
-13.775
-13.923
-14.072
-14.22
-14.365
-14.508
-14.646
-14.78
-14.909
-15.033
-15.152
-15.266
-15.374
-15.477
-15.576
-15.671
-15.763
-15.852
-15.939
-16.025
-16.111
-16.198
-16.287
-16.378
-16.473
-16.573
-16.678
-16.79
-16.908
-17.033
-17.166
-17.306
-17.454
-17.609
-17.771
-17.939
-18.115
-18.296
-18.485
-18.679
-18.88
-19.086
-19.299
-19.517
-19.74
-19.968
-20.201
-20.438
-20.679
-20.924
-21.172
-21.423
-21.676
-21.93
-22.184
-22.438
-22.689
-22.936
-23.176
-23.408
-23.63
-23.842
-24.041
-24.228
-24.402
-24.565
-24.716
-24.855
-24.979
-25.087
-25.175
-25.24
-25.279
-25.286
-25.258
-25.191
-25.083
-24.935
-24.746
-24.512
-24.231
-23.899
-23.512
-23.073
-22.581
-22.04
-21.455
-20.835
-20.193
-19.552
-18.926
-18.324
-17.75
-17.204
-16.683
-16.188
-15.715
-15.261
-14.821
-14.386
-13.954
-13.523
-13.081
-12.612
-12.09
-11.476
-10.748
-9.893
-8.907
-7.796
-6.57
-5.242
-3.835
-2.378
-0.896
0.587
2.052
3.485
4.856
6.131
7.273
8.232
8.979
9.493
9.756
9.764
9.517
9.026
8.31
7.398
6.305
5.042
3.615
2.034
0.315
-1.528
-3.485
-5.556
-7.767
-10.131
-12.661
-15.352
-18.179
-21.155
-24.313
-27.691
-31.33
-35.205
-39.224
-43.347
-47.6
-51.902
-56.098
-59.807
-62.405
-63.52
-63.088
-61.114
-57.611
-52.592
-46.113
-38.801
-31.993
-26.666
-23.139
-21.214
-20.291
-19.978
-20.019
-19.335
-15.64
-6.747
8.758
31.226
59.827
93.828
132.519
173.954
214.436
249.476
274.694
286.556
282.812
261.16
219.504
158.223
80.553
-9.033
-106.05
-208.94
-318.139
-430.186
-536.808
-625.139
-682.288
-702.79
-689.84
-653.375
-603.876
-548.4
-489.672
-426.549
-359.297
-290.353
-223.329
-163.616
-114.947
-78.073
-52.572
-36.989
-29.332
-28.089
-31.451
-36.62
-40.985
-43.05
-42.143
-38.376
-32.376
-24.655
-15.877
-7.317
-0.322
4.376
6.571
6.505
4.724
1.677
-2.22
-6.345
-10.009
-12.76
-14.383
-14.864
-14.351
-12.958
-10.757
-7.868
-4.446
-0.631
3.451
7.703
12.067
16.46
20.782
24.934
28.819
32.356
35.506
38.249
40.586
42.534
44.121
45.377
46.348
47.088
47.647
48.076
48.421
48.724
49.03
49.385
49.834
50.417
51.158
52.075
53.178
54.473
55.963
57.649
59.525
61.584
63.819
66.224
68.792
71.516
74.388
77.399
80.539
83.804
87.183
90.667
94.243
97.898
101.614
105.367
109.132
112.877
116.58
120.217
123.774
127.24
130.604
133.857
136.992
139.996
142.857
145.568
148.115
150.491
152.7
154.749
156.66
158.464
160.173
161.79
163.311
164.713
165.971
167.055
167.919
168.53
168.863
168.892
168.605
167.991
167.023
165.674
163.904
161.662
158.922
155.671
151.905
147.646
142.928
137.798
132.327
126.58
120.606
114.455
108.162
101.758
95.29
88.802
82.346
75.986
69.772
63.744
57.941
52.381
47.07
42.003
37.154
32.499
28.03
23.737
19.624
15.697
11.953
8.394
5.02
1.822
-1.205
-4.067
-6.773
-9.325
-11.716
-13.941
-15.982
-17.825
-19.463
-20.895
-22.12
-23.146
-23.98
-24.629
-25.109
-25.429
-25.601
-25.633
-25.534
-25.314
-24.983
-24.556
-24.044
-23.463
-22.824
-22.139
-21.419
-20.674
-19.911
-19.138
-18.36
-17.583
-16.811
-16.049
-15.302
-14.576
-13.874
-13.2
-12.557
-11.948
-11.374
-10.838
-10.338
-9.876
-9.45
-9.06
-8.705
-8.383
-8.092
-7.83
-7.595
-7.386
-7.199
-7.033
-6.885
-6.754
-6.637
-6.532
-6.438
-6.352
-6.274
-6.202
-6.136
-6.075
-6.018
-5.967
-5.92
-5.878
-5.841
-5.809
-5.782
-5.761
-5.746
-5.739
-5.739
-5.748
-5.766
-5.795
-5.836
-5.888
-5.954
-6.033
-6.128
-6.237
-6.362
-6.504
-6.662
-6.838
-7.032
-7.243
-7.472
-7.719
-7.983
-8.263
-8.56
-8.871
-9.197
-9.536
-9.886
-10.247
-10.617
-10.995
-11.38
-11.77
-12.165
-12.562
-12.961
-13.36
-13.759
-14.158
-14.555
-14.951
-15.345
-15.737
-16.128
-16.517
-16.903
-17.287
-17.668
-18.047
-18.421
-18.792
-19.157
-19.518
-19.874
-20.223
-20.567
-20.904
-21.232
-21.552
-21.863
-22.162
-22.45
-22.723
-22.981
-23.224
-23.449
-23.656
-23.844
-24.009
-24.15
-24.266
-24.354
-24.408
-24.425
-24.4
-24.329
-24.209
-24.038
-23.812
-23.529
-23.188
-22.788
-22.331
-21.818
-21.245
-20.61
-19.91
-19.146
-18.327
-17.457
-16.541
-15.585
-14.595
-13.579
-12.554
-11.524
-10.49
-9.451
-8.403
-7.352
-6.311
-5.29
-4.3
-3.348
-2.428
-1.546
-0.714
0.069
0.805
1.505
2.191
2.866
3.517
4.14
4.726
5.275
5.799
6.298
6.77
7.213
7.615
7.977
8.31
8.606
8.851
9.028
9.098
9.046
8.874
8.565
8.11
7.499
6.718
5.771
4.662
3.392
1.968
0.383
-1.368
-3.287
-5.388
-7.682
-10.15
-12.776
-15.52
-18.335
-21.216
-24.164
-27.207
-30.379
-33.616
-36.885
-40.222
-43.533
-46.672
-49.394
-51.153
-51.471
-50.24
-47.362
-42.826
-36.988
-30.064
-22.504
-15.521
-10.197
-7.082
-6.507
-8.102
-10.787
-13.959
-16.791
-17.264
-13.147
-2.488
16.151
42.75
75.113
111.67
152.021
193.293
233.612
270.57
296.786
307.915
299.542
265.714
208.436
131.893
41.973
-52.763
-149.601
-249.807
-354.204
-460.05
-558.371
-635.689
-680.264
-688.317
-663.922
-617.146
-559.298
-497.593
-434.858
-371.292
-307.125
-244.662
-188.281
-142.206
-108.054
-85.425
-72.603
-66.768
-65.82
-67.672
-69.322
-68.841
-65.383
-58.536
-48.868
-37.42
-24.892
-12.399
-1.567
6.745
12.195
14.705
14.8
13.038
9.818
5.792
1.743
-1.832
-4.602
-6.386
-7.255
-7.245
-6.364
-4.716
-2.417
0.424
3.689
7.291
11.163
15.22
19.357
23.474
27.465
31.239
34.722
37.843
40.565
42.868
44.753
46.241
47.357
48.139
48.634
48.894
48.974
48.925
48.797
48.635
48.489
48.404
48.424
48.587
48.921
49.445
50.173
51.113
52.268
53.642
55.23
57.024
59.02
61.211
63.593
66.159
68.902
71.811
74.876
78.083
81.42
84.876
88.436
92.087
95.816
99.609
103.452
107.332
111.233
115.138
119.028
122.885
126.686
130.412
134.041
137.553
140.93
144.151
147.2
150.06
152.716
155.152
157.354
159.304
160.984
162.379
163.478
164.276
164.77
164.964
164.861
164.464
163.786
162.832
161.604
160.103
158.319
156.241
153.87
151.208
148.269
145.069
141.612
137.901
133.939
129.72
125.244
120.505
115.487
110.186
104.616
98.802
92.794
86.652
80.419
74.134
67.828
61.524
55.259
49.071
42.991
37.061
31.322
25.821
20.623
15.781
11.317
7.24
3.528
0.141
-2.944
-5.744
-8.276
-10.55
-12.581
-14.384
-15.967
-17.341
-18.525
-19.548
-20.456
-21.289
-22.064
-22.789
-23.452
-24.026
-24.498
-24.861
-25.103
-25.223
-25.221
-25.099
-24.872
-24.554
-24.153
-23.671
-23.102
-22.44
-21.69
-20.862
-19.974
-19.05
-18.107
-17.162
-16.235
-15.339
-14.487
-13.685
-12.936
-12.237
-11.59
-10.998
-10.464
-9.994
-9.59
-9.249
-8.972
-8.756
-8.597
-8.491
-8.434
-8.418
-8.441
-8.497
-8.586
-8.704
-8.849
-9.018
-9.207
-9.413
-9.633
-9.862
-10.096
-10.331
-10.563
-10.789
-11.006
-11.211
-11.403
-11.579
-11.737
-11.877
-11.997
-12.096
-12.175
-12.232
-12.268
-12.283
-12.278
-12.253
-12.211
-12.151
-12.077
-11.989
-11.89
-11.781
-11.666
-11.545
-11.421
-11.297
-11.175
-11.056
-10.944
-10.841
-10.748
-10.669
-10.605
-10.558
-10.531
-10.524
-10.54
-10.58
-10.645
-10.735
-10.853
-10.997
-11.169
-11.37
-11.599
-11.856
-12.141
-12.455
-12.796
-13.165
-13.56
-13.982
-14.429
-14.899
-15.392
-15.907
-16.441
-16.993
-17.562
-18.146
-18.742
-19.349
-19.964
-20.585
-21.211
-21.837
-22.463
-23.084
-23.699
-24.304
-24.897
-25.475
-26.034
-26.574
-27.09
-27.58
-28.041
-28.471
-28.866
-29.224
-29.542
-29.816
-30.044
-30.224
-30.352
-30.427
-30.447
-30.409
-30.311
-30.153
-29.933
-29.65
-29.303
-28.891
-28.416
-27.877
-27.275
-26.614
-25.895
-25.121
-24.297
-23.427
-22.516
-21.569
-20.591
-19.587
-18.563
-17.524
-16.476
-15.424
-14.375
-13.336
-12.313
-11.314
-10.347
-9.42
-8.538
-7.709
-6.939
-6.233
-5.594
-5.029
-4.544
-4.143
-3.834
-3.622
-3.508
-3.493
-3.576
-3.751
-4.008
-4.331
-4.703
-5.106
-5.526
-5.947
-6.357
-6.74
-7.076
-7.346
-7.537
-7.631
-7.619
-7.491
-7.239
-6.868
-6.405
-5.885
-5.361
-4.882
-4.49
-4.232
-4.166
-4.355
-4.875
-5.785
-7.116
-8.901
-11.158
-13.922
-17.265
-21.196
-25.656
-30.557
-35.728
-41.063
-46.585
-52.112
-57.266
-61.665
-64.824
-66.505
-66.893
-65.866
-62.948
-58.113
-51.644
-44.14
-36.822
-30.217
-23.845
-17.726
-12.305
-7.492
-2.9
2.735
11.896
26.006
44.967
68.84
97.701
130.941
167.299
203.743
235.426
258.169
268.924
264.665
242.599
200.615
138.801
60.673
-28.719
-125.066
-227.281
-335.534
-445.879
-549.527
-632.711
-682.42
-693.997
-671.179
-624.855
-567.289
-506.315
-444.96
-382.563
-318.742
-255.5
-196.887
-147.721
-110.24
-84.158
-67.99
-59.143
-55.579
-55.613
-56.67
-56.469
-53.809
-48.117
-39.667
-29.44
-18.164
-6.718
3.46
11.349
16.48
18.684
18.34
16.056
12.299
7.686
3.013
-1.184
-4.551
-6.872
-8.183
-8.539
-7.964
-6.569
-4.491
-1.838
1.277
4.761
8.548
12.545
16.641
20.727
24.692
28.44
31.892
34.98
37.664
39.927
41.771
43.222
44.31
45.071
45.552
45.805
45.882
45.839
45.726
45.59
45.484
45.454
45.543
45.79
46.222
46.856
47.705
48.775
50.068
51.585
53.321
55.268
57.421
59.773
62.32
65.054
67.969
71.053
74.295
77.683
81.205
84.846
88.596
92.439
96.362
100.351
104.39
108.467
112.567
116.672
120.763
124.822
128.826
132.756
136.591
140.309
143.889
147.313
150.562
153.618
156.47
159.099
161.492
163.632
165.5
167.083
168.37
169.353
170.024
170.384
170.435
170.189
169.66
168.855
167.781
166.44
164.826
162.938
160.774
158.33
155.611
152.622
149.366
145.851
142.085
138.065
133.785
129.227
124.365
119.195
113.72
107.955
101.933
95.692
89.276
82.747
76.154
69.541
62.954
56.424
49.983
43.679
37.562
31.695
26.152
20.982
16.222
11.901
8.02
4.57
1.527
-1.157
-3.525
-5.606
-7.428
-9.006
-10.352
-11.493
-12.46
-13.285
-14.019
-14.697
-15.345
-15.991
-16.644
-17.3
-17.946
-18.549
-19.08
-19.525
-19.873
-20.123
-20.283
-20.35
-20.326
-20.214
-20.011
-19.714
-19.323
-18.836
-18.259
-17.604
-16.888
-16.136
-15.373
-14.615
-13.876
-13.165
-12.486
-11.846
-11.246
-10.684
-10.161
-9.677
-9.234
-8.835
-8.48
-8.17
-7.9
-7.666
-7.464
-7.289
-7.138
-7.008
-6.895
-6.799
-6.717
-6.65
-6.599
-6.561
-6.535
-6.521
-6.515
-6.516
-6.524
-6.535
-6.549
-6.564
-6.581
-6.599
-6.617
-6.637
-6.658
-6.68
-6.705
-6.732
-6.763
-6.799
-6.839
-6.887
-6.941
-7.004
-7.075
-7.158
-7.251
-7.356
-7.474
-7.606
-7.752
-7.912
-8.087
-8.277
-8.483
-8.705
-8.942
-9.195
-9.464
-9.749
-10.049
-10.363
-10.692
-11.034
-11.39
-11.759
-12.139
-12.531
-12.933
-13.345
-13.765
-14.193
-14.628
-15.068
-15.512
-15.961
-16.412
-16.865
-17.318
-17.771
-18.222
-18.67
-19.113
-19.549
-19.976
-20.394
-20.799
-21.19
-21.564
-21.919
-22.253
-22.567
-22.857
-23.123
-23.362
-23.574
-23.756
-23.908
-24.027
-24.108
-24.149
-24.146
-24.097
-24
-23.853
-23.653
-23.399
-23.089
-22.725
-22.308
-21.834
-21.301
-20.705
-20.046
-19.33
-18.568
-17.767
-16.933
-16.075
-15.202
-14.327
-13.459
-12.6
-11.742
-10.878
-10.008
-9.139
-8.283
-7.455
-6.66
-5.893
-5.151
-4.431
-3.731
-3.046
-2.362
-1.66
-0.939
-0.215
0.48
1.112
1.664
2.133
2.523
2.842
3.097
3.285
3.405
3.463
3.454
3.373
3.199
2.908
2.499
2.002
1.462
0.928
0.433
-0.011
-0.402
-0.745
-1.063
-1.377
-1.714
-2.11
-2.587
-3.16
-3.842
-4.64
-5.582
-6.726
-8.139
-9.892
-12.052
-14.653
-17.71
-21.214
-25.1
-29.288
-33.684
-38.174
-42.659
-47.045
-51.208
-55.003
-58.25
-60.719
-62.195
-62.415
-61.071
-57.926
-52.813
-45.806
-37.294
-27.718
-17.502
-7.114
3.038
12.576
21.122
29.191
38.14
49.06
63.13
80.445
99.591
120.971
145.512
173.499
206.109
239.44
265.266
275.817
261.784
220.25
156.161
76.42
-8.682
-94.108
-180.969
-269.86
-362.4
-452.843
-529.52
-584.288
-609.745
-605.98
-580.899
-540.772
-493.149
-443.449
-391.783
-338.913
-285.701
-233.621
-186.601
-147.681
-117.657
-95.79
-80.337
-69.798
-63.251
-59.62
-57.082
-53.76
-48.655
-41.569
-32.898
-23.243
-12.99
-2.709
6.516
13.768
18.604
20.937
21.104
19.575
16.702
12.967
9.02
5.363
2.326
0.106
-1.288
-1.888
-1.699
-0.79
0.725
2.759
5.227
8.057
11.201
14.587
18.12
21.706
25.257
28.691
31.941
34.942
37.634
39.985
41.99
43.66
45.021
46.101
46.93
47.55
48.009
48.354
48.633
48.888
49.157
49.478
49.89
50.428
51.126
52.007
53.085
54.37
55.864
57.57
59.487
61.607
63.921
66.42
69.095
71.939
74.945
78.105
81.405
84.834
88.379
92.026
95.762
99.573
103.442
107.355
111.295
115.245
119.191
123.114
126.995
130.817
134.558
138.201
141.725
145.111
148.34
151.394
154.256
156.909
159.338
161.527
163.464
165.135
166.528
167.634
168.444
168.948
169.14
169.014
168.568
167.797
166.701
165.281
163.539
161.477
159.102
156.42
153.439
150.168
146.619
142.803
138.734
134.426
129.894
125.155
120.226
115.126
109.872
104.485
98.984
93.389
87.72
81.997
76.24
70.47
64.706
58.967
53.273
47.643
42.094
36.645
31.311
26.108
21.051
16.154
11.43
6.889
2.542
-1.603
-5.537
-9.255
-12.751
-16.021
-19.064
-21.878
-24.464
-26.822
-28.955
-30.867
-32.563
-34.048
-35.329
-36.414
-37.31
-38.027
-38.574
-38.961
-39.199
-39.298
-39.269
-39.124
-38.874
-38.53
-38.103
-37.605
-37.046
-36.436
-35.786
-35.106
-34.404
-33.689
-32.969
-32.252
-31.544
-30.851
-30.18
-29.534
-28.918
-28.335
-27.788
-27.279
-26.811
-26.383
-25.997
-25.652
-25.347
-25.083
-24.856
-24.666
-24.511
-24.388
-24.295
-24.229
-24.187
-24.167
-24.165
-24.179
-24.205
-24.242
-24.286
-24.334
-24.385
-24.437
-24.487
-24.535
-24.578
-24.616
-24.648
-24.674
-24.692
-24.704
-24.71
-24.708
-24.702
-24.69
-24.675
-24.656
-24.636
-24.616
-24.597
-24.581
-24.569
-24.563
-24.564
-24.574
-24.595
-24.627
-24.673
-24.735
-24.812
-24.907
-25.021
-25.153
-25.306
-25.479
-25.672
-25.887
-26.121
-26.375
-26.649
-26.94
-27.249
-27.574
-27.912
-28.263
-28.624
-28.994
-29.369
-29.748
-30.128
-30.507
-30.882
-31.251
-31.611
-31.959
-32.293
-32.61
-32.907
-33.181
-33.43
-33.65
-33.839
-33.994
-34.113
-34.193
-34.231
-34.226
-34.176
-34.079
-33.933
-33.737
-33.491
-33.194
-32.846
-32.447
-31.999
-31.504
-30.963
-30.379
-29.756
-29.097
-28.406
-27.686
-26.941
-26.176
-25.393
-24.598
-23.794
-22.987
-22.182
-21.384
-20.598
-19.832
-19.091
-18.38
-17.704
-17.067
-16.476
-15.935
-15.448
-15.02
-14.655
-14.359
-14.138
-13.991
-13.922
-13.928
-14.003
-14.138
-14.322
-14.541
-14.783
-15.034
-15.28
-15.507
-15.7
-15.846
-15.932
-15.944
-15.869
-15.694
-15.413
-15.023
-14.536
-13.973
-13.366
-12.76
-12.198
-11.728
-11.401
-11.278
-11.427
-11.91
-12.774
-14.047
-15.75
-17.925
-20.629
-23.927
-27.832
-32.294
-37.195
-42.434
-47.982
-53.744
-59.459
-64.676
-68.882
-71.757
-73.294
-73.574
-72.408
-69.564
-65.131
-59.719
-54.342
-49.792
-46.093
-42.722
-39.51
-36.612
-33.828
-30.131
-23.626
-12.279
4.813
27.134
54.133
85.608
120.832
157.886
193.265
222.238
240.767
246.818
238.52
213.544
170.43
108.891
31.785
-54.363
-144.575
-236.315
-328.137
-420.281
-507.317
-579.436
-628.822
-647.794
-637.077
-604.966
-558.596
-507.118
-455.684
-403.225
-349.979
-295.991
-242.449
-193.989
-153.777
-122.431
-99.507
-83.307
-72.339
-65.907
-62.868
-61.18
-58.894
-54.958
-49.077
-41.598
-33.056
-23.75
-14.251
-5.685
0.992
5.319
7.216
7.036
5.277
2.288
-1.462
-5.307
-8.74
-11.432
-13.181
-14.02
-14.026
-13.229
-11.725
-9.643
-7.074
-4.116
-0.855
2.657
6.342
10.106
13.867
17.532
21.016
24.253
27.173
29.737
31.937
33.779
35.288
36.494
37.425
38.122
38.633
39.005
39.285
39.515
39.732
39.978
40.295
40.721
41.293
42.036
42.965
44.088
45.41
46.932
48.653
50.565
52.658
54.922
57.351
59.936
62.672
65.55
68.558
71.684
74.917
78.245
81.656
85.136
88.674
92.255
95.866
99.493
103.124
106.742
110.332
113.877
117.36
120.764
124.072
127.268
130.334
133.255
136.016
138.603
141.003
143.204
145.194
146.963
148.5
149.798
150.848
151.643
152.178
152.448
152.45
152.18
151.637
150.822
149.734
148.375
146.75
144.862
142.717
140.32
137.681
134.808
131.709
128.396
124.88
121.173
117.287
113.236
109.034
104.694
100.23
95.658
90.991
86.243
81.429
76.562
71.658
66.728
61.788
56.85
51.928
47.033
42.179
37.376
32.636
27.97
23.388
18.899
14.512
10.236
6.077
2.042
-1.862
-5.63
-9.257
-12.739
-16.073
-19.255
-22.284
-25.157
-27.874
-30.433
-32.833
-35.075
-37.158
-39.082
-40.848
-42.456
-43.906
