102.209
120.232
138.038
155.076
170.505
183.18
192.455
198.184
200.744
201.139
200.152
198.233
196.062
194.462
193.976
194.887
196.955
199.42
201.839
204.077
206.002
207.574
208.668
209.256
209.904
211.295
213.577
216.746
220.475
225.095
232.542
243.977
257.975
269.38
271.277
259.274
236.23
214.623
206.965
221.389
256.992
297.903
329.931
344.337
338.268
323.681
310.727
304.362
308.191
316.639
325.265
333.306
339.166
344.551
350.766
357.234
364.126
371.087
377.804
384.971
392.88
401.098
408.996
415.612
421.109
427.301
435.422
444.616
450.757
448.483
434.888
412.227
390.737
382.598
398.007
441.562
503.45
567.601
616.904
636.901
628.427
599.65
559.154
516.822
475.817
439.006
414.756
408.352
423.561
458.146
499.473
535.419
553.797
546.826
517.298
471.665
421.728
378.86
346.294
323.041
303.298
280.132
252.645
223.954
198.213
182.758
180.85
186.552
194.789
190.763
162.754
137.299
98.366
-24.176
-144.716
-78.152
289.605
162.333
28.94
-94.667
-82.461
7.017
88.591
104.729
40.883
-20.517
-21.881
-5.106
1.271
7.177
13.454
16.945
18.148
18.589
19.564
20.578
21.112
21.411
21.743
22.079
22.449
22.306
20.617
18.153
17.324
20.085
23.82
26.797
33.105
17.643
-51.75
-113.797
-89.79
-32.073
-10.898
-0.657
14.544
10.554
-10.365
-33.13
-49.38
-52.156
-44.448
-32.732
-20.57
-7.504
11.323
36.348
65.005
88.212
93.935
81.38
58.992
38.972
25.868
44.443
126.097
204.231
198.062
162.65
161.767
162.843
142.355
117.137
92.16
64.742
37.129
11.461
-10.029
-26.887
-39.856
-48.821
-53.82
-52.708
-47.266
-38.331
-18.205
-15.047
-72.331
-141.681
-133.738
-52.23
24.647
7.407
-136.918
-286.218
-279.177
-161.724
-102.397
-124.253
-142.994
-158.792
-223.599
-297.888
-290.505
-213.554
-178.033
-245.171
-349.715
-378.933
-317.646
-257.289
-251.438
-272.403
-301.557
-344.773
-391.031
-422.795
-434.174
-428.826
-414.651
-398.037
-375.656
-341.786
-302.88
-240.527
-130.805
-40.541
-43.026
-82.946
-90.922
-89.219
-96.622
-95.065
-85.272
-76.494
-72.808
-79.791
-101.256
-144.115
-213.239
-309.596
-429.601
-558.711
-680.377
-777.495
-836.773
-858.795
-850.981
-825.5
-794.136
-758.128
-716.999
-665.612
-589.952
-515.267
-485.202
-451.694
-352.909
-250.83
-206.897
-183.861
-152.183
-122.623
-97.752
-73.285
-54.691
-47.056
-42.213
-56.349
-111.263
-142.579
-79.088
25.888
102.528
169.404
237.604
278.21
285.157
264.741
223.921
179.136
139.871
110.557
92.664
80.725
72.813
70.566
75.883
91.985
118.915
153.757
193.245
233.704
272.738
308.488
339.025
363.498
381.809
396.853
410.175
424.987
452.954
473.571
451.247
434.542
483.714
544.503
561.146
567.366
588.887
612.742
633.664
652.762
668.625
680.901
692.51
704.523
718.108
741.136
752.029
715.104
667.932
682.429
767.812
862.758
862.902
750.971
675.873
740.219
851.631
884.447
839.413
802.585
811.978
831.169
837.199
840.116
842.843
843.147
842.846
842.54
842.007
840.844
838.491
835.002
830.446
824.786
817.979
809.861
800.327
789.413
777.005
762.739
746.505
728.387
708.326
686.656
662.795
634.784
603.073
569.644
537.605
512.801
495.196
479.145
458.782
426.412
383.113
334.54
280.184
234.299
223.772
243.13
61.832
187.616
114.456
69.236
47.07
24.995
0.106
-23.366
-45.004
-64.962
-83.152
-99.658
-114.536
-127.842
-139.662
-150.109
-159.32
-167.456
-174.666
-181.046
-186.662
-191.583
-195.856
-199.516
-202.629
-205.256
-207.391
-208.99
-210.049
-210.613
-210.869
-211.13
-211.519
-211.955
-212.31
-212.45
-212.26
-211.653
-210.231
-207.267
-202.44
-195.946
-188.343
-180.526
-173.251
-167.031
-162.722
-161.561
-164.298
-171.098
-181.516
-194.449
-209.002
-224.652
-240.642
-256.004
-270.081
-282.512
-293.429
-303.532
-313.261
-322.724
-332.076
-341.422
-350.767
-360.076
-369.064
-377.236
-384.303
-390.103
-394.538
-397.649
-399.446
-399.969
-399.38
-397.783
-395.224
-391.951
-388.218
-383.995
-379.433
-374.719
-369.651
-365.382
-362.996
-361.242
-359.8
-356.231
-347.588
-337.181
-327.193
-320.917
-322.854
-329.001
-336.002
-341.369
-341.103
-337.991
-334.661
-332.158
-332.516
-334.294
-336.114
-336.172
-334.64
-330.484
-313.487
-304.593
-340.064
-372.055
-340.636
-300.453
-306.861
-324.545
-326.665
-326.056
-327.005
-327.493
-329.058
-332.046
-336.517
-342.316
-349.054
-356.786
-365.496
-375.123
-385.633
-396.909
-408.822
-421.248
-434.048
-447.068
-460.144
-473.102
-485.755
-497.926
-509.47
-520.273
-530.253
-539.351
-547.525
-554.744
-561.049
-566.501
-571.147
-575.092
-578.257
-580.61
-582.392
-583.691
-585.197
-587.489
-590.283
-593.61
-595.55
-596.503
-595.414
-581.913
-576.894
-616.374
-652.814
-626.72
-592.182
-603.94
-626.841
-634.109
-638.24
-643.279
-647.086
-651.055
-655.41
-660.128
-665.003
-669.637
-674.116
-678.474
-682.712
-686.876
-690.958
-694.958
-698.894
-702.781
-706.637
-710.471
-714.282
-718.06
-721.784
-725.424
-728.952
-732.338
-735.55
-738.563
-741.354
-743.898
-746.177
-748.171
-749.861
-751.232
-752.263
-752.946
-753.284
-753.303
-753.057
-752.611
-752.026
-751.357
-750.64
-749.923
-749.262
-748.714
-748.333
-748.162
-748.215
-748.534
-749.208
-750.232
-751.498
-752.785
-753.695
-753.851
-753.008
-750.872
-747.104
-741.609
-734.497
-726.156
-717.445
-709.154
-701.786
-695.87
-691.804
-689.545
-688.715
-688.425
-686.989
-682.703
-674.044
-659.406
-637.728
-608.344
-570.853
-525.817
-474.71
-420.749
-369.066
-324.124
-288.537
-261.175
-238.195
-219.825
-212.169
-226.948
-276.237
-362.316
-476.347
-601.222
-719.473
-821.349
-904.275
-970.464
-1021.807
-1057.1
-1074.113
-1071.097
-1048.183
-1007.637
-953.295
-889.273
-819.513
-748.017
-677.675
-610.576
-548.951
-494.312
-447.374
-408.738
-378.01
-353.815
-335.336
-321.773
-311.881
-304.806
-299.381
-293.93
-287.525
-279.996
-271.163
-260.87
-249.04
-235.525
-220.628
-206.035
-193.142
-182.012
-172.733
-163.132
-153.57
-143.222
-121.354
-108.771
-141.633
-170.602
-134.419
-88.616
-89.403
-100.592
-94.673
-84.697
-75.203
-64.342
-53.762
-43.769
-34.356
-25.396
-16.586
-8.076
0.076
7.891
15.348
22.469
29.257
35.717
41.873
47.77
53.472
59.032
64.494
69.895
75.265
80.642
86.066
91.582
97.23
103.039
109.024
115.201
121.585
128.19
135.022
142.072
149.322
156.758
164.362
172.121
180.016
188.018
196.097
204.228
212.392
220.571
228.746
236.891
244.975
252.967
260.85
268.614
276.254
283.767
291.157
298.439
305.646
312.818
319.984
327.149
334.312
341.461
348.592
355.705
362.8
369.866
376.879
383.806
390.613
397.253
403.658
409.735
415.359
420.401
424.756
428.353
431.13
433.036
434.014
434.01
432.984
430.919
427.806
423.64
418.426
412.193
405.006
396.975
388.246
378.975
369.295
359.322
349.17
338.959
328.815
318.865
309.217
299.96
291.185
282.992
275.471
268.684
262.662
257.391
252.829
248.929
245.65
242.953
240.788
239.097
237.805
236.837
236.133
235.645
235.314
235.072
234.856
234.616
234.326
233.983
233.595
233.169
232.712
232.234
231.756
231.301
230.904
230.597
230.401
230.328
230.394
230.615
231.003
231.566
232.295
233.174
234.186
235.312
236.535
237.835
239.184
240.556
241.919
243.245
244.509
245.693
246.778
247.751
248.599
249.313
249.89
250.329
250.631
250.796
250.824
250.717
250.479
250.116
249.634
249.04
248.341
247.543
246.654
245.68
244.627
243.501
242.31
241.057
239.749
238.394
236.998
235.569
234.116
232.645
231.163
229.679
228.198
226.727
225.271
223.834
222.42
221.033
219.677
218.353
217.065
215.813
214.601
213.428
212.295
211.204
210.154
209.146
208.18
207.255
206.37
205.526
204.723
203.959
203.236
202.552
201.907
201.302
200.735
200.208
199.721
199.272
198.863
198.494
198.166
197.88
197.638
197.441
197.292
197.192
197.144
197.151
197.215
197.336
197.518
197.761
198.066
198.431
198.856
199.341
199.884
200.484
201.137
201.843
202.598
203.399
204.244
205.128
206.044
206.986
207.947
208.919
209.894
210.865
211.823
212.759
213.666
214.537
215.366
216.14
216.85
217.481
218.023
218.469
218.817
219.064
219.211
219.264
219.233
219.135
218.984
218.793
218.567
218.311
218.032
217.742
217.459
217.198
216.969
216.776
216.618
216.494
216.395
216.297
216.166
215.951
215.607
215.099
214.398
213.478
212.307
210.844
209.047
206.882
204.329
201.387
198.059
194.339
190.234
185.778
181.011
176.023
170.886
165.615
160.304
155.115
150.275
146.161
143.141
141.464
141.451
143.446
147.471
153.393
160.808
168.786
176.505
183.312
188.31
190.787
190.699
188.318
184.55
181.232
180.02
182.558
190.983
207.02
231.471
264.423
304.824
350.243
397.917
444.371
485.049
515.371
531.305
529.6
508.134
466.312
404.673
325.295
232.13
130.217
25.151
-77.315
-171.429
-252.166
-315.444
-358.439
-380.151
-380.93
-362.261
-326.871
-278.673
-221.961
-161.12
-100.368
-43.054
7.915
50.248
83.048
106.682
122.226
131.37
136.141
138.365
140.142
143.544
149.628
158.671
170.467
184.289
199.255
214.571
229.128
241.739
251.835
259.247
264.091
266.797
267.772
267.374
266.149
264.686
263.351
262.38
261.875
261.82
262.256
263.226
264.699
266.617
268.911
271.512
274.382
277.486
280.761
284.131
287.509
290.811
293.979
296.957
299.696
302.146
304.255
305.995
307.367
308.387
309.082
309.487
309.638
309.576
309.355
309.022
308.626
308.207
307.796
307.428
307.138
306.961
306.934
307.084
307.427
307.977
308.741
309.722
310.919
312.324
313.924
315.708
317.672
319.811
322.121
324.59
327.205
329.953
332.814
335.766
338.779
341.813
344.833
347.812
350.728
353.566
356.311
358.945
361.454
363.826
366.052
368.126
370.035
371.761
373.294
374.636
375.806
376.844
377.772
378.597
379.322
379.945
380.465
380.872
381.133
381.197
381.014
380.538
379.737
378.589
377.06
375.103
372.658
369.65
366.035
361.782
356.86
351.242
344.896
337.823
330.066
321.708
312.829
303.508
293.817
283.824
273.625
263.319
253.006
242.785
232.729
222.911
213.413
204.324
195.735
187.706
180.248
173.342
166.965
161.091
155.692
150.727
146.126
141.824
137.772
133.933
130.286
126.8
123.432
120.13
116.841
113.529
110.185
106.812
103.414
100
96.589
93.213
89.926
86.767
83.758
80.908
78.214
75.682
73.321
71.142
69.152
67.354
65.744
64.317
63.072
61.998
61.076
60.284
59.583
58.949
58.362
57.812
57.289
56.785
56.291
55.801
55.313
54.824
54.329
53.822
53.294
52.742
52.163
51.559
50.931
50.28
49.608
48.913
48.196
47.456
46.692
45.901
45.081
44.229
43.345
42.427
41.479
40.499
39.491
38.453
37.389
36.3
35.185
34.046
32.882
31.692
30.476
29.234
27.965
26.67
25.348
23.998
22.62
21.214
19.779
18.314
16.818
15.289
13.725
12.126
10.49
8.815
7.101
5.346
3.548
1.706
-0.181
-2.114
-4.097
-6.13
-8.214
-10.352
-12.543
-14.789
-17.088
-19.44
-21.842
-24.293
-26.789
-29.328
-31.908
-34.526
-37.178
-39.863
-42.578
-45.32
-48.086
-50.87
-53.667
-56.47
-59.273
-62.068
-64.847
-67.602
-70.325
-73.007
-75.645
-78.232
-80.76
-83.222
-85.605
-87.901
-90.107
-92.221
-94.242
-96.17
-98.01
-99.771
-101.473
-103.131
-104.756
-106.351
-107.911
-109.434
-110.92
-112.371
-113.789
-115.164
-116.487
-117.75
-118.952
-120.09
-121.153
-122.116
-122.934
-123.576
-124.029
-124.299
-124.41
-124.378
-124.221
-123.966
-123.648
-123.319
-123.026
-122.795
-122.638
-122.57
-122.623
-122.852
-123.335
-124.126
-125.252
-126.719
-128.513
-130.628
-133.057
-135.767
-138.707
-141.814
-145.039
-148.375
-151.837
-155.423
-159.113
-162.863
-166.612
-170.327
-174.001
-177.637
-181.249
-184.847
-188.434
-192.036
-195.698
-199.474
-203.398
-207.464
-211.645
-215.91
-220.267
-224.778
-229.424
-234.093
-238.583
-242.557
-245.699
-247.799
-248.568
-247.663
-245.061
-240.936
-235.741
-230.456
-225.916
-222.679
-221.5
-222.947
-226.901
-232.916
-239.936
-245.975
-249.332
-248.503
-241.572
-227.12
-204.622
-174.085
-136.606
-94.549
-50.408
-7.25
30.929
60.414
77.668
79.333
63.271
28.328
-24.922
-93.252
-173.856
-264.263
-362.586
-468.945
-577.425
-677.336
-758.515
-809.559
-828.601
-823.162
-799.905
-767.234
-729.447
-684.733
-633.994
-579.114
-522.375
-468.476
-420.754
-380.609
-348.83
-324.93
-307.616
-295.645
-288.063
-283.689
-281.087
-278.961
-276.006
-271.545
-265.762
-259.021
-251.6
-243.916
-236.468
-229.845
-224.848
-221.847
-220.696
-221.136
-222.792
-225.28
-228.299
-231.434
-234.16
-236.139
-237.233
-237.403
-236.746
-235.349
-233.248
-230.538
-227.348
-223.793
-219.992
-216.037
-211.988
-207.922
-203.929
-200.094
-196.511
-193.255
-190.364
-187.861
-185.744
-183.997
-182.597
-181.513
-180.703
-180.117
-179.706
-179.424
-179.23
-179.085
-178.946
-178.77
-178.512
-178.131
-177.596
-176.886
-175.986
-174.885
-173.579
-172.063
-170.34
-168.413
-166.282
-163.947
-161.414
-158.686
-155.773
-152.69
-149.452
-146.078
-142.596
-139.028
-135.398
-131.728
-128.028
-124.308
-120.581
-116.858
-113.156
-109.486
-105.85
-102.243
-98.666
-95.113
-91.582
-88.061
-84.521
-80.936
-77.292
-73.583
-69.824
-66.045
-62.268
-58.517
-54.825
-51.229
-47.784
-44.558
-41.597
-38.948
-36.656
-34.78
-33.403
-32.608
-32.461
-33.002
-34.248
-36.188
-38.814
-42.117
-46.065
-50.614
-55.708
-61.273
-67.257
-73.629
-80.341
-87.329
-94.495
-101.728
-108.923
-116.007
-122.923
-129.63
-136.092
-142.268
-148.138
-153.696
-158.94
-163.876
-168.487
-172.729
-176.571
-180.011
-183.067
-185.785
-188.217
-190.387
-192.314
-194.017
-195.504
-196.792
-197.885
-198.772
-199.446
-199.904
-200.16
-200.252
-200.211
-200.048
-199.762
-199.336
-198.74
-197.965
-197.004
-195.843
-194.481
-192.916
-191.151
-189.206
-187.098
-184.838
-182.434
-179.881
-177.173
-174.322
-171.338
-168.241
-165.058
-161.808
-158.51
-155.187
-151.858
-148.538
-145.239
-141.967
-138.723
-135.516
-132.35
-129.236
-126.181
-123.192
-120.271
-117.421
-114.644
-111.94
-109.31
-106.751
-104.261
-101.841
-99.489
-97.206
-94.994
-92.851
-90.778
-88.773
-86.834
-84.96
-83.147
-81.393
-79.695
-78.048
-76.451
-74.899
-73.39
-71.921
-70.488
-69.09
-67.723
-66.385
-65.073
-63.786
-62.52
-61.276
-60.051
-58.843
-57.651
-56.475
-55.314
-54.166
-53.031
-51.908
-50.798
-49.7
-48.615
-47.542
-46.481
-45.434
-44.4
-43.379
-42.374
-41.383
-40.409
-39.451
-38.512
-37.591
-36.691
-35.81
-34.951
-34.112
-33.295
-32.5
-31.726
-30.973
-30.241
-29.529
-28.836
-28.162
-27.504
-26.863
-26.235
-25.62
-25.013
-24.414
-23.818
-23.223
-22.624
-22.019
-21.404
-20.774
-20.125
-19.453
-18.754
-18.023
-17.255
-16.446
-15.59
-14.684
-13.722
-12.701
-11.615
-10.461
-9.236
-7.935
-6.556
-5.095
-3.549
-1.917
-0.197
1.614
3.515
5.506
7.586
9.754
12.007
14.341
16.751
19.233
21.78
24.386
27.043
29.745
32.482
35.247
38.031
40.825
43.619
46.403
49.166
51.898
54.588
57.227
59.803
62.307
64.727
67.054
69.281
71.401
73.406
75.289
77.04
78.651
80.121
81.451
82.642
83.697
84.621
85.423
86.122
86.735
87.281
87.777
88.23
88.652
89.058
89.464
89.891
90.351
90.848
91.381
91.952
92.556
93.184
93.808
94.379
94.841
95.14
95.227
95.064
94.618
93.856
92.743
91.233
89.288
86.884
84.001
80.637
76.782
72.396
67.555
62.443
57.313
52.546
48.47
45.285
43.283
42.825
43.977
46.641
50.486
54.719
58.778
62.392
65.031
66.224
66
64.557
62.663
61.916
63.487
68.31
77.842
93.227
115.075
143.733
178.406
217.193
258.342
299.603
337.629
369.034
390.277
397.885
389.614
364.029
320.082
258.07
179.952
88.822
-10.881
-113.984
-215.494
-310.054
-392.413
-458.257
-504.508
-529.693
-533.92
-518.441
-485.385
-438.119
-380.774
-317.844
-253.705
-191.807
-135.028
-85.639
-45.151
-14.239
7.462
21.293
28.966
32.009
32.128
30.956
29.93
30.408
32.962
37.411
43.352
50.281
57.529
64.48
70.467
74.698
76.896
77.202
75.872
73.35
70.089
66.449
62.884
59.895
57.744
56.529
56.256
56.794
58.049
59.961
62.411
65.273
68.44
71.806
75.293
78.846
82.379
85.803
89.031
91.972
94.576
96.823
98.706
100.247
101.471
102.41
103.108
103.618
103.989
104.269
104.502
104.727
104.987
105.329
105.797
106.44
107.29
108.371
109.698
111.282
113.129
115.241
117.614
120.24
123.114
126.23
129.588
133.185
137.01
141.051
145.291
149.711
154.291
159.005
163.824
168.719
173.663
178.631
183.602
188.552
193.455
198.288
203.024
207.642
212.135
216.497
220.725
224.83
228.819
232.704
236.516
240.271
243.982
247.658
251.3
254.913
258.502
262.065
265.594
269.069
272.45
275.687
278.726
281.484
283.884
285.85
287.283
288.104
288.242
287.631
286.21
283.93
280.737
276.591
271.478
265.395
258.369
250.457
241.724
232.28
222.237
211.71
200.835
189.743
178.562
167.427
156.478
145.836
135.627
125.974
116.966
108.684
101.183
94.488
88.604
83.506
79.154
75.501
72.492
70.056
68.123
66.607
65.407
64.443
63.635
62.895
62.162
61.38
60.502
59.504
58.379
57.127
55.764
54.305
52.769
51.184
49.585
48.012
46.517
45.139
43.907
42.854
41.998
41.355
40.938
40.745
40.764
40.986
41.395
41.976
42.713
43.588
44.574
45.648
46.778
47.942
49.12
50.297
51.458
52.593
53.692
54.751
55.769
56.745
57.675
58.558
59.39
60.172
60.903
61.585
62.219
62.807
63.35
63.847
64.299
64.706
65.069
65.388
65.66
65.887
66.069
66.209
66.307
66.367
66.391
66.381
66.34
66.272
66.178
66.063
65.927
65.774
65.606
65.427
65.239
65.045
64.849
64.651
64.456
64.266
64.082
63.908
63.744
63.592
63.455
63.334
63.229
63.143
63.076
63.029
63.002
62.996
63.01
63.045
63.101
63.177
63.272
63.385
63.516
63.663
63.825
64.002
64.19
64.39
64.598
64.814
65.035
65.259
65.483
65.707
65.927
66.141
66.347
66.543
66.727
66.895
67.047
67.18
67.292
67.381
67.444
67.481
67.489
67.467
67.414
67.327
67.207
67.051
66.861
66.635
66.373
66.075
65.742
65.374
64.974
64.541
64.078
63.587
63.069
62.529
61.967
61.387
60.793
60.186
59.572
58.953
58.333
57.716
57.106
56.508
55.925
55.362
54.823
54.312
53.834
53.393
52.992
52.636
52.327
52.069
51.864
51.715
51.622
51.586
51.608
51.685
51.817
52.001
52.236
52.519
52.845
53.213
53.617
54.054
54.519
55.005
55.507
56.018
56.53
57.037
57.533
58.01
58.46
58.876
59.253
59.585
59.865
60.086
60.239
60.318
60.32
60.248
60.102
59.885
59.603
59.264
58.882
58.472
58.048
57.62
57.196
56.787
56.403
56.059
55.771
55.546
55.383
55.277
55.221
55.204
55.208
55.205
55.145
54.984
54.674
54.168
53.425
52.396
51.037
49.318
47.205
44.666
41.684
38.242
34.32
29.937
25.102
19.801
14.14
8.286
2.472
-2.917
-7.527
-11.102
-13.294
-13.724
-12.336
-9.252
-4.86
-0.035
4.515
8.313
10.619
10.802
8.855
5.075
0.38
-3.39
-4.715
-2.287
5.745
20.87
43.769
74.648
112.526
155.049
199.837
244.05
283.679
314.718
333.403
336.206
320.836
286.325
232.35
159.9
71.807
-27.991
-134.606
-242.41
-345.852
-439.616
-518.772
-579.349
-618.923
-636.631
-632.874
-609.411
-569.12
-515.692
-453.431
-386.965
-320.436
-257.174
-200.17
-151.529
-112.363
-83.126
-63.205
-51.061
-45.084
-43.701
-45.013
-47.418
-49.572
-50.203
-48.901
-45.922
-41.597
-36.444
-31.168
-26.324
-22.537
-20.487
-20.313
-21.816
-24.704
-28.497
-32.742
-37.074
-41.045
-44.218
-46.393
-47.508
-47.607
-46.836
-45.302
-43.101
-40.369
-37.253
-33.889
-30.39
-26.847
-23.344
-19.974
-16.838
-14.035
-11.629
-9.652
-8.116
-7.008
-6.307
-5.985
-5.999
-6.295
-6.823
-7.533
-8.374
-9.304
-10.274
-11.234
-12.136
-12.93
-13.58
-14.063
-14.358
-14.455
-14.347
-14.031
-13.505
-12.778
-11.85
-10.723
-9.401
-7.881
-6.168
-4.268
-2.187
0.068
2.489
5.067
7.794
10.662
13.659
16.774
19.997
23.315
26.713
30.175
33.684
37.221
40.766
44.3
47.803
51.253
54.63
57.913
61.083
64.119
67.002
69.713
72.234
74.546
76.633
78.479
80.069
81.39
82.428
83.174
83.617
83.748
83.561
83.051
82.215
81.049
79.554
77.731
75.584
73.117
70.338
67.254
63.875
60.212
56.279
52.089
47.658
43.002
38.141
33.092
27.875
22.511
17.021
11.427
5.75
0.013
-5.762
-11.553
-17.338
-23.096
-28.804
-34.443
-39.992
-45.431
-50.743
-55.909
-60.912
-65.738
-70.372
-74.802
-79.015
-83.002
-86.755
-90.265
-93.528
-96.538
-99.293
-101.791
-104.032
-106.017
-107.75
-109.234
-110.475
-111.479
-112.253
-112.807
-113.15
-113.29
-113.24
-113.01
-112.613
-112.059
-111.362
-110.534
-109.587
-108.536
-107.392
-106.168
-104.877
-103.53
-102.139
-100.715
-99.269
-97.811
-96.351
-94.899
-93.462
-92.049
-90.667
-89.324
-88.025
-86.775
-85.581
-84.444
-83.37
-82.361
-81.419
-80.545
-79.742
-79.01
-78.349
-77.759
-77.239
-76.789
-76.408
-76.093
-75.844
-75.657
-75.53
-75.461
-75.447
-75.486
-75.574
-75.709
-75.888
-76.107
-76.363
-76.654
-76.975
-77.324
-77.697
-78.091
-78.503
-78.928
-79.365
-79.809
-80.257
-80.707
-81.155
-81.599
-82.034
-82.459
-82.871
-83.266
-83.643
-83.999
-84.332
-84.641
-84.922
-85.175
-85.398
-85.59
-85.751
-85.878
-85.972
-86.033
-86.059
-86.05
-86.008
-85.932
-85.824
-85.683
-85.512
-85.311
-85.083
-84.83
-84.552
-84.253
-83.934
-83.599
-83.25
-82.889
-82.52
-82.145
-81.767
-81.39
-81.015
-80.647
-80.287
-79.938
-79.602
-79.282
-78.979
-78.696
-78.434
-78.194
-77.979
-77.788
-77.624
-77.486
-77.374
-77.29
-77.232
-77.2
-77.193
-77.21
-77.251
-77.312
-77.393
-77.491
-77.604
-77.729
-77.863
-78.002
-78.145
-78.285
-78.421
-78.548
-78.662
-78.76
-78.838
-78.892
-78.919
-78.915
-78.877
-78.802
-78.685
-78.525
-78.318
-78.061
-77.751
-77.387
-76.965
-76.485
-75.945
-75.342
-74.677
-73.948
-73.154
-72.296
-71.374
-70.389
-69.343
-68.237
-67.075
-65.859
-64.596
-63.289
-61.944
-60.567
-59.162
-57.736
-56.295
-54.845
-53.39
-51.938
-50.495
-49.069
-47.667
-46.298
-44.969
-43.687
-42.46
-41.295
-40.199
-39.179
-38.238
-37.383
-36.619
-35.953
-35.392
-34.942
-34.603
-34.372
-34.246
-34.217
-34.276
-34.41
-34.599
-34.828
-35.08
-35.34
-35.599
-35.843
-36.056
-36.224
-36.327
-36.353
-36.299
-36.163
-35.949
-35.67
-35.341
-34.99
-34.663
-34.4
-34.239
-34.222
-34.386
-34.772
-35.428
-36.388
-37.674
-39.312
-41.322
-43.724
-46.535
-49.756
-53.355
-57.3
-61.575
-66.08
-70.648
-75.04
-78.881
-81.836
-83.686
-84.135
-82.862
-79.854
-75.254
-69.435
-63.236
-57.291
-51.983
-47.943
-45.658
-45.019
-45.69
-46.803
-46.705
-44.168
-38.152
-27.084
-9.88
13.822
44.001
79.597
118.6
159.2
199.024
234.528
262.442
279.813
283.792
272.443
244.358
198.318
135.695
60.833
-22.23
-110.325
-203.582
-304.393
-410.202
-512.241
-595.713
-645.572
-655.487
-629.632
-581.25
-524.431
-467.65
-413.028
-357.531
-299.34
-240.262
-184.316
-136.544
-99.692
-73.572
-56.874
-47.674
-44.152
-44.704
-47.239
-49.604
-50.14
-48.044
-43.323
-36.378
-27.766
-18.168
-8.478
0.289
7.209
11.861
14.333
14.916
14.031
12.111
9.577
6.938
4.724
3.254
2.642
2.888
3.895
5.575
7.882
10.722
13.975
17.541
21.32
25.24
29.248
33.276
37.238
41.049
44.623
47.884
50.797
53.342
55.518
57.34
58.825
60.004
60.915
61.608
62.13
62.527
62.842
63.113
63.384
63.703
64.115
64.664
65.379
66.282
67.388
68.706
70.244
72.005
73.987
76.183
78.59
81.203
84.019
87.036
90.246
93.64
97.209
100.939
104.818
108.833
112.97
117.215
121.553
125.968
130.444
134.967
139.521
144.087
148.646
153.176
157.654
162.058
166.366
170.555
174.6
178.479
182.17
185.654
188.913
191.932
194.691
197.173
199.358
201.229
202.774
203.987
204.858
205.383
205.561
205.401
204.917
204.126
203.04
201.661
199.99
198.025
195.772
193.233
190.416
187.314
183.924
180.243
176.279
172.034
167.508
162.683
157.528
152.021
146.158
139.951
133.427
126.614
119.544
112.26
104.816
97.286
89.739
82.233
74.81
67.516
60.405
53.552
47.045
40.956
35.334
30.209
25.597
21.511
17.949
14.893
12.296
10.09
8.22
6.647
5.344
4.283
3.427
2.723
2.108
1.537
0.978
0.406
-0.198
-0.853
-1.566
-2.327
-3.104
-3.853
-4.544
-5.163
-5.704
-6.164
-6.535
-6.807
-6.966
-7.015
-6.956
-6.791
-6.523
-6.154
-5.689
-5.148
-4.556
-3.943
-3.333
-2.74
-2.175
-1.647
-1.165
-0.737
-0.366
-0.051
0.207
0.407
0.547
0.62
0.627
0.569
0.45
0.273
0.042
-0.241
-0.576
-0.958
-1.387
-1.861
-2.379
-2.943
-3.551
-4.202
-4.893
-5.62
-6.381
-7.171
-7.987
-8.825
-9.681
-10.55
-11.43
-12.317
-13.207
-14.098
-14.984
-15.863
-16.731
-17.585
-18.42
-19.235
-20.024
-20.786
-21.517
-22.214
-22.875
-23.497
-24.076
-24.612
-25.102
-25.545
-25.938
-26.281
-26.573
-26.814
-27.004
-27.144
-27.234
-27.275
-27.27
-27.219
-27.125
-26.99
-26.817
-26.608
-26.367
-26.095
-25.797
-25.475
-25.133
-24.773
-24.4
-24.017
-23.626
-23.233
-22.84
-22.45
-22.069
-21.699
-21.344
-21.008
-20.693
-20.403
-20.141
-19.907
-19.704
-19.533
-19.396
-19.292
-19.222
-19.186
-19.184
-19.217
-19.282
-19.379
-19.506
-19.662
-19.845
-20.053
-20.283
-20.533
-20.801
-21.085
-21.383
-21.692
-22.009
-22.331
-22.654
-22.975
-23.289
-23.591
-23.875
-24.136
-24.369
-24.571
-24.736
-24.862
-24.945
-24.984
-24.977
-24.923
-24.82
-24.664
-24.453
-24.182
-23.85
-23.452
-22.985
-22.446
-21.833
-21.144
-20.382
-19.547
-18.638
-17.651
-16.581
-15.426
-14.19
-12.875
-11.485
-10.029
-8.521
-6.978
-5.43
-3.897
-2.392
-0.922
0.513
1.915
3.282
4.616
5.92
7.197
8.455
9.696
10.918
12.131
13.353
14.615
15.968
17.438
19.038
20.772
22.628
24.585
26.621
28.694
30.754
32.761
34.681
36.49
38.18
39.725
41.092
42.246
43.131
43.711
43.976
43.912
43.527
42.85
41.918
40.794
39.565
38.282
36.985
35.712
34.47
33.276
32.143
31.062
30.033
29.049
28.087
27.13
26.158
25.134
24.009
22.706
21.129
19.216
16.919
14.215
11.088
7.488
3.473
-0.788
-5.052
-8.938
-12.111
-14.365
-15.392
-14.828
-12.622
-8.867
-3.947
1.225
5.979
9.886
12.225
12.427
10.503
6.701
1.996
-1.662
-2.825
-0.158
8.465
24.634
49.052
82.157
121.816
164.591
209.204
252.674
293.095
329.042
353.036
359.581
343.176
298.395
229.755
142.68
43.449
-58.869
-161.626
-262.272
-355.894
-439.177
-506.876
-554.58
-581.494
-587.989
-575.311
-545.639
-501.94
-447.831
-387.51
-325.252
-264.111
-206.51
-155.002
-111.519
-77.065
-51.764
-34.588
-23.892
-18.47
-16.963
-17.517
-18.421
-18.127
-15.738
-11.327
-5.327
1.894
9.776
17.572
24.49
29.638
32.591
33.492
32.636
30.449
27.395
23.885
20.414
17.534
15.556
14.578
14.605
15.512
17.2
19.611
22.629
26.119
29.97
34.066
38.325
42.681
47.04
51.301
55.363
59.124
62.524
65.538
68.152
70.378
72.239
73.758
74.973
75.934
76.685
77.274
77.745
78.134
78.488
78.853
79.277
79.807
80.478
81.31
82.319
83.514
84.897
86.474
88.239
90.185
92.307
94.599
97.057
99.68
102.461
105.39
108.457
111.651
114.958
118.37
121.874
125.458
129.11
132.82
136.575
140.365
144.175
147.991
151.796
155.572
159.299
162.957
166.527
169.989
173.324
176.515
179.543
182.393
185.049
187.497
189.719
191.699
193.418
194.856
196.005
196.856
197.406
197.659
197.614
197.276
196.654
195.753
194.573
193.113
191.359
189.298
186.926
184.245
181.267
178.004
174.459
170.631
166.52
162.118
157.419
152.414
147.084
141.418
135.43
129.144
122.612
115.893
109.035
102.074
95.041
87.962
80.874
73.816
66.822
59.936
53.201
46.669
40.411
34.484
28.913
23.708
18.847
14.287
10.008
5.991
2.221
-1.308
-4.609
-7.698
-10.576
-13.252
-15.743
-18.074
-20.291
-22.432
-24.512
-26.532
-28.474
-30.305
-32.006
-33.564
-34.962
-36.193
-37.255
-38.145
-38.874
-39.455
-39.894
-40.19
-40.334
-40.316
-40.14
-39.815
-39.358
-38.794
-38.141
-37.416
-36.641
-35.83
-34.997
-34.151
-33.295
-32.428
-31.555
-30.68
-29.811
-28.956
-28.12
-27.306
-26.517
-25.753
-25.014
-24.301
-23.611
-22.942
-22.294
-21.666
-21.06
-20.476
-19.915
-19.378
-18.864
-18.373
-17.905
-17.457
-17.029
-16.618
-16.223
-15.844
-15.478
-15.125
-14.784
-14.455
-14.137
-13.83
-13.532
-13.244
-12.964
-12.694
-12.432
-12.178
-11.932
-11.694
-11.465
-11.245
-11.036
-10.836
-10.649
-10.473
-10.312
-10.164
-10.032
-9.916
-9.816
-9.735
-9.672
-9.629
-9.607
-9.606
-9.627
-9.672
-9.739
-9.83
-9.945
-10.083
-10.245
-10.43
-10.638
-10.868
-11.12
-11.394
-11.689
-12.004
-12.338
-12.691
-13.062
-13.448
-13.85
-14.266
-14.694
-15.134
-15.584
-16.043
-16.509
-16.982
-17.459
-17.94
-18.424
-18.909
-19.393
-19.876
-20.357
-20.836
-21.311
-21.782
-22.249
-22.712
-23.172
-23.628
-24.082
-24.533
-24.983
-25.433
-25.882
-26.334
-26.789
-27.248
-27.714
-28.187
-28.669
-29.161
-29.665
-30.181
-30.711
-31.254
-31.813
-32.386
-32.976
-33.582
-34.204
-34.845
-35.502
-36.177
-36.87
-37.579
-38.303
-39.043
-39.795
-40.558
-41.331
-42.11
-42.894
-43.679
-44.462
-45.239
-46.007
-46.761
-47.497
-48.21
-48.896
-49.551
-50.171
-50.751
-51.29
-51.784
-52.231
-52.629
-52.979
-53.279
-53.529
-53.729
-53.878
-53.976
-54.025
-54.026
-53.978
-53.884
-53.747
-53.57
-53.358
-53.116
-52.848
-52.558
-52.253
-51.937
-51.617
-51.298
-50.986
-50.685
-50.401
-50.142
-49.917
-49.731
-49.586
-49.48
-49.41
-49.371
-49.359
-49.366
-49.379
-49.387
-49.383
-49.358
-49.313
-49.244
-49.146
-49.011
-48.83
-48.598
-48.318
-47.999
-47.649
-47.281
-46.91
-46.558
-46.264
-46.059
-45.972
-46.039
-46.28
-46.72
-47.384
-48.286
-49.445
-50.89
-52.638
-54.712
-57.131
-59.889
-62.998
-66.506
-70.376
-74.501
-78.685
-82.591
-85.884
-88.326
-89.628
-89.431
-87.572
-84.13
-79.486
-74.516
-70.139
-67.023
-65.873
-67.366
-71.776
-78.88
-87.794
-96.632
-103.26
-105.795
-102.193
-90.603
-69.754
-39.073
0.819
47.844
99.143
151.421
200.56
242.23
272.132
286.354
282.239
258.292
214.131
150.721
70.55
-22.596
-123.765
-227.567
-328.905
-422.467
-503.387
-567.846
-613.139
-638.337
-644.058
-631.531
-602.636
-560.507
-508.838
-451.574
-392.69
-334.96
-280.486
-231.456
-189.502
-155.418
-129.18
-109.784
-95.759
-86.142
-79.902
-75.602
-71.883
-67.424
-61.51
-54.295
-46.184
-37.471
-28.553
-19.952
-12.28
-6.339
-2.507
-0.634
-0.444
-1.538
-3.515
-6.04
-8.678
-10.891
-12.336
-12.871
-12.457
-11.19
-9.156
-6.396
-3.01
0.876
5.141
9.665
14.355
19.141
23.943
28.663
33.209
37.485
41.411
44.945
48.064
50.771
53.083
55.023
56.623
57.927
58.986
59.852
60.57
61.184
61.731
62.256
62.803
63.418
64.142
65.005
66.027
67.223
68.601
70.168
71.929
73.879
76.012
78.325
80.817
83.488
86.341
89.367
92.558
95.9
99.377
102.973
106.667
110.434
114.249
118.09
121.936
125.772
129.584
133.358
137.077
140.722
144.278
147.745
151.122
154.418
157.641
160.801
163.919
167.026
170.147
173.299
176.487
179.704
182.934
186.161
189.368
192.532
195.625
198.599
201.4
203.968
206.242
208.161
209.651
210.617
210.977
210.668
209.647
207.897
205.417
202.202
198.259
193.606
188.269
182.296
175.742
168.666
161.13
153.208
144.992
136.603
128.162
119.767
111.495
103.398
95.518
87.902
80.591
73.61
66.984
60.725
54.843
49.359
44.289
39.626
35.347
31.402
27.723
24.27
21.013
17.937
15.031
12.282
9.675
7.212
4.892
2.712
0.663
-1.281
-3.143
-4.927
-6.628
-8.222
-9.674
-10.963
-12.08
-13.013
-13.763
-14.327
-14.707
-14.917
-14.972
-14.882
-14.652
-14.278
-13.754
-13.088
-12.291
-11.383
-10.388
-9.326
-8.213
-7.07
-5.91
-4.747
-3.589
-2.442
-1.304
-0.18
0.924
2.001
3.042
4.042
4.998
5.91
6.776
7.597
8.374
9.109
9.806
10.465
11.087
11.673
12.22
12.731
13.206
13.645
14.05
14.424
14.769
15.085
15.377
15.646
15.894
16.122
16.332
16.524
16.698
16.858
17.001
17.131
17.247
17.35
17.44
17.518
17.585
17.639
17.68
17.709
17.725
17.727
17.715
17.688
17.646
17.589
17.515
17.424
17.316
17.189
17.044
16.878
16.692
16.485
16.256
16.005
15.732
15.438
15.121
14.784
14.426
14.049
13.652
13.237
12.805
12.356
11.891
11.412
10.919
10.413
9.896
9.369
8.832
8.286
7.732
7.171
6.602
6.025
5.442
4.851
4.252
3.647
3.035
2.416
1.791
1.159
0.521
-0.125
-0.778
-1.439
-2.109
-2.789
-3.48
-4.183
-4.899
-5.629
-6.372
-7.132
-7.908
-8.701
-9.513
-10.344
-11.195
-12.067
-12.961
-13.875
-14.81
-15.764
-16.736
-17.723
-18.724
-19.735
-20.752
-21.773
-22.795
-23.815
-24.831
-25.839
-26.838
-27.827
-28.803
-29.764
-30.704
-31.619
-32.503
-33.353
-34.161
-34.923
-35.632
-36.284
-36.873
-37.4
-37.861
-38.252
-38.568
-38.801
-38.945
-39.002
-38.973
-38.86
-38.668
-38.408
-38.095
-37.756
-37.407
-37.06
-36.72
-36.385
-36.053
-35.727
-35.402
-35.078
-34.75
-34.41
-34.055
-33.689
-33.301
-32.876
-32.383
-31.778
-31.033
-30.14
-29.097
-27.916
-26.615
-25.214
-23.752
-22.277
-20.831
-19.448
-18.154
-16.961
-15.897
-14.998
-14.305
-13.868
-13.722
-13.876
-14.34
-15.11
-16.164
-17.47
-18.969
-20.581
-22.244
-23.917
-25.56
-27.147
-28.652
-30.047
-31.322
-32.485
-33.542
-34.507
-35.394
-36.201
-36.963
-37.742
-38.615
-39.679
-41.016
-42.66
-44.681
-47.188
-50.175
-53.55
-57.122
-60.519
-63.441
-65.733
-67.125
-67.295
-66.208
-63.978
-60.986
-58.083
-55.869
-54.623
-54.844
-56.939
-60.785
-66.028
-71.7
-75.991
-77.538
-75.277
-67.695
-53.588
-32.333
-3.654
31.546
71.182
113.351
155.786
195.163
228.104
251.122
260.786
254.937
232.351
192.104
134.459
61.301
-24.438
-118.516
-215.908
-311.848
-401.313
-479.306
-541.728
-585.641
-609.505
-613.358
-598.384
-566.538
-521.1
-466.105
-405.78
-344.31
-285.177
-231.188
-184.632
-147.07
-118.797
-99.119
-86.688
-79.711
-76.49
-75.307
-74.362
-72.089
-67.665
-60.993
-52.431
-42.635
-32.273
-22.044
-12.805
-5.405
-0.279
2.576
3.41
2.655
0.748
-1.92
-4.868
-7.574
-9.694
-11.045
-11.567
-11.318
-10.356
-8.72
-6.49
-3.775
-0.672
2.725
6.334
10.095
13.931
17.756
21.486
25.036
28.333
31.316
33.949
36.217
38.125
39.691
40.943
41.915
42.647
43.191
43.592
43.897
44.148
44.382
44.638
44.959
45.383
45.948
46.68
47.596
48.706
50.021
51.543
53.277
55.219
57.361
59.696
62.223
64.94
67.848
70.945
74.22
77.661
81.255
84.984
88.832
92.774
96.778
100.815
104.861
108.892
112.894
116.848
120.726
124.508
128.171
131.699
135.091
138.348
141.473
144.481
147.396
150.25
153.089
155.953
158.863
161.837
164.882
168.004
171.214
174.513
177.89
181.318
184.754
188.144
191.426
194.515
197.307
199.698
201.565
202.796
203.307
203.018
201.864
199.794
196.753
192.706
187.643
181.574
174.532
166.577
157.783
148.261
138.15
127.59
116.738
105.751
94.768
83.932
73.372
63.2
53.527
44.455
36.061
28.404
21.529
15.448
10.155
5.619
1.779
-1.427
-4.074
-6.244
-8.019
-9.491
-10.74
-11.83
-12.822
-13.778
-14.748
-15.774
-16.889
-18.102
-19.418
-20.829
-22.314
-23.853
-25.418
-26.973
-28.481
-29.896
-31.185
-32.327
-33.305
-34.103
-34.708
-35.115
-35.32
-35.336
-35.174
-34.846
-34.367
-33.753
-33.025
-32.205
-31.322
-30.402
-29.469
-28.539
-27.625
-26.74
-25.894
-25.094
-24.346
-23.648
-23
-22.405
-21.864
-21.377
-20.944
-20.561
-20.224
-19.929
-19.671
-19.449
-19.258
-19.095
-18.958
-18.845
-18.755
-18.686
-18.636
-18.604
-18.587
-18.581
-18.584
-18.594
-18.609
-18.625
-18.64
-18.653
-18.663
-18.667
-18.666
-18.658
-18.643
-18.62
-18.59
-18.552
-18.507
-18.455
-18.398
-18.336
-18.272
-18.206
-18.14
-18.077
-18.017
-17.963
-17.916
-17.879
-17.852
-17.838
-17.839
-17.854
-17.887
-17.938
-18.008
-18.098
-18.209
-18.342
-18.497
-18.674
-18.874
-19.097
-19.342
-19.61
-19.899
-20.211
-20.543
-20.896
-21.269
-21.66
-22.069
-22.495
-22.936
-23.391
-23.858
-24.336
-24.822
-25.314
-25.809
-26.306
-26.8
-27.291
-27.773
-28.246
-28.706
-29.151
-29.577
-29.983
-30.365
-30.721
-31.048
-31.344
-31.605
-31.83
-32.014
-32.157
-32.254
-32.304
-32.303
-32.249
-32.139
-31.972
-31.743
-31.451
-31.094
-30.67
-30.179
-29.619
-28.992
-28.297
-27.536
-26.713
-25.831
-24.892
-23.901
-22.861
-21.777
-20.654
-19.496
-18.308
-17.095
-15.863
-14.621
-13.375
-12.132
-10.902
-9.69
-8.505
-7.353
-6.244
-5.184
-4.18
-3.238
-2.366
-1.573
-0.869
-0.26
0.252
0.667
0.987
1.217
1.362
1.434
1.447
1.413
1.345
1.252
1.141
1.022
0.907
0.808
0.74
0.712
0.723
0.774
0.858
0.964
1.077
1.171
1.208
1.156
0.987
0.668
0.168
-0.544
-1.506
-2.741
-4.261
-6.083
-8.221
-10.691
-13.511
-16.683
-20.179
-23.983
-28.1
-32.45
-36.889
-41.191
-45.001
-48.016
-50.053
-50.868
-50.172
-47.973
-44.439
-39.972
-35.41
-31.367
-28.137
-26.214
-25.985
-27.298
-29.805
-32.63
-34.117
-33.071
-28.611
-19.431
-4.601
16.235
43.209
75.418
110.955
148.171
185.045
218.591
245.887
263.913
269.66
261.247
237.45
197.256
140.891
70.075
-12.46
-102.712
-196.1
-288.253
-374.303
-449.379
-509.56
-552.027
-575.565
-580.521
-567.925
-539.518
-498.349
-448.131
-392.812
-336.251
-281.156
-229.562
-183.473
-144.294
-112.591
-88.128
-69.794
-56.171
-46.37
-39.463
-34.203
-29.45
-24.108
-17.656
-10.335
-2.539
5.492
13.443
20.901
27.374
32.184
35.041
36.126
35.713
34.173
31.867
29.088
26.224
23.765
22.03
21.15
21.161
21.973
23.502
25.713
28.516
31.791
35.429
39.317
43.368
47.517
51.69
55.798
59.754
63.467
66.86
69.891
72.542
74.816
76.732
78.315
79.599
80.627
81.448
82.114
82.671
83.162
83.623
84.098
84.63
85.263
86.041
86.993
88.136
89.485
91.046
92.821
94.812
97.013
99.414
102.007
104.784
107.74
110.869
114.162
117.607
121.191
124.9
128.72
132.639
136.643
140.716
144.844
149.011
153.202
157.401
161.592
165.753
169.864
173.903
177.849
181.682
185.381
188.924
192.292
195.463
198.42
201.149
203.632
205.849
207.783
209.415
210.734
211.734
212.409
212.753
212.76
212.427
211.755
210.75
209.411
207.731
205.703
203.32
200.584
197.509
194.105
190.387
186.361
182.026
177.387
172.46
167.253
161.772
156.02
149.993
143.708
137.21
130.537
123.73
116.821
109.822
102.757
95.652
88.534
81.442
74.402
67.431
60.559
53.826
47.271
40.945
34.868
29.023
23.403
18
12.813
7.857
3.137
-1.354
-5.618
-9.656
-13.464
-17.034
-20.371
-23.495
-26.426
-29.194
-31.803
-34.233
-36.474
-38.518
-40.364
-42.019
-43.483
-44.749
-45.821
-46.711
-47.432
-48
-48.424
-48.701
-48.832
-48.818
-48.667
-48.399
-48.032
-47.578
-47.051
-46.462
-45.824
-45.155
-44.466
-43.759
-43.04
-42.311
-41.58
-40.856
-40.145
-39.455
-38.79
-38.153
-37.547
-36.976
-36.443
-35.948
-35.494
-35.079
-34.705
-34.374
-34.089
-33.851
-33.661
-33.519
-33.425
-33.38
-33.383
-33.433
-33.53
-33.671
-33.855
-34.081
-34.349
-34.656
-35.001
-35.382
-35.798
-36.248
-36.729
-37.24
-37.779
-38.343
-38.932
-39.543
-40.174
-40.823
-41.489
-42.169
-42.861
-43.564
-44.276
-44.995
-45.717
-46.442
-47.166
-47.888
-48.605
-49.315
-50.015
-50.705
-51.382
-52.044
-52.69
-53.318
-53.926
-54.513
-55.077
-55.617
-56.132
-56.62
-57.081
-57.514
-57.918
-58.293
-58.64
-58.957
-59.245
-59.503
-59.732
-59.93
-60.1
-60.24
-60.352
-60.436
-60.493
-60.525
-60.532
-60.517
-60.48
-60.424
-60.349
-60.259
-60.154
-60.035
-59.905
-59.766
-59.62
-59.468
-59.313
-59.157
-59.001
-58.847
-58.696
-58.55
-58.41
-58.276
-58.149
-58.03
-57.919
-57.819
-57.728
-57.647
-57.577
-57.519
-57.471
-57.433
-57.405
-57.385
-57.372
-57.365
-57.361
-57.358
-57.354
-57.347
-57.335
-57.317
-57.29
-57.252
-57.2
-57.132
-57.046
-56.938
-56.803
-56.637
-56.436
-56.199
-55.922
-55.604
-55.243
-54.837
-54.385
-53.89
-53.351
-52.769
-52.139
-51.456
-50.721
-49.94
-49.122
-48.274
-47.403
-46.513
-45.615
-44.722
-43.843
-42.98
-42.126
-41.273
-40.417
-39.566
-38.732
-37.93
-37.162
-36.422
-35.701
-34.997
-34.309
-33.636
-32.96
-32.254
-31.507
-30.724
-29.934
-29.161
-28.411
-27.674
-26.932
-26.173
-25.399
-24.617
-23.829
-23.028
-22.208
-21.369
-20.536
-19.746
-19.021
-18.352
-17.714
-17.09
-16.495
-15.97
-15.559
-15.298
-15.218
-15.352
-15.752
-16.472
-17.559
-19.031
-20.888
-23.125
-25.747
-28.781
-32.257
-36.153
-40.441
-45.076
-49.934
-54.855
-59.593
-63.779
-67.084
-69.237
-69.906
-68.859
-66.073
-61.628
-55.937
-49.659
-43.284
-37.339
-32.413
-28.773
-26.409
-25.042
-23.709
-21.205
-16.475
-8.131
5.149
24.148
49.284
80.25
115.738
154.044
192.99
229.331
259.494
280.033
287.8
280.266
255.505
212.481
151.189
74.384
-12.54
-105.553
-201.331
-297.732
-395.142
-487.861
-565.561
-619.412
-639.532
-625.533
-587.171
-533.435
-475.17
-418.296
-361.298
-304.56
-248.937
-196.448
-151.622
-116.671
-91.273
-74.3
-63.713
-57.642
-54.742
-53.342
-51.713
-48.529
-43.23
-35.977
-27.251
-17.635
-7.701
1.873
10.284
16.762
20.965
23.013
23.219
22.008
19.811
17.016
14.082
11.523
9.675
8.675
8.554
9.238
10.643
12.729
15.415
18.582
22.131
25.964
29.993
34.159
38.385
42.574
46.634
50.469
53.992
57.155
59.935
62.322
64.333
65.989
67.317
68.361
69.169
69.789
70.267
70.646
70.963
71.261
71.583
71.972
72.471
73.111
73.91
74.885
76.044
77.391
78.931
80.661
82.576
84.671
86.937
89.371
91.969
94.727
97.638
100.696
103.887
107.198
110.614
114.12
117.701
121.333
124.988
128.642
132.266
135.841
139.357
142.798
146.15
149.396
152.518
155.508
158.373
161.112
163.728
166.225
168.602
170.876
173.077
175.227
177.348
179.443
181.496
183.495
185.435
187.303
189.093
190.773
192.281
193.569
194.594
195.31
195.68
195.642
195.113
194.029
192.338
190.012
187.054
183.455
179.201
174.288
168.713
162.508
155.75
148.506
140.836
132.812
124.504
116.013
107.47
98.981
90.632
82.492
74.6
67.012
59.797
53.014
46.722
40.949
35.68
30.911
26.638
22.839
19.489
16.532
13.878
11.464
9.25
7.204
5.314
3.551
1.872
0.243
-1.374
-3
-4.637
-6.291
-7.973
-9.676
-11.39
-13.083
-14.701
-16.212
-17.602
-18.859
-19.987
-20.981
-21.83
-22.529
-23.076
-23.471
-23.719
-23.822
-23.779
-23.598
-23.294
-22.888
-22.413
-21.889
-21.332
-20.753
-20.16
-19.56
-18.962
-18.37
-17.784
-17.206
-16.639
-16.089
-15.559
-15.053
-14.571
-14.11
-13.667
-13.239
-12.825
-12.423
-12.031
-11.649
-11.277
-10.916
-10.568
-10.233
-9.913
-9.607
-9.315
-9.034
-8.766
-8.509
-8.263
-8.027
-7.802
-7.586
-7.38
-7.185
-7.001
-6.827
-6.663
-6.51
-6.369
-6.238
-6.119
-6.012
-5.917
-5.836
-5.768
-5.713
-5.674
-5.65
-5.641
-5.648
-5.671
-5.71
-5.765
-5.837
-5.924
-6.027
-6.146
-6.281
-6.43
-6.595
-6.774
-6.968
-7.176
-7.398
-7.633
-7.882
-8.143
-8.417
-8.702
-8.999
-9.307
-9.625
-9.953
-10.291
-10.637
-10.991
-11.354
-11.724
-12.101
-12.485
-12.876
-13.273
-13.677
-14.087
-14.503
-14.926
-15.357
-15.794
-16.24
-16.694
-17.156
-17.628
-18.11
-18.601
-19.103
-19.614
-20.136
-20.667
-21.208
-21.758
-22.316
-22.883
-23.457
-24.038
-24.623
-25.213
-25.804
-26.397
-26.989
-27.578
-28.162
-28.74
-29.309
-29.866
-30.409
-30.935
-31.441
-31.924
-32.379
-32.804
-33.194
-33.545
-33.854
-34.117
-34.33
-34.489
-34.592
-34.633
-34.611
-34.523
-34.365
-34.136
-33.835
-33.46
-33.012
-32.492
-31.9
-31.239
-30.51
-29.716
-28.859
-27.944
-26.972
-25.947
-24.873
-23.754
-22.598
-21.409
-20.196
-18.964
-17.723
-16.48
-15.242
-14.019
-12.817
-11.644
-10.508
-9.417
-8.38
-7.409
-6.512
-5.693
-4.955
-4.296
-3.714
-3.205
-2.757
-2.356
-1.988
-1.638
-1.295
-0.949
-0.588
-0.2
0.228
0.713
1.267
1.888
2.575
3.32
4.103
4.907
5.697
6.416
7.015
7.444
7.647
7.58
7.196
6.438
5.269
3.656
1.572
-0.999
-4.07
-7.655
-11.747
-16.312
-21.314
-26.697
-32.324
-38.005
-43.47
-48.348
-52.31
-55.08
-56.319
-55.764
-53.431
-49.499
-44.389
-38.818
-33.318
-28.347
-24.582
-22.379
-21.561
-21.658
-21.675
-20.235
-16.332
-8.845
3.774
22.38
47.142
77.657
112.485
149.826
187.957
224.264
255.236
277.719
288.782
286.133
268.629
235.153
185.082
119.496
40.891
-47.34
-140.961
-235.854
-328.079
-412.764
-485.298
-542.287
-581.393
-601.921
-604.357
-589.321
-558.269
-514.231
-460.823
-401.903
-341.275
-281.589
-225.13
-174.519
-131.685
-97.552
-72.148
-54.459
-43.094
-37.102
-35.26
-35.791
-37.008
-37.353
-35.962
-32.888
-28.409
-22.727
-16.246
-9.569
-3.434
1.274
4.145
5.31
5.035
3.688
1.649
-0.756
-3.094
-4.849
-5.734
-5.676
-4.703
-2.966
-0.582
2.386
5.82
9.584
13.561
17.64
21.742
25.816
29.791
33.585
37.121
40.316
43.123
45.534
47.549
49.193
50.496
51.486
52.206
52.704
53.03
53.229
53.347
53.419
53.485
53.59
53.777
54.091
54.563
55.213
56.055
57.098
58.346
59.804
61.47
63.338
65.401
67.657
70.102
72.733
75.545
78.527
81.669
84.958
88.383
91.934
95.597
99.361
103.213
107.141
111.134
115.178
119.26
123.36
127.461
131.541
135.581
139.56
143.456
147.247
150.913
154.433
157.793
160.975
163.96
166.728
169.257
171.528
173.529
175.247
176.671
177.796
178.62
179.149
179.398
179.377
179.087
178.526
177.686
176.559
175.14
173.425
171.408
169.085
166.448
163.494
160.231
156.651
152.742
148.481
143.827
138.759
133.278
127.395
121.138
114.542
107.645
100.502
93.181
85.742
78.243
70.734
63.249
55.838
48.564
41.501
34.744
28.362
22.4
16.893
11.859
7.297
3.201
-0.463
-3.756
-6.722
-9.397
-11.806
-13.959
-15.878
-17.6
-19.167
-20.631
-22.034
-23.401
-24.755
-26.113
-27.475
-28.834
-30.163
-31.411
-32.546
-33.547
-34.405
-35.12
-35.692
-36.113
-36.378
-36.484
-36.429
-36.215
-35.845
-35.32
-34.65
-33.852
-32.951
-31.984
-30.978
-29.952
-28.924
-27.903
-26.898
-25.921
-24.974
-24.06
-23.182
-22.341
-21.544
-20.795
-20.097
-19.45
-18.853
-18.302
-17.793
-17.325
-16.895
-16.501
-16.142
-15.817
-15.525
-15.267
-15.044
-14.853
-14.692
-14.558
-14.449
-14.361
-14.292
-14.236
-14.191
-14.153
-14.12
-14.09
-14.06
-14.03
-13.997
-13.96
-13.918
-13.87
-13.816
-13.755
-13.687
-13.61
-13.525
-13.432
-13.331
-13.221
-13.104
-12.978
-12.845
-12.704
-12.556
-12.401
-12.238
-12.069
-11.893
-11.711
-11.524
-11.333
-11.139
-10.943
-10.747
-10.552
-10.359
-10.17
-9.985
-9.804
-9.63
-9.462
-9.302
-9.149
-9.003
-8.867
-8.74
-8.622
-8.514
-8.417
-8.33
-8.255
-8.191
-8.139
-8.099
-8.073
-8.06
-8.061
-8.078
-8.11
-8.159
-8.226
-8.31
-8.411
-8.531
-8.668
-8.823
-8.994
-9.18
-9.382
-9.598
-9.826
-10.066
-10.316
-10.575
-10.84
-11.11
-11.384
-11.657
-11.929
-12.197
-12.458
-12.709
-12.95
-13.176
-13.384
-13.573
-13.739
-13.879
-13.99
-14.068
-14.109
-14.11
-14.067
-13.979
-13.842
-13.653
-13.409
-13.11
-12.753
-12.339
-11.865
-11.331
-10.739
-10.088
-9.38
-8.619
-7.805
-6.943
-6.037
-5.092
-4.114
-3.107
-2.078
-1.034
0.019
1.074
2.125
3.163
4.183
5.178
6.139
7.058
7.929
8.743
9.493
10.171
10.769
11.279
11.698
12.024
12.254
12.388
12.421
12.351
12.175
11.899
11.523
11.051
10.486
9.835
9.11
8.337
7.535
6.722
5.909
5.1
4.307
3.545
2.828
2.169
1.573
1.036
0.564
0.167
-0.158
-0.422
-0.663
-0.95
-1.336
-1.862
-2.565
-3.459
-4.579
-5.979
-7.708
-9.811
-12.319
-15.231
-18.586
-22.481
-26.908
-31.752
-36.782
-41.57
-45.739
-49.049
-51.196
-51.823
-50.807
-48.25
-44.562
-40.689
-37.518
-35.634
-35.69
-38.214
-43.257
-50.462
-58.852
-66.51
-71.453
-71.955
-66.065
-52.166
-29.302
2.814
43.335
90.121
140.454
191.107
237.958
276.719
303.169
313.66
305.722
277.635
228.862
160.411
74.644
-23.5
-127.988
-234.484
-337.725
-434.291
-521.82
-592.869
-642.627
-666.819
-661.398
-632.104
-585.134
-526.996
-466.262
-404.789
-343.947
-286.452
-233.359
-187.707
-151.883
-125.436
-107.338
-95.863
-88.982
-85.219
-82.982
-80.539
-76.508
-70.3
-62.084
-52.37
-41.802
-31.004
-20.646
-11.542
-4.499
0.117
2.408
2.673
1.349
-1.127
-4.368
-7.905
-11.206
-13.929
-15.9
-17.035
-17.371
-16.955
-15.806
-14.001
-11.656
-8.86
-5.709
-2.29
1.339
5.093
8.878
12.614
16.216
19.607
22.729
25.523
27.955
30.024
31.739
33.123
34.213
35.043
35.659
36.112
36.448
36.711
36.941
37.172
37.441
37.786
38.241
38.843
39.613
40.568
41.718
43.071
44.631
46.398
48.367
50.529
52.877
55.408
58.124
61.023
64.094
67.328
70.708
74.218
77.842
81.556
85.33
89.134
92.94
96.729
100.492
104.22
107.898
111.513
115.047
118.491
121.85
125.122
128.305
131.396
134.397
137.32
140.202
143.068
145.935
148.803
151.648
154.444
157.17
159.798
162.295
164.616
166.701
168.5
169.982
171.117
171.874
172.2
172.012
171.237
169.821
167.733
164.975
161.559
157.495
152.808
147.538
141.744
135.498
128.856
121.852
114.507
106.855
98.96
90.921
82.838
74.807
66.896
59.156
51.627
44.348
37.346
30.633
24.202
18.043
12.164
6.594
1.382
-3.435
-7.855
-11.9
-15.61
-19.03
-22.189
-25.109
-27.812
-30.313
-32.624
-34.746
-36.667
-38.377
-39.881
-41.203
-42.383
-43.458
-44.44
-45.333
-46.122
-46.785
-47.312
-47.692
-47.915
-47.975
-47.874
-47.618
-47.225
-46.715
-46.098
-45.377
-44.548
-43.605
-42.555
-41.409
-40.184
-38.901
-37.581
-36.241
-34.902
-33.58
-32.288
-31.035
-29.825
-28.658
-27.536
-26.464
-25.446
-24.489
-23.596
-22.765
-21.999
-21.294
-20.649
-20.061
-19.525
-19.037
-18.594
-18.193
-17.833
-17.513
-17.23
-16.983
-16.77
-16.588
-16.433
-16.304
-16.196
-16.105
-16.029
-15.964
-15.907
-15.855
-15.806
-15.758
-15.708
-15.654
-15.596
-15.532
-15.461
-15.382
-15.297
-15.203
-15.102
-14.994
-14.88
-14.76
-14.635
-14.507
-14.376
-14.243
-14.11
-13.977
-13.845
-13.717
-13.591
-13.47
-13.354
-13.243
-13.14
-13.045
-12.959
-12.883
-12.818
-12.764
-12.723
-12.694
-12.679
-12.676
-12.686
-12.709
-12.745
-12.793
-12.853
-12.924
-13.006
-13.097
-13.197
-13.306
-13.421
-13.543
-13.671
-13.803
-13.94
-14.081
-14.224
-14.371
-14.521
-14.674
-14.829
-14.988
-15.149
-15.313
-15.481
-15.652
-15.827
-16.005
-16.188
-16.374
-16.564
-16.758
-16.955
-17.156
-17.359
-17.565
-17.772
-17.98
-18.188
-18.395
-18.599
-18.8
-18.997
-19.187
-19.369
-19.54
-19.699
-19.843
-19.97
-20.075
-20.157
-20.213
-20.238
-20.229
-20.183
-20.095
-19.964
-19.784
-19.552
-19.266
-18.922
-18.519
-18.054
-17.526
-16.935
-16.28
-15.563
-14.785
-13.949
-13.057
-12.112
-11.117
-10.076
-8.993
-7.871
-6.716
-5.534
-4.33
-3.114
-1.893
-0.675
0.531
1.717
2.874
3.992
5.064
6.083
7.04
7.927
8.732
9.445
10.056
10.563
10.963
11.256
11.449
11.546
11.559
11.507
11.403
11.258
11.084
10.886
10.676
10.469
10.279
10.124
10.016
9.954
9.94
9.973
10.035
10.107
10.161
10.142
10.013
9.739
9.285
8.623
7.712
6.504
4.96
3.049
0.756
-1.918
-4.988
-8.466
-12.337
-16.591
-21.163
-25.975
-31.009
-36.161
-41.254
-46.063
-50.21
-53.326
-55.182
-55.472
-53.866
-50.373
-45.129
-38.513
-31.405
-24.517
-18.378
-13.796
-11.391
-11.166
-12.856
-15.597
-17.707
-17.787
-14.434
-5.754
9.763
32.838
63.525
100.802
142.489
186.168
228.697
265.871
293.369
307.265
304.386
282.587
240.973
179.663
100.322
6.556
-96.765
-204.079
-309.684
-407.804
-493.086
-560.875
-607.796
-632.463
-635.06
-617.046
-580.913
-530.217
-469.255
-402.788
-335.408
-270.719
-211.711
-160.63
-118.888
-87.095
-64.788
-50.521
-42.487
-39.028
-38.333
-38.743
-38.838
-37.323
-33.687
-28.159
-21.19
-13.33
-5.286
2.313
8.824
13.523
16.183
16.996
16.261
14.435
11.977
9.253
6.697
4.783
3.75
3.672
4.535
6.205
8.577
11.582
15.097
18.981
23.115
27.38
31.684
35.963
40.131
44.096
47.774
51.083
53.976
56.441
58.478
60.108
61.357
62.257
62.856
63.207
63.363
63.376
63.296
63.165
63.032
62.943
62.945
63.083
63.39
63.886
64.588
65.504
66.641
68.002
69.585
71.385
73.397
75.618
78.043
80.671
83.494
86.504
89.692
93.045
96.553
100.204
103.986
107.885
111.885
115.972
120.131
124.343
128.592
132.858
137.118
141.352
145.537
149.651
153.67
157.574
161.338
164.941
168.363
171.583
174.581
177.339
179.839
182.063
183.996
185.623
186.932
187.911
188.549
188.838
188.772
188.346
187.555
186.399
184.878
182.992
180.747
178.147
175.199
171.911
168.294
164.36
160.122
155.595
150.795
145.738
140.445
134.933
129.224
123.337
117.296
111.12
104.834
98.459
92.019
85.536
79.033
72.533
66.057
59.627
53.265
46.99
40.821
34.777
28.875
23.131
17.56
12.177
6.994
2.023
-2.727
-7.246
-11.528
-15.566
-19.357
-22.898
-26.187
-29.223
-32.009
-34.546
-36.838
-38.889
-40.705
-42.293
-43.661
-44.817
-45.77
-46.532
-47.111
-47.52
-47.77
-47.872
-47.839
-47.681
-47.411
-47.04
-46.58
-46.041
-45.436
-44.775
-44.067
-43.324
-42.553
-41.765
-40.967
-40.166
-39.37
-38.585
-37.816
-37.068
-36.346
-35.653
-34.992
-34.367
-33.779
-33.23
-32.719
-32.248
-31.815
-31.42
-31.062
-30.739
-30.448
-30.189
-29.958
-29.753
-29.571
-29.411
-29.269
-29.142
-29.028
-28.924
-28.827
-28.735
-28.646
-28.556
-28.465
-28.37
-28.269
-28.162
-28.047
-27.923
-27.789
-27.644
-27.487
-27.319
-27.138
-26.945
-26.74
-26.524
-26.297
-26.06
-25.814
-25.561
-25.3
-25.035
-24.765
-24.492
-24.217
-23.942
-23.668
-23.396
-23.127
-22.863
-22.606
-22.355
-22.113
-21.879
-21.656
-21.442
-21.239
-21.048
-20.869
-20.701
-20.547
-20.405
-20.277
-20.163
-20.063
-19.977
-19.905
-19.848
-19.804
-19.774
-19.758
-19.756
-19.767
-19.791
-19.829
-19.879
-19.943
-20.02
-20.11
-20.213
-20.328
-20.455
-20.594
-20.746
-20.909
-21.083
-21.269
-21.465
-21.673
-21.89
-22.115
-22.349
-22.59
-22.835
-23.084
-23.335
-23.584
-23.832
-24.075
-24.311
-24.537
-24.752
-24.953
-25.136
-25.299
-25.438
-25.55
-25.633
-25.682
-25.694
-25.666
-25.595
-25.478
-25.313
-25.095
-24.824
-24.495
-24.108
-23.661
-23.151
-22.58
-21.946
-21.252
-20.497
-19.686
-18.82
-17.904
-16.942
-15.94
-14.902
-13.834
-12.743
-11.635
-10.517
-9.396
-8.279
-7.175
-6.091
-5.036
-4.02
-3.049
-2.131
-1.275
-0.488
0.222
0.848
1.389
1.841
2.2
2.463
2.624
2.681
2.639
2.503
2.277
1.967
1.58
1.129
0.634
0.114
-0.414
-0.939
-1.456
-1.956
-2.426
-2.852
-3.215
-3.509
-3.736
-3.896
-3.984
-4.002
-3.958
-3.876
-3.809
-3.806
-3.904
-4.14
-4.53
-5.089
-5.851
-6.855
-8.142
-9.745
-11.682
-13.962
-16.623
-19.736
-23.289
-27.17
-31.147
-34.858
-37.971
-40.243
-41.398
-41.079
-39.114
-35.582
-30.841
-25.738
-21.137
-17.639
-15.914
-16.619
-20.01
-25.917
-33.574
-41.228
-46.93
-48.949
-45.287
-34.139
-14.261
14.98
53.043
97.994
147.172
197.335
244.299
283.639
310.903
322.026
314.216
285.742
236.008
165.998
78.349
-22.88
-132.315
-244.207
-353.068
-453.072
-538.953
-606.681
-653.42
-678.302
-682.217
-666.6
-633.624
-586.835
-530.108
-467.509
-403.255
-340.225
-280.455
-226.216
-179.117
-139.874
-108.878
-85.479
-68.25
-56.352
-48.898
-44.374
-41.523
-39.083
-35.737
-31.146
-25.537
-18.957
-11.706
-4.347
2.691
8.74
13.042
15.441
16.093
15.233
13.279
10.627
7.602
4.648
2.235
0.611
-0.136
-0.019
0.853
2.401
4.566
7.248
10.31
13.633
17.115
20.672
24.25
27.789
31.2
34.416
37.38
40.049
42.423
44.506
46.284
47.762
48.957
49.894
50.626
51.204
51.666
52.053
52.406
52.76
53.165
53.656
54.258
54.991
55.858
56.872
58.066
59.463
61.076
62.915
64.975
67.252
69.752
72.475
75.413
78.558
81.894
85.413
89.115
92.995
97.052
101.273
105.634
110.112
114.689
119.342
124.054
128.803
133.562
138.307
143.021
147.685
152.28
156.783
161.169
165.412
169.49
173.38
177.063
180.52
183.73
186.677
189.344
191.715
193.777
195.517
196.92
197.973
198.665
198.986
198.931
198.493
197.667
196.453
194.849
192.859
190.486
187.736
184.616
181.135
177.302
173.131
168.635
163.829
158.73
153.356
147.727
141.862
135.784
129.514
123.075
116.491
109.784
102.979
96.1
89.171
82.217
75.261
68.328
61.442
54.625
47.902
41.293
34.819
28.501
22.356
16.403
10.657
5.133
-0.156
-5.198
-9.983
-14.502
-18.748
-22.715
-26.4
-29.801
-32.918
-35.75
-38.301
-40.575
-42.576
-44.31
-45.785
-47.009
-47.991
-48.741
-49.27
-49.59
-49.713
-49.653
-49.422
-49.035
-48.506
-47.847
-47.074
-46.2
-45.239
-44.205
-43.109
-41.966
-40.787
-39.584
-38.368
-37.15
-35.939
-34.743
-33.572
-32.431
-31.327
-30.267
-29.254
-28.293
-27.387
-26.54
-25.753
-25.029
-24.368
-23.771
-23.238
-22.767
-22.358
-22.009
-21.717
-21.481
-21.298
-21.165
-21.079
-21.036
-21.034
-21.069
-21.137
-21.235
-21.36
-21.508
-21.675
-21.859
-22.058
-22.268
-22.486
-22.712
-22.943
-23.177
-23.412
-23.647
-23.881
-24.112
-24.339
-24.56
-24.776
-24.985
-25.187
-25.382
-25.57
-25.75
-25.922
-26.087
-26.244
-26.395
-26.538
-26.676
-26.807
-26.934
-27.055
-27.172
-27.286
-27.396
-27.503
-27.607
-27.708
-27.806
-27.902
-27.994
-28.084
-28.17
-28.254
-28.334
-28.412
-28.487
-28.56
-28.63
-28.698
-28.763
-28.826
-28.887
-28.946
-29.003
-29.058
-29.112
-29.164
-29.214
-29.263
-29.309
-29.353
-29.395
-29.435
-29.471
-29.503
-29.532
-29.556
-29.577
-29.592
-29.603
-29.609
-29.608
-29.601
-29.586
-29.562
-29.528
-29.483
-29.424
-29.349
-29.258
-29.149
-29.018
-28.865
-28.687
-28.482
-28.247
-27.981
-27.681
-27.344
-26.969
-26.554
-26.096
-25.595
-25.048
-24.455
-23.814
-23.125
-22.387
-21.6
-20.762
-19.875
-18.939
-17.956
-16.926
-15.852
-14.737
-13.584
-12.397
-11.183
-9.946
-8.692
-7.427
-6.158
-4.892
-3.635
-2.394
-1.174
0.018
1.175
2.29
3.356
4.367
5.316
6.198
7.005
7.734
8.383
8.951
9.439
9.846
10.173
10.415
10.573
10.648
10.64
10.553
10.391
10.161
9.88
9.568
9.243
8.923
8.619
8.339
8.094
7.897
7.759
7.693
7.71
7.815
8.019
8.328
8.737
9.229
9.761
10.273
10.713
11.035
11.207
11.19
10.929
10.366
9.441
8.1
6.316
4.039
1.171
-2.316
-6.367
-10.813
-15.323
-19.561
-23.289
-26.21
-27.969
-28.342
-27.266
-25.021
-22.296
-19.808
-18.086
-17.653
-19.082
-22.728
-28.61
-36.082
-43.685
-49.64
-52.414
-50.525
-42
-25.231
0.719
36.193
78.813
125.367
174.631
223.798
271.345
315.925
349.726
367.017
362.004
328.266
269.605
190.245
96.086
-2.571
-104.022
-207.609
-312.202
-420.146
-524.229
-612.751
-676.541
-705.324
-699.792
-669.506
-622.432
-568.821
-513.321
-454.025
-391.922
-327.681
-263.229
-203.921
-152.865
-111.018
-78.924
-55.404
-38.676
-27.94
-22.086
-19.195
-17.737
-16.276
-13.414
-8.863
-2.955
4.184
12.125
20.135
27.672
33.995
38.33
40.557
40.877
39.575
37.14
34.025
30.599
27.34
24.725
23.004
22.276
22.512
23.577
25.366
27.791
30.737
34.073
37.675
41.439
45.269
49.088
52.821
56.381
59.684
62.656
65.231
67.378
69.099
70.412
71.348
71.948
72.252
72.309
72.178
71.914
71.569
71.19
70.817
70.492
70.26
70.166
70.248
70.537
71.047
71.792
72.777
74.006
75.48
77.194
79.138
81.302
83.679
86.264
89.056
92.052
95.242
98.615
102.158
105.856
109.69
113.636
117.665
121.741
125.839
129.938
134.018
138.072
142.084
146.04
149.932
153.74
157.448
161.043
164.507
167.825
170.995
174.019
176.915
179.711
182.411
185.015
187.51
189.867
192.054
194.032
195.747
197.158
198.232
198.934
199.245
199.148
198.608
197.591
196.05
193.927
191.19
187.822
183.816
179.194
173.988
168.246
162.043
155.445
148.507
141.282
133.807
126.117
118.265
110.3
102.279
94.276
86.344
78.531
70.881
63.417
56.153
49.089
42.204
35.479
28.912
22.502
16.26
10.199
4.326
-1.351
-6.823
-12.09
-17.153
-22.009
-26.66
-31.101
-35.32
-39.303
-43.029
-46.476
-49.634
-52.495
-55.059
-57.329
-59.309
-61.006
-62.434
-63.602
-64.521
-65.2
-65.648
-65.875
-65.894
-65.719
-65.368
-64.857
-64.203
-63.42
-62.526
-61.534
-60.458
-59.31
-58.103
-56.845
-55.55
-54.227
-52.888
-51.543
-50.202
-48.874
-47.568
-46.29
-45.047
-43.845
-42.687
-41.578
-40.519
-39.512
-38.56
-37.663
-36.821
-36.035
-35.304
-34.629
-34.008
-33.44
-32.923
-32.457
-32.038
-31.665
-31.335
-31.045
-30.793
-30.577
-30.392
-30.238
-30.111
-30.008
-29.929
-29.87
-29.829
-29.805
-29.796
-29.8
-29.816
-29.843
-29.881
-29.929
-29.987
-30.055
-30.134
-30.222
-30.321
-30.43
-30.548
-30.676
-30.813
-30.958
-31.112
-31.274
-31.443
-31.618
-31.8
-31.988
-32.181
-32.379
-32.581
-32.787
-32.996
-33.206
-33.418
-33.631
-33.843
-34.054
-34.263
-34.469
-34.671
-34.868
-35.059
-35.243
-35.419
-35.585
-35.742
-35.888
-36.024
-36.149
-36.263
-36.367
-36.461
-36.545
-36.621
-36.689
-36.75
-36.805
-36.855
-36.902
-36.945
-36.987
-37.028
-37.068
-37.11
-37.152
-37.196
-37.242
-37.29
-37.34
-37.39
-37.441
-37.492
-37.542
-37.59
-37.635
-37.676
-37.709
-37.735
-37.75
-37.752
-37.737
-37.704
-37.647
-37.565
-37.452
-37.306
-37.123
-36.898
-36.628
-36.309
-35.937
-35.509
-35.021
-34.471
-33.855
-33.172
-32.42
-31.6
-30.71
-29.752
-28.729
-27.642
-26.493
-25.286
-24.025
-22.715
-21.36
-19.966
-18.537
-17.081
-15.604
-14.116
-12.624
-11.136
-9.662
-8.211
-6.79
-5.41
-4.08
-2.809
-1.603
-0.469
0.586
1.555
2.428
3.201
3.872
4.443
4.915
5.291
5.575
5.775
5.906
5.981
6.016
6.019
5.994
5.949
5.891
5.83
5.782
5.757
5.751
5.767
5.802
5.851
5.915
5.975
5.995
5.939
5.764
5.435
4.938
4.259
3.385
2.295
0.947
-0.697
-2.664
-4.983
-7.662
-10.731
-14.275
-18.281
-22.612
-27.036
-31.197
-34.788
-37.656
-39.604
-40.325
-39.678
-37.763
-34.992
-32.157
-29.963
-28.714
-28.653
-30.155
-33.37
-38.043
-43.389
-47.888
-49.924
-48.47
-42.621
-31.155
-13.102
12.041
44.163
81.883
123.186
166.369
209.29
248.799
281.532
303.907
312.487
305.241
280.91
238.347
177.655
100.568
9.922
-89.906
-193.709
-296.788
-394.213
-480.822
-552.396
-605.672
-638.595
-651.063
-644.01
-618.797
-578.012
-525.039
-463.551
-397.734
-331.381
-267.293
-208.14
-156.174
-112.729
-78.623
-53.725
-36.799
-26.49
-21.481
-20.011
-20.446
-21.295
-21.029
-18.96
-15.16
-9.828
-3.395
3.477
10.238
16.204
20.587
23.146
24.008
23.43
21.881
19.806
17.564
15.607
14.384
14.109
14.844
16.535
19.019
22.176
25.901
30.051
34.475
39.038
43.629
48.159
52.554
56.73
60.597
64.072
67.099
69.659
71.752
73.401
74.641
75.508
76.051
76.329
76.395
76.304
76.106
75.843
75.564
75.317
75.149
75.109
75.235
75.551
76.075
76.82
77.792
78.999
80.438
82.103
83.988
86.092
88.413
90.955
93.716
96.686
99.856
103.21
106.732
110.407
114.211
118.111
122.077
126.08
130.098
134.121
138.134
142.122
146.069
149.954
153.769
157.519
161.199
164.804
168.333
171.782
175.165
178.514
181.854
185.197
188.545
191.872
195.157
198.38
201.507
204.499
207.301
209.838
212.05
213.896
215.33
216.311
216.78
216.656
215.877
214.401
212.202
209.284
205.652
201.311
196.295
190.657
184.467
177.822
170.798
163.45
155.84
148.023
140.071
132.077
124.111
116.229
108.478
100.892
93.504
86.347
79.432
72.751
66.283
59.994
53.866
47.895
42.08
36.419
30.905
25.523
20.272
15.159
10.188
5.367
0.7
-3.813
-8.16
-12.32
-16.269
-19.983
-23.445
-26.647
-29.584
-32.251
-34.649
-36.778
-38.644
-40.259
-41.635
-42.78
-43.703
-44.413
-44.92
-45.24
-45.388
-45.379
-45.228
-44.947
-44.55
-44.051
-43.46
-42.789
-42.047
-41.243
-40.387
-39.488
-38.556
-37.601
-36.632
-35.658
-34.687
-33.728
-32.789
-31.875
-30.993
-30.148
-29.343
-28.582
-27.869
-27.206
-26.594
-26.034
-25.529
-25.077
-24.68
-24.337
-24.048
-23.811
-23.626
-23.491
-23.404
-23.363
-23.367
-23.413
-23.498
-23.621
-23.779
-23.969
-24.188
-24.434
-24.703
-24.993
-25.301
-25.623
-25.957
-26.299
-26.648
-27
-27.354
-27.708
-28.059
-28.407
-28.751
-29.088
-29.419
-29.742
-30.057
-30.362
-30.659
-30.946
-31.224
-31.492
-31.752
-32.003
-32.247
-32.485
-32.718
-32.948
-33.175
-33.401
-33.629
-33.859
-34.094
-34.335
-34.584
-34.844
-35.116
-35.402
-35.703
-36.023
-36.361
-36.718
-37.097
-37.496
-37.916
-38.358
-38.82
-39.303
-39.804
-40.323
-40.859
-41.409
-41.972
-42.546
-43.126
-43.711
-44.297
-44.879
-45.455
-46.02
-46.569
-47.098
-47.602
-48.076
-48.515
-48.915
-49.271
-49.577
-49.829
-50.021
-50.15
-50.212
-50.201
-50.116
-49.954
-49.712
-49.39
-48.987
-48.504
-47.942
-47.302
-46.589
-45.806
-44.955
-44.042
-43.071
-42.05
-40.983
-39.877
-38.737
-37.573
-36.393
-35.204
-34.017
-32.84
-31.681
-30.55
-29.456
-28.409
-27.419
-26.49
-25.629
-24.843
-24.14
-23.529
-23.015
-22.6
-22.283
-22.062
-21.935
-21.896
-21.936
-22.036
-22.18
-22.35
-22.531
-22.719
-22.903
-23.07
-23.208
-23.302
-23.344
-23.336
-23.282
-23.179
-23.036
-22.866
-22.697
-22.581
-22.568
-22.71
-23.056
-23.643
-24.505
-25.668
-27.159
-29.012
-31.254
-33.896
-36.951
-40.414
-44.289
-48.616
-53.327
-58.243
-63.112
-67.562
-71.266
-74.016
-75.501
-75.339
-73.443
-69.921
-65.202
-60.144
-55.359
-51.242
-48.458
-47.648
-48.971
-52.219
-56.374
-59.722
-61.126
-59.225
-51.956
-37.683
-15.033
15.493
50.515
88.267
128.474
171.583
220.223
269.457
308.02
325.506
309.75
259.121
183.129
90.739
-6.59
-102.354
-197.791
-291.583
-381.025
-461.927
-527.311
-572.936
-598.014
-603.374
-591.151
-563.754
-524.071
-475.558
-422.003
-367.184
-313.606
-262.853
-216.578
-175.974
-141.647
-113.985
-92.489
-75.996
-63.915
-55.718
-50.362
-46.963
-44.508
-41.766
-38.326
-34.288
-29.562
-24.267
-18.769
-13.321
-8.481
-4.978
-2.996
-2.444
-3.168
-4.801
-6.999
-9.481
-11.804
-13.507
-14.359
-14.263
-13.239
-11.416
-8.877
-5.701
-2.012
2.051
6.358
10.802
15.303
19.79
24.176
28.364
32.255
35.783
38.919
41.648
43.983
45.945
47.558
48.864
49.913
50.75
51.422
51.971
52.434
52.855
53.278
53.751
54.321
55.024
55.883
56.918
58.139
59.555
61.168
62.977
64.978
67.168
69.549
72.125
74.897
77.861
81.009
84.328
87.805
91.421
95.157
98.986
102.887
106.839
110.825
114.833
118.847
122.852
126.831
130.766
134.64
138.451
142.194
145.871
149.493
153.07
156.622
160.18
163.763
167.382
171.04
174.727
178.43
182.137
185.826
189.473
193.048
196.504
199.796
202.875
205.677
208.143
210.205
211.774
212.779
213.165
212.882
211.905
210.212
207.779
204.601
200.688
196.057
190.747
184.798
178.244
171.136
163.524
155.474
147.079
138.423
129.581
120.633
111.647
102.696
93.868
85.233
76.84
68.73
60.928
53.467
46.387
39.73
33.525
27.787
22.509
17.684
13.305
9.354
5.805
2.616
-0.277
-2.923
-5.351
-7.582
-9.633
-11.526
-13.298
-14.989
-16.626
-18.229
-19.809
-21.376
-22.943
-24.509
-26.064
-27.577
-29.009
-30.329
-31.524
-32.589
-33.52
-34.311
-34.952
-35.433
-35.756
-35.923
-35.938
-35.804
-35.521
-35.098
-34.552
-33.908
-33.195
-32.437
-31.647
-30.839
-30.022
-29.204
-28.396
-27.602
-26.822
-26.055
-25.305
-24.574
-23.867
-23.185
-22.526
-21.887
-21.265
-20.657
-20.062
-19.48
-18.909
-18.349
-17.801
-17.267
-16.751
-16.253
-15.775
-15.317
-14.879
-14.462
-14.064
-13.686
-13.327
-12.986
-12.663
-12.358
-12.072
-11.806
-11.559
-11.332
-11.126
-10.942
-10.78
-10.64
-10.522
-10.427
-10.356
-10.308
-10.285
-10.286
-10.312
-10.363
-10.439
-10.539
-10.663
-10.809
-10.976
-11.163
-11.37
-11.595
-11.837
-12.096
-12.371
-12.66
-12.964
-13.281
-13.609
-13.946
-14.289
-14.636
-14.983
-15.327
-15.665
-15.994
-16.311
-16.615
-16.904
-17.175
-17.428
-17.66
-17.869
-18.054
-18.211
-18.336
-18.424
-18.472
-18.477
-18.437
-18.35
-18.214
-18.028
-17.791
-17.504
-17.164
-16.769
-16.311
-15.787
-15.196
-14.545
-13.841
-13.097
-12.323
-11.533
-10.743
-9.965
-9.207
-8.471
-7.748
-7.026
-6.305
-5.586
-4.88
-4.197
-3.537
-2.896
-2.269
-1.641
-0.998
-0.325
0.409
1.222
2.114
3.079
4.081
5.078
6.039
6.942
7.775
8.535
9.207
9.772
10.221
10.534
10.695
10.693
10.491
10.061
9.402
8.524
7.467
6.297
5.059
3.792
2.53
1.285
0.081
-1.052
-2.103
-3.069
-3.956
-4.793
-5.581
-6.312
-7
-7.65
-8.309
-9.055
-9.953
-11.062
-12.435
-14.094
-16.092
-18.533
-21.437
-24.728
-28.216
-31.577
-34.521
-36.869
-38.403
-38.817
-37.929
-35.799
-32.792
-29.627
-27.046
-25.498
-25.36
-27.132
-31.043
-36.811
-43.653
-50.089
-54.392
-55.291
-51.555
-41.653
-24.51
0.278
32.4
70.319
111.843
154.929
196.963
234.436
263.907
282.06
286.088
274.481
246.353
201.214
139.864
64.566
-21.474
-114.048
-208.599
-300.806
-385.968
-459.595
-518.104
-558.911
-580.793
-583.812
-568.906
-538.021
-494.454
-441.979
-384.581
-326.335
-270.545
-220.097
-177.437
-143.718
-118.826
-101.993
-91.763
-86.228
-83.716
-82.265
-79.852
-75.424
-68.651
-59.634
-48.991
-37.49
-25.778
-14.802
-5.636
1.228
5.662
7.807
8.121
7.03
4.897
2.238
-0.378
-2.58
-4.131
-4.914
-4.969
-4.314
-2.961
-0.985
1.52
4.46
7.744
11.289
15.033
18.898
22.797
26.648
30.366
33.878
37.121
40.033
42.583
44.756
46.556
48.004
49.129
49.965
50.556
50.954
51.21
51.371
51.482
51.583
51.717
51.925
52.245
52.717
53.366
54.214
55.274
56.554
58.061
59.797
61.761
63.944
66.342
68.949
71.76
74.769
77.97
81.352
84.902
88.609
92.458
96.436
100.527
104.716
108.985
113.317
117.694
122.099
126.511
130.911
135.276
139.585
143.814
147.942
151.946
155.805
159.496
162.999
166.293
169.36
172.181
174.738
177.014
178.995
180.665
182.012
183.024
183.692
184.007
183.962
183.553
182.777
181.633
180.12
178.242
176.001
173.404
170.459
167.174
163.559
159.628
155.394
150.872
146.078
141.031
135.748
130.25
124.556
118.688
112.668
106.517
100.259
93.916
87.511
81.068
74.609
68.157
61.736
55.367
49.071
42.87
36.783
30.829
25.026
19.391
13.939
8.686
3.643
-1.178
-5.766
-10.113
-14.212
-18.057
-21.645
-24.973
-28.04
-30.846
-33.392
-35.683
-37.72
-39.511
-41.06
-42.375
-43.464
-44.337
-45.002
-45.47
-45.753
-45.862
-45.809
-45.607
-45.267
-44.802
-44.224
-43.547
-42.782
-41.942
-41.037
-40.081
-39.082
-38.053
-37.001
-35.937
-34.868
-33.801
-32.744
-31.702
-30.68
-29.682
-28.713
-27.776
-26.873
-26.008
-25.18
-24.392
-23.644
-22.936
-22.268
-21.639
-21.048
-20.494
-19.975
-19.489
-19.035
-18.61
-18.213
-17.841
-17.492
-17.163
-16.853
-16.559
-16.279
-16.012
-15.756
-15.509
-15.272
-15.042
-14.821
-14.607
-14.402
-14.205
-14.017
-13.838
-13.67
-13.513
-13.369
-13.237
-13.12
-13.019
-12.935
-12.869
-12.823
-12.798
-12.796
-12.817
-12.862
-12.934
-13.032
-13.158
-13.312
-13.497
-13.711
-13.957
-14.235
-14.544
-14.886
-15.261
-15.668
-16.106
-16.576
-17.075
-17.605
-18.163
-18.748
-19.359
-19.995
-20.655
-21.338
-22.041
-22.764
-23.503
-24.258
-25.025
-25.803
-26.589
-27.38
-28.173
-28.966
-29.756
-30.54
-31.314
-32.077
-32.825
-33.553
-34.259
-34.94
-35.592
-36.21
-36.793
-37.335
-37.835
-38.29
-38.695
-39.047
-39.344
-39.581
-39.757
-39.867
-39.908
-39.877
-39.773
-39.592
-39.334
-38.998
-38.583
-38.09
-37.521
-36.878
-36.163
-35.379
-34.529
-33.617
-32.646
-31.621
-30.546
-29.427
-28.27
-27.083
-25.875
-24.653
-23.426
-22.204
-20.995
-19.808
-18.652
-17.533
-16.46
-15.438
-14.48
-13.594
-12.795
-12.092
-11.486
-10.982
-10.577
-10.268
-10.049
-9.908
-9.829
-9.8
-9.812
-9.863
-9.952
-10.071
-10.211
-10.356
-10.49
-10.604
-10.698
-10.769
-10.82
-10.859
-10.903
-10.979
-11.126
-11.369
-11.723
-12.196
-12.79
-13.521
-14.422
-15.519
-16.839
-18.393
-20.173
-22.181
-24.435
-26.938
-29.688
-32.673
-35.835
-39.165
-42.726
-46.474
-50.29
-53.957
-57.088
-59.355
-60.583
-60.503
-58.788
-55.448
-50.689
-45.025
-39.492
-34.868
-31.564
-30.2
-31.271
-34.638
-39.836
-45.72
-50.205
-51.723
-49.12
-40.765
-25.377
-2.364
28.429
65.853
107.508
151.294
194.859
234.774
267.52
289.446
297.192
288.872
263.207
219.201
157.127
78.472
-12.664
-110.738
-212.069
-312.339
-409.051
-500.14
-577.608
-635.74
-669.406
-673.94
-654.663
-616.913
-566.306
-510.934
-452.173
-391.489
-331.476
-272.797
-219.078
-173.64
-137.225
-110.046
-90.874
-77.736
-69.634
-65.445
-63.414
-61.919
-59.41
-55.01
-48.844
-41.343
-32.82
-23.72
-14.659
-6.36
0.255
4.725
7.155
7.793
7.043
5.317
2.957
0.421
-1.742
-3.204
-3.823
-3.564
-2.542
-0.858
1.418
4.15
7.2
10.47
13.877
17.371
20.908
24.417
27.821
31.044
34.019
36.701
39.053
41.05
42.702
44.046
45.141
46.068
46.882
47.616
48.288
48.913
49.518
50.139
50.809
51.554
52.403
53.379
54.516
55.842
57.366
59.083
60.966
62.983
65.118
67.376
69.773
72.327
75.042
77.919
80.961
84.172
87.554
91.098
94.786
98.596
102.513
106.53
110.646
114.861
119.161
123.527
127.929
132.34
136.735
141.088
145.372
149.558
153.618
157.53
161.278
164.847
168.219
171.375
174.294
176.955
179.343
181.444
183.246
184.738
185.909
186.749
187.254
187.419
187.24
186.714
185.838
184.609
183.029
181.101
178.83
176.222
173.284
170.027
166.463
162.604
158.466
154.063
149.413
144.533
139.443
134.161
128.709
123.107
117.377
111.54
105.619
99.634
93.609
87.564
81.522
75.503
69.529
63.619
57.793
52.07
46.467
41.003
35.692
30.55
25.59
20.825
16.266
11.922
7.803
3.914
0.26
-3.153
-6.324
-9.252
-11.937
-14.382
-16.589
-18.563
-20.31
-21.835
-23.146
-24.251
-25.16
-25.881
-26.424
-26.802
-27.023
-27.1
-27.044
-26.867
-26.581
-26.197
-25.727
-25.183
-24.575
-23.914
-23.212
-22.477
-21.718
-20.946
-20.168
-19.392
-18.624
-17.871
-17.138
-16.43
-15.751
-15.104
-14.491
-13.915
-13.376
-12.876
-12.414
-11.991
-11.605
-11.256
-10.943
-10.663
-10.415
-10.198
-10.007
-9.841
-9.698
-9.574
-9.467
-9.374
-9.292
-9.22
-9.154
-9.093
-9.033
-8.974
-8.913
-8.849
-8.78
-8.704
-8.622
-8.532
-8.434
-8.328
-8.214
-8.091
-7.961
-7.824
-7.681
-7.532
-7.378
-7.221
-7.061
-6.9
-6.738
-6.578
-6.421
-6.267
-6.12
-5.979
-5.846
-5.723
-5.61
-5.51
-5.423
-5.35
-5.293
-5.252
-5.227
-5.221
-5.233
-5.265
-5.316
-5.388
-5.48
-5.593
-5.727
-5.882
-6.058
-6.255
-6.473
-6.711
-6.969
-7.246
-7.541
-7.854
-8.183
-8.526
-8.883
-9.252
-9.63
-10.015
-10.406
-10.8
-11.195
-11.587
-11.975
-12.355
-12.726
-13.083
-13.425
-13.749
-14.051
-14.329
-14.58
-14.799
-14.986
-15.135
-15.244
-15.31
-15.331
-15.303
-15.225
-15.094
-14.908
-14.665
-14.366
-14.007
-13.591
-13.116
-12.584
-11.995
-11.354
-10.662
-9.923
-9.142
-8.323
-7.472
-6.594
-5.696
-4.783
-3.862
-2.941
-2.024
-1.118
-0.232
0.627
1.452
2.234
2.966
3.641
4.249
4.785
5.239
5.608
5.887
6.075
6.168
6.162
6.052
5.837
5.52
5.103
4.591
3.99
3.307
2.556
1.758
0.935
0.105
-0.719
-1.527
-2.309
-3.048
-3.73
-4.339
-4.864
-5.305
-5.66
-5.922
-6.094
-6.188
-6.234
-6.284
-6.397
-6.616
-6.986
-7.541
-8.307
-9.329
-10.66
-12.339
-14.408
-16.892
-19.802
-23.181
-27.09
-31.505
-36.298
-41.235
-45.973
-50.211
-53.729
-56.251
-57.413
-56.996
-55.041
-51.884
-48.181
-44.594
-41.522
-39.384
-38.81
-40.185
-43.367
-47.696
-51.847
-54.231
-53.626
-48.745
-37.862
-19.63
6.523
40.39
80.571
124.799
170.695
215.17
254.066
283.173
298.659
297.3
277.131
237.33
177.937
100.59
8.735
-93.014
-199.278
-304.503
-403.383
-490.892
-562.723
-615.887
-648.884
-661.908
-656.426
-634.352
-598.34
-551.723
-497.815
-439.918
-381.121
-323.464
-268.401
-217.569
-172.028
-132.359
-99.236
-72.697
-52.165
-37.315
-27.767
-22.602
-21.019
-22.164
-24.516
-26.843
-28.625
-29.47
-29.139
-27.707
-25.105
-21.277
-16.979
-13.138
-10.102
-7.971
-6.669
-5.938
-5.771
-6.351
-7.299
-7.946
-7.949
-7.114
-5.44
-3.128
-0.186
3.52
7.863
12.542
17.322
21.966
26.35
30.474
34.256
37.588
40.431
42.785
44.688
46.21
47.394
48.26
48.851
49.209
49.385
49.439
49.419
49.372
49.348
49.392
49.553
49.87
50.372
51.081
52.008
53.161
54.543
56.157
57.996
60.057
62.338
64.829
67.53
70.44
73.55
76.852
80.332
83.975
87.764
91.683
95.706
99.804
103.946
108.101
112.248
116.374
120.463
124.495
128.455
132.32
136.08
139.738
143.29
146.729
150.055
153.263
156.368
159.402
162.387
165.339
168.259
171.125
173.919
176.625
179.211
181.647
183.881
185.844
187.483
188.76
189.634
190.068
190.011
189.387
188.14
186.233
183.647
180.387
176.464
171.886
166.689
160.925
154.666
148.008
141.025
133.775
126.317
118.708
111.018
103.336
95.733
88.26
80.965
73.878
67.029
60.451
54.155
48.131
42.36
36.807
31.453
26.296
21.331
16.555
11.96
7.53
3.259
-0.847
-4.787
-8.556
-12.153
-15.581
-18.834
-21.894
-24.743
-27.36
-29.734
-31.861
-33.738
-35.365
-36.746
-37.882
-38.782
-39.461
-39.931
-40.202
-40.284
-40.188
-39.925
-39.512
-38.963
-38.295
-37.522
-36.657
-35.715
-34.707
-33.645
-32.541
-31.402
-30.237
-29.054
-27.862
-26.668
-25.481
-24.309
-23.158
-22.034
-20.945
-19.895
-18.889
-17.931
-17.023
-16.167
-15.366
-14.621
-13.932
-13.3
-12.726
-12.207
-11.744
-11.336
-10.981
-10.678
-10.424
-10.217
-10.056
-9.938
-9.86
-9.821
-9.819
-9.852
-9.917
-10.014
-10.139
-10.291
-10.469
-10.67
-10.892
-11.135
-11.395
-11.672
-11.963
-12.266
-12.582
-12.907
-13.241
-13.582
-13.93
-14.283
-14.64
-15.001
-15.364
-15.728
-16.094
-16.459
-16.823
-17.185
-17.545
-17.901
-18.254
-18.601
-18.942
-19.276
-19.602
-19.918
-20.225
-20.52
-20.803
-21.074
-21.331
-21.574
-21.803
-22.018
-22.218
-22.404
-22.576
-22.734
-22.879
-23.012
-23.134
-23.245
-23.346
-23.439
-23.524
-23.604
-23.678
-23.748
-23.816
-23.883
-23.949
-24.015
-24.083
-24.154
-24.228
-24.306
-24.388
-24.475
-24.567
-24.662
-24.762
-24.864
-24.968
-25.072
-25.176
-25.276
-25.37
-25.456
-25.531
-25.592
-25.636
-25.658
-25.654
-25.621
-25.554
-25.45
-25.304
-25.112
-24.869
-24.573
-24.22
-23.805
-23.327
-22.782
-22.167
-21.482
-20.725
-19.896
-18.995
-18.023
-16.982
-15.877
-14.71
-13.485
-12.208
-10.884
-9.52
-8.122
-6.697
-5.253
-3.796
-2.337
-0.884
0.552
1.962
3.337
4.667
5.942
7.153
8.289
9.341
10.304
11.172
11.939
12.598
13.141
13.564
13.868
14.054
14.124
14.084
13.937
13.695
13.376
12.997
12.577
12.133
11.675
11.215
10.767
10.347
9.973
9.656
9.396
9.194
9.054
8.973
8.941
8.938
8.918
8.833
8.63
8.26
7.683
6.863
5.769
4.368
2.618
0.483
-2.06
-5.036
-8.448
-12.316
-16.694
-21.515
-26.606
-31.716
-36.443
-40.429
-43.447
-45.172
-45.223
-43.56
-40.325
-35.932
-31.308
-27.155
-23.872
-22.127
-22.462
-24.794
-28.784
-33.464
-36.942
-37.764
-34.7
-25.968
-10.233
13.093
44.163
81.879
123.949
168.221
211.977
251.326
282.483
301.736
305.678
292.287
260.376
209.197
139.458
53.623
-44.736
-150.824
-259.336
-365.242
-463.08
-547.54
-614.299
-660.305
-684.23
-686.292
-667.726
-630.679
-578.631
-515.838
-447.013
-376.769
-308.685
-245.799
-190.592
-144.714
-108.982
-83.114
-65.724
-55.042
-49.505
-47.331
-46.832
-46.511
-44.893
-41.329
-35.996
-29.287
-21.716
-13.954
-6.582
-0.255
4.238
6.643
7.14
6.041
3.852
1.062
-1.941
-4.678
-6.654
-7.618
-7.489
-6.298
-4.197
-1.307
2.28
6.419
10.955
15.745
20.661
25.601
30.479
35.193
39.632
43.691
47.296
50.409
53.023
55.149
56.815
58.053
58.912
59.451
59.731
59.81
59.745
59.585
59.384
59.199
59.083
59.092
59.265
59.63
60.208
61.012
62.05
63.328
64.847
66.6
68.582
70.789
73.22
75.87
78.734
81.803
85.068
88.521
92.156
95.97
99.946
104.071
108.322
112.675
117.105
121.589
126.094
130.592
135.06
139.478
143.838
148.132
152.346
156.46
160.444
164.272
167.93
171.407
174.695
177.796
180.711
183.445
186.018
188.441
190.703
192.785
194.642
196.223
197.491
198.422
198.999
199.214
199.046
198.477
197.493
196.074
194.2
191.844
188.962
185.524
181.533
177.007
171.999
166.579
160.799
154.707
148.347
141.756
134.975
128.048
121.003
113.877
106.712
99.558
92.484
85.55
78.793
72.233
65.871
59.691
53.688
47.864
42.213
36.74
31.45
26.347
21.447
16.767
12.313
8.085
4.072
0.261
-3.349
-6.754
-9.946
-12.91
-15.636
-18.12
-20.352
-22.33
-24.057
-25.536
-26.782
-27.81
-28.632
-29.259
-29.702
-29.969
-30.072
-30.025
-29.841
-29.537
-29.127
-28.626
-28.053
-27.421
-26.746
-26.039
-25.312
-24.573
-23.832
-23.097
-22.376
-21.677
-21.007
-20.373
-19.78
-19.233
-18.738
-18.297
-17.912
-17.585
-17.316
-17.106
-16.953
-16.857
-16.815
-16.826
-16.887
-16.995
-17.146
-17.337
-17.563
-17.821
-18.107
-18.416
-18.743
-19.085
-19.437
-19.796
-20.158
-20.519
-20.878
-21.23
-21.575
-21.91
-22.233
-22.544
-22.84
-23.122
-23.388
-23.638
-23.872
-24.091
-24.295
-24.484
-24.661
-24.825
-24.979
-25.123
-25.259
-25.388
-25.513
-25.633
-25.752
-25.87
-25.989
-26.111
-26.236
-26.366
-26.502
-26.644
-26.794
-26.95
-27.114
-27.285
-27.463
-27.646
-27.836
-28.03
-28.228
-28.429
-28.632
-28.836
-29.04
-29.243
-29.444
-29.643
-29.837
-30.026
-30.209
-30.387
-30.557
-30.72
-30.874
-31.02
-31.157
-31.284
-31.403
-31.512
-31.613
-31.705
-31.789
-31.866
-31.937
-32.002
-32.063
-32.122
-32.179
-32.235
-32.293
-32.352
-32.413
-32.479
-32.549
-32.623
-32.702
-32.785
-32.872
-32.962
-33.055
-33.149
-33.242
-33.333
-33.421
-33.505
-33.582
-33.651
-33.709
-33.756
-33.788
-33.805
-33.801
-33.772
-33.715
-33.626
-33.501
-33.337
-33.131
-32.878
-32.577
-32.224
-31.82
-31.364
-30.851
-30.278
-29.641
-28.941
-28.187
-27.385
-26.539
-25.653
-24.736
-23.794
-22.842
-21.884
-20.917
-19.939
-18.946
-17.943
-16.943
-15.957
-14.996
-14.064
-13.152
-12.263
-11.402
-10.569
-9.758
-8.961
-8.16
-7.362
-6.596
-5.881
-5.235
-4.663
-4.153
-3.699
-3.3
-2.948
-2.647
-2.394
-2.173
-1.99
-1.858
-1.792
-1.815
-1.914
-2.045
-2.188
-2.324
-2.452
-2.588
-2.737
-2.903
-3.115
-3.4
-3.793
-4.342
-5.061
-5.956
-7.036
-8.29
-9.749
-11.475
-13.51
-15.892
-18.651
-21.77
-25.272
-29.223
-33.566
-38.159
-42.772
-47.004
-50.514
-53.091
-54.446
-54.24
-52.358
-48.895
-44.269
-39.423
-35.259
-32.392
-31.493
-33.132
-37.422
-44.06
-52.084
-59.541
-64.378
-64.806
-58.841
-44.873
-21.974
10.149
50.613
97.158
146.959
196.714
242.243
279.366
304.063
312.715
302.991
273.608
224.196
155.792
71.014
-26.347
-131.34
-238.616
-343.195
-439.797
-523.508
-590.479
-637.913
-664.727
-671.554
-659.689
-630.991
-588.611
-536.089
-477.073
-415.493
-354.242
-295.326
-240.766
-192.082
-149.87
-114.492
-85.891
-63.304
-46.288
-34.362
-26.549
-22.036
-20.271
-20.542
-22.054
-24.182
-26.154
-27.523
-28.294
-28.386
-27.563
-25.646
-22.796
-19.459
-16.272
-13.563
-11.282
-9.361
-7.878
-7.058
-6.909
-7.097
-7.065
-6.422
-5.081
-3.077
-0.432
2.944
7.088
11.844
16.876
21.866
26.639
31.101
35.213
38.917
42.138
44.861
47.138
49.044
50.638
51.966
53.049
53.913
54.603
55.169
55.661
56.131
56.62
57.17
57.825
58.62
59.581
60.73
62.076
63.624
65.38
67.345
69.516
71.894
74.474
77.252
80.223
83.382
86.726
90.246
93.93
97.765
101.736
105.83
110.028
114.307
118.634
122.982
127.326
131.65
135.941
140.184
144.361
148.457
152.454
156.347
160.13
163.796
167.335
170.741
174.015
177.171
180.237
183.23
186.154
189
191.751
194.391
196.899
199.252
201.419
203.361
205.039
206.426
207.495
208.213
208.539
208.416
207.773
206.557
204.725
202.251
199.127
195.349
190.926
185.876
180.228
174.018
167.279
160.045
152.357
144.269
135.842
127.163
118.329
109.435
100.581
91.855
83.323
75.046
67.071
59.437
52.184
45.352
38.978
33.089
27.702
22.82
18.44
14.54
11.083
8.017
5.274
2.797
0.546
-1.511
-3.398
-5.14
-6.769
-8.323
-9.828
-11.305
-12.769
-14.229
-15.697
-17.171
-18.637
-20.068
-21.421
-22.665
-23.786
-24.775
-25.629
-26.342
-26.905
-27.311
-27.561
-27.66
-27.611
-27.419
-27.086
-26.619
-26.035
-25.358
-24.615
-23.828
-23.012
-22.177
-21.333
-20.486
-19.647
-18.82
-18.005
-17.201
-16.413
-15.642
-14.893
-14.169
-13.466
-12.783
-12.116
-11.462
-10.822
-10.193
-9.575
-8.968
-8.371
-7.786
-7.216
-6.662
-6.124
-5.603
-5.098
-4.609
-4.137
-3.681
-3.241
-2.818
-2.412
-2.023
-1.653
-1.302
-0.971
-0.661
-0.371
-0.103
0.143
0.366
0.566
0.742
0.894
1.021
1.123
1.2
1.25
1.274
1.272
1.244
1.19
1.109
1.004
0.873
0.718
0.538
0.335
0.109
-0.14
-0.411
-0.702
-1.014
-1.344
-1.693
-2.058
-2.438
-2.833
-3.241
-3.661
-4.093
-4.535
-4.986
-5.446
-5.913
-6.388
-6.869
-7.356
-7.849
-8.346
-8.848
-9.354
-9.865
-10.379
-10.897
-11.418
-11.943
-12.471
-13.003
-13.539
-14.079
-14.622
-15.17
-15.722
-16.28
-16.842
-17.41
-17.984
-18.564
-19.149
-19.74
-20.337
-20.94
-21.547
-22.16
-22.776
-23.396
-24.018
-24.642
-25.265
-25.886
-26.503
-27.114
-27.718
-28.311
-28.893
-29.461
-30.012
-30.544
-31.054
-31.54
-31.999
-32.427
-32.823
-33.182
-33.502
-33.78
-34.014
-34.201
-34.338
-34.423
-34.453
-34.428
-34.344
-34.202
-33.998
-33.734
-33.408
-33.022
-32.576
-32.072
-31.513
-30.902
-30.243
-29.541
-28.799
-28.022
-27.216
-26.386
-25.538
-24.677
-23.809
-22.94
-22.077
-21.228
-20.401
-19.603
-18.839
-18.118
-17.445
-16.83
-16.278
-15.792
-15.376
-15.032
-14.767
-14.587
-14.496
-14.491
-14.569
-14.727
-14.959
-15.259
-15.614
-16.004
-16.409
-16.81
-17.189
-17.538
-17.845
-18.096
-18.275
-18.365
-18.355
-18.249
-18.048
-17.753
-17.374
-16.926
-16.44
-15.974
-15.585
-15.333
-15.274
-15.455
-15.919
-16.704
-17.851
-19.404
-21.401
-23.864
-26.818
-30.261
-34.198
-38.665
-43.573
-48.737
-53.897
-58.65
-62.629
-65.59
-67.192
-67.058
-65.146
-61.583
-56.741
-51.498
-46.521
-42.234
-39.343
-38.379
-39.241
-41.599
-44.53
-46.254
-45.418
-40.78
-30.513
-13.363
11.106
42.893
80.817
122.659
166.355
209.109
246.862
275.937
293.053
295.065
279.919
246.425
193.601
122.997
39.365
-53.852
-153.651
-257.655
-366.354
-474.003
-569.589
-643.434
-684.966
-692.499
-674.236
-637.688
-591.744
-541.619
-486.033
-425.96
-363.149
-299.825
-240.917
-189.531
-146.738
-113.047
-87.55
-68.764
-55.58
-46.903
-41.218
-37.219
-33.721
-29.47
-24.021
-17.568
-10.315
-2.602
5.042
12.205
18.327
22.65
24.951
25.39
24.218
21.879
18.792
15.279
11.787
8.843
6.757
5.669
5.597
6.42
8.04
10.396
13.372
16.83
20.639
24.675
28.835
33.049
37.234
41.296
45.144
48.687
51.849
54.592
56.908
58.807
60.313
61.458
62.281
62.829
63.16
63.328
63.383
63.371
63.334
63.318
63.369
63.535
63.859
64.372
65.092
66.031
67.196
68.592
70.222
72.088
74.182
76.497
79.027
81.763
84.696
87.812
91.09
94.505
98.031
101.645
105.329
109.065
112.837
116.633
120.436
124.23
128.006
131.763
135.503
139.23
142.953
146.68
150.427
154.218
158.072
162.001
166.007
170.084
174.217
178.385
182.562
186.721
190.817
194.794
198.587
202.121
205.324
208.13
210.465
212.247
213.408
213.89
213.653
212.674
210.942
208.459
205.237
201.299
196.689
191.466
185.703
179.489
172.905
166.028
158.938
151.721
144.455
137.208
130.037
122.98
116.073
109.343
102.813
96.495
90.389
84.486
78.764
73.196
67.758
62.437
57.218
52.086
47.031
42.047
37.136
32.309
27.575
22.944
18.425
14.03
9.775
5.677
1.759
-1.959
-5.458
-8.728
-11.76
-14.549
-17.092
-19.389
-21.447
-23.274
-24.88
-26.272
-27.46
-28.449
-29.251
-29.877
-30.338
-30.645
-30.811
-30.845
-30.758
-30.559
-30.258
-29.863
-29.383
-28.823
-28.191
-27.497
-26.746
-25.949
-25.113
-24.246
-23.355
-22.447
-21.53
-20.608
-19.687
-18.771
-17.864
-16.969
-16.089
-15.227
-14.385
-13.565
-12.768
-11.995
-11.248
-10.526
-9.831
-9.163
-8.521
-7.907
-7.32
-6.76
-6.227
-5.723
-5.245
-4.795
-4.371
-3.974
-3.603
-3.256
-2.933
-2.634
-2.356
-2.1
-1.864
-1.647
-1.449
-1.27
-1.108
-0.965
-0.838
-0.728
-0.636
-0.56
-0.5
-0.457
-0.431
-0.421
-0.427
-0.449
-0.487
-0.54
-0.608
-0.689
-0.784
-0.89
-1.008
-1.135
-1.27
-1.413
-1.562
-1.717
-1.875
-2.037
-2.201
-2.366
-2.532
-2.696
-2.859
-3.019
-3.176
-3.329
-3.478
-3.622
-3.761
-3.895
-4.023
-4.145
-4.262
-4.373
-4.479
-4.58
-4.676
-4.769
-4.86
-4.949
-5.039
-5.131
-5.227
-5.33
-5.44
-5.56
-5.693
-5.84
-6.003
-6.186
-6.388
-6.614
-6.864
-7.139
-7.443
-7.775
-8.136
-8.527
-8.947
-9.397
-9.875
-10.381
-10.913
-11.47
-12.049
-12.649
-13.266
-13.898
-14.542
-15.194
-15.85
-16.506
-17.157
-17.8
-18.429
-19.039
-19.624
-20.181
-20.703
-21.187
-21.626
-22.016
-22.351
-22.627
-22.841
-22.988
-23.065
-23.069
-22.999
-22.853
-22.631
-22.334
-21.964
-21.521
-21.01
-20.435
-19.8
-19.112
-18.377
-17.601
-16.793
-15.961
-15.112
-14.255
-13.398
-12.549
-11.715
-10.908
-10.134
-9.404
-8.727
-8.111
-7.564
-7.095
-6.71
-6.411
-6.201
-6.082
-6.057
-6.131
-6.307
-6.585
-6.964
-7.442
-8.017
-8.681
-9.417
-10.206
-11.028
-11.867
-12.712
-13.555
-14.386
-15.192
-15.962
-16.681
-17.339
-17.93
-18.44
-18.857
-19.181
-19.428
-19.636
-19.862
-20.149
-20.527
-21.018
-21.644
-22.449
-23.482
-24.789
-26.411
-28.371
-30.713
-33.545
-36.909
-40.735
-44.838
-48.885
-52.541
-55.606
-57.858
-58.972
-58.758
-57.281
-54.913
-52.419
-50.559
-49.731
-50.233
-52.501
-56.752
-62.751
-69.732
-76.173
-80.335
-81.04
-77.231
-67.507
-50.724
-26.239
5.941
44.475
87.288
132.554
177.936
220.048
255.247
279.643
289.597
282.923
258.166
214.145
151.063
70.813
-23.336
-126.524
-233.295
-338.647
-437.153
-523.427
-593.125
-642.976
-671.555
-679.407
-667.756
-638.442
-594.688
-540.257
-479.236
-416.041
-353.844
-294.868
-241.499
-195.48
-157.619
-128.316
-106.855
-91.631
-81.595
-75.708
-72.362
-70.247
-68.109
-64.707
-59.799
-53.741
-46.709
-39.096
-31.52
-24.433
-18.498
-14.428
-12.342
-12.062
-13.326
-15.692
-18.757
-22.19
-25.547
-28.369
-30.399
-31.526
-31.756
-31.203
-29.952
-28.075
-25.676
-22.876
-19.792
-16.523
-13.156
-9.759
-6.401
-3.162
-0.125
2.636
5.053
7.09
8.741
10.02
10.948
11.561
11.893
11.988
11.901
11.682
11.379
11.036
10.689
10.381
10.159
10.066
10.145
10.427
10.929
11.665
12.64
13.858
15.318
17.014
18.938
21.085
23.453
26.04
28.843
31.85
35.046
38.412
41.921
45.549
49.269
53.056
56.892
60.761
64.657
68.574
72.506
76.441
80.358
84.237
88.059
91.809
95.473
99.048
102.536
105.945
109.289
112.57
115.783
118.904
121.896
124.712
127.299
129.612
131.618
133.288
134.596
135.519
136.03
136.098
135.688
134.756
133.251
131.138
128.396
125.029
121.064
116.544
111.531
106.079
100.237
94.048
87.552
80.784
73.783
66.589
59.249
51.818
44.364
36.946
29.615
22.408
15.345
8.429
1.655
-4.981
-11.479
-17.832
-24.026
-30.045
-35.869
-41.479
-46.854
-51.98
-56.854
-61.471
-65.827
-69.913
-73.711
-77.202
-80.362
-83.17
-85.606
-87.658
-89.318
-90.584
-91.457
-91.944
-92.055
-91.8
-91.187
-90.228
-88.931
-87.308
-85.377
-83.153
-80.656
-77.908
-74.929
-71.741
-68.367
-64.827
-61.142
-57.331
-53.414
-49.41
-45.337
-41.215
-37.062
-32.897
-28.738
-24.603
-20.508
-16.468
-12.499
-8.612
-4.821
-1.135
2.436
5.884
9.201
12.382
15.421
18.315
21.061
23.657
26.102
28.396
30.539
32.534
34.382
36.087
37.652
39.082
40.38
41.554
42.606
43.545
44.374
45.1
45.729
46.268
46.721
47.095
47.397
47.631
47.803
47.92
47.985
48.003
47.978
47.915
47.817
47.687
47.528
47.342
47.133
46.902
46.652
46.384
46.1
45.801
45.489
45.165
44.83
44.483
44.127
43.761
43.386
43.002
42.609
42.208
41.8
41.383
40.959
40.528
40.089
39.644
39.192
38.733
38.269
37.798
37.323
36.843
36.359
35.87
35.379
34.885
34.388
33.888
33.386
32.882
32.376
31.867
31.356
30.841
30.324
29.804
29.28
28.751
28.218
27.681
27.139
26.592
26.04
25.484
24.923
24.359
23.792
23.223
22.652
22.081
21.512
20.944
20.38
19.821
19.269
18.726
18.194
17.676
17.174
16.692
16.231
15.795
15.387
15.011
14.669
14.365
14.102
13.885
13.716
13.599
13.537
13.532
13.587
13.703
13.881
14.123
14.426
14.791
15.214
15.695
16.23
16.816
17.451
18.13
18.849
19.604
20.391
21.202
22.032
22.872
23.716
24.555
25.382
26.19
26.97
27.713
28.413
29.063
29.654
30.181
30.633
30.999
31.273
31.451
31.533
31.521
31.417
31.228
30.965
30.642
30.276
29.881
29.467
29.045
28.627
28.226
27.858
27.54
27.284
27.091
26.96
26.884
26.853
26.849
26.839
26.775
26.607
26.293
25.787
25.044
24.016
22.653
20.913
18.774
16.214
13.214
9.763
5.846
1.466
-3.329
-8.502
-14.012
-19.73
-25.477
-30.975
-35.836
-39.742
-42.45
-43.638
-43.068
-40.716
-36.713
-31.601
-26.14
-20.834
-16.203
-12.825
-10.986
-10.729
-11.675
-12.543
-11.975
-9.05
-2.28
9.848
28.166
53.554
84.834
118.357
152.747
187.341
222.013
259.162
294.309
318.053
321.923
295.759
238.847
159.862
67.194
-28.907
-123.154
-216.564
-307.857
-394.398
-471.835
-533.936
-577.103
-600.484
-604.6
-590.923
-561.341
-518.718
-466.688
-409.199
-350.094
-292.075
-237.312
-188.139
-146.292
-112.587
-87.001
-68.528
-55.752
-47.729
-43.333
-40.969
-39.15
-36.518
-32.347
-26.766
-20.148
-12.775
-5.088
2.291
8.676
13.262
15.683
16.098
14.794
12.18
8.682
4.683
0.651
-2.881
-5.578
-7.31
-8.049
-7.888
-6.914
-5.174
-2.768
0.18
3.558
7.253
11.173
15.244
19.376
23.468
27.42
31.135
34.531
37.563
40.209
42.47
44.366
45.919
47.162
48.14
48.9
49.495
49.972
50.374
50.743
51.123
51.559
52.093
52.768
53.61
54.638
55.863
57.293
58.932
60.781
62.839
65.096
67.548
70.187
73.007
76.003
79.167
82.491
85.97
89.594
93.351
97.23
101.218
105.295
109.441
113.63
117.83
122.017
126.169
130.268
134.304
138.264
142.135
145.908
149.565
153.092
156.483
159.723
162.801
165.716
168.469
171.078
173.574
175.97
178.268
180.465
182.537
184.47
186.245
187.831
189.201
190.325
191.167
191.706
191.922
191.781
191.247
190.258
188.74
186.646
183.951
180.634
176.7
172.145
166.963
161.188
154.86
148.024
140.741
133.053
125.007
116.672
108.131
99.491
90.869
82.355
74.015
65.919
58.123
50.692
43.7
37.175
31.132
25.577
20.505
15.922
11.824
8.182
4.945
2.044
-0.586
-2.992
-5.203
-7.253
-9.178
-11.021
-12.832
-14.631
-16.429
-18.232
-20.045
-21.875
-23.724
-25.573
-27.386
-29.12
-30.745
-32.242
-33.603
-34.822
-35.887
-36.787
-37.508
-38.055
-38.433
-38.646
-38.7
-38.597
-38.348
-37.971
-37.494
-36.946
-36.349
-35.717
-35.064
-34.398
-33.731
-33.071
-32.426
-31.796
-31.183
-30.592
-30.027
-29.493
-28.992
-28.525
-28.089
-27.681
-27.298
-26.941
-26.608
-26.299
-26.012
-25.748
-25.507
-25.292
-25.101
-24.936
-24.793
-24.67
-24.567
-24.481
-24.409
-24.349
-24.299
-24.257
-24.222
-24.192
-24.168
-24.146
-24.127
-24.109
-24.091
-24.073
-24.055
-24.036
-24.016
-23.996
-23.976
-23.957
-23.94
-23.924
-23.913
-23.906
-23.905
-23.911
-23.926
-23.952
-23.99
-24.042
-24.11
-24.197
-24.304
-24.434
-24.589
-24.77
-24.98
-25.219
-25.49
-25.792
-26.126
-26.493
-26.893
-27.324
-27.787
-28.28
-28.802
-29.351
-29.925
-30.521
-31.136
-31.767
-32.411
-33.064
-33.721
-34.38
-35.034
-35.68
-36.312
-36.925
-37.515
-38.074
-38.599
-39.083
-39.521
-39.907
-40.236
-40.505
-40.707
-40.838
-40.895
-40.875
-40.773
-40.59
-40.321
-39.967
-39.527
-39.001
-38.392
-37.702
-36.932
-36.087
-35.173
-34.193
-33.154
-32.063
-30.927
-29.753
-28.55
-27.325
-26.087
-24.844
-23.604
-22.377
-21.173
-19.999
-18.867
-17.783
-16.759
-15.803
-14.923
-14.127
-13.416
-12.796
-12.268
-11.838
-11.51
-11.288
-11.171
-11.157
-11.244
-11.428
-11.702
-12.054
-12.458
-12.898
-13.355
-13.818
-14.282
-14.736
-15.168
-15.566
-15.912
-16.197
-16.42
-16.571
-16.642
-16.639
-16.571
-16.474
-16.412
-16.433
-16.574
-16.868
-17.317
-17.95
-18.813
-19.941
-21.38
-23.168
-25.305
-27.841
-30.868
-34.355
-38.182
-42.122
-45.79
-48.897
-51.293
-52.732
-52.914
-51.794
-49.529
-46.57
-43.705
-41.483
-40.099
-39.872
-41.215
-44.087
-48.061
-52.176
-54.871
-54.938
-51.683
-44.13
-31.072
-11.912
13.422
44.15
78.443
114.69
151.405
186.203
215.977
237.755
248.67
246.625
230.594
199.423
152.495
90.754
16.48
-67.091
-155.875
-245.726
-332.575
-411.652
-478.56
-530.069
-564.094
-579.921
-577.938
-559.206
-525.683
-480.665
-427.926
-371.21
-313.992
-259.075
-208.91
-165.609
-130.544
-103.901
-84.999
-72.672
-65.544
-62.269
-61.316
-61.023
-59.863
-57.018
-52.369
-46.125
-38.692
-30.529
-22.184
-14.401
-8.017
-3.45
-0.678
0.496
0.436
-0.498
-1.998
-3.636
-4.911
-5.509
-5.301
-4.269
-2.515
-0.131
2.836
6.285
10.092
14.145
18.341
22.603
26.884
31.122
35.242
39.169
42.827
46.15
49.111
51.697
53.913
55.778
57.317
58.562
59.557
60.351
60.989
61.516
61.969
62.386
62.805
63.266
63.811
64.479
65.297
66.286
67.463
68.836
70.411
72.193
74.178
76.362
78.741
81.31
84.064
86.999
90.111
93.395
96.846
100.455
104.204
108.072
112.04
116.089
120.199
124.348
128.51
132.663
136.794
140.897
144.967
148.992
152.952
156.817
160.557
164.154
167.597
170.878
173.983
176.898
179.616
182.141
184.485
186.645
188.592
190.276
191.653
192.694
193.387
193.731
193.722
193.35
192.605
191.491
190.018
188.192
186.007
183.428
180.419
176.969
173.1
168.863
164.297
159.415
154.225
148.734
142.955
136.911
130.601
124.005
117.103
109.895
102.404
94.695
86.831
78.854
70.795
62.671
54.519
46.408
38.397
30.532
22.855
15.404
8.244
1.472
-4.835
-10.623
-15.865
-20.565
-24.732
-28.361
-31.461
-34.053
-36.177
-37.903
-39.281
-40.343
-41.121
-41.648
-41.978
-42.187
-42.336
-42.462
-42.594
-42.745
-42.931
-43.173
-43.472
-43.813
-44.171
-44.506
-44.795
-45.032
-45.212
-45.326
-45.366
-45.308
-45.146
-44.883
-44.523
-44.069
-43.524
-42.887
-42.169
-41.39
-40.571
-39.737
-38.907
-38.089
-37.291
-36.521
-35.785
-35.089
-34.432
-33.81
-33.221
-32.663
-32.138
-31.646
-31.185
-30.752
-30.343
-29.953
-29.579
-29.22
-28.874
-28.538
-28.212
-27.895
-27.588
-27.294
-27.012
-26.743
-26.487
-26.243
-26.01
-25.789
-25.578
-25.376
-25.182
-24.997
-24.821
-24.652
-24.493
-24.343
-24.202
-24.072
-23.951
-23.841
-23.741
-23.65
-23.568
-23.496
-23.432
-23.375
-23.325
-23.282
-23.245
-23.213
-23.186
-23.163
-23.144
-23.127
-23.114
-23.103
-23.095
-23.09
-23.089
-23.092
-23.1
-23.114
-23.134
-23.163
-23.2
-23.247
-23.303
-23.37
-23.447
-23.536
-23.636
-23.749
-23.874
-24.014
-24.167
-24.335
-24.518
-24.716
-24.93
-25.159
-25.403
-25.662
-25.933
-26.217
-26.51
-26.812
-27.12
-27.432
-27.744
-28.055
-28.359
-28.653
-28.934
-29.197
-29.438
-29.652
-29.837
-29.986
-30.098
-30.168
-30.193
-30.169
-30.094
-29.965
-29.78
-29.536
-29.231
-28.863
-28.432
-27.937
-27.379
-26.757
-26.074
-25.333
-24.534
-23.684
-22.787
-21.847
-20.871
-19.866
-18.837
-17.793
-16.742
-15.691
-14.647
-13.618
-12.612
-11.637
-10.701
-9.81
-8.972
-8.195
-7.486
-6.85
-6.293
-5.814
-5.416
-5.1
-4.866
-4.719
-4.66
-4.688
-4.799
-4.992
-5.264
-5.606
-6.006
-6.439
-6.882
-7.317
-7.728
-8.107
-8.442
-8.721
-8.93
-9.054
-9.085
-9.019
-8.852
-8.576
-8.197
-7.729
-7.212
-6.72
-6.315
-6.057
-5.993
-6.146
-6.552
-7.264
-8.329
-9.793
-11.699
-14.053
-16.898
-20.332
-24.325
-28.749
-33.362
-37.719
-41.431
-44.258
-45.851
-45.816
-44.105
-40.87
-36.58
-32.254
-28.67
-26.275
-25.771
-27.728
-32.051
-38.314
-45.387
-51.136
-53.841
-52.077
-43.897
-27.709
-2.762
31.159
72.931
119.913
169.464
218.499
262.755
297.905
319.845
324.812
310.47
276
221.314
147.676
58.219
-42.717
-149.799
-257.13
-359.111
-450.618
-527.087
-584.973
-622.272
-638.616
-634.928
-613.241
-576.391
-527.747
-471.057
-410.299
-349.022
-289.929
-235.353
-187.009
-145.951
-112.842
-87.5
-68.91
-55.919
-47.444
-42.12
-38.679
-35.9
-32.459
-27.765
-21.888
-15.019
-7.506
0.136
7.449
13.825
18.481
21.134
21.897
21.007
18.892
15.971
12.583
9.178
6.277
4.196
3.075
2.937
3.674
5.193
7.438
10.302
13.651
17.364
21.32
25.423
29.601
33.776
37.85
41.732
45.331
48.57
51.411
53.84
55.863
57.5
58.779
59.734
60.412
60.866
61.147
61.307
61.388
61.434
61.487
61.595
61.803
62.153
62.674
63.384
64.293
65.41
66.737
68.274
70.017
71.957
74.087
76.402
78.897
81.568
84.408
87.408
90.556
93.843
97.257
100.787
104.421
108.147
111.951
115.819
119.738
123.693
127.666
131.641
135.598
139.516
143.377
147.159
150.842
154.406
157.831
161.098
164.188
167.084
169.769
172.226
174.441
176.399
178.087
179.493
180.607
181.418
181.918
182.1
181.959
181.49
180.691
179.561
178.1
176.31
174.194
171.759
169.011
165.958
162.61
158.979
155.078
150.92
146.523
141.901
137.074
132.06
126.878
121.547
116.089
110.524
104.872
99.155
93.394
87.609
81.821
76.05
70.317
64.641
59.04
53.534
48.139
42.871
37.747
32.782
27.987
23.376
18.96
14.748
10.748
6.968
3.412
0.084
-3.013
-5.878
-8.512
-10.917
-13.095
-15.052
-16.792
-18.321
-19.648
-20.779
-21.724
-22.493
-23.095
-23.54
-23.84
-24.005
-24.048
-23.978
-23.808
-23.548
-23.211
-22.807
-22.346
-21.84
-21.298
-20.73
-20.144
-19.55
-18.954
-18.364
-17.786
-17.226
-16.688
-16.177
-15.695
-15.245
-14.83
-14.45
-14.106
-13.798
-13.525
-13.287
-13.083
-12.91
-12.766
-12.649
-12.557
-12.487
-12.435
-12.4
-12.378
-12.365
-12.36
-12.358
-12.358
-12.356
-12.35
-12.337
-12.316
-12.285
-12.242
-12.186
-12.115
-12.03
-11.93
-11.815
-11.684
-11.539
-11.38
-11.208
-11.024
-10.831
-10.628
-10.418
-10.204
-9.986
-9.767
-9.55
-9.335
-9.127
-8.926
-8.736
-8.559
-8.398
-8.254
-8.129
-8.027
-7.949
-7.896
-7.87
-7.873
-7.905
-7.969
-8.065
-8.193
-8.355
-8.551
-8.781
-9.046
-9.345
-9.678
-10.046
-10.447
-10.882
-11.35
-11.85
-12.382
-12.945
-13.537
-14.158
-14.805
-15.477
-16.171
-16.885
-17.615
-18.36
-19.115
-19.878
-20.645
-21.413
-22.178
-22.938
-23.689
-24.426
-25.148
-25.849
-26.527
-27.177
-27.796
-28.38
-28.927
-29.432
-29.891
-30.301
-30.658
-30.959
-31.199
-31.375
-31.483
-31.519
-31.482
-31.37
-31.179
-30.91
-30.563
-30.138
-29.638
-29.065
-28.423
-27.714
-26.943
-26.113
-25.229
-24.296
-23.317
-22.299
-21.247
-20.168
-19.071
-17.965
-16.855
-15.752
-14.664
-13.597
-12.561
-11.563
-10.608
-9.705
-8.863
-8.091
-7.402
-6.805
-6.302
-5.896
-5.584
-5.36
-5.215
-5.138
-5.107
-5.11
-5.134
-5.17
-5.214
-5.255
-5.279
-5.275
-5.227
-5.125
-4.971
-4.766
-4.517
-4.247
-3.982
-3.758
-3.632
-3.644
-3.829
-4.225
-4.855
-5.76
-6.985
-8.563
-10.523
-12.87
-15.599
-18.721
-22.241
-26.142
-30.409
-34.967
-39.751
-44.763
-49.92
-55.058
-59.917
-64.047
-67.034
-68.629
-68.508
-66.361
-62.194
-56.164
-48.896
-41.605
-35.285
-30.72
-28.735
-29.801
-33.854
-40.481
-48.239
-54.71
-57.847
-55.645
-45.969
-27.494
0.316
37.503
81.392
128.03
175.201
219.005
257.384
289.011
306.785
305.746
280.918
227.497
150.666
56.567
-48.366
-155.166
-261.143
-363.798
-458.159
-540.895
-607.171
-653.08
-678.101
-682.773
-668.369
-637.062
-591.943
-536.69
-475.423
-412.212
-349.87
-290.661
-237.049
-190.953
-153.429
-124.653
-103.685
-89.056
-79.757
-74.586
-71.814
-69.744
-66.713
-61.741
-54.83
-46.325
-36.549
-26.017
-15.433
-5.617
2.44
8.224
11.788
13.34
13.249
11.922
9.718
7.097
4.583
2.47
0.862
-0.198
-0.77
-0.894
-0.578
0.105
1.063
2.239
3.596
5.12
6.796
8.575
10.401
12.241
14.087
15.961
17.879
19.833
21.805
23.786
25.784
27.81
29.867
31.939
33.991
36.01
38.004
39.991
41.984
43.984
45.97
47.912
49.799
51.634
53.428
55.191
56.926
58.645
60.372
62.149
64.03
66.044
68.204
70.516
72.984
75.621
78.449
81.48
84.713
88.142
91.756
95.54
99.478
103.537
107.674
111.842
115.994
120.1
124.142
128.104
131.974
135.739
139.379
142.883
146.245
149.452
152.493
155.368
158.08
160.652
163.115
165.484
167.765
169.95
172.015
173.93
175.662
177.159
178.381
179.296
179.87
180.085
179.926
179.361
178.36
176.876
174.854
172.263
169.089
165.326
160.998
156.138
150.793
145.038
138.942
132.556
125.933
119.111
112.123
105.019
97.849
90.668
83.546
76.538
69.687
63.038
56.61
50.414
44.448
38.687
33.109
27.708
22.48
17.43
12.568
7.897
3.418
-0.863
-4.952
-8.854
-12.571
-16.109
-19.466
-22.635
-25.605
-28.356
-30.871
-33.139
-35.158
-36.927
-38.451
-39.736
-40.79
-41.627
-42.259
-42.695
-42.947
-43.023
-42.934
-42.695
-42.319
-41.824
-41.224
-40.537
-39.775
-38.954
-38.084
-37.178
-36.245
-35.293
-34.33
-33.365
-32.404
-31.457
-30.531
-29.632
-28.766
-27.938
-27.153
-26.415
-25.727
-25.09
-24.504
-23.972
-23.493
-23.065
-22.689
-22.361
-22.08
-21.843
-21.646
-21.488
-21.363
-21.268
-21.199
-21.153
-21.125
-21.112
-21.111
-21.116
-21.126
-21.137
-21.146
-21.151
-21.148
-21.135
-21.111
-21.073
-21.021
-20.953
-20.867
-20.764
-20.643
-20.503
-20.346
-20.171
-19.979
-19.772
-19.55
-19.316
-19.071
-18.818
-18.558
-18.294
-18.028
-17.763
-17.501
-17.245
-16.997
-16.759
-16.534
-16.324
-16.131
-15.957
-15.804
-15.674
-15.568
-15.487
-15.432
-15.405
-15.405
-15.433
-15.49
-15.575
-15.688
-15.829
-15.998
-16.195
-16.418
-16.667
-16.94
-17.236
-17.553
-17.89
-18.244
-18.613
-18.994
-19.386
-19.785
-20.188
-20.592
-20.995
-21.393
-21.782
-22.16
-22.522
-22.866
-23.189
-23.486
-23.756
-23.995
-24.2
-24.369
-24.499
-24.588
-24.633
-24.631
-24.581
-24.48
-24.326
-24.116
-23.85
-23.525
-23.141
-22.697
-22.192
-21.627
-21.001
-20.316
-19.574
-18.776
-17.927
-17.029
-16.086
-15.102
-14.083
-13.034
-11.96
-10.867
-9.759
-8.641
-7.519
-6.4
-5.29
-4.194
-3.119
-2.071
-1.056
-0.081
0.848
1.722
2.54
3.298
3.991
4.614
5.16
5.625
6.008
6.313
6.54
6.695
6.782
6.811
6.802
6.774
6.746
6.734
6.748
6.797
6.894
7.055
7.297
7.628
8.047
8.545
9.116
9.753
10.439
11.139
11.796
12.346
12.723
12.877
12.765
12.341
11.569
10.399
8.78
6.679
4.071
0.947
-2.686
-6.841
-11.547
-16.73
-22.212
-27.735
-32.942
-37.533
-41.305
-43.987
-45.229
-44.834
-42.843
-39.578
-35.66
-31.676
-27.939
-24.789
-22.773
-22.246
-23.128
-24.868
-26.314
-26.151
-23.466
-17.285
-6.198
10.957
34.724
64.961
100.508
139.516
180.086
219.663
254.532
280.819
295.095
294.241
275.884
238.688
181.939
107.5
20.55
-73.785
-171.569
-271.915
-376.016
-480.919
-577.978
-653.217
-693.13
-693.149
-658.681
-603.482
-542.296
-483.441
-428.708
-375.288
-320.56
-265.375
-213.165
-167.906
-131.54
-103.777
-83.155
-67.874
-56.983
-49.625
-44.361
-39.793
-34.62
-28.178
-20.669
-12.484
-3.863
4.827
13.058
20.199
25.455
28.482
29.475
28.748
26.725
23.837
20.441
16.997
14.055
11.962
10.856
10.771
11.601
13.246
15.657
18.721
22.297
26.255
30.464
34.817
39.234
43.623
47.878
51.903
55.599
58.89
61.735
64.118
66.046
67.545
68.645
69.388
69.828
70.021
70.028
69.903
69.699
69.46
69.237
69.078
69.028
69.131
69.417
69.907
70.615
71.549
72.717
74.121
75.76
77.627
79.719
82.029
84.55
87.279
90.207
93.328
96.635
100.117
103.761
107.555
111.483
115.524
119.656
123.845
128.059
132.273
136.463
140.608
144.697
148.711
152.637
156.465
160.177
163.757
167.193
170.467
173.567
176.494
179.253
181.863
184.347
186.706
188.938
191.036
192.977
194.74
196.296
197.595
198.607
199.314
199.69
199.723
199.389
198.643
197.442
195.739
193.481
190.65
187.232
183.212
178.602
173.424
167.711
161.532
154.934
147.935
140.575
132.891
124.937
116.808
108.584
100.335
92.142
84.059
76.142
68.456
61.041
53.92
47.111
40.604
34.414
28.587
23.145
18.095
13.427
9.09
5.052
1.301
-2.189
-5.432
-8.447
-11.263
-13.892
-16.328
-18.57
-20.616
-22.475
-24.189
-25.778
-27.245
-28.584
-29.767
-30.777
-31.621
-32.293
-32.792
-33.117
-33.266
-33.247
-33.086
-32.798
-32.395
-31.883
-31.254
-30.512
-29.672
-28.75
-27.771
-26.756
-25.718
-24.671
-23.633
-22.62
-21.641
-20.703
-19.804
-18.944
-18.13
-17.366
-16.66
-16.015
-15.433
-14.914
-14.456
-14.058
-13.719
-13.434
-13.199
-13.01
-12.862
-12.755
-12.687
-12.656
-12.658
-12.691
-12.751
-12.835
-12.938
-13.056
-13.185
-13.319
-13.456
-13.592
-13.723
-13.849
-13.966
-14.072
-14.167
-14.249
-14.317
-14.37
-14.408
-14.431
-14.439
-14.433
-14.412
-14.378
-14.332
-14.275
-14.209
-14.134
-14.052
-13.963
-13.871
-13.775
-13.678
-13.58
-13.485
-13.393
-13.307
-13.231
-13.165
-13.114
-13.08
-13.064
-13.07
-13.098
-13.151
-13.231
-13.337
-13.47
-13.632
-13.821
-14.04
-14.286
-14.559
-14.859
-15.185
-15.535
-15.909
-16.305
-16.721
-17.157
-17.611
-18.082
-18.568
-19.068
-19.579
-20.1
-20.627
-21.159
-21.691
-22.22
-22.743
-23.254
-23.749
-24.225
-24.677
-25.1
-25.49
-25.844
-26.156
-26.424
-26.643
-26.81
-26.923
-26.978
-26.974
-26.909
-26.781
-26.59
-26.333
-26.011
-25.624
-25.171
-24.653
-24.07
-23.424
-22.715
-21.947
-21.123
-20.244
-19.317
-18.347
-17.34
-16.303
-15.242
-14.166
-13.083
-12.002
-10.931
-9.879
-8.853
-7.861
-6.914
-6.018
-5.181
-4.41
-3.711
-3.091
-2.559
-2.118
-1.772
-1.521
-1.364
-1.302
-1.337
-1.47
-1.699
-2.021
-2.433
-2.933
-3.518
-4.183
-4.913
-5.686
-6.481
-7.282
-8.077
-8.855
-9.603
-10.305
-10.946
-11.515
-12.01
-12.426
-12.759
-12.999
-13.148
-13.221
-13.251
-13.299
-13.418
-13.655
-14.05
-14.628
-15.425
-16.496
-17.888
-19.642
-21.794
-24.347
-27.341
-30.864
-34.892
-39.311
-43.872
-48.131
-51.689
-54.28
-55.554
-55.168
-53.084
-49.426
-44.749
-40.166
-36.616
-34.817
-35.512
-39.118
-45.471
-54.029
-63.354
-71.105
-75.13
-73.308
-63.63
-44.779
-16.23
21.636
67.052
117.027
168.127
216.173
256.704
285.482
298.69
293.591
268.569
223.221
158.454
76.698
-18.291
-121.669
-228.115
-332.47
-429.275
-513.423
-580.789
-628.355
-654.908
-660.807
-647.088
-615.599
-569.608
-513.083
-450.347
-385.8
-322.614
-263.28
-210.36
-165.71
-130.177
-103.669
-84.99
-72.426
-64.786
-60.771
-58.644
-56.832
-53.892
-49.063
-42.544
-34.809
-26.217
-17.261
-8.581
-0.875
5
8.646
10.229
10.052
8.54
6.125
3.172
0.134
-2.446
-4.229
-5.086
-4.996
-4.069
-2.406
-0.055
2.877
6.262
9.985
13.931
18.011
22.16
26.298
30.335
34.184
37.757
40.98
43.816
46.249
48.287
49.957
51.288
52.315
53.087
53.656
54.076
54.397
54.667
54.924
55.215
55.586
56.081
56.744
57.603
58.678
59.979
61.513
63.282
65.287
67.523
69.978
72.646
75.52
78.594
81.86
85.311
88.935
92.717
96.642
100.695
104.861
109.125
113.468
117.876
122.33
126.815
131.315
135.812
140.289
144.724
149.095
153.381
157.56
161.608
165.503
169.224
172.747
176.054
179.127
181.95
184.508
186.785
188.763
190.423
191.752
192.739
193.378
193.66
193.585
193.156
192.383
191.286
189.878
188.167
186.157
183.846
181.233
178.323
175.115
171.614
167.82
163.733
159.358
154.706
149.779
144.572
139.068
133.235
127.059
120.546
113.71
106.581
99.197
91.594
83.827
75.962
68.056
60.168
52.344
44.616
37.033
29.651
22.542
15.79
9.461
3.593
-1.784
-6.655
-11.022
-14.894
-18.305
-21.316
-23.972
-26.312
-28.363
-30.137
-31.661
-32.972
-34.115
-35.142
-36.097
-37.005
-37.892
-38.776
-39.664
-40.552
-41.418
-42.218
-42.923
-43.518
-43.994
-44.356
-44.603
-44.729
-44.731
-44.606
-44.353
-43.975
-43.475
-42.853
-42.119
-41.286
-40.377
-39.425
-38.456
-37.485
-36.527
-35.59
-34.681
-33.81
-32.979
-32.188
-31.439
-30.735
-30.077
-29.472
-28.92
-28.421
-27.974
-27.574
-27.217
-26.901
-26.625
-26.385
-26.181
-26.011
-25.874
-25.771
-25.702
-25.665
-25.658
-25.679
-25.725
-25.793
-25.881
-25.985
-26.103
-26.232
-26.371
-26.517
-26.669
-26.825
-26.984
-27.144
-27.302
-27.459
-27.613
-27.762
-27.905
-28.04
-28.167
-28.284
-28.391
-28.487
-28.571
-28.643
-28.703
-28.752
-28.789
-28.815
-28.83
-28.837
-28.836
-28.827
-28.813
-28.795
-28.773
-28.749
-28.725
-28.702
-28.682
-28.665
-28.654
-28.649
-28.651
-28.664
-28.687
-28.722
-28.771
-28.835
-28.916
-29.016
-29.136
-29.277
-29.441
-29.629
-29.842
-30.079
-30.341
-30.625
-30.93
-31.255
-31.596
-31.95
-32.315
-32.686
-33.062
-33.439
-33.815
-34.188
-34.555
-34.913
-35.26
-35.591
-35.904
-36.192
-36.449
-36.671
-36.852
-36.987
-37.074
-37.106
-37.079
-36.993
-36.843
-36.625
-36.334
-35.962
-35.502
-34.956
-34.325
-33.619
-32.849
-32.026
-31.162
-30.272
-29.37
-28.462
-27.55
-26.624
-25.676
-24.704
-23.712
-22.712
-21.718
-20.73
-19.746
-18.762
-17.765
-16.743
-15.684
-14.556
-13.344
-12.05
-10.688
-9.302
-7.94
-6.629
-5.389
-4.226
-3.143
-2.152
-1.262
-0.472
0.204
0.753
1.154
1.36
1.344
1.106
0.666
0.077
-0.597
-1.321
-2.068
-2.815
-3.562
-4.299
-5.03
-5.787
-6.592
-7.457
-8.391
-9.384
-10.436
-11.579
-12.848
-14.289
-15.965
-17.926
-20.216
-22.879
-25.937
-29.379
-33.202
-37.411
-41.916
-46.565
-51.13
-55.256
-58.635
-61.067
-62.254
-61.839
-59.776
-56.195
-51.479
-46.49
-41.862
-37.928
-35.297
-34.504
-35.497
-37.98
-41.069
-43.002
-42.477
-38.461
-29.357
-13.901
8.488
38.013
73.737
113.582
155.632
197.489
235.526
266.018
285.354
290.326
278.69
248.808
199.74
131.688
47.738
-46.32
-146.037
-247.906
-349.807
-452.213
-549.355
-630.587
-686.811
-708.021
-693.98
-654.849
-599.891
-540.087
-481.312
-421.877
-362.091
-302.545
-245.099
-194.345
-152.603
-120.099
-96.274
-79.298
-67.509
-59.891
-54.951
-51.203
-47.455
-42.585
-36.239
-28.686
-20.252
-11.336
-2.537
5.601
12.481
17.41
20.202
21.052
20.239
18.207
15.39
12.146
8.923
6.215
4.316
3.35
3.336
4.169
5.763
8.061
10.962
14.339
18.076
22.059
26.192
30.407
34.624
38.75
42.694
46.363
49.677
52.597
55.108
57.216
58.941
60.312
61.364
62.145
62.712
63.118
63.416
63.652
63.867
64.108
64.421
64.853
65.447
66.233
67.229
68.446
69.892
71.571
73.483
75.627
77.994
80.576
83.368
86.364
89.56
92.946
96.51
100.238
104.113
108.122
112.255
116.506
120.861
125.301
129.808
134.357
138.926
143.494
148.033
152.511
156.899
161.175
165.324
169.342
173.217
176.929
180.456
183.769
186.848
189.683
192.267
194.591
196.651
198.446
199.986
201.3
202.399
203.281
203.931
204.317
204.421
204.24
203.773
203.021
201.977
200.622
198.945
196.942
194.596
191.882
188.751
185.145
181.027
176.386
171.228
165.575
159.437
152.82
145.739
138.223
130.316
122.068
113.521
104.722
95.734
86.648
77.58
68.646
59.941
51.539
43.501
35.889
28.765
22.184
16.181
10.769
5.949
1.721
-1.917
-4.979
-7.501
-9.546
-11.202
-12.545
-13.634
-14.523
-15.26
-15.904
-16.51
-17.119
-17.756
-18.433
-19.16
-19.946
-20.804
-21.726
-22.697
-23.682
-24.638
-25.536
-26.356
-27.082
-27.7
-28.19
-28.535
-28.735
-28.793
-28.72
-28.521
-28.202
-27.768
-27.234
-26.618
-25.945
-25.239
-24.518
-23.794
-23.079
-22.381
-21.711
-21.074
-20.471
-19.898
-19.354
-18.84
-18.354
-17.898
-17.469
-17.064
-16.678
-16.307
-15.95
-15.604
-15.267
-14.938
-14.617
-14.303
-13.998
-13.703
-13.42
-13.147
-12.886
-12.636
-12.396
-12.167
-11.948
-11.737
-11.536
-11.345
-11.164
-10.993
-10.834
-10.687
-10.553
-10.434
-10.329
-10.24
-10.169
-10.116
-10.082
-10.069
-10.078
-10.11
-10.167
-10.25
-10.359
-10.495
-10.659
-10.851
-11.07
-11.318
-11.593
-11.896
-12.226
-12.584
-12.97
-13.384
-13.826
-14.297
-14.796
-15.322
-15.876
-16.457
-17.063
-17.694
-18.348
-19.024
-19.72
-20.435
-21.167
-21.913
-22.672
-23.441
-24.216
-24.993
-25.768
-26.537
-27.296
-28.04
-28.765
-29.468
-30.147
-30.798
-31.419
-32.008
-32.561
-33.076
-33.546
-33.968
-34.333
-34.638
-34.875
-35.041
-35.13
-35.14
-35.069
-34.916
-34.68
-34.361
-33.955
-33.456
-32.861
-32.171
-31.389
-30.521
-29.577
-28.572
-27.521
-26.444
-25.356
-24.269
-23.186
-22.106
-21.025
-19.939
-18.852
-17.773
-16.706
-15.657
-14.629
-13.623
-12.633
-11.646
-10.638
-9.58
-8.452
-7.243
-5.957
-4.609
-3.217
-1.81
-0.41
0.97
2.312
3.601
4.826
5.971
7.019
7.941
8.691
9.217
9.483
9.454
9.117
8.473
7.52
6.28
4.778
3.028
1.053
-1.122
-3.481
-6.005
-8.669
-11.448
-14.307
-17.199
-20.097
-22.973
-25.805
-28.569
-31.239
-33.82
-36.329
-38.774
-41.182
-43.557
-45.924
-48.352
-50.825
-53.241
-55.43
-57.093
-57.95
-57.837
-56.502
-53.629
-49.244
-43.543
-36.984
-30.541
-24.957
-20.677
-18.403
-18.708
-21.517
-26.485
-32.602
-37.902
-40.868
-40.189
-33.976
-20.818
-0.039
28.622
64.153
104.356
147.169
189.844
228.351
258.926
278.031
282.14
268.921
237.026
185.347
115.466
32.136
-61.282
-161.566
-266.274
-375.91
-484.301
-580.344
-654.221
-695.094
-701.765
-682.725
-645.601
-599.439
-549.015
-492.753
-431.529
-367.003
-301.569
-240.255
-186.318
-141.126
-105.439
-78.623
-59.385
-46.601
-39.096
-35.244
-33.503
-32.434
-30.57
-27.233
-22.467
-16.46
-9.581
-2.441
4.425
10.356
14.548
16.736
17.056
15.771
13.348
10.253
6.867
3.673
1.196
-0.291
-0.683
0.01
1.643
4.105
7.31
11.117
15.368
19.923
24.653
29.457
34.254
38.948
43.433
47.613
51.397
54.736
57.61
60.018
61.984
63.535
64.71
65.559
66.139
66.507
66.719
66.825
66.874
66.918
67.006
67.19
67.516
68.019
68.718
69.631
70.765
72.123
73.707
75.515
77.539
79.773
82.212
84.853
87.691
90.721
93.933
97.316
100.861
104.554
108.385
112.342
116.411
120.578
124.828
129.147
133.518
137.923
142.341
146.753
151.136
155.466
159.722
163.881
167.92
171.815
175.544
179.087
182.422
185.531
188.392
190.988
193.301
195.316
197.017
198.39
199.423
200.105
200.428
200.384
199.967
199.174
198.002
196.45
194.522
192.218
189.546
186.512
183.124
179.392
175.33
170.952
166.271
161.307
156.076
150.599
144.895
138.987
132.896
126.646
120.258
113.758
107.168
100.513
93.817
87.104
80.397
73.72
67.096
60.547
54.094
47.758
41.558
35.513
29.641
23.956
18.475
13.211
8.175
3.379
-1.168
-5.46
-9.491
-13.257
-16.754
-19.983
-22.945
-25.64
-28.072
-30.246
-32.168
-33.845
-35.284
-36.494
-37.486
-38.269
-38.855
-39.255
-39.483
-39.55
-39.468
-39.252
-38.914
-38.468
-37.925
-37.299
-36.603
-35.849
-35.05
-34.215
-33.357
-32.485
-31.61
-30.739
-29.881
-29.043
-28.231
-27.45
-26.706
-26.003
-25.343
-24.73
-24.166
-23.651
-23.187
-22.774
-22.411
-22.098
-21.833
-21.615
-21.442
-21.311
-21.22
-21.166
-21.146
-21.158
-21.197
-21.261
-21.347
-21.449
-21.566
-21.694
-21.829
-21.969
-22.111
-22.253
-22.393
-22.529
-22.66
-22.784
-22.901
-23.01
-23.11
-23.202
-23.285
-23.36
-23.428
-23.488
-23.542
-23.592
-23.639
-23.683
-23.727
-23.773
-23.821
-23.874
-23.932
-23.999
-24.074
-24.16
-24.258
-24.371
-24.501
-24.648
-24.815
-25.002
-25.211
-25.442
-25.697
-25.974
-26.275
-26.6
-26.947
-27.317
-27.709
-28.123
-28.557
-29.011
-29.482
-29.967
-30.466
-30.974
-31.488
-32.004
-32.519
-33.027
-33.526
-34.012
-34.482
-34.932
-35.36
-35.761
-36.134
-36.475
-36.779
-37.041
-37.256
-37.419
-37.523
-37.565
-37.541
-37.447
-37.281
-37.04
-36.723
-36.33
-35.858
-35.304
-34.661
-33.925
-33.099
-32.186
-31.196
-30.143
-29.04
-27.898
-26.736
-25.567
-24.399
-23.235
-22.068
-20.887
-19.693
-18.49
-17.292
-16.113
-14.954
-13.816
-12.696
-11.58
-10.46
-9.322
-8.137
-6.888
-5.579
-4.221
-2.856
-1.536
-0.291
0.858
1.901
2.836
3.651
4.331
4.877
5.279
5.527
5.604
5.467
5.088
4.472
3.638
2.64
1.551
0.418
-0.727
-1.858
-2.963
-4.03
-5.053
-6.056
-7.071
-8.12
-9.216
-10.354
-11.539
-12.811
-14.219
-15.829
-17.708
-19.902
-22.457
-25.411
-28.795
-32.625
-36.868
-41.484
-46.429
-51.585
-56.794
-61.819
-66.292
-69.874
-72.299
-73.226
-72.405
-69.825
-65.59
-60.159
-54.286
-48.556
-43.565
-39.944
-37.955
-37.514
-38.23
-38.972
-38.325
-35.032
-27.543
-14.481
4.907
30.946
63.125
99.88
139.233
178.677
214.749
243.893
262.645
267.791
257.192
229.471
183.894
121.14
43.433
-45.883
-142.336
-241.101
-337.622
-426.881
-504.085
-565.504
-608.477
-632.016
-636.621
-623.246
-593.501
-550.332
-497.272
-438.16
-376.901
-316.262
-258.47
-205.963
-160.659
-123.648
-95.175
-74.413
-60.038
-51.154
-46.647
-44.885
-44.22
-42.986
-40.185
-35.762
-29.95
-22.95
-15.148
-7.118
0.386
6.385
10.374
12.406
12.704
11.656
9.664
7.072
4.354
2.078
0.604
0.073
0.506
1.777
3.776
6.446
9.673
13.325
17.287
21.446
25.719
30.043
34.343
38.531
42.52
46.222
49.565
52.509
55.041
57.171
58.925
60.332
61.428
62.257
62.868
63.314
63.64
63.889
64.098
64.311
64.571
64.923
65.41
66.062
66.898
67.933
69.174
70.628
72.3
74.186
76.28
78.579
81.081
83.787
86.698
89.805
93.098
96.562
100.18
103.936
107.807
111.767
115.792
119.858
123.945
128.036
132.115
136.165
140.166
144.096
147.942
151.695
155.355
158.921
162.399
165.794
169.121
172.402
175.652
178.874
182.07
185.232
188.349
191.406
194.387
197.273
200.034
202.638
205.04
207.184
209.018
210.48
211.503
212.015
211.954
211.273
209.932
207.896
205.138
201.644
197.407
192.432
186.733
180.323
173.236
165.53
157.263
148.508
139.354
129.888
120.199
110.375
100.505
90.681
81.002
71.548
62.39
53.592
45.21
37.314
29.953
23.149
16.917
11.261
6.166
1.622
-2.39
-5.905
-8.967
-11.63
-13.964
-16.022
-17.848
-19.486
-20.975
-22.371
-23.719
-25.04
-26.354
-27.67
-28.994
-30.334
-31.696
-33.064
-34.419
-35.734
-36.968
-38.097
-39.106
-39.978
-40.702
-41.261
-41.643
-41.848
-41.885
-41.76
-41.483
-41.059
-40.495
-39.81
-39.023
-38.16
-37.247
-36.306
-35.35
-34.397
-33.459
-32.545
-31.666
-30.826
-30.024
-29.26
-28.538
-27.859
-27.226
-26.638
-26.092
-25.587
-25.119
-24.687
-24.29
-23.925
-23.592
-23.29
-23.02
-22.783
-22.58
-22.412
-22.278
-22.179
-22.112
-22.078
-22.074
-22.1
-22.154
-22.235
-22.341
-22.472
-22.626
-22.802
-23.001
-23.222
-23.464
-23.727
-24.012
-24.318
-24.646
-24.996
-25.368
-25.763
-26.18
-26.62
-27.082
-27.566
-28.07
-28.593
-29.134
-29.691
-30.262
-30.847
-31.442
-32.045
-32.655
-33.268
-33.882
-34.496
-35.105
-35.708
-36.302
-36.883
-37.449
-37.997
-38.523
-39.023
-39.493
-39.929
-40.327
-40.682
-40.989
-41.243
-41.441
-41.578
-41.65
-41.656
-41.591
-41.454
-41.245
-40.963
-40.608
-40.18
-39.682
-39.113
-38.477
-37.776
-37.012
-36.188
-35.309
-34.38
-33.408
-32.399
-31.361
-30.302
-29.229
-28.151
-27.078
-26.016
-24.974
-23.959
-22.981
-22.051
-21.185
-20.394
-19.686
-19.066
-18.537
-18.099
-17.75
-17.481
-17.277
-17.127
-17.02
-16.954
-16.931
-16.951
-17.008
-17.095
-17.197
-17.306
-17.421
-17.543
-17.672
-17.814
-17.981
-18.202
-18.52
-18.971
-19.576
-20.341
-21.258
-22.329
-23.557
-24.954
-26.535
-28.308
-30.273
-32.434
-34.789
-37.331
-40.055
-42.926
-45.892
-48.924
-51.984
-55.084
-58.291
-61.575
-64.833
-67.899
-70.473
-72.29
-73.197
-72.913
-71.093
-67.699
-62.882
-57.085
-51.233
-46.039
-41.927
-39.551
-39.487
-41.747
-46.037
-51.375
-55.876
-58.038
-56.636
-49.981
-36.685
-15.986
12.45
47.69
87.55
129.985
172.555
211.771
244.124
266.054
274.193
266.555
242.086
200.043
140.94
66.838
-19.154
-112.671
-208.88
-303.345
-391.278
-467.952
-529.6
-573.484
-598.453
-604.907
-593.826
-566.829
-526.852
-477.467
-422.518
-365.924
-310.493
-258.392
-211.876
-172.576
-141.201
-117.646
-100.836
-89.238
-81.812
-77.429
-74.563
-71.857
-68.08
-62.607
-55.677
-47.75
-39.161
-30.365
-21.926
-14.453
-8.69
-4.969
-3.129
-2.903
-3.918
-5.794
-8.222
-10.805
-13.066
-14.712
-15.6
-15.682
-15.036
-13.726
-11.787
-9.307
-6.389
-3.127
0.377
4.05
7.832
11.653
15.442
19.127
22.63
25.89
28.852
31.482
33.775
35.741
37.399
38.778
39.913
40.842
41.617
42.282
42.877
43.442
44.01
44.617
45.303
46.105
47.06
48.194
49.524
51.062
52.817
54.79
56.983
59.392
62.009
64.83
67.851
71.064
74.462
78.032
81.758
85.621
89.599
93.663
97.79
101.953
106.128
110.293
114.429
118.519
122.545
126.487
130.329
134.069
137.705
141.244
144.698
148.075
151.39
154.668
157.925
161.178
164.436
167.701
170.965
174.218
177.448
180.643
183.784
186.831
189.724
192.39
194.751
196.738
198.274
199.276
199.666
199.378
198.358
196.573
194.009
190.652
186.496
181.531
175.754
169.199
161.936
154.058
145.664
136.854
127.73
118.416
109.04
99.715
90.538
81.58
72.893
64.538
56.581
49.088
42.129
35.74
29.918
24.644
19.892
15.631
11.821
8.4
5.287
2.417
-0.254
-2.75
-5.082
-7.273
-9.357
-11.37
-13.354
-15.332
-17.306
-19.277
-21.243
-23.192
-25.108
-26.957
-28.688
-30.265
-31.671
-32.9
-33.959
-34.847
-35.556
-36.082
-36.424
-36.582
-36.562
-36.371
-36.01
-35.492
-34.832
-34.055
-33.194
-32.277
-31.318
-30.332
-29.327
-28.312
-27.296
-26.286
-25.283
-24.291
-23.315
-22.361
-21.435
-20.542
-19.684
-18.86
-18.067
-17.303
-16.569
-15.862
-15.182
-14.529
-13.901
-13.299
-12.725
-12.179
-11.661
-11.17
-10.703
-10.259
-9.836
-9.432
-9.045
-8.673
-8.314
-7.966
-7.63
-7.303
-6.986
-6.678
-6.377
-6.083
-5.796
-5.516
-5.241
-4.971
-4.705
-4.444
-4.186
-3.933
-3.685
-3.442
-3.206
-2.977
-2.758
-2.552
-2.36
-2.184
-2.027
-1.891
-1.779
-1.693
-1.634
-1.602
-1.6
-1.63
-1.693
-1.793
-1.93
-2.108
-2.329
-2.596
-2.912
-3.279
-3.697
-4.165
-4.684
-5.254
-5.881
-6.567
-7.313
-8.117
-8.976
-9.882
-10.827
-11.795
-12.763
-13.708
-14.606
-15.438
-16.188
-16.841
-17.387
-17.817
-18.116
-18.275
-18.29
-18.16
-17.886
-17.488
-16.984
-16.406
-15.803
-15.218
-14.702
-14.297
-14.039
-13.951
-14.032
-14.271
-14.657
-15.186
-15.855
-16.637
-17.475
-18.269
-18.898
-19.257
-19.25
-18.756
-17.603
-15.671
-12.885
-9.308
-5.172
-0.579
4.551
10.329
16.9
24.42
32.972
42.866
54.72
68.758
84.759
