44.149
22.378
23.276
42.158
53.338
45.046
32.286
29.448
31.164
28.315
25.648
33.013
45.662
46.86
33.29
20.314
16.595
15.305
12.391
10.633
8.601
4.519
3.392
7.441
10.816
11.741
15.507
20.947
20.857
16.883
15.948
15.902
12.396
11.013
17.414
26.08
28.172
21.525
10.825
4.089
5.909
11.312
11.891
7.691
5.373
6.888
9.916
15.498
23.726
27.977
24.294
17.812
12.016
3.583
-6.357
-9.878
-5.845
-2.172
-2.431
-3.119
-2.21
1.083
8.43
16.151
18.34
18.323
21.05
20.01
11.748
8.987
16.847
18.236
5.327
-3.83
-0.204
1.094
-3.482
2.304
16.774
20.395
15.179
18.095
24.23
19.455
11.314
11.093
10.256
1.551
-4.281
0.424
8.252
12.19
12.462
9.503
4.399
0.94
0.082
-1.084
-3.297
-4.748
-5.309
-5.772
-6.133
-7.046
-7.633
-4.328
1.03
0.715
-4.735
-6.863
-5.924
-8.289
-11.685
-10.707
-6.484
-0.452
7.153
11.647
9.479
2.363
-8.959
-22.011
-28.03
-24.544
-20.82
-20.447
-16.717
-10.985
-13.118
-20.659
-20.684
-13.751
-12.87
-17.363
-12.99
-1.259
0.389
-8.257
-8.905
2.561
13.378
16.55
11.765
0.251
-8.567
-5.838
2.779
8.371
10.085
8.277
4.873
6.019
11.246
15.374
21.706
30.914
30.687
19.473
14.928
22.538
28.556
29.308
33.029
36.893
31.891
20.647
10.66
2.861
-3.069
-6.221
-10.346
-18.373
-24.355
-24.713
-26.613
-31.941
-33.249
-33.896
-40.883
-41.08
-25.065
-12.656
-13.192
-6.775
2.73
-14.471
-48.276
-59.771
-49.893
-45.426
-47.638
-48.474
-54.611
-64.254
-62.133
-47.881
-36.905
-36.523
-41.164
-42.481
-35.879
-23.884
-11.32
4.164
27.185
54.182
80.728
109.445
139.429
167.032
204.593
266.675
331.891
357.694
335.81
293.197
242.48
171.42
75.232
-34.239
-144.851
-249.034
-345.036
-443.49
-552.622
-653.125
-712.086
-721.475
-699.767
-662.98
-617.768
-571.852
-525.941
-464.586
-379.098
-293.164
-241.347
-223.324
-203.987
-162.335
-114.561
-83.263
-70.901
-68.487
-65.902
-54.74
-39.297
-33.066
-33.394
-23.21
-4.04
3.014
-8.072
-21.396
-24.377
-17.629
-5.925
7.916
23.583
37.241
38.787
27.293
16.73
11.869
2.405
-8.749
-4.894
12.911
27.345
32.824
35.059
34.697
29.736
23.112
19.643
21.407
27.482
36.564
47.495
55.677
56.87
56.711
63.57
72.139
69.893
58.47
53.609
62.839
74.709
75.135
64.929
52.697
42.117
37.026
44.026
59.742
71.118
73.308
72.778
74.639
79.709
87.39
92.671
90.886
88.387
92.954
97.928
97.286
102.271
115.959
118.83
108.393
109.292
122.392
124.879
124.828
142.496
158.871
154.865
153.031
164.756
165.257
150.851
146.647
154.888
159.027
160.23
166.91
176.457
187.142
200.412
210.696
212.905
209.719
203.94
198.625
200.695
210.408
217.354
215.08
208.765
205.824
207.31
209.761
211.188
211.954
211.24
208.114
202.993
193.126
176.963
164.706
165.362
168.007
159.492
146.213
136.078
122.473
103.048
88.746
84.684
82.163
72.543
57.809
46.963
44.401
43.55
36.517
25.466
16.372
9.629
4.866
3.868
3.844
0.455
-2.925
-1.719
-1.356
-9.307
-19.471
-17.777
-5.186
0.706
-6.833
-15.602
-18.693
-20.242
-19.439
-16.136
-19.377
-29.419
-34.197
-32.275
-31.353
-29.652
-25.126
-25.563
-31.31
-31.787
-25.232
-19.084
-16.241
-16.054
-17.223
-16.484
-14.534
-14.773
-15.123
-15.899
-22.72
-27.666
-15.607
2.766
1.317
-19.225
-36.403
-40.955
-35.423
-21.034
-9.071
-16.662
-38.161
-49.694
-43.973
-33.481
-25.599
-20.031
-22.259
-35.495
-46.291
-40.722
-27.591
-24.076
-29.473
-32.376
-29.459
-24.404
-21.267
-21.204
-19.352
-13.224
-11.654
-20.917
-31.373
-31.97
-25.848
-22.357
-24.619
-28.584
-27.598
-19.558
-12.123
-14.676
-23.912
-25.117
-10.583
7.087
6.371
-13.286
-25.757
-18.306
-12.955
-24.448
-34.911
-32.29
-27.557
-24.805
-19.279
-15.494
-15.338
-13.37
-14.322
-22.518
-26.104
-21.919
-26.11
-39.902
-44.161
-35.684
-29.681
-29.823
-28.103
-23.613
-20.243
-19.754
-24.921
-34.04
-36.811
-30.932
-28.377
-32.986
-33.872
-27.7
-21.541
-15.969
-11.28
-16.88
-31.851
-39.338
-34.863
-31.501
-33.555
-34.01
-31.189
-26.008
-17.542
-12.334
-18.973
-31.748
-37.844
-35.998
-33.77
-33.898
-33.169
-29.071
-24.122
-24.273
-29.1
-29.923
-25.766
-26.027
-30.877
-31.885
-31.369
-35.636
-38.408
-32.461
-23.774
-21.19
-23.801
-23.51
-16.394
-9.05
-7.455
-6.622
-3.14
-0.849
3.79
13.178
11.605
-7.071
-19.646
-13.624
-5.182
-2.363
-0.975
-6.314
-12.988
-0.09
24.561
30.482
20.503
19.871
25.087
19.051
9.106
8.35
10.163
5.562
-1.758
-6.904
-10.169
-12.662
-16.805
-24.464
-30.524
-29.336
-27.046
-32.588
-40.307
-39.544
-33.899
-32.461
-33.563
-32.772
-32.762
-35.483
-37.473
-35.729
-30.354
-24.799
-24.394
-28.587
-30.25
-27.155
-24.875
-28.163
-36.995
-46.757
-51.609
-52.364
-52.866
-49.569
-38.874
-25.004
-8.489
15.197
42.524
69.098
101.753
144.603
190.781
238.407
289.02
329.582
345.406
340.854
319.912
269.143
183.949
81.64
-26.698
-142.62
-254.771
-348.553
-441.369
-561.618
-690.946
-774.867
-792.17
-769.202
-731.517
-685.279
-635.62
-584.662
-521.426
-438.917
-350.483
-275.224
-217.664
-171.335
-133.786
-106.414
-84.792
-64.164
-50.259
-48.673
-52.053
-52.872
-53.893
-54.241
-45.385
-28.554
-16.828
-18.015
-27.794
-34.867
-29.029
-13.182
-2.037
0.207
5.022
14.592
15.614
4.229
-7.177
-8.824
-0.813
11.796
21.321
23.906
23.244
22.52
21.117
18.588
13.93
8.957
12.248
26.599
41.784
49.979
51.577
45.477
34.341
29.519
34.164
39.511
44.395
55.03
67.252
71.252
67.206
61.23
56.421
55.05
57.908
60.832
61.255
62.196
63.165
58.617
51.436
53.712
67.264
78.946
81.77
82.404
85.203
90.695
103.165
117.152
116.494
103.321
96.691
99.59
102.02
103.983
107.573
108.697
109.074
114.132
122.717
132.746
143.295
148.991
147.676
146.24
149.484
155.3
161.502
166.17
167.658
169.213
173.651
177.046
177.55
179.972
184.799
186.488
185.171
185.84
187.85
188.638
191.714
198.327
201.403
198.591
196.557
195.458
189.157
181.818
180.44
177.368
164.734
152.138
148.635
146.828
139.204
128.512
116.375
102.252
92.045
90.416
90.059
81.665
67.944
57.932
52.589
44.193
29.59
16.928
13.127
12.459
8.814
6.614
6.969
3.057
-3.005
-4.279
-5.921
-12.506
-16.475
-16.048
-16.794
-15.664
-13.325
-21.414
-33.828
-28.6
-10.35
-5.374
-15.996
-23.257
-22.473
-21.503
-21.256
-19.822
-19.785
-22.666
-26.519
-28.263
-26.232
-24.275
-27.057
-30.482
-28.68
-24.81
-23.616
-25.941
-34.069
-44.518
-43.961
-31.219
-23.417
-26.672
-28.922
-26.324
-26.097
-28.764
-31.88
-35.64
-34.07
-24.489
-20.056
-27.75
-34.682
-33.678
-31.48
-27.831
-19.402
-15.244
-22.326
-31.81
-33.489
-28.396
-23.805
-24.544
-28.129
-29.122
-27.924
-27.105
-23.931
-17.546
-14.472
-17.619
-20.338
-17.504
-14.154
-18.161
-27.223
-30.056
-23.691
-18.856
-22.208
-27.651
-29.339
-28.1
-25.832
-24.841
-26.738
-28.027
-24.981
-19.901
-17.34
-20.149
-26.689
-28.661
-23.127
-20.883
-25.573
-23.28
-11.378
-7.381
-14.91
-17.58
-12.98
-15.031
-23.655
-25.442
-18.481
-12.029
-11.296
-16.742
-25.616
-28.647
-19.573
-7.756
-7.138
-16.211
-22.824
-23.6
-23.983
-24.303
-20.787
-16.735
-19.001
-24.974
-25.45
-20.488
-18.053
-16.653
-9.915
-6.145
-15.244
-25.115
-22.759
-18.801
-22.07
-22.095
-17.19
-19.575
-25.429
-21.074
-12.124
-11.539
-15.704
-16.184
-14.607
-14.283
-13.923
-11.762
-8.94
-11.075
-19.696
-21.156
-5.314
10.351
6.718
-4.803
-9.806
-16.593
-27.18
-28.347
-23.006
-24.082
-26.958
-24.143
-20.933
-18.039
-10.165
-1.44
2.509
3.874
2.872
-1.935
-5.24
-3.128
0.181
2.155
5.38
9.227
10.982
13.947
22.596
32.554
36.795
36.813
37.025
36.645
35.245
35.117
34.993
32.686
30.622
29.811
26.583
20.705
16.144
12.114
5.107
-1.639
-3.26
-3.678
-8.87
-16.374
-20.95
-22.84
-24.723
-26.483
-25.321
-20.059
-14.88
-14.573
-17.143
-17.931
-17.162
-16.395
-14.081
-10.596
-10.096
-13.408
-17.009
-20.609
-26.052
-29.607
-27.917
-27.46
-32.896
-35.602
-30.28
-26.105
-25.935
-17.615
3.473
28.775
55.387
86.939
121.854
158.773
203.303
256.898
307.883
341.553
352.788
342.866
311.199
256.798
179.899
79.779
-38.833
-160.69
-270.678
-365.796
-460.01
-575.675
-705.071
-791.684
-794.317
-746.379
-702.881
-669.739
-627.107
-569.503
-495.587
-406.582
-319.73
-250.096
-194.862
-150.958
-120.553
-96.453
-69.274
-45.019
-35.095
-35.179
-31.188
-23.352
-25.262
-35.809
-35.369
-17.571
-0.065
2.561
-4.951
-8.698
1.394
20.675
31.251
27.254
24.036
28.723
29.292
22.037
15.809
10.57
5.163
11.066
30.52
45.596
46.11
40.927
36.568
30.747
26.307
30.993
43.396
52.34
52.923
52.382
54.339
51.974
44.623
41.196
42.972
45.905
53.079
62.557
62.777
55.944
56.12
59.649
53.147
44.909
52
67.234
71.776
68.064
71.195
79.574
81.712
81.444
89.443
99.863
99.882
92.339
90.727
100.21
112.238
114.91
109.76
110.998
120.411
123.076
117.248
118.665
129.297
134.566
132.007
134.085
145.419
157.102
161.031
158.404
154.765
154.123
158.502
166.243
171.79
173.909
177.323
181.417
181.619
183.007
192.5
201.638
199.283
192.746
195.63
205.961
212.79
212.617
208.94
207.177
212.001
218.15
213.465
202.075
200.982
205.936
196.951
178.16
169.766
170.146
164.898
154.369
143.731
129.598
112.857
102.071
97.79
92.351
85.178
81.874
80.139
71.318
54.734
39.189
31.321
29.347
26.96
20.289
10.82
1.689
-4.219
-1.448
11.243
20.63
13.435
-0.997
-4.827
-2.014
-8.646
-22.229
-27.495
-23.69
-22.193
-25.8
-28.885
-29.015
-26.721
-23.418
-23.183
-26.176
-24.918
-17.636
-14.124
-19.229
-24.499
-22.869
-19.255
-21.466
-27.724
-29.78
-27.362
-28.365
-31.937
-28.468
-19.536
-17.03
-22.289
-26.447
-27.096
-28.235
-30.875
-33.799
-36.142
-35.241
-28.907
-20.94
-18.117
-21.156
-24.806
-25.379
-21.133
-12.05
-7.056
-17.295
-36.262
-46.421
-44.867
-40.042
-33.575
-27.344
-29.663
-37.363
-36.095
-26.515
-22.311
-24.051
-23.419
-22.737
-24.86
-21.399
-11.504
-10.398
-23.044
-31.75
-23.424
-9.403
-6.733
-15.467
-24.08
-25.822
-22.307
-18.209
-17.135
-19.682
-23.428
-24.487
-20.693
-15.666
-15.311
-18.02
-18.256
-18.808
-24.029
-27.897
-26.254
-26.428
-30.165
-28.338
-21.024
-18.129
-19.122
-16.132
-11.233
-10.334
-11.087
-11.192
-13.763
-16.772
-14.324
-10.345
-14.506
-25.628
-31.558
-25.559
-15.644
-13.322
-18.368
-24.371
-30.159
-33.624
-29.502
-20.394
-12.29
-6.176
-8.199
-24.133
-39.132
-36.4
-26.201
-25.144
-29.988
-32.876
-34.678
-35.597
-33.516
-29.053
-24.774
-24.836
-30.323
-34.076
-30.839
-25.429
-23.117
-24.293
-27.588
-28.154
-24.087
-24.73
-34.05
-38.213
-29.31
-20.108
-21.66
-29.854
-37.699
-40.995
-36.781
-28.547
-23.88
-23.689
-24.099
-25.126
-27.253
-27.243
-25.469
-26.211
-26.791
-21.84
-16.565
-17.866
-20.6
-18.364
-13.619
-8.222
-1.04
4.345
5.139
6.368
11.284
15.308
16.426
18.448
19.198
11.069
-1.296
-1.454
13.977
29.602
35.338
35.432
32.77
26.639
22.46
23.728
22.502
12.909
2.562
-0.539
-0.629
-4.49
-9.801
-13.01
-18.387
-27.019
-29.471
-24.031
-24.648
-35.137
-39.563
-32.046
-26.465
-28.335
-29.459
-30.08
-35.203
-37.937
-31.772
-24.829
-25.175
-27.933
-26.275
-22.265
-21.407
-24.12
-26.947
-28.727
-30.614
-32.118
-32.481
-32.135
-28.375
-16.833
0.06
15.803
31.861
57.335
96.201
141.621
184.22
222.625
262.116
303.598
339.47
359.193
353.185
315.436
247.076
153.637
41.68
-78.346
-195.848
-308.01
-416.128
-523.233
-635.291
-741.717
-805.819
-806.934
-770.356
-726.495
-675.709
-614.407
-550.924
-482.584
-399.52
-311.995
-239.977
-186.811
-146.047
-114.759
-88.024
-62.257
-44.809
-40.119
-37.737
-31.675
-30.563
-35.78
-36.35
-29.978
-21.707
-11.24
-5.467
-15.578
-24.137
-2.266
31.91
34.395
10.58
0.468
8.167
11.402
9.397
9.875
6.496
1.204
10.39
33.499
49.392
47.908
38.096
28.56
21.024
17.591
20.009
26.905
36.4
45.717
50.357
49.087
45.119
40.577
37.087
39.797
49.85
57.216
54.65
51.525
57.648
64.638
62.853
62.156
72.734
81.829
75.365
64.697
65.181
68.848
64.749
62.125
68.825
73.971
71.759
73.407
83.078
90.235
90.391
89.627
91.147
94.602
101.905
112.561
119.812
118.429
112.923
112.526
118.737
125.403
131.03
139.192
147.478
150.197
149.447
150.802
153.855
156.604
161.256
169.514
178.984
186.127
188.178
184.571
180.19
182.202
190.104
195.395
193.971
190.45
188.917
189.251
191.713
195.631
196.912
193.949
191.307
193.373
197.85
197.569
188.592
176.173
169.237
167.643
162.167
151.343
145.753
146.919
140.849
124.118
111.349
107.221
100.288
86.978
72.355
55.064
36.701
28.314
30.289
29.257
21.581
15.377
12.426
9.17
6.896
6.303
1.453
-11.366
-24.546
-27.002
-20.131
-16.08
-19.465
-23.599
-23.846
-22.259
-23.076
-29.519
-37.632
-37.43
-29.131
-24.886
-28.134
-30.86
-31.114
-32.177
-32.006
-29.765
-30.12
-34.56
-39.96
-42.405
-39.671
-37.585
-42.517
-44.626
-34.823
-29.398
-41.891
-53.194
-45.52
-33.124
-32.549
-38.725
-43.657
-46.962
-47.274
-44.144
-40.885
-38.432
-37.498
-41.741
-48.247
-47.275
-38.52
-32.477
-32.614
-32
-29.498
-32.5
-39.497
-38.869
-31.404
-31.307
-39.091
-40.933
-36.354
-35.649
-35.914
-30.859
-29.34
-36.027
-37.718
-31.024
-31.322
-38.887
-35.037
-20.831
-17.653
-27.417
-32.853
-31.382
-33.318
-37.631
-35.508
-27.354
-22.275
-25.235
-29.539
-26.608
-20.682
-20.702
-23.712
-23.023
-21.201
-22.209
-26.195
-34.401
-42.467
-38.499
-22.713
-11.897
-15.815
-27.252
-34.731
-31.525
-20.787
-15.992
-23.258
-30.936
-30.276
-28.195
-28.843
-26.797
-23.584
-25.882
-29.491
-27.014
-22.438
-21.407
-21.238
-21.514
-26.577
-31.925
-29.003
-24.161
-29.445
-38.551
-37.13
-29.02
-27.225
-29.504
-25.592
-17.526
-14.363
-16.681
-19.928
-23.927
-28.602
-29.21
-24.62
-21.384
-23.016
-25.581
-27.062
-28.344
-26.574
-21.348
-19.328
-21.76
-22.425
-21.762
-23.837
-24.357
-19.598
-15.07
-14.676
-17.129
-23.781
-33.568
-37.851
-33.862
-30.678
-33.41
-36.154
-34.601
-31.77
-29.593
-26.264
-23.411
-25.966
-32.157
-33.495
-27.764
-21.406
-18.898
-20.495
-24.64
-24.812
-17.196
-12.019
-18.022
-25.205
-23.713
-20.575
-21.148
-18.69
-11.285
-6.1
-5.532
-4.462
1.043
8.375
11.329
9.292
8.55
11.236
12.989
14.038
20.562
33.259
43.986
45.427
38.635
30.048
25.403
26.295
27.316
20.283
7.183
-0.706
-1.052
-2.463
-7.431
-11.708
-16.913
-25.8
-32.559
-32.67
-31.881
-34.442
-35.435
-31.901
-26.522
-18.453
-8.223
-6.919
-20.222
-34.056
-35.374
-30.897
-30.484
-32.733
-35.052
-36.947
-35.14
-31.892
-34.979
-41.353
-42.057
-39.43
-37.407
-32.165
-26.657
-26.529
-21.256
-0.212
27.162
52.104
81.413
117.583
153.773
192.022
240.173
292.803
333.639
352.823
349.506
321.176
262.364
174.418
66.453
-53.606
-177.716
-291.29
-388.611
-492.021
-623.578
-755.431
-828.87
-827.027
-786.86
-742.844
-700.886
-654.967
-593.887
-509.589
-415.421
-332.382
-262.61
-202.293
-158.078
-129.464
-104.776
-82.959
-70.568
-63.587
-54.476
-43.488
-34.37
-32.978
-42.19
-48.326
-34.91
-13.155
-7.989
-17.951
-22.141
-15.436
-5.913
5.502
18.067
23.483
20.092
16.311
15.944
15.665
14.09
12.839
13.937
20.666
33.6
43.649
39.692
25.991
17.031
14.533
12.323
18.215
39.046
56.889
55.159
47.17
48.528
51.268
47.955
47.433
52.861
56.003
57.089
61.895
64.348
59.039
58.887
72.948
84.263
77.158
64.694
65.416
76.982
87.906
92.398
89.172
82.963
82.633
89.48
96.884
100.776
101.066
99.346
100.222
106.128
112.835
118.888
129.451
141.582
142.096
130.223
123.151
130.321
142.028
148.779
152.893
157.669
160.204
158.687
158.284
164.496
174.201
180.187
181.982
185.038
192.786
202.681
206.422
199.99
194.64
202.156
214.443
219.352
222.061
228.799
231.498
225.465
218.94
217.425
217.789
216.807
213.314
207.658
202.992
200.751
198.064
193.704
188.842
181.985
173.373
168.931
168.282
160.062
141.2
124.348
116.058
108.75
99.952
94.211
85.932
68.22
53.238
54.925
62.091
56.663
42.799
32.634
24.85
18.556
22.042
31.845
30.361
13.925
-0.793
-2.213
3.293
5.104
1.358
-3.663
-7.123
-8.968
-8.592
-4.674
0.111
-1.042
-10.121
-20.12
-23.762
-20.855
-16.085
-14.735
-18.319
-22.684
-24.169
-24.042
-23.928
-23.164
-20.196
-12.906
-3.18
0.862
-4.023
-11.14
-16.841
-23.574
-27.564
-23.609
-19.571
-25.246
-34.707
-36.404
-28.957
-18.461
-12.54
-15.214
-19.511
-16.368
-10.863
-12.614
-18.351
-21.362
-23.986
-26.92
-23.28
-13.481
-9.335
-15.8
-23.398
-23.644
-18.762
-14.73
-16.526
-25.923
-34.587
-31.597
-22.449
-20.177
-21.188
-16.008
-10.641
-11.885
-12.44
-7.045
-0.49
2.453
-2.224
-14.25
-20.494
-12.718
-5.87
-12.661
-20.901
-19.826
-18.282
-19.549
-13.886
-3.828
-1.893
-7.199
-11.798
-14.222
-11.974
-3.772
0.461
-6.552
-17.463
-23.365
-21.66
-14.306
-11.314
-19.105
-24.749
-17.206
-9.571
-13.449
-18.272
-15.954
-12.641
-8.945
-2.108
-0.469
-8.506
-16.325
-18.937
-20.134
-17.472
-10.658
-10.943
-19.94
-22.289
-12.509
-3.478
-4.718
-12.992
-20.419
-20.107
-11.949
-5.976
-10.513
-18.975
-18.573
-9.976
-6.212
-10.483
-11.049
-5.204
-6.528
-16.374
-16.579
-4.651
-1.815
-13.625
-20.758
-16.119
-12.614
-14.623
-16.155
-18.977
-26.319
-32.5
-34.107
-35.023
-35.031
-29.659
-21.608
-18.959
-22.276
-23.614
-19.415
-15.591
-16.902
-19.464
-18.176
-15.777
-19.249
-28.179
-32.368
-25.903
-17.101
-15.65
-18.791
-20.12
-20.24
-20.845
-20.588
-19.606
-18.216
-14.336
-8.506
-5.177
-6.225
-8.106
-6.218
-1.047
2.695
5.45
11.498
15.051
7.515
-1.581
1.926
11.171
13.414
11.676
11.375
10.419
9.936
13.127
19.282
29.022
40.348
43.42
36.442
31.815
34.452
35.99
34.375
33.12
25.834
9.976
1.916
8.812
10.584
-2.609
-11.856
-8.994
-9.342
-16.295
-19.166
-20.533
-27.572
-33.569
-32.218
-28.327
-25.792
-24.522
-25.894
-28.472
-27.748
-25.413
-27.112
-30.221
-27.299
-21.338
-22.236
-29.47
-34.798
-36.9
-37.676
-35.251
-32.122
-34.3
-37.897
-34.077
-24.765
-17.337
-10.129
3.75
24.286
46.621
71.913
105.775
146.416
187.217
230.867
283.732
335.856
363.587
353.541
313.342
255.611
178.275
74.291
-43.542
-153.669
-255.195
-357.542
-461.648
-572.644
-689.254
-773.643
-788.076
-751.246
-705.678
-661.381
-611.522
-556.61
-488.796
-400.179
-311.731
-251.293
-213.637
-177.169
-139.022
-107.121
-82.129
-63.36
-51.345
-42.338
-35.28
-34.545
-38.713
-40.503
-36.151
-25.694
-14.64
-15.393
-30.227
-41.032
-32.773
-13.269
2.481
10.843
14.729
15.043
12.134
7.505
2.045
-3.213
-3.471
7.998
29.584
47.757
51.246
43.41
33.998
27.456
24.585
25.271
27.152
30.484
40.4
54.995
60.191
49.502
38.385
41.986
51.595
53.274
51.291
53.001
55.072
57.097
60.837
58.65
49.774
49.529
61.411
68.945
66.523
66.057
70.688
71.706
68.956
71.358
80.64
88.03
85.953
78.815
79.009
90.079
101.805
106.33
108.413
114.925
122.835
123.407
116.434
112.722
118.202
126.212
131.398
136.671
142.959
148.505
156.091
165.485
168.63
165.129
165.786
172.678
177.448
180.994
190.276
199.834
200.248
196.255
196.55
197.595
194.29
194.141
204.643
216.622
217.299
211.728
211.333
212.002
207.897
208.934
218.253
220.035
210.762
205.989
206.705
199.284
185.404
176.475
170.993
162.58
154.346
149.68
142.783
128.48
112.152
101.757
95.843
87.413
75.292
63.375
52.502
42.003
35.702
36.093
36.335
29.767
21.118
16.211
11.847
6.298
3.565
1.505
-5.882
-15
-17.506
-13.436
-10.264
-14.069
-22.369
-25.135
-18.708
-12.775
-15.452
-22.633
-28.243
-31.32
-30.742
-26.417
-23.611
-25.259
-26.812
-25.692
-24.337
-21.847
-17.389
-17.536
-24.503
-28.297
-24.497
-22.57
-26.138
-26.656
-23.64
-27.231
-35.963
-37.124
-32.49
-35.71
-42.365
-36.658
-26.37
-30.028
-38.39
-34.032
-28.459
-36.177
-43.936
-40.036
-35.577
-36.785
-35.033
-30.21
-31.114
-36.153
-37.211
-35.299
-36.738
-40.374
-39.942
-35.992
-35.299
-38.8
-40.855
-40.838
-43.964
-50.222
-52.694
-47.307
-38.631
-35.645
-41.866
-50.707
-54.413
-53.563
-52.02
-49.743
-46.301
-44.271
-45.843
-49.403
-49.92
-44.956
-39.893
-40.301
-43.006
-43.055
-40.525
-34.955
-26.246
-21.264
-26.243
-37.44
-47.293
-51.522
-49.456
-44.757
-41.253
-38.549
-38.716
-45.26
-50.175
-43.514
-33.673
-32.718
-34.964
-33.275
-33.768
-39.103
-42.22
-40.681
-38.094
-36.532
-36.198
-35.357
-32.872
-32.272
-34.554
-35.679
-38.584
-48.642
-57.44
-55.333
-49.934
-50.098
-49.991
-43.902
-36.795
-34.87
-39.569
-46.586
-47.117
-40.558
-38.332
-43.103
-42.132
-32.505
-28.563
-35.661
-42.747
-44.784
-47.041
-49.097
-47.105
-44.562
-44.324
-43.083
-42.092
-44.828
-44.362
-34.447
-25.272
-27.882
-35.493
-36
-30.444
-28.821
-34.488
-38.866
-34.22
-27.214
-27.995
-31.742
-28.106
-20.114
-16.712
-17.373
-16.554
-13.252
-9.512
-6.242
-3.597
-3.203
-6.114
-7.776
-3.069
3.822
7.16
11.102
18.417
22.092
21.279
24.02
27.351
21.143
10.828
8.391
8.007
-2.318
-14.683
-12.72
-1.552
-1.042
-12.696
-20.121
-20.299
-24.223
-30.721
-30.694
-27.954
-29.906
-33.022
-33.202
-31.87
-28.862
-26.574
-31.473
-38.307
-32.497
-17.629
-15.399
-31.201
-45.622
-45.31
-38.379
-35.681
-37.446
-40.813
-44.841
-47.557
-48.245
-49.659
-50.946
-44.605
-28.314
-12.749
-6.327
0.633
21.052
50.62
80.485
113.217
148.478
178.727
211.727
263.838
323.391
354.124
338.214
289.075
222.711
139.378
36.228
-77.154
-183.437
-275.671
-366.649
-473.037
-588.74
-684.473
-736.031
-742.532
-718.74
-680.554
-636.544
-587.636
-531.342
-462.028
-377.103
-294.143
-241.848
-219.128
-191.663
-142.64
-93.512
-65.802
-56.37
-53.468
-48.322
-35.806
-23.434
-24.074
-30.751
-25.074
-10.095
-3.65
-7.55
-10.663
-9.656
-8.896
-8.929
-1.407
20.36
41.984
40.24
21.291
11.44
12.407
11.145
15.221
31.244
43.051
45.841
52.138
53.396
36.349
21.26
24.738
26.951
20.631
28.208
46.803
51.169
49.063
59.753
65.405
49.324
36.708
46.783
59.135
59.155
59.959
65.422
64.416
61.09
67.252
76.629
78.913
79.658
84.903
89.233
90.396
93.364
97.698
99.161
99.04
100.327
103.215
107.767
112.09
112.558
112.57
119.78
130.897
134.724
131.558
132.086
137.261
137.969
134.352
136.146
144.019
149.909
153.664
159.6
163.472
162.656
165.534
173.966
178.577
180.708
189.869
200.678
202.476
200.131
202.577
208.747
214.485
216.072
210.786
205
208.861
219.322
224.055
220.88
218.557
220.902
223.723
225.049
224.879
218.901
206.686
198.099
198.037
197.094
187.988
176.437
168.341
160.563
150.281
140.629
131.506
117.854
102.26
93.466
89.243
79.49
65.069
54.054
45.918
36.725
29.56
26.742
22.676
13.559
5.474
5.188
7.672
2.279
-9.298
-14.584
-12.207
-13.911
-20.755
-20.537
-12.999
-11.182
-16.702
-20.69
-23.281
-27.552
-28.394
-25.38
-25.894
-28.576
-27.624
-27.773
-32.225
-32.107
-25.343
-22.927
-26.782
-27.16
-24.085
-26.266
-32.261
-34.334
-33.639
-34.822
-35.166
-31.834
-30.027
-33.747
-37.253
-34.778
-30.724
-31.053
-32.495
-29.365
-23.243
-19.092
-19.55
-24.681
-29.212
-25.155
-16.053
-17.028
-30.857
-40.406
-35.267
-27.113
-28.069
-32.542
-31.277
-27.568
-28.36
-31.106
-30.329
-27.637
-26.155
-25.126
-24.382
-23.372
-20.648
-22.035
-31.716
-35.707
-22.986
-10.697
-15.653
-25.178
-24.119
-18.547
-15.315
-11.222
-7.969
-10.688
-16.001
-19.009
-20.944
-22.061
-20.731
-19.649
-21.003
-21.75
-21.05
-21.599
-21.64
-17.799
-12.711
-10.979
-14.111
-20.615
-24.304
-20.531
-16.833
-21.8
-27.909
-24.754
-18.173
-17.48
-18.527
-15.483
-14.219
-19.97
-24.708
-20.142
-13.083
-14.101
-19.293
-18.48
-14.055
-14.893
-18.868
-18.685
-16.751
-18.2
-19.784
-19.008
-20.961
-26.61
-29.509
-28.419
-27.549
-26.4
-24.265
-26.071
-31.102
-30.246
-23.066
-19.358
-20.693
-20.149
-17.661
-17.721
-18.926
-18.466
-18.216
-20.189
-23.518
-26.926
-29.306
-29.248
-27.129
-26.063
-26.811
-24.453
-17.575
-14.635
-20.347
-26.984
-28.696
-28.568
-28.413
-27.634
-27.26
-26.239
-23.865
-23.092
-22.651
-19.087
-17.597
-22.622
-26.46
-23.324
-18.763
-16.419
-14.535
-15.694
-20.7
-19.748
-8.045
1.571
-1.717
-9.844
-12.556
-12.675
-14.395
-14.143
-8.765
-0.73
4.561
2.949
-1.98
-0.42
9.359
17.162
16.079
10.907
8.681
10.599
15.185
21.768
28.401
31.902
32.284
32.397
32.768
32.172
30.904
27.96
20.796
12.649
10.52
11.636
5.264
-7.623
-13.557
-9.748
-7.741
-12.065
-17.678
-24.88
-34.609
-39.399
-36.499
-34.16
-36.17
-38.033
-38.261
-38.377
-37.203
-33.288
-27.742
-23.94
-24.581
-26.531
-26.25
-29.179
-38.113
-42.338
-38.134
-38.882
-47.39
-49.445
-43.31
-39.085
-33.772
-21.056
-7.348
5.048
23.495
48.092
77.215
117.093
165.424
211.16
256.037
304.812
343.523
355.427
340.035
300.675
235.976
148.454
44.512
-69.892
-186.456
-295.657
-393.481
-487.94
-595.973
-713.379
-793.157
-794.304
-742.742
-694.687
-660.589
-615.422
-551.551
-475.935
-390.105
-303.727
-235.222
-186.626
-146.291
-112.318
-88.675
-70.647
-53.459
-41.821
-39.044
-39.038
-36.636
-36.293
-42.412
-46.299
-35.669
-17.271
-11.897
-22.975
-30.932
-22.842
-7.616
1.125
2.457
5.331
13.553
18.632
12.028
-1.776
-10.688
-5.424
15.218
38.812
47.242
39.804
32.969
32.119
26.725
17.744
21.706
39.944
52.113
49.033
43.286
41.937
39.007
34.776
34.771
36.759
38.216
43.435
53.257
61.658
65.105
65.908
66.507
65.285
62.061
63.959
72.851
74.723
63.226
57.104
67.88
77.703
74.824
75.087
87.402
95.475
88.559
79.57
82.912
94.202
101.398
105.288
113.533
120.528
116.505
109.724
112.941
120.747
124.302
128.067
134.214
135.501
133.627
139.133
150.576
157.043
157.587
158.857
162.368
168.328
178.677
187.451
184.729
174.952
173.427
182.093
187.141
183.823
184.101
193.763
202.556
204.264
204.827
205.87
202.28
196.133
194.366
197.31
200.102
197.568
186.617
172.24
165.255
167.542
168.365
160.282
149.714
144.638
139.753
126.618
111.458
105.052
102.89
94.687
83.563
78.707
79.031
75.562
62.812
43.31
24.855
13.608
9.237
6.835
1.45
-7.165
-12.089
-7.689
0.02
1.862
-0.916
-3.684
-7.753
-12.101
-11.542
-8.336
-9.353
-14.078
-18.011
-19.357
-16.947
-12.681
-13.309
-19.725
-23.148
-19.578
-17.305
-22.988
-29.998
-29.827
-26.298
-25.292
-21.468
-12.082
-7.769
-12.566
-15.368
-13.168
-15.232
-19.89
-17.269
-11.938
-14.402
-20.133
-20.864
-20.949
-24.569
-25.704
-22.09
-19.908
-19.9
-16.21
-9.416
-6.524
-9.286
-13.347
-16.994
-21.342
-23.965
-21.594
-17.487
-17.969
-22.915
-25.766
-22.348
-15.11
-8.837
-6.866
-10.726
-17.875
-22.019
-20.065
-14.921
-11.195
-12.201
-17.135
-20.318
-19.024
-16.759
-14.935
-12.159
-10.946
-13.259
-15.919
-17.45
-18.447
-16.633
-13.452
-15.451
-20.823
-21.034
-17.467
-17.472
-19.086
-17.339
-15.961
-19.651
-24.963
-25.861
-21.548
-17.272
-17.988
-19.833
-14.467
-4.222
-0.678
-5.949
-10.929
-12.793
-16.465
-20.67
-20.571
-18.685
-19.125
-20.688
-21.932
-21.888
-18.59
-14.572
-14.256
-16.037
-17.217
-18.618
-19.493
-18.898
-18.422
-17.581
-16.875
-20.951
-27.1
-25.034
-15.808
-11.774
-15.812
-18.868
-16.828
-15.484
-18.452
-20.022
-15.646
-12.798
-19.124
-26.102
-23.241
-19.047
-23.971
-28.057
-21.544
-15.6
-19.762
-25.182
-24.311
-20.699
-16.952
-15.127
-20.404
-29.371
-30.581
-23.658
-19.033
-19.463
-20.118
-20.727
-22.97
-24.77
-24.652
-23.003
-20.058
-18.308
-19.254
-18.292
-13.634
-12.614
-18.55
-23.802
-23.386
-21.715
-22.016
-21.484
-18.848
-17.352
-18.295
-17.676
-11.753
-2.529
4.306
5.208
2.092
0.184
2.226
7.275
14.988
23.675
25.604
16.076
4.626
5.058
18.123
32.574
38.391
35.473
32.695
36.54
41.463
38.934
31.565
26.794
22.287
11.962
1.468
-0.121
0.821
-5.519
-10.051
-2.769
2.077
-9.951
-26.118
-30.375
-27.102
-23.698
-19.846
-20.555
-31.249
-42.156
-40.351
-29.57
-22.546
-23.6
-28.747
-33.823
-36.15
-35.402
-35.654
-39.708
-42.246
-37.656
-31.424
-32.502
-39.404
-44.609
-44.591
-38.229
-26.986
-16.657
-5.783
15.666
45.247
71.3
100.365
145.237
194.773
235.018
276.815
325.922
359.469
359.82
334.902
290.279
217.611
116.746
0.382
-120.965
-238.382
-341.428
-436.228
-548.083
-678.972
-782.846
-815.508
-788.808
-745.383
-704.252
-658.681
-602.111
-532.104
-447.921
-359.288
-283.074
-224.25
-173.616
-127.794
-95.026
-75.953
-58.838
-41.962
-37.297
-44.099
-46.792
-44.145
-47.66
-51.053
-39.263
-21.797
-17.788
-22.112
-21.652
-20.585
-21.78
-15.098
-1.148
6.491
7.29
10.825
12.701
2.524
-11.454
-10.82
6.767
27.768
39.983
39.202
30.477
25.245
26.301
23.653
15.407
16.09
32.84
51.148
54.975
46.053
36.331
34.101
39.855
46.011
44.792
41.104
45.464
54.742
58.391
58.405
61.975
63.706
56.71
50.82
59.56
77.147
85.369
78.839
69.233
66.374
68.861
72.945
77.223
79.428
79.057
80.223
86.098
94.607
101.622
106.106
110.495
114.991
116.505
115.769
115.864
115.813
118.074
129.107
141.582
141.392
135.346
139.806
151.191
157.677
160.051
161.498
161.084
163.597
174.114
185.586
187.358
181.531
180.5
188.759
196.338
195.39
192.032
193.378
196.737
199.445
203.834
207.868
206.276
201.82
201.88
205.952
207.481
204.605
200.772
197.556
192.352
182.218
168.004
155.729
151.971
152.764
143.032
118.414
96.587
91.15
91.96
86.798
78.715
70.279
56.629
40.689
31.695
27.708
20.814
15.302
17.732
17.972
6.647
-3.498
-1.429
0.221
-8.045
-14.577
-13.143
-13.514
-17.645
-17.545
-14.68
-14.992
-15.848
-16.507
-22.269
-27.986
-22.861
-13.631
-15.399
-25.358
-30.649
-30.367
-31.001
-33.709
-36.839
-39.722
-40.472
-37.997
-35.399
-35.555
-35.676
-32.187
-28.211
-28.873
-32.157
-32.36
-29.329
-27.759
-30.374
-34.844
-35.554
-30.247
-25.617
-29.341
-36.818
-37.765
-33.669
-31.995
-30.377
-26.607
-28.158
-32.762
-27.621
-19.458
-25.646
-36.574
-33.007
-25.636
-32.336
-42.214
-39.554
-32.116
-29.967
-27.982
-23.504
-22.79
-25.637
-26.267
-26.078
-28.734
-30.466
-27.774
-25.736
-28.25
-28.985
-22.779
-17.402
-21.933
-31.612
-36.41
-36.019
-35.23
-34.037
-31.424
-29.484
-28.922
-28.719
-29.693
-31.718
-30.957
-24.726
-17.434
-17.786
-26.275
-31.492
-27.648
-23.604
-25.087
-27.219
-28.764
-31.421
-30.922
-27.447
-28.75
-33.501
-32.745
-27.015
-23.238
-23.112
-25.518
-29.244
-30.5
-26.735
-21.169
-19.468
-23.836
-30.128
-32.049
-29.517
-27.335
-26.45
-25.578
-27.316
-32.8
-36.891
-36.127
-32.974
-28.885
-23.544
-20.741
-23.539
-26.298
-23.056
-18.957
-21.333
-26.074
-26.028
-24.502
-26.45
-27.491
-24.745
-23.757
-25.687
-25.705
-26.139
-31.703
-36.679
-34.464
-29.492
-26.83
-24.043
-21.718
-25.817
-33.403
-32.896
-24.327
-22.1
-30.884
-36.957
-32.214
-27.438
-30.338
-30.625
-21.405
-15.021
-21.161
-29.886
-31.311
-29.735
-28.89
-27.422
-28.984
-34.015
-33.576
-27.495
-25.595
-26.523
-23.218
-19.711
-19.178
-16.139
-10.974
-8.396
-7.076
-7.749
-12.42
-11.512
1.092
9.447
1.256
-6.578
3.149
16.872
15.684
8.207
12.055
23.513
28.661
26.949
25.532
25.504
26.154
28.474
27.817
17.995
4.787
-0.577
0.065
-2.881
-8.291
-10.641
-15.467
-27.949
-38.727
-39.153
-35.508
-35.586
-37.13
-36.661
-36.209
-37.754
-39.82
-40.875
-41.134
-40.526
-38.214
-34.969
-33.747
-36.614
-40.679
-38.457
-28.205
-21.975
-30.171
-42.657
-44.713
-41.517
-43.968
-46.697
-41.871
-34.67
-29.23
-19.183
-0.311
23.524
49.66
81.246
120.21
161.849
203.116
249.093
298.286
335.028
350.78
348.657
319.004
247.017
145.12
40.235
-63.241
-176.775
-295.92
-404.008
-506.235
-626.428
-751.582
-822.781
-813.947
-767.851
-725.773
-682.638
-626.627
-560.689
-482.024
-388.98
-299.616
-233.117
-187.909
-152.446
-120.527
-90.229
-62.987
-46.482
-45.433
-48.425
-39.825
-26.393
-28.44
-41.143
-37.582
-15.626
-2.712
-9.823
-20.239
-22.434
-18.668
-8.822
6.732
19.392
24.263
26.481
27.152
19.591
6.72
3.309
12.782
23.213
32.037
46.821
59.541
53.829
36.098
26.525
27.316
28.499
31.464
42.188
54.288
58.236
57.475
60.071
62.898
59.334
54.683
57.845
66.098
72.753
77.811
78.884
69.417
55.625
53.146
62.469
70.992
75.056
77.916
78.529
79.138
86.754
98.405
102.753
98.339
94.922
97.449
100.586
100.065
99.962
103.639
106.316
105.378
107.581
115.868
122.928
126.045
130.366
134.587
135.174
139.84
152.669
159.917
154.778
152.383
159.572
163.507
163.356
172.065
185.042
189.616
192.548
201.073
203.46
195.781
193.992
203.799
212.042
212.704
212.51
213.277
212.298
214.012
222.913
232.904
236.331
234.014
230.254
227.774
226.641
221.531
208.567
194.64
186.226
178.785
170.841
167.902
164.191
149.448
132.869
128.927
130.239
122.156
107.126
94.992
87.414
82.424
79.067
73.62
61.6
44.614
30.488
25.771
27.97
27.415
19.857
11.752
8.49
7.58
8.208
12.262
13.095
3.395
-7.132
-5.418
0.948
-2.011
-10.153
-13.82
-15.659
-17.979
-15.244
-9.675
-10.429
-15.35
-15.671
-12.926
-13.34
-15.838
-16.746
-15.556
-12.949
-10.998
-12.036
-14.31
-14.99
-16.057
-20.418
-25.301
-26.208
-25.066
-26.26
-26.487
-20.84
-15.894
-20.287
-28.54
-31.286
-30.087
-28.46
-24.89
-22.186
-24.47
-25.495
-19.532
-15.036
-18.783
-21.618
-16.531
-11.564
-12.499
-14.128
-14.812
-18.518
-22.972
-23.232
-21.209
-20.986
-22.84
-25.496
-27.291
-25.841
-20.817
-15.697
-14.137
-14.958
-14.78
-14.702
-16.581
-16.906
-14.51
-14.788
-17.685
-16.716
-13.392
-13.663
-13.644
-8.839
-6.264
-9.772
-11.505
-9.377
-10.016
-12.531
-12.854
-14.809
-18.813
-18.005
-13.262
-11.165
-11.597
-12.671
-14.431
-13.88
-10.974
-10.485
-11.174
-10.747
-14.383
-20.527
-19.457
-14.571
-15.172
-15.447
-10.98
-11.788
-16.702
-11.956
-3.664
-8.781
-19.897
-19.724
-13.13
-12.491
-15.161
-16.618
-20.413
-24.788
-22.775
-16.824
-15.261
-19.088
-22.697
-21.659
-17.961
-18.569
-23.798
-25.07
-20.669
-18.033
-19.401
-22.584
-27.425
-29.552
-24.201
-18.487
-20.751
-24.776
-22.303
-18.938
-21.958
-25.386
-22.087
-18.772
-23.112
-27.264
-22.047
-15.701
-19.335
-26.979
-28.168
-25.071
-23.386
-23.062
-25.013
-29.935
-30.909
-24.174
-20.483
-27.755
-34.201
-28.916
-22.444
-25.09
-27.476
-22.972
-21.037
-24.023
-22.239
-16.059
-13.207
-12.071
-10.35
-12.332
-15.733
-13.094
-6.221
-1.311
0.408
-0.873
-2.259
2.366
9.751
9.001
1.569
0.101
7.337
13.153
10.477
3.774
2.468
9.646
19.482
26.459
32.279
39.413
43.587
40.676
36.068
37.066
40.976
40.155
32.58
21.591
12.674
10.324
11.177
7.261
-0.402
-4.391
-5.476
-9.176
-14.146
-16.966
-18.857
-20.781
-22.103
-24.282
-27.811
-29.967
-29.599
-27.461
-22.567
-15.595
-11.818
-14.173
-18.248
-18.051
-13.199
-8.943
-9.717
-13.685
-16.759
-19.083
-21.726
-23.176
-24.243
-26.265
-23.916
-13.754
-2.93
6.081
23.356
51.588
82.699
117.665
160.331
201.849
238.776
282.315
330.831
363.823
366.7
335.593
271.683
186.718
92.953
-12.021
-129.772
-244.991
-345.995
-447.513
-570.848
-701.788
-791.23
-809.841
-778.421
-731.984
-683.622
-631.571
-570.495
-493.654
-405.216
-320.99
-248.486
-186.16
-138.369
-106.111
-77.287
-48.379
-32.658
-31.924
-29.092
-18.033
-12.673
-20.305
-28.118
-22.457
-6.721
6.459
10.345
5.752
-1.898
-3.325
6
18.493
25.317
27.765
29.685
29.392
24.774
16.682
7.867
5.633
17.799
40.073
56.353
54.93
39.89
26.869
25.888
28.574
23.369
19.366
32.537
54.217
61.579
52.195
41.754
36.745
31.013
23.058
21.697
31.77
43.092
45.906
46.813
50.894
49.71
45.421
51.147
59.539
56.327
53.188
61.278
65.754
61.264
63.358
70.597
69.684
68.721
77.272
82.206
77.913
80.366
91.737
95.003
90.731
95.974
108.187
110.092
102.825
100.905
107.115
116.221
126.385
134.095
136.306
138.928
146.697
152.88
152.408
152.483
159.326
166.472
166.404
164.833
171.042
180.593
183.475
182.461
185.723
191.515
195.386
198.264
199.474
198.033
199.048
204.535
208.151
207.529
207.532
209.351
209.137
205.298
199.988
195.712
191.795
185.279
177.398
172.601
168.692
159.595
147.446
137.243
125.999
111.66
98.959
88.277
77.952
72.746
69.814
56.083
34.311
22.273
22.068
20.371
12.455
3.209
-4.304
-9.622
-12.833
-14.139
-14.367
-17.108
-24.105
-29.883
-30.725
-31.511
-35.411
-39.434
-42.732
-45.584
-45.197
-42.232
-41.007
-41.224
-40.796
-40.946
-41.282
-39.687
-37.872
-38.767
-42.003
-44.91
-45.023
-43.238
-42.804
-43.729
-44.788
-47.77
-51.988
-52.846
-49.302
-43.865
-39.619
-41.299
-48.033
-49.054
-40.466
-34.588
-40.4
-50.095
-53.188
-49.21
-43.383
-41.25
-45.508
-51.643
-53.244
-51.582
-50.773
-50.016
-48.546
-48.028
-47.352
-44.808
-42.759
-43.862
-46.272
-45.448
-40.95
-38.896
-42.774
-48.102
-51.739
-54.329
-52.189
-42.771
-33.539
-31.653
-34.368
-36.234
-34.342
-27.683
-21.015
-22.048
-28.897
-31.786
-30.114
-33.534
-43.463
-49.225
-46.003
-40.663
-37.338
-34.202
-33.693
-37.586
-37.5
-28.925
-23.428
-29.072
-35.028
-32.534
-31.155
-36.988
-37.914
-29.48
-27.886
-37.65
-40.515
-32.466
-29.77
-31.863
-26.432
-23.72
-36.506
-48.093
-43.105
-36.356
-40.337
-43.968
-41.034
-40.548
-42.789
-38.656
-31.185
-30.96
-36.227
-38.571
-38.874
-40.412
-39.168
-35.002
-35.432
-39.82
-40.282
-37.868
-36.307
-32.08
-28.145
-32.926
-39.29
-36.973
-35.197
-39.972
-37.92
-28.324
-29.538
-40.619
-41.884
-32.491
-27.091
-28.063
-30.732
-35.967
-41.425
-41.552
-37.281
-30.652
-24.102
-26.806
-36.447
-33.579
-21.307
-27.139
-46.581
-47.429
-31.47
-24.943
-28.671
-32.611
-40.129
-45.508
-35.11
-18.68
-16.001
-23.641
-27.4
-27.242
-28.134
-25.904
-16.955
-9.151
-12.076
-22.081
-25.845
-17.924
-7.832
-6.811
-11.761
-10.758
-3.816
-2.489
-6.757
-3.764
8.179
17.067
18.317
19.032
23.436
27.105
25.414
21.012
17.969
12.85
2.701
-5.508
-7.25
-9.241
-15.983
-23.843
-29.417
-30.643
-28.186
-29.102
-35.741
-40.026
-40.215
-43.518
-46.75
-40.641
-32.151
-34.496
-42.13
-42.8
-41.172
-44.535
-44.753
-38.491
-39.598
-51.137
-55.449
-46.511
-40.166
-44.144
-48.414
-48.251
-49.907
-52.731
-48.338
-37.148
-25.807
-10.863
14.166
41.682
63.03
88.009
127.203
169.53
201.793
234.938
284.708
335.708
352.086
323.251
270.174
203.988
114.675
4.311
-107.008
-206.888
-295.936
-385.779
-497.266
-623.612
-713.56
-735.596
-718.608
-693.771
-655.06
-599.532
-544.394
-491.091
-421.134
-335.177
-263.216
-224.915
-201.782
-166.511
-121.482
-87.013
-69.843
-61.444
-52.128
-38.481
-26.072
-22.646
-25.951
-25.274
-14.917
-2.609
-2.422
-15.39
-25.632
-24.172
-18.769
-12.268
2.393
20.929
29.905
29.511
29.167
27.083
16.034
1.707
-1.762
11.074
32.778
50.008
53.8
47.864
41.146
33.533
23.033
19.304
30.561
48.045
59.308
62.754
60.339
52.54
45.372
47.081
55.017
59.015
58.814
63.29
71.869
74.004
67.812
62.683
64.189
69.352
74.898
81.761
90.773
97.327
96.261
92.097
93.92
100.374
102.642
100.082
100.724
108.366
117.459
121.419
121.859
124.739
129.426
130.732
130.513
135.153
142.216
143.148
139.44
141.852
152.689
163.054
168.114
172.076
178.017
182.474
182.05
180.994
185.948
194.377
199.996
205.745
214.676
219.23
217.384
219.891
228.548
233.3
234.24
237.775
239.561
237.813
242.526
252.035
251.548
243.327
241.758
243.446
238.628
234.924
238.31
236.691
224.986
215.312
210.866
202.61
191.115
180.939
166.308
147.219
136.434
134.779
128.501
115.838
106.369
98.284
83.171
65.767
57.959
59.104
57.53
48.607
38.45
30.471
22.028
14.231
11.15
10.639
7.045
-0.163
-6.825
-9.626
-9.181
-8.986
-10.743
-12.21
-11.211
-9.617
-11.377
-15.87
-16.959
-14.169
-16.134
-23.516
-25.291
-21.255
-22.139
-23.909
-15.447
-5.846
-9.098
-17.619
-19.742
-19.393
-20.358
-18.029
-14.14
-16.497
-24.168
-28.519
-26.47
-23.509
-23.198
-21.287
-16.721
-17.748
-25.833
-29.688
-25.783
-23.484
-25.4
-25.539
-24.362
-26.39
-28.441
-22.52
-9.381
-3.057
-12.324
-23.131
-20.583
-15.86
-22.134
-27.814
-23.458
-21.141
-25.292
-23.796
-17.379
-18.496
-23.311
-20.173
-15.575
-20.577
-26.327
-21.083
-13.605
-14.676
-17.235
-14.908
-14.362
-16.855
-15.163
-11.294
-11.792
-12.885
-10.386
-9.808
-13.743
-16.379
-15.41
-13.401
-10.391
-7.621
-9.408
-14.314
-16.996
-17.586
-16.772
-13.137
-12.961
-21.144
-25.689
-17.849
-9.285
-7.201
-6.22
-10.685
-21.801
-21.79
-11.319
-16.231
-32.443
-30.719
-16.818
-16.15
-23.178
-23.757
-24.267
-25.055
-15.996
-5.855
-9.468
-19.075
-21.954
-20.969
-20.114
-18.056
-18.288
-22.607
-25.011
-24.665
-25.405
-22.65
-14.249
-11.709
-19.143
-23.197
-18.63
-16.054
-17.989
-16.394
-13.051
-16.378
-24.013
-27.935
-27.415
-24.739
-19.528
-14.998
-18.345
-27.428
-28.089
-16.096
-8.787
-17.242
-25.837
-22.577
-21.659
-30.958
-33.85
-24.449
-19.493
-23.495
-23.644
-19.742
-21.202
-23.206
-18.021
-15.043
-22.295
-26.109
-15.202
-5.303
-12.296
-22.744
-20.098
-13.657
-13.778
-10.691
-0.976
0.933
-6.586
-6.19
5.598
13.149
12.02
12.568
14.677
10.52
7.083
14.648
23.961
23.357
20.73
25.264
29.879
27.618
22.882
19.557
16.423
13.416
10.947
7.536
1.44
-8.31
-18.781
-23.75
-24.411
-28.944
-36.033
-37.461
-37.322
-43.621
-47.696
-39.756
-30.504
-31.725
-35.7
-33.165
-28.852
-27.748
-27.096
-26.807
-31.128
-38.964
-43.651
-42.1
-38.074
-36.588
-38.594
-42.121
-45.683
-48.077
-47.184
-41.774
-33.889
-26.746
-18.275
-1.806
22.907
51.042
86.21
130.969
172.679
207.629
253.484
309.501
345.638
347.474
324.679
278.977
206.11
112.173
5.379
-107.138
-215.544
-316.676
-415.203
-515.366
-619.948
-717.159
-772.591
-768.827
-734.407
-699.093
-656.233
-596.138
-528.095
-453.769
-369.786
-294.853
-246.181
-207.705
-161.45
-118.87
-93.198
-77.448
-64.625
-56.486
-49.88
-39.988
-32.249
-34.359
-42.471
-44.418
-34.319
-20.824
-17.861
-26.531
-33.552
-29.421
-17.243
-2.839
10.424
17.471
15.012
6.99
-1.325
-8.584
-12.47
-8.016
4.999
18.743
25.3
25.268
23.949
21.644
16.089
11.63
14.698
24.48
37.182
49.379
52.311
40.01
23.88
19.594
24.229
25.756
25.421
30.907
38.546
41.674
44.363
49.307
49.463
46.743
52.881
61.919
57.543
48.323
53.606
65.657
66.908
62.251
62.322
64.299
66.498
72.165
77.121
77.256
78.004
82.636
87.548
92.791
100.3
105.402
103.968
101.091
103.499
110.312
116.549
120.328
123.487
128.556
136.631
145.502
149.967
147.717
144.624
149.118
159.739
165.131
161.496
159.486
164.978
169.481
169.565
172.945
178.874
179.783
180.705
189.173
196.995
196.34
195.663
201.937
207.107
202.891
193.653
189.423
192.585
194.085
185.47
171.051
160.155
154.219
149.72
144.023
134.025
119.235
105.713
98.517
93.53
84.333
73.616
67.502
61.287
47.133
32.664
29.553
30.349
22.037
10.533
7.176
7.428
3.372
-1.36
-3.356
-7.305
-14.693
-21.731
-28.426
-34.952
-36.368
-32.6
-31.187
-33.265
-32.067
-27.376
-26.625
-32.225
-38.87
-41.705
-40.778
-39.432
-41.116
-45.989
-50.435
-51.264
-48.54
-44.109
-40.63
-40.157
-40.884
-40.31
-41.613
-47.417
-50.635
-45.196
-39.699
-44.458
-53.618
-56.172
-53.444
-51.18
-48.12
-44.246
-45.151
-50.137
-51.128
-47.179
-45.313
-46.583
-46.141
-46.008
-51.68
-57.871
-55.64
-50.064
-51.3
-55.286
-52.544
-45.852
-43.638
-46.671
-50.199
-51.204
-51.116
-52.739
-52.573
-44.381
-34.597
-37.277
-49.868
-55.402
-48.906
-40.685
-38.557
-42.919
-50.339
-53.432
-47.347
-37.552
-32.44
-33.069
-37.156
-43.979
-48.576
-42.963
-29.997
-22.667
-24.794
-27.111
-23.722
-18.142
-14.64
-13.575
-12.984
-12.149
-14.095
-19.854
-22.912
-18.566
-12.834
-12.252
-13.463
-10.941
-5.873
-2.672
-3.827
-8.788
-13.936
-16.009
-16.039
-16.25
-15.48
-12.002
-7.667
-4.871
-2.461
0.736
1.521
-3.086
-9.756
-12.509
-10.08
-5.807
-2.194
0.473
0.68
-3.154
-7.327
-7.239
-6.073
-8.026
-9.134
-6.736
-6.303
-9.768
-11.674
-10.482
-9.826
-9.64
-6.667
-1.995
-0.962
-4.97
-8.811
-9.245
-9.571
-11.911
-14.118
-16.248
-19.306
-19.233
-12.7
-4.689
-3.043
-9.65
-17.967
-17.505
-6.619
1.68
-2.673
-11.694
-14.461
-13.524
-13.813
-12.429
-9.664
-11.647
-15.942
-13.533
-6.348
-3.954
-5.989
-5.433
-3.321
-5.065
-8.503
-7.983
-5.757
-7.916
-11.316
-8.259
-2.216
-0.971
0.191
7.503
13.649
12.929
12.165
14.821
16.115
15.017
13.281
10.529
9.331
13.236
19.77
25.15
30.017
35.3
38.821
38.308
35.881
37.42
43.84
47.682
45.404
43.847
46.278
45.793
40.08
35.622
32.774
25.317
14.213
5.045
-1.337
-5.104
-6.985
-12.677
-22.664
-26.148
-18.83
-11.391
-11.456
-14.618
-15.849
-14.879
-13.04
-13.145
-16.25
-17.95
-15.499
-13.398
-15.096
-17.355
-17.945
-19.822
-23.456
-24.174
-20.918
-18.621
-20.11
-24.717
-31.007
-31.529
-17.461
3.565
15.929
24.472
45.496
77.16
110.199
148.688
194.43
239.345
284.262
331.46
365.172
370.742
352.784
314.252
246.531
150.119
39.049
-75.918
-190.457
-298.875
-399.459
-504.02
-621.595
-729.194
-784.708
-776.853
-735.656
-691.228
-648.568
-598.511
-532.463
-451.367
-366.412
-287.94
-221.523
-171.32
-133.05
-97.474
-69.37
-57.41
-50.462
-36.891
-27.126
-28.715
-32.167
-35.19
-41.263
-38.469
-17.958
2.404
1.612
-14.685
-24.362
-16.577
0.163
14.425
25.805
35.322
35.463
23.45
10.202
5.304
8.414
18.235
32.517
42.739
43.866
41.639
41.899
42.852
39.539
29.528
20.059
26.269
47.601
60.388
53.635
46.155
49.697
51.485
46.229
45.649
52.736
60.645
68.62
74.975
71.859
61.006
55.152
58.821
65.241
71.049
77.214
79.159
73.979
71.93
81.433
92.439
93.425
89.111
86.922
86.339
88.419
95.178
101.372
103.099
105.018
109.228
111.711
113.658
119.745
127.059
130.721
132.826
135.903
139.827
146.309
152.984
152.913
150.029
155.462
165.294
167.123
164.59
169.424
178.592
182.748
185.002
192.128
200.501
203.876
202.037
197.5
195.057
199.074
204.567
204.364
203.596
209.195
214.909
214.063
212.057
213.737
214.585
210.186
201.577
192.31
186.743
184.771
178.958
166.044
153.966
148.557
144.616
135.984
123.342
110.681
101.247
94.864
87.944
78.691
68.256
56.452
43.685
34.805
33.068
33.51
28.844
19.273
10.977
6.241
1.765
-2.616
-3.38
-2.826
-6.378
-12.108
-16.357
-21.001
-24.796
-23.88
-23.57
-28.79
-30.5
-22.595
-15.212
-14.455
-12.362
-8.045
-12.13
-23.408
-27.38
-21.861
-19.594
-24.113
-26.406
-25.001
-26.269
-27.61
-22.727
-17.638
-21.323
-29.303
-32.273
-30.532
-29.303
-29.807
-31.211
-33.527
-35.13
-33.063
-28.321
-26.432
-29.53
-32.519
-32.182
-33.008
-36.62
-36.57
-32.019
-30.713
-32.548
-30.56
-28.092
-31.442
-33.599
-29.131
-28.058
-34.18
-35.501
-30.486
-31.313
-36.001
-32.547
-25.238
-24.353
-25.382
-23.344
-24.365
-28.189
-26.005
-20.436
-21.662
-27.298
-28.465
-26.369
-25.82
-24.909
-22.218
-22.048
-27.143
-33.518
-33.15
-22.651
-10.996
-10.055
-17.457
-21.888
-20.703
-18.675
-17.914
-18.58
-20.051
-19.503
-18.036
-21.939
-29.899
-30.661
-21.192
-13.394
-15.772
-22.477
-25.523
-24.146
-19.904
-14.615
-11.904
-12.827
-14.992
-17.962
-21.375
-21.377
-17.303
-14.813
-17.523
-22.493
-23.692
-17.69
-10.317
-11.122
-16.317
-14.216
-8.874
-12.976
-22.089
-23.768
-20.739
-21.409
-23.647
-22.86
-19.603
-15.154
-12.435
-15.202
-19.404
-18.062
-14.565
-16.264
-21.514
-25.118
-25.435
-21.736
-17.596
-20.139
-24.876
-20.183
-11.537
-13.189
-20.652
-22.474
-23.691
-30.402
-33.624
-26.573
-16.034
-10.637
-13.195
-20.171
-22.884
-18.211
-13.83
-15.152
-18.601
-20.8
-21.439
-20.291
-20.022
-23.704
-28.013
-28.057
-24.88
-23.09
-26.136
-32.141
-33.247
-26.561
-20.24
-19.781
-20.308
-19.084
-20.054
-22.847
-22.199
-18.592
-17.944
-21.472
-23.493
-19.529
-12.353
-7.846
-7.014
-6.709
-6.839
-9.397
-11.913
-11.346
-10.661
-11.58
-8.785
-0.908
4.183
3.035
2.939
8.879
15.22
14.851
9.836
8.547
13.62
19.026
21.474
23.909
25.457
24.003
25.752
33.095
35.334
29.389
27.756
32.434
28.935
14.569
3.561
0.468
-3.882
-10.689
-13.082
-13.437
-19.237
-28.717
-35.19
-36.699
-34.476
-30.28
-27.1
-27.429
-30.649
-32.832
-30.451
-26.449
-27.943
-34.362
-36.819
-33.104
-30.792
-32.204
-31.652
-29.83
-33.596
-39.849
-37.638
-27.662
-22.838
-28.54
-36.058
-35.935
-26.792
-9.992
13.819
38.46
56.035
74.875
112.873
165.298
211.109
252.149
301.53
343.042
353.346
341.299
318.096
266.28
175.849
67.068
-44.183
-160.514
-276.107
-377.257
-473.498
-589.811
-715.886
-798.054
-803.775
-761.769
-715.248
-672.117
-622.118
-563.408
-493.946
-409.8
-321.748
-249.086
-197.555
-160.135
-129.971
-101.457
-72.544
-50.833
-44.04
-46.69
-47.511
-44.598
-44.922
-50.689
-51.251
-36.371
-16.831
-14.119
-27.532
-34.856
-26.034
-11.296
0.792
11.29
21.495
28.399
26.057
11.863
-5.135
-10.653
-1.52
13.435
25.533
31.928
33.935
33.256
28.864
20.729
14.431
15.804
24.429
35.82
45.106
48.985
48.226
45.724
42.194
38.658
39.324
45.358
50.758
50.887
49.715
52.346
55.888
54.972
51.761
52.551
57.861
62.827
64.664
65.869
71.198
80.023
83.949
79.146
74.187
76.088
80.583
84.22
90.249
98.08
102.104
101.412
100.893
105.291
114.313
120.952
119.419
114.323
113.577
117.837
124.927
134.033
141.202
143.386
145.228
151.019
158.518
166.547
175.499
180.771
179.279
177.068
180.764
188.329
193.022
192.923
193.706
199.055
203.725
205.054
209.634
217.162
216.587
208.411
206.65
212.525
213.452
209.612
212.249
217.634
212.115
197.977
188.184
184.66
181.577
177.679
172.841
164.099
151.299
139.808
134.476
132.399
125.202
109.609
91.026
76.338
67.824
62.988
56.947
45.972
31.798
23.065
26.305
33.658
31.155
19.88
12.313
10.739
7.662
1.434
-3.762
-6.468
-8.048
-10.088
-13.354
-16.232
-17.474
-19.491
-22.711
-22.889
-21.01
-23.564
-28.32
-27.228
-22.679
-21.788
-22.672
-22.525
-24.387
-26.433
-23.055
-18.098
-19.723
-27.096
-33.474
-34.475
-30.531
-27.417
-28.939
-29.845
-27.037
-27.273
-31.691
-32.115
-29.417
-30.27
-29.769
-24.354
-25.114
-34.67
-38.595
-33.882
-31.924
-32.75
-30.719
-32.218
-39.046
-38.653
-29.184
-24.33
-27.211
-29.561
-31.466
-35.164
-33.4
-25.076
-22.068
-26.795
-28.513
-27.396
-32.554
-38.426
-34.57
-28.573
-29.926
-30.286
-24.212
-22.806
-29.111
-30.018
-22.518
-19.345
-25.011
-30.199
-30.014
-28.905
-28.216
-24.834
-21.908
-25.772
-32.678
-33.743
-30.621
-30.462
-30.937
-27.105
-24.537
-28.684
-32.465
-29.858
-28.239
-33.691
-37.998
-32.6
-24.168
-24.411
-31.536
-34.182
-30.014
-26.454
-25.743
-25.272
-27.801
-34.632
-37.972
-34.883
-34.443
-40.156
-43.162
-39.679
-36.404
-35.194
-30.231
-22.218
-19.71
-25.078
-31.494
-33.96
-33.888
-33.385
-32.053
-30.005
-29.69
-32.169
-34.366
-33.796
-31.792
-28.885
-25.171
-25.451
-31.809
-35.788
-31.423
-25.995
-26.768
-30.36
-31.505
-30.167
-29.013
-30.67
-34.408
-35.44
-32.173
-29.692
-31.946
-35.878
-36.486
-34.003
-32.568
-33.191
-33.154
-32.007
-31.599
-31.588
-31.287
-31.786
-32.167
-30.768
-30.259
-32.59
-33.527
-30.85
-29.515
-31.872
-33.198
-31.91
-32.944
-36.029
-33.896
-28.613
-31.038
-37.183
-32.51
-22.983
-25.547
-33.398
-31.431
-28.286
-34.771
-39.58
-35.336
-33.218
-36.853
-36.892
-31.776
-26.555
-22.843
-23.481
-29.302
-33.024
-31.589
-30.422
-29.713
-26.113
-22.968
-23
-23.569
-24.883
-27.583
-26.839
-21.209
-16.564
-16.263
-18.808
-21.728
-20.632
-13.267
-4.212
2.717
8.104
10.309
8.713
8.602
11.06
10.806
9.814
15.281
24.328
28.206
27.105
27.412
30.787
34.306
35.328
32.031
23.764
12.914
3.808
-0.597
-0.009
2.953
2.605
-5.112
-16.169
-22.688
-24.126
-26.797
-32.714
-37.141
-37.316
-36.012
-35.262
-33.209
-29.304
-26.582
-26.198
-25.383
-23.166
-22.592
-25.276
-28.99
-31.677
-32.908
-31.618
-27.773
-25.229
-27.277
-30.979
-31.217
-28.449
-27.999
-32.036
-34.138
-24.632
-3.489
17.895
33.571
54.09
91.145
138.105
180.342
219.883
268.513
319.501
352.138
359.413
345.197
305.282
234.417
138.469
26.93
-92.218
-208.466
-313.604
-412.045
-519.376
-641.489
-752.274
-809.374
-800.396
-753.46
-700.033
-650.317
-599.57
-536.169
-452.475
-360.474
-282.112
-222.754
-174.418
-136.562
-110.168
-86.767
-63.427
-48.914
-45.159
-43.998
-40.758
-35.212
-29.935
-30.589
-32.56
-22.357
-6.163
-5.607
-18.724
-24.536
-19.629
-12.297
-0.623
15.687
27.532
31.138
28.165
18.682
8.291
6.618
16.277
34.634
54.579
61.129
48.144
31.91
27.594
28.037
23.028
18.735
24.15
36.184
45.993
48.398
44.964
43.559
49.12
55.27
54.983
54.14
61.454
71.851
74.234
69.841
68.16
69.849
69.072
67.438
70.856
78.079
83.074
83.334
81.111
80.313
82.419
85.399
87.759
90.078
93.336
99.187
106.957
111.464
111.76
113.625
117.219
118.576
122.841
133.526
137.787
127.978
121.192
132.265
148.908
155.623
157.805
164.034
169.373
169.386
168.424
168.6
169.939
177.469
190.338
195.837
190.139
187.228
194.985
203.861
206.609
207.642
210.39
212.592
213.437
215.945
222.652
229.765
228.454
217.559
208.443
209.545
215.275
216.462
212.409
208.022
204.843
199.388
191.163
186.106
185.006
178.714
164.984
154.333
149.713
140.797
124.296
108.878
99.327
92.311
83.867
72.651
60.961
52.33
45.835
39.196
34.851
34.07
31.335
22.552
12.072
6.509
7.206
10.478
10.54
3.842
-4.636
-5.622
-1.016
-2.343
-9.511
-10.862
-6.483
-7.422
-13.111
-13.947
-11.539
-14.194
-18.504
-15.293
-8.646
-10.213
-18.037
-19.668
-13.694
-10.783
-15.914
-23.013
-24.985
-21.797
-18.699
-18.269
-18.381
-18.78
-20.956
-21.634
-17.189
-11.563
-10.866
-15.568
-21.489
-22.811
-17.567
-13.255
-16.823
-20.823
-15.542
-8.004
-9.33
-14.488
-13.844
-10.263
-10.001
-12.37
-15.617
-19.257
-20.85
-19.275
-16.185
-12.192
-8.473
-8.573
-12.314
-14.288
-12.285
-9.923
-9.995
-12.151
-15.207
-16.702
-15.112
-14.02
-15.7
-14.021
-6.505
-4.396
-13.761
-21.043
-15.754
-8.115
-8.426
-11.095
-9.82
-8.126
-9.101
-9.77
-8.457
-8.193
-10.416
-11.992
-11.642
-12.312
-13.961
-13.219
-12.039
-14.759
-17.321
-13.577
-8.304
-9.521
-14.512
-14.977
-9.274
-4.124
-6.713
-13.751
-14.762
-11.075
-13.515
-18.75
-15.84
-10.869
-13.868
-17.595
-15.269
-13.461
-13.639
-11.217
-11.452
-18.518
-23.579
-22.234
-21.404
-23.429
-25.095
-25.815
-24.462
-20.983
-18.397
-14.058
-6.52
-6.894
-18.076
-23.731
-19.211
-18.313
-21.159
-17.531
-15.09
-23.43
-29.475
-22.284
-14.799
-17.074
-19.658
-17.937
-20.189
-24.864
-21.513
-14.847
-18.025
-26.309
-26.057
-21.161
-22.621
-25.652
-23.13
-22.293
-27.66
-31.162
-29.132
-24.938
-18.821
-14.055
-16.872
-21.996
-20.531
-17.563
-20.567
-25.217
-27.96
-32.775
-38.138
-37.675
-33.615
-31.818
-30.08
-25.673
-23.462
-25.971
-27.597
-24.876
-21.786
-22.751
-27.219
-30.068
-26.658
-20.141
-17.486
-17.665
-16.71
-19.081
-26.983
-30.723
-25.431
-20.182
-21.433
-25.753
-29.373
-29.231
-21.79
-12.156
-11.828
-20.426
-25.109
-21.166
-16.354
-14.919
-13.647
-11.371
-9.279
-5.758
0.551
7.226
12.003
15.466
17.641
17.615
18.128
22.492
26.292
23.831
20.723
25.009
31.778
32.769
31.004
31.591
31.028
26.023
19.886
15.443
12.477
10.875
8.995
4.061
-3.74
-13.114
-22.692
-27.688
-27.025
-29.124
-35.462
-34.791
-27.538
-26.521
-27.688
-19.148
-11.762
-19.519
-30.26
-30.209
-27.439
-29.02
-28.472
-26.136
-31.096
-40.584
-42.283
-35.267
-29.767
-29.97
-32.102
-34.543
-36.977
-35.821
-30.929
-28.681
-30.701
-29.784
-21.629
-8.959
7.06
27.699
51.92
80.204
115.782
157.51
202.311
251.463
301.39
337.83
349.979
337.19
297.761
227.45
131.138
23.683
-84.069
-193.489
-305.773
-412.519
-515.927
-633.042
-748.454
-806.421
-790.115
-749.376
-717.424
-675.096
-612.828
-544.635
-465.763
-372.504
-293.972
-244.958
-198.862
-144.451
-104.614
-83.649
-62.422
-42.911
-40.114
-45.174
-40.474
-31.928
-35.292
-45.441
-42.05
-22.523
-9.994
-19.14
-33.628
-33.633
-22.558
-11.714
-3.789
1.523
6.817
16.438
23.889
17.069
0.636
-8.277
-3.161
10.512
26.118
37.084
38.667
31.705
20
9.475
8.154
18.282
32.926
44.597
50.913
52.203
50.419
48.981
48.586
45.951
41.785
43.657
53.186
61.228
63.356
63.235
59.195
50.882
50.544
62.319
70.424
68.131
68.55
75.995
80.754
82.4
86.662
88.447
83.556
81.787
89.712
98.771
101.801
101.818
100.782
99.446
103.511
112.679
116.851
113.996
112.71
115.539
119.532
126.119
135.136
141.287
144.167
148.192
152.786
155.697
159.814
166.02
170.022
172.576
179.115
187.71
191.067
188.422
185.51
186.705
192.071
198.164
200.983
200.793
201.473
203.613
203.938
203.576
208.596
217.711
219.385
209.684
202.062
207.247
215.701
213.998
204.337
195.11
187.849
181.911
177.18
169.883
157.069
141.417
125.935
112.054
102.556
96.715
88.019
74.571
62.63
55.807
51.374
47.291
43.276
37.66
29.843
22.107
15.387
7.972
1.302
0.459
3.611
0.097
-12.717
-22.341
-20.133
-13.583
-11.647
-13.377
-17.449
-26.06
-34.437
-33.926
-27.493
-24.963
-26.533
-27.298
-28.24
-29.979
-29.324
-27.71
-29.087
-32.074
-34.233
-34.617
-30.123
-23.218
-24.748
-33.829
-34.268
-24.344
-21.769
-30.347
-35.337
-33.452
-33.688
-35.259
-33.55
-33.634
-38.088
-40.169
-38.059
-36.858
-36.534
-33.494
-29.71
-30.017
-34.032
-36.536
-35.484
-34.486
-34.199
-30.065
-24.579
-27.303
-35.546
-34.808
-24.58
-20.389
-27.164
-34.55
-37.006
-36.814
-33.724
-28.698
-27.786
-31.664
-33.511
-31.477
-29.405
-25.172
-14.537
-5.721
-11.389
-26.424
-34.103
-32.264
-31.522
-33.829
-34.28
-34.09
-35.36
-34.989
-31.194
-25.586
-20.907
-21.315
-26.52
-29.394
-27.751
-26.487
-25.502
-22.484
-22.368
-27.174
-28.541
-23.233
-19.698
-21.092
-20.472
-17.268
-18.945
-25.035
-27.718
-25.165
-20.693
-17
-17.351
-21.277
-22.271
-18.82
-16.478
-17.008
-19.171
-22.894
-23.644
-18.04
-14.833
-21.586
-29.617
-29.516
-27.188
-30.093
-32.473
-27.247
-20.617
-21.672
-26.532
-26.835
-25.313
-28.143
-31.104
-28.139
-24.868
-28.947
-34.255
-30.68
-23.255
-22.655
-25.603
-25.679
-27.668
-32.322
-31.231
-27.048
-28.568
-29.824
-24.385
-21.605
-25.476
-25.949
-21.806
-21.329
-23.01
-21.198
-19.06
-20.197
-21.981
-22.762
-23.48
-23.598
-23.387
-25.509
-28.672
-26.101
-17.943
-16.883
-28.674
-38.015
-30.883
-17.151
-12.888
-16.039
-16.761
-16.826
-22.736
-30.043
-29.76
-24.91
-24.949
-28.04
-27.494
-27.345
-30.381
-28.416
-23.123
-26.44
-31.443
-23.419
-13.465
-17.892
-26.323
-25.433
-21.737
-20.738
-18.16
-15.986
-18.522
-20.459
-17.545
-14.748
-14.191
-10.17
-1.645
2.214
-3.876
-9.323
-2.871
7.238
8.188
6.211
11.924
19.826
22.832
25.348
30.046
33.6
36.775
39.918
37.017
29.911
32.133
44.019
45.66
30.066
17.749
22.088
28.691
24.309
15.842
9.538
1.735
-5.679
-8.056
-10.949
-18.662
-23.984
-23.646
-24.591
-28.223
-28.13
-23.884
-21.413
-22.381
-22.588
-19.233
-16.39
-19.922
-26.789
-29.18
-28.125
-28.366
-27.444
-25.467
-29.065
-35.176
-34.504
-30.833
-31.122
-29.398
-23.199
-23.561
-33.036
-38.448
-32.101
-19.548
-6.659
7.329
25.16
46.805
71.859
103.136
141.405
182.543
227.035
279.023
329.185
356.748
354.024
330.106
286.263
209.522
99.979
-18.356
-127.868
-233.615
-339.069
-440.107
-546.538
-663.168
-753.84
-777.554
-747.665
-705.818
-663.572
-613.028
-556.986
-492.54
-407.67
-317.153
-254.996
-220.649
-181.778
-131.25
-92.497
-73.7
-61.806
-52.919
-50.4
-46.365
-36.531
-33.937
-41.888
-40.524
-22.424
-8.043
-9.624
-15.578
-17.678
-19.692
-19.608
-10.392
5.04
16.35
19.753
19.266
15.16
3.447
-8.222
-2.788
18.838
37.449
46.568
51.629
46.539
28.195
14.525
16.394
20.63
20.367
27.915
45.894
56.482
49.714
39.824
41.486
48.236
48.638
44.972
43.285
45.408
54.76
68.745
74.003
67.969
64.72
68.173
69.025
69.634
78.519
87.761
85.916
79.111
77.899
80.144
79.313
76.434
78.269
87.932
98.745
101.918
99.193
98.503
101.601
106.281
112.54
118.684
121.569
123.579
128.652
133.808
135.848
139.923
149.532
157.906
161.113
165.599
172.361
172.644
167.289
168.297
177.11
183.945
187.784
194.723
201.206
200.22
197.752
203.553
212.636
213.949
209.886
210.243
214.42
215.27
213.496
215.076
220.322
224.831
226.674
226.533
223.986
218.718
213.743
211.794
209.534
202.801
195.381
190.708
179.371
154.157
130.885
127.064
130.086
118.775
99.831
90.562
88.42
83.772
77.402
70.435
60.52
51.391
47.478
43.42
32.598
19.444
12.625
10.965
6.368
-1.573
-6.26
-8.682
-15.535
-22.88
-20.645
-12.809
-12.645
-20.452
-25.652
-24.863
-21.358
-16.908
-15.813
-22.947
-31.722
-30.767
-23.674
-23.369
-29.271
-30.106
-25.306
-23.471
-24.342
-21.433
-17.858
-21.991
-31.412
-36.625
-36.756
-37.444
-37.854
-33.783
-28.753
-28.792
-31.482
-31.73
-31.712
-34.624
-36.972
-36.004
-34.731
-33.913
-30.987
-28.086
-28.428
-27.665
-21.22
-15.6
-19.532
-27.278
-27.17
-24.723
-33.027
-43.32
-38.277
-26.276
-24.82
-27.409
-22.563
-18.18
-19.334
-17.006
-13.987
-22.161
-32.755
-30.127
-23.598
-27.844
-33.282
-27.52
-20.202
-23.013
-29.083
-27.731
-21.275
-17.192
-16.513
-17.81
-22.328
-27.828
-28.149
-24.255
-23.103
-25.122
-26.142
-26.303
-26.455
-25.342
-24.869
-27.39
-29.676
-28.307
-24.801
-21.124
-18.92
-21.858
-28.028
-27.542
-19.485
-16.928
-24.494
-31.407
-31.877
-28.6
-21.318
-14.334
-17.666
-25.985
-24.796
-19.426
-23.468
-29.937
-27.13
-22.29
-24.322
-27.689
-27.937
-29.54
-32.519
-30.681
-24.601
-22.58
-27.737
-32.65
-29.819
-22.954
-21.396
-25.769
-29.436
-31.505
-34.268
-32.811
-24.564
-20.63
-28.875
-38.587
-38.985
-35.022
-32.477
-29.8
-29.342
-33.62
-36.532
-36.031
-37.598
-37.723
-30.31
-24.2
-27.206
-30.331
-28.061
-27.866
-29.932
-27.274
-24.746
-29.813
-34.798
-32.102
-30.106
-35.352
-39.791
-38.325
-36.261
-34.206
-29.097
-26.452
-29.38
-28.892
-22.828
-22.019
-27.326
-27.808
-22.719
-19.321
-17.239
-14.652
-14.809
-16.506
-15.432
-13.286
-10.854
-4.572
1.459
-0.925
-7.63
-7.816
-0.176
7.449
8.15
3.919
3.868
9.602
12.876
13.457
19.324
28.431
32.129
29.256
21.98
13.372
12.639
22.945
30.06
21.46
5.915
-0.288
3.35
3.936
-4.087
-12.573
-15.583
-18.773
-25.85
-29.565
-26.982
-28.528
-39.377
-48.178
-45.767
-38.642
-35.537
-35.26
-33.427
-30.915
-30.717
-32.021
-32.776
-34.048
-36.012
-36.058
-35.538
-38.312
-41.105
-38.413
-35.163
-39.651
-47.137
-46.265
-38.722
-35.337
-35.685
-29.481
-13.765
7.02
30.115
53.998
79.553
111.48
148.911
186.58
229.57
283.219
329.18
341.186
320.245
284.442
231.95
146.702
35.023
-76.449
-175.647
-269.329
-363.377
-463.226
-572.453
-671.918
-728.124
-731.968
-703.695
-664.125
-622.077
-577.635
-523.336
-451.999
-369.246
-294.502
-246.117
-221.437
-197.162
-157.871
-114.323
-84.407
-69.902
-61.51
-53.253
-43.799
-34.48
-29.771
-30.018
-26.479
-15.393
-8.353
-14.124
-23.215
-25.139
-22.575
-15.862
1.763
23.447
31.527
25.727
20.535
18.292
11.299
1.366
-2.357
5.446
23.556
42.004
48.358
43.498
37.799
32.701
24.722
20.087
25.815
36.464
44.177
49.129
51.416
48.123
42.629
40.749
40.009
38.666
44.446
58.319
66.53
62.487
57.108
58.612
61.818
62.304
63.924
69.352
74.963
76.872
76.184
77.193
81.684
86.192
86.749
84.883
85.19
88.245
90.832
92.915
97.868
104.372
107.22
109.171
118.76
132.008
134.213
125.243
122.017
130.793
139.838
143.118
146.626
149.702
146.611
145.342
157.398
175.057
184.353
186.617
186.723
183.598
184.521
197.416
208.656
203.755
196.395
202.091
209.244
206.583
205.444
212.893
218.054
215.807
212.994
212.337
212.837
215.283
216.059
211.611
208.059
209.801
209.372
201.736
193.167
188.084
182.505
173.876
164.112
152.212
135.938
119.677
108.176
97.581
85.797
79.102
76.083
65.964
50.998
44.095
43.994
39.499
30.084
21.506
15.441
13.514
14.852
11.646
1.644
-6.421
-7.964
-6.521
-3.068
0.526
-4.814
-20.827
-32.653
-29.34
-21.199
-22.757
-29.727
-28.991
-22.952
-23.395
-27.284
-23.817
-18.965
-25.034
-35.55
-37.664
-34.924
-34.74
-32.602
-26.56
-25.396
-29.651
-27.693
-19.711
-20.266
-29.421
-30.412
-22.388
-22.19
-30.034
-30.039
-24.044
-27.362
-36.164
-34.494
-24.721
-20.538
-22.21
-23.165
-25.639
-30.906
-30.221
-20.243
-13.409
-20.471
-32.805
-34.904
-27.653
-23.763
-25.428
-25.154
-23.16
-23.976
-23.074
-16.063
-11.156
-15.056
-19.744
-18.789
-19.318
-23.987
-22.558
-13.6
-10.899
-18.344
-22.514
-17.629
-14.15
-17.135
-18.409
-14.04
-10.617
-12.457
-16.63
-19.759
-20.312
-17.099
-12.127
-10.951
-14.858
-17.938
-16.462
-14.134
-14.214
-14.572
-13.164
-11.282
-10.693
-11.687
-12.638
-11.239
-8.66
-9.131
-12.954
-15.529
-14.123
-10.377
-8.074
-10.556
-16.041
-18.609
-17.689
-17.365
-15.999
-10.401
-5.962
-8.012
-11.444
-10.327
-7.14
-6.34
-8.955
-13.761
-16.636
-13.354
-6.26
-2.79
-7.684
-18.129
-24.958
-23.172
-19.756
-21.535
-24.102
-24.175
-26.208
-28.184
-23.049
-15.944
-16.218
-19.302
-17.902
-16.197
-17.105
-15.731
-13.472
-16.519
-20.89
-19.773
-17.938
-21.577
-25.608
-23.763
-19.384
-18.101
-19.539
-20.763
-20.874
-19.853
-17.768
-16.362
-17.832
-21.201
-22.961
-22.335
-22.277
-23.47
-22.754
-20.33
-20.533
-22.676
-21.762
-19.144
-20.318
-23.869
-24.293
-22.437
-23.396
-26.567
-26.18
-21.606
-18.008
-16.251
-14.91
-18.4
-25.424
-22.16
-6.735
2.945
0.321
-3.921
-8.819
-17.619
-19.103
-9.116
-3.22
-6.717
-7.961
-5.128
-4.185
-1.082
7.786
15.439
17.253
16.422
15.822
16.32
17.526
17.36
17.456
22.102
27.758
27.256
23.485
23.823
27.65
30.542
30.607
26.881
21.099
16.983
13.039
6.264
1.104
1.192
-0.558
-10.124
-21.329
-27.182
-29.306
-30.446
-32.019
-37.823
-45.672
-45.314
-36.863
-33.192
-36.763
-37.211
-33.388
-34.167
-39.36
-39.96
-35.184
-33.106
-34.799
-33.48
-30.804
-35.301
-42.904
-41.618
-35.091
-36.921
-45.99
-50.834
-49.345
-44.893
-36.206
-23.533
-9.779
7.526
32.243
64.021
102.396
144.613
186.135
232.34
287.108
331.229
346.182
341.741
325.294
279.937
200.003
103.487
-0.782
-115.249
-230.078
-332.279
-428.411
-537.486
-660.167
-761.298
-799.537
-776.46
-732.198
-694.406
-657.59
-605.34
-531.727
-446.121
-364.584
-294.997
-234.655
-181.04
-137.22
-107.368
-89.576
-75.474
-61.561
-53.704
-52.56
-49.051
-42.519
-43.137
-49.451
-46.519
-31.891
-21.572
-25.807
-36.264
-38.811
-27.865
-10.449
-0.108
-0.826
-0.988
7.427
14.517
9.184
-2.491
-6.874
0.051
13.051
26.092
34.281
33.604
24.373
12.758
5.646
5.291
11.174
23.062
37.018
44.132
40.992
35.304
34.892
37.906
37.951
34.758
36.25
46.052
53.68
50.314
45.181
47.839
51.25
50.586
54.209
63.102
66.657
63.374
61.583
63.301
65.494
69.143
75.257
80.307
81.951
83.009
86.77
91.793
93.54
91.649
92.407
99.166
105.301
104.77
102.501
105.016
110.065
114.647
122.092
132.298
136.994
133.616
131.886
138.193
145.387
146.56
146.83
152.544
160.389
165.662
170.364
176.261
179.609
178.033
175.315
175.595
178.375
182.614
189.583
197.072
198.996
195.842
194.932
197.68
199.573
200.804
202.909
201.446
194.539
189.193
189.819
190.404
184.812
176.253
169.812
162.783
151.6
141.149
135.163
127.341
114.913
105.842
101.497
92.7
79.255
70.09
64.676
56.578
47.419
39.638
29.274
16.896
9.505
8.379
8.615
6.243
-0.914
-9.764
-12.334
-9.315
-9.762
-12.952
-12.148
-12.014
-18.176
-22.959
-21.302
-20.427
-22.809
-22.463
-19.788
-20.067
-22.303
-23.286
-24.354
-26.577
-27.349
-25.453
-24.524
-29.322
-38.205
-41.543
-33.883
-24.543
-25.587
-34.491
-40.354
-39.662
-36.287
-34.167
-34.712
-35.56
-33.962
-32.557
-33.626
-32.413
-27.38
-25.838
-28.487
-26.306
-21.175
-25.47
-35.757
-35.428
-25.58
-22.626
-27.663
-29.383
-29.674
-36.071
-40.832
-34.825
-27.797
-32.068
-40.464
-39.326
-31.179
-27.364
-27.899
-26.316
-25.541
-29.413
-29.826
-23.35
-23.12
-33.021
-36.428
-29.919
-31.8
-42.005
-38.802
-23.703
-20.001
-28.022
-29.569
-24.512
-23.477
-24.546
-23.523
-24.132
-26.505
-26.369
-25.274
-26.478
-27.544
-25.897
-24.204
-25.827
-28.632
-26.573
-19.795
-17.448
-22.285
-23.493
-16.749
-13.987
-20.498
-25.021
-22.677
-21.971
-24.075
-21.526
-16.889
-18.949
-25.64
-28.779
-27.224
-24.554
-23.048
-23.879
-25.893
-25.904
-24.549
-25.82
-27.892
-23.497
-13.144
-7.379
-11.538
-19.101
-22.369
-19.731
-14.968
-15.751
-24.754
-32.983
-33.301
-30.976
-29.971
-25.983
-20.651
-22.756
-31.625
-36.071
-30.475
-21.421
-18.713
-24.188
-30.124
-29.26
-24.161
-22.371
-25.015
-26.924
-26.07
-25.079
-24.669
-23.475
-23.167
-25.989
-28.631
-26.208
-20.946
-19.371
-22.481
-25.992
-27.645
-27.737
-26.411
-24.89
-24.298
-22.56
-18.788
-17.287
-19.722
-20.413
-16.88
-15.012
-17.826
-20.7
-20.585
-19.825
-21.542
-25.756
-26.875
-19.386
-9.485
-7.587
-9.743
-6.804
-3.671
-6.791
-9.727
-8.428
-7.752
-7.97
-7.059
-7.172
-6.039
-0.544
3.163
1.685
1.095
2.298
2.057
4.778
11.806
13.736
8.3
6.208
12.581
21.395
28.419
34.488
38.326
37.524
35.259
36.706
39.264
36.902
32.353
30.956
28.516
21.694
17.758
19.135
17.382
11.118
6.957
3.474
-3.169
-8.045
-9.169
-12.978
-19.78
-23.763
-25.587
-26.964
-23.623
-16.418
-13.841
-17.59
-20.9
-20.264
-17.226
-13.803
-12.692
-15.814
-20.796
-23.55
-23.047
-21.177
-20.141
-20.983
-23.528
-26.563
-27.923
-27.01
-26.298
-25.184
-16.525
3.404
28.494
53.071
80.3
115.409
157.425
202.409
250.639
302.373
347.777
372.666
371.905
345.489
291.158
211.561
114.616
3.596
-117.882
-236.683
-341.172
-438.066
-547.85
-672.762
-773.023
-803.125
-772.017
-728.502
-692.618
-646.611
-581.82
-508.775
-431.843
-349.229
-268.79
-202.305
-152.734
-116.871
-91.393
-72.058
-54.952
-41.511
-36.158
-36.272
-33.842
-31.269
-37.927
-45.22
-33.453
-9.63
-1.998
-14.047
-22.22
-16.102
-6.113
0.768
6.895
14.378
22.992
29.552
27.361
15.433
5.623
9.899
23.614
33.73
38.617
43.364
43.782
35.006
24.758
20.835
21.32
27.138
42.599
59.557
63.926
57.248
52.879
55.357
58.043
56.63
55.184
59.344
67.511
72.013
69.257
63.566
60.184
60.687
65.039
72.181
78.786
81.872
83.287
87.169
91.355
89.53
84.077
83.765
88.481
91.809
93.713
96.384
97.939
99.436
105.102
113.435
119.881
123.941
125.603
124.051
123.157
126.495
129.814
130.928
136.647
148.053
156.276
159.863
163.561
163.332
158.189
160.386
171.456
176.712
175.524
180.415
187.868
187.892
188.291
197.229
204.664
203.922
204.258
209.558
212.849
214.05
217.102
217.428
213.144
212.462
217.147
218.979
215.956
213.149
212.004
210.896
208.216
201.761
192.072
182.259
172.544
162.257
152.257
140.24
125.714
117.266
117.033
111.136
95.166
84.509
83.351
77.101
63.873
55.954
51.552
41.423
31.932
29.384
22.984
9.708
4.327
6.352
-0.772
-10.25
-3.362
6.069
-4.354
-17.811
-11.023
-1.108
-9.33
-20.975
-20.132
-17.468
-20.134
-19.707
-16.93
-19.291
-21.362
-17.211
-15.495
-21.738
-26.363
-23.545
-21.274
-24.075
-24.974
-20.917
-19.105
-23.112
-26.375
-23.357
-18.355
-19.028
-24.422
-26.508
-24.679
-26.355
-30.702
-29.158
-22.435
-18.162
-16.436
-13.806
-12.42
-14.703
-18.535
-21.512
-23.276
-25.092
-29.227
-34.195
-33.16
-24.026
-15.675
-16.181
-21.892
-25.146
-24.417
-22.123
-20.196
-19.746
-20.36
-20.36
-19.008
-17.552
-18.129
-20.046
-18.979
-14.342
-11.133
-10.282
-9.366
-12.464
-21.769
-27.36
-24.306
-23.033
-27.199
-26.509
-19.921
-17.204
-18.419
-17.445
-16.004
-17.131
-18.845
-20.025
-20.146
-17.683
-14.901
-14.457
-13.765
-11.967
-12.25
-13.145
-11.973
-13.28
-18.844
-20.347
-14.938
-11.838
-14.498
-15.916
-15.882
-20.421
-23.631
-14.542
-0.965
-1.878
-16.592
-25.288
-20.871
-16.334
-19.021
-22.554
-24.204
-25.96
-23.629
-15.253
-9.222
-10.996
-15.522
-17.522
-17.421
-17.049
-16.208
-14.376
-13.996
-17.382
-21.186
-21.956
-23.018
-26.671
-27.765
-22.444
-15.39
-15.229
-24.392
-32.538
-28.34
-18.421
-16.763
-20.777
-20.755
-19.191
-20.154
-19.657
-18.468
-21.839
-24.806
-20.199
-15.667
-21.391
-29.744
-27.81
-20.316
-19.718
-23.92
-24.14
-23.532
-28.049
-31.063
-25.702
-19.304
-20.253
-25.196
-29.097
-31.404
-30.032
-26.066
-27.709
-35.204
-37.075
-31.238
-28.986
-33.107
-34.077
-29.006
-25.551
-27.922
-31.654
-31.023
-26.026
-22.656
-25.429
-30.095
-29.77
-26.274
-25.423
-25.338
-22.152
-19.941
-20.716
-16.899
-8.23
-7.143
-15.266
-19.496
-16.188
-11.571
-5.022
2.918
3.747
-1.705
-2.703
1.824
5.552
7.923
9.802
10.277
12.214
16.804
18.872
18.358
22.013
27.817
26.962
21.285
18.17
14.926
7.209
0.518
-1.025
-2.622
-8.467
-16.404
-23.446
-28.499
-31.768
-33.767
-34.575
-36.301
-42.13
-48.887
-49.579
-45.85
-44.731
-44.637
-40.939
-38.654
-42.607
-46.475
-44.998
-42.206
-41.442
-42.498
-45.843
-48.249
-45.326
-42.447
-45.8
-47.708
-42.012
-39.484
-45.675
-46.561
-35.05
-21.241
-6.396
17.824
46.575
72.651
104.662
148.266
195.135
243.077
294.552
335.723
349.172
336.273
302.612
241.74
150.874
41.729
-73.656
-190.997
-304.786
-408.606
-511.233
-630.077
-750.877
-823.833
-825.216
-786.28
-742.233
-696.941
-644.31
-580.617
-500.425
-408.872
-323.463
-254.628
-201.947
-163.357
-133.797
-106.558
-83.023
-70.036
-66.819
-64.034
-56.633
-49.998
-49.24
-49.202
-42.118
-28.784
-16.728
-13.498
-20.149
-26.421
-22.282
-13.445
-8.988
-3.588
8.955
20.71
22.053
12.796
-1.611
-11.469
-6.686
11.665
30.382
37.403
32.275
23.951
19.573
18.197
17.731
20.918
29.663
40.861
50.177
53.7
49.238
41.648
39.109
40.817
39.907
38.484
44.426
54.886
59.713
58.488
58.096
58.697
57.349
57.553
61.787
65.08
65.967
70.927
81.254
88.21
86.057
81.054
83.342
93.272
100.68
99.142
94.365
93.915
97.302
102.019
108.962
116.497
119.993
119.559
118.957
120.225
125.263
133.999
141.091
145.124
152.45
162.667
166.586
163.885
163.39
166.688
169.571
173.357
180.555
187.174
188.61
188.368
194.073
203.04
202.277
192.807
194.217
209.631
217.209
210.701
208.566
215.637
218.201
215.309
217.246
221.903
221.015
217.58
218.168
219.579
215.452
207.772
202.362
197.358
186.438
172.851
166.339
164.231
153.69
135.005
121.701
116.942
110.268
96.899
84.149
78.115
73.991
65.145
54.915
47.575
38.272
27.398
24.956
28.026
23.098
13.4
10.763
9.737
0.548
-8.044
-3.69
4.775
-1.496
-19.265
-25.355
-15.313
-9.559
-14.834
-17.736
-17.263
-22.366
-25.816
-18.123
-10.104
-12.954
-18.59
-18.196
-16.076
-16.005
-16.653
-21.172
-30.281
-33.226
-25.679
-21.844
-29.937
-36.457
-31.315
-24.145
-23.144
-22.256
-17.908
-17.382
-23.984
-29.455
-27.559
-23.736
-24.133
-26.109
-26.455
-26.663
-26.462
-24.755
-24.562
-26.732
-26.782
-24.019
-23.657
-27.799
-32.342
-32.838
-29.295
-24.99
-22.068
-20.239
-19.251
-19.352
-19.361
-17.631
-15.5
-16.411
-20.409
-24.288
-27.682
-31.544
-32.301
-27.283
-21.436
-19.734
-20.784
-22.998
-26.053
-25.906
-20.467
-15.588
-15.915
-19.025
-22.412
-24.31
-21.056
-14.699
-13.413
-17.961
-21.001
-20.725
-21.492
-22.97
-20.907
-16.709
-15.442
-16.513
-16.95
-18.905
-23.472
-26.169
-25.194
-22.831
-19.977
-18.896
-21.903
-23.625
-18.628
-13.239
-15.501
-21.197
-21.962
-19.536
-21.029
-24.739
-23.21
-18.368
-18.06
-20.541
-20.131
-20.76
-26.323
-29.416
-24.145
-17.763
-19.569
-27.185
-31.383
-30.465
-30.532
-31.824
-28.795
-24.336
-26.204
-30.99
-30.518
-28.238
-30.406
-31.049
-24.369
-19.032
-22.741
-28.404
-29.29
-29.281
-29.97
-27.645
-24.835
-26.656
-29.895
-29.322
-26.722
-25.757
-26.053
-25.321
-23.308
-23.079
-25.711
-26.059
-22.558
-22.957
-29.086
-31.665
-28.57
-27.356
-28.811
-28.935
-29.516
-31.739
-32.754
-32.939
-32.131
-26.689
-21.532
-26.399
-34.808
-31.935
-21.905
-20.128
-26.13
-28.774
-26.775
-24.968
-23.147
-20.415
-19.532
-21.986
-25.907
-28.74
-28.378
-24.429
-20.353
-20.318
-22.276
-20.019
-13.78
-10.47
-11.926
-12.275
-7.915
-2.583
-1.376
-2.994
-1.053
5.549
10.114
9.397
7.581
7.218
8.088
13.3
24.458
34.886
37.42
34.596
33.947
36.142
34.851
28.208
21.531
17.034
11.555
5.316
1.309
-2.49
-9.486
-17.016
-21.331
-24.429
-28.768
-31.683
-31.478
-31.513
-32.749
-31.67
-29.378
-31.06
-35.039
-35.113
-32.524
-32.708
-33.974
-32.561
-32.63
-37.465
-40.113
-36.303
-33.418
-35.651
-37.152
-35.825
-35.709
-36.145
-34.574
-33.498
-33.365
-28.909
-18.178
-3.848
14.677
39.682
68.635
98.487
132.15
173.209
218.783
263.909
306.862
342.312
356.473
339.275
293.895
225.082
130.546
14.286
-107.327
-221.905
-328.315
-429.609
-535.985
-656.718
-767.923
-820.612
-803.004
-755.965
-712.822
-667.433
-607.398
-535.629
-455.238
-366.328
-280.601
-216.134
-175.024
-142.928
-111.472
-84.73
-65.474
-52.144
-45.209
-43.373
-41.648
-39.969
-42.048
-43.713
-35.35
-17.933
-6.401
-11.658
-24.546
-27.259
-17.264
-5.537
3.611
12.857
20.329
22.832
19.709
10.012
-1.019
-1.796
9.054
22.232
33.193
40.586
41.123
36.877
31.824
24.623
18.768
23.184
35.501
45.83
53.007
58.206
56.152
47.281
43.074
49.538
57.716
58.543
56.989
60.72
66.251
68.899
69.33
63.735
52.777
53.003
69.495
80.983
77.533
74.863
77.868
75.55
71.912
79.059
91.034
95.718
94.568
93.679
94.338
97.37
102.712
107.253
109.909
113.389
118.856
122.9
122.104
120.152
124.2
132.855
139.04
142.991
147.085
147.043
144.516
150.699
164.778
172.436
171.399
172.741
178.925
184.44
190.251
198.191
203.116
203.809
206.172
209.56
209.02
209.704
216.655
219.498
211.727
206.54
209.852
208.64
203.955
210.888
220.813
217.129
212.827
219.828
219.486
204.274
194.847
195.063
186.763
168.823
154.201
144.119
135.248
129.118
122.505
111.418
100.778
93.004
81.835
66.921
55.835
50.542
46.961
41.425
31.082
19.159
15.134
17.822
14.261
3.792
-1.098
0.349
-1.481
-6.785
-10.385
-12.54
-13.745
-13.475
-13.818
-14.613
-15.155
-20.028
-27.942
-27.543
-18.86
-16.007
-20.627
-22.07
-21.332
-24.744
-27.677
-27.39
-29.798
-33.978
-34.487
-34.248
-36.111
-36.411
-34.987
-34.796
-34.82
-34.102
-32.956
-30.008
-27.423
-29.462
-32.692
-31.759
-29.318
-28.106
-26.189
-25.951
-30.893
-35.149
-32.8
-29.094
-29.136
-29.027
-26.444
-24.648
-23.881
-22.22
-21.022
-20.84
-19.865
-19.104
-20.26
-21.5
-22.591
-26.424
-30.515
-28.515
-22.883
-22.12
-25.436
-25.896
-25.397
-29.117
-31.11
-23.959
-15.662
-18.034
-25.709
-25.551
-18.947
-16.147
-18.17
-21.605
-27.862
-33.632
-30.774
-23.429
-22.445
-24.873
-23.285
-22.952
-27.838
-28.859
-22.164
-18.277
-23.444
-29.228
-26.201
-17.516
-14.116
-19.035
-22.891
-19.237
-15.136
-18.131
-24.113
-26.58
-25.474
-21.977
-16.968
-14.745
-17.627
-21.332
-22.625
-23.085
-23.143
-23.12
-26.462
-31.947
-33.569
-33.579
-37.172
-36.908
-26.21
-16.098
-15.874
-18.358
-18.716
-20.95
-23.097
-22.063
-23.76
-29.55
-31.136
-28.433
-30.006
-34.682
-34.817
-32.465
-33.13
-33.925
-32.394
-32.047
-31.607
-27.174
-23.865
-26.771
-30.642
-32.115
-33.913
-32.62
-25.788
-24.913
-36.566
-45.959
-41.074
-31.845
-29.237
-29.644
-30.185
-34.323
-37.441
-31.622
-23.572
-23.798
-27.344
-27.178
-27.595
-28.657
-25.06
-23.32
-27.927
-25.59
-13.186
-8.573
-14.4
-15.074
-11.23
-11.765
-9.173
0.044
2.516
-2.554
-0.594
6.847
7.787
7.17
13.677
19.633
19.023
18.472
18.934
16.102
15.814
22.584
28.125
27.695
25.45
20.998
13.684
10.034
9.735
3.381
-8.046
-14.832
-18.179
-25.21
-32.89
-35.457
-35.306
-35.398
-34.743
-33.92
-33.257
-30.87
-28.854
-30.205
-30.215
-25.391
-24.132
-33.004
-42.634
-42.261
-36.791
-35.648
-37.263
-37.597
-39.966
-44.48
-43.822
-38.39
-36.969
-38.606
-35.002
-28.355
-24.055
-14.447
7.119
30.701
49.341
73.977
111.01
148.474
177.804
208.86
255.268
312.625
352.587
347.957
305.264
248.833
178.978
82.435
-30.658
-138.224
-235.928
-332.282
-435.428
-548.115
-653.823
-719.127
-729.68
-707.067
-676.489
-639.111
-588.262
-528.262
-461.261
-380.683
-296.191
-237.484
-213.369
-194.946
-156.72
-108.928
-76.698
-67.784
-70.401
-70.04
-60.346
-43.731
-28.534
-22.325
-23.282
-23.258
-19.859
-16.451
-14.299
-14.583
-18.484
-18.656
-6.467
10.856
19.472
20.141
21.097
20.579
13.121
2.252
-2.714
4.864
23.362
41.095
47.253
45.079
42.813
37.73
25.868
17.41
23.322
37.702
48.01
50.898
50.402
51.245
54.432
53.993
46.025
40.707
49.266
63.123
66.884
63.759
64.842
66.699
63.23
61.877
67.967
74.106
78.206
87.553
97.335
92.227
76.039
72.068
86.111
97.611
95.635
92.942
97.293
100.333
99.957
105.164
116.503
124.863
128.967
134.306
137.333
131.896
128.073
139.187
155.429
159.426
156.853
161.394
168.013
168.541
170.034
177.747
184.443
186.685
189.842
195.532
201.463
209
217.817
221.678
219.717
220.468
226.393
229.053
226.616
228.169
235.567
240.934
242.57
243.69
242.862
241.309
243.024
241.838
232.752
227.592
232.813
234.277
224.397
213.084
204.15
192.079
177.021
161.782
147.101
135.899
127.896
117.061
103.241
92.218
83.683
73.922
64.259
56.131
47.234
37.619
30.419
25.939
21.547
15.705
8.588
1.114
-4.399
-5.197
-2.64
-3.054
-9.964
-18.377
-20.853
-16.816
-13.443
-17.474
-25.879
-28.633
-23.665
-20.372
-24.044
-28.3
-27.297
-24.424
-25.229
-29.411
-32.581
-32.401
-30.96
-30.883
-31.537
-33.092
-38.868
-46.278
-46.614
-40.721
-37.201
-35.674
-33.637
-36.873
-43.157
-40.109
-30.563
-29.554
-36.05
-37.692
-34.726
-34.648
-36.454
-36.768
-37.311
-38.514
-39.079
-41.488
-45.982
-45.927
-39.753
-36.013
-38.002
-39.413
-40.427
-46.069
-48.319
-37.878
-26.987
-30.107
-37.747
-36.805
-32.446
-30.708
-28.003
-25.578
-27.916
-30.845
-30.664
-31.786
-34.829
-34.955
-34.117
-37.122
-39.53
-34.32
-24.726
-21.131
-29.088
-41.625
-43.417
-30.161
-18.747
-23.418
-33.721
-35.131
-32.559
-34.097
-34.77
-31.283
-29.599
-31.041
-30.98
-29.837
-30.274
-30.421
-29.237
-29.704
-32.315
-34.009
-35.059
-38.456
-41.396
-37.392
-29.241
-27.666
-33.979
-38.565
-38.299
-38.416
-37.849
-31.73
-24.931
-24.836
-28.455
-30.685
-32.454
-33.879
-34.122
-34.978
-34.058
-28.743
-27.819
-36.219
-40.115
-32.106
-26.594
-31.121
-35.437
-36.18
-38.873
-40.957
-37.775
-32.155
-27.731
-26.521
-30.4
-36.674
-39.799
-37.861
-32.561
-27.441
-25.979
-28.588
-34.329
-41.134
-42.151
-33.225
-22.334
-18.119
-17.332
-15.968
-18.027
-22.936
-22.057
-14.561
-9.656
-11.445
-15.755
-18.145
-15.27
-6.332
1.644
0.57
-4.361
0.041
12.541
16.891
9.603
6.424
12.912
16.294
13.214
13.795
17.466
15.655
10.433
6.723
3.114
2.589
8.222
8.535
-6.135
-23.72
-30.526
-31.916
-35.381
-36.398
-33.074
-33.805
-42.182
-48.957
-46.154
-39.716
-38.765
-40.862
-40.707
-41.536
-43.827
-39.932
-31.487
-30.316
-36.645
-40.164
-40.196
-42.146
-43.535
-42.055
-43.509
-49.584
-52.749
-49.056
-42.845
-37.128
-29.571
-18.58
-5.608
10.198
32.839
62.327
93.635
124.643
157.65
194.715
239.371
293.346
340.61
352.428
321.412
266.953
199.169
109.989
2.929
-104.001
-204.662
-306.334
-411.877
-518.31
-620.122
-701.079
-738.534
-729.156
-696.173
-659.633
-617.017
-562.474
-498.765
-422.766
-334.587
-261.97
-230.995
-219.482
-187.47
-137.23
-98.377
-79.854
-73.729
-75.436
-75.673
-62.794
-42.936
-31.966
-31.06
-29.428
-22.287
-15.352
-16.461
-24.601
-30.511
-29.814
-24.089
-12.337
1.757
7.104
4.923
7.281
9.615
-0.728
-11.441
-0.668
23.547
35.807
32.322
27.624
25.612
18.135
5.603
-0.746
2.482
7.583
13.856
28.269
45.468
49.612
37.752
23.991
21.47
29.563
37.993
41.099
42.941
45.923
47.154
49.284
56.665
61.671
56.41
50.745
55.929
63.866
64.507
64.554
69.549
71.106
66.947
68.058
76.838
82.579
82.132
84.219
92.473
99.357
98.531
95.2
99.442
110.545
117.494
118.011
120.696
125.31
124.997
125.682
134.519
141.445
139.183
138.561
145.13
149.695
149.881
153.574
162.589
171.88
177.556
178.267
176.986
178.876
183.636
188.599
194.436
198.048
194.143
189.518
195.49
207.054
210.034
203.395
198.026
198.649
199.825
199.482
203.098
208.537
203.67
188.38
178.149
177.817
174.83
163.151
151.359
144.281
134.924
117.91
99.728
90.902
91.626
90.617
79.372
61.461
45.548
36.329
33.005
29.701
20.709
10.306
7.481
9.099
5.379
-0.537
-0.709
-1.042
-8.612
-15.9
-16.412
-16.331
-20.042
-23.213
-22.729
-19.985
-17.731
-19.225
-23.891
-25.533
-23.049
-24.813
-32.679
-35.545
-29.223
-24.045
-24.966
-26.521
-28.89
-34.843
-37.059
-30.942
-26.71
-30.231
-30.415
-20.879
-13.796
-19.028
-28.395
-31.392
-29.756
-28.7
-28.322
-28.468
-30.597
-33.12
-32.578
-28.666
-24.221
-22.22
-23.595
-25.969
-25.625
-22.568
-21.236
-24.245
-28.836
-31.476
-31.167
-27.375
-21.314
-18.228
-20.953
-24.72
-24.997
-24.72
-27.351
-28.584
-23.391
-17.879
-21.541
-29.067
-27.527
-19.123
-15.489
-16.589
-16.445
-16.848
-19.306
-20.065
-19.616
-20.219
-18.53
-14.238
-13.501
-17.126
-19.885
-20.21
-19.294
-17.175
-14.727
-12.661
-9.838
-7.695
-11.228
-19.74
-22.304
-12.919
-4.379
-9.825
-19.771
-20.481
-18.44
-21.513
-20.6
-12.081
-8.935
-15.153
-19.121
-17.473
-18.059
-21.163
-20.17
-15.622
-13.418
-15.101
-17.674
-18.111
-16.249
-14.814
-14.493
-12.668
-10.834
-13.902
-18.99
-18.813
-16.306
-18.63
-20.936
-16.172
-12.155
-16.711
-19.511
-11.844
-5.999
-12.651
-21.392
-22.899
-24.613
-29.249
-25.998
-14.655
-10.544
-18.28
-25.084
-22.234
-14.828
-11.843
-16.41
-23.459
-25.524
-21.924
-18.058
-17.796
-22.004
-28.057
-28.146
-19.985
-16.037
-24.804
-33.402
-29.657
-23.908
-27.255
-30.652
-25.128
-19.356
-21.655
-25.403
-23.237
-19.139
-18.747
-19.696
-17.638
-13.985
-12.458
-12.943
-12.699
-10.205
-6.079
-3.205
-4.925
-9.803
-11.242
-6.072
0.255
1.458
-0.238
1.85
8.847
16.591
21.434
21.114
17.76
20.067
30.251
36.311
31.82
27.066
27.515
24.553
16.075
10.949
10.619
7.977
1.538
-4.748
-10.389
-16.981
-22.213
-22.532
-20.491
-22.425
-28.773
-34.619
-37.192
-34.772
-26.819
-21.041
-25.471
-33.462
-34.685
-32.263
-31.403
-28.617
-25.605
-30.761
-40.357
-41.786
-34.827
-30.572
-34.222
-40.615
-42.348
-38.361
-34.621
-35.384
-37.644
-34.665
-20.26
5.697
33.792
57.828
86.994
129.203
174.33
214.338
259.763
312.658
350.042
357.064
344.323
315.618
256.623
166.185
62.12
-46.232
-159.652
-269.46
-367.017
-467.08
-588.179
-708.482
-778.426
-782.903
-751.868
-710.677
-662.877
-610.989
-553.462
-479.406
-392.191
-311.115
-242.841
-184.17
-142.012
-117.059
-91.75
-61.182
-42.935
-41.147
-39.441
-33.559
-33.229
-37.008
-36.174
-31.064
-24.045
-14.497
-8.817
-13.689
-19.904
-14.792
-3.303
4.441
12.484
24.71
30.328
22.745
11.54
5.011
3.281
8.306
20.34
32.383
39.39
41.071
36.288
27.222
20.931
19.597
21.081
27.959
41.592
53.824
57.369
54.276
47.878
41.381
42.508
51.81
57.407
56.243
59.757
69.715
74.76
72.256
68.997
66.662
64.733
66.344
70.804
73.542
75.774
80.237
82.151
79.754
83.242
96.064
102.801
94.265
85.263
89.094
97.058
99.644
102.909
110.187
113.667
113.457
118.627
126.393
127.326
126.076
130.311
133.69
133.292
139.839
153.658
160.798
159.821
161.016
163.385
161.142
161.688
173.518
188.099
191.815
187.494
188.54
196.32
200.613
200.439
204.622
212.897
216.427
215.581
218.476
222.237
215.182
201.659
201.991
219.175
231.824
227.361
214.07
201.662
195.826
198.839
199.47
186.812
173.372
171.486
166.192
147.153
132.901
132.675
128.23
112.792
101.375
96.992
88.388
74.764
62.907
54.236
49.381
48.002
42.689
29.593
17.821
15.333
16.807
13.98
6.594
-0.601
-3.378
-2.172
-3.016
-7.438
-7.874
-4.053
-7.285
-17.048
-19.2
-14.204
-15.127
-19.7
-17.585
-13.868
-16.774
-20.369
-18.954
-17.667
-19.178
-19.557
-19.268
-21.332
-21.167
-14.5
-10.515
-18.731
-30.216
-32.763
-31.212
-31.212
-25.182
-13.908
-13.032
-24.183
-30.477
-26.527
-23.467
-24.945
-24.441
-22.582
-25.282
-29.994
-30.429
-27.844
-26.259
-25.451
-24.722
-24.699
-25.075
-26.185
-28.256
-28.728
-26.554
-24.204
-22.565
-22.427
-26.563
-30.694
-25.122
-13.258
-9.754
-16.529
-22.406
-24.992
-30.032
-33.941
-28.898
-19.567
-16.846
-21.155
-24.833
-24.497
-22.329
-20.733
-20.399
-20.108
-18.176
-15.805
-15.685
-17.007
-17.776
-20.434
-26.535
-29.551
-24.412
-18.272
-19.255
-23.141
-22.697
-19.444
-16.952
-13.159
-7.288
-6.085
-13.57
-20.042
-14.999
-6.228
-7.894
-17.267
-22.832
-23.006
-20.769
-16.489
-14.118
-16.674
-17.864
-13.586
-10.514
-13.071
-17.413
-21.186
-23.945
-22.285
-16.938
-15.395
-19.174
-20.514
-16.608
-13.911
-15.767
-18.494
-19.336
-17.763
-14.258
-14.225
-21.705
-28.341
-24.588
-16.681
-15.459
-18.504
-18.336
-16.009
-15.309
-15.059
-14.74
-17.693
-23.101
-24.498
-21.377
-19.939
-19.001
-14.655
-16.537
-30.106
-35.426
-20.076
-6.927
-13.388
-22.291
-20.874
-21.788
-28.582
-26.835
-17.368
-18.192
-31.087
-38.562
-33.672
-26.137
-20.905
-15.144
-13.425
-22.013
-32.409
-32.656
-27.431
-27.532
-31.07
-31.23
-29.277
-28.428
-27.003
-23.389
-19.018
-15.819
-15.191
-16.781
-17.973
-17.297
-15.264
-12.157
-9.525
-9.44
-9.849
-8.095
-6.398
-5.935
-2.924
4.15
12.361
19.018
21.559
19.807
20.82
29.572
38.165
37.826
32.665
29.921
28.253
23.866
18.705
16.883
17.375
16.163
13.344
8.345
-4.554
-21.599
-27.98
-23.36
-21.525
-24.198
-27.087
-34.636
-42.723
-39.082
-30.62
-31.162
-33.19
-28.297
-27.578
-35.108
-37.499
-32.225
-30.2
-31.628
-29.899
-28.744
-33.608
-39.89
-41.449
-38.638
-35.495
-36.589
-42.863
-47.978
-44.836
-34.588
-23.543
-13.567
-0.096
21.408
50.465
83.804
119.532
158.012
202.449
256.536
313.63
354.176
365.64
354.185
324.176
266.066
178.372
75.994
-33.184
-150.99
-266.265
-363.844
-457.376
-575.28
-705.331
-791.482
-802.774
-767.504
-723.005
-675.491
-621.412
-562.388
-492.64
-406.962
-317.549
-242.342
-186.657
-145.599
-114.891
-92.805
-75.276
-58.788
-48.146
-47.297
-47.284
-42.021
-40.947
-46.001
-41.527
-24.165
-12.412
-15.927
-24.155
-27.458
-24.872
-15.555
-1.747
8.88
15.157
21.872
24.528
15.606
2.62
-1.366
4.36
15.141
29.358
40.953
42.026
35.092
28.317
23.614
19.257
17.295
22.992
38.403
55.653
61.487
53.519
43.598
40.22
39.377
37.859
41.066
50.183
56.582
56.378
55.588
56.84
56.289
54.206
55.363
60.109
63.884
64.41
64.678
67.973
72.553
75.356
78.807
86.231
93.225
93.843
91.183
91.853
96.437
101.759
104.628
103.382
102.076
106.522
114.554
119.619
120.104
119.302
123.148
134.874
146.52
148.534
146.619
150.389
155.811
157.813
162.231
170.97
176.324
177.181
180.804
187.738
192.271
194.21
196.135
196.799
198.217
206.136
215.796
215.791
209.211
209.377
217.058
222.26
221.398
218.255
216.823
218.166
217.645
211.526
207.829
213.046
213.548
197.032
178.781
175.568
175.905
165.032
149.884
138.387
125.75
111.631
102.987
98.689
91.018
78.138
64.212
53.73
49.35
47.475
38.489
21.588
10.561
11.747
12.34
4.84
-0.376
0.718
-2.144
-9.747
-11.855
-9.678
-12.414
-18.327
-20.561
-20.113
-20.721
-23.356
-28.225
-32.716
-32.638
-29.64
-28.723
-29.915
-30.402
-29.621
-27.501
-24.655
-24.609
-27.999
-28.818
-25.243
-25.288
-31.574
-34.095
-29.169
-27.7
-33.684
-35.899
-31.525
-33.473
-43.013
-43.577
-34.208
-34.429
-44.343
-43.291
-33.341
-33.914
-40.91
-40.185
-37.648
-38.998
-36.246
-31.338
-34.174
-41.231
-45.059
-45.591
-41.245
-33.586
-33.074
-40.818
-45.559
-44.871
-43.265
-37.858
-28.792
-25.781
-30.922
-34.406
-30.496
-24.404
-24.644
-32.238
-38.977
-40.404
-41.885
-45.47
-45.014
-38.654
-32.506
-31.509
-34.741
-37.783
-37.169
-33.794
-31.597
-33.21
-37.172
-39.34
-38.235
-36.329
-34.643
-32.023
-29.493
-28.993
-30.613
-33.451
-34.941
-33.18
-32.295
-36.108
-39.188
-35.866
-30.401
-28.711
-30.019
-31.317
-31.939
-32.534
-32.132
-28.495
-25.205
-29.917
-37.939
-35.325
-25.158
-23.765
-28.931
-26.066
-21.088
-28.727
-39.607
-37.606
-31.625
-34.958
-38.125
-31.401
-25.871
-30.48
-35.271
-31.499
-26.062
-26.845
-30.189
-30.442
-30.525
-34.715
-39.135
-38.66
-35.869
-34.401
-32.72
-31.234
-33.49
-37.223
-37.739
-37.671
-39.976
-39.505
-34.288
-33.159
-40.247
-45.468
-41.697
-37.006
-38.611
-39.885
-35.054
-31.369
-34.984
-39.465
-38.229
-34.701
-33.652
-34.65
-36.523
-38.412
-37.879
-35.045
-34.578
-38.782
-43.053
-41.909
-36.963
-34.452
-35.712
-37.253
-38.857
-41.029
-39.757
-35.24
-34.293
-36.984
-37.536
-36.582
-35.666
-31.64
-27.207
-28.44
-31.774
-31.946
-31.557
-30.184
-23.918
-19.622
-25.632
-33.022
-30.209
-24.474
-26.781
-31.408
-29.698
-25.515
-23.087
-18.929
-13.087
-10.012
-8.391
-4.711
-0.497
2.467
4.466
4.454
3.81
7.16
12.868
14.359
12.719
13.613
15.631
15.954
17.362
17.831
9.89
-2.084
-6.36
-7.088
-16.311
-28.699
-33.245
-36.695
-47.522
-56.243
-54.64
-51.149
-51.764
-50.158
-44.555
-41.781
-42.569
-41.349
-38.981
-40.934
-45.914
-48.402
-48.282
-47.991
-46.835
-45.033
-43.753
-40.914
-38.627
-44.306
-53.214
-51.763
-44.757
-48.972
-60.575
-62.116
-52.981
-42.801
-29.077
-5.81
21.042
45.273
74.291
116.638
166.918
215.951
263.466
307.761
337.978
347.427
336.389
298.212
225.575
128.093
21.121
-93.736
-216.411
-332.534
-433.873
-538.985
-662.832
-775.833
-828.622
-813.293
-766.655
-719.006
-670.682
-611.199
-536.317
-450.83
-365.435
-288.36
-223.056
-174.442
-144.242
-121.055
-92.886
-67.357
-59.694
-64.799
-64.239
-56.124
-53.453
-58.091
-58.465
-48.161
-33.279
-25.232
-28.527
-34.813
-34.442
-28.223
-20.007
-9.884
0.507
8.162
10.57
2.553
-14.156
-22.838
-13.779
-0.024
7.097
13.61
20.941
19.61
11.993
9.606
9.38
3.003
-0.49
10.33
27.175
36.74
38.424
34.759
26.252
19.665
21.282
27.074
32.595
38.601
42.685
43.117
45.535
50.963
51.561
47.085
46.378
50.346
53.16
56.919
65.98
73.162
70.076
63.848
66.252
74.484
78.925
80.293
83.521
85.723
85.426
90.314
100.973
105.108
101.908
106.78
120.736
127.175
123.821
123.816
129.978
137.053
144.926
151.119
150.917
150.59
158.089
166.26
166.972
169.185
182.196
195.375
194.532
186.3
187.325
197.404
202.226
198.869
198.88
206.334
212.641
213.426
212.737
212.997
213.905
215.065
214.426
212.542
214.265
218.557
218.721
216.147
216.841
216.889
209.414
198.262
189.984
183.164
174.331
162.929
148.411
132.219
119.563
112.171
105.476
97.453
90.992
84.426
72.428
58.667
51.679
48.294
39.535
28.843
24.791
23.323
15.506
3.971
-2.803
-4.728
-7.956
-12.983
-14.671
-13.887
-16.981
-22.305
-23.05
-21.691
-24.15
-27.859
-29.824
-31.752
-31.086
-25.244
-21.031
-22.227
-20.477
-13.234
-12.013
-20.776
-27.107
-24.619
-22.987
-27.897
-31.323
-28.391
-25.989
-28.447
-29.149
-23.034
-16.942
-19.251
-26.243
-28.518
-25.574
-23.679
-24.907
-27.666
-30.92
-31.783
-28.128
-24.762
-26.597
-29.588
-28.817
-27.773
-29.499
-28.696
-23.187
-20.997
-25.118
-27.382
-26.34
-28.84
-31.145
-26.278
-22.534
-26.796
-28.712
-22.838
-19.456
-22.722
-25.043
-23.658
-22.658
-23.152
-22.945
-22.268
-23.237
-23.202
-16.862
-8.963
-10.631
-18.694
-18.772
-10.26
-5.899
-9.714
-15.5
-20.342
-24.346
-25.201
-22.403
-19.691
-19.505
-20.228
-19.258
-16.463
-15.212
-18.183
-22.081
-22.512
-21.78
-22.29
-19.309
-12.46
-11.455
-17.681
-18.296
-9.431
-4.053
-9.119
-15.911
-16.856
-13.744
-9.697
-7.196
-9.101
-12.711
-12.236
-9.653
-10.63
-13.183
-12.416
-9.079
-5.767
-3.13
-1.856
-2.003
-2.534
-3.537
-4.397
-2.05
3.422
5.878
0.942
-7.433
-11.973
-10.304
-5.889
-3.913
-7.293
-13.252
-15.09
-11.104
-6.697
-4.975
-4.281
-5.04
-8.284
-10.133
-6.984
-2.241
-1.736
-5.36
-7.745
-6.897
-6.678
-8.868
-10.596
-11.322
-12.282
-10.137
-3.523
-0.95
-8.016
-14.769
-11.063
-4.467
-6.432
-11.412
-8.221
-1.756
-2.692
-5.697
-0.733
5.091
0.896
-5.893
-3.665
2.452
3.029
0.881
0.44
-2.413
-8.999
-11.865
-7.817
-3.37
-2.346
-0.636
3.093
3.424
-1.021
-3.3
-0.169
0.753
-5.861
-10.928
-4.396
6.613
9.163
6.166
8.35
14.451
17.539
18.393
18.403
14.908
10.506
10.29
12.144
13.696
17.735
22.784
24.182
24.527
28.217
33.418
38.466
43.333
44.54
42.694
45.984
55.173
62.072
67.34
77.086
84.208
77.9
64.863
59.247
61.015
61.141
57.361
51.82
44.283
37.755
38.464
42.702
39.173
28.822
22.768
21.098
16.831
13.862
17.224
19.437
16.365
16.448
21.365
21.448
15.723
13.465
16.56
18.784
18.301
17.856
17.077
13.271
8.383
9.106
16.488
20.889
16.162
10.939
12.993
15.191
11.084
7.61
11.066
17.98
25.342
35.942
52.746
74.701
98.314
124.925
161.649
208.268
255.934
304.122
356.309
400.168
419.782
416.145
391.161
334.97
247.844
146.453
38.832
-78.522
-196.204
-295.849
-386.085
-499.138
-630.484
-722.092
-736.814
-703.261
-660.031
-611.613
-555.395
-494.761
-423.16
-337.752
-254.231
-185.507
-130.228
-86.832
-54.583
-27.286
-2.082
15.986
24.414
28.729
35.037
41.623
42.244
37.861
37.604
46.987
61.573
70.012
64.062
52.509
54.016
69.178
81.415
87.172
96.305
106.844
107.646
98.43
87.773
81.299
82.305
93.821
112.635
127.515
130.708
127.64
126.116
123.059
115.152
110.348
115.084
125.508
137.089
145.676
144.49
135.759
131.443
133.53
133.499
132.805
140.137
151.311
155.06
152.038
149.911
150.909
153.936
156.257
155.102
155.364
161.887
167.33
167.147
170.2
178.347
180.783
175.484
171.566
173.468
178.67
182.865
183.167
182.634
186.511
192.849
195.986
195.784
195.852
197.889
201.085
203.96
207.632
215.449
225.91
232.272
232.197
229.732
228.057
227.468
227.183
225.89
224.892
227.586
231.349
228.913
221.787
219.975
225.515
229.991
229.765
229.531
230.954
231.894
234.442
240.304
243.962
242.047
240.171
242.266
244.407
241.987
232.942
217.324
199.581
184.368
170.941
157.898
145.791
132.358
115.96
101.235
91.43
82.23
70.382
58.959
49.61
39.475
28.353
19.04
9.472
-4.427
-18.318
-24.741
-26.479
-31.642
-41.794
-54.682
-67.681
-76.207
-81.023
-88.308
-95.101
-94.641
-93.658
-99.272
-102.758
-98.318
-95.707
-101.213
-109.054
-113.507
-113.226
-110.721
-112.372
-117.606
-117.146
-112.505
-115.949
-125.35
-126.727
-120.095
-116.462
-118.639
-123.223
-126.602
-123.287
-115.264
-115.149
-124.735
-129.296
-123.466
-117.789
-116.983
-116.839
-117.27
-119.607
-121.568
-122.152
-120.275
-114.26
-109.713
-112.707
-116.086
-111.371
-105.542
-108.962
-118.485
-123.963
-122.162
-118.507
-118.268
-119.529
-118.398
-116.377
-115.7
-115.115
-114.67
-114.495
-111.598
-107.768
-109.65
-114.673
-113.756
-108.742
-108.861
-113.889
-115.954
-112.273
-107.057
-105.135
-106.624
-107.568
-106.415
-105.02
-102.935
-99.691
-99.443
-103.111
-104.352
-100.833
-97.165
-95.472
-95.934
-100.383
-105.827
-105.876
-101.871
-99.961
-100.102
-98.362
-94.102
-89.367
-87.429
-91.22
-97.368
-98.156
-93.748
-91.726
-93.472
-94.315
-93.707
-93.202
-91.668
-89.6
-89.686
-91.774
-93.563
-94.09
-93.854
-93.32
-92.085
-90.818
-91.709
-92.992
-89.714
-83.894
-82.352
-84.115
-83.799
-82.578
-83.551
-84.917
-85.12
-85.252
-84.887
-83.815
-84.449
-85.933
-83.191
-77.317
-76.64
-83.043
-89.017
-90.321
-89.537
-87.702
-83.382
-78.719
-78.459
-82.915
-85.628
-80.378
-70.455
-66.996
-75.213
-86.11
-87.209
-79.122
-73.621
-76.451
-82.218
-84.638
-81.578
-74.804
-71.468
-75.924
-80.261
-77.444
-74.543
-76.858
-77.194
-74.177
-76.234
-80.684
-76.916
-68.877
-67.78
-71.054
-69.978
-65.698
-63.182
-61.724
-59.355
-56.993
-55.163
-53.368
-52.535
-52.732
-51.31
-48.232
-47.559
-49.915
-51.127
-49.046
-44.362
-38.132
-33.247
-32.397
-33.659
-33.639
-32.189
-30.28
-27.724
-25.403
-24.874
-23.597
-17.209
-9.562
-9.436
-14.072
-12.675
-6.76
-6.098
-9.527
-10.306
-9.774
-11.404
-14.431
-17.861
-20.948
-24.098
-30.378
-38.076
-41.958
-46.397
-57.2
-64.999
-61.279
-55.454
-55.032
-53.624
-50.301
-51.793
-54.665
-51.524
-46.444
-45.738
-47.226
-48.633
-52.62
-59.119
-62.273
-57.727
-50
-48.533
-54.085
-57.118
-54.576
-54.311
-56.814
-51.929
-39.795
-32.028
-27.909
-14.585
8.804
33.247
60.652
96.636
134.034
167.483
208.039
262.628
316.151
347.696
348.007
315.142
250.289
162.051
62.149
-42.867
-147.32
-243.592
-335.081
-437.412
-552.255
-653.583
-711.39
-718.964
-693.809
-659.27
-624.311
-581.503
-524.11
-452.069
-367.055
-284.604
-233.709
-216.134
-195.634
-151.952
-106.094
-78.035
-63.397
-56.11
-55.435
-53.887
-44.443
-31.997
-24.352
-21.545
-20.184
-19.187
-17.665
-15.232
-15.682
-20.419
-20.027
-5.999
13.951
27.163
33.393
36.219
30.414
13.041
-4.748
-8.717
3.663
23.316
37.395
38.809
33.154
30.664
30.754
26.063
19.906
23.221
35.506
45.53
49.355
52.699
56.417
53.011
41.324
34.313
42.502
58.111
67.938
71.037
71.75
70.002
67.309
67.684
70.163
71.634
73.11
76.075
78.775
79.903
81.385
84.837
87.515
86.9
87.883
95.64
104.681
108.523
111.943
118.892
123.337
124.771
131.229
139.682
139.296
133.413
132.52
135.906
141.253
152.726
166.04
169.438
164.666
165.173
174.912
184.923
188.145
188.672
194.535
203.319
204.754
200.889
205.627
218.568
224.059
220.952
224.226
235.268
240.956
240.861
246.355
256.18
258.97
255.468
255.451
258.67
258.157
254.302
250.924
247.153
242.147
238.311
235.59
229.403
217.72
206.965
203.129
198.729
183.646
164.804
153.735
144.968
130.807
119.79
117.721
113.09
98.871
84.531
76.585
70.405
63.18
55.854
47.669
40.928
39.014
36.128
26.156
17.276
18.311
20.89
14.525
5.464
2.36
-0.154
-6.549
-8.914
-5.228
-5.453
-10.379
-11.467
-10.794
-13.761
-14.416
-10.16
-9.563
-13.496
-14.138
-13.573
-18.153
-21.999
-17.722
-10.85
-7.989
-7.148
-7.836
-11.393
-12.431
-9.047
-9.895
-16.368
-18.637
-16.317
-17.725
-21.099
-20.189
-17.756
-16.91
-14.985
-12.959
-14.102
-15.297
-12.736
-8.325
-4.997
-5.119
-10.068
-14.563
-12.043
-6.911
-7.598
-12.156
-13.799
-12.004
-9.031
-6.418
-8.757
-17.779
-23.708
-18.147
-9.636
-9.604
-15.277
-20.978
-26.449
-27.008
-20.455
-18.167
-25.049
-28.042
-22.082
-18.392
-19.734
-17.804
-12.855
-11.265
-11.291
-8.051
-4.973
-8.514
-15.563
-16.675
-11.464
-8.79
-10.545
-9.863
-6.468
-7.233
-11.268
-11.163
-7.551
-6.987
-8.937
-8.661
-7.851
-9.734
-10.195
-6.176
-3.573
-4.247
-0.545
5.038
-1.491
-17.387
-24.475
-21.677
-21.077
-19.54
-10.717
-6.499
-13.83
-17.645
-10.424
-5.375
-8.346
-11.636
-15.72
-24.682
-29.56
-22.991
-15.738
-19.291
-27.415
-28.21
-22.537
-19.822
-20.956
-17.575
-10.679
-12.831
-23.284
-24.79
-15.365
-12.206
-18.019
-19.492
-16.777
-18.984
-22.03
-18.898
-14.471
-14.69
-18.018
-21.389
-23.776
-25.875
-27.63
-25.739
-20.544
-19.154
-21.869
-20.002
-14.461
-15.097
-19.2
-15.595
-7.945
-8.58
-14.992
-16.894
-17.158
-22.641
-27.927
-27.88
-27.233
-25.16
-15.66
-6.285
-7.962
-13.477
-12.284
-9.774
-11.153
-9.195
-2.795
-2.884
-9.728
-9.639
-1.241
2.128
-0.201
3.365
10.747
12.093
11.725
16.501
20.293
19.143
19.539
23.081
23.68
20.666
19.972
24.02
28.6
30.229
31.103
32.662
31.804
29.459
31.153
35.474
36.866
36.824
36.762
31.376
21.954
16.877
13.521
4.794
-2.589
-3.559
-9.162
-22.285
-28.259
-23.163
-18.749
-18.69
-18.711
-20.328
-24.445
-24.929
-18.56
-11.148
-10.663
-17.635
-24.019
-24.393
-23.048
-23.896
-23.726
-21.449
-20.766
-21.434
-20.837
-20.93
-23.209
-24.304
-22.874
-21.664
-20.755
-16.694
-7.011
8.378
27.272
48.017
74.734
112.514
156.644
198.593
240.567
288.589
334.376
359.697
356.625
331.224
286.759
213.963
107.702
-13.464
-123.247
-218.997
-315.44
-418.501
-528.052
-640.939
-729.032
-754.813
-726.254
-687.933
-654.746
-607.569
-542.969
-474.49
-402.423
-324.635
-256.869
-211.562
-176.509
-136.418
-97.339
-72.128
-57.792
-44.395
-33.531
-30.953
-31.493
-28.039
-25.38
-28.376
-27.358
-13.796
0.218
-1.608
-13.073
-15.149
-4.104
8.044
13.926
17.235
22.659
27.245
23.344
11.328
3.356
7.539
18.379
29.41
40.33
48.266
48.653
43.665
37.055
28.806
23.336
29.503
45.541
57.632
59.03
57.194
56.996
53.282
46.676
46.436
51.012
49.731
45.83
50.528
59.868
64.542
67.361
70.117
68.17
67.236
74.868
81.679
80.347
81.065
87.003
87.484
83.823
86.046
89.653
87.086
85.595
91.19
96.585
96.903
96.659
98.992
103.433
110.13
117.043
119.617
117.717
116.697
120.055
126.662
135.019
143.645
148.946
150.093
151.512
154.359
155.115
156.737
166.458
180.114
185.748
183.01
181.999
185.86
190.313
193.543
194.246
191.903
193.515
202.412
207.979
206.864
212.166
224.076
225.135
213.643
205.679
206.871
210.747
212.988
211.885
207.18
200.084
190.336
180.962
178.161
177.859
169.681
155.583
143.82
133.867
124.142
117.511
111.752
102.255
91.085
81.794
74.167
66.646
56.803
44.664
35.852
32.631
28.806
21.669
17.676
19.146
17.317
6.844
-3.481
-4.691
-1.475
-1.657
-5.45
-12.53
-22.701
-27.819
-22.186
-16.577
-22.489
-31.17
-28.463
-20.742
-23.82
-34.365
-36.832
-31.332
-29.531
-31.812
-31.335
-29.339
-29.687
-31.243
-32.832
-33.508
-31.255
-29.769
-34.375
-39.533
-37.373
-32.493
-31.66
-32.306
-32.964
-36.907
-40.758
-38.382
-33.807
-34.247
-37.218
-36.518
-33.569
-34.578
-40.11
-42.941
-38.355
-32.82
-34.878
-40.992
-41.691
-37.041
-33.754
-33.561
-34.712
-36.395
-36.033
-32.097
-29.121
-30.06
-30.573
-29.172
-30.817
-35.002
-35.356
-32.725
-33.629
-37.71
-39.007
-35.443
-30.078
-28.006
-32.136
-37.31
-35.239
-27.997
-24.499
-24.815
-23.444
-22.329
-25.464
-29.526
-29.955
-27.059
-24.245
-26.133
-32.903
-37.372
-35.803
-32.755
-30.547
-28.354
-28.802
-30.958
-28.639
-23.998
-23.939
-25.166
-23.616
-24.977
-29.576
-29.657
-27.897
-32.052
-36.473
-33.261
-28.451
-28.89
-28.671
-21.71
-14.983
-17.566
-25.12
-27.991
-27.083
-27.807
-28.63
-28.035
-29.826
-34.137
-35.87
-33.278
-29.522
-28.468
-31.822
-36.906
-38.673
-35.861
-32.442
-32.994
-38.243
-43.537
-42.71
-36.966
-35.376
-39.989
-39.867
-30.792
-26.302
-34.838
-44.338
-43.18
-36.63
-33.74
-35.249
-37.115
-36.084
-33.715
-35
-39.438
-41.218
-40.071
-40.39
-41.008
-37.874
-32.858
-29.677
-27.299
-25.164
-26.037
-28.173
-26.113
-21.844
-22.143
-25.871
-27.235
-27.099
-28.866
-30.033
-27.731
-24.832
-23.64
-21.654
-18.225
-17.854
-23.2
-29.562
-29.695
-24.29
-22.673
-26.768
-25.493
-17.756
-19.119
-29.745
-29.818
-19.068
-17.75
-26.195
-27.43
-20.304
-15.23
-14.376
-15.113
-15.965
-15.063
-12.445
-9.945
-8.37
-7.249
-2.835
6.978
13.249
8.471
3.026
7.363
13.761
15.255
18.787
27.437
33.904
33.981
29.124
22.543
19.758
21.465
19.702
11.411
3.183
-1.509
-3.855
-3.931
-5.676
-13.353
-20.843
-23.17
-27.482
-35.529
-37.965
-35.424
-37.16
-40.83
-40.034
-38.547
-38.346
-34.967
-32.201
-36.269
-39.804
-35.988
-33.955
-40.122
-45.748
-46.097
-47.649
-50.927
-48.496
-40.06
-34.456
-37.699
-44.322
-43.4
-35.288
-31.135
-30.902
-21.457
0.152
24.034
47.051
75.276
111.109
152.559
200.124
252.835
301.462
335.713
352.523
348.248
315.207
253.731
170.225
65.102
-55.938
-172.643
-272.35
-363.782
-463.35
-580.372
-699.709
-777.493
-786.23
-751.719
-712.963
-674.59
-624.286
-560.089
-483.94
-398.444
-314.283
-242.932
-187.106
-145.152
-114.993
-91.91
-71.8
-57.219
-52.737
-54.485
-53.318
-48.86
-48.427
-50.667
-45.015
-29.885
-16.678
-13.491
-17.429
-21.956
-21.18
-11.842
1.055
8.791
11.673
15.834
19.078
13.309
-0.484
-10.69
-8.976
1.577
13.803
24.665
32.183
32.116
24.149
15.481
13.346
18.616
28.266
38.321
43.811
41.798
35.434
31.232
31.871
34.266
35.91
40.087
49.885
59.814
62.426
60.435
60.565
60.67
57.028
55.322
59.38
62.297
61.473
64.03
69.746
71.223
70.813
74.257
77.287
77.101
79.368
84.409
87.325
90.041
95.843
102.294
107.121
108.568
105.432
104.063
109.371
112.992
109.828
109.182
115.043
121.765
131.327
145.71
154.208
152.512
151.871
156.747
160.872
165.19
173.61
179.826
177.642
173.242
176.157
184.686
187.197
181.601
183.868
201.31
215.125
212.293
206.748
208.935
210.668
209.37
210.235
210.017
207.686
210.786
215.542
210.701
201.846
199.536
196.762
186.774
179.191
177.496
169.519
151.779
135.48
126.093
119.101
111.485
102.858
92.221
80.967
72.995
68.854
63.708
54.26
44.735
39.357
34.013
25.479
18.167
12.214
3.269
-3.04
-0.751
0.184
-8.303
-16.003
-14.117
-9.347
-8.508
-9.164
-9.886
-14.227
-20.668
-21.498
-17.146
-17.441
-23.452
-25.87
-22.842
-20.011
-17.958
-16.444
-19.198
-23.519
-21.659
-15.993
-14.923
-17.973
-20.707
-23.341
-24.068
-19.712
-15.816
-19.265
-25.923
-29.111
-29.299
-27.836
-24.863
-24.585
-29.33
-32.785
-29.893
-25.11
-23.296
-22.829
-21.904
-21.983
-24.122
-27.271
-27.795
-22.737
-18.039
-21.856
-26.736
-20.796
-13.933
-21.147
-30.687
-25.323
-15.899
-18.781
-25.781
-25.084
-23.441
-26.924
-27.221
-20.822
-17.594
-21.267
-22.662
-18.857
-18.316
-21.323
-18.373
-12.547
-16.049
-22.918
-17.861
-8.913
-14.563
-27.234
-27.88
-22.42
-25.934
-29.947
-21.812
-13.586
-17.625
-20.232
-10.103
-2.172
-8.167
-16.827
-19.549
-21.757
-22.791
-16.17
-7.996
-9.185
-16.219
-18.866
-17.157
-16.239
-15.985
-16.486
-20.667
-24.821
-21.811
-15.691
-16.068
-19.762
-15.938
-6.371
-3.85
-11.744
-19.251
-18.985
-17.16
-20.608
-25.01
-24.202
-20.433
-18.186
-17.587
-17.264
-16.138
-13.796
-12.734
-14.566
-15.594
-14.279
-15.999
-21.68
-23.232
-17.685
-12.579
-13.053
-16.115
-17.966
-17.353
-14.853
-13.917
-16.41
-17.588
-14.677
-14.767
-21.959
-26.921
-23.578
-21.176
-25.222
-26.54
-21.551
-19.097
-20.092
-16.964
-13.164
-16.839
-22.261
-20.37
-14.887
-12.719
-14.964
-21.269
-25.978
-20.423
-12.131
-17.623
-31.592
-35.196
-28.507
-23.963
-23.185
-22.267
-21.845
-22.041
-21.184
-19.771
-19.553
-21.293
-23.233
-22.653
-21.095
-21.704
-22.515
-21.551
-21.097
-20.053
-15.56
-12.759
-17.056
-22.941
-23.604
-20.524
-16.837
-14.066
-15.23
-19.559
-19.754
-13.357
-8.13
-9.62
-12.419
-9.254
-1.892
2.144
0.625
0.412
8.374
19.738
23.283
19.582
19.541
24.48
28.517
34.219
42.362
43.214
36.839
35.203
37.028
32.69
27.316
28.254
26.981
17.302
9.286
9.828
11.016
6.03
-1.92
-9.995
-19.116
-26.17
-26.943
-25.472
-28.618
-35.074
-38.462
-36.528
-32.343
-29.996
-30.835
-32.837
-33.411
-32.272
-31.441
-31.977
-31.403
-28.332
-27.258
-31.046
-34.291
-33.591
-34.442
-39.372
-42.833
-42.967
-43.672
-44.614
-41.524
-32.774
-19.384
-4.088
10.008
23.539
39.939
62.886
96.35
137.925
178.781
221.279
275.01
327.16
352.151
350.356
336.499
303.16
234.933
137.765
27.232
-89.382
-206.187
-313.634
-410.103
-510.501
-627.04
-736.187
-792.129
-783.91
-743.604
-697.074
-648.132
-597.091
-537.291
-457.856
-368.442
-290.254
-226.953
-174.077
-135.756
-110.564
-86.851
-61.931
-45.369
-42.052
-44.031
-40.898
-34.118
-32.945
-36.511
-34.048
-22.856
-12.253
-10.72
-16.329
-19.339
-14.564
-7.179
-0.902
8.212
18.752
21.122
13.602
4.741
-0.32
-0.544
7.204
20.731
30.506
34.442
37.281
34.929
23.65
15.925
21.432
30.374
35.223
42.533
52.203
53.927
46.854
39.222
34.145
31.787
34.879
42.836
51.062
57.723
62.449
63.469
62.761
64.952
67.828
65.779
62.606
66.793
75.956
80.673
79.92
79.06
79.511
81.796
88.359
95.215
94.076
87.283
85.868
91.58
96.239
98.158
103.678
113.435
120.663
122.395
122.348
123.609
126.183
131.037
138.094
141.164
136.494
133.081
139.576
149.557
155.32
160.36
165.936
167.394
169.258
178.539
186.811
185.35
184.3
191.383
195.587
193.656
198.981
210.284
211.972
207.337
210.758
218.453
219.381
215.281
212.603
213.798
217.311
216.281
208.165
202.128
202.676
201.191
193.861
187.122
182.275
174.245
162.606
151.173
142.524
136.487
128.675
115.417
102.056
95.569
91.719
82.638
70.295
60.91
54.705
48.242
39.482
29.357
22.31
20.659
18.974
12.651
6.547
4.931
3.57
0.477
-0.181
1.415
1.791
1.419
-1.129
-9.641
-19.533
-23.496
-24.233
-25.542
-23.327
-17.852
-17.279
-22.079
-23.829
-20.344
-17.474
-19.027
-23.004
-24.179
-20.633
-18.11
-20.704
-23.488
-23.664
-25.617
-29.013
-28.535
-24.934
-23.102
-24.381
-26.486
-26.538
-25.128
-26.023
-28.341
-27.214
-23.849
-23.489
-25.739
-26.525
-24.662
-22.211
-22.119
-24.478
-26.094
-26.016
-25.094
-22.243
-19.545
-21.248
-23.41
-20.397
-17.595
-21.061
-25.651
-25.196
-21.764
-19.572
-18.575
-16.488
-14.613
-17.015
-22.015
-23.682
-22.631
-22.746
-21.82
-18.16
-16.464
-19.036
-22.815
-25.466
-25.225
-20.918
-15.849
-13.969
-15.065
-18.292
-23.105
-26.323
-25.137
-20.764
-17.058
-17.404
-20.293
-20.379
-17.895
-17.62
-17.846
-15.695
-16.497
-21.37
-21.656
-17.271
-17.113
-19.169
-15.957
-11.909
-13.351
-15.868
-15.2
-13.811
-13.077
-13.218
-14.861
-13.462
-6.725
-5.048
-15.007
-24.83
-24.713
-21.045
-19.29
-17.648
-19.203
-26.712
-32.491
-30.582
-25.957
-23.071
-20.676
-19.399
-21.069
-23.3
-22.622
-19.117
-15.926
-15.486
-16.234
-17.333
-23.108
-32.055
-32.321
-21.882
-15.612
-21.212
-28.952
-30.132
-26.65
-22.125
-16.665
-10.609
-8.132
-13.808
-24.131
-28.386
-23.066
-18.006
-21.582
-28.828
-31.869
-30.939
-27.875
-22.296
-18.32
-20.126
-22.215
-18.833
-15.373
-16.406
-15.812
-12.216
-15.688
-26.155
-28.445
-20.241
-17.557
-24.196
-26.012
-19.351
-14.949
-15.167
-14.81
-16.948
-25.124
-31.913
-31.295
-28.307
-28.372
-30.351
-31.483
-29.79
-24.545
-18.78
-16.924
-18.988
-20.727
-19.771
-18.533
-19.038
-18.611
-15.188
-11.565
-9.858
-9.013
-8.606
-6.803
-0.434
5.941
5.159
3.631
10.519
17.537
16.598
19.387
32.419
41.328
39.501
37.665
38.579
37.165
38.883
47.131
48.263
34.832
23.557
27.234
31.805
25.518
23.576
35.141
37.924
17.319
-4.672
-7.958
-3.993
-7.252
-14.758
-23.174
-33.572
-40.193
-38.435
-34.899
-34.637
-32.598
-26.936
-25.364
-30.759
-34.277
-29.964
-24.072
-23.038
-24.057
-23.813
-24.862
-28.502
-31.372
-31.523
-30.526
-30.41
-32.956
-38.493
-43.213
-42.474
-36.909
-29.767
-19.606
-2.816
17.773
36.589
57.716
89.974
129.534
167.333
210.448
266.889
318.429
344.108
351.068
346.351
311.142
235.34
139.099
38.934
-69.666
-187.069
-300.002
-403.322
-510.43
-630.401
-740.572
-801.063
-800.299
-763.266
-714.86
-662.109
-605.152
-539.45
-458.271
-369.363
-293.225
-237.005
-189.413
-145.238
-112.434
-91.443
-73.028
-58.908
-56.45
-56.151
-45.093
-33.279
-36.862
-48.871
-50.104
-35.601
-17.562
-11.445
-20.117
-28.934
-24.243
-11.127
-0.518
7.975
16.839
20.355
14.534
4.235
-3.805
-5.544
0.696
12.562
25.124
34.675
37.198
29.714
18.311
13.254
13.947
15.347
23.563
41.909
55.134
52.65
46.181
44.821
42.067
37.96
40.51
46.243
49.369
55.38
64.159
65.02
58.658
56.475
60.565
66.089
71.101
72.562
68.936
66.92
71.146
76.488
79.7
83.372
86.106
85.688
86.661
90.296
90.35
88.294
93.154
102.903
108.028
109.67
113.444
115.763
113.758
114.566
121.986
128.861
130.786
132.669
136.639
138.196
138.371
143.835
151.753
153.187
153.269
165.099
183.069
188.192
180.038
177.541
187.815
197.948
200.048
202.005
207.308
207.755
204.375
207.886
213.952
211.082
206.906
211.043
212.718
206.817
207.857
217.326
218.962
213.028
213.258
216.02
208.596
194.202
183.116
175.761
168.754
161.277
150.615
135.098
120.355
112.51
108.845
102.189
90.818
78.646
68.136
58.427
49.318
41.406
33.612
25.889
20.469
16.564
11.051
5.182
1.32
-3.171
-9.617
-13.507
-12.668
-10.417
-9.146
-9.64
-13.577
-20.164
-25.054
-25.688
-24.622
-26.38
-30.696
-32.363
-30.939
-31.066
-30.953
-26.822
-24.701
-28.547
-31.101
-31.949
-39.496
-48.206
-44.857
-34.586
-31.66
-35.347
-37.34
-37.859
-39.423
-39.164
-35.987
-34.871
-39.669
-46.725
-48.073
-41.331
-33.98
-33.27
-36.033
-35.652
-33.062
-32.616
-33.842
-34.585
-35.445
-35.664
-32.567
-29.235
-32.127
-37.911
-37.329
-33.314
-35.837
-40.617
-36.31
-28.044
-29.377
-37.829
-40.156
-33.95
-28.347
-30.026
-35.474
-35.158
-27.856
-25.191
-32.177
-37.346
-34.047
-30.409
-29.141
-22.889
-14.612
-16.96
-29.882
-40.453
-42.458
-39.321
-34.533
-32.092
-36.072
-41.357
-37.967
-28.236
-24.355
-28.439
-30.883
-27.398
-23.335
-22.863
-24.688
-25.946
-24.905
-23.237
-24.594
-27.726
-28.118
-27.784
-32.675
-41.68
-47.814
-46.909
-40.657
-34.509
-32.165
-33.369
-38.23
-43.888
-40.75
-28.826
-23.733
-29.705
-32.961
-31.249
-34.988
-40.554
-37.779
-32.591
-34.504
-39.213
-40.766
-41.686
-42.476
-39.546
-36.396
-38.332
-38.693
-32.119
-30.966
-42.138
-48.636
-41.341
-36.35
-39.727
-37.848
-32.267
-37.66
-48.833
-50.903
-46.043
-41.554
-36.79
-35.771
-44.194
-53.136
-51.035
-42.996
-39.508
-40.009
-40.153
-41.074
-42.921
-40.731
-33.702
-30.229
-36.118
-44.525
-46.81
-45.503
-45.783
-44.788
-40.238
-37.095
-38.454
-42.788
-49.953
-56.589
-54.293
-45.808
-46.15
-54.852
-52.971
-39.369
-34.952
-41.811
-40.213
-30.304
-32.082
-45.25
-50.016
-42.36
-36.481
-39.546
-45.578
-47.454
-42.58
-32.725
-24.274
-22.847
-25.078
-22.746
-16.386
-14.67
-18.753
-20.384
-16.496
-11.112
-4.912
2.912
8.369
8.979
7.864
7.199
6.561
5.778
3.301
-1.364
-3.259
0.631
5.207
5.875
2.798
-4.449
-13.119
-16.222
-16.811
-25.698
-39.71
-46.654
-47.552
-49.395
-50.956
-53.286
-60.969
-67.149
-62.743
-53.789
-49.349
-48.566
-49.933
-53.479
-55.14
-54.354
-55.008
-54.191
-49.524
-49.369
-55.868
-58.092
-54.867
-56.492
-61.773
-61.779
-58.738
-59.357
-61.86
-61.149
-55.146
-44.048
-30.602
-17.706
-4.089
13.685
38.115
70.179
105.889
138.718
171.82
216.653
272.511
318.857
334.405
316.444
274.251
208.305
112.523
-2.136
-111.408
-208.014
-301.786
-396.007
-490.805
-590.79
-681.871
-728.397
-718.313
-681.208
-645.47
-610.697
-569.115
-516.196
-440.941
-345.719
-265.649
-228.888
-215.156
-186.395
-137.207
-91.734
-68.86
-65.303
-65.298
-58.47
-45.651
-33.106
-27.854
-31.537
-34.81
-28.357
-18.05
-16.477
-24.782
-33.583
-34.392
-24.334
-7.402
7.822
16.492
19.951
19.336
14.261
6.895
1.612
2.502
11.216
24.001
34.496
40.185
40.868
35.526
26.788
21.448
22.873
28.92
36.868
45.819
54.393
57.557
50.621
39.073
34.92
40.031
44.995
44.804
44.948
52.659
65.774
72.244
67.288
62.927
66.944
69.619
66.399
68.07
76.61
80.184
77.363
78.48
84.613
88.825
91.281
94.382
93.876
89.09
88.005
92.997
98.164
103.798
114.462
124.545
124.762
118.801
118.374
127.093
138.493
145.228
146.455
147.332
150.586
153.12
154.398
159.29
169.183
179.121
184.593
185.875
187.192
192.177
199.287
204.557
206.724
206.499
205.785
207.301
210.43
213.266
217.927
223.119
221.594
217.104
223.614
239.226
247.299
244.113
239.383
236.635
232.684
226.14
216.956
206.04
196.111
188.848
183.535
178.083
170.127
159.261
147.044
134.671
124.072
117.297
110.133
95.231
75.881
63.211
57.832
51.492
44.504
41.957
39.539
31.808
24.304
22.35
19.818
10.46
-0.765
-6.171
-5.94
-4.064
-2.161
-2.263
-6.415
-10.052
-7.878
-6.586
-14.191
-21.053
-16.263
-12.793
-24.715
-36.143
-28.28
-14.201
-12.998
-17.921
-17.333
-16.622
-21.304
-25.55
-25.734
-25.745
-27.918
-30.134
-30.391
-28.972
-26.761
-24.19
-22.39
-22.428
-23.679
-25.647
-28.033
-28.82
-27.983
-28.133
-27.466
-23.139
-20.191
-22.674
-24.532
-21.933
-19.976
-19.865
-16.608
-11.917
-14.111
-23.658
-29.609
-25.235
-18.98
-19.604
-21.275
-18.707
-19.751
-26.109
-25.519
-16.533
-13.155
-18.16
-19.679
-14.014
-8.291
-6.4
-8.461
-14.396
-20.293
-22.341
-23.008
-23.239
-19.318
-15.138
-18.99
-25.255
-22.77
-16.525
-16.237
-17.263
-14.364
-12.979
-13.191
-8.024
-1.147
-1.781
-7.554
-10.506
-9.355
-7.366
-8.487
-14.337
-20.176
-21.232
-19.358
-16.505
-13.421
-14.752
-19.597
-17.696
-9.003
-6.497
-12.22
-15.41
-13.257
-11.566
-12.124
-12.887
-12.735
-12.184
-12.304
-11.373
-7.626
-5.582
-8.026
-8.536
-5.819
-8.909
-16.103
-14.336
-7.226
-11.298
-22.143
-21.309
-12.388
-12
-17.522
-18.765
-20.22
-24.777
-23.845
-19.111
-21.964
-28.346
-26.558
-21.807
-23.286
-24.297
-19.858
-19.588
-25.186
-23.928
-14.394
-9.317
-11.757
-14.437
-15.879
-17.674
-17.772
-17.198
-19.101
-19.769
-14.983
-9.642
-9.138
-10.737
-10.987
-10.778
-10.541
-9.93
-10.438
-12.244
-13.301
-13.414
-13.465
-12.24
-8.59
-3.689
0.373
1.615
-0.36
-2.926
-4.209
-6.513
-11.019
-13.186
-8.83
-0.221
7.256
10.36
9.777
9.32
11.787
16.62
22.032
24.941
22.679
18.838
18.247
18.842
19.887
25.195
31.377
33.852
39.195
49.223
52.292
46.398
42.728
42.217
37.916
33.351
34.176
34.739
29.035
21.197
16.757
15.286
14.889
14.78
12.413
4.924
-6.088
-15.357
-19.031
-17.184
-13.56
-13.026
-15.66
-15.854
-11.575
-8.273
-8.793
-8.32
-4.338
-2.79
-8.855
-17.655
-20.823
-18.829
-17.562
-15.96
-10.475
-7.213
-13.03
-21.405
-23.26
-20.852
-17.82
-10.564
1.914
16.135
33.4
55.759
79.575
105.06
139.095
181.208
222.669
261.871
303.723
343.777
367.86
366.702
338.908
281.722
192.647
81.718
-31.738
-138.598
-242.442
-343.869
-444.102
-554.353
-667.493
-739.822
-742.806
-704.287
-662.88
-622.978
-577.694
-526.348
-459.473
-372.439
-288.121
-229.752
-189.564
-149.827
-109.92
-76.16
-49.541
-32.041
-25.629
-24.022
-19.37
-13.347
-11.758
-13.091
-10.416
-1.601
8.298
12.999
10.264
4.502
4.041
10.988
18.52
23.096
28.661
34.687
34.462
27.375
19.515
14.684
15.328
24.834
41.11
56.095
64.189
64.234
56.83
46.354
40.163
41.98
50.528
62.454
71.742
72.986
69.634
69.577
71.461
68.31
62.528
61.833
65.721
70.609
77.59
83.721
82.42
77.373
76.271
77.253
79.717
88.784
97.926
96.424
92.414
96.978
101.789
99.71
100.599
108.475
112.868
110.869
111.43
117.203
122.128
124.676
128.733
133.491
134.896
135.423
139.636
143.698
143.013
142.794
148.693
157.562
164.417
167.419
166.647
165.848
168.964
173.685
177.037
181.51
188.509
195.221
200.466
204.752
207.407
209.301
212.283
215.044
216.278
218.145
221.292
223.678
226.479
231.48
235.113
235.902
239.211
244.288
241.618
230.793
222.262
219.746
218.914
216.762
210.319
199.894
194.213
195.628
193.103
183.256
174.694
166.946
153.466
139.575
132.012
125.023
113.704
102.767
94.688
86.512
78.433
73.037
69.715
65.844
59.408
50.481
42.623
38.707
35.994
31.551
28.526
30.32
34.421
36.488
34.72
30.241
27.032
26.806
24.635
17.549
11.805
12.582
14.714
11.682
6.399
5.976
9.947
11.15
7.93
6.862
11.391
16.124
15.085
10.233
8.819
12.461
13.435
7.153
1.078
2.464
6.727
6.838
4.298
3.854
5.434
6.133
5.612
5.957
7.634
9.386
11.657
14.558
14.369
9.345
4.366
3.357
4.776
7.07
9.084
8.1
5.463
5.875
8.051
7.731
6.889
8.118
8.544
8.353
12.375
18.236
18.158
13.246
11.043
12.79
15.61
18.703
19.262
14.869
11.991
17.007
23.517
23.167
18.139
12.691
8.527
10.911
20.381
26.105
24.17
23.625
25.721
24.554
24.395
27.654
23.718
11.701
5.922
9.453
12.705
13.822
15.439
14.645
11.583
12.46
17.871
21.129
19.818
19.242
21.445
19.62
11.558
7.818
14.305
21.57
22.342
20.324
17.344
13.387
14.294
20.348
21.476
16.15
14.409
17.612
18.032
16.188
17.399
18.394
14.728
11.175
11.567
11.206
9.158
12.257
19.047
18.468
10.697
8.453
13.541
14.128
7.756
4.991
7.634
5.172
-2.795
-3.479
4.027
5.811
-0.623
-4.437
-3.536
-2.212
1.909
8.503
10.898
9.211
6.375
-0.415
-7.594
-6.03
-0.963
-3.725
-9.456
-9.773
-9.665
-11.216
-7.105
-0.817
-2.445
-6.061
-2.082
1.724
-2.222
-6.147
-6.02
-7.438
-7.982
-2.186
2.338
-2.466
-9.426
-8.856
-2.767
1.04
-0.966
-5.005
-4.277
1.742
6.679
7.297
5.552
2.692
0.802
3.555
7.376
3.313
-6.273
-8.314
-0.311
6.59
7.446
8.374
11.657
12.623
10.549
9.602
10.992
13.323
16.476
19.422
20.287
20.539
22.25
23.705
24.458
28.495
36.54
42.82
43
38.436
32.427
28.27
28.403
30.414
28.093
19.98
11.781
7.822
5.682
1.958
-2.298
-5.89
-11.232
-18.58
-23.974
-27.079
-30.614
-32.099
-30.03
-31.186
-36.494
-34.633
-23.813
-19.114
-27.19
-35.826
-35.935
-33.689
-35.365
-37.031
-35.016
-33.91
-38.577
-46.349
-49.925
-44.727
-35.839
-35.822
-47.599
-56.179
-48.651
-30.546
-11.057
10.367
33.882
57.234
86.274
125.602
167.868
210.659
260.147
306.245
328.429
326.198
307.989
265.879
192.206
96.344
-11.707
-128.222
-244.491
-350.547
-450.047
-559.701
-682.428
-783.611
-822.69
-806.771
-773.232
-733.731
-680.738
-620.738
-558.743
-483.81
-397.261
-320.901
-265.317
-220.068
-177.346
-141.953
-118.389
-103.894
-95.135
-91.819
-91.09
-87.098
-80.988
-80.718
-84.644
-79.543
-63.123
-52.177
-58.013
-68.815
-68.958
-62.539
-61.11
-60.589
-51.622
-40.301
-37.463
-42.187
-50.141
-59.512
-63.155
-54.727
-40.834
-32.165
-30.622
-33.419
-38.779
-44.469
-49.069
-52.11
-49.427
-37.016
-20.922
-12.773
-15.661
-23.663
-32.394
-40.14
-42.303
-35.977
-27.526
-24.795
-24.901
-21.183
-17.417
-21.12
-28.402
-30.899
-30.462
-32.074
-32.128
-26.347
-18.67
-14.563
-14.389
-15.417
-15.175
-13.717
-12.904
-12.679
-11.738
