85.591
85.46
84.928
81.705
76.281
73.603
76.171
80.568
83.537
85.526
86.279
83.754
79.366
78.262
81.923
84.598
80.635
72.799
67.491
64.954
63.057
64.495
69.606
72.101
70.043
67.754
65.422
61.697
61.019
65.251
67.814
64.65
60.685
61.279
64.933
66.987
67.056
68.544
70.791
69.668
66.837
67.103
67.948
64.801
61.794
64.444
68.82
68.455
64.575
62.15
62.605
65.315
69.795
72.427
68.475
61.186
58.913
60.926
60.168
58.401
60.533
61.292
56.226
52.168
52.21
49.412
42.888
38.92
36.243
29.806
23.454
23.359
26.635
27.015
24.658
23.723
25.584
28.83
32.142
33.953
32.33
27.607
22.872
20.833
21.501
22.63
21.777
18.64
15.848
16.811
21.475
25.034
23.695
19.63
16.433
14.343
14.043
17.507
21.734
21.473
18.819
19.211
21.875
24.877
30.025
34.634
33.304
31.038
36.319
44.104
45.084
43.863
49.451
57.85
60.137
57.851
57.736
60.689
65.222
72.418
80.649
84.71
84.62
86.049
90.147
92.774
93.297
93.821
93.355
93.351
100.711
114.342
121.878
119.795
119.596
126.946
134.182
136.453
136.871
137.083
136.295
135.314
134.95
134.41
131.743
126.167
122.265
124.352
125.578
116.881
103.841
97.704
97.68
96.98
94.879
93.187
91.779
91.858
96.663
106.654
115.399
114.413
104.521
94.867
89.166
83.992
78.861
75.78
72.59
66.238
58.049
49.831
40.122
28.74
18.268
7.441
-6.813
-19.46
-23.49
-21.873
-18.492
-9.337
6.688
27.145
55.798
92.365
128.148
166.299
215.581
260.719
277.323
266.148
238.052
187.427
105.538
-3.915
-132.3
-269.499
-401.264
-518.324
-630.466
-760.239
-905.311
-1017.833
-1054.265
-1030.619
-991.325
-952.346
-909.35
-861.389
-800.702
-719.702
-635.122
-569.644
-521.807
-481.041
-447.112
-419.138
-394.159
-378.167
-374.026
-370.67
-362.01
-356.938
-360.714
-366.02
-364.622
-353.762
-336.94
-326.579
-332.771
-345.227
-344.163
-329.143
-315.892
-308.51
-298.81
-287.707
-284.398
-289.767
-297.307
-303.003
-303.572
-294.188
-276.3
-260.617
-255.554
-257.175
-257.343
-257.055
-260.706
-262.424
-253.387
-237.6
-226.031
-221.957
-222.442
-225.159
-227.078
-224.651
-218.512
-212.067
-205.095
-194.815
-183.521
-177.791
-178.885
-181.198
-180.732
-178.436
-175.62
-171.329
-164.755
-157.67
-152.448
-148.659
-144.539
-140.008
-134.795
-127.619
-120.579
-118.029
-117.997
-112.982
-102.082
-92.31
-86.199
-80.15
-74.423
-71.105
-66.225
-57.043
-48.817
-44.549
-39.923
-32.937
-26.162
-20.644
-16.544
-14.217
-11.602
-7.406
-3.402
1.665
11.717
24.345
32.649
35.803
38.432
42.193
45.634
49.145
53.856
58.068
59.912
61.267
64.279
67.045
67.64
68.454
71.74
74.846
73.994
69.799
65.837
63.57
61.16
56.304
48.341
38.285
27.931
18.339
9.22
0.028
-9.857
-21.022
-31.283
-36.814
-39.62
-46.496
-57.494
-66.36
-72.788
-80.278
-85.612
-86.101
-88.912
-98.025
-104.435
-102.338
-99.924
-104.002
-109.213
-109.646
-108.293
-109.69
-111.37
-107.602
-99.158
-93.621
-94.427
-97.267
-99.436
-102.045
-102.957
-100.016
-97.508
-98.287
-98.397
-97.081
-98.443
-99.781
-94.828
-87.601
-85.968
-87.334
-86.438
-86.449
-89.35
-89.421
-84.679
-80.524
-79.651
-79.837
-78.949
-75.731
-70.896
-68.278
-69.449
-70.444
-68.198
-65.196
-64.003
-62.809
-60.347
-58.654
-57.245
-53.245
-48.86
-47.816
-47.515
-45.928
-46.566
-47.699
-42.737
-35.564
-35.72
-40.331
-40.65
-37.91
-36.001
-32.166
-26.504
-25.14
-28.171
-28.568
-23.778
-17.792
-13.896
-12.293
-12.152
-12.393
-12.163
-11.318
-9.831
-7.67
-5.133
-2.622
-0.892
-0.543
-0.47
0.54
1.712
3.29
7.132
11.294
11.598
9.51
9.822
12.586
14.778
15.762
16.447
16.689
15.286
11.966
9.37
10.081
12.18
12.894
13.501
15.189
16.289
17.288
20.015
21.742
20.224
20.249
24.225
25.068
19.315
14.921
16.69
18.694
17.573
17.596
19.249
17.93
14.369
13.337
14.27
14.192
15.216
19.302
22.354
21.851
21.616
23.206
23.216
22.034
23.821
27.736
29.306
27.722
24.798
21.899
21.209
23.717
26.216
26.032
25.383
26.34
26.667
24.851
23.917
26.28
29.406
30.069
28.853
27.67
26.577
25.169
24.103
23.999
25.048
28.041
33.364
38.326
38.715
34.85
32.038
32.592
33.066
31.779
31.52
33.168
34.916
37.103
40.218
42.072
42.193
42.959
45.014
47.382
49.35
49.214
46.657
45.521
48.296
52.108
54.244
55.196
55.266
55.162
57.415
61.602
63.961
64.496
67.223
73.762
81.659
86.824
88.283
91.21
98.203
102.532
100.677
98.906
98.757
94.611
87.317
81.074
74.641
69.293
69.396
70.274
64.591
56.148
50.863
46.669
43.281
44.884
48.247
45.843
40.03
38.491
40.79
41.679
40.327
38.708
38.133
39.598
41.895
41.604
38.532
36.768
38.387
40.715
41.25
40.756
39.503
36.497
35.142
39.658
44.226
41.266
38.206
45.936
59.577
71.403
86.521
109.273
135.424
165.819
205.276
249.912
295.304
345.23
396.162
431.267
440.626
427.475
391.107
324.701
230.681
122.007
9.186
-103.476
-211.856
-316.295
-430.485
-560.49
-672.062
-716.972
-695.744
-651.158
-607.058
-559.216
-505.152
-440.444
-355.578
-263.42
-191.936
-142.23
-96.334
-56.24
-32.28
-14.456
7.622
23.104
24.404
24.289
31.505
36.633
33.22
30.818
39.315
54.839
65.577
64.461
55.713
51.071
57.501
70.218
80.843
87.527
92.528
94.747
90.16
78.568
66.999
65.435
78.491
99.779
115.47
117.504
111.406
105.566
99.662
92.677
91.064
97.913
106.733
113.094
118.068
119.369
114.519
108.73
107.013
106.664
105.684
107.736
114.012
119.845
121.205
118.335
113.706
110.112
109.597
112.19
116.088
119.82
123.442
126.739
128.213
127.393
125.684
124.733
126.336
130.456
132.227
128.89
127.491
134.428
144.403
151.321
157.899
165.31
169.049
169.972
173.048
176.169
176.174
179.048
188.825
197.435
198.891
199.63
205.12
211.63
216.323
220.641
223.766
224.767
226.756
231.131
234.898
237.038
239.575
242.13
242.792
243.147
246.206
250.886
253.447
252.905
251.369
250.144
248.495
246.479
246.053
247.197
245.986
239.779
230.988
223
216.04
208.496
198.917
186.054
169.906
153.474
140.39
129.795
117.763
104.044
91.769
81.834
72.959
64.651
57.324
51.351
45.143
35.902
25.55
19.342
16.41
11.994
6.841
3.025
-2.187
-9.298
-14.011
-15.828
-18.18
-21.037
-22.742
-25.201
-30.305
-35.035
-35.074
-31.92
-31.652
-35.038
-36.135
-34.334
-36.019
-40.387
-39.595
-34.937
-34.652
-37.702
-37.828
-36.832
-37.972
-37.346
-33.837
-33.649
-37.949
-40.274
-38.216
-35.76
-35.422
-35.854
-35.224
-33.927
-34.391
-37.59
-40.639
-39.786
-35.561
-33.22
-35.896
-39.716
-40.598
-40.643
-41.859
-42.386
-42.975
-46.427
-50.638
-51.853
-50.54
-48.291
-45.501
-43.855
-45.077
-47.448
-47.366
-44.716
-44.082
-47.476
-49.887
-48.245
-47.129
-48.38
-46.861
-42.094
-39.636
-39.34
-36.982
-34.04
-33.033
-31.529
-29.536
-30.632
-32.831
-32.31
-32.352
-35.467
-36.629
-33.985
-32.953
-35.157
-36.607
-36.458
-36.708
-36.546
-34.354
-31.26
-29.165
-29.058
-31.558
-35.313
-36.579
-34.121
-31.727
-32.991
-36.855
-39.647
-38.731
-35.098
-33.268
-35.507
-38.509
-40.024
-42.059
-43.591
-40.763
-36.604
-37.857
-42.93
-45.669
-46.466
-48.216
-49.109
-48.139
-48.069
-48.601
-47.388
-46.833
-48.835
-49.07
-46.279
-46.092
-48.881
-48.299
-44.173
-41.845
-41.209
-38.738
-34.767
-31.517
-29.577
-27.868
-24.116
-18.04
-13.2
-11.87
-12.28
-12.645
-12.366
-10.886
-9.249
-8.584
-7.285
-4.979
-4.889
-7.491
-8.523
-6.725
-6.467
-9.958
-13.322
-13.114
-10.975
-9.364
-8.318
-8.055
-8.992
-9.358
-8.404
-8.592
-9.639
-7.942
-5.418
-7.3
-10.649
-9.053
-4.837
-3.621
-5.227
-7.954
-10.438
-8.806
-3.486
-1.994
-6.155
-8.208
-4.462
0.084
2.122
3.689
5.924
7.609
9.219
12.768
17.593
20.424
20.757
22.159
25.843
28.486
29.889
34.501
41.453
44.558
44.357
46.055
47.367
44.097
41.27
43.4
43.67
36.004
26.86
24.471
25.945
23.087
14.023
2.692
-7.826
-15.532
-18.703
-20.403
-26.092
-33.045
-33.291
-27.653
-23.358
-21.061
-17.78
-15.694
-16.774
-17.618
-16.577
-16.834
-20.163
-25.204
-29.724
-30.338
-26.008
-22.36
-24.289
-27.538
-26.558
-24.362
-25.62
-27.239
-23.556
-14.293
-2.001
12.65
29.899
50.771
79.684
120.425
167.98
213.937
260.461
313.152
360.831
384.047
380.009
355.536
305.226
221.226
113.085
-1.661
-114.769
-223.168
-324.077
-427.152
-549.753
-678.87
-763.577
-774.346
-740.087
-699.537
-656.237
-603.345
-544.645
-476.221
-392.213
-308.732
-245.497
-198.613
-157.072
-121.907
-94.732
-72.318
-56.263
-49.052
-45.583
-40.543
-35.981
-36.188
-41.155
-45.002
-40.248
-29.008
-24.757
-33.251
-41.224
-35.685
-21.727
-10.16
-1.777
7.012
14.644
15.809
7.325
-6.121
-12.393
-4.094
12.553
26.886
35.529
39.091
35.977
27.008
18.306
13.42
11.051
13.653
25.537
40.005
44.162
38.358
34.175
34.219
31.928
27.943
29.334
36.888
45.535
51.667
53.492
50.213
44.169
40.707
43.855
51.172
55.544
55.06
55.736
60.803
65.469
66.396
67.627
72.876
79.374
83.266
85.332
87.716
90.004
92.261
96.9
103.7
108.397
109.383
110.084
113.027
116.889
119.648
121.341
124.303
130.422
137.215
140.583
142.156
146.916
153.559
156.683
157.962
163.971
174.333
183.314
189.678
194.804
197.5
198.624
202.235
207.839
210.944
211.97
215.568
222.096
226.792
227.075
226.324
228.389
230.819
229.103
225.537
224.46
221.946
212.452
200.231
191.803
185.355
176.901
166.599
155.016
142.684
131.512
121.469
111.368
101.861
92.582
82.388
73.132
65.588
56.632
45.813
36.439
29.361
23.439
18.461
13.389
7.28
1.772
-1.793
-4.394
-6.852
-9.055
-10.739
-11.418
-11.569
-12.675
-14.168
-13.539
-10.998
-10.201
-12.808
-15.665
-15.262
-12.582
-11.298
-12.629
-14.739
-16.531
-18.616
-21.101
-23.789
-26.398
-26.961
-25.148
-25.31
-28.733
-29.703
-26.645
-25.592
-27.876
-28.397
-26.445
-25.328
-25.243
-25.113
-25.024
-24.029
-21.496
-18.551
-16.199
-16.336
-20.447
-23.853
-20.78
-15.018
-13.338
-13.459
-11.093
-9.696
-11.519
-10.62
-4.899
-1.847
-4.132
-4.751
-2.553
-4.898
-11.028
-12.065
-8.991
-10.788
-15.776
-15.098
-11.877
-16.316
-25.502
-27.773
-22.737
-19.629
-20.903
-21.57
-20.212
-20.174
-22.611
-25.237
-26.729
-27.715
-28.509
-29.899
-33.792
-38.901
-40.263
-37.277
-35.825
-38.711
-41.766
-42.541
-44.632
-50.24
-55.845
-58.545
-60.284
-62.452
-62.609
-60.092
-58.106
-57.57
-56.361
-54.749
-53.668
-51.322
-48.481
-49.296
-52.907
-54.753
-55.288
-56.511
-56.007
-53.505
-53.516
-55.643
-53.834
-48.061
-44.908
-45.856
-46.352
-45.519
-46.255
-48.238
-49.302
-49.329
-48.159
-45.822
-44.734
-45.302
-44.292
-41.767
-40.945
-41.143
-41.023
-42.972
-45.257
-41.805
-35.252
-34.302
-38.007
-39.299
-38.716
-39.814
-39.598
-35.441
-32.87
-37.052
-43.379
-44.666
-41.888
-39.662
-38.074
-37.167
-39.827
-43.313
-40.697
-34.383
-33.234
-36.714
-37.554
-36.15
-37.235
-38.135
-33.959
-28.677
-29.604
-35.29
-38.082
-35.631
-32.021
-29.852
-28.186
-26.546
-25.876
-26.803
-28.39
-28.234
-25.866
-24.478
-25.539
-26.466
-26.651
-27.827
-27.732
-22.997
-16.753
-14.492
-15.639
-15.945
-14.122
-11.071
-6.811
-2.625
-1.576
-2.468
-0.019
5.274
8.235
11.054
18.639
25.446
25.116
23.605
26.253
27.428
24.352
22.236
21.066
15.431
6.42
0.137
-1.519
-1.477
-3.475
-9.213
-16.796
-22.989
-26.441
-27.199
-26.649
-28.108
-32.417
-35.294
-33.454
-28.906
-25.326
-25.265
-29.3
-34.019
-35.302
-34.694
-36.283
-39.028
-39.205
-37.507
-37.386
-38.878
-38.867
-36.408
-34.772
-37.213
-41.236
-39.808
-30.542
-19.188
-9.095
5.318
27.735
53.975
83.605
122.143
167.852
213.947
261.473
311.395
351.866
368.822
358.313
320.62
255.68
167.447
62.976
-52.006
-171.007
-283.58
-384.508
-487.913
-610.845
-731.429
-795.991
-785.184
-735.477
-684.827
-638.57
-588.315
-525.149
-442.177
-349.002
-267.749
-207.181
-161.463
-127.3
-101.029
-74.308
-48.983
-36.846
-36.579
-33.257
-23.518
-18.686
-22.408
-24.942
-18.964
-6.623
5.29
8.194
-1.217
-11.398
-6.783
10.099
23.484
28.878
33.969
38.985
35.285
22.403
11.815
12.293
21.034
31.779
42.824
51.502
51.109
42.035
34.489
32.578
30.698
30.036
38.8
53.736
62.008
61.046
58.721
58.142
56.799
54.767
54.556
58.44
67.477
77.92
83.204
82.569
80.115
77.864
78.095
83.801
90.51
90.703
87.677
89.928
95.67
97.581
96.439
98.317
103.849
108.069
108.609
109.295
113.735
119.185
122.157
125.593
132.592
138.647
139.153
137.88
139.074
139.988
139.63
143.478
151.967
157.455
158.001
160.103
165.366
168.685
169.594
172.339
176.862
180.47
184.551
191.435
198.71
202.481
203.554
205.72
208.697
208.641
206.794
208.84
213.92
215.692
214.348
215.039
217.436
218.458
219.648
222.714
223.638
217.685
207.131
198.94
194.256
186.725
174.167
161.805
151.477
140.652
130.559
122.099
111.007
96.743
84.373
74.61
65.272
57.759
50.964
40.361
28.979
23.369
19.81
11.615
2.776
-0.4
-0.295
-1.665
-5.757
-12.61
-20.021
-24.236
-25.944
-27.765
-28.054
-26.998
-30.431
-38.208
-41.374
-37.614
-34.999
-37.353
-40.036
-40.043
-39.104
-39.31
-41.923
-45.946
-47.202
-44.402
-41.946
-42.407
-43.801
-45.111
-45.965
-44.738
-43.247
-44.875
-46.686
-44.727
-42.982
-45.769
-49.375
-49.776
-48.938
-48.717
-47.688
-45.793
-44.939
-44.909
-43.708
-41.088
-38.49
-36.806
-36.391
-38.088
-42.184
-46.209
-46.565
-44.228
-44.33
-47.501
-48.401
-44.855
-40.969
-40.767
-43.834
-46.214
-45.071
-42.748
-42.409
-42.863
-43.427
-46.246
-49.548
-48.817
-44.713
-40.833
-38.549
-38.981
-41.726
-41.855
-36.864
-31.964
-31.874
-34.63
-36.899
-38.141
-38.968
-39.956
-40.736
-40.115
-39.218
-40.186
-40.754
-37.873
-34.972
-36.253
-38.789
-39.026
-39.593
-42.996
-46.372
-46.417
-44.104
-43.059
-44.954
-47.056
-46.447
-45.268
-46.699
-48.921
-49.315
-49.895
-52.653
-55.021
-54.496
-52.434
-50.968
-51.272
-54.279
-57.771
-56.965
-53.404
-54.665
-60.397
-61.37
-55.805
-51.857
-53.018
-55.384
-57.032
-58.202
-57.268
-54.557
-53.522
-54.942
-56.634
-57.591
-57.092
-53.961
-50.253
-50.539
-54.892
-57.424
-54.928
-52.037
-53.121
-55.313
-55.177
-53.843
-51.571
-48.064
-47.706
-51.917
-52.69
-46.44
-42.044
-44.522
-47.278
-47.089
-48.312
-50.52
-49.142
-45.745
-44.586
-44.718
-44.201
-45.068
-48.299
-50.268
-48.419
-45.14
-43.222
-42.841
-44.05
-45.794
-43.93
-37.617
-33.055
-33.645
-34.296
-31.478
-28.432
-26.277
-21.779
-16.304
-14.823
-15.733
-13.98
-11.517
-11.637
-9.732
-2.706
3.375
5.355
8.129
12.87
16.365
20.301
26.387
29.81
28.061
25.477
24.199
21.791
17.59
12.673
6.927
1.038
-3.288
-6.189
-9.057
-13.18
-20.253
-29.454
-35.66
-36.899
-38.516
-43.068
-44.55
-39.325
-32.783
-29.894
-28.338
-24.635
-20.751
-21.11
-24.986
-26.506
-24.092
-23.396
-27.182
-30.466
-29.327
-26.576
-26.375
-28.734
-30.572
-30.437
-29.738
-27.36
-19.433
-7.688
3.345
17.458
39.967
67.762
100.566
143.937
192.804
237.758
283.431
332.157
366.979
374.384
357.552
315.991
242.689
143.043
32.106
-81.506
-193.929
-299.611
-401.475
-515.962
-644.724
-749.808
-788.327
-764.374
-716.696
-670.287
-625.532
-573.741
-505.033
-418.171
-327.744
-251.105
-193.954
-152.722
-121.089
-93.326
-67.603
-46.174
-32.678
-28.452
-28.44
-25.694
-21.886
-22.866
-24.645
-18.141
-5.555
1.419
-2.723
-11.548
-14.108
-5.492
8.774
20.599
29.071
35.928
37.174
29.265
17.546
10.552
12.508
23.578
39.07
50.339
53.439
51.974
48.65
42.192
34.23
31.402
37.829
49.172
56.932
57.578
54.51
51.679
49.64
48.148
48.192
50.674
56.254
65.181
74.083
76.967
73.233
69.103
68.871
71.623
76.121
81.22
83.782
83.272
84.847
91.521
98.242
100.252
101.131
105.721
111.728
114.33
113.573
113.663
117.566
123.102
126.214
128.292
133.127
137.812
138.415
139.775
145.6
149.316
148.278
151.128
160.746
168.842
172.198
175.467
179.407
181.94
184.614
188.566
192.919
198.966
206.558
211.086
211.627
213.384
218.233
222.678
225.164
227.252
230.282
234.974
240.047
242.055
240.588
238.653
236.703
234.149
233.653
235.399
234.298
228.846
222.42
215.117
206.077
198.595
192.325
181.12
165.346
151.779
140.032
125.787
113.012
106.147
99.624
89.387
81.085
76.829
70.132
59.049
48.805
41.48
34.942
28.124
20.878
13.837
9.259
7.362
5.213
2.211
0.947
1.241
-0.514
-5.648
-11.52
-14.998
-15.179
-13.719
-13.048
-14.24
-17.478
-22.203
-25.416
-24.34
-21.228
-20.51
-23.07
-27.075
-30.396
-30.795
-28.45
-27.271
-29.97
-34.404
-36.955
-36.87
-35.976
-35.719
-36.252
-37.9
-40.479
-41.732
-40.428
-38.931
-39.094
-39.516
-38.857
-37.79
-37.72
-39.106
-39.844
-37.8
-35.604
-37
-39.863
-40.116
-38.613
-37.651
-36.286
-33.747
-31.835
-31.801
-32.843
-33.115
-31.121
-28.702
-29.759
-33.18
-34.145
-33.082
-33.304
-33.073
-30.388
-28.331
-28.231
-27.472
-26.422
-26.945
-26.81
-24.681
-24.083
-26.295
-27.718
-26.839
-25.277
-22.886
-19.836
-19.922
-24.204
-26.413
-22.33
-17.98
-20.327
-26.025
-27.835
-25.791
-24.716
-26.763
-30.64
-33.058
-31.088
-26.503
-24.373
-26.086
-27.848
-25.905
-21.38
-19.472
-22.07
-24.529
-24.513
-26.411
-31.026
-32.172
-28.842
-28.016
-31.877
-34.511
-32.96
-31.01
-31.48
-33.138
-34.964
-36.529
-35.931
-33.998
-35.954
-41.628
-42.286
-35.751
-32.826
-38.901
-43.723
-39.711
-34.19
-34.154
-35.791
-35.258
-33.973
-32.26
-30.397
-30.84
-31.721
-28.412
-23.656
-23.547
-26.188
-26.197
-24.82
-26.462
-30.653
-33.108
-31.969
-30.21
-31.272
-33.808
-34.251
-32.818
-31.914
-31.239
-29.486
-27.654
-27.36
-28.487
-29.164
-27.605
-25.413
-26.002
-28.006
-26.98
-23.964
-23.718
-26.479
-29.086
-30.187
-29.601
-27.223
-24.308
-22.641
-22.817
-23.818
-23.259
-19.947
-15.971
-13.405
-12.091
-12.398
-13.555
-11.05
-4.675
-2.003
-4.754
-4.223
2.737
8.708
9.952
10.571
13.224
16.905
20.333
22.296
22.871
23.792
25.138
25.42
23.93
20.083
14.751
11.362
10.107
6.346
-1.394
-9.844
-17.619
-24.999
-30.12
-32.092
-33.227
-34.66
-35.087
-34.411
-33.227
-30.044
-24.033
-18.292
-16.301
-17.432
-18.619
-18.669
-19.132
-21.166
-23.034
-22.621
-21.43
-23.138
-28.293
-32.789
-32.981
-30.95
-31.078
-32.25
-29.363
-21.432
-11.328
0.673
16.751
37.894
64.889
98.393
135.651
173.386
214.061
262.252
315.533
362.016
384.829
373.042
331.021
268.363
185.283
82.594
-27.057
-133.931
-240.123
-349.148
-465.385
-589.358
-695.126
-743.504
-731.385
-691.879
-647.222
-598.444
-545.376
-483.441
-403.089
-313.934
-242.951
-199.333
-167.721
-135.162
-101.198
-69.63
-47.394
-39.291
-36.856
-27.778
-14.842
-9.777
-13.864
-17.3
-12.816
-2.904
4.216
3.716
-1.611
-5.804
-4.119
6.15
22.352
35.912
41.211
40.138
34.638
24.424
14.045
11.493
19.292
33.989
49.956
59.259
56.472
46.724
39.55
35.883
32.282
32.521
41.506
54.353
62.552
63.555
58.88
51.427
45.981
45.375
47.666
50.694
55.473
62.118
66.337
64.155
58.293
55.204
57.065
61.125
64.564
66.701
69.507
75.973
84.538
89.203
88.85
89.931
96.399
103.588
105.376
102.443
100.556
103.854
111.753
120.052
124.374
124.661
125.549
130.269
136.223
139.22
140.193
143.716
150.171
155.402
159.275
165.891
173.815
176.984
176.233
178.367
184.222
188.728
191.411
196.434
203.626
209.028
212.424
215.748
217.762
217.797
219.093
223.251
227.632
230.061
230.918
231.279
231.476
230.488
227.622
224.575
223.076
222.016
219.067
213.049
204.597
195.918
188.402
180.613
170.297
157.383
144.23
132.818
121.652
108.661
96.53
87.879
78.394
64.891
52.693
44.998
37.12
27.575
19.906
13.851
8.308
4.802
0.192
-9.49
-18.294
-19.892
-19.369
-22.084
-25.113
-27.379
-31.947
-36.625
-36.531
-33.105
-31.225
-32.857
-37.501
-42.828
-45.088
-43.793
-43.015
-44.918
-46.748
-46.302
-44.988
-43.742
-41.331
-38.367
-37.741
-39.74
-41.773
-43.218
-45.539
-48.173
-48.849
-47.189
-45.052
-44.247
-44.818
-44.809
-42.922
-41.238
-42.031
-43.504
-43.165
-42.611
-44.405
-47.21
-47.643
-45.201
-43.062
-43.819
-45.933
-46.779
-47.184
-48.423
-48.37
-46.212
-44.784
-43.818
-40.343
-37.015
-38.347
-41.445
-41.591
-40.511
-40.82
-40.912
-40.1
-40.218
-40.53
-38.588
-35.621
-34.954
-36.688
-38.376
-38.929
-39.001
-39.256
-39.563
-39.194
-38.279
-38.347
-39.381
-39.214
-38.728
-41.396
-45.075
-44.417
-41.789
-42.636
-43.913
-41.1
-38.132
-38.673
-39.294
-38.165
-37.853
-38.206
-37.614
-37.96
-40.065
-40.563
-38.162
-35.798
-35.038
-34.79
-34.458
-33.952
-32.882
-31.803
-32.273
-34.781
-36.879
-35.451
-32.323
-32.371
-34.543
-33.849
-31.573
-32.353
-35.273
-37.595
-39.871
-41.454
-40.065
-37.769
-38.895
-42.623
-44.332
-42.952
-41.871
-43.263
-45.369
-45.582
-43.92
-42.607
-42.811
-43.364
-43.498
-43.954
-44.085
-42.381
-40.446
-40.578
-40.754
-38.83
-37.552
-38.493
-37.981
-35.144
-34.492
-35.654
-32.295
-24.913
-21.164
-21.053
-16.959
-9.491
-7.281
-11.218
-14.073
-13.429
-12.211
-11.045
-9.026
-6.198
-2.105
2.241
4.227
5.639
10.208
14.845
15.052
14.39
16.615
17.909
16.431
16.569
17.992
14.786
7.11
0.602
-3.585
-7.989
-13.35
-20.429
-30.293
-39.748
-43.677
-42.469
-41.164
-42.485
-44.885
-45.655
-43.885
-41.355
-40.136
-39.975
-40.031
-40.663
-41.626
-42.07
-42.173
-41.905
-40.987
-40.531
-40.55
-39.046
-37.008
-37.621
-39.521
-39.794
-40.273
-40.821
-35.285
-23.679
-13.737
-4.217
13.692
38.982
66.803
101.718
144.635
185.917
225.596
274.484
328.229
364.898
368.746
340.366
287.337
212.904
115.388
0.479
-115.156
-220.409
-319.81
-425.032
-542.878
-660.235
-739.994
-755.057
-721.9
-676.848
-634.343
-588.805
-533.833
-463.291
-377.73
-296.884
-242.178
-208.734
-176.279
-138.193
-101.711
-73.341
-56.412
-49.819
-45.688
-37.926
-28.91
-23.582
-23.547
-25.276
-21.635
-12.159
-7.176
-12.561
-20.758
-22.87
-16.481
-2.623
12.53
21.098
24.81
27.859
22.524
4.147
-10.858
-5.983
11.604
26.638
35.932
41.025
40.158
34.268
27.199
20.66
17.44
22.827
36.281
48.939
53.746
52.373
49.699
46.737
42.476
39.177
41.392
49.883
58.839
61.425
58.448
56.584
56.968
55.479
54.701
60.279
67.483
69.296
70.625
77.046
82.739
83.858
86.311
91.551
93.796
93.401
95.019
97.076
97.582
100.064
104.546
106.673
108.361
114.482
122.446
127.205
129.187
130.562
132.498
137.475
146.191
154.026
156.857
157.536
161.554
168.704
174.305
177.096
179.727
183.14
187.242
193.49
200.451
203.575
203.765
206.189
209.859
210.808
212.013
217.003
221.102
220.453
219.321
220.825
222.466
223.296
223.591
220.723
215.067
211.445
209.023
201.735
190.037
179.879
172.237
163.515
152.511
140.988
130.483
120.862
111.136
101.367
92.178
82.803
72.278
61.36
52.287
46.604
40.484
27.791
13.817
10.824
14.618
10.376
0.649
-2.458
-2.194
-5.902
-8.183
-6.003
-7.028
-12.321
-14.416
-13.598
-15.442
-18.784
-21.21
-24.441
-26.588
-24.076
-21.269
-23.32
-25.967
-24.545
-22.755
-24.49
-27.9
-30.874
-33.16
-33.725
-32.736
-32.91
-34.596
-34.41
-31.757
-30.543
-31.773
-31.67
-29.291
-28.085
-28.895
-29.234
-28.687
-28.801
-29.803
-30.726
-30.849
-31.123
-33.464
-35.805
-33.379
-28.925
-30.584
-36.559
-37.189
-32.133
-28.675
-27.964
-27.986
-30.209
-32.906
-31.182
-27.766
-29.193
-32.869
-32.444
-30.38
-31.482
-32.366
-30.168
-30.573
-35.791
-38.648
-37.252
-38.567
-42.625
-41.603
-35.389
-31.283
-31.125
-31.502
-31.397
-31.412
-31.025
-30.474
-30.9
-32.087
-33.002
-33.171
-32.371
-31.185
-30.785
-29.949
-26.606
-23.844
-26.273
-30.834
-32.17
-32.546
-34.171
-32.273
-27.249
-27.399
-32.288
-33.091
-29.892
-29.131
-30.464
-31.215
-32.967
-35.835
-37.04
-36.195
-34.954
-34.283
-34.232
-34.004
-33.365
-33.248
-33.494
-33.741
-35.637
-39.028
-40.161
-38.207
-37.443
-39.994
-42.495
-41.581
-38.131
-34.642
-31.639
-29.337
-30.005
-33.94
-36.57
-35.634
-35.578
-38.668
-40.767
-41.143
-44.118
-47.692
-45.329
-39.68
-38.686
-40.955
-40.934
-41.267
-44.799
-45.662
-41.471
-39.729
-42.707
-43.282
-40.5
-40.257
-41.004
-37.759
-34.352
-35.086
-35.37
-32.669
-32.127
-34.792
-35.126
-31.572
-28.016
-26.783
-26.845
-26.243
-24.138
-21.503
-19.904
-20.292
-21.223
-18.157
-10.647
-6.234
-6.979
-3.39
6.995
13.838
14.782
17.879
21.998
20.181
16.048
14.923
12.205
5.635
0.786
-2.221
-7.951
-13.613
-15.258
-17.726
-24.854
-31.143
-32.469
-33.599
-38.783
-44.225
-44.151
-38.853
-34.465
-35.989
-40.369
-39.695
-33.925
-32.48
-38.293
-42.828
-42.426
-43.183
-46.011
-45.152
-41.513
-41.037
-43.743
-45.518
-44.951
-43.623
-43.673
-44.144
-40.015
-29.068
-14.839
0.937
20.204
43.323
72.504
112.758
159.399
201.296
242.476
293.549
341.522
361.361
350.66
320.528
267.743
184.755
79.912
-32.165
-145.242
-255.903
-359.212
-461.653
-579.573
-703.064
-783.961
-790.834
-749.901
-702.64
-657.678
-606.799
-547.984
-477.211
-392.558
-309.729
-246.831
-201.525
-162.331
-128.328
-103.282
-84.335
-67.908
-56.738
-52.467
-49.4
-43.995
-42.142
-47
-48.982
-39.794
-27.643
-26.103
-34.331
-39.396
-34.304
-23.937
-14.892
-8.426
-3.559
-0.609
-1.983
-10.937
-24.624
-31.265
-23.612
-8.646
4.989
16.011
21.006
15.178
4.768
-0.595
-2.241
-2.809
3.817
19.147
32.114
33.655
27.645
23.63
25.186
27.41
26.137
26.515
35.303
48.359
55.524
53.756
48.084
44.713
46.484
50.831
52.975
52.947
54.953
59.451
61.983
60.951
60.779
64.621
69.696
74.088
79.7
83.686
80.459
75.635
79.819
89.914
96.318
99.735
103.656
105.827
107.487
112.926
119.195
122.273
125.442
130.433
132.765
132.159
135.28
144.08
151.61
153.931
156.368
162.188
167.27
170.835
176.348
181.467
182.672
183.781
187.897
192.182
195.767
199.742
201.871
202.109
204.029
205.499
201.935
197.487
197.604
197.908
193.742
188.965
186.498
183.093
176.885
169.1
159.555
148.228
137.566
128.657
119.161
107.46
95.255
84.428
74.746
66.318
59.961
52.906
41.071
28.639
24.437
25.362
19.283
6.87
-0.042
-1.182
-5.994
-14.333
-20.228
-24.934
-30.259
-31.994
-29.586
-29.045
-31.804
-32.447
-29.525
-28.313
-30.754
-32.517
-32.638
-35.191
-39.059
-38.296
-34.035
-33.487
-36.999
-37.995
-35.369
-34.84
-37.99
-40.65
-42.083
-44.568
-45.746
-43.35
-42.1
-44.581
-45.339
-42.842
-43.222
-47.029
-47.878
-45.254
-44.339
-45.579
-45.662
-44.338
-42.857
-40.933
-39.622
-41.805
-46.407
-47.348
-42.756
-39.494
-41.594
-42.698
-39.264
-37.69
-38.513
-33.15
-23.575
-21.259
-24.6
-22.121
-14.108
-9.254
-7.769
-4.943
-2.594
-3.869
-4.433
0.332
6.017
7.104
6.83
9.28
11.117
10.476
12.261
17.301
19.336
16.846
15.081
15.777
16.013
15.557
16.679
18.927
19.878
19.474
20.198
23.224
26.149
26.078
24.233
24.466
27.415
30.075
31.185
32.584
34.597
34.707
32.764
32.8
36.141
38.024
35.908
34.198
35.216
34.943
32.758
33.432
36.593
37.57
37.464
39.201
39.468
36.125
33.991
34.874
34.294
32.229
32.761
33.696
31.254
29.359
31.522
33.514
32.578
31.848
32.173
30.577
26.342
21.274
16.696
13.378
10.858
7.299
3.472
2.568
2.773
-1.297
-6.995
-6.163
-0.62
0.002
-5.075
-8.34
-7.945
-8.07
-9.838
-11.411
-12.598
-13.637
-13.903
-14.132
-15.026
-14.326
-11.133
-9.949
-13.856
-18.475
-18.686
-15.825
-13.647
-12.348
-10.123
-7.251
-5.553
-4.881
-3
0.592
3.245
2.677
0.176
-0.886
1.003
4.24
6.6
7.164
6.302
6.47
10.845
17.86
22.643
26.255
33.182
39.69
39.288
36.122
37.371
40.331
39.981
37.675
33.715
25.142
15.684
12.953
13.633
7.687
-3.773
-12.961
-20.899
-29.219
-30.988
-26.648
-27.769
-34.563
-34.895
-27.957
-24.418
-26.328
-26.815
-24.581
-24.14
-25.8
-26.273
-26.448
-28.881
-30.232
-26.369
-21.234
-20.556
-22.57
-23.612
-24.718
-26.333
-26.008
-24.637
-24.879
-23.111
-13.3
2.767
18.728
34.271
55.757
89.365
134.377
181.308
223.674
268.238
318.238
357.299
369.358
356.842
323.349
261.905
171.555
64.194
-49.596
-164.597
-272.219
-368.553
-471.762
-599.093
-719.91
-777.257
-763.656
-722.284
-678.478
-628.107
-572.921
-514.377
-441.636
-357.385
-280.973
-219.227
-167.685
-128.931
-104.223
-84.783
-63.941
-45.209
-36.012
-36.137
-35.595
-32.02
-35.894
-44.012
-36.616
-15.488
-6.758
-17.75
-30.184
-33.882
-32.213
-24.658
-11.134
0.421
6.899
13.803
19.438
15.128
4.797
3.812
15.998
31.164
43.319
51.515
50.616
40.6
32.299
30.84
31.809
37.704
54.563
74.412
82.855
78.281
69.928
65.074
63.989
62.804
61.214
64.33
73.174
81.428
84.062
81.201
76.197
74.106
75.722
76.05
75.024
78.609
85.813
90.576
94.267
99.957
103.331
102.589
103.33
106.131
105.509
102.653
104.131
110.186
114.812
114.231
110.863
110.563
114.99
119.64
124.193
134.509
147.933
154.109
154.064
157.764
166.528
174.996
178.992
175.749
170.622
173.721
181.559
185.154
191.156
205.118
213.366
209.217
207.974
217.597
227.012
229.863
230.151
229.104
228.642
234.003
240.787
239.339
233.769
234.096
236.117
230.665
221.492
216.529
214.036
209.18
202.811
197.175
191.36
183.013
170.135
153.175
136.591
124.035
113.997
104.674
96.701
87.914
76.075
66.141
62.307
60.183
57.196
55.581
51.381
41.19
33.203
30.731
23.613
12.024
9.272
13.099
9.26
1.489
3.002
9.194
8.828
5.751
6.857
7.366
3.477
1.715
5.631
7.947
3.045
-3.25
-3.042
0.634
-1.375
-9.1
-14.552
-16.829
-20.551
-21.804
-15.203
-9.577
-15.475
-25.518
-26.606
-20.667
-16.675
-13.884
-8.475
-6.503
-13.916
-21.97
-20.164
-14.458
-13.916
-13.914
-11.733
-16.217
-25.638
-26.211
-20.71
-23.136
-28.999
-25.746
-17.156
-10.921
-5.191
-0.814
-2.431
-6.119
-5.728
-5.212
-10.767
-18.488
-20.273
-16.86
-14.979
-14.702
-12.005
-9.742
-11.426
-12.659
-12.075
-14.975
-18.221
-14.247
-8.91
-9.606
-8.441
-1.122
1.104
-4
-3.666
2.917
3.419
-2.653
-5.676
-4.999
-5.562
-6.409
-5.361
-3.854
-1.883
1.259
1.838
-2.83
-7.94
-8.537
-6.985
-7.559
-10.776
-14.997
-17.452
-16.598
-16.79
-21.868
-24.789
-18.247
-10.691
-13.215
-19.346
-17.178
-9.483
-5.068
-4.409
-5.368
-8.502
-11.447
-10.678
-8.036
-7.03
-7.885
-9.91
-12.291
-13.171
-13.269
-17.232
-27.032
-36.885
-39.379
-35.373
-31.499
-29.323
-26.131
-22.584
-19.561
-15.898
-15.678
-23.226
-31.366
-32.881
-34.508
-41.28
-43.933
-37.422
-30.957
-29.475
-27.861
-27.035
-31.56
-34.106
-26.447
-16.467
-13.536
-13.873
-14.326
-17.883
-21.308
-21.743
-27.789
-42.086
-51.647
-51.313
-51.033
-52.864
-48.843
-40.303
-34.626
-30.836
-26.071
-24.391
-27.488
-28.913
-26.02
-26.061
-31.975
-35.032
-31.275
-28.743
-29.54
-25.778
-18.015
-14.282
-12.83
-8.244
-5.336
-7.674
-6.562
4.053
16.953
23.791
24.566
23.305
22.768
21.912
17.721
10.824
3.451
-5.108
-12.369
-12.576
-10.148
-15.84
-27.046
-33.463
-37.585
-46.614
-55.169
-56.514
-54.911
-53.165
-48.401
-45.573
-51.658
-58.337
-53.888
-44.595
-43.21
-48.078
-51.416
-53.549
-55.476
-54.024
-52.091
-56.158
-63.319
-66.823
-66.765
-64.416
-59.412
-55.416
-54.972
-54.283
-50.139
-40.869
-23.23
1.085
27.528
60.058
102.376
146.626
190.208
241.529
292.699
320.301
321.526
309.679
278.625
212.704
117.763
10.292
-103.623
-218.194
-320.569
-411.096
-511.894
-633.261
-742.47
-793.186
-779.644
-735.678
-691.135
-651.846
-607.485
-544.232
-461.074
-373.769
-297.42
-236.814
-191.832
-157.295
-125.407
-96.818
-77.766
-68.342
-64.732
-64.056
-62.83
-61.825
-66.083
-71.482
-67.632
-56.976
-49.954
-46.502
-41.893
-37.808
-34.317
-27.653
-19.988
-15.651
-12.658
-10.119
-13.366
-23.512
-32.755
-33.29
-23.788
-9.332
2.186
7.597
9.777
9.557
4.773
-3.18
-9.707
-9.574
1.311
17.18
23.172
15.132
4.533
-0.938
-2.861
-1.202
4.128
9.907
16.152
22.203
21.787
16.737
17.85
23.244
22.408
20.394
27.072
33.966
31.701
30.084
35.933
38.234
32.754
30.174
33.366
37.719
45.45
53.225
50.258
44.47
53.064
67.051
68.615
66.8
74.701
81.668
79.513
79.063
84.667
89.566
96.498
110.476
122.576
124.698
123.636
126.561
130.314
132.115
135.029
139.204
140.78
141.038
144.786
150.245
152.687
154.919
161.35
167.924
170.65
173.97
179.15
179.434
175.497
176.267
181.174
182.389
179.653
175.827
170.658
166.179
161.708
150.237
134.422
126.961
127.582
124.101
113.783
102.091
91.186
82.537
76.879
69.12
55.709
41.287
29.432
16.965
3.141
-6.625
-11.153
-17.808
-30.635
-41.948
-43.432
-39.45
-39.534
-43.686
-46.104
-46.423
-47.435
-49.736
-54.007
-60.247
-65.169
-67.303
-69.488
-72.298
-72.947
-71.954
-72.645
-74.835
-76.346
-78.168
-80.813
-79.416
-70.925
-62.313
-61.706
-64.366
-59.952
-51.517
-49.591
-49.926
-42.2
-35.302
-42.397
-53.191
-53.776
-52.33
-58.023
-63.112
-61.595
-57.387
-52.617
-48.726
-49.584
-53.24
-53.883
-52.557
-53.948
-56.412
-54.547
-49.102
-46.789
-49.706
-52.253
-50.395
-46.466
-44.584
-48.33
-58.706
-68.214
-66.607
-56.795
-50.363
-47.975
-43.955
-42.096
-44.223
-40.235
-30.143
-29.456
-39.227
-43.939
-41.773
-42.555
-44.678
-43.036
-42.219
-43.522
-40.816
-36.409
-38.904
-45.159
-44.187
-37.016
-34.542
-37.662
-38.582
-38.146
-40.561
-39.859
-33.196
-30.835
-35.611
-36.171
-29.53
-24.498
-23.602
-23.06
-22.298
-21.249
-19.608
-21.006
-27.932
-36.821
-43.183
-44.341
-37.741
-24.946
-13.734
-9.52
-10.02
-11.408
-12.238
-11.627
-11.267
-15.808
-25.557
-34.131
-36.324
-34.01
-32.497
-32.11
-28.157
-22.846
-25.823
-35.411
-37.813
-31.647
-29.108
-31.376
-29.862
-26.351
-26.653
-25.693
-18.793
-13.307
-15.845
-21.929
-25.446
-27.043
-29.482
-32.249
-33.205
-32.117
-30.899
-31.011
-31.821
-32.406
-33.417
-35.212
-36.208
-35.534
-34.886
-35.491
-35.43
-31.655
-24.29
-18.573
-19.952
-26.854
-33.896
-39.967
-44.426
-42.823
-36.202
-32.033
-30.191
-24.212
-15.13
-8.054
-2.669
1.734
3.255
3.831
6.995
10.203
9.13
5.742
4.546
5.257
5.593
6.983
11.061
14.405
13.076
9.44
9.576
15.979
25.594
33.234
36.053
36.551
40.135
47.365
52.746
54.575
57.686
61.374
56.464
41.643
29.738
29.223
32.671
32.075
29.49
23.668
7.937
-10.272
-14.484
-7.089
-3.45
-4.2
-1.486
1.002
-2.488
-6.327
-4.508
-0.806
-0.12
-0.577
0.743
1.506
-1.133
-3.901
-1.317
6.504
14.256
16.877
12.824
5.477
1.191
2.184
3.825
3.65
7.032
16.942
27.886
38.109
55.063
83.34
120.062
160.422
198.291
231.72
270.828
323.034
372.703
393.789
378.685
338.963
280.643
196.973
91.238
-15.456
-112.542
-210.757
-314.699
-417.039
-518.704
-614.304
-671.209
-668.345
-633.409
-600.855
-565.758
-513.082
-450.041
-382.574
-305.807
-232.506
-184.629
-155.256
-120.594
-79.311
-46.768
-28.133
-19.594
-17.007
-13.79
-7.254
-4.515
-8.483
-8.767
2.218
16.384
22.151
19.406
15.076
12.759
14.054
21.224
32.015
40.514
44.74
45.021
38.852
25.33
11.125
7.782
21.151
43
59.364
66.016
66.367
62.817
60.385
63.352
64.276
57.531
56.15
69.569
82.731
82.113
77.337
78.229
77.992
70.83
63.926
66.454
78.14
89.452
91.722
87.163
84.209
85.39
87.243
88.316
90.165
93.437
97.314
101.052
104.182
106.389
108.186
110.848
114.994
119.776
123.341
123.894
122.292
123.288
129.515
135.667
136.42
136.615
142.734
150.402
152.82
153.13
156.998
163.155
168.971
174.579
179.255
183.305
189.567
196.551
199.303
199.404
202.62
208.523
212.699
214.516
216.249
219.124
221.987
222.351
221.004
222.976
229.511
234.442
233.281
230.38
232.08
236.976
239.543
239.869
240.663
239.497
234.813
231.438
230.067
223.45
210.49
198.503
188.124
174.467
161.539
155.252
149.443
137.576
124.863
115.537
106.289
96.98
89.281
79.918
69.285
63.609
61.683
55.404
43.726
33.507
30.151
32.758
34.263
28.345
18.526
13.257
12.621
9.952
4.176
-0.477
-4.271
-10.61
-16.962
-17.418
-13.411
-12.353
-16.218
-20.479
-22.77
-23.698
-22.325
-18.733
-16.64
-18.905
-24.769
-30.967
-32.973
-29.632
-25.05
-22.258
-22.203
-26.401
-29.894
-24.006
-14.426
-14.285
-19.315
-18.435
-17.906
-25.326
-29.645
-22.771
-16.74
-21.28
-28.15
-27.761
-22.199
-18.257
-18.787
-20.376
-17.555
-11.662
-10.113
-14.845
-20.413
-23.118
-23.307
-22.243
-22.036
-23.121
-22.812
-22.082
-25.075
-28.16
-24.476
-18.701
-19.663
-24.39
-25.176
-22.287
-19.531
-18.052
-18.272
-20.581
-24.588
-28.922
-30.11
-26.533
-23.779
-27.376
-33.023
-33.735
-30.118
-25.395
-20.516
-18.632
-21.895
-25.047
-23.871
-21.547
-19.068
-14.498
-12.699
-17.146
-19.633
-15.831
-14.403
-17.832
-17.982
-15.379
-16.751
-19.038
-18.275
-19.152
-22.061
-21.578
-20.212
-22.409
-23.449
-21.348
-23.06
-28.355
-28.889
-26.189
-27.989
-31.299
-29.84
-27.349
-27.494
-25.785
-20.848
-17.188
-15.264
-13.823
-15.822
-20.562
-21.753
-19.095
-17.781
-18.191
-18.98
-22.015
-25.909
-26.384
-24.243
-22.534
-21.528
-22.159
-25.33
-28.307
-29.256
-29.935
-31.092
-32.142
-33.737
-36.012
-38.62
-42.538
-46.649
-46.476
-41.133
-36.04
-35.113
-35.562
-33.678
-31.077
-30.398
-29.457
-26.77
-26.575
-30.314
-32.692
-32.149
-32.487
-33.085
-31.474
-30.245
-29.661
-25.099
-18.825
-18.004
-19.465
-14.843
-7.783
-7.924
-12.925
-12.342
-5.092
-0.622
-3.925
-8.302
-5.593
2.467
8.468
9.967
9.198
7.396
6.153
7.806
9.354
4.78
-4.321
-11.306
-15.591
-19.472
-21.247
-22.393
-29.565
-41.363
-47.392
-44.841
-42.461
-46.377
-52.803
-56.371
-57.207
-56.429
-53.506
-52.524
-58.763
-66.259
-64.978
-58.039
-54.665
-54.485
-52.829
-50.552
-50.898
-54.259
-57.582
-58.211
-58.771
-62.229
-64.485
-61.39
-55.857
-50.107
-41.86
-30.818
-17.211
2.75
30.175
59.094
85.558
114.346
151.796
197.105
245.164
290.395
320.129
317.601
281.93
226.124
151.785
53.785
-55.862
-159.966
-257.872
-354.522
-451.606
-553.776
-652.726
-715.92
-723.171
-695.213
-661.864
-627.616
-584.824
-531.582
-465
-385.162
-310.803
-262.42
-232.026
-197.789
-157.602
-122.842
-97.407
-81.616
-75.859
-72.773
-65.551
-60.063
-61.539
-61.24
-51.71
-40.947
-38.576
-42.165
-46.324
-49.768
-47.948
-36.164
-21.157
-12.434
-7.3
0.017
5.199
2.15
-7.017
-16.108
-19.323
-12.542
1.814
14.119
16.675
11.193
4.683
-0.38
-6.534
-10.524
-2.702
16.277
31.771
35.303
33.201
31.275
27.865
23.971
24.657
29.468
33.093
34.562
37.012
40.625
43.052
44.345
45.808
46.959
48.191
52.556
60.299
65.965
65.734
63.04
62.456
63.616
65.331
68.87
73.269
74.756
73.491
73.75
77.622
84.344
91.824
96.086
96.608
99.489
106.898
113.002
116.71
123.118
130.932
135.444
138.697
142.674
144.531
146.803
154.938
163.371
164.278
164.259
171.973
181.498
185.303
187.057
190.088
191.079
189.908
190.507
193.242
196.539
200.805
205.532
208.673
210.142
210.765
209.565
206.375
203.849
202.806
199.318
190.766
180.476
171.961
164.263
156.299
148.551
139.537
127.78
115.359
104.831
96.31
88.553
79.904
70.164
61.049
51.715
39.584
28.119
22.935
19.999
11.927
2.137
-2.607
-4.923
-8.314
-9.377
-8.221
-10.601
-15.907
-19.061
-20.941
-23.066
-22.056
-19.162
-20.336
-23.238
-22.036
-21.066
-25.05
-27.442
-24.762
-24.613
-29.081
-31.536
-31.987
-34.34
-34.993
-31.91
-31.906
-36.908
-39.529
-38.347
-40.414
-46.642
-49.773
-46.64
-41.665
-38.947
-37.285
-34.148
-31.739
-33.906
-37.637
-36.595
-32.388
-31.629
-34.64
-37.075
-37.88
-37.86
-35.642
-30.411
-25.179
-24.251
-28.124
-32.202
-32.24
-30.231
-30.939
-33.892
-34.853
-33.371
-32.274
-32.061
-31.292
-30.757
-33.333
-38.803
-41.844
-39.523
-36.642
-37.478
-39.453
-40.065
-39.759
-36.571
-29.354
-23.454
-23.573
-26.625
-27.252
-24.643
-22.447
-24.219
-27.384
-25.785
-21.219
-21.719
-26.625
-28.408
-27.254
-27.707
-27.465
-23.918
-22.012
-24.831
-27.284
-25.601
-22.631
-21.069
-20.492
-21.026
-22.738
-23.078
-20.492
-18.254
-19.854
-22.755
-21.852
-17.982
-17.163
-21.297
-25.479
-25.436
-22.837
-22.086
-24.361
-26.569
-27.035
-28.8
-32.855
-34.027
-29.611
-23.995
-20.57
-18.496
-17.951
-20.078
-23.245
-23.758
-19.86
-15.606
-17.446
-24.222
-28.815
-30.284
-32.384
-33.92
-32.507
-30.536
-30.228
-31.059
-32.045
-30.491
-24.704
-19.444
-19.365
-20.633
-18.189
-14.412
-13.62
-15.221
-16.493
-16.74
-16.896
-17.614
-18.449
-18.951
-19.909
-21.361
-20.448
-15.244
-9.673
-9.458
-13.981
-17.536
-16.977
-13.221
-9.128
-8.946
-13.168
-15.433
-13.721
-15.892
-23.398
-25.813
-21.377
-20.722
-24.544
-23.156
-17.887
-17.193
-18.049
-14.162
-11.107
-14.815
-19.18
-18.021
-14.753
-12.737
-10.379
-8.792
-10.187
-9.674
-2.923
3.495
3.467
2.79
6.775
10.612
11.329
13.248
16.626
16.634
14.726
17.135
22.844
24.932
23.266
24.883
31.201
36.186
38.42
42.606
48.427
50.54
48.612
45.842
41.092
32.858
25.602
22.618
18.996
10.323
0.738
-5.531
-11.058
-16.983
-19.975
-21.438
-24.868
-25.058
-17.277
-9.788
-10.072
-12.45
-11.877
-11.297
-10.987
-10.367
-14.834
-23.943
-26.705
-20.153
-14.391
-14.029
-13.627
-11.374
-9.937
-7.75
-3.613
-3.091
-9.112
-14.078
-9.99
1.066
13.199
26.453
44.234
67.706
97.921
135.831
177.533
219.361
264.804
313.436
351.757
368.351
364.673
342.223
295.852
222.662
124.896
9.975
-106.375
-208.957
-298.01
-389.316
-497.633
-612.446
-693.91
-712.922
-686.292
-649.312
-613.167
-570.707
-518.168
-454.264
-379.037
-300.762
-231.996
-179.405
-140.487
-107.995
-79.015
-57.011
-43.313
-35.207
-31.018
-28.155
-24.092
-23.096
-27.452
-25.922
-9.722
9.329
14.479
6.774
-0.134
2.416
11.876
19.903
23.214
27.48
35.211
37.306
27.031
13.253
8.792
15.085
26.919
40.904
51.936
53.414
46.924
40.615
36.6
31.911
29.282
34.017
43.867
51.8
54.278
52.352
49.298
47.632
46.918
47.423
52.624
62.688
71.594
75.312
75.818
75.565
75.072
75.222
76.652
78.678
80.865
83.053
84.511
85.81
88.587
91.105
89.661
86.185
85.791
86.724
84.355
82.243
86.378
94.757
102.737
109.304
113.585
115.386
117.826
122.026
125.072
126.377
128.592
132.556
137.174
141.795
145.644
148.181
150.424
152.944
154.833
157.094
162.214
168.827
173.837
179.315
188.465
197.884
202.594
203.607
204.549
207.069
211.399
215.799
217.574
217.546
218.274
218.655
217.214
215.894
214.195
208.966
203.791
204.646
206.184
198.638
184.205
171.524
162.03
153.183
145.393
138.85
131.709
123.592
115.339
106.222
95.443
84.969
77.324
70.839
61.255
49.261
40.578
36.253
31.406
25.998
24.689
24.473
17.467
5.855
-1.091
-2.155
-3.393
-7.08
-11.012
-13.888
-15.643
-16.287
-16.819
-18.314
-19.526
-18.409
-16.104
-15.912
-18.272
-20.7
-22.114
-23.188
-23.717
-22.836
-20.76
-18.963
-18.967
-20.962
-24.028
-27.036
-28.558
-28.542
-29.457
-31.314
-29.965
-25.345
-22.971
-24.289
-26.07
-27.816
-30.056
-31.339
-32.18
-33.591
-32.666
-28.053
-24.473
-25.582
-28.769
-30.428
-30.646
-30.634
-30.281
-30.632
-33.997
-38.879
-40.64
-38.348
-34.627
-31.683
-32.034
-35.426
-35.574
-30.475
-27.593
-29.127
-27.917
-23.794
-24.012
-26.97
-25.625
-22.441
-23.256
-24.744
-22.974
-23.311
-28.767
-32.063
-30.203
-30.208
-33.379
-33.828
-32.857
-33.763
-31.546
-25.438
-23.407
-25.069
-23.176
-19.825
-19.9
-20.472
-19.997
-21.238
-22.362
-20.512
-18.595
-19.509
-22.93
-28.341
-32.278
-29.416
-22.88
-21.873
-25.968
-26.369
-22.66
-22.161
-25.47
-27.561
-27.463
-26.331
-24.356
-23.752
-25.564
-25.854
-22.684
-20.085
-20.503
-21.548
-21.985
-23.38
-25.288
-24.975
-22.642
-21.864
-24.017
-26.563
-27.173
-26.145
-25.341
-26.414
-28.95
-30.571
-29.98
-28.83
-29.601
-31.914
-32.373
-29.626
-27.127
-27.598
-28.722
-28.105
-27.065
-26.695
-26.489
-27.484
-30.119
-31.11
-28.62
-26.037
-26.198
-27.8
-29.172
-29.721
-29.506
-30.52
-32.751
-30.84
-23.716
-20.26
-25.299
-31.412
-32.555
-31.666
-30.749
-28.213
-26.353
-28.568
-32.089
-32.812
-31.743
-30.907
-29.828
-29.084
-30.628
-33.534
-34.648
-32.608
-27.649
-20.873
-16.238
-16.986
-19.377
-18.612
-17.361
-18.275
-17.547
-15.173
-16.704
-19.787
-17.052
-10.743
-6.681
-2.551
3.161
4.987
2.956
4.141
8.093
8.675
8.3
12.58
17.56
18.19
18.988
23.94
28.914
31.561
34.436
35.958
32.556
28.123
27.81
26.958
19.641
11.406
9.386
9.043
4.496
-1.122
-6.337
-14.917
-23.807
-26.958
-28.233
-32.936
-37.184
-37.653
-37.117
-36.273
-33.893
-32.181
-33.039
-35.098
-36.854
-37.289
-35.77
-33.854
-33.262
-33.224
-33.327
-34.768
-36.361
-35.661
-34.614
-35.798
-35.997
-33.786
-35.343
-41.099
-40.197
-28.225
-13.05
1.446
18.809
40.598
68.944
106.984
148.706
186.924
228.945
280.568
326.13
347.381
343.366
316.634
264.172
188.179
94.829
-12.868
-127.707
-235.55
-329.116
-419.632
-526.623
-644.475
-730.055
-750.27
-724.197
-688.508
-651.881
-608.122
-555.309
-487.911
-404.429
-320.354
-250.606
-195.374
-152.458
-120.957
-94.07
-67.781
-48.632
-41.617
-41.282
-39.487
-34.769
-33.616
-40.569
-45.592
-34.898
-16.692
-13.244
-25.774
-33.94
-28.795
-19.998
-13.925
-6.907
2.906
11.383
13.504
6.477
-7.369
-18.086
-15.085
0.438
16.094
23.031
23.056
20.431
15.855
10.705
9.004
12.505
19.288
27.48
34.935
37.17
33.075
29.4
31.075
32.887
29.831
27.186
31.308
39.652
46.552
50.004
49.303
44.588
40.343
41.559
45.899
47.041
45.007
44.926
47.208
48.152
47.894
48.775
49.585
49.079
50.03
55.066
64.037
75.117
83.726
86.342
87.559
93.464
100.158
100.642
97.236
95.927
96.673
98.372
103.578
111.94
119.273
124.964
130.247
133.614
136.469
142.615
148.274
148.523
150.023
158.788
166.65
166.914
166.162
168.887
170.911
172.585
178.136
183.603
182.468
177.629
176.299
180.288
186.845
192.129
192.907
189.809
186.701
184.729
181.504
176.373
170.931
164.723
155.991
146.13
137.986
130.546
120.782
109.001
97.297
86.082
75.879
67.681
60.161
51.609
43.137
35.788
28.173
20.022
13.617
9.3
4.051
-2.879
-7.603
-8.174
-8.589
-12.37
-16.869
-17.641
-14.714
-11.12
-8.127
-5.919
-6.2
-8.747
-9.027
-5.282
-2.522
-4.464
-8.37
-10.815
-12.083
-13.727
-16.126
-18.721
-21.091
-23.593
-26.294
-27.197
-24.371
-20.858
-22.229
-27.417
-29.816
-28.457
-27.926
-28.247
-26.543
-25.674
-29.652
-34.66
-34.762
-31.591
-30.175
-30.615
-30.359
-29.532
-29.004
-27.499
-25.12
-25.725
-30.146
-32.174
-28.872
-26.597
-28.317
-28.136
-25.482
-27.127
-31.682
-31.302
-26.929
-24.883
-25.593
-27.345
-30.296
-31.821
-29.548
-27.589
-30.193
-34.868
-37.336
-36.397
-33.049
-30.047
-29.316
-28.905
-27.632
-27.976
-29.294
-27.639
-24.602
-24.53
-25.462
-24.022
-22.343
-22.11
-21.229
-19.758
-19.553
-19.135
-16.864
-15.367
-17.223
-20.312
-21.039
-19.432
-18.248
-18.349
-18.716
-19.613
-20.519
-18.74
-15.454
-15.417
-17.561
-17.002
-15.226
-16.114
-17.3
-15.603
-13.393
-13.11
-13.174
-12.831
-14.911
-20.716
-26.083
-26.585
-23.768
-21.304
-19.059
-16.315
-15.211
-16.064
-15.184
-11.521
-9.968
-13.262
-16.351
-15.713
-16.249
-20.125
-20.91
-17.81
-19.406
-25.849
-26.429
-20.171
-18.375
-22.726
-22.504
-16.638
-15.393
-18.802
-17.747
-14.131
-15.939
-19.125
-15.621
-9.41
-8.568
-12.007
-14.297
-14.456
-14.42
-14.981
-16.076
-17.948
-19.872
-19.276
-15.501
-12.895
-14.777
-17.268
-15.796
-12.479
-10.88
-10.799
-11.692
-13.244
-13.435
-12.318
-12.589
-14.254
-15.731
-17.058
-16.747
-13.389
-10.902
-12.453
-14.273
-13.17
-11.01
-9.013
-7.659
-9.49
-13.646
-14.232
-9.882
-6.476
-6.824
-7.15
-5.8
-4.977
-3.853
-0.668
1.891
2.776
5.687
10.254
12.566
14.908
20.211
22.343
17.378
14.407
20.17
25.889
23.718
21.877
29.224
39.212
42.625
42.071
42.32
41.012
37.915
38.169
40.68
38.224
30.445
23.202
18.016
13.187
9.302
5.979
0.334
-7.466
-13.624
-16.45
-17.856
-19.722
-21.608
-21.981
-20.614
-18.251
-14.78
-11.066
-10.439
-13.824
-17.319
-18.412
-19.188
-21.23
-22.827
-22.167
-20.045
-18.838
-18.999
-18.164
-15.833
-15.552
-19.33
-23.766
-23.97
-18.435
-9.172
2.278
17.263
35.87
55.545
79.269
114.114
156.467
197.208
241.353
295.685
344.566
367.257
363.28
338.417
289.339
214.522
119.009
8.565
-107.693
-216.794
-311.889
-402.116
-506.796
-623.369
-709.801
-730.175
-700.976
-659.639
-618.655
-576.044
-529.947
-469.53
-388.121
-301.827
-230.592
-177.348
-136.849
-104.591
-75.793
-50.169
-32.953
-25.995
-24.786
-23.731
-20.402
-17.446
-18.562
-19.617
-11.64
3.416
10.913
3.422
-7.358
-5.793
7.327
18.579
22.586
26.852
34.957
38.82
32.575
21.963
15.468
16.299
24.309
36.135
44.472
45.142
41.805
38.583
34.223
28.289
26.391
33.486
46.104
55.879
57.795
52.138
43.228
38.019
39.551
42.91
44.442
48.117
55.094
58.799
57.978
59.627
63.905
63.865
61.452
64.493
70.759
73.119
72.841
73.843
75.17
76.7
79.971
82.897
83.722
84.862
87.068
88.324
89.415
91.937
94.414
96.869
101.897
108.045
111.48
112.948
113.993
113.077
112.526
118.117
128.47
136.896
141.213
142.4
141.395
141.648
145.807
151.482
156.109
160.026
163.811
168.327
174.416
180.818
186.073
189.368
188.959
186.133
186.781
192.404
197.014
197.297
196.559
197.029
197.168
196.264
195.178
194.106
192.585
189.217
181.891
171.322
161.503
154.011
146.272
137.266
129.21
122.075
112.721
100.986
90.487
82.245
73.707
64.336
55.532
46.339
36.284
28.817
24.989
20.185
13.205
9.203
8.356
3.385
-6.457
-12.447
-12.459
-14.392
-19.386
-19.755
-16.254
-17.869
-24.274
-27.073
-25.631
-25.95
-28.684
-30.339
-31.222
-33.33
-34.635
-32.53
-29.494
-29.086
-30.203
-30.734
-31.879
-34.751
-37.535
-38.108
-36.934
-36.833
-39.144
-41.22
-40.872
-39.695
-38.828
-37.479
-36.431
-36.738
-37.805
-40.094
-43.687
-45.423
-44.081
-42.396
-40.635
-37.941
-37.659
-40.49
-40.587
-36.744
-35.115
-37.592
-40.658
-43.144
-44.238
-41.4
-37.17
-37.713
-42.085
-43.69
-41.415
-39.661
-39.835
-39.904
-40.086
-41.861
-42.784
-39.628
-35.587
-35.963
-38.833
-39.031
-36.882
-34.854
-32.938
-32.53
-35.405
-37.979
-36.659
-35.113
-36.909
-38.48
-36.948
-35.253
-34.999
-34.456
-34.182
-35.478
-36.835
-37.518
-37.754
-35.307
-30.828
-30.601
-35.102
-36.331
-33.095
-32.471
-33.317
-28.994
-24.522
-28.338
-34.385
-33.51
-29.422
-27.49
-25.699
-24.948
-28.791
-32.892
-31.854
-29.35
-29.39
-29.581
-29.733
-33.277
-38.177
-38.98
-35.937
-33.043
-31.832
-31.993
-32.877
-33.708
-34.87
-36.144
-35.532
-33.773
-34.236
-36.54
-37.572
-36.662
-34.56
-32.758
-33.824
-36.33
-35.352
-31.455
-29.698
-30.827
-32.628
-34.495
-35.239
-33.934
-33.093
-34.305
-35.305
-35.413
-36.456
-37.351
-35.915
-34.311
-35.287
-36.649
-35.478
-33.427
-33.362
-34.797
-35.537
-34.751
-33.155
-31.825
-30.693
-28.762
-27.224
-28.463
-30.106
-27.982
-25.247
-27.073
-29.96
-29.02
-26.897
-25.402
-22.416
-21.084
-25.006
-27.818
-24.026
-20.142
-22.094
-25.134
-24.538
-23.003
-23.355
-24.205
-24.013
-23.495
-23.947
-24.499
-22.071
-16.934
-14.72
-17.391
-19.018
-16.064
-12.656
-12.526
-14.491
-15.161
-11.092
-2.76
3.689
4.823
4.967
7.235
8.296
7.142
8.605
13.105
14.255
11.836
13.858
21.326
26.566
28.184
30.435
31.527
29.359
28.908
30.72
27.745
20.504
16.166
13.302
7.104
1.77
1.078
-1.103
-9.505
-19.232
-24.498
-26.198
-28.903
-34.507
-39.313
-38.718
-34.423
-32.176
-32.667
-31.143
-26.87
-25.536
-29.22
-32.406
-32.085
-31.606
-31.721
-29.933
-28.618
-31.509
-35.563
-36.842
-37.731
-39.91
-39.563
-36.016
-33.283
-29.228
-17.283
0.718
17.721
33.634
53.356
79.768
113.776
154.265
199.069
247.654
296.126
333.776
351.46
345.786
314.931
258.757
178.011
73.662
-44.055
-156.722
-255.858
-348.334
-447.439
-561.96
-674.925
-742.955
-744.087
-704.706
-659.79
-618.694
-575.786
-521.467
-447.431
-360.338
-278.196
-212.264
-164.517
-130.453
-99.692
-69.051
-47.521
-38.318
-33.759
-30.193
-28.931
-28.262
-27.5
-27.671
-24.432
-13.802
-2.51
-0.717
-7.825
-12.943
-7.807
4.72
16.201
23.476
29.067
33.053
31.524
23.656
15.571
14.878
23.118
36.014
48.838
57.387
57.898
52.149
47.065
44.327
39.478
34.587
38.736
52.327
63.935
65.77
61.578
57.656
55.397
54.476
55.688
58.715
62.602
67.477
71.259
70.229
66.956
68.01
72.34
74.379
75.244
77.985
80.45
82.385
86.667
90.596
90.336
89.69
92.39
95.501
97.275
99.653
102.234
104.14
107.724
113.881
120.235
125.927
131.076
133.465
132.621
133.001
137.72
144.317
149.654
153.322
156.181
160.232
166.637
171.83
172.358
172.018
175.612
181.242
186.646
193.589
200.383
201.891
199.698
200.667
205.753
210.418
213.23
215.855
218.751
222.109
225.449
225.238
220.597
218.181
222.142
226.188
224.582
220.808
218.105
213.696
207.164
202.065
197.256
187.865
174.22
160.72
148.947
138.683
130.391
122.323
112.073
101.975
94.856
87.707
78.424
71.299
67.551
61.224
50.283
40.009
33.974
31.179
28.787
23.611
17.071
15.075
16.866
14.536
7.254
2.183
1.43
0.892
-1.198
-3.346
-4.572
-5.424
-6.607
-6.811
-5.007
-4.892
-8.917
-11.226
-8.174
-6.835
-11.022
-13.751
-12.456
-12.67
-13.673
-10.811
-7.967
-9.585
-10.961
-9.278
-9.078
-11.054
-11.838
-13.339
-17.876
-20.919
-19.075
-16.294
-16.007
-16.007
-14.79
-14.971
-16.963
-16.688
-13.43
-11.968
-13.714
-15.021
-15.133
-15.821
-15.63
-13.671
-13.505
-16.144
-16.91
-13.959
-11.448
-11.789
-12.885
-13.389
-13.63
-13.163
-12.609
-13.683
-15.004
-14.238
-13.282
-14.161
-14.59
-13.577
-13.773
-15.218
-15.297
-14.301
-14.213
-14.87
-14.463
-11.97
-10.041
-12.455
-15.717
-13.141
-8.022
-7.204
-7.389
-4.931
-5.606
-10.791
-12.259
-8.171
-5.905
-7.877
-9.662
-9.904
-10.633
-10.415
-6.617
-2.806
-4.569
-9.44
-10.796
-8.827
-7.616
-6.341
-3.088
-1.405
-4.598
-8.933
-8.947
-5.336
-3.021
-4.091
-6.302
-7.435
-7.808
-8.291
-8.608
-8.166
-7.271
-7.472
-9.566
-10.953
-8.879
-5.938
-6.506
-9.762
-12.08
-12.326
-10.849
-8.897
-9.821
-14.207
-16.879
-15.662
-15.812
-19.351
-21.013
-19.362
-18.976
-20.311
-20.102
-19.65
-22.058
-25.028
-24.167
-20.127
-16.941
-15.604
-14.838
-16.024
-19.859
-21.462
-18.019
-15.77
-19.708
-24.143
-22.713
-19.024
-18.691
-19.215
-16.414
-13.41
-14.663
-17.755
-18.412
-17.18
-16.347
-16.35
-16.928
-17.56
-17.98
-19.206
-21.013
-21.028
-19.07
-16.944
-14.122
-10.869
-11.036
-14.527
-15.797
-14.277
-14.139
-14.179
-11.7
-10.8
-13.921
-14.873
-10.185
-5.424
-4.039
-2.463
0.608
2.098
2.9
7.067
12.254
11.588
5.215
0.618
2.116
8.04
15.88
23.175
27.095
28.546
31.457
35.321
36.069
34.196
32.475
28.701
20.661
12.787
9.69
9.43
7.156
0.14
-9.998
-17.585
-19.43
-19.711
-23.067
-27.276
-28.116
-26.458
-25.76
-26.232
-25.879
-25.114
-25.839
-27.618
-29.015
-30.199
-31.578
-33.976
-38.82
-42.983
-40.978
-37.114
-41.291
-50.333
-52.678
-49.514
-50.342
-54.82
-57.089
-56.374
-52.023
-41.79
-27.584
-11.809
6.633
28.8
57.16
94.822
137.092
177.714
220.884
269.414
312.248
336.171
334.201
302.866
245.842
169.511
72.525
-42.684
-159.554
-264.493
-359.496
-457.306
-571.341
-689.842
-767.112
-774.698
-739.009
-697.67
-656.454
-608.522
-552.356
-482.72
-398.582
-315.651
-249.731
-199.846
-158.765
-125.888
-102.585
-85.682
-72.054
-63.036
-58.833
-55.467
-52.539
-54.754
-60.51
-59.727
-48.041
-34.569
-31.837
-41.657
-52.301
-50.672
-37.183
-23.898
-18.11
-15.418
-10.56
-7.126
-11.491
-21.475
-27.398
-22.967
-9.999
5.208
15.665
17.484
13.208
8.257
4.45
1.362
1.603
8.514
19.646
27.927
29.067
24.636
19.239
16.517
16.576
17.936
21.56
28.242
34.163
35.963
35.983
36.573
36.44
35.975
37.174
38.783
40.528
46.336
54.915
58.028
55.391
56.493
63.107
67.681
69.579
73.857
78.008
77.611
76.696
79.656
84.447
89.332
94.226
97.151
98.482
101.382
104.465
104.681
105.87
112.953
122.206
127.571
130.805
136.711
143.954
147.891
148.249
149.003
153.408
161.444
169.957
174.803
175.077
175.309
180.414
188.333
192.727
192.961
194.13
197.901
201.338
202.843
202.935
202.143
201.24
200.771
200.451
200.231
199.698
196.96
191.224
184.82
179.626
173.857
165.497
156.034
147.464
138.812
128.996
119.537
111.047
101.242
89.826
80.176
72.766
63.627
52.749
45.563
42.716
38.361
31.041
25.018
20.59
15.066
10.337
8.072
4.255
-1.962
-4.558
-2.453
-2.046
-4.774
-5.826
-4.824
-5.284
-7.1
-9.045
-12.225
-15.406
-15.531
-14.622
-16.458
-18.483
-16.827
-13.947
-13.163
-13.426
-14.249
-17.297
-21.729
-24.203
-23.02
-20.393
-20.491
-23.454
-24.717
-23.197
-22.614
-23.375
-23.119
-23.156
-24.925
-26.21
-26.643
-27.697
-26.987
-23.2
-21.578
-24.913
-27.815
-26.297
-23.233
-21.791
-21.99
-23.52
-26.029
-27.813
-27.624
-26.62
-26.572
-27.514
-28.929
-30.858
-32.367
-32.638
-33.204
-34.287
-32.992
-30.075
-30.719
-35.073
-37.488
-35.667
-32.308
-30.169
-30.642
-33.597
-36.903
-38.058
-36.071
-32.847
-32.187
-34.053
-34.044
-32.328
-33.996
-37.822
-37.117
-32.559
-31.37
-35.165
-39.189
-40.472
-39.52
-37.816
-37.134
-37.648
-37.272
-35.826
-35.693
-36.813
-37.448
-38.696
-41.2
-42.106
-41.218
-42.368
-45.398
-46.444
-46.163
-47.841
-50.263
-50.789
-50.702
-51.685
-52.285
-51.545
-51.728
-54.594
-57.624
-56.884
-52.593
-49.039
-49.714
-54.117
-58.258
-58.678
-56.561
-55.269
-54.984
-54.232
-53.695
-53.959
-53.508
-52.019
-51.208
-51.264
-50.982
-51.477
-54.941
-59.416
-59.969
-56.366
-53.92
-54.872
-55.603
-54.154
-53.186
-53.928
-53.697
-50.881
-48.229
-48.813
-50.188
-47.593
-43.639
-45.786
-52.594
-55.036
-52.188
-51.311
-54.094
-56.486
-57.87
-59.642
-60.317
-58.571
-56.095
-54.961
-55.464
-56.549
-57.089
-56.449
-53.691
-49.242
-47.517
-51.073
-54.256
-52.224
-49.591
-49.972
-48.785
-44.91
-44.872
-50.227
-54.156
-52.184
-46.855
-43.114
-43.978
-47.949
-49.659
-46.252
-41.048
-37.747
-35.556
-33.188
-32.093
-32.323
-30.19
-24.072
-18.841
-19.249
-22.221
-22.127
-18.737
-13.597
-6.659
-0.983
0.151
1.017
6.255
11.058
9.998
6.404
4.146
0.789
-5.901
-13.471
-18.826
-22.234
-26.645
-32.916
-37.743
-39.918
-43.545
-50.012
-54.689
-55.943
-57.529
-59.768
-59.218
-56.744
-55.487
-54.335
-52.244
-52.169
-54.048
-53.189
-49.816
-49.972
-54.617
-57.392
-54.837
-51.209
-51.227
-53.578
-54.534
-54.082
-54.729
-56.565
-56.603
-52.526
-45.485
-36.621
-22.02
1.46
28.168
53.564
84.714
126.122
169.32
210.585
257.613
306.954
338.579
339.438
312.365
262.262
189.655
96.848
-8.348
-116.582
-221.586
-319.564
-413.092
-516.106
-630.852
-721.032
-746.274
-717.222
-674.775
-634.174
-588.43
-535.794
-472.785
-392.462
-304.995
-231.958
-180.241
-141.658
-108.081
-75.181
-44.266
-24.021
-19.422
-22
-19.669
-11.181
-4.97
-6.523
-10.136
-5.247
8.275
17.343
13.583
5.876
5.924
11.868
18.248
27.939
41.106
49.776
51.018
46.043
32.462
18.233
22.188
43.832
62.125
68.649
70.756
70.384
65.447
58.654
52.833
50.199
54.681
65.734
76.803
82.633
81.868
76.037
69.941
68.049
70.019
72.895
75.154
76.895
78.552
80.298
81.753
81.38
77.654
73.787
76.553
85.154
90.703
91.359
93.31
95.942
94.226
91.923
95.294
101.503
105.045
106.17
107.678
111.126
116.304
121.341
125.676
131.08
137.336
141.446
142.479
143.296
146.69
151.916
157.003
162.787
169.957
175.207
176.562
177.528
181.372
187.228
192.719
195.94
197.706
202.221
210.349
216.814
219.243
221.362
224.391
225.899
226.666
228.914
231.412
232.779
234.091
235.923
237.838
239.39
239.342
237.201
234.271
230.664
225.697
220.754
216.052
209.058
200.422
193.673
187.714
178.549
166.852
156.206
146.79
136.266
124.345
112.489
101.135
91.202
84.754
79.348
69.485
57.942
52.391
49.649
41.586
32.395
29.591
27.958
20.881
12.955
8.574
4.81
1.226
0.866
1.862
0.439
-1.876
-2.322
-2.833
-6.002
-9.083
-7.628
-3.59
-3.204
-6.672
-8.341
-7.566
-9.001
-12.074
-11.794
-9.203
-9.604
-12.869
-15.325
-16.317
-16.241
-15.426
-16.83
-20.72
-20.842
-15.419
-12.21
-14.666
-16.693
-15.331
-13.805
-12.987
-12.414
-13.808
-16.302
-16.885
-16.274
-16.129
-15.321
-14.121
-14.994
-17.945
-20.331
-19.605
-15.444
-11.758
-12.473
-14.506
-12.755
-9.13
-7.603
-7.088
-6.239
-6.165
-6.138
-5.44
-6.251
-8.614
-9.339
-8.107
-7.154
-5.895
-2.807
-0.187
-0.442
-0.742
1.488
2.412
-0.58
-2.515
-0.474
0.749
-1.017
-1.553
0.087
0.303
-0.644
0.71
3.661
4.457
2.909
2.144
3.169
4.306
4.877
5.213
4.272
1.284
-1.062
0.913
5.577
6.501
1.74
-2.903
-3.085
-1.073
0.532
1.916
2.514
1.043
-2.249
-5.548
-5.811
-2.269
0.306
-1.329
-2.806
-1.033
-0.14
-2.221
-3.472
-2.567
-2.616
-4.907
-7.572
-9.094
-9.65
-9.498
-8.095
-6.026
-5.557
-7.476
-10.024
-11.134
-9.796
-7.58
-8.351
-12.405
-14.637
-12.669
-10.443
-11.07
-13.09
-14.356
-14.135
-12.946
-12.803
-14.544
-15.88
-15.349
-14.202
-12.612
-9.968
-8.209
-8.967
-10.532
-10.636
-7.98
-2.986
0.155
-1.14
-2.352
-0.469
1.077
2.732
7.823
10.779
6.471
3.325
8.186
14.176
16.488
19.461
23.527
25.065
25.556
27.371
29.758
33.621
39.233
42.056
39.628
36.214
36.304
39.273
40.865
37.433
30.065
23.231
18.743
14.728
9.602
3.439
-2.956
-8.572
-12.843
-16.027
-19.14
-22.889
-25.73
-25.591
-23.946
-23.717
-24.46
-24.69
-25.394
-26.697
-26.641
-26.609
-30.504
-36.263
-37.355
-34.048
-32.774
-34.634
-36.011
-37.805
-41.623
-42.546
-38.49
-37.113
-41.016
-40.437
-31.213
-20.78
-10.126
7.199
28.731
49.724
76.969
114.3
151.013
181.713
217.817
267.889
320.936
352.674
344.892
301.893
240.413
162.849
62.049
-51.459
-156.777
-251.292
-348.571
-456.449
-567.119
-657.951
-704.811
-705.174
-679.477
-645.834
-607.174
-561.83
-508.478
-441.455
-360.087
-282.847
-232.895
-207.782
-181.695
-139.639
-93.842
-64.643
-56.496
-56.197
-50.511
-40.511
-34.939
-34.593
-32.552
-26.29
-19.637
-15.869
-15.947
-18.742
-19.733
-15.691
-9.178
-2.313
6.797
16.093
19.288
16.521
12.047
4.071
-7.294
-10.317
2.633
20.797
30.578
31.806
29.864
25.648
18.683
11.74
10.001
16.131
26.168
34.157
39.012
41.339
39.201
33.009
27.973
27.44
29.489
32.133
36.283
41.265
43.287
42.075
42.574
46.452
50.085
52.539
55.78
58.66
60.31
63.505
67.228
66.367
63.174
65.518
72.801
77.466
77.812
77.644
79.062
83.016
89.382
94.696
97.279
100.496
105.257
108.2
110.296
115.725
122.501
126.177
129.005
134.475
139.886
143.278
148.079
154.607
157.97
158.08
160.925
168.499
176.551
181.883
184.936
186.754
188.394
191.009
193.609
194.56
195.822
199.749
203.558
204.017
203.424
204.849
206.711
205.824
202.207
199.467
199.78
198.895
191.617
180.851
172.746
166.681
158.171
146.287
133.502
122.622
113.443
102.229
89.028
79.35
73.132
64.3
53.23
44.194
35.544
26.346
20.299
15.647
7.911
0.433
-3.888
-9.642
-16.646
-18.795
-18.851
-24.185
-31.041
-31.573
-28.741
-29.261
-31.506
-31.922
-33.316
-37.18
-37.903
-33.518
-31.292
-34.348
-35.842
-33.508
-33.793
-36.83
-35.712
-31.639
-31.362
-33.521
-33.623
-34.114
-37.271
-38.933
-36.792
-34.325
-33.753
-33.759
-33.75
-34.614
-36.222
-36.807
-35.463
-34.553
-36.287
-38.128
-37.417
-36.924
-38.838
-39.45
-36.37
-33.853
-35.832
-39.593
-40.052
-36.767
-33.592
-32.777
-32.976
-33.033
-34.017
-36.445
-37.847
-35.275
-29.875
-26.04
-26.11
-29.057
-32.714
-34.774
-34.753
-34.736
-35.152
-34.316
-33.78
-36.042
-37.55
-33.753
-28.337
-27.547
-29.857
-30.253
-29.008
-28.705
-29.109
-30.099
-32.491
-33.971
-32.176
-30.645
-33.12
-35.715
-33.419
-29.015
-27.642
-28.406
-28.194
-28.033
-29.509
-30.067
-27.485
-23.998
-21.936
-21.27
-22.547
-25.172
-25.25
-22.08
-21.044
-24.735
-28.692
-29.295
-28.654
-29.357
-30.072
-29.188
-28.793
-30.812
-32.438
-30.877
-28.683
-28.777
-29.602
-29.61
-29.748
-29.424
-27.272
-25.591
-27.434
-30.881
-31.392
-28.984
-28.964
-33.617
-37.332
-35.5
-32.754
-34.044
-35.33
-32.854
-31.956
-36.691
-40.955
-39.318
-36.431
-37.066
-37.655
-35.688
-35.689
-38.935
-39.579
-35.638
-32.075
-31.683
-32.984
-35.219
-37.671
-37.898
-35.741
-34.573
-35.775
-36.269
-33.335
-28.806
-26.81
-28.283
-29.511
-27.363
-23.723
-21.877
-21.504
-20.838
-20.015
-18.966
-16.115
-11.841
-9.17
-8.959
-8.443
-6.268
-4.248
-2.464
1.553
7.648
12.973
16.293
17.732
17.687
18.185
20.342
21.188
17.774
11.359
4.265
-2.844
-8.991
-13.574
-19.194
-28.024
-36.969
-42.47
-46.251
-50.511
-53.079
-52.176
-50.135
-49.568
-50.038
-49.232
-45.953
-42.106
-40.456
-40.987
-42.056
-42.829
-42.877
-43.133
-46.128
-51.243
-53.915
-52.701
-51.274
-52.03
-53.501
-54.501
-56.159
-58.252
-56.622
-48.483
-37.537
-26.965
-12.417
9.801
36.894
68.329
106.3
146.421
185.421
230.571
282.233
321.946
334.155
320.85
286.545
228.893
146.426
43.527
-69.094
-177.865
-276.322
-369.771
-470.959
-587.407
-699.202
-763.207
-762.254
-726.468
-687.381
-646.54
-598.44
-542.809
-473.337
-388.644
-306.121
-243.301
-199.328
-163.638
-128.872
-95.086
-69.782
-59.077
-57.868
-56.293
-52.294
-50.239
-51.772
-53.242
-49.158
-38.058
-27.097
-25.789
-32.642
-35.957
-30.055
-20.723
-12.859
-4.099
6.051
10.619
4.069
-8.63
-17.198
-17.165
-10.486
0.791
13.85
22.461
23.041
18.919
13.617
7.099
1.97
4.398
15.391
27.938
34.795
34.691
30.552
25.661
22.704
23.186
25.891
29.05
34.234
42.464
48.587
47.736
43.196
40.421
40.385
43.142
48.562
52.938
53.368
52.5
53.813
57.314
61.147
63.319
63.721
64.929
67.67
69.36
70.144
73.378
78.391
81.116
82.466
87.134
93.863
96.719
96.047
97.286
100.561
103.194
107.603
115.189
120.903
123.214
128.018
136.4
141.283
140.463
140.988
147.326
155.217
159.908
162.211
164.155
165.551
167.114
171.229
176.981
179.645
178.572
179.501
184.677
188.647
188.548
188.592
190.315
189.689
186.387
184.43
183.472
179.973
174.163
167.193
157.644
146.578
137.331
128.837
118.448
107.907
99.091
90.636
81.959
73.525
64.84
56.37
48.567
39.69
30.184
24.036
21.385
17.263
10.15
4.029
0.771
-2.344
-6.501
-9.36
-10.539
-12.671
-15.877
-17.871
-19.211
-21.354
-22.483
-22.244
-24.313
-28.764
-31.084
-31.065
-32.106
-33.577
-33.357
-32.666
-32.689
-32.908
-33.545
-34.197
-33.412
-32.28
-33.176
-35.237
-36.216
-36.47
-37.205
-37.993
-38.653
-40.015
-41.27
-40.741
-39.759
-40.58
-41.749
-41.628
-42.367
-44.291
-43.624
-40.419
-39.137
-39.48
-37.436
-34.729
-36.395
-40.471
-40.22
-35.94
-35.034
-39.284
-41.931
-39.885
-37.838
-37.489
-35.227
-31.933
-31.824
-33.485
-34.139
-35.427
-35.961
-31.332
-25.76
-27.204
-32.392
-33.131
-30.57
-29.97
-31.278
-32.705
-33.578
-32.65
-31.238
-32.46
-34.177
-32.756
-31.067
-31.817
-31.499
-28.884
-27.559
-27.765
-27.234
-26.806
-27.314
-27.493
-27.745
-29.04
-29.558
-27.778
-25.386
-24.462
-25.364
-27.157
-27.669
-25.694
-23.688
-24.29
-25.845
-25.594
-24.004
-22.937
-23.155
-24.643
-26.887
-28.94
-29.583
-27.513
-23.347
-20.475
-20.873
-22.444
-23.408
-24.74
-25.562
-23.275
-20.61
-23.001
-28.003
-28.592
-25.366
-23.881
-24.183
-23.148
-21.707
-22.49
-24.879
-26.34
-26.066
-25.401
-25.589
-26.677
-28.351
-29.839
-29.666
-27.374
-24.153
-21.071
-18.771
-18.639
-21.693
-25.903
-27.102
-24.434
-22.423
-24.377
-27.242
-27.56
-27.246
-27.766
-25.771
-20.511
-16.778
-16.227
-15.8
-15.1
-15.169
-14.214
-12.163
-11.352
-10.407
-7.243
-4.585
-4.177
-2.931
0.772
4.811
7.529
8.945
10.019
12.154
15.511
19.499
24.525
29.644
31.743
31.598
34.595
40.551
42.138
37.762
33.58
30.888
26.287
21.725
19.728
16.839
12.199
9.219
5.649
-1.717
-7.646
-8.986
-11.877
-18.065
-21.352
-20.996
-20.916
-19.798
-16.361
-14.655
-15.545
-14.873
-12.552
-12.189
-13.416
-13.651
-13.678
-14.784
-15.377
-14.987
-15.57
-16.947
-17.463
-17.401
-16.893
-15.913
-16.277
-16.19
-9.723
2.608
15.56
31.105
53.234
79.413
110.231
150.944
196.952
239.294
281.671
328.741
367.419
379.828
362.522
320.808
256.076
167.081
59.223
-53.804
-160.356
-258.325
-354.501
-463.127
-587.3
-692.441
-733.345
-713.781
-675.751
-638.845
-595.569
-542.732
-479.404
-401.596
-317.643
-243.847
-185.747
-140.983
-107.434
-80.023
-54.558
-34.591
-23.657
-17.886
-13.288
-11.155
-12.607
-15.099
-14.365
-6.32
7.556
16.118
10.551
-0.655
-1.902
8.305
19.987
28.468
35.81
42.425
45.815
43.116
33.608
22.752
20.283
29.889
44.958
56.835
61.945
60.431
54.648
48.884
45.589
44.664
48.25
58.982
72.748
81.317
81.69
77.341
73.265
72.793
75.626
79.105
83.078
89.095
94.962
97.083
96.342
95.379
94.512
94.412
96.572
100.102
103.716
108.155
112.775
114.735
113.512
112.517
115.6
121.988
125.687
123.629
120.925
122.589
126.739
130.516
134.02
136.987
139.96
145.347
151.027
151.552
149.057
150.889
157.023
162.429
166.828
171.699
175.569
178.207
181.696
186.355
190.622
193.354
195.291
198.923
204.155
206.936
206.465
207.234
210.669
213.202
214.03
216.755
222.458
226.962
227.121
225.872
227.012
228.828
228.282
226.581
225.438
223.434
219.379
214.09
207.985
201.115
194.343
187.085
176.387
161.826
148.37
140.119
134.239
125.854
115.433
106
97.084
87.344
79.075
73.935
68.241
58.695
48.639
42.869
40.744
38.893
35.497
29.701
22.312
16.705
14.614
13.907
13.139
13.525
14.698
13.726
10.126
7.364
7.35
7.575
6.05
4.687
4.647
3.269
0.037
-0.393
3.07
4.112
0.175
-2.69
-1.313
-0.172
-1.877
-3.652
-3.594
-2.804
-2.619
-3.183
-3.433
-2.583
-1.531
-0.977
-0.232
0.64
0.923
1.236
2.068
2.499
2.396
2.399
1.826
0.294
-0.534
0.118
0.091
-2.345
-4.992
-4.13
0.105
4.106
6.436
8.28
9.354
8.831
7.796
7.162
7.031
8.18
10.223
11.413
11.933
12.731
13.092
13.641
16.609
20.655
21.904
20.336
19.139
19.467
20.773
23.298
26.063
26.306
24.71
25.995
30.746
33.298
31.028
28.242
28.461
30.212
31.777
33.567
35.124
34.905
33.653
34.182
37.187
40.215
40.896
38.88
35.766
34.648
36.901
39.663
40.182
40.172
42.265
45.582
47.149
45.983
44.914
46.709
49.293
49.805
49.935
50.414
47.84
43.294
42.813
46.111
47.449
45.993
44.23
42.394
41.19
41.824
42.519
41.878
41.35
40.872
38.834
36.478
36.307
37.538
36.833
32.749
27.761
24.709
22.837
20.586
18.903
17.721
14.938
11.371
9.453
8.113
6.132
5.361
5.354
2.929
-0.637
-1.205
0.139
-0.633
-2.758
-3.275
-4.361
-9.884
-16.681
-18.229
-15.263
-12.967
-11.594
-9.995
-10.576
-12.516
-11.652
-9.836
-10.527
-10.108
-7.003
-7.185
-11.129
-12.061
-10.542
-12.573
-15.211
-11.242
-3.83
-1.643
-3.446
-1.156
4.708
7.099
7.128
10.435
13.794
12.011
9.388
9.519
6.47
-2.598
-10.664
-14.179
-19.388
-30.352
-41.805
-48.61
-53.422
-59.045
-61.807
-60.303
-60.948
-66.429
-69.947
-67.837
-65.409
-65.905
-66.25
-65.478
-66.179
-68.313
-69.89
-70.802
-71.317
-71.12
-71.101
-72.126
-73.343
-73.945
-74.46
-75.889
-78.513
-81.102
-82.392
-82.359
-79.242
-69.893
-55.932
-41.479
-24.939
-2.571
25.315
59.041
99.646
143.31
188.169
237.243
283.15
307.772
303.885
277.516
230.515
158.79
63.101
-48.348
-163.726
-272.501
-372.047
-472.588
-588.535
-710.667
-796.342
-813.485
-780.975
-737.607
-695.256
-647.681
-592.847
-526.747
-444.768
-357.668
-284.859
-233.707
-197.266
-165.729
-135.156
-109.504
-94.49
-89.625
-88.732
-86.712
-84.057
-84.727
-88.118
-85.9
-72.908
-57.791
-54.053
-62.386
-69.866
-66.219
-54.706
-45.15
-40.185
-34.513
-27.975
-29.042
-40.083
-50.752
-52.541
-47.263
-37.241
-22.62
-10.261
-8.785
-15.222
-20.843
-24.978
-30.183
-31.984
-24.743
-11.049
0.489
2.619
-4.453
-12.534
-15.158
-14.428
-13.031
-8.614
-1.155
4.883
7.536
7.849
6.798
6.571
8.692
10.931
11.942
14.064
17.474
19.11
19.287
21.772
26.876
30.76
31.785
32.851
36.436
40.934
44.225
47.431
51.63
54.871
56.241
58.029
61.199
64.549
68.581
73.706
77.068
77.671
80.278
88.2
96.946
100.769
101.801
105.704
110.652
111.208
111.322
118.465
128.075
131.59
132.611
137.722
143.526
146.224
148.518
150.969
152.496
156.596
163.5
166.428
164.132
162.914
164.32
165.157
165.586
166.154
164.378
159.927
154.945
149.398
142.967
137.022
130.608
121.588
111.923
103.645
93.855
81.326
69.89
60.546
50.84
41.712
34.215
25.597
16.275
9.863
4.675
-2.17
-7.86
-11.743
-17.805
-24.168
-26.312
-28.423
-35.024
-40.529
-40.541
-40.347
-44.07
-48.53
-50.695
-51.322
-51.77
-52.414
-53.056
-53.606
-54.215
-54.335
-53.394
-52.432
-52.713
-53.695
-54.14
-54.161
-54.86
-56.06
-56.367
-56.191
-56.841
-56.428
-52.952
-49.969
-51.329
-53.759
-52.869
-51.202
-52.479
-54.293
-53.767
-53.328
-54.75
-55.178
-52.983
-50.211
-48.698
-48.942
-49.987
-49.437
-47.676
-47.649
-48.556
-48.247
-48.949
-51.431
-51.629
-49.231
-48.477
-49.146
-47.807
-45.486
-45
-44.653
-42.48
-42.194
-45.873
-47.183
-42.612
-38.939
-40.369
-43.352
-46.494
-48.729
-45.227
-38.494
-37.823
-42.311
-43.439
-41.259
-40.804
-40.979
-39.164
-37.375
-37.86
-39.879
-41.467
-40.534
-37.098
-34.412
-34.048
-33.856
-33.442
-34.397
-34.7
-31.642
-28.382
-29.339
-32.447
-33.115
-31.981
-31.818
-30.908
-27.46
-25.777
-28.93
-31.52
-28.968
-25.99
-27.413
-29.921
-29.946
-29.53
-29.579
-28.314
-27.659
-29.554
-29.618
-25.758
-24.231
-27.904
-30.679
-29.172
-27.276
-27.757
-29.302
-30.094
-29.17
-27.714
-28.434
-30.304
-29.486
-26.899
-26.194
-25.885
-23.308
-21.828
-24.873
-28.957
-29.8
-28.583
-27.845
-28.16
-30.098
-32.933
-33.228
-29.996
-27.234
-27.65
-28.521
-26.528
-23.126
-22.137
-23.957
-26.159
-27.968
-28.782
-26.178
-21.51
-20.41
-23.162
-24.714
-24.351
-23.539
-20.256
-15.511
-13.879
-14.211
-14.593
-18.684
-22.755
-16.388
-4.921
-2.531
-5.368
-3.099
-1.296
-4.447
-3.02
4.282
6.334
3.509
5.631
10.827
12.149
13.984
22.005
30.286
32.486
32.671
35.471
37.597
36.057
34.12
34.155
33.37
29.069
21.817
13.795
7.213
2.316
-2.991
-9.772
-16.588
-21.814
-25.021
-26.523
-26.884
-26.854
-26.918
-25.841
-22.45
-20.039
-21.6
-22.107
-18.543
-19.201
-25.929
-25.948
-17.408
-14.223
-18.125
-20.202
-22.507
-26.267
-22.355
-14.936
-19.588
-31.217
-32.193
-24.51
-19.085
-11.858
2.276
15.763
26.036
43.102
72.433
109.285
148.072
186.042
224.928
270.394
319.743
356.169
364.686
344.811
301.954
236.829
148.641
42.346
-71.668
-182.838
-285.018
-383.135
-493.129
-616.099
-715.779
-752.237
-732.088
-692.293
-650.693
-604.554
-552.243
-489.486
-410.295
-324.371
-250.853
-196.715
-156.903
-123.732
-89.995
-56.825
-34.647
-27.267
-26.363
-24.106
-19.833
-17.214
-19.124
-20.869
-15.211
-6.642
-5.484
-10.154
-12.263
-10.009
-3.703
7.11
17.518
23.902
30.345
35.643
30.556
16.914
8.396
9.673
15.808
26.892
42.462
51.806
48.06
39.595
35.315
33.34
31.357
33.432
41.937
52.397
58.117
56.445
51.11
47.758
46.836
45.47
45.775
52.674
63.627
70.712
71.861
70.307
67.397
64.849
66.446
71.189
73.97
74.393
75.715
78.672
82.628
86.033
85.9
84.535
88.614
96.287
99.526
98.777
99.912
104.222
111.116
118.27
120.008
117.723
119.629
124.555
125.861
127.026
132.889
138.888
142.491
147.474
153.945
159.269
163.021
164.987
167.152
172.805
178.708
180.819
184.392
193.26
200.399
201.73
203.294
207.34
209.316
210.696
216.091
220.451
217.516
213.486
215.623
219.197
219.164
220.091
224.604
226.227
220.475
212.189
207.232
204.01
197.39
187.058
176.953
167.909
156.999
144.412
134.379
128.271
122.046
111.465
97.889
87.709
83.661
79.634
70.178
59.053
50.921
43.905
36.652
31.675
28.272
23.288
18.678
17.593
16.832
13.008
9.068
6.636
2.016
-4.519
-7.136
-4.791
-2.579
-3.818
-8.044
-12.686
-13.756
-9.955
-4.71
-1.295
-0.917
-4.693
-10.51
-11.95
-6.934
-1.924
-2.728
-6.81
-8.694
-8.115
-8.316
-9.997
-12.029
-14.618
-16.917
-16.109
-12.671
-11.046
-12.662
-13.848
-12.324
-10.902
-12.271
-13.959
-13.151
-12.68
-14.719
-14.2
-9.004
-7.418
-12.943
-15.475
-9.96
-5.798
-8.36
-11.422
-12.055
-13.599
-15.321
-14.709
-14.457
-16.543
-17.587
-16.812
-18.355
-21.359
-20.556
-18.399
-20.975
-24.535
-23.005
-20.427
-21.719
-24.175
-25.202
-24.818
-22.607
-21.534
-25.494
-30.425
-29.537
-24.65
-22.632
-24.669
-25.916
-24.395
-24.25
-27.362
-29.224
-28.007
-27.212
-26.784
-24.751
-24.404
-26.701
-26.114
-23.18
-23.876
-25.426
-23.708
-25.173
-31.311
-31.244
-23.997
-21.697
-25.779
-27.04
-24.909
-24.365
-23.824
-21.127
-20.234
-23.614
-27.864
-30.421
-32.247
-33.371
-33.418
-34.599
-37.522
-39.221
-39.772
-41.748
-42.289
-37.811
-32.673
-31.577
-32.437
-33.789
-36.156
-35.681
-30.377
-26.84
-29.377
-32.663
-32.748
-33.096
-35.014
-34.275
-30.501
-29.249
-32.112
-33.322
-29.36
-25.591
-27.975
-32.463
-31.701
-28.946
-31.739
-35.962
-33.48
-28.454
-28.118
-29.632
-30.436
-33.741
-36.793
-34.563
-32.033
-33.672
-33.621
-29.553
-27.285
-26.605
-22.391
-17.054
-15.754
-16.929
-17.125
-15.889
-13.11
-9.798
-9.056
-10.791
-10.781
-7.193
-2.141
2.939
8.505
14.102
16.904
14.392
9.741
10.535
17.497
21.581
18.009
12.02
6.632
0.397
-2.883
-0.732
-2.089
-13.126
-25.429
-31.881
-37.182
-43.792
-45.794
-42.325
-40.913
-43.773
-44.574
-41.496
-39.617
-38.564
-34.005
-30.588
-34.401
-38.455
-35.6
-33.558
-39.201
-44.692
-42.818
-39.253
-40.862
-45.138
-47.014
-47.166
-48.146
-48.338
-45.718
-42.239
-39.027
-32.81
-20.485
-2.241
20.045
44.406
71.068
103.261
142.234
184.404
227.453
273.752
320.9
353.116
352.525
318.249
261.675
185.267
86.05
-24.302
-128.902
-228.45
-331.858
-439.869
-551.387
-657.574
-727.347
-736.835
-705.961
-669.496
-632.201
-583.375
-524.021
-454.367
-370.276
-287.02
-229.631
-195.764
-162.212
-121.218
-83.172
-57.292
-46.007
-44.205
-40.89
-31.962
-24.789
-25.202
-29.321
-29.043
-20.309
-8.088
-3.169
-10.094
-20.318
-21.284
-10.414
3.994
14.373
20.415
23.984
24.127
19.012
9.697
1.759
2.983
15.97
32.945
42.552
42.237
38.277
33.691
25.763
17.129
16.532
25
34.328
40.816
46.465
48.595
44.032
38.868
39.572
42.888
45.291
49.63
55.7
58.538
58.316
59.5
61.839
61.594
59.288
59.891
65.122
70.238
72.537
76.501
82.766
83.903
80.711
84.289
94.304
98.535
95.846
95.301
98.284
101.851
107.457
113.919
116.946
118.396
122.208
126.715
130.039
133.4
136.79
140.647
147.337
155.088
159.364
161.11
163.546
165.646
167.853
174.656
184.727
190.895
193.304
198.29
204.375
205.222
203.774
207.311
213.437
215.616
215.303
216.732
218.896
220.701
224.211
228.676
229.765
226.156
222.062
221.92
222.942
217.864
207.829
200.884
195.432
184.434
172.891
166.809
157.532
141.333
130.819
128.185
119.389
103.687
93.593
87.863
77.278
66.088
61.239
56.096
44.406
33.437
29.409
26.521
20.015
14.172
11.614
9.338
6.659
4.873
2.154
-2.378
-5.465
-5.821
-6.641
-9.231
-10.651
-10.216
-11.926
-16.612
-18.806
-16.201
-13.547
-13.645
-14.825
-17.301
-20.859
-20.61
-15.45
-12.931
-16.897
-20.301
-18.065
-15.473
-15.991
-14.68
-11.639
-14.07
-18.664
-15.368
-10.131
-14.796
-21.05
-16.534
-10.38
-12.817
-14.674
-9.551
-6.455
-8.52
-8.414
-6.731
-10.172
-15.999
-16.693
-12.97
-10.679
-12.15
-16.041
-19.244
-18.624
-15.145
-12.552
-11.618
-11.937
-14.255
-15.195
-10.737
-6.5
-9.005
-12.471
-10.817
-9.345
-11.228
-10.776
-6.897
-4.777
-4.996
-5.099
-5.617
-7.026
-8.025
-7.872
-6.703
-6.248
-7.984
-8.591
-5.331
-3.029
-4.483
-3.474
2.046
4.363
0.528
-3.3
-3.946
-4.069
-4.743
-4.841
-4.626
-4.8
-4.84
-3.875
-1.55
1.436
3.384
2.975
0.09
-3.402
-3.784
-1.193
-1.965
-7.271
-8.189
-1.581
3.177
0.985
-2.352
-3.285
-4.145
-5.415
-6.115
-6.989
-7.827
-7.462
-6.9
-7.991
-10.583
-12.803
-13.113
-12.212
-11.804
-11.596
-10.918
-11.421
-13.636
-14.605
-12.605
-10.018
-9.906
-12.574
-14.918
-13.482
-10.189
-10.377
-12.759
-10.82
-5.578
-3.776
-4.972
-4.622
-3.963
-4.756
-3.796
0.077
3.378
3.42
-0.197
-4.458
-2.781
4.759
8.432
6.101
7.35
13.348
16.144
18.412
26.681
33.423
31.446
28.981
31.877
33.876
33.078
33.011
29.429
19.088
11.105
11.591
12.322
6.393
-1.626
-7.478
-13.793
-21.605
-26.85
-27.341
-26.577
-28.796
-32.927
-34.017
-30.795
-28.138
-29.525
-30.877
-27.07
-21.99
-24.005
-32.189
-37.402
-37.096
-37.1
-38.96
-38.373
-35.852
-36.592
-40.156
-41.152
-39.17
-38.479
-39.297
-37.638
-32.462
-26.063
-18.58
-7.93
6.405
25.04
50.858
83.822
119.019
154.638
194.884
242.736
294.392
336.54
350.176
329.154
285.374
222.031
128.397
14.41
-91.6
-186.576
-287.068
-392.366
-498.324
-610.644
-706.734
-741.594
-716.711
-678.857
-646.697
-604.154
-550.001
-491.533
-418.057
-331.261
-263.031
-227.144
-197.871
-157.307
-117.878
-90.221
-70.871
-59.276
-55.138
-50.733
-44.762
-44.406
-47.453
-45.118
-38.549
-33.306
-29.508
-28.469
-32.502
-35.611
-29.813
-16.934
-4.55
2.883
5.522
5.655
2.804
-6.289
-17.895
-20.625
-10.669
4.369
18.139
27.205
26.377
18.122
13.322
12.282
6.587
2.034
11.41
28.412
36.461
34.63
32.317
30.367
25.37
21.273
23.211
28.891
34.677
40.535
43.533
39.134
32.988
35.818
44.834
48.222
45.926
46.695
50.981
54.615
58.961
64.248
66.403
66.524
68.772
70.835
70.439
72.32
77.909
81.616
83.07
87.649
94.697
99.253
100.997
101.832
102.284
104.443
109.475
113.707
115.815
121.11
130.906
138.317
140.603
142.967
147.404
150.662
152.5
155.285
158.55
160.96
163.88
168.796
173.865
176.364
177.528
180.792
185.46
188.126
189.903
194.101
197.79
195.859
191.499
190.861
191.28
187.675
183.302
181.401
176.862
166.763
156.702
149.822
141.691
129.936
119.07
112.042
103.788
89.789
76.027
69.468
64.62
54.099
42.935
36.503
28.644
16.334
8.202
7.185
4.113
-4.635
-12.165
-15.809
-19.354
-22.675
-23.492
-24.501
-28.743
-33.324
-33.606
-30.407
-29.177
-31.892
-34.693
-35.836
-37.604
-38.89
-37.517
-37.656
-42.628
-47.182
-46.683
-44.24
-43.639
-44.766
-46.597
-48.082
-48.132
-47.549
-48.183
-49.958
-50.755
-48.941
-45.543
-43.692
-45.235
-48.187
-48.552
-45.355
-42.446
-43.017
-45.324
-47.009
-48.233
-48.171
-45.513
-42.923
-44.539
-49.596
-52.484
-49.37
-43.302
-40.655
-43.257
-47.196
-48.31
-46.195
-43.759
-43.563
-44.982
-46.024
-46.137
-45.477
-43.888
-42.187
-42.001
-43.034
-43.11
-41.966
-41.404
-41.441
-41.082
-41.163
-41.747
-41.049
-39.682
-39.803
-40.473
-39.797
-38.288
-36.598
-35.293
-36.613
-40.174
-40.897
-37.135
-34.34
-36.253
-39.726
-40.209
-36.723
-32.5
-32.563
-36.66
-38.158
-35.332
-34.06
-34.666
-31.216
-25.834
-26.202
-30.442
-30.734
-27.397
-26.855
-30.623
-34.32
-34.792
-33.628
-33.25
-33.167
-32.793
-33.113
-32.967
-30.726
-29.105
-30.298
-31.693
-32.554
-34.876
-36.041
-32.892
-29.442
-29.895
-31.878
-32.849
-33.398
-32.916
-30.942
-30.055
-31.47
-33.025
-33.736
-33.991
-32.43
-29.286
-29.33
-34.793
-39.8
-38.685
-35.231
-36.161
-39.819
-40.267
-38.358
-38.31
-38.27
-35.359
-33.389
-35.427
-37.536
-37.353
-37.952
-39.616
-39.693
-39.702
-41.134
-39.955
-34.857
-31.454
-32.208
-33.164
-32.138
-30.483
-28.954
-27.721
-26.982
-25.951
-23.78
-20.753
-18.138
-17.352
-18.123
-18.466
-17.169
-14.295
-10.403
-6.944
-4.642
-1.9
2.315
7.087
11.833
14.967
13.931
11.463
12.219
11.779
4.802
-1.518
-1.222
-2.316
-9.451
-16.012
-21.053
-29.387
-38.206
-43.347
-46.805
-48.937
-48.447
-48.302
-49.557
-48.638
-45.944
-45.17
-45.392
-44.153
-43.235
-44.655
-47.047
-49.151
-51.456
-53.202
-52.454
-50.266
-50.179
-52.007
-51.933
-49.91
-49.313
-49.978
-50.15
-50.773
-50.178
-43.447
-31.337
-17.844
-1.012
21.185
45.92
75.478
114.923
159.142
202.659
250.52
300.107
334.045
342.969
330.063
293.776
229.212
139.194
32.762
-78.182
-182.526
-276.916
-367.641
-469.096
-588.523
-696.84
-744.769
-726.747
-685.632
-648.435
-608.146
-557.602
-494.735
-416.326
-333.302
-264.446
-211.252
-165.326
-126.797
-95.964
-68.33
-46.682
-37.106
-34.955
-31.251
-25.201
-20.89
-20.077
-20.662
-17.408
-8.223
-0.534
-2.967
-11.747
-14.695
-7.337
3.811
13.229
22.077
30.234
32.785
28.031
19.801
11.427
7.416
15.231
33.288
47.505
50.054
47.627
45.615
40.816
32.167
25.257
26.687
38.977
55.88
64.738
60.886
53.257
49.841
48.033
44.888
45.613
54.562
65.903
70.996
69.429
65.763
62.188
60.93
64.704
70.193
71.913
72.063
74.813
77.941
80.49
85.425
89.714
89.273
89.607
93.803
94.707
91.785
93.517
99.967
105.678
111.375
116.938
119.415
122.546
130.08
136.225
136.676
136.327
139.004
142.77
146.579
151.739
158.042
163.228
165.431
166.091
169.579
176.896
182.897
184.27
184.832
188.281
193.106
197.755
201.724
202.007
199.026
200.384
208.066
213.56
213.498
213.477
214.089
212.02
210.938
214.399
216.751
212.841
206.042
200.54
195.693
190.058
183.069
173.538
162.496
154.09
148.38
139.567
126.366
114.878
107.119
98.568
88.724
80.965
73.771
64.16
54.595
47.837
42.239
36.257
30.397
24.722
19.435
15.442
12.356
9.137
6.287
4.868
4.485
3.611
1.544
-0.339
-0.45
-0.074
-1.753
-4.756
-6.195
-5.917
-5.963
-6.539
-6.519
-6.177
-6.118
-5.766
-5.591
-7.139
-8.604
-7.2
-6.786
-11.583
-15.009
-10.596
-5.818
-8.577
-13.636
-14.459
-12.495
-10.609
-10.154
-11.448
-11.89
-10.41
-10.931
-14.832
-17.218
-14.942
-11.451
-11.494
-14.419
-14.906
-11.075
-7.944
-9.211
-11.411
-10.722
-9.079
-9.846
-12.459
-13.62
-11.856
-9.903
-11.312
-15.002
-16.33
-13.749
-11.106
-12.074
-14.744
-14.89
-12.851
-12.026
-12.457
-12.116
-11.518
-11.277
-9.445
-5.807
-3.888
-5.388
-7.066
-5.607
-2.543
-2.365
-6.339
-10.008
-9.527
-8.097
-9.767
-11.295
-9.081
-6.548
-6.192
-5.217
-3.593
-3.919
-4.439
-3.124
-2.546
-4.056
-5.512
-6.438
-7.986
-9.088
-7.79
-5.499
-5.992
-8.826
-9.174
-7.082
-7.434
-9.521
-9.809
-10.95
-14.353
-15.149
-14.433
-18.509
-23.435
-21.567
-17.481
-18.018
-19.959
-20.385
-21.471
-21.669
-19.687
-20.628
-24.867
-25.259
-22.512
-24.863
-31.232
-32.999
-29.476
-26.459
-25.288
-24.626
-25.857
-28.653
-28.863
-25.696
-23.266
-23.661
-25.785
-28.755
-30.753
-29.564
-26.731
-25.74
-27.374
-30.211
-32.229
-31.842
-29.7
-27.292
-25.493
-26.395
-30.323
-32.287
-29.575
-26.347
-24.353
-21.065
-19.017
-22.067
-25.262
-22.408
-16.616
-13.276
-12.238
-12.217
-12.869
-11.816
-8.233
-6.019
-6.846
-6.467
-2.841
-0.24
-1.38
-1.891
3.593
12.927
18.478
18.382
19.106
23.279
25.013
21.787
18.075
14.673
8.671
2.44
-0.661
-3.618
-9.451
-16.539
-23.886
-31.255
-35.699
-36.231
-37.028
-40.845
-45.265
-47.377
-46.843
-44.512
-41.603
-39.347
-37.945
-36.937
-36.855
-38.929
-42.451
-44.379
-43.332
-41.86
-43.032
-46.78
-50.035
-49.74
-47.004
-45.855
-46.459
-46.274
-46.319
-46.43
-41.728
-32.412
-22.642
-8.164
15.197
40.058
64.414
99.141
144.421
188.255
232.146
283.906
331.25
353.857
348.056
319.057
266.925
190.379
92.114
-19.23
-130.659
-234.52
-333.294
-436.414
-553.723
-673.345
-752.126
-761.284
-725.742
-685.322
-646.898
-599.871
-541.226
-470.109
-388.184
-307.356
-240.008
-188.884
-150.455
-118.766
-89.785
-66.533
-53.602
-48.582
-45.022
-40.324
-37.394
-39.593
-44.093
-42.574
-31.598
-18.986
-15.359
-21.282
-26.959
-23.837
-13.134
-2.511
3.693
8.348
13.691
14.08
4.469
-7.871
-10.849
-2.666
10.445
24.24
34.87
36.752
30.095
21.759
15.793
12.395
13.682
20.578
28.98
35.161
38.069
36.571
32.548
31.017
32.107
33.084
37.128
47.128
57.082
60.607
59.03
56.032
53.556
53.096
55.359
60.045
65.223
67.088
65.643
66.15
69.438
71.024
72.194
77.458
83.145
83.274
80.902
82.336
87.573
92.941
96.678
99.443
102.825
107.164
110.514
111.724
112.975
116.401
121.082
126.457
133.546
140.089
142.799
145.029
151.212
157.77
161.406
166.223
172.766
175.192
174.275
176.606
182.097
186.286
188.998
192.053
195.381
197.98
198.74
198.712
201.369
205.926
206.939
204.516
204.108
205.209
203.316
199.949
198.379
196.443
192.214
186.836
178.673
166.482
155.959
150.871
144.605
131.904
118.638
110.254
103.026
93.839
85.228
77.129
66.491
54.835
45.305
36.362
26.538
18.45
13.12
8.812
6.77
8.734
10.289
5.951
-1.929
-7.292
-9.596
-11.901
-14.302
-16.01
-18.808
-22.627
-23.932
-22.662
-23.447
-27.229
-29.021
-25.805
-20.951
-19.089
-20.221
-21.468
-22.362
-23.877
-24.293
-22.117
-19.93
-19.67
-19.474
-18.635
-18.833
-20.121
-21.734
-24.009
-26.074
-26.372
-25.925
-26.618
-28.228
-29.383
-28.533
-25.332
-23.014
-24.387
-26.23
-25.019
-23.559
-24.593
-25.463
-24.064
-22.247
-22.054
-23.571
-25.111
-25.073
-24.699
-25.469
-25.409
-23.353
-22.257
-23.803
-25.527
-25.418
-24.31
-23.376
-22.382
-20.354
-17.391
-15.808
-17.53
-20.008
-18.956
-16.007
-16.801
-20.608
-21.391
-19.507
-20.915
-25.355
-27.063
-25.379
-23.916
-22.922
-21.399
-20.94
-21.159
-19.058
-15.907
-15.808
-17.742
-17.97
-17.362
-18.455
-19.655
-18.492
-16.302
-15.725
-16.795
-17.623
-17.735
-19.071
-22.112
-23.544
-21.519
-19.101
-18.858
-19.648
-19.929
-18.655
-15.57
-13.85
-16.171
-19.104
-19.226
-19.191
-20.945
-21.633
-20.236
-19.558
-21.022
-23.321
-24.631
-24.207
-22.839
-20.903
-17.954
-15.868
-17.354
-20.818
-22.424
-21.665
-20.563
-20.407
-21.728
-24.595
-27.62
-28.573
-27.056
-25.299
-25.047
-25.204
-24.385
-23.708
-24.445
-25.454
-25.646
-25.784
-25.918
-25.288
-25.009
-26.258
-27.471
-27.153
-26.317
-26.151
-26.582
-27.193
-27.166
-25.809
-24.141
-24.032
-25.674
-27.334
-27.405
-26.099
-24.739
-23.607
-22.361
-22.079
-22.945
-21.38
-15.583
-10.692
-10.729
-11.12
-7.971
-6.341
-9.588
-10.442
-3.296
4.708
5.512
2.905
3.529
5.916
7.45
11.18
18.298
23.878
24.781
23.674
23.529
24.293
25.004
24.67
21.517
15.079
8.189
3.034
-2.467
-10.058
-17.401
-22.516
-26.037
-28.835
-32.691
-38.377
-41.268
-38.567
-36.672
-39.602
-41.003
-37.503
-34.683
-34.942
-34.969
-34.251
-34.131
-33.679
-32.874
-33.379
-35.027
-36.694
-37.878
-36.974
-33.269
-30.551
-32.498
-37.131
-41.349
-44.615
-43.934
-35.509
-23.238
-12.491
1.219
22.837
47.672
74.391
110.618
156.07
201.998
248.526
298.092
338.341
353.788
342.919
309.85
253.743
173.138
71.144
-42.523
-153.374
-252.881
-346.745
-450.242
-571.308
-688.095
-755.762
-755.659
-717.238
-674.896
-634.393
-588.423
-529.974
-453.069
-365.216
-285.947
-223.994
-174.834
-136.089
-106.829
-82.48
-62.083
-49.336
-43.585
-39.702
-35.195
-31.535
-31.228
-33.449
-30.543
-16.725
-2.085
-3.104
-17.038
-24.055
-15.593
-1.255
10.563
20.066
26.963
28.453
23.683
14.287
4.975
2.924
10.871
23.744
34.787
40.716
41.56
39.606
36.95
33.485
29.751
29.492
36.057
47.584
57.254
58.989
53.772
48.628
47.966
49.308
49.68
51.563
58.025
65.799
69.423
69.193
68.555
68.111
68.353
71.523
76.362
79.516
82.197
86.046
87.809
86.937
88.651
93.73
97.382
98.958
100.914
102.39
102.67
104.092
108.004
113.978
120.364
123.307
122.709
125.521
133.862
139.855
140.198
141.541
147.155
153.348
158.576
163.546
166.86
168.499
170.983
174.515
177.641
181.242
186.855
193.585
198.72
200.599
201.318
204.26
208.043
208.988
209.424
214.654
222.765
226.936
226.091
224.913
225.758
227.059
227.094
225.207
221.712
217.678
212.643
204.485
193.985
185.405
179.72
172.567
161.669
149.948
139.175
128.111
117.696
109.938
102.984
94.442
85.424
76.722
67.53
58.923
51.795
44.443
36.74
30.771
26.469
22.661
19.394
15.455
9.156
2.674
-0.237
0.024
-0.033
-1.932
-4.473
-6.589
-8.474
-10.167
-10.736
-9.815
-9.325
-11.494
-14.74
-15.061
-12.538
-11.441
-13.053
-14.517
-14.646
-14.354
-13.162
-11.324
-11.726
-14.741
-16.661
-16.479
-16.979
-17.711
-16.016
-14.503
-17.195
-20.896
-20.415
-17.24
-15.14
-14.206
-13.781
-14.381
-15.912
-18.355
-21.711
-24.29
-24.57
-23.139
-21.008
-19.044
-18.437
-19.323
-20.55
-20.724
-18.717
-15.643
-15.003
-17.885
-21.658
-24.295
-25.044
-23.375
-21.046
-19.775
-17.681
-14.818
-14.97
-16.575
-14.384
-10.945
-11.701
-14.066
-14.669
-16.808
-21.248
-22.565
-19.614
-17.16
-16.242
-14.243
-12.889
-15.264
-17.665
-15.299
-11.946
-13.251
-16.219
-15.423
-12.9
-13.447
-16.33
-17.817
-17.189
-16.183
-15.825
-16.344
-17.725
-18.955
-18.963
-18.46
-18.381
-17.973
-17.19
-17.56
-18.356
-17.329
-15.99
-17.394
-20.147
-21.149
-20.672
-20.13
-19.71
-19.808
-20.077
-18.874
-17.186
-18.329
-21.719
-23.299
-22.432
-21.915
-22.534
-23.098
-23.497
-23.934
-23.617
-22.027
-19.949
-19.278
-21.145
-23.196
-22.578
-21.848
-24.393
-26.767
-25.544
-24.57
-26.007
-26.038
-24.826
-25.97
-27.147
-25.798
-25.861
-28.19
-28.051
-26.003
-25.761
-25.57
-24.553
-26.333
-29.641
-29.7
-27.959
-27.646
-27.331
-26.729
-27.622
-28.156
-27.169
-27.214
-26.052
-19.855
-16.259
-23.338
-30.962
-26.627
-17.451
-14.473
-13.761
-10.712
-10.794
-14.588
-14.459
-10.039
-7.597
-7.104
-4.984
-2.41
-1.328
-0.188
2.487
6.493
11.721
17.652
22.346
23.533
20.905
18.204
20.305
24.847
22.36
10.476
-0.535
-3.616
-5.256
-12.279
-20.882
-26.558
-32.562
-41.031
-46.527
-45.628
-43.653
-45.154
-46.697
-45.456
-44.967
-46.044
-43.557
-38.152
-37.987
-43.664
-46.167
-43.489
-42.963
-45.697
-46.208
-45.625
-48.426
-51.758
-51.411
-49.496
-48.299
-47.189
-47.899
-51.776
-53.366
-47.321
-37.328
-27.476
-12.431
11.406
36.973
62.036
96.081
140.954
187.748
235.961
287.328
326.863
338.813
326.901
296.565
239.182
150.335
42.645
-69.411
-180.772
-287.268
-384.869
-485.227
-604.637
-721.984
-785.002
-777.567
-737.544
-697.31
-654.955
-604.147
-545.531
-474.252
-389.923
-308.57
-245.719
-200.39
-164.124
-132.85
-106.123
-85.078
-72.551
-68.342
-66.219
-61.425
-57.467
-59.4
-63.301
-58.814
-43.545
-30.227
-32.734
-46.575
-53.732
-46.487
-33.417
-22.544
-13.371
-5.637
-3.189
-8.066
-17.431
-25.749
-27.765
-21.573
-9.722
3.023
11.878
13.586
9.006
2.753
-1.919
-4.693
-3.634
4.662
17.845
26.886
25.405
16.541
8.945
7.139
7.897
8.036
10.735
18.099
24.973
27.294
27.403
27.398
27.428
29.16
32.709
35.897
39.098
42.664
43.761
43.309
46.356
51.336
52.139
50.377
51.744
55.744
60.22
65.708
69.552
68.84
68.082
71.934
77.739
82.749
87.533
90.779
91.781
94.331
100.571
107.444
112.486
116.688
121.241
125.9
130.006
133.011
134.847
136.943
141.309
147.371
152.342
155.648
158.956
162.036
163.647
165.128
168.498
173.354
178.445
183.19
186.679
188.224
188.57
188.661
188.46
187.4
184.424
178.842
172.438
167.689
163.477
157.179
149.793
143.543
136.996
127.37
114.601
100.793
88.461
79.024
71.316
63.097
53.794
44.108
35.197
29.084
25.861
21.158
12.092
2.829
-2.71
-7.474
-13.499
-17.591
-20.031
-24.62
-29.441
-31.012
-31.907
-33.378
-32.426
-32.016
-37.762
-44.476
-43.675
-39.175
-38.787
-40.082
-38.809
-39.34
-44.48
-47.763
-45.35
-42.818
-43.837
-44.585
-43.279
-43.716
-46.693
-47.722
-45.563
-44.584
-46.419
-47.481
-46.785
-47.188
-47.59
-44.268
-39.912
-40.454
-44.422
-45.333
-42.26
-40.13
-41.39
-43.171
-42.904
-42.253
-43.162
-44.4
-44.933
-45.251
-44.228
-41.364
-40.013
-41.536
-41.926
-39.593
-38.39
-39.943
-41.134
-39.826
-37.491
-36.647
-37.605
-38.255
-38.007
-38.615
-39.401
-37.994
-35.821
-35.031
-33.781
-31.818
-32.521
-34.785
-34.255
-32.987
-34.933
-36.253
-32.92
-29.704
-30.613
-31.201
-28.373
-25.966
-26.237
-26.691
-25.995
-25.165
-25.245
-27.076
-29.333
-28.689
-25.642
-23.96
-23.201
-20.839
-19.206
-20.589
-21.464
-19.433
-17.635
-17.983
-18.854
-20.019
-22.341
-24.48
-24.759
-23.73
-22.844
-22.442
-21.681
-20.057
-18.744
-19.338
-21.058
-21.021
-18.549
-17.048
-19.018
-21.625
-20.853
-17.574
-15.453
-15.073
-14.485
-14.166
-16.326
-19.433
-19.147
-15.309
-11.999
-10.844
-10.571
-11.347
-13.271
-13.955
-12.637
-11.945
-12.619
-12.199
-10.724
-11.758
-15.306
-15.479
-10.031
-5.967
-8.551
-12.889
-13.719
-12.767
-11.519
-8.858
-6.885
-8.7
-12.718
-14.853
-13.03
-9.106
-7.067
-6.551
-3.599
-0.363
-1.245
-1.005
5.55
11.311
11.757
13.865
18.32
17.866
16.018
20.516
25.531
24.105
23.167
28.479
32.993
31.413
29.35
31.855
36.028
38.239
39.541
41.63
43.535
43.973
43.065
41.612
40.384
38.076
31.587
22.33
16.513
14.855
11.347
4.33
-2.552
-8.389
-12.927
-13.52
-12.149
-14.251
-17.868
-17.331
-14.756
-15.05
-15.91
-12.901
-8.084
-6.511
-8.163
-8.979
-8.444
-9.467
-11.027
-10.073
-9.326
-12.583
-17.124
-19.828
-21.474
-21.07
-18.545
-19.006
-21.778
-17.636
-5.366
7.756
23.057
46.29
73.524
100.915
133.683
171.882
208.539
247.829
299.809
354.914
386.487
380.168
343.994
287.18
206.058
101.558
-7.89
-108.118
-204.781
-306.088
-413.809
-528.002
-631.245
-686.802
-682.876
-650.926
-618.935
-582.667
-534.308
-477.835
-410.158
-327.325
-249.362
-201.249
-174.696
-142.703
-100.768
-64.248
-41.124
-30.091
-27.395
-24.145
-14.965
-7.753
-9.229
-12.135
-7.81
1.968
9.86
10.202
3.249
-3.83
-3.308
6.426
21.14
34.624
42.966
45.447
41.369
31.487
21.794
18.216
21.101
29.713
42.833
53.416
55.19
51.821
48.168
41.759
33.213
31.542
40.427
52.323
60.411
64.467
64.735
60.882
56.209
54.675
55.247
55.542
58.31
66.762
76.186
79.231
76.758
74.806
75.386
77.609
81.668
86.197
87.728
86.212
86.217
90.083
93.941
94.283
94.362
98.261
103.626
106.856
109.178
112.413
115.815
118.967
121.751
123.71
126.763
132.908
139.078
141.473
142.545
147.004
154.528
161.504
166.432
170.327
174.345
178.552
181.633
182.202
181.681
184.354
192.311
201.868
208.049
210.797
213.001
214.996
216.037
218.251
223.552
229.166
230.815
228.535
226.65
228.501
232.361
234.198
233.38
231.621
228.844
224.798
219.648
211.097
198.994
189.342
184.172
176.253
162.368
149.231
140.434
131.32
119.559
108.294
98.715
89.202
79.398
69.149
57.96
47.691
40.39
34.497
27.828
20.913
14.511
8.335
3.013
-0.989
-4.828
-8.732
-11.993
-15.672
-19.433
-19.654
-17.118
-18.133
-22.815
-24.405
-22.582
-23.328
-26.477
-27.742
-28.747
-31.75
-32.227
-28.397
-27.031
-30.77
-33.832
-34.867
-37.312
-38.278
-34.622
-32.476
-35.622
-37.664
-35.627
-34.462
-34.874
-33.636
-32.779
-34.902
-37.092
-37.09
-36.16
-34.768
-33.13
-32.52
-32.642
-33.004
-34.725
-36.341
-34.588
-31.478
-31.429
-33.083
-33.69
-35.366
-38.245
-37.506
-33.319
-31.56
-33.05
-34.235
-35.141
-36.587
-36.406
-34.45
-33.366
-33.273
-32.67
-31.613
-29.818
-26.923
-24.997
-25.668
-27.738
-30.237
-32.403
-31.39
-26.512
-22.791
-24.318
-27.869
-28.145
-25.625
-24.218
-24.468
-24.463
-24.236
-24.438
-24.405
-24.501
-25.933
-27.573
-27.198
-25.186
-23.901
-24.182
-24.624
-24.543
-25.206
-26.854
-27.859
-27.787
-27.566
-27.236
-26.494
-25.735
-25.632
-26.951
-29.042
-28.944
-25.524
-22.412
-23.258
-26.805
-28.629
-26.151
-22.386
-23.137
-27.854
-29.446
-26.384
-24.583
-25.807
-26.377
-25.651
-25.873
-27.761
-30.42
-31.404
-29.252
-27.321
-28.413
-28.86
-25.739
-22.611
-22.185
-22.419
-21.751
-19.777
-15.859
-12.697
-13.313
-13.477
-8.877
-5.032
-6.366
-6.157
-0.888
1.464
-1.092
1.289
10.697
17.132
16.735
14.896
14.164
14.523
17.704
22.016
23.45
23.4
24.64
24.532
20.457
14.428
9.077
5.907
5.292
4.106
-1.196
-9.243
-16.99
-23.622
-27.809
-28.567
-28.948
-31.491
-33.861
-34.324
-34.647
-35.075
-34.008
-32.327
-32.331
-34.312
-36.417
-36.336
-34.105
-32.462
-32.099
-31.091
-30.567
-33.156
-36.451
-36.785
-35.889
-36.394
-37.242
-38.337
-41.037
-42.449
-38.53
-30.583
-20.331
-4.764
16.835
39.22
60.859
88.452
125.585
165.167
201.114
240.184
289.889
337.861
358.369
340.895
296.094
231.531
143.687
38.142
-67.076
-162.852
-255.01
-352.104
-458.453
-566.587
-650.611
-685.4
-675.586
-647.852
-616.547
-576.685
-526.02
-468.624
-400.49
-320.594
-251.108
-214.584
-198.038
-170.602
-127.042
-87.647
-66.273
-58.284
-52.131
-41.794
-30.476
-24.304
-23.525
-22.825
-18.231
-11.176
-7.473
-11.01
-17.678
-20.128
-16.832
-9.416
3.281
18.977
28.358
27.34
22.219
16.721
8.746
2.228
5.451
17.973
31.829
40.822
42.13
36.512
28.236
20.14
13.963
14.861
24.997
36.922
43.486
46.583
49.052
48.181
42.724
37.924
38.972
44.132
48.476
51.364
54.609
56.495
55.531
55.74
59.471
61.31
57.753
54.659
57.444
63.26
68.463
73.471
77.092
76.955
76.155
79.011
82.926
84.046
85.038
88.917
93.331
96.783
101.196
106.165
109.886
113.786
118.416
120.607
120.504
123.294
130.687
139.044
146.062
151.831
155.677
157.858
160.81
165.334
169.764
173.996
179.711
186.506
191.843
194.596
196.009
197.7
199.859
201.262
201.46
202.042
204.096
206.346
207.347
207.088
205.923
204.017
201.398
197.965
194.07
189.852
184.145
176.494
168.813
162.153
154.184
142.796
129.963
119.289
110.959
101.589
89.208
76.189
65.819
57.952
49.904
39.827
28.851
20.953
17.423
12.849
4.447
-1.2
-1.855
-6.221
-15.766
-20.82
-21.208
-25.406
-30.784
-30.322
-29.045
-33.075
-37.96
-39.961
-41.94
-44.405
-44.861
-44.507
-46.517
-49.945
-50.315
-46.669
-44.221
-45.863
-46.541
-43.053
-40.992
-43.974
-47.088
-47.754
-49.895
-53.648
-55.088
-55.528
-57.853
-59.064
-56.85
-54.507
-53.812
-53.189
-52.935
-53.856
-54.953
-56.278
-57.536
-56.064
-52.737
-52.404
-54.496
-54.136
-52.006
-51.172
-49.902
-47.987
-49.663
-53.83
-54.328
-51.387
-50.359
-51.746
-51.862
-49.531
-46.799
-45.297
-44.488
-43.918
-44.551
-45.631
-44.929
-43.8
-45.016
-46.761
-46.627
-46.698
-48.023
-47.865
-46.25
-46.004
-45.919
-43.061
-39.491
-38.993
-41.068
-42.724
-42.043
-39.761
-39.697
-43.274
-45.3
-42.482
-39.261
-38.433
-37.233
-36.265
-39.082
-43.336
-44.239
-42.822
-41.834
-40.294
-38.371
-39.244
-42.37
-43.485
-42.093
-41.252
-41.813
-42.97
-44.835
-46.492
-46.076
-44.557
-44.353
-44.806
-44.43
-44.119
-43.507
-41.255
-40.848
-45.509
-49.978
-49.208
-47.147
-47.037
-45.814
-43.619
-44.098
-45.179
-42.808
-39.218
-38.332
-40.038
-42.832
-45.192
-45.311
-43.806
-42.859
-42.409
-41.335
-39.566
-37.295
-36.139
-38.539
-42.339
-42.203
-38.584
-36.971
-38.071
-37.643
-34.96
-33.09
-31.805
-27.781
-22.225
-20.829
-23.696
-23.813
-19.575
-17.816
-20.074
-19.921
-16.866
-16.323
-16.141
-10.771
-4.309
-2.835
-2.303
2.242
6.819
7.842
8.906
12.194
14.577
14.731
14.54
13.824
11.467
9.085
7.146
2.397
-5.344
-10.998
-13.323
-17.119
-23.545
-28.609
-31.711
-34.971
-36.856
-36.081
-35.852
-37.607
-38.508
-37.119
-34.005
-29.887
-27.761
-30.084
-33.634
-34.249
-33.019
-32.881
-34.3
-36.295
-37.678
-37.699
-37.299
-37.826
-38.412
-37.391
-35.999
-36.973
-39.003
-36.725
-27.484
-13.948
1.448
20.067
43.617
72.406
107.777
150.413
197.643
246.73
294.359
331.684
350.228
348.784
326.038
278.045
205.923
113.089
2.988
-111.592
-214.446
-305.194
-399.136
-508.832
-623.588
-705.064
-722.837
-692.278
-651.164
-614.046
-574.161
-524.041
-457.389
-376.183
-297.405
-234.517
-185.291
-145.588
-114.052
-85.487
-59.315
-43.618
-39.032
-35.865
-30.296
-26.081
-24.447
-24.284
-23.529
-16.991
-4.381
3.024
-3.338
-14.08
-13.314
-0.5
11.192
15.501
18.712
24.468
26.739
21.278
13.179
9.848
13.814
23.471
35.101
43.558
45.1
40.823
35.706
33.36
32.78
32.205
34.434
42.876
53.442
58.096
55.327
49.815
45.17
43.195
45.226
50.199
55.884
61.502
65.593
65.899
63.703
62.6
63.345
64.703
66.344
68.045
69.635
71.824
74.676
77.296
79.697
82.695
86.375
89.348
89.717
88.579
90.222
95.21
98.922
100.279
103.025
107.225
110.216
113.352
117.661
119.681
118.931
120.204
125.471
132.869
141.665
150.015
153.193
150.689
148.644
151.228
156.995
164.521
172.391
176.109
175.043
175.878
180.878
184.066
183.789
184.404
185.669
185.735
188.923
196.527
200.148
195.724
191.281
192.485
194.491
192.872
189.611
186.587
183.034
178.209
171.084
161.279
151.801
145.189
138.292
127.174
114.077
103.475
95.369
87.267
77.771
66.058
53.869
46.134
43.145
38.734
31.052
24.088
17.798
10.564
6.466
6.897
5.263
-0.904
-6.128
-8.451
-10.986
-13.835
-15.175
-15.994
-17.596
-19.462
-21.452
-23.55
-24.684
-24.728
-24.51
-23.907
-24.103
-27.443
-31.33
-30.922
-29.108
-31.578
-34.73
-32.48
-28.547
-29.007
-31.691
-32.388
-31.553
-30.112
-28.223
-28.529
-32.137
-34.557
-32.824
-30.474
-29.776
-28.478
-27.979
-32.01
-36.25
-34.053
-29.511
-30.01
-33.001
-33.352
-33.172
-33.926
-31.663
-27.11
-26.604
-29.862
-30.882
-29.606
-29.119
-27.484
-24.317
-24.514
-27.175
-26.069
-23.191
-23.913
-24.134
-19.67
-16.52
-19.132
-23.302
-25.578
-26.022
-24.154
-21.389
-20.619
-20.343
-17.516
-14.334
-14.39
-16.011
-15.777
-15.089
-17.543
-21.441
-21.377
-17.663
-16.267
-18.375
-19.343
-17.895
-16.707
-16.099
-15.232
-15.209
-16.014
-15.989
-16.038
-18.341
-21.029
-20.144
-16.882
-16.642
-20.148
-22.454
-21.257
-18.714
-16.392
-15.06
-15.758
-17.274
-17.402
-16.353
-15.249
-14.807
-16.276
-19.504
-22.116
-22.498
-20.722
-18.141
-17.299
-18.567
-19.236
-18.731
-18.91
-19.457
-19.56
-20.261
-21.173
-21.175
-21.453
-21.805
-19.95
-18.029
-20.177
-23.636
-23.111
-20.488
-20.12
-20.704
-19.861
-18.937
-18.467
-17.273
-16.918
-19.04
-20.822
-19.825
-18.25
-17.607
-15.91
-13.026
-11.504
-11.21
-9.728
-6.882
-4.225
-2.47
-1.453
-0.798
-0.492
-0.346
0.733
2.419
3.383
5.945
11.96
16.057
14.843
14.842
19.999
24.585
25.285
25.578
27.289
28.904
28.617
25.161
20.113
16.377
13.091
8.432
3.318
-2.92
-11.728
-19.472
-22.565
-23.977
-27.221
-31.799
-36.715
-40.168
-39.039
-34.919
-33.941
-37.276
-39.338
-36.677
-32.281
-30.638
-32.716
-36.073
-37.879
-37.718
-37.621
-39.072
-40.987
-41.585
-41.194
-41.972
-44.841
-47.613
-47.947
-47.376
-48.172
-47.228
-39.772
-27.637
-15.141
0.018
21.91
48.443
77.753
112.915
154.353
200.266
252.487
306.121
343.547
353.087
338.043
301.264
240.24
156.3
54.009
-60.544
-174.95
-277.138
-370.506
-472.631
-590.963
-700.583
-760.463
-757.823
-718.927
-674.036
-632.525
-588.449
-531.423
-456.924
-373.091
-292.836
-225.068
-175.066
-140.522
-111.105
-82.754
-62.002
-52.403
-50.256
-50.951
-50.296
-47.549
-47.935
-51.322
-46.453
-29.614
-16.8
-22.452
-37.126
-40.589
-28.552
-13.514
-5.022
-0.652
4.905
9.71
7.029
-3.719
-13.734
-14.684
-6.434
6.435
18.28
22.633
17.91
10.98
7.412
4.593
1.087
2.402
11.267
22.274
29.838
33.102
32.774
30.494
29.797
32.291
36.203
41.567
50.36
59.903
64.297
62.789
59.87
59.182
61.651
66.182
70.883
75.45
80.196
83.617
84.572
84.168
84.276
86.997
92.287
95.598
94.611
94.176
97.671
102.392
106.946
111.79
114.59
115.236
118.079
123.464
127.396
130.018
134.12
138.711
142.112
146.361
153.253
160.391
164.265
164.897
165.921
170.269
176.555
181.708
186.12
191.509
195.693
196.692
198.37
203.587
207.949
208.465
209.459
213.445
216.975
219.15
222.572
225.408
224.115
221.944
223.719
226.068
222.944
215.514
207.94
200.221
191.406
182.433
173.716
165.727
158.602
149.054
135.787
124.825
119.387
113.339
103.446
94.334
86.584
76.311
65.723
58.492
51.598
43.608
38.621
35.484
29.04
22.561
21.744
21.611
16.043
10.37
9.497
7.232
0.507
-2.34
1.756
4.076
1.449
0.212
0.606
-2.259
-5
-2.959
-1.786
-5.287
-6.287
-2.822
-3.809
-9.906
-11.245
-7.105
-5.577
-7.295
-8.151
-8.953
-9.843
-7.715
-4.881
-6.424
-9.231
-7.485
-4.107
-3.883
-4.075
-2.865
-4.839
-9.797
-10.581
-6.938
-6.527
-10.504
-12.465
-10.758
-9.15
-8.149
-6.162
-5.036
-6.605
-8.472
-8.301
-8.038
-10.055
-11.983
-10.424
-8.384
-10.91
-14.61
-13.053
-9.508
-10.359
-12.127
-9.577
-7.062
-8.733
-10.04
-8.345
-7.38
-7.551
-6.542
-6.25
-7.353
-6.79
-6.068
-8.35
-10.014
-8.661
-9.357
-13.136
-13.8
-10.473
-8.657
-9.576
-10.419
-10.845
-11.069
-9.639
-7.913
-9.169
-11.242
-9.44
-6.288
-7.325
-10.401
-10.655
-10.293
-13.203
-17.136
-18.602
-18.58
-19.407
-21.321
-23.32
-24.512
-24.897
-25.204
-25.347
-24.81
-24.346
-24.104
-22.529
-20.814
-22.864
-27.64
-29.896
-29.383
-29.399
-29.304
-28.231
-29.423
-33.376
-35.417
-33.808
-31.976
-32.473
-34.405
-35.571
-34.959
-33.656
-32.68
-31.571
-30.774
-31.811
-34.045
-35.471
-36.356
-38.074
-39.444
-38.31
-36.193
-36.849
-40.018
-41.62
-40.252
-38.146
-36.497
-34.814
-33.21
-32.256
-32.465
-33.925
-35.098
-34.361
-32.252
-29.483
-26.467
-25.755
-28.128
-28.747
-25.148
-22
-21.458
-19.952
-17.346
-16.619
-16.252
-13.638
-10.712
-9.399
-8.181
-6.384
-5.556
-4.635
0.365
9.096
15.525
17.007
17.197
18.122
18.039
16.775
15.288
12.421
7.392
1.958
-2.387
-6.477
-11.729
-17.57
-22.591
-28.273
-36.471
-43.58
-45.936
-47.485
-51.222
-51.979
-47.958
-45.205
-44.9
-43.074
-41.355
-42.489
-43.583
-43.352
-44.284
-46.468
-49.057
-51.796
-52.391
-51.299
-52.664
-54.365
-51.097
-47.133
-49.354
-54.525
-57.149
-57.876
-56.023
-47.933
-35.689
-24.276
-11.449
8.03
33.05
61.675
97.429
140.426
184.819
230.992
282.012
326.792
347.56
339.836
308.15
252.599
171.894
70.051
-44.343
-159.536
-264.235
-358.603
-460.352
-583.548
-704.835
-775.301
-777.38
-741.237
-699.694
-659.453
-613.991
-555.16
-478.407
-391.885
-310.73
-242.457
-188.61
-150.181
-122.442
-97.298
-74.679
-60.896
-57.168
-57.931
-57.829
-56.3
-56.512
-58.367
-53.846
-38.067
-22.624
-22.962
-34.927
-40.902
-34.642
-23.763
-14.528
-7.095
0.157
6.623
6.355
-5.359
-20.091
-23.558
-14.603
-2.324
9.731
20.369
22.489
13.922
4.267
0.215
-0.94
1.228
11.104
24.445
31.477
30.362
26.88
25.663
26.755
27.236
26.539
28.567
34.428
40.074
44.261
47.756
47.371
43.689
44.598
50.759
53.958
53.907
57.13
62.415
64.867
65.36
65.583
65.763
68.549
73.99
77.187
77.644
80.178
85.472
90.138
93.245
96.523
101.809
108.958
114.152
114.049
111.681
113.011
118.965
125.529
130.23
134.347
138.925
142.629
144.792
147.152
151.214
156.306
160.736
164.117
168.331
174.138
178.296
179.101
181.002
186.909
192.967
197.021
201.83
206.713
208.505
209.463
212.327
213.889
212.394
210.989
209.542
205.249
200.664
199.197
197.214
190.251
180.3
170.732
161.64
152.799
144.2
134.068
121.618
109.367
99.63
91.829
84.445
76.805
68.366
58.522
48.723
42.562
40.417
37.337
30.742
24.194
19.397
13.872
8.659
6.882
6.331
4.045
1.851
0.289
-2.816
-5.84
-6.504
-7.832
-11.268
-12.139
-9.124
-7.498
-9.238
-11.118
-12.255
-13.362
-12.858
-11.368
-12.688
-16.429
-18.737
-19.586
-20.171
-18.843
-17.348
-20.3
-24.363
-22.918
-19.767
-21.1
-22.415
-19.54
-17.944
-19.462
-18.541
-16.295
-17.899
-19.108
-14.695
-10.825
-13.224
-16.303
-14.994
-12.962
-12.587
-11.097
-9.889
-13.208
-16.928
-14.215
-9.685
-11.482
-15.955
-15.664
-12.501
-11.116
-10.747
-9.87
-9.33
-9.468
-9.574
-9.021
-7.997
-7.372
-6.502
-4.612
-4.772
-8.821
-11.449
-9.262
-7.766
-10.21
-11.576
-9.752
-8.742
-8.671
-6.031
-2.858
-4.301
-9.376
-12.437
-11.42
-9.261
-9.117
-11.29
-13.747
-14.433
-13.115
-10.843
-8.909
-9.211
-12.435
-15.081
-13.359
-9.96
-10.326
-13.492
-14.142
-11.849
-10.752
-11.577
-11.177
-9.409
-9.45
-11.718
-14.454
-17.558
-18.996
-14.804
-8.63
-8.958
-13.969
-15.077
-13.177
-13.983
-14.686
-11.438
-9.589
-13.702
-18.335
-17.476
-13.982
-13.94
-17.589
-20.08
-19.107
-18.018
-19.982
-22.583
-22.177
-20.422
-20.62
-20.848
-18.511
-17.304
-20.228
-22.841
-22.557
-23.002
-23.642
-21.404
-20.844
-24.358
-23.607
-16.752
-14.235
-18.016
-18.986
-15.432
-12.657
-11.794
-12.056
-12.797
-11.576
-9.755
-10.943
-10.615
-4.204
-0.208
-4.604
-6.12
2.568
9.73
7.731
6.472
11.708
15.055
12.717
12.853
20.631
30.475
35.469
36.079
36.035
35.17
32.844
32.113
32.729
29.512
23.013
18.541
14.304
6.08
-1.6
-4.612
-9.548
-20.466
-28.676
-28.22
-26.633
-30.582
-35.228
-34.628
-31.205
-30.035
-30.616
-29.315
-27.23
-28.248
-30.312
-29.167
-28.405
-33.027
-38.538
-39.221
-38.487
-40.585
-43.162
-44.514
-46.343
-47.506
-46.143
-45.52
-48.225
-49.448
-43.263
-30.478
-15.482
0.02
16.501
34.536
57.243
89.308
129.673
172.424
216.507
264.311
310.929
344.376
353.935
334.415
288.22
221.936
136.951
32.296
-82.849
-192.947
-292.083
-389.882
-502.371
-627.427
-728.342
-766.128
-745.978
-703.497
-659.159
-613.333
-562.394
-498.556
-416.47
-328.214
-254.343
-202.52
-165.61
-134.003
-104.059
-78.924
-63.542
-58.171
-56.325
-50.468
-42.069
-41.075
-48.713
-50.121
-35.744
-17.964
-12.519
-17.813
-24.39
-26.841
-20.59
-7.236
1.501
3.155
8.512
14.689
7.347
-7.217
-10.214
-2.079
7.149
18.93
33.6
40.997
36.45
26.847
19.48
16.256
15.798
18
25.937
38.364
45.8
42.831
36.478
34.588
34.909
32.937
32.092
37.192
44.835
49.842
52.969
54.219
51.211
48.955
54.419
61.923
62.688
61.707
66.631
72.577
73.59
73.484
75.578
77.94
81.103
85.883
88.115
86.293
85.556
88.701
93.529
99.203
105.765
110.313
110.868
110.642
114.11
121.121
127.497
131.204
135.162
141.439
146.465
147.299
148.201
153.956
161.295
164.634
165.579
169.025
175.032
181.215
186.89
190.797
191.757
192.082
194.28
197.792
202.187
207.198
209.823
209.039
209.897
215.103
218.978
217.534
215.493
215.996
214.652
209.367
203.497
197.089
187.359
175.944
165.9
156.619
147.245
138.596
129.917
119.096
106.134
93.678
83.897
75.66
66.713
57.482
48.597
38.193
27.056
20.112
17.989
15.167
9.102
2.896
-1.502
-5.604
-10.342
-14.795
-18.396
-20.956
-21.674
-21.45
-22.993
-25.138
-24.052
-22.569
-26.31
-31.118
-30.226
-27.909
-29.272
-29.677
-28.312
-32.276
-38.687
-36.687
-29.161
-28.785
-35.953
-40.417
-38.509
-34.462
-31.505
-30.778
-33.187
-37.424
-40.488
-41.117
-39.657
-36.848
-34.411
-33.433
-33.184
-33.713
-35.567
-37.331
-38.02
-38.153
-37.023
-35.53
-37.62
-41.843
-41.402
-36.934
-35.449
-37.222
-37.934
-37.606
-36.693
-33.827
-32.021
-34.674
-37.122
-34.313
-30.676
-31.576
-33.384
-31.688
-29.981
-31.393
-32.047
-29.871
-28.64
-29.272
-28.997
-28.595
-29.467
-28.655
-25.112
-22.789
-23.468
-25.334
-27.51
-28.747
-27.118
-24.412
-23.507
-23.793
-25.493
-30.037
-33.2
-30.135
-25.133
-24.111
-25.197
-26.136
-28.405
-28.97
-23.34
-16.821
-17.145
-21.087
-22.167
-22.104
-24.088
-25.694
-24.809
-23.58
-24.473
-27.478
-30.252
-30.242
-28.416
-28.24
-30.078
-31.405
-31.603
-31.446
-30.981
-31.039
-31.346
-28.458
-23.477
-24.6
-32.269
-34.644
-27.713
-22.683
-25.27
-27.453
-25.278
-24.966
-28.421
-29.97
-28.375
-28.283
-29.809
-28.12
-23.335
-20.101
-18.301
-15.386
-13.753
-14.908
-14.888
-12.631
-10.94
-8.976
-5.676
-4.09
-4.858
-5.124
-4.438
-2.815
1.638
7.666
11.267
11.976
11.706
11.193
12.213
16.356
20.581
21.637
22.016
25.272
29.816
30.436
24.324
16.183
12.868
11.395
4.513
-3.614
-5.956
-8.606
-17.957
-26.63
-28.508
-29.631
-34.466
-38.265
-37.313
-34.776
-34.174
-34.346
-33.801
-33.812
-33.608
-31.488
-31.724
-36.959
-39.051
-33.341
-28.705
-30.096
-31.238
-31.029
-34.351
-38.221
-37.291
-35.034
-35.825
-37.791
-40.251
-44.381
-44.655
-34.088
-16.577
-0.506
14.721
34.088
57.945
86.083
119.9
156.813
193.621
235.002
286.724
338.099
362.76
345.977
299.183
234.956
149.1
43.948
-60.83
-156.036
-251.306
-353.333
-461.124
-568.323
-652.522
-688.299
-679.435
-652.01
-619.686
-579.374
-529.341
-469.929
-397.72
-317.904
-252.379
-216.267
-195.212
-165.045
-123.363
-85.096
-61.093
-53.063
-54.132
-50.799
-38.843
-30.205
-31.649
-32.882
-26.379
-19.152
-17.79
-20.246
-23.977
-26.66
-22.544
-10.521
1.601
8.705
13.28
15.929
13.991
8.085
0.134
-7.156
-5.34
10.077
27.918
36.475
39.029
39.356
32.254
20.183
15.216
19.026
23.648
28.615
36.556
40.938
35.88
27.8
24.747
24.665
23.172
23.339
29.921
40.227
46.941
46.933
43.711
42.957
46.794
51.154
50.825
48.241
50.922
58.549
62.933
62.632
64.596
70.32
74.416
75.891
77.581
78.906
80.297
85.688
93.34
97.632
100.912
107.247
111.21
109.469
110
116.651
122.16
123.818
127.691
135.372
142.146
146.421
150.098
153.427
156.415
161.144
167.862
172.922
175.177
179.1
186.499
192.788
195.958
199.154
202.282
202.795
203.503
207.874
212.212
212.602
211.902
212.287
210.951
208.028
207.733
209.597
208.489
202.921
195.5
187.072
177.063
167.579
160.142
150.714
136.305
121.856
111.551
102.13
91.331
80.488
68.688
57.315
51.59
48.389
39.087
26.681
20.044
16.858
10.821
4.581
2.057
0.304
-4.111
-9.658
-12.329
-11.15
-11.839
-19.554
-28.198
-28.76
-25.341
-27.681
-33.594
-34.629
-32.065
-32.476
-34.248
-32.541
-31.277
-35.144
-37.448
-33.365
-32.704
-40.397
-44.275
-39.436
-37.661
-42.213
-43.818
-42.313
-43.964
-45.151
-40.62
-36.108
-38.38
-43.726
-44.853
-41.636
-39.665
-41.831
-45.178
-45.868
-44.237
-42.706
-41.51
-40.374
-40.912
-43.202
-44.227
-42.512
-39.968
-38.75
-39.354
-40.278
-39.276
-37.09
-37.075
-39.337
-40.333
-39.179
-38.636
-39.816
-41.036
-41.325
-40.983
-39.574
-36.906
-35.002
-35.269
-35.332
-33.568
-33.323
-36.023
-36.475
-32.975
-32.316
-36.659
-38.305
-34.569
-32.778
-35.465
-36.297
-33.227
-31.084
-31.496
-32.122
-32.299
-31.495
-28.725
-26.743
-28.315
-30.018
-28.43
-26.835
-28.451
-30.989
-32.644
-34.395
-34.604
-31.095
-27.611
-28.045
-29.101
-28.116
-28.107
-28.415
-25.514
-23.747
-27.741
-31.319
-29.122
-25.85
-25.618
-27.206
-29.673
-31.421
-30.611
-29.991
-31.82
-32.818
-31.699
-31.544
-32.184
-31.116
-29.262
-28.551
-29.447
-31.732
-32.73
-30.507
-29.825
-34.188
-36.759
-32.141
-27.681
-30.62
-35.172
-32.85
-26.276
-24.195
-28.289
-32.414
-32.857
-31.728
-30.204
-26.819
-23.123
-22.102
-21.454
-17.723
-13.585
-11.858
-10.348
-10.001
-14.332
-17.18
-10.037
-0.01
0.499
-5.198
-6.142
-1.529
3.164
6.288
8.761
10.709
11.932
12.605
13.464
15.149
17.409
19.704
21.259
20.356
15.857
9.436
4.4
1.821
-0.573
-5.029
-11.71
-19.711
-26.289
-28.011
-27.328
-30.816
-37.142
-38.457
-35.348
-35.517
-38.841
-39.433
-38.172
-38.87
-39.188
-36.787
-35.399
-37.489
-40.328
-41.936
-42.666
-42.372
-41.58
-41.413
-40.969
-40.078
-41.293
-43.928
-44.167
-43.656
-45.586
-44.625
-35.64
-23.555
-11.234
6.555
29.894
55.145
87.016
128.111
169.944
210.624
258.211
307.151
338.079
342.188
322.932
280.68
212.624
120.685
13.267
-97.561
-202.779
-300.825
-397.337
-503.415
-618.301
-710.127
-743.931
-726.756
-690.496
-648.116
-599.518
-548.854
-491.528
-417.734
-336.692
-268.107
-216.544
-175.146
-140.026
-108.977
-80.859
-60.359
-51.722
-49.489
-45.128
-39.276
-38.479
-42.792
-44.53
-38.098
-26.632
-19.626
-23.202
-31.217
-31.266
-20.927
-9.167
-1.296
5.835
13.314
15.967
9.873
-1.864
-10.713
-9.189
2.473
17.336
29.274
35.443
33.766
25.246
16.312
12.258
12.759
17.681
27.921
38.561
42.923
41.32
36.782
31.343
30.039
35.01
40.042
42.51
47.601
54.963
58.222
57.12
56.042
55.98
55.955
56.091
56.706
58.119
60.9
65.063
69.336
71.53
71.541
73.444
79.987
86.134
85.595
82.341
85.178
92.775
97.45
99.9
104.441
107.264
105.923
108.245
117.44
124.466
124.624
124.33
128.262
134.527
140.394
143.881
144.351
144.12
145.867
150.4
157.449
165.048
170.222
172.859
175.766
180.459
185.629
188.943
189.441
189.383
191.998
196.205
198.278
198.903
200.51
200.128
196.27
195.349
198.422
196.492
189.449
186.843
185.984
177.16
165.129
158.357
151.809
140.892
131.185
123.717
113.127
100.954
91.697
83.056
73.007
65.094
59.865
52.426
40.948
29.609
22.786
19.972
16.719
10.559
4.342
1.34
-0.277
-3.928
-7.922
-8.691
-9.327
-15.001
-20.888
-18.675
-12.825
-13.45
-18.442
-20.055
-19.832
-22.129
-24.844
-25.897
-26.689
-27.03
-26.739
-28.236
-30.671
-28.937
-23.236
-21.348
-26.028
-28.512
-22.957
-17.798
-20.913
-25.575
-24.48
-22.722
-24.821
-25.872
-24.001
-24.428
-27.408
-28.024
-27.092
-28.091
-28.208
-25.272
-24.898
-28.799
-28.918
-23.857
-23.612
-29.579
-31.166
-26.774
-25.236
-26.942
-25.388
-22.136
-22.501
-25.094
-26.734
-27.26
-26.042
-23.691
-23.589
-25.336
-25.595
-25.561
-26.396
-24.525
-20.887
-20.987
-22.393
-19.748
-17.203
-18.897
-19.705
-17.307
-16.367
-16.658
-14.79
-13.97
-16.712
-18.007
-16.388
-17.005
-18.947
-16.781
-13.242
-13.948
-16.352
-16.109
-14.577
-13.751
-12.959
-11.928
-11.689
-13.029
-14.832
-14.486
-11.894
-9.895
-9.753
-11.45
-15.212
-17.808
-15.665
-13.137
-15.384
-17.328
-13.971
-11.972
-16.721
-20.809
-17.154
-10.414
-7.929
-10.667
-15.637
-19.275
-19.468
-17.53
-15.834
-15.058
-15.808
-18.211
-19.584
-18.292
-17.372
-18.622
-18.757
-16.828
-17.4
-21.476
-23.647
-22.033
-20.942
-21.56
-20.778
-19.168
-19.231
-19.018
-17.221
-16.942
-17.501
-14.434
-10.257
-10.775
-13.47
-13.463
-12.601
-12.101
-8.634
-2.831
1.203
2.811
1.919
-1.335
-1.201
5.465
10.827
10.237
10.759
14.399
13.811
10.497
13.8
22.569
28.782
31.93
34.378
34.37
32.931
34.722
38.112
36.044
27.487
19.289
16.725
17.299
14.728
7.037
-2.124
-9.712
-15.295
-17.586
-16.777
-17.907
-23.36
-27.323
-25.299
-21.056
-19.039
-19.102
-20.049
-20.515
-18.957
-16.989
-17.282
-18.705
-19.554
-20.677
-21.37
-20.156
-19.955
-23.362
-26.768
-27.071
-26.624
-27.065
-27.615
-28.681
-28.216
-20.944
-7.174
8.063
24.726
45.258
69.733
101.256
142.255
186.261
230.001
279.841
330.817
364.033
372.856
362.24
327.226
261.332
171.77
67.329
-47.855
-162.233
-262.063
-351.986
-454.205
-577.065
-687.735
-737.615
-720.985
-678.307
-639.143
-599.697
-550.801
-489.599
-413.807
-329.492
-251.094
-186.696
-137.039
-101.698
-75.337
-51.19
-32.116
-24.087
-22.557
-19.396
-15.876
-16.916
-20.801
-21.842
-15.301
-0.355
13.471
12.257
-0.661
-4.984
6.275
18.21
22.705
29.398
40.491
42.944
33.278
23.393
19.2
18.524
25.055
40.838
55.377
59.639
56.636
50.864
44.252
40.94
42.152
44.82
50.236
60.024
67.124
65.802
61.784
61.394
62.006
60.337
59.768
64.292
71.984
78.317
81.522
81.366
77.794
74.609
77.512
84.823
89.051
89.438
91.827
96.394
97.945
96.908
98.563
103.564
107.95
109.799
110.138
110.48
112.491
116.749
121.65
126.403
131.783
136.388
138.502
140.808
145.492
149.013
149.328
151.025
156.749
162.815
167.499
172.262
174.578
173.47
176.605
187.135
195.866
197.98
199.565
203.248
206.501
210.143
214.292
215.967
216.14
217.934
221.201
225.643
230.392
231.445
228.741
227.611
228.942
229.562
228.935
226.047
219.809
215.011
214.8
212.854
204.407
194.001
185.425
176.376
165.344
153.553
141.397
129.545
119.847
111.782
102.578
92.146
83.717
78.723
74.101
66.696
58.115
51.194
44.889
38.478
34.922
34.227
31.932
26.858
21.4
16.606
13.357
12.151
10.946
9.288
8.639
6.667
1.829
-0.095
4.18
7.617
5.111
2.494
4.903
7.86
6.928
4.929
4.029
1.977
-0.272
1.044
3.81
3.473
1.988
2.679
3.131
1.564
1.034
2.389
2.43
0.516
-0.781
-0.527
0.188
0.329
-0.866
-2.656
-1.975
2.277
6.078
6.209
5.726
7.619
8.627
6.087
3.641
3.906
3.928
2.484
2.632
4.318
4.04
2.276
1.435
-0.403
-3.28
-1.341
4.43
4.412
-0.458
0.853
6.489
5.035
-0.989
-1.007
2.839
2.975
1.827
3.594
4.367
1.293
-0.89
0.783
2.178
1.055
1.457
4.054
3.364
0.009
1.046
4.102
0.567
-5.198
-2.932
2.661
2.279
1.175
5.235
6.158
-0.388
-4.066
-0.138
3.448
3.744
4.797
5.648
4.474
4.572
5.648
3.529
0.851
1.66
0.517
-6.227
-9.419
-3.361
2.313
0.355
-2.604
-1.443
-0.773
-2.87
-3.667
-1.765
0.323
1.242
0.078
-3.748
-6.865
-5.626
-2.87
-3.157
-5.003
-4.822
-3.166
-2.786
-5.19
-9.166
-11.005
-9.75
-9.379
-11.278
-11.872
-10.219
-8.749
-7.935
-7.862
-9.725
-11.771
-10.793
-7.903
-6.662
-7.351
-7.434
-5.904
-4.386
-4.321
-4.922
-5.038
-4.853
-3.793
-0.696
2.075
1.322
0.101
3.115
7.879
9.728
8.849
6.1
2.345
2.799
9.67
15.69
16.12
16.576
21.867
29.948
37.32
40.077
36.89
34.735
39.131
43.605
41.501
35.833
29.41
21.54
15.646
14.326
12.01
4.356
-4.476
-10.464
-14.663
-18.251
-22.637
-30.156
-36.789
-34.519
-26.418
-23.956
-27.374
-27.739
-25.284
-25.674
-27.123
-28.127
-32.382
-36.435
-33.885
-31.376
-36.373
-40.584
-37.446
-34.857
-36.101
-35.552
-36.313
-43.284
-47.824
-43.635
-38.712
-36.746
-31.23
-21.023
-8.749
8.019
29.758
55.352
90.294
136.288
184.365
230.851
279.081
322.123
346.554
347.398
323.898
273.721
197.641
99.29
-14.89
-131.466
-237.704
-335.18
-439.463
-562.114
-685.446
-765.164
-777.027
-744.597
-703.466
-663.526
-617.683
-559.695
-487.136
-404.033
-320.883
-248.69
-194.967
-158.811
-129.734
-100.772
-77.278
-64.663
-58.439
-53.703
-51.899
-52.578
-51.771
-50.648
-50.349
-43.366
-29.416
-25.013
-36.355
-45.922
-40.796
-26.789
