149.189
156.668
49.873
-57.321
-148.227
-256.664
-379.907
-497.838
-599.577
-679.076
-729.34
-747.345
-739.786
-716.613
-683.794
-644.718
-598.84
-543.317
-479.56
-411.582
-343.656
-280.805
-226.398
-181.657
-146.743
-120.798
-102.367
-89.868
-81.865
-76.785
-72.62
-67.625
-60.853
-52.01
-41.409
-29.674
-17.289
-4.793
6.916
16.948
24.818
30.402
33.95
35.899
36.598
36.358
35.596
34.764
34.184
34.05
34.395
35.131
36.191
37.526
39.074
40.765
42.542
44.358
46.177
48.004
49.835
51.666
53.501
55.324
57.11
58.84
60.515
62.159
63.808
65.494
67.244
69.086
71.042
73.135
75.374
77.736
80.198
82.738
85.328
87.966
90.653
93.394
96.193
99.051
101.967
104.949
108.003
111.129
114.337
117.638
121.055
124.632
128.399
132.379
136.591
141.036
145.709
150.6
155.678
160.909
166.259
171.691
177.179
182.701
188.229
193.73
199.169
204.506
209.721
214.802
219.733
224.508
229.12
233.573
237.894
242.108
246.228
250.262
254.197
258.008
261.678
265.186
268.5
271.579
274.362
276.78
278.78
280.309
281.317
281.749
281.528
280.588
278.889
276.403
273.126
269.071
264.247
258.68
252.418
245.522
238.079
230.187
221.924
213.365
204.585
195.663
186.692
177.76
168.931
160.26
151.788
143.549
135.578
127.903
120.527
113.445
106.639
100.079
93.755
87.658
81.782
76.118
70.654
65.377
60.289
55.396
50.705
46.221
41.946
37.883
34.043
30.444
27.099
24.028
21.239
18.736
16.521
14.592
12.944
11.573
10.465
9.603
8.973
8.561
8.353
8.335
8.489
8.799
9.246
9.811
10.479
11.233
12.059
12.941
13.867
14.825
15.805
16.796
17.789
18.776
19.746
20.693
21.607
22.482
23.311
24.09
24.814
25.479
26.082
26.623
27.1
27.514
27.864
28.153
28.381
28.551
28.666
28.729
28.743
28.712
28.64
28.531
28.39
28.22
28.026
27.812
27.582
27.339
27.088
26.832
26.574
26.317
26.065
25.82
25.583
25.359
25.147
24.951
24.772
24.61
24.466
24.341
24.235
24.148
24.078
24.026
23.99
23.97
23.963
23.969
23.986
24.012
24.045
24.083
24.124
24.166
24.206
24.242
24.273
24.295
24.307
24.308
24.295
24.267
24.222
24.159
24.078
23.976
23.853
23.708
23.541
23.35
23.135
22.897
22.634
22.348
22.038
21.705
21.348
20.968
20.565
20.14
19.693
19.224
18.734
18.225
17.696
17.149
16.585
16.006
15.413
14.807
14.189
13.56
12.921
12.272
11.616
10.951
10.279
9.6
8.915
8.224
7.529
6.829
6.123
5.413
4.697
3.977
3.252
2.523
1.789
1.052
0.313
-0.427
-1.165
-1.901
-2.632
-3.356
-4.072
-4.778
-5.473
-6.157
-6.828
-7.483
-8.123
-8.746
-9.349
-9.93
-10.484
-11.007
-11.496
-11.948
-12.36
-12.728
-13.051
-13.323
-13.543
-13.709
-13.821
-13.874
-13.862
-13.776
-13.616
-13.385
-13.092
-12.745
-12.348
-11.91
-11.439
-10.951
-10.453
-9.947
-9.426
-8.88
-8.308
-7.715
-7.115
-6.525
-5.95
-5.387
-4.83
-4.28
-3.737
-3.199
-2.651
-2.073
-1.459
-0.825
-0.21
0.347
0.817
1.189
1.464
1.642
1.716
1.673
1.508
1.227
0.839
0.341
-0.286
-1.068
-2.015
-3.1
-4.271
-5.473
-6.665
-7.824
-8.939
-9.996
-10.983
-11.897
-12.747
-13.563
-14.387
-15.246
-16.157
-17.137
-18.207
-19.425
-20.861
-22.571
-24.61
-27.025
-29.854
-33.138
-36.902
-41.132
-45.815
-50.953
-56.463
-62.195
-67.91
-73.238
-77.824
-81.386
-83.582
-84.009
-82.462
-78.975
-73.877
-67.975
-62.068
-56.748
-52.742
-50.762
-51.128
-53.725
-57.761
-61.576
-63.532
-62.056
-55.081
-40.767
-17.755
13.783
51.598
93.099
136.42
181.835
230.141
278.736
320.823
344.987
339.781
300.196
228.574
135.163
32.739
-70.964
-173.352
-277.675
-388.033
-501.418
-608.958
-697.066
-752.974
-772.573
-759.881
-724.732
-677.533
-624.549
-567.706
-506.317
-440.797
-373.517
-308.118
-248.913
-198.6
-157.982
-127.113
-104.915
-89.767
-80.493
-75.585
-73.237
-71.974
-70.335
-67.078
-61.897
-55.05
-46.844
-37.886
-28.887
-20.415
-13.223
-8
-4.898
-3.768
-4.292
-5.974
-8.37
-11.105
-13.723
-15.801
-17.104
-17.517
-17.061
-15.855
-13.992
-11.569
-8.695
-5.485
-2.047
1.528
5.158
8.773
12.307
15.696
18.874
21.788
24.389
26.634
28.516
30.048
31.258
32.186
32.874
33.367
33.719
33.989
34.233
34.501
34.84
35.285
35.878
36.658
37.66
38.919
40.459
42.289
44.418
46.849
49.58
52.608
55.924
59.512
63.36
67.454
71.782
76.331
81.085
86.024
91.128
96.375
101.745
107.216
112.766
118.371
124.005
129.647
135.27
140.849
146.358
151.766
157.046
162.168
167.106
171.833
176.323
180.55
184.491
188.126
191.435
194.398
196.993
199.198
200.995
202.375
203.333
203.868
203.98
203.67
202.943
201.811
200.281
198.357
196.037
193.311
190.177
186.642
182.721
178.44
173.815
168.855
163.569
157.963
152.043
145.822
139.301
132.469
125.336
117.925
110.281
102.476
94.562
86.581
78.567
70.544
62.545
54.614
46.79
39.107
31.605
24.319
17.303
10.631
4.343
-1.543
-7.034
-12.171
-16.98
-21.468
-25.648
-29.524
-33.107
-36.418
-39.464
-42.246
-44.776
-47.071
-49.163
-51.107
-52.931
-54.646
-56.246
-57.704
-59.004
-60.144
-61.118
-61.922
-62.555
-63.015
-63.31
-63.462
-63.482
-63.378
-63.146
-62.776
-62.265
-61.623
-60.865
-60.014
-59.087
-58.097
-57.061
-55.995
-54.913
-53.824
-52.734
-51.639
-50.539
-49.439
-48.344
-47.26
-46.193
-45.144
-44.114
-43.104
-42.114
-41.144
-40.193
-39.258
-38.337
-37.432
-36.541
-35.667
-34.812
-33.976
-33.159
-32.363
-31.587
-30.833
-30.099
-29.386
-28.693
-28.019
-27.366
-26.732
-26.12
-25.528
-24.958
-24.41
-23.884
-23.38
-22.9
-22.444
-22.01
-21.601
-21.215
-20.853
-20.515
-20.2
-19.91
-19.642
-19.399
-19.178
-18.98
-18.804
-18.65
-18.516
-18.401
-18.305
-18.225
-18.161
-18.111
-18.076
-18.052
-18.04
-18.038
-18.045
-18.06
-18.081
-18.108
-18.138
-18.172
-18.208
-18.246
-18.285
-18.325
-18.365
-18.405
-18.446
-18.487
-18.529
-18.573
-18.618
-18.666
-18.717
-18.773
-18.835
-18.904
-18.983
-19.073
-19.176
-19.295
-19.43
-19.584
-19.759
-19.957
-20.179
-20.428
-20.706
-21.014
-21.354
-21.727
-22.137
-22.583
-23.068
-23.591
-24.154
-24.756
-25.399
-26.081
-26.803
-27.564
-28.363
-29.199
-30.069
-30.973
-31.906
-32.865
-33.847
-34.847
-35.86
-36.881
-37.903
-38.922
-39.931
-40.927
-41.903
-42.854
-43.774
-44.657
-45.498
-46.291
-47.029
-47.703
-48.307
-48.833
-49.275
-49.627
-49.885
-50.042
-50.092
-50.034
-49.865
-49.582
-49.182
-48.659
-48.005
-47.219
-46.308
-45.281
-44.148
-42.917
-41.596
-40.198
-38.741
-37.237
-35.692
-34.099
-32.455
-30.76
-29.026
-27.27
-25.514
-23.766
-22.025
-20.289
-18.562
-16.849
-15.151
-13.457
-11.746
-10.015
-8.283
-6.591
-4.986
-3.49
-2.114
-0.855
0.286
1.298
2.166
2.885
3.466
3.915
4.231
4.391
4.359
4.127
3.723
3.203
2.625
2.019
1.398
0.767
0.139
-0.471
-1.054
-1.63
-2.246
-2.942
-3.754
-4.695
-5.761
-6.973
-8.371
-10.019
-11.993
-14.345
-17.113
-20.328
-24.005
-28.176
-32.906
-38.146
-43.731
-49.41
-54.791
-59.533
-63.421
-66.158
-67.362
-66.839
-64.616
-61.061
-57.017
-53.235
-50.171
-48.34
-48.254
-50.114
-53.746
-58.316
-62.075
-63.32
-60.731
-52.679
-37.69
-14.849
16.475
55
98.096
144.25
191.085
237.062
280.527
315.234
336.075
337.616
314.61
269.304
204.123
122.943
33.231
-63.384
-165.554
-270.936
-380.298
-487.397
-581.688
-654.706
-696.846
-706.693
-691.28
-656.867
-611.242
-558.809
-498.667
-432.318
-362.085
-290.849
-223.842
-164.681
-115.11
-76.306
-47.929
-28.651
-17.132
-11.845
-10.739
-11.861
-13.397
-13.563
-11.502
-7.222
-0.977
6.73
15.124
23.488
30.986
36.684
40.246
41.787
41.594
40.166
38.003
35.523
33.238
31.69
31.149
31.701
33.315
35.821
39.094
43.031
47.487
52.3
57.328
62.451
67.574
72.626
77.519
82.16
86.462
90.345
93.769
96.722
99.212
101.268
102.923
104.218
105.206
105.947
106.501
106.926
107.276
107.598
107.947
108.376
108.934
109.674
110.63
111.824
113.275
114.995
116.995
119.287
121.87
124.738
127.885
131.303
134.98
138.907
143.062
147.417
151.946
156.628
161.443
166.379
171.416
176.53
181.698
186.898
192.113
197.335
202.558
207.773
212.983
218.2
223.442
228.738
234.1
239.525
245.005
250.523
256.059
261.597
267.114
272.576
277.946
283.176
288.215
293.01
297.485
301.557
305.135
308.122
310.442
312.041
312.87
312.894
312.089
310.435
307.925
304.562
300.347
295.299
289.445
282.82
275.487
267.515
258.979
249.966
240.552
230.808
220.81
210.625
200.316
189.948
179.584
169.296
159.167
149.269
139.658
130.388
121.495
113.02
105
97.457
90.411
83.872
77.841
72.32
67.312
62.805
58.773
55.175
51.948
49.043
46.423
44.048
41.888
39.898
38.033
36.267
34.578
32.952
31.38
29.849
28.346
26.874
25.445
24.086
22.832
21.707
20.722
19.889
19.216
18.716
18.398
18.261
18.293
18.481
18.814
19.281
19.873
20.57
21.347
22.176
23.026
23.873
24.698
25.484
26.216
26.88
27.464
27.964
28.378
28.706
28.945
29.091
29.141
29.097
28.96
28.734
28.421
28.024
27.545
26.987
26.352
25.641
24.857
24.001
23.072
22.073
21.006
19.875
18.683
17.435
16.133
14.782
13.386
11.951
10.479
8.975
7.441
5.882
4.301
2.701
1.085
-0.544
-2.183
-3.829
-5.48
-7.134
-8.789
-10.442
-12.091
-13.734
-15.369
-16.994
-18.607
-20.205
-21.788
-23.352
-24.896
-26.419
-27.918
-29.392
-30.839
-32.259
-33.65
-35.01
-36.34
-37.638
-38.904
-40.136
-41.334
-42.498
-43.627
-44.722
-45.782
-46.808
-47.799
-48.757
-49.681
-50.574
-51.434
-52.264
-53.065
-53.838
-54.584
-55.305
-56.004
-56.682
-57.34
-57.982
-58.61
-59.225
-59.83
-60.427
-61.019
-61.607
-62.195
-62.785
-63.378
-63.976
-64.582
-65.196
-65.821
-66.457
-67.106
-67.766
-68.439
-69.125
-69.823
-70.532
-71.251
-71.978
-72.713
-73.453
-74.196
-74.939
-75.68
-76.414
-77.139
-77.85
-78.544
-79.217
-79.865
-80.483
-81.067
-81.613
-82.116
-82.571
-82.976
-83.325
-83.614
-83.839
-83.996
-84.083
-84.096
-84.034
-83.893
-83.673
-83.373
-82.992
-82.532
-81.992
-81.375
-80.682
-79.916
-79.08
-78.179
-77.218
-76.2
-75.134
-74.026
-72.884
-71.716
-70.532
-69.339
-68.146
-66.964
-65.8
-64.663
-63.559
-62.496
-61.483
-60.527
-59.636
-58.818
-58.079
-57.425
-56.86
-56.389
-56.012
-55.728
-55.534
-55.427
-55.408
-55.478
-55.639
-55.889
-56.225
-56.642
-57.131
-57.678
-58.268
-58.875
-59.478
-60.057
-60.595
-61.084
-61.514
-61.872
-62.143
-62.308
-62.349
-62.254
-62.017
-61.635
-61.122
-60.51
-59.844
-59.188
-58.602
-58.125
-57.807
-57.7
-57.854
-58.336
-59.2
-60.482
-62.244
-64.579
-67.504
-70.953
-74.747
-78.561
-82.09
-85.114
-87.372
-88.521
-88.363
-86.943
-84.607
-82.061
-79.962
-78.632
-78.351
-79.588
-82.6
-87.173
-92.571
-97.305
-99.782
-99.071
-94.188
-83.585
-65.963
-40.532
-8.022
28.763
67.14
105.731
145.153
186.393
227.088
261.063
278.103
267.959
226.644
156.774
66.859
-31.901
-131.933
-231.058
-328.925
-426.015
-520.592
-604.751
-671.387
-714.782
-730.822
-723.294
-696.651
-655.262
-605.258
-548.382
-486.777
-423.88
-361.483
-303.099
-251.782
-208.629
-174.448
-148.85
-130.39
-117.761
-109.71
-104.58
-100.895
-97.371
-92.745
-86.546
-78.987
-70.402
-61.256
-52.193
-43.767
-36.594
-31.388
-28.354
-27.306
-27.94
-29.788
-32.389
-35.367
-38.266
-40.586
-42.033
-42.484
-41.922
-40.456
-38.18
-35.158
-31.501
-27.343
-22.811
-18.027
-13.094
-8.092
-3.107
1.76
6.417
10.773
14.751
18.315
21.453
24.171
26.493
28.449
30.078
31.426
32.552
33.51
34.355
35.136
35.897
36.686
37.551
38.54
39.699
41.056
42.629
44.433
46.476
48.767
51.316
54.121
57.174
60.466
63.987
67.725
71.667
75.793
80.071
84.471
88.967
93.539
98.175
102.855
107.559
112.259
116.925
121.539
126.094
130.584
135.004
139.357
143.655
147.928
152.227
156.582
161.012
165.517
170.081
174.698
179.363
184.068
188.803
193.545
198.251
202.886
207.409
211.749
215.823
219.512
222.67
225.186
226.975
227.97
228.128
227.4
225.735
223.101
219.472
214.833
209.181
202.507
194.816
186.165
176.633
166.346
155.459
144.097
132.371
120.39
108.248
96.048
83.902
71.902
60.144
48.742
37.802
27.439
17.751
8.785
0.563
-6.92
-13.7
-19.796
-25.227
-30.031
-34.238
-37.881
-41.011
-43.667
-45.908
-47.82
-49.488
-51.002
-52.437
-53.837
-55.231
-56.643
-58.075
-59.533
-61.017
-62.512
-64.011
-65.51
-66.995
-68.454
-69.861
-71.171
-72.343
-73.344
-74.146
-74.739
-75.118
-75.278
-75.226
-74.977
-74.547
-73.957
-73.223
-72.358
-71.378
-70.3
-69.147
-67.95
-66.732
-65.512
-64.304
-63.122
-61.973
-60.866
-59.803
-58.783
-57.803
-56.861
-55.956
-55.091
-54.264
-53.473
-52.717
-51.99
-51.292
-50.62
-49.973
-49.349
-48.746
-48.162
-47.596
-47.05
-46.523
-46.012
-45.516
-45.033
-44.56
-44.096
-43.639
-43.185
-42.733
-42.282
-41.831
-41.378
-40.924
-40.467
-40.007
-39.543
-39.075
-38.604
-38.128
-37.648
-37.163
-36.675
-36.181
-35.684
-35.183
-34.677
-34.167
-33.654
-33.136
-32.616
-32.091
-31.564
-31.035
-30.503
-29.971
-29.44
-28.909
-28.381
-27.857
-27.338
-26.825
-26.319
-25.821
-25.331
-24.849
-24.377
-23.915
-23.463
-23.021
-22.592
-22.177
-21.775
-21.389
-21.019
-20.665
-20.33
-20.014
-19.718
-19.443
-19.189
-18.957
-18.749
-18.566
-18.409
-18.277
-18.17
-18.089
-18.031
-17.996
-17.981
-17.983
-18
-18.029
-18.07
-18.12
-18.177
-18.24
-18.309
-18.382
-18.459
-18.535
-18.606
-18.666
-18.712
-18.739
-18.739
-18.708
-18.64
-18.53
-18.377
-18.18
-17.935
-17.637
-17.277
-16.849
-16.352
-15.788
-15.158
-14.463
-13.711
-12.915
-12.097
-11.281
-10.48
-9.7
-8.94
-8.2
-7.481
-6.786
-6.113
-5.453
-4.793
-4.125
-3.448
-2.76
-2.048
-1.281
-0.409
0.609
1.798
3.168
4.719
6.454
8.368
10.445
12.652
14.931
17.232
19.521
21.774
23.971
26.072
28.015
29.719
31.122
32.175
32.846
33.106
32.915
32.258
31.148
29.627
27.769
25.635
23.268
20.703
17.97
15.113
12.19
9.256
6.351
3.507
0.758
-1.845
-4.247
-6.425
-8.393
-10.196
-11.898
-13.532
-15.142
-16.813
-18.563
-20.342
-22.01
-23.279
-23.876
-23.627
-22.312
-19.658
-15.57
-10.139
-3.733
2.822
8.749
13.547
16.647
17.49
15.841
11.829
6.199
0.653
-3.061
-3.64
0.595
11.375
29.808
56.701
91.127
129.789
170.582
212.116
253.132
294.106
330.889
355.327
359.933
336.435
283.495
208.018
117.821
21.706
-75.749
-176.991
-283.812
-394.361
-501.807
-593.223
-656.765
-687.308
-686.822
-663.67
-626.828
-581.81
-530.676
-472.679
-408.333
-340.385
-272.471
-209.241
-153.986
-108.077
-72.202
-45.919
-27.97
-17.121
-11.919
-10.353
-10.568
-10.876
-9.685
-6.336
-0.913
6.324
14.847
23.872
32.693
40.499
46.437
50.236
52.024
52.083
50.896
48.929
46.582
44.332
42.671
41.87
42.026
43.118
45.008
47.586
50.762
54.416
58.413
62.631
66.967
71.333
75.662
79.888
83.929
87.71
91.161
94.223
96.869
99.1
100.935
102.404
103.548
104.407
105.031
105.481
105.809
106.069
106.308
106.568
106.893
107.332
107.931
108.731
109.764
111.046
112.589
114.4
116.479
118.822
121.423
124.269
127.353
130.668
134.209
137.964
141.92
146.056
150.346
154.764
159.278
163.857
168.473
173.104
177.73
182.341
186.924
191.47
195.96
200.369
204.674
208.852
212.887
216.763
220.475
224.027
227.428
230.692
233.821
236.799
239.603
242.2
244.55
246.611
248.35
249.742
250.77
251.426
251.694
251.556
250.978
249.907
248.295
246.088
243.257
239.798
235.721
231.045
225.808
220.061
213.847
207.206
200.163
192.719
184.898
176.736
168.294
159.663
150.928
142.17
133.456
124.833
116.342
108.017
99.874
91.912
84.139
76.566
69.227
62.184
55.474
49.111
43.087
37.361
31.901
26.687
21.698
16.919
12.341
7.952
3.756
-0.226
-3.985
-7.52
-10.848
-14.013
-17.036
-19.923
-22.665
-25.234
-27.61
-29.786
-31.752
-33.496
-35.012
-36.295
-37.352
-38.205
-38.867
-39.346
-39.642
-39.742
-39.648
-39.367
-38.917
-38.317
-37.589
-36.746
-35.805
-34.789
-33.712
-32.59
-31.431
-30.238
-29.015
-27.771
-26.515
-25.261
-24.015
-22.785
-21.577
-20.394
-19.241
-18.122
-17.041
-15.998
-14.996
-14.037
-13.126
-12.267
-11.464
-10.721
-10.038
-9.419
-8.864
-8.374
-7.949
-7.587
-7.289
-7.053
-6.877
-6.761
-6.702
-6.698
-6.748
-6.848
-6.996
-7.19
-7.426
-7.702
-8.015
-8.363
-8.742
-9.15
-9.583
-10.038
-10.514
-11.006
-11.512
-12.029
-12.554
-13.085
-13.619
-14.153
-14.684
-15.212
-15.733
-16.245
-16.748
-17.24
-17.721
-18.19
-18.645
-19.089
-19.519
-19.937
-20.342
-20.735
-21.115
-21.483
-21.84
-22.186
-22.521
-22.847
-23.163
-23.472
-23.773
-24.067
-24.355
-24.639
-24.918
-25.194
-25.467
-25.738
-26.009
-26.28
-26.552
-26.827
-27.105
-27.388
-27.674
-27.966
-28.264
-28.566
-28.874
-29.186
-29.503
-29.825
-30.15
-30.481
-30.815
-31.154
-31.497
-31.845
-32.197
-32.553
-32.913
-33.276
-33.643
-34.013
-34.387
-34.763
-35.143
-35.526
-35.912
-36.299
-36.687
-37.075
-37.46
-37.84
-38.214
-38.578
-38.93
-39.269
-39.593
-39.899
-40.188
-40.458
-40.709
-40.939
-41.148
-41.333
-41.49
-41.618
-41.71
-41.764
-41.774
-41.738
-41.651
-41.511
-41.317
-41.068
-40.762
-40.398
-39.97
-39.475
-38.908
-38.27
-37.562
-36.793
-35.974
-35.118
-34.242
-33.364
-32.499
-31.653
-30.831
-30.026
-29.232
-28.441
-27.653
-26.873
-26.108
-25.361
-24.631
-23.916
-23.203
-22.473
-21.7
-20.852
-19.906
-18.853
-17.702
-16.479
-15.22
-13.966
-12.746
-11.58
-10.482
-9.463
-8.529
-7.677
-6.92
-6.277
-5.78
-5.478
-5.404
-5.571
-5.97
-6.565
-7.306
-8.138
-9.014
-9.894
-10.75
-11.571
-12.368
-13.186
-14.055
-15
-16.018
-17.079
-18.179
-19.345
-20.623
-22.083
-23.8
-25.829
-28.253
-31.192
-34.687
-38.703
-43.069
-47.451
-51.569
-55.224
-58.191
-60.23
-61.16
-60.883
-59.647
-58.041
-56.55
-55.547
-55.286
-55.936
-57.747
-60.821
-64.615
-68.048
-69.928
-68.962
-64.305
-55.258
-40.459
-18.884
9.579
44.611
84.14
125.514
167.975
209.589
248.681
283.855
309.367
320.581
313.135
282.393
230.052
159.378
75.496
-14.932
-110.201
-210.65
-316.907
-427.499
-534.316
-624.871
-687.85
-717.273
-715.346
-691.161
-653.701
-608.885
-558.982
-502.594
-439.917
-373.608
-307.149
-245.347
-191.689
-147.452
-113.184
-88.363
-71.597
-61.593
-56.886
-55.422
-55.368
-55.17
-53.415
-49.574
-43.825
-36.471
-28.061
-19.413
-11.216
-4.203
0.898
3.928
5.077
4.658
3.158
1.06
-1.233
-3.255
-4.552
-4.915
-4.285
-2.707
-0.331
2.731
6.379
10.477
14.879
19.453
24.086
28.686
33.18
37.482
41.503
45.164
48.39
51.148
53.43
55.247
56.631
57.617
58.25
58.583
58.678
58.594
58.389
58.118
57.831
57.581
57.419
57.398
57.566
57.96
58.603
59.516
60.709
62.189
63.963
66.03
68.387
71.035
73.972
77.193
80.69
84.449
88.454
92.684
97.114
101.712
106.45
111.3
116.238
121.243
126.295
131.375
136.459
141.521
146.543
151.512
156.422
161.266
166.045
170.758
175.416
180.04
184.646
189.236
193.808
198.342
202.816
207.207
211.488
215.629
219.59
223.32
226.767
229.88
232.603
234.876
236.627
237.771
238.233
237.957
236.902
235.041
232.362
228.856
224.534
219.422
213.556
206.979
199.737
191.868
183.429
174.488
165.127
155.451
145.558
135.539
125.488
115.497
105.643
95.998
86.614
77.519
68.748
60.334
52.314
44.735
37.629
31.008
24.873
19.216
14.013
9.241
4.857
0.802
-2.969
-6.494
-9.794
-12.876
-15.755
-18.452
-20.996
-23.42
-25.752
-28.006
-30.199
-32.343
-34.439
-36.481
-38.447
-40.295
-41.999
-43.544
-44.921
-46.137
-47.194
-48.086
-48.815
-49.382
-49.787
-50.036
-50.133
-50.08
-49.885
-49.563
-49.138
-48.642
-48.1
-47.531
-46.948
-46.361
-45.78
-45.213
-44.665
-44.135
-43.626
-43.138
-42.674
-42.238
-41.831
-41.45
-41.093
-40.753
-40.426
-40.108
-39.795
-39.485
-39.175
-38.862
-38.545
-38.225
-37.903
-37.575
-37.242
-36.9
-36.548
-36.185
-35.809
-35.417
-35.008
-34.58
-34.134
-33.668
-33.184
-32.68
-32.157
-31.617
-31.061
-30.489
-29.904
-29.308
-28.702
-28.089
-27.471
-26.851
-26.231
-25.614
-25.002
-24.398
-23.804
-23.221
-22.652
-22.098
-21.561
-21.042
-20.542
-20.062
-19.604
-19.167
-18.753
-18.362
-17.995
-17.651
-17.332
-17.036
-16.764
-16.514
-16.286
-16.08
-15.894
-15.727
-15.578
-15.446
-15.329
-15.226
-15.136
-15.057
-14.987
-14.926
-14.872
-14.824
-14.781
-14.741
-14.705
-14.671
-14.639
-14.608
-14.578
-14.55
-14.522
-14.497
-14.473
-14.452
-14.434
-14.421
-14.413
-14.412
-14.418
-14.434
-14.459
-14.495
-14.544
-14.605
-14.681
-14.771
-14.878
-15.002
-15.145
-15.307
-15.49
-15.695
-15.923
-16.174
-16.45
-16.751
-17.077
-17.43
-17.808
-18.212
-18.643
-19.1
-19.582
-20.087
-20.614
-21.16
-21.724
-22.301
-22.888
-23.48
-24.074
-24.667
-25.255
-25.835
-26.402
-26.956
-27.493
-28.011
-28.507
-28.975
-29.412
-29.811
-30.168
-30.475
-30.726
-30.915
-31.036
-31.084
-31.058
-30.955
-30.769
-30.497
-30.129
-29.661
-29.096
-28.434
-27.679
-26.837
-25.918
-24.939
-23.926
-22.897
-21.862
-20.828
-19.792
-18.754
-17.718
-16.685
-15.653
-14.623
-13.588
-12.549
-11.509
-10.464
-9.398
-8.284
-7.076
-5.75
-4.302
-2.741
-1.084
0.65
2.438
4.249
6.038
7.77
9.418
10.969
12.42
13.749
14.922
15.886
16.58
16.964
17.028
16.772
16.205
15.342
14.209
12.851
11.329
9.681
7.926
6.056
4.064
1.955
-0.25
-2.524
-4.85
-7.224
-9.657
-12.164
-14.747
-17.426
-20.246
-23.268
-26.558
-30.161
-34.06
-38.245
-42.756
-47.561
-52.551
-57.529
-62.13
-66.009
-68.939
-70.626
-70.714
-69.051
-65.696
-61.009
-55.835
-50.99
-47.028
-44.563
-44.16
-45.969
-49.724
-54.555
-58.707
-60.322
-57.858
-49.643
-34.177
-10.573
21.439
61.202
106.719
155.4
204.406
250.078
288.503
316.047
329.206
325.14
302.203
259.465
197.72
120.201
30.595
-67.636
-172.728
-284.386
-399.664
-511.172
-607.212
-676.166
-712.11
-717.087
-700.092
-670.207
-632.819
-589.593
-538.704
-479.785
-415.466
-349.046
-284.61
-225.738
-174.2
-130.976
-96.598
-70.634
-52.084
-40.156
-33.691
-30.87
-30.073
-29.692
-28.205
-25.116
-20.528
-14.492
-7.394
0.073
7.301
13.491
17.844
20.196
20.723
19.694
17.562
14.772
11.698
8.824
6.622
5.331
5.022
5.653
7.082
9.196
11.907
15.092
18.613
22.348
26.188
30.046
33.858
37.556
41.066
44.318
47.246
49.802
51.97
53.759
55.195
56.315
57.159
57.772
58.207
58.525
58.783
59.035
59.331
59.712
60.226
60.918
61.833
63.01
64.478
66.252
68.341
70.749
73.476
76.522
79.883
83.547
87.5
91.727
96.213
100.94
105.887
111.027
116.325
121.748
127.264
132.843
138.463
144.101
149.733
155.333
160.876
166.34
171.718
177.003
182.186
187.264
192.231
197.088
201.853
206.534
211.131
215.645
220.058
224.346
228.494
232.477
236.273
239.853
243.17
246.161
248.777
250.956
252.641
253.776
254.278
254.084
253.141
251.395
248.823
245.418
241.167
236.075
230.152
223.404
215.873
207.625
198.724
189.251
179.289
168.922
158.262
147.422
136.51
125.645
114.921
104.407
94.183
84.315
74.867
65.918
57.514
49.67
42.404
35.713
29.588
24.028
18.998
14.449
10.326
6.56
3.097
-0.093
-3.048
-5.803
-8.396
-10.882
-13.293
-15.641
-17.94
-20.195
-22.411
-24.597
-26.746
-28.83
-30.821
-32.678
-34.376
-35.907
-37.262
-38.432
-39.411
-40.183
-40.747
-41.114
-41.293
-41.294
-41.127
-40.797
-40.322
-39.727
-39.041
-38.295
-37.512
-36.709
-35.901
-35.102
-34.324
-33.579
-32.873
-32.207
-31.583
-31.007
-30.48
-30.009
-29.592
-29.229
-28.915
-28.648
-28.425
-28.244
-28.103
-28
-27.933
-27.9
-27.903
-27.94
-28.012
-28.117
-28.251
-28.414
-28.602
-28.814
-29.046
-29.297
-29.563
-29.842
-30.134
-30.436
-30.746
-31.064
-31.388
-31.717
-32.05
-32.386
-32.724
-33.065
-33.408
-33.753
-34.1
-34.45
-34.802
-35.157
-35.515
-35.876
-36.24
-36.607
-36.977
-37.349
-37.723
-38.1
-38.478
-38.857
-39.237
-39.617
-39.996
-40.373
-40.748
-41.12
-41.486
-41.847
-42.201
-42.547
-42.884
-43.21
-43.524
-43.825
-44.111
-44.382
-44.635
-44.871
-45.087
-45.283
-45.457
-45.609
-45.739
-45.846
-45.93
-45.991
-46.029
-46.044
-46.039
-46.013
-45.968
-45.905
-45.828
-45.738
-45.637
-45.528
-45.415
-45.3
-45.187
-45.079
-44.978
-44.89
-44.816
-44.761
-44.727
-44.719
-44.738
-44.79
-44.875
-44.999
-45.162
-45.369
-45.62
-45.919
-46.268
-46.667
-47.118
-47.623
-48.181
-48.792
-49.457
-50.174
-50.942
-51.759
-52.623
-53.53
-54.477
-55.459
-56.473
-57.512
-58.571
-59.644
-60.725
-61.808
-62.885
-63.95
-64.995
-66.013
-66.998
-67.941
-68.835
-69.674
-70.449
-71.154
-71.781
-72.325
-72.778
-73.134
-73.388
-73.533
-73.565
-73.479
-73.272
-72.938
-72.477
-71.886
-71.163
-70.31
-69.326
-68.213
-66.976
-65.617
-64.142
-62.557
-60.87
-59.088
-57.221
-55.276
-53.265
-51.197
-49.084
-46.936
-44.765
-42.581
-40.399
-38.23
-36.089
-33.988
-31.939
-29.956
-28.049
-26.232
-24.517
-22.914
-21.43
-20.074
-18.854
-17.777
-16.854
-16.088
-15.479
-15.025
-14.719
-14.555
-14.526
-14.618
-14.813
-15.094
-15.442
-15.844
-16.293
-16.777
-17.282
-17.794
-18.287
-18.749
-19.174
-19.555
-19.893
-20.193
-20.454
-20.691
-20.941
-21.236
-21.614
-22.107
-22.727
-23.488
-24.408
-25.51
-26.843
-28.448
-30.356
-32.6
-35.183
-38.125
-41.489
-45.264
-49.342
-53.539
-57.547
-61.072
-63.947
-65.946
-66.778
-66.262
-64.321
-61.179
-57.449
-53.752
-50.559
-48.292
-47.362
-48.084
-50.593
-54.45
-58.539
-61.423
-61.698
-58.248
-49.74
-34.698
-12.176
18.245
55.285
95.758
137.773
180.173
222.083
264.065
301.915
327.773
334.268
313.026
262.914
189.871
100.74
5.246
-91.99
-191.876
-294.277
-400.326
-504.917
-597.035
-667.606
-707.742
-716.441
-700.658
-666.703
-622.133
-570.99
-512.494
-448.135
-380.011
-310.914
-245.873
-188.29
-139.812
-101.504
-72.967
-52.933
-40.146
-33.133
-29.898
-28.536
-27.318
-24.604
-19.668
-12.607
-3.739
6.38
16.934
27.165
36.231
43.234
47.857
50.222
50.616
49.533
47.466
44.83
42.124
39.865
38.344
37.702
37.955
38.991
40.723
43.076
45.938
49.189
52.722
56.431
60.234
64.062
67.842
71.502
74.968
78.172
81.057
83.576
85.709
87.466
88.868
89.952
90.758
91.331
91.724
91.999
92.214
92.42
92.663
92.983
93.423
94.027
94.837
95.89
97.214
98.822
100.729
102.939
105.457
108.279
111.396
114.794
118.459
122.385
126.565
130.987
135.637
140.494
145.534
150.737
156.074
161.514
167.017
172.544
178.062
183.547
188.98
194.342
199.611
204.764
209.777
214.639
219.338
223.863
228.199
232.333
236.261
239.992
243.55
246.953
250.207
253.302
256.22
258.945
261.459
263.741
265.765
267.488
268.869
269.88
270.495
270.687
270.42
269.642
268.288
266.304
263.647
260.289
256.224
251.439
245.94
239.743
232.869
225.368
217.291
208.677
199.576
190.045
180.151
169.98
159.638
149.223
138.84
128.598
118.579
108.869
99.54
90.65
82.261
74.408
67.121
60.43
54.349
48.883
44.031
39.774
36.073
32.883
30.142
27.773
25.717
23.919
22.327
20.9
19.586
18.344
17.144
15.964
14.787
13.602
12.395
11.16
9.909
8.655
7.427
6.266
5.194
4.23
3.389
2.68
2.118
1.713
1.464
1.362
1.397
1.56
1.844
2.242
2.736
3.306
3.93
4.579
5.234
5.882
6.507
7.1
7.652
8.153
8.602
9.004
9.358
9.665
9.926
10.139
10.308
10.437
10.531
10.595
10.633
10.648
10.642
10.62
10.584
10.535
10.474
10.402
10.319
10.227
10.128
10.024
9.916
9.807
9.696
9.586
9.479
9.374
9.272
9.172
9.074
8.978
8.883
8.787
8.691
8.591
8.487
8.378
8.26
8.134
7.996
7.846
7.682
7.501
7.303
7.086
6.849
6.591
6.31
6.005
5.676
5.321
4.939
4.531
4.094
3.63
3.137
2.616
2.067
1.49
0.886
0.255
-0.401
-1.081
-1.785
-2.511
-3.257
-4.021
-4.803
-5.6
-6.411
-7.234
-8.067
-8.909
-9.758
-10.614
-11.473
-12.336
-13.201
-14.066
-14.931
-15.793
-16.653
-17.507
-18.357
-19.201
-20.039
-20.87
-21.694
-22.51
-23.32
-24.123
-24.918
-25.707
-26.489
-27.265
-28.034
-28.797
-29.555
-30.307
-31.055
-31.799
-32.54
-33.278
-34.014
-34.748
-35.48
-36.211
-36.941
-37.669
-38.397
-39.125
-39.852
-40.578
-41.304
-42.029
-42.752
-43.472
-44.187
-44.895
-45.595
-46.282
-46.955
-47.609
-48.242
-48.851
-49.434
-49.988
-50.511
-51.001
-51.456
-51.875
-52.253
-52.588
-52.874
-53.108
-53.284
-53.398
-53.444
-53.418
-53.315
-53.134
-52.873
-52.531
-52.103
-51.587
-50.975
-50.266
-49.46
-48.56
-47.57
-46.501
-45.364
-44.179
-42.97
-41.749
-40.529
-39.314
-38.1
-36.888
-35.676
-34.459
-33.245
-32.035
-30.829
-29.633
-28.447
-27.263
-26.067
-24.832
-23.518
-22.108
-20.597
-18.989
-17.313
-15.595
-13.866
-12.169
-10.536
-8.987
-7.546
-6.216
-4.998
-3.906
-2.962
-2.201
-1.68
-1.428
-1.454
-1.761
-2.319
-3.092
-4.044
-5.116
-6.256
-7.441
-8.647
-9.881
-11.173
-12.537
-13.985
-15.533
-17.169
-18.896
-20.735
-22.689
-24.796
-27.11
-29.682
-32.585
-35.883
-39.581
-43.703
-48.292
-53.28
-58.533
-63.823
-68.767
-73.035
-76.411
-78.605
-79.269
-78.218
-75.456
-71.309
-66.571
-61.971
-57.956
-55.023
-53.685
-54.179
-56.403
-59.638
-62.229
-62.494
-59.233
-50.955
-36.109
-13.724
16.894
54.834
96.865
140.874
185.526
229.594
273.466
313.15
340.726
348.84
329.454
281.096
210.17
124.119
31.462
-63.404
-162.995
-269.285
-380.829
-490.825
-585.697
-652.902
-686.597
-688.6
-668.2
-635.218
-595.679
-551.726
-501.887
-446.002
-386.395
-326.327
-270.232
-221.077
-179.89
-147.118
-122.227
-104.055
-91.505
-83.346
-77.918
-73.737
-69.488
-63.902
-56.483
-47.388
-36.934
-25.652
-14.28
-3.467
6.089
13.631
18.913
22.057
23.291
23.036
21.726
19.724
17.474
15.436
13.867
12.893
12.572
12.865
13.747
15.196
17.134
19.463
22.099
24.967
28.008
31.169
34.381
37.571
40.678
43.649
46.443
49.026
51.362
53.418
55.184
56.67
57.9
58.91
59.737
60.423
61.015
61.567
62.129
62.747
63.462
64.309
65.321
66.533
67.976
69.683
71.678
73.975
76.588
79.52
82.767
86.321
90.168
94.286
98.651
103.237
108.013
112.953
118.03
123.219
128.496
133.831
139.195
144.562
149.901
155.189
160.414
165.563
170.628
175.619
180.541
185.407
190.241
195.047
199.821
204.556
209.238
213.857
218.402
222.849
227.177
231.361
235.363
239.141
242.643
245.787
248.494
250.684
252.26
253.158
253.328
252.718
251.291
249.008
245.838
241.768
236.793
230.909
224.122
216.454
207.953
198.706
188.808
178.355
167.464
156.231
144.748
133.121
121.452
109.844
98.403
87.224
76.387
65.984
56.105
46.818
38.166
30.158
22.79
16.054
9.929
4.392
-0.582
-5.04
-9.033
-12.617
-15.862
-18.828
-21.568
-24.145
-26.625
-29.058
-31.483
-33.918
-36.367
-38.838
-41.33
-43.842
-46.364
-48.875
-51.35
-53.76
-56.068
-58.244
-60.265
-62.107
-63.749
-65.175
-66.376
-67.354
-68.12
-68.682
-69.051
-69.24
-69.264
-69.142
-68.898
-68.557
-68.144
-67.683
-67.191
-66.686
-66.182
-65.688
-65.215
-64.767
-64.344
-63.949
-63.583
-63.247
-62.944
-62.674
-62.434
-62.224
-62.041
-61.884
-61.752
-61.643
-61.558
-61.496
-61.456
-61.439
-61.446
-61.476
-61.529
-61.602
-61.692
-61.799
-61.917
-62.046
-62.181
-62.319
-62.458
-62.595
-62.726
-62.851
-62.967
-63.07
-63.16
-63.233
-63.289
-63.325
-63.34
-63.334
-63.303
-63.249
-63.17
-63.066
-62.935
-62.779
-62.596
-62.387
-62.151
-61.89
-61.604
-61.294
-60.962
-60.609
-60.238
-59.851
-59.451
-59.041
-58.623
-58.202
-57.781
-57.362
-56.95
-56.549
-56.16
-55.79
-55.44
-55.114
-54.816
-54.549
-54.316
-54.12
-53.965
-53.852
-53.783
-53.762
-53.789
-53.866
-53.994
-54.174
-54.407
-54.693
-55.031
-55.42
-55.858
-56.344
-56.875
-57.447
-58.058
-58.701
-59.373
-60.067
-60.78
-61.504
-62.233
-62.961
-63.681
-64.386
-65.068
-65.72
-66.335
-66.904
-67.421
-67.877
-68.266
-68.582
-68.816
-68.963
-69.017
-68.971
-68.821
-68.561
-68.188
-67.698
-67.087
-66.354
-65.499
-64.521
-63.421
-62.203
-60.871
-59.428
-57.882
-56.238
-54.503
-52.687
-50.797
-48.844
-46.837
-44.787
-42.706
-40.605
-38.499
-36.4
-34.323
-32.281
-30.286
-28.351
-26.491
-24.718
-23.044
-21.478
-20.03
-18.708
-17.523
-16.486
-15.604
-14.878
-14.306
-13.886
-13.614
-13.485
-13.489
-13.608
-13.827
-14.13
-14.505
-14.948
-15.449
-15.993
-16.568
-17.151
-17.731
-18.305
-18.867
-19.413
-19.944
-20.457
-20.965
-21.501
-22.092
-22.772
-23.566
-24.487
-25.548
-26.764
-28.154
-29.755
-31.602
-33.722
-36.143
-38.874
-41.941
-45.41
-49.274
-53.438
-57.721
-61.81
-65.412
-68.339
-70.36
-71.191
-70.655
-68.696
-65.57
-61.941
-58.475
-55.674
-53.96
-53.718
-55.223
-58.555
-63.209
-67.965
-71.295
-71.738
-68.151
-59.225
-43.538
-20.168
11.268
49.459
91.227
134.645
178.526
221.968
265.578
305.319
333.299
342.174
323.724
276.504
206.98
122.505
31.519
-61.744
-159.874
-264.85
-375.161
-483.988
-578.097
-645.217
-679.698
-683.35
-664.904
-633.576
-594.777
-550.278
-498.762
-440.262
-377.462
-313.876
-253.713
-199.973
-153.857
-115.978
-86.403
-64.436
-49.024
-39.088
-33.235
-30.015
-28.231
-26.629
-24.109
-20.322
-15.38
-9.493
-3.141
3.144
8.936
13.637
16.672
17.934
17.601
15.977
13.516
10.633
7.668
5.045
3.187
2.3
2.443
3.57
5.537
8.23
11.56
15.397
19.6
24.044
28.613
33.217
37.795
42.268
46.556
50.583
54.279
57.609
60.57
63.177
65.458
67.451
69.194
70.735
72.132
73.437
74.702
75.974
77.292
78.7
80.241
81.956
83.887
86.063
88.497
91.198
94.168
97.404
100.905
104.667
108.676
112.916
117.374
122.034
126.878
131.886
137.034
142.286
147.61
152.976
158.355
163.729
169.077
174.378
179.61
184.752
189.788
194.714
199.528
204.225
208.806
213.268
217.617
221.876
226.056
230.163
234.204
238.164
242.024
245.774
249.395
252.863
256.154
259.218
261.996
264.441
266.499
268.113
269.228
269.767
269.663
268.868
267.328
265.013
261.908
257.994
253.266
247.732
241.4
234.305
226.513
218.075
209.06
199.548
189.616
179.365
168.9
158.318
147.724
137.222
126.894
116.823
107.088
97.745
88.872
80.516
72.694
65.428
58.722
52.567
46.957
41.869
37.257
33.078
29.275
25.774
22.527
19.485
16.598
13.829
11.125
8.442
5.764
3.074
0.367
-2.359
-5.109
-7.881
-10.652
-13.398
-16.087
-18.673
-21.13
-23.439
-25.576
-27.528
-29.276
-30.805
-32.113
-33.207
-34.093
-34.778
-35.27
-35.573
-35.709
-35.697
-35.562
-35.331
-35.025
-34.658
-34.248
-33.806
-33.344
-32.872
-32.395
-31.914
-31.43
-30.948
-30.47
-30.001
-29.542
-29.091
-28.647
-28.21
-27.779
-27.354
-26.935
-26.523
-26.118
-25.722
-25.336
-24.963
-24.603
-24.257
-23.925
-23.605
-23.298
-23.001
-22.715
-22.436
-22.165
-21.9
-21.64
-21.385
-21.134
-20.886
-20.641
-20.399
-20.159
-19.922
-19.687
-19.455
-19.226
-19
-18.779
-18.562
-18.35
-18.145
-17.946
-17.754
-17.571
-17.397
-17.232
-17.079
-16.938
-16.809
-16.695
-16.597
-16.515
-16.451
-16.406
-16.382
-16.379
-16.399
-16.443
-16.511
-16.604
-16.723
-16.867
-17.037
-17.233
-17.453
-17.699
-17.969
-18.262
-18.577
-18.914
-19.272
-19.648
-20.043
-20.455
-20.882
-21.323
-21.776
-22.239
-22.711
-23.191
-23.676
-24.166
-24.659
-25.153
-25.647
-26.14
-26.631
-27.118
-27.6
-28.076
-28.544
-29.004
-29.454
-29.893
-30.321
-30.738
-31.143
-31.536
-31.918
-32.288
-32.647
-32.994
-33.329
-33.653
-33.966
-34.267
-34.556
-34.834
-35.1
-35.353
-35.594
-35.822
-36.036
-36.234
-36.415
-36.577
-36.719
-36.836
-36.928
-36.99
-37.021
-37.02
-36.983
-36.911
-36.802
-36.652
-36.461
-36.227
-35.946
-35.615
-35.229
-34.781
-34.27
-33.693
-33.047
-32.329
-31.538
-30.674
-29.739
-28.734
-27.661
-26.517
-25.296
-23.999
-22.632
-21.204
-19.727
-18.213
-16.671
-15.116
-13.569
-12.043
-10.549
-9.088
-7.651
-6.236
-4.851
-3.506
-2.223
-1.011
0.132
1.206
2.213
3.154
4.027
4.849
5.653
6.451
7.245
8.018
8.735
9.381
9.955
10.456
10.892
11.253
11.521
11.69
11.758
11.725
11.586
11.31
10.846
10.171
9.282
8.194
6.942
5.527
3.942
2.191
0.283
-1.757
-3.904
-6.153
-8.515
-11.006
-13.624
-16.348
-19.138
-21.968
-24.838
-27.769
-30.781
-33.871
-37.026
-40.236
-43.532
-46.993
-50.623
-54.324
-57.892
-61.015
-63.419
-64.93
-65.325
-64.275
-61.58
-57.304
-51.826
-45.881
-40.207
-35.23
-31.34
-29.134
-28.979
-30.718
-33.663
-36.392
-37.223
-34.986
-28.516
-16.169
3.324
30.556
65.396
106.354
151.212
197.963
243.905
285.166
317.882
338.365
343.331
330.868
299.745
248.937
179.71
95.863
1.521
-99.146
-204.062
-313.049
-422.797
-525.92
-611.585
-669.057
-693.55
-687.888
-660.742
-621.129
-574.959
-524.306
-468.044
-406.38
-341.646
-277.012
-216.839
-164.227
-120.287
-85.604
-59.79
-41.681
-30.299
-24.465
-22.352
-22.305
-22.809
-22.326
-20.188
-16.416
-11.11
-4.664
2.227
8.975
14.85
19.046
21.341
21.871
20.895
18.892
16.331
13.606
11.211
9.626
9.073
9.62
11.214
13.693
16.94
20.851
25.279
30.07
35.084
40.206
45.342
50.41
55.314
59.948
64.214
68.045
71.412
74.309
76.754
78.777
80.412
81.708
82.722
83.507
84.119
84.609
85.023
85.413
85.831
86.331
86.965
87.776
88.789
90.025
91.497
93.208
95.164
97.362
99.797
102.47
105.376
108.508
111.859
115.42
119.173
123.099
127.174
131.369
135.658
140.019
144.432
148.88
153.341
157.793
162.219
166.593
170.899
175.127
179.269
183.32
187.288
191.178
195.007
198.802
202.574
206.324
210.048
213.731
217.368
220.949
224.453
227.861
231.145
234.264
237.183
239.854
242.205
244.169
245.666
246.601
246.912
246.548
245.468
243.643
241.037
237.619
233.386
228.338
222.483
215.844
208.434
200.288
191.482
182.093
172.215
161.96
151.415
140.661
129.793
118.892
108.056
97.39
86.966
76.851
67.114
57.814
49.027
40.808
33.171
26.124
19.66
13.757
8.405
3.59
-0.727
-4.586
-8.042
-11.165
-13.999
-16.585
-18.97
-21.196
-23.321
-25.392
-27.43
-29.448
-31.453
-33.447
-35.438
-37.429
-39.402
-41.335
-43.2
-44.958
-46.586
-48.07
-49.391
-50.537
-51.49
-52.236
-52.776
-53.118
-53.269
-53.24
-53.036
-52.667
-52.152
-51.515
-50.778
-49.97
-49.111
-48.217
-47.304
-46.385
-45.472
-44.574
-43.695
-42.837
-42
-41.188
-40.404
-39.65
-38.927
-38.233
-37.566
-36.926
-36.31
-35.72
-35.156
-34.616
-34.102
-33.616
-33.16
-32.736
-32.347
-31.992
-31.673
-31.389
-31.14
-30.925
-30.745
-30.598
-30.484
-30.401
-30.349
-30.328
-30.338
-30.377
-30.446
-30.545
-30.672
-30.827
-31.011
-31.221
-31.459
-31.724
-32.014
-32.329
-32.669
-33.031
-33.416
-33.82
-34.243
-34.682
-35.135
-35.601
-36.076
-36.558
-37.046
-37.537
-38.028
-38.518
-39.005
-39.486
-39.96
-40.425
-40.878
-41.318
-41.743
-42.152
-42.542
-42.911
-43.259
-43.584
-43.885
-44.159
-44.408
-44.628
-44.821
-44.985
-45.12
-45.226
-45.304
-45.354
-45.377
-45.375
-45.348
-45.299
-45.23
-45.144
-45.041
-44.925
-44.799
-44.665
-44.525
-44.383
-44.24
-44.101
-43.967
-43.841
-43.726
-43.624
-43.537
-43.469
-43.42
-43.394
-43.392
-43.415
-43.466
-43.545
-43.655
-43.794
-43.965
-44.167
-44.4
-44.663
-44.955
-45.274
-45.618
-45.983
-46.367
-46.767
-47.178
-47.595
-48.016
-48.435
-48.847
-49.248
-49.631
-49.993
-50.326
-50.627
-50.889
-51.107
-51.276
-51.391
-51.446
-51.437
-51.359
-51.208
-50.978
-50.668
-50.271
-49.787
-49.211
-48.542
-47.779
-46.922
-45.972
-44.93
-43.798
-42.582
-41.285
-39.915
-38.476
-36.975
-35.421
-33.822
-32.186
-30.523
-28.841
-27.151
-25.463
-23.789
-22.141
-20.53
-18.966
-17.461
-16.025
-14.67
-13.406
-12.243
-11.188
-10.248
-9.431
-8.744
-8.197
-7.795
-7.536
-7.42
-7.442
-7.596
-7.875
-8.266
-8.749
-9.308
-9.922
-10.576
-11.26
-11.961
-12.666
-13.356
-14.012
-14.618
-15.169
-15.66
-16.091
-16.467
-16.792
-17.088
-17.396
-17.756
-18.218
-18.823
-19.597
-20.572
-21.767
-23.21
-24.948
-27.013
-29.44
-32.258
-35.467
-39.088
-43.171
-47.683
-52.504
-57.417
-62.062
-66.094
-69.265
-71.269
-71.76
-70.536
-67.566
-63.162
-58.025
-52.918
-48.453
-45.233
-43.907
-44.858
-48.089
-52.979
-58.153
-61.881
-62.614
-58.786
-48.399
-29.978
-2.774
33.374
76.367
123.335
172.748
221.551
267.298
307.999
337.181
349.657
340.565
304.996
245.262
165.695
72.706
-26.989
-131.871
-241.173
-355.058
-468.756
-571.1
-651.827
-700.977
-716.817
-706.584
-676.989
-635.717
-587.154
-530.414
-466.967
-399.242
-330.117
-264.709
-206.63
-157.754
-119.232
-90.694
-70.857
-58.298
-51.593
-48.906
-48.367
-48.217
-46.717
-43.007
-37.117
-29.367
-20.25
-10.497
-0.837
7.888
14.692
19.156
21.37
21.59
20.305
18.011
15.127
12.178
9.74
8.148
7.542
7.935
9.196
11.211
13.907
17.157
20.825
24.789
28.935
33.177
37.445
41.662
45.736
49.58
53.109
56.252
58.978
61.274
63.157
64.657
65.81
66.662
67.265
67.677
67.958
68.163
68.341
68.541
68.81
69.2
69.761
70.54
71.57
72.876
74.473
76.37
78.571
81.079
83.89
86.995
90.393
94.076
98.034
102.258
106.732
111.434
116.344
121.435
126.671
132.023
137.461
142.954
148.483
154.029
159.568
165.078
170.534
175.915
181.212
186.421
191.532
196.542
201.445
206.242
210.954
215.591
220.152
224.634
229.017
233.279
237.4
241.361
245.136
248.694
251.985
254.951
257.549
259.731
261.448
262.647
263.253
263.203
262.46
260.99
258.773
255.798
252.049
247.516
242.213
236.159
229.386
221.951
213.899
205.28
196.161
186.612
176.731
166.612
156.332
145.969
135.608
125.333
115.242
105.425
95.945
86.868
78.254
70.14
62.565
55.56
49.136
43.296
38.026
33.304
29.113
25.424
22.195
19.369
16.875
14.647
12.637
10.794
9.064
7.406
5.783
4.163
2.533
0.882
-0.797
-2.507
-4.246
-6.007
-7.771
-9.51
-11.187
-12.769
-14.238
-15.573
-16.756
-17.775
-18.618
-19.286
-19.788
-20.131
-20.323
-20.374
-20.292
-20.093
-19.793
-19.416
-18.983
-18.515
-18.026
-17.53
-17.036
-16.555
-16.091
-15.647
-15.22
-14.809
-14.412
-14.03
-13.663
-13.308
-12.962
-12.624
-12.29
-11.956
-11.623
-11.288
-10.949
-10.608
-10.262
-9.914
-9.564
-9.213
-8.861
-8.51
-8.158
-7.805
-7.453
-7.1
-6.747
-6.394
-6.041
-5.691
-5.343
-5.001
-4.663
-4.334
-4.014
-3.705
-3.409
-3.129
-2.865
-2.621
-2.398
-2.199
-2.025
-1.878
-1.76
-1.673
-1.618
-1.598
-1.614
-1.666
-1.757
-1.887
-2.058
-2.27
-2.525
-2.821
-3.16
-3.542
-3.967
-4.433
-4.941
-5.489
-6.075
-6.699
-7.357
-8.049
-8.771
-9.521
-10.297
-11.096
-11.914
-12.75
-13.6
-14.461
-15.33
-16.205
-17.081
-17.957
-18.828
-19.693
-20.547
-21.388
-22.214
-23.021
-23.808
-24.572
-25.31
-26.021
-26.704
-27.356
-27.978
-28.567
-29.125
-29.651
-30.145
-30.608
-31.041
-31.446
-31.823
-32.176
-32.506
-32.815
-33.106
-33.381
-33.643
-33.894
-34.138
-34.376
-34.612
-34.848
-35.087
-35.333
-35.587
-35.851
-36.13
-36.423
-36.734
-37.065
-37.416
-37.789
-38.184
-38.602
-39.042
-39.504
-39.986
-40.488
-41.006
-41.539
-42.084
-42.637
-43.194
-43.751
-44.304
-44.848
-45.378
-45.889
-46.376
-46.834
-47.257
-47.64
-47.978
-48.266
-48.499
-48.671
-48.779
-48.818
-48.782
-48.669
-48.475
-48.197
-47.833
-47.381
-46.842
-46.214
-45.501
-44.703
-43.825
-42.87
-41.842
-40.748
-39.592
-38.382
-37.125
-35.829
-34.502
-33.154
-31.796
-30.439
-29.094
-27.773
-26.486
-25.243
-24.057
-22.938
-21.895
-20.937
-20.071
-19.308
-18.656
-18.126
-17.725
-17.454
-17.313
-17.301
-17.409
-17.633
-17.961
-18.376
-18.863
-19.409
-20
-20.63
-21.288
-21.958
-22.628
-23.278
-23.893
-24.468
-25
-25.482
-25.926
-26.341
-26.744
-27.175
-27.663
-28.237
-28.936
-29.786
-30.812
-32.044
-33.495
-35.189
-37.161
-39.434
-42.043
-45.018
-48.343
-52.027
-56.102
-60.518
-65.174
-69.876
-74.283
-78.081
-81.038
-82.862
-83.24
-81.965
-78.977
-74.583
-69.476
-64.366
-59.857
-56.54
-55.024
-55.762
-58.864
-63.718
-68.938
-72.911
-74.185
-71.145
-61.853
-44.774
-18.734
15.795
56.033
100.156
147.018
195.673
246.311
294.515
331.801
350.29
341.466
303.101
240.192
158.733
67.549
-27.779
-127.184
-231.447
-342.294
-456.786
-565.361
-655.257
-714.635
-738.507
-730.469
-700.291
-657.903
-609.9
-558.566
-502.645
-442.296
-379.469
-317.091
-259.647
-210.113
-169.321
-137.576
-113.998
-97.02
-85.818
-79.355
-75.856
-73.866
-72.01
-68.946
-64.349
-58.499
-51.523
-43.817
-36.073
-28.81
-22.73
-18.566
-16.42
-16.082
-17.266
-19.497
-22.316
-25.351
-28.122
-30.153
-31.221
-31.251
-30.278
-28.452
-25.875
-22.641
-18.881
-14.738
-10.346
-5.819
-1.251
3.283
7.697
11.897
15.797
19.317
22.414
25.078
27.318
29.167
30.658
31.834
32.749
33.462
34.032
34.516
34.964
35.425
35.948
36.584
37.385
38.4
39.664
41.2
43.026
45.147
47.57
50.292
53.309
56.607
60.18
64.018
68.118
72.473
77.071
81.893
86.919
92.122
97.472
102.937
108.486
114.089
119.721
125.363
131
136.619
142.209
147.747
153.207
158.56
163.781
168.846
173.741
178.456
182.989
187.344
191.526
195.533
199.358
202.98
206.364
209.472
212.254
214.678
216.733
218.404
219.685
220.563
221.018
221.019
220.534
219.523
217.94
215.748
212.911
209.415
205.271
200.504
195.157
189.258
182.81
175.82
168.296
160.255
151.737
142.791
133.47
123.843
114
104.033
94.05
84.147
74.39
64.833
55.512
46.476
37.8
29.554
21.794
14.567
7.9
1.804
-3.706
-8.632
-13.012
-16.892
-20.342
-23.435
-26.218
-28.728
-30.999
-33.066
-34.986
-36.809
-38.573
-40.305
-42.026
-43.749
-45.494
-47.272
-49.066
-50.853
-52.597
-54.256
-55.804
-57.228
-58.512
-59.646
-60.613
-61.399
-62.005
-62.436
-62.699
-62.8
-62.743
-62.534
-62.19
-61.733
-61.187
-60.581
-59.934
-59.259
-58.572
-57.883
-57.201
-56.534
-55.884
-55.248
-54.626
-54.019
-53.427
-52.852
-52.293
-51.744
-51.204
-50.668
-50.135
-49.602
-49.067
-48.529
-47.987
-47.441
-46.892
-46.34
-45.788
-45.233
-44.677
-44.119
-43.557
-42.993
-42.426
-41.856
-41.281
-40.703
-40.122
-39.539
-38.956
-38.373
-37.792
-37.214
-36.642
-36.077
-35.52
-34.975
-34.443
-33.925
-33.425
-32.943
-32.482
-32.043
-31.628
-31.239
-30.877
-30.542
-30.237
-29.961
-29.715
-29.499
-29.315
-29.163
-29.041
-28.952
-28.893
-28.865
-28.867
-28.899
-28.958
-29.043
-29.154
-29.287
-29.442
-29.615
-29.804
-30.006
-30.22
-30.442
-30.668
-30.897
-31.124
-31.346
-31.561
-31.764
-31.953
-32.124
-32.275
-32.401
-32.501
-32.571
-32.609
-32.612
-32.578
-32.505
-32.39
-32.232
-32.029
-31.78
-31.484
-31.141
-30.749
-30.309
-29.821
-29.284
-28.7
-28.069
-27.392
-26.671
-25.908
-25.104
-24.262
-23.385
-22.476
-21.539
-20.575
-19.59
-18.587
-17.57
-16.542
-15.509
-14.474
-13.441
-12.414
-11.399
-10.399
-9.418
-8.459
-7.527
-6.625
-5.756
-4.922
-4.127
-3.371
-2.659
-1.99
-1.368
-0.791
-0.262
0.22
0.655
1.044
1.389
1.693
1.957
2.185
2.381
2.548
2.693
2.819
2.932
3.036
3.138
3.242
3.356
3.486
3.637
3.817
4.032
4.291
4.6
4.968
5.399
5.9
6.475
7.131
7.873
8.703
9.622
10.634
11.744
12.956
14.274
15.698
17.217
18.826
20.519
22.289
24.128
26.024
27.962
29.933
31.939
33.978
36.052
38.154
40.266
42.373
44.46
46.518
48.551
50.554
52.513
54.427
56.298
58.132
59.948
61.736
63.461
65.097
66.62
68.018
69.295
70.451
71.48
72.383
73.159
73.818
74.381
74.847
75.202
75.435
75.524
75.483
75.366
75.203
75.019
74.831
74.638
74.451
74.28
74.108
73.886
73.558
73.063
72.362
71.444
70.296
68.892
67.177
65.063
62.485
59.399
55.78
51.584
46.72
41.177
35.074
28.679
22.396
16.6
11.542
7.509
4.893
3.921
4.581
6.538
8.965
11.097
12.49
12.673
11.154
7.762
2.719
-3.12
-7.924
-9.869
-7.57
0.651
16.333
40.43
73.6
114.563
160.578
209.971
260.265
309.837
356.935
395.188
419.349
423.909
403.679
360.988
298.258
219.277
131.358
36.157
-64.829
-169.151
-277.548
-384.138
-478.875
-553.94
-600.353
-616.717
-609.957
-585.803
-551.113
-510.034
-461.462
-406.34
-346.802
-285.072
-225.202
-170.549
-122.842
-83.152
-51.817
-28.219
-11.264
-0.147
6.196
9.411
10.903
12.09
14.367
18.115
23.149
29.391
36.46
43.728
50.689
56.618
60.742
62.899
63.239
62.008
59.648
56.57
53.115
49.744
46.927
44.92
43.83
43.637
44.217
45.471
47.322
49.659
52.357
55.299
58.387
61.538
64.689
67.779
70.736
73.488
75.967
78.116
79.903
81.332
82.423
83.206
83.719
84.001
84.1
84.073
83.977
83.861
83.771
83.746
83.828
84.063
84.494
85.165
86.107
87.336
88.863
90.697
92.84
95.295
98.061
101.126
104.48
108.109
112.001
116.139
120.503
125.067
129.796
134.66
139.628
144.673
149.771
154.897
160.03
165.145
170.216
175.224
180.159
185.013
189.783
194.468
199.068
203.592
208.059
212.482
216.867
221.213
225.505
229.724
233.843
237.835
241.672
245.314
248.713
251.814
254.553
256.871
258.712
260.008
260.677
260.646
259.849
258.236
255.782
252.48
248.334
243.357
237.568
231.008
223.722
215.769
207.216
198.119
188.541
178.559
168.271
157.785
147.207
136.641
126.165
115.842
105.728
95.868
86.301
77.052
68.147
59.602
51.434
43.678
36.361
29.494
23.067
17.054
11.414
6.099
1.08
-3.667
-8.163
-12.419
-16.444
-20.241
-23.814
-27.167
-30.313
-33.281
-36.098
-38.783
-41.344
-43.773
-46.053
-48.157
-50.07
-51.778
-53.273
-54.555
-55.629
-56.503
-57.192
-57.708
-58.061
-58.248
-58.272
-58.133
-57.841
-57.412
-56.865
-56.228
-55.523
-54.773
-53.998
-53.213
-52.43
-51.657
-50.9
-50.16
-49.443
-48.753
-48.098
-47.483
-46.913
-46.388
-45.91
-45.476
-45.084
-44.732
-44.417
-44.135
-43.884
-43.663
-43.472
-43.311
-43.179
-43.076
-43
-42.951
-42.926
-42.925
-42.945
-42.984
-43.041
-43.115
-43.205
-43.31
-43.431
-43.566
-43.716
-43.88
-44.059
-44.253
-44.462
-44.686
-44.925
-45.181
-45.454
-45.744
-46.053
-46.381
-46.73
-47.099
-47.491
-47.905
-48.343
-48.803
-49.287
-49.794
-50.323
-50.874
-51.447
-52.041
-52.654
-53.285
-53.933
-54.596
-55.273
-55.961
-56.657
-57.36
-58.067
-58.776
-59.484
-60.188
-60.887
-61.578
-62.258
-62.926
-63.578
-64.213
-64.828
-65.421
-65.99
-66.534
-67.051
-67.539
-67.999
-68.428
-68.826
-69.193
-69.529
-69.834
-70.108
-70.351
-70.564
-70.748
-70.905
-71.035
-71.14
-71.223
-71.286
-71.331
-71.36
-71.376
-71.38
-71.375
-71.364
-71.349
-71.332
-71.316
-71.303
-71.296
-71.297
-71.307
-71.327
-71.36
-71.405
-71.462
-71.53
-71.61
-71.7
-71.798
-71.904
-72.015
-72.131
-72.251
-72.373
-72.496
-72.618
-72.737
-72.849
-72.95
-73.036
-73.099
-73.135
-73.139
-73.106
-73.031
-72.911
-72.74
-72.517
-72.238
-71.9
-71.497
-71.019
-70.462
-69.824
-69.108
-68.322
-67.478
-66.584
-65.652
-64.697
-63.732
-62.762
-61.788
-60.801
-59.789
-58.751
-57.69
-56.62
-55.553
-54.488
-53.426
-52.362
-51.284
-50.183
-49.045
-47.839
-46.55
-45.18
-43.743
-42.284
-40.853
-39.478
-38.179
-36.967
-35.842
-34.821
-33.913
-33.114
-32.436
-31.888
-31.488
-31.288
-31.318
-31.579
-32.055
-32.688
-33.413
-34.198
-35.013
-35.84
-36.677
-37.512
-38.351
-39.24
-40.214
-41.311
-42.554
-43.92
-45.4
-47.008
-48.777
-50.781
-53.101
-55.789
-58.888
-62.416
-66.39
-70.865
-75.813
-81.084
-86.451
-91.573
-96.131
-99.948
-102.8
-104.376
-104.489
-103.068
-100.324
-96.86
-93.272
-89.976
-87.36
-85.828
-85.649
-86.913
-89.185
-91.36
-92.084
-90.121
-84.458
-73.851
-57.034
-33.247
-2.208
34.655
74.258
114.91
155.423
194.902
234.024
268.772
291.6
295.595
272.754
221.672
148.798
61.678
-31.143
-124.723
-221.273
-324.179
-432.746
-541.883
-639.663
-710.579
-746.598
-747.069
-718.551
-674.42
-623.891
-571.167
-517.347
-460.038
-399.358
-338.099
-279.779
-228.325
-185.692
-152.146
-127.177
-109.443
-97.704
-90.84
-87.17
-85.12
-83.317
-80.427
-75.927
-69.928
-62.619
-54.411
-45.963
-37.848
-30.741
-25.384
-21.972
-20.352
-20.267
-21.273
-22.93
-24.875
-26.644
-27.75
-27.95
-27.16
-25.398
-22.806
-19.487
-15.52
-11.034
-6.176
-1.076
4.154
9.424
14.673
19.816
24.764
29.426
33.719
37.596
41.041
44.058
46.669
48.905
50.801
52.407
53.779
54.976
56.051
57.054
58.03
59.028
60.098
61.294
62.665
64.25
66.075
68.155
70.503
73.125
76.028
79.213
82.673
86.398
90.38
94.606
99.065
103.74
108.607
113.636
118.798
124.065
129.416
134.827
140.278
145.746
151.209
156.641
162.027
167.355
172.62
177.82
182.956
188.03
193.055
198.048
203.022
207.978
212.909
217.8
222.633
227.385
232.03
236.544
240.89
245.025
248.901
252.448
255.598
258.283
260.417
261.915
262.697
262.699
261.879
260.211
257.679
254.284
250.035
244.942
239.028
232.322
224.859
216.712
207.96
198.682
188.989
178.994
168.813
158.567
148.353
138.244
128.312
118.606
109.171
100.061
91.317
82.987
75.12
67.729
60.818
54.391
48.423
42.879
37.714
32.861
28.269
23.912
19.765
15.815
12.056
8.466
5.027
1.72
-1.49
-4.616
-7.669
-10.664
-13.594
-16.446
-19.199
-21.81
-24.247
-26.496
-28.549
-30.405
-32.071
-33.546
-34.832
-35.937
-36.858
-37.597
-38.157
-38.539
-38.751
-38.809
-38.733
-38.552
-38.294
-37.976
-37.613
-37.216
-36.793
-36.35
-35.893
-35.42
-34.934
-34.439
-33.939
-33.438
-32.94
-32.443
-31.946
-31.445
-30.938
-30.421
-29.891
-29.347
-28.788
-28.212
-27.621
-27.015
-26.396
-25.765
-25.121
-24.464
-23.794
-23.111
-22.415
-21.705
-20.983
-20.249
-19.504
-18.752
-17.993
-17.232
-16.469
-15.709
-14.955
-14.21
-13.476
-12.759
-12.06
-11.385
-10.735
-10.115
-9.527
-8.975
-8.462
-7.989
-7.56
-7.176
-6.839
-6.551
-6.312
-6.124
-5.986
-5.901
-5.867
-5.886
-5.957
-6.079
-6.251
-6.473
-6.742
-7.057
-7.415
-7.813
-8.249
-8.719
-9.22
-9.748
-10.3
-10.871
-11.457
-12.056
-12.662
-13.274
-13.887
-14.498
-15.104
-15.702
-16.29
-16.866
-17.426
-17.969
-18.493
-18.996
-19.477
-19.935
-20.368
-20.776
-21.157
-21.512
-21.841
-22.142
-22.418
-22.668
-22.894
-23.096
-23.277
-23.437
-23.581
-23.709
-23.824
-23.929
-24.026
-24.119
-24.209
-24.299
-24.392
-24.49
-24.596
-24.711
-24.837
-24.978
-25.133
-25.306
-25.498
-25.71
-25.943
-26.199
-26.479
-26.782
-27.111
-27.464
-27.843
-28.247
-28.675
-29.126
-29.6
-30.094
-30.606
-31.134
-31.675
-32.224
-32.778
-33.334
-33.886
-34.43
-34.962
-35.477
-35.969
-36.434
-36.867
-37.263
-37.617
-37.923
-38.177
-38.374
-38.508
-38.576
-38.572
-38.494
-38.335
-38.094
-37.766
-37.349
-36.839
-36.234
-35.533
-34.735
-33.839
-32.846
-31.758
-30.577
-29.305
-27.949
-26.513
-25.004
-23.429
-21.794
-20.109
-18.381
-16.62
-14.836
-13.037
-11.233
-9.434
-7.651
-5.895
-4.176
-2.504
-0.889
0.659
2.129
3.511
4.797
5.981
7.058
8.021
8.865
9.58
10.163
10.614
10.934
11.125
11.191
11.137
10.975
10.726
10.412
10.054
9.668
9.266
8.864
8.48
8.133
7.845
7.628
7.486
7.422
7.441
7.542
7.714
7.928
8.128
8.248
8.232
8.023
7.58
6.862
5.82
4.393
2.527
0.175
-2.693
-6.084
-10.029
-14.593
-19.756
-25.398
-31.273
-36.986
-42.164
-46.54
-49.794
-51.533
-51.527
-49.752
-46.503
-42.559
-38.689
-35.394
-33.227
-32.74
-34.171
-37.413
-41.76
-45.548
-47.037
-44.911
-37.518
-23.178
-0.868
30.101
68.755
111.79
156.995
202.844
247.877
292.256
331.787
358.504
365.073
343.539
292.578
218.742
129.725
34.174
-63.487
-165.771
-274.85
-389.227
-501.802
-598.754
-667.189
-701.229
-703.038
-682.241
-648.893
-608.907
-564.089
-512.633
-454.173
-391.229
-327.223
-266.454
-211.877
-164.417
-124.624
-92.716
-68.193
-50.297
-38.253
-30.85
-27.015
-26.154
-27.181
-28.766
-30.127
-30.655
-29.949
-28.138
-25.139
-20.514
-14.492
-7.709
-0.726
5.701
11.166
15.754
19.321
21.515
22.386
22.223
21.475
20.883
20.856
21.429
22.727
24.878
27.897
31.761
36.264
41
45.71
50.287
54.628
58.696
62.427
65.717
68.543
70.955
72.995
74.701
76.101
77.193
78.005
78.592
79.011
79.323
79.579
79.816
80.076
80.406
80.849
81.456
82.264
83.293
84.561
86.08
87.863
89.925
92.273
94.905
97.81
100.979
104.4
108.063
111.952
116.044
120.307
124.712
129.237
133.861
138.57
143.341
148.147
152.962
157.76
162.524
167.246
171.916
176.527
181.082
185.593
190.084
194.587
199.119
203.678
208.255
212.834
217.403
221.957
226.478
230.941
235.314
239.558
243.633
247.493
251.07
254.271
256.997
259.143
260.623
261.383
261.38
260.576
258.933
256.415
253.001
248.69
243.488
237.401
230.443
222.638
214.053
204.785
194.945
184.648
174.002
163.093
152.008
140.842
129.693
118.663
107.847
97.328
87.181
77.493
68.347
59.808
51.91
44.655
38.033
32.029
26.626
21.811
17.561
13.835
10.587
7.762
5.295
3.129
1.211
-0.524
-2.136
-3.679
-5.19
-6.687
-8.176
-9.669
-11.169
-12.681
-14.203
-15.72
-17.214
-18.661
-20.027
-21.286
-22.42
-23.405
-24.225
-24.868
-25.327
-25.607
-25.721
-25.679
-25.493
-25.177
-24.744
-24.215
-23.612
-22.958
-22.28
-21.602
-20.941
-20.313
-19.731
-19.205
-18.742
-18.346
-18.014
-17.746
-17.541
-17.399
-17.317
-17.296
-17.328
-17.412
-17.54
-17.708
-17.913
-18.149
-18.413
-18.701
-19.01
-19.337
-19.679
-20.034
-20.398
-20.767
-21.137
-21.503
-21.86
-22.206
-22.537
-22.847
-23.135
-23.398
-23.633
-23.839
-24.015
-24.159
-24.27
-24.347
-24.391
-24.402
-24.379
-24.323
-24.235
-24.117
-23.969
-23.793
-23.59
-23.363
-23.114
-22.844
-22.556
-22.252
-21.936
-21.61
-21.276
-20.938
-20.599
-20.262
-19.928
-19.602
-19.286
-18.982
-18.692
-18.418
-18.163
-17.927
-17.713
-17.521
-17.352
-17.207
-17.087
-16.992
-16.922
-16.877
-16.858
-16.864
-16.895
-16.95
-17.028
-17.128
-17.248
-17.387
-17.543
-17.715
-17.901
-18.098
-18.304
-18.517
-18.735
-18.956
-19.178
-19.398
-19.615
-19.827
-20.033
-20.23
-20.417
-20.594
-20.759
-20.911
-21.05
-21.175
-21.286
-21.381
-21.462
-21.528
-21.579
-21.616
-21.64
-21.651
-21.651
-21.642
-21.624
-21.599
-21.571
-21.54
-21.509
-21.481
-21.459
-21.443
-21.438
-21.446
-21.469
-21.51
-21.57
-21.653
-21.759
-21.89
-22.049
-22.236
-22.452
-22.698
-22.975
-23.284
-23.624
-23.995
-24.396
-24.828
-25.288
-25.775
-26.287
-26.822
-27.376
-27.947
-28.53
-29.122
-29.72
-30.318
-30.911
-31.495
-32.065
-32.615
-33.139
-33.633
-34.09
-34.504
-34.871
-35.186
-35.442
-35.637
-35.764
-35.819
-35.8
-35.701
-35.52
-35.253
-34.899
-34.456
-33.923
-33.301
-32.588
-31.788
-30.903
-29.936
-28.893
-27.777
-26.595
-25.353
-24.059
-22.721
-21.347
-19.945
-18.523
-17.091
-15.659
-14.237
-12.834
-11.462
-10.129
-8.848
-7.628
-6.479
-5.408
-4.421
-3.524
-2.722
-2.021
-1.429
-0.953
-0.592
-0.348
-0.222
-0.21
-0.31
-0.509
-0.784
-1.118
-1.493
-1.893
-2.313
-2.74
-3.159
-3.555
-3.909
-4.208
-4.448
-4.623
-4.725
-4.755
-4.724
-4.667
-4.648
-4.73
-4.965
-5.399
-6.059
-6.985
-8.236
-9.869
-11.945
-14.516
-17.595
-21.225
-25.489
-30.391
-35.857
-41.684
-47.499
-52.943
-57.751
-61.617
-64.194
-65.26
-64.748
-62.914
-60.399
-57.889
-55.901
-54.899
-55.377
-57.622
-61.588
-66.668
-71.548
-74.569
-74.265
-69.356
-58.188
-39.269
-11.802
24.412
67.625
114.296
162.281
209.84
255.16
298.214
334.673
356.758
357.916
330.665
273.818
194.298
100.245
0.618
-99.575
-202.324
-309.862
-420.575
-527.494
-617.697
-679.243
-707.095
-703.935
-679.011
-641.69
-597.696
-548.997
-494.317
-433.749
-369.71
-305.464
-245.428
-192.779
-148.707
-113.773
-87.549
-68.826
-56.506
-49.338
-45.501
-43.315
-41.276
-37.93
-32.681
-25.656
-17.117
-7.563
2.25
11.665
19.944
26.279
30.422
32.507
32.792
31.731
29.784
27.322
24.793
22.671
21.206
20.513
20.625
21.449
22.909
24.946
27.452
30.308
33.418
36.685
40.031
43.396
46.709
49.901
52.919
55.707
58.225
60.441
62.328
63.884
65.124
66.076
66.779
67.276
67.611
67.836
68.008
68.176
68.387
68.683
69.101
69.677
70.447
71.443
72.698
74.232
76.06
78.19
80.623
83.357
86.389
89.712
93.318
97.195
101.328
105.701
110.297
115.094
120.071
125.194
130.426
135.73
141.071
146.421
151.76
157.066
162.314
167.481
172.543
177.484
182.299
186.978
191.506
195.874
200.074
204.108
207.999
211.755
215.378
218.857
222.168
225.29
228.206
230.892
233.321
235.456
237.246
238.653
239.649
240.202
240.277
239.831
238.801
237.144
234.831
231.847
228.19
223.855
218.836
213.139
206.778
199.778
192.175
184.005
175.298
166.096
156.451
146.423
136.091
125.529
114.803
103.981
93.132
82.334
71.67
61.227
51.094
41.352
32.077
23.335
15.181
7.659
0.804
-5.363
-10.836
-15.612
-19.704
-23.13
-25.916
-28.107
-29.756
-30.937
-31.742
-32.257
-32.562
-32.729
-32.812
-32.862
-32.922
-33.028
-33.203
-33.467
-33.827
-34.289
-34.857
-35.524
-36.272
-37.07
-37.87
-38.63
-39.318
-39.909
-40.391
-40.753
-40.987
-41.095
-41.085
-40.967
-40.755
-40.458
-40.082
-39.639
-39.145
-38.619
-38.09
-37.576
-37.094
-36.653
-36.262
-35.922
-35.639
-35.408
-35.222
-35.074
-34.959
-34.871
-34.81
-34.772
-34.753
-34.747
-34.749
-34.755
-34.763
-34.77
-34.773
-34.771
-34.762
-34.747
-34.728
-34.704
-34.676
-34.645
-34.609
-34.568
-34.523
-34.474
-34.42
-34.361
-34.297
-34.23
-34.16
-34.089
-34.018
-33.948
-33.881
-33.819
-33.761
-33.71
-33.667
-33.632
-33.607
-33.591
-33.585
-33.589
-33.603
-33.627
-33.661
-33.703
-33.755
-33.815
-33.881
-33.954
-34.032
-34.115
-34.2
-34.288
-34.377
-34.465
-34.553
-34.639
-34.721
-34.799
-34.872
-34.938
-34.996
-35.045
-35.084
-35.111
-35.126
-35.127
-35.114
-35.087
-35.044
-34.986
-34.911
-34.819
-34.711
-34.586
-34.445
-34.286
-34.112
-33.921
-33.715
-33.494
-33.259
-33.011
-32.75
-32.478
-32.196
-31.904
-31.604
-31.298
-30.985
-30.669
-30.35
-30.029
-29.71
-29.392
-29.078
-28.77
-28.469
-28.178
-27.899
-27.634
-27.384
-27.152
-26.941
-26.752
-26.588
-26.45
-26.342
-26.264
-26.219
-26.209
-26.235
-26.299
-26.402
-26.546
-26.732
-26.96
-27.232
-27.548
-27.908
-28.312
-28.762
-29.255
-29.792
-30.373
-30.995
-31.658
-32.361
-33.101
-33.876
-34.684
-35.522
-36.385
-37.271
-38.175
-39.092
-40.018
-40.948
-41.876
-42.798
-43.707
-44.598
-45.466
-46.305
-47.108
-47.869
-48.584
-49.246
-49.849
-50.388
-50.858
-51.253
-51.569
-51.8
-51.942
-51.99
-51.941
-51.789
-51.533
-51.168
-50.691
-50.103
-49.401
-48.586
-47.658
-46.62
-45.476
-44.228
-42.881
-41.441
-39.913
-38.304
-36.62
-34.868
-33.057
-31.194
-29.289
-27.353
-25.398
-23.434
-21.475
-19.532
-17.616
-15.739
-13.913
-12.148
-10.454
-8.842
-7.323
-5.909
-4.615
-3.451
-2.422
-1.532
-0.78
-0.162
0.326
0.695
0.961
1.136
1.229
1.248
1.196
1.084
0.923
0.728
0.518
0.305
0.09
-0.121
-0.327
-0.536
-0.758
-1.019
-1.353
-1.783
-2.327
-2.999
-3.809
-4.786
-5.961
-7.36
-9.006
-10.902
-13.053
-15.481
-18.207
-21.245
-24.6
-28.235
-32.127
-36.314
-40.777
-45.408
-50.009
-54.236
-57.759
-60.374
-61.843
-61.839
-60.189
-56.976
-52.588
-47.822
-43.491
-40.045
-37.888
-37.588
-39.419
-43.154
-48.022
-52.426
-54.516
-53.155
-47.302
-35.293
-15.948
11.206
46.218
86.756
129.762
174.247
217.965
259.059
296.078
323.04
334.919
327.299
295.811
242.3
170.198
84.914
-7.75
-106.668
-210.859
-320.417
-431.61
-534.096
-618.432
-675.437
-702.242
-704.677
-688.306
-659.115
-620.772
-572.417
-515.076
-451.265
-384.228
-318.744
-258.613
-206.211
-162.994
-129.377
-104.94
-88.51
-78.634
-73.747
-71.883
-71.255
-70.334
-67.752
-63.026
-56.378
-48.18
-39.034
-29.743
-20.984
-13.481
-7.945
-4.539
-3.078
-3.248
-4.56
-6.549
-8.818
-10.909
-12.374
-12.966
-12.595
-11.279
-9.136
-6.267
-2.761
1.265
5.678
10.352
15.185
20.087
24.985
29.809
34.474
38.9
43.016
46.757
50.087
53.001
55.509
57.634
59.413
60.883
62.092
63.096
63.948
64.7
65.396
66.078
66.788
67.571
68.471
69.529
70.779
72.241
73.93
75.853
78.017
80.427
83.085
85.989
89.133
92.51
96.114
99.936
103.963
108.177
112.553
117.059
121.667
126.355
131.1
135.884
140.683
145.469
150.219
154.91
159.524
164.054
168.492
172.836
177.095
181.288
185.44
189.585
193.741
197.914
202.11
206.324
210.553
214.802
219.061
223.313
227.54
231.705
235.758
239.644
243.276
246.551
249.369
251.622
253.222
254.107
254.211
253.481
251.873
249.337
245.836
241.352
235.862
229.369
221.91
213.537
204.345
194.457
183.99
173.072
161.824
150.351
138.766
127.18
115.696
104.43
93.501
83.017
73.093
63.823
55.26
47.44
40.368
34.017
28.368
23.389
19.037
15.275
12.065
9.352
7.09
5.214
3.634
2.27
1.036
-0.141
-1.307
-2.496
-3.732
-5.018
-6.36
-7.755
-9.189
-10.655
-12.149
-13.656
-15.164
-16.649
-18.068
-19.385
-20.572
-21.601
-22.465
-23.157
-23.674
-24.025
-24.223
-24.284
-24.227
-24.068
-23.818
-23.491
-23.105
-22.677
-22.236
-21.801
-21.388
-21.01
-20.676
-20.391
-20.161
-19.987
-19.862
-19.783
-19.744
-19.741
-19.773
-19.837
-19.927
-20.039
-20.164
-20.299
-20.44
-20.583
-20.723
-20.856
-20.98
-21.093
-21.193
-21.279
-21.349
-21.401
-21.432
-21.442
-21.428
-21.39
-21.326
-21.236
-21.119
-20.975
-20.807
-20.614
-20.398
-20.16
-19.901
-19.625
-19.333
-19.027
-18.71
-18.384
-18.052
-17.717
-17.38
-17.045
-16.714
-16.389
-16.073
-15.768
-15.476
-15.199
-14.939
-14.698
-14.477
-14.278
-14.102
-13.95
-13.823
-13.721
-13.645
-13.595
-13.57
-13.571
-13.598
-13.648
-13.722
-13.819
-13.937
-14.075
-14.232
-14.408
-14.599
-14.806
-15.027
-15.261
-15.505
-15.76
-16.022
-16.292
-16.567
-16.845
-17.127
-17.409
-17.691
-17.971
-18.249
-18.523
-18.792
-19.055
-19.311
-19.56
-19.8
-20.031
-20.253
-20.465
-20.668
-20.86
-21.042
-21.215
-21.377
-21.529
-21.672
-21.806
-21.931
-22.046
-22.154
-22.254
-22.347
-22.433
-22.514
-22.59
-22.663
-22.734
-22.803
-22.873
-22.944
-23.019
-23.097
-23.182
-23.273
-23.374
-23.486
-23.609
-23.746
-23.897
-24.065
-24.249
-24.452
-24.673
-24.915
-25.176
-25.459
-25.762
-26.086
-26.432
-26.799
-27.185
-27.592
-28.016
-28.458
-28.914
-29.383
-29.862
-30.348
-30.839
-31.33
-31.819
-32.3
-32.771
-33.227
-33.662
-34.073
-34.454
-34.8
-35.106
-35.367
-35.577
-35.732
-35.827
-35.857
-35.817
-35.704
-35.512
-35.239
-34.881
-34.435
-33.898
-33.269
-32.546
-31.728
-30.817
-29.813
-28.718
-27.536
-26.271
-24.927
-23.511
-22.028
-20.486
-18.893
-17.257
-15.587
-13.892
-12.181
-10.464
-8.752
-7.055
-5.383
-3.749
-2.161
-0.633
0.825
2.204
3.493
4.688
5.782
6.768
7.64
8.39
9.012
9.504
9.865
10.095
10.196
10.173
10.039
9.815
9.522
9.176
8.793
8.382
7.955
7.528
7.117
6.743
6.42
6.155
5.953
5.826
5.772
5.782
5.823
5.83
5.744
5.51
5.087
4.45
3.56
2.359
0.789
-1.209
-3.686
-6.654
-10.156
-14.278
-19.028
-24.333
-29.991
-35.627
-40.889
-45.522
-49.229
-51.668
-52.618
-51.999
-50.061
-47.461
-44.857
-42.733
-41.55
-41.754
-43.607
-47.103
-51.632
-55.881
-58.3
-57.496
-52.154
-40.708
-21.852
5.179
40.564
82.499
128.433
176.973
225.553
272.371
315.659
349.209
368.001
366.943
340.89
291.782
223.096
139.899
48.931
-48.124
-151.618
-261.644
-376.042
-486.539
-580.502
-646.383
-678.599
-679.594
-658.513
-624.886
-584.556
-539.35
-487.737
-429.549
-367.176
-304.028
-244.593
-192.024
-147.601
-112.008
-84.963
-65.452
-52.451
-44.788
-40.759
-38.72
-37.122
-34.397
-29.815
-23.394
-15.335
-6.076
3.682
13.285
21.942
28.738
33.327
35.778
36.308
35.372
33.431
30.861
28.161
25.855
24.243
23.485
23.616
24.53
26.145
28.397
31.174
34.364
37.867
41.583
45.437
49.365
53.288
57.136
60.832
64.303
67.488
70.335
72.815
74.934
76.709
78.171
79.36
80.311
81.073
81.701
82.246
82.759
83.283
83.857
84.523
85.325
86.304
87.5
88.942
90.645
92.621
94.874
97.407
100.22
103.308
106.661
110.271
114.126
118.214
122.521
127.028
131.713
136.547
141.499
146.538
151.635
156.763
161.896
167.011
172.084
177.092
182.01
186.82
191.51
196.073
200.506
204.812
208.993
213.058
217.025
220.902
224.693
228.402
232.022
235.543
238.951
242.227
245.356
248.315
251.067
253.564
255.747
257.549
258.908
259.756
260.019
259.636
258.55
256.709
254.072
250.616
246.323
241.19
235.216
228.4
220.766
212.361
203.255
193.533
183.285
172.601
161.582
150.334
138.965
127.59
116.323
105.254
94.469
84.044
74.053
64.582
55.696
47.427
39.789
32.777
26.381
20.59
15.384
10.723
6.555
2.815
-0.57
-3.652
-6.477
-9.093
-11.544
-13.891
-16.183
-18.446
-20.692
-22.925
-25.15
-27.373
-29.597
-31.804
-33.969
-36.059
-38.032
-39.867
-41.548
-43.058
-44.384
-45.511
-46.424
-47.127
-47.629
-47.942
-48.074
-48.035
-47.834
-47.49
-47.03
-46.479
-45.867
-45.215
-44.541
-43.861
-43.189
-42.537
-41.914
-41.326
-40.771
-40.252
-39.771
-39.33
-38.932
-38.576
-38.259
-37.976
-37.725
-37.502
-37.304
-37.129
-36.972
-36.832
-36.707
-36.596
-36.499
-36.413
-36.337
-36.268
-36.202
-36.137
-36.069
-35.997
-35.917
-35.825
-35.721
-35.603
-35.469
-35.317
-35.149
-34.961
-34.755
-34.529
-34.284
-34.021
-33.739
-33.44
-33.124
-32.794
-32.451
-32.096
-31.731
-31.358
-30.979
-30.596
-30.21
-29.824
-29.439
-29.057
-28.68
-28.311
-27.95
-27.601
-27.264
-26.942
-26.635
-26.345
-26.072
-25.819
-25.584
-25.368
-25.172
-24.995
-24.838
-24.698
-24.578
-24.475
-24.389
-24.32
-24.266
-24.227
-24.202
-24.19
-24.19
-24.201
-24.222
-24.252
-24.291
-24.338
-24.392
-24.453
-24.52
-24.592
-24.67
-24.752
-24.839
-24.931
-25.027
-25.128
-25.235
-25.348
-25.468
-25.595
-25.731
-25.877
-26.034
-26.202
-26.383
-26.577
-26.787
-27.011
-27.252
-27.51
-27.786
-28.079
-28.39
-28.718
-29.064
-29.425
-29.802
-30.192
-30.593
-31.005
-31.424
-31.849
-32.277
-32.706
-33.131
-33.551
-33.961
-34.357
-34.737
-35.094
-35.425
-35.725
-35.99
-36.215
-36.396
-36.527
-36.604
-36.623
-36.579
-36.467
-36.284
-36.027
-35.691
-35.275
-34.777
-34.195
-33.53
-32.781
-31.951
-31.041
-30.056
-28.998
-27.872
-26.682
-25.434
-24.135
-22.79
-21.405
-19.989
-18.549
-17.094
-15.636
-14.183
-12.745
-11.333
-9.957
-8.627
-7.354
-6.148
-5.018
-3.972
-3.019
-2.17
-1.436
-0.825
-0.342
0.013
0.241
0.347
0.335
0.213
-0.003
-0.298
-0.659
-1.07
-1.525
-2.012
-2.518
-3.031
-3.528
-3.993
-4.423
-4.816
-5.176
-5.519
-5.853
-6.203
-6.614
-7.128
-7.791
-8.656
-9.755
-11.125
-12.805
-14.825
-17.228
-20.063
-23.359
-27.146
-31.433
-36.196
-41.433
-47.167
-53.313
-59.719
-66.145
-72.217
-77.623
-82.147
-85.49
-87.286
-87.331
-85.624
-82.462
-78.577
-74.645
-71.109
-68.522
-67.472
-68.272
-70.868
-74.563
-77.86
-79.311
-77.628
-71.1
-58.078
-37.258
-8.604
25.95
63.868
103.497
145.456
190.866
238.022
280.794
307.777
307.657
275.071
211.723
127.424
34.31
-60.859
-156.076
-253.58
-356.885
-462.106
-559.648
-639.694
-692.509
-716.128
-716.6
-699.59
-671.31
-635.246
-590.38
-537.527
-478.745
-416.764
-355.821
-299.231
-249.017
-206.464
-172.024
-145.461
-125.915
-112.308
-103.462
-97.801
-93.85
-90.255
-85.685
-79.592
-72.098
-63.453
-54.121
-44.763
-35.943
-28.327
-22.656
-19.153
-17.678
-17.967
-19.558
-22.005
-24.943
-27.918
-30.455
-32.28
-33.249
-33.331
-32.618
-31.184
-29.092
-26.446
-23.359
-19.935
-16.279
-12.478
-8.599
-4.72
-0.911
2.755
6.206
9.383
12.237
14.747
16.917
18.766
20.325
21.632
22.728
23.665
24.503
25.296
26.097
26.952
27.901
28.988
30.259
31.753
33.511
35.557
37.906
40.572
43.562
46.882
50.531
54.5
58.772
63.332
68.161
73.24
78.545
84.045
89.711
95.512
101.423
107.422
113.483
119.58
125.688
131.778
137.831
143.835
149.779
155.654
161.466
167.217
172.918
178.591
184.243
189.876
195.487
201.056
206.57
212.007
217.335
222.523
227.535
232.32
236.829
241.009
244.786
248.092
250.855
252.985
254.416
255.087
254.942
253.946
252.076
249.323
245.702
241.234
235.944
229.875
223.072
215.585
207.492
198.854
189.743
180.253
170.47
160.487
150.408
140.325
130.313
120.435
110.736
101.252
92.021
83.07
74.424
66.109
58.137
50.54
43.343
36.553
30.165
24.161
18.502
13.146
8.064
3.235
-1.354
-5.707
-9.833
-13.736
-17.418
-20.885
-24.146
-27.229
-30.158
-32.953
-35.619
-38.147
-40.519
-42.705
-44.686
-46.448
-47.982
-49.286
-50.364
-51.221
-51.868
-52.318
-52.577
-52.644
-52.517
-52.197
-51.692
-51.018
-50.196
-49.252
-48.211
-47.095
-45.926
-44.719
-43.486
-42.238
-40.979
-39.714
-38.446
-37.184
-35.933
-34.702
-33.495
-32.316
-31.165
-30.044
-28.95
-27.883
-26.841
-25.823
-24.827
-23.855
-22.908
-21.987
-21.092
-20.226
-19.387
-18.576
-17.791
-17.031
-16.296
-15.582
-14.89
-14.217
-13.565
-12.931
-12.317
-11.722
-11.146
-10.591
-10.055
-9.541
-9.048
-8.577
-8.13
-7.707
-7.309
-6.937
-6.593
-6.278
-5.993
-5.738
-5.515
-5.323
-5.165
-5.04
-4.948
-4.89
-4.866
-4.876
-4.92
-4.997
-5.108
-5.252
-5.429
-5.636
-5.874
-6.141
-6.435
-6.754
-7.095
-7.457
-7.837
-8.233
-8.641
-9.06
-9.486
-9.917
-10.351
-10.784
-11.215
-11.641
-12.06
-12.47
-12.869
-13.255
-13.627
-13.982
-14.32
-14.64
-14.939
-15.217
-15.474
-15.709
-15.921
-16.11
-16.276
-16.421
-16.545
-16.648
-16.731
-16.798
-16.848
-16.884
-16.908
-16.922
-16.928
-16.927
-16.923
-16.918
-16.913
-16.911
-16.914
-16.923
-16.94
-16.967
-17.006
-17.059
-17.125
-17.207
-17.307
-17.425
-17.561
-17.718
-17.895
-18.092
-18.311
-18.549
-18.807
-19.083
-19.376
-19.685
-20.006
-20.337
-20.676
-21.019
-21.364
-21.706
-22.043
-22.371
-22.685
-22.982
-23.259
-23.51
-23.733
-23.923
-24.077
-24.191
-24.261
-24.283
-24.255
-24.172
-24.031
-23.829
-23.563
-23.23
-22.828
-22.355
-21.81
-21.192
-20.501
-19.739
-18.907
-18.007
-17.043
-16.019
-14.94
-13.811
-12.637
-11.425
-10.182
-8.915
-7.63
-6.334
-5.036
-3.745
-2.468
-1.213
0.011
1.195
2.332
3.413
4.43
5.375
6.243
7.031
7.732
8.34
8.849
9.254
9.556
9.758
9.86
9.868
9.786
9.625
9.402
9.137
8.845
8.537
8.219
7.899
7.587
7.301
7.056
6.864
6.727
6.642
6.609
6.628
6.691
6.775
6.831
6.803
6.644
6.323
5.821
5.121
4.192
2.983
1.443
-0.472
-2.798
-5.535
-8.719
-12.421
-16.64
-21.281
-26.127
-30.829
-35.061
-38.619
-41.265
-42.697
-42.735
-41.347
-38.809
-35.782
-32.949
-30.797
-29.745
-30.243
-32.546
-36.633
-41.945
-47.208
-50.84
-51.449
-47.864
-38.574
-22.177
2.106
34.521
73.426
115.378
158.421
201.144
242.112
281.778
316.148
337.367
338.723
312.463
257.122
179.849
89.012
-6.556
-102.075
-200.226
-304.079
-412.008
-516.702
-604.808
-663.722
-688.759
-683.439
-657.487
-620.8
-578.847
-532.798
-480.975
-423.069
-361.318
-299.075
-240.636
-189.081
-145.627
-110.881
-84.556
-65.608
-53.071
-45.807
-42.093
-40.308
-38.939
-36.483
-32.275
-26.36
-18.913
-10.373
-1.445
7.251
14.959
20.855
24.674
26.503
26.576
25.336
23.223
20.609
17.967
15.782
14.322
13.725
14.008
15.067
16.823
19.2
22.084
25.356
28.901
32.624
36.449
40.308
44.133
47.854
51.399
54.704
57.719
60.393
62.707
64.667
66.289
67.604
68.65
69.466
70.1
70.606
71.035
71.436
71.856
72.33
72.9
73.609
74.495
75.597
76.938
78.53
80.382
82.499
84.882
87.538
90.459
93.632
97.043
100.68
104.527
108.571
112.788
117.144
121.607
126.147
130.74
135.373
140.031
144.693
149.342
153.957
158.528
163.058
167.541
171.97
176.339
180.64
184.881
189.089
193.279
197.459
201.619
205.733
209.774
213.72
217.538
221.19
224.621
227.756
230.537
232.921
234.862
236.32
237.235
237.529
237.143
236.039
234.193
231.613
228.303
224.269
219.542
214.17
208.221
201.788
194.944
187.742
180.245
172.507
164.6
156.615
148.624
140.678
132.823
125.093
117.52
110.139
102.965
95.992
89.207
82.579
76.095
69.757
63.563
57.516
51.611
45.835
40.189
34.682
29.322
24.117
19.076
14.198
9.495
4.989
0.7
-3.347
-7.137
-10.664
-13.922
-16.909
-19.624
-22.068
-24.248
-26.176
-27.863
-29.318
-30.55
-31.569
-32.386
-33.015
-33.473
-33.774
-33.933
-33.962
-33.874
-33.683
-33.4
-33.037
-32.601
-32.102
-31.549
-30.951
-30.317
-29.655
-28.975
-28.284
-27.589
-26.896
-26.212
-25.542
-24.889
-24.257
-23.649
-23.066
-22.51
-21.981
-21.481
-21.008
-20.564
-20.146
-19.754
-19.386
-19.041
-18.716
-18.411
-18.123
-17.849
-17.589
-17.339
-17.099
-16.867
-16.641
-16.42
-16.202
-15.986
-15.771
-15.555
-15.338
-15.12
-14.899
-14.675
-14.449
-14.22
-13.989
-13.756
-13.522
-13.289
-13.058
-12.829
-12.605
-12.387
-12.176
-11.973
-11.782
-11.603
-11.437
-11.288
-11.155
-11.041
-10.947
-10.875
-10.825
-10.799
-10.797
-10.82
-10.87
-10.945
-11.047
-11.176
-11.331
-11.513
-11.721
-11.955
-12.215
-12.499
-12.806
-13.137
-13.489
-13.861
-14.252
-14.661
-15.086
-15.526
-15.978
-16.442
-16.915
-17.395
-17.882
-18.372
-18.865
-19.357
-19.848
-20.335
-20.817
-21.291
-21.757
-22.213
-22.657
-23.088
-23.506
-23.909
-24.296
-24.668
-25.022
-25.36
-25.681
-25.984
-26.27
-26.54
-26.793
-27.029
-27.25
-27.457
-27.649
-27.828
-27.995
-28.151
-28.298
-28.437
-28.569
-28.696
-28.82
-28.943
-29.066
-29.193
-29.324
-29.462
-29.609
-29.766
-29.936
-30.118
-30.316
-30.528
-30.756
-31.001
-31.261
-31.536
-31.826
-32.129
-32.446
-32.773
-33.109
-33.452
-33.8
-34.151
-34.501
-34.848
-35.188
-35.518
-35.834
-36.132
-36.407
-36.657
-36.875
-37.057
-37.199
-37.294
-37.338
-37.325
-37.251
-37.11
-36.898
-36.612
-36.248
-35.803
-35.276
-34.666
-33.973
-33.198
-32.344
-31.411
-30.403
-29.322
-28.174
-26.961
-25.688
-24.361
-22.987
-21.572
-20.126
-18.658
-17.178
-15.695
-14.22
-12.763
-11.335
-9.945
-8.603
-7.318
-6.103
-4.971
-3.935
-3.006
-2.19
-1.492
-0.912
-0.447
-0.093
0.162
0.332
0.429
0.463
0.442
0.37
0.256
0.113
-0.045
-0.202
-0.348
-0.479
-0.592
-0.69
-0.786
-0.896
-1.051
-1.293
-1.648
-2.143
-2.799
-3.635
-4.686
-5.987
-7.566
-9.454
-11.658
-14.19
-17.071
-20.32
-23.94
-27.923
-32.214
-36.775
-41.629
-46.732
-51.955
-57.078
-61.716
-65.517
-68.267
-69.685
-69.427
-67.34
-63.48
-58.241
-52.543
-47.237
-42.851
-39.97
-39.147
-40.585
-44.118
-48.914
-53.125
-54.909
-52.964
-45.672
-31.373
-9.078
21.899
60.474
103.084
147.477
192.285
236.395
280.356
319.874
346.781
353.464
331.527
280.048
205.319
114.529
17.653
-80.569
-180.967
-283.353
-388.862
-492.469
-583.354
-652.734
-692.031
-700.532
-685.473
-653.358
-611.836
-564.939
-511.686
-453.209
-391.28
-328.288
-268.63
-215.21
-169.258
-131.586
-102.128
-80.094
-64.542
-54.44
-48.361
-44.832
-42.625
-40.446
-37.212
-32.604
-26.709
-19.739
-12.216
-4.704
2.313
8.186
12.331
14.619
15.198
14.363
12.559
10.191
7.608
5.233
3.473
2.553
2.549
3.423
5.052
7.326
10.157
13.429
17.012
20.79
24.657
28.53
32.344
36.036
39.53
42.759
45.661
48.183
50.308
52.041
53.403
54.429
55.158
55.634
55.906
56.034
56.073
56.072
56.08
56.136
56.284
56.568
57.031
57.715
58.647
59.846
61.323
63.086
65.139
67.486
70.128
73.055
76.259
79.728
83.452
87.416
91.602
95.986
100.538
105.228
110.03
114.92
119.878
124.882
129.912
134.944
139.955
144.927
149.853
154.726
159.543
164.305
169.014
173.682
178.33
182.969
187.601
192.22
196.812
201.36
205.844
210.239
214.518
218.645
222.573
226.258
229.641
232.662
235.255
237.342
238.841
239.68
239.804
239.172
237.749
235.511
232.448
228.565
223.877
218.408
212.189
205.245
197.629
189.407
180.652
171.46
161.929
152.154
142.228
132.247
122.306
112.493
102.877
93.508
84.433
75.692
67.338
59.427
51.99
45.041
38.582
32.603
27.091
22.026
17.374
13.086
9.101
5.369
1.858
-1.45
-4.575
-7.538
-10.374
-13.125
-15.812
-18.447
-21.038
-23.59
-26.11
-28.596
-31.031
-33.381
-35.607
-37.679
-39.583
-41.316
-42.873
-44.248
-45.432
-46.416
-47.203
-47.799
-48.209
-48.436
-48.485
-48.362
-48.089
-47.69
-47.195
-46.628
-46.003
-45.334
-44.63
-43.904
-43.164
-42.417
-41.664
-40.907
-40.152
-39.402
-38.663
-37.938
-37.227
-36.528
-35.84
-35.16
-34.49
-33.829
-33.177
-32.534
-31.901
-31.28
-30.674
-30.087
-29.517
-28.966
-28.435
-27.922
-27.429
-26.955
-26.5
-26.063
-25.644
-25.244
-24.862
-24.499
-24.155
-23.83
-23.524
-23.236
-22.967
-22.717
-22.484
-22.269
-22.071
-21.89
-21.726
-21.578
-21.445
-21.327
-21.224
-21.134
-21.058
-20.993
-20.94
-20.896
-20.862
-20.836
-20.819
-20.808
-20.803
-20.805
-20.811
-20.823
-20.84
-20.861
-20.885
-20.912
-20.943
-20.976
-21.011
-21.049
-21.089
-21.132
-21.179
-21.23
-21.285
-21.346
-21.413
-21.486
-21.567
-21.657
-21.756
-21.865
-21.985
-22.116
-22.261
-22.418
-22.59
-22.776
-22.977
-23.194
-23.426
-23.673
-23.936
-24.215
-24.509
-24.819
-25.143
-25.482
-25.835
-26.202
-26.582
-26.975
-27.378
-27.792
-28.215
-28.647
-29.084
-29.527
-29.974
-30.424
-30.875
-31.327
-31.777
-32.225
-32.67
-33.11
-33.545
-33.973
-34.394
-34.807
-35.211
-35.605
-35.99
-36.365
-36.728
-37.08
-37.42
-37.746
-38.058
-38.355
-38.635
-38.897
-39.14
-39.363
-39.563
-39.74
-39.891
-40.016
-40.111
-40.176
-40.209
-40.206
-40.166
-40.085
-39.963
-39.796
-39.581
-39.316
-38.998
-38.625
-38.193
-37.701
-37.144
-36.521
-35.83
-35.068
-34.234
-33.327
-32.347
-31.294
-30.169
-28.975
-27.714
-26.389
-25.005
-23.566
-22.076
-20.542
-18.969
-17.364
-15.733
-14.084
-12.423
-10.761
-9.107
-7.469
-5.857
-4.281
-2.749
-1.271
0.141
1.478
2.735
3.903
4.976
5.944
6.796
7.527
8.135
8.62
8.982
9.225
9.351
9.371
9.302
9.161
8.965
8.727
8.455
8.159
7.852
7.549
7.268
7.019
6.805
6.625
6.479
6.365
6.273
6.176
6.025
5.772
5.36
4.741
3.879
2.736
1.285
-0.513
-2.707
-5.334
-8.427
-12.013
-16.094
-20.694
-25.868
-31.57
-37.639
-43.817
-49.711
-54.972
-59.374
-62.628
-64.354
-64.329
-62.591
-59.522
-55.898
-52.448
-49.552
-47.604
-47.204
-48.714
-52.007
-56.335
-60.119
-61.675
-59.982
-53.799
-41.284
-21.118
7.502
43.83
84.745
128.118
173.003
218.645
265.099
307.868
338.775
350.001
333.17
286.931
216.568
128.346
31.932
-67.794
-171.39
-278.282
-389.571
-500.112
-598.25
-674.257
-718.702
-730.284
-716.385
-683.792
-640.334
-590.249
-532.649
-468.986
-401.437
-332.798
-268.149
-210.896
-162.711
-124.735
-96.605
-77.073
-64.874
-58.562
-56.206
-55.957
-56.075
-54.839
-51.44
-45.906
-38.507
-29.751
-20.393
-11.16
-2.901
3.425
7.444
9.259
9.147
7.591
5.08
2.027
-1.05
-3.586
-5.247
-5.903
-5.548
-4.313
-2.305
0.403
3.695
7.431
11.486
15.746
20.116
24.531
28.917
33.182
37.238
40.999
44.391
47.378
49.951
52.12
53.91
55.356
56.494
57.373
58.052
58.586
59.031
59.434
59.84
60.295
60.849
61.552
62.451
63.578
64.955
66.595
68.505
70.695
73.168
75.927
78.963
82.267
85.828
89.635
93.677
97.935
102.384
106.99
111.724
116.56
121.477
126.458
131.478
136.51
141.528
146.507
151.431
156.29
161.074
165.775
170.396
174.949
179.456
183.947
188.436
192.924
197.402
201.857
206.278
210.661
214.991
219.243
223.386
227.385
231.201
234.788
238.078
240.98
243.4
245.24
246.423
246.898
246.625
245.57
243.697
240.976
237.391
232.937
227.615
221.429
214.388
206.525
197.905
188.627
178.8
168.526
157.901
147.008
135.93
124.752
113.564
102.453
91.503
80.807
70.453
60.534
51.14
42.33
34.133
26.554
19.586
13.225
7.464
2.29
-2.317
-6.381
-9.939
-13.027
-15.694
-18.013
-20.055
-21.891
-23.592
-25.209
-26.774
-28.312
-29.839
-31.366
-32.903
-34.452
-36.008
-37.572
-39.135
-40.685
-42.2
-43.64
-44.969
-46.16
-47.184
-48.027
-48.682
-49.141
-49.407
-49.492
-49.404
-49.156
-48.764
-48.237
-47.587
-46.833
-45.994
-45.097
-44.166
-43.217
-42.266
-41.325
-40.402
-39.507
-38.643
-37.806
-36.998
-36.216
-35.462
-34.736
-34.04
-33.372
-32.73
-32.112
-31.516
-30.942
-30.389
-29.857
-29.345
-28.854
-28.384
-27.938
-27.517
-27.121
-26.751
-26.406
-26.085
-25.789
-25.517
-25.267
-25.039
-24.833
-24.647
-24.481
-24.335
-24.209
-24.101
-24.01
-23.938
-23.882
-23.842
-23.818
-23.809
-23.814
-23.832
-23.863
-23.905
-23.957
-24.018
-24.088
-24.164
-24.246
-24.332
-24.422
-24.513
-24.606
-24.698
-24.789
-24.877
-24.961
-25.042
-25.117
-25.186
-25.25
-25.306
-25.356
-25.398
-25.432
-25.459
-25.477
-25.489
-25.492
-25.488
-25.478
-25.462
-25.44
-25.413
-25.382
-25.348
-25.312
-25.274
-25.235
-25.197
-25.16
-25.126
-25.094
-25.068
-25.046
-25.032
-25.025
-25.026
-25.037
-25.058
-25.09
-25.133
-25.189
-25.257
-25.339
-25.434
-25.543
-25.666
-25.802
-25.954
-26.119
-26.298
-26.491
-26.696
-26.914
-27.144
-27.385
-27.638
-27.901
-28.174
-28.456
-28.748
-29.049
-29.357
-29.673
-29.996
-30.325
-30.659
-30.997
-31.34
-31.684
-32.031
-32.378
-32.724
-33.067
-33.407
-33.74
-34.065
-34.38
-34.682
-34.969
-35.237
-35.483
-35.707
-35.905
-36.076
-36.217
-36.326
-36.4
-36.438
-36.438
-36.395
-36.305
-36.163
-35.964
-35.705
-35.384
-34.995
-34.537
-34.005
-33.398
-32.717
-31.961
-31.128
-30.212
-29.21
-28.121
-26.952
-25.713
-24.412
-23.056
-21.652
-20.214
-18.756
-17.286
-15.809
-14.319
-12.809
-11.28
-9.743
-8.212
-6.703
-5.223
-3.771
-2.342
-0.938
0.442
1.799
3.145
4.501
5.865
7.219
8.53
9.764
10.905
11.951
12.908
13.784
14.581
15.294
15.921
16.469
16.932
17.302
17.557
17.667
17.632
17.477
17.245
16.97
16.671
16.346
15.984
15.576
15.101
14.534
13.846
12.991
11.94
10.679
9.208
7.537
5.647
3.489
1.003
-1.862
-5.144
-8.842
-12.973
-17.59
-22.664
-28.069
-33.578
-38.838
-43.502
-47.32
-50.018
-51.218
-50.673
-48.417
-44.792
-40.521
-36.418
-33.021
-30.818
-30.48
-32.412
-36.419
-41.726
-46.766
-49.618
-48.854
-43.114
-30.605
-9.987
19.276
56.915
101.235
149.688
200.006
249.347
293.667
328.999
351.635
358.214
346.85
316.451
265.95
196.512
111.965
16.337
-86.293
-193.976
-306.864
-421.781
-530.997
-622.87
-685.751
-714.286
-711.243
-685.79
-647.373
-601.933
-551.46
-494.582
-431.446
-364.678
-297.768
-235.396
-180.956
-135.727
-100.335
-74.377
-56.575
-45.746
-40.522
-38.914
-39.1
-39.455
-38.435
-35.39
-30.409
-23.712
-15.793
-7.429
0.694
7.799
13.068
16.28
17.59
17.285
15.848
13.761
11.431
9.352
8.023
7.679
8.395
10.129
12.726
16.07
20.062
24.562
29.417
34.491
39.667
44.855
49.984
54.966
59.711
64.129
68.141
71.704
74.806
77.454
79.676
81.504
82.979
84.151
85.08
85.822
86.432
86.961
87.454
87.961
88.533
89.217
90.064
91.108
92.374
93.881
95.637
97.647
99.918
102.448
105.232
108.27
111.558
115.089
118.856
122.848
127.047
131.435
135.983
140.662
145.446
150.309
155.225
160.177
165.139
170.086
174.997
179.848
184.618
189.3
193.883
198.366
202.759
207.071
211.322
215.538
219.731
223.905
228.066
232.207
236.323
240.409
244.443
248.407
252.279
256.015
259.569
262.882
265.86
268.417
270.464
271.902
272.66
272.674
271.877
270.219
267.663
264.178
259.758
254.402
248.1
240.873
232.763
223.832
214.196
203.968
193.258
182.189
170.873
159.422
147.963
136.618
125.481
114.644
104.181
94.161
84.68
75.803
67.569
59.995
53.054
46.715
40.96
35.753
31.05
26.802
22.938
19.38
16.084
13.007
10.107
7.346
4.662
2.005
-0.648
-3.308
-5.97
-8.625
-11.274
-13.912
-16.519
-19.067
-21.521
-23.836
-25.995
-27.983
-29.784
-31.388
-32.775
-33.93
-34.853
-35.553
-36.042
-36.328
-36.42
-36.325
-36.064
-35.659
-35.137
-34.524
-33.839
-33.098
-32.315
-31.504
-30.675
-29.841
-29.005
-28.167
-27.331
-26.5
-25.679
-24.87
-24.074
-23.29
-22.516
-21.751
-20.995
-20.248
-19.508
-18.777
-18.055
-17.343
-16.644
-15.961
-15.294
-14.646
-14.017
-13.407
-12.817
-12.247
-11.698
-11.169
-10.661
-10.173
-9.706
-9.261
-8.838
-8.437
-8.059
-7.705
-7.373
-7.065
-6.781
-6.522
-6.286
-6.076
-5.891
-5.731
-5.597
-5.488
-5.404
-5.346
-5.312
-5.301
-5.315
-5.35
-5.408
-5.487
-5.587
-5.706
-5.845
-6.002
-6.176
-6.368
-6.576
-6.801
-7.042
-7.298
-7.57
-7.856
-8.158
-8.474
-8.805
-9.151
-9.512
-9.889
-10.281
-10.69
-11.116
-11.559
-12.02
-12.5
-13
-13.52
-14.062
-14.625
-15.212
-15.822
-16.456
-17.115
-17.8
-18.51
-19.246
-20.009
-20.796
-21.609
-22.446
-23.306
-24.186
-25.086
-26.002
-26.933
-27.874
-28.824
-29.779
-30.734
-31.687
-32.633
-33.568
-34.487
-35.386
-36.26
-37.103
-37.911
-38.678
-39.401
-40.073
-40.689
-41.246
-41.738
-42.161
-42.51
-42.781
-42.97
-43.073
-43.087
-43.011
-42.841
-42.578
-42.22
-41.769
-41.226
-40.594
-39.875
-39.075
-38.197
-37.246
-36.227
-35.147
-34.013
-32.832
-31.611
-30.357
-29.079
-27.788
-26.494
-25.206
-23.936
-22.691
-21.484
-20.322
-19.217
-18.178
-17.211
-16.324
-15.526
-14.825
-14.229
-13.747
-13.376
-13.117
-12.966
-12.916
-12.959
-13.087
-13.282
-13.531
-13.82
-14.139
-14.481
-14.84
-15.204
-15.56
-15.894
-16.191
-16.449
-16.666
-16.84
-16.982
-17.104
-17.218
-17.357
-17.549
-17.818
-18.198
-18.707
-19.359
-20.174
-21.162
-22.346
-23.766
-25.452
-27.433
-29.739
-32.359
-35.302
-38.617
-42.266
-46.155
-50.115
-53.848
-57.09
-59.693
-61.456
-62.114
-61.522
-59.629
-56.676
-53.272
-50.01
-47.318
-45.573
-45.147
-46.315
-49.163
-53.252
-57.495
-60.528
-61.083
-58.174
-50.591
-36.994
-16.551
11.142
44.819
81.351
119.019
156.881
194.303
232.27
266.914
290.358
295.224
273.225
223.206
151.309
64.612
-28.133
-123.053
-220.278
-319.459
-419.725
-514.365
-595.7
-657.175
-693.418
-706.804
-700.676
-678.214
-644.34
-599.917
-546.337
-486.99
-424.244
-361.712
-302.999
-250.183
-204.987
-168.457
-140.524
-120.4
-106.984
-99.054
-95.044
-93.377
-92.473
-90.673
-87.143
-81.841
-74.946
-66.859
-58.188
-49.51
-41.581
-35.326
-31.134
-28.954
-28.566
-29.533
-31.422
-33.884
-36.449
-38.586
-39.984
-40.486
-40.063
-38.829
-36.875
-34.269
-31.123
-27.564
-23.705
-19.654
-15.496
-11.293
-7.115
-3.032
0.885
4.565
7.953
11.002
13.694
16.035
18.044
19.752
21.196
22.418
23.467
24.401
25.274
26.134
27.026
27.989
29.066
30.3
31.733
33.4
35.327
37.529
40.018
42.805
45.895
49.29
52.981
56.955
61.198
65.692
70.42
75.359
80.479
85.752
91.148
96.643
102.217
107.843
113.497
119.156
124.794
130.391
135.936
141.423
146.847
152.213
157.526
162.799
168.055
173.305
178.552
183.792
189.007
194.18
199.293
204.318
209.226
213.983
218.537
222.834
226.819
230.417
233.561
236.181
238.187
239.505
240.08
239.865
238.832
236.966
234.248
230.67
226.24
220.976
214.916
208.108
200.599
192.45
183.723
174.489
164.84
154.87
144.66
134.289
123.829
113.348
102.928
92.659
82.607
72.828
63.368
54.257
45.539
37.261
29.456
22.148
15.344
9.036
3.222
-2.099
-6.942
-11.329
-15.302
-18.924
-22.237
-25.268
-28.047
-30.593
-32.938
-35.128
-37.196
-39.162
-41.043
-42.843
-44.574
-46.25
-47.87
-49.419
-50.874
-52.196
-53.361
-54.363
-55.194
-55.852
-56.328
-56.611
-56.698
-56.6
-56.323
-55.878
-55.274
-54.515
-53.616
-52.602
-51.499
-50.337
-49.141
-47.926
-46.708
-45.501
-44.317
-43.168
-42.061
-40.996
-39.977
-39.007
-38.09
-37.233
-36.436
-35.699
-35.019
-34.395
-33.825
-33.309
-32.846
-32.434
-32.073
-31.762
-31.502
-31.295
-31.139
-31.034
-30.978
-30.969
-31.004
-31.082
-31.2
-31.353
-31.54
-31.756
-32
-32.268
-32.558
-32.866
-33.189
-33.524
-33.869
-34.22
-34.574
-34.928
-35.279
-35.624
-35.961
-36.286
-36.598
-36.894
-37.172
-37.429
-37.663
-37.873
-38.056
-38.21
-38.335
-38.429
-38.49
-38.519
-38.514
-38.476
-38.404
-38.299
-38.163
-37.994
-37.796
-37.568
-37.314
-37.034
-36.732
-36.409
-36.068
-35.713
-35.346
-34.971
-34.592
-34.212
-33.834
-33.463
-33.101
-32.752
-32.421
-32.109
-31.821
-31.559
-31.326
-31.126
-30.961
-30.833
-30.744
-30.697
-30.692
-30.732
-30.816
-30.945
-31.118
-31.337
-31.598
-31.902
-32.247
-32.629
-33.046
-33.496
-33.973
-34.473
-34.993
-35.526
-36.068
-36.612
-37.153
-37.684
-38.201
-38.697
-39.165
-39.6
-39.995
-40.345
-40.643
-40.884
-41.062
-41.171
-41.207
-41.165
-41.04
-40.829
-40.527
-40.132
-39.64
-39.051
-38.361
-37.571
-36.68
-35.689
-34.6
-33.415
-32.138
-30.773
-29.327
-27.804
-26.214
-24.563
-22.86
-21.114
-19.335
-17.533
-15.716
-13.895
-12.08
-10.282
-8.511
-6.777
-5.092
-3.464
-1.906
-0.425
0.966
2.259
3.445
4.519
5.475
6.309
7.013
7.582
8.011
8.301
8.453
8.469
8.355
8.117
7.77
7.334
6.833
6.289
5.72
5.138
4.559
3.999
3.478
3.016
2.629
2.321
2.098
1.964
1.917
1.946
2.021
2.086
2.073
1.925
1.589
1.025
0.206
-0.913
-2.39
-4.274
-6.616
-9.449
-12.782
-16.655
-21.132
-26.195
-31.713
-37.432
-42.968
-47.962
-52.167
-55.3
-56.987
-56.998
-55.36
-52.404
-48.832
-45.381
-42.45
-40.421
-39.887
-41.156
-44.047
-47.88
-51.18
-52.196
-49.817
-42.911
-29.681
-8.907
19.866
56.616
98.917
143.697
189.858
234.787
276.374
313.03
338.512
348.004
337.178
301.269
242.522
165.137
75.042
-20.333
-118.833
-220.797
-326.741
-434.449
-535.62
-618.28
-671.743
-691.705
-681.746
-651.106
-609.234
-562.399
-512.769
-459.305
-402.116
-342.901
-284.354
-230.588
-184.224
-145.844
-115.56
-92.443
-75.026
-62.59
-54.207
-48.249
-43.45
-38.665
-32.78
-25.622
-17.541
-8.691
0.533
9.484
17.725
24.662
29.671
32.707
33.978
33.746
32.457
30.521
28.252
26.064
24.367
23.372
23.196
23.842
25.207
27.217
29.795
32.833
36.219
39.842
43.603
47.417
51.214
54.925
58.487
61.835
64.914
67.677
70.082
72.116
73.795
75.138
76.187
76.983
77.57
78.004
78.347
78.652
78.972
79.355
79.838
80.463
81.27
82.296
83.579
85.141
86.997
89.155
91.621
94.394
97.472
100.846
104.503
108.431
112.617
117.048
121.714
126.597
131.68
136.943
142.363
147.919
153.588
159.346
165.169
171.03
176.903
182.763
188.584
194.337
199.996
205.531
210.914
216.116
221.11
225.868
230.364
234.572
238.469
242.032
245.241
248.076
250.519
252.555
254.169
255.35
256.087
256.373
256.2
255.565
254.466
252.904
250.881
248.402
245.474
242.105
238.306
234.091
229.473
224.469
219.096
213.375
207.327
200.972
194.336
187.442
180.317
172.985
165.475
157.813
150.027
142.146
134.196
126.205
118.201
110.211
102.261
94.377
86.584
78.907
71.369
63.992
56.797
49.804
43.031
36.494
30.21
24.191
18.45
12.997
7.841
2.988
-1.555
-5.785
-9.7
-13.301
-16.587
-19.562
-22.231
-24.599
-26.673
-28.462
-29.974
-31.222
-32.216
-32.968
-33.491
-33.799
-33.907
-33.829
-33.579
-33.173
-32.627
-31.956
-31.174
-30.297
-29.34
-28.317
-27.242
-26.129
-24.989
-23.836
-22.68
-21.533
-20.404
-19.302
-18.236
-17.213
-16.24
-15.322
-14.463
-13.668
-12.938
-12.278
-11.687
-11.166
-10.716
-10.336
-10.024
-9.779
-9.6
-9.482
-9.425
-9.423
-9.474
-9.574
-9.719
-9.906
-10.129
-10.386
-10.671
-10.982
-11.315
-11.665
-12.03
-12.406
-12.791
-13.18
-13.572
-13.964
-14.355
-14.743
-15.127
-15.505
-15.878
-16.245
-16.606
-16.961
-17.31
-17.654
-17.992
-18.327
-18.657
-18.985
-19.311
-19.635
-19.958
-20.28
-20.604
-20.928
-21.253
-21.58
-21.909
-22.24
-22.573
-22.907
-23.244
-23.581
-23.92
-24.259
-24.598
-24.936
-25.273
-25.607
-25.938
-26.264
-26.583
-26.896
-27.2
-27.495
-27.778
-28.05
-28.309
-28.554
-28.785
-29.001
-29.202
-29.387
-29.558
-29.715
-29.857
-29.986
-30.102
-30.207
-30.303
-30.39
-30.47
-30.546
-30.619
-30.69
-30.763
-30.838
-30.918
-31.004
-31.098
-31.202
-31.316
-31.443
-31.583
-31.737
-31.905
-32.088
-32.285
-32.497
-32.723
-32.962
-33.213
-33.474
-33.743
-34.018
-34.296
-34.574
-34.848
-35.115
-35.372
-35.613
-35.834
-36.031
-36.2
-36.334
-36.429
-36.48
-36.482
-36.431
-36.32
-36.148
-35.91
-35.603
-35.225
-34.774
-34.249
-33.652
-32.983
-32.243
-31.434
-30.559
-29.62
-28.622
-27.569
-26.466
-25.317
-24.131
-22.916
-21.68
-20.433
-19.184
-17.943
-16.719
-15.523
-14.365
-13.254
-12.198
-11.207
-10.289
-9.457
-8.721
-8.091
-7.569
-7.156
-6.851
-6.65
-6.546
-6.529
-6.584
-6.698
-6.861
-7.066
-7.308
-7.578
-7.865
-8.157
-8.438
-8.7
-8.936
-9.146
-9.329
-9.49
-9.646
-9.818
-10.04
-10.341
-10.74
-11.26
-11.925
-12.761
-13.794
-15.046
-16.525
-18.247
-20.24
-22.528
-25.146
-28.112
-31.404
-35.024
-38.993
-43.27
-47.757
-52.251
-56.415
-59.934
-62.582
-64.071
-64.078
-62.416
-59.083
-54.44
-49.214
-44.159
-39.896
-37.04
-36.263
-37.985
-42.193
-48.173
-54.477
-59.369
-61.169
-58.179
-48.478
-30.496
-3.327
32.955
76.972
126.558
179.097
231.238
278.65
316.897
341.794
349.746
338.398
306.089
251.948
177.644
87.456
-13.92
-121.862
-234.328
-351.192
-468.333
-577.55
-666.912
-724.456
-745.808
-734.874
-701.387
-655.759
-604.662
-550.184
-491.276
-428.17
-362.858
-298.423
-239.337
-188.487
-146.636
-114.025
-89.748
-72.261
-60.766
-54.206
-50.75
-48.898
-47.243
-44.423
-40.103
-34.539
-27.825
-20.349
-12.808
-5.728
0.181
4.186
6.198
6.44
5.211
3.008
0.302
-2.524
-4.988
-6.617
-7.195
-6.656
-5.053
-2.546
0.744
4.712
9.216
14.104
19.235
24.485
29.747
34.938
39.964
44.729
49.145
53.133
56.652
59.691
62.264
64.404
66.149
67.542
68.635
69.486
70.153
70.692
71.155
71.587
72.039
72.558
73.193
73.988
74.977
76.181
77.613
79.281
81.188
83.336
85.721
88.339
91.19
94.272
97.578
101.104
104.837
108.762
112.86
117.107
121.474
125.931
130.451
135.008
139.585
144.17
148.745
153.294
157.799
162.244
166.627
170.95
175.209
179.404
183.535
187.607
191.646
195.668
199.683
203.694
207.682
211.617
215.474
219.221
222.823
226.235
229.394
232.228
234.685
236.718
238.286
239.342
239.817
239.651
238.8
237.234
234.944
231.936
228.219
223.802
218.712
212.983
206.671
199.841
192.541
184.804
176.658
168.135
159.298
150.206
140.913
131.465
121.906
112.277
102.623
93.001
83.458
74.043
64.799
55.761
46.973
38.497
30.4
22.742
15.565
8.897
2.765
-2.811
-7.818
-12.254
-16.131
-19.478
-22.329
-24.727
-26.729
-28.38
-29.727
-30.83
-31.751
-32.547
-33.268
-33.951
-34.625
-35.316
-36.044
-36.821
-37.648
-38.517
-39.41
-40.303
-41.162
-41.96
-42.681
-43.302
-43.805
-44.178
-44.408
-44.495
-44.445
-44.263
-43.956
-43.532
-43.001
-42.379
-41.687
-40.945
-40.179
-39.409
-38.648
-37.909
-37.203
-36.536
-35.913
-35.333
-34.793
-34.291
-33.824
-33.393
-32.996
-32.63
-32.293
-31.98
-31.687
-31.412
-31.151
-30.904
-30.668
-30.442
-30.226
-30.02
-29.825
-29.642
-29.471
-29.31
-29.159
-29.016
-28.882
-28.754
-28.631
-28.514
-28.401
-28.292
-28.188
-28.089
-27.997
-27.911
-27.832
-27.762
-27.701
-27.65
-27.611
-27.584
-27.569
-27.569
-27.583
-27.613
-27.658
-27.72
-27.799
-27.894
-28.006
-28.135
-28.281
-28.445
-28.624
-28.821
-29.034
-29.264
-29.51
-29.773
-30.051
-30.345
-30.654
-30.978
-31.316
-31.666
-32.029
-32.402
-32.785
-33.176
-33.574
-33.978
-34.385
-34.795
-35.205
-35.615
-36.023
-36.428
-36.827
-37.221
-37.607
-37.984
-38.352
-38.709
-39.054
-39.388
-39.708
-40.014
-40.306
-40.583
-40.846
-41.092
-41.324
-41.54
-41.74
-41.925
-42.096
-42.252
-42.394
-42.523
-42.639
-42.745
-42.84
-42.927
-43.005
-43.077
-43.143
-43.205
-43.263
-43.319
-43.372
-43.424
-43.475
-43.524
-43.572
-43.618
-43.661
-43.702
-43.739
-43.771
-43.797
-43.815
-43.824
-43.82
-43.803
-43.77
-43.718
-43.644
-43.546
-43.421
-43.266
-43.077
-42.852
-42.587
-42.28
-41.926
-41.524
-41.07
-40.562
-39.998
-39.376
-38.697
-37.959
-37.163
-36.31
-35.404
-34.446
-33.439
-32.387
-31.295
-30.168
-29.01
-27.829
-26.629
-25.417
-24.199
-22.984
-21.78
-20.594
-19.433
-18.306
-17.222
-16.188
-15.213
-14.304
-13.465
-12.701
-12.018
-11.42
-10.915
-10.508
-10.197
-9.982
-9.861
-9.832
-9.889
-10.021
-10.21
-10.434
-10.678
-10.926
-11.171
-11.404
-11.609
-11.772
-11.878
-11.915
-11.882
-11.779
-11.599
-11.345
-11.031
-10.684
-10.361
-10.125
-10.031
-10.127
-10.453
-11.034
-11.914
-13.145
-14.774
-16.846
-19.395
-22.429
-25.996
-30.163
-34.915
-40.126
-45.537
-50.756
-55.412
-59.245
-61.95
-63.137
-62.573
-60.31
-56.728
-52.6
-48.736
-45.611
-43.681
-43.598
-45.699
-49.763
-55.016
-59.876
-62.446
-61.424
-55.499
-42.736
-21.762
7.9
46.176
90.691
138.207
187.181
234.629
278.014
315.282
340.056
347.226
332.201
290.513
225.432
142.192
46.456
-55.172
-162.797
-277.634
-396.721
-513.519
-614.643
-686.505
-722.997
-725.971
-704.945
-670.355
-628.409
-581.125
-526.938
-465.726
-400.202
-334.011
-271.682
-216.333
-169.086
-130.463
-100.376
-78
-62.227
-51.901
-45.532
-41.623
-38.972
-36.349
-32.72
-27.795
-21.718
-14.736
-7.379
-0.22
6.287
11.536
14.977
16.524
16.373
14.838
12.393
9.472
6.437
3.735
1.795
0.83
0.903
1.971
3.892
6.556
9.872
13.707
17.916
22.369
26.947
31.556
36.13
40.583
44.828
48.778
52.355
55.515
58.254
60.582
62.527
64.125
65.415
66.45
67.291
67.994
68.613
69.196
69.785
70.425
71.162
72.042
73.111
74.397
75.92
77.693
79.723
82.011
84.557
87.355
90.395
93.667
97.17
100.896
104.837
108.978
113.302
117.789
122.415
127.154
131.975
136.848
141.746
146.643
151.517
156.348
161.117
165.801
170.376
174.824
179.138
183.312
187.346
191.244
195.009
198.656
202.208
205.679
209.075
212.398
215.643
218.799
221.851
224.785
227.581
230.21
232.636
234.814
236.686
238.199
239.291
239.893
239.933
239.349
238.093
236.127
233.417
229.937
225.675
220.629
214.804
208.224
200.907
192.894
184.251
175.043
165.35
155.266
144.884
134.297
123.596
112.871
102.218
91.737
81.509
71.607
62.094
53.026
44.471
36.475
29.056
22.228
15.989
10.324
5.222
0.665
-3.385
-6.966
-10.133
-12.956
-15.485
-17.763
-19.836
-21.743
-23.536
-25.261
-26.938
-28.585
-30.209
-31.817
-33.417
-35.015
-36.599
-38.152
-39.648
-41.049
-42.334
-43.49
-44.502
-45.358
-46.045
-46.551
-46.879
-47.038
-47.038
-46.888
-46.595
-46.168
-45.623
-44.983
-44.271
-43.514
-42.732
-41.939
-41.152
-40.382
-39.639
-38.933
-38.267
-37.64
-37.051
-36.502
-35.995
-35.53
-35.107
-34.722
-34.372
-34.052
-33.761
-33.495
-33.252
-33.029
-32.825
-32.638
-32.468
-32.315
-32.179
-32.057
-31.948
-31.851
-31.762
-31.68
-31.603
-31.529
-31.455
-31.381
-31.305
-31.225
-31.143
-31.057
-30.966
-30.871
-30.771
-30.668
-30.562
-30.452
-30.341
-30.229
-30.116
-30.005
-29.897
-29.792
-29.692
-29.598
-29.511
-29.432
-29.362
-29.302
-29.253
-29.216
-29.192
-29.182
-29.187
-29.207
-29.243
-29.296
-29.367
-29.455
-29.56
-29.683
-29.823
-29.979
-30.151
-30.337
-30.538
-30.751
-30.976
-31.211
-31.454
-31.705
-31.961
-32.221
-32.483
-32.746
-33.006
-33.264
-33.517
-33.763
-34.002
-34.231
-34.449
-34.655
-34.847
-35.025
-35.188
-35.334
-35.464
-35.576
-35.671
-35.748
-35.808
-35.851
-35.878
-35.889
-35.885
-35.867
-35.836
-35.794
-35.742
-35.682
-35.616
-35.546
-35.472
-35.398
-35.325
-35.255
-35.19
-35.132
-35.082
-35.042
-35.013
-34.997
-34.994
-35.005
-35.03
-35.07
-35.124
-35.192
-35.272
-35.364
-35.465
-35.573
-35.685
-35.8
-35.915
-36.025
-36.128
-36.219
-36.295
-36.352
-36.385
-36.389
-36.36
-36.293
-36.183
-36.026
-35.818
-35.553
-35.228
-34.838
-34.38
-33.85
-33.247
-32.567
-31.808
-30.97
-30.052
-29.054
-27.979
-26.827
-25.603
-24.312
-22.957
-21.545
-20.083
-18.578
-17.036
-15.468
-13.88
-12.282
-10.682
-9.09
-7.514
-5.967
-4.458
-2.997
-1.594
-0.259
0.998
2.166
3.237
4.205
5.066
5.815
6.444
6.945
7.315
7.554
7.665
7.649
7.512
7.259
6.901
6.461
5.964
5.429
4.872
4.304
3.735
3.187
2.679
2.235
1.867
1.574
1.355
1.218
1.162
1.174
1.226
1.254
1.193
0.995
0.613
0.014
-0.831
-1.974
-3.476
-5.386
-7.751
-10.591
-13.902
-17.719
-22.103
-27.009
-32.294
-37.695
-42.805
-47.278
-50.876
-53.29
-54.149
-53.292
-50.762
-46.879
-42.435
-38.159
-34.528
-32.13
-31.496
-32.748
-35.66
-39.463
-42.524
-43.194
-40.045
-31.334
-15.602
7.99
39.738
78.856
123.358
170.883
218.569
262.507
298.745
323.541
333.384
325.847
299.33
252.784
187.415
107.048
15.85
-82.214
-185.694
-295.154
-407.318
-514.167
-603.207
-661.754
-684.538
-675.101
-643.599
-600.669
-553.007
-502.487
-447.455
-387.802
-325.427
-263.373
-206.219
-156.942
-116.388
-84.897
-61.599
-44.941
-34.108
-28.073
-25.074
-23.666
-22.447
-20.004
-15.959
-10.549
-3.856
3.755
11.622
19.242
25.892
30.781
33.753
34.978
34.699
33.364
31.398
29.145
27.078
25.682
25.19
25.682
27.126
29.369
32.309
35.862
39.901
44.29
48.902
53.63
58.386
63.108
67.716
72.125
76.248
80.006
83.354
86.278
88.788
90.911
92.678
94.13
95.312
96.28
97.089
97.791
98.433
99.058
99.711
100.439
101.291
102.315
103.547
105.007
106.715
108.677
110.898
113.384
116.13
119.132
122.388
125.894
129.642
133.626
137.832
142.241
146.833
151.58
156.452
161.42
166.456
171.534
176.634
181.736
186.819
191.864
196.845
201.743
206.549
211.258
215.865
220.374
224.782
229.1
233.348
237.539
241.678
245.761
249.77
253.683
257.481
261.138
264.629
267.919
270.955
273.684
276.05
277.996
279.471
280.413
280.743
280.395
279.32
277.484
274.872
271.475
267.28
262.283
256.493
249.935
242.653
234.698
226.115
216.956
207.275
197.141
186.647
175.884
164.931
153.859
142.733
131.625
120.622
109.817
99.275
89.053
79.196
69.743
60.75
52.263
44.316
36.931
30.107
23.835
18.113
12.937
8.29
4.14
0.433
-2.898
-5.899
-8.608
-11.06
-13.291
-15.349
-17.283
-19.123
-20.891
-22.601
-24.26
-25.882
-27.481
-29.049
-30.574
-32.027
-33.371
-34.585
-35.656
-36.574
-37.329
-37.906
-38.295
-38.497
-38.522
-38.378
-38.077
-37.624
-37.029
-36.308
-35.485
-34.584
-33.634
-32.656
-31.667
-30.681
-29.712
-28.771
-27.868
-27.006
-26.184
-25.404
-24.666
-23.973
-23.327
-22.728
-22.173
-21.659
-21.184
-20.745
-20.342
-19.974
-19.638
-19.334
-19.062
-18.823
-18.619
-18.448
-18.311
-18.206
-18.132
-18.088
-18.07
-18.079
-18.11
-18.162
-18.234
-18.322
-18.427
-18.547
-18.679
-18.823
-18.978
-19.141
-19.313
-19.492
-19.678
-19.869
-20.065
-20.266
-20.47
-20.677
-20.887
-21.099
-21.311
-21.523
-21.735
-21.946
-22.155
-22.363
-22.569
-22.772
-22.975
-23.177
-23.378
-23.579
-23.782
-23.988
-24.198
-24.413
-24.635
-24.866
-25.107
-25.359
-25.626
-25.908
-26.208
-26.527
-26.867
-27.23
-27.616
-28.029
-28.47
-28.939
-29.439
-29.971
-30.536
-31.136
-31.77
-32.44
-33.145
-33.887
-34.665
-35.478
-36.326
-37.207
-38.12
-39.064
-40.036
-41.033
-42.053
-43.092
-44.146
-45.211
-46.282
-47.354
-48.422
-49.48
-50.524
-51.548
-52.545
-53.511
-54.438
-55.323
-56.157
-56.937
-57.655
-58.307
-58.887
-59.389
-59.809
-60.143
-60.386
-60.535
-60.586
-60.536
-60.384
-60.127
-59.764
-59.294
-58.718
-58.038
-57.254
-56.371
-55.392
-54.322
-53.167
-51.935
-50.633
-49.268
-47.85
-46.387
-44.889
-43.367
-41.829
-40.286
-38.748
-37.226
-35.731
-34.275
-32.868
-31.521
-30.243
-29.046
-27.94
-26.934
-26.032
-25.241
-24.566
-24.013
-23.592
-23.307
-23.156
-23.139
-23.254
-23.497
-23.862
-24.336
-24.897
-25.521
-26.189
-26.883
-27.591
-28.299
-28.989
-29.639
-30.229
-30.747
-31.188
-31.55
-31.827
-32.02
-32.141
-32.221
-32.318
-32.498
-32.817
-33.328
-34.073
-35.091
-36.432
-38.155
-40.312
-42.946
-46.083
-49.724
-53.898
-58.66
-63.981
-69.734
-75.674
-81.419
-86.626
-91.054
-94.404
-96.303
-96.534
-95.064
-92.157
-88.53
-84.851
-81.528
-79.037
-77.88
-78.294
-80.227
-83.075
-85.346
-85.527
-82.517
-74.861
-61.041
-40.088
-11.277
24.526
64.248
105.981
148.446
190.478
232.463
270.307
296.219
302.944
282.489
233.542
162.432
76.511
-15.717
-109.945
-208.573
-313.408
-422.964
-530.487
-622.693
-687.394
-718.918
-719.083
-696.999
-662.297
-621.003
-575.365
-524.049
-466.992
-406.48
-345.686
-288.978
-239.274
-197.562
-164.311
-139.009
-120.524
-107.876
-99.93
-95.082
-91.908
-89.108
-85.366
-80.155
-73.568
-65.798
-57.248
-48.534
-40.19
-32.86
-27.294
-23.726
-22.012
-21.899
-22.948
-24.73
-26.896
-29.002
-30.559
-31.287
-31.075
-29.92
-27.941
-25.238
-21.88
-17.978
-13.666
-9.066
-4.293
0.559
5.421
10.221
14.873
19.299
23.422
27.177
30.539
33.506
36.092
38.326
40.245
41.888
43.306
44.557
45.697
46.776
47.843
48.938
50.108
51.398
52.855
54.519
56.42
58.575
60.998
63.697
66.672
69.923
73.445
77.228
81.269
85.561
90.094
94.854
99.826
104.987
110.315
115.78
121.345
126.976
132.637
138.303
143.957
149.581
155.155
160.658
166.065
171.361
176.542
181.599
186.52
191.294
195.911
200.375
204.714
208.945
213.075
217.095
220.971
224.677
228.193
231.487
234.526
237.261
239.621
241.56
243.053
244.073
244.595
244.569
243.914
242.57
240.501
237.686
234.135
229.848
224.81
219.04
212.577
205.478
197.828
189.676
181.033
171.929
162.395
152.494
142.332
131.99
121.529
111.019
100.515
90.097
79.866
69.886
60.19
50.802
41.726
33.004
24.713
16.912
9.643
2.926
-3.251
-8.888
-13.969
-18.508
-22.531
-26.088
-29.254
-32.079
-34.578
-36.772
-38.675
-40.322
-41.778
-43.088
-44.28
-45.378
-46.395
-47.348
-48.268
-49.157
-50.002
-50.778
-51.443
-51.976
-52.376
-52.639
-52.764
-52.747
-52.573
-52.24
-51.76
-51.141
-50.391
-49.519
-48.524
-47.422
-46.237
-44.996
-43.729
-42.459
-41.202
-39.97
-38.778
-37.635
-36.553
-35.533
-34.575
-33.679
-32.845
-32.076
-31.373
-30.738
-30.165
-29.65
-29.19
-28.78
-28.417
-28.099
-27.822
-27.583
-27.38
-27.213
-27.081
-26.984
-26.918
-26.882
-26.873
-26.889
-26.927
-26.984
-27.057
-27.143
-27.24
-27.346
-27.458
-27.575
-27.696
-27.819
-27.943
-28.067
-28.189
-28.309
-28.426
-28.539
-28.648
-28.752
-28.85
-28.942
-29.027
-29.105
-29.175
-29.238
-29.292
-29.337
-29.373
-29.398
-29.414
-29.418
-29.411
-29.392
-29.361
-29.318
-29.263
-29.197
-29.118
-29.027
-28.925
-28.811
-28.685
-28.548
-28.399
-28.24
-28.071
-27.892
-27.704
-27.51
-27.309
-27.104
-26.896
-26.686
-26.477
-26.268
-26.063
-25.862
-25.666
-25.478
-25.3
-25.132
-24.977
-24.836
-24.711
-24.603
-24.514
-24.446
-24.399
-24.375
-24.374
-24.398
-24.447
-24.521
-24.622
-24.749
-24.903
-25.083
-25.287
-25.516
-25.767
-26.037
-26.324
-26.624
-26.935
-27.253
-27.572
-27.89
-28.201
-28.504
-28.795
-29.068
-29.321
-29.549
-29.748
-29.915
-30.043
-30.128
-30.163
-30.143
-30.064
-29.921
-29.71
-29.428
-29.069
-28.632
-28.115
-27.519
-26.838
-26.069
-25.204
-24.243
-23.192
-22.064
-20.865
-19.604
-18.289
-16.932
-15.55
-14.155
-12.75
-11.33
-9.888
-8.424
-6.95
-5.482
-4.037
-2.623
-1.236
0.127
1.464
2.771
4.053
5.323
6.605
7.902
9.196
10.444
11.608
12.669
13.62
14.465
15.204
15.829
16.333
16.719
16.997
17.176
17.253
17.198
16.983
16.603
16.088
15.499
14.884
14.269
13.667
13.083
12.529
12.014
11.526
11.023
10.454
9.765
8.926
7.931
6.776
5.447
3.893
2.032
-0.2
-2.854
-5.964
-9.544
-13.635
-18.299
-23.499
-29.074
-34.767
-40.208
-45.064
-49.125
-52.129
-53.716
-53.661
-51.979
-48.989
-45.369
-41.807
-38.654
-36.251
-35.149
-35.656
-37.637
-40.467
-42.76
-42.886
-39.85
-32.653
-19.644
0.322
27.699
62.529
102.549
144.891
188.601
231.273
270.93
306.042
330.553
339.689
329.154
294.231
236.856
160.952
72.23
-22.212
-120.262
-222.303
-329.087
-438.274
-541.298
-625.868
-680.749
-701.542
-692.11
-661.844
-620.315
-573.597
-523.413
-468.595
-409.336
-347.417
-285.632
-228.167
-177.758
-135.379
-101.735
-76.246
-57.511
-44.981
-37.927
-34.858
-34.674
-35.839
-36.305
-35.295
-32.87
-28.804
-23.203
-16.378
-8.253
0.417
8.165
14.398
19.012
21.973
23.621
24.105
23.225
21.382
19.48
18.048
17.412
17.697
18.709
20.426
23.025
26.43
30.36
34.586
38.884
43.123
47.32
51.428
55.328
58.948
62.233
65.143
67.688
69.879
71.712
73.203
74.38
75.28
75.96
76.48
76.892
77.245
77.584
77.946
78.375
78.919
79.621
80.526
81.665
83.056
84.718
86.658
88.882
91.391
94.178
97.235
100.556
104.134
107.962
112.026
116.314
120.804
125.476
130.299
135.237
140.256
145.327
150.426
155.54
160.652
165.742
170.791
175.778
180.69
185.519
190.251
194.87
199.363
203.722
207.958
212.097
216.156
220.136
224.018
227.768
231.356
234.753
237.929
240.841
243.438
245.668
247.496
248.906
249.873
250.361
250.31
249.634
248.266
246.171
243.339
239.783
235.518
230.559
224.938
218.711
211.945
204.698
197.009
188.888
180.363
171.486
162.342
153.045
143.702
134.391
125.171
116.089
107.186
98.505
90.069
81.878
73.927
66.228
58.811
51.737
45.052
38.768
32.875
27.334
22.095
17.134
12.43
7.961
3.714
-0.323
-4.156
-7.769
-11.148
-14.298
-17.235
-20.002
-22.634
-25.144
-27.533
-29.785
-31.874
-33.788
-35.516
-37.043
-38.364
-39.478
-40.388
-41.112
-41.669
-42.069
-42.316
-42.405
-42.329
-42.096
-41.716
-41.207
-40.591
-39.889
-39.118
-38.301
-37.455
-36.593
-35.727
-34.86
-33.995
-33.137
-32.292
-31.467
-30.67
-29.908
-29.183
-28.498
-27.854
-27.251
-26.69
-26.168
-25.685
-25.239
-24.83
-24.459
-24.127
-23.836
-23.584
-23.372
-23.198
-23.062
-22.961
-22.895
-22.86
-22.855
-22.878
-22.926
-22.999
-23.095
-23.211
-23.345
-23.497
-23.663
-23.842
-24.032
-24.232
-24.439
-24.652
-24.87
-25.09
-25.312
-25.534
-25.755
-25.973
-26.189
-26.4
-26.607
-26.808
-27.002
-27.188
-27.367
-27.538
-27.699
-27.851
-27.993
-28.125
-28.246
-28.357
-28.457
-28.546
-28.624
-28.691
-28.745
-28.789
-28.82
-28.841
-28.851
-28.85
-28.84
-28.821
-28.794
-28.76
-28.72
-28.675
-28.627
-28.575
-28.523
-28.472
-28.422
-28.375
-28.333
-28.298
-28.27
-28.253
-28.247
-28.255
-28.278
-28.319
-28.378
-28.459
-28.563
-28.692
-28.849
-29.034
-29.25
-29.498
-29.779
-30.095
-30.447
-30.835
-31.26
-31.721
-32.219
-32.752
-33.32
-33.922
-34.555
-35.219
-35.91
-36.626
-37.365
-38.122
-38.894
-39.677
-40.467
-41.257
-42.044
-42.822
-43.585
-44.327
-45.043
-45.725
-46.368
-46.965
-47.509
-47.994
-48.414
-48.762
-49.033
-49.22
-49.318
-49.323
-49.23
-49.035
-48.735
-48.327
-47.809
-47.18
-46.437
-45.583
-44.617
-43.541
-42.359
-41.073
-39.689
-38.214
-36.652
-35.014
-33.307
-31.541
-29.726
-27.874
-25.997
-24.105
-22.213
-20.331
-18.474
-16.654
-14.884
-13.177
-11.548
-10.007
-8.567
-7.241
-6.039
-4.972
-4.048
-3.272
-2.649
-2.183
-1.879
-1.742
-1.773
-1.97
-2.329
-2.848
-3.519
-4.331
-5.269
-6.307
-7.422
-8.595
-9.806
-11.042
-12.289
-13.524
-14.73
-15.886
-16.972
-17.977
-18.889
-19.691
-20.379
-20.959
-21.454
-21.917
-22.398
-22.937
-23.57
-24.317
-25.208
-26.294
-27.623
-29.245
-31.209
-33.533
-36.263
-39.492
-43.235
-47.439
-51.933
-56.377
-60.462
-63.962
-66.604
-68.096
-68.222
-66.846
-64.206
-60.925
-57.569
-54.635
-52.513
-51.477
-51.9
-54.011
-57.308
-60.688
-62.844
-62.328
-58.142
-49.32
-34.25
-11.578
19.182
56.931
98.848
142.136
185.283
228.839
273.501
316.88
352.903
371
360.6
317.448
243.769
149.319
46.747
-56.956
-159.684
-263.365
-371.392
-479.312
-576.929
-653.824
-699.805
-713.839
-702.932
-673.635
-633.54
-586.392
-531.155
-469.287
-403.001
-335.122
-270.637
-213.012
-164.119
-125.296
-96.404
-76.33
-63.8
-57.402
-55.252
-55.439
-56.136
-55.513
-52.63
-47.442
-40.212
-31.44
-21.886
-12.319
-3.632
3.159
7.62
9.819
10.008
8.682
6.347
3.44
0.504
-1.881
-3.376
-3.842
-3.269
-1.791
0.479
3.462
7.03
11.046
15.39
19.949
24.635
29.379
34.098
38.699
43.09
47.183
50.903
54.21
57.09
59.553
61.626
63.342
64.739
65.864
66.772
67.517
68.151
68.723
69.274
69.851
70.504
71.282
72.23
73.383
74.763
76.381
78.248
80.37
82.753
85.398
88.298
91.444
94.828
98.439
102.265
106.291
110.49
114.833
119.291
123.84
128.459
133.131
137.833
142.545
147.247
151.915
156.536
161.104
165.614
170.062
174.459
178.812
183.139
187.472
191.824
196.203
200.606
205.016
209.422
213.814
218.165
222.449
226.634
230.667
234.502
238.088
241.35
244.22
246.617
248.437
249.609
250.077
249.788
248.719
246.842
244.123
240.559
236.162
230.946
224.952
218.213
210.758
202.659
193.984
184.819
175.281
165.461
155.438
145.304
135.135
125.016
115.053
105.32
95.867
86.752
78.011
69.695
61.868
54.554
47.769
41.521
35.786
30.555
25.825
21.57
17.755
14.336
11.242
8.427
5.866
3.524
1.376
-0.614
-2.499
-4.311
-6.062
-7.769
-9.436
-11.07
-12.687
-14.278
-15.826
-17.304
-18.673
-19.906
-20.999
-21.939
-22.722
-23.339
-23.774
-24.026
-24.103
-24.014
-23.766
-23.367
-22.822
-22.145
-21.362
-20.496
-19.58
-18.636
-17.68
-16.726
-15.788
-14.876
-14.002
-13.172
-12.385
-11.643
-10.95
-10.307
-9.72
-9.189
-8.711
-8.284
-7.904
-7.569
-7.278
-7.028
-6.817
-6.644
-6.507
-6.408
-6.346
-6.321
-6.331
-6.375
-6.449
-6.552
-6.68
-6.831
-7.001
-7.188
-7.39
-7.603
-7.826
-8.058
-8.296
-8.539
-8.784
-9.031
-9.278
-9.524
-9.767
-10.006
-10.241
-10.471
-10.694
-10.911
-11.12
-11.322
-11.514
-11.697
-11.871
-12.033
-12.184
-12.324
-12.452
-12.569
-12.673
-12.765
-12.846
-12.915
-12.973
-13.019
-13.054
-13.078
-13.091
-13.093
-13.084
-13.065
-13.034
-12.992
-12.939
-12.876
-12.802
-12.717
-12.623
-12.518
-12.404
-12.281
-12.149
-12.009
-11.861
-11.706
-11.544
-11.377
-11.204
-11.027
-10.846
-10.663
-10.478
-10.293
-10.108
-9.925
-9.746
-9.57
-9.4
-9.237
-9.081
-8.935
-8.798
-8.672
-8.56
-8.461
-8.378
-8.311
-8.262
-8.232
-8.222
-8.232
-8.265
-8.319
-8.396
-8.497
-8.621
-8.77
-8.943
-9.139
-9.359
-9.601
-9.864
-10.146
-10.445
-10.757
-11.081
-11.412
-11.748
-12.083
-12.414
-12.739
-13.054
-13.355
-13.639
-13.901
-14.14
-14.349
-14.526
-14.664
-14.756
-14.795
-14.778
-14.698
-14.551
-14.333
-14.039
-13.665
-13.211
-12.673
-12.051
-11.338
-10.526
-9.614
-8.604
-7.505
-6.329
-5.086
-3.783
-2.435
-1.059
0.332
1.732
3.14
4.569
6.019
7.486
8.957
10.41
11.836
13.232
14.6
15.942
17.263
18.562
19.856
21.169
22.509
23.867
25.211
26.488
27.668
28.734
29.677
30.504
31.209
31.783
32.227
32.541
32.721
32.763
32.639
32.304
31.748
30.983
30.049
29.015
27.923
26.796
25.658
24.513
23.366
22.219
21.045
19.809
18.489
17.058
15.514
13.877
12.133
10.266
8.23
5.946
3.361
0.427
-2.905
-6.642
-10.807
-15.436
-20.471
-25.785
-31.176
-36.322
-40.923
-44.751
-47.498
-48.814
-48.464
-46.378
-42.818
-38.371
-33.679
-29.316
-25.877
-24.035
-24.283
-26.692
-30.681
-35.021
-38.136
-38.442
-34.346
-23.988
-5.799
21.087
56.615
99.51
147.615
198.333
248.458
293.818
330.064
353.147
359.758
347.742
315.707
263.224
191.1
102.557
2.9
-103.355
-212.226
-321.05
-428.759
-529.673
-615.423
-678.667
-711.599
-714.013
-692.32
-652.311
-601.737
-545.07
-482.166
-414.898
-345.346
-276.359
-213.018
-158.84
-115.339
-82.912
-60.498
-46.452
-39.332
-37.345
-38.152
-39.483
-39.398
-36.799
-31.576
-24.09
-14.871
-4.648
5.664
15.042
22.447
27.374
29.887
30.268
29.008
26.622
23.565
20.4
17.706
15.819
14.884
14.919
15.801
17.421
19.69
22.455
25.575
28.946
32.483
36.135
39.848
43.543
47.137
50.552
53.719
56.593
59.131
61.31
63.141
64.662
65.936
67.044
68.044
68.971
69.847
70.687
71.522
72.389
73.323
74.353
75.509
76.819
78.317
80.034
81.982
84.154
86.525
89.059
91.738
94.563
97.55
100.716
104.069
107.61
111.337
115.25
119.347
123.611
128.012
132.512
137.07
141.664
146.282
150.919
155.568
160.211
164.819
169.369
173.843
178.223
182.493
186.63
190.607
194.417
198.063
201.565
204.954
208.244
211.425
214.483
217.391
220.12
222.642
224.912
226.875
228.482
229.692
230.474
230.814
230.68
230.03
228.812
226.958
224.425
221.197
217.266
212.639
207.339
201.401
194.882
187.869
180.434
172.637
164.532
156.154
147.552
138.79
129.933
121.056
112.223
103.48
94.87
86.433
78.191
70.16
62.332
54.677
47.179
39.835
32.645
25.625
18.78
12.113
5.623
-0.686
-6.812
-12.75
-18.496
-24.052
-29.41
-34.56
-39.483
-44.15
-48.544
-52.653
-56.473
-60.004
-63.246
-66.202
-68.877
-71.284
-73.432
-75.331
-76.99
-78.417
-79.622
-80.618
-81.419
-82.041
-82.501
-82.811
-82.986
-83.037
-82.978
-82.819
-82.571
-82.241
-81.838
-81.37
-80.847
-80.277
-79.669
-79.03
-78.367
-77.687
-76.996
-76.298
-75.599
-74.9
-74.205
-73.515
-72.833
-72.159
-71.494
-70.838
-70.191
-69.552
-68.922
-68.298
-67.682
-67.07
-66.463
-65.86
-65.26
-64.661
-64.064
-63.467
-62.871
-62.274
-61.679
-61.084
-60.49
-59.897
-59.306
-58.718
-58.135
-57.557
-56.985
-56.422
-55.87
-55.33
-54.805
-54.299
-53.812
-53.349
-52.912
-52.505
-52.129
-51.789
-51.485
-51.222
-51
-50.823
-50.692
-50.609
-50.576
-50.592
-50.661
-50.78
-50.952
-51.176
-51.452
-51.778
-52.153
-52.578
-53.049
-53.565
-54.125
-54.725
-55.363
-56.037
-56.744
-57.479
-58.24
-59.023
-59.823
-60.638
-61.462
-62.293
-63.125
-63.956
-64.781
-65.596
-66.398
-67.183
-67.949
-68.691
-69.407
-70.096
-70.754
-71.38
-71.973
-72.533
-73.058
-73.55
-74.007
-74.43
-74.821
-75.179
-75.506
-75.804
-76.073
-76.317
-76.536
-76.735
-76.916
-77.082
-77.237
-77.384
-77.527
-77.669
-77.813
-77.964
-78.125
-78.3
-78.491
-78.704
-78.94
-79.203
-79.495
-79.819
-80.174
-80.562
-80.982
-81.434
-81.915
-82.423
-82.956
-83.512
-84.087
-84.679
-85.285
-85.902
-86.529
-87.161
-87.794
-88.424
-89.045
-89.65
-90.23
-90.78
-91.29
-91.753
-92.163
-92.514
-92.799
-93.014
-93.153
-93.211
-93.181
-93.052
-92.819
-92.478
-92.029
-91.478
-90.833
-90.109
-89.319
-88.481
-87.608
-86.709
-85.788
-84.841
-83.861
-82.844
-81.791
-80.711
-79.615
-78.508
-77.395
-76.274
-75.138
-73.973
-72.758
-71.469
-70.09
-68.616
-67.062
-65.46
-63.853
-62.291
-60.806
-59.422
-58.155
-57.02
-56.029
-55.193
-54.525
-54.044
-53.781
-53.777
-54.066
-54.662
-55.554
-56.708
-58.069
-59.571
-61.167
-62.821
-64.5
-66.19
-67.88
-69.57
-71.279
-73.017
-74.784
-76.577
-78.387
-80.22
-82.1
-84.056
-86.141
-88.43
-90.982
-93.854
-97.095
-100.713
-104.728
-109.182
-114.022
-119.117
-124.261
-129.134
-133.443
-136.998
-139.56
-140.797
-140.505
-138.707
-135.7
-132.128
-128.661
-125.641
-123.353
-122.303
-122.807
-124.737
-127.52
-129.837
-130.055
-127.196
-120.497
-108.522
-90.008
-64.4
-31.502
6.763
46.727
86.942
126.392
163.915
200.368
231.756
250.249
249.302
221.167
164.414
86.145
-5.342
-101.159
-196.685
-294.616
-397.893
-505.065
-608.863
-696.124
-754.639
-779.596
-774.164
-747.662
-709.585
-665.525
-617.085
-562.96
-503.175
-440.084
-377.045
-318.457
-267.413
-225.024
-191.76
-167.127
-149.893
-138.991
-133.173
-130.602
-129.631
-128.806
-126.727
-122.861
-117.356
-110.441
-102.595
-94.552
-86.915
-80.385
-75.71
-73.083
-72.358
-73.268
-75.349
-78.152
-81.315
-84.392
-86.931
-88.69
-89.549
-89.506
-88.673
-87.136
-84.976
-82.307
-79.246
-75.905
-72.38
-68.751
-65.086
-61.453
-57.916
-54.542
-51.388
-48.501
-45.927
-43.678
-41.743
-40.101
-38.718
-37.555
-36.573
-35.722
-34.945
-34.191
-33.413
-32.567
-31.62
-30.53
-29.259
-27.77
-26.029
-24.015
-21.715
-19.12
-16.223
-13.021
-9.514
-5.714
-1.638
2.699
7.277
12.077
17.076
22.242
27.544
32.956
38.45
44.006
49.598
55.199
60.784
66.327
71.808
77.217
82.546
87.789
92.953
98.04
103.064
108.049
113.003
117.925
122.809
127.635
132.39
137.062
141.626
146.056
150.324
154.384
158.191
161.7
164.837
167.535
169.722
171.309
172.238
172.46
171.932
170.639
168.558
165.667
161.963
157.447
152.123
146.016
139.155
131.57
123.332
114.51
105.179
95.435
85.357
75.023
64.512
53.889
43.226
32.607
22.111
11.82
1.817
-7.832
-17.065
-25.815
-34.05
-41.743
-48.872
-55.438
-61.437
-66.871
-71.752
-76.092
-79.911
-83.249
-86.157
-88.695
-90.925
-92.899
-94.666
-96.283
-97.788
-99.214
-100.59
-101.928
-103.238
-104.533
-105.814
-107.085
-108.339
-109.56
-110.721
-111.786
-112.726
-113.52
-114.146
-114.587
-114.831
-114.869
-114.701
-114.336
-113.785
-113.054
-112.156
-111.099
-109.9
-108.577
-107.153
-105.653
-104.099
-102.508
-100.893
-99.268
-97.641
-96.021
-94.41
-92.807
-91.211
-89.622
-88.04
-86.468
-84.904
-83.346
-81.792
-80.241
-78.689
-77.138
-75.585
-74.031
-72.476
-70.92
-69.365
-67.812
-66.263
-64.717
-63.176
-61.639
-60.104
-58.572
-57.043
-55.514
-53.986
-52.459
-50.931
-49.405
-47.879
-46.355
-44.833
-43.312
-41.795
-40.282
-38.773
-37.27
-35.773
-34.283
-32.8
-31.325
-29.859
-28.401
-26.952
-25.512
-24.082
-22.66
-21.249
-19.846
-18.453
-17.07
-15.698
-14.336
-12.985
-11.645
-10.316
-9
-7.696
-6.405
-5.127
-3.861
-2.608
-1.368
-0.14
1.076
2.28
3.473
4.656
5.828
6.991
8.146
9.292
10.431
11.563
12.689
13.811
14.929
16.046
17.161
18.278
19.398
20.523
21.657
22.801
23.96
25.135
26.33
27.549
28.795
30.072
31.383
32.732
34.124
35.561
37.047
38.588
40.185
41.843
43.566
45.356
47.218
49.154
51.168
53.262
55.439
57.701
60.052
62.491
65.022
67.643
70.354
73.155
76.044
79.017
82.07
85.199
88.397
91.66
94.98
98.351
101.765
105.214
108.69
112.185
115.689
119.192
122.682
126.146
129.575
132.955
136.276
139.525
142.69
145.761
148.729
151.582
154.31
156.902
159.342
161.621
163.733
165.675
167.446
169.051
170.495
171.789
172.953
174.001
174.948
175.809
176.595
177.321
178.01
178.684
179.371
180.095
180.87
181.711
182.636
183.647
184.746
185.923
187.145
188.392
189.651
190.905
192.138
193.32
194.412
195.376
196.182
196.814
197.251
197.464
197.414
197.082
196.462
195.584
194.484
193.144
191.592
189.938
188.372
187.214
186.765
187.221
188.802
191.811
196.399
202.519
209.859
217.684
225.303
232.28
238.105
242.258
244.508
244.983
244.416
244.288
246.036
250.897
260.431
276.182
299.381
329.965
366.087
405.376
446.235
489.523
536.873
586.767
633.227
665.16
671.03
645.329
589.87
513.895
428.851
342.277
257.101
171.202
81.157
-13.046
-107.297
-192.797
-258.975
-298.661
-306.347
-274.141
-218.464
-180.806
-130.935
4.206
