-34.198
-33.816
-33.419
-33.009
-32.587
-32.153
-31.71
-31.258
-30.8
-30.337
-29.873
-29.411
-28.953
-28.504
-28.067
-27.647
-27.247
-26.871
-26.522
-26.202
-25.916
-25.67
-25.47
-25.323
-25.232
-25.2
-25.228
-25.316
-25.463
-25.66
-25.896
-26.153
-26.421
-26.689
-26.948
-27.19
-27.4
-27.559
-27.654
-27.67
-27.603
-27.449
-27.2
-26.851
-26.411
-25.901
-25.361
-24.847
-24.402
-24.067
-23.892
-23.922
-24.233
-24.909
-26.015
-27.6
-29.685
-32.278
-35.415
-39.151
-43.527
-48.532
-54.07
-59.979
-66.147
-72.557
-79.136
-85.637
-91.594
-96.482
-99.988
-102.131
-103.036
-102.464
-100.037
-95.748
-90.183
-84.343
-79.124
-74.424
-69.221
-63.118
-56.286
-49.176
-42.388
-35.7
-28.301
-19.219
-7.393
9.503
34.706
69.872
114.673
165.239
214.047
252.848
273.357
268.283
233.455
169.731
83.686
-14.759
-116.358
-216.616
-316.863
-418.553
-516.914
-608.888
-692.844
-748.227
-756.691
-735.101
-702.372
-655.525
-593.96
-523.708
-448.834
-373.471
-302.241
-241.017
-194.23
-161.188
-138.393
-121.378
-107.766
-98.503
-95.136
-97.383
-101.027
-101.086
-95.07
-83.073
-68.361
-54.489
-42.878
-33.886
-27.164
-22.082
-18.592
-16.901
-17.021
-18.742
-21.671
-25.178
-28.494
-31.16
-32.94
-33.705
-33.536
-32.521
-30.697
-28.17
-25.066
-21.476
-17.505
-13.246
-8.758
-4.13
0.541
5.171
9.666
13.947
17.956
21.636
24.957
27.918
30.535
32.836
34.857
36.639
38.229
39.683
41.057
42.401
43.766
45.19
46.719
48.394
50.252
52.33
54.65
57.219
60.039
63.105
66.404
69.921
73.633
77.507
81.515
85.63
89.831
94.101
98.421
102.769
107.125
111.462
115.766
120.028
124.245
128.416
132.542
136.627
140.685
144.738
148.8
152.872
156.946
161.007
165.037
169.016
172.919
176.721
180.385
183.868
187.124
190.1
192.742
194.992
196.775
198.013
198.64
198.604
197.871
196.415
194.204
191.228
187.487
182.987
177.757
171.823
165.209
157.962
150.136
141.795
133.031
123.939
114.606
105.119
95.561
86.016
76.585
67.346
58.36
49.682
41.353
33.424
25.96
18.995
12.551
6.642
1.251
-3.636
-8.03
-11.962
-15.471
-18.606
-21.438
-24.02
-26.384
-28.564
-30.587
-32.492
-34.333
-36.146
-37.948
-39.757
-41.577
-43.415
-45.28
-47.165
-49.047
-50.898
-52.676
-54.353
-55.921
-57.367
-58.683
-59.86
-60.878
-61.731
-62.425
-62.965
-63.355
-63.602
-63.704
-63.676
-63.539
-63.315
-63.032
-62.708
-62.356
-61.986
-61.609
-61.232
-60.864
-60.509
-60.162
-59.825
-59.498
-59.182
-58.88
-58.591
-58.31
-58.035
-57.76
-57.482
-57.2
-56.912
-56.616
-56.31
-55.993
-55.668
-55.334
-54.993
-54.643
-54.284
-53.916
-53.537
-53.147
-52.744
-52.329
-51.9
-51.457
-51
-50.53
-50.046
-49.551
-49.043
-48.525
-47.996
-47.459
-46.914
-46.362
-45.805
-45.245
-44.682
-44.119
-43.557
-42.998
-42.442
-41.892
-41.349
-40.814
-40.289
-39.775
-39.273
-38.784
-38.31
-37.853
-37.412
-36.99
-36.587
-36.206
-35.846
-35.509
-35.195
-34.906
-34.642
-34.403
-34.191
-34.004
-33.845
-33.713
-33.609
-33.533
-33.485
-33.467
-33.476
-33.515
-33.583
-33.679
-33.802
-33.953
-34.131
-34.333
-34.56
-34.809
-35.08
-35.371
-35.679
-36.004
-36.342
-36.693
-37.053
-37.421
-37.793
-38.167
-38.54
-38.909
-39.271
-39.624
-39.963
-40.286
-40.588
-40.866
-41.117
-41.336
-41.519
-41.662
-41.762
-41.815
-41.818
-41.769
-41.665
-41.504
-41.286
-41.012
-40.681
-40.294
-39.852
-39.357
-38.81
-38.216
-37.574
-36.887
-36.157
-35.39
-34.591
-33.764
-32.916
-32.051
-31.175
-30.296
-29.42
-28.554
-27.703
-26.871
-26.064
-25.292
-24.565
-23.895
-23.29
-22.751
-22.279
-21.875
-21.537
-21.261
-21.037
-20.847
-20.677
-20.516
-20.36
-20.207
-20.048
-19.868
-19.645
-19.36
-19.004
-18.577
-18.085
-17.528
-16.915
-16.264
-15.604
-14.986
-14.461
-14.065
-13.824
-13.769
-13.929
-14.359
-15.14
-16.332
-17.982
-20.102
-22.668
-25.697
-29.216
-33.233
-37.762
-42.733
-47.974
-53.401
-58.991
-64.611
-70.126
-75.186
-79.157
-81.702
-82.762
-82.291
-80.38
-77.112
-72.333
-66.427
-60.499
-55.242
-51.061
-48.093
-45.409
-41.948
-37.616
-31.676
-23.414
-13.914
-3.287
8.679
22.003
40.103
66.657
102.666
147.143
194.805
238.07
270.16
284.393
275.684
240.372
177.663
92.769
-6.62
-112.387
-219.123
-327.071
-433.128
-535.043
-640.24
-734.47
-777.037
-764.729
-734.638
-699.581
-649.43
-585.094
-514.024
-440.315
-366.696
-297.705
-238.632
-192.502
-159.375
-136.243
-118.931
-105.061
-93.99
-86.382
-82.508
-80.26
-77.524
-73.068
-66.092
-57.101
-46.88
-35.818
-24.898
-15.544
-8.556
-4.257
-2.593
-2.979
-4.874
-7.913
-11.514
-14.955
-17.749
-19.587
-20.321
-20.045
-18.848
-16.769
-13.92
-10.437
-6.431
-2.018
2.704
7.676
12.805
17.984
23.122
28.122
32.899
37.391
41.538
45.303
48.685
51.697
54.368
56.734
58.833
60.714
62.432
64.042
65.598
67.151
68.742
70.414
72.208
74.162
76.31
78.679
81.282
84.121
87.191
90.482
93.983
97.676
101.532
105.517
109.602
113.758
117.966
122.216
126.492
130.775
135.049
139.29
143.49
147.649
151.764
155.828
159.839
163.79
167.695
171.586
175.48
179.385
183.292
187.168
190.983
194.715
198.328
201.788
205.047
208.038
210.713
213.042
214.986
216.508
217.546
218.006
217.818
216.928
215.304
212.951
209.872
206.066
201.557
196.384
190.596
184.262
177.427
170.11
162.346
154.182
145.691
136.988
128.174
119.341
110.568
101.906
93.406
85.122
77.083
69.302
61.791
54.549
47.604
41.009
34.8
29.002
23.611
18.594
13.913
9.528
5.402
1.512
-2.167
-5.652
-8.952
-12.06
-14.976
-17.696
-20.235
-22.632
-24.914
-27.103
-29.207
-31.216
-33.113
-34.875
-36.48
-37.91
-39.153
-40.203
-41.064
-41.745
-42.257
-42.612
-42.816
-42.866
-42.76
-42.498
-42.088
-41.544
-40.885
-40.134
-39.315
-38.451
-37.563
-36.666
-35.771
-34.887
-34.02
-33.172
-32.348
-31.555
-30.799
-30.086
-29.42
-28.804
-28.239
-27.724
-27.257
-26.836
-26.458
-26.121
-25.822
-25.562
-25.339
-25.154
-25.006
-24.895
-24.817
-24.772
-24.757
-24.768
-24.802
-24.857
-24.929
-25.015
-25.111
-25.217
-25.329
-25.444
-25.562
-25.679
-25.794
-25.905
-26.011
-26.111
-26.203
-26.287
-26.363
-26.429
-26.486
-26.534
-26.572
-26.602
-26.623
-26.635
-26.64
-26.636
-26.624
-26.605
-26.579
-26.546
-26.507
-26.462
-26.412
-26.358
-26.301
-26.241
-26.178
-26.115
-26.05
-25.985
-25.92
-25.855
-25.79
-25.727
-25.664
-25.603
-25.543
-25.484
-25.426
-25.369
-25.311
-25.253
-25.194
-25.132
-25.067
-24.997
-24.923
-24.843
-24.755
-24.66
-24.556
-24.443
-24.317
-24.179
-24.027
-23.859
-23.673
-23.469
-23.243
-22.994
-22.719
-22.418
-22.088
-21.725
-21.328
-20.895
-20.422
-19.908
-19.351
-18.747
-18.097
-17.399
-16.652
-15.856
-15.011
-14.12
-13.182
-12.199
-11.174
-10.107
-9.002
-7.86
-6.683
-5.472
-4.232
-2.965
-1.678
-0.373
0.945
2.271
3.598
4.921
6.236
7.537
8.82
10.082
11.315
12.514
13.669
14.772
15.818
16.808
17.739
18.612
19.431
20.203
20.941
21.661
22.375
23.089
23.811
24.543
25.299
26.097
26.949
27.872
28.874
29.951
31.107
32.341
33.639
34.982
36.336
37.644
38.866
39.972
40.921
41.688
42.218
42.43
42.264
41.658
40.583
39.05
37.034
34.494
31.409
27.749
23.567
19.02
14.199
9.12
3.888
-1.356
-6.254
-10.174
-12.75
-13.909
-13.647
-11.988
-8.882
-4.211
1.575
7.274
12.037
15.517
18.052
20.75
24.279
28.925
34.899
42.341
51.281
61.346
72.823
87.397
108.105
138.845
181.268
232.428
286.016
333.588
366.535
378.087
363.474
320.32
249.783
158.705
54.579
-58.948
-172.884
-277.253
-380.032
-496.956
-615.037
-691.546
-708.38
-693.459
-668.648
-627.63
-568.879
-500.026
-424.131
-344.031
-264.325
-191.165
-131.289
-87.514
-58.777
-40.953
-28.747
-19.28
-11.993
-7.406
-5.513
-4.593
-2.858
0.855
7.134
15.485
25.209
35.676
45.638
53.806
59.532
62.604
63.268
62.1
59.563
56.068
52.238
48.761
46.111
44.56
44.161
44.792
46.36
48.796
51.991
55.801
60.089
64.73
69.62
74.689
79.851
85.005
90.051
94.888
99.433
103.619
107.414
110.808
113.813
116.454
118.763
120.782
122.562
124.162
125.64
127.049
128.44
129.856
131.351
132.974
134.777
136.798
139.06
141.571
144.336
147.348
150.596
154.061
157.712
161.518
165.457
169.507
173.656
177.886
182.171
186.486
190.806
195.112
199.398
203.656
207.882
212.084
216.275
220.479
224.733
229.056
233.45
237.906
242.405
246.928
251.469
256.006
260.509
264.944
269.264
273.422
277.374
281.049
284.355
287.195
289.461
291.068
291.962
292.093
291.431
289.945
287.599
284.374
280.27
275.289
269.441
262.746
255.221
246.919
237.933
228.358
218.305
207.871
197.138
186.186
175.095
163.948
152.832
141.835
131.035
120.514
110.351
100.617
91.389
82.713
74.599
67.055
60.071
53.641
47.759
42.411
37.575
33.221
29.311
25.796
22.617
19.716
17.038
14.526
12.122
9.782
7.479
5.193
2.914
0.635
-1.654
-3.952
-6.256
-8.555
-10.835
-13.07
-15.227
-17.278
-19.201
-20.974
-22.579
-24.004
-25.241
-26.292
-27.165
-27.87
-28.417
-28.817
-29.081
-29.227
-29.272
-29.239
-29.153
-29.034
-28.898
-28.76
-28.631
-28.521
-28.436
-28.38
-28.35
-28.345
-28.365
-28.41
-28.479
-28.571
-28.683
-28.81
-28.949
-29.097
-29.252
-29.41
-29.57
-29.73
-29.889
-30.046
-30.201
-30.355
-30.504
-30.649
-30.786
-30.915
-31.033
-31.138
-31.23
-31.305
-31.364
-31.405
-31.427
-31.432
-31.417
-31.383
-31.33
-31.258
-31.168
-31.061
-30.937
-30.798
-30.645
-30.478
-30.299
-30.11
-29.912
-29.705
-29.492
-29.275
-29.054
-28.832
-28.612
-28.394
-28.181
-27.976
-27.781
-27.597
-27.428
-27.274
-27.138
-27.023
-26.93
-26.862
-26.821
-26.809
-26.828
-26.88
-26.966
-27.088
-27.246
-27.442
-27.677
-27.95
-28.263
-28.615
-29.007
-29.438
-29.91
-30.42
-30.969
-31.554
-32.173
-32.825
-33.506
-34.213
-34.943
-35.692
-36.455
-37.231
-38.016
-38.806
-39.597
-40.385
-41.167
-41.938
-42.691
-43.421
-44.119
-44.778
-45.393
-45.958
-46.468
-46.92
-47.308
-47.631
-47.889
-48.08
-48.201
-48.249
-48.213
-48.091
-47.886
-47.601
-47.246
-46.828
-46.356
-45.841
-45.3
-44.744
-44.178
-43.601
-42.998
-42.368
-41.712
-41.035
-40.354
-39.677
-39.003
-38.336
-37.673
-37.005
-36.327
-35.615
-34.832
-33.962
-32.996
-31.939
-30.825
-29.67
-28.482
-27.274
-26.047
-24.805
-23.56
-22.308
-21.048
-19.797
-18.573
-17.418
-16.399
-15.557
-14.921
-14.516
-14.331
-14.368
-14.643
-15.149
-15.891
-16.883
-18.132
-19.68
-21.591
-23.887
-26.588
-29.667
-33.044
-36.694
-40.604
-44.757
-49.174
-53.809
-58.536
-63.318
-68.162
-72.967
-77.588
-81.655
-84.559
-85.98
-85.885
-84.293
-81.255
-76.805
-70.959
-64.221
-57.802
-52.548
-48.673
-46.074
-43.939
-41.275
-37.73
-32.421
-24.264
-13.974
-2.171
10.759
24.793
43.5
70.581
107.278
152.403
199.739
241.668
271.314
281.229
266.732
225.215
156.76
67.953
-33.636
-141.976
-253.308
-367.448
-479.197
-587.074
-692.47
-768.599
-788.816
-773.034
-745.605
-701.955
-640.397
-568.713
-490.804
-410.597
-333.465
-265.827
-212.903
-175.351
-150.337
-133.118
-120.21
-110.117
-103.085
-99.771
-98.381
-96.781
-93.552
-87.371
-78.382
-67.593
-55.612
-43.564
-33.133
-25.137
-19.899
-17.521
-17.462
-19.162
-22.266
-26.13
-29.932
-33.158
-35.464
-36.66
-36.844
-36.081
-34.385
-31.876
-28.686
-24.928
-20.728
-16.18
-11.342
-6.305
-1.173
3.959
8.985
13.815
18.38
22.607
26.465
29.942
33.046
35.805
38.25
40.419
42.362
44.138
45.801
47.409
49.01
50.647
52.372
54.23
56.267
58.525
61.031
63.796
66.826
70.117
73.659
77.439
81.431
85.6
89.917
94.358
98.901
103.533
108.232
112.971
117.724
122.464
127.17
131.833
136.445
140.996
145.492
149.942
154.365
158.795
163.25
167.729
172.228
176.727
181.206
185.654
190.05
194.363
198.559
202.592
206.411
209.974
213.221
216.074
218.446
220.237
221.359
221.76
221.39
220.219
218.223
215.371
211.649
207.07
201.656
195.436
188.449
180.723
172.301
163.262
153.696
143.717
133.431
122.922
112.275
101.576
90.911
80.38
70.065
60.02
50.291
40.924
31.962
23.465
15.487
8.047
1.15
-5.216
-11.065
-16.402
-21.242
-25.616
-29.57
-33.161
-36.438
-39.424
-42.137
-44.598
-46.837
-48.894
-50.814
-52.619
-54.323
-55.937
-57.468
-58.929
-60.326
-61.645
-62.86
-63.938
-64.858
-65.613
-66.207
-66.639
-66.909
-67.011
-66.941
-66.707
-66.319
-65.786
-65.118
-64.321
-63.408
-62.402
-61.333
-60.232
-59.125
-58.028
-56.956
-55.92
-54.933
-54.005
-53.142
-52.345
-51.615
-50.955
-50.368
-49.858
-49.423
-49.062
-48.768
-48.536
-48.361
-48.238
-48.163
-48.131
-48.137
-48.178
-48.25
-48.351
-48.478
-48.626
-48.792
-48.969
-49.152
-49.338
-49.521
-49.695
-49.857
-50.002
-50.126
-50.226
-50.299
-50.342
-50.353
-50.329
-50.27
-50.175
-50.042
-49.873
-49.667
-49.426
-49.15
-48.841
-48.501
-48.132
-47.735
-47.314
-46.87
-46.407
-45.928
-45.436
-44.934
-44.426
-43.916
-43.407
-42.902
-42.405
-41.919
-41.447
-40.992
-40.557
-40.146
-39.759
-39.401
-39.072
-38.774
-38.509
-38.276
-38.075
-37.906
-37.766
-37.655
-37.571
-37.511
-37.474
-37.458
-37.461
-37.482
-37.52
-37.571
-37.633
-37.7
-37.767
-37.828
-37.877
-37.906
-37.909
-37.881
-37.816
-37.709
-37.561
-37.368
-37.127
-36.833
-36.478
-36.059
-35.576
-35.027
-34.414
-33.745
-33.027
-32.276
-31.513
-30.748
-29.992
-29.248
-28.51
-27.775
-27.039
-26.295
-25.546
-24.791
-24.023
-23.245
-22.455
-21.645
-20.803
-19.902
-18.902
-17.779
-16.52
-15.121
-13.596
-11.959
-10.221
-8.411
-6.549
-4.655
-2.755
-0.86
1.027
2.889
4.71
6.455
8.061
9.484
10.701
11.686
12.438
12.95
13.206
13.207
12.958
12.455
11.7
10.676
9.347
7.681
5.639
3.189
0.341
-2.883
-6.482
-10.424
-14.703
-19.339
-24.272
-29.42
-34.705
-39.979
-45.16
-50.301
-55.234
-59.613
-63.125
-65.343
-66.07
-65.509
-63.527
-59.569
-53.505
-45.575
-36.316
-26.897
-17.945
-8.783
1.133
11.447
22.254
33.21
42.929
51.738
59.967
67.425
77.89
96.374
125.839
168.006
219.105
270.109
311.611
334.22
330.304
296.277
233.923
150.23
54.787
-43.754
-142.417
-242.976
-346.522
-449.27
-541.48
-611.401
-650.379
-656.842
-635.198
-591.929
-534.485
-469.273
-401.399
-335.902
-276.675
-225.69
-183.584
-149.582
-121.275
-97.144
-77.025
-61.14
-50.613
-45.264
-42.811
-40.759
-37.175
-31.163
-22.968
-13.409
-3.05
7.448
16.834
24.211
29.151
31.388
31.506
30.265
27.689
24.222
19.975
14.704
9.625
5.537
3.259
3.911
6.46
9.942
13.634
16.448
18.979
21.85
25.163
29.27
33.819
38.386
42.928
47.309
51.474
55.414
59.044
62.308
65.219
67.801
70.076
72.081
73.862
75.476
76.977
78.428
79.873
81.353
82.918
84.613
86.48
88.561
90.886
93.471
96.323
99.442
102.82
106.445
110.296
114.346
118.562
122.916
127.382
131.937
136.561
141.233
145.933
150.637
155.319
159.963
164.563
169.113
173.614
178.069
182.482
186.866
191.244
195.632
200.034
204.445
208.843
213.208
217.514
221.733
225.835
229.776
233.501
236.954
240.074
242.804
245.084
246.84
247.985
248.445
248.162
247.094
245.219
242.515
238.968
234.581
229.37
223.372
216.634
209.203
201.126
192.455
183.252
173.602
163.609
153.364
142.958
132.472
121.986
111.594
101.38
91.407
81.721
72.355
63.34
54.717
46.532
38.821
31.605
24.886
18.654
12.902
7.615
2.771
-1.668
-5.761
-9.558
-13.089
-16.37
-19.415
-22.241
-24.882
-27.373
-29.741
-32.004
-34.171
-36.253
-38.261
-40.198
-42.056
-43.81
-45.423
-46.868
-48.135
-49.222
-50.13
-50.859
-51.402
-51.754
-51.92
-51.91
-51.731
-51.391
-50.894
-50.25
-49.48
-48.611
-47.676
-46.698
-45.695
-44.682
-43.672
-42.675
-41.704
-40.765
-39.86
-38.991
-38.162
-37.376
-36.639
-35.953
-35.317
-34.727
-34.18
-33.674
-33.206
-32.775
-32.378
-32.013
-31.68
-31.378
-31.107
-30.867
-30.657
-30.475
-30.318
-30.184
-30.071
-29.977
-29.899
-29.834
-29.781
-29.738
-29.704
-29.677
-29.657
-29.643
-29.634
-29.629
-29.629
-29.634
-29.644
-29.66
-29.682
-29.711
-29.749
-29.797
-29.856
-29.928
-30.014
-30.115
-30.233
-30.369
-30.525
-30.702
-30.901
-31.125
-31.373
-31.647
-31.948
-32.278
-32.635
-33.022
-33.437
-33.88
-34.352
-34.85
-35.375
-35.925
-36.499
-37.094
-37.71
-38.343
-38.992
-39.654
-40.326
-41.003
-41.684
-42.365
-43.041
-43.709
-44.365
-45.005
-45.623
-46.215
-46.778
-47.305
-47.793
-48.237
-48.632
-48.975
-49.262
-49.49
-49.657
-49.762
-49.802
-49.779
-49.691
-49.539
-49.323
-49.044
-48.703
-48.302
-47.841
-47.322
-46.748
-46.123
-45.453
-44.742
-43.996
-43.22
-42.42
-41.603
-40.776
-39.945
-39.113
-38.284
-37.467
-36.67
-35.907
-35.188
-34.515
-33.89
-33.311
-32.776
-32.282
-31.821
-31.373
-30.924
-30.459
-29.974
-29.472
-28.947
-28.389
-27.782
-27.099
-26.329
-25.471
-24.526
-23.499
-22.395
-21.225
-20.018
-18.825
-17.694
-16.666
-15.768
-15.014
-14.435
-14.068
-13.975
-14.234
-14.898
-16.004
-17.561
-19.553
-21.984
-24.866
-28.19
-31.923
-35.978
-40.211
-44.538
-48.966
-53.411
-57.707
-61.473
-64.087
-65.173
-64.669
-62.592
-58.905
-53.508
-46.367
-38.032
-29.793
-22.686
-16.895
-11.799
-6.562
-0.775
5.136
10.494
15.751
21.79
30.12
42.881
62.183
90.336
128.345
175.133
226.255
274.934
314.322
336.88
336.785
310.402
256.246
178.39
84.553
-17.597
-121.951
-227.586
-334.749
-437.518
-535.1
-628.509
-692.845
-704.327
-682.63
-651.21
-605.682
-544.281
-474.734
-401.501
-328.229
-259.309
-200.105
-154.643
-122.437
-100.39
-84.244
-70.891
-59.855
-52.033
-47.787
-45.371
-42.736
-38.505
-31.823
-23.126
-13.125
-2.181
8.747
18.228
25.426
29.96
31.824
31.581
29.741
26.643
22.871
19.165
16.04
13.843
12.751
12.677
13.55
15.338
17.929
21.195
25.025
29.302
33.931
38.847
43.959
49.159
54.354
59.438
64.323
68.939
73.217
77.123
80.65
83.808
86.623
89.127
91.355
93.355
95.18
96.885
98.522
100.138
101.775
103.48
105.295
107.259
109.411
111.774
114.356
117.159
120.177
123.401
126.815
130.398
134.116
137.942
141.852
145.825
149.844
153.893
157.951
161.999
166.013
169.98
173.893
177.75
181.553
185.307
189.018
192.7
196.38
200.074
203.788
207.521
211.256
214.972
218.65
222.26
225.777
229.164
232.373
235.357
238.061
240.424
242.39
243.886
244.828
245.143
244.772
243.668
241.809
239.181
235.781
231.62
226.717
221.1
214.807
207.877
200.357
192.307
183.792
174.892
165.711
156.348
146.899
137.466
128.122
118.929
109.949
101.217
92.766
84.631
76.839
69.422
62.416
55.837
49.695
43.992
38.702
33.794
29.23
24.951
20.918
17.102
13.477
10.033
6.764
3.653
0.687
-2.151
-4.891
-7.553
-10.15
-12.7
-15.2
-17.64
-20.002
-22.25
-24.358
-26.311
-28.099
-29.724
-31.19
-32.497
-33.649
-34.654
-35.507
-36.21
-36.765
-37.172
-37.437
-37.576
-37.605
-37.552
-37.441
-37.292
-37.118
-36.931
-36.739
-36.548
-36.364
-36.187
-36.019
-35.865
-35.727
-35.611
-35.52
-35.452
-35.406
-35.38
-35.369
-35.369
-35.378
-35.392
-35.41
-35.429
-35.449
-35.469
-35.49
-35.51
-35.528
-35.542
-35.549
-35.547
-35.534
-35.508
-35.465
-35.405
-35.326
-35.227
-35.106
-34.964
-34.799
-34.612
-34.402
-34.169
-33.915
-33.639
-33.343
-33.027
-32.694
-32.346
-31.983
-31.609
-31.224
-30.833
-30.437
-30.037
-29.638
-29.241
-28.848
-28.461
-28.084
-27.718
-27.367
-27.031
-26.715
-26.421
-26.15
-25.906
-25.69
-25.504
-25.35
-25.229
-25.143
-25.093
-25.078
-25.099
-25.157
-25.25
-25.378
-25.54
-25.735
-25.961
-26.217
-26.499
-26.807
-27.137
-27.486
-27.852
-28.232
-28.621
-29.017
-29.415
-29.813
-30.204
-30.586
-30.954
-31.303
-31.629
-31.927
-32.193
-32.42
-32.606
-32.745
-32.833
-32.866
-32.841
-32.754
-32.604
-32.388
-32.106
-31.759
-31.346
-30.869
-30.329
-29.728
-29.069
-28.354
-27.584
-26.764
-25.897
-24.988
-24.043
-23.067
-22.069
-21.054
-20.029
-19.002
-17.981
-16.973
-15.984
-15.02
-14.086
-13.195
-12.355
-11.579
-10.874
-10.242
-9.683
-9.2
-8.789
-8.445
-8.158
-7.908
-7.683
-7.473
-7.274
-7.082
-6.887
-6.669
-6.41
-6.093
-5.709
-5.262
-4.755
-4.185
-3.563
-2.906
-2.246
-1.64
-1.134
-0.756
-0.539
-0.509
-0.712
-1.225
-2.117
-3.439
-5.224
-7.455
-10.135
-13.302
-16.969
-21.151
-25.826
-30.85
-36.122
-41.631
-47.239
-52.773
-57.963
-62.248
-65.151
-66.529
-66.224
-64.188
-60.681
-55.752
-49.655
-43.361
-37.753
-33.316
-30.512
-28.865
-26.903
-23.969
-19.275
-12.029
-3.175
6.805
18.235
31.584
49.933
77.154
115.025
163.454
217.74
270.076
312.706
337.035
336.757
308.082
249.904
166.911
67.573
-40.104
-153.076
-265.293
-364.736
-462.402
-581.625
-695.196
-746.659
-737.179
-710.876
-679.694
-630.948
-566.75
-495.062
-418.533
-340.551
-265.277
-198.464
-145.797
-107.678
-81.924
-65.128
-53.664
-47.241
-46.393
-49.724
-53.665
-53.956
-48.244
-36.915
-22.91
-9.428
2.006
10.93
17.551
22.361
25.43
26.608
25.892
23.505
19.856
15.622
11.628
8.386
6.163
5.072
5.008
5.872
7.608
10.1
13.218
16.852
20.889
25.227
29.8
34.521
39.29
44.007
48.565
52.872
56.851
60.458
63.674
66.504
68.97
71.103
72.939
74.525
75.92
77.179
78.356
79.504
80.668
81.898
83.248
84.761
86.481
88.435
90.64
93.111
95.853
98.861
102.126
105.63
109.349
113.262
117.343
121.56
125.885
130.288
134.74
139.224
143.719
148.205
152.661
157.063
161.393
165.648
169.826
173.922
177.934
181.862
185.711
189.505
193.258
196.973
200.641
204.239
207.741
211.124
214.364
217.43
220.281
222.864
225.125
227.023
228.519
229.567
230.105
230.053
229.348
227.946
225.82
222.956
219.342
214.967
209.84
203.986
197.449
190.276
182.513
174.196
165.366
156.084
146.433
136.514
126.415
116.218
105.999
95.84
85.838
76.077
66.617
57.504
48.768
40.447
32.591
25.249
18.455
12.227
6.558
1.434
-3.154
-7.226
-10.813
-13.964
-16.753
-19.238
-21.453
-23.43
-25.191
-26.772
-28.226
-29.594
-30.906
-32.183
-33.436
-34.678
-35.929
-37.19
-38.45
-39.685
-40.855
-41.937
-42.925
-43.812
-44.597
-45.274
-45.83
-46.261
-46.578
-46.787
-46.898
-46.917
-46.846
-46.697
-46.492
-46.255
-46.015
-45.792
-45.597
-45.442
-45.337
-45.29
-45.307
-45.389
-45.532
-45.733
-45.99
-46.301
-46.666
-47.081
-47.538
-48.03
-48.549
-49.089
-49.644
-50.209
-50.776
-51.342
-51.902
-52.453
-52.993
-53.518
-54.026
-54.511
-54.971
-55.402
-55.8
-56.163
-56.486
-56.769
-57.008
-57.202
-57.351
-57.453
-57.51
-57.521
-57.486
-57.408
-57.287
-57.126
-56.926
-56.69
-56.421
-56.122
-55.794
-55.443
-55.07
-54.679
-54.272
-53.854
-53.427
-52.995
-52.561
-52.127
-51.699
-51.278
-50.868
-50.473
-50.096
-49.739
-49.407
-49.1
-48.824
-48.579
-48.368
-48.194
-48.059
-47.965
-47.914
-47.906
-47.944
-48.027
-48.158
-48.336
-48.561
-48.834
-49.154
-49.522
-49.936
-50.395
-50.899
-51.447
-52.036
-52.665
-53.331
-54.031
-54.763
-55.524
-56.308
-57.112
-57.932
-58.765
-59.607
-60.453
-61.3
-62.141
-62.974
-63.792
-64.59
-65.359
-66.092
-66.782
-67.422
-68.007
-68.531
-68.989
-69.375
-69.685
-69.919
-70.073
-70.145
-70.127
-70.01
-69.793
-69.477
-69.07
-68.576
-67.998
-67.34
-66.61
-65.821
-64.979
-64.086
-63.131
-62.106
-61.007
-59.839
-58.614
-57.346
-56.036
-54.68
-53.273
-51.815
-50.308
-48.75
-47.12
-45.396
-43.566
-41.639
-39.646
-37.608
-35.531
-33.413
-31.246
-29.025
-26.758
-24.451
-22.105
-19.72
-17.296
-14.849
-12.424
-10.063
-7.793
-5.62
-3.529
-1.531
0.335
2.031
3.514
4.745
5.687
6.273
6.427
6.09
5.226
3.845
1.972
-0.404
-3.301
-6.757
-10.796
-15.323
-20.244
-25.535
-31.055
-36.611
-41.919
-46.403
-49.556
-51.223
-51.249
-49.568
-46.445
-41.939
-36.306
-30.583
-25.681
-22.06
-20.168
-19.475
-18.448
-16.517
-12.931
-6.699
1.457
11.419
23.838
39.074
59.795
89.431
129.203
178.244
231.607
281.586
320.642
341.124
337.371
305.328
243.631
157.421
54.83
-55.472
-167.132
-279.755
-390.786
-497.603
-605.658
-701.272
-746.577
-737.752
-709.255
-674.502
-625.365
-562.681
-492.713
-418.831
-343.487
-271.479
-209.152
-160.459
-125.716
-102.057
-85.006
-72.113
-63.626
-60.057
-60.653
-62.168
-60.544
-54.353
-44.475
-32.794
-21.686
-11.832
-2.863
4.601
10.314
14.105
15.433
14.627
12.249
8.645
4.488
0.547
-2.751
-5.107
-6.354
-6.592
-5.915
-4.358
-2.035
0.92
4.404
8.301
12.505
16.956
21.567
26.231
30.862
35.363
39.65
43.663
47.346
50.666
53.625
56.238
58.535
60.554
62.337
63.933
65.401
66.796
68.172
69.579
71.058
72.655
74.411
76.365
78.555
81.002
83.713
86.691
89.929
93.412
97.125
101.043
105.131
109.358
113.696
118.122
122.617
127.162
131.735
136.314
140.87
145.388
149.859
154.278
158.643
162.956
167.218
171.441
175.651
179.859
184.071
188.279
192.462
196.597
200.66
204.624
208.459
212.124
215.566
218.732
221.568
224.02
226.033
227.536
228.443
228.686
228.21
226.978
224.971
222.168
218.56
214.15
208.956
203.014
196.369
189.065
181.143
172.653
163.653
154.228
144.478
134.496
124.367
114.175
103.995
93.92
84.034
74.396
65.052
56.034
47.375
39.117
31.31
23.991
17.181
10.88
5.077
-0.239
-5.086
-9.489
-13.49
-17.152
-20.527
-23.647
-26.533
-29.2
-31.67
-33.981
-36.175
-38.282
-40.323
-42.312
-44.257
-46.173
-48.063
-49.917
-51.711
-53.406
-54.977
-56.415
-57.716
-58.882
-59.911
-60.797
-61.531
-62.118
-62.565
-62.877
-63.061
-63.119
-63.061
-62.904
-62.674
-62.402
-62.108
-61.807
-61.512
-61.229
-60.968
-60.737
-60.539
-60.372
-60.236
-60.129
-60.055
-60.013
-60.003
-60.021
-60.061
-60.116
-60.182
-60.254
-60.329
-60.402
-60.47
-60.53
-60.582
-60.623
-60.654
-60.673
-60.677
-60.663
-60.631
-60.577
-60.5
-60.397
-60.269
-60.112
-59.928
-59.716
-59.477
-59.211
-58.919
-58.601
-58.261
-57.898
-57.516
-57.117
-56.702
-56.274
-55.836
-55.392
-54.942
-54.49
-54.038
-53.59
-53.146
-52.709
-52.282
-51.865
-51.461
-51.07
-50.695
-50.336
-49.995
-49.672
-49.369
-49.085
-48.82
-48.576
-48.353
-48.148
-47.964
-47.798
-47.651
-47.522
-47.408
-47.311
-47.226
-47.155
-47.093
-47.041
-46.997
-46.959
-46.926
-46.897
-46.871
-46.846
-46.822
-46.799
-46.774
-46.748
-46.719
-46.687
-46.651
-46.611
-46.567
-46.518
-46.464
-46.404
-46.339
-46.267
-46.188
-46.1
-46.003
-45.896
-45.775
-45.64
-45.49
-45.323
-45.139
-44.937
-44.717
-44.478
-44.219
-43.94
-43.638
-43.31
-42.953
-42.56
-42.129
-41.656
-41.137
-40.569
-39.951
-39.278
-38.553
-37.773
-36.938
-36.046
-35.088
-34.062
-32.969
-31.812
-30.599
-29.342
-28.05
-26.731
-25.403
-24.075
-22.754
-21.441
-20.125
-18.796
-17.45
-16.089
-14.725
-13.367
-12.011
-10.652
-9.283
-7.891
-6.467
-4.998
-3.454
-1.811
-0.066
1.772
3.674
5.601
7.538
9.484
11.439
13.404
15.366
17.306
19.221
21.104
22.943
24.721
26.389
27.904
29.253
30.442
31.498
32.455
33.312
34.041
34.621
35.034
35.267
35.306
35.106
34.599
33.733
32.483
30.859
28.904
26.62
23.961
20.889
17.351
13.338
8.968
4.311
-0.627
-5.726
-10.82
-15.626
-19.579
-22.192
-23.312
-22.804
-20.631
-16.997
-11.869
-5.502
1.097
7.015
11.634
14.785
17.371
20.606
24.879
30.002
35.636
41.679
48.886
59.383
75.636
99.806
134.109
178.523
230.333
284.584
334.291
372.269
391.604
386.994
354.446
292.87
207.519
106.264
-2.484
-112.609
-223.904
-333.664
-439.916
-549.739
-649.583
-698.857
-691.696
-663.581
-627.256
-572.674
-502.347
-425.18
-346.462
-270
-199.727
-140.308
-94.469
-61.697
-38.974
-22.162
-8.733
1.873
8.892
12.051
13.523
15.538
19.466
26.175
35.122
45.481
56.84
68.168
77.978
85.42
90.132
92.149
92.068
90.43
87.599
84.16
80.854
78.181
76.458
75.831
76.197
77.458
79.575
82.429
85.881
89.818
94.12
98.689
103.47
108.377
113.309
118.182
122.901
127.392
131.595
135.457
138.946
142.062
144.822
147.255
149.399
151.294
152.991
154.548
156.021
157.464
158.926
160.447
162.074
163.844
165.789
167.943
170.324
172.946
175.818
178.939
182.304
185.905
189.724
193.738
197.919
202.234
206.648
211.137
215.674
220.239
224.818
229.396
233.957
238.493
242.982
247.407
251.754
256.002
260.135
264.149
268.041
271.827
275.526
279.139
282.659
286.068
289.33
292.409
295.26
297.824
300.057
301.92
303.377
304.406
304.988
305.087
304.668
303.681
302.068
299.795
296.846
293.211
288.914
283.985
278.471
272.448
265.985
259.137
251.957
244.484
236.755
228.822
220.739
212.565
204.372
196.22
188.155
180.227
172.46
164.87
157.458
150.204
143.09
136.113
129.272
122.576
116.04
109.668
103.466
97.444
91.598
85.929
80.438
75.123
69.986
65.04
60.298
55.783
51.515
47.506
43.762
40.287
37.077
34.127
31.433
28.98
26.76
24.763
22.979
21.4
20.018
18.818
17.787
16.91
16.169
15.551
15.041
14.625
14.291
14.027
13.823
13.671
13.562
13.487
13.438
13.406
13.382
13.359
13.331
13.29
13.23
13.147
13.037
12.897
12.726
12.522
12.284
12.012
11.707
11.369
11
10.601
10.175
9.725
9.253
8.761
8.254
7.734
7.205
6.669
6.13
5.591
5.055
4.523
3.998
3.482
2.976
2.483
2.002
1.537
1.086
0.651
0.231
-0.173
-0.564
-0.942
-1.308
-1.666
-2.017
-2.365
-2.712
-3.061
-3.417
-3.782
-4.16
-4.555
-4.971
-5.412
-5.881
-6.384
-6.922
-7.5
-8.121
-8.788
-9.505
-10.273
-11.094
-11.972
-12.908
-13.902
-14.957
-16.072
-17.248
-18.486
-19.784
-21.142
-22.558
-24.032
-25.56
-27.142
-28.773
-30.452
-32.174
-33.937
-35.736
-37.568
-39.428
-41.313
-43.217
-45.137
-47.068
-49.006
-50.946
-52.884
-54.816
-56.737
-58.645
-60.535
-62.404
-64.248
-66.066
-67.852
-69.606
-71.325
-73.007
-74.649
-76.25
-77.808
-79.322
-80.791
-82.212
-83.585
-84.909
-86.184
-87.408
-88.583
-89.706
-90.78
-91.802
-92.773
-93.694
-94.563
-95.381
-96.147
-96.862
-97.524
-98.134
-98.69
-99.193
-99.641
-100.033
-100.368
-100.645
-100.861
-101.017
-101.11
-101.139
-101.104
-101.004
-100.839
-100.608
-100.313
-99.956
-99.539
-99.063
-98.53
-97.943
-97.305
-96.618
-95.885
-95.108
-94.291
-93.439
-92.556
-91.65
-90.727
-89.79
-88.848
-87.906
-86.973
-86.056
-85.159
-84.286
-83.443
-82.641
-81.889
-81.201
-80.582
-80.036
-79.562
-79.161
-78.831
-78.568
-78.36
-78.19
-78.044
-77.912
-77.791
-77.679
-77.57
-77.449
-77.292
-77.083
-76.811
-76.476
-76.082
-75.626
-75.113
-74.56
-73.995
-73.464
-73.013
-72.673
-72.464
-72.409
-72.533
-72.885
-73.538
-74.542
-75.943
-77.752
-79.944
-82.542
-85.571
-89.042
-92.969
-97.287
-101.832
-106.53
-111.361
-116.2
-120.927
-125.215
-128.456
-130.337
-130.81
-129.832
-127.495
-123.872
-118.798
-112.641
-106.462
-100.905
-96.342
-92.911
-89.723
-85.751
-80.844
-74.161
-64.864
-54.136
-42.528
-30.309
-17.913
-1.781
22.794
58.095
104.382
156.844
206.784
245.162
263.166
254.365
215.708
149.525
63.57
-33.035
-132.252
-232.065
-334.166
-436.206
-538.41
-639.326
-715.085
-742.648
-736.904
-718.908
-685.553
-635.497
-575.862
-509.993
-441.14
-374.048
-313.309
-262.332
-222.561
-192.678
-169.155
-149.743
-133.65
-121.159
-113.627
-110.376
-108.638
-106.285
-101.897
-95.041
-86.456
-76.759
-66.284
-55.891
-46.859
-39.977
-35.576
-33.602
-33.517
-34.849
-37.283
-40.277
-43.144
-45.403
-46.738
-47.027
-46.378
-44.874
-42.56
-39.535
-35.924
-31.84
-27.401
-22.701
-17.799
-12.773
-7.715
-2.718
2.118
6.705
10.97
14.872
18.393
21.537
24.325
26.788
28.958
30.883
32.62
34.222
35.742
37.228
38.723
40.278
41.946
43.778
45.82
48.098
50.627
53.412
56.451
59.737
63.253
66.972
70.864
74.907
79.083
83.38
87.78
92.262
96.798
101.366
105.944
110.525
115.102
119.67
124.233
128.805
133.408
138.077
142.832
147.676
152.602
157.588
162.618
167.684
172.766
177.834
182.854
187.776
192.555
197.15
201.493
205.499
209.071
212.095
214.482
216.176
217.124
217.293
216.647
215.141
212.756
209.5
205.382
200.424
194.646
188.058
180.71
172.69
164.097
155.055
145.668
136.015
126.188
116.274
106.367
96.577
86.986
77.645
68.612
59.941
51.695
43.951
36.751
30.096
23.981
18.379
13.27
8.651
4.492
0.75
-2.627
-5.709
-8.543
-11.151
-13.566
-15.819
-17.954
-20.029
-22.08
-24.116
-26.145
-28.168
-30.188
-32.217
-34.244
-36.242
-38.182
-40.024
-41.742
-43.33
-44.779
-46.078
-47.216
-48.174
-48.949
-49.548
-49.977
-50.244
-50.353
-50.31
-50.127
-49.829
-49.441
-48.992
-48.502
-47.985
-47.452
-46.917
-46.389
-45.878
-45.387
-44.917
-44.469
-44.044
-43.646
-43.277
-42.939
-42.627
-42.339
-42.07
-41.817
-41.58
-41.355
-41.139
-40.933
-40.734
-40.544
-40.362
-40.189
-40.024
-39.864
-39.708
-39.555
-39.4
-39.244
-39.083
-38.915
-38.738
-38.551
-38.352
-38.142
-37.919
-37.681
-37.428
-37.16
-36.876
-36.575
-36.258
-35.924
-35.575
-35.209
-34.829
-34.436
-34.029
-33.612
-33.184
-32.748
-32.304
-31.855
-31.401
-30.945
-30.487
-30.03
-29.577
-29.128
-28.687
-28.256
-27.837
-27.434
-27.049
-26.684
-26.341
-26.022
-25.729
-25.463
-25.226
-25.02
-24.845
-24.703
-24.594
-24.52
-24.48
-24.475
-24.504
-24.566
-24.66
-24.784
-24.936
-25.113
-25.312
-25.53
-25.766
-26.017
-26.28
-26.552
-26.83
-27.111
-27.39
-27.663
-27.924
-28.164
-28.377
-28.558
-28.7
-28.799
-28.851
-28.849
-28.792
-28.678
-28.505
-28.273
-27.975
-27.602
-27.152
-26.626
-26.029
-25.372
-24.659
-23.898
-23.097
-22.274
-21.438
-20.594
-19.74
-18.862
-17.955
-17.021
-16.069
-15.118
-14.17
-13.221
-12.27
-11.313
-10.35
-9.379
-8.381
-7.323
-6.19
-4.983
-3.719
-2.437
-1.149
0.144
1.444
2.754
4.064
5.356
6.627
7.881
9.121
10.34
11.5
12.541
13.437
14.18
14.78
15.265
15.618
15.808
15.816
15.627
15.238
14.641
13.802
12.657
11.145
9.235
6.935
4.294
1.338
-1.942
-5.581
-9.622
-14.026
-18.687
-23.484
-28.34
-33.261
-38.198
-42.913
-46.952
-49.846
-51.338
-51.472
-50.4
-47.951
-43.827
-38.028
-31.127
-24.1
-17.709
-12.067
-6.445
-0.148
6.814
14.668
23.662
33.184
43.139
53.346
63.468
76.747
97.776
129.393
172.725
223.575
273.515
313.73
335.299
331.188
297.892
236.831
154.82
61.311
-35.337
-131.919
-230.044
-331.195
-431.898
-522.999
-593.61
-635.178
-646.342
-631.622
-596.457
-547.413
-489.297
-425.425
-360.188
-297.259
-240.216
-191.761
-152.817
-122.414
-97.74
-76.992
-59.734
-46.365
-38.051
-34.06
-31.691
-28.812
-24.048
-16.989
-8.31
1.428
11.937
22.418
31.611
38.713
43.364
45.569
45.828
44.592
42.156
39.046
35.945
33.334
31.534
30.705
30.767
31.653
33.341
35.73
38.699
42.143
45.952
50.037
54.345
58.791
63.283
67.739
72.065
76.186
80.038
83.56
86.721
89.518
91.962
94.082
95.909
97.479
98.84
100.045
101.147
102.197
103.241
104.321
105.481
106.762
108.204
109.844
111.711
113.818
116.172
118.772
121.61
124.677
127.953
131.412
135.026
138.767
142.613
146.542
150.539
154.583
158.654
162.732
166.793
170.82
174.809
178.753
182.653
186.512
190.334
194.132
197.932
201.747
205.582
209.431
213.276
217.096
220.87
224.569
228.164
231.617
234.878
237.898
240.623
242.999
244.967
246.456
247.38
247.67
247.269
246.134
244.241
241.573
238.12
233.89
228.906
223.198
216.806
209.773
202.136
193.949
185.277
176.203
166.825
157.241
147.538
137.807
128.138
118.608
109.286
100.224
91.453
83.006
74.918
67.224
59.971
53.187
46.882
41.057
35.699
30.785
26.29
22.172
18.371
14.842
11.55
8.468
5.592
2.905
0.383
-2
-4.28
-6.482
-8.62
-10.71
-12.761
-14.775
-16.744
-18.647
-20.443
-22.106
-23.621
-24.981
-26.191
-27.253
-28.163
-28.919
-29.523
-29.974
-30.28
-30.443
-30.464
-30.355
-30.128
-29.807
-29.423
-29.002
-28.56
-28.112
-27.668
-27.236
-26.826
-26.443
-26.088
-25.763
-25.472
-25.217
-25.003
-24.832
-24.704
-24.616
-24.563
-24.541
-24.549
-24.582
-24.639
-24.717
-24.815
-24.931
-25.067
-25.221
-25.393
-25.579
-25.778
-25.986
-26.201
-26.42
-26.641
-26.859
-27.073
-27.28
-27.479
-27.668
-27.844
-28.007
-28.154
-28.285
-28.4
-28.496
-28.574
-28.632
-28.672
-28.693
-28.695
-28.678
-28.645
-28.594
-28.527
-28.445
-28.348
-28.238
-28.116
-27.982
-27.839
-27.687
-27.528
-27.363
-27.196
-27.026
-26.857
-26.69
-26.527
-26.369
-26.218
-26.076
-25.944
-25.823
-25.715
-25.621
-25.542
-25.48
-25.435
-25.408
-25.401
-25.413
-25.447
-25.501
-25.578
-25.676
-25.797
-25.94
-26.106
-26.295
-26.505
-26.737
-26.99
-27.262
-27.552
-27.859
-28.18
-28.514
-28.859
-29.213
-29.572
-29.936
-30.3
-30.663
-31.022
-31.373
-31.714
-32.041
-32.351
-32.641
-32.906
-33.145
-33.352
-33.525
-33.66
-33.753
-33.8
-33.798
-33.743
-33.632
-33.46
-33.227
-32.928
-32.563
-32.129
-31.627
-31.056
-30.418
-29.714
-28.945
-28.115
-27.226
-26.281
-25.284
-24.237
-23.144
-22.01
-20.84
-19.641
-18.419
-17.181
-15.933
-14.684
-13.441
-12.211
-11.003
-9.823
-8.675
-7.569
-6.514
-5.52
-4.599
-3.757
-2.996
-2.319
-1.73
-1.226
-0.803
-0.453
-0.156
0.098
0.318
0.51
0.681
0.844
1.021
1.231
1.488
1.8
2.164
2.584
3.07
3.614
4.201
4.803
5.364
5.843
6.213
6.434
6.471
6.266
5.732
4.803
3.43
1.586
-0.713
-3.489
-6.791
-10.649
-15.094
-20.087
-25.471
-31.154
-37.105
-43.193
-49.272
-54.992
-59.72
-63.086
-64.995
-65.387
-64.355
-61.927
-57.845
-52.466
-46.854
-41.667
-37.414
-33.935
-29.903
-24.589
-18.133
-10.753
-2.957
4.988
13.956
25.651
41.948
65.21
97.583
138.738
186.118
235.292
279.983
313.95
331.036
325.478
292.775
232.02
148.417
50.09
-54.38
-159.555
-265.773
-370.512
-471.492
-574.743
-667.105
-710.95
-702.049
-675.431
-644.875
-600.403
-542.027
-475.834
-404.522
-331.531
-262.026
-201.973
-155.73
-123.202
-101.151
-85.341
-72.781
-62.826
-56.254
-53.299
-52.006
-50.294
-46.865
-40.884
-32.812
-23.386
-12.974
-2.564
6.403
13.104
17.191
18.687
18.149
16.083
12.824
8.942
5.164
1.984
-0.283
-1.486
-1.716
-1.058
0.456
2.718
5.589
8.959
12.71
16.743
21.007
25.419
29.881
34.308
38.609
42.706
46.542
50.061
53.232
56.052
58.535
60.707
62.604
64.266
65.741
67.086
68.353
69.595
70.86
72.191
73.632
75.222
76.995
78.982
81.205
83.681
86.413
89.399
92.63
96.095
99.774
103.647
107.685
111.855
116.128
120.473
124.868
129.296
133.738
138.171
142.577
146.932
151.223
155.449
159.601
163.672
167.656
171.549
175.357
179.104
182.799
186.447
190.042
193.559
196.975
200.275
203.427
206.405
209.174
211.673
213.859
215.697
217.136
218.135
218.638
218.562
217.851
216.456
214.333
211.469
207.856
203.481
198.362
192.514
185.961
178.758
170.951
162.582
153.724
144.441
134.813
124.951
114.953
104.917
94.957
85.155
75.583
66.318
57.412
48.916
40.893
33.372
26.38
19.945
14.064
8.736
3.958
-0.308
-4.103
-7.478
-10.508
-13.247
-15.73
-18.003
-20.095
-22.04
-23.89
-25.674
-27.41
-29.12
-30.812
-32.492
-34.176
-35.856
-37.51
-39.114
-40.627
-42.02
-43.285
-44.408
-45.385
-46.207
-46.861
-47.342
-47.662
-47.825
-47.84
-47.716
-47.455
-47.07
-46.587
-46.028
-45.424
-44.797
-44.16
-43.528
-42.912
-42.323
-41.77
-41.258
-40.786
-40.354
-39.965
-39.62
-39.323
-39.073
-38.865
-38.697
-38.564
-38.463
-38.39
-38.344
-38.321
-38.318
-38.336
-38.373
-38.429
-38.504
-38.595
-38.701
-38.819
-38.947
-39.083
-39.225
-39.371
-39.517
-39.664
-39.808
-39.95
-40.088
-40.222
-40.35
-40.473
-40.59
-40.702
-40.808
-40.908
-41.003
-41.095
-41.183
-41.268
-41.351
-41.433
-41.515
-41.598
-41.681
-41.766
-41.854
-41.943
-42.036
-42.133
-42.234
-42.339
-42.449
-42.565
-42.686
-42.813
-42.947
-43.087
-43.234
-43.387
-43.547
-43.712
-43.883
-44.06
-44.241
-44.427
-44.617
-44.811
-45.008
-45.207
-45.409
-45.613
-45.819
-46.026
-46.234
-46.444
-46.656
-46.869
-47.084
-47.302
-47.522
-47.746
-47.973
-48.205
-48.441
-48.682
-48.929
-49.182
-49.44
-49.704
-49.973
-50.247
-50.526
-50.81
-51.096
-51.386
-51.677
-51.969
-52.261
-52.551
-52.837
-53.118
-53.39
-53.652
-53.902
-54.135
-54.35
-54.543
-54.709
-54.847
-54.951
-55.018
-55.043
-55.021
-54.95
-54.824
-54.639
-54.392
-54.079
-53.699
-53.248
-52.725
-52.131
-51.464
-50.725
-49.914
-49.032
-48.081
-47.061
-45.975
-44.825
-43.613
-42.344
-41.022
-39.653
-38.243
-36.796
-35.322
-33.825
-32.313
-30.793
-29.271
-27.753
-26.248
-24.767
-23.318
-21.914
-20.56
-19.262
-18.024
-16.848
-15.731
-14.672
-13.659
-12.679
-11.723
-10.783
-9.853
-8.927
-7.988
-7.023
-6.021
-4.968
-3.861
-2.702
-1.487
-0.22
1.082
2.4
3.69
4.896
5.978
6.891
7.588
8.02
8.111
7.784
6.988
5.68
3.858
1.517
-1.384
-4.875
-8.977
-13.689
-18.898
-24.492
-30.439
-36.596
-42.76
-48.646
-53.682
-57.364
-59.516
-59.977
-58.696
-55.893
-51.587
-46.071
-40.352
-35.315
-31.519
-29.129
-27.338
-24.991
-21.602
-17.145
-11.757
-5.381
2.661
14.183
31.463
56.321
90.316
132.954
181.507
231.547
277.436
313.779
334.771
335.274
310.867
258.868
182.114
87.185
-18.308
-127.476
-238.512
-350.785
-458.058
-558.775
-652.691
-716.513
-728.896
-706.88
-671.108
-619.727
-552.82
-478.356
-401.798
-325.931
-254.59
-193.165
-144.825
-110.175
-87.068
-71.237
-60.728
-54.263
-50.817
-49.724
-47.287
-41.421
-32.885
-22.224
-11.535
-1.928
7.707
17.281
25.963
33.115
37.748
39.588
39.251
37.263
34.083
30.32
26.63
23.491
21.256
20.098
19.92
20.645
22.238
24.592
27.592
31.137
35.103
39.394
43.949
48.673
53.465
58.233
62.875
67.306
71.459
75.268
78.7
81.752
84.433
86.774
88.806
90.565
92.101
93.47
94.726
95.923
97.11
98.33
99.631
101.055
102.641
104.427
106.436
108.685
111.183
113.929
116.917
120.137
123.571
127.194
130.981
134.904
138.934
143.049
147.224
151.439
155.673
159.906
164.116
168.28
172.383
176.419
180.382
184.276
188.104
191.87
195.591
199.287
202.973
206.654
210.323
213.966
217.569
221.109
224.565
227.913
231.113
234.124
236.898
239.378
241.51
243.235
244.477
245.158
245.211
244.581
243.235
241.144
238.28
234.629
230.194
224.985
219.033
212.368
205.021
197.045
188.497
179.445
169.984
160.213
150.219
140.095
129.925
119.795
109.808
100.047
90.572
81.443
72.698
64.386
56.571
49.284
42.548
36.375
30.75
25.657
21.089
17.015
13.399
10.191
7.319
4.728
2.388
0.262
-1.678
-3.469
-5.166
-6.805
-8.403
-9.979
-11.54
-13.093
-14.654
-16.218
-17.766
-19.273
-20.699
-22.019
-23.226
-24.309
-25.265
-26.084
-26.751
-27.262
-27.628
-27.853
-27.946
-27.915
-27.76
-27.497
-27.147
-26.734
-26.287
-25.828
-25.369
-24.922
-24.499
-24.109
-23.76
-23.456
-23.195
-22.975
-22.798
-22.665
-22.577
-22.533
-22.529
-22.558
-22.617
-22.701
-22.807
-22.931
-23.069
-23.22
-23.38
-23.55
-23.728
-23.914
-24.106
-24.302
-24.499
-24.696
-24.891
-25.081
-25.264
-25.438
-25.603
-25.757
-25.9
-26.032
-26.153
-26.262
-26.36
-26.447
-26.525
-26.594
-26.655
-26.71
-26.76
-26.806
-26.851
-26.895
-26.941
-26.99
-27.043
-27.103
-27.17
-27.246
-27.332
-27.428
-27.537
-27.659
-27.795
-27.945
-28.111
-28.293
-28.49
-28.705
-28.935
-29.182
-29.444
-29.721
-30.013
-30.318
-30.636
-30.964
-31.303
-31.65
-32.005
-32.366
-32.732
-33.101
-33.472
-33.844
-34.215
-34.583
-34.947
-35.307
-35.66
-36.006
-36.344
-36.673
-36.993
-37.302
-37.6
-37.887
-38.164
-38.429
-38.684
-38.928
-39.162
-39.387
-39.603
-39.811
-40.012
-40.208
-40.398
-40.584
-40.767
-40.948
-41.126
-41.303
-41.478
-41.652
-41.824
-41.996
-42.165
-42.333
-42.499
-42.661
-42.819
-42.973
-43.119
-43.257
-43.385
-43.501
-43.602
-43.686
-43.751
-43.792
-43.808
-43.794
-43.748
-43.664
-43.541
-43.373
-43.157
-42.889
-42.566
-42.186
-41.745
-41.241
-40.674
-40.043
-39.347
-38.588
-37.766
-36.883
-35.941
-34.942
-33.889
-32.783
-31.628
-30.427
-29.187
-27.911
-26.607
-25.279
-23.936
-22.584
-21.231
-19.885
-18.552
-17.239
-15.95
-14.696
-13.486
-12.33
-11.239
-10.22
-9.277
-8.412
-7.627
-6.92
-6.286
-5.712
-5.184
-4.69
-4.225
-3.781
-3.355
-2.934
-2.499
-2.035
-1.524
-0.957
-0.337
0.342
1.081
1.865
2.676
3.479
4.216
4.848
5.344
5.664
5.782
5.644
5.164
4.285
2.944
1.112
-1.195
-4.006
-7.359
-11.273
-15.766
-20.775
-26.133
-31.748
-37.609
-43.603
-49.577
-55.147
-59.667
-62.768
-64.369
-64.447
-63.001
-59.956
-55.212
-49.283
-43.422
-38.514
-34.956
-32.419
-29.746
-26.281
-21.72
-15.733
-8.465
-0.032
9.66
21.108
37.033
61.299
96.605
143.631
197.511
250.264
294.65
322.671
328.995
310.12
262.783
189.285
96.96
-6.332
-115.661
-223.784
-321.638
-419.079
-535.093
-654.572
-732.201
-749.642
-734.265
-708.636
-667.003
-607.879
-539.383
-464.44
-385.837
-308.174
-237.58
-180.707
-139.269
-111.877
-95.142
-84.675
-78.912
-77.024
-77.335
-77.653
-74.699
-67.23
-56.314
-43.273
-30.451
-18.798
-7.929
1.344
8.782
14.279
17.147
17.632
16.291
13.477
9.938
6.516
3.638
1.614
0.635
0.608
1.479
3.233
5.755
8.919
12.617
16.735
21.179
25.892
30.79
35.767
40.725
45.556
50.176
54.511
58.499
62.104
65.311
68.132
70.593
72.727
74.573
76.181
77.608
78.909
80.139
81.351
82.59
83.909
85.354
86.968
88.788
90.837
93.132
95.684
98.5
101.581
104.916
108.493
112.292
116.295
120.479
124.82
129.285
133.84
138.458
143.119
147.808
152.508
157.201
161.866
166.484
171.046
175.544
179.969
184.305
188.54
192.671
196.709
200.677
204.59
208.439
212.204
215.858
219.376
222.728
225.881
228.795
231.415
233.703
235.632
237.179
238.316
238.997
239.16
238.73
237.651
235.892
233.431
230.258
226.367
221.773
216.506
210.612
204.146
197.135
189.599
181.564
173.073
164.194
155.009
145.614
136.095
126.536
117.032
107.666
98.507
89.604
80.988
72.678
64.702
57.115
49.968
43.301
37.134
31.468
26.299
21.609
17.372
13.545
10.06
6.864
3.914
1.189
-1.324
-3.64
-5.786
-7.806
-9.732
-11.591
-13.401
-15.172
-16.92
-18.649
-20.355
-22.01
-23.573
-25.016
-26.324
-27.494
-28.528
-29.425
-30.178
-30.78
-31.236
-31.552
-31.733
-31.786
-31.713
-31.521
-31.227
-30.858
-30.443
-30.006
-29.561
-29.122
-28.697
-28.296
-27.928
-27.598
-27.304
-27.046
-26.825
-26.644
-26.504
-26.405
-26.346
-26.32
-26.323
-26.35
-26.397
-26.462
-26.541
-26.63
-26.728
-26.832
-26.943
-27.059
-27.178
-27.297
-27.414
-27.526
-27.631
-27.727
-27.81
-27.878
-27.93
-27.964
-27.98
-27.977
-27.954
-27.911
-27.848
-27.766
-27.665
-27.547
-27.411
-27.26
-27.095
-26.918
-26.73
-26.534
-26.331
-26.123
-25.912
-25.701
-25.491
-25.285
-25.083
-24.888
-24.701
-24.525
-24.36
-24.208
-24.071
-23.949
-23.845
-23.759
-23.692
-23.645
-23.617
-23.61
-23.622
-23.654
-23.705
-23.775
-23.863
-23.968
-24.09
-24.228
-24.38
-24.545
-24.723
-24.912
-25.112
-25.32
-25.536
-25.759
-25.988
-26.221
-26.459
-26.699
-26.941
-27.185
-27.43
-27.676
-27.922
-28.168
-28.415
-28.662
-28.91
-29.158
-29.408
-29.66
-29.916
-30.174
-30.438
-30.707
-30.983
-31.266
-31.556
-31.856
-32.164
-32.482
-32.809
-33.144
-33.489
-33.842
-34.203
-34.572
-34.946
-35.325
-35.707
-36.091
-36.475
-36.857
-37.234
-37.603
-37.962
-38.308
-38.637
-38.945
-39.23
-39.487
-39.712
-39.901
-40.049
-40.152
-40.206
-40.206
-40.149
-40.031
-39.848
-39.598
-39.279
-38.888
-38.426
-37.893
-37.289
-36.615
-35.873
-35.065
-34.193
-33.261
-32.271
-31.226
-30.131
-28.992
-27.814
-26.604
-25.367
-24.113
-22.847
-21.579
-20.316
-19.066
-17.834
-16.627
-15.454
-14.325
-13.25
-12.241
-11.304
-10.443
-9.66
-8.959
-8.336
-7.787
-7.301
-6.861
-6.458
-6.086
-5.735
-5.403
-5.075
-4.73
-4.355
-3.93
-3.444
-2.9
-2.289
-1.611
-0.879
-0.108
0.668
1.393
2.029
2.547
2.904
3.074
3
2.599
1.809
0.569
-1.153
-3.344
-6.034
-9.261
-13.044
-17.404
-22.283
-27.513
-33.004
-38.739
-44.601
-50.44
-55.881
-60.277
-63.254
-64.734
-64.698
-63.152
-60.025
-55.202
-49.171
-43.177
-38.107
-34.328
-31.465
-28.363
-24.39
-19.293
-12.924
-5.272
3.82
14.238
26.478
42.624
65.653
98.961
143.84
196.557
250.496
297.43
328.156
336.2
316.958
268.048
193.318
100.547
-1.442
-105.134
-209.836
-317.405
-424.614
-532.318
-640.104
-720.528
-746.586
-735.036
-709.331
-665.99
-604.644
-534.319
-458.769
-381.428
-306.325
-238.383
-183.432
-143.012
-115.778
-98.618
-87.16
-78.881
-73.141
-69.475
-66.835
-63.896
-59.49
-52.745
-43.518
-32.479
-20.286
-8.036
2.566
10.648
15.922
18.312
18.333
16.523
13.259
9.206
5.201
1.77
-0.742
-2.153
-2.55
-1.978
-0.451
1.913
4.978
8.62
12.715
17.171
21.931
26.903
31.976
37.042
41.987
46.718
51.162
55.249
58.94
62.22
65.097
67.598
69.758
71.617
73.224
74.636
75.91
77.101
78.262
79.442
80.692
82.061
83.591
85.326
87.297
89.522
92.007
94.753
97.753
100.994
104.461
108.127
111.96
115.936
120.034
124.235
128.525
132.883
137.284
141.708
146.13
150.535
154.916
159.266
163.581
167.871
172.144
176.419
180.728
185.082
189.482
193.922
198.381
202.843
207.294
211.703
216.04
220.272
224.35
228.229
231.868
235.192
238.126
240.589
242.478
243.72
244.259
244.043
243.041
241.227
238.579
235.102
230.819
225.745
219.912
213.347
206.072
198.158
189.688
180.75
171.457
161.908
152.189
142.401
132.642
122.992
113.527
104.298
95.333
86.679
78.379
70.48
63.042
56.08
49.593
43.58
38.021
32.894
28.175
23.816
19.751
15.939
12.346
8.95
5.752
2.731
-0.14
-2.89
-5.555
-8.154
-10.695
-13.189
-15.644
-18.057
-20.42
-22.705
-24.867
-26.88
-28.731
-30.412
-31.93
-33.283
-34.465
-35.475
-36.312
-36.979
-37.481
-37.822
-38.001
-38.03
-37.923
-37.703
-37.404
-37.051
-36.659
-36.244
-35.816
-35.383
-34.957
-34.542
-34.139
-33.753
-33.386
-33.042
-32.729
-32.447
-32.198
-31.979
-31.787
-31.617
-31.469
-31.341
-31.229
-31.133
-31.052
-30.986
-30.935
-30.901
-30.881
-30.876
-30.883
-30.899
-30.924
-30.956
-30.991
-31.028
-31.065
-31.1
-31.132
-31.161
-31.185
-31.202
-31.212
-31.215
-31.209
-31.194
-31.17
-31.136
-31.092
-31.038
-30.976
-30.904
-30.824
-30.736
-30.641
-30.54
-30.432
-30.319
-30.201
-30.079
-29.954
-29.827
-29.698
-29.569
-29.441
-29.316
-29.194
-29.077
-28.966
-28.862
-28.767
-28.68
-28.605
-28.54
-28.489
-28.451
-28.428
-28.422
-28.432
-28.461
-28.51
-28.58
-28.671
-28.785
-28.924
-29.087
-29.276
-29.491
-29.735
-30.006
-30.306
-30.634
-30.991
-31.376
-31.788
-32.227
-32.691
-33.179
-33.69
-34.222
-34.773
-35.34
-35.923
-36.517
-37.12
-37.73
-38.342
-38.953
-39.559
-40.156
-40.741
-41.308
-41.852
-42.37
-42.855
-43.304
-43.71
-44.069
-44.374
-44.621
-44.805
-44.921
-44.965
-44.933
-44.822
-44.63
-44.355
-43.996
-43.554
-43.029
-42.42
-41.731
-40.961
-40.114
-39.191
-38.195
-37.129
-35.997
-34.806
-33.562
-32.272
-30.943
-29.582
-28.197
-26.798
-25.394
-23.993
-22.601
-21.224
-19.874
-18.563
-17.306
-16.114
-14.992
-13.941
-12.966
-12.067
-11.244
-10.491
-9.791
-9.132
-8.505
-7.906
-7.339
-6.8
-6.278
-5.755
-5.21
-4.633
-4.025
-3.39
-2.729
-2.043
-1.34
-0.646
-0.006
0.533
0.939
1.189
1.272
1.16
0.811
0.164
-0.85
-2.278
-4.14
-6.434
-9.162
-12.336
-15.982
-20.111
-24.663
-29.526
-34.57
-39.71
-44.952
-50.24
-55.339
-59.804
-63.162
-65.149
-65.801
-65.246
-63.3
-59.665
-54.35
-47.96
-41.508
-35.78
-30.899
-26.104
-20.67
-14.62
-7.736
0.175
8.529
17.478
27.065
37.178
51.103
72.97
105.089
148.109
197.562
245.432
283.498
303.354
298.32
264.714
203.554
121.358
27.445
-69.571
-166.062
-263.231
-362.548
-461.382
-551.453
-622.778
-667.019
-681.078
-667.861
-631.391
-577.469
-512.787
-442.523
-372.495
-307.644
-250.775
-203.583
-166.396
-137.418
-113.788
-93.95
-77.481
-64.934
-57.555
-54.522
-53.074
-51.069
-47.1
-40.776
-32.84
-23.89
-14.233
-4.686
3.521
9.623
13.291
14.579
14.018
12.076
9.067
5.529
2.14
-0.621
-2.44
-3.192
-2.981
-1.889
0.04
2.703
5.975
9.737
13.87
18.276
22.896
27.65
32.444
37.184
41.771
46.119
50.16
53.853
57.18
60.144
62.767
65.078
67.111
68.912
70.535
72.034
73.459
74.859
76.278
77.763
79.36
81.114
83.066
85.242
87.664
90.342
93.276
96.461
99.888
103.539
107.392
111.422
115.598
119.895
124.289
128.758
133.277
137.827
142.386
146.93
151.438
155.892
160.285
164.614
168.879
173.083
177.235
181.346
185.437
189.519
193.593
197.652
201.688
205.682
209.614
213.46
217.198
220.79
224.198
227.367
230.237
232.745
234.823
236.398
237.39
237.732
237.37
236.262
234.371
231.667
228.137
223.774
218.583
212.584
205.794
198.254
190.028
181.183
171.8
161.974
151.803
141.38
130.801
120.159
109.551
99.081
88.831
78.876
69.283
60.11
51.427
43.282
35.696
28.684
22.244
16.364
11.031
6.229
1.919
-1.938
-5.394
-8.52
-11.364
-13.969
-16.379
-18.631
-20.78
-22.868
-24.917
-26.941
-28.95
-30.947
-32.94
-34.935
-36.916
-38.864
-40.755
-42.549
-44.225
-45.769
-47.164
-48.401
-49.464
-50.343
-51.038
-51.559
-51.915
-52.116
-52.168
-52.078
-51.866
-51.552
-51.16
-50.717
-50.243
-49.753
-49.261
-48.78
-48.319
-47.887
-47.489
-47.122
-46.787
-46.484
-46.216
-45.984
-45.786
-45.618
-45.478
-45.361
-45.264
-45.185
-45.121
-45.069
-45.027
-44.996
-44.973
-44.96
-44.955
-44.957
-44.965
-44.978
-44.992
-45.008
-45.023
-45.035
-45.044
-45.049
-45.049
-45.044
-45.034
-45.02
-45.001
-44.979
-44.953
-44.925
-44.896
-44.867
-44.84
-44.817
-44.798
-44.787
-44.784
-44.791
-44.811
-44.845
-44.894
-44.96
-45.045
-45.151
-45.277
-45.426
-45.599
-45.796
-46.017
-46.263
-46.533
-46.828
-47.146
-47.485
-47.846
-48.226
-48.622
-49.034
-49.459
-49.893
-50.335
-50.78
-51.226
-51.669
-52.105
-52.53
-52.941
-53.332
-53.701
-54.041
-54.348
-54.619
-54.848
-55.03
-55.161
-55.236
-55.251
-55.202
-55.086
-54.9
-54.641
-54.308
-53.9
-53.418
-52.862
-52.234
-51.534
-50.765
-49.93
-49.031
-48.071
-47.052
-45.979
-44.856
-43.689
-42.485
-41.249
-39.988
-38.709
-37.419
-36.127
-34.841
-33.565
-32.304
-31.067
-29.862
-28.7
-27.594
-26.55
-25.57
-24.657
-23.815
-23.042
-22.336
-21.686
-21.074
-20.486
-19.914
-19.352
-18.797
-18.238
-17.655
-17.03
-16.344
-15.589
-14.766
-13.871
-12.896
-11.844
-10.727
-9.576
-8.445
-7.378
-6.408
-5.566
-4.883
-4.404
-4.199
-4.346
-4.902
-5.907
-7.366
-9.285
-11.701
-14.656
-18.185
-22.26
-26.761
-31.534
-36.49
-41.614
-46.829
-51.88
-56.296
-59.575
-61.449
-61.96
-61.223
-59.028
-55.097
-49.473
-42.708
-35.782
-29.461
-23.733
-18.15
-12.364
-6.049
1.17
10.368
22.073
35.432
49.522
62.867
77.038
97.349
127.368
168.637
217.865
266.19
305.196
327.033
325.32
296.875
241.141
162.552
68.766
-32.63
-136.298
-241.696
-348.882
-453.378
-546.948
-619.423
-662.305
-674.558
-660.585
-625.862
-577.477
-520.211
-456.535
-390.014
-323.35
-259.974
-204.497
-159.723
-126.298
-102.184
-83.793
-68.945
-56.872
-47.966
-42.502
-38.642
-34.496
-28.959
-21.24
-11.757
-1.206
10.084
21.21
30.816
38.121
42.784
44.805
44.718
43.014
40.02
36.29
32.538
29.26
26.796
25.329
24.795
25.134
26.33
28.285
30.881
34.017
37.582
41.486
45.67
50.048
54.523
59.007
63.403
67.628
71.611
75.284
78.61
81.582
84.209
86.516
88.537
90.308
91.877
93.302
94.636
95.935
97.246
98.613
100.08
101.69
103.483
105.498
107.762
110.291
113.088
116.149
119.467
123.028
126.812
130.792
134.933
139.206
143.584
148.043
152.567
157.137
161.73
166.324
170.894
175.424
179.909
184.345
188.727
193.054
197.324
201.546
205.747
209.939
214.124
218.297
222.432
226.505
230.493
234.367
238.096
241.641
244.948
247.966
250.649
252.948
254.808
256.167
256.937
257.049
256.454
255.11
253.002
250.122
246.465
242.046
236.891
231.033
224.514
217.379
209.665
201.431
192.744
183.685
174.363
164.877
155.321
145.793
136.372
127.127
118.121
109.394
100.98
92.915
85.235
77.98
71.189
64.876
59.051
53.707
48.82
44.36
40.284
36.533
33.061
29.831
26.816
24.004
21.383
18.929
16.618
14.419
12.304
10.258
8.267
6.318
4.413
2.56
0.779
-0.888
-2.414
-3.785
-4.991
-6.038
-6.926
-7.654
-8.22
-8.627
-8.875
-8.971
-8.918
-8.721
-8.387
-7.932
-7.379
-6.761
-6.101
-5.419
-4.729
-4.04
-3.363
-2.707
-2.077
-1.476
-0.905
-0.367
0.134
0.592
1.005
1.375
1.703
1.993
2.25
2.476
2.672
2.843
2.988
3.112
3.213
3.291
3.347
3.382
3.398
3.397
3.382
3.354
3.317
3.272
3.223
3.17
3.116
3.061
3.007
2.954
2.903
2.854
2.809
2.766
2.727
2.69
2.654
2.621
2.587
2.553
2.517
2.478
2.435
2.386
2.331
2.266
2.193
2.107
2.01
1.898
1.771
1.626
1.462
1.279
1.073
0.843
0.589
0.309
0.002
-0.333
-0.697
-1.089
-1.509
-1.959
-2.436
-2.942
-3.474
-4.031
-4.613
-5.217
-5.843
-6.487
-7.149
-7.825
-8.514
-9.213
-9.92
-10.631
-11.342
-12.052
-12.757
-13.451
-14.133
-14.798
-15.442
-16.06
-16.65
-17.206
-17.724
-18.201
-18.632
-19.013
-19.34
-19.611
-19.822
-19.972
-20.058
-20.079
-20.035
-19.928
-19.756
-19.523
-19.23
-18.878
-18.469
-18.007
-17.494
-16.933
-16.326
-15.681
-15
-14.291
-13.559
-12.811
-12.054
-11.294
-10.538
-9.793
-9.065
-8.36
-7.686
-7.051
-6.464
-5.934
-5.468
-5.069
-4.738
-4.478
-4.284
-4.151
-4.068
-4.02
-3.995
-3.984
-3.978
-3.968
-3.939
-3.873
-3.76
-3.586
-3.343
-3.033
-2.653
-2.202
-1.697
-1.156
-0.622
-0.149
0.219
0.439
0.463
0.239
-0.312
-1.266
-2.675
-4.584
-6.999
-9.928
-13.416
-17.493
-22.184
-27.485
-33.282
-39.463
-45.995
-52.733
-59.481
-65.947
-71.566
-75.837
-78.59
-79.669
-79.013
-76.816
-73.06
-68.016
-62.705
-58.035
-54.604
-52.594
-51.159
-49.141
-46.147
-42.231
-37.523
-31.969
-24.803
-14.157
2.072
25.783
58.978
101.706
151.344
202.87
249.374
283.759
299.602
292.369
258.635
197.581
113.603
14.149
-93.37
-205.135
-315.962
-417.299
-513.762
-618.388
-718.772
-777.078
-779.517
-753.494
-719.377
-671.673
-608.808
-537.319
-461.324
-384.851
-312.903
-251.669
-205.876
-174.97
-155.053
-141.009
-129.119
-118.725
-111.043
-106.817
-104.354
-101.563
-96.994
-89.694
-80.175
-69.274
-57.421
-45.652
-35.43
-27.579
-22.47
-20.087
-19.838
-21.188
-23.786
-27.049
-30.253
-32.903
-34.669
-35.388
-35.151
-34.041
-32.091
-29.414
-26.136
-22.362
-18.202
-13.748
-9.057
-4.218
0.668
5.515
10.226
14.72
18.93
22.787
26.258
29.337
32.036
34.383
36.41
38.152
39.657
40.983
42.184
43.313
44.422
45.55
46.744
48.049
49.503
51.147
53.009
55.105
57.438
60.009
62.81
65.83
69.05
72.442
75.977
79.628
83.369
87.181
91.044
94.938
98.842
102.734
106.592
110.401
114.155
117.851
121.49
125.078
128.622
132.138
135.649
139.169
142.701
146.241
149.779
153.302
156.788
160.216
163.56
166.786
169.851
172.703
175.278
177.515
179.344
180.69
181.473
181.624
181.088
179.822
177.788
174.955
171.309
166.844
161.565
155.491
148.64
141.053
132.797
123.939
114.56
104.755
94.623
84.255
73.749
63.194
52.687
42.328
32.199
22.371
12.909
3.869
-4.682
-12.698
-20.163
-27.066
-33.41
-39.211
-44.484
-49.248
-53.54
-57.402
-60.886
-64.059
-66.97
-69.661
-72.175
-74.548
-76.834
-79.073
-81.285
-83.482
-85.672
-87.855
-90.038
-92.225
-94.398
-96.538
-98.618
-100.601
-102.463
-104.19
-105.766
-107.178
-108.411
-109.453
-110.304
-110.973
-111.469
-111.8
-111.974
-111.997
-111.888
-111.668
-111.36
-110.991
-110.58
-110.142
-109.693
-109.246
-108.811
-108.398
-108.011
-107.65
-107.317
-107.014
-106.743
-106.508
-106.308
-106.139
-106.001
-105.891
-105.806
-105.745
-105.706
-105.688
-105.689
-105.71
-105.749
-105.807
-105.884
-105.978
-106.086
-106.207
-106.338
-106.476
-106.619
-106.764
-106.908
-107.047
-107.181
-107.306
-107.421
-107.523
-107.611
-107.683
-107.737
-107.772
-107.787
-107.782
-107.755
-107.706
-107.635
-107.542
-107.428
-107.291
-107.134
-106.956
-106.758
-106.541
-106.306
-106.055
-105.788
-105.508
-105.217
-104.916
-104.607
-104.293
-103.975
-103.656
-103.339
-103.026
-102.719
-102.421
-102.133
-101.859
-101.601
-101.36
-101.139
-100.938
-100.759
-100.603
-100.472
-100.365
-100.283
-100.225
-100.191
-100.181
-100.194
-100.228
-100.282
-100.353
-100.438
-100.535
-100.64
-100.749
-100.859
-100.965
-101.065
-101.155
-101.23
-101.286
-101.32
-101.326
-101.301
-101.239
-101.133
-100.974
-100.758
-100.478
-100.129
-99.707
-99.206
-98.623
-97.955
-97.201
-96.361
-95.434
-94.413
-93.293
-92.074
-90.762
-89.365
-87.893
-86.351
-84.743
-83.083
-81.383
-79.657
-77.907
-76.128
-74.314
-72.464
-70.588
-68.701
-66.821
-64.951
-63.088
-61.223
-59.361
-57.506
-55.664
-53.82
-51.951
-50.048
-48.12
-46.2
-44.316
-42.476
-40.672
-38.887
-37.113
-35.36
-33.647
-31.982
-30.361
-28.77
-27.207
-25.7
-24.29
-23
-21.821
-20.719
-19.67
-18.687
-17.804
-17.061
-16.48
-16.059
-15.801
-15.727
-15.885
-16.342
-17.143
-18.297
-19.784
-21.573
-23.67
-26.131
-28.985
-32.241
-35.867
-39.74
-43.795
-48.05
-52.392
-56.642
-60.508
-63.42
-64.907
-64.85
-63.122
-59.69
-54.827
-48.612
-41.344
-34.077
-27.766
-22.91
-19.934
-18.266
-16.313
-13.351
-8.53
-1.08
8.032
18.523
30.911
46.023
67.25
98.111
139.807
191.354
247.013
298.84
339.525
361.337
359.333
330.588
274.017
194.115
98.055
-7.046
-115.141
-225.082
-336.308
-441.986
-540.19
-631.146
-691.733
-700.781
-676.424
-639.647
-587.511
-519.321
-443.075
-364.707
-287.917
-216.969
-157.116
-111.046
-77.968
-54.99
-37.58
-23.57
-13.209
-6.494
-3.435
-1.34
3.072
10.084
19.703
30.855
41.74
52.692
63.467
72.792
80.302
85.388
87.75
88.054
86.804
84.376
81.435
78.669
76.551
75.437
75.472
76.537
78.537
81.417
85.059
89.34
94.146
99.35
104.849
110.574
116.431
122.318
128.13
133.758
139.109
144.104
148.694
152.861
156.609
159.963
162.956
165.623
168.01
170.175
172.174
174.063
175.895
177.717
179.576
181.525
183.615
185.893
188.395
191.139
194.133
197.38
200.873
204.604
208.556
212.702
217.01
221.454
226.015
230.674
235.418
240.224
245.064
249.913
254.745
259.545
264.304
269.015
273.673
278.284
282.863
287.436
292.036
296.677
301.359
306.071
310.798
315.528
320.254
324.959
329.617
334.196
338.66
342.97
347.079
350.917
354.393
357.406
359.857
361.666
362.781
363.159
362.763
361.554
359.499
356.578
352.783
348.113
342.566
336.148
328.886
320.843
312.119
302.821
293.055
282.916
272.488
261.857
251.109
240.337
229.629
219.07
208.755
198.771
189.213
180.175
171.717
163.871
156.64
150.015
143.988
138.553
133.691
129.379
125.589
122.282
119.417
116.947
114.797
112.899
111.181
109.566
108.005
106.462
104.913
103.342
101.739
100.093
98.405
96.679
94.919
93.134
91.337
89.549
87.807
86.145
84.589
83.167
81.892
80.771
79.809
79.003
78.341
77.814
77.405
77.1
76.887
76.749
76.671
76.63
76.601
76.562
76.495
76.387
76.226
76.006
75.718
75.361
74.938
74.451
73.903
73.296
72.631
71.91
71.137
70.317
69.455
68.554
67.62
66.654
65.661
64.644
63.605
62.548
61.472
60.381
59.276
58.162
57.042
55.92
54.798
53.679
52.569
51.469
50.384
49.315
48.264
47.233
46.226
45.242
44.284
43.353
42.45
41.574
40.728
39.91
39.122
38.362
37.631
36.929
36.256
35.61
34.992
34.4
33.835
33.294
32.778
32.285
31.815
31.365
30.935
30.523
30.127
29.747
29.381
29.027
28.684
28.349
28.021
27.699
27.381
27.064
26.748
26.431
26.111
25.786
25.456
25.118
24.771
24.413
24.043
23.658
23.258
22.841
22.406
21.95
21.474
20.976
20.455
19.911
19.342
18.749
18.131
17.488
16.82
16.128
15.411
14.671
13.909
13.125
12.321
11.5
10.663
9.813
8.953
8.084
7.209
6.331
5.452
4.576
3.705
2.843
1.993
1.161
0.351
-0.431
-1.18
-1.894
-2.567
-3.196
-3.778
-4.31
-4.791
-5.221
-5.6
-5.925
-6.191
-6.396
-6.539
-6.629
-6.672
-6.668
-6.624
-6.542
-6.433
-6.309
-6.177
-6.032
-5.872
-5.693
-5.497
-5.298
-5.105
-4.929
-4.769
-4.619
-4.479
-4.36
-4.266
-4.193
-4.128
-4.045
-3.946
-3.852
-3.777
-3.73
-3.704
-3.679
-3.649
-3.614
-3.581
-3.557
-3.531
-3.483
-3.408
-3.32
-3.246
-3.226
-3.26
-3.327
-3.425
-3.566
-3.793
-4.158
-4.681
-5.379
-6.271
-7.393
-8.82
-10.626
-12.852
-15.509
-18.561
-21.984
-25.815
-30.094
-34.852
-40.083
-45.652
-51.465
-57.519
-63.693
-69.817
-75.614
-80.517
-84.045
-86.057
-86.414
-85.078
-82.32
-78.201
-72.978
-67.631
-63.04
-59.664
-57.923
-57.333
-56.457
-54.669
-51.194
-45.138
-37.18
-27.583
-15.924
-1.815
17.333
44.83
82
128.498
179.973
229.295
269.588
293.07
293.669
267.486
212.585
132.841
35.706
-71.287
-181.741
-294.362
-408.751
-517.995
-620.115
-715.024
-778.366
-788.18
-763.558
-726.913
-675.772
-609.32
-535.324
-458.979
-383.029
-311.448
-249.841
-202.007
-168.191
-145.523
-129.521
-117.026
-107.569
-102.357
-101.164
-101.673
-100.985
-96.633
-88.628
-78.234
-66.859
-55.901
-45.721
-37.143
-30.876
-26.885
-25.417
-26.197
-28.609
-32.326
-36.721
-40.975
-44.616
-47.336
-48.955
-49.565
-49.259
-48.071
-46.12
-43.535
-40.418
-36.877
-33.007
-28.874
-24.568
-20.194
-15.845
-11.62
-7.605
-3.867
-0.47
2.553
5.2
7.485
9.439
11.095
12.492
13.678
14.711
15.646
16.54
17.442
18.396
19.449
20.645
22.026
23.629
25.485
27.604
29.992
32.647
35.56
38.719
42.104
45.686
49.432
53.316
57.315
61.409
65.581
69.806
74.062
78.325
82.571
86.783
90.954
95.076
99.147
103.174
107.168
111.148
115.144
119.166
123.216
127.285
131.354
135.413
139.448
143.431
147.338
151.136
154.78
158.229
161.435
164.321
166.819
168.844
170.299
171.118
171.249
170.649
169.292
167.144
164.175
160.384
155.774
150.358
144.162
137.202
129.513
121.174
112.26
102.865
93.104
83.064
72.828
62.486
52.122
41.83
31.713
21.843
12.284
3.103
-5.645
-13.888
-21.571
-28.681
-35.211
-41.166
-46.569
-51.431
-55.764
-59.606
-62.997
-65.989
-68.654
-71.036
-73.175
-75.118
-76.906
-78.595
-80.233
-81.842
-83.435
-85.023
-86.608
-88.199
-89.803
-91.404
-92.983
-94.515
-95.96
-97.297
-98.514
-99.594
-100.525
-101.29
-101.878
-102.289
-102.532
-102.616
-102.55
-102.34
-101.993
-101.528
-100.968
-100.334
-99.655
-98.949
-98.23
-97.515
-96.815
-96.138
-95.494
-94.886
-94.312
-93.772
-93.266
-92.797
-92.364
-91.966
-91.599
-91.26
-90.945
-90.65
-90.372
-90.11
-89.86
-89.62
-89.391
-89.17
-88.958
-88.754
-88.557
-88.366
-88.177
-87.989
-87.8
-87.608
-87.411
-87.206
-86.994
-86.772
-86.54
-86.297
-86.044
-85.779
-85.503
-85.217
-84.919
-84.611
-84.294
-83.969
-83.635
-83.295
-82.948
-82.597
-82.242
-81.884
-81.524
-81.162
-80.799
-80.436
-80.073
-79.711
-79.35
-78.992
-78.636
-78.283
-77.933
-77.588
-77.246
-76.908
-76.574
-76.244
-75.918
-75.596
-75.276
-74.959
-74.643
-74.329
-74.015
-73.702
-73.387
-73.072
-72.754
-72.435
-72.113
-71.787
-71.459
-71.127
-70.792
-70.454
-70.112
-69.769
-69.423
-69.076
-68.728
-68.381
-68.036
-67.693
-67.355
-67.021
-66.695
-66.377
-66.069
-65.772
-65.489
-65.22
-64.969
-64.735
-64.52
-64.327
-64.154
-64.005
-63.878
-63.774
-63.694
-63.637
-63.603
-63.59
-63.599
-63.629
-63.676
-63.741
-63.82
-63.911
-64.012
-64.119
-64.228
-64.336
-64.438
-64.532
-64.611
-64.671
-64.707
-64.714
-64.687
-64.621
-64.509
-64.347
-64.129
-63.85
-63.507
-63.096
-62.612
-62.054
-61.42
-60.708
-59.919
-59.052
-58.107
-57.086
-55.99
-54.819
-53.577
-52.265
-50.886
-49.447
-47.951
-46.405
-44.815
-43.187
-41.529
-39.849
-38.154
-36.451
-34.748
-33.05
-31.368
-29.712
-28.09
-26.515
-24.995
-23.531
-22.129
-20.792
-19.515
-18.298
-17.129
-15.996
-14.89
-13.805
-12.734
-11.672
-10.605
-9.518
-8.403
-7.245
-6.041
-4.795
-3.503
-2.167
-0.801
0.575
1.925
3.194
4.346
5.345
6.15
6.72
6.984
6.873
6.337
5.339
3.879
1.955
-0.477
-3.447
-6.982
-11.082
-15.635
-20.538
-25.773
-31.2
-36.632
-41.798
-46.151
-49.224
-50.878
-50.963
-49.423
-46.509
-42.28
-36.995
-31.608
-26.949
-23.424
-21.43
-20.519
-19.32
-17.195
-13.337
-6.77
1.903
12.288
24.641
39.129
58.102
84.946
121.213
166.855
217.974
267.553
308.444
332.671
333.814
307.889
253.604
175.039
80.478
-22.528
-130.742
-238.159
-335.708
-429.564
-534.816
-638.468
-699.667
-703.207
-677.021
-642.243
-593.923
-530.59
-460.094
-387.657
-315.803
-248.389
-190.635
-145.461
-112.451
-89.114
-71.624
-58.071
-49.228
-45.501
-45.81
-46.837
-44.395
-37.17
-26.344
-13.926
-2.399
7.608
16.665
24.271
30.256
34.429
36.165
35.759
33.75
30.463
26.563
22.791
19.556
17.167
15.81
15.4
15.857
17.154
19.186
21.839
25.026
28.642
32.592
36.815
41.225
45.723
50.225
54.634
58.867
62.858
66.543
69.889
72.892
75.563
77.931
80.025
81.882
83.55
85.084
86.537
87.962
89.406
90.913
92.527
94.289
96.238
98.41
100.826
103.505
106.455
109.675
113.156
116.888
120.85
125.019
129.367
133.861
138.471
143.169
147.926
152.725
157.548
162.374
167.182
171.95
176.66
181.309
185.898
190.42
194.877
199.265
203.591
207.883
212.156
216.417
220.664
224.869
229.003
233.043
236.961
240.723
244.285
247.585
250.556
253.157
255.344
257.075
258.297
258.923
258.881
258.126
256.621
254.361
251.342
247.547
242.979
237.666
231.648
224.992
217.764
209.991
201.708
192.962
183.813
174.366
164.714
154.925
145.073
135.22
125.44
115.831
106.468
97.388
88.624
80.192
72.116
64.458
57.27
50.582
44.412
38.746
33.572
28.894
24.699
20.959
17.626
14.629
11.913
9.459
7.241
5.243
3.436
1.764
0.183
-1.331
-2.798
-4.229
-5.635
-7.038
-8.44
-9.828
-11.174
-12.439
-13.598
-14.645
-15.577
-16.389
-17.075
-17.62
-18.02
-18.283
-18.416
-18.426
-18.318
-18.095
-17.768
-17.358
-16.891
-16.395
-15.89
-15.389
-14.905
-14.447
-14.026
-13.649
-13.319
-13.034
-12.791
-12.592
-12.437
-12.328
-12.262
-12.237
-12.245
-12.283
-12.347
-12.433
-12.537
-12.657
-12.789
-12.932
-13.085
-13.246
-13.415
-13.59
-13.768
-13.946
-14.123
-14.295
-14.46
-14.616
-14.758
-14.886
-14.998
-15.093
-15.169
-15.225
-15.261
-15.277
-15.273
-15.248
-15.202
-15.137
-15.053
-14.952
-14.833
-14.698
-14.549
-14.387
-14.214
-14.03
-13.839
-13.641
-13.437
-13.231
-13.023
-12.815
-12.611
-12.411
-12.218
-12.035
-11.864
-11.708
-11.568
-11.449
-11.35
-11.276
-11.228
-11.207
-11.216
-11.257
-11.33
-11.438
-11.581
-11.76
-11.977
-12.23
-12.521
-12.849
-13.212
-13.611
-14.044
-14.509
-15.005
-15.529
-16.078
-16.652
-17.245
-17.856
-18.48
-19.113
-19.752
-20.391
-21.025
-21.651
-22.262
-22.853
-23.418
-23.953
-24.451
-24.906
-25.314
-25.667
-25.961
-26.19
-26.349
-26.434
-26.44
-26.364
-26.203
-25.956
-25.622
-25.201
-24.693
-24.099
-23.422
-22.663
-21.825
-20.912
-19.925
-18.87
-17.751
-16.574
-15.345
-14.072
-12.763
-11.426
-10.069
-8.703
-7.336
-5.976
-4.631
-3.309
-2.021
-0.776
0.414
1.537
2.585
3.553
4.434
5.225
5.926
6.542
7.083
7.565
7.998
8.388
8.744
9.07
9.38
9.692
10.019
10.375
10.763
11.188
11.658
12.175
12.735
13.316
13.88
14.371
14.751
14.983
15.027
14.844
14.37
13.528
12.262
10.529
8.32
5.635
2.449
-1.286
-5.605
-10.491
-15.846
-21.506
-27.359
-33.397
-39.553
-45.597
-51.077
-55.484
-58.517
-60.204
-60.686
-59.744
-57.013
-52.503
-46.806
-40.926
-35.768
-31.219
-26.211
-20.312
-13.686
-6.832
-0.514
5.382
11.736
19.722
30.749
47.388
72.758
108.22
153.113
203.399
251.778
290.203
310.461
305.356
270.635
207.574
123.291
27.573
-70.471
-167.798
-265.726
-362.835
-460.499
-558.429
-634.087
-664.601
-662.803
-647.147
-613.962
-562.676
-500.947
-433.266
-364.437
-299.496
-242.8
-197.279
-162.795
-136.996
-116.54
-99.431
-85.139
-74.232
-67.501
-63.589
-60.216
-55.746
-48.95
-39.776
-29.143
-17.662
-6.117
4.199
12.446
18.21
21.302
22.048
20.953
18.394
14.915
11.244
7.887
5.183
3.348
2.379
2.253
2.976
4.471
6.618
9.316
12.47
15.999
19.848
23.943
28.183
32.474
36.721
40.846
44.78
48.465
51.846
54.889
57.591
59.966
62.042
63.851
65.434
66.836
68.112
69.318
70.505
71.72
73.006
74.408
75.967
77.726
79.72
81.968
84.481
87.26
90.301
93.59
97.111
100.832
104.723
108.76
112.922
117.192
121.552
125.977
130.44
134.914
139.379
143.826
148.246
152.632
156.989
161.326
165.666
170.043
174.475
178.965
183.506
188.076
192.659
197.247
201.819
206.345
210.79
215.105
219.243
223.162
226.794
230.054
232.845
235.055
236.595
237.41
237.449
236.68
235.07
232.576
229.185
224.907
219.756
213.758
206.939
199.316
190.944
181.914
172.331
162.322
151.995
141.432
130.726
119.966
109.247
98.679
88.345
78.297
68.592
59.284
50.434
42.119
34.378
27.212
20.617
14.566
9.04
4.035
-0.474
-4.528
-8.179
-11.491
-14.511
-17.26
-19.769
-22.069
-24.202
-26.226
-28.175
-30.059
-31.888
-33.664
-35.391
-37.083
-38.735
-40.323
-41.822
-43.196
-44.424
-45.504
-46.429
-47.193
-47.788
-48.2
-48.427
-48.481
-48.371
-48.107
-47.697
-47.148
-46.474
-45.703
-44.86
-43.974
-43.068
-42.155
-41.248
-40.362
-39.505
-38.688
-37.916
-37.186
-36.501
-35.862
-35.27
-34.728
-34.235
-33.786
-33.377
-33.003
-32.66
-32.345
-32.053
-31.782
-31.527
-31.287
-31.061
-30.847
-30.645
-30.451
-30.264
-30.079
-29.896
-29.709
-29.518
-29.319
-29.109
-28.887
-28.651
-28.401
-28.135
-27.854
-27.556
-27.243
-26.913
-26.569
-26.211
-25.841
-25.458
-25.066
-24.666
-24.26
-23.85
-23.438
-23.026
-22.616
-22.21
-21.81
-21.417
-21.034
-20.662
-20.301
-19.955
-19.625
-19.311
-19.015
-18.74
-18.485
-18.251
-18.041
-17.854
-17.691
-17.552
-17.438
-17.348
-17.281
-17.239
-17.219
-17.223
-17.248
-17.296
-17.364
-17.453
-17.562
-17.69
-17.836
-17.999
-18.18
-18.377
-18.59
-18.819
-19.063
-19.323
-19.597
-19.886
-20.19
-20.507
-20.838
-21.182
-21.539
-21.906
-22.284
-22.671
-23.067
-23.469
-23.878
-24.291
-24.707
-25.124
-25.542
-25.957
-26.368
-26.773
-27.169
-27.553
-27.923
-28.275
-28.607
-28.916
-29.198
-29.449
-29.665
-29.843
-29.979
-30.068
-30.106
-30.09
-30.016
-29.882
-29.683
-29.418
-29.086
-28.685
-28.215
-27.677
-27.071
-26.398
-25.66
-24.858
-23.994
-23.07
-22.088
-21.052
-19.967
-18.835
-17.664
-16.457
-15.221
-13.963
-12.69
-11.407
-10.122
-8.84
-7.567
-6.311
-5.082
-3.888
-2.74
-1.643
-0.601
0.38
1.298
2.155
2.955
3.709
4.43
5.127
5.808
6.481
7.15
7.832
8.544
9.298
10.108
10.983
11.922
12.936
14.025
15.179
16.381
17.596
18.77
19.867
20.85
21.675
22.305
22.675
22.703
22.324
21.487
20.17
18.368
16.046
13.146
9.626
5.487
0.808
-4.257
-9.61
-15.241
-21.072
-26.873
-32.188
-36.502
-39.515
-41.237
-41.791
-40.995
-38.549
-34.442
-29.215
-23.818
-18.983
-14.773
-10.421
-5.23
0.871
8.132
16.619
25.781
35.69
46.304
57.847
73.685
97.549
131.287
175.138
224.268
271.237
309.586
332.14
333.485
310.392
261.141
189.057
100.824
3.232
-97.927
-201.488
-307.482
-410.559
-509.279
-603.228
-670.192
-689.287
-676.392
-651.01
-610.121
-553.145
-486.422
-413.7
-339.235
-268.011
-206.079
-157.853
-123.219
-99.616
-82.877
-70.635
-62.47
-57.861
-56.782
-56.582
-54.087
-49.133
-41.401
-31.665
-21.899
-11.872
-1.904
6.579
13.295
17.679
19.324
18.839
16.712
13.305
9.312
5.466
2.226
-0.058
-1.228
-1.401
-0.647
1.006
3.449
6.565
10.244
14.352
18.79
23.49
28.363
33.309
38.223
42.988
47.51
51.707
55.53
58.96
61.992
64.642
66.935
68.899
70.578
72.028
73.302
74.452
75.529
76.576
77.646
78.792
80.064
81.504
83.142
84.995
87.076
89.396
91.958
94.756
97.778
101.004
104.416
107.997
111.725
115.572
119.509
123.508
127.544
131.6
135.66
139.705
143.717
147.673
151.56
155.374
159.118
162.789
166.388
169.918
173.386
176.819
180.234
183.636
187.019
190.361
193.639
196.828
199.905
202.842
205.602
208.136
210.391
212.32
213.875
215.003
215.637
215.691
215.094
213.79
211.746
208.952
205.406
201.113
196.088
190.355
183.952
176.919
169.307
161.165
152.55
143.532
134.202
124.671
115.05
105.447
95.944
86.608
77.499
68.664
60.143
51.97
44.173
36.783
29.834
23.349
17.345
11.828
6.779
2.161
-2.072
-5.98
-9.608
-12.987
-16.145
-19.1
-21.862
-24.449
-26.873
-29.154
-31.323
-33.402
-35.412
-37.37
-39.278
-41.127
-42.9
-44.562
-46.089
-47.466
-48.685
-49.746
-50.657
-51.419
-52.039
-52.524
-52.873
-53.089
-53.175
-53.13
-52.965
-52.694
-52.336
-51.919
-51.468
-51.003
-50.539
-50.088
-49.657
-49.254
-48.882
-48.543
-48.238
-47.972
-47.745
-47.563
-47.427
-47.335
-47.286
-47.274
-47.294
-47.341
-47.411
-47.5
-47.603
-47.719
-47.845
-47.979
-48.121
-48.267
-48.415
-48.563
-48.705
-48.839
-48.963
-49.072
-49.164
-49.236
-49.286
-49.312
-49.313
-49.288
-49.236
-49.155
-49.047
-48.91
-48.744
-48.552
-48.332
-48.087
-47.818
-47.526
-47.214
-46.884
-46.537
-46.177
-45.806
-45.425
-45.038
-44.647
-44.253
-43.86
-43.469
-43.082
-42.703
-42.333
-41.975
-41.63
-41.3
-40.988
-40.694
-40.421
-40.169
-39.939
-39.733
-39.55
-39.391
-39.256
-39.146
-39.061
-39.001
-38.965
-38.952
-38.962
-38.995
-39.05
-39.124
-39.219
-39.332
-39.462
-39.609
-39.772
-39.949
-40.14
-40.344
-40.559
-40.786
-41.022
-41.267
-41.522
-41.784
-42.054
-42.331
-42.614
-42.905
-43.201
-43.502
-43.809
-44.121
-44.437
-44.756
-45.077
-45.4
-45.723
-46.047
-46.37
-46.69
-47.007
-47.32
-47.626
-47.926
-48.216
-48.495
-48.762
-49.013
-49.247
-49.46
-49.651
-49.816
-49.953
-50.058
-50.128
-50.159
-50.148
-50.092
-49.986
-49.827
-49.612
-49.339
-49.004
-48.606
-48.144
-47.617
-47.025
-46.37
-45.651
-44.87
-44.029
-43.129
-42.172
-41.161
-40.098
-38.987
-37.833
-36.639
-35.413
-34.159
-32.885
-31.596
-30.3
-29.003
-27.712
-26.434
-25.173
-23.941
-22.745
-21.595
-20.501
-19.47
-18.505
-17.609
-16.782
-16.021
-15.322
-14.673
-14.059
-13.472
-12.902
-12.342
-11.786
-11.219
-10.623
-9.989
-9.301
-8.552
-7.748
-6.883
-5.962
-5.004
-4.027
-3.066
-2.178
-1.401
-0.771
-0.332
-0.124
-0.213
-0.673
-1.554
-2.9
-4.719
-7.007
-9.808
-13.154
-17.066
-21.559
-26.531
-31.876
-37.571
-43.483
-49.419
-55.115
-60.025
-63.639
-65.796
-66.337
-65.196
-62.65
-58.776
-53.806
-48.706
-44.35
-41.156
-39.541
-39.045
-38.188
-36.246
-32.401
-25.652
-16.558
-5.516
7.798
23.681
44.488
73.613
112.655
161.426
215.707
268.348
312.284
339.765
345.004
324.081
274.612
199.382
105.405
-0.089
-112.54
-224.773
-328.002
-429.097
-542.387
-654.268
-726.11
-743.039
-728.886
-701.976
-657.958
-596.871
-525.553
-448.058
-369.35
-295.17
-231.836
-183.933
-150.735
-128.277
-111.819
-98.246
-86.71
-78.199
-73.455
-70.62
-67.592
-62.907
-55.321
-45.107
-33.285
-20.439
-7.696
3.326
11.854
17.56
20.369
20.821
19.441
16.589
12.905
9.175
5.902
3.42
1.905
1.294
1.563
2.713
4.654
7.266
10.438
14.063
18.061
22.372
26.917
31.588
36.279
40.897
45.357
49.596
53.554
57.176
60.432
63.32
65.858
68.072
70.001
71.684
73.17
74.517
75.78
77.012
78.265
79.582
81.004
82.569
84.315
86.274
88.476
90.932
93.646
96.614
99.828
103.276
106.937
110.785
114.788
118.917
123.15
127.464
131.841
136.261
140.703
145.144
149.559
153.935
158.261
162.534
166.754
170.924
175.05
179.149
183.243
187.347
191.463
195.585
199.696
203.781
207.816
211.773
215.627
219.341
222.871
226.173
229.188
231.852
234.101
235.855
237.03
237.556
237.374
236.439
234.725
232.212
228.897
224.794
219.916
214.289
207.942
200.904
193.232
185
176.285
167.18
157.794
148.225
138.577
128.956
119.443
110.115
101.03
92.225
83.747
75.638
67.944
60.716
53.978
47.732
41.982
36.716
31.908
27.53
23.531
19.846
16.431
13.252
10.283
7.518
4.938
2.518
0.231
-1.957
-4.068
-6.109
-8.093
-10.03
-11.917
-13.746
-15.491
-17.109
-18.573
-19.872
-20.997
-21.956
-22.748
-23.369
-23.819
-24.102
-24.218
-24.176
-23.981
-23.635
-23.149
-22.539
-21.83
-21.055
-20.24
-19.404
-18.562
-17.726
-16.905
-16.113
-15.354
-14.633
-13.952
-13.316
-12.732
-12.204
-11.737
-11.332
-10.986
-10.696
-10.461
-10.277
-10.142
-10.055
-10.015
-10.018
-10.064
-10.155
-10.289
-10.464
-10.678
-10.928
-11.211
-11.522
-11.86
-12.218
-12.594
-12.984
-13.384
-13.79
-14.201
-14.611
-15.019
-15.421
-15.814
-16.195
-16.562
-16.913
-17.245
-17.556
-17.845
-18.11
-18.35
-18.565
-18.752
-18.912
-19.045
-19.148
-19.223
-19.269
-19.286
-19.274
-19.234
-19.165
-19.069
-18.947
-18.8
-18.629
-18.436
-18.222
-17.989
-17.738
-17.471
-17.189
-16.895
-16.589
-16.273
-15.95
-15.62
-15.286
-14.95
-14.612
-14.274
-13.939
-13.606
-13.279
-12.958
-12.645
-12.341
-12.048
-11.766
-11.498
-11.244
-11.005
-10.783
-10.578
-10.392
-10.225
-10.078
-9.952
-9.846
-9.763
-9.703
-9.665
-9.651
-9.661
-9.695
-9.754
-9.837
-9.946
-10.08
-10.24
-10.425
-10.636
-10.872
-11.134
-11.42
-11.73
-12.063
-12.419
-12.795
-13.19
-13.603
-14.033
-14.477
-14.933
-15.399
-15.873
-16.353
-16.836
-17.319
-17.799
-18.274
-18.739
-19.192
-19.63
-20.048
-20.443
-20.811
-21.15
-21.453
-21.718
-21.941
-22.118
-22.244
-22.318
-22.334
-22.291
-22.187
-22.019
-21.788
-21.492
-21.132
-20.709
-20.225
-19.681
-19.08
-18.424
-17.717
-16.961
-16.158
-15.314
-14.433
-13.521
-12.585
-11.629
-10.661
-9.689
-8.719
-7.759
-6.815
-5.892
-4.997
-4.136
-3.32
-2.557
-1.857
-1.227
-0.668
-0.183
0.228
0.568
0.843
1.066
1.252
1.414
1.557
1.691
1.818
1.952
2.114
2.319
2.584
2.921
3.327
3.809
4.368
4.991
5.662
6.348
6.993
7.559
8.018
8.332
8.475
8.395
8.009
7.257
6.078
4.442
2.362
-0.191
-3.255
-6.849
-10.996
-15.637
-20.608
-25.823
-31.268
-36.834
-42.382
-47.547
-51.697
-54.464
-55.767
-55.589
-53.939
-50.746
-45.884
-39.83
-33.814
-28.723
-24.948
-22.11
-19.023
-15.045
-9.927
-3.594
3.801
12.361
22.032
33.461
49.014
71.808
105.197
150.388
203.461
257.691
304.809
335.52
343.298
323.534
274.005
198.816
105.892
4.114
-99.185
-203.313
-309.959
-416.204
-521.767
-624.695
-700.868
-727.286
-718.258
-694.18
-652.719
-593.779
-524.833
-449.013
-369.966
-292.588
-222.937
-167.612
-128.449
-103.524
-88.723
-78.958
-71.41
-65.67
-61.776
-59.012
-56.144
-51.935
-45.384
-36.296
-25.364
-13.278
-1.136
9.371
17.396
22.66
25.09
25.201
23.533
20.459
16.633
12.871
9.683
7.399
6.194
5.977
6.696
8.331
10.762
13.853
17.479
21.518
25.88
30.505
35.307
40.177
45.012
49.701
54.159
58.316
62.107
65.498
68.475
71.047
73.244
75.1
76.656
77.963
79.075
80.048
80.938
81.797
82.674
83.619
84.677
85.89
87.301
88.936
90.817
92.957
95.355
98.008
100.908
104.038
107.378
110.902
114.581
118.389
122.307
126.311
130.385
134.504
138.644
142.786
146.905
150.985
155.019
159
162.928
166.811
170.662
174.498
178.347
182.22
186.119
190.036
193.957
197.87
201.763
205.611
209.388
213.065
216.598
219.944
223.053
225.846
228.25
230.185
231.557
232.3
232.361
231.698
230.281
228.079
225.065
221.231
216.575
211.103
204.834
197.789
190.007
181.568
172.551
163.045
153.156
142.973
132.58
122.065
111.508
100.999
90.631
80.494
70.668
61.229
52.25
43.801
35.933
28.665
22.009
15.963
10.517
5.657
1.369
-2.374
-5.606
-8.368
-10.719
-12.725
-14.448
-15.945
-17.277
-18.501
-19.667
-20.808
-21.948
-23.102
-24.28
-25.492
-26.742
-28.029
-29.344
-30.673
-31.99
-33.26
-34.457
-35.56
-36.546
-37.399
-38.107
-38.66
-39.062
-39.322
-39.448
-39.449
-39.336
-39.119
-38.815
-38.44
-38.016
-37.568
-37.114
-36.669
-36.247
-35.858
-35.508
-35.203
-34.944
-34.726
-34.546
-34.402
-34.291
-34.212
-34.16
-34.131
-34.118
-34.118
-34.124
-34.134
-34.144
-34.15
-34.15
-34.142
-34.126
-34.1
-34.065
-34.019
-33.962
-33.89
-33.804
-33.702
-33.584
-33.448
-33.294
-33.122
-32.933
-32.728
-32.508
-32.275
-32.031
-31.777
-31.516
-31.25
-30.982
-30.715
-30.451
-30.193
-29.943
-29.705
-29.48
-29.272
-29.082
-28.911
-28.763
-28.638
-28.537
-28.463
-28.415
-28.394
-28.402
-28.438
-28.503
-28.596
-28.717
-28.867
-29.043
-29.246
-29.474
-29.725
-29.997
-30.289
-30.597
-30.921
-31.257
-31.603
-31.956
-32.313
-32.673
-33.032
-33.388
-33.738
-34.08
-34.412
-34.732
-35.038
-35.328
-35.601
-35.856
-36.091
-36.307
-36.503
-36.679
-36.834
-36.97
-37.086
-37.183
-37.263
-37.324
-37.37
-37.401
-37.419
-37.426
-37.424
-37.416
-37.404
-37.39
-37.377
-37.369
-37.366
-37.372
-37.389
-37.419
-37.465
-37.528
-37.61
-37.712
-37.836
-37.981
-38.15
-38.341
-38.555
-38.789
-39.043
-39.315
-39.602
-39.902
-40.212
-40.531
-40.856
-41.184
-41.513
-41.84
-42.162
-42.475
-42.775
-43.056
-43.31
-43.532
-43.714
-43.852
-43.94
-43.973
-43.947
-43.856
-43.7
-43.476
-43.183
-42.814
-42.362
-41.824
-41.202
-40.501
-39.732
-38.904
-38.022
-37.097
-36.142
-35.168
-34.182
-33.183
-32.158
-31.103
-30.021
-28.92
-27.82
-26.731
-25.65
-24.571
-23.487
-22.392
-21.287
-20.167
-19.006
-17.793
-16.531
-15.239
-13.962
-12.728
-11.544
-10.402
-9.289
-8.201
-7.156
-6.174
-5.261
-4.426
-3.668
-2.996
-2.455
-2.067
-1.834
-1.736
-1.721
-1.765
-1.877
-2.084
-2.417
-2.898
-3.526
-4.304
-5.259
-6.415
-7.813
-9.494
-11.455
-13.708
-16.259
-19.111
-22.313
-25.897
-29.869
-34.213
-38.864
-43.699
-48.656
-53.726
-58.797
-63.705
-68.083
-71.358
-73.218
-73.603
-72.511
-69.929
-65.781
-59.995
-53.063
-46.187
-40.211
-35.493
-31.725
-27.834
-23.225
-17.685
-11.023
-3.448
4.925
14.289
25.317
40.662
63.884
97.325
141.381
191.476
240.343
281.461
307.554
313.522
295.741
250.808
180.666
92.273
-6.716
-111.351
-214.98
-309.564
-403.914
-515.667
-631.495
-707.901
-725.782
-711.483
-687.318
-647.365
-589.685
-522.204
-448.487
-371.781
-297.452
-231.98
-180.694
-144.34
-119.972
-103.073
-90.163
-80.217
-74.196
-72.112
-71.863
-70.659
-66.021
-57.629
-46.448
-34.063
-22.046
-10.8
-1.241
6.022
11.102
13.645
13.839
12.272
9.256
5.441
1.691
-1.539
-3.946
-5.327
-5.764
-5.308
-3.969
-1.855
0.909
4.219
7.964
12.055
16.435
21.023
25.717
30.421
35.03
39.455
43.626
47.472
50.957
54.065
56.8
59.189
61.261
63.054
64.616
66.001
67.262
68.453
69.623
70.816
72.084
73.47
75.016
76.761
78.733
80.95
83.427
86.167
89.168
92.422
95.915
99.624
103.529
107.604
111.821
116.155
120.579
125.069
129.604
134.162
138.723
143.265
147.764
152.204
156.577
160.879
165.11
169.274
173.375
177.426
181.447
185.451
189.442
193.412
197.346
201.227
205.036
208.747
212.339
215.773
219.005
221.991
224.674
227.001
228.913
230.335
231.188
231.407
230.938
229.748
227.81
225.096
221.596
217.311
212.253
206.452
199.939
192.743
184.916
176.515
167.608
158.291
148.662
138.809
128.824
118.791
108.794
98.937
89.301
79.945
70.925
62.283
54.067
46.34
39.137
32.479
26.377
20.817
15.783
11.267
7.238
3.658
0.481
-2.366
-4.934
-7.254
-9.36
-11.279
-13.049
-14.725
-16.34
-17.912
-19.46
-20.988
-22.504
-24.021
-25.532
-27.018
-28.454
-29.798
-31.027
-32.133
-33.107
-33.942
-34.63
-35.154
-35.512
-35.712
-35.759
-35.661
-35.426
-35.055
-34.563
-33.973
-33.308
-32.597
-31.861
-31.112
-30.362
-29.624
-28.906
-28.218
-27.563
-26.939
-26.346
-25.787
-25.262
-24.774
-24.322
-23.903
-23.511
-23.144
-22.798
-22.471
-22.161
-21.865
-21.581
-21.309
-21.05
-20.803
-20.57
-20.348
-20.137
-19.935
-19.741
-19.554
-19.372
-19.194
-19.018
-18.844
-18.67
-18.498
-18.326
-18.154
-17.983
-17.813
-17.644
-17.477
-17.313
-17.152
-16.994
-16.842
-16.696
-16.556
-16.425
-16.301
-16.188
-16.084
-15.991
-15.908
-15.837
-15.778
-15.73
-15.695
-15.672
-15.662
-15.665
-15.681
-15.71
-15.753
-15.81
-15.88
-15.964
-16.061
-16.171
-16.293
-16.428
-16.575
-16.733
-16.902
-17.082
-17.272
-17.471
-17.68
-17.898
-18.125
-18.359
-18.602
-18.853
-19.111
-19.377
-19.651
-19.932
-20.221
-20.517
-20.82
-21.129
-21.445
-21.766
-22.091
-22.421
-22.752
-23.085
-23.418
-23.75
-24.079
-24.403
-24.722
-25.032
-25.332
-25.62
-25.894
-26.15
-26.387
-26.601
-26.789
-26.95
-27.079
-27.174
-27.232
-27.249
-27.222
-27.147
-27.022
-26.843
-26.608
-26.314
-25.959
-25.542
-25.061
-24.517
-23.91
-23.241
-22.512
-21.724
-20.881
-19.985
-19.04
-18.049
-17.015
-15.942
-14.834
-13.698
-12.54
-11.365
-10.179
-8.991
-7.807
-6.636
-5.484
-4.361
-3.27
-2.219
-1.214
-0.265
0.62
1.427
2.153
2.793
3.344
3.805
4.176
4.462
4.675
4.832
4.947
5.03
5.09
5.131
5.169
5.219
5.299
5.431
5.624
5.879
6.208
6.616
7.099
7.648
8.23
8.792
9.291
9.689
9.948
10.041
9.92
9.519
8.769
7.613
6.018
3.965
1.44
-1.593
-5.179
-9.327
-13.978
-19.004
-24.24
-29.581
-35.045
-40.523
-45.721
-50.311
-53.878
-56.221
-57.499
-57.671
-56.278
-53.039
-48.029
-41.575
-34.558
-27.594
-20.192
-11.836
-2.711
7.04
16.889
25.88
34.187
41.926
49.134
57.699
70.72
92.068
124.527
167.335
215.73
261.527
295.393
309.165
296.853
256.182
190.514
107.23
14.996
-79.009
-173.717
-270.753
-367.822
-465.453
-562.775
-636.706
-664.431
-659.848
-642.441
-608.796
-558.12
-497.871
-431.983
-364.303
-299.459
-241.959
-195.208
-159.849
-133.961
-114.067
-97.9
-84.569
-74.378
-68.17
-64.668
-61.625
-57.453
-50.889
-41.838
-31.208
-19.613
-7.847
2.776
11.389
17.566
21.11
22.337
21.747
19.712
16.765
13.621
10.772
8.543
7.137
6.544
6.734
7.707
9.383
11.639
14.378
17.509
20.958
24.678
28.601
32.633
36.686
40.676
44.531
48.192
51.604
54.712
57.485
59.921
62.035
63.855
65.417
66.757
67.922
68.966
69.945
70.91
71.91
72.987
74.181
75.534
77.086
78.877
80.934
83.269
85.887
88.786
91.957
95.389
99.059
102.934
106.988
111.195
115.535
119.992
124.544
129.165
133.831
138.514
143.196
147.866
152.515
157.136
161.737
166.321
170.906
175.518
180.163
184.842
189.543
194.247
198.941
203.612
208.232
212.775
217.208
221.483
225.561
229.389
232.89
235.991
238.608
240.643
242.03
242.716
242.655
241.817
240.165
237.664
234.309
230.1
225.044
219.162
212.469
204.998
196.829
188.036
178.716
168.983
158.923
148.621
138.169
127.655
117.178
106.844
96.73
86.905
77.442
68.4
59.857
51.87
44.453
37.616
31.353
25.642
20.475
15.837
11.691
7.997
4.7
1.728
-0.966
-3.421
-5.687
-7.805
-9.835
-11.825
-13.795
-15.759
-17.725
-19.696
-21.681
-23.684
-25.687
-27.671
-29.608
-31.457
-33.196
-34.812
-36.286
-37.605
-38.752
-39.713
-40.488
-41.088
-41.518
-41.787
-41.903
-41.871
-41.712
-41.447
-41.098
-40.693
-40.252
-39.789
-39.319
-38.853
-38.401
-37.973
-37.57
-37.192
-36.838
-36.51
-36.209
-35.936
-35.689
-35.465
-35.261
-35.072
-34.896
-34.731
-34.573
-34.421
-34.274
-34.13
-33.99
-33.854
-33.721
-33.592
-33.464
-33.336
-33.206
-33.074
-32.936
-32.792
-32.641
-32.48
-32.311
-32.131
-31.941
-31.741
-31.531
-31.311
-31.081
-30.841
-30.593
-30.336
-30.073
-29.803
-29.528
-29.25
-28.969
-28.687
-28.405
-28.123
-27.844
-27.568
-27.296
-27.03
-26.771
-26.519
-26.277
-26.045
-25.825
-25.617
-25.424
-25.246
-25.084
-24.939
-24.813
-24.705
-24.617
-24.549
-24.502
-24.476
-24.471
-24.488
-24.528
-24.59
-24.676
-24.784
-24.916
-25.07
-25.249
-25.45
-25.675
-25.923
-26.195
-26.489
-26.806
-27.145
-27.506
-27.886
-28.286
-28.705
-29.139
-29.588
-30.05
-30.523
-31.005
-31.494
-31.988
-32.484
-32.979
-33.471
-33.957
-34.433
-34.897
-35.345
-35.773
-36.178
-36.556
-36.903
-37.216
-37.49
-37.721
-37.906
-38.039
-38.118
-38.138
-38.095
-37.986
-37.809
-37.56
-37.238
-36.842
-36.372
-35.828
-35.211
-34.523
-33.764
-32.938
-32.047
-31.094
-30.081
-29.012
-27.89
-26.722
-25.513
-24.269
-22.998
-21.706
-20.401
-19.09
-17.782
-16.484
-15.203
-13.945
-12.717
-11.531
-10.398
-9.327
-8.327
-7.4
-6.549
-5.777
-5.083
-4.464
-3.909
-3.401
-2.93
-2.489
-2.07
-1.67
-1.277
-0.868
-0.428
0.057
0.594
1.18
1.815
2.51
3.255
4.034
4.818
5.551
6.191
6.711
7.072
7.242
7.165
6.755
5.948
4.694
2.969
0.791
-1.864
-5.05
-8.798
-13.143
-18.043
-23.335
-28.93
-34.806
-40.822
-46.824
-52.459
-57.085
-60.351
-62.194
-62.552
-61.495
-59.091
-55.143
-49.987
-44.683
-39.863
-35.873
-32.846
-29.865
-25.893
-20.903
-14.184
-4.926
5.844
17.973
31.616
46.483
65.584
92.663
129.054
174.406
224.546
272.124
309.475
328.909
323.537
288.812
225.236
139.068
39.703
-63.744
-166.854
-271.297
-378.155
-480.96
-576.228
-662.372
-716.307
-719.339
-691.81
-655.867
-609.326
-549.794
-483.213
-413.838
-343.543
-276.423
-217.806
-171.193
-137.49
-114.291
-97.467
-84.39
-74.042
-66.811
-63.069
-60.905
-58.316
-54.113
-47.408
-38.616
-28.49
-17.404
-6.341
3.248
10.542
15.179
17.161
17.049
15.361
12.44
8.865
5.362
2.426
0.384
-0.604
-0.628
0.23
1.937
4.381
7.43
10.977
14.908
19.128
23.578
28.169
32.798
37.374
41.802
45.999
49.9
53.443
56.596
59.358
61.741
63.774
65.491
66.93
68.139
69.176
70.094
70.948
71.788
72.659
73.609
74.683
75.919
77.357
79.023
80.936
83.105
85.532
88.212
91.137
94.291
97.652
101.195
104.893
108.72
112.652
116.669
120.751
124.878
129.031
133.19
137.332
141.442
145.515
149.548
153.543
157.503
161.436
165.357
169.289
173.246
177.234
181.244
185.263
189.273
193.252
197.174
201.014
204.731
208.278
211.605
214.653
217.362
219.671
221.501
222.768
223.401
223.344
222.56
221.02
218.694
215.569
211.648
206.941
201.478
195.294
188.418
180.906
172.817
164.22
155.212
145.892
136.35
126.678
116.959
107.277
97.734
88.411
79.365
70.653
62.311
54.386
46.938
39.997
33.581
27.701
22.341
17.484
13.122
9.226
5.757
2.67
-0.104
-2.618
-4.9
-6.985
-8.898
-10.675
-12.367
-14.007
-15.613
-17.2
-18.773
-20.339
-21.913
-23.488
-25.045
-26.56
-27.995
-29.323
-30.538
-31.631
-32.594
-33.421
-34.096
-34.614
-34.984
-35.212
-35.305
-35.27
-35.108
-34.832
-34.465
-34.028
-33.55
-33.051
-32.543
-32.037
-31.545
-31.075
-30.636
-30.23
-29.857
-29.515
-29.205
-28.929
-28.689
-28.483
-28.307
-28.157
-28.029
-27.919
-27.826
-27.746
-27.677
-27.617
-27.565
-27.521
-27.487
-27.462
-27.445
-27.435
-27.431
-27.431
-27.435
-27.44
-27.446
-27.451
-27.455
-27.457
-27.457
-27.456
-27.453
-27.448
-27.442
-27.435
-27.429
-27.423
-27.419
-27.417
-27.419
-27.425
-27.436
-27.454
-27.479
-27.511
-27.553
-27.604
-27.664
-27.735
-27.816
-27.909
-28.013
-28.13
-28.259
-28.402
-28.558
-28.728
-28.913
-29.113
-29.329
-29.56
-29.807
-30.07
-30.349
-30.645
-30.958
-31.287
-31.632
-31.995
-32.374
-32.771
-33.184
-33.615
-34.063
-34.529
-35.012
-35.512
-36.029
-36.563
-37.113
-37.678
-38.258
-38.851
-39.455
-40.07
-40.693
-41.323
-41.958
-42.595
-43.233
-43.867
-44.497
-45.118
-45.727
-46.321
-46.897
-47.45
-47.977
-48.474
-48.936
-49.36
-49.741
-50.075
-50.358
-50.585
-50.751
-50.854
-50.888
-50.851
-50.739
-50.551
-50.284
-49.938
-49.512
-49.007
-48.425
-47.768
-47.037
-46.235
-45.366
-44.432
-43.438
-42.387
-41.284
-40.135
-38.946
-37.726
-36.48
-35.217
-33.945
-32.672
-31.406
-30.155
-28.925
-27.724
-26.561
-25.446
-24.386
-23.393
-22.475
-21.632
-20.87
-20.188
-19.582
-19.049
-18.576
-18.147
-17.751
-17.379
-17.02
-16.668
-16.304
-15.912
-15.479
-14.989
-14.437
-13.822
-13.141
-12.393
-11.591
-10.755
-9.925
-9.155
-8.485
-7.955
-7.61
-7.498
-7.697
-8.282
-9.304
-10.804
-12.783
-15.247
-18.238
-21.787
-25.919
-30.629
-35.798
-41.313
-47.146
-53.158
-59.154
-64.836
-69.625
-73.014
-74.845
-74.971
-73.339
-70.158
-65.428
-59.453
-53.303
-47.915
-43.883
-41.407
-39.66
-37.458
-34.369
-30.29
-25.108
-18.708
-10.385
1.505
18.693
42.988
76.522
119.527
169.712
222.111
269.584
304.789
320.809
312.896
277.781
214.988
129.923
30.013
-76.897
-185.188
-294.573
-401.96
-505.751
-612.906
-709.129
-755.834
-749.893
-725.378
-692.677
-641.963
-575.957
-502.608
-426.565
-351.695
-282.235
-223.302
-178.127
-146.382
-124.914
-109.333
-96.857
-86.855
-80.207
-77.384
-76.383
-75.053
-72.014
-66.333
-58.488
-49.264
-39.036
-28.803
-20.02
-13.506
-9.613
-8.305
-8.988
-11.131
-14.38
-18.147
-21.692
-24.506
-26.261
-26.826
-26.324
-24.858
-22.483
-19.318
-15.503
-11.164
-6.428
-1.399
3.862
9.268
14.717
20.108
25.338
30.317
34.971
39.259
43.161
46.68
49.84
52.672
55.211
57.504
59.604
61.565
63.441
65.28
67.127
69.03
71.036
73.191
75.534
78.096
80.895
83.941
87.234
90.77
94.539
98.523
102.697
107.037
111.514
116.1
120.772
125.508
130.285
135.082
139.881
144.66
149.395
154.072
158.681
163.22
167.689
172.092
176.435
180.731
185
189.258
193.511
197.757
201.98
206.159
210.266
214.273
218.153
221.865
225.364
228.595
231.499
234.02
236.103
237.681
238.677
239.014
238.633
237.483
235.543
232.805
229.274
224.963
219.892
214.098
207.626
200.529
192.869
184.696
176.067
167.056
157.757
148.273
138.706
129.156
119.696
110.387
101.279
92.415
83.83
75.548
67.59
59.974
52.717
45.853
39.409
33.396
27.803
22.602
17.752
13.206
8.933
4.906
1.106
-2.478
-5.857
-9.033
-12.012
-14.799
-17.406
-19.865
-22.203
-24.439
-26.582
-28.623
-30.545
-32.32
-33.932
-35.366
-36.613
-37.672
-38.546
-39.243
-39.774
-40.153
-40.385
-40.468
-40.402
-40.187
-39.831
-39.348
-38.758
-38.086
-37.356
-36.589
-35.804
-35.017
-34.238
-33.476
-32.736
-32.02
-31.331
-30.676
-30.06
-29.489
-28.967
-28.496
-28.075
-27.704
-27.379
-27.097
-26.856
-26.653
-26.484
-26.35
-26.249
-26.18
-26.144
-26.138
-26.162
-26.213
-26.287
-26.382
-26.495
-26.622
-26.761
-26.907
-27.058
-27.212
-27.367
-27.52
-27.669
-27.812
-27.948
-28.074
-28.19
-28.293
-28.384
-28.46
-28.522
-28.569
-28.601
-28.618
-28.62
-28.606
-28.578
-28.534
-28.476
-28.403
-28.317
-28.216
-28.103
-27.977
-27.84
-27.694
-27.539
-27.378
-27.211
-27.04
-26.866
-26.691
-26.516
-26.343
-26.171
-26.004
-25.842
-25.688
-25.543
-25.409
-25.287
-25.179
-25.088
-25.014
-24.958
-24.923
-24.909
-24.919
-24.953
-25.013
-25.1
-25.215
-25.358
-25.53
-25.73
-25.959
-26.215
-26.496
-26.801
-27.128
-27.474
-27.839
-28.22
-28.616
-29.025
-29.446
-29.878
-30.317
-30.761
-31.206
-31.645
-32.073
-32.484
-32.872
-33.23
-33.554
-33.838
-34.078
-34.272
-34.417
-34.509
-34.541
-34.508
-34.404
-34.227
-33.978
-33.66
-33.281
-32.853
-32.387
-31.899
-31.397
-30.89
-30.376
-29.852
-29.308
-28.737
-28.135
-27.508
-26.861
-26.195
-25.507
-24.791
-24.032
-23.214
-22.316
-21.313
-20.186
-18.924
-17.531
-16.029
-14.447
-12.819
-11.168
-9.494
-7.805
-6.11
-4.422
-2.758
-1.138
0.424
1.903
3.258
4.457
5.472
6.293
6.945
7.452
7.844
8.134
8.297
8.317
8.184
7.886
7.408
6.724
5.774
4.521
2.955
1.077
-1.077
-3.504
-6.26
-9.388
-12.941
-16.937
-21.262
-25.846
-30.698
-35.69
-40.65
-45.302
-49.074
-51.495
-52.439
-51.763
-49.426
-45.694
-40.617
-34.451
-28.184
-22.7
-18.464
-15.914
-14.51
-12.692
-9.764
-4.924
2.544
11.549
21.635
33.281
47.307
67.191
96.766
137.374
188.175
243.685
295.929
337.641
360.992
360.463
332.626
275.901
194.506
95.845
-12.716
-124.947
-239.523
-355.707
-466.105
-567.77
-659.961
-719.62
-726.62
-699.756
-660.533
-606.902
-538.275
-462.17
-384.097
-307.34
-236.164
-175.93
-129.724
-97.287
-75.449
-59.465
-46.444
-35.704
-28.027
-24.015
-21.822
-19.346
-15.257
-8.64
0.047
10.01
20.859
31.603
40.787
47.589
51.668
53.06
52.362
50.117
46.681
42.641
38.739
35.484
33.202
32.054
31.94
32.771
34.511
37.042
40.226
43.946
48.08
52.523
57.216
62.068
66.972
71.835
76.557
81.052
85.259
89.116
92.59
95.678
98.393
100.763
102.827
104.623
106.201
107.618
108.928
110.186
111.442
112.739
114.122
115.633
117.311
119.194
121.31
123.672
126.281
129.137
132.231
135.55
139.074
142.775
146.618
150.576
154.626
158.748
162.926
167.136
171.35
175.543
179.69
183.775
187.789
191.726
195.58
199.36
203.084
206.776
210.471
214.186
217.919
221.666
225.418
229.163
232.899
236.612
240.277
243.87
247.36
250.702
253.851
256.735
259.256
261.324
262.837
263.712
263.901
263.355
262.029
259.887
256.895
253.023
248.271
242.63
236.094
228.689
220.451
211.455
201.814
191.637
181.038
170.128
158.997
147.74
136.463
125.261
114.231
103.483
93.102
83.18
73.823
65.094
57.042
49.687
43.012
37
31.633
26.88
22.711
19.095
15.981
13.319
11.057
9.114
7.424
5.918
4.513
3.155
1.801
0.418
-1.001
-2.464
-3.979
-5.542
-7.145
-8.786
-10.448
-12.113
-13.764
-15.36
-16.869
-18.266
-19.521
-20.619
-21.55
-22.309
-22.899
-23.332
-23.617
-23.768
-23.801
-23.727
-23.561
-23.322
-23.027
-22.702
-22.367
-22.039
-21.731
-21.452
-21.211
-21.011
-20.857
-20.742
-20.665
-20.624
-20.615
-20.637
-20.688
-20.763
-20.859
-20.97
-21.093
-21.223
-21.36
-21.499
-21.639
-21.777
-21.913
-22.045
-22.174
-22.297
-22.413
-22.52
-22.616
-22.699
-22.768
-22.821
-22.857
-22.874
-22.872
-22.85
-22.81
-22.751
-22.673
-22.577
-22.464
-22.334
-22.19
-22.032
-21.863
-21.683
-21.495
-21.3
-21.1
-20.897
-20.693
-20.489
-20.287
-20.09
-19.9
-19.718
-19.546
-19.386
-19.241
-19.111
-19.001
-18.91
-18.842
-18.798
-18.781
-18.791
-18.831
-18.903
-19.006
-19.144
-19.316
-19.524
-19.769
-20.051
-20.371
-20.729
-21.125
-21.559
-22.031
-22.541
-23.086
-23.668
-24.283
-24.93
-25.608
-26.314
-27.045
-27.799
-28.574
-29.365
-30.17
-30.985
-31.806
-32.629
-33.45
-34.265
-35.067
-35.853
-36.617
-37.355
-38.06
-38.729
-39.355
-39.933
-40.459
-40.927
-41.331
-41.668
-41.933
-42.122
-42.23
-42.256
-42.197
-42.051
-41.818
-41.497
-41.09
-40.599
-40.024
-39.369
-38.637
-37.83
-36.953
-36.011
-35.006
-33.945
-32.835
-31.681
-30.491
-29.272
-28.033
-26.781
-25.526
-24.274
-23.032
-21.809
-20.611
-19.449
-18.33
-17.263
-16.257
-15.319
-14.454
-13.663
-12.949
-12.307
-11.73
-11.208
-10.726
-10.276
-9.847
-9.43
-9.012
-8.577
-8.11
-7.599
-7.028
-6.39
-5.678
-4.886
-4.015
-3.078
-2.1
-1.119
-0.184
0.666
1.387
1.935
2.252
2.257
1.886
1.081
-0.189
-1.923
-4.149
-6.907
-10.24
-14.17
-18.644
-23.527
-28.717
-34.189
-39.835
-45.479
-50.733
-54.966
-57.799
-59.144
-58.99
-57.328
-54.083
-49.161
-43.07
-37.053
-31.998
-28.333
-25.71
-22.96
-19.535
-15.148
-9.539
-3.066
4.335
13.055
23.689
39.253
63.585
99.168
146.824
202.034
256.669
301.982
328.226
328.272
298.537
239.597
157.831
62.702
-37.029
-137.472
-239.245
-340.611
-441.587
-550.041
-652.934
-708.229
-707.331
-686.161
-658.43
-612.356
-549.685
-480.098
-409.015
-340.135
-277.171
-224.202
-183.178
-153.31
-132.014
-115.638
-102.082
-91.013
-83.032
-78.384
-75.222
-71.592
-66.34
-58.761
-49.355
-38.871
-27.684
-16.705
-7.283
-0.192
4.213
5.938
5.526
3.466
0.109
-3.976
-8.083
-11.714
-14.53
-16.352
-17.238
-17.24
-16.382
-14.76
-12.49
-9.671
-6.403
-2.768
1.176
5.349
9.648
13.978
18.24
22.345
26.22
29.793
33.021
35.893
38.418
40.622
42.538
44.201
45.659
46.964
48.171
49.333
50.5
51.713
53.02
54.465
56.091
57.94
60.042
62.414
65.061
67.982
71.168
74.609
78.284
82.165
86.218
90.418
94.739
99.163
103.67
108.235
112.833
117.439
122.029
126.584
131.096
135.557
139.962
144.32
148.641
152.941
157.249
161.572
165.91
170.257
174.594
178.911
183.194
187.416
191.552
195.57
199.424
203.072
206.461
209.51
212.146
214.286
215.838
216.736
216.926
216.365
215.023
212.868
209.873
206.027
201.331
195.787
189.416
182.239
174.298
165.674
156.447
146.705
136.556
126.087
115.384
104.532
93.614
82.716
71.934
61.357
51.066
41.138
31.645
22.658
14.227
6.37
-0.901
-7.583
-13.687
-19.223
-24.202
-28.647
-32.589
-36.064
-39.125
-41.836
-44.253
-46.432
-48.427
-50.293
-52.074
-53.801
-55.493
-57.164
-58.822
-60.475
-62.126
-63.775
-65.413
-67.025
-68.588
-70.067
-71.435
-72.673
-73.759
-74.679
-75.419
-75.974
-76.345
-76.545
-76.581
-76.465
-76.208
-75.821
-75.321
-74.726
-74.06
-73.348
-72.611
-71.867
-71.129
-70.411
-69.72
-69.067
-68.453
-67.876
-67.335
-66.83
-66.361
-65.927
-65.527
-65.157
-64.814
-64.494
-64.192
-63.908
-63.636
-63.377
-63.126
-62.884
-62.648
-62.42
-62.198
-61.981
-61.768
-61.557
-61.347
-61.135
-60.92
-60.701
-60.476
-60.244
-60.005
-59.759
-59.506
-59.246
-58.98
-58.709
-58.433
-58.155
-57.876
-57.598
-57.323
-57.054
-56.792
-56.54
-56.3
-56.076
-55.869
-55.681
-55.515
-55.374
-55.259
-55.173
-55.116
-55.092
-55.1
-55.142
-55.219
-55.332
-55.48
-55.663
-55.882
-56.136
-56.423
-56.742
-57.093
-57.472
-57.877
-58.305
-58.754
-59.219
-59.697
-60.184
-60.675
-61.166
-61.652
-62.128
-62.589
-63.03
-63.444
-63.826
-64.172
-64.474
-64.728
-64.93
-65.074
-65.157
-65.175
-65.125
-65.007
-64.819
-64.56
-64.23
-63.829
-63.359
-62.821
-62.216
-61.545
-60.811
-60.017
-59.168
-58.269
-57.325
-56.342
-55.326
-54.286
-53.227
-52.159
-51.087
-50.017
-48.955
-47.911
-46.894
-45.915
-44.985
-44.111
-43.296
-42.544
-41.857
-41.232
-40.664
-40.144
-39.653
-39.182
-38.724
-38.272
-37.824
-37.367
-36.881
-36.352
-35.763
-35.105
-34.379
-33.582
-32.712
-31.782
-30.809
-29.828
-28.897
-28.056
-27.335
-26.773
-26.394
-26.25
-26.426
-26.981
-27.971
-29.422
-31.316
-33.669
-36.519
-39.886
-43.783
-48.146
-52.809
-57.671
-62.72
-67.852
-72.917
-77.543
-81.091
-83.186
-83.746
-82.76
-80.242
-76.143
-70.362
-63.404
-56.498
-50.505
-45.848
-42.22
-38.457
-33.953
-28.399
-21.425
-13.281
-4.052
6.511
18.827
35.613
60.732
96.689
144.417
199.707
254.68
301.477
331.044
336.567
314.535
263.665
188.472
97.471
-1.528
-102.631
-204.897
-309.037
-409.677
-504.772
-593.719
-654.026
-665.235
-644.639
-612.981
-567.711
-508.109
-442.721
-377.305
-314.567
-257.64
-208.504
-167.747
-135.124
-108.479
-85.98
-66.976
-51.665
-41.243
-35.561
-32.602
-29.996
-25.897
-19.693
-11.803
-2.805
6.889
16.681
25.514
32.416
36.874
38.804
38.582
36.72
33.613
29.779
25.916
22.567
20.102
18.706
18.329
18.886
20.32
22.525
25.37
28.741
32.531
36.65
41.034
45.605
50.262
54.898
59.404
63.683
67.652
71.259
74.48
77.311
79.776
81.906
83.737
85.315
86.692
87.919
89.049
90.132
91.214
92.344
93.575
94.957
96.539
98.36
100.441
102.792
105.417
108.31
111.463
114.858
118.469
122.264
126.218
130.309
134.519
138.836
143.237
147.696
152.187
156.685
161.173
165.643
170.087
174.502
178.892
183.271
187.663
192.104
196.613
201.191
205.833
210.516
215.226
219.954
224.678
229.368
233.988
238.488
242.82
246.941
250.782
254.257
257.27
259.705
261.473
262.518
262.787
262.248
260.866
258.599
255.433
251.378
246.45
240.676
234.083
226.687
218.544
209.745
200.392
190.611
180.509
170.167
159.674
149.119
138.595
128.209
118.041
108.14
98.561
89.354
80.577
72.303
64.568
57.375
50.715
44.563
38.902
33.727
29.014
24.724
20.806
17.197
13.853
10.754
7.872
5.177
2.631
0.178
-2.213
-4.549
-6.838
-9.08
-11.281
-13.45
-15.582
-17.653
-19.635
-21.491
-23.2
-24.757
-26.154
-27.383
-28.435
-29.295
-29.96
-30.441
-30.745
-30.882
-30.858
-30.68
-30.36
-29.926
-29.401
-28.816
-28.19
-27.54
-26.878
-26.219
-25.572
-24.949
-24.355
-23.79
-23.255
-22.754
-22.29
-21.866
-21.483
-21.138
-20.827
-20.547
-20.295
-20.07
-19.869
-19.688
-19.527
-19.384
-19.258
-19.15
-19.059
-18.983
-18.919
-18.866
-18.82
-18.778
-18.739
-18.699
-18.655
-18.604
-18.546
-18.478
-18.398
-18.306
-18.2
-18.079
-17.943
-17.791
-17.622
-17.438
-17.238
-17.022
-16.792
-16.55
-16.295
-16.029
-15.755
-15.473
-15.185
-14.893
-14.599
-14.304
-14.011
-13.721
-13.438
-13.162
-12.897
-12.644
-12.406
-12.186
-11.985
-11.807
-11.653
-11.525
-11.425
-11.355
-11.317
-11.311
-11.341
-11.406
-11.508
-11.648
-11.828
-12.047
-12.306
-12.605
-12.943
-13.321
-13.738
-14.192
-14.682
-15.206
-15.762
-16.349
-16.963
-17.602
-18.264
-18.944
-19.641
-20.351
-21.069
-21.791
-22.515
-23.235
-23.946
-24.645
-25.326
-25.985
-26.616
-27.215
-27.776
-28.295
-28.766
-29.183
-29.542
-29.838
-30.065
-30.22
-30.299
-30.299
-30.216
-30.05
-29.799
-29.463
-29.044
-28.541
-27.955
-27.29
-26.547
-25.73
-24.84
-23.88
-22.855
-21.77
-20.63
-19.444
-18.217
-16.957
-15.671
-14.368
-13.056
-11.745
-10.441
-9.149
-7.878
-6.638
-5.441
-4.301
-3.228
-2.226
-1.297
-0.446
0.329
1.029
1.663
2.25
2.802
3.329
3.832
4.314
4.781
5.25
5.742
6.276
6.863
7.501
8.189
8.933
9.727
10.556
11.386
12.16
12.829
13.357
13.717
13.876
13.798
13.414
12.641
11.419
9.698
7.463
4.728
1.471
-2.33
-6.683
-11.576
-16.912
-22.528
-28.33
-34.305
-40.354
-46.306
-51.764
-56.085
-58.873
-60.047
-59.613
-57.521
-53.64
-47.913
-40.87
-33.788
-27.736
-22.893
-18.557
-13.869
-8.45
-2.878
1.852
6.065
10.851
18.153
30.768
51.127
81.246
121.423
169.509
220.371
267.19
303.68
323.807
322.901
297.978
247.62
173.926
82.658
-20.052
-129.684
-243.306
-359.36
-473.271
-575.617
-656.414
-707.315
-724.924
-713.085
-677.94
-626.035
-563.609
-493.383
-417.946
-341.59
-268.943
-206.581
-159.589
-128.077
-108.661
-95.878
-85.693
-77.074
-70.868
-67.924
-66.72
-65.235
-62.07
-56.173
-47.939
-38.172
-27.288
-16.334
-6.816
0.421
4.99
6.89
6.713
4.989
2.059
-1.484
-4.905
-7.696
-9.513
-10.215
-9.921
-8.73
-6.698
-3.943
-0.594
3.233
7.418
11.867
16.519
21.288
26.081
30.803
35.35
39.635
43.583
47.148
50.315
53.087
55.487
57.547
59.3
60.791
62.077
63.212
64.25
65.244
66.237
67.281
68.429
69.726
71.218
72.937
74.902
77.129
79.627
82.395
85.427
88.711
92.226
95.952
99.866
103.941
108.151
112.471
116.874
121.339
125.843
130.368
134.89
139.388
143.844
148.252
152.609
156.918
161.185
165.416
169.624
173.832
178.052
182.286
186.533
190.78
195.012
199.206
203.339
207.386
211.307
215.06
218.587
221.82
224.694
227.137
229.071
230.411
231.086
231.038
230.223
228.6
226.14
222.828
218.66
213.642
207.797
201.146
193.736
185.639
176.926
167.684
158.012
148.012
137.782
127.42
117.021
106.684
96.513
86.59
76.988
67.775
59.005
50.746
43.042
35.906
29.351
23.372
17.952
13.076
8.727
4.866
1.453
-1.564
-4.253
-6.664
-8.838
-10.82
-12.647
-14.37
-16.033
-17.654
-19.247
-20.82
-22.376
-23.923
-25.468
-26.996
-28.492
-29.931
-31.278
-32.513
-33.623
-34.593
-35.415
-36.075
-36.562
-36.881
-37.04
-37.05
-36.922
-36.664
-36.283
-35.797
-35.23
-34.602
-33.942
-33.268
-32.595
-31.938
-31.31
-30.72
-30.178
-29.686
-29.243
-28.85
-28.506
-28.214
-27.973
-27.782
-27.636
-27.533
-27.467
-27.435
-27.434
-27.461
-27.512
-27.584
-27.677
-27.789
-27.918
-28.064
-28.225
-28.398
-28.58
-28.769
-28.963
-29.159
-29.354
-29.546
-29.733
-29.913
-30.086
-30.25
-30.404
-30.547
-30.679
-30.799
-30.907
-31.004
-31.089
-31.164
-31.227
-31.281
-31.325
-31.361
-31.39
-31.412
-31.428
-31.439
-31.446
-31.449
-31.45
-31.449
-31.446
-31.443
-31.44
-31.438
-31.438
-31.44
-31.446
-31.456
-31.47
-31.489
-31.514
-31.544
-31.579
-31.621
-31.668
-31.721
-31.781
-31.847
-31.919
-31.997
-32.082
-32.174
-32.273
-32.378
-32.489
-32.608
-32.732
-32.864
-33.002
-33.148
-33.301
-33.461
-33.63
-33.807
-33.994
-34.189
-34.393
-34.605
-34.826
-35.055
-35.293
-35.537
-35.788
-36.044
-36.305
-36.571
-36.84
-37.111
-37.381
-37.649
-37.914
-38.174
-38.424
-38.663
-38.888
-39.098
-39.289
-39.46
-39.608
-39.73
-39.824
-39.887
-39.916
-39.906
-39.853
-39.752
-39.599
-39.392
-39.128
-38.804
-38.419
-37.97
-37.459
-36.888
-36.259
-35.568
-34.815
-33.996
-33.114
-32.179
-31.197
-30.172
-29.111
-28.019
-26.909
-25.795
-24.687
-23.58
-22.474
-21.366
-20.261
-19.172
-18.11
-17.083
-16.094
-15.136
-14.215
-13.344
-12.524
-11.747
-10.998
-10.251
-9.503
-8.773
-8.069
-7.394
-6.742
-6.095
-5.451
-4.816
-4.194
-3.587
-2.982
-2.352
-1.7
-1.047
-0.418
0.148
0.644
1.089
1.474
1.775
1.96
1.997
1.876
1.6
1.152
0.497
-0.43
-1.695
-3.325
-5.316
-7.631
-10.242
-13.171
-16.448
-20.088
-24.073
-28.295
-32.685
-37.259
-41.917
-46.497
-50.729
-54.062
-56.018
-56.47
-55.294
-52.465
-48.283
-42.848
-36.436
-30.054
-24.615
-20.557
-18.274
-17.28
-16.084
-13.983
-10.189
-3.722
4.855
15.209
27.744
42.801
62.746
90.94
128.879
176.419
229.577
281.37
324.823
351.915
356.283
333.739
282.001
204.722
109.307
3.447
-105.99
-217.332
-330.706
-440.373
-544.521
-642.566
-710.84
-727.534
-710.326
-680.509
-634.941
-572.736
-500.237
-421.182
-340.475
-264.069
-198.676
-149.338
-115.713
-93.965
-79.186
-68.035
-59.399
-53.988
-52.408
-52.661
-52.538
-50.563
-45.44
-37.393
-27.426
-16.121
-4.64
5.311
12.895
17.766
19.845
19.69
17.858
14.698
10.837
7.073
3.898
1.636
0.455
0.239
0.91
2.441
4.713
7.594
10.975
14.738
18.793
23.083
27.522
32.015
36.472
40.798
44.914
48.757
52.269
55.42
58.207
60.64
62.748
64.564
66.126
67.483
68.693
69.81
70.89
71.98
73.127
74.378
75.775
77.358
79.166
81.223
83.55
86.156
89.041
92.2
95.624
99.295
103.191
107.285
111.544
115.942
120.455
125.061
129.739
134.465
139.214
143.962
148.683
153.358
157.98
162.538
167.03
171.462
175.844
180.192
184.537
188.888
193.247
197.606
201.947
206.259
210.527
214.724
218.824
222.79
226.578
230.147
233.445
236.399
238.934
240.96
242.381
243.125
243.139
242.378
240.81
238.398
235.119
230.976
225.981
220.156
213.528
206.118
197.965
189.15
179.761
169.906
159.7
149.236
138.608
127.912
117.242
106.708
96.399
86.375
76.691
67.399
58.555
50.232
42.476
35.293
28.685
22.632
17.112
12.117
7.62
3.577
-0.063
-3.369
-6.393
-9.161
-11.703
-14.05
-16.242
-18.334
-20.364
-22.343
-24.282
-26.185
-28.055
-29.907
-31.735
-33.517
-35.225
-36.822
-38.284
-39.607
-40.782
-41.803
-42.662
-43.343
-43.844
-44.174
-44.344
-44.361
-44.233
-43.964
-43.568
-43.071
-42.497
-41.877
-41.23
-40.571
-39.914
-39.271
-38.653
-38.069
-37.523
-37.015
-36.546
-36.116
-35.729
-35.387
-35.089
-34.831
-34.609
-34.418
-34.254
-34.115
-33.997
-33.896
-33.811
-33.738
-33.677
-33.628
-33.588
-33.556
-33.53
-33.505
-33.479
-33.45
-33.414
-33.369
-33.311
-33.239
-33.151
-33.044
-32.919
-32.773
-32.607
-32.418
-32.208
-31.976
-31.722
-31.448
-31.152
-30.838
-30.506
-30.157
-29.793
-29.416
-29.028
-28.631
-28.225
-27.815
-27.4
-26.983
-26.567
-26.152
-25.742
-25.339
-24.944
-24.559
-24.188
-23.831
-23.491
-23.169
-22.867
-22.586
-22.327
-22.091
-21.88
-21.693
-21.532
-21.396
-21.286
-21.202
-21.143
-21.109
-21.101
-21.116
-21.156
-21.218
-21.303
-21.408
-21.534
-21.679
-21.843
-22.023
-22.219
-22.431
-22.656
-22.894
-23.143
-23.403
-23.672
-23.95
-24.235
-24.527
-24.825
-25.129
-25.437
-25.75
-26.068
-26.389
-26.714
-27.044
-27.376
-27.712
-28.052
-28.394
-28.739
-29.087
-29.437
-29.787
-30.138
-30.488
-30.838
-31.184
-31.527
-31.865
-32.195
-32.518
-32.829
-33.127
-33.411
-33.676
-33.922
-34.146
-34.344
-34.513
-34.651
-34.755
-34.82
-34.843
-34.818
-34.741
-34.608
-34.415
-34.159
-33.836
-33.442
-32.974
-32.433
-31.817
-31.124
-30.354
-29.505
-28.576
-27.572
-26.497
-25.356
-24.152
-22.889
-21.572
-20.207
-18.807
-17.372
-15.908
-14.415
-12.895
-11.36
-9.822
-8.29
-6.776
-5.281
-3.802
-2.348
-0.93
0.446
1.77
3.045
4.278
5.456
6.563
7.592
8.533
9.399
10.21
10.974
11.7
12.383
13.012
13.598
14.159
14.703
15.242
15.771
16.271
16.758
17.252
17.757
18.273
18.768
19.186
19.489
19.654
19.659
19.484
19.093
18.418
17.393
15.968
14.108
11.818
9.099
5.915
2.236
-1.959
-6.661
-11.772
-17.148
-22.714
-28.45
-34.26
-39.967
-45.167
-49.238
-51.819
-52.835
-52.289
-50.171
-46.403
-40.906
-34.204
-27.561
-21.889
-17.601
-14.343
-10.961
-6.91
-1.975
4.031
10.816
18.528
27.753
39.37
56.263
81.798
117.67
163.801
215.554
265.814
307.924
334.208
338.454
316.014
264.125
185.876
89.421
-16.741
-128.558
-239.387
-337.558
-433.984
-553.339
-670.197
-725.466
-716.677
-688.626
-657.025
-610.915
-550.27
-483.14
-412.986
-340.841
-271.345
-211.027
-163.924
-131.278
-110.408
-96.122
-85.12
-76.108
-69.48
-66.031
-64.164
-61.937
-58.128
-51.739
-43.132
-33.09
-22.02
-10.932
-1.298
6.051
10.744
12.785
12.751
11.166
8.371
4.951
1.636
-1.069
-2.818
-3.465
-3.12
-1.876
0.216
3.042
6.475
10.402
14.699
19.272
24.054
28.959
33.893
38.755
43.442
47.863
51.94
55.628
58.908
61.783
64.275
66.415
68.235
69.782
71.112
72.28
73.342
74.348
75.346
76.387
77.524
78.804
80.275
81.969
83.908
86.11
88.585
91.331
94.346
97.618
101.127
104.853
108.774
112.86
117.089
121.436
125.877
130.393
134.959
139.551
144.148
148.724
153.262
157.755
162.195
166.581
170.923
175.228
179.516
183.813
188.131
192.471
196.827
201.181
205.522
209.836
214.096
218.276
222.343
226.246
229.943
233.378
236.471
239.148
241.32
242.885
243.775
243.932
243.31
241.877
239.596
236.437
232.397
227.48
221.7
215.086
207.66
199.465
190.585
181.104
171.121
160.757
150.103
139.247
128.286
117.308
106.411
95.703
85.258
75.142
65.425
56.162
47.425
39.266
31.693
24.715
18.324
12.496
7.224
2.493
-1.733
-5.49
-8.831
-11.825
-14.518
-16.946
-19.156
-21.188
-23.097
-24.928
-26.701
-28.428
-30.119
-31.775
-33.408
-35.025
-36.612
-38.154
-39.627
-40.995
-42.239
-43.348
-44.309
-45.11
-45.739
-46.186
-46.454
-46.556
-46.501
-46.302
-45.967
-45.506
-44.939
-44.289
-43.58
-42.843
-42.096
-41.358
-40.643
-39.966
-39.337
-38.766
-38.258
-37.811
-37.427
-37.106
-36.85
-36.661
-36.535
-36.471
-36.462
-36.506
-36.599
-36.736
-36.915
-37.131
-37.383
-37.668
-37.984
-38.33
-38.705
-39.104
-39.526
-39.966
-40.422
-40.889
-41.365
-41.845
-42.327
-42.807
-43.283
-43.752
-44.213
-44.664
-45.102
-45.526
-45.936
-46.33
-46.707
-47.067
-47.409
-47.734
-48.041
-48.332
-48.605
-48.861
-49.101
-49.325
-49.533
-49.725
-49.902
-50.064
-50.212
-50.346
-50.466
-50.573
-50.668
-50.751
-50.823
-50.884
-50.935
-50.976
-51.008
-51.031
-51.045
-51.051
-51.05
-51.041
-51.025
-51.003
-50.974
-50.939
-50.899
-50.853
-50.803
-50.749
-50.691
-50.63
-50.566
-50.502
-50.437
-50.372
-50.309
-50.248
-50.191
-50.139
-50.092
-50.053
-50.023
-50.002
-49.991
-49.993
-50.007
-50.034
-50.075
-50.131
-50.2
-50.284
-50.38
-50.49
-50.613
-50.746
-50.89
-51.042
-51.202
-51.366
-51.534
-51.703
-51.869
-52.031
-52.186
-52.329
-52.458
-52.569
-52.658
-52.722
-52.756
-52.756
-52.718
-52.638
-52.511
-52.334
-52.102
-51.812
-51.462
-51.048
-50.568
-50.022
-49.409
-48.73
-47.985
-47.176
-46.304
-45.373
-44.384
-43.342
-42.248
-41.106
-39.921
-38.698
-37.444
-36.165
-34.867
-33.558
-32.246
-30.94
-29.646
-28.372
-27.125
-25.911
-24.739
-23.618
-22.559
-21.573
-20.666
-19.841
-19.102
-18.45
-17.883
-17.395
-16.975
-16.606
-16.278
-15.983
-15.713
-15.464
-15.223
-14.968
-14.685
-14.355
-13.969
-13.527
-13.025
-12.461
-11.846
-11.195
-10.543
-9.945
-9.441
-9.06
-8.837
-8.8
-8.998
-9.516
-10.414
-11.747
-13.542
-15.782
-18.484
-21.686
-25.405
-29.653
-34.36
-39.364
-44.565
-49.952
-55.425
-60.833
-65.815
-69.756
-72.293
-73.346
-72.899
-70.945
-67.413
-62.21
-55.817
-49.409
-43.831
-39.508
-36.152
-32.678
-28.516
-23.316
-16.724
-9.059
-0.496
9.058
19.947
34.974
58.147
92.262
138.407
192.378
246.122
290.955
317.405
318.546
291.09
235.609
157.915
67.077
-28.692
-125.171
-222.684
-322.365
-419.941
-512.801
-599.809
-659.893
-673.07
-655.794
-627.688
-585.085
-527.079
-461.002
-391.61
-323.947
-262.986
-212.322
-174.322
-146.86
-125.662
-108.108
-92.601
-79.696
-71.345
-67.075
-64.483
-61.495
-56.452
-48.94
-39.769
-29.564
-18.706
-8.035
1.222
8.278
12.755
14.665
14.531
12.809
9.82
6.115
2.377
-0.902
-3.389
-4.913
-5.54
-5.319
-4.27
-2.488
-0.085
2.837
6.174
9.846
13.797
17.949
22.203
26.468
30.648
34.66
38.434
41.908
45.044
47.83
50.28
52.42
54.283
55.907
57.337
58.626
59.828
60.993
62.171
63.405
64.739
66.218
67.884
69.778
71.93
74.357
77.066
80.054
83.315
86.838
90.605
94.587
98.753
103.073
107.526
112.094
116.76
121.502
126.291
131.1
135.903
140.68
145.423
150.122
154.77
159.371
163.938
168.496
173.078
177.7
182.36
187.049
191.749
196.446
201.134
205.792
210.395
214.909
219.291
223.503
227.5
231.214
234.556
237.423
239.708
241.325
242.219
242.346
241.668
240.144
237.733
234.422
230.213
225.119
219.151
212.321
204.653
196.213
187.099
177.427
167.324
156.896
146.23
135.42
124.563
113.766
103.138
92.758
82.692
73.005
63.768
55.064
46.958
39.473
32.604
26.329
20.621
15.461
10.832
6.697
3.009
-0.293
-3.277
-5.986
-8.456
-10.729
-12.852
-14.887
-16.884
-18.867
-20.843
-22.812
-24.776
-26.738
-28.702
-30.65
-32.556
-34.392
-36.12
-37.723
-39.187
-40.498
-41.641
-42.6
-43.36
-43.923
-44.298
-44.495
-44.524
-44.391
-44.105
-43.687
-43.16
-42.547
-41.876
-41.166
-40.43
-39.685
-38.942
-38.212
-37.504
-36.82
-36.161
-35.527
-34.92
-34.342
-33.794
-33.274
-32.781
-32.31
-31.858
-31.424
-31.005
-30.598
-30.203
-29.819
-29.445
-29.081
-28.728
-28.386
-28.054
-27.732
-27.417
-27.108
-26.804
-26.503
-26.203
-25.902
-25.601
-25.297
-24.99
-24.681
-24.369
-24.053
-23.734
-23.412
-23.088
-22.762
-22.434
-22.107
-21.779
-21.453
-21.13
-20.81
-20.494
-20.184
-19.879
-19.581
-19.291
-19.008
-18.734
-18.47
-18.215
-17.97
-17.737
-17.515
-17.306
-17.111
-16.929
-16.762
-16.61
-16.473
-16.352
-16.247
-16.158
-16.085
-16.028
-15.987
-15.961
-15.95
-15.954
-15.973
-16.006
-16.053
-16.113
-16.186
-16.271
-16.369
-16.478
-16.6
-16.732
-16.876
-17.03
-17.195
-17.37
-17.555
-17.749
-17.952
-18.164
-18.383
-18.609
-18.84
-19.075
-19.314
-19.555
-19.795
-20.034
-20.269
-20.499
-20.722
-20.935
-21.137
-21.326
-21.499
-21.654
-21.788
-21.899
-21.985
-22.042
-22.068
-22.059
-22.014
-21.929
-21.802
-21.63
-21.409
-21.138
-20.813
-20.432
-19.993
-19.493
-18.932
-18.309
-17.622
-16.873
-16.062
-15.191
-14.262
-13.277
-12.242
-11.157
-10.029
-8.861
-7.657
-6.423
-5.161
-3.879
-2.582
-1.277
0.03
1.331
2.619
3.886
5.124
6.327
7.487
8.599
9.658
10.656
11.585
12.436
13.2
13.873
14.453
14.937
15.323
15.615
15.82
15.951
16.026
16.057
16.055
16.029
15.991
15.957
15.949
15.983
16.077
16.238
16.476
16.803
17.226
17.741
18.332
18.963
19.584
20.156
20.644
21.002
21.189
21.136
20.761
20.005
18.819
17.183
15.087
12.493
9.345
5.601
1.27
-3.563
-8.744
-14.167
-19.819
-25.625
-31.344
-36.522
-40.641
-43.395
-44.799
-44.976
-43.692
-40.577
-35.625
-29.413
-22.936
-17.075
-11.713
-5.788
1.16
8.972
17.099
24.698
31.828
39.42
48.853
61.9
81.182
109.388
147.216
192.957
242.133
288.189
324.359
344.302
341.857
311.879
253.702
171.975
75.846
-24.99
-128.277
-229.479
-317.317
-404.362
-516.396
-626.949
-676.049
-662.868
-635.386
-608.766
-568.443
-513.057
-449.969
-382.134
-312.616
-246.803
-190.556
-147.771
-117.922
-97.353
-81.744
-68.329
-56.832
-48.427
-43.584
-40.528
-37.258
-32.474
-25.397
-16.502
-6.486
4.326
15.043
24.325
31.401
35.931
37.93
37.938
36.437
33.739
30.384
27.067
24.271
22.323
21.387
21.383
22.24
23.931
26.352
29.38
32.907
36.821
41.027
45.466
50.052
54.687
59.287
63.759
68.022
72.012
75.67
78.965
81.894
84.469
86.718
88.671
90.366
91.851
93.184
94.417
95.604
96.792
98.025
99.349
100.809
102.441
104.278
106.342
108.644
111.196
114.003
117.064
120.37
123.907
127.658
131.602
135.717
139.974
144.338
148.778
153.271
157.795
162.339
166.886
171.418
175.919
180.374
184.769
189.092
193.329
197.458
201.47
205.364
209.153
212.864
216.503
220.056
223.504
226.82
229.971
232.927
235.645
238.072
240.169
241.909
243.275
244.26
244.833
244.946
244.545
243.556
241.934
239.659
236.707
233.07
228.756
223.787
218.211
212.094
205.474
198.365
190.777
182.726
174.255
165.437
156.345
147.067
137.687
128.284
118.954
109.785
100.834
92.138
83.716
75.573
67.745
60.299
53.289
46.759
40.727
35.191
30.151
25.593
21.489
17.789
14.419
11.318
8.446
5.782
3.316
1.033
-1.102
-3.141
-5.125
-7.081
-9.033
-10.995
-12.987
-15.022
-17.093
-19.173
-21.22
-23.204
-25.112
-26.942
-28.695
-30.371
-31.959
-33.451
-34.848
-36.155
-37.373
-38.505
-39.549
-40.508
-41.393
-42.228
-43.04
-43.846
-44.657
-45.48
-46.319
-47.179
-48.064
-48.973
-49.899
-50.837
-51.782
-52.733
-53.688
-54.641
-55.588
-56.517
-57.422
-58.295
-59.13
-59.921
-60.663
-61.352
-61.983
-62.556
-63.069
-63.522
-63.913
-64.241
-64.504
-64.701
-64.833
-64.9
-64.9
-64.835
-64.706
-64.516
-64.267
-63.961
-63.602
-63.193
-62.739
-62.243
-61.71
-61.143
-60.549
-59.93
-59.293
-58.641
-57.979
-57.311
-56.642
-55.976
-55.317
-54.667
-54.031
-53.411
-52.809
-52.229
-51.672
-51.139
-50.633
-50.155
-49.705
-49.284
-48.892
-48.53
-48.197
-47.892
-47.615
-47.364
-47.138
-46.936
-46.755
-46.594
-46.45
-46.323
-46.21
-46.109
-46.017
-45.934
-45.857
-45.785
-45.715
-45.647
-45.578
-45.508
-45.436
-45.359
-45.279
-45.193
-45.102
-45.005
-44.902
-44.793
-44.677
-44.555
-44.428
-44.295
-44.158
-44.017
-43.872
-43.725
-43.575
-43.425
-43.274
-43.125
-42.976
-42.83
-42.687
-42.547
-42.411
-42.28
-42.154
-42.033
-41.917
-41.807
-41.701
-41.601
-41.506
-41.416
-41.33
-41.248
-41.17
-41.095
-41.023
-40.953
-40.885
-40.818
-40.752
-40.687
-40.622
-40.557
-40.491
-40.425
-40.357
-40.288
-40.217
-40.145
-40.07
-39.993
-39.913
-39.829
-39.743
-39.653
-39.56
-39.463
-39.364
-39.261
-39.155
-39.047
-38.935
-38.821
-38.703
-38.581
-38.456
-38.326
-38.192
-38.052
-37.906
-37.754
-37.593
-37.422
-37.241
-37.048
-36.841
-36.619
-36.38
-36.124
-35.85
-35.557
-35.244
-34.913
-34.564
