-6.298
-6.941
-7.591
-8.246
-8.905
-9.567
-10.231
-10.896
-11.561
-12.225
-12.888
-13.548
-14.205
-14.859
-15.508
-16.153
-16.792
-17.425
-18.051
-18.669
-19.28
-19.881
-20.473
-21.053
-21.622
-22.177
-22.716
-23.239
-23.744
-24.227
-24.688
-25.124
-25.531
-25.909
-26.253
-26.562
-26.832
-27.06
-27.243
-27.379
-27.463
-27.493
-27.467
-27.38
-27.23
-27.015
-26.732
-26.377
-25.95
-25.448
-24.87
-24.213
-23.478
-22.663
-21.768
-20.794
-19.741
-18.61
-17.403
-16.123
-14.771
-13.352
-11.869
-10.327
-8.729
-7.081
-5.39
-3.66
-1.898
-0.111
1.694
3.51
5.329
7.143
8.945
10.727
12.48
14.197
15.87
17.491
19.052
20.546
21.967
23.306
24.559
25.719
26.781
27.74
28.592
29.334
29.962
30.475
30.871
31.149
31.309
31.351
31.277
31.088
30.788
30.379
29.866
29.252
28.543
27.744
26.861
25.901
24.87
23.774
22.623
21.422
20.179
18.903
17.6
16.279
14.946
13.61
12.277
10.954
9.648
8.364
7.108
5.886
4.703
3.562
2.469
1.427
0.439
-0.491
-1.361
-2.17
-2.915
-3.596
-4.213
-4.764
-5.251
-5.673
-6.031
-6.328
-6.563
-6.738
-6.856
-6.917
-6.924
-6.879
-6.783
-6.64
-6.45
-6.216
-5.938
-5.618
-5.258
-4.858
-4.419
-3.943
-3.43
-2.882
-2.3
-1.685
-1.04
-0.368
0.329
1.05
1.791
2.55
3.325
4.113
4.912
5.721
6.537
7.357
8.177
8.992
9.799
10.594
11.374
12.133
12.866
13.569
14.238
14.873
15.47
16.024
16.527
16.968
17.342
17.648
17.888
18.062
18.174
18.228
18.234
18.212
18.175
18.138
18.103
18.071
18.047
18.044
18.081
18.18
18.353
18.597
18.91
19.295
19.745
20.249
20.782
21.29
21.725
22.048
22.231
22.255
22.089
21.685
20.977
19.893
18.377
16.406
13.973
11.069
7.681
3.78
-0.645
-5.529
-10.753
-16.18
-21.715
-27.355
-33.046
-38.538
-43.384
-47.105
-49.427
-50.392
-50.126
-48.435
-45.026
-39.92
-33.751
-27.595
-22.299
-18.002
-13.956
-9.468
-4.618
0.743
6.774
13.017
19.903
27.711
36.534
49.642
70.72
101.445
141.799
186.838
228.935
261.219
276.455
268.859
234.369
171.668
85.68
-15.416
-123.049
-231.6
-341.022
-448.121
-551.366
-658.792
-754.631
-796.967
-784.305
-754.779
-720.001
-669.241
-603.9
-532.133
-458.412
-386.173
-320.383
-264.975
-221.954
-190.431
-166.502
-147.428
-132.028
-120.329
-113.828
-111.845
-111.37
-110.065
-106.277
-99.5
-90.576
-80.215
-68.841
-57.426
-47.362
-39.524
-34.291
-31.617
-30.93
-31.708
-33.603
-36.044
-38.32
-39.949
-40.628
-40.227
-38.855
-36.611
-33.542
-29.767
-25.427
-20.635
-15.509
-10.146
-4.604
1.029
6.649
12.17
17.501
22.566
27.306
31.666
35.613
39.149
42.29
45.064
47.507
49.652
51.546
53.243
54.794
56.252
57.663
59.07
60.516
62.044
63.692
65.495
67.476
69.645
72.01
74.57
77.326
80.276
83.414
86.729
90.207
93.837
97.601
101.481
105.453
109.49
113.561
117.645
121.719
125.771
129.79
133.769
137.701
141.572
145.361
149.052
152.626
156.07
159.374
162.539
165.572
168.481
171.282
173.977
176.558
179.009
181.297
183.382
185.223
186.788
188.066
189.051
189.734
190.1
190.129
189.787
189.033
187.822
186.096
183.819
180.969
177.543
173.567
169.081
164.131
158.753
152.958
146.747
140.131
133.136
125.793
118.158
110.294
102.279
94.22
86.203
78.299
70.565
63.025
55.693
48.58
41.708
35.117
28.864
22.989
17.522
12.485
7.874
3.679
-0.133
-3.628
-6.861
-9.873
-12.698
-15.346
-17.817
-20.124
-22.278
-24.302
-26.234
-28.102
-29.93
-31.739
-33.537
-35.32
-37.075
-38.764
-40.35
-41.815
-43.141
-44.327
-45.378
-46.291
-47.068
-47.711
-48.217
-48.58
-48.802
-48.878
-48.811
-48.611
-48.293
-47.881
-47.4
-46.865
-46.292
-45.688
-45.06
-44.414
-43.754
-43.079
-42.391
-41.692
-40.986
-40.277
-39.568
-38.859
-38.151
-37.44
-36.726
-36.005
-35.278
-34.545
-33.805
-33.06
-32.312
-31.564
-30.82
-30.08
-29.347
-28.622
-27.904
-27.196
-26.498
-25.81
-25.133
-24.468
-23.815
-23.175
-22.549
-21.938
-21.343
-20.764
-20.201
-19.656
-19.129
-18.62
-18.129
-17.657
-17.204
-16.769
-16.353
-15.954
-15.573
-15.208
-14.859
-14.524
-14.202
-13.892
-13.591
-13.3
-13.015
-12.736
-12.461
-12.19
-11.92
-11.651
-11.383
-11.114
-10.844
-10.572
-10.297
-10.02
-9.741
-9.458
-9.173
-8.885
-8.597
-8.307
-8.018
-7.731
-7.447
-7.167
-6.894
-6.629
-6.375
-6.132
-5.905
-5.695
-5.505
-5.337
-5.192
-5.074
-4.984
-4.924
-4.895
-4.898
-4.934
-5.003
-5.107
-5.246
-5.418
-5.624
-5.863
-6.132
-6.432
-6.759
-7.11
-7.484
-7.877
-8.284
-8.703
-9.13
-9.559
-9.987
-10.407
-10.816
-11.207
-11.575
-11.915
-12.222
-12.49
-12.714
-12.891
-13.015
-13.085
-13.098
-13.051
-12.945
-12.776
-12.546
-12.254
-11.902
-11.489
-11.017
-10.486
-9.9
-9.261
-8.574
-7.843
-7.074
-6.272
-5.443
-4.594
-3.731
-2.863
-1.993
-1.126
-0.27
0.567
1.374
2.142
2.862
3.532
4.146
4.702
5.2
5.643
6.044
6.417
6.774
7.125
7.474
7.827
8.196
8.595
9.039
9.548
10.125
10.775
11.507
12.324
13.22
14.181
15.164
16.117
16.996
17.755
18.358
18.768
18.926
18.77
18.225
17.232
15.761
13.788
11.29
8.236
4.58
0.327
-4.436
-9.587
-14.968
-20.478
-26.142
-31.813
-37.143
-41.801
-45.373
-47.667
-48.882
-48.892
-47.19
-43.681
-38.504
-32.105
-25.575
-19.3
-12.829
-6.012
1.262
9.264
18.221
28.181
38.771
48.91
57.259
64.945
76.483
96.703
129.028
172.541
220.3
263.486
292.952
300.55
281.618
234.802
163.406
75.246
-21.299
-120.313
-220.453
-322.504
-422.609
-519.271
-612.097
-679.076
-698.787
-687.761
-666.2
-629.088
-574.346
-509.554
-439.45
-369.52
-305.381
-250.204
-205.907
-171.219
-142.783
-118.587
-97.805
-80.805
-69.06
-62.437
-58.759
-55.475
-50.589
-43.291
-33.884
-23.169
-11.739
-0.272
10.057
18.343
24.149
27.324
28.202
27.304
25.022
21.9
18.663
15.824
13.719
12.549
12.296
12.921
14.407
16.663
19.555
22.975
26.824
31.016
35.495
40.182
44.968
49.751
54.436
58.941
63.199
67.151
70.742
73.942
76.753
79.19
81.285
83.071
84.588
85.881
87.005
88.015
88.963
89.899
90.868
91.913
93.074
94.386
95.882
97.587
99.513
101.674
104.072
106.703
109.56
112.631
115.893
119.329
122.917
126.628
130.436
134.315
138.238
142.189
146.152
150.107
154.035
157.915
161.733
165.487
169.182
172.816
176.395
179.922
183.408
186.879
190.353
193.835
197.326
200.807
204.254
207.65
210.977
214.208
217.31
220.23
222.901
225.269
227.274
228.85
229.927
230.411
230.225
229.323
227.669
225.251
222.069
218.118
213.397
207.925
201.728
194.852
187.369
179.341
170.842
161.966
152.816
143.524
134.205
124.941
115.801
106.84
98.106
89.648
81.52
73.754
66.384
59.44
52.927
46.854
41.214
35.976
31.097
26.51
22.158
18.01
14.042
10.243
6.599
3.098
-0.277
-3.532
-6.682
-9.751
-12.75
-15.693
-18.582
-21.402
-24.127
-26.721
-29.154
-31.407
-33.471
-35.344
-37.025
-38.518
-39.829
-40.966
-41.935
-42.733
-43.358
-43.81
-44.095
-44.227
-44.227
-44.118
-43.923
-43.663
-43.356
-43.013
-42.646
-42.261
-41.864
-41.455
-41.04
-40.624
-40.214
-39.817
-39.439
-39.081
-38.744
-38.428
-38.132
-37.854
-37.591
-37.342
-37.105
-36.881
-36.67
-36.472
-36.289
-36.12
-35.965
-35.822
-35.691
-35.569
-35.454
-35.346
-35.241
-35.139
-35.038
-34.937
-34.836
-34.733
-34.627
-34.518
-34.406
-34.289
-34.168
-34.041
-33.909
-33.772
-33.63
-33.482
-33.331
-33.175
-33.017
-32.857
-32.696
-32.534
-32.373
-32.213
-32.056
-31.901
-31.75
-31.603
-31.46
-31.323
-31.193
-31.069
-30.952
-30.844
-30.744
-30.652
-30.569
-30.494
-30.427
-30.368
-30.315
-30.27
-30.23
-30.197
-30.168
-30.145
-30.126
-30.111
-30.1
-30.092
-30.086
-30.082
-30.079
-30.076
-30.073
-30.069
-30.063
-30.057
-30.049
-30.04
-30.029
-30.018
-30.007
-29.995
-29.984
-29.973
-29.964
-29.957
-29.954
-29.954
-29.961
-29.973
-29.993
-30.022
-30.06
-30.107
-30.164
-30.231
-30.307
-30.391
-30.483
-30.582
-30.687
-30.797
-30.912
-31.032
-31.157
-31.285
-31.416
-31.549
-31.682
-31.812
-31.933
-32.04
-32.13
-32.198
-32.239
-32.251
-32.228
-32.168
-32.068
-31.927
-31.741
-31.504
-31.209
-30.85
-30.426
-29.94
-29.398
-28.81
-28.184
-27.528
-26.856
-26.177
-25.492
-24.803
-24.096
-23.36
-22.589
-21.785
-20.956
-20.114
-19.254
-18.373
-17.462
-16.503
-15.483
-14.388
-13.19
-11.873
-10.439
-8.896
-7.278
-5.631
-3.978
-2.334
-0.701
0.933
2.558
4.159
5.726
7.235
8.669
10.014
11.227
12.28
13.166
13.884
14.471
14.98
15.436
15.842
16.182
16.413
16.513
16.47
16.255
15.846
15.199
14.256
12.999
11.41
9.482
7.223
4.587
1.495
-2.105
-6.239
-10.859
-15.815
-21.031
-26.503
-32.125
-37.728
-42.923
-47.096
-49.897
-51.269
-51.209
-49.706
-46.676
-42.016
-36.236
-30.56
-25.873
-22.587
-20.344
-18.035
-15.167
-11.51
-6.845
-1.387
5.154
13.351
23.975
39.809
64.009
98.199
142.362
191.786
239.317
278.345
301.254
302.24
277.414
224.44
146.75
51.89
-52.226
-158.715
-266.01
-374.09
-476.7
-573.751
-667.275
-731.229
-740.75
-715.817
-680.034
-629.564
-563.131
-489.761
-415.413
-342.767
-275.318
-217.746
-172.845
-140.563
-118.255
-101.619
-87.958
-76.593
-68.18
-63.271
-60.138
-56.805
-52.024
-44.915
-35.903
-25.735
-14.77
-3.949
5.331
12.279
16.553
18.177
17.737
15.762
12.605
8.85
5.225
2.237
0.231
-0.646
-0.499
0.583
2.548
5.281
8.651
12.541
16.822
21.395
26.185
31.097
36.026
40.862
45.497
49.835
53.798
57.338
60.437
63.099
65.349
67.217
68.738
69.958
70.933
71.717
72.365
72.932
73.464
74.014
74.637
75.382
76.295
77.406
78.731
80.283
82.063
84.073
86.31
88.768
91.441
94.319
97.393
100.65
104.077
107.652
111.349
115.138
118.989
122.875
126.777
130.679
134.57
138.443
142.29
146.097
149.847
153.518
157.094
160.558
163.897
167.108
170.195
173.169
176.042
178.818
181.49
184.037
186.425
188.617
190.563
192.223
193.573
194.587
195.252
195.55
195.46
194.95
193.987
192.526
190.524
187.955
184.803
181.08
176.81
172.033
166.815
161.212
155.268
149.024
142.509
135.747
128.787
121.681
114.479
107.249
100.051
92.937
85.959
79.147
72.52
66.086
59.828
53.731
47.8
42.039
36.467
31.11
25.959
21.01
16.265
11.714
7.35
3.172
-0.834
-4.674
-8.343
-11.832
-15.122
-18.193
-21.045
-23.677
-26.097
-28.321
-30.34
-32.151
-33.76
-35.169
-36.383
-37.411
-38.252
-38.904
-39.381
-39.694
-39.857
-39.888
-39.793
-39.579
-39.254
-38.822
-38.297
-37.693
-37.017
-36.28
-35.489
-34.653
-33.783
-32.89
-31.979
-31.056
-30.126
-29.193
-28.263
-27.344
-26.439
-25.553
-24.689
-23.848
-23.033
-22.246
-21.488
-20.76
-20.062
-19.393
-18.756
-18.151
-17.577
-17.036
-16.527
-16.049
-15.603
-15.187
-14.801
-14.444
-14.115
-13.813
-13.538
-13.289
-13.064
-12.864
-12.687
-12.531
-12.397
-12.282
-12.186
-12.107
-12.046
-12.001
-11.971
-11.956
-11.956
-11.969
-11.996
-12.037
-12.09
-12.155
-12.233
-12.323
-12.424
-12.538
-12.663
-12.8
-12.948
-13.107
-13.277
-13.459
-13.652
-13.856
-14.07
-14.296
-14.533
-14.781
-15.041
-15.311
-15.594
-15.887
-16.193
-16.51
-16.839
-17.179
-17.532
-17.896
-18.271
-18.657
-19.055
-19.463
-19.881
-20.309
-20.747
-21.194
-21.65
-22.114
-22.585
-23.064
-23.55
-24.042
-24.54
-25.044
-25.552
-26.065
-26.581
-27.101
-27.623
-28.146
-28.67
-29.192
-29.711
-30.227
-30.736
-31.239
-31.731
-32.213
-32.682
-33.136
-33.574
-33.993
-34.392
-34.768
-35.119
-35.443
-35.738
-36.001
-36.23
-36.422
-36.576
-36.689
-36.758
-36.78
-36.753
-36.674
-36.54
-36.348
-36.096
-35.781
-35.402
-34.958
-34.447
-33.869
-33.225
-32.516
-31.743
-30.909
-30.014
-29.063
-28.057
-27
-25.896
-24.747
-23.556
-22.328
-21.069
-19.785
-18.485
-17.174
-15.859
-14.548
-13.248
-11.968
-10.714
-9.492
-8.307
-7.166
-6.079
-5.059
-4.117
-3.256
-2.48
-1.787
-1.174
-0.637
-0.168
0.248
0.626
0.978
1.312
1.628
1.925
2.212
2.502
2.815
3.173
3.58
4.038
4.548
5.098
5.682
6.279
6.851
7.364
7.787
8.093
8.276
8.324
8.212
7.907
7.353
6.48
5.248
3.619
1.583
-0.832
-3.63
-6.813
-10.36
-14.265
-18.463
-22.832
-27.321
-31.937
-36.59
-41.121
-45.147
-48.06
-49.513
-49.446
-47.861
-44.773
-40.145
-33.933
-26.695
-19.685
-13.776
-9.338
-6.05
-2.832
0.886
5.359
10.947
17.612
25.41
34.708
46.068
61.949
85.782
119.558
163.538
213.447
262.167
303.104
328.685
332.94
311.637
261.553
185.205
89.676
-17.029
-127.097
-238.144
-350.292
-457.802
-561.091
-662.202
-733.945
-749.949
-730.704
-701.15
-656.86
-596.142
-526.532
-451.522
-374.325
-299.42
-232.866
-179.982
-141.735
-115.819
-98.012
-84.947
-74.914
-67.889
-64.328
-62.443
-60.301
-56.68
-50.288
-41.237
-30.475
-18.547
-6.594
3.696
11.516
16.542
18.691
18.516
16.578
13.243
9.154
5.132
1.69
-0.826
-2.222
-2.593
-2
-0.458
1.914
4.987
8.647
12.77
17.257
22.043
27.031
32.112
37.186
42.141
46.885
51.342
55.439
59.138
62.429
65.317
67.826
69.986
71.834
73.419
74.797
76.024
77.152
78.232
79.305
80.422
81.627
82.96
84.459
86.149
88.041
90.146
92.465
94.996
97.734
100.669
103.786
107.07
110.51
114.093
117.808
121.639
125.57
129.583
133.66
137.783
141.934
146.094
150.244
154.363
158.432
162.431
166.342
170.143
173.812
177.328
180.67
183.815
186.742
189.433
191.866
194.024
195.891
197.45
198.689
199.594
200.155
200.363
200.209
199.688
198.796
197.529
195.886
193.869
191.481
188.724
185.607
182.137
178.323
174.176
169.71
164.939
159.879
154.547
148.961
143.141
137.108
130.882
124.486
117.943
111.277
104.51
97.668
90.774
83.851
76.924
70.016
63.149
56.346
49.628
43.017
36.532
30.192
24.015
18.019
12.22
6.631
1.267
-3.86
-8.741
-13.365
-17.725
-21.816
-25.631
-29.168
-32.425
-35.402
-38.099
-40.519
-42.665
-44.544
-46.16
-47.521
-48.636
-49.513
-50.163
-50.596
-50.824
-50.86
-50.715
-50.402
-49.935
-49.327
-48.591
-47.741
-46.791
-45.754
-44.644
-43.472
-42.252
-40.996
-39.716
-38.423
-37.127
-35.839
-34.568
-33.323
-32.111
-30.941
-29.819
-28.75
-27.74
-26.792
-25.912
-25.101
-24.362
-23.697
-23.106
-22.589
-22.148
-21.781
-21.487
-21.264
-21.11
-21.023
-21.001
-21.04
-21.137
-21.288
-21.491
-21.74
-22.033
-22.365
-22.732
-23.13
-23.556
-24.004
-24.47
-24.952
-25.446
-25.946
-26.451
-26.957
-27.46
-27.957
-28.447
-28.926
-29.392
-29.843
-30.277
-30.692
-31.087
-31.461
-31.812
-32.139
-32.443
-32.722
-32.976
-33.204
-33.408
-33.586
-33.74
-33.869
-33.975
-34.059
-34.12
-34.161
-34.182
-34.185
-34.171
-34.142
-34.1
-34.046
-33.982
-33.911
-33.833
-33.752
-33.668
-33.584
-33.502
-33.423
-33.35
-33.283
-33.226
-33.18
-33.146
-33.126
-33.121
-33.134
-33.165
-33.216
-33.289
-33.383
-33.501
-33.644
-33.811
-34.004
-34.223
-34.468
-34.739
-35.035
-35.356
-35.7
-36.066
-36.453
-36.857
-37.277
-37.711
-38.156
-38.608
-39.066
-39.525
-39.982
-40.434
-40.876
-41.306
-41.719
-42.111
-42.477
-42.813
-43.115
-43.379
-43.6
-43.774
-43.896
-43.961
-43.965
-43.904
-43.774
-43.57
-43.291
-42.932
-42.492
-41.969
-41.362
-40.672
-39.899
-39.046
-38.115
-37.107
-36.026
-34.876
-33.661
-32.385
-31.051
-29.663
-28.229
-26.755
-25.249
-23.719
-22.172
-20.617
-19.061
-17.515
-15.987
-14.484
-13.013
-11.579
-10.192
-8.862
-7.603
-6.426
-5.334
-4.327
-3.405
-2.566
-1.807
-1.119
-0.483
0.115
0.689
1.244
1.779
2.298
2.814
3.345
3.917
4.545
5.231
5.975
6.772
7.618
8.503
9.403
10.272
11.065
11.744
12.287
12.682
12.907
12.924
12.671
12.069
11.064
9.618
7.725
5.396
2.626
-0.603
-4.288
-8.396
-12.839
-17.476
-22.236
-27.121
-32.044
-36.837
-41.115
-44.273
-45.961
-46.114
-44.733
-41.81
-37.281
-31.079
-23.731
-16.479
-10.213
-5.346
-1.584
2.133
6.325
11.223
17.111
23.758
31.132
39.563
49.622
64.062
86.634
119.516
163.141
213.15
262.058
302.914
327.741
330.174
306.048
252.624
173.031
74.911
-33.669
-145.533
-258.832
-373.415
-482.818
-586.15
-684.275
-751.059
-762.14
-737.127
-699.553
-646.653
-577.8
-501.775
-424.269
-347.733
-275.763
-213.76
-165.298
-130.959
-108.259
-92.346
-79.919
-69.823
-62.467
-58.501
-56.195
-53.487
-49.058
-41.904
-32.449
-21.534
-9.607
2.269
12.56
20.398
25.391
27.537
27.436
25.644
22.533
18.712
14.936
11.72
9.41
8.178
7.93
8.582
10.095
12.35
15.218
18.59
22.351
26.407
30.697
35.128
39.594
44.006
48.261
52.275
55.981
59.313
62.238
64.753
66.873
68.629
70.058
71.198
72.104
72.836
73.453
74.014
74.573
75.178
75.88
76.725
77.754
79.007
80.512
82.289
84.35
86.696
89.324
92.225
95.386
98.786
102.4
106.196
110.145
114.22
118.397
122.662
126.998
131.385
135.807
140.24
144.675
149.113
153.548
157.973
162.384
166.772
171.147
175.535
179.95
184.398
188.871
193.336
197.766
202.134
206.401
210.525
214.447
218.087
221.381
224.285
226.746
228.723
230.153
230.954
231.062
230.434
229.047
226.901
224.001
220.35
215.98
210.94
205.298
199.15
192.571
185.618
178.351
170.829
163.124
155.329
147.517
139.744
132.056
124.49
117.079
109.861
102.851
96.043
89.423
82.958
76.633
70.449
64.406
58.503
52.736
47.092
41.57
36.18
30.93
25.828
20.88
16.088
11.463
7.027
2.803
-1.184
-4.917
-8.389
-11.594
-14.526
-17.187
-19.575
-21.697
-23.565
-25.189
-26.578
-27.742
-28.689
-29.43
-29.981
-30.357
-30.574
-30.645
-30.584
-30.405
-30.121
-29.745
-29.288
-28.76
-28.171
-27.53
-26.848
-26.135
-25.401
-24.657
-23.911
-23.173
-22.45
-21.751
-21.083
-20.451
-19.86
-19.315
-18.819
-18.376
-17.988
-17.656
-17.381
-17.165
-17.006
-16.905
-16.861
-16.871
-16.935
-17.049
-17.212
-17.421
-17.673
-17.964
-18.292
-18.654
-19.046
-19.464
-19.905
-20.365
-20.841
-21.328
-21.822
-22.32
-22.818
-23.313
-23.8
-24.277
-24.741
-25.19
-25.62
-26.03
-26.417
-26.781
-27.119
-27.431
-27.716
-27.973
-28.201
-28.402
-28.575
-28.72
-28.837
-28.928
-28.993
-29.033
-29.048
-29.041
-29.012
-28.962
-28.894
-28.808
-28.707
-28.592
-28.464
-28.326
-28.179
-28.024
-27.863
-27.698
-27.53
-27.36
-27.19
-27.021
-26.854
-26.69
-26.529
-26.372
-26.219
-26.071
-25.926
-25.786
-25.651
-25.519
-25.392
-25.269
-25.15
-25.035
-24.923
-24.815
-24.709
-24.605
-24.502
-24.4
-24.297
-24.194
-24.09
-23.984
-23.876
-23.767
-23.657
-23.545
-23.432
-23.318
-23.203
-23.089
-22.975
-22.862
-22.751
-22.643
-22.54
-22.443
-22.352
-22.268
-22.192
-22.125
-22.067
-22.016
-21.972
-21.934
-21.902
-21.875
-21.852
-21.834
-21.82
-21.812
-21.81
-21.814
-21.825
-21.839
-21.854
-21.866
-21.871
-21.866
-21.845
-21.801
-21.732
-21.633
-21.505
-21.343
-21.145
-20.905
-20.615
-20.271
-19.872
-19.419
-18.911
-18.354
-17.755
-17.128
-16.495
-15.873
-15.268
-14.684
-14.117
-13.563
-13.021
-12.488
-11.959
-11.427
-10.883
-10.324
-9.747
-9.143
-8.492
-7.764
-6.915
-5.92
-4.767
-3.456
-1.995
-0.399
1.316
3.125
4.989
6.879
8.763
10.622
12.44
14.188
15.826
17.305
18.565
19.567
20.295
20.735
20.883
20.741
20.313
19.624
18.708
17.591
16.292
14.816
13.161
11.34
9.378
7.295
5.114
2.821
0.378
-2.24
-5.059
-8.073
-11.255
-14.624
-18.214
-22.06
-26.186
-30.538
-34.996
-39.515
-44.119
-48.729
-53.192
-57.126
-59.92
-61.24
-61.046
-59.345
-56.129
-51.387
-45.125
-37.863
-30.85
-24.985
-20.543
-17.466
-14.981
-12.199
-8.752
-3.578
4.147
13.7
24.861
37.195
51.872
73.304
104.335
145.911
194.847
243.248
283.674
308.233
310.279
285.944
232.934
154.427
58.034
-48.422
-158.171
-269.77
-383.165
-491.459
-593.685
-690.87
-755.906
-763.719
-735.201
-695.079
-640.189
-569.504
-492.237
-414.592
-339.422
-270.401
-212.193
-167.272
-135.189
-112.993
-96.352
-82.744
-71.681
-63.915
-59.866
-57.579
-54.923
-50.57
-43.678
-34.738
-24.531
-13.446
-2.457
7.007
14.125
18.554
20.336
20.054
18.242
15.251
11.652
8.173
5.308
3.376
2.526
2.658
3.68
5.551
8.153
11.347
15.017
19.04
23.315
27.782
32.351
36.917
41.393
45.682
49.702
53.396
56.708
59.608
62.095
64.186
65.913
67.314
68.432
69.317
70.03
70.629
71.168
71.701
72.272
72.933
73.725
74.691
75.867
77.28
78.95
80.888
83.097
85.572
88.308
91.289
94.494
97.899
101.479
105.208
109.063
113.022
117.065
121.173
125.327
129.509
133.699
137.88
142.045
146.192
150.321
154.435
158.541
162.649
166.778
170.942
175.149
179.397
183.675
187.962
192.228
196.443
200.574
204.581
208.408
211.999
215.289
218.216
220.73
222.765
224.248
225.11
225.286
224.726
223.397
221.283
218.385
214.717
210.297
205.164
199.368
192.967
186.028
178.607
170.748
162.513
153.977
145.224
136.348
127.436
118.573
109.827
101.252
92.89
84.778
76.936
69.377
62.112
55.146
48.501
42.216
36.315
30.811
25.696
20.946
16.527
12.402
8.536
4.903
1.485
-1.73
-4.747
-7.566
-10.19
-12.621
-14.876
-16.991
-18.992
-20.905
-22.738
-24.486
-26.136
-27.666
-29.056
-30.291
-31.361
-32.266
-33.008
-33.598
-34.045
-34.363
-34.556
-34.621
-34.558
-34.364
-34.047
-33.62
-33.1
-32.51
-31.875
-31.214
-30.546
-29.885
-29.242
-28.624
-28.033
-27.472
-26.943
-26.449
-25.995
-25.586
-25.223
-24.907
-24.637
-24.41
-24.223
-24.071
-23.949
-23.854
-23.783
-23.734
-23.704
-23.693
-23.699
-23.722
-23.758
-23.805
-23.86
-23.92
-23.983
-24.044
-24.101
-24.151
-24.192
-24.222
-24.24
-24.243
-24.23
-24.201
-24.155
-24.091
-24.01
-23.91
-23.794
-23.661
-23.513
-23.35
-23.174
-22.987
-22.79
-22.585
-22.375
-22.16
-21.943
-21.725
-21.508
-21.294
-21.085
-20.882
-20.688
-20.503
-20.329
-20.169
-20.023
-19.894
-19.782
-19.689
-19.615
-19.562
-19.53
-19.52
-19.531
-19.566
-19.623
-19.702
-19.804
-19.929
-20.075
-20.242
-20.429
-20.636
-20.862
-21.105
-21.365
-21.641
-21.932
-22.236
-22.552
-22.879
-23.216
-23.562
-23.916
-24.276
-24.641
-25.011
-25.383
-25.757
-26.131
-26.503
-26.873
-27.238
-27.596
-27.946
-28.286
-28.612
-28.923
-29.218
-29.492
-29.745
-29.974
-30.177
-30.35
-30.492
-30.6
-30.671
-30.704
-30.694
-30.64
-30.54
-30.39
-30.188
-29.932
-29.619
-29.247
-28.814
-28.316
-27.753
-27.121
-26.421
-25.65
-24.808
-23.896
-22.914
-21.864
-20.748
-19.57
-18.332
-17.04
-15.697
-14.308
-12.878
-11.414
-9.919
-8.4
-6.863
-5.317
-3.768
-2.227
-0.7
0.803
2.274
3.704
5.084
6.407
7.666
8.855
9.967
10.991
11.919
12.738
13.444
14.035
14.512
14.875
15.128
15.279
15.339
15.326
15.253
15.127
14.955
14.74
14.493
14.234
13.981
13.753
13.56
13.403
13.286
13.211
13.169
13.15
13.128
13.056
12.899
12.635
12.24
11.701
10.983
10.021
8.761
7.152
5.167
2.816
0.093
-3.039
-6.591
-10.589
-15.019
-19.742
-24.68
-29.826
-35.056
-40.232
-45.103
-49.136
-51.898
-53.27
-53.117
-51.394
-48.344
-44.009
-38.66
-33.297
-28.796
-25.638
-24.26
-24.185
-23.992
-23.057
-20.531
-15.329
-8.148
0.617
11.213
23.613
40.429
65.695
101.601
148.298
201.465
252.853
293.171
313.19
306.199
268.711
202.514
115.18
16.281
-85.743
-187.629
-291.108
-397.59
-502.978
-597.112
-668.397
-708.033
-715.144
-695.43
-655.272
-601.581
-539.116
-470.853
-401.058
-333.912
-273.716
-223.603
-184.501
-154.801
-130.74
-109.985
-91.99
-77.382
-67.767
-62.622
-59.238
-55.461
-49.872
-42.095
-32.897
-22.893
-12.396
-2.205
6.461
12.841
16.627
17.89
17.169
14.945
11.543
7.498
3.5
0.035
-2.579
-4.185
-4.857
-4.66
-3.618
-1.825
0.591
3.522
6.852
10.482
14.353
18.379
22.455
26.496
30.404
34.095
37.507
40.578
43.274
45.592
47.546
49.164
50.48
51.534
52.377
53.067
53.661
54.213
54.773
55.387
56.103
56.967
58.022
59.303
60.833
62.626
64.69
67.031
69.651
72.547
75.706
79.11
82.743
86.584
90.613
94.801
99.113
103.515
107.983
112.496
117.041
121.605
126.168
130.715
135.23
139.699
144.11
148.45
152.696
156.839
160.874
164.813
168.682
172.492
176.232
179.885
183.415
186.788
189.971
192.92
195.582
197.916
199.886
201.473
202.672
203.46
203.801
203.641
202.905
201.539
199.513
196.813
193.447
189.434
184.801
179.599
173.899
167.753
161.197
154.251
146.915
139.213
131.193
122.926
114.506
106.023
97.562
89.197
80.985
72.967
65.174
57.615
50.279
43.175
36.333
29.796
23.629
17.876
12.559
7.682
3.225
-0.846
-4.576
-8.009
-11.179
-14.11
-16.812
-19.287
-21.527
-23.534
-25.324
-26.924
-28.38
-29.73
-31.001
-32.211
-33.364
-34.45
-35.444
-36.325
-37.075
-37.685
-38.157
-38.496
-38.714
-38.824
-38.837
-38.759
-38.586
-38.317
-37.951
-37.492
-36.951
-36.344
-35.696
-35.028
-34.363
-33.717
-33.102
-32.528
-32.001
-31.521
-31.09
-30.705
-30.37
-30.086
-29.856
-29.68
-29.557
-29.485
-29.457
-29.47
-29.517
-29.593
-29.692
-29.811
-29.945
-30.091
-30.249
-30.416
-30.59
-30.768
-30.947
-31.125
-31.298
-31.463
-31.618
-31.761
-31.888
-31.998
-32.091
-32.165
-32.219
-32.253
-32.267
-32.261
-32.237
-32.194
-32.134
-32.058
-31.968
-31.865
-31.751
-31.628
-31.498
-31.363
-31.225
-31.086
-30.947
-30.811
-30.68
-30.554
-30.435
-30.324
-30.222
-30.13
-30.049
-29.98
-29.924
-29.881
-29.851
-29.835
-29.833
-29.844
-29.869
-29.905
-29.954
-30.013
-30.083
-30.162
-30.25
-30.344
-30.446
-30.552
-30.663
-30.777
-30.892
-31.009
-31.126
-31.241
-31.355
-31.466
-31.573
-31.676
-31.773
-31.865
-31.95
-32.027
-32.095
-32.154
-32.201
-32.237
-32.259
-32.268
-32.262
-32.24
-32.201
-32.145
-32.069
-31.973
-31.855
-31.714
-31.547
-31.354
-31.133
-30.882
-30.599
-30.282
-29.928
-29.537
-29.105
-28.631
-28.113
-27.549
-26.936
-26.273
-25.56
-24.795
-23.977
-23.109
-22.19
-21.221
-20.206
-19.146
-18.043
-16.901
-15.723
-14.51
-13.266
-11.994
-10.698
-9.382
-8.053
-6.715
-5.374
-4.036
-2.708
-1.397
-0.107
1.155
2.385
3.578
4.73
5.831
6.874
7.85
8.755
9.589
10.35
11.038
11.657
12.213
12.72
13.195
13.651
14.094
14.532
14.969
15.418
15.9
16.431
17.026
17.691
18.424
19.227
20.103
21.045
22.033
23.028
23.973
24.827
25.562
26.14
26.53
26.667
26.465
25.858
24.792
23.245
21.229
18.719
15.675
12.068
7.891
3.218
-1.789
-7.043
-12.533
-18.165
-23.773
-28.964
-33.111
-35.844
-37.088
-36.838
-35.086
-31.752
-26.746
-20.591
-14.542
-9.524
-5.985
-3.553
-1.068
1.979
5.811
10.532
15.715
21.576
28.732
38.15
53.081
77.001
111.638
156.868
207.443
255.665
294.513
316.093
314.822
287.213
231.444
151.557
55.098
-50.584
-159.382
-270.543
-384.06
-492.441
-593.104
-685.078
-743.52
-747.969
-718.41
-678.209
-626.026
-559.947
-487.669
-414.45
-342.646
-277.035
-221.587
-178.121
-146.044
-121.575
-101.886
-85.855
-73.514
-66.349
-63.768
-62.904
-61.486
-57.858
-51.493
-43.172
-33.537
-22.978
-12.426
-3.253
3.666
7.949
9.643
9.318
7.485
4.487
0.91
-2.509
-5.251
-6.975
-7.553
-7.1
-5.713
-3.447
-0.417
3.238
7.393
11.916
16.704
21.691
26.788
31.894
36.907
41.718
46.235
50.384
54.122
57.431
60.314
62.794
64.902
66.675
68.161
69.414
70.491
71.443
72.323
73.174
74.046
74.991
76.054
77.277
78.689
80.305
82.137
84.189
86.46
88.945
91.637
94.524
97.594
100.84
104.246
107.799
111.484
115.283
119.177
123.146
127.168
131.221
135.291
139.36
143.413
147.437
151.409
155.305
159.104
162.78
166.317
169.7
172.908
175.918
178.718
181.29
183.628
185.726
187.558
189.097
190.325
191.216
191.766
191.97
191.817
191.303
190.419
189.156
187.517
185.507
183.119
180.353
177.202
173.66
169.752
165.51
160.955
156.117
151.014
145.662
140.089
134.323
128.389
122.313
116.116
109.818
103.454
97.056
90.659
84.302
77.995
71.747
65.578
59.5
53.531
47.692
41.992
36.44
31.054
25.849
20.839
16.041
11.457
7.09
2.944
-0.983
-4.681
-8.143
-11.368
-14.353
-17.098
-19.607
-21.88
-23.918
-25.73
-27.326
-28.714
-29.908
-30.915
-31.745
-32.408
-32.916
-33.28
-33.514
-33.631
-33.64
-33.557
-33.392
-33.159
-32.869
-32.533
-32.16
-31.76
-31.341
-30.913
-30.483
-30.058
-29.644
-29.247
-28.872
-28.524
-28.206
-27.922
-27.672
-27.459
-27.283
-27.144
-27.042
-26.976
-26.944
-26.945
-26.977
-27.036
-27.121
-27.229
-27.356
-27.5
-27.657
-27.824
-27.998
-28.177
-28.357
-28.536
-28.712
-28.883
-29.046
-29.201
-29.347
-29.481
-29.605
-29.716
-29.817
-29.905
-29.983
-30.051
-30.109
-30.16
-30.204
-30.244
-30.281
-30.317
-30.353
-30.393
-30.437
-30.489
-30.549
-30.619
-30.702
-30.8
-30.912
-31.043
-31.191
-31.359
-31.547
-31.756
-31.985
-32.236
-32.508
-32.799
-33.111
-33.442
-33.791
-34.157
-34.538
-34.934
-35.342
-35.761
-36.189
-36.623
-37.062
-37.504
-37.947
-38.39
-38.829
-39.265
-39.695
-40.118
-40.532
-40.937
-41.332
-41.715
-42.086
-42.444
-42.789
-43.12
-43.439
-43.745
-44.039
-44.322
-44.596
-44.861
-45.119
-45.372
-45.621
-45.866
-46.111
-46.356
-46.603
-46.854
-47.11
-47.372
-47.641
-47.92
-48.207
-48.503
-48.808
-49.122
-49.443
-49.771
-50.103
-50.438
-50.775
-51.112
-51.448
-51.78
-52.106
-52.424
-52.731
-53.024
-53.298
-53.548
-53.766
-53.948
-54.088
-54.181
-54.223
-54.209
-54.133
-53.994
-53.789
-53.518
-53.176
-52.757
-52.255
-51.666
-50.995
-50.251
-49.438
-48.562
-47.627
-46.64
-45.616
-44.563
-43.484
-42.372
-41.219
-40.021
-38.788
-37.533
-36.273
-35.011
-33.74
-32.454
-31.153
-29.843
-28.528
-27.195
-25.821
-24.396
-22.931
-21.456
-20.003
-18.579
-17.178
-15.784
-14.39
-13.004
-11.648
-10.331
-9.052
-7.803
-6.578
-5.402
-4.315
-3.337
-2.46
-1.654
-0.893
-0.189
0.427
0.925
1.278
1.482
1.542
1.437
1.137
0.6
-0.232
-1.378
-2.837
-4.608
-6.675
-9.072
-11.842
-14.991
-18.525
-22.398
-26.477
-30.706
-35.086
-39.49
-43.778
-47.617
-50.394
-51.793
-51.778
-50.313
-47.48
-43.364
-37.818
-31.243
-24.759
-19.044
-14.46
-11.106
-8.069
-4.381
-0.014
5.76
13.842
23.542
35.004
48.468
63.628
83.132
110.057
145.145
187.555
232.829
274.256
305.726
320.951
314.587
282.345
222.823
140.624
43.037
-61.778
-168.809
-277.658
-384.669
-491.081
-599.047
-681.73
-710.878
-703.787
-684.03
-646.932
-591.477
-526.704
-456.681
-384.278
-313.465
-248.783
-194.107
-151.485
-120.104
-96.181
-76.963
-61.231
-48.972
-41.682
-38.79
-37.458
-35.503
-31.366
-24.559
-15.903
-6.087
4.48
14.862
23.729
30.264
34.129
35.4
34.663
32.441
29.091
25.199
21.477
18.424
16.368
15.431
15.502
16.491
18.345
20.958
24.199
27.952
32.092
36.522
41.176
45.964
50.785
55.534
60.107
64.411
68.369
71.937
75.094
77.844
80.211
82.224
83.916
85.335
86.533
87.566
88.486
89.345
90.188
91.067
92.035
93.138
94.422
95.915
97.635
99.593
101.79
104.226
106.898
109.801
112.925
116.262
119.799
123.522
127.414
131.45
135.605
139.854
144.162
148.506
152.864
157.22
161.568
165.904
170.214
174.481
178.681
182.787
186.784
190.658
194.398
198.001
201.465
204.788
207.987
211.064
214.006
216.788
219.365
221.68
223.697
225.388
226.732
227.717
228.321
228.519
228.299
227.634
226.501
224.872
222.7
219.954
216.633
212.754
208.364
203.53
198.3
192.716
186.823
180.655
174.25
167.652
160.889
153.996
147.016
139.998
133.012
126.116
119.347
112.726
106.253
99.915
93.709
87.637
81.694
75.886
70.219
64.699
59.344
54.17
49.186
44.393
39.782
35.342
31.077
26.99
23.094
19.405
15.935
12.691
9.686
6.922
4.401
2.12
0.069
-1.766
-3.395
-4.826
-6.068
-7.127
-8.013
-8.737
-9.311
-9.749
-10.062
-10.265
-10.372
-10.397
-10.352
-10.248
-10.093
-9.896
-9.665
-9.407
-9.13
-8.841
-8.547
-8.253
-7.967
-7.693
-7.436
-7.2
-6.989
-6.804
-6.646
-6.518
-6.419
-6.349
-6.308
-6.294
-6.308
-6.346
-6.408
-6.491
-6.593
-6.712
-6.845
-6.99
-7.144
-7.304
-7.468
-7.635
-7.801
-7.965
-8.124
-8.279
-8.427
-8.568
-8.7
-8.822
-8.936
-9.039
-9.131
-9.214
-9.287
-9.351
-9.407
-9.456
-9.498
-9.535
-9.569
-9.601
-9.632
-9.664
-9.697
-9.735
-9.777
-9.826
-9.882
-9.948
-10.024
-10.112
-10.212
-10.325
-10.452
-10.593
-10.749
-10.92
-11.107
-11.308
-11.524
-11.755
-12
-12.26
-12.532
-12.817
-13.113
-13.42
-13.736
-14.06
-14.392
-14.729
-15.072
-15.419
-15.769
-16.121
-16.473
-16.826
-17.176
-17.525
-17.87
-18.212
-18.549
-18.881
-19.208
-19.53
-19.846
-20.157
-20.463
-20.764
-21.059
-21.35
-21.635
-21.916
-22.193
-22.467
-22.736
-23.004
-23.27
-23.536
-23.802
-24.069
-24.339
-24.612
-24.888
-25.169
-25.456
-25.749
-26.049
-26.356
-26.672
-26.996
-27.329
-27.67
-28.018
-28.374
-28.736
-29.102
-29.47
-29.837
-30.202
-30.563
-30.917
-31.263
-31.599
-31.924
-32.236
-32.534
-32.816
-33.079
-33.32
-33.535
-33.717
-33.863
-33.966
-34.023
-34.03
-33.981
-33.876
-33.712
-33.488
-33.201
-32.847
-32.42
-31.917
-31.338
-30.686
-29.965
-29.186
-28.362
-27.508
-26.64
-25.768
-24.9
-24.037
-23.176
-22.31
-21.435
-20.549
-19.658
-18.769
-17.885
-17.008
-16.132
-15.244
-14.324
-13.35
-12.297
-11.154
-9.916
-8.592
-7.202
-5.775
-4.349
-2.95
-1.589
-0.268
1.014
2.25
3.426
4.514
5.483
6.304
6.94
7.379
7.609
7.63
7.459
7.13
6.687
6.164
5.571
4.889
4.096
3.174
2.118
0.94
-0.364
-1.797
-3.378
-5.151
-7.145
-9.389
-11.901
-14.692
-17.808
-21.299
-25.192
-29.479
-34.089
-38.898
-43.842
-48.934
-54.09
-59.157
-63.763
-67.307
-69.439
-70.096
-69.273
-66.957
-63.065
-57.509
-50.816
-44.268
-38.798
-34.844
-32.019
-29.112
-25.58
-21.201
-15.908
-10.218
-3.972
3.443
13.089
28.411
53.041
88.816
135.631
188.036
238.09
278.549
301.321
300.848
273.818
218.521
139.038
42.982
-62.145
-170.076
-279.727
-391.149
-497.908
-598.311
-692.346
-755.499
-765.406
-740.471
-702.584
-649.476
-580.973
-505.641
-429.466
-355.459
-287.248
-229.53
-184.896
-152.975
-130.852
-114.101
-100.099
-88.313
-79.528
-74.312
-70.86
-67.118
-61.799
-54.041
-44.307
-33.366
-21.594
-9.943
0.164
7.912
12.942
15.267
15.465
14.062
11.4
8.046
4.723
1.925
-0.012
-0.918
-0.878
0.026
1.761
4.214
7.259
10.793
14.701
18.891
23.302
27.844
32.415
36.931
41.293
45.422
49.249
52.709
55.769
58.426
60.696
62.608
64.194
65.492
66.549
67.424
68.173
68.852
69.508
70.186
70.934
71.799
72.825
74.052
75.503
77.195
79.136
81.334
83.793
86.512
89.482
92.683
96.1
99.714
103.51
107.464
111.546
115.722
119.962
124.242
128.55
132.869
137.18
141.466
145.704
149.881
153.999
158.054
162.036
165.941
169.761
173.504
177.199
180.862
184.502
188.111
191.655
195.109
198.45
201.648
204.67
207.471
209.988
212.178
214.013
215.457
216.477
217.014
216.983
216.315
214.959
212.889
210.11
206.628
202.445
197.589
192.099
186.029
179.446
172.398
164.905
157.005
148.743
140.193
131.469
122.669
113.888
105.201
96.663
88.323
80.234
72.423
64.903
57.683
50.765
44.173
37.957
32.153
26.783
21.843
17.298
13.111
9.238
5.643
2.296
-0.827
-3.748
-6.477
-9.011
-11.353
-13.501
-15.476
-17.316
-19.051
-20.707
-22.294
-23.807
-25.232
-26.548
-27.735
-28.778
-29.667
-30.399
-30.977
-31.411
-31.713
-31.897
-31.967
-31.922
-31.759
-31.478
-31.086
-30.595
-30.022
-29.39
-28.719
-28.031
-27.343
-26.669
-26.016
-25.392
-24.799
-24.237
-23.707
-23.212
-22.756
-22.341
-21.97
-21.64
-21.351
-21.097
-20.875
-20.679
-20.504
-20.346
-20.199
-20.062
-19.93
-19.804
-19.68
-19.557
-19.432
-19.302
-19.164
-19.015
-18.852
-18.672
-18.473
-18.252
-18.009
-17.742
-17.45
-17.133
-16.791
-16.424
-16.033
-15.619
-15.183
-14.726
-14.252
-13.762
-13.258
-12.745
-12.223
-11.698
-11.172
-10.649
-10.132
-9.624
-9.13
-8.651
-8.193
-7.756
-7.345
-6.963
-6.611
-6.293
-6.01
-5.766
-5.562
-5.4
-5.281
-5.207
-5.178
-5.196
-5.259
-5.368
-5.522
-5.721
-5.964
-6.249
-6.575
-6.941
-7.345
-7.784
-8.257
-8.762
-9.295
-9.854
-10.437
-11.042
-11.664
-12.303
-12.956
-13.62
-14.293
-14.974
-15.661
-16.351
-17.044
-17.737
-18.43
-19.121
-19.809
-20.492
-21.171
-21.843
-22.51
-23.171
-23.826
-24.475
-25.12
-25.76
-26.397
-27.032
-27.664
-28.296
-28.928
-29.561
-30.195
-30.833
-31.475
-32.121
-32.772
-33.428
-34.088
-34.753
-35.42
-36.089
-36.757
-37.421
-38.08
-38.731
-39.371
-39.997
-40.609
-41.203
-41.778
-42.333
-42.863
-43.365
-43.835
-44.267
-44.655
-44.993
-45.273
-45.491
-45.64
-45.715
-45.714
-45.634
-45.47
-45.221
-44.881
-44.444
-43.907
-43.268
-42.528
-41.695
-40.776
-39.785
-38.738
-37.649
-36.532
-35.394
-34.239
-33.064
-31.865
-30.638
-29.384
-28.109
-26.822
-25.528
-24.23
-22.924
-21.598
-20.236
-18.82
-17.33
-15.755
-14.088
-12.34
-10.531
-8.69
-6.855
-5.05
-3.281
-1.555
0.123
1.743
3.286
4.723
6.029
7.172
8.121
8.856
9.357
9.623
9.67
9.522
9.218
8.782
8.204
7.48
6.601
5.556
4.351
2.996
1.484
-0.181
-2.004
-4.015
-6.225
-8.656
-11.324
-14.218
-17.37
-20.81
-24.538
-28.573
-32.881
-37.334
-41.878
-46.497
-51.076
-55.508
-59.485
-62.436
-64.059
-64.293
-63.103
-60.597
-56.815
-51.54
-45.165
-38.757
-32.983
-28.351
-24.745
-20.924
-16.146
-10.486
-4.022
2.859
9.633
16.767
25.586
37.75
56.273
84.332
122.42
168.545
217.767
262.698
296.189
311.293
302.232
265.176
199.975
112.459
10.781
-97.017
-206.362
-317.889
-428.078
-534.53
-643.48
-738.241
-778.36
-761.758
-725.018
-682.166
-624.765
-555.103
-481.994
-408.535
-337.112
-272.522
-218.293
-176.711
-147.025
-125.171
-108.425
-95.108
-84.908
-79.017
-76.354
-74.446
-71.502
-66.031
-57.811
-47.704
-36.337
-24.372
-12.97
-3.322
3.864
8.325
10.273
10.239
8.676
5.987
2.761
-0.325
-2.803
-4.402
-5.025
-4.755
-3.661
-1.782
0.782
3.892
7.431
11.286
15.361
19.601
23.919
28.213
32.398
36.384
40.095
43.475
46.469
49.048
51.213
52.981
54.38
55.45
56.234
56.781
57.155
57.413
57.61
57.797
58.021
58.332
58.777
59.397
60.229
61.299
62.623
64.214
66.084
68.234
70.661
73.353
76.293
79.465
82.852
86.432
90.177
94.059
98.046
102.119
106.263
110.465
114.705
118.967
123.226
127.47
131.699
135.906
140.085
144.228
148.328
152.392
156.446
160.505
164.576
168.645
172.678
176.645
180.522
184.274
187.868
191.257
194.374
197.175
199.629
201.699
203.349
204.518
205.116
205.076
204.345
202.895
200.732
197.859
194.279
190.017
185.11
179.611
173.585
167.078
160.109
152.715
144.939
136.857
128.579
120.205
111.825
103.515
95.326
87.308
79.512
71.965
64.681
57.67
50.931
44.492
38.404
32.7
27.405
22.515
17.997
13.814
9.926
6.296
2.899
-0.289
-3.287
-6.103
-8.733
-11.177
-13.434
-15.52
-17.474
-19.323
-21.091
-22.787
-24.403
-25.923
-27.327
-28.593
-29.705
-30.651
-31.427
-32.035
-32.485
-32.787
-32.954
-32.991
-32.894
-32.661
-32.292
-31.793
-31.177
-30.461
-29.668
-28.82
-27.938
-27.041
-26.142
-25.254
-24.382
-23.532
-22.704
-21.904
-21.136
-20.405
-19.716
-19.074
-18.48
-17.934
-17.435
-16.981
-16.568
-16.195
-15.858
-15.557
-15.288
-15.053
-14.851
-14.682
-14.545
-14.438
-14.359
-14.307
-14.278
-14.269
-14.279
-14.303
-14.339
-14.384
-14.436
-14.494
-14.554
-14.615
-14.675
-14.732
-14.784
-14.83
-14.869
-14.9
-14.921
-14.933
-14.935
-14.927
-14.907
-14.878
-14.838
-14.788
-14.729
-14.66
-14.582
-14.495
-14.401
-14.299
-14.191
-14.078
-13.96
-13.838
-13.715
-13.591
-13.467
-13.346
-13.227
-13.113
-13.004
-12.901
-12.806
-12.719
-12.641
-12.574
-12.518
-12.474
-12.442
-12.423
-12.418
-12.426
-12.449
-12.485
-12.537
-12.602
-12.683
-12.778
-12.888
-13.012
-13.152
-13.306
-13.474
-13.656
-13.852
-14.062
-14.284
-14.52
-14.767
-15.026
-15.296
-15.578
-15.87
-16.172
-16.484
-16.805
-17.135
-17.474
-17.821
-18.176
-18.539
-18.909
-19.287
-19.672
-20.064
-20.463
-20.868
-21.279
-21.695
-22.114
-22.537
-22.96
-23.384
-23.805
-24.223
-24.636
-25.041
-25.437
-25.821
-26.191
-26.543
-26.876
-27.186
-27.47
-27.725
-27.947
-28.133
-28.28
-28.384
-28.441
-28.449
-28.402
-28.298
-28.132
-27.901
-27.6
-27.226
-26.778
-26.251
-25.643
-24.955
-24.184
-23.331
-22.399
-21.388
-20.3
-19.139
-17.908
-16.61
-15.25
-13.833
-12.361
-10.841
-9.281
-7.687
-6.068
-4.434
-2.791
-1.149
0.482
2.092
3.671
5.212
6.709
8.152
9.531
10.832
12.04
13.145
14.145
15.035
15.813
16.478
17.035
17.492
17.869
18.179
18.431
18.63
18.777
18.88
18.958
19.032
19.124
19.244
19.394
19.574
19.791
20.039
20.307
20.562
20.752
20.831
20.766
20.533
20.107
19.457
18.522
17.228
15.521
13.355
10.726
7.649
4.103
0.068
-4.467
-9.493
-14.909
-20.552
-26.336
-32.238
-38.146
-43.889
-49.08
-53.106
-55.625
-56.587
-55.993
-53.839
-50.104
-44.74
-38.184
-31.626
-25.937
-21.38
-17.916
-14.786
-11.046
-6.33
0.274
9.659
20.96
33.354
46.254
60.262
79.547
108.536
149.273
199.736
253.041
300.027
331.239
339.185
318.813
268.525
192.767
99.455
-2.46
-105.357
-208.949
-314.542
-417.433
-519.744
-622.874
-697.351
-714.852
-694.837
-662.966
-615.745
-551.978
-481.444
-409.595
-339.056
-273.518
-217.135
-172.404
-139.313
-115.4
-97.18
-82.778
-71.294
-63.021
-58.302
-55.18
-51.741
-46.85
-39.483
-29.88
-18.946
-7.179
4.425
14.364
21.921
26.815
28.998
28.992
27.311
24.305
20.576
16.879
13.697
11.353
10.023
9.63
10.123
11.49
13.625
16.408
19.729
23.473
27.548
31.892
36.414
41.009
45.577
50.011
54.223
58.141
61.701
64.868
67.628
69.992
71.987
73.643
74.999
76.104
77.012
77.778
78.456
79.098
79.749
80.46
81.278
82.247
83.406
84.782
86.389
88.24
90.339
92.693
95.3
98.151
101.229
104.52
108.004
111.666
115.484
119.43
123.471
127.582
131.734
135.912
140.101
144.28
148.431
152.531
156.565
160.53
164.429
168.258
172.016
175.704
179.33
182.921
186.494
190.054
193.599
197.108
200.559
203.929
207.197
210.333
213.301
216.052
218.531
220.693
222.486
223.858
224.744
225.057
224.725
223.692
221.923
219.406
216.138
212.124
207.374
201.915
195.782
189.017
181.673
173.798
165.451
156.699
147.632
138.36
128.992
119.633
110.366
101.255
92.359
83.724
75.389
67.388
59.747
52.494
45.66
39.266
33.328
27.849
22.812
18.179
13.907
9.936
6.224
2.741
-0.541
-3.636
-6.554
-9.312
-11.92
-14.394
-16.764
-19.048
-21.264
-23.428
-25.537
-27.583
-29.546
-31.391
-33.092
-34.635
-36.009
-37.215
-38.257
-39.136
-39.856
-40.426
-40.843
-41.109
-41.225
-41.194
-41.023
-40.728
-40.325
-39.844
-39.309
-38.74
-38.152
-37.556
-36.962
-36.377
-35.808
-35.254
-34.722
-34.214
-33.736
-33.293
-32.888
-32.522
-32.194
-31.902
-31.643
-31.413
-31.21
-31.033
-30.88
-30.75
-30.643
-30.558
-30.497
-30.458
-30.441
-30.443
-30.462
-30.497
-30.545
-30.603
-30.67
-30.743
-30.821
-30.902
-30.985
-31.068
-31.15
-31.231
-31.308
-31.382
-31.451
-31.516
-31.575
-31.628
-31.677
-31.72
-31.759
-31.793
-31.823
-31.85
-31.873
-31.894
-31.912
-31.928
-31.943
-31.956
-31.968
-31.979
-31.989
-32
-32.011
-32.023
-32.036
-32.051
-32.068
-32.087
-32.109
-32.134
-32.161
-32.192
-32.226
-32.263
-32.303
-32.346
-32.393
-32.442
-32.495
-32.551
-32.61
-32.671
-32.736
-32.804
-32.876
-32.95
-33.029
-33.111
-33.198
-33.29
-33.386
-33.489
-33.598
-33.713
-33.837
-33.967
-34.106
-34.254
-34.409
-34.573
-34.745
-34.923
-35.109
-35.3
-35.496
-35.695
-35.897
-36.101
-36.304
-36.506
-36.703
-36.895
-37.079
-37.253
-37.414
-37.559
-37.686
-37.792
-37.874
-37.928
-37.952
-37.942
-37.895
-37.806
-37.674
-37.493
-37.262
-36.976
-36.634
-36.233
-35.772
-35.25
-34.666
-34.022
-33.319
-32.559
-31.743
-30.875
-29.958
-28.995
-27.99
-26.947
-25.87
-24.763
-23.634
-22.488
-21.334
-20.177
-19.026
-17.887
-16.77
-15.682
-14.629
-13.619
-12.655
-11.747
-10.904
-10.136
-9.452
-8.86
-8.36
-7.955
-7.646
-7.428
-7.295
-7.234
-7.227
-7.26
-7.325
-7.414
-7.521
-7.631
-7.721
-7.775
-7.774
-7.708
-7.576
-7.369
-7.083
-6.724
-6.309
-5.874
-5.472
-5.142
-4.913
-4.821
-4.895
-5.193
-5.793
-6.752
-8.123
-9.926
-12.15
-14.819
-17.972
-21.635
-25.82
-30.46
-35.397
-40.539
-45.865
-51.27
-56.592
-61.453
-65.246
-67.617
-68.493
-67.868
-65.744
-62.055
-56.701
-50.157
-43.597
-37.853
-33.327
-29.741
-26.024
-21.602
-16.229
-9.609
-1.955
6.587
16.276
27.663
43.35
67.064
101.13
146.064
197.638
248.513
291.582
318.749
323.99
303.244
253.884
179.55
87.672
-13.406
-115.803
-218.554
-322.866
-424.714
-525.426
-625.221
-698.209
-719.568
-704.828
-675.202
-628.099
-563.794
-492.347
-420.088
-351.092
-289.242
-236.802
-194.722
-161.669
-134.611
-112.08
-93.857
-80.032
-71.661
-67.94
-65.914
-63.379
-58.803
-51.473
-41.93
-30.968
-19.084
-7.241
3.088
11.103
16.455
19.069
19.429
18.013
15.148
11.439
7.651
4.284
1.668
-0.026
-0.855
-0.841
0.019
1.638
3.899
6.689
9.904
13.465
17.316
21.382
25.559
29.749
33.859
37.812
41.545
45.002
48.132
50.906
53.325
55.406
57.175
58.673
59.936
61.012
61.958
62.828
63.672
64.54
65.475
66.517
67.706
69.076
70.66
72.481
74.552
76.886
79.486
82.347
85.461
88.812
92.379
96.139
100.071
104.143
108.328
112.599
116.929
121.3
125.695
130.096
134.481
138.828
143.12
147.352
151.525
155.633
159.674
163.645
167.551
171.415
175.254
179.071
182.864
186.607
190.272
193.84
197.286
200.578
203.677
206.526
209.066
211.261
213.075
214.467
215.385
215.747
215.487
214.561
212.936
210.602
207.553
203.775
199.273
194.077
188.229
181.786
174.806
167.312
159.333
150.917
142.13
133.071
123.827
114.474
105.082
95.724
86.486
77.449
68.677
60.2
52.041
44.221
36.768
29.743
23.195
17.148
11.611
6.572
2.019
-2.056
-5.676
-8.883
-11.744
-14.313
-16.629
-18.706
-20.558
-22.203
-23.675
-25.024
-26.284
-27.481
-28.63
-29.744
-30.836
-31.917
-32.98
-34
-34.937
-35.763
-36.468
-37.05
-37.513
-37.855
-38.069
-38.147
-38.093
-37.914
-37.615
-37.203
-36.678
-36.051
-35.337
-34.563
-33.76
-32.951
-32.15
-31.369
-30.617
-29.902
-29.235
-28.617
-28.048
-27.527
-27.054
-26.631
-26.26
-25.941
-25.669
-25.439
-25.246
-25.085
-24.952
-24.843
-24.756
-24.686
-24.63
-24.589
-24.561
-24.546
-24.541
-24.543
-24.55
-24.56
-24.57
-24.578
-24.58
-24.575
-24.561
-24.536
-24.501
-24.453
-24.393
-24.32
-24.235
-24.137
-24.028
-23.907
-23.777
-23.637
-23.489
-23.334
-23.174
-23.011
-22.845
-22.679
-22.513
-22.348
-22.188
-22.031
-21.879
-21.734
-21.597
-21.468
-21.349
-21.241
-21.145
-21.061
-20.991
-20.935
-20.893
-20.866
-20.855
-20.858
-20.875
-20.908
-20.955
-21.015
-21.088
-21.173
-21.27
-21.378
-21.496
-21.624
-21.759
-21.902
-22.053
-22.21
-22.373
-22.542
-22.717
-22.897
-23.081
-23.271
-23.465
-23.663
-23.864
-24.07
-24.28
-24.493
-24.711
-24.933
-25.16
-25.393
-25.632
-25.877
-26.129
-26.389
-26.657
-26.934
-27.22
-27.516
-27.822
-28.138
-28.465
-28.803
-29.151
-29.508
-29.872
-30.244
-30.62
-31
-31.381
-31.759
-32.133
-32.501
-32.861
-33.209
-33.545
-33.864
-34.165
-34.444
-34.7
-34.927
-35.12
-35.273
-35.382
-35.442
-35.45
-35.4
-35.289
-35.112
-34.866
-34.552
-34.167
-33.709
-33.171
-32.547
-31.838
-31.047
-30.183
-29.255
-28.268
-27.228
-26.145
-25.031
-23.896
-22.74
-21.558
-20.342
-19.091
-17.811
-16.518
-15.227
-13.944
-12.665
-11.383
-10.095
-8.802
-7.503
-6.187
-4.839
-3.453
-2.043
-0.644
0.708
1.997
3.219
4.384
5.51
6.596
7.635
8.616
9.536
10.398
11.201
11.93
12.562
13.089
13.52
13.899
14.27
14.648
15.034
15.399
15.702
15.913
16.014
15.978
15.773
15.359
14.677
13.678
12.335
10.619
8.519
6
3.004
-0.521
-4.615
-9.25
-14.315
-19.671
-25.231
-30.966
-36.801
-42.489
-47.563
-51.533
-54.123
-55.34
-55.307
-53.824
-50.567
-45.526
-39.25
-32.714
-26.708
-21.353
-15.891
-9.617
-2.515
5.605
14.649
23.794
33.063
42.494
52.511
67.016
90.1
123.638
167.706
216.972
263.547
300.81
321.495
320.068
293.117
238.883
161.111
67.056
-36.146
-142.681
-252.276
-364.959
-473.042
-574.871
-670.268
-732.265
-738.004
-708.796
-669.891
-619.571
-555.438
-485.082
-413.383
-341.572
-273.879
-215.814
-170.335
-137.961
-115.8
-99.245
-85.767
-74.626
-66.445
-61.76
-58.713
-55.271
-50.222
-42.734
-33.258
-22.555
-11.01
0.42
10.3
17.811
22.603
24.692
24.653
23.009
20.101
16.497
12.918
9.858
7.651
6.468
6.222
6.837
8.283
10.448
13.211
16.47
20.111
24.042
28.203
32.502
36.84
41.127
45.267
49.177
52.788
56.035
58.883
61.33
63.39
65.093
66.473
67.568
68.428
69.111
69.674
70.171
70.653
71.162
71.747
72.453
73.32
74.389
75.685
77.222
79.011
81.054
83.351
85.899
88.688
91.703
94.933
98.363
101.982
105.778
109.735
113.836
118.062
122.392
126.807
131.287
135.811
140.356
144.901
149.422
153.898
158.306
162.623
166.824
170.887
174.785
178.495
181.994
185.261
188.273
191.01
193.454
195.589
197.399
198.871
199.993
200.755
201.15
201.171
200.814
200.076
198.958
197.461
195.588
193.345
190.739
187.78
184.478
180.845
176.897
172.649
168.119
163.324
158.284
153.02
147.554
141.908
136.105
130.168
124.121
117.988
111.792
105.558
99.308
93.065
86.852
80.689
74.597
68.596
62.705
56.941
51.32
45.858
40.567
35.462
30.553
25.849
21.358
17.089
13.045
9.23
5.647
2.297
-0.82
-3.707
-6.367
-8.803
-11.021
-13.027
-14.829
-16.436
-17.855
-19.097
-20.172
-21.091
-21.865
-22.506
-23.023
-23.431
-23.738
-23.958
-24.101
-24.178
-24.199
-24.174
-24.113
-24.024
-23.916
-23.796
-23.672
-23.548
-23.432
-23.327
-23.238
-23.168
-23.119
-23.094
-23.094
-23.119
-23.169
-23.244
-23.344
-23.465
-23.606
-23.766
-23.94
-24.127
-24.323
-24.524
-24.728
-24.931
-25.129
-25.32
-25.499
-25.664
-25.812
-25.94
-26.047
-26.129
-26.186
-26.215
-26.216
-26.188
-26.13
-26.043
-25.927
-25.782
-25.61
-25.411
-25.186
-24.939
-24.67
-24.382
-24.077
-23.758
-23.427
-23.086
-22.739
-22.389
-22.037
-21.687
-21.341
-21.002
-20.673
-20.354
-20.05
-19.76
-19.488
-19.234
-18.999
-18.785
-18.592
-18.421
-18.272
-18.144
-18.038
-17.952
-17.887
-17.841
-17.814
-17.804
-17.81
-17.83
-17.864
-17.909
-17.964
-18.028
-18.099
-18.175
-18.255
-18.337
-18.42
-18.503
-18.585
-18.664
-18.739
-18.811
-18.878
-18.94
-18.997
-19.05
-19.097
-19.14
-19.18
-19.216
-19.251
-19.284
-19.317
-19.352
-19.389
-19.429
-19.474
-19.526
-19.584
-19.649
-19.723
-19.805
-19.896
-19.995
-20.103
-20.219
-20.343
-20.473
-20.609
-20.75
-20.894
-21.038
-21.181
-21.321
-21.454
-21.578
-21.689
-21.784
-21.859
-21.911
-21.936
-21.929
-21.887
-21.804
-21.678
-21.503
-21.276
-20.992
-20.649
-20.243
-19.772
-19.234
-18.629
-17.956
-17.217
-16.412
-15.544
-14.614
-13.626
-12.583
-11.487
-10.344
-9.157
-7.932
-6.675
-5.394
-4.095
-2.787
-1.478
-0.176
1.111
2.375
3.607
4.8
5.949
7.042
8.071
9.026
9.897
10.677
11.365
11.957
12.454
12.86
13.181
13.427
13.617
13.758
13.861
13.935
13.986
14.033
14.093
14.178
14.307
14.487
14.717
15.007
15.356
15.752
16.181
16.608
16.984
17.277
17.454
17.476
17.306
16.876
16.121
14.996
13.461
11.517
9.159
6.34
3.03
-0.797
-5.151
-9.927
-15.033
-20.456
-26.059
-31.654
-36.984
-41.502
-44.736
-46.544
-46.766
-45.352
-42.57
-38.481
-33.329
-28.07
-23.582
-20.317
-18.69
-18.173
-17.218
-15.125
-11.204
-4.856
3.035
12.252
23.409
37.484
57.426
86.196
124.795
172.234
223.385
271.406
310.383
333.608
336.485
315.402
266.931
193.659
102.16
0.381
-103.729
-209.043
-317.036
-423.734
-531.165
-640.822
-722.935
-747.601
-733.966
-707.821
-664.092
-600.96
-527.813
-449.185
-368.952
-292.407
-225.781
-174.098
-137.828
-113.962
-97.468
-84.696
-74.186
-66.298
-61.938
-59.538
-57.054
-53.108
-46.383
-37.033
-26.101
-14.209
-2.466
7.497
14.922
19.523
21.23
20.603
18.217
14.441
9.923
5.478
1.612
-1.331
-3.159
-3.965
-3.806
-2.695
-0.746
1.912
5.165
8.883
12.967
17.352
21.938
26.619
31.29
35.838
40.172
44.217
47.903
51.196
54.087
56.581
58.706
60.495
61.989
63.239
64.305
65.243
66.109
66.956
67.828
68.779
69.853
71.093
72.537
74.208
76.12
78.284
80.701
83.367
86.278
89.422
92.784
96.348
100.101
104.028
108.114
112.346
116.702
121.165
125.714
130.328
134.988
139.674
144.362
149.03
153.654
158.21
162.675
167.028
171.242
175.294
179.159
182.812
186.232
189.398
192.29
194.883
197.157
199.091
200.671
201.89
202.742
203.218
203.314
203.026
202.355
201.309
199.888
198.086
195.899
193.322
190.361
187.032
183.35
179.333
174.992
170.329
165.354
160.088
154.544
148.731
142.658
136.323
129.751
122.987
116.076
109.063
101.981
94.849
87.692
80.539
73.42
66.373
59.428
52.602
45.925
39.436
33.177
27.195
21.511
16.105
10.97
6.094
1.476
-2.872
-6.951
-10.769
-14.331
-17.642
-20.704
-23.51
-26.069
-28.407
-30.548
-32.523
-34.342
-35.99
-37.46
-38.749
-39.858
-40.799
-41.577
-42.186
-42.634
-42.936
-43.107
-43.165
-43.121
-42.975
-42.728
-42.382
-41.946
-41.441
-40.884
-40.286
-39.661
-39.018
-38.37
-37.732
-37.112
-36.512
-35.935
-35.38
-34.852
-34.356
-33.898
-33.48
-33.102
-32.766
-32.47
-32.214
-31.999
-31.82
-31.677
-31.565
-31.482
-31.427
-31.399
-31.397
-31.418
-31.459
-31.519
-31.595
-31.686
-31.787
-31.897
-32.013
-32.133
-32.254
-32.377
-32.498
-32.617
-32.733
-32.845
-32.951
-33.053
-33.148
-33.238
-33.322
-33.399
-33.47
-33.535
-33.595
-33.649
-33.699
-33.743
-33.784
-33.821
-33.855
-33.886
-33.914
-33.941
-33.966
-33.989
-34.01
-34.03
-34.049
-34.067
-34.083
-34.097
-34.11
-34.12
-34.127
-34.131
-34.131
-34.126
-34.116
-34.099
-34.075
-34.044
-34.004
-33.956
-33.899
-33.833
-33.757
-33.671
-33.576
-33.47
-33.355
-33.231
-33.097
-32.955
-32.806
-32.649
-32.486
-32.318
-32.146
-31.972
-31.796
-31.62
-31.447
-31.276
-31.111
-30.953
-30.804
-30.667
-30.542
-30.433
-30.34
-30.265
-30.209
-30.174
-30.16
-30.168
-30.197
-30.248
-30.321
-30.414
-30.528
-30.661
-30.811
-30.977
-31.157
-31.349
-31.549
-31.756
-31.965
-32.174
-32.378
-32.575
-32.76
-32.928
-33.076
-33.198
-33.29
-33.346
-33.362
-33.332
-33.252
-33.118
-32.924
-32.668
-32.345
-31.955
-31.495
-30.964
-30.363
-29.692
-28.951
-28.143
-27.268
-26.329
-25.33
-24.271
-23.158
-21.994
-20.787
-19.543
-18.269
-16.973
-15.663
-14.345
-13.031
-11.727
-10.442
-9.181
-7.952
-6.764
-5.631
-4.566
-3.579
-2.673
-1.852
-1.115
-0.462
0.111
0.611
1.055
1.455
1.822
2.158
2.462
2.742
3.008
3.283
3.589
3.937
4.327
4.758
5.226
5.726
6.245
6.756
7.214
7.576
7.809
7.894
7.814
7.543
7.033
6.211
5.009
3.382
1.309
-1.198
-4.141
-7.545
-11.417
-15.756
-20.519
-25.577
-30.847
-36.327
-41.896
-47.386
-52.521
-56.747
-59.597
-60.923
-60.575
-58.504
-54.963
-50.015
-43.93
-37.705
-32.252
-28.069
-25.605
-24.351
-22.814
-20.362
-16.243
-9.745
-1.825
7.241
17.991
31.15
49.897
77.717
115.853
163.628
215.953
265.255
304.372
325.406
322.703
292.801
234.41
152.097
53.481
-54.057
-164.545
-277.161
-391.6
-500.701
-602.139
-695.701
-757.232
-765.175
-738.785
-700.333
-647.337
-579.086
-503.656
-426.795
-351.698
-282.414
-223.95
-179.081
-147.376
-125.684
-109.452
-95.985
-84.718
-76.445
-71.69
-68.595
-65.092
-59.906
-52.212
-42.523
-31.657
-20.029
-8.621
1.139
8.444
12.952
14.702
14.295
12.283
9.035
5.136
1.31
-1.947
-4.3
-5.582
-5.878
-5.267
-3.785
-1.545
1.329
4.735
8.558
12.705
17.111
21.678
26.302
30.893
35.351
39.589
43.539
47.132
50.334
53.142
55.569
57.642
59.395
60.863
62.095
63.152
64.089
64.962
65.821
66.71
67.679
68.774
70.038
71.505
73.201
75.139
77.328
79.779
82.49
85.456
88.665
92.097
95.733
99.556
103.542
107.661
111.881
116.17
120.502
124.862
129.232
133.595
137.931
142.219
146.449
150.621
154.731
158.774
162.745
166.636
170.455
174.228
177.971
181.692
185.385
189.023
192.581
196.039
199.361
202.513
205.44
208.068
210.341
212.217
213.652
214.609
215.031
214.843
213.987
212.427
210.141
207.134
203.415
198.99
193.893
188.174
181.903
175.175
168.067
160.634
152.94
145.041
137.009
128.937
120.895
112.939
105.116
97.461
90.007
82.79
75.826
69.108
62.622
56.336
50.233
44.315
38.577
33.02
27.637
22.414
17.348
12.446
7.714
3.155
-1.226
-5.432
-9.453
-13.273
-16.872
-20.229
-23.332
-26.175
-28.758
-31.078
-33.139
-34.943
-36.499
-37.822
-38.925
-39.818
-40.514
-41.022
-41.354
-41.529
-41.562
-41.468
-41.264
-40.962
-40.577
-40.122
-39.608
-39.046
-38.445
-37.814
-37.16
-36.491
-35.817
-35.145
-34.482
-33.834
-33.207
-32.608
-32.039
-31.505
-31.008
-30.549
-30.13
-29.751
-29.411
-29.111
-28.847
-28.62
-28.426
-28.263
-28.128
-28.019
-27.931
-27.861
-27.807
-27.765
-27.731
-27.702
-27.675
-27.648
-27.617
-27.582
-27.538
-27.485
-27.421
-27.344
-27.254
-27.148
-27.027
-26.89
-26.736
-26.567
-26.382
-26.183
-25.97
-25.744
-25.508
-25.263
-25.011
-24.754
-24.493
-24.232
-23.972
-23.716
-23.466
-23.223
-22.991
-22.771
-22.566
-22.376
-22.203
-22.049
-21.915
-21.801
-21.71
-21.64
-21.592
-21.567
-21.564
-21.583
-21.624
-21.685
-21.767
-21.867
-21.986
-22.121
-22.272
-22.438
-22.616
-22.806
-23.006
-23.214
-23.43
-23.651
-23.876
-24.103
-24.332
-24.56
-24.787
-25.012
-25.233
-25.45
-25.662
-25.869
-26.07
-26.265
-26.454
-26.637
-26.814
-26.985
-27.152
-27.313
-27.471
-27.626
-27.777
-27.926
-28.074
-28.219
-28.363
-28.505
-28.646
-28.784
-28.92
-29.054
-29.184
-29.31
-29.432
-29.547
-29.655
-29.756
-29.846
-29.924
-29.989
-30.038
-30.068
-30.078
-30.065
-30.026
-29.958
-29.859
-29.726
-29.554
-29.343
-29.088
-28.787
-28.437
-28.036
-27.583
-27.076
-26.514
-25.897
-25.227
-24.504
-23.73
-22.908
-22.04
-21.13
-20.179
-19.192
-18.172
-17.122
-16.049
-14.956
-13.849
-12.735
-11.62
-10.511
-9.415
-8.339
-7.288
-6.271
-5.292
-4.356
-3.473
-2.647
-1.886
-1.199
-0.588
-0.055
0.398
0.771
1.069
1.297
1.47
1.602
1.704
1.788
1.866
1.947
2.052
2.196
2.392
2.655
2.99
3.398
3.89
4.465
5.117
5.83
6.567
7.281
7.938
8.497
8.919
9.154
9.121
8.751
7.991
6.809
5.213
3.182
0.664
-2.385
-6.013
-10.197
-14.799
-19.724
-24.942
-30.32
-35.711
-40.779
-44.906
-47.74
-49.213
-49.269
-47.982
-45.422
-41.401
-36.239
-30.953
-26.161
-22.213
-19.255
-16.399
-12.633
-7.9
-1.457
7.478
17.793
29.162
41.471
54.312
71.064
96.013
131.039
176.228
226.665
273.963
310.078
326.894
318.753
282.823
219.801
136.181
39.863
-61.873
-165.539
-271.884
-377.484
-483.21
-590.627
-672.559
-701.107
-692.984
-670.717
-630.214
-571.018
-503.236
-432.972
-363.849
-299.788
-244.185
-198.686
-163.45
-136.58
-114.879
-96.892
-82.102
-70.921
-64.17
-60.368
-57.11
-52.763
-46.124
-37.144
-26.756
-15.58
-4.365
5.6
13.44
18.748
21.355
21.612
20.074
17.143
13.376
9.527
6.12
3.509
1.923
1.335
1.692
2.977
5.089
7.898
11.298
15.175
19.433
24.009
28.813
33.739
38.684
43.538
48.207
52.611
56.677
60.36
63.644
66.529
69.038
71.201
73.051
74.635
76.008
77.221
78.33
79.385
80.432
81.523
82.708
84.031
85.534
87.246
89.187
91.371
93.809
96.504
99.453
102.643
106.059
109.683
113.495
117.473
121.591
125.821
130.135
134.51
138.923
143.355
147.789
152.202
156.572
160.885
165.136
169.321
173.447
177.517
181.536
185.517
189.482
193.448
197.419
201.39
205.348
209.276
213.154
216.957
220.663
224.233
227.616
230.763
233.611
236.098
238.166
239.739
240.734
241.081
240.725
239.629
237.768
235.115
231.652
227.378
222.297
216.437
209.834
202.525
194.566
186.023
176.958
167.463
157.639
147.577
137.362
127.078
116.801
106.623
96.639
86.923
77.54
68.541
59.972
51.889
44.328
37.31
30.852
24.948
19.582
14.742
10.413
6.565
3.166
0.163
-2.515
-4.915
-7.079
-9.047
-10.853
-12.551
-14.179
-15.764
-17.324
-18.868
-20.403
-21.94
-23.484
-25.027
-26.555
-28.043
-29.453
-30.766
-31.966
-33.041
-33.981
-34.772
-35.4
-35.868
-36.185
-36.358
-36.396
-36.306
-36.094
-35.775
-35.371
-34.901
-34.393
-33.864
-33.327
-32.796
-32.28
-31.79
-31.331
-30.907
-30.513
-30.15
-29.816
-29.511
-29.236
-28.987
-28.761
-28.553
-28.359
-28.176
-28
-27.828
-27.658
-27.489
-27.319
-27.147
-26.974
-26.799
-26.622
-26.441
-26.255
-26.063
-25.863
-25.655
-25.437
-25.208
-24.967
-24.716
-24.453
-24.18
-23.897
-23.605
-23.304
-22.996
-22.682
-22.363
-22.042
-21.719
-21.397
-21.078
-20.763
-20.454
-20.153
-19.862
-19.582
-19.314
-19.061
-18.823
-18.602
-18.399
-18.216
-18.054
-17.915
-17.799
-17.708
-17.642
-17.604
-17.594
-17.613
-17.661
-17.739
-17.847
-17.987
-18.156
-18.357
-18.587
-18.848
-19.137
-19.455
-19.799
-20.169
-20.563
-20.98
-21.417
-21.872
-22.344
-22.83
-23.328
-23.836
-24.35
-24.869
-25.388
-25.905
-26.417
-26.92
-27.411
-27.885
-28.34
-28.771
-29.174
-29.545
-29.881
-30.177
-30.43
-30.635
-30.79
-30.89
-30.933
-30.916
-30.837
-30.695
-30.489
-30.219
-29.885
-29.489
-29.032
-28.516
-27.944
-27.318
-26.639
-25.913
-25.141
-24.328
-23.478
-22.598
-21.691
-20.766
-19.827
-18.883
-17.939
-17.003
-16.08
-15.176
-14.298
-13.454
-12.651
-11.895
-11.197
-10.56
-9.987
-9.482
-9.044
-8.67
-8.356
-8.089
-7.855
-7.646
-7.449
-7.254
-7.053
-6.826
-6.558
-6.238
-5.854
-5.4
-4.875
-4.268
-3.578
-2.817
-1.999
-1.161
-0.352
0.396
1.039
1.535
1.831
1.848
1.517
0.788
-0.371
-1.955
-3.989
-6.528
-9.62
-13.314
-17.591
-22.319
-27.407
-32.828
-38.443
-44.097
-49.446
-53.867
-57.007
-58.802
-59.194
-58.255
-56.056
-52.41
-47.638
-42.772
-38.422
-34.899
-32.315
-29.763
-26.235
-21.698
-15.434
-6.576
3.954
15.984
29.532
44.11
62.606
88.833
124.312
168.98
218.534
265.321
301.88
320.591
315.416
282.843
222.877
141.311
46.217
-55.081
-158.249
-264.194
-373.499
-480.936
-576.987
-650.326
-691.724
-700.346
-681.262
-640.146
-584.438
-520.061
-451.047
-383.267
-321.314
-267.538
-223.384
-187.743
-157.691
-131.311
-107.903
-88.214
-74.027
-65.78
-61.911
-59.414
-55.691
-49.775
-41.724
-32.227
-21.934
-11.109
-0.466
8.719
15.645
20.016
21.887
21.792
20.211
17.461
14.074
10.732
7.917
5.942
4.961
4.896
5.68
7.287
9.62
12.56
16.003
19.836
23.967
28.331
32.838
37.388
41.892
46.253
50.388
54.23
57.715
60.811
63.514
65.837
67.805
69.453
70.816
71.945
72.894
73.72
74.476
75.211
75.969
76.799
77.744
78.846
80.143
81.662
83.423
85.437
87.706
90.226
92.99
95.982
99.18
102.561
106.099
109.77
113.55
117.418
121.357
125.347
129.369
133.403
137.428
141.427
145.395
149.328
153.227
157.097
160.942
164.776
168.621
172.492
176.394
180.321
184.257
188.181
192.07
195.899
199.638
203.25
206.685
209.893
212.823
215.415
217.613
219.345
220.526
221.085
220.966
220.123
218.532
216.174
213.04
209.135
204.481
199.108
193.054
186.361
179.068
171.228
162.905
154.181
145.153
135.919
126.564
117.182
107.858
98.672
89.692
80.97
72.536
64.424
56.668
49.304
42.375
35.911
29.921
24.407
19.357
14.747
10.554
6.734
3.231
-0.002
-2.999
-5.786
-8.368
-10.761
-12.987
-15.074
-17.054
-18.952
-20.784
-22.562
-24.299
-25.993
-27.638
-29.212
-30.676
-32.001
-33.174
-34.188
-35.047
-35.753
-36.302
-36.694
-36.929
-37.008
-36.938
-36.723
-36.364
-35.871
-35.258
-34.55
-33.778
-32.968
-32.137
-31.301
-30.47
-29.653
-28.861
-28.099
-27.369
-26.675
-26.018
-25.405
-24.839
-24.324
-23.859
-23.444
-23.073
-22.744
-22.454
-22.203
-21.987
-21.805
-21.656
-21.539
-21.457
-21.409
-21.393
-21.409
-21.454
-21.526
-21.622
-21.741
-21.88
-22.034
-22.203
-22.385
-22.576
-22.776
-22.983
-23.195
-23.411
-23.628
-23.846
-24.063
-24.278
-24.491
-24.7
-24.905
-25.105
-25.299
-25.488
-25.671
-25.847
-26.016
-26.178
-26.333
-26.479
-26.616
-26.745
-26.865
-26.976
-27.078
-27.172
-27.259
-27.337
-27.41
-27.476
-27.537
-27.592
-27.643
-27.691
-27.735
-27.777
-27.817
-27.856
-27.896
-27.937
-27.98
-28.027
-28.078
-28.134
-28.198
-28.269
-28.35
-28.441
-28.545
-28.662
-28.793
-28.94
-29.105
-29.287
-29.489
-29.709
-29.95
-30.211
-30.492
-30.793
-31.112
-31.45
-31.805
-32.177
-32.564
-32.964
-33.377
-33.799
-34.228
-34.663
-35.099
-35.536
-35.968
-36.393
-36.808
-37.208
-37.59
-37.949
-38.283
-38.585
-38.852
-39.081
-39.266
-39.403
-39.49
-39.522
-39.497
-39.411
-39.265
-39.055
-38.782
-38.446
-38.048
-37.59
-37.073
-36.499
-35.871
-35.192
-34.464
-33.691
-32.877
-32.026
-31.144
-30.236
-29.309
-28.369
-27.424
-26.479
-25.541
-24.616
-23.711
-22.832
-21.987
-21.183
-20.427
-19.729
-19.093
-18.525
-18.026
-17.595
-17.227
-16.916
-16.652
-16.419
-16.207
-16.004
-15.8
-15.582
-15.333
-15.04
-14.686
-14.256
-13.741
-13.133
-12.43
-11.638
-10.768
-9.842
-8.901
-7.995
-7.165
-6.462
-5.927
-5.614
-5.607
-5.97
-6.769
-8.045
-9.803
-12.074
-14.9
-18.315
-22.349
-26.959
-32.008
-37.399
-43.094
-48.97
-54.855
-60.373
-64.898
-68.062
-69.762
-69.956
-68.632
-65.712
-61.099
-55.284
-49.462
-44.458
-40.646
-37.693
-34.431
-30.296
-25.165
-18.903
-11.686
-3.336
6.974
20.372
39.066
65.812
101.524
145.297
193.306
239.369
278.598
305.356
313.606
298.57
255.547
185.412
95.457
-5.506
-109.16
-213.605
-320.527
-426.574
-533.079
-640.359
-720.115
-744.507
-731.511
-705.907
-663.879
-604.114
-535.271
-461.161
-385.091
-311.921
-247.531
-196.905
-160.818
-136.67
-119.872
-106.977
-96.469
-88.581
-84.078
-81.392
-78.578
-74.325
-67.362
-57.824
-46.695
-34.555
-22.486
-12.09
-4.121
1.113
3.518
3.614
1.927
-1.191
-5.104
-9.014
-12.413
-14.959
-16.459
-16.994
-16.607
-15.307
-13.203
-10.42
-7.077
-3.292
0.844
5.273
9.908
14.643
19.377
24
28.424
32.572
36.376
39.795
42.812
45.431
47.68
49.585
51.185
52.527
53.666
54.655
55.549
56.398
57.25
58.155
59.158
60.303
61.63
63.163
64.918
66.904
69.125
71.581
74.275
77.198
80.338
83.678
87.2
90.884
94.708
98.643
102.66
106.733
110.837
114.957
119.086
123.214
127.334
131.431
135.48
139.464
143.365
147.169
150.863
154.443
157.912
161.279
164.56
167.761
170.872
173.867
176.702
179.331
181.707
183.794
185.567
187.004
188.085
188.796
189.126
189.051
188.535
187.526
185.96
183.799
181.026
177.655
173.723
169.277
164.37
159.046
153.349
147.319
140.982
134.356
127.45
120.295
112.944
105.484
98.013
90.605
83.314
76.171
69.189
62.381
55.747
49.291
43.01
36.911
31.018
25.372
20.026
15.007
10.314
5.911
1.756
-2.176
-5.899
-9.418
-12.736
-15.86
-18.785
-21.5
-23.991
-26.254
-28.305
-30.176
-31.908
-33.524
-35.029
-36.404
-37.634
-38.716
-39.648
-40.432
-41.066
-41.549
-41.889
-42.105
-42.219
-42.244
-42.186
-42.04
-41.799
-41.467
-41.055
-40.581
-40.06
-39.504
-38.923
-38.33
-37.74
-37.163
-36.607
-36.069
-35.547
-35.044
-34.561
-34.105
-33.679
-33.283
-32.917
-32.579
-32.268
-31.984
-31.723
-31.482
-31.258
-31.048
-30.849
-30.662
-30.487
-30.322
-30.165
-30.016
-29.873
-29.735
-29.602
-29.471
-29.341
-29.212
-29.082
-28.952
-28.821
-28.688
-28.554
-28.419
-28.283
-28.146
-28.009
-27.873
-27.737
-27.604
-27.473
-27.345
-27.222
-27.103
-26.99
-26.882
-26.782
-26.689
-26.603
-26.525
-26.455
-26.392
-26.336
-26.288
-26.245
-26.208
-26.175
-26.147
-26.121
-26.098
-26.076
-26.053
-26.03
-26.004
-25.975
-25.941
-25.902
-25.857
-25.804
-25.743
-25.674
-25.596
-25.508
-25.411
-25.304
-25.188
-25.063
-24.929
-24.788
-24.639
-24.484
-24.325
-24.162
-23.997
-23.833
-23.67
-23.512
-23.36
-23.215
-23.082
-22.961
-22.856
-22.767
-22.698
-22.65
-22.625
-22.625
-22.649
-22.701
-22.779
-22.883
-23.015
-23.173
-23.356
-23.564
-23.794
-24.046
-24.317
-24.604
-24.905
-25.217
-25.535
-25.857
-26.177
-26.493
-26.798
-27.089
-27.36
-27.606
-27.822
-28.002
-28.142
-28.236
-28.277
-28.262
-28.186
-28.043
-27.831
-27.546
-27.186
-26.749
-26.234
-25.642
-24.973
-24.23
-23.413
-22.526
-21.571
-20.553
-19.474
-18.338
-17.151
-15.919
-14.649
-13.348
-12.025
-10.687
-9.342
-8
-6.669
-5.357
-4.072
-2.819
-1.607
-0.448
0.648
1.669
2.609
3.466
4.234
4.913
5.504
6.013
6.45
6.834
7.175
7.481
7.759
8.015
8.264
8.528
8.822
9.166
9.567
10.027
10.553
11.151
11.813
12.523
13.245
13.925
14.525
15.014
15.355
15.513
15.426
15.01
14.202
12.948
11.225
9.042
6.372
3.174
-0.579
-4.899
-9.716
-14.873
-20.279
-25.913
-31.66
-37.346
-42.572
-46.704
-49.376
-50.509
-50.094
-48.126
-44.536
-39.24
-32.741
-26.257
-20.661
-16.351
-13.014
-9.558
-5.396
-0.264
6.103
13.471
21.761
31.302
42.775
58.991
83.722
119.055
165.035
216.912
266.825
307.723
332.531
335.909
314.807
267.096
194.384
102.684
-1.545
-112.229
-225.985
-341.699
-452.554
-556.582
-655.104
-723.333
-737.748
-717.106
-683.315
-633.646
-568.004
-494.483
-418.283
-342.606
-271.361
-209.549
-160.558
-124.862
-100.113
-82.375
-69.222
-59.336
-52.771
-49.887
-48.62
-46.916
-43.567
-37.399
-28.62
-18.19
-6.649
4.91
14.854
22.389
27.208
29.256
29.093
27.281
24.183
20.421
16.78
13.747
11.645
10.639
10.624
11.522
13.305
15.851
19.03
22.727
26.818
31.205
35.822
40.572
45.35
50.058
54.594
58.872
62.828
66.401
69.562
72.307
74.65
76.62
78.25
79.58
80.659
81.543
82.289
82.952
83.585
84.233
84.947
85.775
86.757
87.936
89.337
90.975
92.86
94.994
97.38
100.017
102.903
106.028
109.378
112.94
116.702
120.649
124.761
129.013
133.369
137.796
142.27
146.771
151.287
155.801
160.295
164.75
169.149
173.484
177.748
181.93
186.014
189.992
193.858
197.624
201.311
204.932
208.485
211.956
215.321
218.556
221.639
224.539
227.222
229.644
231.765
233.551
234.975
235.999
236.581
236.659
236.16
235.028
233.221
230.712
227.495
223.568
218.943
213.642
207.695
201.14
194.014
186.352
178.196
169.601
160.634
151.38
141.943
132.419
122.911
113.508
104.278
95.28
86.563
78.166
70.13
62.494
55.297
48.569
42.329
36.584
31.336
26.564
22.234
18.298
14.689
11.352
8.251
5.354
2.64
0.085
-2.341
-4.674
-6.941
-9.163
-11.357
-13.535
-15.712
-17.888
-20.054
-22.184
-24.239
-26.193
-28.031
-29.75
-31.348
-32.823
-34.169
-35.382
-36.467
-37.429
-38.277
-39.016
-39.651
-40.189
-40.651
-41.059
-41.445
-41.83
-42.23
-42.657
-43.119
-43.624
-44.181
-44.794
-45.46
-46.177
-46.946
-47.765
-48.637
-49.558
-50.522
-51.523
-52.552
-53.602
-54.665
-55.737
-56.809
-57.875
-58.93
-59.968
-60.987
-61.98
-62.944
-63.871
-64.754
-65.59
-66.371
-67.093
-67.749
-68.335
-68.846
-69.279
-69.63
-69.897
-70.077
-70.168
-70.169
-70.08
-69.9
-69.629
-69.269
-68.821
-68.287
-67.67
-66.972
-66.196
-65.347
-64.428
-63.442
-62.396
-61.292
-60.136
-58.932
-57.685
-56.4
-55.083
-53.738
-52.372
-50.988
-49.594
-48.193
-46.792
-45.395
-44.008
-42.635
-41.28
-39.948
-38.644
-37.37
-36.13
-34.928
-33.767
-32.65
-31.579
-30.556
-29.584
-28.664
-27.797
-26.985
-26.229
-25.53
-24.888
-24.303
-23.776
-23.306
-22.894
-22.539
-22.241
-21.999
-21.812
-21.679
-21.598
-21.569
-21.589
-21.657
-21.771
-21.928
-22.126
-22.363
-22.637
-22.943
-23.28
-23.644
-24.032
-24.44
-24.864
-25.3
-25.746
-26.196
-26.646
-27.092
-27.531
-27.957
-28.367
-28.757
-29.12
-29.455
-29.755
-30.017
-30.235
-30.406
-30.526
-30.59
-30.595
-30.536
-30.411
-30.215
-29.947
-29.603
-29.182
-28.682
-28.1
-27.437
-26.693
-25.868
-24.963
-23.981
-22.924
-21.797
-20.604
-19.349
-18.038
-16.676
-15.269
-13.822
-12.343
-10.839
-9.315
-7.778
-6.237
-4.699
-3.174
-1.669
-0.192
1.25
2.651
4.001
5.294
6.522
7.68
8.764
9.768
10.685
11.51
12.24
12.877
13.426
13.893
14.285
14.612
14.888
15.129
15.352
15.574
15.811
16.075
16.382
16.747
17.185
17.715
18.34
19.06
19.875
20.772
21.729
22.719
23.698
24.614
25.425
26.07
26.476
26.585
26.331
25.677
24.614
23.098
21.089
18.548
15.421
11.732
7.591
3.064
-1.822
-6.944
-12.144
-17.047
-21.034
-23.748
-25.098
-25.054
-23.609
-20.689
-16.192
-10.596
-5.08
-0.453
2.949
5.452
8.167
11.721
16.38
22.478
29.922
38.589
48.588
60.346
76.349
100.328
134.939
181.036
234.242
286.881
331.9
361.229
369.272
352.62
308.022
238.164
150.05
51.491
-49.925
-153.258
-260.271
-367.219
-474.904
-582.817
-662.634
-687.032
-673.921
-648.045
-605.905
-545.96
-476.322
-400.542
-322.101
-246.508
-180.26
-128.635
-92.383
-68.497
-52.015
-39.339
-28.931
-21.167
-16.916
-14.566
-12.088
-8.072
-1.182
8.41
19.656
31.917
44.059
54.454
62.334
67.377
69.483
69.176
66.986
63.287
58.735
54.134
49.995
46.657
44.304
42.879
42.363
42.76
43.977
45.891
48.391
51.368
54.744
58.463
62.445
66.58
70.762
74.893
78.889
82.684
86.219
89.439
92.312
94.84
97.039
98.937
100.57
101.98
103.212
104.326
105.375
106.412
107.488
108.649
109.937
111.393
113.051
114.943
117.091
119.509
122.205
125.183
128.435
131.951
135.716
139.707
143.904
148.282
152.811
157.464
162.216
167.038
171.916
176.83
181.76
186.687
191.588
196.448
201.262
206.03
210.747
215.415
220.036
224.617
229.182
233.744
238.303
242.858
247.389
251.873
256.29
260.617
264.825
268.881
272.743
276.356
279.674
282.645
285.21
287.306
288.852
289.779
290.038
289.582
288.387
286.442
283.741
280.29
276.106
271.208
265.619
259.384
252.551
245.18
237.345
229.126
220.621
211.933
203.154
194.386
185.715
177.206
168.915
160.892
153.175
145.816
138.868
132.359
126.308
120.723
115.593
110.912
106.65
102.766
99.204
95.897
92.789
89.844
87.035
84.337
81.725
79.164
76.607
74.035
71.428
68.776
66.073
63.31
60.49
57.633
54.773
51.953
49.205
46.547
43.986
41.53
39.185
36.966
34.883
32.937
31.126
29.45
27.905
26.493
25.208
24.036
22.951
21.929
20.948
19.997
19.066
18.148
17.235
16.322
15.404
14.485
13.565
12.643
11.717
10.785
9.846
8.903
7.96
7.022
6.092
5.172
4.262
3.364
2.479
1.606
0.742
-0.115
-0.968
-1.818
-2.668
-3.517
-4.367
-5.221
-6.079
-6.942
-7.814
-8.694
-9.587
-10.494
-11.418
-12.362
-13.327
-14.317
-15.334
-16.38
-17.458
-18.57
-19.717
-20.903
-22.127
-23.394
-24.702
-26.055
-27.451
-28.891
-30.375
-31.902
-33.471
-35.081
-36.729
-38.414
-40.134
-41.886
-43.667
-45.475
-47.306
-49.157
-51.024
-52.905
-54.795
-56.69
-58.587
-60.482
-62.37
-64.25
-66.116
-67.965
-69.795
-71.602
-73.383
-75.136
-76.859
-78.549
-80.204
-81.824
-83.406
-84.951
-86.458
-87.927
-89.358
-90.751
-92.108
-93.43
-94.718
-95.973
-97.198
-98.394
-99.564
-100.709
-101.832
-102.935
-104.021
-105.092
-106.15
-107.198
-108.237
-109.27
-110.299
-111.325
-112.349
-113.374
-114.4
-115.428
-116.459
-117.493
-118.531
-119.573
-120.618
-121.665
-122.714
-123.764
-124.812
-125.858
-126.898
-127.932
-128.955
-129.965
-130.96
-131.936
-132.89
-133.819
-134.719
-135.587
-136.42
-137.214
-137.966
-138.672
-139.329
-139.933
-140.482
-140.973
-141.402
-141.766
-142.064
-142.292
-142.449
-142.532
-142.539
-142.469
-142.321
-142.093
-141.785
-141.398
-140.933
-140.39
-139.772
-139.081
-138.321
-137.497
-136.611
-135.669
-134.676
-133.635
-132.552
-131.434
-130.284
-129.109
-127.915
-126.709
-125.496
-124.285
-123.081
-121.892
-120.722
-119.578
-118.466
-117.391
-116.36
-115.377
-114.446
-113.574
-112.764
-112.022
-111.347
-110.74
-110.196
-109.71
-109.275
-108.879
-108.509
-108.153
-107.795
-107.423
-107.02
-106.57
-106.062
-105.481
-104.816
-104.06
-103.204
-102.248
-101.195
-100.054
-98.847
-97.609
-96.38
-95.204
-94.128
-93.204
-92.507
-92.108
-92.064
-92.421
-93.19
-94.39
-96.069
-98.264
-101.023
-104.365
-108.204
-112.473
-117.149
-122.089
-127.108
-131.928
-136.003
-138.856
-140.327
-140.247
-138.56
-135.523
-131.196
-125.822
-120.34
-115.596
-112.023
-110.039
-109.142
-107.843
-105.501
-101.371
-94.709
-86.407
-76.746
-65.168
-51
-31.29
-2.628
36.152
84.294
136.979
186.639
226.304
248.989
249.408
224.685
173.604
98.754
6.375
-97.374
-207.436
-321.271
-437.389
-548.186
-650.196
-743.488
-804.965
-813.5
-787.63
-748.483
-693.967
-624.239
-547.517
-469.809
-394.475
-325.381
-267.405
-223.144
-192.029
-170.862
-155.003
-141.739
-130.547
-122.256
-117.444
-114.26
-110.603
-105.162
-97.089
-86.893
-75.399
-63.029
-50.767
-40.059
-31.729
-26.135
-23.257
-22.505
-23.339
-25.412
-28.153
-30.844
-32.998
-34.283
-34.534
-33.841
-32.284
-29.899
-26.797
-23.098
-18.903
-14.321
-9.444
-4.331
0.927
6.232
11.497
16.626
21.536
26.161
30.433
34.319
37.814
40.93
43.695
46.14
48.3
50.223
51.966
53.583
55.129
56.653
58.197
59.81
61.537
63.418
65.492
67.786
70.316
73.096
76.133
79.424
82.963
86.736
90.723
94.902
99.252
103.746
108.358
113.064
117.84
122.667
127.522
132.388
137.245
142.068
146.841
151.557
156.213
160.812
165.358
169.857
174.323
178.778
183.238
187.708
192.187
196.655
201.093
205.477
209.78
213.977
218.034
221.904
225.534
228.866
231.837
234.388
236.443
237.916
238.727
238.814
238.132
236.665
234.405
231.353
227.52
222.924
217.594
211.568
204.896
197.635
189.845
181.597
172.98
164.105
155.084
146.027
137.023
128.135
119.418
110.92
102.682
94.738
87.117
79.845
72.946
66.446
60.362
54.705
49.462
44.601
40.076
35.832
31.829
28.044
24.457
21.057
17.833
14.78
11.889
9.156
6.566
4.095
1.723
-0.568
-2.779
-4.901
-6.911
-8.778
-10.48
-12.001
-13.334
-14.476
-15.429
-16.2
-16.796
-17.23
-17.507
-17.625
-17.582
-17.38
-17.025
-16.531
-15.92
-15.214
-14.439
-13.615
-12.759
-11.888
-11.011
-10.137
-9.272
-8.418
-7.579
-6.762
-5.973
-5.22
-4.508
-3.838
-3.212
-2.63
-2.09
-1.591
-1.129
-0.704
-0.315
0.04
0.36
0.643
0.891
1.102
1.279
1.422
1.533
1.616
1.671
1.702
1.712
1.703
1.677
1.636
1.582
1.517
1.443
1.361
1.274
1.183
1.089
0.995
0.9
0.807
0.716
0.628
0.544
0.463
0.388
0.317
0.251
0.191
0.136
0.088
0.046
0.01
-0.019
-0.041
-0.056
-0.064
-0.066
-0.062
-0.052
-0.036
-0.015
0.012
0.044
0.081
0.123
0.17
0.221
0.278
0.338
0.403
0.473
0.546
0.623
0.704
0.79
0.878
0.971
1.066
1.165
1.267
1.372
1.479
1.589
1.701
1.815
1.93
2.046
2.163
2.279
2.394
2.506
2.616
2.722
2.823
2.919
3.008
3.09
3.164
3.229
3.285
3.329
3.361
3.381
3.386
3.375
3.348
3.304
3.241
3.159
3.058
2.935
2.791
2.625
2.435
2.222
1.985
1.724
1.439
1.132
0.803
0.455
0.089
-0.293
-0.687
-1.092
-1.504
-1.921
-2.341
-2.762
-3.181
-3.597
-4.006
-4.406
-4.793
-5.162
-5.509
-5.826
-6.109
-6.352
-6.551
-6.702
-6.799
-6.84
-6.822
-6.743
-6.6
-6.387
-6.096
-5.723
-5.268
-4.735
-4.131
-3.468
-2.756
-2.006
-1.233
-0.449
0.342
1.138
1.95
2.786
3.649
4.536
5.434
6.334
7.233
8.134
9.042
9.97
10.93
11.938
13.02
14.193
15.453
16.783
18.147
19.502
20.817
22.075
23.267
24.394
25.449
26.428
27.326
28.129
28.822
29.382
29.774
29.976
29.988
29.83
29.541
29.176
28.779
28.377
27.987
27.608
27.224
26.806
26.33
25.767
25.096
24.293
23.324
22.159
20.759
19.091
17.139
14.847
12.142
8.96
5.236
0.975
-3.702
-8.706
-13.999
-19.455
-24.941
-30.136
-34.451
-37.551
-39.356
-39.807
-38.989
-36.916
-33.326
-28.544
-23.575
-19.018
-15.332
-12.422
-9.082
-4.588
0.995
7.723
15.409
23.549
32.399
42.853
55.945
74.447
101.995
140.036
187.802
241.009
291.56
330.361
348.49
339.063
298.875
230.682
142.989
45.443
-53.741
-152.553
-253.444
-354.828
-457.765
-561.766
-641.886
-673.145
-668.674
-647.729
-607.498
-548.591
-481.174
-411.753
-344.967
-285.226
-234.541
-193.399
-160.717
-133.529
-109.986
-89.807
-73.291
-61.839
-55.463
-51.951
-48.798
-44.011
-36.716
-27.228
-16.399
-4.864
6.673
17.03
25.32
31.108
34.237
35.041
34.034
31.598
28.267
24.759
21.583
19.082
17.465
16.727
16.841
17.806
19.545
21.938
24.882
28.278
32.042
36.114
40.418
44.851
49.316
53.719
57.978
62.027
65.805
69.256
72.347
75.073
77.445
79.491
81.245
82.745
84.038
85.178
86.22
87.216
88.216
89.264
90.403
91.673
93.112
94.756
96.634
98.766
101.163
103.826
106.753
109.935
113.359
117.002
120.839
124.841
128.984
133.246
137.605
142.045
146.541
151.07
155.611
160.14
164.639
169.101
173.517
177.885
182.212
186.505
190.78
195.062
199.359
203.674
208.001
212.32
216.616
220.874
225.068
229.171
233.153
236.966
240.562
243.896
246.894
249.49
251.614
253.173
254.102
254.35
253.873
252.651
250.662
247.88
244.297
239.92
234.758
228.841
222.204
214.875
206.921
198.411
189.416
180.039
170.368
160.476
150.443
140.339
130.237
120.226
110.392
100.798
91.511
82.581
74.056
65.998
58.438
51.395
44.885
38.898
33.424
28.461
23.998
20.009
16.468
13.322
10.509
7.988
5.717
3.657
1.772
0.01
-1.666
-3.281
-4.852
-6.39
-7.901
-9.397
-10.885
-12.357
-13.801
-15.192
-16.494
-17.69
-18.766
-19.707
-20.507
-21.151
-21.628
-21.942
-22.101
-22.115
-21.993
-21.743
-21.373
-20.901
-20.347
-19.734
-19.09
-18.435
-17.783
-17.15
-16.546
-15.983
-15.469
-15.008
-14.598
-14.238
-13.93
-13.675
-13.473
-13.323
-13.22
-13.162
-13.143
-13.159
-13.209
-13.287
-13.391
-13.518
-13.666
-13.833
-14.019
-14.22
-14.435
-14.66
-14.892
-15.128
-15.365
-15.598
-15.826
-16.043
-16.249
-16.441
-16.616
-16.774
-16.912
-17.03
-17.126
-17.2
-17.252
-17.281
-17.288
-17.274
-17.238
-17.182
-17.106
-17.013
-16.904
-16.779
-16.64
-16.489
-16.328
-16.158
-15.982
-15.8
-15.615
-15.43
-15.246
-15.065
-14.889
-14.722
-14.563
-14.416
-14.282
-14.162
-14.058
-13.971
-13.902
-13.851
-13.82
-13.809
-13.817
-13.845
-13.893
-13.961
-14.049
-14.155
-14.279
-14.421
-14.58
-14.755
-14.945
-15.15
-15.367
-15.597
-15.837
-16.087
-16.345
-16.611
-16.882
-17.158
-17.438
-17.72
-18.003
-18.288
-18.572
-18.856
-19.138
-19.418
-19.696
-19.972
-20.245
-20.516
-20.785
-21.053
-21.318
-21.583
-21.846
-22.108
-22.369
-22.63
-22.889
-23.147
-23.403
-23.657
-23.908
-24.156
-24.401
-24.64
-24.874
-25.101
-25.32
-25.529
-25.727
-25.913
-26.083
-26.236
-26.37
-26.483
-26.571
-26.632
-26.664
-26.663
-26.627
-26.552
-26.435
-26.273
-26.063
-25.804
-25.492
-25.126
-24.706
-24.23
-23.699
-23.115
-22.479
-21.792
-21.057
-20.277
-19.455
-18.594
-17.697
-16.768
-15.812
-14.834
-13.841
-12.84
-11.839
-10.843
-9.86
-8.899
-7.967
-7.072
-6.219
-5.413
-4.662
-3.975
-3.362
-2.833
-2.395
-2.048
-1.793
-1.631
-1.557
-1.566
-1.648
-1.784
-1.961
-2.172
-2.411
-2.673
-2.946
-3.211
-3.447
-3.637
-3.772
-3.849
-3.868
-3.823
-3.717
-3.564
-3.39
-3.243
-3.159
-3.16
-3.272
-3.519
-3.946
-4.625
-5.621
-6.982
-8.738
-10.881
-13.421
-16.404
-19.852
-23.786
-28.192
-32.937
-37.944
-43.208
-48.603
-53.957
-58.992
-63.158
-65.995
-67.377
-67.162
-65.287
-61.99
-57.309
-51.494
-45.547
-40.36
-36.398
-34.091
-32.899
-31.301
-28.722
-24.459
-17.707
-9.382
0.339
12.141
26.667
46.939
76.384
116.083
164.81
217.131
265.324
302.142
320.526
315.766
284.427
225.264
143.121
45.366
-59.908
-166.513
-274.111
-379.727
-481.594
-588.252
-685.741
-731.734
-722.097
-694.848
-663.272
-616.696
-555.845
-488.411
-418.448
-348.306
-282.248
-225.45
-180.932
-149.039
-127.067
-110.872
-98.01
-87.712
-80.553
-76.928
-74.898
-72.436
-68.335
-61.746
-53.117
-43.2
-32.36
-21.551
-12.191
-5.088
-0.592
1.308
1.17
-0.493
-3.346
-6.832
-10.237
-13.081
-15.045
-15.974
-15.964
-15.097
-13.41
-11.016
-8.045
-4.606
-0.812
3.241
7.495
11.859
16.234
20.535
24.666
28.552
32.132
35.347
38.168
40.596
42.648
44.354
45.747
46.864
47.753
48.471
49.073
49.614
50.141
50.698
51.334
52.092
53.015
54.14
55.49
57.076
58.91
60.998
63.343
65.946
68.796
71.875
75.167
78.658
82.329
86.16
90.118
94.173
98.295
102.463
106.662
110.878
115.09
119.28
123.425
127.513
131.544
135.512
139.408
143.225
146.958
150.615
154.222
157.792
161.324
164.811
168.223
171.538
174.738
177.793
180.673
183.336
185.73
187.816
189.566
190.936
191.883
192.348
192.25
191.531
190.151
188.077
185.299
181.812
177.614
172.727
167.183
161.018
154.276
146.991
139.196
130.947
122.311
113.365
104.215
94.953
85.667
76.453
67.395
58.559
50.005
41.772
33.892
26.404
19.352
12.775
6.707
1.161
-3.864
-8.371
-12.386
-15.943
-19.084
-21.877
-24.375
-26.616
-28.629
-30.435
-32.052
-33.514
-34.86
-36.121
-37.32
-38.475
-39.596
-40.698
-41.785
-42.847
-43.86
-44.786
-45.598
-46.286
-46.845
-47.276
-47.581
-47.752
-47.785
-47.686
-47.462
-47.121
-46.671
-46.115
-45.463
-44.734
-43.956
-43.158
-42.365
-41.593
-40.854
-40.159
-39.517
-38.938
-38.425
-37.98
-37.6
-37.288
-37.044
-36.871
-36.768
-36.732
-36.756
-36.833
-36.959
-37.129
-37.338
-37.58
-37.852
-38.148
-38.467
-38.807
-39.163
-39.533
-39.912
-40.295
-40.678
-41.057
-41.428
-41.787
-42.128
-42.45
-42.75
-43.024
-43.272
-43.491
-43.68
-43.838
-43.964
-44.059
-44.122
-44.155
-44.157
-44.13
-44.076
-43.997
-43.894
-43.77
-43.627
-43.467
-43.292
-43.106
-42.91
-42.707
-42.499
-42.288
-42.078
-41.871
-41.668
-41.472
-41.286
-41.112
-40.951
-40.805
-40.675
-40.563
-40.469
-40.395
-40.34
-40.306
-40.291
-40.296
-40.321
-40.364
-40.425
-40.504
-40.598
-40.707
-40.829
-40.963
-41.107
-41.261
-41.421
-41.588
-41.758
-41.932
-42.107
-42.282
-42.456
-42.628
-42.797
-42.962
-43.123
-43.278
-43.428
-43.573
-43.712
-43.845
-43.973
-44.096
-44.214
-44.329
-44.442
-44.553
-44.663
-44.775
-44.889
-45.008
-45.132
-45.264
-45.406
-45.558
-45.723
-45.903
-46.1
-46.314
-46.549
-46.804
-47.081
-47.381
-47.703
-48.049
-48.418
-48.808
-49.22
-49.652
-50.102
-50.568
-51.049
-51.542
-52.044
-52.552
-53.064
-53.575
-54.082
-54.58
-55.066
-55.534
-55.981
-56.401
-56.79
-57.142
-57.453
-57.717
-57.929
-58.085
-58.178
-58.205
-58.16
-58.04
-57.842
-57.561
-57.197
-56.748
-56.215
-55.597
-54.898
-54.117
-53.259
-52.327
-51.323
-50.253
-49.12
-47.929
-46.686
-45.398
-44.072
-42.718
-41.344
-39.958
-38.57
-37.189
-35.825
-34.487
-33.183
-31.919
-30.705
-29.552
-28.472
-27.479
-26.579
-25.777
-25.073
-24.471
-23.967
-23.557
-23.231
-22.971
-22.763
-22.599
-22.473
-22.383
-22.315
-22.249
-22.164
-22.044
-21.876
-21.664
-21.406
-21.097
-20.744
-20.362
-19.981
-19.652
-19.418
-19.302
-19.333
-19.538
-19.959
-20.675
-21.752
-23.239
-25.166
-27.52
-30.299
-33.543
-37.265
-41.478
-46.164
-51.187
-56.453
-61.952
-67.559
-73.105
-78.317
-82.63
-85.555
-86.929
-86.601
-84.542
-80.987
-75.949
-69.738
-63.379
-57.798
-53.615
-51.018
-49.134
-46.726
-43.257
-38.708
-33.396
-27.538
-20.591
-10.749
4.503
27.616
60.748
103.887
154.494
207.534
256.382
294.367
314.618
311.855
282.237
224.565
142.903
44.99
-61.847
-174.466
-286.354
-387.343
-484.145
-592.557
-698.165
-759.685
-763.349
-736.836
-700.215
-649.212
-583.237
-510.348
-435.964
-362.571
-293.948
-235.309
-189.819
-157.616
-135.882
-120.009
-107.113
-96.416
-88.63
-84.404
-81.995
-79.39
-75.3
-68.783
-60.237
-50.406
-39.641
-28.901
-19.631
-12.647
-8.309
-6.601
-6.934
-8.781
-11.8
-15.406
-18.859
-21.648
-23.425
-24.046
-23.626
-22.261
-20.008
-16.985
-13.327
-9.155
-4.598
0.243
5.298
10.474
15.668
20.777
25.694
30.325
34.595
38.454
41.888
44.901
47.519
49.772
51.696
53.335
54.748
55.989
57.116
58.181
59.231
60.318
61.496
62.816
64.324
66.053
68.017
70.228
72.694
75.42
78.411
81.661
85.158
88.889
92.842
97.004
101.362
105.889
110.552
115.317
120.156
125.05
129.987
134.952
139.928
144.898
149.846
154.766
159.655
164.503
169.298
174.025
178.68
183.272
187.826
192.358
196.868
201.338
205.741
210.051
214.238
218.265
222.084
225.63
228.842
231.676
234.1
236.08
237.577
238.531
238.872
238.546
237.523
235.794
233.363
230.238
226.441
222.01
217.012
211.533
205.648
199.416
192.886
186.105
179.132
172.042
164.915
157.816
150.798
143.902
137.164
130.621
124.297
118.197
112.306
106.596
101.051
95.668
90.454
85.416
80.555
75.865
71.341
66.988
62.812
58.818
55.011
51.389
47.959
44.734
41.736
38.989
36.508
34.299
32.364
30.702
29.31
28.186
27.319
26.697
26.306
26.133
26.167
26.397
26.809
27.388
28.114
28.97
29.938
31.002
32.146
33.355
34.613
35.908
37.228
38.563
39.901
41.232
42.544
43.828
45.073
46.271
47.413
48.492
49.502
50.436
51.291
52.064
52.753
53.356
53.873
54.305
54.651
54.914
55.096
55.2
55.23
55.188
55.08
54.91
54.682
54.403
54.076
53.709
53.305
52.871
52.412
51.932
51.437
50.933
50.424
49.914
49.409
48.913
48.429
47.962
47.515
47.091
46.691
46.319
45.976
45.663
45.38
45.128
44.908
44.718
44.559
44.43
44.329
44.255
44.207
44.183
44.182
44.2
44.237
44.29
44.357
44.435
44.523
44.617
44.718
44.821
44.925
45.028
45.129
45.226
45.318
45.403
45.48
45.549
45.609
45.66
45.702
45.735
45.759
45.775
45.784
45.785
45.781
45.771
45.758
45.743
45.727
45.712
45.699
45.69
45.686
45.689
45.702
45.724
45.758
45.806
45.868
45.947
46.042
46.156
46.289
46.44
46.611
46.802
47.011
47.237
47.481
47.74
48.014
48.3
48.598
48.905
49.219
49.538
49.861
50.184
50.505
50.82
51.128
51.424
51.706
51.97
52.214
52.435
52.628
52.792
52.923
53.019
53.076
53.093
53.068
52.998
52.883
52.723
52.516
52.265
51.97
51.633
51.259
50.848
50.404
49.929
49.428
48.902
48.354
47.788
47.205
46.61
46.008
45.407
44.811
44.229
43.668
43.136
42.642
42.193
41.796
41.454
41.171
40.956
40.815
40.758
40.791
40.913
41.126
41.43
41.82
42.288
42.819
43.391
43.986
44.597
45.221
45.859
46.511
47.176
47.853
48.545
49.253
49.984
50.738
51.508
52.303
53.138
54.042
55.056
56.2
57.473
58.869
60.373
61.966
63.628
65.325
67.013
68.658
70.239
71.742
73.163
74.475
75.636
76.596
77.296
77.704
77.82
77.64
77.165
76.41
75.393
74.156
72.757
71.22
69.544
67.724
65.737
63.589
61.308
58.907
56.406
53.793
51.014
48.04
44.843
41.403
37.721
33.752
29.433
24.736
19.658
14.255
8.655
2.918
-2.962
-8.896
-14.747
-20.175
-24.597
-27.683
-29.351
-29.567
-28.332
-25.571
-21.152
-15.533
-9.867
-4.952
-1.198
1.679
4.898
9.121
14.487
21.046
28.249
35.687
43.936
54.209
69.248
92.81
126.504
169.753
218.673
266.484
307.744
336.407
346.149
332.122
289.595
219.282
128.431
26.162
-79.198
-184.773
-292.499
-403.198
-512.245
-609.06
-681.583
-720.991
-726.066
-702.179
-656.586
-597.307
-529.626
-456.679
-382.352
-310.334
-245.756
-193.156
-154.123
-127.273
-108.201
-93.496
-81.67
-72.743
-67.996
-66.535
-65.924
-64.335
-60.296
-53.579
-45.008
-35.174
-24.706
-14.744
-6.449
-0.507
2.83
3.79
2.901
0.597
-2.728
-6.487
-10.011
-12.829
-14.663
-15.446
-15.281
-14.253
-12.418
-9.88
-6.778
-3.238
0.621
4.702
8.945
13.269
17.579
21.779
25.774
29.48
32.829
35.783
38.325
40.461
42.217
43.62
44.709
45.531
46.143
46.601
46.956
47.258
47.551
47.883
48.306
48.865
49.601
50.545
51.714
53.123
54.782
56.697
58.863
61.272
63.906
66.748
69.781
72.985
76.332
79.797
83.349
86.964
90.622
94.308
98.004
101.694
105.355
108.973
112.545
116.072
119.551
122.983
126.368
129.71
133.033
136.351
139.673
143
146.314
149.587
152.791
155.893
158.856
161.638
164.18
166.414
168.284
169.739
170.732
171.214
171.114
170.361
168.899
166.684
163.699
159.953
155.458
150.239
144.337
137.795
130.68
123.079
115.059
106.681
97.994
89.044
79.911
70.687
61.468
52.337
43.351
34.55
25.967
17.63
9.557
1.76
-5.765
-13.042
-20.075
-26.851
-33.344
-39.52
-45.373
-50.927
-56.22
-61.28
-66.119
-70.741
-75.148
-79.35
-83.352
-87.149
-90.732
-94.076
-97.179
-100.052
-102.724
-105.23
-107.588
-109.793
-111.828
-113.686
-115.367
-116.875
-118.216
-119.387
-120.388
-121.232
-121.939
-122.533
-123.027
-123.429
-123.734
-123.94
-124.051
-124.081
-124.051
-123.974
-123.862
-123.728
-123.583
-123.442
-123.318
-123.214
-123.129
-123.063
-123.015
-122.988
-122.987
-123.014
-123.067
-123.145
-123.245
-123.363
-123.497
-123.642
-123.792
-123.942
-124.085
-124.219
-124.34
-124.446
-124.533
-124.597
-124.636
-124.645
-124.622
-124.565
-124.468
-124.33
-124.148
-123.919
-123.643
-123.318
-122.944
-122.519
-122.045
-121.521
-120.949
-120.329
-119.664
-118.955
-118.206
-117.418
-116.595
-115.741
-114.858
-113.951
-113.024
-112.08
-111.124
-110.161
-109.193
-108.226
-107.263
-106.308
-105.366
-104.439
-103.531
-102.646
-101.787
-100.956
-100.158
-99.393
-98.665
-97.975
-97.324
-96.715
-96.148
-95.623
-95.141
-94.702
-94.305
-93.95
-93.636
-93.361
-93.124
-92.924
-92.758
-92.623
-92.519
-92.442
-92.389
-92.357
-92.344
-92.345
-92.359
-92.382
-92.41
-92.441
-92.471
-92.497
-92.516
-92.526
-92.523
-92.505
-92.469
-92.412
-92.334
-92.231
-92.102
-91.946
-91.762
-91.548
-91.304
-91.031
-90.727
-90.393
-90.028
-89.634
-89.211
-88.76
-88.282
-87.778
-87.25
-86.7
-86.13
-85.543
-84.94
-84.324
-83.698
-83.064
-82.423
-81.779
-81.133
-80.488
-79.845
-79.206
-78.573
-77.947
-77.329
-76.72
-76.12
-75.529
-74.946
-74.371
-73.802
-73.238
-72.675
-72.113
-71.549
-70.983
-70.412
-69.834
-69.247
-68.649
-68.036
-67.404
-66.749
-66.063
-65.341
-64.578
-63.767
-62.907
-61.991
-61.015
-59.977
-58.877
-57.712
-56.482
-55.183
-53.805
-52.349
-50.815
-49.21
-47.546
-45.83
-44.069
-42.274
-40.46
-38.638
-36.817
-34.996
-33.162
-31.313
-29.452
-27.588
-25.743
-23.924
-22.128
-20.351
-18.588
-16.836
-15.098
-13.366
-11.612
-9.823
-8.001
-6.163
-4.352
-2.592
-0.883
0.778
2.402
3.986
5.507
6.947
8.302
9.563
10.733
11.796
12.701
13.424
13.961
14.322
14.553
14.668
14.645
14.469
14.119
13.586
12.885
12.02
10.966
9.71
8.216
6.45
4.427
2.143
-0.405
-3.196
-6.264
-9.63
-13.282
-17.222
-21.399
-25.702
-30.088
-34.57
-39.053
-43.387
-47.206
-49.926
-51.234
-51.089
-49.504
-46.5
-42.027
-36.031
-29.061
-22.361
-16.786
-12.716
-9.812
-6.95
-3.537
0.729
6.244
12.906
20.696
29.905
40.982
56.44
80.017
114.288
160.068
213.379
266.695
311.745
339.457
342.958
318.09
264.374
187.244
95.523
-1.763
-98.9
-196.903
-298.026
-398.483
-499.175
-600.849
-674.819
-692.956
-674.497
-644.336
-597.862
-533.5
-461.333
-387.399
-316.082
-252.283
-199.021
-157.652
-126.419
-101.272
-80.039
-62.182
-47.971
-39.013
-34.829
-32.573
-30.019
-25.504
-18.292
-8.956
1.707
13.204
24.601
34.472
42.041
46.977
49.227
49.295
47.669
44.684
40.937
37.194
33.953
31.552
30.168
29.723
30.172
31.504
33.615
36.384
39.698
43.444
47.532
51.902
56.471
61.132
65.786
70.326
74.665
78.729
82.453
85.8
88.756
91.329
93.548
95.443
97.052
98.421
99.603
100.651
101.618
102.552
103.5
104.511
105.63
106.901
108.365
110.05
111.971
114.136
116.551
119.216
122.136
125.303
128.703
132.322
136.144
140.152
144.334
148.663
153.108
157.636
162.213
166.816
171.435
176.051
180.646
185.201
189.692
194.11
198.458
202.732
206.923
211.027
215.034
218.954
222.818
226.643
230.436
234.187
237.862
241.438
244.897
248.214
251.355
254.271
256.889
259.159
261.049
262.518
263.524
263.997
263.845
263.002
261.43
259.113
256.066
252.292
247.787
242.571
236.687
230.2
223.194
215.724
207.818
199.528
190.921
182.101
173.193
164.285
155.439
146.699
138.101
129.691
121.52
113.617
105.979
98.599
91.463
84.589
78.019
71.766
65.818
60.128
54.647
49.351
44.239
39.311
34.56
29.973
25.536
21.255
17.15
13.237
9.522
5.987
2.604
-0.64
-3.731
-6.643
-9.353
-11.854
-14.152
-16.25
-18.142
-19.823
-21.297
-22.578
-23.688
-24.642
-25.444
-26.092
-26.58
-26.913
-27.107
-27.183
-27.156
-27.039
-26.841
-26.575
-26.256
-25.898
-25.507
-25.083
-24.628
-24.145
-23.641
-23.123
-22.599
-22.071
-21.541
-21.01
-20.48
-19.951
-19.423
-18.895
-18.365
-17.831
-17.296
-16.759
-16.223
-15.687
-15.153
-14.619
-14.086
-13.555
-13.026
-12.499
-11.972
-11.446
-10.923
-10.402
-9.884
-9.37
-8.862
-8.359
-7.864
-7.377
-6.9
-6.433
-5.978
-5.536
-5.109
-4.699
-4.307
-3.935
-3.584
-3.256
-2.953
-2.675
-2.425
-2.202
-2.008
-1.843
-1.707
-1.602
-1.526
-1.48
-1.463
-1.475
-1.514
-1.581
-1.674
-1.791
-1.931
-2.092
-2.272
-2.47
-2.684
-2.91
-3.147
-3.393
-3.646
-3.903
-4.161
-4.42
-4.676
-4.927
-5.172
-5.408
-5.635
-5.85
-6.052
-6.24
-6.415
-6.574
-6.718
-6.847
-6.961
-7.061
-7.147
-7.22
-7.282
-7.334
-7.377
-7.414
-7.447
-7.479
-7.511
-7.546
-7.588
-7.638
-7.7
-7.777
-7.872
-7.987
-8.127
-8.292
-8.487
-8.714
-8.975
-9.272
-9.607
-9.981
-10.394
-10.848
-11.342
-11.876
-12.449
-13.06
-13.707
-14.388
-15.101
-15.844
-16.612
-17.403
-18.212
-19.035
-19.868
-20.704
-21.539
-22.367
-23.182
-23.978
-24.749
-25.488
-26.189
-26.845
-27.45
-27.996
-28.478
-28.888
-29.222
-29.475
-29.641
-29.717
-29.7
-29.588
-29.38
-29.077
-28.679
-28.186
-27.6
-26.924
-26.161
-25.314
-24.386
-23.382
-22.308
-21.172
-19.982
-18.746
-17.474
-16.173
-14.854
-13.527
-12.204
-10.893
-9.601
-8.338
-7.115
-5.949
-4.854
-3.84
-2.914
-2.077
-1.333
-0.685
-0.131
0.336
0.73
1.064
1.346
1.576
1.754
1.888
1.992
2.089
2.198
2.329
2.48
2.649
2.839
3.05
3.273
3.482
3.636
3.693
3.627
3.422
3.06
2.511
1.723
0.619
-0.859
-2.748
-5.058
-7.769
-10.901
-14.492
-18.562
-23.132
-28.14
-33.439
-38.96
-44.692
-50.518
-56.295
-61.668
-66.011
-68.981
-70.524
-70.596
-69.281
-66.652
-62.541
-57.313
-52.057
-47.439
-43.805
-41.248
-38.822
-35.491
-31.206
-25.224
-16.675
-6.437
5.442
19.048
33.993
53.222
80.343
116.651
161.76
210.996
256.754
291.825
308.989
302.782
269.853
209.989
128.68
33.537
-68.27
-172.143
-278.758
-388.537
-496.311
-592.907
-667.055
-709.247
-718.313
-698.886
-656.891
-600.396
-535.253
-465.467
-396.041
-330.565
-272.427
-224.113
-186.026
-156.788
-133.26
-113.513
-97.262
-85.039
-78.049
-75.456
-74.329
-72.413
-68.328
-61.722
-53.367
-43.899
-33.653
-23.477
-14.662
-8.014
-3.864
-2.155
-2.349
-3.967
-6.695
-10.001
-13.202
-15.826
-17.574
-18.31
-18.129
-17.113
-15.293
-12.775
-9.689
-6.144
-2.257
1.874
6.194
10.621
15.056
19.417
23.614
27.571
31.231
34.543
37.476
40.029
42.218
44.068
45.617
46.9
47.964
48.862
49.647
50.368
51.074
51.806
52.607
53.522
54.588
55.841
57.307
58.998
60.921
63.079
65.473
68.102
70.965
74.048
77.34
80.826
84.494
88.327
92.306
96.401
100.576
104.801
109.054
113.317
117.58
121.83
126.049
130.223
134.339
138.385
142.352
146.227
149.99
153.633
157.156
160.574
163.916
167.194
170.399
173.514
176.509
179.356
182.027
184.483
186.679
188.578
190.151
191.381
192.26
192.763
192.848
192.458
191.516
189.969
187.795
184.987
181.552
177.51
172.885
167.724
162.089
156.025
149.561
142.713
135.489
127.925
120.084
112.048
103.919
95.795
87.747
79.837
72.117
64.621
57.378
50.396
43.67
37.213
31.061
25.264
19.87
14.908
10.376
6.254
2.508
-0.914
-4.051
-6.938
-9.603
-12.064
-14.329
-16.4
-18.271
-19.948
-21.456
-22.833
-24.114
-25.33
-26.49
-27.596
-28.637
-29.589
-30.431
-31.147
-31.723
-32.158
-32.455
-32.623
-32.674
-32.621
-32.468
-32.212
-31.85
-31.381
-30.81
-30.149
-29.413
-28.622
-27.8
-26.966
-26.138
-25.327
-24.542
-23.789
-23.07
-22.386
-21.737
-21.125
-20.554
-20.026
-19.544
-19.105
-18.709
-18.351
-18.027
-17.733
-17.463
-17.214
-16.983
-16.766
-16.562
-16.369
-16.187
-16.013
-15.847
-15.684
-15.524
-15.363
-15.199
-15.03
-14.853
-14.668
-14.471
-14.263
-14.043
-13.81
-13.563
-13.302
-13.029
-12.742
-12.443
-12.133
-11.813
-11.483
-11.146
-10.804
-10.457
-10.108
-9.758
-9.41
-9.065
-8.724
-8.39
-8.065
-7.749
-7.443
-7.15
-6.871
-6.606
-6.356
-6.123
-5.906
-5.708
-5.527
-5.366
-5.222
-5.097
-4.99
-4.901
-4.828
-4.771
-4.729
-4.701
-4.686
-4.682
-4.689
-4.704
-4.726
-4.754
-4.786
-4.821
-4.856
-4.891
-4.923
-4.953
-4.977
-4.995
-5.006
-5.009
-5.002
-4.985
-4.957
-4.918
-4.868
-4.805
-4.731
-4.645
-4.548
-4.44
-4.322
-4.195
-4.059
-3.915
-3.765
-3.61
-3.451
-3.291
-3.129
-2.969
-2.812
-2.659
-2.512
-2.374
-2.245
-2.128
-2.025
-1.936
-1.865
-1.812
-1.78
-1.769
-1.78
-1.815
-1.874
-1.959
-2.067
-2.201
-2.358
-2.539
-2.742
-2.966
-3.208
-3.468
-3.742
-4.029
-4.326
-4.629
-4.936
-5.243
-5.547
-5.844
-6.13
-6.4
-6.651
-6.879
-7.079
-7.246
-7.377
-7.466
-7.508
-7.501
-7.438
-7.317
-7.132
-6.882
-6.562
-6.171
-5.708
-5.171
-4.561
-3.879
-3.126
-2.304
-1.417
-0.467
0.542
1.606
2.721
3.881
5.082
6.316
7.577
8.857
10.148
11.444
12.735
14.013
15.27
16.5
17.693
18.844
19.942
20.978
21.944
22.83
23.628
24.338
24.955
25.48
25.916
26.269
26.549
26.771
26.943
27.075
27.176
27.254
27.328
27.414
27.526
27.68
27.888
28.147
28.467
28.846
29.269
29.725
30.182
30.593
30.929
31.155
31.23
31.119
30.758
30.078
29.029
27.567
25.683
23.372
20.587
17.296
13.475
9.105
4.282
-0.9
-6.432
-12.182
-17.96
-23.515
-28.31
-31.86
-34.023
-34.641
-33.645
-31.296
-27.657
-22.974
-18.206
-14.206
-11.376
-10.09
-9.871
-9.275
-7.59
-4.027
2.363
11.08
21.773
34.671
50.02
69.986
97.702
134.763
181.071
232.531
282.315
324.008
350.207
355.404
335.732
288.013
215.158
124.159
23.158
-80.121
-184.559
-291.598
-397.978
-503.974
-608.281
-685.716
-712.042
-702.349
-678.01
-636.381
-577.146
-508.283
-433.691
-357.155
-283.613
-218.869
-167.777
-131.091
-106.329
-89.054
-75.932
-65.439
-57.727
-53.485
-51.09
-48.575
-44.635
-37.991
-28.775
-17.977
-6.187
5.505
15.483
22.989
27.714
29.562
29.058
26.734
22.957
18.374
13.801
9.753
6.58
4.476
3.364
3.2
3.978
5.588
7.899
10.794
14.147
17.867
21.891
26.128
30.468
34.804
39.022
43.032
46.757
50.125
53.099
55.662
57.82
59.6
61.033
62.157
63.02
63.678
64.186
64.601
64.974
65.353
65.79
66.335
67.031
67.923
69.035
70.384
71.98
73.826
75.927
78.285
80.895
83.742
86.811
90.091
93.567
97.223
101.032
104.961
108.974
113.043
117.148
121.279
125.418
129.551
133.659
137.726
141.747
145.721
149.638
153.486
157.253
160.935
164.544
168.106
171.64
175.148
178.614
182.012
185.318
188.503
191.532
194.357
196.914
199.143
201.001
202.456
203.477
204.023
204.036
203.445
202.195
200.259
197.627
194.304
190.299
185.633
180.349
174.511
168.21
161.521
154.505
147.209
139.683
131.985
124.19
116.379
108.618
100.957
93.439
86.098
78.969
72.075
65.42
58.986
52.743
46.671
40.767
35.034
29.477
24.096
18.882
13.829
8.939
4.217
-0.335
-4.713
-8.921
-12.953
-16.798
-20.433
-23.837
-26.994
-29.899
-32.55
-34.95
-37.099
-39.002
-40.667
-42.108
-43.339
-44.369
-45.211
-45.873
-46.367
-46.709
-46.915
-47.002
-46.985
-46.878
-46.694
-46.448
-46.15
-45.813
-45.444
-45.052
-44.644
-44.229
-43.815
-43.41
-43.02
-42.653
-42.313
-42.006
-41.737
-41.507
-41.321
-41.178
-41.08
-41.026
-41.015
-41.048
-41.121
-41.233
-41.381
-41.563
-41.776
-42.015
-42.278
-42.561
-42.859
-43.17
-43.489
-43.812
-44.137
-44.458
-44.774
-45.081
-45.377
-45.658
-45.922
-46.166
-46.39
-46.59
-46.764
-46.913
-47.033
-47.126
-47.19
-47.226
-47.233
-47.213
-47.165
-47.091
-46.993
-46.87
-46.725
-46.559
-46.374
-46.17
-45.951
-45.717
-45.471
-45.214
-44.947
-44.673
-44.393
-44.109
-43.821
-43.532
-43.242
-42.953
-42.666
-42.381
-42.101
-41.825
-41.554
-41.288
-41.029
-40.776
-40.53
-40.29
-40.056
-39.829
-39.609
-39.394
-39.185
-38.983
-38.785
-38.592
-38.405
-38.222
-38.042
-37.867
-37.696
-37.528
-37.364
-37.202
-37.044
-36.889
-36.738
-36.589
-36.443
-36.301
-36.163
-36.029
-35.899
-35.774
-35.655
-35.542
-35.436
-35.338
-35.248
-35.168
-35.099
-35.041
-34.996
-34.964
-34.946
-34.944
-34.958
-34.991
-35.042
-35.112
-35.204
-35.317
-35.452
-35.611
-35.794
-36.001
-36.234
-36.493
-36.779
-37.091
-37.43
-37.796
-38.188
-38.605
-39.047
-39.513
-40
-40.506
-41.03
-41.569
-42.121
-42.684
-43.253
-43.826
-44.399
-44.97
-45.533
-46.085
-46.621
-47.138
-47.63
-48.092
-48.521
-48.912
-49.258
-49.557
-49.801
-49.987
-50.109
-50.163
-50.143
-50.045
-49.866
-49.601
-49.248
-48.805
-48.27
-47.643
-46.925
-46.117
-45.22
-44.237
-43.171
-42.024
-40.801
-39.506
-38.142
-36.714
-35.23
-33.697
-32.123
-30.518
-28.89
-27.249
-25.603
-23.963
-22.34
-20.742
-19.175
-17.648
-16.171
-14.76
-13.428
-12.187
-11.04
-9.99
-9.037
-8.181
-7.419
-6.741
-6.131
-5.575
-5.063
-4.593
-4.167
-3.78
-3.419
-3.063
-2.69
-2.289
-1.861
-1.407
-0.933
-0.442
0.052
0.52
0.919
1.204
1.344
1.327
1.138
0.756
0.136
-0.792
-2.089
-3.796
-5.931
-8.476
-11.428
-14.81
-18.622
-22.86
-27.486
-32.373
-37.444
-42.7
-48.039
-53.305
-58.233
-62.276
-64.957
-66.122
-65.633
-63.464
-59.849
-54.815
-48.675
-42.459
-37.107
-33.239
-31.035
-29.624
-27.773
-24.952
-21.145
-16.666
-11.713
-5.73
3.082
17.213
39.115
70.98
112.825
162.188
214.044
261.72
298.651
317.955
314.432
284.418
226.531
145.101
47.415
-59.077
-168.2
-279.06
-391.501
-499.029
-599.663
-692.829
-754.835
-764.467
-739.329
-700.587
-646.925
-578.648
-503.671
-427.199
-351.599
-280.461
-219.315
-171.893
-138.776
-117.253
-102.259
-90.375
-80.447
-73.035
-68.954
-66.586
-63.936
-59.696
-52.843
-43.767
-33.275
-21.782
-10.31
-0.337
7.309
12.272
14.57
14.782
13.441
10.894
7.713
4.63
2.136
0.55
0.023
0.454
1.751
3.871
6.699
10.093
13.939
18.117
22.526
27.108
31.776
36.429
40.981
45.337
49.419
53.17
56.532
59.477
62.004
64.131
65.886
67.308
68.437
69.322
70.024
70.6
71.105
71.593
72.108
72.701
73.419
74.301
75.387
76.7
78.254
80.059
82.121
84.442
87.025
89.866
92.95
96.266
99.801
103.536
107.452
111.518
115.702
119.975
124.314
128.7
133.124
137.57
142.026
146.481
150.917
155.317
159.67
163.953
168.152
172.257
176.268
180.196
184.062
187.866
191.6
195.246
198.769
202.134
205.298
208.206
210.812
213.081
214.976
216.476
217.561
218.197
218.348
217.966
216.992
215.396
213.159
210.273
206.761
202.652
197.991
192.852
187.3
181.386
175.164
168.67
161.938
155.018
147.962
140.826
133.681
126.581
119.573
112.7
105.988
99.447
93.081
86.867
80.788
74.839
69.02
63.339
57.81
52.436
47.224
42.181
37.304
32.594
28.051
23.673
19.463
15.432
11.593
7.968
4.576
1.43
-1.465
-4.105
-6.496
-8.639
-10.541
-12.214
-13.666
-14.907
-15.945
-16.787
-17.443
-17.924
-18.244
-18.417
-18.458
-18.382
-18.202
-17.93
-17.579
-17.16
-16.682
-16.154
-15.584
-14.98
-14.35
-13.704
-13.05
-12.395
-11.747
-11.112
-10.497
-9.907
-9.346
-8.818
-8.325
-7.87
-7.455
-7.081
-6.749
-6.459
-6.21
-6.003
-5.837
-5.709
-5.619
-5.565
-5.545
-5.556
-5.595
-5.661
-5.751
-5.861
-5.99
-6.135
-6.294
-6.464
-6.643
-6.828
-7.017
-7.208
-7.399
-7.587
-7.77
-7.947
-8.115
-8.275
-8.424
-8.561
-8.687
-8.799
-8.899
-8.985
-9.058
-9.117
-9.163
-9.196
-9.217
-9.226
-9.224
-9.211
-9.19
-9.161
-9.125
-9.084
-9.038
-8.989
-8.938
-8.886
-8.836
-8.788
-8.743
-8.703
-8.67
-8.645
-8.629
-8.622
-8.628
-8.645
-8.676
-8.72
-8.78
-8.855
-8.946
-9.054
-9.179
-9.322
-9.483
-9.661
-9.857
-10.071
-10.3
-10.546
-10.808
-11.083
-11.373
-11.674
-11.987
-12.31
-12.642
-12.98
-13.324
-13.672
-14.021
-14.371
-14.72
-15.066
-15.407
-15.743
-16.073
-16.394
-16.706
-17.009
-17.3
-17.579
-17.845
-18.098
-18.335
-18.557
-18.763
-18.954
-19.127
-19.286
-19.428
-19.556
-19.67
-19.77
-19.858
-19.934
-20.001
-20.058
-20.107
-20.149
-20.187
-20.221
-20.254
-20.285
-20.315
-20.346
-20.377
-20.409
-20.44
-20.47
-20.496
-20.519
-20.536
-20.547
-20.551
-20.545
-20.531
-20.507
-20.473
-20.426
-20.366
-20.288
-20.188
-20.062
-19.904
-19.709
-19.472
-19.189
-18.855
-18.468
-18.027
-17.528
-16.968
-16.342
-15.645
-14.873
-14.025
-13.102
-12.111
-11.059
-9.962
-8.832
-7.687
-6.536
-5.388
-4.244
-3.101
-1.954
-0.796
0.373
1.548
2.722
3.889
5.049
6.205
7.373
8.569
9.816
11.137
12.544
14.041
15.622
17.265
18.941
20.61
22.246
23.838
25.384
26.885
28.332
29.71
30.991
32.148
33.153
33.973
34.592
34.993
35.171
35.144
34.943
34.615
34.188
33.666
33.031
32.258
31.33
30.244
29.003
27.6
26.013
24.213
22.168
19.861
17.283
14.439
11.298
7.796
3.892
-0.439
-5.169
-10.177
-15.391
-20.815
-26.329
-31.752
-36.794
-40.901
-43.618
-44.831
-44.412
-42.293
-38.706
-33.686
-27.509
-21.237
-15.82
-11.757
-9.488
-8.45
-7.101
-4.88
-1.025
5.35
13.369
22.941
34.71
49.187
69.492
99.174
139.493
189.454
243.329
292.811
329.935
346.867
338.773
302.712
238.336
151.393
49.573
-59.367
-170.013
-282.378
-393.332
-500.912
-611.814
-709.647
-753.898
-742.941
-712.242
-673.307
-617.66
-547.452
-470.906
-393.175
-318.124
-251.451
-197.672
-157.895
-130.215
-110.138
-94.411
-81.757
-72.407
-67.613
-66.301
-65.837
-64.219
-59.915
-52.724
-43.541
-33.02
-21.837
-11.177
-2.251
4.216
7.95
9.181
8.458
6.241
2.944
-0.819
-4.351
-7.16
-8.951
-9.647
-9.349
-8.137
-6.066
-3.238
0.204
4.129
8.413
12.953
17.684
22.519
27.355
32.091
36.623
40.863
44.739
48.211
51.259
53.889
56.122
57.988
59.522
60.774
61.797
62.649
63.384
64.052
64.7
65.378
66.139
67.032
68.099
69.371
70.867
72.594
74.559
76.764
79.21
81.896
84.811
87.942
91.279
94.81
98.522
102.394
106.397
110.493
114.652
118.852
123.072
127.303
131.53
135.738
139.914
144.045
148.123
152.139
156.08
159.926
163.669
167.307
170.852
174.332
177.758
181.122
184.41
187.597
190.65
193.541
196.223
198.641
200.747
202.497
203.859
204.816
205.336
205.38
204.897
203.822
202.114
199.755
196.739
193.074
188.783
183.897
178.473
172.594
166.328
159.736
152.868
145.759
138.457
131.022
123.518
116.018
108.585
101.261
94.089
87.105
80.329
73.776
67.437
61.28
55.289
49.458
43.788
38.289
32.966
27.818
22.843
18.041
13.411
8.955
4.674
0.563
-3.372
-7.124
-10.677
-14.007
-17.098
-19.944
-22.54
-24.891
-26.998
-28.868
-30.507
-31.929
-33.146
-34.17
-35.01
-35.675
-36.177
-36.53
-36.749
-36.851
-36.851
-36.764
-36.603
-36.381
-36.109
-35.8
-35.461
-35.1
-34.724
-34.342
-33.96
-33.586
-33.226
-32.888
-32.574
-32.292
-32.044
-31.833
-31.662
-31.531
-31.44
-31.389
-31.378
-31.404
-31.467
-31.563
-31.689
-31.844
-32.022
-32.222
-32.438
-32.668
-32.906
-33.149
-33.393
-33.635
-33.87
-34.095
-34.308
-34.505
-34.684
-34.843
-34.98
-35.092
-35.18
-35.24
-35.273
-35.278
-35.255
-35.203
-35.123
-35.017
-34.885
-34.729
-34.55
-34.35
-34.132
-33.898
-33.65
-33.391
-33.123
-32.849
-32.572
-32.294
-32.018
-31.747
-31.483
-31.228
-30.984
-30.754
-30.539
-30.341
-30.16
-29.999
-29.858
-29.738
-29.64
-29.563
-29.508
-29.476
-29.465
-29.474
-29.504
-29.553
-29.621
-29.705
-29.805
-29.92
-30.047
-30.186
-30.335
-30.491
-30.653
-30.819
-30.988
-31.158
-31.328
-31.495
-31.66
-31.82
-31.976
-32.126
-32.271
-32.409
-32.539
-32.663
-32.78
-32.889
-32.99
-33.084
-33.172
-33.253
-33.33
-33.403
-33.472
-33.54
-33.608
-33.676
-33.746
-33.82
-33.898
-33.982
-34.073
-34.174
-34.284
-34.406
-34.539
-34.685
-34.844
-35.014
-35.197
-35.389
-35.591
-35.8
-36.013
-36.229
-36.445
-36.659
-36.869
-37.074
-37.271
-37.458
-37.634
-37.795
-37.938
-38.059
-38.152
-38.211
-38.231
-38.206
-38.133
-38.007
-37.823
-37.578
-37.271
-36.898
-36.458
-35.945
-35.353
-34.677
-33.918
-33.081
-32.173
-31.208
-30.194
-29.146
-28.078
-27.003
-25.925
-24.847
-23.76
-22.656
-21.536
-20.402
-19.267
-18.144
-17.034
-15.937
-14.85
-13.759
-12.649
-11.508
-10.31
-9.043
-7.714
-6.339
-4.953
-3.597
-2.3
-1.079
0.06
1.12
2.102
2.998
3.803
4.495
5.051
5.445
5.644
5.628
5.408
5.001
4.446
3.797
3.095
2.362
1.611
0.832
0.003
-0.896
-1.883
-2.964
-4.14
-5.412
-6.788
-8.307
-10.016
-11.967
-14.2
-16.738
-19.635
-22.936
-26.683
-30.896
-35.508
-40.381
-45.438
-50.675
-55.995
-61.256
-66.11
-69.963
-72.475
-73.587
-73.272
-71.497
-68.218
-63.368
-57.363
-51.355
-46.181
-42.094
-39.047
-36.286
-32.878
-28.389
-21.821
-12.282
-0.684
12.014
24.976
38.711
57.56
86.428
127.951
180.566
237.073
286.807
318.922
324.8
299.442
243.834
164.53
70.989
-27.142
-124.627
-222.659
-323.516
-424.448
-525.152
-624.193
-696.726
-718.875
-705.542
-677.122
-631.237
-568.304
-497.642
-425.094
-355.169
-292.455
-239.827
-198.705
-167.537
-142.538
-121.634
-104.212
-90.389
-81.631
-77.428
-74.998
-72.197
-67.418
-59.956
-50.403
-39.575
-27.989
-16.584
-6.771
0.689
5.478
7.549
7.412
5.563
2.342
-1.653
-5.663
-9.191
-11.894
-13.583
-14.329
-14.166
-13.099
-11.225
-8.659
-5.507
-1.882
2.126
6.456
11.019
15.712
20.434
25.077
29.549
33.77
37.668
41.201
44.351
47.122
49.535
51.618
53.405
54.943
56.285
57.483
58.589
59.65
60.711
61.822
63.027
64.372
65.897
67.629
69.587
71.783
74.225
76.921
79.869
83.06
86.477
90.107
93.93
97.931
102.087
106.368
110.748
115.2
119.703
124.24
128.788
133.326
137.833
142.287
146.67
150.979
155.209
159.358
163.435
167.449
171.419
175.373
179.324
183.274
187.22
191.144
195.04
198.897
202.693
206.407
210.01
213.459
216.716
219.734
222.442
224.771
226.639
227.953
228.648
228.672
227.985
226.559
224.361
221.36
217.555
212.95
207.557
201.401
194.498
186.885
178.638
169.834
160.567
150.948
141.066
131.002
120.848
110.685
100.609
90.723
81.099
71.799
62.891
54.429
46.485
39.112
32.32
26.119
20.5
15.439
10.927
6.948
3.465
0.436
-2.193
-4.494
-6.516
-8.298
-9.888
-11.329
-12.68
-13.988
-15.276
-16.559
-17.846
-19.142
-20.457
-21.798
-23.15
-24.494
-25.805
-27.044
-28.191
-29.231
-30.149
-30.931
-31.561
-32.027
-32.329
-32.477
-32.477
-32.339
-32.07
-31.674
-31.171
-30.582
-29.929
-29.239
-28.531
-27.819
-27.117
-26.436
-25.786
-25.176
-24.606
-24.076
-23.585
-23.132
-22.719
-22.347
-22.013
-21.713
-21.444
-21.2
-20.979
-20.779
-20.596
-20.427
-20.271
-20.128
-19.996
-19.875
-19.767
-19.668
-19.578
-19.495
-19.417
-19.342
-19.269
-19.194
-19.118
-19.038
-18.952
-18.862
-18.765
-18.661
-18.549
-18.43
-18.303
-18.168
-18.025
-17.875
-17.718
-17.554
-17.384
-17.209
-17.03
-16.847
-16.66
-16.471
-16.281
-16.089
-15.897
-15.705
-15.514
-15.325
-15.139
-14.957
-14.78
-14.609
-14.445
-14.29
-14.146
-14.012
-13.891
-13.784
-13.691
-13.615
-13.556
-13.515
-13.493
-13.492
-13.513
-13.555
-13.621
-13.711
-13.825
-13.963
-14.127
-14.315
-14.528
-14.764
-15.025
-15.308
-15.613
-15.938
-16.284
-16.647
-17.027
-17.421
-17.828
-18.244
-18.668
-19.096
-19.526
-19.953
-20.376
-20.789
-21.19
-21.574
-21.937
-22.276
-22.586
-22.862
-23.101
-23.299
-23.451
-23.554
-23.605
-23.601
-23.54
-23.42
-23.241
-23.002
-22.704
-22.347
-21.932
-21.462
-20.937
-20.36
-19.733
-19.058
-18.339
-17.579
-16.784
-15.96
-15.11
-14.242
-13.362
-12.476
-11.591
-10.714
-9.848
-8.998
-8.173
-7.38
-6.629
-5.928
-5.284
-4.698
-4.173
-3.708
-3.301
-2.945
-2.63
-2.337
-2.057
-1.781
-1.502
-1.215
-0.906
-0.556
-0.149
0.331
0.895
1.541
2.274
3.095
3.99
4.944
5.92
6.865
7.739
8.51
9.138
9.594
9.822
9.739
9.285
8.397
7.043
5.233
2.937
0.116
-3.247
-7.178
-11.62
-16.417
-21.481
-26.791
-32.23
-37.658
-42.715
-46.788
-49.522
-50.835
-50.698
-49.133
-46.083
-41.428
-35.622
-29.819
-24.831
-21.018
-18.066
-14.862
-10.755
-5.553
0.864
8.531
17.423
27.603
39.836
55.65
77.732
108.785
149.195
196.469
245.376
289.337
321.195
333.72
320.767
278.139
207.312
115.829
13.293
-91.686
-196.923
-304.156
-411.129
-519.108
-627.486
-710.008
-740.707
-732.803
-706.037
-658.602
-592.104
-517.173
-440.746
-366.862
-299.17
-241.217
-194.868
-159.785
-133.802
-113.706
-97.83
-85.451
-76.772
-71.972
-68.886
-65.321
-59.951
-51.701
-40.844
-28.391
-14.944
-1.57
10.141
19.412
25.92
29.561
30.832
30.23
28.09
25.038
21.853
19.02
16.865
15.549
15
15.216
16.221
17.935
20.253
23.062
26.252
29.754
33.519
37.472
41.516
45.549
49.477
53.235
56.768
60.031
62.985
65.586
67.821
69.702
71.248
72.498
73.494
74.274
74.894
75.411
75.881
76.359
76.893
77.521
78.281
79.209
80.333
81.685
83.285
85.148
87.284
89.697
92.382
95.331
98.529
101.954
105.587
109.403
113.369
117.456
121.635
125.883
130.187
134.529
138.89
143.249
147.584
151.879
156.134
160.342
164.49
168.575
172.587
176.535
180.445
184.333
188.204
192.049
195.832
199.526
203.108
206.544
209.8
212.826
215.559
217.957
219.995
221.638
222.853
223.583
223.74
223.262
222.102
220.227
217.639
214.34
210.325
205.625
200.282
194.347
187.89
180.95
173.537
165.688
157.446
148.879
140.095
131.184
122.226
113.311
104.503
95.862
87.45
79.294
71.405
63.797
56.473
49.468
42.845
36.637
30.867
25.546
20.646
16.145
12.018
8.21
4.677
1.388
-1.691
-4.569
-7.24
-9.713
-11.996
-14.107
-16.09
-17.974
-19.778
-21.522
-23.208
-24.831
-26.38
-27.821
-29.123
-30.267
-31.24
-32.041
-32.679
-33.156
-33.474
-33.64
-33.646
-33.494
-33.184
-32.714
-32.091
-31.326
-30.435
-29.446
-28.384
-27.269
-26.117
-24.939
-23.743
-22.536
-21.324
-20.109
-18.894
-17.683
-16.48
-15.291
-14.121
-12.972
-11.843
-10.734
-9.643
-8.57
-7.514
-6.475
-5.456
-4.457
-3.48
-2.53
-1.61
-0.723
0.131
0.948
1.729
2.471
3.174
3.837
4.459
5.04
5.577
6.071
6.519
6.92
7.274
7.579
7.834
8.039
8.192
8.292
8.339
8.333
8.272
8.158
7.989
7.766
7.49
7.161
6.78
6.349
5.87
5.343
4.772
4.158
3.504
2.812
2.085
1.326
0.537
-0.279
-1.118
-1.979
-2.857
-3.75
-4.654
-5.567
-6.484
-7.403
-8.321
-9.234
-10.14
-11.035
-11.918
-12.785
-13.634
-14.463
-15.271
-16.055
-16.813
-17.546
-18.251
-18.927
-19.574
-20.191
-20.777
-21.331
-21.853
-22.342
-22.798
-23.22
-23.609
-23.964
-24.285
-24.571
-24.822
-25.039
-25.22
-25.366
-25.475
-25.548
-25.584
-25.583
-25.543
-25.464
-25.346
-25.186
-24.985
-24.741
-24.451
-24.115
-23.732
-23.298
-22.815
-22.28
-21.692
-21.053
-20.361
-19.618
-18.825
-17.985
-17.099
-16.17
-15.199
-14.191
-13.148
-12.073
-10.969
-9.839
-8.689
-7.524
-6.352
-5.176
-4.004
-2.842
-1.696
-0.574
0.517
1.573
2.591
3.564
4.485
5.341
6.123
6.822
7.439
7.974
8.424
8.795
9.091
9.324
9.514
9.675
9.818
9.946
10.061
10.173
10.3
10.464
10.683
10.973
11.334
11.766
12.277
12.858
13.494
14.154
14.79
15.356
15.824
16.171
16.37
16.393
16.184
15.667
14.785
13.485
11.749
9.589
6.976
3.885
0.307
-3.768
-8.262
-13.028
-17.995
-23.147
-28.382
-33.556
-38.306
-42.009
-44.313
-45.141
-44.475
-42.347
-38.713
-33.471
-27.096
-20.791
-15.398
-11.263
-8.06
-4.64
-0.32
5.099
11.772
19.836
29.381
40.54
54.083
71.399
94.925
127.223
168.672
216.795
266.465
311.109
343.551
356.731
344.708
303.384
233.871
143.378
41.375
-63.833
-169.037
-276.298
-387.261
-497.907
-598.261
-676.104
-721.361
-731.85
-712.213
-669.068
-610.621
-542.629
-468.677
-392.892
-319.151
-252.557
-197.365
-155.629
-126.154
-104.127
-86.094
-70.705
-58.267
-50.892
-48.292
-47.55
-46.282
-42.701
-36.276
-27.904
-18.307
-7.908
2.354
11.126
17.55
21.266
22.337
21.35
18.824
15.103
10.751
6.484
2.794
-0.005
-1.773
-2.614
-2.617
-1.821
-0.339
1.695
4.168
6.963
9.984
13.176
16.454
19.717
22.885
25.866
28.586
30.989
33.02
34.649
35.88
36.731
37.235
37.432
37.36
37.073
36.629
36.088
35.506
34.934
34.418
34.006
33.744
33.677
33.845
34.273
34.977
35.968
37.254
38.84
40.727
42.903
45.352
48.058
51.002
54.167
57.532
61.065
64.735
68.514
72.374
76.298
80.269
84.265
88.265
92.245
96.188
100.09
103.95
107.762
111.521
115.229
118.888
122.523
126.145
129.755
133.349
136.908
140.407
143.828
147.148
150.336
153.359
156.168
158.709
160.941
162.816
164.276
165.264
165.701
165.52
164.682
163.145
160.884
157.889
154.154
149.682
144.5
138.634
132.114
124.995
117.319
109.141
100.539
91.592
82.394
73.043
63.623
54.223
44.943
35.859
27.036
18.536
10.394
2.655
-4.624
-11.417
-17.696
-23.445
-28.671
-33.383
-37.591
-41.33
-44.635
-47.554
-50.157
-52.497
-54.607
-56.526
-58.276
-59.89
-61.42
-62.896
-64.336
-65.76
-67.173
-68.584
-70.008
-71.438
-72.855
-74.236
-75.542
-76.745
-77.837
-78.807
-79.65
-80.357
-80.913
-81.315
-81.57
-81.683
-81.663
-81.514
-81.238
-80.847
-80.362
-79.805
-79.204
-78.578
-77.94
-77.303
-76.676
-76.07
-75.491
-74.945
-74.429
-73.943
-73.488
-73.066
-72.68
-72.327
-72.006
-71.712
-71.441
-71.19
-70.957
-70.74
-70.537
-70.345
-70.165
-69.996
-69.839
-69.694
-69.559
-69.434
-69.317
-69.206
-69.099
-68.996
-68.894
-68.791
-68.686
-68.578
-68.466
-68.35
-68.228
-68.099
-67.964
-67.821
-67.671
-67.514
-67.349
-67.176
-66.996
-66.808
-66.613
-66.411
-66.201
-65.984
-65.759
-65.527
-65.287
-65.04
-64.784
-64.52
-64.247
-63.967
-63.679
-63.384
-63.081
-62.771
-62.454
-62.132
-61.804
-61.47
-61.132
-60.79
-60.443
-60.093
-59.741
-59.385
-59.028
-58.67
-58.311
-57.952
-57.595
-57.239
-56.886
-56.537
-56.193
-55.854
-55.523
-55.2
-54.886
-54.582
-54.289
-54.009
-53.74
-53.485
-53.243
-53.013
-52.797
-52.593
-52.401
-52.221
-52.051
-51.892
-51.741
-51.598
-51.461
-51.329
-51.2
-51.072
-50.942
-50.809
-50.67
-50.522
-50.364
-50.191
-50.002
-49.792
-49.56
-49.3
-49.011
-48.69
-48.332
-47.936
-47.5
-47.02
-46.497
-45.928
-45.315
-44.658
-43.957
-43.215
-42.433
-41.613
-40.758
-39.87
-38.951
-38.005
-37.033
-36.043
-35.037
-34.023
-33.005
-31.99
-30.984
-29.994
-29.025
-28.083
-27.172
-26.297
-25.463
-24.679
-23.952
-23.291
-22.701
-22.184
-21.738
-21.362
-21.053
-20.802
-20.597
-20.42
-20.259
-20.105
-19.952
-19.797
-19.626
-19.42
-19.162
-18.833
-18.424
-17.933
-17.361
-16.704
-15.973
-15.183
-14.366
-13.573
-12.841
-12.196
-11.664
-11.274
-11.073
-11.139
-11.538
-12.326
-13.536
-15.165
-17.226
-19.763
-22.795
-26.337
-30.358
-34.731
-39.378
-44.31
-49.417
-54.505
-59.259
-63.1
-65.539
-66.45
-65.724
-63.237
-59.166
-53.667
-47.103
-40.655
-35.439
-31.818
-30.032
-29.571
-28.896
-27.169
-23.464
-16.53
-6.831
5.181
19.685
37.125
60.537
93.232
136.475
188.967
244.397
294.747
332.152
348.241
338.001
298.677
230.412
140.148
36.685
-72.453
-182.584
-294.168
-404.136
-510.379
-620.093
-716.778
-758.066
-742.357
-708.39
-668.914
-613.618
-543.656
-466.844
-387.521
-309.65
-239.792
-183.374
-142.331
-114.775
-95.455
-80.445
-68.002
-58.315
-53.046
-51.402
-50.832
-49.312
-45.152
-38.061
-28.926
-18.394
-7.148
3.616
12.682
19.315
23.235
24.667
24.162
22.183
19.145
15.664
12.443
9.973
8.543
8.222
8.898
10.482
12.911
16.078
19.833
24.041
28.577
33.339
38.263
43.26
48.226
53.061
57.662
61.944
65.843
69.32
72.36
74.972
77.181
79.021
80.531
81.763
82.775
83.624
84.367
85.056
85.74
86.471
87.302
88.279
89.444
90.828
92.452
94.332
96.476
98.884
101.552
104.469
107.618
110.98
114.535
118.26
122.131
126.126
130.223
134.402
138.645
142.935
147.254
151.578
155.894
160.193
164.473
168.736
172.989
177.236
181.486
185.761
190.074
194.43
198.826
203.246
207.665
212.053
216.383
220.627
224.747
228.696
232.415
235.837
238.904
241.555
243.722
245.321
246.271
246.505
245.976
244.661
242.558
239.673
236.013
231.592
226.444
220.608
214.14
207.109
199.565
191.562
183.182
174.519
165.685
156.792
147.925
139.144
130.5
122.031
113.779
105.783
98.063
90.637
83.517
76.709
70.247
64.158
58.441
53.079
48.028
43.232
38.66
34.299
30.132
26.155
22.357
18.727
15.271
11.994
8.893
5.963
3.174
0.497
-2.074
-4.536
-6.868
-9.036
-11.024
-12.827
-14.432
-15.838
-17.045
-18.051
-18.873
-19.527
-20.023
-20.367
-20.553
-20.576
-20.443
-20.166
-19.762
-19.259
-18.674
-18.026
-17.335
-16.618
-15.888
-15.156
-14.427
-13.702
-12.985
-12.284
-11.605
-10.957
-10.346
-9.773
-9.242
-8.752
-8.303
-7.895
-7.524
-7.19
-6.889
-6.622
-6.388
-6.188
-6.022
-5.888
-5.786
-5.714
-5.67
-5.651
-5.655
-5.677
-5.715
-5.765
-5.826
-5.893
-5.965
-6.038
-6.11
-6.179
-6.242
-6.297
-6.342
-6.374
-6.392
-6.394
-6.38
-6.347
-6.295
-6.224
-6.133
-6.021
-5.889
-5.736
-5.562
-5.368
-5.153
-4.919
-4.666
-4.394
-4.104
-3.798
-3.477
-3.142
-2.796
-2.441
-2.077
-1.708
-1.335
-0.96
-0.586
-0.214
0.153
0.514
0.865
1.206
1.533
1.845
2.14
2.416
2.672
2.904
3.113
3.297
3.454
3.582
3.682
3.751
3.788
3.793
3.766
3.705
3.61
3.482
3.32
3.125
2.897
2.636
2.343
2.02
1.667
1.285
0.875
0.439
-0.021
-0.505
-1.011
-1.537
-2.082
-2.644
-3.221
-3.814
-4.419
-5.035
-5.662
