-175.116
-170.807
-163.326
-153.219
-141.307
-128.471
-115.707
-104.109
-94.656
-87.817
-83.498
-81.325
-80.758
-81.224
-82.186
-83.036
-83.155
-82.181
-79.989
-76.577
-72.06
-66.548
-60.111
-52.878
-45.017
-36.665
-27.966
-19.042
-9.993
-0.958
7.903
16.44
24.496
31.965
38.782
44.898
50.287
54.94
58.855
62.046
64.549
66.391
67.606
68.227
68.283
67.815
66.868
65.488
63.725
61.611
59.166
56.406
53.343
49.982
46.331
42.392
38.164
33.653
28.869
23.824
18.536
13.018
7.286
1.355
-4.757
-11.031
-17.446
-23.979
-30.607
-37.306
-44.052
-50.82
-57.584
-64.32
-71.005
-77.62
-84.142
-90.554
-96.835
-102.968
-108.936
-114.721
-120.309
-125.683
-130.83
-135.737
-140.391
-144.784
-148.907
-152.753
-156.317
-159.596
-162.588
-165.292
-167.71
-169.846
-171.702
-173.286
-174.602
-175.659
-176.467
-177.033
-177.37
-177.489
-177.4
-177.118
-176.655
-176.024
-175.24
-174.315
-173.264
-172.102
-170.843
-169.5
-168.089
-166.623
-165.117
-163.583
-162.033
-160.481
-158.938
-157.413
-155.917
-154.457
-153.041
-151.676
-150.367
-149.118
-147.934
-146.817
-145.769
-144.791
-143.882
-143.042
-142.271
-141.565
-140.922
-140.34
-139.815
-139.343
-138.92
-138.542
-138.203
-137.899
-137.625
-137.375
-137.143
-136.924
-136.712
-136.503
-136.291
-136.071
-135.839
-135.59
-135.32
-135.027
-134.706
-134.355
-133.972
-133.554
-133.101
-132.61
-132.083
-131.518
-130.915
-130.277
-129.602
-128.894
-128.152
-127.38
-126.579
-125.75
-124.897
-124.021
-123.126
-122.213
-121.287
-120.349
-119.403
-118.453
-117.501
-116.551
-115.605
-114.666
-113.737
-112.82
-111.919
-111.034
-110.168
-109.324
-108.503
-107.708
-106.94
-106.2
-105.491
-104.812
-104.165
-103.55
-102.967
-102.416
-101.897
-101.409
-100.953
-100.526
-100.129
-99.76
-99.418
-99.101
-98.807
-98.533
-98.276
-98.032
-97.797
-97.568
-97.343
-97.117
-96.888
-96.652
-96.41
-96.157
-95.892
-95.609
-95.304
-94.971
-94.604
-94.197
-93.743
-93.236
-92.667
-92.031
-91.326
-90.548
-89.695
-88.76
-87.737
-86.621
-85.411
-84.111
-82.723
-81.254
-79.707
-78.098
-76.447
-74.774
-73.099
-71.433
-69.776
-68.132
-66.503
-64.895
-63.314
-61.754
-60.198
-58.633
-57.049
-55.435
-53.782
-52.065
-50.243
-48.281
-46.149
-43.833
-41.344
-38.684
-35.856
-32.872
-29.745
-26.514
-23.246
-19.993
-16.799
-13.704
-10.74
-7.96
-5.439
-3.238
-1.407
0.022
1.044
1.643
1.8
1.507
0.766
-0.384
-1.867
-3.624
-5.612
-7.799
-10.175
-12.711
-15.361
-18.085
-20.849
-23.642
-26.482
-29.378
-32.327
-35.328
-38.37
-41.503
-44.861
-48.492
-52.323
-56.155
-59.632
-62.44
-64.403
-65.295
-64.765
-62.622
-58.965
-54.252
-49.395
-45.244
-42.227
-40.661
-40.974
-43.337
-47.407
-52.233
-56.055
-56.988
-53.806
-45.468
-30.662
-8.329
21.976
59.941
104.05
152.11
202.206
252.027
298.199
337.015
364.829
378.143
374.271
351.282
307.4
242.963
161.193
65.865
-39.52
-153.827
-277.592
-407.554
-534.578
-643.978
-720.924
-758.038
-757.865
-731.327
-690.189
-641.723
-588.149
-527.54
-459.592
-387.192
-314.803
-248.138
-191.089
-145.103
-110.282
-85.494
-69.134
-59.602
-54.991
-53.014
-51.44
-48.36
-42.739
-34.5
-24.055
-12.072
0.638
13.138
24.364
33.258
39.307
42.576
43.39
42.283
39.8
36.423
32.733
29.354
26.683
24.917
24.145
24.301
25.323
27.18
29.771
32.972
36.679
40.781
45.185
49.819
54.593
59.413
64.198
68.863
73.336
77.557
81.465
85.033
88.26
91.159
93.762
96.109
98.242
100.217
102.101
103.951
105.825
107.774
109.839
112.063
114.492
117.165
120.123
123.395
126.994
130.924
135.183
139.762
144.644
149.806
155.214
160.828
166.62
172.56
178.621
184.782
191.01
197.273
203.544
209.789
215.984
222.115
228.17
234.139
240.033
245.856
251.624
257.362
263.071
268.749
274.394
279.988
285.52
290.977
296.335
301.574
306.673
311.587
316.268
320.657
324.661
328.199
331.188
333.526
335.148
335.993
335.999
335.125
333.332
330.578
326.845
322.118
316.371
309.624
301.909
293.285
283.859
273.726
262.99
251.781
240.207
228.376
216.419
204.446
192.57
180.927
169.627
158.78
148.513
138.909
130.028
121.914
114.563
107.969
102.127
97
92.551
88.743
85.51
82.791
80.518
78.594
76.931
75.451
74.056
72.68
71.271
69.783
68.2
66.512
64.705
62.783
60.756
58.631
56.432
54.183
51.915
49.676
47.508
45.441
43.512
41.741
40.14
38.719
37.475
36.396
35.475
34.697
34.044
33.506
33.063
32.694
32.377
32.084
31.792
31.483
31.143
30.761
30.332
29.85
29.315
28.732
28.105
27.437
26.733
25.995
25.226
24.432
23.617
22.787
21.948
21.102
20.253
19.403
18.554
17.708
16.866
16.027
15.191
14.358
13.53
12.706
11.889
11.078
10.273
9.474
8.682
7.896
7.114
6.334
5.554
4.772
3.986
3.192
2.388
1.572
0.739
-0.113
-0.986
-1.883
-2.805
-3.756
-4.737
-5.748
-6.792
-7.868
-8.977
-10.119
-11.293
-12.5
-13.739
-15.007
-16.303
-17.626
-18.974
-20.344
-21.733
-23.14
-24.561
-25.994
-27.435
-28.882
-30.33
-31.776
-33.216
-34.646
-36.061
-37.458
-38.833
-40.182
-41.501
-42.789
-44.043
-45.261
-46.442
-47.584
-48.686
-49.748
-50.77
-51.753
-52.696
-53.6
-54.467
-55.298
-56.096
-56.862
-57.597
-58.305
-58.987
-59.645
-60.28
-60.893
-61.483
-62.052
-62.6
-63.129
-63.639
-64.132
-64.608
-65.071
-65.523
-65.966
-66.398
-66.819
-67.226
-67.616
-67.985
-68.329
-68.64
-68.914
-69.145
-69.33
-69.467
-69.554
-69.585
-69.555
-69.455
-69.28
-69.029
-68.7
-68.294
-67.814
-67.268
-66.669
-66.04
-65.397
-64.751
-64.105
-63.457
-62.801
-62.14
-61.469
-60.786
-60.087
-59.361
-58.603
-57.814
-56.987
-56.106
-55.149
-54.069
-52.833
-51.43
-49.858
-48.125
-46.247
-44.235
-42.109
-39.909
-37.671
-35.435
-33.238
-31.097
-29.042
-27.112
-25.352
-23.838
-22.627
-21.749
-21.228
-21.078
-21.298
-21.896
-22.869
-24.174
-25.77
-27.613
-29.655
-31.877
-34.25
-36.741
-39.327
-41.96
-44.596
-47.216
-49.787
-52.295
-54.748
-57.141
-59.482
-61.811
-64.146
-66.549
-69.133
-71.909
-74.792
-77.599
-80.01
-81.758
-82.698
-82.607
-81.156
-78.194
-73.847
-68.585
-63.264
-58.666
-55.193
-53.231
-53.364
-55.875
-60.484
-66.32
-71.721
-74.861
-74.51
-69.379
-57.711
-38.232
-10.391
25.554
67.94
114.48
163.092
210.828
253.509
287.088
307.791
312.198
298.167
264.354
209.693
135.745
47.347
-51.721
-158.021
-268.755
-384.114
-498.189
-599.73
-678.921
-725.04
-736.153
-720.479
-685.521
-640.102
-589.61
-532.844
-470.854
-405.681
-339.783
-278.317
-224.728
-180.328
-145.694
-119.956
-101.559
-89.135
-81.348
-76.44
-72.789
-69.02
-63.849
-56.826
-48.24
-38.493
-28.105
-17.809
-8.236
-0.062
5.935
9.528
10.898
10.336
8.337
5.396
1.906
-1.634
-4.703
-6.993
-8.332
-8.662
-8.069
-6.618
-4.363
-1.412
2.128
6.153
10.555
15.253
20.168
25.211
30.299
35.342
40.249
44.947
49.367
53.468
57.246
60.71
63.885
66.809
69.518
72.059
74.49
76.861
79.224
81.625
84.101
86.692
89.442
92.391
95.578
99.035
102.773
106.797
111.103
115.68
120.513
125.581
130.85
136.28
141.84
147.498
153.231
159.017
164.83
170.638
176.406
182.102
187.705
193.203
198.589
203.862
209.027
214.103
219.123
224.131
229.161
234.232
239.353
244.518
249.73
254.992
260.306
265.669
271.05
276.406
281.684
286.819
291.73
296.315
300.44
303.965
306.773
308.759
309.842
309.954
309.018
306.97
303.753
299.327
293.691
286.864
278.882
269.811
259.74
248.795
237.15
224.98
212.444
199.701
186.894
174.165
161.681
149.587
138.015
127.091
116.904
107.526
99.021
91.414
84.708
78.872
73.837
69.526
65.877
62.812
60.257
58.128
56.31
54.709
53.247
51.838
50.423
48.948
47.359
45.629
43.749
41.721
39.566
37.309
34.964
32.558
30.121
27.69
25.32
23.053
20.911
18.923
17.105
15.469
14.028
12.78
11.709
10.805
10.049
9.421
8.909
8.494
8.151
7.856
7.578
7.294
6.989
6.647
6.259
5.817
5.315
4.752
4.134
3.465
2.747
1.985
1.181
0.339
-0.535
-1.433
-2.35
-3.276
-4.209
-5.141
-6.069
-6.986
-7.891
-8.779
-9.648
-10.497
-11.321
-12.119
-12.886
-13.618
-14.314
-14.971
-15.585
-16.155
-16.68
-17.159
-17.593
-17.982
-18.327
-18.631
-18.896
-19.125
-19.32
-19.486
-19.625
-19.743
-19.844
-19.933
-20.014
-20.092
-20.173
-20.261
-20.362
-20.48
-20.621
-20.788
-20.987
-21.223
-21.498
-21.818
-22.186
-22.607
-23.084
-23.619
-24.217
-24.879
-25.607
-26.403
-27.267
-28.199
-29.199
-30.264
-31.392
-32.581
-33.827
-35.126
-36.473
-37.864
-39.293
-40.755
-42.242
-43.749
-45.269
-46.794
-48.318
-49.832
-51.33
-52.802
-54.243
-55.643
-56.995
-58.292
-59.525
-60.687
-61.77
-62.766
-63.669
-64.471
-65.165
-65.747
-66.21
-66.551
-66.766
-66.854
-66.814
-66.645
-66.351
-65.933
-65.395
-64.739
-63.972
-63.099
-62.126
-61.06
-59.909
-58.681
-57.385
-56.032
-54.634
-53.203
-51.748
-50.282
-48.818
-47.366
-45.94
-44.552
-43.212
-41.931
-40.72
-39.592
-38.561
-37.637
-36.822
-36.119
-35.528
-35.045
-34.669
-34.39
-34.195
-34.071
-34.009
-33.996
-34.029
-34.102
-34.204
-34.325
-34.452
-34.575
-34.695
-34.815
-34.94
-35.081
-35.252
-35.469
-35.769
-36.183
-36.743
-37.486
-38.434
-39.607
-41.021
-42.683
-44.612
-46.839
-49.383
-52.268
-55.512
-59.096
-63.036
-67.387
-72.11
-77.072
-82.032
-86.606
-90.462
-93.417
-95.244
-95.618
-94.363
-91.574
-87.712
-83.692
-80.365
-78.159
-77.439
-78.717
-82.263
-87.859
-94.622
-100.714
-104.221
-104.053
-98.975
-87.223
-67.62
-39.344
-3.232
37.023
79.2
122.898
168.033
216.195
263.537
300.507
318.255
307.142
264.915
198.3
113.925
20.422
-76.923
-178.626
-282.935
-387.222
-486.936
-574.521
-644.665
-694.474
-722.708
-730.215
-718.081
-687.652
-642.009
-585.117
-521.282
-454.933
-389.255
-326.791
-270.337
-222.112
-183.292
-154.027
-133.249
-119.279
-110.938
-106.889
-105.258
-104.24
-102.116
-97.922
-91.75
-84.045
-75.175
-65.67
-56.228
-47.661
-40.959
-36.609
-34.482
-34.275
-35.53
-37.778
-40.618
-43.543
-45.953
-47.475
-47.96
-47.38
-45.857
-43.496
-40.35
-36.534
-32.182
-27.417
-22.357
-17.096
-11.701
-6.26
-0.872
4.367
9.355
14.009
18.285
22.161
25.643
28.756
31.526
33.99
36.198
38.205
40.069
41.842
43.572
45.303
47.087
48.977
51.031
53.297
55.805
58.573
61.608
64.909
68.469
72.271
76.285
80.479
84.829
89.315
93.925
98.642
103.443
108.306
113.207
118.131
123.075
128.037
133.013
138.013
143.056
148.168
153.391
158.749
164.25
169.893
175.666
181.558
187.56
193.648
199.78
205.904
211.954
217.865
223.572
228.986
234.007
238.529
242.438
245.65
248.11
249.759
250.553
250.445
249.393
247.385
244.443
240.604
235.915
230.43
224.205
217.328
209.904
202.037
193.827
185.341
176.633
167.778
158.851
149.944
141.15
132.532
124.124
115.955
108.046
100.42
93.092
86.052
79.282
72.776
66.538
60.607
55.019
49.779
44.876
40.278
35.939
31.838
27.965
24.305
20.85
17.592
14.524
11.657
9.005
6.562
4.31
2.205
0.207
-1.697
-3.512
-5.224
-6.806
-8.249
-9.545
-10.681
-11.655
-12.467
-13.12
-13.632
-14.022
-14.3
-14.467
-14.516
-14.438
-14.239
-13.929
-13.526
-13.053
-12.53
-11.974
-11.406
-10.843
-10.297
-9.776
-9.282
-8.813
-8.37
-7.958
-7.579
-7.241
-6.945
-6.691
-6.478
-6.305
-6.168
-6.065
-5.989
-5.937
-5.904
-5.89
-5.891
-5.908
-5.941
-5.987
-6.045
-6.115
-6.192
-6.276
-6.364
-6.452
-6.539
-6.623
-6.701
-6.774
-6.839
-6.897
-6.947
-6.99
-7.025
-7.052
-7.073
-7.089
-7.1
-7.107
-7.113
-7.117
-7.123
-7.131
-7.144
-7.163
-7.19
-7.227
-7.275
-7.336
-7.41
-7.499
-7.604
-7.724
-7.86
-8.014
-8.186
-8.376
-8.585
-8.815
-9.064
-9.333
-9.623
-9.932
-10.26
-10.606
-10.968
-11.346
-11.738
-12.143
-12.558
-12.984
-13.418
-13.859
-14.306
-14.758
-15.211
-15.665
-16.119
-16.57
-17.017
-17.46
-17.896
-18.326
-18.75
-19.167
-19.577
-19.98
-20.374
-20.758
-21.131
-21.492
-21.837
-22.165
-22.474
-22.764
-23.033
-23.282
-23.509
-23.717
-23.906
-24.076
-24.226
-24.353
-24.456
-24.53
-24.574
-24.583
-24.553
-24.48
-24.361
-24.196
-23.986
-23.73
-23.424
-23.06
-22.635
-22.15
-21.605
-21.005
-20.355
-19.661
-18.938
-18.21
-17.5
-16.833
-16.219
-15.658
-15.152
-14.703
-14.31
-13.978
-13.698
-13.443
-13.197
-12.947
-12.682
-12.39
-12.038
-11.566
-10.921
-10.06
-8.956
-7.61
-6.017
-4.165
-2.066
0.254
2.745
5.322
7.927
10.524
13.073
15.54
17.861
19.932
21.668
23.008
23.899
24.311
24.207
23.531
22.274
20.466
18.167
15.472
12.439
9.084
5.429
1.493
-2.677
-6.991
-11.396
-15.877
-20.416
-25.001
-29.604
-34.143
-38.617
-43.109
-47.663
-52.278
-56.815
-60.962
-64.425
-66.995
-68.444
-68.499
-66.981
-63.854
-59.443
-54.489
-49.777
-45.969
-43.58
-43.05
-44.674
-48.425
-53.644
-58.995
-62.805
-63.369
-59.339
-49.426
-32.125
-6.466
27.59
69.442
116.366
165.042
214.06
260.404
302.289
338.339
361.656
366.988
348.79
301.395
228.106
134.398
27.871
-82.439
-194.641
-309.871
-429.209
-550.331
-662.702
-750.453
-799.492
-804.59
-771.266
-713.609
-646.64
-579.313
-514.453
-450.494
-386.28
-323.951
-267.521
-221.117
-186.256
-161.854
-145.708
-135.179
-128.198
-122.99
-117.579
-110.255
-100.225
-87.539
-72.861
-57.193
-41.427
-26.411
-13.146
-2.583
4.818
9.079
10.547
9.795
7.367
3.775
-0.389
-4.517
-8.177
-11.12
-13.213
-14.428
-14.758
-14.2
-12.809
-10.69
-7.938
-4.639
-0.877
3.271
7.713
12.331
17.017
21.677
26.219
30.565
34.643
38.378
41.73
44.693
47.279
49.52
51.457
53.133
54.6
55.924
57.163
58.376
59.616
60.924
62.342
63.91
65.669
67.662
69.921
72.462
75.29
78.405
81.799
85.463
89.375
93.502
97.806
102.25
106.806
111.458
116.195
121
125.856
130.745
135.651
140.567
145.492
150.417
155.33
160.222
165.091
169.955
174.847
179.788
184.781
189.809
194.841
199.846
204.788
209.622
214.288
218.712
222.821
226.563
229.896
232.781
235.168
236.985
238.147
238.588
238.267
237.167
235.287
232.631
229.217
225.086
220.307
214.971
209.16
202.934
196.342
189.431
182.263
174.916
167.476
160.012
152.58
145.224
137.979
130.883
123.96
117.212
110.619
104.145
97.769
91.49
85.31
79.238
73.275
67.414
61.651
55.991
50.443
45.014
39.711
34.537
29.503
24.628
19.943
15.479
11.26
7.298
3.601
0.174
-2.98
-5.859
-8.466
-10.811
-12.904
-14.751
-16.359
-17.735
-18.888
-19.831
-20.581
-21.154
-21.563
-21.824
-21.949
-21.952
-21.846
-21.643
-21.353
-20.985
-20.548
-20.053
-19.511
-18.934
-18.331
-17.713
-17.089
-16.468
-15.859
-15.27
-14.706
-14.172
-13.674
-13.216
-12.8
-12.429
-12.106
-11.832
-11.607
-11.433
-11.309
-11.235
-11.209
-11.229
-11.294
-11.403
-11.552
-11.74
-11.963
-12.22
-12.509
-12.826
-13.169
-13.535
-13.921
-14.324
-14.74
-15.167
-15.601
-16.04
-16.479
-16.917
-17.352
-17.781
-18.203
-18.615
-19.017
-19.407
-19.784
-20.147
-20.495
-20.828
-21.145
-21.446
-21.731
-21.999
-22.251
-22.487
-22.707
-22.911
-23.099
-23.271
-23.427
-23.569
-23.696
-23.809
-23.909
-23.997
-24.075
-24.142
-24.202
-24.255
-24.303
-24.347
-24.388
-24.428
-24.468
-24.511
-24.556
-24.605
-24.661
-24.724
-24.795
-24.875
-24.967
-25.07
-25.187
-25.317
-25.464
-25.626
-25.806
-26.005
-26.224
-26.464
-26.726
-27.01
-27.317
-27.647
-28
-28.375
-28.772
-29.189
-29.624
-30.076
-30.543
-31.022
-31.51
-32.006
-32.505
-33.005
-33.501
-33.992
-34.473
-34.939
-35.389
-35.816
-36.217
-36.587
-36.924
-37.221
-37.475
-37.682
-37.835
-37.931
-37.966
-37.933
-37.83
-37.65
-37.39
-37.047
-36.619
-36.102
-35.496
-34.8
-34.015
-33.142
-32.185
-31.145
-30.026
-28.832
-27.566
-26.235
-24.842
-23.394
-21.896
-20.356
-18.782
-17.184
-15.571
-13.953
-12.339
-10.739
-9.164
-7.624
-6.128
-4.683
-3.299
-1.988
-0.76
0.37
1.393
2.304
3.102
3.784
4.357
4.828
5.207
5.514
5.762
5.962
6.123
6.25
6.353
6.447
6.544
6.663
6.814
7.001
7.228
7.495
7.791
8.096
8.376
8.585
8.691
8.662
8.473
8.096
7.489
6.616
5.439
3.931
2.081
-0.131
-2.734
-5.758
-9.215
-13.095
-17.344
-21.922
-26.847
-32.058
-37.407
-42.649
-47.383
-51.256
-54.038
-55.442
-55.1
-52.844
-48.745
-43.184
-37.051
-31.191
-26.149
-22.561
-21.063
-21.921
-24.982
-29.461
-33.623
-35.617
-33.92
-26.797
-12.607
9.786
40.942
80.398
126.292
176.071
226.779
274.538
315.108
344.346
358.177
353.209
327.2
278.872
209.237
122.011
21.37
-88.686
-206.394
-331.448
-459.688
-582.223
-685.551
-756.055
-787.711
-783.602
-754.06
-710.434
-659.758
-604.12
-542.004
-473.389
-401.051
-329.076
-262.709
-205.408
-158.301
-121.766
-95.063
-76.717
-65.405
-59.555
-57.01
-55.897
-54.616
-51.716
-46.721
-39.859
-31.475
-22.181
-12.84
-4.18
3.015
7.972
10.529
10.902
9.446
6.706
3.205
-0.611
-4.224
-7.126
-9.037
-9.847
-9.569
-8.329
-6.233
-3.37
0.135
4.139
8.507
13.121
17.877
22.692
27.482
32.15
36.603
40.756
44.537
47.908
50.862
53.413
55.587
57.421
58.958
60.25
61.361
62.35
63.273
64.18
65.117
66.132
67.276
68.595
70.13
71.911
73.952
76.262
78.844
81.696
84.809
88.17
91.765
95.582
99.614
103.848
108.267
112.847
117.566
122.399
127.326
132.318
137.347
142.387
147.42
152.438
157.431
162.384
167.272
172.064
176.725
181.234
185.576
189.742
193.72
197.493
201.049
204.39
207.518
210.423
213.079
215.439
217.461
219.126
220.427
221.367
221.952
222.174
222.012
221.447
220.458
219.02
217.109
214.689
211.727
208.219
204.183
199.665
194.707
189.323
183.522
177.305
170.665
163.617
156.193
148.432
140.39
132.148
123.776
115.359
106.971
98.663
90.469
82.406
74.487
66.75
59.238
52.003
45.109
38.605
32.518
26.864
21.629
16.767
12.246
8.031
4.085
0.395
-3.051
-6.257
-9.219
-11.944
-14.449
-16.757
-18.913
-20.956
-22.905
-24.77
-26.541
-28.188
-29.691
-31.034
-32.201
-33.187
-33.993
-34.621
-35.086
-35.407
-35.593
-35.648
-35.567
-35.344
-34.984
-34.499
-33.905
-33.232
-32.501
-31.731
-30.945
-30.161
-29.391
-28.647
-27.932
-27.244
-26.588
-25.965
-25.384
-24.85
-24.367
-23.935
-23.557
-23.228
-22.949
-22.715
-22.523
-22.369
-22.249
-22.16
-22.101
-22.071
-22.07
-22.094
-22.142
-22.21
-22.297
-22.398
-22.51
-22.63
-22.754
-22.881
-23.007
-23.13
-23.25
-23.364
-23.471
-23.571
-23.661
-23.743
-23.816
-23.878
-23.931
-23.974
-24.007
-24.032
-24.047
-24.055
-24.055
-24.048
-24.036
-24.019
-23.997
-23.973
-23.947
-23.919
-23.89
-23.862
-23.834
-23.808
-23.784
-23.763
-23.746
-23.732
-23.721
-23.715
-23.713
-23.713
-23.717
-23.723
-23.732
-23.741
-23.752
-23.763
-23.775
-23.787
-23.798
-23.809
-23.82
-23.829
-23.838
-23.846
-23.854
-23.861
-23.868
-23.876
-23.885
-23.896
-23.91
-23.927
-23.949
-23.976
-24.011
-24.054
-24.108
-24.173
-24.252
-24.347
-24.459
-24.59
-24.742
-24.916
-25.114
-25.336
-25.582
-25.854
-26.15
-26.471
-26.816
-27.184
-27.575
-27.987
-28.417
-28.865
-29.328
-29.802
-30.285
-30.774
-31.265
-31.754
-32.237
-32.71
-33.168
-33.606
-34.019
-34.401
-34.747
-35.051
-35.306
-35.507
-35.648
-35.724
-35.729
-35.661
-35.514
-35.287
-34.979
-34.589
-34.117
-33.563
-32.928
-32.213
-31.421
-30.555
-29.617
-28.611
-27.541
-26.415
-25.24
-24.022
-22.77
-21.492
-20.195
-18.89
-17.585
-16.29
-15.013
-13.763
-12.551
-11.388
-10.291
-9.268
-8.327
-7.472
-6.702
-6.018
-5.415
-4.885
-4.411
-3.98
-3.578
-3.192
-2.814
-2.432
-2.029
-1.593
-1.103
-0.549
0.069
0.75
1.483
2.251
3.03
3.782
4.451
4.981
5.319
5.407
5.188
4.604
3.591
2.104
0.107
-2.431
-5.536
-9.227
-13.519
-18.408
-23.854
-29.82
-36.287
-43.129
-50.137
-57.008
-63.284
-68.552
-72.526
-74.836
-75.058
-73.122
-69.178
-63.667
-57.576
-51.663
-46.357
-42.378
-40.356
-40.262
-41.794
-43.965
-44.787
-42.788
-36.796
-25.004
-6.06
20.648
55.4
97.085
143.284
191.866
240.081
283.812
319.132
342.193
349.048
337.154
305.024
251.232
176.887
86.239
-17.344
-130.215
-249.196
-373.971
-498.181
-610.521
-700.932
-758.397
-780.731
-775.35
-748.776
-708.742
-659.968
-601.636
-535.379
-464.087
-390.761
-320.471
-257.288
-203.494
-160.384
-127.767
-104.356
-88.535
-79.024
-74.243
-72.115
-70.7
-68.169
-63.498
-56.778
-48.47
-38.973
-28.897
-19.041
-10.273
-3.633
0.385
1.95
1.412
-0.721
-3.922
-7.731
-11.587
-14.837
-17.075
-18.142
-18.013
-16.814
-14.667
-11.636
-7.85
-3.464
1.382
6.549
11.93
17.442
22.988
28.457
33.742
38.733
43.338
47.507
51.216
54.469
57.291
59.708
61.761
63.5
64.984
66.276
67.432
68.506
69.544
70.6
71.727
72.98
74.408
76.045
77.912
80.021
82.38
84.996
87.869
90.988
94.337
97.898
101.653
105.585
109.673
113.887
118.199
122.577
126.995
131.432
135.869
140.288
144.667
148.986
153.231
157.401
161.499
165.534
169.516
173.453
177.362
181.268
185.19
189.145
193.138
197.167
201.221
205.289
209.355
213.408
217.414
221.324
225.074
228.586
231.781
234.586
236.918
238.688
239.811
240.209
239.816
238.583
236.47
233.45
229.5
224.601
218.761
212.016
204.431
196.095
187.105
177.554
167.551
157.21
146.656
136.018
125.417
114.97
104.783
94.952
85.572
76.741
68.53
60.982
54.117
47.921
42.377
37.466
33.155
29.402
26.15
23.329
20.866
18.685
16.716
14.896
13.162
11.443
9.687
7.855
5.927
3.902
1.781
-0.433
-2.732
-5.103
-7.519
-9.946
-12.345
-14.674
-16.896
-18.983
-20.908
-22.643
-24.168
-25.47
-26.547
-27.407
-28.057
-28.505
-28.761
-28.836
-28.749
-28.521
-28.175
-27.738
-27.232
-26.673
-26.077
-25.459
-24.83
-24.2
-23.573
-22.95
-22.335
-21.73
-21.139
-20.566
-20.013
-19.479
-18.966
-18.473
-18.001
-17.552
-17.128
-16.729
-16.359
-16.019
-15.711
-15.44
-15.208
-15.014
-14.859
-14.743
-14.666
-14.625
-14.621
-14.651
-14.713
-14.805
-14.927
-15.075
-15.249
-15.446
-15.663
-15.898
-16.15
-16.415
-16.691
-16.977
-17.269
-17.564
-17.862
-18.159
-18.452
-18.74
-19.02
-19.289
-19.546
-19.789
-20.015
-20.224
-20.415
-20.586
-20.737
-20.868
-20.979
-21.07
-21.141
-21.195
-21.23
-21.25
-21.255
-21.246
-21.226
-21.196
-21.158
-21.114
-21.065
-21.014
-20.962
-20.912
-20.866
-20.825
-20.792
-20.77
-20.759
-20.763
-20.784
-20.823
-20.883
-20.964
-21.069
-21.197
-21.351
-21.531
-21.736
-21.967
-22.223
-22.504
-22.809
-23.137
-23.484
-23.85
-24.233
-24.628
-25.035
-25.448
-25.864
-26.281
-26.694
-27.102
-27.499
-27.882
-28.247
-28.59
-28.908
-29.195
-29.447
-29.659
-29.825
-29.941
-30.004
-30.009
-29.954
-29.835
-29.65
-29.398
-29.08
-28.694
-28.239
-27.713
-27.115
-26.451
-25.726
-24.943
-24.107
-23.222
-22.292
-21.328
-20.341
-19.332
-18.304
-17.26
-16.198
-15.133
-14.074
-13.03
-12.012
-11.017
-10.047
-9.109
-8.214
-7.364
-6.564
-5.804
-5.071
-4.38
-3.735
-3.141
-2.6
-2.092
-1.599
-1.118
-0.638
-0.164
0.304
0.78
1.28
1.803
2.354
2.918
3.472
4.031
4.592
5.141
5.663
6.107
6.428
6.601
6.596
6.382
5.928
5.187
4.108
2.67
0.854
-1.344
-3.932
-6.947
-10.396
-14.267
-18.515
-23.083
-27.953
-33.038
-38.168
-43.095
-47.466
-50.979
-53.44
-54.581
-54.052
-51.783
-47.883
-42.712
-37.044
-31.396
-26.053
-21.586
-18.56
-17.095
-17.052
-17.648
-17.434
-15.541
-11.011
-2.183
12.189
33.154
60.434
91.401
124.656
160.029
197.873
240.136
282.707
315.997
330.372
314.912
267.335
195.382
107.883
14.029
-82.432
-185.177
-297.103
-413.585
-523.972
-614.804
-673.753
-700.821
-702.867
-685.116
-653.523
-607.033
-544.542
-473.064
-400.295
-336.501
-287.321
-249.052
-217.602
-187.777
-157.751
-131.367
-110.521
-96.339
-88.277
-82.639
-77.091
-70.471
-62.123
-52.699
-42.803
-32.53
-22.286
-12.685
-4.326
2.04
6.078
7.989
8.103
6.831
4.611
1.844
-1.006
-3.389
-4.937
-5.496
-5.021
-3.598
-1.312
1.791
5.618
10.038
14.927
20.161
25.625
31.237
36.902
42.51
47.952
53.12
57.915
62.284
66.202
69.665
72.692
75.306
77.542
79.448
81.08
82.496
83.751
84.899
85.985
87.063
88.186
89.405
90.774
92.33
94.1
96.106
98.361
100.867
103.624
106.622
109.842
113.267
116.875
120.64
124.541
128.557
132.669
136.863
141.12
145.418
149.735
154.05
158.345
162.615
166.857
171.069
175.261
179.45
183.661
187.93
192.281
196.718
201.238
205.821
210.448
215.106
219.776
224.428
229.023
233.513
237.846
241.973
245.83
249.331
252.381
254.867
256.692
257.793
258.118
257.628
256.295
254.084
250.976
246.982
242.121
236.424
229.925
222.651
214.641
205.974
196.744
187.069
177.061
166.805
156.39
145.905
135.44
125.1
114.972
105.11
95.561
86.37
77.584
69.264
61.469
54.222
47.524
41.364
35.724
30.596
25.965
21.792
18.026
14.598
11.454
8.566
5.912
3.468
1.201
-0.934
-2.989
-4.988
-6.946
-8.876
-10.786
-12.69
-14.59
-16.471
-18.299
-20.034
-21.649
-23.131
-24.481
-25.695
-26.768
-27.69
-28.452
-29.06
-29.519
-29.837
-30.018
-30.066
-29.991
-29.813
-29.564
-29.273
-28.966
-28.66
-28.365
-28.093
-27.853
-27.654
-27.5
-27.389
-27.322
-27.299
-27.321
-27.392
-27.511
-27.673
-27.872
-28.102
-28.357
-28.633
-28.925
-29.229
-29.541
-29.858
-30.18
-30.505
-30.833
-31.161
-31.488
-31.81
-32.124
-32.428
-32.721
-32.999
-33.26
-33.502
-33.726
-33.93
-34.113
-34.276
-34.419
-34.541
-34.643
-34.725
-34.79
-34.837
-34.869
-34.887
-34.892
-34.887
-34.875
-34.856
-34.834
-34.81
-34.788
-34.768
-34.752
-34.744
-34.743
-34.753
-34.775
-34.81
-34.86
-34.928
-35.013
-35.118
-35.244
-35.392
-35.562
-35.756
-35.974
-36.216
-36.483
-36.774
-37.089
-37.427
-37.788
-38.17
-38.573
-38.993
-39.43
-39.882
-40.346
-40.819
-41.299
-41.782
-42.266
-42.747
-43.221
-43.685
-44.134
-44.566
-44.975
-45.358
-45.71
-46.028
-46.307
-46.543
-46.732
-46.87
-46.953
-46.977
-46.94
-46.837
-46.666
-46.426
-46.115
-45.731
-45.277
-44.752
-44.157
-43.495
-42.767
-41.977
-41.126
-40.221
-39.262
-38.255
-37.206
-36.119
-35.003
-33.865
-32.712
-31.551
-30.389
-29.235
-28.097
-26.984
-25.901
-24.855
-23.852
-22.902
-22.015
-21.2
-20.46
-19.793
-19.198
-18.672
-18.21
-17.805
-17.439
-17.096
-16.76
-16.417
-16.059
-15.677
-15.259
-14.786
-14.24
-13.608
-12.891
-12.102
-11.252
-10.353
-9.427
-8.511
-7.667
-6.954
-6.434
-6.163
-6.189
-6.567
-7.352
-8.591
-10.328
-12.607
-15.448
-18.863
-22.86
-27.407
-32.488
-38.088
-44.075
-50.251
-56.335
-61.907
-66.595
-70.119
-72.111
-72.207
-70.323
-66.526
-61.252
-55.406
-49.73
-44.816
-41.354
-39.833
-40.299
-42.489
-45.364
-47.103
-46.049
-40.517
-28.824
-9.763
17.283
52.175
93.566
139.027
185.634
229.641
266.891
293.229
304.737
298.462
272.43
225.779
159.042
74.404
-24.471
-132.593
-244.355
-354.305
-456.647
-545.931
-617.794
-669.043
-698.428
-706.56
-694.792
-665.224
-621.327
-567.029
-506.505
-444.129
-382.949
-325.049
-272.629
-227.193
-189.347
-159.375
-136.536
-119.306
-106.788
-98.132
-91.937
-87.121
-82.615
-77.248
-70.796
-63.572
-55.655
-47.333
-39.116
-31.333
-24.563
-19.511
-16.298
-14.765
-14.697
-15.682
-17.348
-19.402
-21.414
-22.91
-23.623
-23.427
-22.318
-20.412
-17.792
-14.529
-10.73
-6.523
-2.033
2.635
7.395
12.185
16.94
21.583
26.035
30.219
34.069
37.549
40.653
43.393
45.794
47.888
49.713
51.315
52.755
54.086
55.36
56.622
57.911
59.272
60.75
62.393
64.241
66.323
68.654
71.244
74.102
77.235
80.64
84.307
88.217
92.352
96.695
101.228
105.924
110.747
115.661
120.635
125.647
130.685
135.733
140.774
145.787
150.753
155.664
160.517
165.301
170.001
174.604
179.104
183.514
187.866
192.181
196.46
200.682
204.813
208.823
212.681
216.348
219.775
222.896
225.655
228.024
229.984
231.512
232.571
233.096
232.996
232.206
230.684
228.404
225.368
221.576
217.041
211.804
205.929
199.494
192.559
185.147
177.264
168.935
160.211
151.169
141.916
132.544
123.139
113.795
104.585
95.578
86.828
78.355
70.155
62.228
54.591
47.293
40.407
33.976
28.027
22.568
17.579
13.041
8.924
5.167
1.717
-1.466
-4.414
-7.131
-9.609
-11.854
-13.879
-15.715
-17.414
-19.01
-20.529
-21.998
-23.426
-24.815
-26.154
-27.407
-28.541
-29.537
-30.385
-31.087
-31.657
-32.096
-32.411
-32.606
-32.679
-32.628
-32.455
-32.16
-31.746
-31.227
-30.619
-29.953
-29.257
-28.551
-27.852
-27.17
-26.511
-25.885
-25.293
-24.736
-24.213
-23.726
-23.277
-22.868
-22.501
-22.174
-21.884
-21.625
-21.391
-21.178
-20.983
-20.8
-20.629
-20.467
-20.313
-20.168
-20.032
-19.904
-19.784
-19.67
-19.56
-19.453
-19.347
-19.24
-19.13
-19.017
-18.899
-18.776
-18.647
-18.512
-18.371
-18.224
-18.071
-17.913
-17.751
-17.586
-17.42
-17.253
-17.088
-16.927
-16.77
-16.62
-16.479
-16.347
-16.226
-16.118
-16.023
-15.943
-15.878
-15.83
-15.8
-15.788
-15.797
-15.827
-15.88
-15.958
-16.061
-16.192
-16.352
-16.542
-16.763
-17.017
-17.305
-17.627
-17.984
-18.378
-18.807
-19.272
-19.774
-20.31
-20.881
-21.485
-22.122
-22.788
-23.482
-24.203
-24.947
-25.713
-26.496
-27.295
-28.105
-28.923
-29.744
-30.565
-31.38
-32.185
-32.973
-33.74
-34.479
-35.185
-35.85
-36.471
-37.039
-37.549
-37.995
-38.37
-38.67
-38.887
-39.018
-39.058
-39.003
-38.849
-38.594
-38.236
-37.775
-37.209
-36.541
-35.772
-34.905
-33.943
-32.89
-31.753
-30.535
-29.245
-27.888
-26.472
-25.004
-23.495
-21.954
-20.392
-18.819
-17.248
-15.688
-14.152
-12.651
-11.196
-9.8
-8.473
-7.222
-6.059
-4.993
-4.038
-3.201
-2.486
-1.895
-1.426
-1.077
-0.841
-0.708
-0.661
-0.681
-0.751
-0.853
-0.974
-1.1
-1.215
-1.296
-1.321
-1.275
-1.15
-0.948
-0.672
-0.328
0.067
0.48
0.854
1.134
1.26
1.178
0.84
0.187
-0.833
-2.265
-4.156
-6.544
-9.453
-12.907
-16.925
-21.496
-26.61
-32.235
-38.222
-44.369
-50.397
-55.924
-60.613
-64.155
-66.15
-66.282
-64.517
-60.994
-56.115
-50.566
-44.829
-39.379
-34.958
-31.999
-30.438
-29.865
-29.273
-27.312
-23.014
-15.226
-2.295
16.809
42.48
74.426
111.171
150.872
191.74
231.053
265.076
290.265
303.177
301.035
282.349
245.785
190.552
117.533
29.194
-70.919
-178.184
-287.726
-394.783
-493.795
-579.414
-647.381
-694.627
-719.66
-722.405
-703.734
-665.649
-611.863
-546.903
-475.593
-402.707
-332.24
-267.698
-212.067
-167.287
-133.761
-110.696
-96.465
-88.992
-86.248
-86.018
-86.016
-84.318
-79.9
-72.652
-63.007
-51.707
-39.552
-27.436
-16.413
-7.504
-1.231
2.424
3.758
3.27
1.484
-1.127
-3.997
-6.524
-8.326
-9.215
-9.135
-8.169
-6.4
-3.886
-0.733
2.931
7.003
11.379
15.972
20.717
25.524
30.297
34.946
39.375
43.503
47.261
50.608
53.528
56.034
58.152
59.917
61.371
62.563
63.553
64.4
65.162
65.891
66.633
67.436
68.353
69.433
70.728
72.272
74.082
76.168
78.532
81.17
84.072
87.221
90.584
94.132
97.841
101.687
105.662
109.753
113.942
118.209
122.535
126.904
131.318
135.782
140.292
144.852
149.463
154.133
158.894
163.763
168.747
173.845
179.03
184.27
189.538
194.797
200.001
205.095
210
214.63
218.914
222.786
226.179
229.023
231.225
232.704
233.409
233.297
232.356
230.587
227.99
224.579
220.394
215.491
209.949
203.866
197.318
190.377
183.118
175.616
167.968
160.26
152.558
144.914
137.369
129.956
122.711
115.661
108.811
102.154
95.671
89.33
83.118
77.03
71.055
65.189
59.418
53.732
48.136
42.64
37.256
31.995
26.863
21.868
17.028
12.366
7.904
3.669
-0.324
-4.064
-7.541
-10.752
-13.693
-16.364
-18.772
-20.927
-22.841
-24.522
-25.979
-27.22
-28.258
-29.108
-29.782
-30.296
-30.663
-30.895
-31.005
-31.006
-30.909
-30.724
-30.46
-30.126
-29.729
-29.279
-28.786
-28.258
-27.703
-27.129
-26.543
-25.954
-25.367
-24.789
-24.222
-23.672
-23.142
-22.635
-22.152
-21.696
-21.268
-20.869
-20.498
-20.157
-19.845
-19.561
-19.305
-19.075
-18.871
-18.69
-18.531
-18.393
-18.274
-18.172
-18.085
-18.013
-17.952
-17.903
-17.862
-17.829
-17.801
-17.778
-17.757
-17.738
-17.719
-17.699
-17.677
-17.653
-17.626
-17.595
-17.56
-17.52
-17.476
-17.428
-17.375
-17.317
-17.254
-17.188
-17.117
-17.043
-16.965
-16.885
-16.803
-16.719
-16.634
-16.548
-16.463
-16.378
-16.296
-16.217
-16.141
-16.071
-16.007
-15.95
-15.9
-15.859
-15.828
-15.808
-15.799
-15.804
-15.823
-15.858
-15.91
-15.981
-16.073
-16.188
-16.325
-16.486
-16.672
-16.884
-17.123
-17.388
-17.681
-18.002
-18.35
-18.726
-19.13
-19.56
-20.014
-20.493
-20.991
-21.508
-22.039
-22.582
-23.131
-23.685
-24.24
-24.793
-25.341
-25.882
-26.413
-26.928
-27.424
-27.895
-28.332
-28.729
-29.077
-29.369
-29.599
-29.76
-29.848
-29.859
-29.791
-29.643
-29.412
-29.093
-28.679
-28.166
-27.551
-26.839
-26.032
-25.142
-24.184
-23.174
-22.134
-21.078
-20.02
-18.962
-17.903
-16.837
-15.758
-14.667
-13.574
-12.483
-11.401
-10.33
-9.273
-8.224
-7.165
-6.07
-4.901
-3.633
-2.251
-0.754
0.844
2.525
4.255
6.004
7.753
9.479
11.167
12.808
14.389
15.891
17.285
18.517
19.525
20.26
20.679
20.757
20.485
19.856
18.892
17.63
16.098
14.327
12.328
10.093
7.618
4.904
1.97
-1.139
-4.372
-7.714
-11.14
-14.638
-18.203
-21.792
-25.437
-29.236
-33.208
-37.309
-41.363
-45.03
-48.027
-50.19
-51.294
-51.084
-49.438
-46.33
-42.161
-37.753
-33.758
-30.674
-28.877
-28.59
-30.067
-33.378
-37.784
-41.917
-44.437
-43.961
-39.493
-30.216
-14.818
7.72
37.448
73.645
114.894
159.235
204.869
249.469
289.331
320.501
339.303
342.661
328.387
294.7
240.403
165.474
72.881
-31.688
-143.577
-258.807
-374.756
-490.867
-600.629
-693.325
-759.646
-789.813
-783.399
-749.246
-695.551
-632.537
-566.07
-495.81
-423.567
-351.168
-281.515
-219.842
-169.112
-130.115
-102.517
-84.357
-73.464
-68.233
-66.594
-66.416
-65.918
-63.524
-58.605
-51.427
-42.51
-32.473
-22.153
-12.373
-3.975
2.151
5.716
6.93
6.159
3.947
0.836
-2.712
-6.153
-8.916
-10.672
-11.295
-10.782
-9.263
-6.849
-3.618
0.301
4.76
9.625
14.766
20.076
25.471
30.859
36.132
41.19
45.932
50.275
54.178
57.627
60.628
63.205
65.391
67.224
68.756
70.047
71.158
72.145
73.06
73.953
74.874
75.876
77.012
78.329
79.861
81.624
83.632
85.891
88.406
91.181
94.21
97.479
100.973
104.68
108.583
112.667
116.911
121.28
125.744
130.274
134.844
139.437
144.039
148.628
153.185
157.688
162.124
166.491
170.793
175.022
179.18
183.267
187.291
191.28
195.249
199.202
203.138
207.043
210.892
214.668
218.351
221.907
225.3
228.479
231.381
233.96
236.162
237.923
239.178
239.841
239.837
239.119
237.639
235.364
232.278
228.371
223.64
218.113
211.817
204.78
197.065
188.719
179.803
170.404
160.609
150.521
140.25
129.889
119.539
109.314
99.302
89.579
80.216
71.255
62.75
54.766
47.333
40.481
34.229
28.566
23.484
18.97
14.986
11.491
8.432
5.726
3.313
1.154
-0.796
-2.565
-4.192
-5.737
-7.234
-8.704
-10.171
-11.64
-13.12
-14.629
-16.158
-17.686
-19.188
-20.617
-21.943
-23.155
-24.242
-25.195
-26.007
-26.657
-27.142
-27.472
-27.65
-27.686
-27.586
-27.352
-26.996
-26.543
-26.019
-25.454
-24.871
-24.285
-23.709
-23.156
-22.634
-22.156
-21.723
-21.335
-20.99
-20.69
-20.436
-20.232
-20.075
-19.963
-19.89
-19.851
-19.843
-19.865
-19.912
-19.982
-20.073
-20.185
-20.317
-20.471
-20.647
-20.843
-21.057
-21.289
-21.535
-21.794
-22.064
-22.34
-22.622
-22.906
-23.19
-23.472
-23.751
-24.024
-24.29
-24.546
-24.792
-25.026
-25.246
-25.452
-25.642
-25.816
-25.973
-26.112
-26.233
-26.334
-26.416
-26.477
-26.517
-26.535
-26.531
-26.503
-26.452
-26.377
-26.279
-26.157
-26.012
-25.845
-25.658
-25.451
-25.227
-24.987
-24.734
-24.47
-24.197
-23.918
-23.635
-23.353
-23.072
-22.798
-22.531
-22.276
-22.035
-21.812
-21.608
-21.426
-21.27
-21.141
-21.043
-20.977
-20.946
-20.952
-20.997
-21.081
-21.208
-21.377
-21.589
-21.844
-22.141
-22.481
-22.86
-23.279
-23.734
-24.222
-24.741
-25.287
-25.855
-26.44
-27.038
-27.644
-28.251
-28.855
-29.449
-30.026
-30.582
-31.11
-31.604
-32.057
-32.465
-32.82
-33.117
-33.351
-33.517
-33.609
-33.623
-33.556
-33.404
-33.165
-32.837
-32.419
-31.913
-31.318
-30.638
-29.873
-29.029
-28.108
-27.116
-26.058
-24.941
-23.769
-22.552
-21.298
-20.015
-18.714
-17.403
-16.091
-14.788
-13.504
-12.251
-11.037
-9.869
-8.755
-7.701
-6.718
-5.816
-5.003
-4.281
-3.65
-3.111
-2.662
-2.301
-2.019
-1.801
-1.627
-1.482
-1.35
-1.227
-1.099
-0.953
-0.772
-0.532
-0.225
0.152
0.597
1.109
1.68
2.303
2.944
3.547
4.052
4.394
4.513
4.364
3.894
3.055
1.792
0.035
-2.269
-5.157
-8.666
-12.798
-17.572
-23.048
-29.164
-35.738
-42.503
-49.036
-54.954
-60.015
-63.886
-66.135
-66.545
-65.107
-62.118
-58.383
-54.637
-51.267
-48.762
-47.677
-48.242
-50.382
-53.439
-55.778
-55.647
-51.833
-42.994
-27.513
-4.287
27.237
67.047
112.501
160.28
208.945
255.372
297.68
334.371
358.382
364.206
346.437
299.56
226.763
133.322
26.219
-85.835
-200.605
-318.589
-439.956
-562.227
-675.868
-766.174
-820.112
-832.262
-806.445
-754.896
-690.794
-622.431
-553.069
-481.706
-408.005
-334.641
-266.093
-207.303
-160.928
-126.907
-103.81
-89.467
-81.88
-79.143
-78.86
-78.684
-76.734
-72.086
-64.839
-55.523
-44.805
-33.488
-22.52
-12.962
-5.835
-1.567
0.018
-0.687
-3.109
-6.677
-10.892
-15.149
-18.815
-21.507
-23.051
-23.408
-22.69
-20.991
-18.376
-14.975
-10.936
-6.398
-1.502
3.645
8.951
14.311
19.619
24.769
29.659
34.21
38.356
42.06
45.314
48.13
50.533
52.564
54.265
55.691
56.903
57.962
58.924
59.843
60.766
61.743
62.824
64.053
65.472
67.112
68.988
71.108
73.477
76.094
78.958
82.068
85.411
88.971
92.736
96.688
100.814
105.095
109.503
114.003
118.564
123.154
127.751
132.345
136.919
141.452
145.928
150.325
154.634
158.857
162.99
167.024
170.955
174.779
178.509
182.175
185.794
189.373
192.904
196.362
199.727
202.983
206.102
209.052
211.793
214.266
216.431
218.256
219.695
220.702
221.211
221.134
220.406
218.982
216.824
213.918
210.255
205.831
200.666
194.791
188.242
181.066
173.299
164.976
156.157
146.915
137.335
127.533
117.609
107.659
97.789
88.089
78.632
69.485
60.691
52.285
44.31
36.813
29.835
23.413
17.557
12.264
7.524
3.306
-0.432
-3.74
-6.694
-9.355
-11.769
-13.969
-15.978
-17.821
-19.535
-21.165
-22.744
-24.3
-25.848
-27.399
-28.965
-30.548
-32.131
-33.686
-35.167
-36.541
-37.793
-38.915
-39.904
-40.758
-41.466
-42.018
-42.416
-42.665
-42.769
-42.733
-42.558
-42.253
-41.836
-41.334
-40.778
-40.192
-39.59
-38.985
-38.386
-37.8
-37.237
-36.701
-36.191
-35.705
-35.247
-34.817
-34.419
-34.054
-33.719
-33.409
-33.12
-32.847
-32.588
-32.342
-32.107
-31.881
-31.664
-31.458
-31.264
-31.084
-30.918
-30.766
-30.626
-30.5
-30.385
-30.284
-30.194
-30.116
-30.05
-29.995
-29.954
-29.926
-29.913
-29.913
-29.928
-29.957
-30.002
-30.063
-30.139
-30.23
-30.337
-30.46
-30.599
-30.753
-30.923
-31.106
-31.304
-31.515
-31.737
-31.971
-32.214
-32.465
-32.723
-32.988
-33.257
-33.53
-33.805
-34.082
-34.36
-34.637
-34.912
-35.185
-35.455
-35.719
-35.978
-36.231
-36.478
-36.718
-36.951
-37.177
-37.397
-37.611
-37.821
-38.026
-38.227
-38.425
-38.622
-38.818
-39.015
-39.213
-39.414
-39.617
-39.825
-40.038
-40.256
-40.48
-40.708
-40.942
-41.18
-41.421
-41.664
-41.909
-42.152
-42.394
-42.631
-42.862
-43.084
-43.296
-43.493
-43.674
-43.834
-43.97
-44.079
-44.155
-44.196
-44.196
-44.153
-44.061
-43.918
-43.718
-43.458
-43.134
-42.744
-42.284
-41.753
-41.147
-40.466
-39.709
-38.878
-37.972
-36.995
-35.948
-34.836
-33.663
-32.435
-31.155
-29.831
-28.468
-27.073
-25.653
-24.215
-22.764
-21.311
-19.863
-18.429
-17.018
-15.638
-14.299
-13.009
-11.778
-10.615
-9.527
-8.517
-7.591
-6.753
-6.009
-5.365
-4.825
-4.387
-4.049
-3.808
-3.659
-3.595
-3.603
-3.659
-3.742
-3.834
-3.922
-3.997
-4.051
-4.07
-4.041
-3.948
-3.782
-3.546
-3.237
-2.85
-2.387
-1.861
-1.301
-0.767
-0.321
-0.011
0.118
0.036
-0.28
-0.868
-1.778
-3.05
-4.728
-6.833
-9.372
-12.389
-15.958
-20.061
-24.576
-29.245
-33.683
-37.571
-40.71
-42.847
-43.635
-42.862
-40.558
-37.095
-33.237
-29.678
-26.74
-24.737
-24.197
-25.458
-28.441
-32.493
-36.115
-37.739
-36.52
-31.342
-20.436
-2.484
23.499
56.908
94.509
134.441
176.345
220.137
267.028
312.665
347.711
363.069
348.525
302.079
230.15
140.139
43.254
-55.305
-157.45
-263.732
-376.556
-490.555
-592.139
-670.033
-713.168
-720.182
-700.285
-661.834
-614.349
-562.767
-505.394
-442.982
-377.048
-310.339
-248.491
-195.134
-151.833
-119.045
-95.612
-80.031
-70.962
-66.75
-65.345
-64.647
-62.755
-58.593
-51.995
-43.235
-32.84
-21.478
-9.974
0.635
9.266
15.35
18.867
20.069
19.419
17.412
14.496
11.249
8.306
6.081
4.785
4.486
5.103
6.555
8.794
11.717
15.195
19.123
23.394
27.921
32.643
37.471
42.311
47.07
51.651
55.971
59.961
63.577
66.808
69.663
72.169
74.357
76.266
77.942
79.441
80.817
82.12
83.396
84.687
86.04
87.502
89.121
90.938
92.983
95.272
97.814
100.614
103.673
106.986
110.543
114.326
118.324
122.531
126.941
131.544
136.32
141.242
146.284
151.423
156.635
161.893
167.166
172.426
177.655
182.846
187.992
193.079
198.082
202.966
207.695
212.246
216.605
220.766
224.71
228.423
231.894
235.13
238.143
240.928
243.453
245.661
247.499
248.941
249.974
250.603
250.828
250.636
250.014
248.961
247.478
245.561
243.187
240.303
236.862
232.851
228.299
223.278
217.845
212.029
205.851
199.321
192.459
185.298
177.852
170.112
162.084
153.8
145.325
136.773
128.24
119.786
111.438
103.191
95.054
87.059
79.24
71.624
64.239
57.107
50.282
43.847
37.855
32.325
27.24
22.534
18.159
14.099
10.344
6.896
3.751
0.891
-1.695
-4.003
-6.04
-7.819
-9.381
-10.794
-12.099
-13.314
-14.435
-15.43
-16.284
-16.997
-17.569
-17.997
-18.286
-18.435
-18.46
-18.388
-18.237
-18.02
-17.734
-17.368
-16.92
-16.4
-15.826
-15.223
-14.611
-14.003
-13.417
-12.87
-12.377
-11.946
-11.581
-11.274
-11.023
-10.829
-10.692
-10.617
-10.604
-10.649
-10.748
-10.896
-11.088
-11.318
-11.579
-11.861
-12.158
-12.462
-12.768
-13.075
-13.378
-13.672
-13.953
-14.218
-14.463
-14.685
-14.879
-15.043
-15.172
-15.264
-15.319
-15.335
-15.312
-15.251
-15.151
-15.015
-14.846
-14.644
-14.414
-14.158
-13.881
-13.585
-13.276
-12.959
-12.639
-12.32
-12.01
-11.713
-11.435
-11.183
-10.96
-10.771
-10.62
-10.512
-10.45
-10.436
-10.474
-10.566
-10.714
-10.922
-11.19
-11.521
-11.916
-12.374
-12.895
-13.479
-14.126
-14.832
-15.597
-16.418
-17.293
-18.219
-19.193
-20.21
-21.267
-22.358
-23.479
-24.622
-25.781
-26.949
-28.119
-29.283
-30.436
-31.572
-32.686
-33.771
-34.825
-35.843
-36.824
-37.761
-38.65
-39.484
-40.257
-40.963
-41.597
-42.15
-42.617
-42.993
-43.275
-43.462
-43.552
-43.543
-43.43
-43.208
-42.875
-42.433
-41.885
-41.236
-40.494
-39.671
-38.786
-37.866
-36.931
-35.992
-35.057
-34.125
-33.195
-32.269
-31.346
-30.424
-29.5
-28.566
-27.617
-26.654
-25.668
-24.643
-23.551
-22.344
-20.997
-19.497
-17.842
-16.045
-14.118
-12.075
-9.94
-7.747
-5.525
-3.306
-1.109
1.058
3.172
5.203
7.105
8.816
10.295
11.519
12.468
13.136
13.513
13.588
13.37
12.875
12.11
11.075
9.755
8.119
6.145
3.819
1.134
-1.897
-5.263
-8.963
-13.002
-17.385
-22.104
-27.149
-32.483
-38.1
-44.015
-50.146
-56.321
-62.256
-67.515
-71.701
-74.538
-75.675
-74.762
-71.744
-66.736
-60.261
-53.375
-46.975
-41.765
-38.505
-37.69
-39.281
-42.904
-47.32
-50.414
-50.249
-44.889
-32.467
-11.73
17.883
56.083
101.242
150.565
200.778
247.802
287.244
314.837
326.653
319.849
292.66
244.484
176.071
89.747
-10.763
-120.525
-234.067
-346.116
-451.034
-543.457
-618.96
-674.154
-707.511
-719.184
-710.028
-681.72
-637.451
-581.22
-517.511
-451.069
-385.431
-323.379
-267.771
-220.709
-183.166
-155.109
-135.289
-121.76
-113.055
-107.68
-103.694
-99.413
-93.434
-85.037
-74.529
-62.619
-49.898
-37.07
-24.983
-14.437
-6.274
-0.896
1.88
2.413
1.166
-1.341
-4.644
-8.245
-11.588
-14.326
-16.292
-17.39
-17.653
-17.13
-15.84
-13.866
-11.314
-8.261
-4.797
-1.004
3.05
7.267
11.547
15.807
19.953
23.909
27.612
30.995
34.029
36.716
39.068
41.115
42.895
44.445
45.817
47.069
48.254
49.426
50.632
51.914
53.318
54.888
56.661
58.673
60.949
63.501
66.335
69.452
72.847
76.51
80.431
84.592
88.978
93.576
98.365
103.323
108.432
113.668
119.007
124.426
129.895
135.388
140.888
146.375
151.827
157.228
162.547
167.754
172.822
177.718
182.421
186.911
191.16
195.142
198.846
202.251
205.347
208.127
210.552
212.593
214.228
215.433
216.202
216.537
216.435
215.906
214.965
213.616
211.87
209.736
207.196
204.245
200.871
197.058
192.829
188.204
183.194
177.822
172.103
166.04
159.64
152.897
145.781
138.287
130.423
122.206
113.687
104.92
95.963
86.895
77.779
68.672
59.634
50.713
41.942
33.379
25.08
17.115
9.582
2.553
-3.929
-9.826
-15.13
-19.849
-23.998
-27.623
-30.789
-33.543
-35.928
-37.977
-39.702
-41.137
-42.322
-43.304
-44.149
-44.909
-45.618
-46.309
-47.005
-47.714
-48.438
-49.153
-49.815
-50.393
-50.874
-51.248
-51.523
-51.7
-51.773
-51.739
-51.595
-51.339
-50.974
-50.5
-49.916
-49.231
-48.459
-47.622
-46.754
-45.883
-45.024
-44.191
-43.39
-42.628
-41.91
-41.238
-40.609
-40.021
-39.472
-38.962
-38.495
-38.069
-37.681
-37.325
-36.994
-36.683
-36.386
-36.099
-35.819
-35.542
-35.267
-34.992
-34.72
-34.451
-34.183
-33.917
-33.651
-33.385
-33.116
-32.845
-32.569
-32.288
-32.002
-31.71
-31.413
-31.112
-30.808
-30.503
-30.197
-29.893
-29.593
-29.299
-29.012
-28.734
-28.469
-28.217
-27.981
-27.763
-27.566
-27.39
-27.239
-27.113
-27.014
-26.942
-26.898
-26.883
-26.896
-26.938
-27.009
-27.109
-27.239
-27.397
-27.586
-27.805
-28.053
-28.331
-28.638
-28.973
-29.336
-29.723
-30.135
-30.568
-31.022
-31.493
-31.978
-32.476
-32.982
-33.494
-34.008
-34.521
-35.028
-35.526
-36.011
-36.479
-36.927
-37.351
-37.746
-38.111
-38.44
-38.73
-38.978
-39.18
-39.332
-39.431
-39.472
-39.453
-39.369
-39.217
-38.994
-38.698
-38.327
-37.878
-37.353
-36.749
-36.07
-35.316
-34.49
-33.595
-32.634
-31.612
-30.534
-29.403
-28.226
-27.006
-25.751
-24.466
-23.16
-21.841
-20.518
-19.198
-17.89
-16.602
-15.342
-14.119
-12.939
-11.81
-10.738
-9.73
-8.797
-7.949
-7.193
-6.531
-5.963
-5.485
-5.091
-4.771
-4.514
-4.301
-4.117
-3.948
-3.782
-3.611
-3.424
-3.207
-2.946
-2.62
-2.218
-1.738
-1.183
-0.566
0.096
0.781
1.448
2.047
2.527
2.845
2.955
2.816
2.379
1.595
0.42
-1.176
-3.214
-5.717
-8.7
-12.164
-16.103
-20.469
-25.217
-30.326
-35.693
-41.141
-46.388
-51.001
-54.562
-56.77
-57.246
-55.611
-51.786
-45.888
-38.495
-30.703
-23.459
-17.584
-13.972
-13.262
-15.561
-20.52
-26.757
-32.087
-34.626
-32.138
-22.253
-3.424
25.376
63.373
107.039
153.746
201.652
248.906
295.97
338.101
365.488
369.302
339.445
274.149
182.672
75.662
-35.376
-144.252
-254.519
-369.612
-487.593
-600.225
-691.374
-746.348
-760.143
-737.108
-690.009
-632.323
-572.143
-512.169
-451.003
-387.933
-324.748
-265.073
-213.139
-171.059
-138.878
-115.481
-98.832
-87.353
-80
-75.116
-71.211
-67.261
-62.156
-55.758
-48.66
-40.95
-32.785
-24.809
-17.45
-11.11
-6.484
-3.455
-1.458
-0.559
-0.623
-1.268
-2.341
-3.501
-4.23
-4.529
-4.576
-4.11
-3.031
-1.358
1.027
4.008
7.403
11.246
15.562
20.164
24.913
29.684
34.299
38.709
42.877
46.695
50.111
53.126
55.754
58.041
60.044
61.788
63.309
64.661
65.891
67.052
68.197
69.364
70.599
71.947
73.453
75.163
77.108
79.309
81.778
84.517
87.523
90.794
94.319
98.088
102.092
106.318
110.75
115.374
120.172
125.12
130.191
135.35
140.551
145.761
150.951
156.096
161.179
166.183
171.086
175.874
180.529
185.037
189.388
193.565
197.55
201.336
204.925
208.333
211.59
214.711
217.687
220.51
223.158
225.606
227.832
229.805
231.48
232.824
233.803
234.39
234.57
234.3
233.531
232.196
230.22
227.559
224.197
220.124
215.345
209.878
203.741
196.975
189.643
181.786
173.447
164.672
155.505
146.024
136.331
126.541
116.769
107.105
97.619
88.376
79.434
70.834
62.619
54.811
47.419
40.479
34.023
28.072
22.64
17.705
13.223
9.134
5.387
1.94
-1.239
-4.177
-6.901
-9.427
-11.772
-13.944
-15.953
-17.833
-19.613
-21.321
-22.969
-24.553
-26.053
-27.44
-28.695
-29.801
-30.747
-31.532
-32.154
-32.618
-32.936
-33.121
-33.18
-33.112
-32.914
-32.588
-32.138
-31.582
-30.937
-30.23
-29.48
-28.71
-27.937
-27.173
-26.429
-25.708
-25.015
-24.348
-23.709
-23.102
-22.531
-22
-21.512
-21.065
-20.659
-20.289
-19.953
-19.644
-19.359
-19.094
-18.846
-18.614
-18.395
-18.191
-18.001
-17.824
-17.658
-17.503
-17.355
-17.213
-17.076
-16.941
-16.809
-16.677
-16.547
-16.417
-16.289
-16.162
-16.037
-15.914
-15.793
-15.675
-15.56
-15.449
-15.343
-15.243
-15.15
-15.064
-14.987
-14.92
-14.863
-14.818
-14.785
-14.765
-14.757
-14.763
-14.782
-14.815
-14.862
-14.922
-14.997
-15.086
-15.189
-15.306
-15.436
-15.579
-15.734
-15.902
-16.08
-16.268
-16.467
-16.675
-16.892
-17.118
-17.352
-17.595
-17.845
-18.103
-18.369
-18.643
-18.924
-19.213
-19.51
-19.816
-20.13
-20.454
-20.788
-21.13
-21.483
-21.845
-22.215
-22.594
-22.981
-23.374
-23.773
-24.177
-24.585
-24.995
-25.407
-25.819
-26.228
-26.633
-27.031
-27.42
-27.797
-28.158
-28.501
-28.822
-29.118
-29.385
-29.62
-29.818
-29.975
-30.088
-30.15
-30.16
-30.111
-30.001
-29.826
-29.584
-29.272
-28.888
-28.432
-27.904
-27.305
-26.637
-25.9
-25.096
-24.23
-23.303
-22.321
-21.285
-20.202
-19.074
-17.909
-16.713
-15.494
-14.259
-13.016
-11.772
-10.535
-9.315
-8.121
-6.96
-5.839
-4.766
-3.746
-2.788
-1.905
-1.102
-0.38
0.258
0.818
1.303
1.718
2.073
2.387
2.675
2.955
3.238
3.529
3.834
4.163
4.525
4.941
5.418
5.952
6.541
7.173
7.832
8.505
9.163
9.75
10.213
10.496
10.548
10.344
9.858
9.062
7.925
6.396
4.434
2.011
-0.898
-4.285
-8.16
-12.574
-17.493
-22.782
-28.214
-33.426
-38.075
-41.938
-44.73
-46.104
-45.842
-43.87
-40.456
-36.294
-32.101
-28.442
-25.874
-24.967
-26.118
-29.483
-34.556
-40.025
-44.261
-45.761
-43.078
-34.382
-18.121
6.773
40.816
82.047
127.696
176.576
226.002
274.226
319.61
354.721
373.5
370.095
338.286
280.261
200.225
104.574
1.658
-105.528
-217.149
-335.809
-460.658
-584.179
-692.25
-766.155
-795.821
-781.532
-733.302
-669.578
-603.28
-540.094
-480.905
-421.688
-361.43
-302.789
-248.952
-203.499
-167.665
-140.592
-120.808
-106.4
-96.002
-88.421
-82.344
-76.82
-70.996
-64.162
-56.304
-47.758
-38.811
-29.968
-21.732
-14.417
-8.495
-4.438
-2.269
-1.784
-2.669
-4.448
-6.711
-9.133
-11.29
-12.748
-13.273
-12.771
-11.271
-8.922
-5.842
-2.128
2.091
6.68
11.512
16.466
21.437
26.34
31.085
35.572
39.703
43.368
46.492
49.047
51.053
52.577
53.689
54.454
54.936
55.198
55.305
55.33
55.344
55.41
55.583
55.923
56.501
57.406
58.719
60.481
62.695
65.322
68.325
71.683
75.376
79.384
83.681
88.237
93.023
98.025
103.23
108.613
114.136
119.74
125.365
130.971
136.545
142.092
147.614
153.099
158.53
163.889
169.166
174.347
179.407
184.313
189.027
193.521
197.777
201.785
205.54
209.023
212.208
215.064
217.563
219.683
221.405
222.711
223.581
224
223.962
223.469
222.525
221.133
219.296
217.013
214.289
211.134
207.56
203.582
199.215
194.477
189.388
183.971
178.251
172.252
166
159.516
152.826
145.957
138.935
131.787
124.542
117.226
109.866
102.49
95.125
87.799
80.534
73.356
66.287
59.35
52.565
45.952
39.528
33.31
27.314
21.553
16.039
10.784
5.796
1.081
-3.353
-7.504
-11.368
-14.947
-18.241
-21.253
-23.987
-26.448
-28.644
-30.583
-32.273
-33.725
-34.949
-35.957
-36.761
-37.374
-37.809
-38.08
-38.199
-38.181
-38.038
-37.785
-37.433
-36.996
-36.486
-35.914
-35.293
-34.633
-33.945
-33.24
-32.526
-31.811
-31.105
-30.413
-29.743
-29.1
-28.488
-27.911
-27.372
-26.874
-26.417
-26.003
-25.632
-25.303
-25.016
-24.77
-24.563
-24.394
-24.259
-24.157
-24.086
-24.043
-24.025
-24.031
-24.059
-24.105
-24.168
-24.246
-24.337
-24.439
-24.55
-24.669
-24.794
-24.924
-25.057
-25.192
-25.329
-25.468
-25.606
-25.745
-25.885
-26.026
-26.168
-26.312
-26.459
-26.609
-26.764
-26.924
-27.09
-27.264
-27.445
-27.635
-27.834
-28.041
-28.258
-28.483
-28.717
-28.959
-29.207
-29.461
-29.72
-29.981
-30.243
-30.506
-30.766
-31.023
-31.275
-31.519
-31.755
-31.981
-32.195
-32.396
-32.582
-32.752
-32.904
-33.037
-33.15
-33.242
-33.311
-33.356
-33.376
-33.373
-33.344
-33.29
-33.212
-33.11
-32.985
-32.839
-32.673
-32.488
-32.288
-32.075
-31.851
-31.62
-31.384
-31.148
-30.914
-30.685
-30.464
-30.253
-30.055
-29.871
-29.703
-29.551
-29.417
-29.301
-29.203
-29.121
-29.057
-29.01
-28.98
-28.967
-28.968
-28.983
-29.01
-29.048
-29.092
-29.138
-29.179
-29.211
-29.229
-29.228
-29.203
-29.147
-29.054
-28.919
-28.738
-28.508
-28.221
-27.868
-27.438
-26.928
-26.34
-25.683
-24.959
-24.174
-23.331
-22.44
-21.513
-20.558
-19.574
-18.551
-17.478
-16.354
-15.186
-13.991
-12.783
-11.569
-10.345
-9.103
-7.844
-6.57
-5.274
-3.942
-2.554
-1.105
0.378
1.851
3.275
4.628
5.904
7.109
8.247
9.312
10.3
11.208
12.039
12.791
13.448
13.978
14.348
14.549
14.611
14.589
14.524
14.436
14.332
14.198
14.025
13.809
13.521
13.126
12.593
11.891
11.001
9.932
8.684
7.238
5.568
3.613
1.319
-1.341
-4.402
-7.869
-11.721
-15.964
-20.606
-25.575
-30.725
-35.806
-40.436
-44.286
-47.116
-48.639
-48.486
-46.426
-42.532
-37.229
-31.366
-25.838
-21.198
-17.943
-16.777
-18.135
-21.85
-27.138
-32.323
-35.451
-35.258
-30.416
-18.949
0.765
29.685
66.95
109.151
152.871
196.499
241.106
288.698
337.736
380.724
403.83
393.058
341.65
253.716
143.953
27.485
-87.12
-200.685
-320.713
-448.459
-575.59
-685.647
-760.165
-791.321
-783.321
-748.546
-700.671
-647.415
-590.316
-527.258
-457.668
-384.21
-311.53
-245.428
-189.713
-145.703
-113.305
-91.177
-77.634
-71.157
-69.826
-71.207
-72.959
-73.033
-70.314
-64.736
-56.647
-46.59
-35.329
-23.818
-13.17
-4.543
1.507
5.048
6.371
5.976
4.371
2.001
-0.555
-2.664
-3.945
-4.233
-3.504
-1.886
0.52
3.65
7.379
11.562
16.076
20.795
25.631
30.517
35.369
40.103
44.634
48.876
52.763
56.24
59.279
61.88
64.06
65.849
67.287
68.421
69.305
70.004
70.577
71.083
71.574
72.095
72.697
73.429
74.335
75.459
76.83
78.465
80.377
82.572
85.054
87.82
90.865
94.174
97.737
101.542
105.58
109.837
114.301
118.953
123.773
128.741
133.835
139.035
144.317
149.656
155.027
160.405
165.762
171.074
176.312
181.447
186.451
191.292
195.942
200.373
204.557
208.466
212.075
215.359
218.298
220.87
223.058
224.843
226.212
227.152
227.653
227.706
227.306
226.448
225.133
223.36
221.134
218.459
215.344
211.8
207.837
203.471
198.719
193.598
188.129
182.332
176.233
169.854
163.222
156.364
149.308
142.081
134.712
127.231
119.666
112.047
104.401
96.757
89.142
81.584
74.107
66.737
59.498
52.411
45.498
38.78
32.273
25.995
19.96
14.182
8.673
3.441
-1.504
-6.157
-10.513
-14.57
-18.327
-21.785
-24.945
-27.812
-30.391
-32.69
-34.715
-36.478
-37.987
-39.254
-40.292
-41.113
-41.731
-42.159
-42.412
-42.504
-42.45
-42.265
-41.963
-41.559
-41.066
-40.499
-39.871
-39.194
-38.482
-37.744
-36.993
-36.238
-35.487
-34.75
-34.034
-33.346
-32.691
-32.074
-31.499
-30.971
-30.49
-30.06
-29.68
-29.352
-29.075
-28.848
-28.671
-28.541
-28.457
-28.415
-28.414
-28.45
-28.519
-28.619
-28.745
-28.894
-29.062
-29.244
-29.438
-29.639
-29.844
-30.05
-30.254
-30.453
-30.645
-30.827
-30.997
-31.154
-31.297
-31.425
-31.536
-31.63
-31.707
-31.768
-31.812
-31.84
-31.852
-31.848
-31.831
-31.799
-31.755
-31.698
-31.629
-31.55
-31.462
-31.365
-31.261
-31.152
-31.039
-30.922
-30.804
-30.686
-30.569
-30.453
-30.34
-30.231
-30.126
-30.025
-29.931
-29.842
-29.759
-29.682
-29.611
-29.545
-29.485
-29.43
-29.379
-29.331
-29.287
-29.247
-29.209
-29.174
-29.143
-29.115
-29.09
-29.07
-29.053
-29.039
-29.03
-29.025
-29.025
-29.028
-29.035
-29.047
-29.064
-29.087
-29.114
-29.148
-29.188
-29.235
-29.288
-29.35
-29.419
-29.497
-29.584
-29.682
-29.791
-29.913
-30.047
-30.194
-30.355
-30.529
-30.716
-30.914
-31.123
-31.34
-31.564
-31.794
-32.027
-32.26
-32.491
-32.718
-32.938
-33.149
-33.346
-33.528
-33.69
-33.829
-33.942
-34.026
-34.075
-34.085
-34.053
-33.974
-33.845
-33.662
-33.419
-33.115
-32.743
-32.302
-31.792
-31.208
-30.548
-29.809
-28.989
-28.091
-27.124
-26.09
-24.993
-23.839
-22.634
-21.389
-20.114
-18.81
-17.48
-16.126
-14.749
-13.362
-11.976
-10.6
-9.248
-7.921
-6.62
-5.356
-4.137
-2.963
-1.836
-0.749
0.306
1.309
2.238
3.078
3.814
4.447
4.98
5.411
5.743
5.982
6.137
6.23
6.278
6.277
6.226
6.115
5.935
5.715
5.488
5.273
5.088
4.936
4.822
4.752
4.719
4.69
4.601
4.388
3.994
3.39
2.565
1.5
0.16
-1.518
-3.6
-6.139
-9.158
-12.708
-16.884
-21.705
-27.116
-32.908
-38.693
-44.124
-48.937
-52.83
-55.48
-56.666
-56.279
-54.619
-52.406
-50.252
-48.683
-48.138
-48.924
-51.405
-55.733
-61.237
-66.611
-70.472
-71.287
-67.84
-59.067
-43.401
-19.618
12.413
51.992
97.627
147.042
198.002
247.713
291.931
326.279
346.959
350.515
334.416
297.152
237.656
157.362
61.132
-45.796
-158.953
-276.699
-399.459
-523.908
-640.963
-735.713
-793.661
-808.557
-784.31
-734.277
-672.746
-608.663
-545.159
-480.297
-413.078
-345.821
-282.736
-228.759
-186.499
-155.701
-134.85
-121.747
-114.35
-110.857
-109.069
-106.835
-102.501
-95.316
-85.468
-73.573
-60.371
-46.68
-33.447
-21.703
-12.412
-6.003
-2.334
-1.034
-1.592
-3.474
-6.195
-9.207
-11.911
-13.94
-15.134
-15.42
-14.849
-13.476
-11.313
-8.448
-5.014
-1.118
3.123
7.599
12.235
16.913
21.492
25.874
29.962
33.699
37.07
40.039
42.587
44.722
46.453
47.82
48.886
49.707
50.351
50.898
51.422
52.014
52.78
53.788
55.086
56.692
58.589
60.777
63.265
66.049
69.127
72.487
76.107
79.972
84.069
88.371
92.848
97.456
102.137
106.853
111.587
116.332
121.105
125.911
130.739
135.576
140.399
145.185
149.912
154.552
159.08
163.477
167.727
171.823
175.766
179.554
183.191
186.667
189.962
193.061
195.955
198.645
201.155
203.509
205.725
207.813
209.768
211.588
213.27
214.805
216.172
217.33
218.22
218.792
219.015
218.85
218.265
217.213
215.611
213.389
210.49
206.868
202.503
197.377
191.463
184.753
177.266
169.052
160.193
150.769
140.84
130.483
119.772
108.8
97.7
86.596
75.607
64.85
54.429
44.439
34.989
26.172
18.045
10.642
3.962
-1.997
-7.23
-11.746
-15.563
-18.713
-21.258
-23.264
-24.799
-25.947
-26.786
-27.387
-27.831
-28.191
-28.519
-28.855
-29.218
-29.621
-30.078
-30.598
-31.185
-31.837
-32.538
-33.267
-33.999
-34.697
-35.327
-35.867
-36.289
-36.572
-36.705
-36.678
-36.495
-36.166
-35.704
-35.116
-34.416
-33.617
-32.735
-31.79
-30.804
-29.802
-28.806
-27.832
-26.895
-26.005
-25.171
-24.4
-23.693
-23.047
-22.46
-21.928
-21.45
-21.024
-20.646
-20.31
-20.012
-19.745
-19.504
-19.285
-19.084
-18.896
-18.72
-18.552
-18.392
-18.238
-18.089
-17.943
-17.798
-17.652
-17.502
-17.348
-17.186
-17.015
-16.834
-16.642
-16.439
-16.224
-15.998
-15.76
-15.513
-15.256
-14.991
-14.719
-14.442
-14.162
-13.881
-13.601
-13.325
-13.056
-12.796
-12.547
-12.311
-12.091
-11.888
-11.704
-11.54
-11.398
-11.278
-11.182
-11.111
-11.065
-11.044
-11.049
-11.08
-11.136
-11.218
-11.324
-11.453
-11.605
-11.777
-11.969
-12.179
-12.405
-12.646
-12.899
-13.164
-13.438
-13.718
-14.004
-14.292
-14.581
-14.869
-15.155
-15.435
-15.71
-15.979
-16.24
-16.493
-16.738
-16.974
-17.202
-17.423
-17.636
-17.842
-18.042
-18.238
-18.43
-18.619
-18.807
-18.995
-19.184
-19.375
-19.568
-19.765
-19.966
-20.169
-20.376
-20.584
-20.795
-21.007
-21.219
-21.429
-21.637
-21.84
-22.037
-22.224
-22.398
-22.557
-22.696
-22.812
-22.9
-22.955
-22.974
-22.952
-22.883
-22.762
-22.585
-22.347
-22.043
-21.667
-21.215
-20.684
-20.071
-19.373
-18.589
-17.718
-16.761
-15.719
-14.596
-13.394
-12.115
-10.766
-9.349
-7.871
-6.338
-4.755
-3.129
-1.469
0.217
1.918
3.623
5.322
7.006
8.664
10.284
11.856
13.368
14.812
16.179
17.458
18.641
19.713
20.666
21.498
22.21
22.801
23.275
23.638
23.9
24.077
24.187
24.243
24.26
24.247
24.215
24.178
24.151
24.154
24.195
24.275
24.391
24.538
24.709
24.889
25.05
25.144
25.125
24.951
24.571
23.947
23.035
21.79
20.19
18.206
15.809
12.983
9.71
5.97
1.787
-2.831
-7.909
-13.339
-18.94
-24.447
-29.426
-33.498
-36.419
-37.832
-37.336
-34.877
-30.604
-25.01
-19.132
-13.751
-9.337
-6.654
-6.351
-8.457
-12.648
-17.764
-21.694
-22.894
-19.967
-10.802
6.338
32.516
67.236
107.519
149.959
192.738
236.758
283.711
331.528
372.92
394.754
383.774
334.874
251.717
147.267
36.401
-73.227
-178.787
-283.103
-388.022
-486.439
-570.623
-631.61
-662.637
-667.873
-651.751
-618.992
-576.667
-525.825
-468.22
-407.893
-346.448
-287.259
-234.069
-188.299
-150.917
-122.192
-100.995
-85.803
-75.629
-69.33
-65.272
-62.162
-58.742
-53.752
-46.967
-38.764
-29.348
-19.165
-8.887
0.995
9.795
16.729
21.623
24.625
25.934
25.968
25.134
23.727
22.171
20.92
20.205
20.153
20.816
22.108
23.969
26.357
29.169
32.308
35.691
39.236
42.88
46.574
50.25
53.849
57.323
60.619
63.697
66.516
69.036
71.249
73.166
74.808
76.21
77.408
78.438
79.344
80.179
80.99
81.822
82.714
83.695
84.802
86.07
87.534
89.232
91.183
93.397
95.881
98.638
101.67
104.978
108.554
112.376
116.429
120.693
125.15
129.781
134.552
139.424
144.355
149.312
154.272
159.218
164.128
168.982
173.756
178.428
182.989
187.433
191.75
195.924
199.944
203.809
207.536
211.157
214.693
218.142
221.49
224.709
227.775
230.661
233.334
235.753
237.866
239.631
241.011
241.981
242.509
242.543
242.014
240.835
238.935
236.28
232.855
228.659
223.701
218.004
211.601
204.546
196.901
188.708
180.01
170.849
161.277
151.379
141.259
131.04
120.841
110.757
100.863
91.227
81.904
72.93
64.339
56.147
48.367
41.043
34.207
27.883
22.091
16.814
12.017
7.655
3.66
-0.021
-3.429
-6.602
-9.565
-12.331
-14.92
-17.342
-19.612
-21.769
-23.842
-25.855
-27.834
-29.784
-31.699
-33.565
-35.35
-37.023
-38.57
-39.978
-41.244
-42.377
-43.376
-44.248
-45.001
-45.632
-46.14
-46.528
-46.794
-46.945
-46.993
-46.955
-46.855
-46.721
-46.568
-46.412
-46.262
-46.122
-45.998
-45.893
-45.804
-45.732
-45.678
-45.642
-45.628
-45.635
-45.662
-45.705
-45.76
-45.82
-45.881
-45.939
-45.991
-46.035
-46.07
-46.095
-46.11
-46.119
-46.12
-46.113
-46.098
-46.073
-46.038
-45.994
-45.94
-45.875
-45.8
-45.716
-45.624
-45.525
-45.421
-45.313
-45.201
-45.086
-44.971
-44.856
-44.743
-44.632
-44.525
-44.423
-44.327
-44.239
-44.16
-44.088
-44.026
-43.973
-43.929
-43.894
-43.866
-43.847
-43.834
-43.828
-43.828
-43.835
-43.847
-43.865
-43.888
-43.917
-43.949
-43.986
-44.025
-44.066
-44.109
-44.155
-44.202
-44.252
-44.304
-44.361
-44.421
-44.487
-44.559
-44.638
-44.725
-44.82
-44.925
-45.04
-45.167
-45.307
-45.461
-45.631
-45.816
-46.017
-46.235
-46.468
-46.715
-46.975
-47.247
-47.527
-47.813
-48.104
-48.395
-48.687
-48.978
-49.264
-49.544
-49.815
-50.074
-50.315
-50.534
-50.722
-50.873
-50.978
-51.032
-51.028
-50.961
-50.826
-50.617
-50.334
-49.975
-49.534
-49.008
-48.387
-47.665
-46.843
-45.925
-44.916
-43.831
-42.678
-41.471
-40.229
-38.966
-37.689
-36.403
-35.099
-33.768
-32.41
-31.032
-29.649
-28.274
-26.908
-25.551
-24.205
-22.863
-21.516
-20.151
-18.734
-17.247
-15.685
-14.059
-12.398
-10.737
-9.093
-7.478
-5.899
-4.365
-2.894
-1.503
-0.202
0.995
2.064
2.972
3.658
4.077
4.209
4.047
3.602
2.887
1.907
0.658
-0.847
-2.595
-4.572
-6.765
-9.175
-11.8
-14.63
-17.645
-20.808
-24.09
-27.468
-30.919
-34.428
-37.983
-41.571
-45.177
-48.806
-52.44
-56.077
-59.755
-63.404
-66.875
-69.973
-72.391
-73.847
-74.18
-73.118
-70.309
-65.764
-59.688
-52.472
-44.949
-37.751
-31.261
-26.211
-23.31
-22.58
-23.678
-25.827
-27.549
-27.495
-24.311
-16.174
-1.273
20.515
47.537
79.203
114.921
155.09
202.086
251.547
293.984
320.26
319.351
288.416
233.755
160.848
76.956
-13.614
-111.944
-216.268
-323.168
-427.846
-522.914
-602.664
-663.467
-703.039
-721.085
-718.219
-695.792
-656.384
-603.449
-540.941
-473.202
-404.228
-337.223
-275.157
-220.395
-174.427
-138.133
-111.36
-92.915
-81.393
-75.389
-73.092
-72.793
-72.906
-71.843
-68.881
-64.071
-57.635
-50.005
-41.858
-33.802
-26.588
-21.097
-17.632
-16.083
-16.204
-17.535
-19.615
-22.065
-24.39
-26.047
-26.759
-26.425
-25.059
-22.814
-19.802
-16.102
-11.851
-7.198
-2.277
2.8
7.944
13.096
18.175
23.085
27.736
32.035
35.932
39.41
42.469
45.131
47.423
49.38
51.05
52.49
53.758
54.907
55.987
57.042
58.122
59.278
60.564
62.032
63.715
65.635
67.808
70.244
72.954
75.94
79.194
82.701
86.448
90.418
94.599
98.969
103.498
108.154
112.902
117.719
122.591
127.501
132.431
137.363
142.276
147.159
152.015
156.844
161.638
166.392
171.096
175.76
180.411
185.064
189.727
194.39
199.022
203.595
208.082
212.447
216.648
220.623
224.292
227.589
230.467
232.876
234.771
236.088
236.743
236.67
235.829
234.194
231.77
228.564
224.579
219.85
214.428
208.385
201.821
194.815
187.426
179.718
171.752
163.604
155.373
147.133
138.943
130.853
122.897
115.112
107.536
100.186
93.056
86.13
79.378
72.783
66.348
60.072
53.955
47.993
42.173
36.492
30.962
25.59
20.385
15.351
10.49
5.813
1.341
-2.904
-6.896
-10.619
-14.067
-17.235
-20.121
-22.725
-25.047
-27.095
-28.882
-30.422
-31.723
-32.796
-33.65
-34.299
-34.758
-35.045
-35.176
-35.166
-35.031
-34.784
-34.44
-34.012
-33.512
-32.95
-32.334
-31.676
-30.983
-30.267
-29.537
-28.8
-28.065
-27.338
-26.629
-25.941
-25.28
-24.65
-24.055
-23.496
-22.976
-22.497
-22.058
-21.661
-21.305
-20.989
-20.713
-20.474
-20.272
-20.104
-19.968
-19.861
-19.781
-19.724
-19.688
-19.67
-19.667
-19.678
-19.7
-19.73
-19.766
-19.806
-19.849
-19.892
-19.935
-19.976
-20.014
-20.047
-20.076
-20.1
-20.119
-20.132
-20.141
-20.144
-20.142
-20.136
-20.126
-20.113
-20.098
-20.08
-20.061
-20.041
-20.02
-20
-19.981
-19.963
-19.947
-19.933
-19.921
-19.913
-19.907
-19.905
-19.906
-19.91
-19.918
-19.928
-19.942
-19.959
-19.978
-20
-20.025
-20.052
-20.083
-20.116
-20.152
-20.191
-20.233
-20.28
-20.33
-20.385
-20.445
-20.511
-20.584
-20.664
-20.754
-20.854
-20.966
-21.09
-21.228
-21.382
-21.552
-21.74
-21.946
-22.172
-22.418
-22.686
-22.974
-23.284
-23.614
-23.965
-24.335
-24.723
-25.127
-25.545
-25.974
-26.413
-26.857
-27.305
-27.753
-28.196
-28.632
-29.056
-29.464
-29.851
-30.212
-30.543
-30.839
-31.094
-31.303
-31.461
-31.563
-31.604
-31.579
-31.484
-31.315
-31.067
-30.737
-30.324
-29.824
-29.238
-28.564
-27.805
-26.961
-26.037
-25.036
-23.962
-22.821
-21.619
-20.362
-19.058
-17.715
-16.338
-14.937
-13.521
-12.098
-10.68
-9.275
-7.892
-6.541
-5.233
-3.979
-2.788
-1.669
-0.628
0.329
1.197
1.967
2.632
3.188
3.634
3.971
4.201
4.326
4.35
4.284
4.149
3.966
3.753
3.526
3.29
3.059
2.846
2.667
2.542
2.48
2.482
2.551
2.689
2.899
3.173
3.484
3.776
3.984
4.053
3.936
3.601
3.024
2.164
0.965
-0.627
-2.66
-5.167
-8.156
-11.671
-15.805
-20.549
-25.769
-31.195
-36.384
-40.934
-44.588
-47.037
-47.895
-46.995
-44.418
-40.599
-36.495
-33.001
-30.657
-30.006
-31.551
-35.387
-41.173
-47.937
-53.753
-56.615
-54.93
-47.038
-31.43
-7.156
26.124
67.773
115.76
167.435
219.926
269.579
312.38
344.417
361.823
361.393
341.025
299.256
236.677
156.701
63.337
-38.859
-148.02
-265.925
-390.585
-515.913
-629.415
-712.546
-754.676
-754.746
-721.016
-670.648
-615.742
-561.446
-508.258
-452.155
-392.377
-331.687
-273.842
-223.069
-181.216
-148.17
-123.145
-104.652
-91.432
-82.48
-76.253
-71.373
-66.706
-61.103
-54.202
-46.206
-37.337
-28.002
-18.824
-10.32
-3.09
2.15
5.222
6.31
5.675
3.789
1.112
-1.99
-5.043
-7.529
-9.145
-9.755
-9.335
-7.999
-5.845
-2.936
0.608
4.655
9.08
13.759
18.598
23.517
28.432
33.246
37.866
42.198
46.162
49.715
52.843
55.557
57.885
59.862
61.53
62.94
64.153
65.226
66.211
67.157
68.102
69.09
70.167
71.379
72.77
74.372
76.204
78.277
80.6
83.175
86
89.07
92.367
95.878
99.591
103.497
107.587
111.854
116.284
120.858
125.558
130.362
135.244
140.177
145.123
150.043
154.906
159.687
164.365
168.929
173.362
177.651
181.783
185.738
189.497
193.048
196.373
199.461
202.313
204.932
207.338
209.561
211.618
213.512
215.242
216.781
218.106
219.19
220
220.513
220.714
220.579
220.087
219.222
217.954
216.246
214.053
211.304
207.94
203.931
199.257
193.929
187.972
181.408
174.269
166.592
158.406
149.759
140.704
131.29
121.579
111.649
101.589
91.524
81.586
71.875
62.477
53.456
44.859
36.741
29.158
22.147
15.742
9.959
4.802
0.278
-3.615
-6.899
-9.617
-11.842
-13.667
-15.164
-16.384
-17.375
-18.175
-18.83
-19.401
-19.924
-20.426
-20.93
-21.45
-22.004
-22.614
-23.278
-23.985
-24.704
-25.391
-26.019
-26.577
-27.053
-27.441
-27.731
-27.905
-27.963
-27.912
-27.759
-27.513
-27.18
-26.759
-26.262
-25.71
-25.126
-24.537
-23.963
-23.412
-22.897
-22.424
-22.001
-21.635
-21.324
-21.064
-20.849
-20.679
-20.55
-20.462
-20.411
-20.388
-20.387
-20.401
-20.423
-20.45
-20.477
-20.499
-20.515
-20.521
-20.517
-20.503
-20.48
-20.446
-20.399
-20.34
-20.267
-20.182
-20.083
-19.972
-19.849
-19.714
-19.57
-19.418
-19.259
-19.096
-18.93
-18.763
-18.599
-18.438
-18.284
-18.139
-18.006
-17.885
-17.779
-17.69
-17.619
-17.566
-17.534
-17.522
-17.53
-17.559
-17.608
-17.676
-17.763
-17.868
-17.989
-18.125
-18.274
-18.435
-18.605
-18.783
-18.967
-19.155
-19.345
-19.536
-19.725
-19.912
-20.094
-20.271
-20.44
-20.601
-20.754
-20.897
-21.031
-21.155
-21.269
-21.375
-21.473
-21.563
-21.648
-21.729
-21.806
-21.883
-21.96
-22.039
-22.123
-22.214
-22.314
-22.425
-22.549
-22.689
-22.845
-23.021
-23.216
-23.433
-23.671
-23.931
-24.213
-24.515
-24.837
-25.177
-25.533
-25.903
-26.285
-26.675
-27.069
-27.464
-27.856
-28.24
-28.611
-28.963
-29.292
-29.593
-29.859
-30.085
-30.266
-30.398
-30.473
-30.488
-30.436
-30.314
-30.117
-29.841
-29.481
-29.036
-28.503
-27.881
-27.17
-26.369
-25.48
-24.507
-23.452
-22.32
-21.116
-19.845
-18.514
-17.129
-15.699
-14.231
-12.733
-11.214
-9.684
-8.154
-6.633
-5.134
-3.666
-2.239
-0.864
0.449
1.691
2.852
3.925
4.906
5.787
6.561
7.217
7.751
8.163
8.457
8.636
8.708
8.68
8.564
8.382
8.154
7.899
7.634
7.366
7.105
6.867
6.672
6.543
6.496
6.534
6.654
6.857
7.134
7.473
7.843
8.188
8.448
8.563
8.484
8.172
7.592
6.708
5.472
3.827
1.723
-0.872
-3.977
-7.597
-11.744
-16.467
-21.705
-27.275
-32.901
-38.182
-42.752
-46.347
-48.639
-49.198
-47.811
-44.534
-39.708
-34.154
-28.685
-23.872
-20.431
-19.103
-20.201
-23.586
-28.458
-33.176
-35.985
-35.026
-28.167
-13.594
10.213
42.899
82.899
129.344
179.767
232.882
286.781
333.65
366.797
379.017
363.302
321.582
256.491
171.427
73.043
-36.709
-154.725
-275.425
-394.363
-504.297
-598.359
-672.329
-723.073
-749.56
-752.462
-733.136
-694.038
-639.228
-573.374
-501.41
-428.11
-357.183
-291.82
-234.673
-187.444
-150.783
-124.22
-106.254
-94.99
-88.749
-85.593
-83.624
-81.233
-76.998
-70.387
-61.703
-51.48
-40.356
-29.154
-18.632
-9.569
-2.794
1.434
3.308
3.155
1.509
-1.099
-4.229
-7.357
-9.954
-11.719
-12.502
-12.268
-11.122
-9.147
-6.416
-3.056
0.81
5.065
9.592
14.301
19.107
23.916
28.637
33.182
37.463
41.413
44.97
48.102
50.809
53.108
55.027
56.609
57.893
58.933
59.791
60.526
61.193
61.844
62.525
63.283
64.168
65.225
66.494
68.002
69.764
71.792
74.096
76.684
79.556
82.705
86.114
89.768
93.653
97.75
102.036
106.473
111.026
115.664
120.367
125.123
129.918
134.737
139.56
144.37
149.161
153.93
158.671
163.369
168.013
172.597
177.133
181.65
186.169
190.689
195.19
199.636
203.992
208.219
212.278
216.116
219.662
222.854
225.648
228.017
229.941
231.385
232.295
232.597
232.232
231.169
229.396
226.92
223.751
219.904
215.405
210.303
204.666
198.546
191.975
184.965
177.517
169.651
161.414
152.869
144.074
135.078
125.928
116.669
107.352
98.032
88.758
79.57
70.504
61.606
52.938
44.576
36.61
29.111
22.13
15.702
9.859
4.619
-0.007
-4.024
-7.45
-10.318
-12.665
-14.538
-15.992
-17.088
-17.883
-18.448
-18.856
-19.175
-19.461
-19.76
-20.109
-20.535
-21.057
-21.687
-22.424
-23.257
-24.166
-25.123
-26.09
-27.035
-27.934
-28.762
-29.497
-30.122
-30.621
-30.989
-31.229
-31.344
-31.339
-31.22
-30.996
-30.681
-30.293
-29.854
-29.389
-28.916
-28.448
-27.998
-27.573
-27.177
-26.815
-26.484
-26.18
-25.898
-25.637
-25.394
-25.169
-24.96
-24.763
-24.575
-24.392
-24.213
-24.035
-23.857
-23.68
-23.503
-23.328
-23.155
-22.989
-22.832
-22.684
-22.546
-22.42
-22.305
-22.203
-22.114
-22.038
-21.977
-21.931
-21.901
-21.89
-21.899
-21.929
-21.981
-22.057
-22.156
-22.279
-22.427
-22.597
-22.79
-23.005
-23.239
-23.492
-23.76
-24.042
-24.336
-24.639
-24.949
-25.262
-25.577
-25.89
-26.2
-26.505
-26.801
-27.087
-27.362
-27.623
-27.87
-28.099
-28.311
-28.504
-28.675
-28.825
-28.951
-29.054
-29.133
-29.188
-29.219
-29.226
-29.211
-29.176
-29.122
-29.05
-28.965
-28.868
-28.762
-28.65
-28.536
-28.423
-28.315
-28.213
-28.123
-28.045
-27.984
-27.942
-27.92
-27.921
-27.947
-27.998
-28.077
-28.185
-28.322
-28.49
-28.688
-28.917
-29.176
-29.465
-29.783
-30.127
-30.496
-30.886
-31.296
-31.721
-32.158
-32.603
-33.051
-33.497
-33.935
-34.361
-34.767
-35.149
-35.5
-35.814
-36.084
-36.306
-36.473
-36.581
-36.624
-36.598
-36.497
-36.319
-36.059
-35.714
-35.279
-34.753
-34.133
-33.419
-32.608
-31.703
-30.703
-29.612
-28.433
-27.169
-25.826
-24.407
-22.92
-21.37
-19.764
-18.11
-16.417
-14.692
-12.946
-11.19
-9.436
-7.694
-5.977
-4.294
-2.657
-1.075
0.44
1.88
3.235
4.499
5.663
6.717
7.652
8.46
9.141
9.695
10.127
10.442
10.647
10.754
10.779
10.738
10.645
10.517
10.361
10.189
10.015
9.855
9.729
9.65
9.623
9.649
9.72
9.826
9.952
10.074
10.145
10.123
9.96
9.602
9.012
8.142
6.954
5.419
3.497
1.149
-1.657
-4.949
-8.745
-13.029
-17.803
-23.095
-28.827
-34.834
-40.846
-46.427
-51.173
-54.775
-56.877
-57.072
-55.195
-51.349
-45.95
-39.964
-34.346
-29.785
-27.069
-26.897
-29.46
-34.48
-41.017
-47.12
-50.751
-50.102
-43.03
-27.736
-3.148
31.121
74.212
123.895
177.403
231.349
281.163
322.221
350.13
360.729
351.032
319.052
263.576
186.15
91.41
-15.948
-131.352
-252.912
-380.902
-510.484
-631.801
-730.372
-791.662
-810.61
-791.86
-747.423
-690.45
-628.702
-564.579
-497.21
-426.631
-355.519
-288.256
-229.442
-181.651
-145.269
-119.355
-101.936
-91.03
-85.085
-82.157
-80.422
-78.383
-74.616
-68.621
-60.717
-51.371
-41.17
-30.889
-21.187
-12.768
-6.472
-2.557
-0.818
-0.939
-2.388
-4.651
-7.336
-9.951
-11.951
-13.025
-13.046
-12.002
-10.037
-7.269
-3.777
0.307
4.837
9.68
14.71
19.827
24.955
30.009
34.896
39.527
43.814
47.685
51.102
54.055
56.559
58.645
60.352
61.724
62.816
63.693
64.417
65.05
65.643
66.247
66.912
67.687
68.625
69.77
71.154
72.795
74.703
76.886
79.349
82.098
85.127
88.423
91.974
95.766
99.782
104.002
108.396
112.926
117.565
122.285
127.069
131.906
136.782
141.684
146.601
151.514
156.405
161.262
166.064
170.792
175.44
180.006
184.505
188.961
193.374
197.734
202.024
206.201
210.226
214.049
217.606
220.846
223.726
226.203
228.252
229.848
230.949
231.515
231.486
230.796
229.405
227.292
224.446
220.889
216.654
211.789
206.376
200.484
194.172
187.497
180.497
173.21
165.691
157.996
150.188
142.344
134.527
126.786
119.171
111.707
104.408
97.276
90.286
83.419
76.671
70.04
63.538
57.181
50.975
44.928
39.051
33.34
27.797
22.426
17.225
12.2
7.364
2.735
-1.661
-5.8
-9.668
-13.255
-16.558
-19.579
-22.32
-24.785
-26.988
-28.937
-30.64
-32.106
-33.342
-34.358
-35.166
-35.781
-36.219
-36.497
-36.631
-36.635
-36.525
-36.314
-36.014
-35.638
-35.194
-34.693
-34.143
-33.555
-32.939
-32.305
-31.662
-31.018
-30.381
-29.758
-29.155
-28.578
-28.03
-27.516
-27.038
-26.598
-26.199
-25.841
-25.525
-25.25
-25.017
-24.824
-24.669
-24.551
-24.467
-24.415
-24.392
-24.396
-24.423
-24.471
-24.536
-24.618
-24.712
-24.817
-24.93
-25.051
-25.175
-25.303
-25.431
-25.56
-25.686
-25.809
-25.928
-26.042
-26.15
-26.251
-26.345
-26.433
-26.513
-26.585
-26.651
-26.71
-26.763
-26.811
-26.854
-26.894
-26.932
-26.967
-27.002
-27.037
-27.073
-27.111
-27.15
-27.191
-27.234
-27.28
-27.327
-27.376
-27.427
-27.477
-27.528
-27.578
-27.627
-27.673
-27.716
-27.757
-27.794
-27.827
-27.856
-27.882
-27.904
-27.921
-27.935
-27.945
-27.951
-27.953
-27.95
-27.943
-27.932
-27.916
-27.896
-27.872
-27.845
-27.816
-27.785
-27.752
-27.72
-27.69
-27.661
-27.638
-27.62
-27.609
-27.608
-27.618
-27.641
-27.678
-27.73
-27.798
-27.882
-27.983
-28.101
-28.234
-28.382
-28.544
-28.718
-28.904
-29.098
-29.301
-29.509
-29.72
-29.932
-30.143
-30.35
-30.549
-30.737
-30.912
-31.068
-31.202
-31.31
-31.388
-31.431
-31.435
-31.395
-31.305
-31.161
-30.957
-30.689
-30.352
-29.943
-29.457
-28.892
-28.246
-27.517
-26.705
-25.81
-24.833
-23.776
-22.642
-21.434
-20.156
-18.811
-17.406
-15.945
-14.433
-12.877
-11.282
-9.656
-8.007
-6.345
-4.678
-3.017
-1.369
0.255
1.844
3.389
4.878
6.304
7.657
8.928
10.106
11.179
12.136
12.975
13.695
14.296
14.785
15.166
15.45
15.654
15.795
15.89
15.955
15.997
16.029
16.065
16.12
16.218
16.377
16.599
16.884
17.224
17.599
17.995
18.382
18.7
18.898
18.918
18.696
18.196
17.373
16.175
14.563
12.482
9.874
6.712
2.967
-1.375
-6.285
-11.759
-17.809
-24.327
-31.133
-37.968
-44.43
-50.17
-54.922
-58.332
-59.985
-59.643
-57.291
-53.213
-48.15
-42.851
-37.849
-33.768
-31.276
-30.736
-32.101
-34.761
-37.217
-37.736
-34.831
-26.823
-12.064
10.586
41.678
80.858
126.428
175.898
226.372
274.044
314.545
343.611
357.409
352.603
326.738
278.739
208.58
118.857
15.251
-97.542
-215.615
-335.676
-456.683
-572.3
-671.592
-744.933
-782.522
-783.596
-756.621
-709.777
-653.277
-592.889
-527.933
-460.1
-390.826
-322.239
-259.74
-206.435
-163.101
-130.175
-106.289
-89.406
-78.57
-72.545
-69.298
-67.291
-65.104
-61.329
-55.738
-48.734
-40.462
-31.36
-22.177
-13.441
-5.896
-0.356
3.058
4.555
4.408
3.102
1.088
-1.283
-3.526
-5.137
-5.85
-5.557
-4.28
-2.163
0.683
4.171
8.176
12.557
17.182
21.941
26.74
31.513
36.193
40.698
44.951
48.877
52.414
55.528
58.222
60.516
62.441
64.039
65.354
66.436
67.349
68.15
68.893
69.627
70.394
71.239
72.21
73.352
74.711
76.32
78.196
80.347
82.777
85.488
88.478
91.746
95.277
99.055
103.067
107.297
111.727
116.34
121.105
125.986
130.946
135.949
140.971
145.994
150.997
155.96
160.859
165.671
170.382
174.994
179.5
183.893
188.17
192.325
196.367
200.328
204.221
208.055
211.828
215.51
219.08
222.524
225.815
228.934
231.842
234.471
236.765
238.681
240.16
241.152
241.585
241.359
240.407
238.681
236.147
232.811
228.675
223.728
217.985
211.46
204.184
196.234
187.679
178.576
169.014
159.078
148.882
138.577
128.281
118.083
108.068
98.285
88.787
79.648
70.917
62.643
54.876
47.622
40.89
34.697
29.025
23.85
19.125
14.763
10.701
6.906
3.344
-0.001
-3.14
-6.109
-8.93
-11.622
-14.219
-16.734
-19.178
-21.572
-23.913
-26.188
-28.373
-30.419
-32.29
-33.971
-35.452
-36.731
-37.814
-38.696
-39.381
-39.878
-40.187
-40.309
-40.251
-40.012
-39.605
-39.048
-38.365
-37.59
-36.756
-35.883
-34.99
-34.094
-33.204
-32.332
-31.485
-30.665
-29.878
-29.131
-28.429
-27.781
-27.19
-26.659
-26.185
-25.767
-25.4
-25.081
-24.808
-24.576
-24.384
-24.231
-24.114
-24.034
-23.99
-23.98
-24.002
-24.052
-24.125
-24.218
-24.328
-24.449
-24.577
-24.709
-24.842
-24.972
-25.097
-25.213
-25.319
-25.412
-25.49
-25.551
-25.594
-25.618
-25.621
-25.604
-25.567
-25.51
-25.434
-25.34
-25.228
-25.1
-24.956
-24.799
-24.629
-24.447
-24.254
-24.052
-23.842
-23.625
-23.404
-23.18
-22.955
-22.732
-22.511
-22.295
-22.086
-21.885
-21.693
-21.513
-21.345
-21.191
-21.051
-20.927
-20.82
-20.731
-20.661
-20.61
-20.578
-20.566
-20.574
-20.603
-20.651
-20.721
-20.811
-20.922
-21.055
-21.21
-21.387
-21.587
-21.81
-22.055
-22.324
-22.615
-22.929
-23.265
-23.623
-24.003
-24.403
-24.824
-25.264
-25.723
-26.2
-26.692
-27.199
-27.719
-28.249
-28.788
-29.333
-29.881
-30.43
-30.978
-31.52
-32.055
-32.579
-33.089
-33.58
-34.05
-34.494
-34.908
-35.287
-35.627
-35.923
-36.173
-36.371
-36.514
-36.598
-36.619
-36.573
-36.457
-36.268
-36.002
-35.657
-35.23
-34.721
-34.128
-33.45
-32.69
-31.847
-30.925
-29.927
-28.856
-27.716
-26.511
-25.247
-23.929
-22.564
-21.158
-19.717
-18.248
-16.762
-15.266
-13.772
-12.287
-10.822
-9.385
-7.986
-6.635
-5.341
-4.114
-2.959
-1.883
-0.893
0.001
0.791
1.47
2.04
2.5
2.854
3.106
3.261
3.33
3.332
3.281
3.196
3.089
2.966
2.839
2.718
2.619
2.56
2.548
2.586
2.673
2.806
2.98
3.184
3.388
3.547
3.61
3.523
3.238
2.718
1.925
0.829
-0.603
-2.419
-4.656
-7.346
-10.518
-14.182
-18.364
-23.123
-28.431
-34.144
-40.013
-45.66
-50.711
-54.889
-57.874
-59.261
-58.789
-56.508
-52.81
-48.471
-44.346
-40.988
-38.897
-38.776
-41.04
-45.485
-51.307
-56.881
-60.245
-59.987
-54.727
-42.603
-22.232
6.986
44.814
89.511
138.551
189.706
240.058
285.424
321.662
344.793
351.207
338.82
306.19
251.761
176.675
85.338
-17.774
-127.393
-241.449
-362.449
-487.809
-610.609
-717.818
-790.294
-818.175
-801.401
-749.095
-679.616
-605.879
-533.924
-465.485
-397.102
-328.648
-263.854
-206.582
-160.949
-128.023
-106.056
-92.842
-85.884
-82.954
-81.936
-80.653
-77.307
-71.099
-62.179
-51.173
-38.915
-26.255
-14.133
-3.593
4.399
9.406
11.583
11.353
9.295
5.997
1.996
-2.102
-5.658
-8.253
-9.715
-10.004
-9.208
-7.428
-4.719
-1.187
3.017
7.765
12.927
18.386
24.054
29.821
35.554
41.129
46.422
51.322
55.769
59.73
63.193
66.174
68.698
70.798
72.527
73.944
75.111
76.087
76.931
77.696
78.441
79.228
80.117
81.163
82.407
83.873
85.581
87.54
89.759
92.247
95
98.006
101.255
104.736
108.433
112.333
116.416
120.649
125.004
129.45
133.962
138.526
143.127
147.751
152.377
156.987
161.565
166.113
170.63
175.113
179.559
183.963
188.327
192.677
197.031
201.393
205.762
210.115
214.415
218.636
222.75
226.72
230.497
234.014
237.195
239.989
242.357
244.256
245.637
246.413
246.508
245.868
244.454
242.255
239.268
235.483
230.894
225.53
219.438
212.685
205.353
197.481
189.088
180.208
170.891
161.23
151.322
141.24
131.055
120.832
110.645
100.591
90.755
81.182
71.899
62.916
54.246
45.939
38.072
30.697
23.849
17.532
11.738
6.473
1.735
-2.497
-6.273
-9.666
-12.74
-15.523
-18.029
-20.27
-22.263
-24.055
-25.704
-27.253
-28.729
-30.156
-31.547
-32.927
-34.311
-35.69
-37.033
-38.295
-39.443
-40.466
-41.365
-42.142
-42.796
-43.315
-43.691
-43.928
-44.033
-44.009
-43.861
-43.591
-43.204
-42.72
-42.169
-41.584
-40.989
-40.4
-39.829
-39.285
-38.777
-38.313
-37.896
-37.521
-37.186
-36.891
-36.635
-36.422
-36.249
-36.112
-36.005
-35.922
-35.856
-35.804
-35.762
-35.726
-35.692
-35.658
-35.624
-35.59
-35.554
-35.517
-35.475
-35.427
-35.372
-35.307
-35.231
-35.142
-35.039
-34.92
-34.785
-34.635
-34.47
-34.291
-34.097
-33.892
-33.676
-33.451
-33.219
-32.981
-32.738
-32.493
-32.248
-32.004
-31.763
-31.526
-31.295
-31.071
-30.856
-30.652
-30.459
-30.279
-30.112
-29.961
-29.825
-29.705
-29.603
-29.519
-29.454
-29.408
-29.384
-29.381
-29.401
-29.444
-29.509
-29.599
-29.713
-29.851
-30.014
-30.2
-30.41
-30.644
-30.902
-31.184
-31.49
-31.818
-32.17
-32.545
-32.942
-33.36
-33.797
-34.252
-34.723
-35.209
-35.705
-36.209
-36.718
-37.229
-37.742
-38.252
-38.757
-39.254
-39.74
-40.211
-40.665
-41.096
-41.496
-41.861
-42.184
-42.459
-42.684
-42.852
-42.959
-42.999
-42.969
-42.869
-42.694
-42.44
-42.098
-41.66
-41.121
-40.486
-39.764
-38.959
-38.078
-37.126
-36.116
-35.06
-33.971
-32.848
-31.684
-30.468
-29.2
-27.888
-26.546
-25.191
-23.828
-22.456
-21.067
-19.663
-18.246
-16.813
-15.349
-13.832
-12.26
-10.652
-9.048
-7.489
-6.001
-4.596
-3.28
-2.06
-0.947
0.04
0.888
1.593
2.149
2.548
2.77
2.787
2.598
2.231
1.735
1.161
0.545
-0.088
-0.715
-1.314
-1.87
-2.363
-2.787
-3.147
-3.447
-3.7
-3.927
-4.15
-4.402
-4.74
-5.224
-5.905
-6.833
-8.061
-9.641
-11.621
-14.043
-16.919
-20.279
-24.185
-28.593
-33.358
-38.235
-42.833
-46.797
-49.89
-51.783
-52.083
-50.736
-47.89
-43.965
-39.889
-36.362
-33.763
-32.735
-33.813
-36.897
-41.612
-46.944
-50.958
-52.219
-49.584
-41.325
-26.112
-3.343
27.189
64.398
106.014
150.077
194.152
234.506
267.473
289.492
297.035
287.802
260.278
212.981
146.803
65.584
-26.738
-126.423
-232.309
-345.449
-462.461
-574.384
-667.093
-726.377
-746.344
-730.814
-691.501
-640.841
-586.311
-530.138
-470.725
-407.637
-343.17
-281.282
-226.586
-181.832
-147.577
-123.149
-106.825
-96.755
-91.46
-89.083
-87.784
-85.997
-82.275
-76.029
-67.477
-57.079
-45.452
-33.418
-21.742
-11.212
-2.692
3.496
7.462
9.447
9.898
9.277
7.966
6.42
5.107
4.284
4.071
4.508
5.53
7.083
9.113
11.535
14.267
17.249
20.426
23.753
27.177
30.633
34.054
37.39
40.612
43.69
46.591
49.292
51.783
54.083
56.241
58.284
60.212
62.035
63.769
65.445
67.118
68.832
70.612
72.488
74.481
76.623
78.951
81.489
84.241
87.201
90.349
93.687
97.243
101.038
105.081
109.367
113.876
118.595
123.521
128.637
133.912
139.3
144.752
150.236
155.738
161.249
166.759
172.247
177.677
183.02
188.262
193.394
198.403
203.269
207.967
212.491
216.856
221.096
225.236
229.279
233.204
236.983
240.589
243.992
247.156
250.032
252.547
254.638
256.261
257.384
257.978
258.003
257.396
256.079
253.996
251.117
247.436
242.961
237.703
231.688
224.968
217.62
209.747
201.442
192.773
183.799
174.577
165.175
155.68
146.186
136.767
127.482
118.381
109.506
100.899
92.589
84.581
76.857
69.383
62.138
55.118
48.328
41.771
35.448
29.348
23.464
17.798
12.356
7.138
2.148
-2.62
-7.163
-11.467
-15.511
-19.27
-22.731
-25.887
-28.739
-31.29
-33.544
-35.505
-37.186
-38.602
-39.771
-40.705
-41.418
-41.922
-42.231
-42.362
-42.335
-42.17
-41.884
-41.492
-41.011
-40.455
-39.839
-39.174
-38.47
-37.736
-36.981
-36.213
-35.441
-34.675
-33.92
-33.185
-32.475
-31.796
-31.153
-30.548
-29.985
-29.464
-28.986
-28.551
-28.159
-27.808
-27.496
-27.223
-26.984
-26.779
-26.603
-26.454
-26.328
-26.223
-26.133
-26.057
-25.99
-25.93
-25.873
-25.817
-25.76
-25.699
-25.633
-25.561
-25.48
-25.39
-25.29
-25.179
-25.057
-24.923
-24.776
-24.618
-24.45
-24.272
-24.086
-23.893
-23.695
-23.494
-23.291
-23.089
-22.888
-22.692
-22.501
-22.319
-22.146
-21.987
-21.841
-21.713
-21.605
-21.519
-21.455
-21.417
-21.404
-21.419
-21.461
-21.532
-21.632
-21.761
-21.919
-22.108
-22.327
-22.576
-22.855
-23.164
-23.502
-23.868
-24.26
-24.679
-25.121
-25.586
-26.072
-26.579
-27.105
-27.649
-28.208
-28.781
-29.365
-29.958
-30.556
-31.154
-31.748
-32.335
-32.91
-33.471
-34.014
-34.537
-35.038
-35.514
-35.966
-36.39
-36.783
-37.138
-37.452
-37.72
-37.935
-38.093
-38.186
-38.21
-38.161
-38.04
-37.844
-37.573
-37.222
-36.784
-36.255
-35.636
-34.93
-34.14
-33.271
-32.33
-31.334
-30.308
-29.278
-28.262
-27.268
-26.295
-25.347
-24.424
-23.531
-22.67
-21.829
-20.994
-20.155
-19.31
-18.456
-17.586
-16.667
-15.647
-14.481
-13.143
-11.623
-9.925
-8.046
-5.988
-3.765
-1.411
1.014
3.446
5.845
8.183
10.437
12.574
14.532
16.221
17.571
18.534
19.079
19.184
18.815
17.942
16.568
14.738
12.533
10.031
7.285
4.32
1.152
-2.194
-5.665
-9.189
-12.706
-16.184
-19.606
-22.96
-26.22
-29.358
-32.361
-35.29
-38.281
-41.403
-44.64
-47.854
-50.749
-53.085
-54.721
-55.464
-55.075
-53.407
-50.412
-46.445
-42.287
-38.592
-35.876
-34.512
-34.71
-36.734
-40.673
-45.845
-50.945
-54.591
-55.314
-52.056
-43.946
-29.626
-8.054
20.914
56.682
97.84
142.405
188.597
234.064
275.093
307.879
328.871
334.781
323.345
292.83
241.664
170.819
84.406
-13.27
-118.206
-229.221
-347.45
-469.348
-585.657
-681.91
-743.536
-764.674
-749.569
-710.385
-659.918
-605.781
-549.964
-490.57
-427.033
-361.454
-297.631
-240.197
-191.94
-153.677
-125.247
-105.229
-91.851
-83.929
-79.951
-78.352
-77.903
-76.913
-74.006
-68.947
-62.009
-53.472
-43.863
-33.562
-22.741
-12.373
-3.571
3.316
8.244
11.368
13.05
13.376
12.242
10.141
7.86
5.858
4.464
3.796
3.762
4.448
6.059
8.525
11.588
15.045
18.698
22.449
26.316
30.232
34.083
37.803
41.357
44.725
47.899
50.842
53.507
55.881
57.971
59.803
61.422
62.865
64.178
65.412
66.614
67.829
69.101
70.465
71.958
73.614
75.468
77.552
79.89
82.493
85.37
88.521
91.942
95.628
99.569
103.745
108.139
112.731
117.496
122.409
127.439
132.552
137.719
142.911
148.105
153.289
158.447
163.567
168.628
173.605
178.473
183.211
187.806
192.241
196.51
200.613
204.55
208.334
211.969
215.449
218.751
221.841
224.681
227.228
229.463
231.368
232.923
234.108
234.89
235.242
235.128
234.504
233.318
231.507
229.021
225.832
221.942
217.365
212.13
206.266
199.779
192.686
185.023
176.824
168.144
159.041
149.582
139.853
129.966
120.038
110.174
100.457
90.939
81.668
72.691
64.051
55.817
48.037
40.739
33.946
27.673
21.916
16.666
11.887
7.508
3.465
-0.294
-3.808
-7.089
-10.159
-13.043
-15.769
-18.375
-20.891
-23.33
-25.71
-28.044
-30.335
-32.578
-34.748
-36.796
-38.686
-40.397
-41.913
-43.238
-44.371
-45.304
-46.037
-46.57
-46.903
-47.045
-47
-46.769
-46.365
-45.805
-45.114
-44.329
-43.479
-42.586
-41.668
-40.736
-39.802
-38.879
-37.973
-37.089
-36.23
-35.401
-34.606
-33.854
-33.148
-32.489
-31.875
-31.303
-30.771
-30.277
-29.819
-29.396
-29.007
-28.651
-28.328
-28.039
-27.786
-27.567
-27.38
-27.222
-27.09
-26.983
-26.896
-26.828
-26.774
-26.733
-26.702
-26.679
-26.662
-26.65
-26.642
-26.635
-26.629
-26.624
-26.619
-26.613
-26.606
-26.599
-26.591
-26.583
-26.574
-26.565
-26.556
-26.547
-26.539
-26.532
-26.526
-26.521
-26.518
-26.518
-26.521
-26.528
-26.54
-26.557
-26.581
-26.613
-26.653
-26.704
-26.764
-26.836
-26.919
-27.014
-27.121
-27.24
-27.371
-27.513
-27.666
-27.828
-28
-28.181
-28.37
-28.567
-28.771
-28.983
-29.203
-29.43
-29.665
-29.907
-30.156
-30.413
-30.677
-30.948
-31.226
-31.511
-31.802
-32.099
-32.402
-32.708
-33.019
-33.331
-33.644
-33.956
-34.265
-34.57
-34.867
-35.154
-35.43
-35.693
-35.942
-36.177
-36.395
-36.596
-36.778
-36.941
-37.082
-37.196
-37.28
-37.327
-37.333
-37.293
-37.204
-37.062
-36.863
-36.605
-36.289
-35.912
-35.473
-34.97
-34.395
-33.744
-33.02
-32.226
-31.373
-30.473
-29.539
-28.581
-27.618
-26.661
-25.718
-24.789
-23.866
-22.937
-21.997
-21.051
-20.11
-19.185
-18.277
-17.38
-16.487
-15.58
-14.644
-13.663
-12.608
-11.458
-10.209
-8.869
-7.472
-6.061
-4.661
-3.281
-1.917
-0.56
0.786
2.111
3.404
4.644
5.813
6.887
7.822
8.584
9.157
9.546
9.781
9.908
9.948
9.892
9.712
9.364
8.807
8.009
6.936
5.561
3.877
1.871
-0.458
-3.114
-6.119
-9.504
-13.299
-17.575
-22.409
-27.781
-33.546
-39.445
-45.089
-50.107
-54.216
-57.08
-58.278
-57.569
-55.048
-51.153
-46.687
-42.506
-39.152
-37.158
-37.29
-39.941
-44.824
-51.039
-56.868
-60.286
-59.794
-53.817
-40.268
-17.746
14.17
54.986
102.687
154.527
207.965
259.575
304.67
338.923
358.558
360.336
342.468
303.975
244.082
164.607
70.562
-34.08
-145.673
-261.339
-381.147
-499.269
-604.823
-688.248
-739.099
-755.44
-745.041
-714.864
-673.076
-624.68
-568.5
-505.684
-438.63
-370.008
-304.774
-246.497
-196.794
-156.598
-125.87
-103.666
-88.676
-79.689
-75.13
-73.256
-72.623
-71.719
-69.184
-64.587
-58.055
-49.805
-40.434
-30.627
-20.931
-12.126
-4.965
0.338
3.861
5.85
6.75
6.965
6.833
6.777
7.183
8.233
9.974
12.351
15.234
18.507
22.047
25.711
29.349
32.843
36.111
39.091
41.738
44.01
45.864
47.286
48.298
48.938
49.261
49.329
49.19
48.919
48.619
48.386
48.311
48.475
48.939
49.76
50.991
52.672
54.829
57.464
60.553
64.057
67.92
72.092
76.535
81.2
86.029
90.967
95.963
100.978
105.984
110.952
115.845
120.629
125.275
129.774
134.132
138.373
142.535
146.646
150.726
154.8
158.88
162.976
167.097
171.233
175.369
179.503
183.639
187.794
191.993
196.232
200.493
204.743
208.924
212.98
216.854
220.47
223.773
226.715
229.252
231.36
233.021
234.197
234.848
234.92
234.344
233.082
231.113
228.429
225.052
221.016
216.372
211.199
205.566
199.528
193.139
186.435
179.448
172.229
164.83
157.31
149.746
142.198
134.715
127.346
120.115
113.033
106.101
99.293
92.586
85.975
79.458
73.043
66.746
60.571
54.527
48.622
42.855
37.227
31.739
26.391
21.19
16.15
11.29
6.639
2.221
-1.945
-5.847
-9.479
-12.84
-15.929
-18.749
-21.31
-23.618
-25.679
-27.5
-29.086
-30.444
-31.585
-32.521
-33.267
-33.836
-34.244
-34.502
-34.626
-34.625
-34.513
-34.298
-33.99
-33.596
-33.127
-32.592
-32.001
-31.363
-30.687
-29.984
-29.261
-28.528
-27.792
-27.059
-26.337
-25.63
-24.943
-24.281
-23.648
-23.045
-22.475
-21.94
-21.442
-20.982
-20.559
-20.174
-19.828
-19.519
-19.246
-19.009
-18.807
-18.637
-18.5
-18.393
-18.315
-18.266
-18.243
-18.246
-18.272
-18.321
-18.39
-18.478
-18.582
-18.701
-18.832
-18.974
-19.124
-19.281
-19.443
-19.608
-19.775
-19.943
-20.111
-20.276
-20.439
-20.598
-20.751
-20.899
-21.041
-21.174
-21.3
-21.416
-21.522
-21.618
-21.702
-21.774
-21.832
-21.877
-21.909
-21.925
-21.927
-21.914
-21.886
-21.843
-21.787
-21.717
-21.634
-21.54
-21.436
-21.322
-21.202
-21.076
-20.946
-20.815
-20.685
-20.558
-20.437
-20.323
-20.219
-20.128
-20.051
-19.991
-19.952
-19.934
-19.939
-19.971
-20.03
-20.119
-20.238
-20.388
-20.57
-20.782
-21.026
-21.301
-21.605
-21.935
-22.29
-22.669
-23.068
-23.487
-23.92
-24.366
-24.819
-25.278
-25.738
-26.192
-26.634
-27.056
-27.452
-27.814
-28.138
-28.416
-28.643
-28.811
-28.916
-28.955
-28.925
-28.821
-28.634
-28.354
-27.981
-27.518
-26.974
-26.353
-25.662
-24.905
-24.092
-23.239
-22.352
-21.432
-20.473
-19.466
-18.411
-17.318
-16.205
-15.087
-13.974
-12.862
-11.747
-10.629
-9.508
-8.381
-7.237
-6.055
-4.837
-3.603
-2.392
-1.24
-0.166
0.827
1.75
2.612
3.416
4.154
4.818
5.406
5.908
6.31
6.584
6.696
6.642
6.442
6.145
5.793
5.409
4.992
4.529
4.002
3.393
2.698
1.904
1.001
-0.016
-1.159
-2.413
-3.761
-5.211
-6.78
-8.514
-10.472
-12.694
-15.204
-18.007
-21.076
-24.408
-28.061
-32.009
-36.139
-40.248
-43.96
-46.937
-48.964
-49.745
-48.885
-46.192
-41.722
-35.882
-29.659
-24.072
-19.808
-17.604
-18.185
-21.851
-28.41
-36.966
-45.504
-51.701
-53.715
-49.616
-37.314
-15.391
16.76
58.967
108.303
160.947
214.82
266.061
312.273
351.587
376.482
381.293
360.527
308.544
229.967
131.828
20.982
-93.505
-211.339
-335.701
-463.759
-590.464
-702.473
-780.593
-815.494
-806.192
-760.76
-696.712
-626.459
-556.21
-488.348
-420.162
-351.734
-286.723
-229.035
-182.782
-149.226
-126.923
-113.756
-107.195
-104.973
-104.904
-104.634
-102.156
-96.448
-87.463
-75.761
-62.22
-47.758
-33.396
-20.304
-9.6
-1.856
2.943
5.125
5.224
3.796
1.351
-1.514
-4.163
-6.191
-7.4
-7.704
-7.156
-5.814
-3.712
-0.942
2.366
6.111
10.192
14.515
19.018
23.61
28.188
32.669
36.96
40.984
44.681
47.99
50.876
53.336
55.384
57.048
58.373
59.403
60.194
60.811
61.314
61.763
62.21
62.703
63.291
64.022
64.941
66.089
67.498
69.188
71.171
73.456
76.043
78.93
82.109
85.565
89.283
93.251
97.454
101.881
106.516
111.34
116.334
121.478
126.75
132.129
137.588
143.103
148.645
154.185
159.696
165.148
170.513
175.762
180.864
185.792
190.519
195.017
199.258
203.214
206.853
210.149
213.08
215.63
217.785
219.539
220.892
221.846
222.408
222.581
222.364
221.753
220.736
219.304
217.446
215.16
212.456
209.343
205.828
201.92
197.623
192.935
187.847
182.346
176.415
170.049
163.259
156.074
148.542
140.72
132.68
124.48
116.168
107.79
99.389
91.008
82.692
74.492
66.47
58.693
51.24
44.173
37.538
31.355
25.619
20.306
15.373
10.784
6.513
2.538
-1.156
-4.584
-7.759
-10.7
-13.431
-15.986
-18.414
-20.756
-23.044
-25.291
-27.492
-29.63
-31.671
-33.588
-35.359
-36.97
-38.415
-39.694
-40.811
-41.771
-42.583
-43.247
-43.755
-44.102
-44.283
-44.302
-44.173
-43.914
-43.552
-43.111
-42.614
-42.081
-41.525
-40.956
-40.381
-39.804
-39.224
-38.643
-38.067
-37.5
-36.951
-36.423
-35.918
-35.438
-34.983
-34.55
-34.14
-33.749
-33.378
-33.025
-32.692
-32.379
-32.09
-31.826
-31.589
-31.379
-31.196
-31.039
-30.908
-30.801
-30.716
-30.653
-30.609
-30.584
-30.576
-30.587
-30.613
-30.655
-30.713
-30.784
-30.869
-30.966
-31.074
-31.192
-31.318
-31.451
-31.591
-31.735
-31.882
-32.032
-32.184
-32.336
-32.487
-32.636
-32.782
-32.923
-33.057
-33.184
-33.303
-33.412
-33.512
-33.602
-33.682
-33.752
-33.811
-33.86
-33.899
-33.927
-33.945
-33.952
-33.949
-33.936
-33.915
-33.885
-33.85
-33.809
-33.765
-33.718
-33.671
-33.623
-33.577
-33.533
-33.493
-33.458
-33.43
-33.409
-33.399
-33.4
-33.415
-33.445
-33.491
-33.554
-33.636
-33.738
-33.859
-34.001
-34.164
-34.347
-34.553
-34.78
-35.028
-35.297
-35.585
-35.892
-36.213
-36.548
-36.89
-37.238
-37.587
-37.935
-38.277
-38.611
-38.934
-39.244
-39.54
-39.82
-40.079
-40.314
-40.519
-40.688
-40.815
-40.894
-40.917
-40.879
-40.773
-40.597
-40.349
-40.028
-39.631
-39.154
-38.59
-37.936
-37.193
-36.365
-35.452
-34.465
-33.414
-32.317
-31.203
-30.094
-29.002
-27.935
-26.894
-25.877
-24.886
-23.919
-22.974
-22.049
-21.134
-20.225
-19.325
-18.425
-17.511
-16.553
-15.501
-14.319
-12.993
-11.516
-9.896
-8.148
-6.281
-4.319
-2.303
-0.268
1.749
3.72
5.64
7.486
9.226
10.816
12.183
13.269
14.048
14.496
14.6
14.358
13.758
12.808
11.551
10.02
8.237
6.212
3.916
1.333
-1.532
-4.669
-8.03
-11.588
-15.348
-19.314
-23.49
-27.875
-32.437
-37.179
-42.184
-47.445
-52.849
-58.17
-63.024
-67.065
-70.076
-71.787
-71.849
-70.079
-66.56
-61.698
-56.276
-51.05
-46.448
-42.866
-40.874
-40.747
-42.228
-44.547
-46.209
-45.553
-41.49
-32.901
-18.185
3.798
33.519
70.775
114.013
161.081
210.103
258.387
301.944
336.841
359.281
365.618
353.486
321.286
267.508
193.237
102.848
-0.254
-112.641
-231.39
-356.49
-481.503
-594.65
-685.275
-741.748
-761.684
-752.746
-722.051
-678.146
-626.034
-564.755
-496.025
-422.719
-348.245
-278.465
-217.434
-167.137
-128.638
-101.288
-83.433
-73.246
-68.873
-68.067
-68.659
-68.76
-66.668
-61.658
-53.966
-44.143
-32.902
-21.197
-9.922
0.021
7.673
12.684
15.21
15.57
14.304
11.962
8.999
5.953
3.381
1.595
0.75
0.882
1.884
3.667
6.165
9.253
12.812
16.733
20.907
25.255
29.704
34.17
38.573
42.833
46.868
50.612
54.003
57.006
59.62
61.857
63.747
65.328
66.637
67.725
68.654
69.482
70.264
71.049
71.88
72.802
73.865
75.114
76.589
78.319
80.316
82.594
85.161
88.022
91.178
94.618
98.324
102.279
106.467
110.869
115.458
120.198
125.051
129.984
134.973
140.005
145.061
150.123
155.169
160.18
165.148
170.069
174.935
179.732
184.448
189.078
193.633
198.143
202.63
207.093
211.516
215.865
220.114
224.227
228.164
231.872
235.278
238.315
240.932
243.093
244.763
245.895
246.424
246.268
245.366
243.685
241.213
237.957
233.926
229.144
223.658
217.539
210.886
203.785
196.299
188.484
180.391
172.085
163.65
155.176
146.735
138.385
130.17
122.13
114.303
106.713
99.363
92.234
85.291
78.514
71.896
65.444
59.163
53.052
47.103
41.308
35.671
30.198
24.893
19.76
14.797
10.012
5.421
1.049
-3.077
-6.937
-10.523
-13.832
-16.863
-19.615
-22.092
-24.299
-26.251
-27.959
-29.433
-30.684
-31.72
-32.552
-33.194
-33.665
-33.98
-34.154
-34.202
-34.137
-33.973
-33.721
-33.393
-32.998
-32.542
-32.034
-31.484
-30.899
-30.289
-29.662
-29.025
-28.385
-27.75
-27.125
-26.515
-25.924
-25.355
-24.81
-24.291
-23.8
-23.336
-22.9
-22.491
-22.109
-21.753
-21.421
-21.111
-20.822
-20.551
-20.296
-20.054
-19.825
-19.604
-19.392
-19.185
-18.983
-18.783
-18.584
-18.386
-18.185
-17.982
-17.774
-17.56
-17.34
-17.112
-16.876
-16.63
-16.375
-16.11
-15.835
-15.551
-15.258
-14.957
-14.649
-14.335
-14.016
-13.695
-13.372
-13.05
-12.731
-12.417
-12.108
-11.808
-11.518
-11.238
-10.971
-10.717
-10.479
-10.258
-10.055
-9.871
-9.709
-9.57
-9.454
-9.364
-9.3
-9.263
-9.255
-9.276
-9.328
-9.41
-9.524
-9.672
-9.852
-10.065
-10.31
-10.588
-10.896
-11.233
-11.596
-11.981
-12.388
-12.812
-13.253
-13.706
-14.171
-14.645
-15.128
-15.618
-16.112
-16.606
-17.094
-17.571
-18.032
-18.47
-18.877
-19.247
-19.574
-19.853
-20.085
-20.264
-20.387
-20.448
-20.44
-20.357
-20.198
-19.964
-19.653
-19.271
-18.827
-18.335
-17.819
-17.296
-16.777
-16.266
-15.758
-15.249
-14.739
-14.221
-13.691
-13.144
-12.571
-11.964
-11.325
-10.641
-9.896
-9.06
-8.082
-6.926
-5.576
-4.025
-2.279
-0.355
1.734
3.966
6.301
8.707
11.157
13.622
16.095
18.551
20.952
23.25
25.374
27.256
28.862
30.16
31.127
31.756
32.035
31.954
31.533
30.774
29.656
28.164
26.263
23.93
21.177
18.011
14.442
10.491
6.152
1.424
-3.661
-9.11
-14.959
-21.149
-27.557
-33.953
-39.948
-45.203
-49.473
-52.461
-53.81
-53.357
-51.206
-47.775
-43.834
-40.098
-36.978
-34.883
-34.387
-35.762
-38.729
-42.479
-45.541
-46.286
-43.551
-36.134
-22.44
-1.295
27.703
64.195
106.622
152.654
199.945
245.461
285.109
314.751
330.565
329.269
308.824
268.289
207.519
127.848
32.452
-74.319
-187.299
-300.827
-409.306
-507.372
-590.177
-653.874
-696.17
-716.346
-714.835
-693.247
-654.315
-601.597
-539.245
-471.795
-403.387
-337.36
-276.789
-224.015
-180.411
-146.634
-122.245
-105.804
-95.682
-90.322
-87.819
-86.448
-84.745
-81.354
-75.818
-68.426
-59.6
-49.907
-40.101
-30.831
-22.802
-16.794
-13.032
-11.332
-11.399
-12.742
-14.886
-17.451
-19.967
-21.936
-23.073
-23.258
-22.481
-20.864
-18.509
-15.488
-11.916
-7.917
-3.606
0.91
5.545
10.231
14.893
19.446
23.807
27.89
31.622
34.963
37.897
40.436
42.604
44.436
45.971
47.259
48.359
49.326
50.217
51.078
51.954
52.891
53.937
55.14
56.545
58.186
60.087
62.267
64.737
67.497
70.546
73.873
77.459
81.283
85.323
89.55
93.94
98.465
103.102
107.827
112.618
117.458
122.326
127.199
132.064
136.916
141.753
146.582
151.408
156.237
161.081
165.964
170.899
175.893
180.943
186.034
191.147
196.252
201.317
206.303
211.155
215.802
220.168
224.168
227.723
230.765
233.222
235.016
236.084
236.374
235.847
234.479
232.25
229.152
225.187
220.374
214.764
208.424
201.437
193.896
185.89
177.487
168.756
159.767
150.572
141.225
131.78
122.287
112.812
103.423
94.192
85.172
76.389
67.859
59.578
51.535
43.729
36.174
28.891
21.911
15.282
9.038
3.21
-2.185
-7.159
-11.738
-15.969
-19.887
-23.515
-26.863
-29.934
-32.725
-35.238
-37.485
-39.483
-41.264
-42.878
-44.363
-45.758
-47.087
-48.355
-49.549
-50.643
-51.613
-52.446
-53.133
-53.677
-54.084
-54.363
-54.523
-54.577
-54.528
-54.369
-54.096
-53.706
-53.2
-52.59
-51.896
-51.143
-50.356
-49.556
-48.762
-47.988
-47.243
-46.532
-45.858
-45.218
-44.614
-44.047
-43.52
-43.038
-42.602
-42.212
-41.865
-41.558
-41.286
-41.043
-40.825
-40.627
-40.445
-40.277
-40.121
-39.978
-39.848
-39.728
-39.619
-39.518
-39.422
-39.33
-39.24
-39.148
-39.054
-38.956
-38.853
-38.746
-38.633
-38.515
-38.392
-38.264
-38.13
-37.991
-37.846
-37.695
-37.538
-37.376
-37.21
-37.041
-36.871
-36.702
-36.537
-36.379
-36.229
-36.089
-35.96
-35.844
-35.74
-35.651
-35.576
-35.515
-35.472
-35.447
-35.444
-35.467
-35.516
-35.592
-35.696
-35.824
-35.976
-36.149
-36.34
-36.546
-36.767
-37.004
-37.264
-37.553
-37.87
-38.21
-38.566
-38.923
-39.271
-39.596
-39.88
-40.108
-40.272
-40.371
-40.412
-40.411
-40.37
-40.288
-40.152
-39.947
-39.672
-39.336
-38.951
-38.541
-38.133
-37.758
-37.467
-37.307
-37.302
-37.461
-37.765
-38.168
-38.64
-39.161
-39.721
-40.315
-40.918
-41.491
-41.993
-42.38
-42.6
-42.595
-42.277
-41.548
-40.348
-38.652
-36.472
-33.869
-30.898
-27.599
-24.018
-20.2
-16.207
-12.124
-8.032
-3.992
-0.07
3.657
7.083
10.081
12.555
14.453
15.765
16.521
16.762
16.514
15.816
14.72
13.291
11.604
9.732
7.709
5.553
3.301
1.003
-1.271
-3.47
-5.59
-7.653
-9.708
-11.799
-13.954
-16.209
-18.634
-21.298
-24.268
-27.603
-31.29
-35.317
-39.733
-44.493
-49.481
-54.475
-59.065
-62.855
-65.554
-66.782
-66.129
-63.48
-58.915
-52.902
-46.419
-40.302
-35.217
-31.966
-31.166
-32.872
-36.71
-41.4
-44.891
-45.371
-40.834
-29.219
-9.074
20.634
58.978
103.6
152.872
203.94
255.166
304.65
344.831
369.673
372.504
346.656
295.151
221.359
130.08
30.417
-75.761
-187.198
-301.117
-418.201
-531.696
-630.16
-704.827
-745.885
-751.972
-730.995
-690.17
-638.486
-581.435
-518.336
-450.633
-380.446
-310.709
-247.048
-193.13
-150.27
-118.697
-97.073
-83.561
-76.54
-74.044
-73.629
-73.059
-70.549
-65.161
-56.925
-46.355
-34.149
-21.185
-8.517
2.763
11.653
17.682
20.944
21.783
20.715
18.288
15.012
11.456
8.203
5.609
3.843
2.976
2.952
3.715
5.232
7.413
10.148
13.351
16.926
20.788
24.869
29.076
33.316
37.509
41.569
45.423
49.012
52.278
55.194
57.76
59.987
61.903
63.546
64.957
66.187
67.298
68.346
69.384
70.463
71.623
72.91
74.365
76.026
77.931
80.102
82.552
85.288
88.311
91.617
95.199
99.044
103.133
107.45
111.979
116.704
121.609
126.675
131.882
137.205
142.623
148.109
153.641
159.193
164.737
170.248
175.7
181.065
186.319
191.433
196.381
201.134
205.665
209.948
213.957
217.667
221.056
224.102
226.785
229.089
230.998
232.5
233.583
234.237
234.456
234.233
233.566
232.453
230.895
228.894
226.456
223.587
220.296
216.596
212.499
208.02
203.176
197.987
192.472
186.653
180.553
174.195
167.606
160.812
153.838
146.713
139.463
132.117
124.701
117.243
109.769
102.305
94.876
87.505
80.218
73.036
65.98
59.07
52.327
45.768
39.409
33.266
27.353
21.681
16.261
11.102
6.211
1.593
-2.746
-6.805
-10.583
-14.08
-17.299
-20.243
-22.918
-25.329
-27.484
-29.392
-31.062
-32.504
-33.73
-34.751
-35.579
-36.226
-36.704
-37.027
-37.206
-37.255
-37.187
-37.013
-36.747
-36.399
-35.983
-35.508
-34.986
-34.426
-33.837
-33.229
-32.61
-31.985
-31.363
-30.75
-30.149
-29.566
-29.004
-28.467
-27.957
-27.475
-27.021
-26.598
-26.203
-25.837
-25.498
-25.186
-24.898
-24.632
-24.387
-24.16
-23.949
-23.752
-23.565
-23.386
-23.214
-23.045
-22.879
-22.712
-22.543
-22.371
-22.195
-22.014
-21.827
-21.635
-21.437
-21.233
-21.024
-20.809
-20.592
-20.371
-20.149
-19.928
-19.709
-19.494
-19.285
-19.086
-18.897
-18.722
-18.562
-18.42
-18.299
-18.201
-18.127
-18.081
-18.063
-18.077
-18.124
-18.205
-18.322
-18.476
-18.666
-18.895
-19.161
-19.465
-19.806
-20.184
-20.597
-21.045
-21.526
-22.038
-22.58
-23.149
-23.742
-24.357
-24.99
-25.638
-26.296
-26.961
-27.628
-28.295
-28.955
-29.605
-30.239
-30.855
-31.446
-32.008
-32.537
-33.027
-33.474
-33.873
-34.22
-34.511
-34.742
-34.909
-35.009
-35.039
-34.996
-34.878
-34.682
-34.407
-34.05
-33.612
-33.091
-32.489
-31.807
-31.046
-30.21
-29.303
-28.329
-27.294
-26.203
-25.063
-23.879
-22.659
-21.41
-20.138
-18.85
-17.555
-16.262
-14.978
-13.712
-12.472
-11.267
-10.105
-8.995
-7.946
-6.963
-6.05
-5.212
-4.452
-3.777
-3.193
-2.706
-2.312
-2.012
-1.802
-1.68
-1.639
-1.667
-1.739
-1.832
-1.924
-2
-2.049
-2.058
-2.009
-1.886
-1.669
-1.349
-0.927
-0.406
0.218
0.94
1.742
2.587
3.406
4.123
4.672
4.992
5.033
4.75
4.086
2.975
1.36
-0.803
-3.544
-6.868
-10.81
-15.437
-20.716
-26.505
-32.535
-38.388
-43.676
-48.119
-51.374
-53.022
-52.832
-50.805
-47.257
-42.976
-38.743
-35.067
-32.507
-31.643
-32.718
-35.586
-39.54
-42.977
-44.116
-41.478
-33.456
-18.49
4.497
36.037
75.757
121.891
171.908
222.959
271.396
313.08
343.818
359.498
356.714
333.328
288.293
221.706
135.262
32.138
-83.149
-205.024
-327.443
-444.256
-549.53
-638.089
-705.823
-750.124
-770.192
-766.562
-741.074
-696.917
-638.115
-569.228
-495.205
-420.515
-348.718
-283.048
-225.859
-178.428
-141.345
-114.074
-95.065
-82.662
-75.263
-70.919
-67.946
-64.915
-60.475
-54.205
-46.419
-37.528
-28.103
-18.889
-10.491
-3.578
1.091
3.342
3.417
1.677
-1.335
-5.103
-9.213
-13.17
-16.433
-18.691
-19.816
-19.8
-18.771
-16.838
-14.076
-10.608
-6.584
-2.145
2.574
7.457
12.418
17.364
22.192
26.804
31.103
35.01
38.488
41.528
44.143
46.364
48.226
49.775
51.067
52.169
53.144
54.051
54.944
55.871
56.88
58.023
59.349
60.901
62.707
64.784
67.14
69.778
72.697
75.892
79.352
83.061
87.004
91.168
95.54
100.109
104.857
109.765
114.814
119.982
125.248
130.591
135.989
141.418
146.855
152.277
157.66
162.981
168.216
173.337
178.32
183.137
187.762
192.172
196.34
200.242
203.857
207.162
210.138
212.767
215.032
216.918
218.41
219.499
220.172
220.423
220.246
219.637
218.594
217.117
215.209
212.874
210.12
206.955
203.39
199.438
195.113
190.431
185.409
180.067
174.426
168.506
162.33
155.923
149.309
142.513
135.561
128.48
121.295
114.035
106.725
99.392
92.063
84.763
77.519
70.354
63.293
56.358
49.573
42.956
36.529
30.308
24.311
18.552
13.044
7.798
2.825
-1.868
-6.275
-10.391
-14.212
-17.738
-20.97
-23.907
-26.555
-28.917
-31
-32.811
-34.359
-35.653
-36.705
-37.526
-38.129
-38.527
-38.736
-38.769
-38.642
-38.37
-37.97
-37.457
-36.847
-36.156
-35.398
-34.589
-33.742
-32.871
-31.988
-31.106
-30.235
-29.384
-28.563
-27.779
-27.041
-26.353
-25.721
-25.15
-24.643
-24.201
-23.828
-23.523
-23.287
-23.119
-23.018
-22.981
-23.005
-23.087
-23.224
-23.409
-23.639
-23.907
-24.208
-24.536
-24.884
-25.246
-25.615
-25.986
-26.353
-26.709
-27.051
-27.372
-27.67
-27.939
-28.177
-28.38
-28.547
-28.675
-28.764
-28.812
-28.818
-28.783
-28.707
-28.59
-28.434
-28.24
-28.01
-27.744
-27.447
-27.119
-26.765
-26.386
-25.988
-25.573
-25.145
-24.709
-24.268
-23.828
-23.393
-22.966
-22.553
-22.156
-21.781
-21.431
-21.109
-20.818
-20.561
-20.341
-20.161
-20.021
-19.923
-19.869
-19.86
-19.896
-19.978
-20.106
-20.281
-20.501
-20.767
-21.077
-21.432
-21.829
-22.267
-22.743
-23.255
-23.799
-24.374
-24.974
-25.596
-26.236
-26.889
-27.551
-28.216
-28.88
-29.538
-30.182
-30.81
-31.413
-31.988
-32.529
-33.03
-33.487
-33.894
-34.246
-34.539
-34.769
-34.93
-35.018
-35.029
-34.96
-34.808
-34.569
-34.242
-33.826
-33.32
-32.726
-32.044
-31.277
-30.428
-29.5
-28.498
-27.426
-26.291
-25.097
-23.852
-22.562
-21.236
-19.882
-18.512
-17.134
-15.757
-14.391
-13.045
-11.729
-10.453
-9.227
-8.056
-6.948
-5.911
-4.952
-4.083
-3.308
-2.629
-2.045
-1.554
-1.153
-0.839
-0.601
-0.425
-0.294
-0.192
-0.108
-0.033
0.041
0.128
0.239
0.392
0.595
0.848
1.15
1.495
1.879
2.289
2.698
3.061
3.328
3.441
3.353
3.022
2.411
1.492
0.231
-1.418
-3.492
-6.026
-9.047
-12.566
-16.611
-21.247
-26.449
-32.067
-37.837
-43.349
-48.192
-52.056
-54.597
-55.391
-54.191
-51.1
-46.59
-41.562
-37.014
-33.624
-32.002
-32.937
-36.813
-43.279
-51.316
-59.036
-64.177
-65.045
-59.966
-46.814
-24.167
8.368
50.207
99.221
152.482
207.313
260.267
306.626
341.973
362.414
364.685
346.981
308.122
247.179
165.908
69.178
-38.039
-151.358
-269.375
-393.002
-518.788
-637.606
-735.251
-797.552
-818.276
-801.104
-757.815
-700.971
-638.86
-574.356
-505.959
-433.526
-359.799
-289.298
-227.59
-178.096
-141.163
-115.778
-100.005
-91.641
-88.763
-89.022
-89.757
-88.721
-84.684
-77.404
-67.28
-55.073
-41.621
-27.939
-15.303
-4.953
2.453
6.866
8.577
8.112
6.031
2.858
-0.757
-4.119
-6.785
-8.538
-9.287
-9.099
-8.042
-6.156
-3.548
-0.356
3.318
7.372
11.715
16.289
20.995
25.725
30.392
34.896
39.157
43.11
46.692
49.866
52.635
55.013
57.032
58.733
60.158
61.361
62.406
63.35
64.251
65.163
66.13
67.202
68.425
69.841
71.49
73.4
75.584
78.053
80.808
83.849
87.171
90.765
94.612
98.699
103.013
107.539
112.266
117.175
122.249
127.466
132.805
138.244
143.761
149.332
154.932
160.537
166.122
171.661
177.129
182.5
187.746
192.84
197.753
202.46
206.932
211.146
215.075
218.697
221.991
224.935
227.514
229.71
231.509
232.898
233.867
234.407
234.511
234.174
233.394
232.169
230.502
228.395
225.855
222.889
219.507
215.721
211.544
206.992
202.083
196.835
191.268
185.405
179.268
172.883
166.274
159.468
152.491
145.37
138.134
130.809
123.423
116.003
108.575
101.166
93.802
86.506
79.305
72.219
65.272
58.485
51.876
45.464
39.266
33.296
27.57
22.098
16.891
11.959
7.308
2.943
-1.131
-4.913
-8.402
-11.6
-14.509
-17.134
-19.481
-21.557
-23.371
-24.933
-26.252
-27.342
-28.213
-28.88
-29.357
-29.656
-29.794
-29.784
-29.642
-29.382
-29.019
-28.568
-28.043
-27.457
-26.824
-26.156
-25.465
-24.762
-24.058
-23.362
-22.684
-22.031
-21.412
-20.831
-20.296
-19.809
-19.376
-18.998
-18.677
-18.415
-18.212
-18.067
-17.979
-17.946
-17.966
-18.035
-18.151
-18.308
-18.502
-18.73
-18.985
-19.263
-19.559
-19.868
-20.185
-20.505
-20.824
-21.137
-21.441
-21.732
-22.006
-22.26
-22.491
-22.697
-22.877
-23.027
-23.146
-23.235
-23.29
-23.314
-23.305
-23.263
-23.19
-23.087
-22.954
-22.794
-22.607
-22.397
-22.165
-21.915
-21.648
-21.368
-21.078
-20.782
-20.482
-20.181
-19.884
-19.592
-19.308
-19.035
-18.776
-18.533
-18.309
-18.104
-17.922
-17.765
-17.633
-17.529
-17.454
-17.409
-17.396
-17.415
-17.467
-17.552
-17.672
-17.827
-18.016
-18.24
-18.498
-18.789
-19.112
-19.467
-19.85
-20.26
-20.695
-21.15
-21.625
-22.115
-22.617
-23.128
-23.644
-24.161
-24.677
-25.186
-25.684
-26.168
-26.632
-27.073
-27.485
-27.864
-28.206
-28.506
-28.76
-28.962
-29.109
-29.195
-29.216
-29.169
-29.05
-28.854
-28.581
-28.226
-27.791
-27.272
-26.673
-25.994
-25.238
-24.408
-23.506
-22.537
-21.505
-20.416
-19.274
-18.084
-16.854
-15.59
-14.301
-12.996
-11.685
-10.376
-9.078
-7.8
-6.552
-5.344
-4.183
-3.077
-2.035
-1.062
-0.17
0.631
1.335
1.938
2.442
2.85
3.167
3.4
3.559
3.663
3.725
3.762
3.786
3.804
3.827
3.865
3.933
4.05
4.226
4.463
4.759
5.105
5.489
5.893
6.291
6.632
6.872
6.965
6.857
6.517
5.9
4.97
3.699
2.05
-0.012
-2.514
-5.481
-8.926
-12.835
-17.209
-22.071
-27.346
-32.881
-38.429
-43.594
-48.005
-51.366
-53.341
-53.531
-51.736
-48.019
-42.737
-36.751
-30.961
-26.03
-22.707
-21.728
-23.424
-27.669
-33.696
-39.748
-43.859
-44.286
-38.959
-25.999
-4.118
27.389
67.987
115.684
167.834
221.177
271.28
313.553
343.522
356.67
349.689
320.669
268.372
194.127
102.441
-3.132
-118.858
-241.362
-370.206
-498.801
-615.513
-709.966
-770.643
-795.035
-790.725
-764.625
-724.854
-675.967
-616.635
-547.998
-472.729
-394.467
-318.87
-250.301
-191.347
-143.497
-107.027
-81.307
-64.946
-56.31
-53.573
-54.392
-56.649
-58.52
-58.391
-55.672
-50.558
-43.391
-34.814
-25.756
-17.017
-9.46
-3.939
-0.657
0.587
0.127
-1.497
-3.743
-6.167
-8.256
-9.514
-9.725
-8.861
-7.011
-4.387
-1.163
2.527
6.523
10.674
14.872
19.033
23.106
27.054
30.813
34.311
37.481
40.26
42.626
44.601
46.238
47.621
48.846
50.005
51.178
52.431
53.802
55.307
56.939
58.694
60.581
62.618
64.832
67.25
69.889
72.748
75.816
79.065
82.449
85.926
89.46
93.028
96.632
100.294
104.049
107.925
111.937
116.092
120.384
124.801
129.321
133.912
138.54
143.179
147.82
152.464
157.107
161.736
166.327
170.845
175.258
179.553
183.71
187.709
191.539
195.189
198.667
202.008
205.245
208.399
211.475
214.453
217.316
220.056
222.66
225.107
227.354
229.335
230.997
232.302
233.207
233.673
233.641
233.017
231.718
229.678
226.846
223.197
218.711
213.357
207.126
200.034
192.131
183.502
174.222
164.353
153.968
143.144
131.979
120.61
109.166
97.772
86.552
75.615
65.064
55.012
45.556
36.759
28.659
21.262
14.571
8.596
3.332
-1.235
-5.134
-8.428
-11.182
-13.467
-15.369
-16.968
-18.335
-19.553
-20.692
-21.805
-22.933
-24.095
-25.303
-26.573
-27.913
-29.326
-30.808
-32.341
-33.899
-35.454
-36.96
-38.383
-39.694
-40.866
-41.874
-42.705
-43.348
-43.806
-44.089
-44.207
-44.167
-43.982
-43.664
-43.23
-42.701
-42.1
-41.456
-40.791
-40.124
-39.47
-38.842
-38.25
-37.701
-37.2
-36.742
-36.328
-35.956
-35.627
-35.34
-35.095
-34.887
-34.712
-34.567
-34.449
-34.353
-34.279
-34.223
-34.185
-34.163
-34.157
-34.168
-34.195
-34.237
-34.294
-34.363
-34.443
-34.531
-34.628
-34.729
-34.833
-34.94
-35.047
-35.153
-35.259
-35.363
-35.464
-35.562
-35.656
-35.746
-35.832
-35.914
-35.992
-36.066
-36.136
-36.204
-36.27
-36.334
-36.398
-36.461
-36.526
-36.592
-36.661
-36.733
-36.809
-36.89
-36.978
-37.073
-37.177
-37.291
-37.417
-37.556
-37.71
-37.88
-38.068
-38.274
-38.5
-38.747
-39.017
-39.31
-39.627
-39.968
-40.336
-40.729
-41.149
-41.594
-42.066
-42.563
-43.084
-43.628
-44.194
-44.779
-45.382
-46
-46.631
-47.272
-47.92
-48.572
-49.225
-49.874
-50.515
-51.146
-51.76
-52.355
-52.925
-53.465
-53.971
-54.439
-54.863
-55.239
-55.561
-55.825
-56.027
-56.163
-56.227
-56.217
-56.128
-55.959
-55.707
-55.37
-54.948
-54.44
-53.846
-53.168
-52.407
-51.567
-50.649
-49.659
-48.601
-47.482
-46.308
-45.086
-43.824
-42.529
-41.209
-39.875
-38.532
-37.19
-35.856
-34.54
-33.25
-31.997
-30.788
-29.632
-28.54
-27.518
-26.575
-25.716
-24.941
-24.255
-23.657
-23.15
-22.74
-22.429
-22.213
-22.093
-22.066
-22.127
-22.269
-22.475
-22.721
-22.989
-23.26
-23.52
-23.761
-23.972
-24.138
-24.244
-24.275
-24.217
-24.066
-23.813
-23.449
-22.978
-22.42
-21.821
-21.247
-20.757
-20.4
-20.212
-20.236
-20.529
-21.154
-22.176
-23.654
-25.619
-28.127
-31.275
-35.097
-39.54
-44.42
-49.397
-54.116
-58.284
-61.567
-63.569
-64.027
-62.878
-60.42
-57.33
-54.348
-52.098
-51.184
-52.263
-55.757
-61.63
-69.154
-76.865
-82.965
-85.693
-83.3
-73.804
-55.529
-27.516
10.153
56.084
107.972
163.036
217.889
268.13
309.005
336.033
345.647
335.369
303.43
249.239
173.279
78.874
-27.684
-141.404
-258.321
-375.856
-493.607
-605.167
-699.529
-766.748
-797.517
-792.264
-759.192
-706.75
-643.434
-572.551
-496.619
-419.318
-345.426
-282.036
-230.617
-190.753
-160.743
-136.346
-117.91
-105.707
-98.634
-96.174
-95.365
-93.447
-89.31
-82.387
-73.204
-62.635
-51.217
-39.715
-28.971
-19.743
-12.809
-8.39
-6.259
-6.08
-7.347
-9.559
-12.286
-15.022
-17.262
-18.721
-19.257
-18.836
-17.561
-15.509
-12.746
-9.391
-5.561
-1.366
3.085
7.709
12.432
17.168
21.836
26.354
30.642
34.634
38.272
41.523
44.39
46.886
49.043
50.903
52.505
53.9
55.147
56.299
57.408
58.524
59.686
60.938
62.325
63.89
65.674
67.708
70.006
72.575
75.421
78.541
81.934
85.598
89.516
93.675
98.058
102.65
107.433
112.39
117.491
122.698
127.977
133.292
138.618
143.938
149.231
154.474
159.645
164.72
169.684
174.541
179.282
183.9
188.393
192.752
196.99
201.133
205.194
209.183
213.094
216.9
220.579
224.118
227.493
230.684
233.656
236.34
238.682
240.639
242.152
243.173
243.631
243.429
242.501
240.801
238.299
234.999
230.904
226.002
220.307
213.832
206.604
198.701
190.191
181.132
171.612
161.718
151.564
141.3
131.044
120.884
110.905
101.157
91.693
82.59
73.9
65.673
57.963
50.778
44.129
38.032
32.47
27.417
22.825
18.608
14.702
11.074
7.689
4.531
1.587
-1.181
-3.795
-6.277
-8.663
-10.97
-13.21
-15.404
-17.551
-19.636
-21.636
-23.504
-25.202
-26.717
-28.039
-29.166
-30.106
-30.855
-31.415
-31.797
-31.999
-32.024
-31.876
-31.556
-31.074
-30.451
-29.709
-28.881
-27.999
-27.083
-26.151
-25.217
-24.289
-23.378
-22.488
-21.622
-20.782
-19.975
-19.204
-18.478
-17.799
-17.167
-16.581
-16.037
-15.532
-15.06
-14.62
-14.208
-13.821
-13.458
-13.118
-12.8
-12.505
-12.231
-11.975
-11.735
-11.507
-11.288
-11.074
-10.863
-10.652
-10.437
-10.217
-9.99
-9.755
-9.509
-9.253
-8.984
-8.703
-8.408
-8.099
-7.776
-7.439
-7.088
-6.725
-6.349
-5.963
-5.567
-5.162
-4.749
-4.331
-3.908
-3.482
-3.055
-2.627
-2.2
-1.777
-1.359
-0.949
-0.548
-0.159
0.215
0.572
0.91
1.228
1.522
1.791
2.034
2.249
2.436
2.594
2.721
2.819
2.886
2.923
2.931
2.911
2.862
2.788
2.688
2.565
2.42
2.255
2.073
1.877
1.668
1.45
1.226
1.001
0.778
0.56
0.354
0.163
-0.008
-0.153
-0.268
-0.347
-0.385
-0.378
-0.32
-0.208
-0.038
0.194
0.488
0.848
1.273
1.763
2.32
2.941
3.625
4.37
5.175
6.036
6.952
7.919
8.933
9.99
11.083
12.207
13.356
14.523
15.702
16.885
18.063
19.228
20.373
21.493
22.581
23.628
24.621
25.554
26.422
27.225
27.964
28.64
29.255
29.819
30.347
30.858
31.371
31.9
32.453
33.037
33.662
34.344
35.1
35.939
36.856
37.841
38.879
39.956
41.057
42.139
43.139
43.986
44.605
44.935
44.932
44.545
43.738
42.46
40.654
38.283
35.321
31.758
27.611
22.873
17.51
11.594
5.31
-1.061
-7.092
-12.396
-16.702
-19.684
-20.958
-20.33
-17.833
-13.816
-9.092
-4.475
-0.505
2.263
3.306
2.432
-0.177
-3.787
-6.808
-7.484
-4.369
4.025
19.047
41.571
71.933
109.609
152.85
199.24
246.099
290.116
327.564
354.58
367.584
363.795
341.143
298.412
235.624
153.917
56.987
-48.965
-159.281
-269.917
-377.598
-481.797
-576.731
-652.893
-702.777
-718.237
-699.551
-655.906
-596.379
-531.397
-466.874
-402.571
-339.062
-277.221
-219.527
-170.205
-131.143
-102.145
-81.785
-67.721
-58.437
-52.676
-48.598
-44.491
-38.869
-31.021
-21.301
-10.352
1.34
13.203
24.529
34.521
42.259
47.327
49.909
50.368
49.185
46.837
43.723
40.343
37.278
34.913
33.437
32.919
33.275
34.433
36.352
38.94
42.086
45.681
49.612
53.784
58.123
62.542
66.953
71.265
75.382
79.218
82.7
85.787
88.474
90.772
92.708
94.316
95.638
96.731
97.66
98.489
99.274
100.069
100.918
101.873
102.988
104.311
105.888
107.748
109.909
112.386
115.19
118.325
121.787
125.559
129.618
133.949
138.534
143.358
148.399
153.632
159.032
164.587
170.281
176.101
182.025
188.019
194.051
200.088
206.105
212.089
218.022
223.871
229.616
235.235
240.715
246.051
251.215
256.152
260.813
265.149
269.127
272.732
275.942
278.734
281.084
282.959
284.34
285.222
285.585
285.401
284.643
283.273
281.291
278.736
275.64
272.037
267.952
263.395
258.389
252.969
247.166
241.009
234.523
227.727
220.656
213.36
205.89
198.304
190.635
182.886
175.069
167.2
159.299
151.393
143.504
135.64
127.823
120.081
112.442
104.937
97.584
90.393
83.371
76.523
69.865
63.421
57.212
51.25
45.549
40.118
34.967
30.109
25.548
21.28
17.3
13.602
10.18
7.033
4.157
1.546
-0.81
-2.921
-4.797
-6.448
-7.885
-9.122
-10.17
-11.045
-11.759
-12.322
-12.747
-13.045
-13.227
-13.306
-13.293
-13.198
-13.032
-12.805
-12.527
-12.208
-11.855
-11.477
-11.08
-10.671
-10.254
-9.837
-9.421
-9.012
-8.611
-8.223
-7.849
-7.49
-7.15
-6.828
-6.527
-6.246
-5.987
-5.75
-5.534
-5.34
-5.166
-5.013
-4.878
-4.761
-4.662
-4.577
-4.508
-4.452
-4.409
-4.377
-4.356
-4.345
-4.343
-4.349
-4.362
-4.383
-4.41
-4.444
-4.485
-4.532
-4.586
-4.646
-4.713
-4.787
-4.868
-4.954
-5.048
-5.147
-5.252
-5.364
-5.482
-5.607
-5.738
-5.877
-6.023
-6.179
-6.344
-6.52
-6.709
-6.91
-7.126
-7.357
-7.606
-7.873
-8.159
-8.467
-8.796
-9.149
-9.525
-9.927
-10.353
-10.805
-11.283
-11.787
-12.316
-12.872
-13.453
-14.059
-14.688
-15.341
-16.015
-16.709
-17.421
-18.15
-18.894
-19.65
-20.416
-21.188
-21.963
-22.738
-23.506
-24.261
-24.998
-25.709
-26.389
-27.033
-27.634
-28.188
-28.688
-29.13
-29.514
-29.836
-30.091
-30.273
-30.375
-30.396
-30.344
-30.222
-30.032
-29.778
-29.463
-29.094
-28.683
-28.235
-27.747
-27.215
-26.633
-26.004
-25.343
-24.662
-23.973
-23.282
-22.579
-21.865
-21.151
-20.438
-19.729
-19.018
-18.283
-17.528
-16.781
-16.062
-15.389
-14.769
-14.179
-13.609
-13.057
-12.522
-12.018
-11.549
-11.101
-10.679
-10.292
-9.96
-9.722
-9.587
-9.526
-9.529
-9.595
-9.739
-10.012
-10.453
-11.082
-11.932
-13.038
-14.437
-16.18
-18.291
-20.761
-23.593
-26.784
-30.353
-34.358
-38.819
-43.715
-49.045
-54.812
-60.955
-67.337
-73.696
-79.619
-84.755
-88.885
-91.744
-93.002
-92.481
-90.26
-86.764
-82.815
-79.17
-76.191
-74.243
-73.891
-75.438
-78.719
-82.96
-86.52
-87.743
-85.759
-79.411
-66.933
-47.152
-19.211
16.047
55.081
95.999
138.455
182.37
229.131
274.454
308.799
323.248
308.02
261.016
188.733
97.736
-3.137
-108.703
-219.211
-332.371
-444.918
-551.506
-644.096
-717.09
-767.492
-793.824
-796.573
-777.116
-737.595
-682.084
-615.609
-543.314
-470.12
-400.115
-336.836
-283.199
-241.012
-210.462
-190.477
-179.19
-174.35
-173.803
-175.216
-176.271
