82.959
84.807
80.812
67.849
53.828
48.723
44.998
30.165
13.795
11.062
12.68
3.265
-11.739
-21.757
-27.899
-33.94
-42.694
-54.907
-61.731
-58.784
-60.292
-72.654
-79.611
-75.82
-76.156
-83.108
-87.407
-91.471
-97.529
-97.708
-94.435
-98.46
-107.285
-114.043
-120.857
-126.701
-127.402
-128.877
-135.642
-139.674
-137.84
-137.822
-141.042
-143.385
-145.956
-147.401
-142.582
-136.41
-137.78
-143.916
-149.039
-153.332
-153.229
-146.031
-142.703
-149.097
-149.659
-137.191
-130.441
-137.822
-141.838
-135.872
-133.829
-138.851
-142.533
-146.214
-151.787
-151.485
-145.241
-142.776
-144.574
-145.182
-146.269
-148.335
-146.603
-142.307
-139.657
-137.232
-135.077
-134.389
-129.823
-122.318
-123.493
-130.177
-126.258
-116.966
-119.875
-129.216
-130.899
-130.073
-131.769
-129.131
-125.012
-126.028
-123.022
-111.945
-107.066
-112.203
-115.691
-115.839
-116.201
-112.496
-107.538
-110.589
-117.024
-118.371
-118.759
-120.023
-116.544
-112.282
-114.783
-119.82
-122.272
-124.034
-124.249
-122.66
-125.485
-132.553
-135.794
-135.014
-134.803
-132.924
-127.802
-122.634
-116.414
-107.812
-102.018
-101.082
-101.099
-101.738
-103.047
-101.436
-99.809
-104.138
-108.278
-104.361
-100.087
-103.434
-105.979
-100.519
-95.224
-96.582
-99.494
-100.259
-99.622
-96.839
-95.523
-100.428
-103.09
-95.24
-88.826
-94.229
-100.037
-97.935
-95.723
-95.682
-94.533
-96.077
-96.852
-85.733
-69.7
-64.38
-66.191
-66.335
-67.919
-69.803
-66.192
-62.543
-62.711
-59.189
-52.816
-51.413
-49.209
-39.72
-31.758
-28.636
-21.349
-12.736
-13.264
-17.726
-17.884
-19.294
-24.582
-28.6
-34.897
-45.535
-47.821
-38.164
-32.093
-35.556
-39.78
-43.983
-50.625
-52.414
-48.309
-48.783
-53.999
-55.321
-55.044
-56.698
-53.438
-46.565
-46.681
-49.978
-47.228
-45.438
-50.316
-52.02
-46.75
-43.075
-44.693
-49.563
-54.427
-52.879
-45.604
-41.744
-40.152
-34.802
-33.305
-39.201
-38.876
-29.536
-23.096
-15.893
2.051
20.999
34.279
57.259
95.428
132.233
162.469
198.558
242.077
281.098
307.866
316.802
298.866
252.271
185.681
107.596
24.707
-57.131
-140.056
-227.155
-310.21
-386.941
-470.978
-556.752
-609.709
-616.56
-601.781
-583.193
-557.249
-524.118
-486.868
-439.065
-379.007
-318.486
-266.078
-218.071
-168.415
-118.548
-77.152
-49.064
-27.523
-6.889
7.151
12.809
18.03
21.445
15.768
10.892
20.148
34.055
38.716
38.802
41.834
47.353
56.095
65.746
70.34
74.212
81.213
79.437
65.27
56.195
60.025
67.623
78.214
94.109
105.022
106.676
108.455
110.174
104.416
97.945
99.906
105.77
112.324
121.683
125.463
115.403
102.758
102.299
111.718
120.553
123.293
121.461
123.01
132.187
139.812
137.237
130.47
126.729
124.84
127.166
136.938
145.014
144.989
147.049
154.983
158.051
158.315
166.943
175.067
170.965
168.264
179.259
191.665
196.75
201.84
207.294
208.171
209.658
214.448
216.364
216.604
219.982
221.65
220.08
223.749
232.832
239.262
242.832
244.765
241.786
239.985
248.306
258.309
258.687
255.571
256.049
255.808
254.348
256.802
262.02
266.473
268.737
266.37
262.674
265.067
268.105
261.948
254.246
254.601
255.614
253.334
254.6
254.782
247.955
247.739
259.269
262.685
252.237
245.37
243.905
236.265
227.075
223.242
217.1
206.377
198.156
191.535
184.34
180.361
175.763
164.821
154.987
150.478
142.547
132.641
132.493
138.369
138.574
134.174
127.945
117.458
108.221
105.131
100.864
94.546
93.958
92.955
84.535
81.304
87.61
87.666
82.181
85.827
90.228
83.502
79.831
85.736
84.765
78.351
82.468
87.522
79.446
71.974
75.148
76.99
74.488
73.212
66.128
53.752
51.541
56.127
52.898
51.418
60.887
62.339
48.431
40.298
42.694
40.076
33.525
30.819
26.218
20.847
23.714
28.547
28.363
31.418
37.451
35.881
31.462
32.509
32.395
30.256
35.352
42.197
39.897
35.379
36.389
36.985
36.889
42.314
45.726
38.137
30.374
33.925
41.112
42.815
40.714
36.725
33.701
37.154
42.415
41.786
41.794
46.077
42.965
33.741
35.799
46.42
48.155
43.954
44.654
44.025
37.474
33.931
34.823
33.745
33.79
38.421
40.949
39.17
39.009
40.419
39.944
39.266
38.011
32.916
26.535
21.863
17.593
16.644
21.046
22.183
16.951
15.966
20.151
18.94
15.896
20.19
23.102
16.932
12.513
14.548
14.262
13.063
16.56
17.505
13.968
15.789
20.028
16.865
12.857
15.019
16.098
14.828
17.845
21.174
19.856
19.272
19.726
16.575
15.533
20.304
21.235
16.119
15.228
18.314
16.85
13.233
12.264
10.153
7.315
9.735
14.474
15.013
12.381
7.314
-1.02
-5.935
-3.298
-0.548
0.177
5.969
13.756
14.682
11.812
9.389
4.292
1.394
7.78
13.744
10.554
8.708
14.762
20.266
23.393
27.871
27.912
22.348
21.747
26.61
27.841
27.394
30.889
34.799
37.77
42.818
47.196
50.334
57.342
63.271
59.585
53.763
53.016
47.14
33.588
27.256
29.574
26.985
20.479
18.932
17.668
11.896
7.188
3.232
-5.392
-13.743
-15.356
-13.846
-12.244
-9.697
-9.116
-10.259
-8.509
-9.124
-18.273
-26.086
-25.807
-26.545
-28.045
-20.951
-14.833
-21.354
-26.273
-18.377
-12.926
-18.85
-23.804
-22.344
-20.981
-21.123
-22.303
-24.866
-21.72
-7.996
10.778
33.603
63.617
93.252
118.39
150.738
193.566
235.676
275.25
310.99
326.03
316.584
298.278
264.874
196.479
103.92
6.726
-100.603
-215.366
-315.322
-404.038
-505.067
-612.243
-697.647
-745.885
-751.651
-721.665
-683.895
-655.787
-621.818
-569.931
-510.384
-445.453
-369.278
-294.423
-236.253
-191.215
-154.595
-125.962
-95.572
-62.4
-45.23
-47.245
-47.744
-42.46
-44.697
-49.339
-42.245
-30.076
-25.755
-27.561
-30.217
-30.724
-23.273
-10.33
-4.283
-5.634
-3.065
3.313
4.114
-0.763
-4.447
-1.833
10.112
26.145
33.941
33.036
34.047
35.996
30.397
21.71
19.848
26.12
38.191
50.991
55.95
53.312
50.599
47.686
43.484
44.549
50.681
54.309
57.542
63.811
64.961
59.317
57.213
57.257
51.435
49.638
61.444
72.734
73.058
73.954
79.135
77.194
70.907
73.424
82.382
88.522
91.204
90.231
86.896
90.109
99.386
102.878
103.799
113.509
122.463
118.996
116.149
124.548
133.361
138.303
146.551
152.824
150.657
150.43
156.819
158.893
156.466
159.461
163.955
163.141
164.404
171.693
177.768
181.197
183.259
179.661
175.358
180.361
186.395
182.252
177.288
179.133
179.898
179.323
181.611
177.838
167.623
167.174
175.624
177.431
174.741
174.214
168.183
158.12
155.917
154.762
142.797
130.381
127.036
122.619
113.585
109.211
106.62
97.25
87.57
83.708
77.856
67.133
58.129
50.502
42.397
39.196
38.537
31.079
21.148
17.586
15.029
9.237
5.99
2.341
-8.066
-16.163
-15.93
-19.435
-30.515
-36.197
-33.535
-31.817
-33.055
-34.736
-37.083
-37.489
-35.21
-35.355
-36.213
-32.53
-30.792
-34.784
-33.771
-28.1
-31.507
-38.242
-34.268
-30.971
-39.754
-43.004
-29.917
-18.685
-20.075
-24.309
-27.561
-32.32
-33.665
-30.45
-29.577
-31.345
-31.848
-32.728
-33.925
-32.628
-32.263
-35.125
-36.052
-35.498
-38.9
-41.733
-39.64
-41.018
-47.247
-45.752
-36.944
-35.156
-40.833
-43.923
-43.974
-44.076
-44.576
-49.16
-55.955
-55.298
-50.233
-50.714
-49.28
-39.807
-38.524
-49.686
-50.872
-38.851
-36.465
-44.247
-43.622
-39.579
-46.079
-53.094
-49.611
-45.234
-45.064
-41.221
-35.346
-35.11
-37.025
-36.285
-35.918
-36.915
-37.844
-39.7
-40.522
-38.747
-39.013
-40.293
-35.45
-29.656
-32.416
-37.238
-37.235
-39.573
-43.187
-36.405
-25.61
-26.327
-32.574
-32.349
-31.944
-37.11
-40.196
-38.926
-38.152
-36.759
-34.542
-35.331
-35.86
-33.476
-35.216
-40.935
-41.791
-42.006
-49.433
-53.858
-46.818
-39.594
-39.557
-40.422
-41.635
-45.426
-45.304
-40.648
-39.894
-41.684
-40.751
-42.807
-48.67
-47.493
-40.488
-39.534
-41.554
-36.925
-30.826
-30.735
-33.779
-38.241
-43.847
-44.88
-41.751
-41.862
-42.854
-39.659
-38.515
-41.734
-41.709
-40.118
-43.263
-45.858
-46.042
-51.647
-57.288
-52.244
-47.376
-53.429
-56.081
-48.308
-46.904
-54.204
-54.018
-48.98
-51.31
-53.52
-47.764
-42.374
-40.831
-40.675
-45.993
-52.149
-46.839
-36.92
-35.076
-33.19
-25.351
-23.357
-27.591
-26.279
-23.131
-24.214
-20.352
-11.792
-12.065
-16.756
-11.948
-3.699
-0.242
7.337
19.87
23.739
19.82
20.245
23.552
23.22
21.225
17.777
11.44
7.997
9.678
10.246
8.496
5.302
-4.854
-19.018
-24.498
-23.625
-28.572
-35.681
-38.558
-45.655
-56.333
-53.948
-39.909
-34.187
-39.386
-42.353
-41.043
-40.378
-38.878
-36.069
-35.449
-37.418
-42.092
-50.152
-56.205
-55.95
-54.599
-55.249
-54.096
-52.736
-54.688
-55.253
-52.87
-52.699
-50.288
-38.463
-25.219
-16.386
-0.872
25.137
51.906
82.231
124.755
169.798
208.997
252.35
296.889
319.783
317.664
304.492
273.951
211.93
127.106
32.79
-71.866
-184.071
-292.011
-391.958
-492.95
-605.11
-717.286
-789.723
-798.183
-770.545
-741.8
-707.999
-659.535
-607.109
-551.391
-481.971
-407.982
-343.819
-284.853
-227.611
-180.483
-142.376
-105.92
-76.503
-60.443
-52.009
-47.248
-48.175
-52.178
-55.725
-57.538
-51.88
-39.142
-34.41
-42.163
-45.256
-37.464
-32.255
-30.806
-22.152
-11.096
-8.095
-9.411
-13.051
-22.811
-27.576
-15.396
1.109
7.766
9.866
9.411
1.253
-5.724
-3.746
-3.603
-7.187
0.578
17.674
25.936
23.377
18.624
11.84
5.042
4.711
7.68
9.82
16.596
26.637
29.398
25.968
24.801
24.348
22.585
25.127
31.342
34.844
37.08
41.277
44.964
48.657
53.854
54.576
49.268
47.464
51.917
55.498
58.539
65.235
70.743
71.872
74.082
77.697
78.497
79.982
85.165
89.473
93.367
100.823
106.223
106.024
109.563
119.624
125.613
124.62
123.002
121.477
120.8
126.147
133.948
136.67
138.34
143.048
144.263
141.962
145.076
151.46
153.312
154.01
155.442
150.46
141.99
139.634
139.27
136.178
138.043
143.511
141.602
136.681
137.324
136.994
133.524
134.283
132.882
121.148
110.549
106.703
97.231
84.655
83.429
84.962
75.103
64.431
61.367
54.272
42.687
38.888
36.458
22.85
7.482
2.863
3.708
2.64
-0.48
-6.184
-12.724
-16.49
-21.126
-29.138
-32.992
-31.502
-34.844
-42.647
-44.428
-42.147
-43.858
-45.861
-44.907
-47.449
-52.463
-51.796
-49.65
-53.388
-55.504
-50.091
-46.755
-50.11
-51.608
-49.842
-52.449
-59.005
-62.609
-60.997
-56.334
-53.199
-55.072
-57.689
-55.573
-51.8
-49.382
-45.219
-40.541
-40.153
-42.553
-46.812
-55.276
-59.405
-49.216
-37.351
-40.489
-49.287
-49.613
-47.567
-48.328
-45.188
-40.546
-42.744
-48.394
-53.441
-59.888
-61.806
-54.559
-49.729
-53.921
-56.453
-53.259
-51.431
-51.027
-50.219
-51.574
-49.311
-38.625
-33.105
-41.538
-49.078
-46.449
-43.997
-44.814
-42.587
-42.221
-47.831
-49.324
-43.879
-40.666
-38.514
-32.61
-30.458
-33.57
-31.578
-27.281
-31.411
-38.25
-39.119
-38.552
-38.519
-36.38
-37.668
-43.482
-43.582
-37.292
-33.35
-31.468
-30.652
-35.792
-40.565
-35.5
-31.018
-37.522
-42.499
-36.809
-31.452
-31.403
-29.528
-28.136
-32.962
-36.5
-31.811
-26.108
-27.333
-32.843
-35.104
-30.354
-23.899
-24.669
-30.591
-31.925
-30.268
-33.403
-36.317
-32.285
-29.283
-32.202
-31.653
-26.441
-27.02
-31.553
-30.748
-28.66
-30.596
-29.604
-24.116
-23.745
-29.957
-34.332
-32.501
-25.974
-20.725
-23.86
-31.161
-31.222
-25.27
-21.999
-20.782
-19.876
-22.403
-23.33
-16
-8.752
-9.533
-11.018
-10.151
-14.368
-19.925
-17.135
-12.811
-15.86
-17.966
-14.016
-13.572
-16.634
-12.862
-7.554
-11.526
-15.935
-10.514
-4.663
-6.258
-8.15
-6.711
-5.923
-5.948
-7.088
-11.151
-12.79
-8.016
-3.683
-3.956
-4.881
-6.22
-8.426
-7.249
-5.118
-7.163
-6.112
2.344
5.979
1.542
2.886
10.978
13.762
12.525
13.182
11.153
7.97
11.398
14.423
9.048
5.94
11.288
14.513
14.438
20.084
26.935
27.327
27.355
30.369
31.406
33.61
39.96
41.714
37.818
37.228
35.303
25.132
19.313
24.493
24.444
13.071
3.964
0.318
-3.887
-4.829
-2.851
-8.688
-19.643
-23.494
-23.009
-24.219
-21.465
-16.137
-17.345
-19.816
-16.268
-14.741
-17.211
-15.234
-14.853
-24.268
-31.323
-28.442
-26.774
-28.876
-27.913
-27.59
-30.13
-29.313
-27.851
-30.155
-29.645
-26.172
-25.601
-19.994
-5.159
5.439
12.892
34.289
64.059
88.717
120.827
166.571
204.284
231.183
269.486
313.141
333.919
328.385
303.833
251.23
169.97
77.955
-17.812
-122.717
-232.104
-336.207
-436.856
-544.614
-660.077
-755.371
-789.197
-758.618
-710.813
-680.975
-653.359
-604.751
-541.63
-473.142
-394.884
-315.38
-253.536
-206.772
-161.164
-118.913
-84.838
-54.615
-33.185
-28.07
-26.61
-16.76
-10.663
-18.285
-27.372
-25.809
-15.767
-5.469
-4.09
-10.789
-7.973
11.522
27.537
28.022
28.855
37.376
38.167
27.635
20.742
22.624
27.768
36.688
50.054
61.33
65.334
62.29
55.941
52.112
51.667
51.56
56.555
71.05
83.984
85.506
82.142
77.594
68.33
63.53
72.06
80.739
80.181
82.609
89.921
88.221
82.293
86.562
93.605
94.362
98.094
105.687
107.028
107.317
112.136
110.468
103.71
107.431
115.949
115.898
116.519
123.62
124.38
121.384
129.137
138.9
138.362
139.192
146.56
146.84
142.955
148.517
154.419
151
153.62
169.946
183.981
188.236
188.985
185.867
180.214
181.803
189.412
192.958
194.122
197.883
199.441
197.996
199.345
200.673
198.529
200.44
207.851
211.035
210.285
212.573
212.98
208.059
207.388
211.508
208.405
199.099
194.888
196.321
199.266
202.818
201.288
192.365
185.855
184.832
180.686
173.905
169.997
163.926
154
147.696
143.023
134.252
127.101
122.533
112.278
101.404
99.101
96.33
86.713
81.007
79.456
70.616
60.348
59.881
61.863
60.455
62.285
62.684
52.697
44.297
48.38
51.628
44.882
38.283
35.081
28.904
22.389
18.959
15.173
13.092
14.264
10.938
5.746
11.227
20.669
19.267
14.14
15.011
13.998
9.596
10.771
12.752
8.171
5.531
8.008
5.802
1.053
3.043
5.637
2.307
1.296
4.756
3.817
0.074
0.529
1.05
-0.838
0.793
2.692
-1.996
-5.139
-0.716
0.831
-2.278
0.993
5.95
1.545
-3.055
0.128
0.013
-4.447
-0.546
6.303
3.216
-1.654
0.489
0.983
-1.969
0.239
3.61
1.135
-0.489
2.224
2.599
0.171
-2.485
-7.412
-9.911
-4.649
-1.618
-7.872
-13.337
-14.634
-19.295
-22.372
-16.641
-12.543
-17.345
-21.371
-20.141
-17.9
-12.37
-4.761
-5.374
-11.888
-12.193
-10.092
-14.76
-19.318
-17.779
-17.073
-18.323
-17.343
-19.217
-24.478
-22.604
-15.978
-17.058
-21.41
-19.41
-17.914
-21.204
-20.418
-16.278
-16.668
-16.456
-11.83
-11.954
-16.592
-16.113
-15.078
-20.322
-23.289
-21.19
-24.22
-30.744
-31.156
-28.765
-27.295
-21.363
-14.961
-17.31
-21.541
-18.27
-14.214
-15.43
-16.882
-17.78
-21.339
-23.017
-20.264
-20.21
-24.585
-26.259
-24.243
-22.629
-20.612
-18.148
-18.667
-20.776
-21.771
-23.475
-24.051
-19.531
-15.84
-19.2
-22.276
-18.593
-14.418
-14.646
-17.367
-22.475
-26.947
-24.658
-21.463
-26.361
-30.721
-25.486
-20.654
-22.367
-21.92
-19.843
-23.232
-24.947
-20.108
-20.039
-27.201
-30.066
-28.254
-28.629
-28.003
-24.764
-25.414
-29.337
-30.807
-30.581
-28.79
-23.767
-21.931
-26.413
-26.865
-19.964
-15.988
-15.815
-12.857
-11.959
-15.679
-13.785
-7.391
-8.477
-11.125
-4.24
2.229
0.731
2.536
7.774
4.041
-1.673
4.333
14.481
19.521
24.026
26.198
20.555
16.391
20.444
22.958
19.801
16.174
8.003
-7.112
-16.871
-16.347
-15.597
-16.975
-15.992
-17.197
-22.977
-26.03
-26.827
-31.492
-33.554
-26.994
-22.55
-26.966
-31.07
-30.258
-27.525
-21.334
-15.874
-21.113
-30.164
-30.823
-31.61
-38.591
-36.562
-24.232
-21.277
-26.934
-25.302
-21.675
-24.871
-25.499
-23.996
-33.276
-43.781
-36.19
-17.368
-2.729
10.478
27.809
46.62
68.058
96.238
129.837
164.738
197.148
226.749
258.322
288.584
301.317
289.543
260.757
211.259
129.231
26.107
-75.285
-176.797
-287.763
-395.123
-493.954
-606.679
-728.049
-805.843
-813.574
-782.766
-745.381
-704.718
-660.721
-612.254
-549.16
-471.581
-394.538
-326.749
-266.988
-213.31
-163.991
-121.852
-93.347
-74.737
-57.094
-43.066
-36.523
-32.144
-31.08
-37.643
-40.038
-29.287
-19.157
-18.158
-16.164
-11.942
-10.778
-3.07
14.072
23.101
21.1
23.636
26.432
15.333
2.377
5.018
16.961
29.174
42.079
49.075
45.25
39.595
35.284
27.222
22.194
27.341
35.997
47.232
64.507
73.522
63.458
50.581
47.331
44.937
42.537
49.201
59.229
63.353
66.666
71.757
71.086
65.199
62.833
66.2
71.975
76.198
75.942
76.08
83.037
89.745
87.636
84.954
90.25
96.021
96.544
97.268
97.94
93.691
91.885
101.95
117.077
126.303
129.64
129.4
126.294
126.687
133.95
140.118
141.042
143.265
148.848
153.706
158.119
161.978
162.109
161.817
165.42
168.544
168.948
169.778
167.688
161.562
161.918
169.66
171.167
166.235
166.794
170.565
169.557
168.668
171.643
173.282
174.773
179.534
180.852
176.653
176.143
179.039
176.33
170.626
167.708
162.519
153.822
149.004
147.29
143.051
137.889
131.746
121.64
113.588
111.795
107.067
95.881
87.664
83.988
78.358
72.421
68.639
62.228
53.648
48.591
44.934
39.41
36.976
38.423
36
29.956
28.174
28.376
23.533
17.523
14.667
10.507
6.442
8.549
10.324
4.647
0.167
2.586
4.526
4.657
6.499
4.11
-3.915
-6.721
-3.111
-3.005
-6.975
-10.381
-13.906
-14.524
-8.046
-1.513
-1.598
-3.215
-3.548
-6.527
-10.057
-10.189
-10.343
-11.177
-8.09
-3.994
-3.759
-2.744
0.828
0.384
-2.232
-0.027
2.126
-0.602
-1.512
-0.967
-7.375
-14.574
-11.556
-4.29
-0.18
4.206
5.662
-1.612
-7.251
-2.866
0.715
-2.264
-2.759
-0.452
-1.919
-2.279
2.197
3.767
1.597
2.332
2.573
-2.113
-5.855
-7.278
-10.468
-9.949
-2.629
0.543
-3.241
-3.301
-0.992
-5.583
-11.761
-12.805
-14.497
-17.203
-15.068
-13.518
-16.992
-17.075
-13.226
-14.404
-16.156
-10.813
-7.239
-11.997
-16.849
-18.999
-22.369
-22.15
-16.033
-12.742
-13.914
-14.137
-16.701
-22.176
-21.218
-17.026
-22.576
-33.031
-36.451
-35.881
-33.277
-23.662
-16.341
-21.69
-26.132
-18.124
-11.259
-14.788
-19.448
-22.173
-26.325
-26.255
-20.913
-19.595
-21.571
-20.001
-19.39
-21.84
-19.267
-14.858
-18.807
-24.291
-22.323
-21.207
-24.881
-24.737
-23.436
-28.209
-29.625
-22.158
-19.002
-23.385
-23.21
-19.932
-22.964
-26.881
-25.494
-24.462
-24.976
-23.665
-24.746
-28.608
-28.133
-26.438
-30.057
-31.397
-25.3
-22.282
-26.988
-30.288
-28.162
-24.641
-22.302
-23.467
-27.818
-28.901
-25.714
-24.362
-23.092
-18.388
-18.311
-25.165
-26.274
-19.79
-18.289
-22.308
-23.603
-24.042
-25.064
-21.345
-17.838
-23.688
-31.506
-31.376
-28.796
-26.993
-19.595
-11.212
-11.527
-13.48
-9.114
-6.313
-6.945
-2.005
3.413
-0.52
-4.101
0.962
3.281
-0.429
3.073
13.832
19.078
19.024
21.604
25.494
26.238
23.702
19.474
16.554
14.798
7.921
-2.806
-6.081
-3.448
-8.577
-18.287
-18.51
-13.988
-16.312
-20.325
-21.382
-26.682
-34.127
-34.416
-32.326
-35.553
-39.706
-42.124
-44.984
-44.054
-38.214
-34.982
-34.526
-32.828
-35.53
-43.367
-45.043
-41.538
-45.876
-55
-56.344
-53.33
-54.541
-56.074
-54.326
-52.275
-46.257
-31.463
-14.378
0.108
16.303
34.405
54.326
84.329
122.462
155.114
185.654
225.352
262.133
279.34
279.594
260.728
209.215
128.367
32.953
-71.584
-179.403
-283.858
-390.075
-500.529
-610.155
-721.094
-818.887
-859.873
-834.213
-790.254
-757.477
-715.682
-656.195
-595.041
-529.869
-451.512
-375.605
-316.013
-262.267
-207.4
-159.835
-123.582
-97.457
-82.203
-71.567
-57.86
-47.907
-50.205
-58.119
-63.049
-62.901
-53.358
-37.978
-34.866
-45.399
-44.718
-25.941
-11.62
-8.251
0.41
12.607
10.681
-3.493
-14.142
-16.613
-12.875
-2.957
9.93
22.175
31.304
29.762
16.494
6.003
4.367
1.07
-2.013
7.865
24.524
34.503
39.206
37.814
25.692
17.543
26.617
37.35
38.721
44.789
56.321
55.927
47.203
45.536
46.993
46.927
53.56
62.7
62.866
61.883
68.701
73.546
71.585
71.072
72.896
74.604
79.586
83.636
80.665
79.884
87.057
91.604
93.084
102.18
111.797
110.442
108.144
113.217
116.734
119.055
128.328
134.911
130.186
127.841
133.926
134.344
127.71
126.235
128.557
130.462
138.82
150.511
152.94
149.799
150.511
150.543
148.431
151.613
156.057
153.987
151.708
153.991
155.544
157.087
160.742
160.238
157.268
160.305
162.294
155.198
151.352
156.891
156.734
147.525
142.38
139.702
131.037
123.532
120.587
112.292
101.403
99.062
98.673
91.309
85.63
86.101
83.437
77.574
75.876
73.729
65.628
57.46
50.832
41.001
32.486
30.366
28.289
24.269
24.777
25.911
19.33
11.328
10.113
10.603
8.601
7.374
5.104
-1.602
-6.855
-4.748
1.343
5.453
4.169
-1.374
-3.225
2.637
7.478
5.604
4.203
6.027
4.775
1.908
3.392
5.217
3.042
1.875
3.75
5.075
7.218
10.578
9.21
5.135
6.815
9.943
6.426
2.661
4.296
5.118
4.811
7.633
7.096
2.333
6.805
17.997
16.942
7.34
8.032
13.101
7.602
1.743
7.906
15.082
13.509
9.418
6.402
4.132
7.31
14.78
18.498
18.382
17.844
15.36
13.662
17.056
19.832
17.978
17.13
16.483
11.126
8.608
13.751
14.732
8.171
7.503
14.768
19.598
21.649
23.355
20.948
19.142
23.613
23.447
13.461
7.883
9.781
8.477
9.128
18.466
22.618
16.891
16.788
22.199
20.806
18.312
19.826
14.214
4.515
5.794
11.068
8.603
7.947
12.643
11.504
9.017
14.166
15.774
9.932
10.837
15.064
8.671
1.383
3.471
2.603
-3.629
-1.795
3.82
1.916
-0.212
2.182
0.803
-1.767
2.058
5.508
4.546
6.52
9.491
6.962
5.161
7.385
5.589
1.055
1.048
0.682
-2.053
2.411
10.703
9.856
5.455
7.998
10.508
9.904
14.909
18.963
10.508
2.934
8.587
11.695
4.103
2.157
7.773
6.679
3.411
7.324
8.245
2.63
2.904
6.367
1.823
-3.179
-2.266
-5.02
-8.663
-1.308
6.652
2.293
-2.502
0.458
1.111
-0.659
1.059
-2.041
-10.157
-7.195
4.519
7.14
2.743
2.45
3.081
4.211
12.379
18.653
12.049
5.415
12.369
22.21
23.548
23.512
29.62
38.937
46.906
49.658
45.632
40.643
39.571
39.377
38.378
36.634
29.091
17.146
11.863
12.586
8.875
3.218
0.616
-6.893
-19.202
-23.919
-24.386
-31.736
-37.555
-32.872
-28.281
-28.871
-26.114
-22.001
-22.936
-22.216
-18.209
-20.981
-26.87
-24.574
-22.084
-29.076
-34.157
-30.601
-30.845
-37.182
-37.374
-33.573
-37.962
-46.915
-49.21
-45.48
-41.09
-35.978
-28.187
-15.296
3.595
23.685
43.199
69.195
103.521
139.39
175.45
212.467
245.325
274.029
298.428
300.26
266.148
211.31
145.014
53.326
-58.641
-166.742
-273.989
-392.832
-509.385
-618.518
-732.662
-825.56
-851.791
-824.043
-788.157
-751.5
-701.237
-641.815
-574.825
-495.602
-417.447
-354.551
-299.219
-243.709
-192.012
-143.749
-100.828
-75.406
-66.395
-57.55
-46.627
-42.112
-41.721
-41.988
-44.808
-42.977
-30.85
-22.145
-26.936
-32.435
-26.66
-13.542
0.226
9.07
9.284
7.839
10.675
8.415
-2.66
-7.4
1.225
12.832
23.844
36.454
40.958
31.505
21.286
18.899
16.091
11.29
15.251
29.478
43.782
51.13
50.887
47.27
47.334
50.848
51.155
50.594
56.538
64.734
68.045
69.764
70.856
65.597
58.756
60.637
68.04
74.188
81.516
88.58
89.079
87.324
89.168
89.773
89.227
94.851
101.739
101.916
102.453
107.557
108.625
106.824
111.175
116.999
118.426
121.871
127.324
128.198
130.038
136.87
139.59
139.511
147.192
154.993
152.017
148.662
152.729
154.997
154.873
159.972
165.196
166.689
172.224
179.647
180.052
178.687
180.299
178.119
174.893
178.317
180.391
176.465
177.23
180.334
173.564
166.612
171.821
175.378
168.11
164.894
168.378
162.559
149.525
145.242
147.802
146.238
141.2
135.754
128.659
122.586
120.078
118.058
115.663
112.682
103.501
90.083
84.523
85.311
78.855
67.713
63.016
59.396
50.399
44.551
43.226
36.846
29.257
28.595
26.742
19.369
17.43
21.006
18.94
14.121
14.181
14.172
11.181
9.71
8.09
4.797
4.858
5.445
0.031
-4.35
-1.218
0.414
-3.683
-4.652
-2.253
-4.014
-6.247
-4.113
-4.375
-8.595
-9.38
-8.651
-10.417
-8.019
-2.932
-6.531
-12.309
-6.496
2.31
3.663
6.485
12.056
9.095
3.765
7.415
9.189
1.014
-3.656
-0.432
-0.132
-0.992
3.397
5.141
1.176
1.032
4.458
4.585
4.215
4.441
0.567
-3.669
-4.196
-5.804
-6.421
-0.515
2.334
-4.935
-9.518
-4.519
-0.307
-0.204
0.345
-1.831
-6.632
-5.971
-2.02
-1.952
-1.209
2.317
0.028
-6.202
-6.129
-4.689
-11.193
-18.691
-19.38
-17.906
-16.513
-12.456
-9.195
-8.736
-6.164
-3.328
-6.062
-8.905
-6.853
-7.935
-14.349
-16.116
-13.2
-13.833
-14.31
-9.439
-7.283
-11.721
-14.304
-13.642
-16.062
-19.35
-19.851
-22.886
-29.311
-30.77
-25.69
-20.698
-18.571
-18.943
-20.794
-19.798
-16.654
-19.433
-26.366
-27.509
-26.576
-32.057
-36.248
-32.022
-27.914
-27.346
-24.254
-21.933
-24.229
-23.99
-22.259
-27.975
-34.561
-32.985
-31.519
-33.963
-31.873
-29.19
-33.783
-35.696
-29.37
-26.864
-29.649
-29.288
-32.68
-43.403
-44.625
-33.935
-30.937
-36.253
-35.368
-33.344
-37.455
-36.816
-31.06
-33.672
-39.248
-36.042
-33.591
-38.294
-38.439
-34.145
-35.839
-36.237
-27.802
-23.127
-27.648
-30.106
-29.362
-30.806
-28.123
-19.627
-16.056
-17.565
-15.156
-11.609
-11.79
-9.287
-2.121
2.173
2.899
4.223
5.158
7.498
14.95
21.154
20.753
20.389
21.793
19.07
17.38
23.292
26.998
21.126
13.78
8.758
2.854
-0.079
0.103
-5.642
-14.563
-16.97
-20.197
-32.179
-41.328
-41.955
-44.191
-45.875
-38.984
-35.194
-42.511
-46.249
-42.431
-44.788
-49.898
-46.095
-43.527
-50.273
-51.007
-40.35
-34.283
-36.382
-36.64
-36.734
-41.309
-44.926
-46.177
-48.822
-50.166
-49.417
-49.705
-44.737
-30.697
-19.647
-14.606
-1.315
19.874
36.914
57.827
92.944
128.769
158.19
195.698
240.551
273.65
289.703
287.79
255.452
193.095
115.282
22.617
-86.803
-199.914
-311.104
-424.29
-534.13
-644.295
-763.914
-858.377
-876.914
-836.052
-791.601
-751.792
-697.17
-634.917
-571.426
-494.115
-411.674
-348.462
-299.897
-248.385
-198.233
-156.574
-118.033
-85.963
-69.455
-61.85
-53.253
-46.585
-44.925
-46.821
-52.49
-55.144
-45.35
-32.513
-32.072
-36.394
-29.349
-14.07
-2.482
3.238
6.118
6.761
3.173
-6.45
-16.865
-18.204
-10.068
1.085
15.614
30.924
32.628
19.371
10.751
11.927
7.997
1.288
7.731
21.348
27.077
28.437
30.125
27.008
23.696
27.297
30.072
29.658
37.145
49.868
55.071
55.959
58.012
53.809
45.899
47.877
56.402
61.383
68.848
80.476
83.173
78.39
80.09
84.207
81.615
81.091
87.166
88.584
84.491
85.616
92.23
99.398
107.072
112.496
114.604
119.344
124.296
121.526
119.263
128.077
137.68
138.49
139.408
143.902
143.973
142.154
145.098
148.137
150.014
156.603
162.6
161.182
161.105
166.818
168.117
164.673
165.807
168.124
166.536
167.456
170.681
170.086
171.637
177.437
175.21
166.763
167.388
172.524
169.266
164.627
165.315
161.87
153.796
151.213
150.695
145.637
142.622
142.259
134.897
124.744
122.02
119.226
108.904
101.601
101.069
94.81
81.98
74.657
71.946
64.737
55.06
49.013
46.758
46.924
45.769
38.086
27.393
21.283
19.037
18.734
23.084
27.516
22.808
12.487
6.668
5.577
6.157
8.849
8.641
1.147
-4.349
0.019
6.629
9.556
12.398
13.71
10.48
8.267
8.499
5.779
4.153
8.989
11.811
8.004
5.881
4.83
-1.418
-3.851
3.095
4.999
-1.901
-2.603
2.073
-0.453
-4.395
-2.019
-1.972
-4.131
1.891
7.465
-0.114
-8.836
-6.06
-0.712
0.205
0.872
0.352
-1.941
0.425
5.439
5.44
3.171
1.234
-4.111
-6.45
1.007
5.844
0.54
-1.656
1.539
-1.371
-3.108
6.094
10.283
0.646
-5.547
-4.136
-7.674
-10.168
-1.912
4.048
-0.49
-3.897
-3.703
-6.933
-8.242
-3.872
-3.11
-6.494
-6.096
-6.871
-14.326
-18.334
-13.725
-9.979
-10.218
-9.136
-7.684
-8.334
-9.608
-12.818
-17.711
-19.591
-20.678
-24.574
-24.343
-19.152
-19.974
-23.13
-15.914
-7.807
-11.66
-14.769
-8.882
-9.667
-19.288
-19.956
-13.206
-13.72
-15.841
-10.983
-9.215
-13.476
-12.477
-9.011
-12.361
-14.361
-9.384
-8.973
-15.094
-16.928
-15.838
-17.003
-14.598
-10.378
-14.143
-19.177
-15.38
-12.891
-19.217
-22.847
-19.288
-16.014
-11.526
-4.863
-6.471
-14.843
-15.26
-9.819
-11.323
-16.782
-18.477
-19.197
-19.666
-17.524
-17.08
-18.331
-14.65
-10.541
-13.605
-16.208
-13.112
-13.539
-17.372
-15.553
-15.989
-27.595
-35.71
-30.633
-26.29
-26.661
-19.76
-10.552
-11.401
-13.152
-5.701
1.146
1.26
1.434
1.829
-0.984
-1.571
2.799
5.8
4.703
2.983
3.837
9.498
18.059
23.389
26.164
31.96
36.132
31.499
26.002
30.007
38.186
40.964
35.977
23.212
9.437
7.549
14.226
12.641
4.352
2.491
0.488
-12.001
-23.186
-23.587
-23.896
-28.832
-31.66
-35.199
-41.606
-40.28
-32.041
-30.521
-31.729
-25.467
-22.617
-30.043
-32.874
-28.365
-29.757
-32.864
-28.642
-28.049
-34.852
-34.164
-27.761
-30.762
-36.823
-33.992
-30.565
-31.358
-26.27
-16.318
-9.741
0.988
22.843
46.004
67.193
96.986
134.297
166.99
195.85
231.171
273.474
309.923
321.522
298.14
248.753
182.666
96.018
-5.175
-104.494
-207.175
-323.149
-435.225
-538.463
-656.158
-769.011
-816.615
-796.513
-761.383
-727.732
-682.531
-634.436
-584.589
-512.255
-426.488
-360.972
-316.857
-271.67
-220.197
-168.412
-121.847
-89.821
-72.028
-56.623
-43.143
-37.018
-32.137
-28.413
-35.581
-43.981
-35.268
-18.867
-14.561
-19.224
-21.12
-16.906
-4.176
13.022
21.342
19.764
18.767
15.956
5.179
-3.181
0.585
11.407
25.659
41.255
45.859
35.276
24.725
21.198
15.829
10.774
16.933
31.036
44.621
56.187
60.066
52.179
43.854
42.99
42.531
43.184
52.923
63.843
66.108
67.229
69.957
64.775
56.961
59.657
65.533
64.489
66.583
78.152
89.031
96.183
103.406
104.772
100.147
102.686
111.373
111.871
106.84
106.986
108.012
107.771
115.14
125.694
127.423
126.596
131.057
132.041
128.444
131.559
138.214
139.381
141.641
149.285
155.933
164.418
176.696
179.527
173.252
176.659
188.266
192.215
192.212
194.108
188.751
180.162
183.391
191.027
189.325
187.593
194.329
198.539
195.601
194.266
195.128
193.418
191.519
190.374
187.995
187.842
188.846
182.342
171.332
166.441
164.801
161.263
161.069
161.051
151.376
139.578
135.45
129.267
116.817
111.261
111.524
101.769
84.101
72.671
69.229
69.927
71.948
67.156
55.2
49.059
48.952
41.588
30.657
28.247
26.809
18.092
13.171
16.227
16.501
15.258
19.395
20.022
12.012
6.71
6.751
3.634
-1.435
-4.612
-7.836
-6.413
2.404
6.26
1.222
0.944
6.446
5.806
1.693
0.649
-3.821
-10.508
-8.209
-2.877
-6.546
-10.532
-6.244
-4.583
-9.097
-7.669
-0.884
-0.073
-3.341
-3.856
-2.965
-0.531
3.152
0.946
-4.896
-3.151
1.866
-0.188
-2.234
0.795
-2.044
-9.479
-7.427
-1.568
-5.023
-8.827
-4.354
-2.576
-5.93
-3.391
1.358
-1.008
-3.163
0.409
1.152
-2.779
-4.931
-6.004
-7.135
-5.166
-3.25
-4.12
-2.137
0.949
-2.954
-7.298
-3.331
-0.813
-5.794
-6.181
-0.022
-0.56
-7.052
-8.205
-5.976
-6.255
-5.092
-1.782
-2.867
-8.167
-12.27
-14.542
-15.676
-15.15
-15.1
-16.292
-16.342
-17.226
-21.112
-21.437
-15.249
-12.248
-15.916
-17.284
-15.953
-18.829
-20.848
-16.902
-16.806
-23.814
-25.954
-22.043
-21.715
-21.27
-14.724
-12.591
-20.74
-27.016
-25.34
-23.05
-22.582
-22.515
-26.232
-31.898
-31.555
-26.653
-25.232
-27.026
-27.35
-26.347
-25.16
-23.984
-24.328
-25.145
-24.119
-23.798
-25.46
-25.613
-26.313
-31.136
-33.014
-28.155
-26.346
-29.279
-27.169
-23.355
-26.546
-27.911
-19.683
-12.836
-14.313
-18.293
-22.626
-23.546
-12.707
0.537
-1.241
-9.644
-7.746
-3.048
-5.018
-3.47
4.62
7.043
3.757
5.175
11.572
19.821
29.478
32.828
25.038
17.287
18.21
21.765
22.783
20.224
11.82
4.337
6.66
8.719
-0.142
-8.262
-9.619
-17.933
-31.59
-34.464
-32.948
-40.239
-45.606
-41.702
-42.169
-47.915
-44.485
-35.321
-32.793
-33.85
-35.348
-41.525
-45.195
-38.562
-32.845
-35.461
-35.943
-33.402
-38.93
-48.044
-49.717
-48.714
-49.937
-48.215
-46.979
-52.511
-54.028
-43.134
-32.353
-28.26
-18.39
0.761
18.683
35.44
59.94
91.984
126.204
160.698
195.737
235.351
280.389
313.068
310.718
275.191
221.099
147.401
51.642
-50.552
-147.024
-241.933
-337.638
-436.192
-546.61
-658.288
-735.673
-761.529
-751.039
-721.663
-683.648
-645.371
-602.991
-544.375
-470.049
-394.567
-334.19
-296.125
-267.568
-226.753
-173.468
-127.939
-100.413
-85.087
-74.921
-64.377
-50.759
-40.009
-36.642
-33.621
-27.175
-25.762
-31.063
-32.69
-29.51
-29.207
-27.145
-13.848
5.019
18.395
23.491
19.593
8.749
-0.153
-3.479
-3.822
3.251
19.495
32.331
34.529
33.21
30.289
23.146
18.741
20.564
21.79
25.47
39.583
53.49
54.385
50.058
47.655
41.053
34.479
40.854
55.238
63.57
65.562
65.762
63.107
59.926
59.427
57.889
55.291
57.471
62.041
64.175
68.192
74.132
74.684
74.241
81.759
91.312
96.468
101.605
103.629
96.024
90.69
99.631
110.879
112.582
112.827
116.831
118.296
118.925
124.946
132.085
136.599
142.339
147.211
147.373
150.01
158.508
163.655
164.527
169.121
172.98
170.094
171.028
181.233
188.191
187.747
189.203
191.443
187.506
182.947
185.035
190.503
194.137
193.295
188.006
184.681
186.598
186.08
180.957
179.67
180.53
174.129
165.178
162.046
158.63
151.006
146.752
143.988
133.082
118.932
109.822
99.604
86.027
78.388
74.215
63.644
52.906
49.247
44.088
35.945
35.144
37.055
30.253
20.978
15.907
8.289
0.63
3.293
8.419
2.782
-7.141
-11.025
-11.704
-12.331
-11.67
-12.313
-16.63
-24.071
-33.818
-37.444
-26.087
-13.281
-18.854
-33.759
-38.91
-38.344
-39.425
-36.339
-33.288
-39.14
-41.924
-33.238
-29.618
-34.905
-30.263
-18.466
-19.38
-26.896
-25.629
-23.549
-28.198
-30.939
-30.594
-31.118
-26.837
-20.518
-24.046
-30.494
-26.567
-20.99
-23.988
-27.288
-25.962
-25.786
-26.796
-26.972
-28.309
-27.434
-21.548
-18.806
-24.207
-30.876
-33.557
-32.841
-29.541
-27.339
-29.4
-30.263
-26.237
-24.648
-27.849
-26.574
-20.416
-19.527
-22.158
-19.629
-16.855
-20.049
-22.259
-21.031
-23.575
-27.779
-27.083
-26.225
-29.064
-29.422
-25.662
-22.949
-22.125
-21.833
-21.491
-18.494
-14.759
-16.502
-19.9
-16.504
-11.793
-15.232
-21.909
-23.914
-23.682
-24.716
-27.109
-32.144
-36.558
-33.884
-28.75
-29.765
-31.291
-25.82
-20.859
-22.337
-22.955
-20.776
-22.792
-26.513
-25.324
-24.557
-28.565
-29.804
-26.637
-26.476
-27.024
-22.763
-21.116
-27.225
-32.632
-33.838
-35.748
-35.531
-29.464
-24.939
-26.423
-27.876
-26.358
-23.539
-19.073
-16.731
-22.023
-29.608
-32.407
-34.669
-37.859
-34.445
-28.049
-30.257
-35.676
-33.21
-29.274
-29.479
-25.22
-18.25
-19.56
-21.588
-14.049
-9.168
-14.85
-17.519
-12.631
-10.086
-9.07
-5.588
-5.555
-7.097
-1.81
4.376
5.121
9.1
17.648
20.385
18.991
19.742
17.582
13.517
16.631
21.225
17.412
11.047
7.067
2.195
0.352
2.033
-4.185
-15.801
-19.268
-22.078
-34.779
-42.258
-37.404
-39.45
-49.094
-44.759
-31.58
-30.834
-35.549
-31.371
-27.86
-31.703
-32.09
-28.28
-29.887
-34.914
-38.417
-42.85
-45.39
-41.357
-37.625
-39.756
-42.08
-42.497
-43.955
-43.46
-40.92
-42.814
-45.001
-37.612
-25.493
-15.435
0.815
26.238
49.118
68.82
96.809
131.149
164.656
203.869
250.994
291.808
314.965
315.501
287.541
236.27
171.758
87.57
-18.252
-123.122
-216.143
-312.235
-414.168
-514.533
-620.323
-719.871
-769.412
-756.976
-720.951
-687.41
-651.652
-611.219
-561.576
-489.319
-405.825
-344.463
-309.813
-275.078
-226.159
-171.579
-124.158
-93.351
-78.182
-66.686
-53.531
-42.973
-34.592
-28.889
-32.951
-40.581
-35.013
-21.476
-19.244
-25.444
-25.289
-18.292
-5.828
13.9
28.59
27.639
22.015
17.933
6.457
-5.42
-1.015
12.988
23.608
35.329
46.31
42.678
28.54
18.977
14.611
14.997
25.713
39.102
46.161
54.878
65.834
65.395
56.724
53.244
52.022
50.54
57.48
68.262
70.72
70.153
73.255
72.18
66.308
66.065
70.585
72.444
73.564
76.227
78.37
82.628
88.603
88.19
84.409
88.514
94.884
93.53
94.138
102.966
106.616
103.735
108.673
116.468
114.222
113.386
124.41
132.216
130.12
132.795
141.519
144.613
145.766
151.891
156.225
156.71
158.96
158.667
152.735
151.882
159.964
167.194
170.507
173.289
174.161
174.757
178.28
177.498
169.096
165.794
172.518
177.664
178.574
181.604
181.735
175.463
173.463
177
174.69
169.002
167.784
163.12
151.47
144.639
143.569
138.914
133.293
129.59
120.594
108.402
101.318
95.089
87.158
85.291
85.253
76.31
66.184
63.136
56.021
41.37
33.463
33.03
28.173
23.171
26.057
26.328
16.909
9.358
8.716
6.404
1.781
0.339
-0.485
-3.256
-5.533
-8.533
-11.798
-9.097
-3.496
-4.655
-8.496
-7.165
-7.52
-13.981
-17.277
-15.792
-16.892
-17.737
-15.26
-17.53
-23.845
-23.334
-18.586
-17.274
-13.775
-6.717
-6.551
-12.025
-13.007
-11.673
-11.573
-7.88
-4.768
-10.273
-15.53
-11.762
-9.278
-14.404
-16.77
-12.642
-9.927
-9.841
-9.1
-9.898
-11.736
-10.122
-8.192
-10.833
-13.455
-12.547
-12.173
-11.736
-7.372
-3
-1.612
0.856
3.101
0.721
-1.654
-0.71
-1.627
-3.395
-0.811
1.348
-0.25
0.43
1.669
-2.145
-2.981
2.865
2.033
-6.083
-4.98
3.411
3.196
-2.71
-3.512
-2.282
-1.967
1.292
4.476
3.493
2.29
1.357
-1.98
-2.548
0.904
-0.748
-6.023
-3.844
1.395
-0.518
-2.903
0.105
-0.676
-5.978
-5.868
-4.69
-10.656
-14.453
-9.726
-7.027
-9.158
-7.598
-5.137
-8.623
-11.865
-9.642
-7.71
-9.159
-12.038
-16.252
-18.695
-15.792
-12.926
-13.808
-12.238
-8.419
-10.166
-13.519
-10.859
-8.744
-11.609
-11.215
-7.825
-9.33
-10.367
-5.839
-6.03
-12.439
-12.336
-8.636
-13.78
-20.102
-16.541
-12.536
-15.529
-18.315
-20.548
-25.298
-23.743
-15.25
-14.037
-18.638
-15.19
-8.75
-9.935
-11.258
-8.144
-9.966
-15.781
-16.308
-15.486
-18.497
-18.848
-15.745
-15.186
-13.576
-8.779
-9.139
-12.682
-9.122
-4.382
-7.022
-8.226
-4.759
-7.243
-11.965
-6.79
0.806
-0.094
-2.453
-0.212
2.452
6.346
13.548
19.622
25.399
34.88
41.883
41.891
42.097
44.616
44.293
43.428
42.285
31.999
17.132
13.833
18.36
15.916
10.739
10.205
5.186
-6.25
-11.807
-12.059
-16.037
-19.14
-17.853
-20.054
-22.928
-17.798
-14.32
-20.745
-23.238
-15.896
-13.508
-19.797
-24.696
-27.655
-30.276
-28.124
-25.341
-27.91
-28.885
-25.863
-28.158
-33.397
-30.812
-25.245
-26.171
-28.704
-26.104
-18.804
-6.62
7.566
18.278
32.044
57.846
88.467
118.897
160.066
211.538
256.889
294.249
329.551
350.645
345.9
320.753
273.307
194.479
97.033
0.197
-100.591
-209.564
-309.94
-401.484
-511.355
-636.801
-728.162
-753.382
-733.769
-704.188
-676.222
-642.832
-594.335
-530.876
-463.363
-398.814
-336.593
-279.676
-230.516
-182.962
-135.949
-98.673
-73.136
-54.683
-45.592
-44.029
-38.256
-29.894
-32.309
-39.653
-35.084
-23.619
-21.143
-26.404
-28.715
-23.432
-10.896
2.254
7.403
7.719
10.173
9.525
1.11
-7.645
-12.092
-12.081
-0.619
21.338
35.313
33.14
26.82
21.443
12.853
7.127
10.282
16.16
23.431
36.55
47.483
47.206
42.935
41.526
39.481
38.182
42.307
48.005
52.032
56.911
60.549
60.263
60.144
60.226
57.208
58.604
69.292
75.257
69.566
68.817
79.479
85.743
83.74
84.061
85.279
85.153
93.046
105.107
107.199
105.963
112.722
117.32
114.101
115.957
124.39
128.411
129.559
132.628
133.695
136.064
145.742
153.369
152.466
152.986
155.388
149.265
142.931
151.113
165.628
174.218
179.885
181.827
175.923
173.585
181.859
185.962
179.721
176.776
180.082
181.61
184.21
189.365
188.157
182.381
181.574
182.121
179.084
177.196
174.287
165.426
159.539
161.118
158.317
149.528
146.297
145.595
137.969
130.34
127.813
120.13
106.458
97.977
91.83
79.433
69.24
69.321
69.079
60.047
49.24
42.509
38.003
34.458
30.36
24.471
21.108
22.047
21.058
16.412
12.572
8.318
1.944
-1.345
-1.217
-3.248
-5.308
-4.79
-8.825
-17.437
-18.813
-13.332
-12.474
-14.304
-12.175
-13.1
-19.65
-20.861
-16.95
-18.149
-20.394
-16.465
-13.145
-13.784
-12.677
-12.198
-15.696
-16.541
-14.33
-16.097
-18.64
-18.03
-20.193
-22.072
-14.335
-6.52
-10.672
-15.783
-13.266
-14.43
-20.766
-20.055
-15.284
-15.743
-15.771
-12.521
-14.099
-18.452
-18.657
-19.646
-22.768
-20.721
-18.026
-21.679
-22.478
-16.762
-16.169
-19.147
-15.559
-15.055
-25.842
-31.172
-22.995
-17.601
-20.072
-20.442
-21.034
-25.712
-24.792
-16.999
-13.066
-12.688
-11.855
-16.308
-22.647
-18.589
-10.982
-14.236
-21.252
-22.139
-23.822
-26.678
-21.219
-15.028
-21.303
-31.711
-34.373
-33.497
-32.518
-28.977
-26.767
-27.099
-23.89
-21.201
-26.908
-33.061
-32.143
-31.844
-33.594
-29.72
-25.635
-29.317
-32.904
-31.243
-30.871
-31.221
-29.021
-30.834
-35.439
-31.479
-24.056
-26.297
-30.839
-27.062
-24.206
-28.854
-31.633
-30.009
-30.273
-29.317
-23.631
-21.66
-27.236
-31.324
-29.303
-26.3
-25.926
-28.084
-30.792
-29.62
-25.344
-25.544
-30.548
-33.857
-36.462
-39.398
-34.798
-24.75
-23.817
-31.462
-35.349
-37.26
-41.051
-37.644
-28.996
-30.179
-37.409
-37.48
-37.186
-42.483
-41.093
-33.908
-36.673
-43.664
-40.815
-37.264
-40.42
-37.689
-28.865
-29.056
-35.972
-38.036
-38.021
-39.4
-38.001
-36.885
-40.138
-40.857
-36.188
-33.093
-32.439
-31.824
-34.904
-38.709
-34.594
-28.742
-30.811
-31.673
-24.01
-19.927
-23.818
-22.85
-15.206
-11.174
-10.88
-9.799
-9.401
-7.789
-1.764
3.96
7.577
13.539
18.331
17.455
18.578
24.523
25.481
20.992
18.14
11.935
0.361
-3.547
0.57
-2.593
-11.251
-14.444
-19.539
-31.036
-34.479
-29.546
-33.833
-45.326
-48.499
-45.269
-42.523
-37.36
-33.068
-35.797
-39.252
-39.513
-42.161
-44.164
-40.812
-40.954
-46.456
-45.115
-39.643
-43.122
-48.844
-46.815
-47.064
-53.147
-51.538
-44.5
-47.704
-56.963
-57.872
-50.35
-38.669
-23.836
-10.869
0.938
21.629
51.258
81.794
115.973
157.839
201.475
245.93
292.529
326.945
336.978
329.678
304.666
247.236
161.594
67.586
-31.652
-140.862
-251.337
-355.689
-461.641
-576.507
-688.721
-767.325
-786.127
-756.088
-717.134
-688.602
-651.86
-590.627
-518.079
-451.803
-391.638
-333.622
-279.299
-227.222
-177.713
-138.809
-111.714
-88.449
-69.62
-60.148
-54.062
-46.855
-45.199
-49.291
-49.098
-41.716
-32.651
-27.842
-31.593
-36.782
-27.321
-6.614
4.108
4.625
11.869
20.827
15.496
3.132
-1.53
-0.021
5.277
17.955
31.875
37.526
36.821
33.409
25.993
18.301
16.293
19.302
27.361
42.505
56.512
58.417
52.271
46.733
40.308
34.572
38.581
48.92
54.191
57.739
65.739
69.239
64.376
62.542
65.787
65.876
66.503
74.034
81.421
83.735
86.289
89.873
91.559
93.568
96.261
98.094
103.407
112.553
117.542
118.636
122.662
126.736
127.865
132.655
140.598
143.14
142.479
145.142
148.563
151.667
157.618
162.99
165.572
170.706
177.284
180.151
184.231
191.248
191.204
186.324
190.814
200.054
200.246
198.6
204.428
207.362
204.001
206.717
213.796
214.329
214.312
219.82
219.99
211.763
207.268
208.635
208.457
207.025
205.328
200.13
195.327
194.968
191.66
182.443
175.873
171.516
161.317
150.389
145.683
138.88
126.456
119.981
120.537
115.939
106.009
98.414
90.709
81.082
75.013
70.528
62.551
55.673
52.04
47.163
44.175
45.175
41.08
32.346
30.171
29.603
20.17
11.797
13.388
13.039
4.568
-1.802
-3.023
-2.944
1.841
9.426
8.802
2.222
1.498
3.442
-0.478
-4.733
-3.945
-3.443
-4.336
-3.307
-4.419
-9.776
-12.251
-9.936
-8.418
-7.108
-3.408
-2.68
-7.612
-11.267
-9.985
-7.805
-7.095
-7.254
-7.077
-4.366
-1.605
-4.535
-9.174
-7.894
-5.975
-9.479
-10.794
-7.057
-8.183
-14.084
-14.43
-11.15
-11.261
-10.249
-6.054
-6.373
-9.502
-6.696
-3.176
-7.708
-13.057
-10.919
-7.788
-10.676
-15.723
-16.461
-11.554
-6.871
-9.87
-15.735
-12.495
-4.202
-4.751
-11.811
-15.809
-19.766
-24.102
-19.39
-10.269
-10.667
-15.356
-12.957
-9.475
-9.366
-4.428
2.696
0.537
-6.488
-8.422
-9.523
-14.714
-19.29
-20.992
-20.404
-15.705
-11.149
-13.421
-17.465
-16.508
-15.164
-16.411
-15.592
-13.626
-14.761
-16.967
-19.414
-23.795
-24.863
-19.513
-15.716
-16.019
-13.61
-12.086
-19.463
-27.062
-25.306
-22.685
-24.557
-23.292
-21.291
-26.557
-30.516
-25.787
-22.927
-24.572
-20.281
-14.91
-19.588
-25.947
-24.901
-23.284
-23.443
-21.953
-24.981
-32.544
-31.199
-22.309
-21.87
-29.842
-35.712
-38.846
-37.644
-28.129
-21.303
-27.083
-34.048
-34.707
-37.762
-39.259
-28.059
-17.829
-24.587
-33.753
-31.099
-29.236
-34.922
-35.266
-29.124
-28.47
-32.071
-32.973
-34.902
-38.62
-37.078
-32.659
-33.815
-38.682
-40.899
-40.008
-38.123
-38.238
-42.181
-44.817
-42.195
-40.563
-43.298
-43.831
-41.21
-41.366
-42.105
-38.803
-35.955
-36.769
-37.655
-38.172
-37.874
-32.118
-25.464
-27.611
-32.195
-28.835
-25.177
-28.143
-28.928
-25.957
-27.709
-29.737
-24.923
-21.353
-22.268
-18.281
-11.865
-12.268
-12.137
-3.895
3.161
5.021
9.336
14.156
13.841
14.251
17.982
18.864
18.775
21.503
20.001
12.699
8.42
5.715
-0.821
-2.614
2.056
-2.964
-17.166
-21.6
-20.654
-31.57
-43.494
-41.441
-39.132
-45.035
-44.381
-37.471
-39.907
-45.842
-42.211
-37.616
-40.543
-42.779
-40.821
-39.097
-36.121
-32.851
-35.463
-40.416
-41.703
-43.622
-45.87
-41.373
-37.158
-43.811
-52.571
-54.018
-54.563
-54.497
-45.317
-32.322
-23.793
-11.553
10.515
34.835
59.5
90.223
126.269
166.205
212.036
258.467
297.098
325.436
337.279
322.336
281.178
219.615
136.593
36.008
-69.213
-173.34
-274.794
-369.402
-469.654
-592.852
-711.111
-769.598
-762.625
-731.283
-698.22
-660.299
-616.967
-565.716
-501.15
-430.971
-365.619
-305.114
-251.651
-208.445
-168.245
-129.059
-100.421
-80.153
-58.701
-43.016
-40.686
-41.833
-42.48
-49.358
-52.07
-36.611
-19.75
-22.967
-33.042
-28.491
-14.264
-2.428
7.177
14.122
15.489
14.541
12.072
4.285
-4.003
-4.308
2.789
14.8
30.146
39.471
36.581
30.239
27.273
24.225
23.245
29.701
39.133
47.991
58.028
61.789
53.184
44.245
42.949
40.758
39.172
48.022
57.928
58.534
62.259
72.871
71.855
59.88
59.728
71.341
76.079
74.768
78.104
82.736
84.418
86.706
88.708
89.212
92.713
96.645
94.859
93.839
99.999
105.756
107.836
113.339
120.722
124.648
130.564
138.951
139.266
134.247
137.301
145.446
148.043
148.549
152.314
155.993
159.697
164.457
164.619
162.225
166.944
175.266
179.645
186.906
198.167
199.267
191.706
192.397
197.934
194.533
190.42
196.292
201.116
197.86
197.244
201.689
202.326
199.255
195.886
189.75
184.016
183.79
182.54
175.905
171.439
168.963
159.665
147.474
140.934
135.815
129.237
126.638
124.044
113.085
99.608
91.789
86.354
80.41
74.587
65.671
55.302
50.896
49.613
44.52
40.225
39.512
34.855
27.273
24.592
22.025
14.539
10.933
12.728
8.917
0.742
-2.427
-4.415
-9.669
-10.679
-6.172
-3.854
-3.033
-0.996
-2.299
-4.652
-1.636
-0.567
-7.385
-10.937
-7.577
-8.817
-13.147
-11.203
-11.078
-18.924
-21.817
-17.527
-18.798
-20.407
-11.452
-5.605
-13.932
-21.537
-20.543
-20.522
-19.429
-11.402
-8.164
-15.643
-20.275
-16.904
-13.625
-11.204
-8.736
-11.034
-14.37
-12.247
-11.814
-16.965
-16.231
-7.872
-5.036
-8.533
-9.019
-8.545
-10.47
-8.528
-3.931
-5.38
-9.288
-8.615
-8.857
-12.303
-10.393
-4.061
-2.896
-5.452
-6.464
-8.62
-10.112
-5.261
-0.91
-4.538
-7.984
-5.986
-6.368
-9.53
-7.813
-3.784
-3.218
-4.08
-6.334
-11.532
-13.882
-10.924
-9.148
-9.937
-9.74
-9.938
-10.042
-6.346
-2.778
-3.514
-3.626
-2.757
-6.872
-10.625
-5.721
-0.08
-2.556
-7.167
-9.785
-13.747
-14.922
-9.756
-7.696
-12.954
-16.287
-15.037
-13.572
-9.78
-5.502
-9.292
-16.241
-15.231
-11.707
-12.755
-11.64
-9.015
-14.238
-19.544
-14.115
-10.526
-17.881
-20.122
-11.118
-7.838
-13.719
-15.471
-13.757
-16.934
-21.176
-22.666
-25.064
-26.89
-25.463
-25.065
-25.456
-21.665
-18.06
-19.538
-19.567
-16.127
-17.471
-22.256
-21.379
-17.466
-17.181
-17.694
-17.739
-20.709
-21.914
-16.233
-10.639
-10.498
-11.352
-12.629
-16.76
-19.332
-19.968
-25.294
-30.904
-27.628
-22.445
-23.83
-23.874
-18.672
-17.879
-21.487
-20.073
-16.924
-19.761
-23.406
-22.074
-19.802
-19.66
-21.358
-26.018
-30.606
-30.033
-27.554
-27.785
-27.996
-27.784
-29.834
-29.803
-25.887
-26.023
-30.188
-29.729
-27.403
-29.445
-30.084
-26.973
-26.585
-25.335
-17.542
-13.82
-20.561
-24.627
-20.252
-17.08
-14.368
-6.037
-1.621
-6.745
-8.49
-3.536
-3.318
-5.688
-1.747
2.451
2.368
4.626
7.038
4.219
5.083
13.967
20.104
22.071
27.316
30.736
27.94
28.737
34.881
36.087
32.359
27.728
17.539
6.314
6.514
10.293
1.782
-12.04
-19.549
-26.218
-33.498
-34.038
-33.374
-38.323
-40.182
-36.859
-38.179
-40.714
-36.841
-35.116
-39.095
-38.014
-33.513
-35.289
-37.623
-35.792
-38.917
-46.851
-50.315
-51.537
-52.789
-48.173
-43.808
-49.483
-54.742
-51.047
-51.115
-58.231
-58.348
-52.732
-51.929
-48.441
-34.703
-18.908
-0.92
27.922
61.051
91.331
128.183
174.319
220.229
265.323
306.552
326.104
319.127
297.169
255.82
183.494
91.403
-4.443
-107.123
-218.494
-324.853
-421.01
-523.11
-639.35
-742.137
-790.891
-780.199
-743.812
-709.692
-674.766
-627.485
-569.106
-504.057
-433.012
-364.449
-309.915
-263.524
-212.792
-165.635
-134.771
-110.631
-84.317
-69.621
-70.758
-67.613
-55.16
-51.408
-57.519
-55.541
-42.655
-32.284
-31.246
-34.762
-33.49
-23.03
-10.93
-4.659
1.282
10.191
11.557
1.435
-7.975
-9.684
-7.934
-2.317
9.965
23.319
31.298
32.374
25.687
15.308
10.042
11.126
15.406
25.977
41.658
50.541
47.889
41.744
37.374
35.469
38.732
45.254
49.829
56.165
67.297
72.72
67.424
63.084
64.517
64.951
66.836
74.049
77.966
77.909
84.867
93.721
92.421
89.765
94.242
94.893
91.062
96.57
106.42
107.97
109.639
117.91
121.384
120.471
126.843
133.593
130.988
130.156
137.461
142.032
144.308
154.027
163.618
163.148
161.682
166.125
169.377
170.912
176.493
182.629
186.691
193.103
198.27
197.064
198.396
207.037
211.705
208.646
205.336
201.024
195.917
199.41
207.302
205.923
200.801
202.334
203.649
201.961
204.867
206.827
200.489
195.505
194.593
187.168
178.431
178.337
174.029
157.727
147.932
150.688
147.613
135.477
126.802
119.173
107.402
100.692
99.805
92.501
80.044
72.528
67.56
60.81
56.092
52.321
45.483
39.65
36.063
29.089
21.964
21.325
21.266
17.033
15.3
15.674
11.317
7.735
9.481
6.64
-1.019
-0.688
3.378
-0.875
-4.062
2.708
5.259
-2.167
-4.242
0.658
-1.451
-9.246
-13.062
-15.489
-18.786
-17.398
-12.8
-11.464
-13.069
-15.245
-16.469
-13.901
-11.175
-14.339
-16.805
-12.758
-13.257
-21.489
-21.329
-12.054
-11.34
-17.094
-15.59
-14.137
-20.427
-21.575
-13.702
-9.264
-8.697
-7.447
-12.509
-21.178
-19.869
-13.909
-16.076
-19.4
-17.429
-19.012
-22.966
-19.07
-13.47
-14.377
-12.804
-5.699
-4.821
-9.884
-10.854
-12.278
-20.077
-23.853
-18.522
-14.341
-14.057
-12.652
-14.423
-21.292
-23.139
-17.848
-14.43
-13.725
-12.681
-15.292
-19.799
-17.675
-12.313
-12.84
-16.436
-18.438
-21.383
-23.145
-20.103
-18.008
-18.711
-15.776
-13.308
-18.612
-22.458
-18.297
-17.343
-21.999
-20.934
-16.848
-19.247
-21.784
-19
-18.715
-21.426
-20.392
-19.207
-20.675
-18.394
-15.014
-18.631
-22.679
-19.949
-18.447
-21.416
-20.792
-17.966
-19.351
-20.839
-21.52
-27.926
-33.885
-30.111
-25.874
-27.88
-24.996
-17.753
-21.257
-30.185
-27.28
-18.377
-18.241
-23.18
-25.403
-26.923
-27.583
-24.87
-22.863
-24.028
-24.548
-24.481
-26.997
-29.711
-29.075
-26.254
-23.886
-24.198
-26.784
-26.035
-20.513
-18.352
-21.631
-21.979
-20.089
-24.263
-29.478
-27.544
-26.045
-29.965
-30.493
-29.351
-36.131
-40.669
-31.803
-24.385
-28.521
-30.125
-26.003
-27.948
-30.15
-23.422
-20.486
-27.799
-31.244
-28.97
-31.912
-35.096
-30.846
-28.422
-32.682
-35.91
-37.75
-39.241
-32.448
-22.493
-26.076
-36.148
-32.922
-24.03
-27.284
-35.873
-38.254
-39.114
-40.097
-36.538
-33.595
-34.968
-33.293
-28.083
-25.374
-21.761
-15.998
-16.959
-23.344
-24.916
-23.827
-25.191
-23.779
-20.265
-22.244
-24.652
-19.498
-13.27
-11.318
-7.295
0.427
5.66
6.987
6.7
6.626
10.451
17.51
20.372
18.398
18.229
19.23
18.915
22.073
24.991
14.946
-1.981
-6.984
-2.729
-4.133
-9.47
-13.027
-19.551
-26.323
-24.855
-22.087
-26.434
-29.752
-27.916
-28.537
-29.534
-25.312
-23.868
-29.228
-32.632
-33.175
-35.392
-34.825
-31.875
-34.516
-37.898
-35.01
-35.595
-43.576
-46.364
-43.949
-47.295
-50.623
-46.168
-43.333
-44.828
-42.232
-41.375
-47.257
-43.326
-25.118
-12.251
-5.164
14.126
41.706
67.985
104.213
151.64
193.177
230.977
276.305
314.665
328.908
323.692
299.765
246.222
164.202
65.865
-37.769
-136.537
-229.79
-327.565
-432.648
-543.343
-658.785
-752.141
-781.045
-751.66
-714.8
-689.669
-655.338
-604.47
-544.724
-474.899
-402.813
-347.283
-302.174
-246.053
-186.177
-143.189
-111.988
-82.422
-63.792
-56.828
-46.569
-35.916
-37.992
-44.447
-43.169
-39.119
-33.706
-24.431
-23.442
-32.906
-29.473
-7.97
6.243
6.02
9.026
16.605
15.035
4.397
-5.577
-9.659
-5.121
7.866
24.903
41.082
48.514
40.921
28.374
25.544
27.053
23.767
26.697
42.55
55.442
57.642
58.845
57.569
48.293
43.586
49.091
50.591
49.76
62.239
77.855
77.438
69.757
68.208
67.691
67.073
71.713
75.63
75.981
81.583
89.846
91.148
91.852
97.777
99.713
98.828
106.644
114.914
111.139
107.927
115.772
120.88
117.928
119.524
124.455
123.605
125.178
134.601
139.334
137.825
143.285
153.805
159.319
164.306
172.414
175.866
174.784
175.942
177.518
180.087
189.671
198.488
195.874
191.695
195.751
198.339
195.081
195.644
199.87
200.94
202.613
207.233
208.983
209.15
211.635
210.614
204.589
202.163
202.838
198.503
191.63
187.976
184.793
180.682
177.385
170.738
159.567
152.207
150.099
144.676
135.175
127.07
118.963
110.012
104.787
101.074
94.01
88.316
85.366
76.565
64.522
61.383
62.215
53.991
42.267
37.737
35.886
31.634
28.737
26.891
23.85
22.962
22.447
16.451
9.808
8.831
9.073
8.789
11.351
11.773
6.977
5.196
6.584
2.196
-4.14
-4.791
-5.409
-7.915
-4.339
1.414
-0.362
-3.736
-2.01
-1.983
-4.538
-2.024
2.104
1.428
0.604
0.443
-4.765
-9.439
-6.52
-3.684
-5.437
-4.71
-2.866
-5.353
-4.87
0.609
-1.533
-9.614
-7.952
-0.78
-2.17
-5.085
-0.596
0.668
-5.353
-6.534
-1.933
-0.495
-0.369
1.27
0.202
-0.435
3.873
5.221
-0.234
-4.154
-5.278
-7.194
-4.555
1.701
0.589
-3.473
1.573
7.013
2.467
-0.38
4.682
5.349
1.645
5.049
9.707
5.903
1.759
2.656
0.901
-3.347
-4.154
-4.897
-6.918
-4.954
-1.936
-1.762
1.507
5.892
0.846
-7.214
-4.98
0.685
-0.249
-1.811
-2.408
-8.808
-14.004
-9.019
-4.721
-9.581
-12.925
-11.288
-14.742
-20.482
-18.163
-12.697
-11.464
-10.467
-8.416
-7.692
-4.95
-1.972
-5.206
-8.417
-4.905
-3.856
-9.097
-10.925
-10.157
-13.642
-14.302
-8.794
-9.143
-16.072
-16.732
-12.697
-13.314
-14.251
-12.259
-14.937
-19.22
-14.228
-6.41
-7.418
-11.763
-13.314
-16.749
-19.657
-15.83
-12.543
-15.821
-17.97
-17.07
-19.218
-19.621
-13.262
-10.402
-15.943
-20.075
-21.761
-27.439
-30.12
-23.68
-19.356
-22.935
-24.866
-23.057
-22.314
-18.036
-9.381
-7.872
-15.414
-21.502
-24.089
-26.336
-25.438
-23.005
-24.63
-25.899
-22.609
-21.341
-22.416
-18.541
-14.143
-15.84
-16.999
-15.719
-19.967
-24.953
-21.089
-17.154
-21.928
-25.351
-21.641
-19.55
-20.615
-19.561
-19.711
-22.972
-23.267
-21.106
-20.837
-19.174
-17.008
-21.568
-27.262
-24.349
-20.278
-22.661
-23.914
-22.85
-26.448
-27.03
-16.788
-8.988
-11.859
-13.481
-11.105
-14.763
-20.217
-17.184
-11.233
-9.782
-9.312
-8.064
-6.014
2.151
13.716
18.065
18.375
23.593
27.396
25.951
30.162
37.966
35.108
28.626
33.028
39.423
39.088
41.336
43.969
34.73
23.031
21.8
20.673
13.05
9.567
9.363
3.143
-3.123
-4.731
-10.831
-20.607
-24.165
-26.205
-33.62
-38.148
-34.908
-31.194
-29.777
-28.492
-28.971
-31.022
-32.234
-33.35
-33.111
-30.46
-32.182
-39.62
-41.683
-36.896
-36.021
-37.74
-34.549
-32.926
-36.629
-34.994
-29.333
-34.004
-43.258
-39.058
-25.532
-17.211
-11.133
1.494
19.673
41.933
69.907
103.062
141.444
184.59
228.611
272.8
315.657
343.118
341.97
316.213
270.055
196.716
100.723
0.487
-100.467
-209.445
-316.165
-411.345
-515.854
-639.786
-740.128
-773.422
-756.366
-728.867
-699.456
-659.965
-610.037
-549.28
-479.178
-411.458
-354.085
-303.409
-255.513
-208.171
-159.966
-118.132
-90.793
-73.276
-59.087
-49.393
-41.632
-32.806
-31.707
-41.718
-47.499
-40.387
-31.917
-30.578
-31.099
-26.833
-15.334
-0.963
5.999
6.037
10.781
16.486
8.176
-7.411
-11.899
-7.182
-0.071
16.451
37.556
43.365
34.815
28.139
22.313
12.542
9.767
19.431
32.898
44.897
51.991
49.735
45.249
46.415
45.6
40.019
41.858
51.169
55.38
56.459
61.491
63.39
59.451
59.011
60.968
58.615
58.553
65.065
70.124
73.208
78.599
79.63
75.872
80.199
90.615
92.955
91.462
95.94
97.823
93.301
95.721
104.947
107.371
107.659
116.587
124.356
123.016
124.879
135.052
142.652
146.351
152.831
158.113
157.915
157.749
159.123
159.364
163.084
171.958
178.008
179.66
182.243
183.848
182.854
184.347
185.831
181.573
179.328
185.401
190.943
192.806
197.465
199.766
193.02
187.294
188.829
188.713
185.488
184.852
182.114
175.4
174.279
177.356
173.406
165.407
160.816
154.843
146.934
143.709
138.56
124.412
113.443
111.642
105.224
91.871
83.388
77.477
68.111
62.646
60.117
49.735
38.115
35.358
31.452
22.588
22.406
27.239
19.907
6.486
1.892
1.401
-0.708
-0.273
-1.645
-8.936
-11.688
-7.706
-9.421
-15.968
-17.293
-18.315
-24.086
-25.271
-21.152
-22.798
-27.397
-25.229
-21.491
-22.863
-25.292
-28.762
-35.817
-38.995
-34.804
-32.197
-33.832
-34.517
-35.616
-37.098
-32.928
-27.355
-28.816
-31.181
-28.917
-30.257
-35.551
-35.021
-32.58
-36.426
-39.091
-35.543
-34.477
-37.484
-38.066
-37.55
-36.864
-32.187
-29.727
-35.935
-40.218
-36.341
-36.331
-42.633
-42.841
-38.105
-38.379
-39.877
-37.949
-38.619
-41.13
-38.5
-35.003
-36.597
-38.792
-39.83
-42.209
-40.845
-35.027
-35.459
-40.694
-38.035
-32.882
-36.983
-40.28
-34.341
-33.344
-41.531
-42.795
-36.392
-36.169
-39.355
-37.054
-35.049
-37.176
-36.807
-34.109
-34.29
-35.742
-37.093
-38.66
-35.882
-30.549
-32.441
-37.726
-35.225
-32.152
-37.952
-41.396
-36.343
-36.21
-41.896
-39.293
-32.653
-35.122
-39.925
-38.272
-37.935
-41.734
-41.78
-39.731
-41.888
-45.168
-47.062
-49.119
-48.003
-43.951
-43.939
-44.845
-40.039
-38.11
-44.427
-46.843
-43.577
-47.172
-52.62
-47.521
-42.493
-48.243
-51.768
-46.333
-44.296
-47.29
-46.143
-44.386
-47.298
-48.262
-45.706
-46.201
-47.951
-46.097
-43.802
-44.023
-46.848
-53.177
-57.278
-52.557
-47.71
-51.357
-53.554
-48.825
-48.939
-54.387
-51.776
-44.039
-42.974
-43.86
-41.221
-42.812
-46.889
-42.63
-37.143
-42.218
-49.032
-49.209
-49.639
-49.73
-44.268
-42.264
-46.6
-45.166
-40.917
-44.485
-44.761
-35.262
-34.716
-45.468
-46.201
-38.916
-41.445
-46.493
-42.72
-41.722
-47.794
-47.119
-39.807
-37.746
-39.798
-41.187
-43.195
-41.658
-35.098
-34.47
-41.34
-43.246
-39.821
-39.275
-38.222
-34.802
-36.408
-39.066
-33.398
-27.359
-29.564
-30.415
-24.118
-19.968
-21.593
-24.015
-26.466
-27.283
-22.058
-14.48
-9.613
-4.767
-1.987
-6.765
-10.048
-2.311
4.73
0.797
-2.706
2.46
8.338
11.933
17.338
21.838
24.423
31.011
39.166
41.18
39.776
38.77
34.717
30.512
31.297
29.003
18.491
10.596
9.096
5.518
1.968
3.584
0.925
-9.481
-15.258
-16.234
-24.202
-34.09
-34.416
-31.353
-32.36
-32.299
-30.213
-29.951
-27.582
-22.59
-22.677
-25.739
-24.397
-23.757
-27.787
-28.312
-25.462
-28.217
-32.109
-30.189
-30.594
-35.049
-31.899
-25.394
-29.377
-35.114
-28.886
-19.418
-14.16
-4.73
9.448
23.627
44.755
74.228
103.294
136.743
181.46
226.026
265.507
308.413
343.355
349.133
330.39
296.289
234.705
143.279
43.408
-55.591
-162.273
-271.315
-369.502
-467.85
-584.629
-698.724
-761.606
-759.859
-728.49
-698.515
-667.502
-623.873
-566.952
-500.657
-430.201
-364.386
-308.25
-257.129
-205.675
-157.793
-119.92
-89.925
-63.863
-45.891
-37.023
-28.273
-19.573
-22.032
-31.72
-32.068
-22.512
-14.509
-11.805
-14.831
-20.502
-14.914
4.8
18.983
20.211
23.806
31.127
27.609
15.89
10.115
12.967
23.29
40.282
53.872
57.085
56.563
54.721
46.111
35.031
30.65
33.722
44.221
61.622
74.348
73.175
66.102
61.374
56.426
53.215
57.849
65.743
71.226
78.223
84.854
82.43
75.689
75.068
77.081
77.685
83.054
91.331
93.29
92.658
97.079
101.873
103.089
104.655
105.973
105.242
107.096
111.813
115.123
119.686
125.656
125.596
124.945
136.857
151.579
151.152
145.421
151.356
159.865
159.434
159.439
165.972
170.988
173.008
176.298
178.11
178.302
181.962
186.23
187.591
192.672
202.67
207.918
207.22
207.437
207.699
207.122
211.736
217.924
214.935
208.296
209.609
212.381
208.616
207.026
211.236
211.175
206.6
206.11
207.787
207.221
206.907
204.641
196.094
186.22
178.477
169.089
160.368
156.298
150.846
141.879
137.292
135.343
126.553
114.877
109.417
106.574
99.812
89.584
77.983
69.809
69.864
71.515
66.835
61.742
60.242
54.942
47.409
45.715
42.389
31.318
26.74
32.471
29.803
17.252
13.545
17.898
17.384
16.628
19.354
15.119
7.28
9.514
14.581
10.952
7.82
10.193
8.368
5.339
8.92
8.366
-0.692
-2.589
3.404
3.231
2.412
9.773
12.732
7.165
7.617
12.169
8.303
3.618
6.769
8.695
7.423
9.924
9.639
2.177
0.365
6.737
8.31
5.042
4.031
1.019
-3.095
0.196
3.737
-1.472
-3.832
2.611
4.314
0.397
3.548
9.827
10.173
10.999
14.182
10.554
3.291
1.892
1.779
-2.123
-3.365
0.066
2.895
4.514
4.144
-1.123
-4.864
-0.58
3.603
2.003
2.001
3.157
-1.672
-4.431
2.526
6.549
1.211
0.123
6.295
7.181
2.556
1.546
2.9
2.384
2.412
4.502
7.693
11.474
12.235
7.772
3.922
3.895
2.191
-1.233
-0.414
0.738
-3.273
-4.16
2.368
4.915
0.914
0.46
0.358
-7.7
-13.716
-9.168
-4.875
-6.111
-4.845
-2.746
-5.44
-5.422
-0.022
-0.725
-8.159
-10.634
-8.757
-9.729
-10.054
-7.624
-8.7
-11.748
-9.602
-5.227
-3.658
-1.999
-0.645
-4.501
-10.428
-13.191
-15.635
-18.045
-14.417
-7.242
-5.298
-7.735
-9.222
-9.872
-7.993
-2.128
-0.741
-8.111
-14.239
-15.127
-17.07
-17.212
-11.569
-10.493
-18.746
-24.765
-23.819
-21.838
-19.357
-17.328
-21.004
-25.626
-24.056
-23.043
-26.818
-26.744
-23.072
-24.647
-26.774
-22.991
-21.767
-25.958
-26.204
-24.875
-30.401
-35.52
-33.236
-32.125
-35.872
-36.512
-32.824
-29.816
-28.255
-29.151
-32.919
-34.172
-32.736
-35.122
-36.663
-29.027
-23.183
-31.47
-41.353
-39.032
-32.808
-29.869
-25.106
-22.094
-27.775
-33.102
-29.647
-24.666
-23.03
-21.854
-22.761
-25.667
-25.23
-23.52
-23.757
-19.628
-11.4
-8.865
-9.289
-4.623
-1.543
-2.797
3.359
13.691
12.369
6.535
11.28
16.455
12.278
11.58
16.473
11.22
-1.185
-4.85
-3.049
-5.033
-8.046
-13.269
-24.261
-31.503
-31.032
-35.05
-44.286
-47.186
-47.184
-51.421
-52.414
-49.822
-53.648
-56.788
-48.917
-42.916
-46.895
-46.235
-39.169
-40.39
-45.385
-42.76
-42.959
-53.183
-59.302
-55.435
-51.839
-52.486
-55.331
-58.931
-57.465
-51.562
-52.963
-60.072
-57.532
-46.505
-38.538
-28.047
-6.744
16.298
36.491
65.867
108.881
156.708
204.636
249.53
284.525
309.483
322.87
308.302
257.102
183.267
97.261
-1.122
-103.744
-205.047
-311.379
-418.499
-520.891
-633.314
-747.378
-809.86
-799.677
-760.974
-726.432
-686.48
-638.093
-586.835
-521.766
-443.563
-375.546
-322.122
-268.745
-218.115
-177.768
-139.807
-104.814
-85.022
-75.59
-64.078
-53.97
-49.588
-47.259
-49.278
-53.44
-45.973
-31.269
-31.155
-42.994
-44.758
-34.219
-21.048
-5.373
7.711
7.806
1.381
-0.887
-4.872
-13.028
-12.962
-1.68
11.376
23.397
32.463
31.153
22.404
15.798
10.637
7.996
17.021
32.818
41.958
47.307
52.864
49.036
38.144
35.088
37.001
34.935
38.125
50.806
59.213
60.622
63.893
64.157
56.763
54.438
61.64
66.012
66.545
71.418
75.666
75.273
79.304
86.945
87.757
87.391
94.546
99.129
96
98.02
106.602
109.361
107.925
110.278
111.712
110.475
115.134
124.587
129.398
129.757
131.532
137.523
148.303
157.314
156.139
151.817
155.823
162.202
163.162
165.609
171.859
174.317
175.163
179.005
178.292
172.437
173.498
179.353
178.099
175.912
182.879
189.474
187.23
184.132
183.489
180.753
180.529
185.445
185.105
178.258
175.943
175.9
170.106
165.659
165.944
160.469
150.596
145.875
139.763
127.443
120.976
120.72
112.811
101.034
97.092
94.079
85.473
79.991
77.445
67.682
55.767
51.886
49.379
40.93
33.652
32.164
31.654
29.8
25.945
18.48
11.733
9.617
7.682
4.4
3.04
0.24
-5.13
-4.761
-0.427
-4.091
-12.03
-12.169
-9.14
-11.006
-12.638
-13.28
-19.871
-26.194
-22.213
-15.864
-16.619
-18.358
-17.287
-18.906
-21.555
-19.753
-16.632
-15.714
-16.106
-18.777
-20.949
-16
-8.745
-9.287
-13.486
-13.21
-12.354
-14.173
-13.831
-11.855
-12.685
-13.994
-15.06
-19.992
-23.451
-16.624
-6.68
-5.655
-10.301
-12.885
-14.26
-14.245
-10.025
-6.679
-9.51
-13.206
-13.761
-14.509
-12.868
-5.274
-2.378
-11.515
-19.365
-17.048
-15.013
-17.496
-17.071
-15.766
-18.119
-17.666
-13.16
-12.42
-13.786
-12.106
-12.374
-16.355
-17.861
-17.664
-18.261
-14.489
-8.414
-9.572
-13.278
-8.997
-3.519
-6.578
-11.11
-9.572
-7.112
-7.983
-10.132
-12.687
-14.727
-14.639
-14.371
-14.816
-13.838
-13.952
-18.137
-21.291
-20.137
-18.986
-17.616
-13.391
-12.866
-19.048
-21.183
-15.681
-14.045
-19.795
-24.208
-25.308
-27.336
-29.404
-29.746
-28.716
-24.748
-19.866
-20.336
-23.943
-23.408
-21.934
-24.91
-26.21
-22.346
-21.616
-25.203
-24.398
-20.984
-22.314
-24.09
-22.795
-24.53
-27.05
-23.346
-21.778
-29.516
-34.08
-28.33
-23.214
-22.619
-20.711
-20.61
-25.451
-28.031
-26.954
-28.819
-31.906
-31.148
-29.647
-29.771
-28.524
-25.837
-23.219
-20.778
-21.53
-25.309
-24.597
-20.401
-23.502
-30.975
-30.09
-25.043
-26.732
-28.962
-25.402
-24.423
-26.722
-23.562
-20.903
-27.146
-31.577
-26.892
-24.132
-27.479
-29.134
-29.739
-32.897
-33.355
-29.836
-28.15
-27.608
-25.399
-25.181
-27.154
-26.343
-23.869
-22.292
-18.642
-15.268
-18.864
-24.137
-22.411
-18.853
-17.695
-11.664
-3.21
-4.349
-10.281
-8.498
-3.657
-3.159
-2.278
-0.316
-0.567
3.019
11.189
13.742
13.44
19.875
24.269
19.383
19.705
30.3
35.142
32.066
33.177
34.643
29.672
28.691
34.578
34.249
28.002
25.622
22.014
12.79
7
4.59
-2.094
-7.256
-7.275
-13.333
-25.795
-32.014
-32.836
-35.003
-33.621
-28.509
-28.973
-32.69
-31.131
-27.577
-25.618
-21.68
-19.043
-22.261
-24.616
-23.811
-27.812
-33.97
-33.387
-31.713
-34.944
-34.778
-30.534
-33.661
-41.568
-42.665
-39.594
-36.639
-27.733
-15.653
-9.126
0.39
22.964
49.259
74.67
110.155
153.339
191.188
228.863
274.222
312.679
329.251
326.472
304.978
257.409
182.504
85.988
-20.916
-123.739
-221.183
-321.907
-423.797
-528.177
-646.168
-751.744
-788.728
-758.289
-719.383
-692.994
-655.464
-605.531
-552.482
-482.711
-400.704
-339.552
-299.217
-248.532
-189.81
-148.258
-120.218
-91.735
-69.449
-56.341
-42.976
-32.336
-31.017
-31.618
-31.169
-33.566
-30.325
-18.876
-17.31
-27.417
-26.208
-10.515
1.983
9.939
19.169
22.469
19.253
18.163
14.164
2.324
-1.974
11.257
29.305
40.758
45.367
42.04
32.409
23.271
16.065
12.273
20.353
39.185
54.613
60.725
60.625
53.827
45.25
45.321
49.732
49.443
53.07
65.884
73.636
72.375
73.281
72.928
64.978
63.017
73.707
83.018
86.34
90.03
90.357
86.221
86.966
91.673
94.055
99.1
105.719
102.852
97.277
103.751
113.664
114.84
116.331
122.764
123.754
122.064
128.691
136.58
137.55
141.059
149.652
151.563
148.85
153.88
162.647
165.736
167.63
172.086
174.112
175.035
179.57
183.827
185.007
186.363
186.349
183.754
185.317
190.706
190.546
186.653
186.655
185.613
180.432
181.306
188.534
188.935
183.285
183.273
186.912
186.826
185.909
185.15
179.069
169.693
163.236
159.117
155.314
150.414
140.982
130.825
127.494
124.804
114.895
107.155
106.222
98.051
80.705
69.989
65.586
55.845
47.401
48.43
47.654
39.978
35.922
34.273
26.803
20.744
20.984
16.918
7.666
4.254
5.394
4.565
4.2
2.611
-4.248
-7.348
-1.96
-0.765
-6.784
-8.273
-7.535
-13.588
-17.836
-13.481
-11.867
-16.848
-18.304
-16.377
-17.958
-18.855
-14.567
-10.772
-11.615
-15.87
-22.252
-25.845
-21.887
-16.394
-16.835
-19.617
-20.195
-19.433
-15.455
-9.162
-9.132
-14.031
-12.998
-10.344
-16.156
-20.541
-14.341
-11.126
-17.356
-18.324
-11.484
-9.816
-11.979
-10.065
-9.677
-13.493
-14.517
-15.645
-22.174
-25.024
-19.855
-17.12
-18.268
-15.15
-11.094
-12.078
-13.458
-13.439
-14.757
-12.864
-7.332
-7.787
-12.959
-12.971
-12.238
-17.128
-18.223
-12.58
-12.427
-16.946
-14.419
-10.166
-13.663
-16.643
-13.567
-12.776
-13.749
-9.808
-8.706
-16.538
-21.502
-17.699
-15.138
-16.13
-14.222
-12.469
-14.931
-15.22
-11.194
-9.471
-10.699
-12.004
-15.699
-20.552
-22.051
-23.849
-28.816
-30.78
-29.336
-29.749
-27.839
-21.822
-22.319
-29.067
-28.579
-22.939
-23.131
-23.409
-17.956
-17.479
-24.463
-27.18
-25.845
-27.781
-27.076
-20.086
-17.721
-23.467
-27.957
-29.086
-30.538
-29.856
-27.085
-27.605
-29.932
-30.342
-31.94
-33.601
-29.314
-24.481
-27.328
-30.989
-28.842
-28.505
-33.017
-34.222
-30.849
-27.891
-24.806
-21.893
-22.81
-25.793
-29.233
-36.251
-42.512
-41.058
-38.876
-41.755
-38.691
-27.544
-25.309
-33.514
-34.192
-26.715
-24.637
-25.954
-25.772
-31.891
-41
-37.948
-27.305
-23.787
-22.834
-16.919
-14.231
-17.937
-18.925
-15.197
-11.732
-10.007
-11.292
-14.347
-12.8
-8.451
-9.338
-10.766
-4.425
2.826
4.281
5.748
7.588
4.455
3.009
9.233
13.78
12.459
13.039
14.148
11.392
13.638
21.98
20.668
9.361
4.808
6.912
4.884
1.992
0.731
-6.815
-17.39
-20.845
-21.488
-25.449
-28.77
-32.222
-37.826
-37.554
-31.65
-31.835
-35.233
-32.45
-30.927
-34.329
-30.887
-24.372
-30.448
-41.159
-40.704
-36.144
-36.113
-34.614
-33.186
-39.038
-44.022
-39.736
-35.444
-39.156
-45.381
-49.102
-49.376
-44.009
-35.192
-26.894
-13.689
8.731
31.158
50.088
78.129
116.114
146.888
170.213
205.89
257.752
307.395
334.739
326.963
287.08
230.82
158.325
59.674
-48.571
-144.311
-238.922
-342.873
-440.134
-532.583
-635.414
-718.633
-739.297
-714.605
-686.971
-659.77
-623.275
-585.15
-540.331
-469.677
-384.506
-322.198
-292.714
-266.747
-219.221
-160.258
-115.656
-91.012
-73.219
-59.114
-53.749
-48.534
-35.489
-27.116
-29.646
-26.84
-15.593
-14.606
-24.731
-28.075
-22.749
-16.252
-4.84
10.607
18.878
20.11
20.454
14.752
3.624
1.56
9.066
12.901
17.362
34.024
51.192
52.128
42.461
33.056
24.995
22.553
30.249
41.301
50.52
59.205
61.114
52.789
47.813
53.268
57.154
55.766
58.872
66.243
72.253
78.79
82.25
76.115
70.376
75.403
81.113
79.747
80.226
85.267
88.695
92.699
98.396
98.803
97.019
101.553
106.195
105.317
108.198
115.547
116.022
113.738
120.155
128.096
128.673
129.772
134.828
136.37
137.266
144.387
151.541
155.082
161.844
168.706
167.216
165.245
170.857
173.753
169.442
171.367
183.475
194.309
200.023
204.458
206.771
206.736
206.549
204.961
203.541
206.676
209.46
206.219
204.097
206.63
204.716
198.869
199.251
201.159
195.165
188.944
189.239
187.51
180.929
176.59
173.262
166.453
159.563
154.163
147.318
139.323
129.556
116.782
107.403
104.783
99.513
87.309
76.745
70.052
61.548
53.492
49.712
45.773
40.765
38.743
35.576
26.8
19.246
17.293
15.674
13.095
10.973
4.043
-6.983
-9.888
-3.247
-0.396
-4.679
-7.605
-8.751
-12.39
-15.205
-14.954
-15.205
-15.919
-16.161
-18.408
-19.52
-15.945
-15.895
-22.893
-24.733
-18.903
-18.363
-23.405
-25.004
-28.044
-35.223
-32.729
-19.523
-14.555
-20.883
-22.71
-17.465
-14.971
-16.048
-16.851
-18.395
-20.993
-23.737
-26.998
-27.418
-22.061
-16.596
-15.039
-12.335
-8.135
-8.79
-11.961
-11.351
-10.625
-13.166
-13.488
-11.684
-15.399
-22.846
-24.96
-21.216
-17.016
-14.49
-14.475
-16.293
-16.179
-14.926
-16.723
-18.164
-15.919
-16.907
-21.869
-20.152
-13.845
-14.795
-17.697
-13.2
-10.675
-15.049
-14.085
-8.773
-13.183
-21.789
-21.034
-17.674
-20.266
-21.689
-20.033
-22.14
-24.053
-19.525
-15.249
-15.764
-14.957
-12.026
-12.137
-12.937
-10.482
-9.882
-16.353
-25.24
-27.989
-23.158
-18.759
-20.806
-23.165
-20.208
-19.566
-24.884
-25.529
-20.371
-21.738
-27.086
-24.569
-21.091
-25.358
-25.677
-17.863
-17.54
-24.645
-22.562
-15.497
-18.787
-25.881
-25.09
-22.626
-24.185
-26.032
-29.802
-36.371
-37.744
-33.779
-32.326
-31.119
-27.241
-28.643
-34.784
-34.154
-28.398
-26.512
-25.115
-21.925
-23.85
-27.401
-24.248
-22.406
-28.742
-31.937
-27.694
-26.934
-29.101
-25.83
-23.474
-28.084
-31.096
-30.392
-32.657
-32.904
-26.142
-22.903
-26.655
-25.925
-20.417
-19.233
-19.032
-15.699
-16.557
-21.438
-22.061
-21.89
-24.834
-21.942
-14.222
-15.199
-20.469
-16.363
-10.047
-11.06
-9.793
-2.391
1.344
3.093
8.89
10.883
8.037
13.245
23.877
25.017
19.18
16.727
15.808
15.105
19.183
24.78
26.305
24.888
19.338
9.688
6.148
10.055
5.946
-8.669
-18.612
-22.482
-29.858
-35.798
-34.222
-34.506
-40.366
-42.785
-40.923
-39.296
-34.819
-28.386
-26.754
-27.719
-28.324
-33.929
-41.925
-44.043
-45.431
-50.079
-47.561
-39.03
-39.107
-43.268
-38.643
-34.438
-38.738
-38.319
-32.166
-37.003
-47.774
-45.984
-36.615
-29.087
-13.764
9.979
28.753
48.163
81.404
119.576
154.02
194.166
240.373
280.76
313.111
331.464
317.728
273.191
215.317
139.802
38.183
-68.776
-165.122
-263.755
-366.125
-459.399
-555.726
-663.075
-742.49
-760.723
-740.45
-713.416
-680.807
-639.779
-593.266
-534.165
-460.195
-388.495
-333.501
-290.228
-245.883
-195.063
-146.273
-113.033
-94.386
-78.293
-62.738
-51.218
-40.042
-31.697
-35.536
-43.029
-37.605
-26.954
-27.778
-35.367
-38.821
-37.884
-29.592
-12.081
2.112
6.071
9.336
11.94
3.671
-8.962
-11.983
-6.07
5.906
24.759
39.415
39.415
33.936
30.581
22.242
11.649
12.218
22.156
31.562
40.738
48.226
47.514
43.457
43.199
41.895
39.744
46.062
56.565
60.381
62.424
68.195
70.223
68.767
71.368
71.101
62.967
61.864
71.869
75.348
70.901
73.773
80.003
78.88
79.461
87.562
92.491
93.234
97.728
102.657
105.565
112.21
118.646
118.136
116.999
117.925
115.757
117.626
128.689
133.973
130.571
138.016
154.261
157.304
151.753
155.121
159.779
156.245
154.64
157.446
158.096
164.21
178.485
183.845
177.162
174.924
177.717
175.607
173.903
175.967
173.03
169.794
177.748
186.442
183.396
179.159
181.189
180.192
176.48
178.216
178.519
169.344
158.067
150.722
144.893
140.442
136.4
129.795
123.636
118.981
111.156
104.154
102.403
94.451
76.894
68.031
70.833
66.146
55.001
54.127
55.945
45.85
35.086
34.703
33.8
27.162
22.393
17.33
8.873
6.771
11.648
10.526
3.931
1.393
-0.892
-6.495
-7.047
-2.602
-2.557
-5.42
-6.044
-7.223
-7.915
-5.815
-9.198
-19.493
-23.007
-17.913
-16.649
-19.209
-18.818
-19.695
-22.938
-21.527
-18.971
-21.332
-20.735
-14.574
-14.469
-19.617
-17.238
-10.924
-12.162
-16.601
-16.897
-15.834
-12.803
-5.426
-2.507
-9.076
-14.715
-14.112
-13.315
-11.594
-6.412
-6.343
-13.746
-16.286
-10.86
-7.483
-7.558
-6.846
-8.85
-13.705
-14.028
-10.726
-10.069
-10.4
-9.841
-11.157
-12.044
-10.177
-10.474
-12.204
-8.838
-4.543
-5.282
-4.928
-2.508
-6.85
-12.506
-7.103
0.931
-0.938
-4.488
-2.215
-2.306
-6.161
-6.474
-6.617
-10.199
-8.88
-2.839
-4.325
-11.916
-13.691
-10.189
-7.524
-5.75
-7.007
-11.478
-10.496
-4.283
-4.148
-7.414
-3.788
-1.058
-8.074
-12.741
-7.279
-3.78
-7.163
-9.056
-9.214
-10.108
-7.093
-4.535
-11.251
-18.129
-15.367
-13.278
-17.674
-18.766
-16.748
-19.152
-21.092
-19.995
-22.806
-24.264
-16.66
-12.585
-19.036
-20.054
-12.864
-13.654
-19.281
-16.529
-14.386
-20.636
-21.56
-14.505
-14.264
-19.965
-21.259
-22.445
-26.157
-23.937
-18.878
-21.059
-25.156
-23.873
-22.051
-20.514
-15.991
-14.956
-19.808
-21.384
-19.996
-22.179
-21.187
-13.974
-13.33
-19.898
-20.469
-18.564
-23.648
-26.406
-20.923
-18.718
-21.802
-21.296
-20.086
-22.327
-21.878
-20.487
-25.688
-30.942
-28.919
-26.677
-26.974
-23.583
-20.55
-24.347
-27.225
-24.454
-24.08
-24.879
-17.813
-10.019
-12.109
-15.557
-11.906
-8.543
-8.633
-6.641
-5.251
-8.96
-12.672
-12.994
-11.854
-7.911
-2.635
-1.674
-0.483
8.408
17.617
20.1
23.516
29.794
30.923
30.543
34.127
31.793
22.524
22.951
33.129
35.883
30.143
24.559
16.915
7.573
2.917
-1.833
-11.246
-16.15
-15.815
-21.956
-31.239
-32.384
-31.401
-35.012
-34.574
-28.299
-25.736
-26.924
-27.788
-30.616
-30.9
-22.768
-17.91
-25.953
-33.9
-32.784
-32.432
-35.059
-33.623
-33.606
-39.147
-38.927
-33.045
-36.958
-46.421
-44.148
-36.848
-39.464
-42.544
-34.321
-23.733
-15.485
0.647
25.746
52.5
83.958
123.96
166.136
207.769
252.464
296.056
329.415
348.129
347.377
320.863
268.806
194.507
100.571
-3.471
-107.06
-211.082
-315.662
-415.396
-520.224
-638.155
-734.807
-767.743
-747.837
-713.444
-677.79
-639.334
-598.183
-546.056
-478.701
-409.112
-346.663
-289.116
-237.96
-193.933
-151.277
-112.614
-85.235
-64.589
-46.987
-38.773
-36.657
-31.849
-31.97
-41.332
-41.998
-27.511
-17.85
-21.83
-26.772
-25.69
-19.243
-6.759
5.235
9.543
11.854
14.711
8.795
-3.36
-5.848
3.535
15.204
27.072
37.248
37.485
28.963
22.108
19.225
18.337
23.558
34.65
43.5
49.166
55.879
58.676
52.383
44.363
42.275
44.939
51.288
60.565
67.549
70.313
71.161
68.653
64.041
64.524
68.641
68.812
68.193
71.235
72.822
74.91
84.538
91.717
86.957
84.455
91.734
92.875
86.489
89.817
99.784
102.341
103.291
108.291
108.814
109.053
119.727
128.804
124.214
119.657
124.363
127.825
128.957
136.492
145.457
148.436
150.228
152.605
151.564
150.979
155.043
159.904
165.434
173.796
177.765
173.063
168.597
169.006
169.252
170.047
173.759
174.039
169.756
169.77
173.835
173.871
172.045
173.396
173.613
171.15
171.289
172.514
170.298
167.37
163.722
155.165
148.32
150.459
150.616
138.865
125.376
118.21
111.671
106.385
106.295
102.455
91.272
85.087
84.401
76.435
64.916
59.952
53.151
38.951
30.37
30.616
27.419
20.764
18.927
18.499
15.732
14.776
12.991
4.978
-2.884
-4.255
-3.721
-4.854
-7.327
-12.887
-17.355
-12.387
-3.114
-0.91
-3.066
-3.244
-5.33
-9.517
-9.51
-8.573
-11.77
-12.779
-9.433
-8.651
-8.004
-2.745
-1.483
-6.969
-7.641
-4.342
-8.022
-12.415
-8.618
-7.08
-13.399
-15.916
-13.092
-14.071
-15.693
-12.919
-11.353
-10.683
-6.466
-6.173
-13.19
-16.51
-14.585
-15.607
-15.771
-11.91
-13.635
-19.816
-18.944
-16.16
-20.65
-23.335
-18.829
-18.389
-23.826
-23.812
-17.622
-12.879
-10.525
-9.913
-12.004
-13.306
-12.26
-13.408
-16.169
-15.898
-15.267
-16.498
-14.249
-9.941
-12.035
-17.454
-17.798
-16.35
-16.255
-11.931
-6.658
-10.091
-16.57
-16.372
-15.529
-18.81
-18.342
-14.325
-15.582
-18.861
-17.618
-17.418
-21.271
-23.075
-22.271
-21.086
-17.652
-16.83
-24.08
-29.183
-23.856
-18.049
-17.684
-16.257
-15.361
-19.596
-20.707
-15.215
-14.196
-19.022
-19.39
-17.392
-20.434
-22.339
-18.847
-18.767
-23.374
-23.589
-20.218
-19.39
-18.848
-18.018
-20.909
-23.538
-22.18
-23.468
-27.444
-24.987
-19.587
-20.571
-22.416
-19.785
-20.349
-23.56
-19.966
-15.646
-21.167
-28.672
-29.771
-29.813
-28.834
-22.601
-20.132
-27.133
-31.043
-25.485
-20.201
-19.428
-20.317
-23.849
-27.306
-26.49
-27.374
-31.932
-30.809
-26.78
-31.487
-37.535
-33.487
-28.968
-31.408
-31.292
-28.409
-32.035
-37.061
-36.65
-37.523
-39.169
-32.63
-25.464
-28.892
-33.522
-31.274
-31.581
-35.468
-32.762
-27.705
-28.629
-28.61
-25.15
-27.526
-32.48
-30.528
-29.045
-34.646
-36.489
-30.058
-25.369
-24.65
-22.849
-21.714
-21.594
-17.838
-12.832
-11.141
-10.583
-12.172
-18.599
-20.899
-13.008
-7.025
-9.363
-7.874
0.216
2.651
0.692
6.502
16.881
21.1
21.026
22.009
22.575
22.993
25.377
26.2
22.444
16.452
9.153
1.037
-3.83
-6.027
-11.406
-18.704
-22.475
-23.677
-23.577
-21.612
-23.667
-31.482
-33.804
-28.19
-26.842
-30.19
-29.31
-29.094
-33.961
-33.71
-28.016
-28.307
-30.35
-26.659
-28.336
-38.499
-41.21
-36.916
-40.166
-44.371
-38.683
-35.383
-41.004
-41.095
-34.031
-32.817
-34.498
-29.435
-22.286
-16.507
-5.059
13.231
33.349
56.784
88.099
127.556
172.125
216.653
257.592
296.196
329.685
345.738
334.927
297.599
234.225
146.493
47.506
-50.611
-151.857
-258.434
-359.89
-460.278
-576.401
-689.983
-753.353
-755.327
-729.213
-699.479
-667.387
-630.162
-581.149
-515.289
-442.952
-375.393
-311.567
-253.715
-207.594
-167.13
-127.264
-96.565
-78.531
-65.865
-56.843
-51.949
-46.583
-43.776
-49.958
-55.048
-46.443
-33.517
-31.046
-35.338
-35.084
-26.722
-12.589
0.662
6.796
9.75
14.593
14.181
4.311
-3.636
-1.868
5.502
18.277
35.793
45.495
41.436
33.826
27.539
20.037
17.73
25.687
36.724
46.752
55.886
56.909
49.918
48.742
54.536
55.501
54.516
59.722
63.758
63.275
67.696
72.995
67.442
60.214
64.196
71.194
73.942
79.165
85.541
85.673
84.625
86.757
86.301
86.187
94.034
101.837
101.701
102.275
106.863
107.124
106.093
112.265
119.94
123.393
127.019
128.442
123.064
120.492
126.504
130.977
133.389
144.406
157.365
159.129
157.201
160.513
160.784
155.667
155.431
160.707
164.947
168.406
170.407
168.496
168.67
174.775
179.247
178.558
177.275
175.623
174.385
178.747
183.695
180.189
174.932
175.817
175.37
170.962
171.012
173.244
171.124
171.173
175.194
171.939
161.853
155.588
150.215
140.469
134.239
132.255
123.794
111.826
106.409
101.949
93.319
88.847
85.749
70.776
52.493
49.544
54.724
51.186
42.42
35.437
26.324
18.317
19.12
22.319
20.553
17.583
12.073
0.333
-7.635
-5.784
-4.327
-5.518
-2.511
-1.718
-7.456
-6.566
2.054
2.659
-1.935
1.661
5.579
-0.026
-5.761
-7.098
-10.096
-10.265
-4.209
-3.959
-12.448
-16.488
-14.445
-15.651
-18.1
-15.477
-10.507
-6.566
-4.547
-6.889
-10.712
-10.224
-9.237
-12.158
-12.54
-8.476
-8.075
-10.502
-9.41
-10.303
-16.285
-16.048
-7.398
-2.955
-3.944
-2.034
-1.141
-6.55
-10.023
-7.707
-7.994
-11.629
-11.65
-10.914
-14.117
-15.311
-12.017
-11.022
-12.252
-10.635
-9.497
-12.241
-15.308
-18.06
-20.184
-15.549
-5.782
-1.301
-2.015
-1.636
-3.178
-6.952
-4.525
1.043
-1.575
-8.106
-8.692
-7.734
-9.565
-9.259
-8.413
-10.766
-9.078
-2.362
-2.789
-10.293
-12.805
-11.075
-11.72
-11.642
-10.158
-11.321
-10.64
-5.505
-4.536
-8.268
-7.463
-5.086
-8.194
-9.115
-3.251
-1.911
-8.945
-14.103
-13.731
-10.977
-5.671
-1.688
-5.134
-11.336
-13.456
-13.503
-12.365
-9.196
-10.149
-15.755
-15.584
-10.858
-13.006
-17.075
-12.702
-8.209
-10.359
-9.105
-4.058
-6.318
-11.031
-9.903
-12.345
-19.907
-17.333
-8.264
-11.784
-23.24
-25.516
-21.422
-19.184
-15.458
-10.895
-11.297
-14.301
-17.377
-22.048
-22.918
-17.274
-15.665
-20.93
-21.864
-18.458
-19.372
-19.273
-12.581
-9.278
-12.677
-13.183
-12.629
-18.644
-23.177
-18.904
-15.355
-17.52
-17.676
-15.556
-17.104
-19.304
-18.573
-17.958
-16.338
-12.165
-12.508
-17.801
-17.624
-13.562
-15.278
-17.103
-13.231
-14.624
-22.167
-21.236
-15.927
-20.693
-26.584
-22.696
-20.896
-25.039
-21.444
-13.719
-16.483
-22.457
-18.824
-11.413
-6.753
-2.719
-2.273
-6.657
-7.628
-4.5
-5.128
-7.46
-5.446
-1.732
2.474
9.022
12.341
11.299
16.969
29.125
33.121
29.04
28.935
30.544
27.78
27.978
33.064
31.997
23.438
16.095
10.564
3.97
-2.167
-8.128
-13.015
-13.147
-14.129
-23.087
-30.283
-26.007
-20.407
-21.737
-22.318
-21.216
-26.151
-31.27
-28.181
-25.808
-30.484
-32.678
-30.778
-33.846
-37.859
-34.244
-30.891
-36.025
-42.366
-44.001
-44.449
-45.409
-46.995
-48.987
-45.517
-37.097
-36.693
-43.913
-40.832
-25.977
-13.629
-1.402
20.007
44.18
69.667
108.009
154.134
193.357
232.537
278.937
314.67
326.864
322.12
297.507
243.341
166.084
74.6
-28.542
-132.58
-230.565
-330.775
-435.764
-543.39
-656.725
-752.765
-787.442
-764.463
-732.739
-707.258
-667.145
-613.391
-558.547
-495.016
-421.716
-356.296
-301.458
-246.87
-197.538
-160.245
-126.58
-93.794
-70.971
-58.731
-50.668
-46.141
-46.094
-50.426
-57.632
-57.779
-45.049
-34.416
-36.759
-36.373
-22.579
-10.219
-7.163
-1.732
9.048
15.92
15.615
7.539
-6.988
-13.213
-0.024
18.936
29.324
36.918
43.834
40.293
29.419
22.61
17.614
12.594
18.099
34.426
48.514
56.324
58.703
51.767
41.844
40.875
43.776
42.361
45.116
56.137
63.665
63.77
63.175
61.489
58.711
62.764
71.657
74.261
72.22
72.992
72.827
70.426
74.151
82.069
84.017
82.971
85.804
87.728
87.54
92.635
100.007
102.397
105.722
113.561
117.246
116.783
119.905
122.903
123.097
128.995
138.771
142.679
146.051
153.387
153.144
146.257
148.681
156.406
156.394
158.004
168.952
174.814
172.479
176.422
182.844
178.721
173.76
178.495
181.186
176.669
176.843
181.231
179.194
173.871
171.639
169.425
168.007
170.969
173.118
171.265
169.621
167.093
161.86
159.489
158.888
152.792
145.919
143.64
136.216
120.915
111.906
111.915
108.767
101.427
96.03
88.756
77.759
70.385
66.3
58.498
49.879
45.777
41.559
33.859
26.879
22.071
19.308
20.995
21.896
13.888
4.229
2.941
1.77
-6.988
-12.996
-10.971
-11.317
-16.578
-18.015
-15.098
-13.717
-14.204
-15.183
-16.462
-15.134
-10.654
-8.792
-12.83
-18.899
-22.34
-21.83
-19.499
-19.628
-22.252
-21.976
-19.17
-20.857
-25.031
-22.223
-14.938
-13.429
-16.25
-16.913
-17.475
-19.075
-18.01
-16.794
-18.453
-18.038
-15.463
-16.956
-19.181
-16.482
-14.546
-16.362
-15.387
-11.944
-11.494
-11.49
-10.121
-11.514
-13.43
-11.777
-12.237
-17.037
-17.859
-14.688
-15.529
-16.543
-11.998
-10.436
-14.727
-13.342
-6.48
-4.887
-5.648
-4.309
-8.213
-14.718
-13.365
-11.29
-16.251
-16.984
-11.166
-12.081
-16.327
-12.053
-7.222
-9.323
-8.468
-3.759
-5.29
-9.027
-8.176
-9.435
-12.785
-9.767
-7.15
-13.401
-17.591
-14.093
-14.466
-17.695
-12.669
-7.512
-12.195
-14.825
-9.994
-11.525
-18.461
-16.124
-9.92
-11.921
-14.045
-9.8
-8.4
-9.901
-5.905
-2.065
-5.31
-8.476
-8.445
-11.167
-15.185
-16.098
-16.476
-16.989
-15.53
-15.215
-17.462
-17.535
-14.367
-11.166
-8.872
-9.076
-13.136
-15.799
-13.128
-10.563
-11.445
-11.64
-11.625
-14.659
-15.524
-11.343
-10.667
-15.749
-18.475
-20.243
-26.77
-30.299
-25.716
-23.474
-26.939
-27.794
-27.397
-29.665
-27.337
-21.02
-22.649
-28.845
-27.202
-22.806
-23.996
-23.616
-19.1
-19.268
-22.076
-19.695
-17.204
-18.798
-18.817
-19.169
-24.43
-25.92
-19.779
-17.08
-18.916
-16.711
-16.16
-23.092
-25.475
-19.662
-19.314
-23.455
-19.382
-13.309
-15.572
-17.53
-14.55
-15.771
-17.956
-12.319
-9.151
-16.014
-19.338
-14.926
-14.753
-15.003
-4.64
5.496
3.535
-0.714
0.548
2.013
3.516
6.944
6.742
2.555
-0.21
-2.007
-0.832
8.324
16.862
16.44
19.011
30.55
35.516
31.338
33.661
40.257
38.657
36.166
39.234
35.267
23.661
20.492
23.438
18.687
10.462
5.844
-0.841
-8.887
-12.095
-15.804
-23.157
-26.447
-25.996
-26.77
-23.598
-17.118
-17.982
-21.93
-17.71
-13.046
-16.043
-16.881
-13.976
-18.845
-26.393
-23.79
-18.193
-18.688
-18.68
-18.577
-26.776
-35.082
-33.432
-31.732
-36.17
-37.338
-34.801
-33.585
-26.127
-11.484
-1.271
9.13
30.359
51.121
67.174
99.312
147.246
186.2
220.419
268.581
313.712
332.404
330.337
308.711
255.196
176.752
87.22
-13.854
-119.641
-218.129
-316.076
-421.459
-530.977
-645.087
-745.879
-787.978
-765.032
-727.772
-702.319
-667.824
-618.28
-564.33
-497.475
-417.874
-351.303
-302.392
-250.821
-197.964
-157.215
-121.029
-84.585
-61.965
-53.959
-45.161
-34.311
-29.455
-29.821
-33.555
-38.165
-34.642
-25.56
-27.15
-37.221
-35.505
-19.452
-3.393
7.663
14.705
15.464
12.73
9.527
1.077
-9.054
-6.455
8.362
20.825
27.991
33.418
31.217
20.909
14.195
12.959
10.509
13.091
27.625
42.801
48.764
50.548
49.419
41.898
34.811
34.612
37.748
44.086
54.712
60.684
58.513
58.135
61.439
60.912
59.543
63.649
68.846
72.491
77.88
80.854
77.826
77.688
84.147
88.322
89.726
93.666
92.711
84.543
85.494
97.852
102.569
98.668
100.89
104.55
102.181
107.14
122.364
130.085
129.749
135.186
142.469
145.465
152.262
159.468
155.403
150.72
158.357
164.911
160.242
158.496
167.754
177.91
182.533
183.021
180.928
180.203
182.601
183.531
182.702
184.246
185.468
183.307
181.673
180.539
177.084
176.886
181.1
179.21
173.074
176.016
180.85
171.7
159.079
158.691
160.297
153.461
146.256
139.791
127.606
117.448
115.042
109.372
98.051
91.21
86.901
79.536
74.998
71.945
61.084
49.317
47.161
45.984
38.507
33.252
32.063
26.743
17.727
9.303
1.827
-0.257
3.23
1.333
-4.999
-3.115
0.354
-7.152
-12.647
-5.218
-0.96
-6.434
-6.545
-2.031
-5.768
-11.181
-9.49
-10.252
-16.308
-17.073
-14.619
-17.148
-18.367
-14.146
-13.535
-17.198
-16.654
-13.816
-13.366
-11.835
-10.483
-14.328
-18.078
-17.459
-18.712
-21.037
-17.388
-14.6
-20.571
-24.555
-18.454
-12.993
-14.598
-15.951
-14.829
-15.072
-15.482
-15.587
-17.027
-15.302
-9.137
-7.074
-9.309
-6.816
-3.401
-7.437
-11.032
-7.066
-3.954
-5.16
-5.51
-8.339
-14.883
-14.707
-8.399
-7.885
-9.447
-4.251
-1.769
-8.367
-11.328
-6.312
-4.33
-6.376
-6.517
-8.055
-10.525
-6.069
-0.056
-3.319
-9.121
-8.636
-9.03
-13.104
-11.71
-6.912
-8.33
-11.174
-8.336
-5.739
-6.301
-5.214
-4.563
-7.045
-7.864
-8.223
-13.28
-17.464
-16.828
-18.426
-21.488
-18.66
-15.532
-17.455
-16.163
-12.176
-15.99
-21.387
-18.449
-17.439
-23.254
-21.602
-13.014
-13.02
-17.155
-14.274
-13.086
-17.926
-17.436
-14.136
-18.827
-23.401
-19.867
-17.957
-19.959
-17.233
-13.864
-16.045
-15.535
-10.071
-10.279
-15.942
-17.675
-17.034
-19.194
-21.508
-22.996
-26.051
-28.61
-29.275
-29.774
-28.086
-24.071
-23.921
-27.128
-26.565
-24.114
-24.812
-24.308
-21.049
-22.363
-27.022
-26.4
-23.971
-26.704
-27.708
-22.616
-21.505
-26.347
-26.948
-24.718
-26.536
-26.195
-21.575
-22.963
-27.719
-24.371
-19.631
-23.617
-28.797
-29.805
-32.037
-33.657
-31.092
-29.443
-27.88
-21.908
-19.93
-26.381
-28.156
-21.285
-17.474
-17.097
-13.965
-14.562
-19.974
-17.612
-8.622
-5.098
-2.672
4.615
5.109
-3.011
-3.096
4.78
5.099
0.867
3.93
10.153
13.734
18.104
22.302
24.102
27.886
32.078
30.616
28.611
31.737
33.646
31.273
28.952
24.308
15.859
11.432
9.784
0.664
-10.587
-12.808
-13.968
-22.41
-27.298
-24.263
-25.959
-33.247
-34.665
-32.789
-35.411
-37.462
-36.656
-38.622
-38.795
-32.682
-31.945
-40.238
-42.249
-34.634
-29.927
-29.996
-31.15
-36.707
-41.952
-38.318
-34.78
-40.398
-44.077
-39.285
-36.725
-39.994
-42.486
-42.349
-36.619
-21.75
-5.928
5.965
24.376
50.757
74.549
101.474
142.49
186.511
223.503
263.933
307.044
330.547
323.567
291.498
235.1
155.207
62.271
-35.121
-135.58
-237.575
-338.883
-440.69
-548.644
-663.332
-760.086
-799.252
-777.73
-738.277
-708.407
-674.122
-623.56
-562.829
-490.648
-409.821
-344.537
-302.233
-256.206
-197.06
-149.188
-120.663
-94.78
-71.028
-60.113
-53.438
-41.385
-34.763
-39.133
-42.11
-38.237
-32.953
-27.976
-26.92
-33.135
-34.006
-18.817
-0.752
8.534
16.545
23.838
20.695
11.554
4.953
-2.182
-4.617
10.111
31.045
38.159
37.443
40.395
37.77
26.046
19.899
23.311
29.719
42.53
59.635
64.952
56.768
48.587
42.59
36.989
39.297
48.818
55.883
61.73
68.924
68.83
61.398
59.234
63.397
65.44
66.739
70.98
74.778
78.394
84.393
88.193
88.524
91.089
93.382
90.716
90.662
96.285
98.107
98.092
105.566
112.331
111.771
117.518
131.325
135.902
132.527
135.248
139.217
138.439
142.876
152.816
157.191
158.346
162.345
164.461
165.19
170.497
174.919
173.335
173.422
177.979
181.191
184.571
188.564
184.548
177.018
181.232
190.605
189.243
186.389
194.08
199.892
196.765
196.378
197.318
189.378
181.849
183.507
182.933
176.702
175.67
176.644
170.43
163.861
161.691
155.895
147.607
144.177
139.089
127.263
119.135
117.566
112.358
103.945
98.564
90.81
78.797
71.617
67.86
58.771
48.786
43.476
37.272
30.467
28.701
26.357
19.274
14.964
13.157
7.723
5.555
9.347
5.19
-6.773
-8.981
-2.88
-3.26
-6.931
-6.513
-8.274
-12.568
-12.084
-11.922
-17.466
-20.246
-18.537
-20.54
-22.643
-19.424
-19.831
-25.79
-25.982
-22.675
-25.822
-28.106
-22.525
-20.09
-24.729
-25.965
-24.697
-28.401
-30.348
-25.631
-23.966
-27.242
-26.694
-25.19
-28.781
-29.904
-25.804
-26.267
-29.835
-27.199
-24.143
-27.105
-26.647
-19.945
-17.805
-20.021
-18.215
-16.172
-19.288
-22.536
-23.276
-23.145
-19.369
-13.463
-12.972
-15.736
-15.247
-16.187
-21.306
-21.931
-18.253
-20.465
-25.475
-24.421
-22.49
-23.45
-19.643
-14.15
-17.956
-23.81
-20.023
-15.245
-18.375
-20.934
-18.079
-16.309
-16.971
-17.381
-18.142
-17.016
-13.123
-13.468
-18.612
-19.87
-18.322
-20.247
-20.407
-15.633
-13.999
-15.361
-13.257
-13.204
-18.048
-17.769
-14.505
-19.978
-26.52
-23.401
-21.625
-26.752
-24.897
-15.251
-11.918
-14.413
-15.724
-20.024
-26.43
-25.496
-20.02
-18.241
-16.814
-14.782
-19.491
-26.228
-23.552
-16.961
-17.75
-22.89
-26.284
-28.504
-27.993
-23.78
-21.722
-23.681
-24.637
-24.506
-25.133
-22.876
-19.219
-21.524
-26.278
-24.618
-20.201
-19.731
-21.004
-23.053
-26.423
-25.386
-20.623
-22.09
-27.547
-26.874
-24.836
-27.996
-27.798
-21.858
-20.797
-23.237
-20.582
-18.613
-22.039
-22.785
-21.925
-27.5
-32.053
-28.107
-25.091
-26.312
-23.099
-18.173
-18.77
-19.277
-17.106
-18.556
-19.69
-14.354
-11.215
-14.283
-12.95
-7.462
-8.102
-10.142
-6.235
-4.209
-5.343
0.254
6.98
4.845
4.83
13.689
16.651
11.606
13.918
21.434
22.817
23.325
24.952
17.331
6.344
6.326
9.122
3.369
-1.849
-2.094
-7.116
-15.437
-18.993
-21.47
-24.221
-23.183
-26.8
-39.174
-42.702
-32.007
-26.968
-31.961
-32.203
-29.434
-31.956
-31.94
-28.112
-31.955
-38.304
-35.554
-33.759
-41.419
-45.225
-40.182
-39.151
-43.761
-45.237
-45.003
-45.895
-44.622
-44.509
-48.502
-46.579
-35.393
-27.061
-21.53
-4.489
22.437
46.624
70.375
100.281
132.198
165.963
207.503
253.792
297.358
328.719
328.883
291.304
235.02
166.071
70.822
-36.662
-128.227
-215.21
-317.664
-420.116
-515.268
-619.164
-709.695
-741.734
-726.534
-706.917
-684.617
-645.525
-600.803
-552.796
-483.869
-402.261
-340.294
-303.945
-268.797
-219.268
-164.167
-120.258
-93.983
-79.17
-68.387
-58.339
-45.525
-31.233
-26.123
-32.471
-35.133
-27.343
-22.564
-27.288
-31.415
-30.533
-27.403
-18.501
-4.013
7.352
15.312
23.084
21.764
8.73
-0.272
2.018
8.419
20.061
37.078
44.613
38.842
32.993
27.005
14.978
9.705
19.23
30.937
40.583
53.106
58.089
48.981
41.771
44.476
47.092
49.801
58.853
66.773
68.98
73.102
77.437
74.012
69.149
70.04
70.24
69.332
76.382
86.192
87.032
85.439
91.51
98.881
101.429
103.099
104.058
103.966
109.101
117.057
118.279
117.739
124.099
129.703
130.002
134.925
143.834
145.873
144.57
146.914
147.949
149.544
159.847
169.798
169.315
169.004
174.01
173.089
169.294
175.616
184.825
185.974
187.076
192.366
192.695
189.954
193.902
200.377
202.031
202.366
203.047
201.298
200.904
204.083
204.464
200.566
196.827
192.661
188.906
189.875
190.354
184.791
181.84
184.687
181.089
170.043
163.5
159.544
150.392
142.396
139.487
133.756
125.169
119.196
111.318
100.189
93.333
87.503
75.408
65.428
63.016
56.469
43.708
37.866
37.947
32.313
24.575
22.103
18.103
9.494
6.075
9.948
12.462
9.79
2.173
-7.81
-10.134
-2.759
-1.254
-10.62
-14.968
-10.151
-8.829
-11.278
-9.446
-7.297
-8.518
-7.766
-6.558
-9.725
-11.049
-7.685
-9.275
-16.102
-16.912
-12.993
-13.389
-14.684
-11.664
-9.306
-9.665
-10.17
-13.493
-17.752
-14.28
-8.503
-13.743
-22.619
-19.106
-8.974
-6.831
-11.568
-15.086
-14.173
-9.129
-6.724
-13.225
-20.023
-17.384
-12.095
-10.685
-8.852
-8.26
-13.474
-16.794
-13.147
-10.281
-9.196
-4.32
-1.889
-6.822
-8.773
-4.567
-4.442
-7.42
-6.064
-6.449
-11.249
-9.24
-2.013
-3.012
-7.229
-3.433
0.227
-2.276
-1.461
0.78
-6.161
-14.512
-14.039
-12.264
-12.764
-9.288
-6.652
-10.658
-12.523
-8.45
-6.388
-7.354
-9.117
-14.689
-18.896
-13.831
-8.683
-13.542
-19.639
-19.705
-19.568
-18.658
-12.651
-10.742
-18.403
-22.633
-18.022
-15.965
-17.431
-14.226
-12.437
-19.188
-25.235
-24.924
-24.573
-23.804
-19.889
-20.199
-25.454
-25.416
-22.212
-24.917
-26.982
-21.92
-19.799
-24.123
-24.692
-22.12
-23.95
-25.296
-22.648
-22.937
-24.481
-21.453
-21.84
-29.032
-29.972
-23.383
-22.915
-27.47
-27.569
-27.075
-28.226
-24.468
-21.244
-27.528
-34.014
-32.365
-31.229
-33.675
-32.759
-30.996
-32.44
-31.485
-29.418
-33.735
-37.659
-32.467
-27.024
-27.88
-26.28
-21.944
-26.062
-35.288
-36.288
-30.563
-27.57
-26.905
-24.885
-22.537
-20.592
-18.699
-16.261
-11.54
-7.937
-11.188
-15.486
-13.287
-12.371
-17.135
-15.293
-5.945
-4.254
-7.52
-1.38
6.798
5.012
3.561
10.385
15.198
16.002
20.543
23.293
18.952
18.722
26.033
29.01
26.92
26.296
20.723
7.993
0.721
-0.163
-5.735
-12.059
-11.327
-12.572
-20.471
-24.405
-24.358
-30.184
-36.455
-33.664
-28.696
-28.822
-30.251
-32.308
-35.713
-33.321
-24.864
-21.649
-25.521
-28.394
-29.892
-32.35
-32.722
-32.345
-34.446
-34.887
-34.458
-40.857
-47.483
-41.962
-33.572
-36.3
-41.875
-40.211
-36.553
-31.17
-18.307
-4.088
7.578
27.117
56.381
85.618
116.082
152.875
192.016
235.377
285.77
325.624
337.515
327.444
301.221
251.336
176.657
83.52
-21.76
-126.823
-224.603
-323.472
-426.816
-531.463
-641.815
-740.713
-780.968
-754.816
-714.45
-689.603
-658.253
-609.025
-552.841
-485.602
-408.326
-347.314
-306.134
-254.895
-190.69
-141.546
-111.614
-85.702
-65.265
-52.867
-38.889
-26.714
-27.974
-35.449
-37.981
-38.408
-35.585
-26.133
-23.131
-32.302
-33.212
-17.41
-3.56
2.409
11.403
18.074
11.46
-0.396
-8.093
-12.685
-10.049
3.54
19.276
31.319
40.313
38.618
24.49
14.779
15.635
14.054
12.1
23.819
40.495
44.554
40.812
39.888
38.651
35.209
34.068
35.46
40.196
50.706
59.992
61.31
60.496
60.556
57.572
57.702
66.051
70.469
66.491
68.508
77.585
79.45
76.26
78.681
82.128
83.077
89.625
98.834
99.603
97.815
103.863
111.197
113.602
116.69
120.353
120.485
121.774
123.981
120.232
118.983
130.285
140.57
139.606
140.8
147.652
146.973
142.297
145.157
149.314
150.35
156.332
163.863
164.643
166.373
172.413
171.23
165.099
167.308
172.276
170.438
170.728
175.902
173.58
167.39
171.07
176.623
172.616
169.364
172.963
172.615
167.907
166.932
164.831
157.946
153.748
150.918
143.719
139.131
139.264
133.596
123.298
116.701
108.608
97.134
92.211
89.932
78.864
67.228
64.402
60.442
51.22
46.792
45.643
38.402
28.957
24.084
21.39
19.152
16.899
11.321
5.856
6.706
7.907
3.237
-0.305
-0.353
-4.482
-9.067
-6.099
-3.853
-8.185
-7.88
-2.159
-4.291
-10.625
-9.78
-9.334
-14.77
-14.228
-8.254
-10.61
-16.297
-13.737
-10.32
-11.569
-9.733
-7.57
-12.014
-13.197
-6.446
-5.53
-11.759
-11.738
-8.47
-11.709
-14.276
-11.449
-12.577
-16.972
-15.287
-12.13
-14.427
-15.741
-12.858
-11.65
-12.102
-12.078
-14.477
-15.929
-10.762
-6.666
-11.184
-16.621
-17.75
-19.301
-18.901
-12.894
-10.566
-15.519
-16.336
-11.642
-10.938
-11.076
-6.874
-6.864
-11.747
-9.553
-3.449
-5.616
-10.698
-10.67
-12.292
-16.466
-14.338
-9.763
-10.357
-9.259
-3.395
-2.308
-5.635
-4.998
-3.765
-6.159
-6.746
-6.342
-10.417
-13.914
-12.907
-12.59
-11.625
-6.913
-7.084
-13.911
-15.263
-11.979
-14.899
-17.906
-12.921
-10.422
-14.465
-13.293
-9.173
-13.763
-18.579
-12.687
-7.501
-11.736
-15.946
-17.017
-19.81
-18.985
-12.227
-10.378
-15.003
-16.856
-17.474
-20.922
-21.403
-20.492
-26.454
-32.617
-30.361
-27.724
-28.699
-25.81
-22.826
-25.958
-23.976
-12.559
-8.888
-18.832
-27.948
-30.47
-30.66
-27.292
-22.678
-24.127
-27.554
-25.792
-24.058
-25.33
-23.087
-19.505
-22
-25.378
-24.151
-24.647
-27.702
-26.787
-25.745
-29.372
-30.196
-26.484
-26.703
-29.222
-29.215
-32.749
-37.503
-31.543
-22.932
-26.825
-32.718
-28.521
-25.981
-29.622
-26.412
-18.958
-19.912
-23.926
-24.513
-27.911
-29.998
-21.608
-13.417
-15.015
-15.306
-10.837
-12.111
-15.223
-11.079
-6.737
-4.85
3.044
10.241
6.36
4.099
12.964
18.579
16.794
22.038
31.367
30.352
25.793
28.93
31.223
26.624
23.363
21.881
16.22
10.358
6.518
-0.244
-5.103
-2.288
-2.652
-12.727
-21.132
-24.266
-30.182
-35.152
-32.877
-32.222
-37.716
-39.418
-36.01
-35.864
-36.619
-32.939
-30.831
-33.947
-35.742
-34.125
-34.361
-37.763
-40.33
-38.689
-34.661
-34.89
-39.76
-40.292
-36.048
-37.465
-43.405
-44.445
-45.604
-52.498
-51.392
-35.735
-22.35
-16.002
0.579
29.441
57.99
91.024
135.114
175.938
209.329
252.668
302.958
335.134
343.118
333.226
298.28
235.404
155.614
62.806
-41.806
-147.569
-250.641
-356.14
-465.123
-580.953
-696.817
-773.672
-784.186
-757.558
-728.777
-693.372
-647.133
-600.533
-543.418
-464.592
-386.744
-328.508
-276.123
-221.776
-175.202
-134.912
-97.382
-73.597
-64.121
-53.974
-42.639
-39.677
-41.551
-44.078
-49.91
-49.416
-33.798
-21.153
-26.168
-30.335
-20.197
-11.146
-8.303
2.1
15.951
18.648
14.844
10.995
1.059
-8.737
-1.816
18.578
35.443
41.332
36.379
24.741
16.103
13.171
10.298
10.929
22.547
38.066
46.224
47.516
44.838
38.54
33.928
34.041
35.085
39.637
51.6
60.569
59.076
57.861
61.485
60.586
57.956
62.616
65.933
61.487
62.293
71.421
75.246
74.992
81.302
87.943
87.929
89.767
95.866
97.974
97.478
99.93
102.102
103.582
108.832
113.965
115.099
118.075
123.245
124.098
124.809
131.375
137.026
139.501
146.464
152.82
148.481
143.716
150.163
157.574
158.105
160.327
164.972
165.357
167.877
176.623
179.5
173.843
171.861
173.997
173.779
175.928
180.509
178.277
173.688
176.142
178.465
176.091
177.778
180.69
175.847
172.485
176.915
175.015
163.35
155.771
151.715
142.469
135.048
133.95
128.458
117.547
112.191
111.43
106.907
98.612
88.585
78.471
73.795
72.858
66.398
56.606
51.797
47.528
39.184
34.467
33.749
26.69
15.838
11.243
8.715
2.431
-1.155
-1.397
-6.171
-11.1
-8.001
-4.425
-7.447
-10.451
-11.985
-17.231
-20.235
-15.482
-12.184
-14.708
-15.579
-15.517
-19.575
-22.21
-20.964
-22.23
-23.354
-18.781
-16.048
-19.176
-19.732
-17.868
-20.302
-21.83
-18.552
-18.336
-21.012
-19.278
-17.697
-19.702
-16.227
-8.841
-10.594
-17.858
-18.278
-15.926
-17.368
-16.811
-13.839
-15.115
-16.288
-12.794
-13.121
-17.574
-14.689
-9.319
-14.065
-20.097
-17.004
-15.729
-20.852
-19.833
-13.675
-13.966
-15.601
-11.131
-9.435
-14.807
-18.162
-17.171
-16.391
-14.735
-12.098
-12.539
-15.008
-16.41
-17.173
-16.682
-16.525
-21.464
-25.988
-21.755
-18.332
-23.7
-21.953
-6.329
1.666
-5.375
-9.24
-8.025
-13.16
-15.475
-7.265
-6.176
-17.733
-21.861
-15.147
-12.507
-12.176
-7.506
-7.189
-12.074
-11.135
-7.911
-10.315
-11.316
-9.703
-15.195
-21.948
-18.213
-12.734
-15.723
-19.436
-19.462
-21.414
-22.313
-18.233
-17.488
-21.923
-21.046
-15.649
-15.579
-18.149
-17.511
-18.179
-21.314
-22.382
-23.608
-24.696
-18.824
-12.966
-19.448
-27.716
-23.25
-15.94
-16.133
-16.269
-15.065
-19.468
-23.335
-19.877
-16.478
-15.991
-12.96
-10.704
-13.096
-14.117
-12.908
-14.475
-15.865
-15.792
-20.233
-25.034
-21.986
-19.019
-23.824
-27.416
-25.803
-26.299
-26.19
-20.022
-17.026
-22.259
-24.557
-19.918
-17.264
-18.708
-20.688
-24.282
-27.226
-24.403
-20.746
-22.742
-25.569
-25.532
-26.336
-25.513
-19.201
-15.612
-20.075
-23.298
-20.588
-18.045
-15.793
-11.511
-10.737
-12.864
-9.447
-5.25
-9.06
-10.502
-1.001
5.702
3.545
6.516
15.025
16.18
15.396
23.37
31.663
33.439
35.779
37.564
32.089
27.048
29.46
29.527
21.181
12.755
9.305
9.195
11.677
10.909
0.496
-11.99
-17.666
-21.885
-27.676
-28.826
-28.68
-34.367
-38.327
-34.296
-30.363
-28.961
-24.979
-23.674
-28.825
-30.8
-27.928
-29.185
-31.364
-27.969
-26.962
-32.503
-36.027
-37.04
-40.946
-42.586
-39.535
-40.546
-44.78
-42.542
-37.627
-37.827
-36.432
-27.985
-18.686
-8.535
8.533
28.895
48.341
71.327
98.75
130.655
175.482
230.641
276.374
306.69
330.897
341.44
322.169
276.601
212.132
124.521
20.432
-84.295
-190.933
-301.431
-402.535
-501.328
-620.621
-736.168
-791.909
-782.184
-748.74
-715.598
-679.849
-633.865
-571.234
-498.518
-432.295
-372.193
-309.384
-252.704
-208.076
-162.441
-116.128
-86.671
-72.438
-59.298
-49.273
-45.626
-41.412
-41.124
-52.352
-59.614
-48.374
-33.927
-33.135
-38.162
-37.283
-30.378
-19.638
-8.327
-0.796
5.107
9.782
4.031
-11.409
-19.001
-11.067
3.831
21.585
39.46
45.485
37.116
28.159
23.679
16.677
9.547
11.171
22.646
40.568
56.559
57.478
45.921
39.378
39.462
36.784
38.219
49.862
58.48
59.314
63.2
67.371
63.588
61.474
66.49
67.345
64.893
70.264
76.795
75.871
76.797
81.7
80.141
77.727
85.401
93.329
93.288
95.776
102.712
103.7
102.506
108.402
114.791
114.431
112.95
115.185
121.186
131.16
138.915
137.472
134.423
139.722
148.393
153.899
158.19
160.438
159.992
164.185
172.979
176.183
175.356
178.976
181.363
177.65
178.433
185.119
184.374
177.476
176.576
179.718
182.477
188.673
192.514
186.921
183.933
190.415
192.168
186.563
186.461
187.49
179.339
171.877
172.131
170.146
165.355
164.192
158.119
143.409
135
135.37
130.365
121.131
117.2
112.122
100.247
89.852
82.027
70.228
60.048
58.135
56.359
48.666
41.15
36.532
31.712
28.133
27.369
26.02
21.846
14.497
5.452
2.158
7.118
9.096
3.241
-0.409
-0.536
-4.104
-3.857
5.784
9.165
0.031
-3.509
2.678
2.457
-2.413
0.941
3.967
-2.831
-6.882
-3.152
-4.098
-8.36
-5.694
-2.943
-6.598
-7.314
-3.511
-4.425
-8.097
-8.255
-7.404
-5.577
-1.204
-1.279
-6.232
-5.063
0.169
-1.665
-4.448
0.121
1.714
-3.221
-1.867
3.664
1.102
-2.199
1.847
2.011
-3.231
-1.625
0.443
-7.69
-11.495
-1.219
5.155
-1.317
-6.42
-5.503
-6.34
-7.179
-4.786
-4.068
-4.066
-0.675
-0.495
-6.324
-7.25
-1.781
-1.273
-4.057
-1.04
1.739
-1.773
-3.288
-0.811
-0.796
0.756
6.183
5.208
-1.555
-2.332
-0.212
-2.831
-4.351
-3.468
-6.674
-8.769
-5.114
-4.774
-7.484
-3.367
0.815
-3.875
-6.878
-3.509
-5.734
-12.954
-14.531
-14.734
-18.512
-17.414
-11.595
-11.576
-15.049
-14.274
-12.403
-11.088
-6.542
-3.614
-7.516
-11.407
-11.946
-15.393
-19.69
-17.831
-14.964
-16.83
-17.395
-15.171
-16.713
-18.989
-16.295
-14.983
-17.965
-17.839
-16.75
-21.528
-24.547
-20.561
-19.87
-23.51
-20.551
-15.062
-17.359
-20.876
-19.112
-19.113
-20.772
-16.297
-11.391
-14.349
-17.698
-15.526
-14.927
-17.634
-18.294
-19.255
-22.568
-22.428
-19.758
-20.619
-20.859
-16.961
-16.185
-19.3
-19.516
-19.57
-22.133
-20.594
-17.844
-22.582
-26.58
-21.668
-18.813
-22.236
-21.369
-18.657
-22.467
-23.961
-17.964
-16.848
-22.026
-21.807
-19.856
-25.424
-30.131
-25.734
-20.014
-19.003
-19.507
-19.157
-15.705
-8.658
-5.627
-9.191
-9.487
-5.549
-7.956
-12.708
-7.11
2.272
2.992
1.142
4.08
6.583
9.407
18.523
27.011
27.846
28.343
32.385
34.316
34.905
36.999
35.616
29.449
22.743
15.123
9.223
10.676
10.069
-3.574
-17.164
-17.361
-15.876
-21.356
-24.202
-23.879
-28.266
-31.022
-26.894
-26.128
-30.885
-31.681
-30.661
-33.453
-33.209
-28.626
-29.47
-33.718
-31.978
-28.621
-30.084
-31.102
-30.071
-32.57
-35.859
-34.855
-34.004
-35.341
-34.541
-35.092
-41.732
-46.422
-42.759
-36.289
-28.145
-13.527
3.73
19.836
42.433
75.585
111.945
147.285
184.893
227.23
272.677
312.315
331.104
321.983
289.802
236.97
161.709
71.045
-24.225
-125.514
-237.274
-349.362
-453.541
-562.871
-680.91
-772.384
-802.896
-783.584
-746.707
-707.559
-667.069
-620.464
-559.464
-486.377
-415.389
-353.202
-296.75
-244.589
-195.23
-148.156
-110.333
-85.276
-65.883
-49.723
-40.673
-35.018
-30.232
-34.048
-44.399
-44.987
-32.887
-23.136
-23.947
-29.169
-29.885
-22.123
-9.66
0.897
9.217
15.735
13.316
-0.245
-12.774
-13.742
-4.449
12.142
31.835
42.996
39.223
28.533
19.58
14.701
16.027
22.051
28.164
37.1
50.335
56.867
52.148
47.655
46.854
42.449
39.413
45.672
52.838
55.509
61.748
68.567
65.215
59.092
60.559
62.665
63.293
71.501
80.813
77.851
70.635
71.601
75.143
76.507
81.254
87.504
89.582
90.953
93.047
92.635
94.21
99.674
101.098
101.637
111.149
119.413
115.373
114.171
125.58
133.438
132.969
138.632
147.499
146.308
142.745
147.784
153.881
155.549
158.134
160.746
161.157
166.145
175.859
179.837
176.51
172.692
169.343
166.981
169.331
172.82
173.131
176.665
185.127
187.985
184.424
184.106
184.474
178.991
174.399
174.069
170.509
165.055
162.996
158.148
149.956
148.728
149.63
139.999
128.543
127.287
126.034
116.679
108.831
104.209
94.592
84.984
82.965
80.651
72.028
62.902
54.928
46.64
42.266
39.963
32.075
23.07
20.914
19.344
12.292
6.587
5.972
5.586
4.41
3.271
-0.359
-4.023
-3.046
-2.03
-5.936
-10.148
-12.122
-14.594
-14.986
-12.756
-15.773
-22.092
-20.635
-16.874
-22.315
-26.611
-19.386
-15.377
-23.18
-26.573
-19.188
-14.083
-14.104
-13.297
-15.338
-21.686
-24.639
-23.06
-20.518
-15.945
-12.906
-16.818
-21.361
-21.844
-24.363
-24.792
-13.813
-4.526
-11.323
-19.047
-13.931
-9.432
-13.165
-13.598
-9.64
-9.913
-11.199
-9.423
-10.054
-12.488
-10.647
-7.586
-7.606
-7.882
-8.889
-13.101
-15.294
-12.985
-12.502
-13.087
-8.593
-5.661
-11.504
-15.54
-10.256
-6.051
-7.182
-6.369
-6.874
-14.015
-17.719
-13.132
-11.268
-13.771
-12.476
-11.385
-15.235
-15.511
-10.898
-11.633
-16.379
-16.811
-16.258
-18.137
-17.021
-15.008
-19.266
-23.49
-19.716
-15.181
-15.482
-14.151
-10.305
-10.261
-13.097
-15.306
-17.257
-17.054
-15.091
-17.254
-21.014
-18.863
-16.366
-20.024
-20.977
-14.818
-11.571
-13.245
-13.373
-15.019
-19.921
-20.259
-18.719
-24.133
-28.312
-23.483
-21.702
-27.314
-26.636
-19.66
-19.355
-23.329
-24.058
-26.681
-31.635
-29.983
-24.319
-23.222
-23.677
-23.349
-27.956
-33.675
-31.52
-27.42
-29.418
-31.496
-30.675
-32.739
-34.164
-29.455
-26.984
-31.425
-33.671
-32.076
-33.356
-33.852
-28.508
-24.344
-26.304
-29.469
-29.925
-26.936
-22.342
-22.935
-29.163
-31.474
-29.465
-31.123
-32.42
-28.061
-27.585
-33.358
-32.782
-27.105
-27.596
-27.628
-20.603
-20.206
-29.012
-29.067
-20.366
-18.359
-19.032
-14.219
-14.076
-20.183
-18.901
-13.407
-15.153
-16.546
-12.151
-12.81
-15.715
-7.218
3.651
2.894
2.331
12.737
21.482
21.204
20.759
22.641
24.013
27.613
30.829
27.156
20.991
17.065
10.726
4.243
5.111
5.96
-3.827
-17.371
-23.955
-24.025
-21.089
-19.566
-25.759
-35.605
-38.439
-37.019
-39.187
-39.123
-32.918
-31.044
-35.6
-35.748
-32.731
-34.86
-36.449
-33.012
-33.532
-37.935
-37.123
-36.753
-43.333
-45.408
-39.001
-37.617
-42.574
-43.091
-40.984
-41.602
-40.455
-36.572
-32.124
-21.392
-4.204
9.857
23.408
47.659
79.422
111.24
147.918
191.593
234.653
275.274
312.406
330.345
316.132
278.751
226.939
151.171
50.522
-54.028
-152.741
-255.776
-361.338
-461.54
-569.255
-685.13
-765.456
-776.173
-742.306
-705.654
-674.961
-638.989
-590.684
-527.748
-453.691
-382.205
-327.7
-287.552
-242.938
-186.207
-134.011
-99.799
-75.854
-56.504
-47.237
-42.336
-30.772
-22.078
-28.935
-38.498
-33.997
-22.216
-16.684
-18.512
-22.72
-22.359
-11.659
3.094
11.72
17.2
23.327
21.039
7.948
-2.409
-3.054
2.13
14.839
34.703
47.976
46.429
38.33
30.452
22.112
16.456
18.73
29.917
47.239
61.121
61.511
53.975
50.311
48.593
45.139
46.125
50.421
51.141
54.763
65.314
69.405
64.242
64.422
69.29
67.376
65.441
72.288
78.724
80.986
87.535
94.236
92.255
89.386
91.739
91.997
91.789
98.561
104.049
102.02
104.581
115.291
121.754
123.777
129.924
135.463
136.179
139.502
144.382
144.034
146.621
157.663
163.309
159.231
160.109
167.564
170.45
171.045
174.714
176.462
177.907
184.967
190.123
188.386
189.083
192.982
191.906
190.676
195.836
201.14
203.624
205.122
200.502
191.766
190.565
193.19
188.673
185.031
190.55
193.794
189.052
185.914
183.83
175.378
166.873
163.958
158.662
149.324
143.455
138.391
129.114
122.214
119.913
114.621
107.244
102.03
92.846
79.579
72.75
68.744
55.993
42.369
39.478
39.051
33.986
31.887
32.224
25.422
15.518
11.975
10.824
6.377
1.928
-0.987
-3.165
-1.899
0.229
-2.958
-6.977
-6.397
-7.556
-11.732
-10.872
-9.364
-16.534
-23.651
-21.313
-18.16
-19.028
-16.634
-13.1
-15.504
-18.225
-16.738
-17.28
-19.593
-18.666
-20.164
-26.904
-28.813
-24.336
-22.681
-21.693
-15.776
-12.929
-16.982
-18.237
-15.522
-16.204
-17.295
-15.224
-15.93
-17.823
-13.515
-9.177
-11.435
-12.323
-10.433
-15.123
-21.343
-18.13
-12.472
-12.322
-12.191
-13.275
-21.515
-26.579
-19.102
-10.721
-10.849
-13.497
-16.837
-22.33
-22.288
-15.289
-11.755
-12.222
-10.073
-9.748
-13.416
-11.283
-4.014
-3.721
-8.436
-7.941
-5.456
-7.492
-10.097
-9.992
-9.887
-10.369
-11.699
-16.121
-21.172
-22.746
-22.406
-20.758
-15.171
-9.706
-9.999
-11.465
-10.35
-11.852
-13.903
-8.263
-2.119
-7.357
-16.243
-17.362
-15.242
-13.909
-10.561
-10.909
-18.956
-23.38
-19.748
-18.781
-20.146
-15.071
-10.726
-15.367
-19.583
-17.892
-17.457
-17.578
-14.16
-13.31
-15.536
-13.304
-12.381
-20.453
-25.959
-21.75
-21.207
-28.036
-29.1
-23.597
-19.959
-16.191
-13.121
-18.702
-26.05
-23.727
-19.878
-22.088
-21.345
-18.214
-23.956
-31.28
-27.105
-20.098
-20.643
-21.919
-20.688
-22.842
-25.879
-25.341
-24.945
-23.687
-17.606
-14.055
-17.514
-18.352
-14.219
-13.22
-12.476
-6.722
-4.875
-10.873
-13.548
-8.981
-3.729
1.005
5.018
5.578
8.124
17.526
25.061
24.629
22.542
21.261
19.06
20.379
23.213
17.156
7.052
6.296
8.711
3.133
-2.522
-2.864
-8.459
-18.913
-22.15
-22.36
-29.272
-34.835
-32.533
-32.141
-36.886
-38.852
-38.616
-39.143
-35.338
-29.999
-32.504
-37.053
-35.076
-35.274
-41.516
-41.343
-35.376
-37.834
-44.901
-43.885
-40.278
-42.54
-45.393
-45.641
-46.03
-45.427
-46.184
-51.669
-52.01
-40.386
-27.458
-16.626
0.812
19.905
34.95
61.444
105.541
148.811
186.997
233.674
282.799
316.164
329.565
319.645
279.225
214.272
131.257
28.053
-80.951
-174.767
-262.753
-362.484
-467.106
-572.476
-680.471
-757.895
-767.892
-735.353
-705.958
-677.135
-632.701
-583.514
-529.008
-452.311
-372.023
-323.332
-295.548
-255.521
-203.555
-155.757
-114.364
-84.132
-71.972
-65.853
-52.395
-38.449
-31.862
-29.914
-31.967
-35.357
-32.044
-26.44
-29.513
-33.943
-27.149
-14.789
-4.428
8.01
20.226
22.597
16.397
8.373
0.533
-2.653
1.942
9.013
18.277
33.918
46.473
45.338
37.241
28.287
17.025
13.048
23.976
36.659
43.419
52.526
57.526
45.747
32.162
35.04
43.329
45.351
49.969
59.943
66.13
68.353
69.731
66.703
62.583
65.565
70.99
71.528
72.938
79.356
84.278
86.517
91.245
96.597
98.708
98.836
96.854
94.133
97.582
105.649
108.3
107.173
109.689
111.511
112.035
122.339
137.336
138.863
132.783
137.443
147.547
151.916
156.71
162.31
159.269
154.369
158.011
162.065
161.941
166.587
174.06
176.454
179.062
183.613
181.882
178.895
183.474
185.944
181.464
183.374
190.808
189.087
183.974
187.576
190.498
185.728
183.542
184.171
178.473
172.414
173.07
171.274
162.689
156.134
152.735
146.18
137.891
131.075
124.306
118.32
112.536
102.593
93.012
92.084
93.17
86.69
77.728
69.881
57.651
45.488
42.01
40.247
32.761
25.992
21.606
13.851
7.795
8.959
8.399
2.061
-0.874
-0.147
-3.835
-9.458
-13.052
-18.502
-22.161
-17.781
-15.063
-20.659
-21.757
-14.618
-12.988
-16.966
-16.109
-15.752
-22.327
-26.338
-23.878
-23.072
-24.057
-23.413
-25.618
-28.895
-25.006
-19.006
-19.676
-21.492
-20.669
-23.526
-26.789
-22.368
-16.979
-16.941
-15.665
-14.648
-21.104
-23.772
-12.808
-5.494
-13.549
-20.558
-18.843
-21.103
-25.336
-19.256
-11.26
-12.974
-15.831
-13.9
-14.819
-17.647
-15.239
-11.803
-12.679
-14.652
-15.899
-16.335
-14.251
-12.921
-14.833
-14.33
-11.839
-15.085
-19.007
-14.371
-9.446
-12.148
-12.506
-7.403
-8.85
-14.481
-10.804
-4.715
-9.017
-13.223
-7.522
-4.685
-10.055
-10.816
-6.451
-7.244
-9.708
-7.536
-5.724
-6.392
-6.545
-8.791
-13.371
-13.952
-10.63
-8.64
-8.152
-9.146
-12.527
-13.143
-9.559
-10.897
-17.975
-19.46
-16.013
-18.661
-24.196
-23.627
-22.171
-24.255
-22.169
-15.942
-15.406
-19.707
-21.919
-23.185
-24.027
-21.411
-19.486
-22.392
-25.198
-26.029
-28.585
-29.894
-26.598
-24.277
-25.591
-27.123
-30.791
-36.841
-36.533
-29.581
-26.198
-25.475
-21.54
-21.822
-28.864
-28.541
-19.218
-17.211
-24.034
-27.086
-26.43
-27.36
-26.33
-24.09
-25.421
-25.283
-21.649
-22.959
-26.455
-22.812
-21.09
-30.114
-36.096
-31.717
-30.432
-34.584
-33.542
-30.958
-33.696
-34.509
-31.868
-34.273
-38.026
-35.132
-30.816
-28.185
-22.452
-18.603
-22.283
-23.135
-15.089
-8.968
-9.773
-11.58
-13.982
-16.853
-13.614
-5.852
-3.005
-5.355
-7.211
-6.78
-1.968
6.744
11.942
13.481
18.973
23.301
18.776
17.597
27.29
30.498
21.538
18.449
21.483
15.442
7.863
9.537
6.925
-4.192
-7.13
-4.786
-13.406
-24.218
-24.601
-25.735
-32.585
-32.847
-29.307
-33.453
-36.827
-31.29
-28.733
-32.234
-28.937
-22.526
-26.752
-33.269
-29.333
-25.646
-32.333
-38.849
-37.671
-34.782
-33.834
-35.702
-41.379
-44.046
-39.017
-35.169
-37.425
-39.041
-39.227
-40.421
-35.893
-23.435
-9.283
9.576
37.085
63.993
89.4
126.818
173.997
216.448
257.037
301.238
333.058
336.604
313.528
267.412
200.124
118.819
27.013
-76.263
-184.707
-289.974
-392.619
-498.85
-611.864
-717.157
-778.832
-778.258
-744.329
-711.488
-675.916
-626
-572.072
-517.602
-450.705
-378.609
-320.804
-272.511
-220.59
-173.691
-139.934
-108.868
-79.172
-64.482
-62.438
-56.836
-47.397
-44.814
-47.696
-47.433
-42.297
-36.463
-35.744
-41.096
-42.399
-31.738
-17.123
-7.267
0.174
4.068
-0.676
-7.871
-10.616
-13.849
-16.505
-7.895
8.7
19.85
23.816
22.821
14.598
5.948
5.451
6.353
6.045
18.022
40.097
50.185
46.143
43.8
41.245
31.032
24.524
27.998
31.234
35.842
49.355
58.387
52.521
46.932
49.794
50.721
51.738
60.9
67.711
65.221
65.101
69.75
70.786
72.877
80.25
82.702
79.879
82.893
87.426
85.025
85.234
93.487
97.347
94.219
96.671
105.28
109.41
109.22
112.194
118.204
122.733
125.456
128.778
133.28
137.067
139.231
142.088
145.766
145.572
142.36
144.696
152.689
157.357
159.327
164.673
168.338
166.698
168.715
175.207
175.533
172.453
175.917
178.944
172.323
164.111
161.368
159.428
158.266
160.935
161.281
156.445
153.786
153.122
147.699
141.736
140.646
137.978
131.201
126.476
121.416
110.704
100.77
95.728
89.273
82.615
81.925
79.63
67.609
54.254
46.498
39.913
35.213
35.09
31.431
21.457
15.922
16.319
13.032
6.865
3.668
0.896
-1.193
1.23
1.341
-5.795
-10.018
-8.141
-10.557
-15.427
-13.899
-14.232
-22.886
-25.791
-17.322
-11.531
-12.017
-10.891
-11.487
-17.155
-18.837
-15.137
-15.281
-18.32
-18.673
-20.292
-24.298
-24.639
-23.259
-25.195
-25.834
-21.95
-18.285
-15.906
-13.627
-14.53
-16.704
-14.955
-14.389
-19.358
-20.852
-16.126
-15.623
-18.541
-15.71
-13.397
-18.129
-18.538
-11.681
-11.481
-16.105
-11.578
-4.242
-6.402
-10.336
-8.057
-5.984
-6.718
-7.31
-9.688
-11.543
-7.354
-3.892
-8.226
-11.514
-7.76
-5.425
-7.806
-9.044
-8.665
-7.865
-4.113
-0.308
-1.254
-4.01
-6.387
-10.222
-11.896
-9.344
-9.41
-12.581
-10.802
-5.266
-2.146
0.319
1.503
-3.282
-6.714
-0.1
6.144
0.697
-8.098
-11.215
-12.549
-12.939
-9.434
-8.468
-13.235
-13.439
-7.565
-7.731
-12.837
-12.147
-11.106
-16.803
-17.656
-9.019
-6.116
-12.052
-13.2
-9.85
-11.553
-13.934
-10.92
-8.069
-8.727
-10.073
-10.944
-9.215
-5.63
-8.08
-14.448
-11.985
-5.125
-8.603
-15.478
-12.943
-10.111
-14.032
-13.093
-6.185
-5.172
-6.821
-4.158
-5.901
-13.532
-14.585
-10.974
-13.118
-16.051
-15.591
-18.936
-22.061
-16.406
-12.537
-18.233
-19.99
-13.891
-13.888
-19.651
-19.715
-17.245
-17.514
-14.432
-9.558
-12.287
-18.036
-17.221
-14.394
-15.441
-16.567
-16.977
-18.979
-17.595
-10.531
-5.795
-6.905
-8.873
-10.189
-10.053
-3.764
5.257
6.835
1.802
-1.674
-1.821
1.912
9.59
12.577
7.726
7.432
14.731
17.024
16.022
24.519
36.159
38.637
38.2
40.514
38.718
34.672
36.867
40.803
38.917
32.386
22.247
12.424
12.572
17.951
12.598
0.272
-4.234
-5.001
-9.09
-8.546
-5.358
-12.232
-20.744
-17.366
-14.678
-21.747
-22.152
-12.437
-10.723
-17.142
-17.766
-15.695
-17.681
-17.686
-14.589
-13.952
-13.993
-15.317
-23.713
-31.995
-29.933
-26.053
-29.284
-30.855
-25.887
-22.689
-22.998
-21.636
-18.281
-10.833
4.482
22.476
39.18
61.024
90.238
123.444
163.582
209.136
250.274
289.905
333.944
363.98
361.451
336.808
298.872
234.088
140.41
37.484
-65.839
-173.879
-280.657
-381.1
-490.355
-614.715
-719.766
-764.281
-751.164
-715.457
-680.198
-645.965
-605.087
-551.385
-485.035
-411.879
-339.704
-277.048
-226.716
-181.777
-137.727
-98.149
-64.671
-39.675
-30.199
-30.393
-24.482
-16.97
-21.941
-28.172
-19.086
-5.501
-1.216
-1.026
-1.963
-4.837
1.011
17.062
26.357
27.391
34.163
39.829
29.368
13.378
9.324
17.36
34.097
55.338
67.268
64.772
59.121
54.102
45.655
41.065
46.584
53.877
59.745
70.238
78.699
74.34
66.102
66.276
68.909
68.076
70.571
77.86
83.824
89.002
93.879
92.836
87.624
85.261
84.782
86.06
93.629
101.506
102.133
103.588
109.78
109.802
105.715
110.669
117.87
115.23
112.625
118.508
123.42
125.649
131.593
133.541
127.481
129.878
145.693
156.455
155.882
156.117
160.471
165.366
172.515
179.148
180.784
182.724
186.085
183.502
179.871
184.413
189.242
188.708
193.787
205.036
209.55
208.657
209.353
205.328
197.454
199.664
208.587
208.36
202.88
203.784
206.186
205.858
209.428
214.542
213.562
211.079
210.897
207.063
200.711
197.734
194.058
187.444
184.593
183.858
177.411
168.154
160.764
152.159
144.014
140.754
136.218
125.488
115.599
109.533
102.13
94.682
90.26
84.382
77.353
75.637
74.788
66.857
58.492
56.609
54.466
50.025
50.408
51.314
43.443
32.852
28.13
26.54
27.46
32.208
32.395
25.085
21.45
23.9
23.956
23.779
28.131
28.942
22.096
15.868
13.246
12.086
15.47
20.391
17.03
9.663
9.808
12.619
9.276
6.095
8.622
11.148
12.415
15.535
16.173
13.197
15.099
22.091
25.024
24.103
24.412
22.781
18.211
16.644
17.029
14.971
14.567
17.154
16.877
16.708
21.551
21.941
13.958
11.979
18.935
20.32
15.917
15.84
15.096
9.16
8.664
15.038
16.565
13.949
15.508
18.468
18.986
19.604
19.573
18.982
22.049
24.23
18.854
13.452
13.745
11.703
8.287
13.486
19.57
15.367
12.408
18.994
21.119
14.799
13.463
16.743
16.048
16.719
20.902
18.68
12.301
13.031
17.473
18.166
18.166
17.636
13.617
12.344
15.679
14.171
9.128
9.903
10.669
5.046
3.302
7.302
5.198
2.068
9.881
17.02
12.231
8.658
12.094
10.607
7.472
12.945
15.077
5.599
1.549
8.517
9.855
4.452
5.035
8.512
8.483
10.412
12.817
8.146
2.375
2.74
3.638
2.467
3.062
2.682
-0.042
1.174
4.863
3.766
1.531
3.041
2.231
-2.169
-1.821
2.662
4.136
5.011
8.114
7.366
2.174
-0.731
-1.507
-1.558
3.215
8.237
3.77
-4.193
-4.825
-2.601
-3.083
-2.611
-3.361
-9.313
-12.023
-6.414
-1.744
-1.639
-0.07
1.902
0.961
0.679
0.487
-3.138
-4.009
1.514
3.504
-1.239
-2.004
2.934
4.373
2.529
4.103
8.149
11.481
13.74
12.054
7.042
7.639
15.362
19.95
19.435
21.579
25.464
26.276
27.874
31.963
34.44
37.441
41.946
41.035
37.868
43.027
50.484
48.918
43.107
37.798
28.222
18.224
15.028
12.252
5.194
0.981
-0.74
-6.694
-11.612
-10.633
-12.624
-19.935
-22.705
-21.534
-24.94
-29.635
-29.777
-29.568
-30.177
-26.645
-21.879
-21.516
-23.185
-25.634
-29.844
-29.241
-22.461
-22.261
-31.289
-36.07
-34.261
-33.975
-33.048
-30.211
-34.146
-42.223
-42.824
-39.076
-36.16
-24.65
-3.762
12.557
25.679
49.999
84.644
120.841
160.301
204.992
249.818
290.148
318.609
324.399
306.108
267.731
204.277
114.068
13.106
-86.219
-190.468
-300.731
-405.423
-510.694
-631.675
-745.487
-806.942
-809.516
-781.781
-743.047
-701.219
-661.156
-612.983
-546.322
-473.465
-409.015
-348.733
-288.276
-234.21
-190.206
-155.045
-127.522
-104.012
-84.526
-74.378
-69.636
-62.514
-60.731
-71.099
-77.973
-68.966
-57.489
-57.282
-63.389
-67.012
-63.727
-51.822
-37.646
-29.436
-25.824
-25.754
-34.873
-49.555
-57.351
-56.243
-49.569
-33.48
-12.107
-2.391
-7.542
-14.619
-21.752
-33.366
-37.167
-22.873
-7.104
-5.55
