-61.821
-65.626
-69.302
-72.784
-76.034
-79.035
-81.794
-84.339
-86.688
-88.845
-90.818
-92.616
-94.246
-95.715
-97.02
-98.144
-99.083
-99.838
-100.421
-100.855
-101.153
-101.313
-101.331
-101.193
-100.889
-100.417
-99.77
-98.94
-97.925
-96.724
-95.343
-93.796
-92.092
-90.237
-88.236
-86.088
-83.799
-81.375
-78.823
-76.15
-73.364
-70.472
-67.483
-64.407
-61.252
-58.027
-54.738
-51.388
-47.983
-44.53
-41.035
-37.505
-33.947
-30.367
-26.774
-23.177
-19.585
-16.007
-12.45
-8.924
-5.438
-2.002
1.375
4.683
7.912
11.052
14.093
17.023
19.831
22.508
25.041
27.42
29.635
31.675
33.53
35.191
36.647
37.889
38.91
39.701
40.255
40.564
40.623
40.426
39.968
39.246
38.258
37.001
35.475
33.682
31.623
29.3
26.717
23.881
20.797
17.471
13.914
10.133
6.141
1.948
-2.433
-6.989
-11.705
-16.568
-21.56
-26.667
-31.873
-37.16
-42.513
-47.914
-53.347
-58.793
-64.238
-69.663
-75.052
-80.39
-85.66
-90.848
-95.939
-100.919
-105.776
-110.497
-115.07
-119.485
-123.734
-127.807
-131.696
-135.397
-138.903
-142.211
-145.317
-148.22
-150.918
-153.412
-155.702
-157.79
-159.68
-161.373
-162.876
-164.192
-165.328
-166.288
-167.08
-167.711
-168.187
-168.518
-168.71
-168.772
-168.712
-168.54
-168.263
-167.89
-167.429
-166.89
-166.281
-165.608
-164.882
-164.109
-163.296
-162.451
-161.581
-160.691
-159.788
-158.877
-157.964
-157.053
-156.15
-155.256
-154.378
-153.517
-152.677
-151.86
-151.069
-150.306
-149.572
-148.869
-148.199
-147.562
-146.96
-146.392
-145.861
-145.366
-144.907
-144.485
-144.1
-143.751
-143.438
-143.162
-142.921
-142.715
-142.544
-142.407
-142.304
-142.232
-142.192
-142.183
-142.203
-142.251
-142.327
-142.428
-142.555
-142.706
-142.879
-143.075
-143.291
-143.526
-143.78
-144.051
-144.338
-144.639
-144.954
-145.28
-145.617
-145.962
-146.315
-146.673
-147.035
-147.398
-147.762
-148.122
-148.478
-148.827
-149.167
-149.494
-149.806
-150.102
-150.378
-150.633
-150.864
-151.068
-151.244
-151.388
-151.499
-151.573
-151.608
-151.601
-151.549
-151.45
-151.3
-151.097
-150.838
-150.519
-150.139
-149.694
-149.182
-148.599
-147.944
-147.213
-146.406
-145.52
-144.556
-143.511
-142.387
-141.185
-139.906
-138.553
-137.128
-135.633
-134.072
-132.447
-130.762
-129.019
-127.223
-125.376
-123.484
-121.553
-119.59
-117.603
-115.598
-113.584
-111.569
-109.561
-107.567
-105.596
-103.653
-101.744
-99.88
-98.07
-96.327
-94.661
-93.074
-91.567
-90.142
-88.792
-87.509
-86.281
-85.088
-83.913
-82.744
-81.572
-80.396
-79.208
-77.995
-76.742
-75.433
-74.06
-72.621
-71.12
-69.562
-67.962
-66.351
-64.766
-63.266
-61.9
-60.708
-59.721
-58.966
-58.478
-58.302
-58.484
-59.067
-60.076
-61.52
-63.404
-65.742
-68.533
-71.754
-75.366
-79.28
-83.43
-87.803
-92.304
-96.771
-100.971
-104.526
-107.078
-108.398
-108.177
-106.069
-102.059
-96.277
-89.108
-81.453
-74.043
-67.405
-62.34
-59.474
-58.792
-60.036
-62.352
-64.011
-63.673
-60.064
-51.301
-36.047
-13.758
15.648
51.058
90.282
131.247
171.148
205.913
231.807
245.44
243.615
224.354
186.545
129.328
54.234
-34.318
-132.868
-238.032
-347.027
-459.62
-570.075
-668.353
-745.572
-792.016
-805.935
-794.125
-762.702
-719.027
-667.556
-607.465
-540.177
-468.274
-394.633
-324.107
-260.305
-205.05
-159.45
-123.646
-96.818
-77.7
-65.091
-57.432
-52.968
-50.209
-47.621
-43.865
-38.526
-31.744
-23.743
-15.066
-6.351
1.868
8.849
13.891
16.844
17.897
17.39
15.836
13.713
11.421
9.456
8.306
8.214
9.253
11.376
14.426
18.281
22.846
27.986
33.55
39.408
45.435
51.535
57.635
63.646
69.472
75.021
80.204
84.973
89.319
93.252
96.801
100.002
102.895
105.53
107.969
110.268
112.484
114.664
116.852
119.092
121.432
123.916
126.59
129.479
132.596
135.948
139.533
143.344
147.375
151.608
156.024
160.606
165.336
170.2
175.185
180.271
185.44
190.67
195.939
201.228
206.516
211.783
217.006
222.167
227.243
232.215
237.064
241.769
246.308
250.659
254.801
258.711
262.372
265.762
268.863
271.658
274.132
276.271
278.063
279.498
280.566
281.26
281.574
281.505
281.049
280.206
278.976
277.362
275.368
272.999
270.264
267.17
263.728
259.95
255.851
251.443
246.744
241.772
236.543
231.079
225.4
219.526
213.482
207.288
200.97
194.549
188.051
181.498
174.915
168.324
161.749
155.212
148.735
142.339
136.045
129.873
123.841
117.968
112.271
106.766
101.467
96.389
91.543
86.941
82.592
78.505
74.687
71.143
67.876
64.889
62.183
59.756
57.607
55.732
54.126
52.782
51.693
50.849
50.242
49.86
49.691
49.724
49.946
50.342
50.899
51.603
52.438
53.39
54.444
55.585
56.798
58.068
59.38
60.719
62.073
63.428
64.77
66.088
67.37
68.605
69.783
70.896
71.936
72.895
73.768
74.549
75.235
75.823
76.311
76.697
76.982
77.166
77.25
77.237
77.13
76.932
76.648
76.281
75.838
75.323
74.743
74.104
73.414
72.678
71.903
71.098
70.269
69.423
68.568
67.71
66.856
66.012
65.185
64.379
63.599
62.851
62.138
61.463
60.828
60.237
59.69
59.19
58.735
58.326
57.964
57.645
57.37
57.136
56.941
56.782
56.656
56.559
56.488
56.439
56.408
56.389
56.379
56.373
56.365
56.352
56.329
56.291
56.233
56.153
56.046
55.91
55.741
55.539
55.301
55.026
54.715
54.367
53.983
53.563
53.111
52.627
52.114
51.575
51.014
50.435
49.842
49.239
48.633
48.027
47.429
46.842
46.274
45.731
45.219
44.745
44.315
43.935
43.611
43.349
43.154
43.031
42.983
43.014
43.126
43.32
43.597
43.955
44.395
44.913
45.506
46.172
46.906
47.703
48.559
49.469
50.427
51.428
52.463
53.526
54.609
55.702
56.799
57.89
58.967
60.024
61.056
62.058
63.025
63.95
64.825
65.643
66.399
67.088
67.708
68.259
68.741
69.165
69.547
69.897
70.227
70.543
70.844
71.132
71.411
71.684
71.963
72.253
72.551
72.863
73.19
73.523
73.841
74.1
74.234
74.187
73.916
73.391
72.59
71.47
69.981
68.075
65.697
62.824
59.411
55.36
50.635
45.273
39.436
33.456
27.669
22.322
17.696
14.097
11.728
10.689
10.68
10.986
10.97
10.074
7.852
3.998
-1.834
-9.77
-19.111
-28.521
-36.552
-41.609
-42.46
-38.012
-26.693
-7.357
20.099
54.935
95.542
139.702
185.357
229.835
269.123
299.254
316.673
318.293
302.198
267.014
211.588
137.121
47.596
-52.678
-159.385
-270.446
-385.677
-501.111
-608.647
-696.521
-753.092
-773.849
-762.207
-727.591
-680.139
-626.335
-568.492
-506.102
-439.788
-372.027
-306.341
-246.924
-196.35
-155.335
-123.942
-101.127
-85.301
-75.3
-69.657
-66.654
-64.921
-63.092
-59.964
-55.213
-49.045
-41.706
-33.728
-25.749
-18.27
-11.974
-7.521
-5.038
-4.337
-5.105
-6.86
-9.152
-11.612
-13.774
-15.179
-15.602
-14.977
-13.353
-10.882
-7.686
-3.858
0.463
5.129
10.01
14.987
19.968
24.889
29.667
34.213
38.443
42.275
45.669
48.615
51.125
53.228
54.959
56.36
57.483
58.389
59.136
59.778
60.365
60.937
61.541
62.221
63.022
63.987
65.143
66.507
68.086
69.882
71.894
74.116
76.538
79.142
81.916
84.846
87.92
91.126
94.45
97.874
101.381
104.952
108.567
112.208
115.856
119.492
123.096
126.646
130.125
133.512
136.788
139.93
142.918
145.73
148.346
150.745
152.909
154.819
156.46
157.815
158.872
159.62
160.047
160.146
159.909
159.332
158.411
157.144
155.531
153.574
151.276
148.642
145.677
142.391
138.792
134.892
130.703
126.239
121.515
116.549
111.356
105.957
100.37
94.616
88.716
82.69
76.561
70.35
64.08
57.772
51.448
45.128
38.834
32.586
26.402
20.301
14.301
8.418
2.668
-2.933
-8.373
-13.638
-18.717
-23.599
-28.275
-32.737
-36.977
-40.991
-44.773
-48.322
-51.633
-54.708
-57.547
-60.152
-62.524
-64.67
-66.593
-68.3
-69.798
-71.094
-72.196
-73.113
-73.855
-74.431
-74.851
-75.125
-75.264
-75.277
-75.175
-74.969
-74.667
-74.281
-73.819
-73.292
-72.708
-72.077
-71.407
-70.705
-69.981
-69.24
-68.49
-67.737
-66.986
-66.242
-65.51
-64.794
-64.096
-63.42
-62.767
-62.14
-61.54
-60.967
-60.422
-59.905
-59.416
-58.955
-58.521
-58.114
-57.733
-57.377
-57.045
-56.736
-56.45
-56.184
-55.939
-55.712
-55.503
-55.31
-55.132
-54.969
-54.818
-54.68
-54.552
-54.434
-54.325
-54.225
-54.133
-54.048
-53.97
-53.9
-53.837
-53.781
-53.733
-53.692
-53.66
-53.637
-53.621
-53.615
-53.617
-53.628
-53.647
-53.675
-53.711
-53.755
-53.807
-53.866
-53.932
-54.005
-54.084
-54.169
-54.26
-54.357
-54.459
-54.567
-54.68
-54.799
-54.923
-55.053
-55.187
-55.325
-55.467
-55.611
-55.757
-55.904
-56.049
-56.19
-56.327
-56.458
-56.581
-56.694
-56.796
-56.884
-56.958
-57.014
-57.052
-57.069
-57.064
-57.034
-56.976
-56.891
-56.774
-56.624
-56.438
-56.213
-55.948
-55.638
-55.281
-54.874
-54.414
-53.898
-53.324
-52.69
-51.994
-51.236
-50.416
-49.534
-48.593
-47.593
-46.538
-45.43
-44.272
-43.066
-41.817
-40.529
-39.204
-37.846
-36.462
-35.057
-33.637
-32.212
-30.787
-29.369
-27.967
-26.589
-25.242
-23.932
-22.665
-21.448
-20.29
-19.201
-18.193
-17.274
-16.448
-15.715
-15.075
-14.524
-14.052
-13.646
-13.288
-12.962
-12.657
-12.367
-12.086
-11.806
-11.516
-11.197
-10.835
-10.418
-9.941
-9.402
-8.802
-8.151
-7.471
-6.802
-6.184
-5.656
-5.246
-4.976
-4.867
-4.952
-5.266
-5.842
-6.722
-7.933
-9.493
-11.423
-13.745
-16.465
-19.568
-23.023
-26.768
-30.775
-35.054
-39.531
-44.065
-48.436
-52.315
-55.405
-57.497
-58.285
-57.391
-54.732
-50.409
-44.779
-38.663
-32.692
-27.258
-23.042
-20.695
-20.319
-21.752
-24.234
-26.113
-26.157
-23.344
-16.005
-2.74
17.244
44.379
77.865
115.724
156.162
196.796
233.904
263.733
282.534
286.634
273.662
242.011
190.269
119.474
33.398
-63.893
-168.149
-277.479
-392.069
-508.041
-617.039
-706.818
-765.008
-786.836
-776.106
-742.617
-696.763
-645.107
-589.621
-529.182
-464.068
-396.382
-329.267
-267.238
-213.224
-168.088
-132.208
-104.752
-84.191
-69.742
-60.382
-54.323
-50.106
-46.29
-41.411
-35.084
-27.541
-18.857
-9.405
0.15
9.3
17.303
23.357
27.3
29.31
29.664
28.844
27.297
25.396
23.623
22.472
22.207
22.927
24.606
27.11
30.331
34.187
38.556
43.286
48.241
53.311
58.389
63.391
68.23
72.794
77.003
80.807
84.162
87.057
89.508
91.531
93.159
94.442
95.43
96.191
96.798
97.305
97.777
98.285
98.895
99.686
100.704
101.96
103.466
105.226
107.237
109.508
112.033
114.79
117.763
120.932
124.275
127.783
131.433
135.186
139.009
142.855
146.701
150.553
154.407
158.256
162.09
165.888
169.636
173.332
176.96
180.498
183.925
187.212
190.342
193.308
196.1
198.712
201.126
203.315
205.256
206.931
208.323
209.42
210.208
210.668
210.794
210.584
210.039
209.16
207.948
206.399
204.515
202.299
199.755
196.892
193.718
190.243
186.477
182.432
178.124
173.568
168.779
163.77
158.556
153.155
147.582
141.856
135.996
130.018
123.943
117.79
111.578
105.326
99.055
92.78
86.522
80.297
74.123
68.016
61.992
56.067
50.256
44.571
39.028
33.638
28.413
23.365
18.502
13.835
9.371
5.118
1.081
-2.734
-6.323
-9.684
-12.815
-15.715
-18.384
-20.825
-23.039
-25.029
-26.801
-28.36
-29.713
-30.865
-31.826
-32.603
-33.206
-33.643
-33.926
-34.064
-34.067
-33.947
-33.715
-33.382
-32.959
-32.457
-31.888
-31.263
-30.592
-29.887
-29.157
-28.414
-27.665
-26.921
-26.19
-25.48
-24.797
-24.149
-23.54
-22.977
-22.463
-22.001
-21.595
-21.247
-20.958
-20.728
-20.557
-20.446
-20.392
-20.395
-20.451
-20.557
-20.712
-20.911
-21.15
-21.426
-21.734
-22.069
-22.426
-22.801
-23.189
-23.585
-23.984
-24.38
-24.77
-25.149
-25.514
-25.859
-26.182
-26.48
-26.75
-26.989
-27.197
-27.371
-27.511
-27.616
-27.686
-27.721
-27.721
-27.689
-27.624
-27.529
-27.406
-27.257
-27.083
-26.889
-26.676
-26.448
-26.208
-25.959
-25.705
-25.449
-25.194
-24.944
-24.703
-24.474
-24.258
-24.061
-23.883
-23.728
-23.597
-23.491
-23.412
-23.361
-23.337
-23.342
-23.373
-23.43
-23.512
-23.617
-23.744
-23.891
-24.054
-24.232
-24.421
-24.618
-24.82
-25.023
-25.222
-25.414
-25.595
-25.759
-25.903
-26.022
-26.111
-26.166
-26.181
-26.154
-26.078
-25.951
-25.768
-25.526
-25.224
-24.857
-24.426
-23.93
-23.368
-22.741
-22.052
-21.302
-20.493
-19.628
-18.711
-17.745
-16.735
-15.685
-14.599
-13.482
-12.339
-11.178
-10.004
-8.825
-7.646
-6.474
-5.318
-4.183
-3.079
-2.01
-0.98
0.008
0.949
1.837
2.666
3.433
4.14
4.789
5.382
5.922
6.414
6.87
7.307
7.743
8.191
8.658
9.147
9.662
10.212
10.805
11.45
12.152
12.903
13.697
14.537
15.415
16.318
17.215
18.052
18.771
19.329
19.689
19.827
19.728
19.356
18.669
17.633
16.211
14.384
12.145
9.447
6.216
2.459
-1.714
-6.069
-10.253
-13.954
-16.958
-19.013
-19.783
-19.058
-16.905
-13.719
-10.248
-7.265
-5.227
-4.528
-5.751
-9.225
-14.74
-21.556
-28.177
-32.834
-34.281
-31.29
-22.197
-5.764
18.557
50.572
88.746
130.865
174.918
218.181
256.797
286.96
305.043
307.866
293.567
260.818
208.562
138.201
53.707
-40.678
-140.707
-244.594
-352.486
-460.652
-561.329
-643.241
-695.171
-713.057
-700.595
-667.013
-622.13
-572.205
-519.328
-462.577
-402.025
-339.459
-277.883
-221.56
-173.336
-134.079
-103.734
-81.168
-64.967
-54.351
-48.171
-44.648
-42.109
-38.937
-34.178
-27.835
-20.187
-11.46
-2.112
7.195
15.688
22.418
26.932
29.359
29.979
29.229
27.579
25.429
23.295
21.776
21.211
21.719
23.306
25.827
29.168
33.263
37.981
43.174
48.712
54.466
60.341
66.261
72.122
77.815
83.23
88.256
92.831
96.926
100.531
103.665
106.356
108.636
110.552
112.16
113.512
114.664
115.665
116.56
117.402
118.243
119.135
120.132
121.27
122.572
124.055
125.724
127.581
129.625
131.849
134.243
136.798
139.508
142.362
145.347
148.454
151.667
154.969
158.343
161.767
165.222
168.696
172.174
175.645
179.098
182.51
185.862
189.133
192.298
195.344
198.257
201.015
203.598
205.993
208.183
210.162
211.927
213.448
214.699
215.658
216.299
216.615
216.602
216.247
215.544
214.483
213.052
211.251
209.086
206.545
203.626
200.319
196.612
192.534
188.113
183.371
178.338
173.029
167.459
161.657
155.649
149.459
143.115
136.635
130.039
123.362
116.638
109.902
103.194
96.523
89.898
83.338
76.853
70.463
64.189
58.039
52.023
46.158
40.461
34.947
29.634
24.524
19.621
14.928
10.445
6.182
2.149
-1.651
-5.216
-8.545
-11.64
-14.499
-17.123
-19.521
-21.701
-23.674
-25.45
-27.038
-28.445
-29.683
-30.763
-31.696
-32.496
-33.174
-33.742
-34.212
-34.598
-34.912
-35.166
-35.369
-35.532
-35.664
-35.773
-35.868
-35.958
-36.049
-36.148
-36.261
-36.395
-36.552
-36.738
-36.956
-37.208
-37.494
-37.817
-38.176
-38.57
-38.999
-39.461
-39.954
-40.476
-41.024
-41.595
-42.185
-42.792
-43.411
-44.038
-44.671
-45.305
-45.938
-46.566
-47.187
-47.799
-48.399
-48.986
-49.558
-50.114
-50.651
-51.169
-51.666
-52.143
-52.598
-53.032
-53.445
-53.838
-54.212
-54.569
-54.911
-55.239
-55.555
-55.861
-56.159
-56.452
-56.74
-57.026
-57.313
-57.603
-57.899
-58.202
-58.514
-58.836
-59.168
-59.511
-59.863
-60.222
-60.587
-60.955
-61.326
-61.697
-62.066
-62.433
-62.796
-63.155
-63.509
-63.854
-64.187
-64.501
-64.793
-65.056
-65.283
-65.468
-65.606
-65.689
-65.714
-65.682
-65.588
-65.43
-65.202
-64.896
-64.508
-64.037
-63.485
-62.852
-62.145
-61.371
-60.548
-59.703
-58.853
-58.012
-57.186
-56.371
-55.567
-54.774
-53.991
-53.215
-52.442
-51.661
-50.868
-50.066
-49.249
-48.404
-47.503
-46.49
-45.33
-44.008
-42.517
-40.863
-39.053
-37.091
-35.001
-32.824
-30.599
-28.37
-26.165
-23.99
-21.867
-19.825
-17.915
-16.221
-14.801
-13.683
-12.898
-12.467
-12.409
-12.758
-13.505
-14.601
-16.007
-17.684
-19.613
-21.812
-24.288
-27.031
-30.02
-33.206
-36.544
-40.026
-43.638
-47.362
-51.18
-55.047
-58.929
-62.864
-66.923
-71.09
-75.259
-79.207
-82.565
-85.043
-86.465
-86.604
-85.169
-82.048
-77.326
-71.402
-65.158
-59.373
-54.479
-50.961
-49.272
-49.533
-51.589
-54.711
-57.237
-57.603
-54.752
-47.24
-33.642
-13.171
14.798
49.237
86.799
125.584
164.504
202.555
240.682
275.125
297.727
300.945
276.257
221.982
145.213
54.112
-42.394
-139.809
-241.277
-349.486
-462.842
-574.023
-668.885
-734.266
-764.616
-762.541
-737.791
-700.678
-657.224
-609.147
-554.852
-494.079
-429.156
-363.519
-301.698
-246.79
-199.995
-161.992
-132.455
-110.361
-94.804
-84.709
-78.471
-74.609
-71.665
-68.078
-63.13
-56.795
-49.168
-40.598
-31.667
-22.876
-14.923
-8.665
-4.409
-2.081
-1.457
-2.086
-3.526
-5.4
-7.222
-8.461
-8.812
-8.153
-6.494
-3.976
-0.731
3.12
7.433
12.057
16.873
21.811
26.804
31.796
36.721
41.486
46.012
50.237
54.107
57.597
60.717
63.497
66
68.321
70.526
72.67
74.786
76.873
78.942
81.018
83.122
85.28
87.521
89.862
92.328
94.946
97.717
100.631
103.657
106.74
109.845
112.96
116.079
119.227
122.418
125.652
128.933
132.265
135.642
139.06
142.503
145.941
149.357
152.736
156.073
159.374
162.632
165.831
168.948
171.949
174.805
177.491
179.981
182.245
184.26
186.004
187.464
188.635
189.509
190.077
190.327
190.249
189.833
189.078
187.982
186.543
184.766
182.652
180.209
177.444
174.368
170.989
167.317
163.362
159.135
154.65
149.923
144.969
139.805
134.451
128.925
123.25
117.447
111.536
105.539
99.479
93.376
87.252
81.128
75.024
68.962
62.96
57.036
51.21
45.497
39.914
34.477
29.198
24.091
19.168
14.439
9.913
5.599
1.504
-2.369
-6.013
-9.427
-12.609
-15.558
-18.276
-20.765
-23.028
-25.07
-26.896
-28.513
-29.929
-31.153
-32.192
-33.058
-33.76
-34.309
-34.715
-34.99
-35.145
-35.191
-35.139
-35
-34.785
-34.504
-34.168
-33.786
-33.367
-32.921
-32.455
-31.977
-31.493
-31.011
-30.536
-30.073
-29.625
-29.197
-28.791
-28.409
-28.054
-27.725
-27.423
-27.148
-26.898
-26.672
-26.468
-26.285
-26.118
-25.967
-25.826
-25.694
-25.567
-25.441
-25.314
-25.182
-25.042
-24.892
-24.728
-24.549
-24.352
-24.136
-23.899
-23.64
-23.358
-23.053
-22.726
-22.375
-22.003
-21.609
-21.196
-20.766
-20.32
-19.861
-19.392
-18.915
-18.435
-17.955
-17.478
-17.008
-16.549
-16.106
-15.682
-15.281
-14.907
-14.565
-14.256
-13.986
-13.756
-13.57
-13.431
-13.34
-13.298
-13.308
-13.37
-13.484
-13.651
-13.869
-14.137
-14.455
-14.82
-15.23
-15.683
-16.176
-16.704
-17.265
-17.854
-18.467
-19.098
-19.742
-20.395
-21.049
-21.7
-22.341
-22.966
-23.57
-24.145
-24.686
-25.187
-25.642
-26.045
-26.39
-26.674
-26.891
-27.039
-27.114
-27.114
-27.037
-26.884
-26.654
-26.348
-25.968
-25.514
-24.99
-24.398
-23.741
-23.023
-22.248
-21.421
-20.549
-19.639
-18.697
-17.733
-16.752
-15.762
-14.772
-13.789
-12.823
-11.878
-10.963
-10.084
-9.25
-8.472
-7.756
-7.105
-6.519
-5.995
-5.528
-5.114
-4.743
-4.401
-4.072
-3.744
-3.402
-3.042
-2.652
-2.223
-1.743
-1.192
-0.557
0.16
0.958
1.826
2.746
3.704
4.673
5.6
6.441
7.145
7.654
7.936
7.951
7.652
7.01
5.977
4.504
2.566
0.133
-2.809
-6.239
-10.162
-14.603
-19.477
-24.631
-29.829
-34.69
-38.884
-42.174
-44.244
-44.734
-43.462
-40.457
-36.047
-30.994
-26.045
-21.71
-18.538
-17.083
-17.579
-19.857
-23.213
-26.125
-26.9
-24.173
-16.477
-2.394
18.957
47.907
83.99
125.452
169.921
214.885
257.079
292.758
318.366
330.59
326.53
304.342
263.162
202.743
125.099
34.649
-65.065
-170.672
-279.43
-390.839
-499.318
-595.283
-670.051
-714.107
-726.033
-712.626
-680.266
-636.837
-586.614
-528.679
-464.512
-396.345
-326.991
-261.524
-203.352
-154.078
-114.799
-85.166
-63.942
-49.894
-41.629
-37.291
-35.122
-33.496
-30.798
-26.263
-19.932
-12.061
-3.116
6.186
15.183
23.109
29.081
32.79
34.384
34.158
32.61
30.246
27.488
24.856
22.918
21.974
22.131
23.382
25.578
28.603
32.38
36.774
41.628
46.806
52.178
57.641
63.125
68.532
73.757
78.701
83.26
87.379
91.038
94.238
97
99.356
101.34
103.002
104.401
105.596
106.644
107.595
108.493
109.387
110.327
111.363
112.544
113.902
115.455
117.214
119.181
121.357
123.736
126.308
129.056
131.965
135.024
138.219
141.54
144.972
148.497
152.098
155.755
159.448
163.16
166.872
170.564
174.217
177.812
181.33
184.754
188.064
191.241
194.263
197.11
199.763
202.204
204.413
206.374
208.072
209.49
210.618
211.444
211.959
212.153
212.021
211.556
210.757
209.62
208.145
206.333
204.187
201.712
198.913
195.798
192.377
188.658
184.655
180.38
175.848
171.073
166.073
160.863
155.463
149.89
144.163
138.304
132.33
126.262
120.121
113.926
107.698
101.457
95.22
89.008
82.838
76.728
70.694
64.755
58.923
53.216
47.645
42.224
36.966
31.88
26.977
22.265
17.752
13.445
9.348
5.467
1.804
-1.639
-4.86
-7.86
-10.639
-13.2
-15.547
-17.682
-19.61
-21.338
-22.872
-24.217
-25.382
-26.375
-27.203
-27.877
-28.403
-28.792
-29.054
-29.197
-29.231
-29.166
-29.011
-28.775
-28.468
-28.099
-27.676
-27.207
-26.701
-26.165
-25.607
-25.034
-24.451
-23.866
-23.282
-22.706
-22.14
-21.59
-21.057
-20.546
-20.057
-19.593
-19.155
-18.744
-18.361
-18.005
-17.677
-17.375
-17.1
-16.851
-16.625
-16.422
-16.241
-16.08
-15.937
-15.812
-15.701
-15.605
-15.52
-15.447
-15.382
-15.325
-15.274
-15.228
-15.186
-15.147
-15.111
-15.077
-15.045
-15.016
-14.989
-14.966
-14.947
-14.934
-14.927
-14.928
-14.94
-14.962
-14.999
-15.05
-15.12
-15.21
-15.321
-15.456
-15.616
-15.804
-16.02
-16.266
-16.542
-16.85
-17.189
-17.561
-17.966
-18.404
-18.876
-19.38
-19.915
-20.482
-21.078
-21.701
-22.35
-23.021
-23.711
-24.418
-25.137
-25.866
-26.599
-27.331
-28.059
-28.776
-29.478
-30.158
-30.811
-31.432
-32.014
-32.553
-33.045
-33.485
-33.868
-34.194
-34.459
-34.661
-34.8
-34.873
-34.879
-34.818
-34.691
-34.496
-34.236
-33.909
-33.521
-33.073
-32.571
-32.02
-31.425
-30.791
-30.124
-29.431
-28.718
-27.993
-27.26
-26.526
-25.801
-25.092
-24.411
-23.766
-23.161
-22.596
-22.07
-21.58
-21.122
-20.686
-20.26
-19.83
-19.388
-18.926
-18.441
-17.926
-17.371
-16.765
-16.096
-15.354
-14.542
-13.665
-12.731
-11.755
-10.761
-9.775
-8.843
-8.008
-7.303
-6.765
-6.433
-6.342
-6.536
-7.055
-7.923
-9.172
-10.831
-12.92
-15.467
-18.477
-21.926
-25.807
-30.122
-34.81
-39.741
-44.696
-49.344
-53.39
-56.622
-58.783
-59.554
-58.745
-56.411
-52.895
-48.842
-44.888
-41.38
-38.627
-37.133
-37.185
-38.623
-40.831
-42.555
-42.382
-39.431
-32.885
-21.477
-4.226
19.337
49.136
83.896
121.754
161.163
200.019
235.096
263.063
280.564
284.33
272.301
243.033
195.065
129.185
48.775
-42.659
-141.45
-246.018
-356.866
-470.677
-579.381
-670.911
-733.006
-760.315
-756.008
-729.64
-691.117
-646.289
-596.709
-540.749
-478.268
-411.799
-344.848
-281.878
-226.111
-178.783
-140.524
-111.064
-89.323
-74.281
-64.777
-59.103
-55.664
-52.995
-49.618
-44.852
-38.726
-31.399
-23.271
-15.013
-7.199
-0.515
4.261
6.912
7.597
6.606
4.43
1.568
-1.565
-4.463
-6.595
-7.69
-7.649
-6.488
-4.352
-1.351
2.424
6.833
11.72
16.944
22.38
27.926
33.503
39.01
44.344
49.403
54.089
58.352
62.168
65.541
68.494
71.059
73.273
75.189
76.863
78.354
79.716
80.998
82.242
83.498
84.81
86.228
87.796
89.543
91.485
93.631
95.98
98.527
101.268
104.186
107.265
110.486
113.835
117.298
120.861
124.51
128.224
131.984
135.769
139.561
143.34
147.087
150.783
154.41
157.948
161.38
164.689
167.857
170.866
173.696
176.33
178.748
180.935
182.875
184.552
185.953
187.064
187.876
188.38
188.569
188.435
187.975
187.186
186.066
184.615
182.836
180.731
178.306
175.567
172.523
169.182
165.555
161.655
157.494
153.087
148.45
143.598
138.548
133.318
127.925
122.389
116.729
110.963
105.111
99.193
93.228
87.236
81.234
75.243
69.279
63.361
57.505
51.726
46.042
40.465
35.009
29.688
24.513
19.494
14.641
9.963
5.467
1.159
-2.955
-6.871
-10.586
-14.098
-17.405
-20.507
-23.405
-26.099
-28.594
-30.891
-32.994
-34.909
-36.64
-38.193
-39.574
-40.79
-41.847
-42.753
-43.516
-44.143
-44.642
-45.021
-45.288
-45.45
-45.516
-45.492
-45.387
-45.208
-44.96
-44.652
-44.289
-43.876
-43.421
-42.928
-42.403
-41.849
-41.273
-40.676
-40.064
-39.44
-38.807
-38.167
-37.525
-36.882
-36.24
-35.603
-34.972
-34.349
-33.737
-33.137
-32.552
-31.983
-31.431
-30.9
-30.389
-29.902
-29.44
-29.004
-28.597
-28.219
-27.872
-27.558
-27.278
-27.033
-26.824
-26.651
-26.515
-26.416
-26.355
-26.333
-26.348
-26.402
-26.492
-26.62
-26.783
-26.98
-27.209
-27.468
-27.754
-28.065
-28.397
-28.747
-29.11
-29.483
-29.861
-30.239
-30.612
-30.975
-31.323
-31.649
-31.949
-32.219
-32.452
-32.646
-32.795
-32.898
-32.951
-32.953
-32.901
-32.795
-32.633
-32.414
-32.139
-31.808
-31.421
-30.978
-30.482
-29.936
-29.343
-28.709
-28.037
-27.332
-26.599
-25.845
-25.075
-24.297
-23.516
-22.737
-21.964
-21.203
-20.461
-19.749
-19.07
-18.423
-17.808
-17.222
-16.662
-16.125
-15.6
-15.074
-14.534
-13.968
-13.369
-12.741
-12.077
-11.373
-10.624
-9.815
-8.944
-8.019
-7.041
-6.02
-4.971
-3.899
-2.832
-1.817
-0.894
-0.11
0.496
0.91
1.114
1.086
0.808
0.23
-0.685
-1.961
-3.633
-5.706
-8.208
-11.215
-14.713
-18.587
-22.635
-26.521
-29.958
-32.778
-34.747
-35.569
-35.071
-33.192
-30.265
-27.025
-24.064
-21.853
-20.808
-21.257
-23.568
-27.915
-33.638
-39.44
-44.016
-45.934
-44.033
-37.269
-24.152
-3.589
24.421
59.089
98.947
141.866
185.7
227.674
263.857
290.434
304.01
301.592
281.195
241.576
182.802
107.27
18.598
-79.731
-185.954
-299.474
-417.346
-532.203
-632.008
-704.82
-744.487
-752.729
-738.287
-710.129
-673.517
-630.154
-578.522
-518.596
-453.157
-385.605
-320.241
-260.742
-209.093
-166.452
-132.995
-107.886
-89.955
-78.22
-71.289
-67.257
-64.26
-60.469
-54.813
-47.26
-38.108
-27.69
-16.584
-5.548
4.516
12.549
18.038
21.072
21.931
21.079
18.989
16.074
12.888
10.044
7.924
6.71
6.439
7.01
8.369
10.487
13.277
16.633
20.437
24.579
28.978
33.569
38.278
43.026
47.714
52.258
56.598
60.688
64.519
68.091
71.383
74.392
77.132
79.626
81.924
84.079
86.13
88.115
90.076
92.047
94.079
96.209
98.456
100.835
103.343
105.984
108.789
111.773
114.94
118.291
121.809
125.479
129.297
133.251
137.322
141.49
145.728
150.017
154.345
158.701
163.074
167.442
171.773
176.037
180.208
184.26
188.172
191.918
195.47
198.804
201.904
204.754
207.337
209.639
211.636
213.313
214.655
215.65
216.29
216.569
216.48
216.019
215.187
213.983
212.411
210.474
208.176
205.52
202.515
199.168
195.492
191.497
187.198
182.609
177.746
172.629
167.275
161.704
155.935
149.989
143.888
137.651
131.301
124.86
118.348
111.788
105.201
98.607
92.027
85.481
78.987
72.564
66.229
59.997
53.885
47.906
42.073
36.399
30.895
25.571
20.436
15.499
10.764
6.239
1.928
-2.166
-6.041
-9.697
-13.132
-16.347
-19.345
-22.127
-24.698
-27.06
-29.218
-31.178
-32.945
-34.526
-35.928
-37.158
-38.224
-39.132
-39.892
-40.512
-40.998
-41.36
-41.604
-41.74
-41.774
-41.714
-41.568
-41.343
-41.046
-40.683
-40.261
-39.785
-39.262
-38.697
-38.095
-37.46
-36.798
-36.113
-35.409
-34.69
-33.962
-33.227
-32.489
-31.753
-31.021
-30.298
-29.586
-28.888
-28.207
-27.547
-26.91
-26.299
-25.718
-25.168
-24.653
-24.175
-23.738
-23.343
-22.992
-22.689
-22.434
-22.229
-22.076
-21.976
-21.931
-21.942
-22.009
-22.134
-22.315
-22.553
-22.847
-23.195
-23.594
-24.043
-24.539
-25.076
-25.652
-26.261
-26.9
-27.564
-28.246
-28.942
-29.644
-30.345
-31.041
-31.721
-32.379
-33.005
-33.591
-34.131
-34.617
-35.042
-35.4
-35.686
-35.894
-36.021
-36.065
-36.02
-35.881
-35.644
-35.305
-34.864
-34.326
-33.69
-32.96
-32.141
-31.239
-30.265
-29.23
-28.136
-26.989
-25.793
-24.55
-23.273
-21.973
-20.662
-19.353
-18.056
-16.778
-15.534
-14.332
-13.172
-12.054
-10.967
-9.898
-8.853
-7.829
-6.825
-5.849
-4.897
-3.967
-3.065
-2.185
-1.324
-0.48
0.358
1.187
1.992
2.763
3.47
4.075
4.562
4.896
5.045
4.999
4.738
4.246
3.519
2.532
1.249
-0.35
-2.298
-4.608
-7.263
-10.271
-13.624
-17.295
-21.278
-25.526
-29.982
-34.639
-39.515
-44.555
-49.637
-54.528
-58.883
-62.408
-64.893
-66.081
-65.655
-63.448
-59.569
-54.421
-48.725
-43.19
-38.236
-34.294
-31.982
-31.641
-33.08
-35.615
-37.934
-38.557
-36.441
-30.439
-18.971
-0.854
24.388
56.498
94.116
135.217
177.741
218.847
254.661
281.359
295.27
293.048
272.44
231.997
171.946
95.023
4.903
-94.998
-203.42
-320.33
-442.301
-560.958
-662.776
-734.016
-768.241
-768.031
-743.465
-705.527
-660.685
-610.574
-553.304
-488.592
-419.12
-348.811
-282.674
-224.145
-174.639
-134.96
-104.803
-83.037
-68.513
-59.912
-55.391
-53.225
-51.757
-49.267
-44.944
-38.793
-31.007
-22.041
-12.606
-3.323
5.009
11.441
15.622
17.632
17.712
16.348
14.017
11.104
8.126
5.648
3.994
3.336
3.709
4.994
7.108
9.975
13.473
17.47
21.841
26.477
31.291
36.215
41.171
46.079
50.856
55.425
59.722
63.69
67.3
70.556
73.469
76.071
78.4
80.493
82.401
84.178
85.875
87.538
89.209
90.923
92.717
94.63
96.693
98.938
101.384
104.034
106.89
109.948
113.197
116.626
120.219
123.951
127.804
131.759
135.799
139.906
144.062
148.244
152.43
156.598
160.726
164.794
168.78
172.664
176.423
180.038
183.49
186.761
189.831
192.681
195.292
197.646
199.726
201.515
202.999
204.164
204.998
205.49
205.634
205.422
204.849
203.913
202.612
200.946
198.918
196.531
193.79
190.703
187.276
183.522
179.45
175.073
170.406
165.464
160.262
154.819
149.152
143.281
137.225
131.005
124.641
118.156
111.57
104.905
98.184
91.429
84.66
77.9
71.17
64.489
57.878
51.356
44.941
38.651
32.501
26.509
20.687
15.05
9.61
4.378
-0.635
-5.421
-9.972
-14.282
-18.345
-22.157
-25.716
-29.02
-32.069
-34.863
-37.405
-39.696
-41.741
-43.544
-45.112
-46.451
-47.569
-48.474
-49.175
-49.681
-50.003
-50.15
-50.135
-49.967
-49.659
-49.22
-48.664
-48
-47.241
-46.397
-45.479
-44.498
-43.464
-42.385
-41.273
-40.135
-38.979
-37.813
-36.645
-35.481
-34.327
-33.189
-32.072
-30.98
-29.918
-28.888
-27.894
-26.937
-26.019
-25.143
-24.307
-23.514
-22.763
-22.053
-21.385
-20.757
-20.168
-19.618
-19.105
-18.628
-18.185
-17.775
-17.396
-17.047
-16.727
-16.434
-16.169
-15.93
-15.716
-15.528
-15.365
-15.227
-15.113
-15.024
-14.961
-14.924
-14.912
-14.928
-14.972
-15.045
-15.149
-15.283
-15.45
-15.65
-15.884
-16.152
-16.456
-16.794
-17.168
-17.577
-18.02
-18.497
-19.008
-19.551
-20.124
-20.727
-21.356
-22.01
-22.685
-23.378
-24.086
-24.805
-25.53
-26.258
-26.984
-27.703
-28.411
-29.101
-29.77
-30.41
-31.018
-31.586
-32.109
-32.581
-32.998
-33.355
-33.648
-33.872
-34.026
-34.107
-34.113
-34.045
-33.902
-33.683
-33.39
-33.023
-32.584
-32.075
-31.499
-30.857
-30.155
-29.399
-28.595
-27.751
-26.873
-25.97
-25.049
-24.117
-23.184
-22.257
-21.341
-20.444
-19.576
-18.746
-17.968
-17.25
-16.594
-16.003
-15.475
-15.005
-14.587
-14.208
-13.851
-13.503
-13.156
-12.802
-12.442
-12.066
-11.666
-11.23
-10.744
-10.201
-9.601
-8.945
-8.237
-7.494
-6.739
-6.008
-5.347
-4.792
-4.372
-4.11
-4.029
-4.162
-4.541
-5.202
-6.171
-7.46
-9.086
-11.067
-13.423
-16.157
-19.255
-22.673
-26.368
-30.349
-34.57
-38.91
-43.165
-46.997
-50.077
-52.162
-52.973
-52.17
-49.588
-45.301
-39.659
-33.472
-27.578
-22.576
-19.124
-17.864
-19.073
-22.599
-27.717
-32.827
-36.139
-36.153
-31.214
-19.755
-0.725
26.375
61.102
101.727
145.854
190.769
232.988
268.677
294.109
305.63
300.25
276.043
231.717
167.99
88.103
-4.295
-104.942
-211.9
-326.303
-445.584
-563.7
-669.392
-746.42
-785.88
-787.121
-757.035
-709.852
-655.283
-597.428
-537.111
-471.771
-401.884
-330.828
-262.674
-201.964
-151.172
-110.941
-81.033
-60.161
-46.931
-40.03
-37.529
-37.469
-38.043
-37.499
-34.991
-30.482
-24.156
-16.462
-8.163
0.005
7.172
12.387
15.324
16.109
15.035
12.617
9.383
5.785
2.383
-0.237
-1.775
-2.126
-1.311
0.509
3.216
6.72
10.88
15.537
20.553
25.806
31.196
36.648
42.065
47.338
52.364
57.042
61.315
65.162
68.583
71.601
74.248
76.559
78.583
80.378
81.998
83.498
84.926
86.325
87.742
89.224
90.819
92.574
94.518
96.666
99.025
101.594
104.368
107.339
110.492
113.807
117.268
120.858
124.562
128.368
132.26
136.219
140.224
144.255
148.293
152.32
156.315
160.261
164.138
167.927
171.609
175.169
178.586
181.842
184.916
187.788
190.44
192.853
195.01
196.895
198.492
199.788
200.772
201.433
201.763
201.754
201.402
200.703
199.653
198.253
196.504
194.408
191.97
189.194
186.088
182.662
178.925
174.889
170.567
165.972
161.122
156.031
150.718
145.201
139.499
133.633
127.622
121.488
115.252
108.936
102.562
96.15
89.724
83.303
76.908
70.56
64.278
58.08
51.984
46.007
40.166
34.474
28.947
23.596
18.434
13.47
8.715
4.175
-0.141
-4.23
-8.086
-11.706
-15.088
-18.233
-21.14
-23.811
-26.248
-28.456
-30.44
-32.204
-33.755
-35.102
-36.251
-37.212
-37.995
-38.609
-39.064
-39.37
-39.54
-39.584
-39.511
-39.335
-39.064
-38.711
-38.284
-37.793
-37.249
-36.66
-36.035
-35.381
-34.706
-34.017
-33.321
-32.623
-31.929
-31.244
-30.572
-29.917
-29.282
-28.671
-28.085
-27.526
-26.997
-26.497
-26.028
-25.588
-25.18
-24.8
-24.449
-24.126
-23.828
-23.555
-23.304
-23.074
-22.862
-22.668
-22.488
-22.321
-22.166
-22.021
-21.885
-21.756
-21.635
-21.52
-21.411
-21.307
-21.207
-21.111
-21.018
-20.929
-20.843
-20.76
-20.681
-20.604
-20.532
-20.465
-20.402
-20.344
-20.293
-20.248
-20.209
-20.178
-20.155
-20.141
-20.137
-20.143
-20.161
-20.193
-20.239
-20.3
-20.378
-20.472
-20.584
-20.713
-20.859
-21.024
-21.205
-21.405
-21.622
-21.857
-22.109
-22.379
-22.665
-22.967
-23.284
-23.613
-23.953
-24.3
-24.653
-25.01
-25.37
-25.73
-26.09
-26.45
-26.808
-27.164
-27.517
-27.863
-28.199
-28.518
-28.818
-29.093
-29.336
-29.542
-29.706
-29.822
-29.892
-29.914
-29.884
-29.799
-29.65
-29.432
-29.148
-28.797
-28.384
-27.91
-27.382
-26.815
-26.231
-25.653
-25.095
-24.561
-24.05
-23.56
-23.091
-22.644
-22.219
-21.806
-21.386
-20.95
-20.491
-20.005
-19.48
-18.887
-18.173
-17.297
-16.231
-14.969
-13.514
-11.867
-10.027
-8.003
-5.822
-3.536
-1.2
1.147
3.481
5.779
8.01
10.119
12.021
13.65
14.961
15.926
16.528
16.733
16.508
15.836
14.742
13.285
11.525
9.496
7.217
4.702
1.965
-0.951
-3.99
-7.12
-10.314
-13.545
-16.787
-19.998
-23.129
-26.154
-29.088
-31.956
-34.81
-37.718
-40.641
-43.458
-45.97
-47.854
-48.816
-48.652
-47.06
-43.687
-38.531
-31.821
-24.079
-16.343
-9.421
-3.804
-0.246
0.624
-1.131
-5.124
-10.275
-14.494
-16.138
-13.826
-5.592
10.027
33.65
65.414
104.115
147.287
192.645
237.292
277.059
308.033
326.597
329.409
314.481
280.588
226.737
154.465
68.052
-28.165
-129.992
-235.871
-346.383
-457.952
-562.45
-647.87
-702.112
-720.677
-707.661
-673.125
-627.724
-578.185
-526.362
-470.771
-411.207
-349.365
-288.168
-231.969
-183.482
-143.315
-111.624
-87.502
-69.533
-57.058
-49.141
-44.098
-40.587
-37.331
-33.058
-27.478
-20.817
-13.122
-4.733
3.723
11.767
18.721
23.863
27.077
28.538
28.497
27.393
25.639
23.577
21.657
20.341
19.876
20.359
21.767
23.971
26.873
30.389
34.41
38.806
43.456
48.257
53.116
57.964
62.735
67.347
71.722
75.789
79.486
82.78
85.676
88.191
90.355
92.205
93.781
95.132
96.314
97.382
98.386
99.369
100.369
101.425
102.579
103.87
105.334
106.994
108.863
110.943
113.236
115.737
118.44
121.333
124.398
127.619
130.982
134.473
138.079
141.785
145.572
149.419
153.306
157.213
161.12
165.006
168.85
172.63
176.326
179.916
183.381
186.7
189.851
192.812
195.564
198.084
200.355
202.357
204.074
205.49
206.591
207.365
207.802
207.894
207.632
207.013
206.032
204.689
202.983
200.916
198.491
195.714
192.592
189.133
185.348
181.249
176.85
172.164
167.208
162.001
156.559
150.904
145.055
139.033
132.861
126.562
120.157
113.671
107.126
100.545
93.952
87.368
80.816
74.317
67.891
61.557
55.335
49.243
43.296
37.51
31.9
26.479
21.259
16.251
11.464
6.905
2.582
-1.5
-5.338
-8.929
-12.271
-15.365
-18.213
-20.818
-23.183
-25.313
-27.216
-28.899
-30.369
-31.637
-32.712
-33.605
-34.326
-34.889
-35.303
-35.581
-35.736
-35.779
-35.722
-35.578
-35.357
-35.071
-34.731
-34.347
-33.93
-33.488
-33.03
-32.566
-32.101
-31.643
-31.199
-30.774
-30.372
-29.999
-29.656
-29.347
-29.073
-28.837
-28.637
-28.475
-28.349
-28.258
-28.201
-28.175
-28.178
-28.207
-28.26
-28.332
-28.422
-28.525
-28.639
-28.761
-28.888
-29.016
-29.145
-29.271
-29.392
-29.508
-29.617
-29.717
-29.808
-29.891
-29.964
-30.029
-30.087
-30.137
-30.183
-30.225
-30.266
-30.308
-30.353
-30.405
-30.466
-30.54
-30.63
-30.738
-30.868
-31.024
-31.208
-31.422
-31.669
-31.951
-32.27
-32.627
-33.023
-33.457
-33.93
-34.441
-34.989
-35.572
-36.188
-36.835
-37.509
-38.207
-38.925
-39.658
-40.401
-41.15
-41.899
-42.641
-43.371
-44.083
-44.77
-45.426
-46.044
-46.617
-47.138
-47.602
-48.003
-48.333
-48.589
-48.766
-48.86
-48.868
-48.787
-48.617
-48.357
-48.008
-47.571
-47.048
-46.442
-45.757
-44.996
-44.165
-43.268
-42.312
-41.303
-40.25
-39.16
-38.044
-36.909
-35.765
-34.621
-33.486
-32.373
-31.289
-30.243
-29.242
-28.293
-27.406
-26.591
-25.856
-25.203
-24.633
-24.143
-23.732
-23.399
-23.132
-22.917
-22.737
-22.577
-22.425
-22.276
-22.121
-21.953
-21.754
-21.507
-21.204
-20.842
-20.428
-19.965
-19.458
-18.915
-18.368
-17.866
-17.462
-17.215
-17.161
-17.33
-17.758
-18.467
-19.5
-20.908
-22.727
-24.987
-27.708
-30.887
-34.552
-38.754
-43.431
-48.416
-53.452
-58.171
-62.278
-65.583
-67.823
-68.658
-67.911
-65.652
-62.252
-58.4
-54.725
-51.554
-49.229
-48.28
-48.994
-51.181
-54.154
-56.594
-57.035
-54.474
-47.869
-35.753
-17.043
8.652
41.039
78.688
119.513
161.511
202.012
237.249
263.49
277.377
275.839
256.886
219.59
163.411
89.904
3.355
-92.56
-194.293
-298.709
-404.806
-507.303
-597.386
-667.174
-708.428
-720.089
-708.347
-679.145
-639.631
-593.757
-540.972
-482.737
-421.06
-358.361
-298.964
-245.72
-199.971
-162.684
-133.575
-111.575
-95.644
-84.683
-77.193
-71.762
-67.042
-61.579
-54.687
-46.436
-37.052
-26.938
-16.701
-6.869
1.892
8.735
13.329
15.767
16.269
15.294
13.298
10.638
7.795
5.305
3.494
2.547
2.529
3.344
4.924
7.213
10.104
13.487
17.255
21.3
25.543
29.912
34.327
38.709
42.976
47.046
50.853
54.335
57.459
60.229
62.66
64.782
66.635
68.258
69.7
71.021
72.272
73.505
74.765
76.09
77.518
79.095
80.856
82.837
85.061
87.535
90.262
93.239
96.459
99.91
103.576
107.435
111.464
115.647
119.962
124.393
128.917
133.511
138.149
142.806
147.457
152.077
156.642
161.125
165.501
169.746
173.837
177.751
181.464
184.953
188.196
191.169
193.852
196.226
198.273
199.976
201.32
202.293
202.885
203.089
202.899
202.311
201.322
199.935
198.15
195.973
193.409
190.467
187.156
183.487
179.474
175.132
170.477
165.526
160.298
154.814
149.094
143.162
137.038
130.748
124.314
117.762
111.114
104.397
97.633
90.847
84.063
77.303
70.591
63.946
57.39
50.943
44.621
38.443
32.425
26.581
20.925
15.469
10.225
5.203
0.41
-4.145
-8.457
-12.52
-16.331
-19.887
-23.189
-26.236
-29.029
-31.571
-33.867
-35.919
-37.735
-39.321
-40.685
-41.834
-42.777
-43.524
-44.085
-44.47
-44.69
-44.754
-44.675
-44.463
-44.129
-43.684
-43.138
-42.503
-41.788
-41.004
-40.161
-39.268
-38.335
-37.371
-36.385
-35.384
-34.377
-33.37
-32.37
-31.384
-30.417
-29.473
-28.558
-27.674
-26.826
-26.016
-25.245
-24.516
-23.829
-23.186
-22.586
-22.03
-21.516
-21.044
-20.612
-20.221
-19.867
-19.549
-19.265
-19.013
-18.791
-18.597
-18.427
-18.28
-18.152
-18.04
-17.943
-17.857
-17.779
-17.707
-17.639
-17.571
-17.503
-17.431
-17.355
-17.273
-17.184
-17.086
-16.98
-16.865
-16.741
-16.609
-16.468
-16.319
-16.164
-16.003
-15.838
-15.67
-15.502
-15.334
-15.169
-15.009
-14.856
-14.714
-14.583
-14.468
-14.37
-14.293
-14.239
-14.211
-14.213
-14.246
-14.313
-14.417
-14.56
-14.742
-14.966
-15.233
-15.542
-15.894
-16.289
-16.726
-17.202
-17.718
-18.27
-18.855
-19.472
-20.116
-20.783
-21.471
-22.174
-22.887
-23.604
-24.322
-25.033
-25.732
-26.413
-27.068
-27.692
-28.278
-28.819
-29.307
-29.738
-30.103
-30.396
-30.612
-30.746
-30.792
-30.746
-30.606
-30.368
-30.032
-29.596
-29.062
-28.431
-27.705
-26.886
-25.98
-24.99
-23.921
-22.78
-21.571
-20.303
-18.983
-17.62
-16.223
-14.8
-13.363
-11.919
-10.481
-9.06
-7.666
-6.309
-4.997
-3.739
-2.543
-1.419
-0.378
0.573
1.431
2.193
2.858
3.426
3.899
4.286
4.601
4.862
5.083
5.274
5.442
5.593
5.739
5.897
6.083
6.306
6.569
6.871
7.211
7.589
7.995
8.401
8.753
8.99
9.06
8.922
8.552
7.921
6.989
5.697
3.987
1.817
-0.845
-4.01
-7.717
-12.043
-16.989
-22.435
-28.138
-33.744
-38.924
-43.469
-47.138
-49.566
-50.514
-49.988
-48.287
-46.077
-44.022
-42.467
-41.714
-42.235
-44.306
-47.772
-51.972
-55.539
-56.917
-55.013
-48.804
-36.957
-18.373
7.45
40.31
78.898
121.203
165.369
209.095
249.082
281.812
303.934
312.326
304.723
279.623
235.707
173.58
96.396
7.762
-88.926
-192.374
-302.861
-417.61
-528.966
-624.509
-691.764
-724.486
-724.978
-703.038
-668.948
-629.001
-584.992
-534.683
-477.353
-415.27
-351.723
-291.046
-236.281
-188.483
-148.246
-115.701
-90.296
-71.234
-57.653
-48.311
-41.902
-37.323
-33.359
-28.911
-23.58
-17.389
-10.474
-3.256
3.78
10.223
15.482
18.984
20.607
20.522
19.028
16.584
13.62
10.504
7.693
5.645
4.596
4.627
5.705
7.697
10.494
14.012
18.122
22.676
27.547
32.611
37.774
42.967
48.102
53.085
57.825
62.233
66.261
69.897
73.148
76.038
78.598
80.865
82.885
84.717
86.413
88.024
89.594
91.16
92.762
94.443
96.242
98.201
100.344
102.682
105.218
107.95
110.871
113.973
117.24
120.65
124.186
127.831
131.57
135.389
139.271
143.197
147.146
151.097
155.032
158.932
162.776
166.548
170.227
173.795
177.237
180.536
183.675
186.637
189.405
191.961
194.291
196.379
198.211
199.774
201.056
202.046
202.737
203.121
203.191
202.943
202.373
201.48
200.263
198.722
196.86
194.68
192.187
189.388
186.29
182.902
179.235
175.3
171.111
166.68
162.023
157.155
152.093
146.854
141.456
135.916
130.254
124.488
118.637
112.721
106.759
100.771
94.775
88.79
82.836
76.929
71.089
65.333
59.677
54.137
48.729
43.467
38.366
33.438
28.696
24.15
19.809
15.684
11.78
8.104
4.661
1.454
-1.515
-4.243
-6.732
-8.983
-10.998
-12.78
-14.334
-15.666
-16.782
-17.689
-18.396
-18.912
-19.247
-19.411
-19.415
-19.271
-18.99
-18.585
-18.068
-17.453
-16.752
-15.977
-15.142
-14.26
-13.342
-12.401
-11.449
-10.495
-9.551
-8.626
-7.729
-6.868
-6.051
-5.283
-4.572
-3.921
-3.335
-2.818
-2.372
-1.999
-1.699
-1.473
-1.321
-1.241
-1.232
-1.291
-1.417
-1.604
-1.85
-2.151
-2.502
-2.897
-3.332
-3.802
-4.3
-4.821
-5.36
-5.91
-6.467
-7.026
-7.581
-8.129
-8.664
-9.183
-9.683
-10.16
-10.611
-11.036
-11.431
-11.795
-12.129
-12.43
-12.7
-12.938
-13.145
-13.322
-13.471
-13.592
-13.688
-13.76
-13.812
-13.845
-13.863
-13.869
-13.865
-13.855
-13.842
-13.83
-13.821
-13.82
-13.83
-13.854
-13.895
-13.955
-14.038
-14.145
-14.28
-14.444
-14.639
-14.865
-15.125
-15.419
-15.747
-16.111
-16.509
-16.941
-17.408
-17.909
-18.442
-19.006
-19.599
-20.22
-20.866
-21.535
-22.223
-22.929
-23.648
-24.378
-25.114
-25.854
-26.592
-27.325
-28.049
-28.759
-29.45
-30.119
-30.76
-31.369
-31.942
-32.474
-32.962
-33.401
-33.787
-34.117
-34.386
-34.592
-34.731
-34.8
-34.797
-34.719
-34.567
-34.338
-34.032
-33.652
-33.197
-32.672
-32.076
-31.415
-30.691
-29.909
-29.074
-28.19
-27.262
-26.296
-25.298
-24.276
-23.237
-22.189
-21.139
-20.096
-19.066
-18.061
-17.087
-16.151
-15.259
-14.415
-13.625
-12.896
-12.237
-11.653
-11.145
-10.711
-10.352
-10.065
-9.847
-9.686
-9.565
-9.465
-9.371
-9.274
-9.168
-9.045
-8.895
-8.705
-8.458
-8.149
-7.778
-7.348
-6.858
-6.314
-5.727
-5.128
-4.575
-4.126
-3.836
-3.75
-3.897
-4.306
-5.017
-6.082
-7.553
-9.474
-11.876
-14.768
-18.189
-22.206
-26.816
-31.927
-37.319
-42.645
-47.582
-51.886
-55.28
-57.432
-58.117
-57.256
-55.108
-52.306
-49.485
-47.16
-45.791
-45.807
-47.513
-50.95
-55.548
-60.094
-63.142
-63.222
-59.012
-49.219
-32.592
-8.306
23.642
62.343
106.072
152.546
199.249
243.053
280.214
307.034
320.247
317.149
295.885
255.425
195.424
117.869
27.171
-72.204
-176.25
-283.502
-394.273
-505.059
-608.009
-691.087
-742.188
-757.014
-739.608
-700.463
-651.024
-597.835
-542.549
-483.906
-421.497
-357.338
-295.2
-239.299
-192.146
-154.587
-126.328
-106.028
-92.318
-84.055
-79.572
-77.156
-75.218
-72.11
-67.051
-60.086
-51.445
-41.557
-31.1
-20.718
-11.202
-3.517
1.947
5.258
6.627
6.518
5.391
3.608
1.666
0.114
-0.729
-0.693
0.264
2.025
4.501
7.628
11.286
15.358
19.735
24.309
29.006
33.759
38.492
43.133
47.608
51.84
55.768
59.335
62.509
65.296
67.712
69.787
71.559
73.066
74.356
75.487
76.509
77.473
78.423
79.394
80.426
81.562
82.839
84.295
85.954
87.828
89.924
92.243
94.782
97.538
100.497
103.644
106.961
110.437
114.055
117.805
121.671
125.631
129.667
133.758
137.882
142.019
146.148
150.245
154.289
158.257
162.129
165.884
169.5
172.955
176.226
179.294
182.135
184.731
187.063
189.113
190.864
192.302
193.414
194.191
194.622
194.701
194.423
193.783
192.78
191.415
189.689
187.606
185.171
182.392
179.276
175.835
172.081
168.027
163.689
159.082
154.224
149.133
143.83
138.333
132.664
126.845
120.896
114.841
108.701
102.499
96.257
89.997
83.741
77.509
71.321
65.197
59.156
53.215
47.392
41.701
36.157
30.775
25.566
20.542
15.714
11.091
6.679
2.487
-1.482
-5.223
-8.732
-12.01
-15.054
-17.866
-20.447
-22.8
-24.93
-26.84
-28.537
-30.026
-31.315
-32.412
-33.324
-34.062
-34.633
-35.047
-35.315
-35.445
-35.448
-35.334
-35.113
-34.794
-34.388
-33.903
-33.351
-32.74
-32.079
-31.377
-30.642
-29.883
-29.106
-28.321
-27.532
-26.748
-25.972
-25.212
-24.472
-23.756
-23.069
-22.414
-21.793
-21.211
-20.668
-20.167
-19.708
-19.294
-18.923
-18.597
-18.317
-18.08
-17.887
-17.738
-17.63
-17.563
-17.536
-17.546
-17.591
-17.67
-17.781
-17.92
-18.086
-18.275
-18.486
-18.715
-18.96
-19.217
-19.485
-19.761
-20.042
-20.324
-20.607
-20.888
-21.163
-21.432
-21.693
-21.942
-22.18
-22.404
-22.613
-22.807
-22.983
-23.141
-23.282
-23.404
-23.507
-23.591
-23.657
-23.706
-23.737
-23.752
-23.753
-23.739
-23.714
-23.678
-23.633
-23.582
-23.525
-23.467
-23.407
-23.349
-23.295
-23.247
-23.207
-23.176
-23.158
-23.154
-23.165
-23.194
-23.242
-23.31
-23.4
-23.513
-23.65
-23.811
-23.997
-24.208
-24.445
-24.706
-24.991
-25.3
-25.632
-25.985
-26.358
-26.748
-27.154
-27.573
-28.002
-28.439
-28.879
-29.321
-29.76
-30.193
-30.617
-31.028
-31.423
-31.797
-32.148
-32.471
-32.763
-33.02
-33.237
-33.412
-33.54
-33.619
-33.646
-33.616
-33.528
-33.379
-33.165
-32.886
-32.54
-32.124
-31.637
-31.081
-30.454
-29.757
-28.993
-28.162
-27.269
-26.316
-25.308
-24.249
-23.142
-21.994
-20.81
-19.596
-18.356
-17.098
-15.827
-14.55
-13.275
-12.01
-10.761
-9.536
-8.342
-7.187
-6.08
-5.028
-4.036
-3.107
-2.246
-1.456
-0.742
-0.111
0.437
0.902
1.287
1.597
1.833
2.003
2.119
2.2
2.266
2.332
2.407
2.497
2.61
2.755
2.946
3.196
3.511
3.891
4.335
4.844
5.419
6.049
6.706
7.339
7.891
8.315
8.576
8.65
8.514
8.136
7.463
6.447
5.044
3.218
0.957
-1.789
-5.106
-8.994
-13.36
-17.978
-22.49
-26.598
-30.11
-32.781
-34.317
-34.534
-33.369
-31.155
-28.614
-26.307
-24.657
-24.007
-24.621
-26.815
-30.688
-35.561
-40.15
-43.189
-43.372
-39.701
-31.242
-16.584
5.224
34.112
69.249
109.111
151.728
195.223
236.978
273.077
299.805
313.957
312.695
294.204
257.22
200.677
126.038
37.653
-60.966
-166.266
-275.576
-388.683
-499.666
-598.672
-677.105
-725.596
-742.899
-735.838
-710.121
-672.607
-627.384
-573.599
-512.526
-446.587
-378.335
-312.063
-251.448
-198.595
-154.684
-120.086
-94.159
-75.671
-63.74
-57.17
-54.053
-52.719
-51.535
-48.966
-44.58
-38.561
-31.002
-22.337
-13.3
-4.521
3.145
8.866
12.458
14.078
14.008
12.727
10.687
8.288
6.03
4.399
3.655
3.897
5.088
7.092
9.8
13.122
16.946
21.148
25.611
30.238
34.94
39.649
44.298
48.806
53.096
57.094
60.732
63.976
66.83
69.309
71.445
73.274
74.833
76.167
77.335
78.388
79.378
80.347
81.332
82.372
83.509
84.785
86.237
87.889
89.753
91.833
94.13
96.639
99.354
102.262
105.345
108.586
111.972
115.487
119.121
122.856
126.675
130.557
134.482
138.43
142.382
146.319
150.219
154.062
157.829
161.5
165.056
168.479
171.748
174.843
177.743
180.429
182.883
185.088
187.026
188.683
190.044
191.099
191.836
192.248
192.328
192.069
191.468
190.523
189.233
187.601
185.627
183.316
180.676
177.712
174.433
170.852
166.978
162.826
158.409
153.743
148.844
143.73
138.418
132.929
127.28
121.493
115.588
109.586
103.508
97.375
91.209
85.03
78.858
72.715
66.618
60.587
54.641
48.796
43.069
37.475
32.029
26.745
21.635
16.71
11.98
7.455
3.142
-0.952
-4.823
-8.465
-11.877
-15.055
-18
-20.712
-23.192
-25.443
-27.469
-29.274
-30.863
-32.243
-33.422
-34.406
-35.205
-35.827
-36.282
-36.579
-36.729
-36.743
-36.63
-36.401
-36.068
-35.639
-35.126
-34.539
-33.888
-33.181
-32.429
-31.639
-30.821
-29.981
-29.128
-28.268
-27.407
-26.551
-25.706
-24.878
-24.069
-23.285
-22.528
-21.803
-21.11
-20.454
-19.834
-19.254
-18.713
-18.212
-17.752
-17.333
-16.954
-16.615
-16.316
-16.056
-15.833
-15.646
-15.495
-15.379
-15.295
-15.243
-15.221
-15.23
-15.266
-15.33
-15.42
-15.536
-15.675
-15.837
-16.022
-16.227
-16.451
-16.695
-16.955
-17.232
-17.524
-17.83
-18.148
-18.477
-18.815
-19.161
-19.513
-19.87
-20.23
-20.592
-20.953
-21.312
-21.667
-22.017
-22.36
-22.695
-23.019
-23.331
-23.63
-23.914
-24.181
-24.431
-24.662
-24.873
-25.063
-25.232
-25.379
-25.504
-25.606
-25.685
-25.743
-25.779
-25.794
-25.789
-25.767
-25.727
-25.673
-25.606
-25.529
-25.444
-25.353
-25.26
-25.167
-25.077
-24.994
-24.919
-24.857
-24.809
-24.779
-24.77
-24.783
-24.821
-24.885
-24.978
-25.099
-25.249
-25.43
-25.64
-25.881
-26.15
-26.447
-26.771
-27.12
-27.491
-27.881
-28.287
-28.705
-29.132
-29.561
-29.988
-30.409
-30.817
-31.208
-31.574
-31.91
-32.21
-32.468
-32.676
-32.83
-32.923
-32.95
-32.906
-32.787
-32.588
-32.309
-31.945
-31.496
-30.963
-30.344
-29.642
-28.858
-27.993
-27.052
-26.038
-24.953
-23.802
-22.592
-21.326
-20.013
-18.66
-17.273
-15.862
-14.435
-13.002
-11.572
-10.153
-8.75
-7.371
-6.022
-4.712
-3.452
-2.25
-1.11
-0.039
0.961
1.888
2.744
3.537
4.287
5.009
5.716
6.419
7.119
7.826
8.547
9.295
10.082
10.915
11.798
12.731
13.72
14.756
15.822
16.876
17.845
18.663
19.271
19.622
19.687
19.42
18.762
17.651
16.032
13.86
11.118
7.76
3.696
-1.082
-6.48
-12.278
-18.11
-23.646
-28.665
-32.914
-36.045
-37.826
-38.245
-37.576
-36.459
-35.487
-34.936
-35.026
-36.113
-38.41
-41.736
-45.426
-48.181
-48.555
-45.598
-38.514
-26.221
-7.732
17.37
48.884
85.601
125.579
167.162
208.505
246.794
278.785
301.283
311.286
306.786
286.564
249.278
194.404
122.846
37.609
-57.115
-157.774
-260.303
-362.319
-460.85
-548.527
-619.965
-669.792
-693.533
-694.64
-676.268
-641.625
-596.672
-542.931
-482.314
-418.577
-353.434
-290.175
-232.648
-182.9
-142.311
-111.146
-88.305
-72.412
-62.517
-57.264
-54.752
-53.15
-50.666
-46.24
-39.874
-31.9
-22.61
-12.528
-2.356
7.069
14.724
20.091
23.251
24.462
24.162
22.805
20.775
18.572
16.774
15.733
15.614
16.453
18.132
20.553
23.653
27.314
31.412
35.834
40.466
45.227
50.047
54.844
59.54
64.055
68.308
72.236
75.784
78.922
81.654
84
85.987
87.654
89.04
90.192
91.168
92.022
92.803
93.558
94.324
95.142
96.057
97.107
98.326
99.74
101.36
103.193
105.241
107.5
109.968
112.633
115.479
118.492
121.661
124.97
128.41
131.963
135.612
139.338
143.121
146.942
150.78
154.616
158.427
162.194
165.894
169.508
173.015
176.394
179.623
182.681
185.547
188.2
190.62
192.79
194.69
196.305
197.62
198.622
199.301
199.646
199.651
199.309
198.616
197.57
196.171
194.419
192.317
189.872
187.088
183.974
180.541
176.8
172.765
168.449
163.869
159.043
153.987
148.723
143.268
137.645
131.875
125.979
119.98
113.9
107.762
101.588
95.401
89.223
83.075
76.979
70.953
65.018
59.192
53.493
47.937
42.539
37.314
32.275
27.434
22.801
18.386
14.197
10.24
6.52
3.042
-0.194
-3.184
-5.931
-8.434
-10.697
-12.723
-14.518
-16.086
-17.436
-18.574
-19.51
-20.252
-20.812
-21.199
-21.425
-21.501
-21.44
-21.252
-20.95
-20.547
-20.054
-19.483
-18.847
-18.157
-17.423
-16.658
-15.871
-15.073
-14.271
-13.476
-12.695
-11.936
-11.204
-10.507
-9.848
-9.234
-8.668
-8.152
-7.69
-7.283
-6.933
-6.64
-6.404
-6.224
-6.099
-6.028
-6.008
-6.037
-6.113
-6.232
-6.39
-6.585
-6.811
-7.067
-7.346
-7.646
-7.962
-8.29
-8.627
-8.969
-9.312
-9.655
-9.993
-10.325
-10.647
-10.959
-11.259
-11.546
-11.818
-12.075
-12.318
-12.546
-12.76
-12.96
-13.148
-13.324
-13.492
-13.651
-13.805
-13.955
-14.104
-14.255
-14.409
-14.57
-14.739
-14.921
-15.116
-15.329
-15.561
-15.814
-16.091
-16.393
-16.722
-17.078
-17.462
-17.875
-18.316
-18.784
-19.278
-19.797
-20.339
-20.901
-21.48
-22.073
-22.676
-23.286
-23.898
-24.509
-25.112
-25.705
-26.28
-26.834
-27.361
-27.855
-28.311
-28.723
-29.086
-29.395
-29.644
-29.828
-29.942
-29.982
-29.944
-29.825
-29.62
-29.329
-28.949
-28.479
-27.919
-27.271
-26.537
-25.719
-24.821
-23.848
-22.806
-21.7
-20.537
-19.324
-18.068
-16.779
-15.463
-14.129
-12.787
-11.445
-10.114
-8.805
-7.525
-6.287
-5.098
-3.97
-2.913
-1.936
-1.043
-0.24
0.467
1.071
1.564
1.941
2.204
2.355
2.396
2.331
2.166
1.913
1.592
1.225
0.827
0.412
-0.015
-0.449
-0.872
-1.272
-1.63
-1.937
-2.197
-2.414
-2.582
-2.704
-2.795
-2.881
-3.024
-3.285
-3.705
-4.318
-5.147
-6.204
-7.529
-9.171
-11.167
-13.558
-16.36
-19.567
-23.225
-27.4
-32.06
-37.074
-42.182
-47.004
-51.241
-54.697
-57.126
-58.21
-57.77
-55.887
-52.956
-49.702
-46.823
-44.705
-43.7
-44.334
-46.855
-51.007
-56.054
-60.599
-63.059
-62.357
-57.366
-46.552
-28.902
-4.088
27.541
64.43
104.522
145.938
185.984
220.898
247.143
261.463
260.989
244.025
209.413
156.24
85.989
2.829
-89.787
-188.43
-290.421
-395.481
-498.203
-589.253
-660.66
-703.757
-717.251
-707.876
-681.342
-644.399
-601.385
-551.542
-495.907
-436.56
-375.522
-316.527
-262.714
-215.625
-176.027
-144.063
-119.085
-100.078
-86.431
-77.298
-71.234
-67.044
-63.521
-59.409
-54.35
-48.468
-41.738
-34.412
-27.001
-19.895
-13.719
-9.175
-6.396
-5.226
-5.429
-6.587
-8.301
-10.248
-11.988
-13.06
-13.237
-12.444
-10.718
-8.206
-5.018
-1.237
3.014
7.6
12.396
17.292
22.197
27.044
31.756
36.246
40.433
44.238
47.621
50.572
53.105
55.254
57.055
58.551
59.791
60.834
61.736
62.551
63.328
64.109
64.939
65.863
66.927
68.173
69.633
71.322
73.25
75.417
77.823
80.462
83.323
86.391
89.651
93.089
96.691
100.445
104.335
108.341
112.444
116.621
120.852
125.114
129.386
133.646
137.869
142.033
146.116
150.096
153.949
157.653
161.181
164.513
167.623
170.491
173.096
175.418
177.439
179.143
180.515
181.542
182.215
182.524
182.462
182.025
181.21
180.016
178.444
176.499
174.183
171.506
168.476
165.103
161.401
157.384
153.067
148.467
143.604
138.497
133.166
127.634
121.923
116.055
110.054
103.944
97.749
91.491
85.196
78.887
72.585
66.314
60.095
53.949
47.894
41.949
36.133
30.461
24.948
19.608
14.453
9.495
4.744
0.208
-4.106
-8.191
-12.045
-15.662
-19.042
-22.184
-25.088
-27.757
-30.192
-32.398
-34.379
-36.142
-37.692
-39.037
-40.184
-41.142
-41.919
-42.525
-42.969
-43.26
-43.409
-43.424
-43.316
-43.094
-42.768
-42.346
-41.838
-41.253
-40.599
-39.885
-39.117
-38.305
-37.454
-36.572
-35.664
-34.738
-33.799
-32.851
-31.9
-30.95
-30.005
-29.07
-28.146
-27.238
-26.348
-25.479
-24.632
-23.811
-23.016
-22.25
-21.513
-20.808
-20.136
-19.497
-18.894
-18.326
-17.794
-17.3
-16.844
-16.427
-16.049
-15.709
-15.409
-15.148
-14.926
-14.743
-14.598
-14.491
-14.42
-14.385
-14.385
-14.418
-14.484
-14.582
-14.709
-14.864
-15.046
-15.254
-15.485
-15.737
-16.01
-16.3
-16.606
-16.925
-17.256
-17.596
-17.943
-18.295
-18.65
-19.007
-19.362
-19.715
-20.064
-20.408
-20.745
-21.076
-21.399
-21.714
-22.022
-22.322
-22.616
-22.903
-23.184
-23.461
-23.734
-24.004
-24.271
-24.536
-24.8
-25.063
-25.326
-25.589
-25.852
-26.117
-26.383
-26.65
-26.919
-27.189
-27.46
-27.731
-28.002
-28.271
-28.537
-28.799
-29.054
-29.3
-29.534
-29.753
-29.953
-30.131
-30.281
-30.4
-30.482
-30.523
-30.517
-30.461
-30.349
-30.179
-29.945
-29.647
-29.283
-28.851
-28.349
-27.778
-27.137
-26.425
-25.644
-24.795
-23.877
-22.893
-21.845
-20.739
-19.578
-18.369
-17.118
-15.83
-14.512
-13.171
-11.816
-10.454
-9.092
-7.738
-6.4
-5.091
-3.823
-2.607
-1.449
-0.35
0.687
1.665
2.588
3.463
4.305
5.125
5.933
6.736
7.536
8.339
9.154
9.99
10.861
11.773
12.723
13.705
14.71
15.72
16.712
17.652
18.49
19.18
19.685
19.967
19.989
19.715
19.107
18.129
16.763
14.986
12.777
10.119
6.993
3.398
-0.637
-5.093
-9.963
-15.181
-20.608
-26.019
-31.079
-35.48
-38.999
-41.374
-42.273
-41.507
-39.146
-35.55
-31.397
-27.381
-23.912
-21.377
-20.359
-21.189
-23.683
-27.147
-30.212
-31.291
-29.315
-23.256
-11.651
6.604
31.946
64.148
101.711
142.438
184.427
225.268
261.478
289.515
306.003
307.92
293.48
261.779
212.11
144.744
62.59
-30.531
-131.313
-235.052
-339.261
-441.665
-534.82
-613.105
-670.992
-703.014
-712.251
-702.341
-676.356
-639.675
-593.24
-538.061
-477.35
-413.351
-349.43
-288.878
-233.66
-185.242
-144.463
-111.656
-86.394
-67.748
-54.808
-46.368
-41.093
-37.837
-35.3
-32.265
-28.286
-23.347
-17.547
-11.283
-4.988
0.967
5.999
9.526
11.395
11.753
10.885
9.243
7.239
5.22
3.616
2.832
3.07
4.377
6.689
9.853
13.732
18.213
23.143
28.358
33.721
39.114
44.437
49.612
54.548
59.151
63.336
67.051
70.272
73.005
75.274
77.114
78.568
79.69
80.542
81.184
81.674
82.066
82.406
82.747
83.14
83.632
84.271
85.092
86.116
87.356
88.817
90.5
92.401
94.512
96.819
99.311
101.977
104.806
107.788
110.91
114.157
117.512
120.957
124.475
128.048
131.658
135.288
138.918
142.529
146.104
149.624
153.07
156.42
159.653
162.748
165.685
168.444
171.005
173.35
175.462
177.325
178.924
180.249
181.286
182.027
182.462
182.587
182.394
181.883
181.049
179.895
178.421
176.63
174.528
172.121
169.417
166.425
163.155
159.62
155.833
151.808
147.561
143.108
138.466
133.654
128.688
123.59
118.377
113.069
107.687
102.249
96.775
91.284
85.795
80.326
74.894
69.517
64.21
58.99
53.87
48.866
43.988
39.25
34.662
30.234
25.975
21.893
17.995
14.285
10.77
7.452
4.334
1.417
-1.297
-3.81
-6.123
-8.239
-10.16
-11.892
-13.438
-14.804
-15.996
-17.021
-17.886
-18.599
-19.167
-19.599
-19.902
-20.087
-20.161
-20.132
-20.011
-19.805
-19.522
-19.172
-18.762
-18.299
-17.793
-17.249
-16.676
-16.08
-15.467
-14.843
-14.214
-13.586
-12.962
-12.348
-11.746
-11.161
-10.596
-10.053
-9.535
-9.044
-8.582
-8.149
-7.747
-7.376
-7.037
-6.731
-6.456
-6.213
-6.001
-5.819
-5.667
-5.543
-5.447
-5.377
-5.333
-5.312
-5.313
-5.336
-5.377
-5.437
-5.512
-5.602
-5.706
-5.822
-5.948
-6.084
-6.228
-6.38
-6.538
-6.701
-6.869
-7.041
-7.215
-7.392
-7.57
-7.75
-7.929
-8.109
-8.289
-8.468
-8.647
-8.825
-9.002
-9.179
-9.356
-9.533
-9.711
-9.89
-10.071
-10.254
-10.44
-10.63
-10.826
-11.026
-11.233
-11.447
-11.669
-11.898
-12.134
-12.379
-12.63
-12.889
-13.154
-13.424
-13.7
-13.98
-14.263
-14.547
-14.833
-15.117
-15.399
-15.676
-15.947
-16.208
-16.458
-16.694
-16.913
-17.111
-17.287
-17.436
-17.556
-17.642
-17.691
-17.699
-17.663
-17.578
-17.441
-17.251
-17.003
-16.696
-16.329
-15.901
-15.411
-14.862
-14.253
-13.587
-12.865
-12.09
-11.265
-10.393
-9.476
-8.52
-7.527
-6.504
-5.456
-4.391
-3.315
-2.235
-1.159
-0.093
0.954
1.975
2.963
3.911
4.812
5.659
6.446
7.159
7.794
8.349
8.822
9.218
9.541
9.795
9.993
10.149
10.278
10.394
10.51
10.632
10.768
10.931
11.132
11.391
11.721
12.119
12.588
13.118
13.692
14.299
14.91
15.473
15.945
16.277
16.413
16.326
15.976
15.319
14.329
12.959
11.16
8.907
6.169
2.928
-0.794
-5.014
-9.749
-14.916
-20.362
-25.848
-31.017
-35.572
-39.286
-41.859
-42.934
-42.282
-39.935
-36.225
-31.795
-27.312
-23.208
-19.922
-18.098
-18.145
-19.925
-22.799
-25.497
-26.482
-24.651
-18.821
-7.344
10.957
36.537
69.119
107.236
148.853
192.013
233.905
270.661
298.601
314.101
314.055
296.597
259.99
203.871
130.605
43.518
-53.483
-158.411
-272.418
-393.686
-516.192
-628.263
-713.35
-761.648
-771.646
-749.959
-710.383
-662.246
-609.942
-554.394
-492.985
-426.438
-358.085
-291.636
-231.632
-180.616
-139.076
-107.105
-83.753
-67.517
-57.277
-51.544
-48.563
-46.911
-45.179
-42.162
-37.502
-31.368
-24.002
-15.949
-7.86
-0.27
6.123
10.674
13.258
14.059
13.393
11.741
9.548
7.189
5.125
3.8
3.428
4.067
5.659
8.053
11.127
14.785
18.896
23.316
27.919
32.593
37.253
41.84
46.277
50.483
54.381
57.893
60.983
63.647
65.901
67.775
69.309
70.545
71.535
72.342
73.023
73.634
74.224
74.832
75.504
76.282
77.212
78.335
79.679
81.259
83.081
85.147
87.452
89.991
92.752
95.714
98.861
102.177
105.648
109.259
112.992
116.828
120.744
124.718
128.728
132.753
136.77
140.757
144.691
148.551
152.314
155.96
159.469
162.817
165.984
168.947
171.687
174.185
176.421
178.379
180.043
181.4
182.438
183.148
183.521
183.551
183.234
182.567
181.55
180.184
178.47
176.415
174.024
171.305
168.268
164.924
161.285
157.365
153.179
148.744
144.076
139.194
134.116
128.861
123.45
117.902
112.239
106.48
100.647
94.759
88.838
82.904
76.976
71.072
65.212
59.411
53.689
48.058
42.536
37.135
31.868
26.747
21.783
16.986
12.364
7.925
3.676
-0.379
-4.235
-7.889
-11.339
-14.583
-17.622
-20.456
-23.086
-25.516
-27.748
-29.787
-31.637
-33.304
-34.794
-36.114
-37.27
-38.27
-39.121
-39.832
-40.41
-40.864
-41.203
-41.433
-41.565
-41.605
-41.563
-41.446
-41.263
-41.02
-40.726
-40.388
-40.012
-39.606
-39.174
-38.724
-38.26
-37.788
-37.313
-36.839
-36.371
-35.911
-35.463
-35.03
-34.614
-34.218
-33.843
-33.491
-33.163
-32.861
-32.584
-32.334
-32.111
-31.914
-31.745
-31.602
-31.484
-31.393
-31.326
-31.282
-31.262
-31.264
-31.286
-31.328
-31.389
-31.467
-31.561
-31.671
-31.794
-31.93
-32.078
-32.236
-32.404
-32.581
-32.767
-32.959
-33.159
-33.364
-33.576
-33.792
-34.014
-34.24
-34.47
-34.704
-34.941
-35.182
-35.427
-35.674
-35.925
-36.178
-36.435
-36.694
-36.957
-37.224
-37.493
-37.767
-38.044
-38.325
-38.61
-38.899
-39.192
-39.489
-39.79
-40.096
-40.404
-40.716
-41.03
-41.347
-41.664
-41.981
-42.297
-42.611
-42.92
-43.224
-43.519
-43.805
-44.08
-44.341
-44.587
-44.814
-45.022
-45.206
-45.366
-45.498
-45.6
-45.668
-45.701
-45.696
-45.649
-45.559
-45.423
-45.238
-45.002
-44.712
-44.367
-43.964
-43.501
-42.977
-42.39
-41.74
-41.027
-40.25
-39.412
-38.513
-37.556
-36.544
-35.481
-34.371
-33.217
-32.024
-30.797
-29.542
-28.262
-26.962
-25.649
-24.33
-23.011
-21.7
-20.406
-19.136
-17.899
-16.7
-15.548
-14.45
-13.412
-12.44
-11.538
-10.714
-9.974
-9.326
-8.776
-8.322
-7.963
-7.694
-7.505
-7.388
-7.328
-7.307
-7.309
-7.321
-7.331
-7.33
-7.31
-7.256
-7.157
-6.995
-6.759
-6.448
-6.063
-5.609
-5.102
-4.559
-4.01
-3.498
-3.061
-2.731
-2.546
-2.537
-2.739
-3.192
-3.927
-4.965
-6.335
-8.06
-10.162
-12.665
-15.57
-18.854
-22.501
-26.513
-30.827
-35.307
-39.729
-43.742
-47.024
-49.338
-50.408
-49.902
-47.682
-43.841
-38.745
-33.201
-27.992
-23.632
-20.714
-19.823
-21.156
-24.523
-29.184
-33.548
-35.937
-34.987
-29.144
-16.973
2.422
29.436
63.571
103.091
145.712
188.837
229.053
262.662
286.119
295.961
289.288
264.171
219.461
155.849
76.378
-15.194
-115.376
-222.668
-336.677
-454.355
-568.173
-665.726
-734.65
-768.363
-768.431
-744.035
-705.068
-658.049
-605.391
-545.575
-478.695
-407.535
-335.895
-268.961
-210.396
-161.673
-123.575
-95.704
-76.785
-65.524
-60.371
-59.194
-60.001
-60.997
-60.494
-57.721
-52.7
-45.672
-37.169
-28.03
-19.029
-11.021
-4.9
-0.952
0.963
1.138
0.079
-1.697
-3.751
-5.563
-6.606
-6.628
-5.556
-3.432
-0.419
3.359
7.803
12.77
18.108
23.683
29.381
35.108
40.794
46.347
51.673
56.68
61.283
65.438
69.131
72.368
75.177
77.593
79.655
81.413
82.926
84.25
85.441
86.549
87.618
88.697
89.834
91.077
92.471
94.046
95.82
97.803
99.999
102.405
105.019
107.831
110.825
113.989
117.31
120.776
124.378
128.101
131.927
135.839
139.819
143.847
147.905
151.975
156.037
160.072
164.058
167.977
171.81
175.535
179.132
182.579
185.854
188.935
191.803
194.437
196.819
198.932
200.76
202.288
203.504
204.397
204.958
205.179
205.054
204.58
203.755
202.577
201.049
199.173
196.954
194.399
191.516
188.315
184.807
181.005
176.922
172.575
167.981
163.156
158.119
152.89
147.489
141.937
136.254
130.463
124.584
118.64
112.653
106.642
100.63
94.636
88.68
82.781
76.956
71.223
65.597
60.093
54.725
49.506
44.447
39.559
34.85
30.329
26.002
21.874
17.951
14.234
10.726
7.427
4.338
1.456
-1.221
-3.696
-5.973
-8.057
-9.955
-11.673
-13.217
-14.596
-15.818
-16.89
-17.822
-18.622
-19.299
-19.862
-20.32
-20.68
-20.952
-21.143
-21.26
-21.312
-21.305
-21.246
-21.14
-20.994
-20.812
-20.6
-20.361
-20.101
-19.821
-19.525
-19.217
-18.898
-18.569
-18.234
-17.893
-17.548
-17.199
-16.848
-16.493
-16.137
-15.779
-15.418
-15.056
-14.693
-14.327
-13.961
-13.593
-13.224
-12.855
-12.486
-12.118
-11.753
-11.39
-11.032
-10.68
-10.334
-9.997
-9.671
-9.357
-9.056
-8.772
-8.505
-8.257
-8.031
-7.827
-7.646
-7.492
-7.363
-7.263
-7.19
-7.148
-7.135
-7.153
-7.202
-7.282
-7.393
-7.535
-7.707
-7.91
-8.141
-8.401
-8.688
-9.001
-9.338
-9.698
-10.08
-10.483
-10.904
-11.341
-11.794
-12.259
-12.737
-13.224
-13.72
-14.223
-14.733
-15.247
-15.766
-16.288
-16.814
-17.342
-17.872
-18.404
-18.938
-19.472
-20.007
-20.542
-21.076
-21.61
-22.143
-22.675
-23.205
-23.733
-24.257
-24.779
-25.295
-25.806
-26.309
-26.803
-27.287
-27.759
-28.217
-28.659
-29.083
-29.486
-29.866
-30.219
-30.543
-30.833
-31.086
-31.299
-31.466
-31.586
-31.655
-31.67
-31.629
-31.53
-31.372
-31.154
-30.877
-30.539
-30.14
-29.681
-29.162
-28.586
-27.952
-27.262
-26.52
-25.73
-24.898
-24.029
-23.129
-22.204
-21.261
-20.305
-19.344
-18.384
-17.428
-16.486
-15.564
-14.674
-13.827
-13.032
-12.292
-11.61
-10.986
-10.414
-9.889
-9.4
-8.931
-8.47
-8.008
-7.537
-7.057
-6.56
-6.034
-5.468
-4.849
-4.166
-3.419
-2.612
-1.746
-0.845
0.064
0.948
1.754
2.441
2.974
3.317
3.439
3.306
2.878
2.113
0.984
-0.535
-2.459
-4.802
-7.581
-10.783
-14.387
-18.344
-22.601
-27.15
-31.904
-36.704
-41.318
-45.403
-48.635
-50.789
-51.561
-50.585
-47.803
-43.351
-37.612
-31.457
-25.579
-20.408
-16.652
-14.934
-15.28
-17.447
-20.583
-22.933
-23.16
-20.151
-12.208
1.998
23.12
51.424
85.966
124.67
165.65
206.459
243.408
272.88
291.37
295.52
283.186
252.903
203.413
135.866
54.128
-37.611
-135.277
-237.438
-344.716
-453.953
-557.235
-642.168
-696.368
-714.773
-701.142
-666.131
-620.845
-572.383
-522.872
-470.377
-414.262
-355.941
-297.989
-244.597
-198.332
-159.62
-128.532
-104.16
-85.164
-71.001
-60.899
-53.4
-47.386
-41.784
-35.48
-28.248
-20.316
-11.72
-2.755
6.024
14.22
21.239
26.425
29.686
31.193
31.183
30.074
28.26
26.068
23.938
22.332
21.507
21.582
22.556
24.321
26.797
29.913
33.569
37.642
42.011
46.575
51.245
55.949
60.621
65.173
69.523
73.591
77.306
80.629
83.556
86.099
88.281
90.139
91.709
93.039
94.188
95.208
96.149
97.056
97.967
98.922
99.964
101.137
102.478
104.015
105.76
107.72
109.898
112.289
114.888
117.683
120.656
123.792
127.075
130.494
134.034
137.681
141.415
145.216
149.064
152.938
156.82
160.688
164.521
168.299
172
175.606
179.096
182.45
185.647
188.666
191.485
194.086
196.449
198.556
200.39
201.935
203.177
204.104
204.706
204.974
204.899
204.478
203.705
202.579
201.099
199.267
197.085
194.558
191.693
188.498
184.983
181.159
177.039
172.638
167.97
163.053
157.905
152.544
146.99
141.264
135.388
129.382
123.268
117.07
110.809
104.507
98.187
91.87
85.577
79.329
73.145
67.045
61.046
55.167
49.424
43.832
38.404
33.155
28.095
23.236
18.586
14.154
9.945
5.965
2.217
-1.295
-4.571
-7.611
-10.416
-12.988
-15.332
-17.451
-19.351
-21.04
-22.524
-23.811
-24.911
-25.832
-26.583
-27.176
-27.619
-27.924
-28.101
-28.16
-28.113
-27.968
-27.738
-27.431
-27.057
-26.625
-26.144
-25.622
-25.067
-24.486
-23.886
-23.272
-22.651
-22.026
-21.403
-20.785
-20.176
-19.578
-18.994
-18.425
-17.873
-17.339
-16.823
-16.326
-15.849
-15.39
-14.951
-14.53
-14.128
-13.744
-13.379
-13.031
-12.7
-12.387
-12.091
-11.812
-11.551
-11.307
-11.083
-10.878
-10.693
-10.53
-10.389
-10.273
-10.183
-10.12
-10.086
-10.083
-10.112
-10.176
-10.275
-10.411
-10.587
-10.802
-11.058
-11.357
-11.697
-12.081
-12.507
-12.975
-13.484
-14.032
-14.618
-15.241
-15.896
-16.582
-17.296
-18.032
-18.788
-19.56
-20.342
-21.131
-21.92
-22.705
-23.48
-24.239
-24.977
-25.687
-26.365
-27.004
-27.599
-28.144
-28.634
-29.065
-29.431
-29.728
-29.952
-30.1
-30.168
-30.155
-30.058
-29.877
-29.612
-29.263
-28.833
-28.323
-27.737
-27.078
-26.352
-25.565
-24.721
-23.827
-22.892
-21.921
-20.923
-19.906
-18.876
-17.843
-16.815
-15.8
-14.808
-13.846
-12.924
-12.051
-11.234
-10.482
-9.801
-9.193
-8.663
-8.212
-7.845
-7.566
-7.38
-7.282
-7.273
-7.351
-7.509
-7.742
-8.036
-8.367
-8.716
-9.068
-9.41
-9.738
-10.045
-10.318
-10.548
-10.719
-10.824
-10.862
-10.83
-10.719
-10.535
-10.291
-10.023
-9.8
-9.676
-9.699
-9.903
-10.301
-10.92
-11.811
-13.016
-14.586
-16.559
-18.943
-21.789
-25.191
-29.158
-33.597
-38.287
-42.848
-46.949
-50.386
-52.913
-54.219
-54.137
-52.745
-50.445
-47.991
-46.104
-45.167
-45.485
-47.505
-51.411
-56.902
-63.187
-68.791
-72.069
-71.933
-67.34
-56.862
-39.507
-14.9
16.704
53.793
94.278
136.352
177.544
214.314
243.201
260.868
264.205
251.333
221.051
172.243
105.971
25.995
-64.502
-162.206
-264.274
-370.376
-475.295
-569.576
-644.965
-692.463
-710.317
-705.173
-682.881
-650.156
-611.252
-565.277
-513.184
-457.107
-399.103
-342.819
-291.166
-245.538
-206.701
-174.841
-149.374
-129.279
-113.938
-102.621
-94.107
-87.412
-81.479
-75.121
-68.017
-60.353
-52.15
-43.659
-35.338
-27.483
-20.645
-15.497
-12.17
-10.512
-10.299
-11.115
-12.582
-14.405
-16.168
-17.417
-17.891
-17.464
-16.125
-13.978
-11.119
-7.629
-3.629
0.726
5.292
9.936
14.528
18.976
23.206
27.143
30.741
33.97
36.793
39.194
41.182
42.777
44.026
44.987
45.716
46.289
46.794
47.319
47.975
48.848
49.987
51.427
53.174
55.211
57.539
60.158
63.051
66.211
69.617
73.244
77.08
81.098
85.26
89.522
93.821
98.102
102.34
106.52
110.645
114.735
118.796
122.827
126.834
130.811
134.747
138.633
142.444
146.158
149.758
153.234
156.586
159.813
162.898
165.823
168.56
171.076
173.341
175.332
177.02
178.385
179.414
180.092
180.419
180.394
180.017
179.286
178.198
176.752
174.948
172.792
170.292
167.458
164.301
160.835
157.076
153.041
148.748
144.213
139.454
134.486
129.329
124.002
118.525
112.918
107.205
101.405
95.542
89.64
83.719
77.802
71.911
66.064
60.281
54.583
48.985
43.506
38.161
32.966
27.935
23.082
18.417
13.953
9.699
5.663
1.852
-1.729
-5.076
-8.186
-11.058
-13.692
-16.089
-18.252
-20.184
-21.889
-23.373
-24.644
-25.707
-26.573
-27.249
-27.747
-28.076
-28.247
-28.272
-28.161
-27.926
-27.578
-27.129
-26.59
-25.973
-25.288
-24.547
-23.762
-22.942
-22.097
-21.237
-20.372
-19.509
-18.656
-17.821
-17.01
-16.228
-15.48
-14.771
-14.104
-13.482
-12.908
-12.382
-11.906
-11.48
-11.105
-10.78
-10.504
-10.276
-10.094
-9.957
-9.863
-9.811
-9.797
-9.821
-9.879
-9.969
-10.088
-10.235
-10.405
-10.598
-10.809
-11.038
-11.28
-11.536
-11.802
-12.077
-12.359
-12.648
-12.943
-13.242
-13.547
-13.856
-14.169
-14.489
-14.814
-15.146
-15.485
-15.832
-16.189
-16.556
-16.933
-17.323
-17.725
-18.14
-18.568
-19.011
-19.469
-19.941
-20.427
-20.929
-21.445
-21.975
-22.519
-23.076
-23.644
-24.223
-24.811
-25.407
-26.009
-26.614
-27.221
-27.826
-28.426
-29.019
-29.6
-30.167
-30.714
-31.239
-31.736
-32.202
-32.632
-33.023
-33.37
-33.668
-33.915
-34.105
-34.235
-34.302
-34.301
-34.231
-34.089
-33.872
-33.58
-33.211
-32.766
-32.246
-31.653
-30.986
-30.249
-29.444
-28.574
-27.643
-26.654
-25.612
-24.521
-23.387
-22.219
-21.023
-19.808
-18.581
-17.352
-16.127
-14.916
-13.727
-12.57
-11.449
-10.373
-9.348
-8.385
-7.494
-6.682
-5.95
-5.299
-4.725
-4.224
-3.792
-3.419
-3.089
-2.789
-2.508
-2.236
-1.97
-1.705
-1.429
-1.133
-0.8
-0.423
-0.004
0.451
0.938
1.443
1.951
2.438
2.857
3.171
3.344
3.337
3.124
2.678
1.967
0.972
-0.334
-1.984
-3.997
-6.395
-9.196
-12.39
-15.988
-20.024
-24.45
-29.138
-33.882
-38.357
-42.267
-45.406
-47.526
-48.293
-47.498
-45.185
-41.699
-37.747
-34.051
-31.046
-29.108
-28.777
-30.418
-33.907
-38.577
-43.037
-45.633
-45.182
-40.618
-30.534
-13.748
10.322
41.569
78.724
119.761
162.807
205.546
244.68
276.686
298.148
305.854
297.487
271.502
226.603
163.43
85.068
-4.868
-102.763
-206.899
-316.938
-429.673
-537.646
-629.2
-692.805
-722.868
-721.624
-698.205
-662.321
-620.115
-573.696
-521.435
-462.988
-400.621
-337.448
-277.523
-223.594
-176.533
-136.822
-104.556
-79.307
-60.478
-47.258
-38.449
-32.966
-29.839
-28.009
-26.477
-24.474
-21.614
-17.907
-13.627
-9.004
-4.315
0.147
4.093
7.017
8.702
9.325
9.147
8.464
7.605
6.734
5.994
5.824
6.49
8.009
10.387
13.49
17.165
21.405
26.179
31.268
36.487
41.704
46.766
51.625
56.229
60.463
64.252
67.584
70.463
72.929
75.034
76.8
78.267
79.489
80.515
81.401
82.201
82.953
83.704
84.499
85.385
86.407
87.599
88.98
90.564
92.354
94.348
96.544
98.93
101.492
104.218
107.096
110.116
113.269
116.538
119.903
123.347
126.848
130.387
133.945
137.499
141.025
144.51
147.938
151.296
154.574
157.748
160.796
163.695
166.424
168.969
171.321
173.46
175.37
177.044
178.472
179.652
180.59
181.262
181.648
181.734
181.503
180.953
180.089
178.905
177.403
175.58
173.431
170.964
168.19
165.104
161.711
158.006
153.981
149.67
145.106
140.312
135.322
130.153
124.822
119.357
113.787
108.133
102.422
96.672
90.898
85.133
79.407
73.751
68.199
62.755
57.423
52.214
47.134
42.195
37.412
32.786
28.321
24.027
19.912
15.988
12.263
8.737
5.405
2.268
-0.683
-3.439
-5.997
-8.357
-10.52
-12.486
-14.262
-15.848
-17.245
-18.463
-19.512
-20.4
-21.139
-21.735
-22.196
-22.53
-22.745
-22.852
-22.86
-22.777
-22.612
-22.374
-22.07
-21.711
-21.303
-20.854
-20.369
-19.854
-19.314
-18.755
-18.183
-17.602
-17.017
-16.431
-15.849
-15.274
-14.712
-14.163
-13.63
-13.115
-12.621
-12.148
-11.697
-11.27
-10.866
-10.486
-10.13
-9.799
-9.492
-9.209
-8.95
-8.714
-8.503
-8.315
-8.151
-8.01
-7.893
-7.8
-7.73
-7.684
-7.661
-7.662
-7.686
-7.732
-7.799
-7.888
-7.997
-8.125
-8.272
-8.435
-8.615
-8.809
-9.017
-9.237
-9.468
-9.71
-9.961
-10.22
-10.487
-10.759
-11.036
-11.318
-11.603
-11.891
-12.181
-12.47
-12.76
-13.048
-13.334
-13.618
-13.898
-14.173
-14.445
-14.712
-14.974
-15.231
-15.484
-15.733
-15.977
-16.217
-16.453
-16.687
-16.917
-17.144
-17.368
-17.59
-17.809
-18.026
-18.241
-18.452
-18.659
-18.861
-19.057
-19.246
-19.427
-19.596
-19.753
-19.896
-20.023
-20.131
-20.218
-20.281
-20.318
-20.324
-20.298
-20.236
-20.135
-19.992
-19.805
-19.571
-19.288
-18.955
-18.571
-18.135
-17.649
-17.111
-16.522
-15.884
-15.198
-14.465
-13.69
-12.871
-12.014
-11.122
-10.2
-9.252
-8.286
-7.305
-6.316
-5.325
-4.339
-3.366
-2.411
-1.481
-0.579
0.289
1.114
1.887
2.6
3.252
3.845
4.381
4.862
5.292
5.681
6.045
6.404
6.773
7.165
7.585
8.04
8.539
9.098
9.736
10.46
11.268
12.148
13.089
14.077
15.096
16.106
17.044
17.843
18.434
18.765
18.796
18.483
17.792
16.672
15.063
12.927
10.237
6.978
3.164
-1.217
-6.204
-11.726
-17.602
-23.566
-29.211
-34.181
-38.234
-41.05
-42.251
-41.65
-39.275
-35.456
-30.979
-26.603
-22.834
-20.238
-19.354
-20.385
-23.164
-26.976
-30.264
-31.34
-28.778
-21.012
-6.626
15.255
44.954
81.931
124.418
170.044
216.098
259.034
295.039
320.508
331.968
326.523
302.264
258.088
194.808
115.69
24.644
-74.733
-180.939
-293.709
-409.947
-522.108
-617.826
-684.83
-717.032
-716.594
-693.255
-657.446
-615.837
-570.686
-520.138
-463.716
-403.553
-342.777
-285.843
-235.688
-193.207
-158.828
-132.047
-111.757
-97.043
-86.887
-79.792
-74.43
-69.587
-63.967
-57.047
-48.949
-39.864
-30.179
-20.495
-11.304
-3.222
2.982
7.069
9.166
9.497
8.51
6.642
4.226
1.721
-0.37
-1.758
-2.274
-1.877
-0.672
1.265
3.873
7.034
10.632
14.546
18.654
22.887
27.184
31.473
35.694
39.767
43.612
47.173
50.392
53.245
55.749
57.917
59.777
61.383
62.78
64.033
65.22
66.376
67.531
68.722
69.968
71.306
72.781
74.419
76.246
78.283
80.532
83.001
85.693
88.589
91.671
94.912
98.277
101.758
105.354
109.053
112.848
116.723
120.655
124.632
128.64
132.655
136.657
140.62
144.519
148.338
152.064
155.68
159.176
162.526
165.705
168.692
171.467
174.008
176.301
178.325
180.059
181.494
182.62
183.431
183.921
184.083
183.911
183.403
182.556
181.374
179.86
178.018
175.852
173.371
170.585
167.504
164.14
160.505
156.612
152.475
148.108
143.529
138.753
133.798
128.681
123.421
118.037
112.547
106.973
101.331
95.642
89.925
84.197
78.478
72.784
67.133
61.54
56.022
50.591
45.262
40.049
34.961
30.011
25.209
20.563
16.081
11.771
7.638
3.688
-0.075
-3.647
-7.026
-10.211
-13.199
-15.992
-18.589
-20.993
-23.205
-25.23
-27.071
-28.732
-30.219
-31.539
-32.697
-33.701
-34.558
-35.275
-35.861
-36.323
-36.67
-36.909
-37.05
-37.101
-37.069
-36.961
-36.787
-36.553
-36.267
-35.935
-35.564
-35.161
-34.731
-34.281
-33.816
-33.342
-32.864
-32.386
-31.913
-31.448
-30.996
-30.56
-30.141
-29.744
-29.369
-29.017
-28.691
-28.391
-28.117
-27.868
-27.646
-27.448
-27.274
-27.124
-26.995
-26.886
-26.797
-26.725
-26.669
-26.628
-26.6
-26.584
-26.578
-26.581
-26.591
-26.607
-26.629
-26.653
-26.68
-26.708
-26.736
-26.762
-26.786
-26.806
-26.823
-26.834
-26.839
-26.839
-26.832
-26.819
-26.8
-26.774
-26.743
-26.707
-26.666
-26.621
-26.574
-26.526
-26.477
-26.429
-26.383
-26.34
-26.301
-26.268
-26.241
-26.222
-26.211
-26.21
-26.22
-26.241
-26.275
-26.322
-26.383
-26.459
-26.552
-26.661
-26.787
-26.932
-27.095
-27.278
-27.48
-27.702
-27.944
-28.206
-28.488
-28.789
-29.107
-29.443
-29.795
-30.16
-30.537
-30.923
-31.316
-31.714
-32.114
-32.512
-32.907
-33.294
-33.671
-34.035
-34.381
-34.706
-35.007
-35.279
-35.52
-35.725
-35.892
-36.015
-36.093
-36.12
-36.093
-36.008
-35.862
-35.652
-35.375
-35.028
-34.608
-34.115
-33.547
-32.904
-32.188
-31.399
-30.54
-29.614
-28.625
-27.576
-26.473
-25.319
-24.121
-22.884
-21.613
-20.316
-18.999
-17.671
-16.339
-15.012
-13.698
-12.404
-11.138
-9.909
-8.725
-7.595
-6.522
-5.513
-4.573
-3.708
-2.929
-2.24
-1.639
-1.124
-0.69
-0.332
-0.045
0.181
0.364
0.522
0.673
0.828
0.991
1.171
1.377
1.623
1.928
2.299
2.731
3.216
3.743
4.306
4.895
5.481
6.014
6.441
6.706
6.772
6.614
6.202
5.516
4.52
3.166
1.424
-0.73
-3.313
-6.316
-9.762
-13.716
-18.136
-22.867
-27.658
-32.101
-35.837
-38.642
-40.24
-40.278
-38.603
-35.299
-30.772
-25.945
-21.741
-18.722
-17.413
-18.332
-21.635
-27.077
-33.849
-40.167
-43.967
-43.696
-37.931
-25.159
-4.293
25.048
62.619
106.056
151.286
195.81
237.39
274.275
306.838
331.075
339.602
326.259
283.986
213.04
122.05
19.069
-87.615
-195.293
-307.399
-423.108
-536.529
-635.995
-707.637
-744.452
-748.278
-728.188
-694.24
-652.622
-605.227
-550.397
-488.079
-421.044
-352.89
-288.136
-230.062
-180.009
-138.779
-106.578
-82.724
-66.164
-55.782
-50.069
-47.404
-46.387
-45.53
-43.535
-39.936
-34.785
-28.275
-20.919
-13.323
-6.018
0.277
4.877
7.611
8.636
8.251
6.925
5.097
3.134
1.494
0.632
0.763
1.942
4.109
7.102
10.791
15.079
19.826
24.88
30.113
35.405
40.665
45.833
50.829
55.57
59.978
63.977
67.529
70.632
73.3
75.564
77.463
79.036
80.334
81.417
82.34
83.159
83.92
84.662
85.43
86.268
87.217
88.319
89.603
91.083
92.766
94.655
96.748
99.042
101.527
104.188
107.012
109.988
113.104
116.35
119.713
123.177
126.725
130.339
133.999
137.69
141.392
145.086
148.752
152.371
155.925
159.395
162.76
166
169.094
172.022
174.763
177.298
179.608
181.675
183.482
185.014
186.259
187.203
187.837
188.151
188.138
187.792
187.108
186.086
184.722
183.02
180.98
178.608
175.909
172.892
169.565
165.939
162.027
157.843
153.4
148.716
143.807
138.691
133.388
127.918
122.299
116.555
110.705
104.771
98.774
92.737
86.679
80.623
74.589
68.596
62.664
56.812
51.056
45.414
39.902
34.535
29.326
24.289
19.434
14.772
10.313
6.064
2.032
-1.778
-5.361
-8.715
-11.838
-14.729
-17.388
-19.819
-22.022
-24.003
-25.767
-27.318
-28.664
-29.813
-30.771
-31.549
-32.155
-32.6
-32.892
-33.044
-33.064
-32.965
-32.756
-32.448
-32.051
-31.577
-31.034
-30.432
-29.781
-29.09
-28.367
-27.62
-26.858
-26.088
-25.316
-24.549
-23.792
-23.052
-22.332
-21.638
-20.973
-20.341
-19.743
-19.184
-18.663
-18.183
-17.745
-17.349
-16.995
-16.682
-16.41
-16.178
-15.985
-15.829
-15.708
-15.621
-15.566
-15.542
-15.545
-15.576
-15.63
-15.708
-15.806
-15.923
-16.056
-16.204
-16.365
-16.537
-16.717
-16.905
-17.097
-17.292
-17.488
-17.684
-17.876
-18.065
-18.248
-18.423
-18.59
-18.747
-18.893
-19.027
-19.149
-19.259
-19.354
-19.436
-19.504
-19.558
-19.597
-19.622
-19.633
-19.629
-19.611
-19.579
-19.534
-19.476
-19.406
-19.324
-19.233
-19.132
-19.024
-18.909
-18.789
-18.666
-18.541
-18.417
-18.296
-18.18
-18.07
-17.97
-17.881
-17.805
-17.745
-17.701
-17.677
-17.674
-17.693
-17.736
-17.803
-17.898
-18.019
-18.169
-18.347
-18.553
-18.789
-19.052
-19.343
-19.661
-20.004
-20.369
-20.757
-21.164
-21.587
-22.025
-22.473
-22.929
-23.389
-23.848
-24.303
-24.749
-25.182
-25.597
-25.988
-26.353
-26.685
-26.981
-27.236
-27.445
-27.604
-27.709
-27.756
-27.741
-27.661
-27.514
-27.297
-27.009
-26.65
-26.218
-25.716
-25.146
-24.509
-23.809
-23.049
-22.233
-21.366
-20.454
-19.502
-18.515
-17.5
-16.463
-15.413
-14.357
-13.304
-12.26
-11.234
-10.235
-9.27
-8.349
-7.477
-6.66
-5.903
-5.21
-4.588
-4.045
-3.584
-3.206
-2.908
-2.691
-2.551
-2.481
-2.473
-2.507
-2.563
-2.627
-2.686
-2.734
-2.762
-2.759
-2.711
-2.603
-2.428
-2.185
-1.876
-1.499
-1.057
-0.565
-0.05
0.431
0.817
1.06
1.116
0.952
0.548
-0.134
-1.142
-2.519
-4.308
-6.536
-9.214
-12.387
-16.123
-20.415
-25.149
-30.086
-34.869
-39.169
-42.755
-45.363
-46.645
-46.381
-44.621
-41.726
-38.399
-35.366
-33.04
-31.776
-32.116
-34.366
-38.323
-43.267
-47.751
-50.088
-49.13
-43.802
-32.589
-14.324
11.508
44.728
83.826
126.586
171.117
215
254.658
286.468
306.926
312.776
302.078
273.566
225.947
160.109
79.614
-11.653
-109.912
-213.739
-323.856
-437.606
-547.119
-639.746
-702.749
-729.922
-724.044
-695.405
-654.528
-608.081
-558.165
-502.732
-441.377
-376.444
-311.318
-250.803
-198.22
-154.584
-120.277
-94.688
-76.468
-64.476
-57.408
-53.392
-50.809
-48.291
-44.554
-39.14
-32.24
-24.117
-15.268
-6.447
1.742
8.641
13.569
16.399
17.335
16.686
14.939
12.574
9.993
7.665
6.067
5.427
5.826
7.238
9.529
12.599
16.362
20.69
25.439
30.48
35.696
40.996
46.303
51.529
56.577
61.354
65.77
69.779
73.362
76.521
79.281
81.67
83.725
85.496
87.04
88.414
89.671
90.861
92.026
93.212
94.466
95.834
97.362
99.078
101
103.137
105.491
108.06
110.839
113.816
116.974
120.298
123.774
127.388
131.127
134.977
138.918
142.932
146.997
151.093
155.202
159.304
163.378
167.404
171.361
175.23
178.994
182.63
186.119
189.44
192.571
195.492
198.186
200.632
202.815
204.717
206.325
207.626
208.609
209.266
209.588
209.569
209.204
208.492
207.431
206.023
204.269
202.173
199.742
196.982
193.903
190.515
186.83
182.861
178.622
174.129
169.398
164.448
159.296
153.962
148.465
142.827
137.066
131.205
125.265
119.266
113.23
107.178
101.129
95.103
89.12
83.198
77.355
71.607
65.972
60.465
55.099
49.887
44.844
39.979
35.302
30.824
26.551
22.49
18.648
15.028
11.633
8.466
5.528
2.818
0.335
-1.923
-3.959
-5.779
-7.386
-8.788
-9.991
-11.003
-11.832
-12.486
-12.974
-13.308
-13.495
-13.547
-13.474
-13.287
-12.996
-12.612
-12.145
-11.606
-11.006
-10.354
-9.66
-8.934
-8.186
-7.423
-6.655
-5.89
-5.134
-4.396
-3.681
-2.996
-2.344
-1.732
-1.163
-0.64
-0.167
0.255
0.624
0.939
1.199
1.404
1.555
1.651
1.694
1.686
1.628
1.523
1.372
1.179
0.946
0.675
0.37
0.034
-0.329
-0.717
-1.127
-1.555
-1.997
-2.452
-2.915
-3.383
-3.855
-4.328
-4.799
-5.267
-5.73
-6.186
-6.635
-7.076
-7.507
-7.93
-8.343
-8.748
-9.143
-9.53
-9.91
-10.283
-10.65
-11.013
-11.373
-11.731
-12.089
-12.447
-12.808
-13.173
-13.542
-13.919
-14.303
-14.697
-15.101
-15.518
-15.948
-16.392
-16.851
-17.326
-17.817
-18.323
-18.844
-19.38
-19.929
-20.489
-21.059
-21.637
-22.22
-22.806
-23.392
-23.976
-24.553
-25.121
-25.675
-26.213
-26.729
-27.221
-27.685
-28.115
-28.51
-28.864
-29.176
-29.439
-29.652
-29.81
-29.911
-29.951
-29.926
-29.834
-29.673
-29.441
-29.137
-28.76
-28.311
-27.79
-27.2
-26.543
-25.823
-25.042
-24.204
-23.314
-22.377
-21.398
-20.381
-19.333
-18.259
-17.165
-16.06
-14.951
-13.844
-12.747
-11.666
-10.608
-9.583
-8.596
-7.653
-6.756
-5.912
-5.127
-4.411
-3.769
-3.202
-2.709
-2.29
-1.941
-1.657
-1.428
-1.234
-1.055
-0.874
-0.672
-0.442
-0.173
0.149
0.539
1.012
1.581
2.24
2.985
3.813
4.708
5.651
6.6
7.492
8.254
8.817
9.113
9.086
8.684
7.861
6.568
4.756
2.383
-0.572
-4.129
-8.285
-13.039
-18.411
-24.306
-30.527
-36.803
-42.737
-47.962
-52.225
-55.186
-56.459
-55.962
-53.777
-50.225
-46.09
-41.981
-38.269
-35.596
-34.487
-34.911
-36.64
-38.901
-40.098
-39.007
-34.533
-25.028
-9.32
13.045
42.173
77.045
115.604
155.916
195.358
230.128
256.726
271.927
272.627
256.874
223.527
171.669
102.743
20.893
-70.631
-168.549
-270.271
-375.586
-479.013
-571.188
-643.997
-688.636
-703.914
-696.453
-671.92
-637.079
-596.009
-547.979
-494.157
-436.535
-377.206
-320.127
-268.48
-223.956
-187.479
-158.839
-137.038
-120.99
-109.933
-102.786
-98.021
-94.175
-89.783
-84.019
-76.958
-68.873
-59.98
-50.696
-41.569
-33.275
-26.7
-22.264
-19.858
-19.244
-20.025
-21.796
-24.223
-26.852
-29.135
-30.731
-31.468
-31.294
-30.303
-28.573
-26.15
-23.135
-19.643
-15.782
-11.661
-7.363
-2.95
1.499
5.91
10.204
14.3
18.133
21.647
24.81
27.624
30.104
32.277
34.181
35.852
37.338
38.696
39.979
41.232
42.501
43.82
45.23
46.771
48.481
50.392
52.529
54.899
57.508
60.355
63.435
66.738
70.253
73.957
77.835
81.868
86.042
90.339
94.74
99.224
103.768
108.348
112.942
117.526
122.077
126.571
130.983
135.292
139.473
143.505
147.367
151.035
154.486
157.7
160.656
163.334
165.717
167.788
169.531
170.935
171.988
172.681
173.007
172.96
172.538
171.737
170.56
169.008
167.085
164.797
162.152
159.159
155.83
152.177
148.214
143.959
139.426
134.636
129.608
124.362
118.92
113.303
107.534
101.636
95.632
89.546
83.401
77.219
71.024
64.837
58.68
52.575
46.541
40.598
34.763
29.055
23.489
18.08
12.843
7.79
2.933
-1.718
-6.154
-10.368
-14.353
-18.104
-21.617
-24.89
-27.922
-30.714
-33.266
-35.581
-37.663
-39.518
-41.15
-42.567
-43.777
-44.786
-45.606
-46.244
-46.711
-47.018
-47.175
-47.193
-47.083
-46.855
-46.522
-46.093
-45.58
-44.993
-44.342
-43.637
-42.888
-42.104
-41.293
-40.464
-39.623
-38.779
-37.938
-37.106
-36.287
-35.487
-34.709
-33.957
-33.234
-32.541
-31.88
-31.253
-30.659
-30.098
-29.571
-29.075
-28.611
-28.176
-27.769
-27.387
-27.029
-26.693
-26.375
-26.074
-25.787
-25.511
-25.246
-24.988
-24.736
-24.487
-24.24
-23.994
-23.748
-23.499
-23.248
-22.993
-22.735
-22.472
-22.206
-21.937
-21.664
-21.39
-21.114
-20.839
-20.566
-20.296
-20.031
-19.774
-19.526
-19.288
-19.064
-18.856
-18.665
-18.493
-18.343
-18.216
-18.115
-18.039
-17.991
-17.972
-17.982
-18.02
-18.088
-18.185
-18.309
-18.459
-18.635
-18.833
-19.054
-19.293
-19.548
-19.817
-20.096
-20.382
-20.671
-20.959
-21.241
-21.514
-21.772
-22.011
-22.227
-22.415
-22.569
-22.685
-22.758
-22.782
-22.755
-22.67
-22.523
-22.312
-22.031
-21.679
-21.253
-20.753
-20.177
-19.525
-18.801
-18.004
-17.139
-16.206
-15.21
-14.155
-13.046
-11.886
-10.681
-9.437
-8.16
-6.858
-5.539
-4.213
-2.886
-1.567
-0.265
1.011
2.254
3.453
4.603
5.696
6.725
7.68
8.55
9.329
10.015
10.608
11.11
11.526
11.861
12.125
12.335
12.506
12.654
12.789
12.92
13.053
13.203
13.382
13.608
13.891
14.23
14.62
15.057
15.527
16.015
16.491
16.904
17.207
17.355
17.296
16.998
16.42
15.526
14.291
12.682
10.662
8.212
5.312
1.938
-1.889
-6.173
-10.945
-16.099
-21.46
-26.787
-31.686
-35.833
-39.029
-40.96
-41.26
-39.877
-36.932
-32.841
-28.489
-24.51
-21.233
-19.229
-19.009
-20.563
-23.602
-27.183
-29.513
-29.225
-25.288
-16.252
-0.925
21.27
50.517
85.887
125.254
166.647
207.796
245.44
276.246
296.969
304.374
296.194
271.087
227.733
166.713
91.111
4.308
-89.54
-188.336
-293.148
-401.818
-509.047
-604.922
-674.851
-710.679
-711.744
-684.444
-642.163
-594.309
-545.109
-495.327
-442.084
-385.228
-327.161
-270.778
-219.667
-175.534
-138.559
-108.806
-85.552
-67.881
-55.151
-46.311
-40.198
-35.914
-32.426
-28.726
-24.42
-19.462
-13.894
-8.06
-2.341
2.966
7.376
10.383
11.861
11.939
10.868
9.067
6.917
4.741
2.945
1.919
1.86
2.822
4.755
7.517
10.987
15.063
19.6
24.442
29.46
34.54
39.592
44.541
49.303
53.781
57.892
61.58
64.819
67.613
69.983
71.958
73.579
74.896
75.968
76.852
77.603
78.269
78.893
79.523
80.206
80.987
81.913
83.016
84.315
85.823
87.545
89.48
91.625
93.969
96.497
99.197
102.057
105.063
108.207
111.474
114.846
118.308
121.839
125.42
129.035
132.664
136.287
139.886
143.442
146.935
150.347
153.659
156.85
159.899
162.785
165.488
167.988
170.268
172.309
174.094
175.609
176.839
177.773
178.401
178.713
178.702
178.362
177.689
176.68
175.336
173.658
171.649
169.313
166.657
163.689
160.42
156.86
153.021
148.918
144.566
139.981
135.181
130.182
125.005
119.669
114.194
108.6
102.908
97.139
91.313
85.451
79.574
73.701
67.852
62.046
56.301
50.635
45.064
39.604
34.27
29.076
24.034
19.155
14.449
9.926
5.593
1.457
-2.478
-6.207
-9.727
-13.037
-16.136
-19.024
-21.703
-24.175
-26.443
-28.512
-30.387
-32.072
-33.575
-34.901
-36.058
-37.052
-37.894
-38.589
-39.148
-39.578
-39.888
-40.088
-40.186
-40.19
-40.11
-39.953
-39.727
-39.44
-39.1
-38.712
-38.284
-37.82
-37.328
-36.813
-36.278
-35.729
-35.169
-34.603
-34.033
-33.463
-32.895
-32.332
-31.777
-31.231
-30.698
-30.177
-29.672
-29.183
-28.713
-28.261
-27.83
-27.419
-27.03
-26.663
-26.318
-25.996
-25.696
-25.42
-25.166
-24.936
-24.73
-24.547
-24.388
-24.252
-24.14
-24.052
-23.986
-23.944
-23.925
-23.927
-23.952
-23.997
-24.062
-24.147
-24.249
-24.368
-24.501
-24.647
-24.804
-24.97
-25.143
-25.32
-25.5
-25.681
-25.861
-26.038
-26.21
-26.376
-26.535
-26.684
-26.823
-26.949
-27.063
-27.162
-27.247
-27.316
-27.368
-27.404
-27.423
-27.424
-27.408
-27.374
-27.322
-27.252
-27.165
-27.06
-26.938
-26.799
-26.644
-26.474
-26.289
-26.09
-25.878
-25.653
-25.415
-25.163
-24.899
-24.621
-24.328
-24.02
-23.695
-23.352
-22.99
-22.607
-22.2
-21.768
-21.308
-20.817
-20.294
-19.735
-19.139
-18.503
-17.825
-17.103
-16.337
-15.526
-14.67
-13.768
-12.823
-11.833
-10.801
-9.728
-8.616
-7.467
-6.284
-5.068
-3.824
-2.555
-1.267
0.035
1.345
2.657
3.965
5.26
6.536
7.784
8.999
10.175
11.308
12.391
13.418
14.379
15.268
16.086
16.831
17.502
18.102
18.633
19.106
19.539
19.948
20.349
20.749
21.153
21.567
21.999
22.46
22.965
23.517
24.114
24.756
25.442
26.167
26.918
27.659
28.333
28.878
29.24
29.372
29.244
28.828
28.083
26.961
25.412
23.396
20.879
17.85
14.266
10.055
5.229
-0.112
-5.736
-11.28
-16.432
-20.964
-24.6
-27.019
-27.996
-27.433
-25.621
-23.227
-20.797
-18.76
-17.481
-17.261
-18.463
-21.258
-25.044
-28.613
-30.734
-30.095
-25.657
-16.473
-1.116
21.502
51.426
87.903
129.488
174.092
219.655
263.562
301.873
330.606
346.371
346.17
327.932
290.477
232.99
156.934
66.691
-33.195
-138.564
-247.537
-360.065
-472.45
-576.714
-660.89
-713.246
-729.63
-713.834
-675.974
-627.019
-573.321
-516.832
-456.743
-393.004
-327.839
-265.011
-208.645
-161.253
-123.668
-95.555
-75.531
-62.132
-54.142
-49.878
-47.632
-45.839
-42.91
-38.118
-31.54
-23.446
-14.282
-4.714
4.622
12.964
19.401
23.586
25.634
25.803
24.577
22.434
19.764
17.069
14.911
13.617
13.331
14.068
15.699
18.114
21.242
24.96
29.132
33.632
38.345
43.179
48.063
52.916
57.648
62.169
66.393
70.245
73.687
76.707
79.317
81.548
83.431
85.01
86.332
87.456
88.436
89.325
90.17
91.011
91.892
92.856
93.947
95.207
96.661
98.324
100.202
102.297
104.605
107.121
109.834
112.727
115.784
118.99
122.334
125.803
129.381
133.05
136.79
140.582
144.405
148.241
152.068
155.868
159.619
163.3
166.894
170.38
173.74
176.952
179.998
182.857
185.509
187.938
190.126
192.057
193.715
195.088
196.165
196.934
197.389
197.521
197.326
196.8
195.94
194.747
193.221
191.365
189.183
186.681
183.868
180.752
177.343
173.653
169.696
165.486
161.038
156.369
151.496
146.437
141.21
135.835
130.33
124.716
119.012
113.238
107.414
101.559
95.694
89.837
84.006
78.22
72.497
66.852
61.303
55.864
50.549
45.374
40.349
35.488
30.799
26.294
21.98
17.864
13.953
10.251
6.762
3.488
0.43
-2.411
-5.036
-7.447
-9.648
-11.641
-13.431
-15.025
-16.428
-17.647
-18.689
-19.564
-20.28
-20.845
-21.269
-21.562
-21.734
-21.795
-21.756
-21.626
-21.416
-21.136
-20.797
-20.407
-19.978
-19.517
-19.034
-18.537
-18.033
-17.531
-17.037
-16.556
-16.095
-15.658
-15.25
-14.873
-14.531
-14.227
-13.962
-13.738
-13.555
-13.413
-13.314
-13.255
-13.236
-13.255
-13.312
-13.403
-13.528
-13.682
-13.865
-14.072
-14.301
-14.548
-14.811
-15.087
-15.372
-15.663
-15.956
-16.25
-16.542
-16.828
-17.107
-17.376
-17.635
-17.881
-18.113
-18.33
-18.532
-18.719
-18.889
-19.044
-19.184
-19.31
-19.421
-19.52
-19.607
-19.684
-19.752
-19.812
-19.867
-19.917
-19.964
-20.011
-20.059
-20.11
-20.166
-20.23
-20.302
-20.386
-20.484
-20.596
-20.725
-20.874
-21.042
-21.232
-21.445
-21.682
-21.944
-22.232
-22.546
-22.885
-23.251
-23.643
-24.06
-24.5
-24.964
-25.45
-25.955
-26.478
-27.017
-27.57
-28.134
-28.708
-29.289
-29.873
-30.457
-31.04
-31.616
-32.182
-32.735
-33.271
-33.785
-34.275
-34.734
-35.161
-35.55
-35.897
-36.198
-36.45
-36.649
-36.79
-36.872
-36.891
-36.845
-36.732
-36.551
-36.302
-35.985
-35.602
-35.153
-34.641
-34.067
-33.436
-32.75
-32.014
-31.23
-30.403
-29.537
-28.638
-27.711
-26.763
-25.801
-24.832
-23.862
-22.898
-21.95
-21.024
-20.128
-19.265
-18.44
-17.658
-16.926
-16.254
-15.645
-15.102
-14.622
-14.204
-13.846
-13.544
-13.287
-13.057
-12.836
-12.607
-12.363
-12.099
-11.81
-11.487
-11.117
-10.681
-10.176
-9.602
-8.969
-8.281
-7.543
-6.771
-5.999
-5.288
-4.704
-4.304
-4.125
-4.194
-4.538
-5.196
-6.23
-7.694
-9.633
-12.074
-15.02
-18.5
-22.58
-27.249
-32.396
-37.79
-43.082
-47.955
-52.202
-55.571
-57.742
-58.507
-57.792
-55.839
-53.253
-50.61
-48.35
-46.886
-46.626
-47.848
-50.612
-54.412
-58.139
-60.523
-60.27
-56.168
-46.983
-31.542
-9.072
20.461
56.253
96.806
140.111
183.762
224.622
259.084
283.643
294.967
290.176
267.165
224.526
162.731
84.698
-5.972
-105.926
-213.878
-329.727
-450.276
-567.56
-668.559
-740.185
-775.792
-777.307
-754.401
-717.497
-673.05
-623.097
-565.816
-501.02
-431.453
-360.933
-294.553
-235.918
-186.542
-147.34
-118.087
-97.67
-84.927
-78.485
-76.401
-76.814
-77.937
-77.948
-75.934
-71.803
-65.697
-58.044
-49.572
-40.966
-33.085
-26.919
-22.847
-20.798
-20.531
-21.572
-23.44
-25.726
-27.901
-29.389
-29.897
-29.321
-27.687
-25.163
-21.872
-17.906
-13.41
-8.545
-3.449
1.758
6.987
12.177
17.245
22.094
26.634
30.775
34.469
37.7
40.473
42.813
44.753
46.331
47.597
48.611
49.429
50.106
50.692
51.229
51.765
52.35
53.032
53.859
54.865
56.07
57.486
59.119
60.969
63.036
65.31
67.778
70.428
73.248
76.229
79.362
82.633
86.026
89.525
93.111
96.766
100.472
104.212
107.965
111.713
115.436
119.115
122.731
126.265
129.695
132.999
136.156
139.143
141.942
144.53
146.889
149
150.846
152.412
153.683
154.648
155.296
155.616
155.602
155.248
154.55
153.506
152.115
150.378
148.299
145.884
143.137
140.069
136.689
133.008
129.04
124.798
120.299
115.56
110.597
105.429
100.077
94.561
88.9
83.118
77.236
71.275
65.259
59.209
53.148
47.097
41.077
35.109
29.214
23.411
17.718
12.153
6.732
1.472
-3.615
-8.513
-13.211
-17.699
-21.967
-26.006
-29.81
-33.372
-36.689
-39.756
-42.573
-45.137
-47.45
-49.512
-51.325
-52.894
-54.222
-55.315
-56.179
-56.82
-57.247
-57.468
-57.492
-57.328
-56.986
-56.476
-55.809
-54.996
-54.047
-52.972
-51.783
-50.49
-49.103
-47.632
-46.087
-44.478
-42.813
-41.102
-39.353
-37.574
-35.772
-33.956
-32.131
-30.304
-28.481
-26.669
-24.872
-23.095
-21.344
-19.621
-17.931
-16.277
-14.663
-13.091
-11.563
-10.082
-8.649
-7.266
-5.934
-4.654
-3.427
-2.254
-1.135
-0.071
0.938
1.892
2.791
3.635
4.424
5.158
5.838
6.465
7.038
7.56
8.03
8.45
8.822
9.146
9.425
9.66
9.853
10.006
10.121
10.2
10.246
10.262
10.249
10.21
10.147
10.064
9.963
9.846
9.717
9.578
9.43
9.278
9.123
8.968
8.814
8.664
8.52
8.384
8.256
8.138
8.031
7.936
7.853
7.783
7.725
7.678
7.643
7.617
7.601
7.592
7.59
7.591
7.595
7.6
7.602
7.601
7.593
7.578
7.552
7.515
7.464
7.397
7.314
7.213
7.093
6.953
6.792
6.611
6.41
6.188
5.947
5.688
5.413
5.123
4.822
4.512
4.197
3.879
3.563
3.253
2.954
2.67
2.407
2.169
1.961
1.789
1.658
1.572
1.535
1.552
1.626
1.759
1.954
2.212
2.532
2.916
3.363
3.874
4.446
5.077
5.766
6.51
7.306
8.148
9.03
9.945
10.887
11.847
12.819
13.795
14.766
15.722
16.656
17.562
18.431
19.255
20.026
20.73
21.361
21.916
22.395
22.801
23.135
23.402
23.61
23.775
23.907
24.019
24.12
24.211
24.298
24.392
24.503
24.648
24.835
25.063
25.329
25.628
25.951
26.286
26.611
26.881
27.061
27.118
27.011
26.716
26.206
25.446
24.419
23.094
21.429
19.402
16.982
14.145
10.895
7.215
3.06
-1.519
-6.393
-11.349
-16.055
-20.223
-23.664
-26.136
-27.305
-26.973
-25.179
-22.269
-18.942
-15.865
-13.396
-11.847
-11.698
-13.273
-16.449
-20.566
-24.258
-25.964
-24.613
-19.261
-8.646
8.35
32.308
63.148
99.646
139.847
181.942
223.747
262.163
293.67
314.72
322.115
313.533
287.355
242.302
178.059
96.784
2.862
-99.039
-204.707
-312.54
-422.386
-530.406
-629.045
-706.96
-752.9
-763.173
-741.731
-698.659
-645.2
-587.931
-528.805
-466.925
-401.977
-335.916
-272.451
-215.641
-167.791
-129.633
-100.775
-79.829
-65.52
-56.714
-51.68
-48.723
-46.303
-42.861
-37.724
-30.984
-22.837
-13.711
-4.295
4.806
12.839
18.938
22.822
24.606
24.546
23.123
20.802
17.966
15.111
12.77
11.244
10.692
11.14
12.472
14.603
17.454
20.901
24.812
29.058
33.528
38.133
42.799
47.448
51.999
56.372
60.491
64.296
67.733
70.778
73.435
75.721
77.669
79.321
80.718
81.913
82.964
83.925
84.846
85.771
86.737
87.785
88.955
90.281
91.797
93.523
95.466
97.631
100.016
102.614
105.415
108.407
111.57
114.885
118.339
121.913
125.595
129.365
133.205
137.093
141.007
144.928
148.836
152.708
156.524
160.263
163.905
167.428
170.815
174.046
177.099
179.955
182.595
184.999
187.152
189.035
190.635
191.938
192.932
193.608
193.957
193.973
193.652
192.99
191.986
190.641
188.956
186.935
184.583
181.908
178.918
175.623
172.033
168.162
164.024
159.634
155.008
150.163
145.118
139.89
134.501
128.968
123.313
117.556
111.719
105.82
99.882
93.924
87.966
82.028
76.128
70.284
64.515
58.835
53.261
47.808
42.489
37.317
32.304
27.459
22.794
18.315
14.031
9.948
6.07
2.401
-1.056
-4.299
-7.328
-10.144
-12.747
-15.141
-17.329
-19.315
-21.103
-22.701
-24.114
-25.349
-26.414
-27.316
-28.065
-28.669
-29.136
-29.476
-29.697
-29.81
-29.822
-29.744
-29.584
-29.351
-29.053
-28.699
-28.297
-27.854
-27.378
-26.876
-26.355
-25.82
-25.278
-24.733
-24.191
-23.656
-23.131
-22.621
-22.129
-21.656
-21.206
-20.78
-20.38
-20.007
-19.662
-19.346
-19.058
-18.799
-18.569
-18.366
-18.19
-18.041
-17.917
-17.817
-17.739
-17.683
-17.647
-17.63
-17.629
-17.644
-17.672
-17.712
-17.763
-17.823
-17.89
-17.963
-18.042
-18.124
-18.208
-18.294
-18.381
-18.468
-18.554
-18.638
-18.721
-18.8
-18.877
-18.952
-19.023
-19.091
-19.157
-19.222
-19.285
-19.347
-19.41
-19.474
-19.54
-19.61
-19.684
-19.765
-19.853
-19.951
-20.06
-20.181
-20.317
-20.469
-20.638
-20.827
-21.035
-21.265
-21.516
-21.79
-22.087
-22.407
-22.75
-23.116
-23.505
-23.915
-24.347
-24.798
-25.268
-25.753
-26.252
-26.763
-27.282
-27.807
-28.333
-28.858
-29.377
-29.887
-30.382
-30.86
-31.314
-31.74
-32.132
-32.487
-32.797
-33.06
-33.269
-33.422
-33.513
-33.541
-33.502
-33.395
-33.219
-32.975
-32.661
-32.278
-31.827
-31.31
-30.729
-30.086
-29.385
-28.627
-27.819
-26.965
-26.072
-25.147
-24.197
-23.227
-22.245
-21.26
-20.279
-19.31
-18.359
-17.435
-16.543
-15.694
-14.899
-14.166
-13.498
-12.895
-12.358
-11.883
-11.467
-11.102
-10.772
-10.463
-10.162
-9.855
-9.539
-9.204
-8.84
-8.433
-7.967
-7.435
-6.837
-6.181
-5.472
-4.725
-3.956
-3.199
-2.508
-1.932
-1.523
-1.336
-1.41
-1.79
-2.519
-3.626
-5.148
-7.124
-9.573
-12.516
-15.973
-19.923
-24.365
-29.319
-34.672
-40.244
-45.786
-50.909
-55.291
-58.728
-60.909
-61.476
-60.369
-57.695
-53.833
-49.613
-45.611
-42.119
-39.662
-38.724
-39.295
-41.131
-43.395
-44.439
-43.031
-38.267
-28.809
-13.538
8.073
36.252
70.224
108.042
147.885
187.636
224.162
254.156
274.411
281.72
273.559
248.471
205.415
144.189
67.216
-22.007
-120.581
-223.98
-329.219
-433.515
-529.001
-609.546
-669.168
-702.151
-711.334
-700.105
-671.918
-632.626
-583.416
-525.788
-463.309
-398.246
-334.232
-274.96
-222.311
-177.645
-141.643
-113.922
-93.512
-79.319
-70.105
-64.262
-60.334
-56.958
-52.75
-47.135
-40.198
-32.131
-23.355
-14.489
-6.054
1.291
6.789
10.207
11.669
11.434
9.956
7.675
4.962
2.282
0.139
-1.17
-1.514
-0.879
0.623
2.899
5.876
9.439
13.455
17.796
22.354
27.039
31.781
36.509
41.136
45.575
49.746
53.58
57.038
60.111
62.81
65.159
67.194
68.955
70.49
71.859
73.117
74.314
75.498
76.706
77.982
79.369
80.91
82.642
84.592
86.773
89.19
91.843
94.728
97.837
101.156
104.664
108.344
112.179
116.153
120.25
124.452
128.738
133.085
137.47
141.872
146.268
150.635
154.951
159.192
163.337
167.363
171.249
174.973
178.513
181.846
184.95
187.804
190.388
192.683
194.672
196.338
197.668
198.65
199.275
199.534
199.421
198.933
198.067
196.822
195.201
193.208
190.846
188.124
185.05
181.634
177.89
173.83
169.469
164.824
159.913
154.755
149.37
143.778
138.002
132.063
125.984
119.79
113.503
107.146
100.745
94.321
87.898
81.498
75.143
68.854
62.65
56.551
50.573
44.734
39.049
33.532
28.197
23.055
18.117
13.391
8.887
4.61
0.566
-3.241
-6.808
-10.134
-13.218
-16.061
-18.665
-21.034
-23.171
-25.082
-26.773
-28.25
-29.523
-30.6
-31.489
-32.2
-32.745
-33.133
-33.374
-33.481
-33.463
-33.331
-33.097
-32.77
-32.362
-31.881
-31.338
-30.743
-30.103
-29.429
-28.728
-28.008
-27.276
-26.538
-25.802
-25.073
-24.357
-23.657
-22.979
-22.326
-21.703
-21.11
-20.552
-20.029
-19.543
-19.095
-18.686
-18.314
-17.98
-17.684
-17.424
-17.2
-17.01
-16.852
-16.726
-16.629
-16.56
-16.517
-16.498
-16.5
-16.523
-16.564
-16.622
-16.695
-16.781
-16.88
-16.99
-17.11
-17.238
-17.373
-17.515
-17.661
-17.811
-17.964
-18.118
-18.274
-18.431
-18.589
-18.748
-18.908
-19.071
-19.235
-19.403
-19.573
-19.748
-19.928
-20.113
-20.306
-20.506
-20.716
-20.936
-21.168
-21.412
-21.667
-21.936
-22.217
-22.51
-22.814
-23.127
-23.449
-23.778
-24.112
-24.453
-24.798
-25.146
-25.499
-25.856
-26.217
-26.578
-26.938
-27.292
-27.636
-27.964
-28.271
-28.551
-28.8
-29.011
-29.181
-29.309
-29.392
-29.424
-29.401
-29.312
-29.153
-28.925
-28.625
-28.256
-27.824
-27.339
-26.819
-26.285
-25.748
-25.215
-24.686
-24.155
-23.618
-23.069
-22.5
-21.911
-21.3
-20.664
-20.003
-19.317
-18.591
-17.803
-16.918
-15.893
-14.708
-13.357
-11.841
-10.181
-8.399
-6.524
-4.602
-2.665
-0.733
1.176
3.058
4.903
6.681
8.357
9.878
11.182
12.237
13.023
13.53
13.766
13.749
13.514
13.113
12.585
11.946
11.194
10.313
9.291
8.129
6.825
5.387
3.832
2.165
0.394
-1.482
-3.496
-5.684
-8.107
-10.826
-13.865
-17.253
-21.035
-25.164
-29.517
-33.883
-37.923
-41.346
-43.992
-45.634
-45.97
-44.858
-42.378
-38.893
-35.118
-31.698
-28.918
-27.074
-26.658
-27.89
-30.569
-34.02
-36.834
-37.479
-35.096
-28.812
-17.132
0.958
25.864
57.635
94.009
132.215
171.525
209.71
245.246
276.986
298.629
305.282
292.523
255.423
196.48
119.297
28.209
-70.033
-172.81
-277.346
-379.471
-475.308
-559.044
-625.807
-673.008
-699.505
-706.01
-693.746
-664.252
-620.551
-566.22
-505.103
-441.311
-377.754
-316.599
-260.34
-210.855
-169.112
-135.686
-110.052
-90.833
-77.17
-68.119
-62.083
-57.701
-53.635
-48.535
-42.038
-34.394
-25.698
-16.298
-6.823
2.246
10.204
16.291
20.351
22.525
23.03
22.294
20.722
18.64
16.494
14.719
13.52
12.999
13.14
13.824
14.988
16.566
18.457
20.573
22.829
25.176
27.601
30.084
32.591
35.092
37.55
39.954
42.327
44.674
47.017
49.387
51.798
54.284
56.881
59.601
62.453
65.43
68.496
71.633
74.842
78.109
81.431
84.793
88.152
91.489
94.792
98.042
101.234
104.357
107.393
110.345
113.229
116.07
118.908
121.768
124.657
127.587
130.559
133.58
136.663
139.808
142.999
146.225
149.471
152.722
155.966
159.183
162.336
165.392
168.31
171.056
173.605
175.933
178.018
179.84
181.379
182.623
183.566
184.2
184.518
184.512
184.175
183.505
182.504
181.175
179.523
177.553
175.271
172.682
169.795
166.62
163.164
159.438
155.451
151.214
146.743
142.053
137.16
132.082
126.838
121.446
115.926
110.3
104.586
98.804
92.975
87.118
81.252
75.398
69.574
63.797
58.087
52.459
46.929
41.513
36.225
31.078
26.084
21.254
16.6
12.128
7.849
3.768
-0.108
-3.776
-7.23
-10.469
-13.492
-16.299
-18.89
-21.269
-23.437
-25.399
-27.161
-28.728
-30.106
-31.302
-32.324
-33.181
-33.879
-34.429
-34.84
-35.12
-35.278
-35.325
-35.269
-35.121
-34.887
-34.579
-34.204
-33.77
-33.285
-32.758
-32.194
-31.601
-30.986
-30.354
-29.711
-29.061
-28.41
-27.761
-27.118
-26.484
-25.862
-25.254
-24.661
-24.086
-23.53
-22.993
-22.477
-21.981
-21.506
-21.052
-20.619
-20.206
-19.812
-19.439
-19.084
-18.748
-18.43
-18.13
-17.847
-17.582
-17.332
-17.099
-16.882
-16.681
-16.496
-16.326
-16.172
-16.034
-15.912
-15.806
-15.717
-15.645
-15.59
-15.552
-15.532
-15.531
-15.548
-15.584
-15.639
-15.713
-15.805
-15.917
-16.048
-16.198
-16.367
-16.554
-16.759
-16.983
-17.224
-17.482
-17.756
-18.047
-18.352
-18.673
-19.008
-19.356
-19.718
-20.092
-20.478
-20.875
-21.283
-21.699
-22.123
-22.554
-22.99
-23.431
-23.873
-24.316
-24.759
-25.199
-25.636
-26.067
-26.491
-26.906
-27.31
-27.701
-28.077
-28.435
-28.775
-29.092
-29.385
-29.652
-29.889
-30.095
-30.265
-30.399
-30.491
-30.539
-30.541
-30.492
-30.39
-30.232
-30.017
-29.742
-29.406
-29.009
-28.55
-28.03
-27.451
-26.813
-26.118
-25.368
-24.566
-23.715
-22.816
-21.874
-20.891
-19.873
-18.824
-17.753
-16.664
-15.564
-14.46
-13.36
-12.269
-11.195
-10.146
-9.126
-8.143
-7.204
-6.317
-5.495
-4.743
-4.064
-3.461
-2.93
-2.467
-2.066
-1.716
-1.401
-1.108
-0.825
-0.541
-0.249
0.059
0.397
0.778
1.216
1.726
2.306
2.958
3.677
4.446
5.244
6.041
6.786
7.436
7.952
8.289
8.403
8.254
7.79
6.973
5.777
4.166
2.113
-0.411
-3.435
-6.959
-10.952
-15.386
-20.246
-25.448
-30.846
-36.199
-41.133
-45.295
-48.43
-50.239
-50.375
-48.692
-45.249
-40.346
-34.762
-29.265
-24.358
-20.67
-18.812
-18.969
-20.996
-24.222
-27.058
-27.839
-25.28
-17.771
-3.707
17.856
47.319
84.297
126.158
169.868
213.647
253.938
288.634
316.136
330.232
326.622
301.153
249.351
175.404
85.705
-13.815
-116.228
-221.813
-332.88
-446.694
-556.575
-649.384
-711.737
-738.173
-731.752
-702.9
-662.46
-616.938
-568.184
-514.192
-454.438
-391.014
-327.053
-267.058
-214.169
-169.458
-133.527
-106.004
-85.791
-72.04
-63.732
-59.222
-57.002
-55.608
-53.475
-49.9
-44.871
-38.447
-30.962
-23.022
-15.144
-8.038
-2.568
0.981
2.696
2.799
1.737
-0.064
-2.252
-4.357
-5.858
-6.463
-6.052
-4.635
-2.352
0.685
4.389
8.633
13.269
18.164
23.205
28.297
33.374
38.366
43.191
47.77
52.028
55.905
59.37
62.424
65.082
67.374
69.337
71.011
72.446
73.698
74.82
75.862
76.867
77.872
78.917
80.041
81.284
82.68
84.253
86.013
87.963
90.105
92.434
94.943
97.62
100.449
103.413
106.501
109.698
112.992
116.369
119.812
123.301
126.819
130.347
133.868
137.363
140.813
144.2
147.505
150.711
153.8
156.754
159.555
162.185
164.625
166.859
168.869
170.642
172.162
173.417
174.395
175.086
175.484
175.581
175.371
174.853
174.022
172.88
171.427
169.666
167.601
165.236
162.579
159.639
156.423
152.945
149.214
145.246
141.053
136.651
132.056
127.286
122.357
117.287
112.096
106.801
101.422
95.977
90.486
84.968
79.44
73.923
68.432
62.986
57.601
52.292
47.075
41.964
36.972
32.112
27.396
22.833
18.435
14.208
10.162
6.303
2.636
-0.834
-4.104
-7.171
-10.034
-12.694
-15.15
-17.405
-19.46
-21.321
-22.99
-24.473
-25.775
-26.904
-27.865
-28.667
-29.316
-29.822
-30.193
-30.438
-30.565
-30.583
-30.501
-30.329
-30.074
-29.746
-29.352
-28.902
-28.403
-27.863
-27.289
-26.688
-26.068
-25.434
-24.791
-24.146
-23.502
-22.864
-22.237
-21.623
-21.026
-20.448
-19.891
-19.358
-18.849
-18.367
-17.911
-17.483
-17.082
-16.708
-16.362
-16.042
-15.748
-15.479
-15.235
-15.013
-14.814
-14.636
-14.477
-14.337
-14.213
-14.105
-14.011
-13.93
-13.86
-13.802
-13.752
-13.712
-13.679
-13.653
-13.633
-13.619
-13.609
-13.603
-13.6
-13.6
-13.602
-13.605
-13.61
-13.614
-13.619
-13.623
-13.626
-13.629
-13.631
-13.631
-13.631
-13.629
-13.625
-13.621
-13.616
-13.611
-13.607
-13.603
-13.6
-13.6
-13.603
-13.609
-13.619
-13.635
-13.657
-13.685
-13.721
-13.766
-13.821
-13.887
-13.964
-14.056
-14.162
-14.283
-14.421
-14.577
-14.75
-14.942
-15.153
-15.383
-15.631
-15.898
-16.182
-16.484
-16.802
-17.134
-17.479
-17.835
-18.2
-18.57
-18.944
-19.318
-19.688
-20.051
-20.404
-20.743
-21.063
-21.361
-21.632
-21.872
-22.077
-22.241
-22.36
-22.429
-22.444
-22.4
-22.296
-22.126
-21.889
-21.583
-21.206
-20.759
-20.242
-19.655
-19
-18.277
-17.489
-16.638
-15.729
-14.765
-13.748
-12.687
-11.587
-10.457
-9.305
-8.138
-6.965
-5.794
-4.634
-3.493
-2.379
-1.299
-0.26
0.727
1.654
2.509
3.284
3.977
4.588
5.118
5.573
5.96
6.289
6.575
6.831
7.064
7.284
7.494
7.699
7.91
8.138
8.395
8.694
9.034
9.415
9.834
10.275
10.716
11.136
11.495
11.758
11.904
11.903
11.725
11.351
10.753
9.906
8.799
7.406
5.702
3.67
1.28
-1.466
-4.542
-7.948
-11.7
-15.746
-19.973
-24.163
-27.983
-31.143
-33.428
-34.572
-34.246
-32.249
-28.664
-23.888
-18.658
-13.77
-9.743
-7.061
-6.408
-8.165
-12.105
-17.471
-22.78
-26.23
-26.524
-22.338
-11.88
6.077
31.965
65.485
104.998
148.196
192.986
236.471
274.577
303.501
319.773
320.269
303.194
267.43
211.988
138.445
51.293
-45.971
-149.896
-257.935
-370.354
-481.41
-580.752
-659.297
-706.941
-722.204
-712.698
-684.829
-646.131
-600.976
-547.994
-488.1
-423.498
-356.548
-291.587
-232.184
-180.203
-136.737
-102.156
-75.883
-56.82
-44.216
-37.064
-33.701
-32.685
-32.515
-31.591
-29.346
-25.835
-20.991
-15.083
-8.676
-2.217
3.566
7.827
10.37
11.347
10.981
9.724
8.001
6.148
4.649
3.987
4.377
5.871
8.399
11.779
15.877
20.586
25.75
31.206
36.805
42.421
47.964
53.357
58.515
63.344
67.756
71.692
75.133
78.082
80.568
82.628
84.3
85.638
86.701
87.548
88.236
88.82
89.344
89.858
90.412
91.055
91.832
92.782
93.923
95.269
96.826
98.593
100.57
102.747
105.113
107.654
110.362
113.224
116.233
119.376
122.636
125.998
129.443
132.954
136.513
140.101
143.7
147.29
150.853
154.367
157.815
161.177
164.429
167.55
170.518
173.312
175.91
178.291
180.437
182.329
183.949
185.284
186.32
187.043
187.445
187.516
187.249
186.639
185.683
184.379
182.728
180.732
178.395
175.723
172.723
169.406
165.781
161.862
157.662
153.196
148.482
143.536
138.378
133.026
127.502
121.826
116.02
110.106
104.107
98.045
91.941
85.819
79.7
73.604
67.553
61.565
55.661
49.859
44.175
38.625
33.225
27.988
22.926
18.051
13.373
8.9
4.639
0.596
-3.223
-6.816
-10.181
-13.316
-16.221
-18.898
-21.35
-23.58
-25.593
-27.395
-28.991
-30.389
-31.597
-32.624
-33.479
-34.17
-34.709
-35.106
-35.371
-35.514
-35.546
-35.479
-35.321
-35.084
-34.778
-34.411
-33.994
-33.533
-33.039
-32.518
-31.978
-31.426
-30.866
-30.307
-29.751
-29.205
-28.672
-28.156
-27.659
-27.186
-26.736
-26.314
-25.92
-25.554
-25.219
-24.914
-24.64
-24.396
-24.182
-23.996
-23.839
-23.709
-23.605
-23.525
-23.468
-23.433
-23.418
-23.422
-23.444
-23.482
-23.534
-23.601
-23.68
-23.771
-23.873
-23.984
-24.105
-24.235
-24.372
-24.516
-24.667
-24.824
-24.986
-25.151
-25.32
-25.49
-25.661
-25.831
-26
-26.166
-26.328
-26.484
-26.634
-26.776
-26.909
-27.032
-27.143
-27.241
-27.326
-27.397
-27.453
-27.494
-27.519
-27.529
-27.522
-27.5
-27.462
-27.407
-27.336
-27.248
-27.145
-27.026
-26.892
-26.744
-26.584
-26.414
-26.235
-26.05
-25.86
-25.669
-25.479
-25.292
-25.112
-24.941
-24.783
-24.641
-24.519
-24.419
-24.345
-24.299
-24.282
-24.297
-24.344
-24.424
-24.535
-24.679
-24.853
-25.056
-25.286
-25.544
-25.829
-26.138
-26.471
-26.827
-27.203
-27.598
-28.007
-28.426
-28.848
-29.266
-29.675
-30.067
-30.438
-30.78
-31.087
-31.354
-31.577
-31.75
-31.868
-31.922
-31.901
-31.796
-31.605
-31.331
-30.977
-30.557
-30.08
-29.554
-28.998
-28.422
-27.831
-27.225
-26.592
-25.918
-25.2
-24.44
-23.65
-22.842
-22.014
-21.164
-20.286
-19.363
-18.385
-17.335
-16.181
-14.901
-13.497
-11.984
-10.404
-8.816
-7.251
-5.731
-4.269
-2.869
-1.55
-0.329
0.786
1.787
2.663
3.391
3.922
4.216
4.27
4.101
3.764
3.334
2.853
2.348
1.843
1.35
0.891
0.476
0.08
-0.34
-0.821
-1.386
-2.02
-2.707
-3.462
-4.327
-5.379
-6.714
-8.393
-10.462
-12.958
-15.932
-19.473
-23.597
-28.183
-32.989
-37.673
-41.916
-45.518
-48.252
-49.753
-49.767
-48.298
-45.649
-42.512
-39.616
-37.376
-36.144
-36.44
-38.59
-42.457
-47.368
-51.888
-54.303
-53.361
-47.947
-36.671
-18.364
7.5
40.718
79.898
122.826
167.439
211.367
251.346
283.781
305.199
312.55
303.742
277.491
232.729
169.225
89.108
-3.425
-103.866
-208.169
-314.892
-424.053
-532.155
-631.874
-712.017
-761.383
-775.86
-758.875
-719.92
-669.517
-614.009
-555.407
-492.974
-426.777
-358.995
-293.416
-234.316
-184.276
-144.255
-114.038
-92.281
-77.583
-68.721
-63.926
-61.392
-59.448
-56.416
-51.515
-44.798
-36.516
-27.124
-17.319
-7.767
0.725
7.229
11.402
13.37
13.423
12.053
9.741
6.869
3.924
1.445
-0.265
-1.083
-1.003
-0.151
1.384
3.564
6.313
9.524
13.091
16.907
20.876
24.944
29.044
33.108
37.078
40.899
44.539
47.998
51.295
54.443
57.454
60.32
63.021
65.562
67.964
70.258
72.483
74.666
76.83
79.003
81.212
83.476
85.804
88.178
90.578
92.998
95.443
97.934
100.506
103.177
105.953
108.843
111.845
114.957
118.177
121.489
124.873
128.316
131.809
135.355
138.954
142.595
146.259
149.917
153.536
157.085
160.537
163.862
167.033
170.026
172.82
175.402
177.761
179.883
181.754
183.356
184.675
185.696
186.412
186.816
186.902
186.668
186.111
185.234
184.038
182.526
180.7
178.563
176.119
173.373
170.333
167.007
163.407
159.545
155.435
151.093
146.535
141.779
136.843
131.746
126.507
121.145
115.68
110.131
104.52
98.865
93.187
87.506
81.84
76.209
70.63
65.121
59.698
54.379
49.178
44.11
39.187
34.423
29.828
25.414
21.19
17.164
13.343
9.733
6.339
3.163
0.207
-2.527
-5.04
-7.335
-9.414
-11.281
-12.94
-14.398
-15.66
-16.734
-17.627
-18.349
-18.906
-19.309
-19.568
-19.691
-19.69
-19.573
-19.352
-19.037
-18.638
-18.165
-17.628
-17.037
-16.401
-15.729
-15.03
-14.313
-13.585
-12.853
-12.124
-11.405
-10.7
-10.016
-9.355
-8.722
-8.121
-7.553
-7.021
-6.526
-6.07
-5.653
-5.276
-4.939
-4.641
-4.381
-4.16
-3.976
-3.827
-3.712
-3.629
-3.577
-3.554
-3.556
-3.583
-3.631
-3.7
-3.785
-3.886
-4
-4.125
-4.26
-4.401
-4.548
-4.699
-4.852
-5.006
-5.159
-5.31
-5.458
-5.602
-5.742
-5.876
-6.003
-6.123
-6.236
-6.34
-6.436
-6.522
-6.598
-6.663
-6.718
-6.763
-6.796
-6.82
-6.833
-6.836
-6.83
-6.814
-6.79
-6.757
-6.718
-6.671
-6.619
-6.562
-6.502
-6.439
-6.375
-6.312
-6.252
-6.194
-6.142
-6.097
-6.061
-6.035
-6.022
-6.024
-6.043
-6.08
-6.139
-6.221
-6.328
-6.461
-6.622
-6.812
-7.031
-7.281
-7.561
-7.871
-8.211
-8.58
-8.978
-9.403
-9.854
-10.329
-10.826
-11.342
-11.874
-12.418
-12.972
-13.531
-14.09
-14.647
-15.195
-15.73
-16.247
-16.741
-17.205
-17.634
-18.021
-18.362
-18.648
-18.876
-19.04
-19.135
-19.158
-19.104
-18.971
-18.758
-18.465
-18.089
-17.631
-17.091
-16.469
-15.768
-14.99
-14.136
-13.209
-12.216
-11.161
-10.053
-8.898
-7.706
-6.484
-5.241
-3.984
-2.725
-1.47
-0.227
0.995
2.185
3.332
4.422
5.445
6.396
7.274
8.077
8.809
9.474
10.084
10.651
11.184
11.692
12.176
12.637
13.08
13.513
13.945
14.391
14.856
15.34
15.842
16.357
16.873
17.369
17.817
18.176
18.424
18.538
18.506
18.315
17.937
17.345
16.517
15.428
14.072
12.438
10.5
8.235
5.633
2.697
-0.536
-4.049
-7.884
-12.02
-16.35
-20.677
-24.677
-28.064
-30.667
-32.263
-32.534
-31.301
-28.629
-24.903
-20.875
-17.268
-14.469
-12.818
-12.815
-14.754
-18.469
-23.251
-27.672
-30.138
-29.587
-25.056
-15.223
1.02
24.234
54.321
90.026
129.441
170.849
212.039
249.775
280.552
300.92
307.591
298.135
270.819
224.125
158.685
77.73
-15.129
-116.339
-224.53
-339.883
-458.927
-573.382
-670.462
-737.263
-767.845
-764.953
-738.297
-698.345
-651.422
-599.284
-540.268
-474.204
-403.76
-332.752
-266.011
-206.923
-156.848
-116.548
-85.886
-63.935
-49.621
-41.656
-38.323
-37.911
-38.861
-39.598
-38.971
-36.596
-32.545
-27.119
-20.828
-14.238
-7.877
-2.381
1.583
3.789
4.426
3.821
2.371
0.481
-1.592
-3.552
-4.877
-5.258
-4.646
-3.059
-0.629
2.5
6.322
10.803
15.714
20.861
26.098
31.273
36.33
41.213
45.797
49.974
53.703
56.972
59.801
62.242
64.313
66.042
67.476
68.666
69.671
70.552
71.356
72.126
72.908
73.748
74.694
75.793
77.076
78.561
80.257
82.165
84.284
86.609
89.131
91.836
94.707
97.731
100.896
104.19
107.601
111.111
114.704
118.359
122.06
125.787
129.525
133.253
136.953
140.606
144.194
147.7
151.104
154.387
157.528
160.508
163.307
165.906
168.288
170.433
172.328
173.956
175.306
176.366
177.126
177.579
177.716
177.533
177.025
176.192
175.032
173.545
171.735
169.606
167.163
164.413
161.366
158.031
154.421
150.547
146.423
142.066
137.49
132.714
127.753
122.627
117.356
111.957
106.452
100.861
95.202
89.497
83.764
78.024
72.294
66.594
60.94
55.349
49.838
44.423
39.117
33.934
28.888
23.99
19.251
14.682
10.29
6.083
2.068
-1.749
-5.364
-8.775
-11.977
-14.971
-17.756
-20.332
-22.702
-24.868
-26.833
-28.603
-30.18
-31.573
-32.786
-33.826
-34.702
-35.419
-35.986
-36.411
-36.702
-36.868
-36.916
-36.856
-36.697
-36.445
-36.111
-35.702
-35.226
-34.692
-34.107
-33.478
-32.813
-32.119
-31.401
-30.667
-29.922
-29.172
-28.422
-27.677
-26.941
-26.218
-25.512
-24.827
-24.164
-23.527
-22.919
-22.34
-21.794
-21.28
-20.801
-20.357
-19.949
-19.577
-19.241
-18.941
-18.678
-18.449
-18.254
-18.094
-17.965
-17.867
-17.8
-17.76
-17.747
-17.759
-17.795
-17.852
-17.929
-18.024
-18.136
-18.261
-18.4
-18.55
-18.71
-18.878
-19.053
-19.233
-19.418
-19.607
-19.797
-19.99
-20.183
-20.377
-20.571
-20.765
-20.96
-21.155
-21.351
-21.549
-21.749
-21.952
-22.16
-22.374
-22.594
-22.822
-23.06
-23.31
-23.572
-23.849
-24.141
-24.45
-24.777
-25.124
-25.491
-25.878
-26.287
-26.717
-27.169
-27.643
-28.137
-28.652
-29.185
-29.735
-30.302
-30.881
-31.472
-32.069
-32.672
-33.275
-33.875
-34.469
-35.052
-35.619
-36.167
-36.689
-37.182
-37.641
-38.06
-38.434
-38.758
-39.028
-39.238
-39.386
-39.466
-39.474
-39.407
-39.263
-39.038
-38.731
-38.34
-37.865
-37.304
-36.66
-35.933
-35.125
-34.24
-33.282
-32.256
-31.167
-30.021
-28.827
-27.59
-26.318
-25.021
-23.705
-22.379
-21.051
-19.728
-18.421
-17.139
-15.89
-14.682
-13.524
-12.425
-11.394
-10.439
-9.565
-8.774
-8.069
-7.452
-6.928
-6.501
-6.173
-5.94
-5.8
-5.751
-5.788
-5.903
-6.082
-6.298
-6.531
-6.762
-6.978
-7.176
-7.342
-7.462
-7.523
-7.509
-7.418
-7.254
-7.013
-6.687
-6.285
-5.821
-5.338
-4.911
-4.597
-4.441
-4.484
-4.742
-5.254
-6.079
-7.262
-8.854
-10.886
-13.356
-16.305
-19.828
-23.915
-28.459
-33.231
-37.809
-41.838
-45.095
-47.294
-48.103
-47.379
-45.187
-41.92
-38.446
-35.576
-33.815
-33.664
-35.571
-39.621
-45.507
-52.362
-58.475
-62.024
-61.565
-55.6
-42.755
-22.212
6.296
42.169
83.516
127.879
172.66
214.576
249.933
275.166
286.958
282.577
260.341
219.378
159.531
82.956
-6.047
-103.114
-204.151
-307.48
-413.063
-517.326
-613.004
-689.112
-734.632
-745.987
-727.249
-688.391
-640.372
-589.416
-537.047
-482.043
-423.925
-364.433
-306.724
-254.344
-209.207
-171.774
-142.004
-119.039
-101.836
-89.607
-81.174
-75.241
-70.794
-66.731
-62.058
-56.449
-49.944
-42.67
-35.042
-27.543
-20.562
-14.663
-10.412
-7.934
-7.086
-7.603
-9.06
-11.06
-13.271
-15.263
-16.598
-17.051
-16.543
-15.104
-12.866
-9.93
-6.374
-2.319
2.096
6.75
11.53
16.35
21.15
25.853
30.372
34.624
38.526
42.033
45.138
47.848
50.19
52.196
53.905
55.366
56.637
57.775
58.83
59.852
60.876
61.949
63.114
64.415
65.897
67.589
69.505
71.656
74.042
76.661
79.509
82.573
85.836
89.283
92.899
96.671
100.586
104.629
108.78
113.018
117.323
121.673
126.047
130.425
134.782
139.099
143.352
147.521
151.584
155.521
159.308
162.922
166.342
169.545
172.512
175.222
177.657
179.799
181.634
183.148
184.33
185.169
185.657
185.787
185.554
184.956
183.99
182.659
180.963
178.907
176.498
173.744
170.653
167.238
163.511
159.488
155.184
150.616
145.803
140.765
135.522
130.096
124.509
118.784
112.942
107.008
101.004
94.954
88.88
82.805
76.75
70.738
64.788
58.921
53.156
47.51
42
36.642
31.452
26.443
21.627
17.015
12.617
8.443
4.498
0.788
-2.682
-5.911
-8.896
-11.639
-14.14
-16.403
-18.432
-20.233
-21.811
-23.173
-24.328
-25.284
-26.05
-26.636
-27.053
-27.312
-27.424
-27.4
-27.253
-26.993
-26.633
-26.184
-25.657
-25.063
-24.412
-23.715
-22.983
-22.224
-21.448
-20.664
-19.879
-19.1
-18.333
-17.583
-16.855
-16.152
-15.476
-14.828
-14.209
-13.618
-13.056
-12.523
-12.018
-11.541
-11.089
-10.661
-10.257
-9.872
-9.505
-9.151
-8.804
-8.459
-8.112
-7.76
-7.4
-7.029
-6.644
-6.242
-5.826
-5.393
-4.943
-4.471
-3.969
-3.434
-2.87
-2.286
-1.692
-1.101
-0.52
0.038
0.554
1.017
1.419
1.764
2.065
2.328
2.55
2.723
2.826
2.852
2.804
2.689
2.513
2.288
2.018
1.723
1.436
1.171
0.923
0.667
0.35
-0.062
-0.586
-1.236
-2.008
-2.913
-3.973
-5.203
-6.612
-8.217
-10.033
-12.09
-14.445
-17.118
-20.103
-23.367
-26.842
-30.478
-34.243
-38.108
-42.046
-46.028
-50.018
-53.991
-57.933
