83.499
135.459
186.176
237.359
282.523
318.63
342.272
348.619
332.984
291.937
226.705
142.275
46.068
-55.097
-158.065
-263.083
-370.463
-474.595
-572.168
-661.596
-722.44
-737.38
-722.797
-697.614
-660.196
-609.332
-550.971
-489.342
-426.993
-366.519
-309.857
-257.792
-210.284
-167.527
-130.245
-99.275
-75.183
-58.017
-47.028
-40.433
-36.24
-32.798
-28.691
-23.42
-17.171
-9.967
-2.031
6.062
13.809
20.473
25.238
27.912
28.654
27.727
25.598
22.726
19.503
16.442
14.073
12.666
12.322
13.018
14.608
16.985
20.063
23.715
27.795
32.17
36.723
41.354
45.988
50.533
54.888
58.953
62.632
65.872
68.652
70.979
72.882
74.392
75.55
76.407
77.024
77.458
77.766
78
78.204
78.426
78.717
79.127
79.704
80.482
81.479
82.706
84.166
85.856
87.773
89.906
92.238
94.754
97.441
100.286
103.28
106.407
109.65
112.991
116.409
119.884
123.4
126.936
130.472
133.988
137.466
140.884
144.225
147.469
150.594
153.58
156.404
159.047
161.488
163.71
165.693
167.42
168.878
170.051
170.929
171.501
171.759
171.695
171.304
170.583
169.528
168.14
166.419
164.369
161.993
159.299
156.294
152.987
149.39
145.513
141.372
136.98
132.354
127.511
122.468
117.244
111.858
106.329
100.678
94.926
89.092
83.198
77.263
71.308
65.352
59.415
53.515
47.67
41.896
36.211
30.629
25.166
19.835
14.648
9.617
4.752
0.064
-4.44
-8.753
-12.868
-16.78
-20.487
-23.986
-27.274
-30.352
-33.22
-35.881
-38.335
-40.587
-42.641
-44.502
-46.175
-47.666
-48.983
-50.133
-51.123
-51.96
-52.654
-53.212
-53.643
-53.955
-54.156
-54.256
-54.261
-54.18
-54.022
-53.793
-53.502
-53.155
-52.759
-52.32
-51.846
-51.34
-50.81
-50.259
-49.692
-49.113
-48.527
-47.936
-47.344
-46.753
-46.167
-45.587
-45.015
-44.453
-43.903
-43.366
-42.844
-42.336
-41.845
-41.371
-40.915
-40.478
-40.06
-39.663
-39.287
-38.933
-38.601
-38.292
-38.007
-37.747
-37.511
-37.302
-37.119
-36.964
-36.836
-36.738
-36.67
-36.632
-36.625
-36.65
-36.708
-36.798
-36.921
-37.078
-37.268
-37.491
-37.747
-38.036
-38.356
-38.708
-39.089
-39.498
-39.933
-40.392
-40.873
-41.372
-41.887
-42.414
-42.951
-43.495
-44.04
-44.585
-45.125
-45.656
-46.173
-46.673
-47.151
-47.602
-48.021
-48.406
-48.75
-49.05
-49.301
-49.499
-49.64
-49.721
-49.736
-49.684
-49.56
-49.363
-49.089
-48.738
-48.308
-47.8
-47.214
-46.552
-45.818
-45.014
-44.143
-43.21
-42.219
-41.174
-40.082
-38.947
-37.775
-36.572
-35.347
-34.106
-32.86
-31.617
-30.386
-29.175
-27.993
-26.849
-25.751
-24.709
-23.728
-22.815
-21.976
-21.219
-20.555
-19.989
-19.521
-19.148
-18.866
-18.669
-18.549
-18.495
-18.487
-18.509
-18.544
-18.578
-18.605
-18.613
-18.589
-18.518
-18.382
-18.169
-17.881
-17.518
-17.084
-16.591
-16.049
-15.485
-14.947
-14.476
-14.114
-13.91
-13.897
-14.113
-14.602
-15.387
-16.507
-18.005
-19.907
-22.247
-25.047
-28.29
-31.981
-36.149
-40.72
-45.54
-50.354
-54.784
-58.517
-61.351
-63.039
-63.264
-61.843
-58.866
-54.777
-50.318
-46.139
-42.596
-39.998
-38.83
-39.465
-41.453
-43.367
-43.469
-40.136
-33.136
-23.712
-12.054
2.676
21.961
48.66
84.279
127.48
176.282
227.038
274.359
314.344
342.105
351.508
338.151
298.287
231.902
144.512
43.944
-62.402
-170.408
-280.443
-393.145
-502.943
-606.181
-700.367
-764.107
-779.638
-763.548
-735.72
-695.516
-641.806
-580.395
-514.645
-446.317
-379.178
-316.305
-259.925
-211.346
-169.533
-134.007
-104.676
-81.033
-63.901
-53.209
-47.168
-43.976
-41.488
-37.854
-32.653
-26.081
-18.238
-9.489
-0.449
8.324
16.004
21.736
25.33
26.944
26.855
25.544
23.465
21.016
18.713
17.072
16.372
16.721
18.093
20.347
23.368
27.064
31.312
35.971
40.911
46.022
51.205
56.386
61.488
66.425
71.111
75.469
79.428
82.956
86.053
88.739
91.046
93.014
94.685
96.109
97.35
98.464
99.504
100.519
101.549
102.636
103.825
105.159
106.677
108.404
110.353
112.529
114.932
117.559
120.403
123.452
126.687
130.092
133.654
137.357
141.19
145.136
149.176
153.29
157.457
161.658
165.872
170.08
174.259
178.389
182.448
186.418
190.277
194.006
197.583
200.987
204.196
207.191
209.952
212.46
214.699
216.652
218.304
219.644
220.661
221.345
221.688
221.684
221.329
220.621
219.558
218.141
216.373
214.256
211.798
209.005
205.887
202.452
198.715
194.687
190.383
185.82
181.013
175.981
170.742
165.316
159.724
153.985
148.12
142.152
136.102
129.991
123.841
117.673
111.508
105.366
99.267
93.231
87.275
81.416
75.673
70.059
64.591
59.282
54.144
49.188
44.427
39.868
35.519
31.387
27.478
23.796
20.344
17.123
14.135
11.378
8.851
6.551
4.475
2.617
0.971
-0.469
-1.711
-2.762
-3.633
-4.331
-4.868
-5.253
-5.496
-5.609
-5.602
-5.486
-5.272
-4.97
-4.592
-4.147
-3.646
-3.099
-2.515
-1.904
-1.274
-0.633
0.01
0.649
1.276
1.885
2.471
3.028
3.552
4.038
4.484
4.887
5.243
5.552
5.812
6.022
6.182
6.292
6.352
6.365
6.329
6.249
6.124
5.957
5.75
5.505
5.225
4.913
4.57
4.2
3.805
3.387
2.95
2.497
2.029
1.55
1.062
0.568
0.07
-0.431
-0.931
-1.428
-1.921
-2.407
-2.886
-3.356
-3.815
-4.263
-4.698
-5.12
-5.529
-5.924
-6.305
-6.672
-7.026
-7.366
-7.693
-8.008
-8.311
-8.604
-8.887
-9.161
-9.428
-9.689
-9.945
-10.199
-10.451
-10.703
-10.958
-11.217
-11.482
-11.755
-12.037
-12.332
-12.64
-12.963
-13.304
-13.663
-14.042
-14.441
-14.862
-15.304
-15.768
-16.253
-16.759
-17.285
-17.831
-18.395
-18.976
-19.572
-20.18
-20.799
-21.425
-22.056
-22.687
-23.316
-23.938
-24.55
-25.146
-25.723
-26.276
-26.799
-27.289
-27.739
-28.146
-28.503
-28.806
-29.049
-29.229
-29.342
-29.384
-29.353
-29.247
-29.065
-28.808
-28.475
-28.068
-27.587
-27.034
-26.413
-25.727
-24.978
-24.171
-23.311
-22.402
-21.454
-20.472
-19.467
-18.445
-17.415
-16.386
-15.366
-14.366
-13.394
-12.457
-11.564
-10.722
-9.941
-9.234
-8.609
-8.067
-7.609
-7.233
-6.935
-6.713
-6.556
-6.448
-6.375
-6.323
-6.279
-6.24
-6.196
-6.135
-6.045
-5.907
-5.711
-5.46
-5.154
-4.798
-4.404
-3.984
-3.563
-3.191
-2.911
-2.767
-2.81
-3.073
-3.597
-4.425
-5.584
-7.114
-9.061
-11.452
-14.323
-17.7
-21.566
-25.928
-30.813
-36.132
-41.726
-47.341
-52.584
-57.137
-60.804
-63.33
-64.409
-63.886
-61.838
-58.671
-55.138
-51.891
-49.184
-47.258
-46.538
-47.218
-49.138
-51.351
-51.854
-48.885
-41.466
-29.578
-14.299
3.635
23.987
47.253
75.678
110.755
152.768
200.789
249.652
293.039
325.078
338.519
328.704
293.244
231.059
146.499
46.667
-62.174
-174.386
-288.994
-406.093
-518.892
-625.277
-724.395
-792.115
-808.07
-790.681
-762.158
-721.529
-667.124
-605.008
-538.607
-468.789
-398.9
-333.369
-275.269
-226.828
-187.803
-156.141
-130.533
-109.697
-93.531
-82.807
-76.466
-72.841
-70.201
-66.457
-60.946
-54.024
-45.832
-36.823
-27.728
-19.076
-11.64
-6.232
-2.993
-1.72
-2.114
-3.685
-5.967
-8.563
-10.969
-12.682
-13.436
-13.131
-11.796
-9.57
-6.563
-2.869
1.39
6.072
11.048
16.204
21.44
26.676
31.834
36.822
41.553
45.947
49.933
53.475
56.572
59.242
61.514
63.428
65.024
66.353
67.478
68.456
69.34
70.179
71.013
71.886
72.844
73.928
75.179
76.624
78.275
80.139
82.217
84.508
87.006
89.701
92.577
95.618
98.813
102.149
105.617
109.202
112.888
116.656
120.488
124.367
128.276
132.195
136.106
139.99
143.828
147.6
151.291
154.879
158.345
161.669
164.831
167.81
170.589
173.15
175.474
177.546
179.352
180.877
182.112
183.045
183.668
183.973
183.955
183.609
182.933
181.925
180.585
178.916
176.92
174.603
171.971
169.031
165.794
162.27
158.47
154.408
150.099
145.558
140.801
135.845
130.709
125.411
119.97
114.407
108.74
102.99
97.178
91.323
85.445
79.565
73.7
67.871
62.094
56.388
50.77
45.255
39.86
34.599
29.484
24.53
19.747
15.147
10.738
6.529
2.528
-1.261
-4.832
-8.181
-11.306
-14.207
-16.882
-19.333
-21.563
-23.573
-25.369
-26.955
-28.338
-29.524
-30.52
-31.336
-31.978
-32.458
-32.783
-32.965
-33.013
-32.938
-32.75
-32.46
-32.078
-31.615
-31.082
-30.488
-29.844
-29.159
-28.443
-27.705
-26.952
-26.193
-25.437
-24.689
-23.956
-23.244
-22.559
-21.905
-21.286
-20.706
-20.168
-19.674
-19.226
-18.825
-18.472
-18.168
-17.911
-17.702
-17.539
-17.421
-17.345
-17.311
-17.314
-17.354
-17.426
-17.528
-17.657
-17.808
-17.98
-18.167
-18.368
-18.578
-18.794
-19.012
-19.229
-19.442
-19.648
-19.844
-20.026
-20.193
-20.341
-20.469
-20.575
-20.657
-20.713
-20.742
-20.743
-20.715
-20.659
-20.573
-20.459
-20.315
-20.144
-19.945
-19.721
-19.471
-19.199
-18.905
-18.593
-18.263
-17.918
-17.562
-17.196
-16.824
-16.448
-16.072
-15.698
-15.33
-14.971
-14.625
-14.294
-13.983
-13.694
-13.431
-13.196
-12.994
-12.826
-12.694
-12.602
-12.55
-12.541
-12.575
-12.654
-12.777
-12.945
-13.158
-13.415
-13.714
-14.055
-14.435
-14.852
-15.303
-15.784
-16.293
-16.827
-17.38
-17.948
-18.529
-19.116
-19.705
-20.29
-20.867
-21.427
-21.965
-22.473
-22.945
-23.375
-23.757
-24.085
-24.354
-24.558
-24.695
-24.763
-24.757
-24.675
-24.514
-24.269
-23.943
-23.543
-23.068
-22.522
-21.91
-21.234
-20.501
-19.724
-18.903
-18.04
-17.139
-16.2
-15.234
-14.255
-13.271
-12.296
-11.33
-10.37
-9.428
-8.512
-7.626
-6.78
-5.969
-5.183
-4.437
-3.744
-3.11
-2.543
-2.027
-1.542
-1.082
-0.639
-0.215
0.178
0.554
0.923
1.285
1.645
1.992
2.308
2.612
2.919
3.223
3.518
3.765
3.92
3.963
3.871
3.628
3.218
2.597
1.732
0.606
-0.807
-2.502
-4.486
-6.807
-9.505
-12.599
-16.087
-19.913
-24.041
-28.491
-33.217
-38.079
-42.842
-47.141
-50.678
-53.283
-54.739
-54.758
-53.176
-50.084
-45.907
-41.381
-37.172
-33.653
-31.156
-30.171
-31.059
-33.42
-35.924
-36.868
-34.594
-28.684
-20.174
-9.39
4.196
21.544
45.102
76.824
116.092
161.713
210.718
257.115
296.113
322.463
329.498
313.457
271.604
203.535
114.787
12.596
-96.912
-208.947
-323.531
-440.561
-552.03
-655.548
-751.403
-814.701
-824.138
-801.147
-770.054
-727.73
-670.976
-606.52
-538.332
-468.226
-399.964
-336.446
-279.454
-229.884
-186.724
-149.704
-119.064
-94.597
-77.082
-66.318
-60.404
-57.451
-55.377
-52.39
-48.033
-42.461
-35.715
-28.112
-20.265
-12.729
-6.3
-1.809
0.579
1.065
-0.071
-2.349
-5.288
-8.485
-11.408
-13.518
-14.566
-14.474
-13.284
-11.164
-8.233
-4.584
-0.363
4.27
9.174
14.216
19.297
24.344
29.262
33.953
38.318
42.264
45.741
48.738
51.265
53.352
55.037
56.359
57.374
58.144
58.733
59.199
59.596
59.967
60.364
60.836
61.435
62.209
63.191
64.398
65.841
67.522
69.44
71.591
73.965
76.544
79.315
82.265
85.383
88.659
92.079
95.627
99.286
103.036
106.86
110.741
114.662
118.604
122.548
126.477
130.373
134.219
137.997
141.686
145.266
148.718
152.022
155.158
158.109
160.856
163.383
165.674
167.715
169.496
171.003
172.227
173.161
173.795
174.126
174.148
173.858
173.255
172.339
171.111
169.574
167.733
165.594
163.162
160.448
157.46
154.21
150.71
146.973
143.013
138.845
134.485
129.951
125.258
120.426
115.473
110.417
105.277
100.073
94.823
89.547
84.262
78.987
73.739
68.537
63.398
58.336
53.37
48.513
43.78
39.185
34.74
30.457
26.347
22.42
18.683
15.146
11.814
8.693
5.787
3.099
0.632
-1.615
-3.64
-5.446
-7.035
-8.409
-9.574
-10.534
-11.296
-11.867
-12.253
-12.463
-12.505
-12.389
-12.124
-11.72
-11.187
-10.535
-9.775
-8.917
-7.973
-6.951
-5.864
-4.72
-3.531
-2.305
-1.052
0.219
1.499
2.78
4.055
5.315
6.555
7.769
8.95
10.093
11.195
12.25
13.256
14.21
15.11
15.953
16.738
17.465
18.133
18.742
19.292
19.784
20.218
20.596
20.92
21.19
21.41
21.58
21.703
21.781
21.817
21.813
21.771
21.693
21.583
21.442
21.272
21.077
20.858
20.618
20.358
20.081
19.788
19.481
19.162
18.832
18.493
18.145
17.791
17.43
17.064
16.694
16.32
15.943
15.564
15.183
14.8
14.415
14.029
13.642
13.254
12.864
12.473
12.081
11.687
11.291
10.893
10.492
10.089
9.683
9.273
8.86
8.442
8.02
7.591
7.157
6.717
6.27
5.815
5.352
4.881
4.401
3.912
3.413
2.904
2.384
1.853
1.31
0.757
0.193
-0.381
-0.966
-1.559
-2.16
-2.768
-3.381
-3.999
-4.619
-5.239
-5.859
-6.475
-7.087
-7.69
-8.282
-8.862
-9.425
-9.969
-10.49
-10.985
-11.452
-11.886
-12.284
-12.643
-12.959
-13.228
-13.447
-13.611
-13.718
-13.764
-13.746
-13.663
-13.512
-13.291
-13.002
-12.643
-12.217
-11.725
-11.169
-10.551
-9.874
-9.141
-8.356
-7.522
-6.644
-5.726
-4.775
-3.796
-2.799
-1.791
-0.78
0.228
1.223
2.198
3.145
4.057
4.927
5.748
6.513
7.211
7.831
8.367
8.818
9.182
9.465
9.672
9.81
9.89
9.929
9.943
9.942
9.937
9.933
9.941
9.973
10.043
10.167
10.356
10.608
10.923
11.291
11.699
12.127
12.546
12.907
13.172
13.305
13.269
13.027
12.543
11.772
10.677
9.235
7.42
5.205
2.567
-0.518
-4.063
-8.038
-12.424
-17.223
-22.344
-27.631
-32.838
-37.569
-41.495
-44.429
-46.1
-46.193
-44.686
-41.718
-37.737
-33.679
-30.173
-27.448
-25.954
-26.095
-27.775
-30.785
-33.908
-34.718
-31.717
-23.956
-11.3
4.801
23.782
45.58
70.756
101.362
137.719
179.071
223.219
264.678
298.824
320.318
322.645
301.926
255.005
182.62
91.045
-12.181
-119.636
-227.875
-337.34
-445.217
-550.172
-658.767
-757.908
-808.275
-803.733
-779.51
-750.582
-707.87
-651.554
-588.063
-519.799
-448.002
-376.41
-309.867
-251.306
-202.468
-163.27
-131.834
-106.834
-87.156
-72.369
-62.692
-57.195
-54.374
-52.525
-49.745
-45.304
-39.367
-32.156
-24.229
-16.227
-8.659
-2.251
2.293
4.807
5.479
4.635
2.77
0.349
-2.233
-4.484
-5.925
-6.319
-5.607
-3.841
-1.183
2.242
6.334
10.951
15.938
21.159
26.491
31.833
37.117
42.253
47.148
51.712
55.859
59.545
62.762
65.522
67.855
69.799
71.394
72.694
73.76
74.652
75.427
76.134
76.818
77.525
78.303
79.199
80.257
81.509
82.969
84.645
86.541
88.653
90.977
93.501
96.21
99.089
102.126
105.31
108.629
112.07
115.617
119.253
122.958
126.716
130.509
134.32
138.131
141.923
145.679
149.381
153.012
156.554
159.987
163.292
166.45
169.44
172.246
174.849
177.231
179.379
181.276
182.91
184.27
185.345
186.127
186.608
186.782
186.645
186.193
185.424
184.338
182.936
181.221
179.197
176.869
174.245
171.332
168.14
164.679
160.962
157.002
152.811
148.405
143.799
139.01
134.054
128.949
123.713
118.364
112.921
107.402
101.826
96.212
90.577
84.939
79.316
73.725
68.182
62.704
57.306
52.004
46.81
41.738
36.801
32.011
27.377
22.91
18.619
14.51
10.59
6.866
3.341
0.019
-3.097
-6.006
-8.707
-11.201
-13.49
-15.575
-17.461
-19.151
-20.65
-21.963
-23.098
-24.061
-24.859
-25.5
-25.992
-26.344
-26.566
-26.665
-26.652
-26.537
-26.328
-26.035
-25.667
-25.235
-24.746
-24.211
-23.637
-23.032
-22.406
-21.764
-21.115
-20.466
-19.822
-19.19
-18.575
-17.982
-17.415
-16.878
-16.375
-15.909
-15.481
-15.094
-14.749
-14.448
-14.191
-13.978
-13.808
-13.682
-13.598
-13.555
-13.551
-13.584
-13.653
-13.754
-13.885
-14.045
-14.229
-14.435
-14.661
-14.903
-15.158
-15.424
-15.698
-15.978
-16.259
-16.541
-16.82
-17.094
-17.361
-17.619
-17.866
-18.101
-18.321
-18.527
-18.716
-18.888
-19.043
-19.179
-19.297
-19.397
-19.479
-19.544
-19.592
-19.624
-19.642
-19.646
-19.638
-19.619
-19.591
-19.555
-19.514
-19.469
-19.421
-19.374
-19.328
-19.286
-19.25
-19.221
-19.2
-19.191
-19.194
-19.21
-19.242
-19.29
-19.356
-19.44
-19.542
-19.663
-19.802
-19.96
-20.135
-20.326
-20.532
-20.751
-20.982
-21.223
-21.471
-21.725
-21.98
-22.235
-22.487
-22.731
-22.965
-23.185
-23.387
-23.567
-23.723
-23.849
-23.942
-23.999
-24.015
-23.988
-23.912
-23.785
-23.604
-23.365
-23.066
-22.706
-22.282
-21.794
-21.243
-20.63
-19.955
-19.223
-18.435
-17.594
-16.705
-15.771
-14.797
-13.788
-12.747
-11.681
-10.597
-9.501
-8.401
-7.305
-6.221
-5.155
-4.116
-3.111
-2.149
-1.236
-0.379
0.418
1.148
1.803
2.374
2.855
3.246
3.55
3.769
3.909
3.976
3.981
3.943
3.877
3.798
3.721
3.652
3.601
3.58
3.604
3.69
3.847
4.074
4.364
4.714
5.111
5.541
5.972
6.355
6.642
6.789
6.745
6.474
5.931
5.073
3.872
2.291
0.293
-2.146
-5.048
-8.434
-12.286
-16.597
-21.386
-26.548
-31.914
-37.245
-42.175
-46.409
-49.774
-52.005
-52.772
-52.038
-49.928
-46.827
-43.529
-40.516
-37.978
-36.37
-36.115
-37.246
-39.36
-41.166
-40.782
-36.924
-29.399
-18.647
-5.115
10.555
28.657
50.625
77.438
110.793
151.591
197.103
242.527
280.694
302.519
301.17
272.71
216.592
137.828
44.254
-56.353
-158.105
-259.875
-363.163
-468.023
-570.381
-661.292
-730.289
-769.614
-777.647
-758.278
-718.402
-665.892
-606.715
-545.518
-485.705
-428.593
-374.749
-323.513
-274.081
-227.237
-184.314
-147.371
-118.181
-96.625
-81.877
-72.486
-66.394
-62.181
-58.642
-54.572
-49.579
-43.662
-36.855
-29.556
-22.251
-15.358
-9.482
-5.226
-2.758
-1.94
-2.491
-3.963
-5.923
-8.013
-9.795
-10.828
-10.88
-9.882
-7.869
-4.982
-1.35
2.931
7.721
12.863
18.233
23.713
29.205
34.643
39.942
45.01
49.765
54.13
58.058
61.54
64.587
67.226
69.494
71.435
73.099
74.549
75.839
77.025
78.155
79.27
80.416
81.638
82.98
84.484
86.179
88.081
90.197
92.529
95.074
97.826
100.774
103.901
107.193
110.635
114.216
117.924
121.745
125.659
129.651
133.699
137.785
141.892
146
150.09
154.142
158.138
162.059
165.886
169.6
173.181
176.608
179.86
182.918
185.763
188.376
190.739
192.837
194.655
196.179
197.398
198.303
198.883
199.132
199.045
198.617
197.845
196.73
195.272
193.473
191.338
188.872
186.082
182.977
179.568
175.866
171.883
167.635
163.136
158.402
153.452
148.303
142.973
137.484
131.854
126.104
120.255
114.327
108.343
102.321
96.283
90.249
84.238
78.27
72.362
66.531
60.796
55.172
49.674
44.316
39.111
34.072
29.209
24.531
20.048
15.767
11.694
7.835
4.191
0.768
-2.436
-5.418
-8.18
-10.724
-13.053
-15.17
-17.081
-18.792
-20.308
-21.637
-22.787
-23.765
-24.581
-25.244
-25.763
-26.147
-26.407
-26.551
-26.591
-26.535
-26.393
-26.175
-25.89
-25.547
-25.153
-24.719
-24.25
-23.755
-23.241
-22.714
-22.181
-21.646
-21.114
-20.591
-20.08
-19.585
-19.109
-18.654
-18.222
-17.817
-17.438
-17.087
-16.765
-16.472
-16.208
-15.973
-15.767
-15.59
-15.44
-15.317
-15.22
-15.148
-15.101
-15.076
-15.073
-15.09
-15.128
-15.185
-15.26
-15.351
-15.459
-15.583
-15.722
-15.875
-16.041
-16.221
-16.414
-16.619
-16.836
-17.065
-17.307
-17.56
-17.825
-18.102
-18.39
-18.691
-19.003
-19.327
-19.663
-20.012
-20.372
-20.746
-21.132
-21.53
-21.941
-22.365
-22.801
-23.248
-23.707
-24.176
-24.654
-25.14
-25.633
-26.132
-26.635
-27.141
-27.648
-28.154
-28.658
-29.157
-29.648
-30.13
-30.6
-31.055
-31.493
-31.91
-32.304
-32.671
-33.009
-33.315
-33.584
-33.814
-34
-34.14
-34.23
-34.266
-34.246
-34.167
-34.027
-33.823
-33.555
-33.223
-32.827
-32.368
-31.847
-31.265
-30.624
-29.926
-29.174
-28.37
-27.518
-26.621
-25.682
-24.709
-23.707
-22.682
-21.641
-20.59
-19.537
-18.487
-17.449
-16.431
-15.436
-14.473
-13.547
-12.666
-11.843
-11.084
-10.39
-9.762
-9.197
-8.692
-8.241
-7.835
-7.456
-7.088
-6.718
-6.332
-5.926
-5.492
-5.017
-4.491
-3.897
-3.226
-2.484
-1.675
-0.81
0.095
1.022
1.939
2.786
3.515
4.074
4.407
4.478
4.243
3.651
2.673
1.265
-0.613
-2.982
-5.87
-9.293
-13.229
-17.681
-22.652
-28.054
-33.73
-39.437
-44.819
-49.573
-53.485
-56.298
-57.703
-57.516
-55.781
-52.846
-49.378
-45.992
-42.975
-40.581
-39.261
-39.287
-40.598
-42.41
-42.933
-40.489
-34.097
-23.645
-10.011
6.197
24.794
46.201
72.37
104.704
143.611
188.528
234.967
277.025
308.99
323.577
315.857
283.113
223.819
142.141
45.156
-60.145
-167.142
-274.854
-384.042
-490.904
-595.52
-696.732
-771.984
-799.797
-793.265
-771.179
-732.348
-677.502
-614.856
-549.241
-483.254
-419.004
-357.926
-300.526
-246.735
-197.487
-154.152
-118.167
-90.67
-71.416
-59.376
-52.718
-49.133
-46.717
-43.797
-39.468
-33.688
-26.546
-18.314
-9.593
-0.972
6.767
12.682
16.417
18.047
17.821
16.226
13.745
10.788
7.885
5.607
4.29
4.074
4.96
6.805
9.491
12.924
16.969
21.466
26.272
31.263
36.334
41.407
46.401
51.217
55.767
59.964
63.739
67.056
69.915
72.331
74.339
75.98
77.3
78.354
79.206
79.917
80.542
81.134
81.736
82.394
83.157
84.069
85.171
86.491
88.042
89.829
91.853
94.111
96.596
99.296
102.192
105.269
108.513
111.91
115.447
119.109
122.878
126.732
130.652
134.619
138.614
142.616
146.605
150.562
154.465
158.296
162.036
165.664
169.161
172.504
175.673
178.649
181.413
183.947
186.234
188.257
190.003
191.459
192.615
193.461
193.989
194.193
194.069
193.613
192.824
191.702
190.249
188.467
186.362
183.94
181.208
178.177
174.856
171.258
167.394
163.281
158.933
154.365
149.596
144.642
139.521
134.254
128.858
123.353
117.759
112.095
106.382
100.638
94.882
89.134
83.411
77.731
72.11
66.565
61.112
55.764
50.537
45.442
40.492
35.698
31.07
26.617
22.347
18.267
14.382
10.697
7.216
3.941
0.874
-1.986
-4.638
-7.084
-9.327
-11.37
-13.217
-14.874
-16.346
-17.64
-18.763
-19.723
-20.527
-21.185
-21.704
-22.095
-22.366
-22.527
-22.587
-22.555
-22.442
-22.255
-22.005
-21.7
-21.349
-20.96
-20.541
-20.101
-19.645
-19.181
-18.715
-18.254
-17.802
-17.365
-16.948
-16.553
-16.185
-15.847
-15.541
-15.27
-15.034
-14.835
-14.673
-14.55
-14.463
-14.414
-14.401
-14.423
-14.479
-14.567
-14.686
-14.833
-15.006
-15.204
-15.424
-15.664
-15.922
-16.195
-16.483
-16.782
-17.091
-17.408
-17.731
-18.059
-18.39
-18.722
-19.055
-19.387
-19.718
-20.047
-20.373
-20.696
-21.016
-21.333
-21.648
-21.96
-22.271
-22.58
-22.89
-23.201
-23.515
-23.831
-24.153
-24.481
-24.816
-25.159
-25.511
-25.873
-26.244
-26.626
-27.018
-27.419
-27.83
-28.249
-28.676
-29.11
-29.549
-29.992
-30.437
-30.882
-31.325
-31.762
-32.191
-32.609
-33.013
-33.398
-33.762
-34.101
-34.409
-34.683
-34.918
-35.11
-35.253
-35.344
-35.377
-35.348
-35.253
-35.088
-34.851
-34.539
-34.15
-33.683
-33.14
-32.521
-31.827
-31.06
-30.22
-29.312
-28.339
-27.304
-26.209
-25.061
-23.865
-22.627
-21.356
-20.06
-18.746
-17.422
-16.097
-14.779
-13.478
-12.201
-10.956
-9.751
-8.595
-7.499
-6.474
-5.531
-4.671
-3.895
-3.202
-2.586
-2.044
-1.564
-1.13
-0.728
-0.347
0.024
0.39
0.759
1.146
1.562
2.027
2.551
3.133
3.77
4.455
5.171
5.9
6.611
7.253
7.783
8.163
8.353
8.313
8.005
7.377
6.391
5.018
3.226
0.987
-1.724
-4.927
-8.629
-12.796
-17.4
-22.435
-27.8
-33.324
-38.756
-43.711
-47.871
-51.05
-52.975
-53.305
-51.989
-49.163
-45.248
-41.098
-37.251
-33.931
-31.599
-30.691
-31.255
-32.852
-34.06
-32.901
-28.046
-19.299
-7.501
6.745
23.288
42.787
67.574
99.169
137.766
182.764
230.091
273.811
308.642
328.269
327.371
303.167
253.575
179.907
87.573
-17.179
-128.053
-241.289
-356.259
-468.743
-576.283
-685.291
-782.258
-828.932
-820.136
-789.572
-752.261
-700.471
-635.927
-567.166
-496.566
-425.344
-356.929
-293.638
-237.549
-189.644
-148.923
-115.252
-88.303
-67.53
-53.39
-45.081
-40.853
-39.077
-37.693
-35.165
-31.151
-25.732
-19.163
-11.998
-4.79
1.937
7.476
11.206
12.996
13.039
11.678
9.412
6.708
3.96
1.64
0.195
-0.159
0.627
2.49
5.267
8.818
13.033
17.763
22.843
28.142
33.532
38.912
44.211
49.34
54.208
58.735
62.843
66.49
69.674
72.41
74.729
76.675
78.291
79.632
80.76
81.736
82.615
83.448
84.278
85.15
86.111
87.203
88.466
89.93
91.605
93.499
95.61
97.936
100.468
103.194
106.098
109.164
112.378
115.727
119.2
122.781
126.454
130.2
134
137.837
141.692
145.549
149.387
153.188
156.935
160.609
164.192
167.667
171.014
174.212
177.243
180.088
182.729
185.148
187.33
189.258
190.919
192.302
193.396
194.19
194.679
194.855
194.713
194.25
193.464
192.356
190.926
189.177
187.114
184.742
182.068
179.102
175.853
172.333
168.554
164.53
160.275
155.806
151.139
146.291
141.28
136.125
130.846
125.46
119.988
114.45
108.866
103.254
97.633
92.024
86.443
80.909
75.438
70.047
64.751
59.566
54.504
49.579
44.803
40.187
35.74
31.471
27.387
23.496
19.802
16.31
13.022
9.941
7.066
4.398
1.936
-0.324
-2.384
-4.249
-5.924
-7.415
-8.729
-9.873
-10.855
-11.683
-12.367
-12.915
-13.336
-13.64
-13.837
-13.936
-13.946
-13.878
-13.739
-13.54
-13.288
-12.992
-12.661
-12.3
-11.918
-11.522
-11.116
-10.708
-10.301
-9.901
-9.511
-9.136
-8.778
-8.44
-8.123
-7.829
-7.56
-7.315
-7.096
-6.902
-6.732
-6.586
-6.463
-6.361
-6.28
-6.217
-6.171
-6.14
-6.123
-6.117
-6.122
-6.134
-6.154
-6.178
-6.207
-6.238
-6.271
-6.305
-6.339
-6.372
-6.405
-6.436
-6.467
-6.496
-6.525
-6.553
-6.583
-6.613
-6.647
-6.683
-6.725
-6.772
-6.827
-6.891
-6.965
-7.051
-7.151
-7.266
-7.397
-7.548
-7.719
-7.911
-8.126
-8.366
-8.631
-8.923
-9.242
-9.59
-9.966
-10.372
-10.806
-11.271
-11.764
-12.286
-12.836
-13.412
-14.013
-14.637
-15.282
-15.946
-16.625
-17.318
-18.021
-18.731
-19.444
-20.158
-20.868
-21.57
-22.26
-22.934
-23.587
-24.215
-24.813
-25.376
-25.9
-26.381
-26.814
-27.195
-27.519
-27.782
-27.981
-28.112
-28.171
-28.156
-28.064
-27.895
-27.646
-27.318
-26.912
-26.43
-25.873
-25.245
-24.549
-23.79
-22.971
-22.098
-21.177
-20.213
-19.212
-18.18
-17.125
-16.054
-14.976
-13.899
-12.831
-11.78
-10.756
-9.766
-8.819
-7.922
-7.079
-6.296
-5.577
-4.929
-4.361
-3.876
-3.474
-3.153
-2.909
-2.738
-2.633
-2.583
-2.565
-2.559
-2.549
-2.524
-2.479
-2.407
-2.298
-2.136
-1.906
-1.601
-1.222
-0.775
-0.26
0.315
0.935
1.565
2.144
2.609
2.909
3.002
2.861
2.462
1.77
0.729
-0.707
-2.584
-4.932
-7.748
-11.065
-14.933
-19.327
-24.142
-29.144
-33.977
-38.334
-42.019
-44.795
-46.401
-46.686
-45.598
-43.421
-40.795
-38.286
-36.266
-35.081
-35.051
-36.361
-39.129
-42.655
-45.265
-45.456
-41.906
-34.211
-23.453
-10.228
5.605
24.726
49.701
82.49
122.929
169.914
219.188
264.924
302.024
324.009
325.275
301.941
251.346
175.879
81.619
-24.063
-133.782
-245.053
-358.152
-469.636
-578.231
-688.816
-786.634
-835.019
-829.443
-802.09
-767.129
-717.556
-655.311
-588.111
-517.946
-446.176
-376.421
-311.335
-253.375
-203.871
-162.061
-127.846
-100.815
-80.242
-66.431
-58.529
-54.716
-53.286
-52.095
-49.522
-45.184
-39.182
-31.796
-23.613
-15.247
-7.287
-0.509
4.41
7.305
8.354
7.888
6.405
4.374
2.204
0.379
-0.642
-0.636
0.448
2.547
5.503
9.179
13.465
18.217
23.274
28.51
33.809
39.078
44.252
49.248
53.98
58.367
62.334
65.835
68.867
71.443
73.595
75.363
76.791
77.934
78.854
79.612
80.263
80.858
81.44
82.053
82.745
83.559
84.539
85.714
87.099
88.701
90.523
92.56
94.807
97.252
99.878
102.668
105.608
108.686
111.889
115.202
118.608
122.087
125.62
129.189
132.774
136.358
139.92
143.441
146.904
150.289
153.579
156.755
159.797
162.687
165.405
167.931
170.248
172.34
174.189
175.782
177.105
178.146
178.897
179.348
179.492
179.324
178.84
178.037
176.915
175.474
173.717
171.646
169.266
166.584
163.609
160.348
156.812
153.014
148.964
144.678
140.171
135.456
130.552
125.474
120.241
114.872
109.384
103.796
98.129
92.4
86.629
80.836
75.038
69.254
63.502
57.798
52.16
46.603
41.143
35.794
30.571
25.485
20.55
15.777
11.175
6.754
2.523
-1.512
-5.345
-8.969
-12.382
-15.58
-18.561
-21.325
-23.871
-26.202
-28.319
-30.225
-31.925
-33.424
-34.727
-35.841
-36.774
-37.533
-38.126
-38.562
-38.85
-39
-39.021
-38.923
-38.716
-38.411
-38.017
-37.545
-37.004
-36.404
-35.754
-35.065
-34.344
-33.6
-32.842
-32.078
-31.314
-30.557
-29.814
-29.09
-28.39
-27.72
-27.082
-26.481
-25.918
-25.397
-24.918
-24.484
-24.093
-23.748
-23.446
-23.188
-22.972
-22.797
-22.661
-22.562
-22.497
-22.463
-22.458
-22.48
-22.524
-22.588
-22.669
-22.764
-22.869
-22.982
-23.099
-23.218
-23.337
-23.452
-23.561
-23.663
-23.756
-23.837
-23.906
-23.962
-24.004
-24.031
-24.044
-24.041
-24.024
-23.994
-23.949
-23.893
-23.826
-23.75
-23.666
-23.576
-23.483
-23.387
-23.292
-23.2
-23.113
-23.033
-22.962
-22.903
-22.859
-22.83
-22.819
-22.828
-22.858
-22.91
-22.985
-23.083
-23.205
-23.351
-23.519
-23.711
-23.924
-24.158
-24.41
-24.68
-24.965
-25.263
-25.57
-25.883
-26.2
-26.516
-26.828
-27.131
-27.421
-27.694
-27.945
-28.169
-28.362
-28.519
-28.635
-28.704
-28.723
-28.687
-28.593
-28.436
-28.215
-27.926
-27.568
-27.141
-26.646
-26.082
-25.451
-24.755
-23.994
-23.172
-22.293
-21.359
-20.374
-19.343
-18.27
-17.163
-16.029
-14.877
-13.711
-12.542
-11.375
-10.22
-9.085
-7.979
-6.906
-5.874
-4.891
-3.964
-3.104
-2.319
-1.609
-0.972
-0.405
0.095
0.535
0.923
1.278
1.614
1.944
2.279
2.623
2.985
3.374
3.803
4.288
4.837
5.447
6.113
6.828
7.577
8.348
9.114
9.825
10.44
10.916
11.206
11.281
11.103
10.632
9.84
8.688
7.135
5.157
2.722
-0.195
-3.581
-7.449
-11.826
-16.641
-21.753
-26.926
-31.804
-36.091
-39.595
-42.072
-43.225
-42.878
-41.092
-38.253
-35.086
-32.243
-29.999
-28.58
-28.404
-29.717
-32.434
-35.699
-37.578
-36.262
-30.706
-20.819
-7.603
8.223
26.464
47.566
73.635
106.375
146.333
193.007
241.841
286.228
320.007
336.097
329.512
298.401
241.784
162.171
65.739
-42.102
-156.253
-273.638
-393.282
-508.804
-618.815
-725.116
-802.683
-826.705
-815.585
-791.958
-752.534
-696.259
-631.57
-562.961
-492.242
-422.41
-355.775
-294.004
-238.447
-189.176
-146.682
-111.673
-84.133
-64.377
-51.982
-45.163
-41.929
-40.035
-37.432
-33.26
-27.462
-20.192
-11.827
-2.992
5.708
13.45
19.274
22.844
24.273
23.836
22.046
19.424
16.403
13.543
11.447
10.426
10.595
11.935
14.276
17.493
21.487
26.104
31.169
36.53
42.051
47.623
53.166
58.579
63.751
68.579
72.96
76.84
80.203
83.052
85.42
87.342
88.865
90.044
90.946
91.637
92.179
92.628
93.033
93.451
93.934
94.538
95.314
96.298
97.512
98.966
100.664
102.605
104.785
107.194
109.814
112.631
115.631
118.803
122.136
125.614
129.221
132.937
136.742
140.617
144.544
148.503
152.473
156.436
160.37
164.256
168.076
171.809
175.433
178.926
182.266
185.431
188.401
191.156
193.677
195.944
197.944
199.659
201.078
202.19
202.983
203.449
203.582
203.375
202.826
201.932
200.694
199.111
197.188
194.929
192.341
189.43
186.207
182.683
178.869
174.78
170.429
165.833
161.009
155.974
150.747
145.348
139.795
134.111
128.315
122.428
116.472
110.466
104.433
98.393
92.364
86.367
80.421
74.543
68.752
63.063
57.493
52.057
46.768
41.641
36.686
31.915
27.337
22.96
18.793
14.841
11.11
7.603
4.322
1.27
-1.554
-4.151
-6.522
-8.672
-10.603
-12.321
-13.832
-15.143
-16.261
-17.195
-17.953
-18.546
-18.982
-19.272
-19.425
-19.454
-19.368
-19.178
-18.894
-18.529
-18.091
-17.591
-17.04
-16.446
-15.82
-15.169
-14.502
-13.828
-13.153
-12.485
-11.83
-11.194
-10.581
-9.996
-9.444
-8.927
-8.448
-8.009
-7.612
-7.258
-6.947
-6.679
-6.454
-6.271
-6.128
-6.025
-5.958
-5.927
-5.928
-5.959
-6.018
-6.103
-6.209
-6.336
-6.479
-6.638
-6.808
-6.989
-7.179
-7.374
-7.575
-7.778
-7.983
-8.189
-8.395
-8.601
-8.805
-9.009
-9.211
-9.413
-9.616
-9.819
-10.024
-10.233
-10.447
-10.667
-10.895
-11.133
-11.383
-11.646
-11.925
-12.221
-12.536
-12.872
-13.23
-13.611
-14.016
-14.447
-14.903
-15.384
-15.889
-16.419
-16.971
-17.545
-18.139
-18.751
-19.378
-20.018
-20.668
-21.325
-21.985
-22.645
-23.299
-23.944
-24.576
-25.189
-25.778
-26.338
-26.865
-27.353
-27.797
-28.191
-28.53
-28.809
-29.024
-29.169
-29.241
-29.236
-29.15
-28.983
-28.731
-28.396
-27.976
-27.473
-26.89
-26.229
-25.491
-24.683
-23.806
-22.867
-21.87
-20.821
-19.724
-18.587
-17.417
-16.224
-15.014
-13.798
-12.582
-11.376
-10.189
-9.032
-7.912
-6.836
-5.811
-4.842
-3.938
-3.111
-2.366
-1.705
-1.126
-0.626
-0.204
0.147
0.437
0.685
0.909
1.129
1.356
1.595
1.854
2.142
2.477
2.874
3.342
3.876
4.468
5.111
5.797
6.512
7.218
7.858
8.371
8.694
8.784
8.609
8.128
7.31
6.108
4.468
2.356
-0.257
-3.387
-7.023
-11.184
-15.901
-21.093
-26.578
-32.084
-37.228
-41.711
-45.359
-47.928
-49.12
-48.784
-47
-44.153
-40.954
-37.999
-35.51
-33.714
-33.014
-33.615
-35.414
-37.555
-38.192
-35.66
-28.938
-17.913
-3.699
12.801
31.006
50.994
75.166
105.693
143.699
189.369
237.839
281.792
313.82
324.864
309.302
265.697
195.372
104.943
2.598
-105.316
-215.497
-327.102
-437.144
-545.7
-652.306
-735.624
-773.64
-778.421
-768.067
-740.125
-694.391
-638.102
-574.727
-507.844
-442.064
-380.407
-324.663
-274.461
-228.293
-185.836
-147.868
-115.77
-90.827
-73.305
-62.311
-55.817
-51.662
-48.181
-44.032
-38.774
-32.57
-25.416
-17.548
-9.554
-1.949
4.56
9.207
11.834
12.616
11.811
9.873
7.248
4.308
1.539
-0.563
-1.73
-1.861
-0.976
0.788
3.324
6.548
10.334
14.54
19.033
23.695
28.427
33.16
37.819
42.318
46.577
50.518
54.078
57.23
59.979
62.345
64.359
66.064
67.501
68.726
69.801
70.784
71.728
72.68
73.68
74.771
75.995
77.394
79.005
80.85
82.938
85.275
87.857
90.679
93.732
97
100.464
104.105
107.906
111.851
115.925
120.109
124.381
128.72
133.102
137.506
141.909
146.29
150.625
154.892
159.069
163.134
167.067
170.845
174.448
177.853
181.037
183.981
186.665
189.072
191.182
192.98
194.454
195.59
196.38
196.813
196.884
196.587
195.92
194.88
193.469
191.688
189.542
187.035
184.177
180.974
177.439
173.584
169.422
164.967
160.238
155.25
150.024
144.577
138.931
133.106
127.124
121.007
114.778
108.46
102.074
95.644
89.192
82.741
76.312
69.925
63.602
57.362
51.223
45.204
39.321
33.59
28.027
22.643
17.453
12.467
7.696
3.147
-1.171
-5.253
-9.094
-12.69
-16.04
-19.141
-21.996
-24.604
-26.968
-29.093
-30.983
-32.644
-34.083
-35.306
-36.323
-37.142
-37.774
-38.227
-38.512
-38.641
-38.624
-38.473
-38.198
-37.812
-37.325
-36.749
-36.095
-35.373
-34.593
-33.767
-32.903
-32.012
-31.1
-30.178
-29.252
-28.331
-27.419
-26.525
-25.652
-24.807
-23.993
-23.215
-22.475
-21.777
-21.122
-20.513
-19.951
-19.436
-18.97
-18.552
-18.182
-17.859
-17.584
-17.354
-17.169
-17.027
-16.928
-16.869
-16.848
-16.865
-16.918
-17.005
-17.124
-17.273
-17.452
-17.659
-17.892
-18.15
-18.431
-18.736
-19.063
-19.41
-19.777
-20.164
-20.568
-20.991
-21.43
-21.886
-22.357
-22.844
-23.345
-23.86
-24.387
-24.927
-25.478
-26.038
-26.607
-27.182
-27.762
-28.344
-28.927
-29.509
-30.086
-30.657
-31.219
-31.769
-32.305
-32.822
-33.319
-33.791
-34.235
-34.647
-35.024
-35.362
-35.658
-35.907
-36.107
-36.253
-36.343
-36.372
-36.338
-36.238
-36.069
-35.829
-35.516
-35.129
-34.667
-34.131
-33.522
-32.841
-32.092
-31.277
-30.4
-29.464
-28.476
-27.439
-26.358
-25.24
-24.089
-22.912
-21.716
-20.508
-19.296
-18.088
-16.892
-15.717
-14.57
-13.459
-12.394
-11.383
-10.431
-9.543
-8.725
-7.983
-7.327
-6.762
-6.287
-5.9
-5.597
-5.374
-5.226
-5.141
-5.101
-5.084
-5.073
-5.053
-5.017
-4.956
-4.856
-4.702
-4.475
-4.166
-3.783
-3.331
-2.817
-2.249
-1.637
-1.018
-0.45
0.009
0.296
0.363
0.176
-0.314
-1.146
-2.366
-4.034
-6.184
-8.836
-12.013
-15.706
-19.929
-24.732
-30.035
-35.643
-41.297
-46.604
-51.247
-55.065
-57.771
-59.002
-58.683
-56.911
-54.092
-51.064
-48.343
-46.127
-44.833
-44.838
-46.176
-48.443
-50.238
-49.595
-45.165
-36.717
-25.139
-11.153
4.989
23.943
48.172
79.339
117.831
163.198
211.266
256.162
292.49
313.267
313.003
288.587
237.876
163.688
72.371
-29.093
-133.846
-239.696
-347.269
-453.213
-556.282
-662.079
-756.325
-802.349
-796.024
-768.983
-733.803
-683.207
-620.1
-554.239
-490.196
-429.249
-372.645
-319.794
-269.258
-221.419
-177.459
-139.459
-109.545
-87.742
-73.091
-63.968
-58.081
-53.853
-50.053
-45.49
-39.787
-32.982
-25.148
-16.723
-8.28
-0.306
6.532
11.587
14.696
16.011
15.822
14.595
12.774
10.729
8.923
7.816
7.641
8.471
10.264
12.874
16.184
20.106
24.509
29.248
34.197
39.236
44.276
49.255
54.093
58.7
62.994
66.887
70.336
73.336
75.898
78.053
79.838
81.296
82.478
83.448
84.267
84.99
85.669
86.344
87.064
87.875
88.825
89.961
91.316
92.904
94.736
96.814
99.136
101.697
104.484
107.48
110.668
114.034
117.563
121.243
125.058
128.988
133.011
137.107
141.253
145.429
149.614
153.785
157.92
161.998
165.998
169.899
173.681
177.322
180.798
184.087
187.169
190.023
192.63
194.971
197.029
198.788
200.236
201.362
202.154
202.605
202.709
202.459
201.855
200.893
199.575
197.903
195.881
193.515
190.811
187.779
184.429
180.774
176.825
172.599
168.111
163.377
158.415
153.244
147.884
142.353
136.673
130.864
124.949
118.947
112.881
106.772
100.64
94.507
88.392
82.315
76.294
70.348
64.493
58.747
53.125
47.642
42.31
37.144
32.153
27.349
22.741
18.337
14.143
10.167
6.411
2.881
-0.423
-3.497
-6.343
-8.961
-11.353
-13.522
-15.472
-17.207
-18.732
-20.054
-21.18
-22.118
-22.874
-23.458
-23.878
-24.144
-24.265
-24.25
-24.109
-23.853
-23.49
-23.03
-22.484
-21.86
-21.168
-20.417
-19.616
-18.773
-17.897
-16.995
-16.074
-15.143
-14.207
-13.272
-12.345
-11.43
-10.533
-9.657
-8.807
-7.987
-7.198
-6.444
-5.728
-5.05
-4.412
-3.816
-3.261
-2.75
-2.281
-1.855
-1.472
-1.13
-0.829
-0.569
-0.348
-0.165
-0.019
0.093
0.17
0.216
0.23
0.216
0.174
0.107
0.015
-0.1
-0.236
-0.392
-0.566
-0.757
-0.964
-1.186
-1.422
-1.67
-1.929
-2.2
-2.481
-2.772
-3.072
-3.382
-3.7
-4.026
-4.36
-4.703
-5.055
-5.414
-5.783
-6.16
-6.547
-6.943
-7.348
-7.763
-8.188
-8.622
-9.064
-9.516
-9.974
-10.44
-10.912
-11.39
-11.871
-12.356
-12.842
-13.328
-13.812
-14.292
-14.766
-15.231
-15.685
-16.124
-16.547
-16.95
-17.33
-17.683
-18.006
-18.297
-18.55
-18.762
-18.93
-19.049
-19.117
-19.13
-19.085
-18.981
-18.815
-18.586
-18.294
-17.94
-17.524
-17.048
-16.512
-15.92
-15.274
-14.576
-13.83
-13.039
-12.208
-11.34
-10.443
-9.524
-8.588
-7.642
-6.693
-5.749
-4.817
-3.906
-3.024
-2.173
-1.362
-0.595
0.117
0.765
1.342
1.849
2.284
2.649
2.948
3.184
3.368
3.518
3.651
3.783
3.925
4.079
4.255
4.463
4.714
5.026
5.406
5.848
6.347
6.898
7.488
8.104
8.708
9.243
9.651
9.873
9.86
9.576
8.982
8.044
6.72
4.959
2.72
-0.026
-3.301
-7.108
-11.462
-16.402
-21.874
-27.712
-33.661
-39.358
-44.481
-48.835
-52.18
-54.199
-54.704
-53.737
-51.638
-49.11
-46.785
-44.916
-43.735
-43.633
-44.82
-47.236
-50.073
-51.477
-49.75
-43.862
-33.631
-20.015
-3.688
15.152
36.787
63.136
95.738
134.958
180.376
228.029
272.188
307.382
326.41
323.506
295.204
239.409
159.717
63.239
-42.674
-151.157
-261.127
-373.333
-484.028
-594.41
-704.405
-788.643
-822.02
-818.41
-798.306
-760.054
-704.118
-639.717
-571.7
-502.12
-434.013
-369.689
-310.776
-258.103
-211.303
-170.659
-136.787
-109.954
-90.788
-78.949
-72.693
-70.002
-68.549
-66.276
-62.359
-56.735
-49.565
-41.231
-32.317
-23.424
-15.391
-9.191
-5.191
-3.32
-3.323
-4.71
-7.003
-9.792
-12.54
-14.662
-15.823
-15.88
-14.836
-12.834
-9.996
-6.412
-2.218
2.426
7.376
12.509
17.724
22.945
28.094
33.075
37.799
42.182
46.152
49.674
52.745
55.381
57.613
59.483
61.035
62.323
63.412
64.361
65.227
66.059
66.902
67.802
68.807
69.961
71.306
72.869
74.663
76.697
78.969
81.478
84.216
87.171
90.326
93.663
97.168
100.829
104.63
108.557
112.59
116.709
120.892
125.12
129.374
133.631
137.872
142.075
146.22
150.286
154.253
158.101
161.809
165.354
168.715
171.871
174.804
177.493
179.922
182.074
183.934
185.489
186.728
187.642
188.223
188.463
188.358
187.906
187.104
185.953
184.454
182.612
180.431
177.918
175.081
171.931
168.478
164.734
160.715
156.434
151.907
147.152
142.187
137.03
131.699
126.216
120.601
114.873
109.054
103.164
97.224
91.255
85.276
79.307
73.368
67.476
61.65
55.906
50.261
44.73
39.328
34.069
28.965
24.027
19.266
14.693
10.314
6.137
2.169
-1.587
-5.125
-8.444
-11.541
-14.416
-17.071
-19.506
-21.723
-23.728
-25.522
-27.113
-28.506
-29.708
-30.725
-31.566
-32.239
-32.751
-33.114
-33.334
-33.422
-33.388
-33.24
-32.989
-32.643
-32.212
-31.705
-31.132
-30.5
-29.819
-29.095
-28.338
-27.554
-26.75
-25.932
-25.108
-24.281
-23.458
-22.643
-21.84
-21.053
-20.285
-19.54
-18.818
-18.123
-17.457
-16.819
-16.211
-15.634
-15.087
-14.571
-14.086
-13.629
-13.202
-12.803
-12.43
-12.083
-11.761
-11.461
-11.183
-10.926
-10.687
-10.467
-10.263
-10.073
-9.898
-9.736
-9.586
-9.447
-9.317
-9.197
-9.086
-8.984
-8.889
-8.801
-8.721
-8.648
-8.582
-8.524
-8.472
-8.428
-8.392
-8.365
-8.347
-8.339
-8.341
-8.356
-8.382
-8.423
-8.477
-8.548
-8.634
-8.739
-8.862
-9.004
-9.167
-9.351
-9.557
-9.785
-10.036
-10.309
-10.606
-10.925
-11.266
-11.628
-12.01
-12.412
-12.831
-13.267
-13.718
-14.183
-14.658
-15.142
-15.633
-16.127
-16.622
-17.114
-17.6
-18.076
-18.539
-18.984
-19.408
-19.806
-20.174
-20.508
-20.803
-21.055
-21.26
-21.414
-21.512
-21.551
-21.529
-21.442
-21.29
-21.07
-20.783
-20.429
-20.009
-19.525
-18.978
-18.37
-17.705
-16.985
-16.214
-15.395
-14.532
-13.633
-12.702
-11.749
-10.78
-9.802
-8.824
-7.852
-6.896
-5.965
-5.066
-4.205
-3.39
-2.627
-1.927
-1.3
-0.754
-0.289
0.095
0.4
0.63
0.791
0.893
0.952
0.985
1.004
1.023
1.046
1.083
1.146
1.248
1.407
1.632
1.922
2.274
2.684
3.138
3.622
4.11
4.551
4.902
5.118
5.148
4.958
4.508
3.752
2.663
1.201
-0.678
-3.002
-5.801
-9.098
-12.876
-17.142
-21.918
-27.132
-32.632
-38.171
-43.391
-47.992
-51.775
-54.496
-55.838
-55.603
-53.85
-50.968
-47.632
-44.441
-41.695
-39.638
-38.713
-39.267
-40.971
-42.713
-42.901
-39.915
-33.398
-24.067
-12.065
2.675
20.948
44.453
74.298
110.872
153.782
201.393
249.646
293.151
326.262
341.9
334.791
302.214
242.93
160.954
63.375
-43.57
-154.161
-267.16
-382.806
-495.081
-603.661
-709.939
-787.461
-810.585
-798.394
-774.696
-735.654
-679.429
-614.558
-545.755
-475.418
-407.203
-343.693
-286.353
-235.685
-190.869
-151.925
-119.472
-93.805
-75.61
-64.539
-58.714
-56.044
-54.264
-51.454
-46.929
-40.731
-33.054
-24.312
-15.153
-6.2
1.733
7.75
11.561
13.276
13.166
11.72
9.42
6.682
4.028
2.005
0.922
0.904
1.941
3.894
6.651
10.118
14.166
18.645
23.418
28.369
33.401
38.438
43.405
48.209
52.766
56.993
60.82
64.211
67.164
69.697
71.839
73.634
75.123
76.361
77.412
78.334
79.183
80.008
80.853
81.76
82.777
83.948
85.314
86.903
88.729
90.796
93.108
95.659
98.444
101.45
104.658
108.051
111.614
115.334
119.196
123.185
127.28
131.461
135.706
139.994
144.305
148.618
152.911
157.161
161.347
165.449
169.446
173.318
177.041
180.595
183.958
187.108
190.026
192.692
195.09
197.202
199.013
200.512
201.686
202.527
203.025
203.176
202.974
202.416
201.502
200.232
198.607
196.633
194.314
191.658
188.673
185.37
181.76
177.857
173.675
169.229
164.537
159.615
154.482
149.157
143.661
138.013
132.234
126.346
120.369
114.325
108.234
102.118
95.996
89.888
83.814
77.792
71.839
65.973
60.211
54.567
49.055
43.69
38.483
33.447
28.59
23.923
19.453
15.187
11.131
7.289
3.664
0.259
-2.925
-5.889
-8.633
-11.16
-13.472
-15.575
-17.472
-19.169
-20.673
-21.991
-23.13
-24.099
-24.905
-25.558
-26.066
-26.439
-26.686
-26.817
-26.841
-26.767
-26.604
-26.362
-26.049
-25.674
-25.245
-24.771
-24.259
-23.717
-23.15
-22.567
-21.972
-21.372
-20.772
-20.176
-19.59
-19.015
-18.457
-17.917
-17.399
-16.904
-16.434
-15.991
-15.576
-15.188
-14.829
-14.5
-14.199
-13.927
-13.684
-13.468
-13.28
-13.119
-12.983
-12.873
-12.787
-12.724
-12.684
-12.666
-12.668
-12.691
-12.732
-12.79
-12.866
-12.959
-13.066
-13.188
-13.323
-13.472
-13.632
-13.804
-13.987
-14.18
-14.383
-14.594
-14.814
-15.041
-15.276
-15.517
-15.764
-16.018
-16.277
-16.54
-16.808
-17.08
-17.356
-17.634
-17.915
-18.198
-18.483
-18.769
-19.056
-19.344
-19.633
-19.922
-20.212
-20.502
-20.793
-21.085
-21.377
-21.67
-21.965
-22.261
-22.559
-22.86
-23.164
-23.471
-23.782
-24.096
-24.414
-24.735
-25.059
-25.385
-25.713
-26.043
-26.373
-26.702
-27.03
-27.356
-27.678
-27.994
-28.304
-28.605
-28.895
-29.172
-29.434
-29.678
-29.901
-30.101
-30.275
-30.42
-30.532
-30.609
-30.648
-30.643
-30.593
-30.494
-30.344
-30.138
-29.876
-29.555
-29.175
-28.734
-28.233
-27.674
-27.058
-26.386
-25.66
-24.883
-24.059
-23.191
-22.283
-21.337
-20.36
-19.356
-18.331
-17.294
-16.251
-15.208
-14.173
-13.154
-12.158
-11.194
-10.269
-9.387
-8.555
-7.779
-7.066
-6.427
-5.866
-5.385
-4.982
-4.653
-4.393
-4.198
-4.055
-3.945
-3.854
-3.762
-3.659
-3.542
-3.402
-3.23
-3.015
-2.736
-2.384
-1.964
-1.476
-0.93
-0.343
0.277
0.899
1.47
1.939
2.251
2.359
2.24
1.866
1.208
0.231
-1.12
-2.892
-5.115
-7.817
-10.994
-14.653
-18.839
-23.512
-28.534
-33.685
-38.614
-43.01
-46.691
-49.427
-50.943
-51.09
-49.808
-47.361
-44.412
-41.536
-39.119
-37.522
-37.028
-37.8
-39.975
-42.887
-44.879
-44.387
-40.035
-31.294
-19.135
-4.336
13.297
34.384
60.877
94.737
135.401
181.25
229.154
273.608
310.109
333.825
338.533
320.282
276.433
206.952
117.27
14.32
-95.757
-208.299
-323.237
-440.075
-551.671
-655.841
-751.326
-813.714
-821.893
-794.769
-756.755
-707.268
-645.436
-579.308
-512.371
-445.692
-381.374
-320.862
-265.442
-215.53
-171.589
-134.66
-105.214
-83.546
-69.288
-60.98
-56.696
-54.367
-52.18
-48.837
-43.873
-37.438
-29.755
-21.291
-12.691
-4.556
2.347
7.302
10.139
11.036
10.317
8.482
6.012
3.329
0.941
-0.66
-1.229
-0.694
0.897
3.393
6.671
10.634
15.141
20.04
25.195
30.483
35.809
41.103
46.274
51.225
55.863
60.096
63.875
67.189
70.047
72.477
74.514
76.2
77.587
78.74
79.718
80.58
81.376
82.151
82.954
83.833
84.839
86.02
87.409
89.022
90.871
92.958
95.282
97.84
100.62
103.605
106.78
110.132
113.649
117.321
121.132
125.064
129.098
133.216
137.395
141.619
145.867
150.118
154.352
158.549
162.688
166.75
170.714
174.559
178.262
181.8
185.152
188.296
191.214
193.884
196.288
198.41
200.236
201.751
202.944
203.803
204.321
204.49
204.304
203.76
202.855
201.589
199.963
197.98
195.645
192.963
189.945
186.598
182.935
178.967
174.71
170.178
165.389
160.358
155.106
149.652
144.015
138.218
132.28
126.225
120.074
113.849
107.572
101.265
94.949
88.645
82.374
76.157
70.011
63.956
58.01
52.189
46.509
40.985
35.631
30.46
25.484
20.711
16.152
11.813
7.702
3.823
0.181
-3.223
-6.388
-9.312
-11.998
-14.448
-16.665
-18.655
-20.421
-21.972
-23.314
-24.455
-25.404
-26.169
-26.762
-27.191
-27.468
-27.602
-27.606
-27.49
-27.266
-26.944
-26.536
-26.053
-25.505
-24.902
-24.255
-23.574
-22.867
-22.143
-21.411
-20.678
-19.952
-19.238
-18.544
-17.874
-17.233
-16.626
-16.055
-15.525
-15.037
-14.594
-14.197
-13.848
-13.546
-13.293
-13.088
-12.931
-12.821
-12.756
-12.736
-12.759
-12.822
-12.924
-13.063
-13.236
-13.442
-13.676
-13.938
-14.224
-14.531
-14.858
-15.202
-15.56
-15.931
-16.311
-16.699
-17.093
-17.49
-17.891
-18.292
-18.692
-19.089
-19.483
-19.873
-20.256
-20.632
-21
-21.359
-21.709
-22.048
-22.376
-22.694
-23
-23.294
-23.577
-23.848
-24.107
-24.355
-24.592
-24.818
-25.035
-25.242
-25.44
-25.631
-25.816
-25.994
-26.168
-26.337
-26.504
-26.669
-26.832
-26.996
-27.161
-27.328
-27.498
-27.673
-27.853
-28.039
-28.232
-28.432
-28.64
-28.856
-29.079
-29.31
-29.548
-29.793
-30.044
-30.3
-30.561
-30.824
-31.089
-31.354
-31.616
-31.873
-32.122
-32.361
-32.587
-32.797
-32.987
-33.155
-33.297
-33.411
-33.491
-33.535
-33.54
-33.501
-33.415
-33.28
-33.092
-32.849
-32.549
-32.191
-31.774
-31.298
-30.765
-30.176
-29.532
-28.834
-28.086
-27.291
-26.452
-25.572
-24.655
-23.706
-22.731
-21.735
-20.727
-19.713
-18.699
-17.693
-16.702
-15.734
-14.798
-13.899
-13.043
-12.234
-11.48
-10.787
-10.165
-9.618
-9.147
-8.75
-8.425
-8.168
-7.974
-7.831
-7.722
-7.629
-7.535
-7.43
-7.31
-7.164
-6.982
-6.751
-6.455
-6.086
-5.645
-5.136
-4.561
-3.929
-3.25
-2.557
-1.901
-1.334
-0.91
-0.674
-0.659
-0.901
-1.43
-2.284
-3.512
-5.149
-7.228
-9.772
-12.781
-16.277
-20.299
-24.8
-29.628
-34.537
-39.173
-43.233
-46.534
-48.846
-49.871
-49.437
-47.591
-44.685
-41.405
-38.367
-35.817
-33.974
-33.228
-33.79
-35.6
-37.865
-38.751
-36.556
-30.238
-19.592
-5.569
11.037
29.846
50.959
76.304
107.814
146.652
193.189
243.571
291.309
328.986
347.482
340.27
304.613
241.382
157.156
61.042
-39.244
-139.24
-240.085
-343.787
-446.825
-548.625
-648.241
-721.696
-745.997
-737.144
-716.353
-680.706
-629.204
-569.806
-507.22
-444.372
-383.939
-327.486
-275.225
-226.447
-181.446
-141.323
-107.576
-81.572
-63.29
-51.807
-45.344
-41.673
-39.026
-35.884
-31.445
-25.701
-18.734
-10.794
-2.448
5.762
13.116
18.74
22.313
23.909
23.758
22.312
20.026
17.286
14.588
12.477
11.27
11.103
11.983
13.781
16.39
19.726
23.662
28.05
32.752
37.653
42.655
47.687
52.671
57.514
62.13
66.435
70.362
73.874
76.967
79.655
81.967
83.941
85.62
87.057
88.312
89.442
90.501
91.535
92.587
93.701
94.922
96.292
97.853
99.628
101.632
103.871
106.344
109.048
111.976
115.115
118.448
121.956
125.626
129.442
133.391
137.456
141.616
145.851
150.139
154.459
158.79
163.11
167.397
171.63
175.786
179.843
183.782
187.58
191.215
194.664
197.904
200.916
203.677
206.17
208.374
210.274
211.854
213.1
214.001
214.546
214.728
214.539
213.975
213.033
211.711
210.009
207.931
205.479
202.661
199.484
195.956
192.09
187.897
183.392
178.59
173.507
168.162
162.573
156.76
150.745
144.547
138.19
131.696
125.088
118.388
111.619
104.805
97.969
91.132
84.316
77.544
70.835
64.209
57.686
51.284
45.02
38.911
32.971
27.216
21.657
16.307
11.175
6.272
1.604
-2.821
-6.999
-10.925
-14.598
-18.015
-21.178
-24.087
-26.745
-29.155
-31.321
-33.25
-34.947
-36.421
-37.679
-38.731
-39.585
-40.252
-40.743
-41.067
-41.237
-41.264
-41.159
-40.935
-40.602
-40.172
-39.657
-39.068
-38.416
-37.712
-36.965
-36.186
-35.383
-34.565
-33.741
-32.918
-32.102
-31.301
-30.52
-29.763
-29.036
-28.342
-27.684
-27.065
-26.487
-25.951
-25.458
-25.009
-24.604
-24.241
-23.92
-23.64
-23.399
-23.194
-23.025
-22.887
-22.779
-22.698
-22.64
-22.603
-22.584
-22.58
-22.588
-22.606
-22.63
-22.659
-22.69
-22.721
-22.752
-22.78
-22.804
-22.824
-22.839
-22.849
-22.853
-22.852
-22.846
-22.836
-22.823
-22.809
-22.794
-22.78
-22.77
-22.764
-22.766
-22.778
-22.802
-22.841
-22.896
-22.972
-23.071
-23.194
-23.346
-23.528
-23.743
-23.992
-24.278
-24.602
-24.964
-25.366
-25.806
-26.286
-26.805
-27.361
-27.952
-28.579
-29.237
-29.925
-30.639
-31.377
-32.135
-32.908
-33.693
-34.484
-35.277
-36.066
-36.847
-37.612
-38.357
-39.075
-39.76
-40.406
-41.007
-41.554
-42.044
-42.468
-42.821
-43.098
-43.294
-43.404
-43.426
-43.356
-43.194
-42.939
-42.591
-42.15
-41.619
-40.998
-40.29
-39.499
-38.629
-37.683
-36.665
-35.583
-34.444
-33.256
-32.028
-30.769
-29.489
-28.196
-26.9
-25.612
-24.342
-23.095
-21.884
-20.719
-19.61
-18.571
-17.612
-16.737
-15.949
-15.247
-14.625
-14.077
-13.593
-13.157
-12.756
-12.378
-12.013
-11.657
-11.302
-10.934
-10.542
-10.111
-9.625
-9.085
-8.492
-7.851
-7.184
-6.514
-5.871
-5.302
-4.85
-4.549
-4.437
-4.553
-4.926
-5.593
-6.594
-7.951
-9.699
-11.87
-14.485
-17.565
-21.1
-25.043
-29.36
-34.038
-38.995
-44.083
-49.069
-53.592
-57.353
-60.161
-61.777
-61.898
-60.373
-57.254
-52.898
-48.047
-43.351
-39.211
-36.052
-34.312
-34.272
-35.598
-37.031
-36.81
-33.249
-25.863
-15.725
-3.51
10.765
28.002
51.449
83.445
124.215
173.089
225.484
274.835
315.035
338.452
339.175
314.182
262.38
187.508
96.344
-3.962
-107.441
-211.895
-318.186
-425.923
-528.441
-622.321
-706.829
-761.269
-768.161
-746.184
-715.968
-675.118
-621.373
-560.497
-496.842
-433.059
-371.886
-315.333
-263.924
-217.159
-175.102
-138.506
-108.326
-85.379
-69.717
-60.414
-55.509
-52.872
-50.771
-47.795
-43.454
-37.885
-31.122
-23.437
-15.427
-7.677
-1.013
3.768
6.519
7.397
6.744
4.844
1.639
-2.392
-6.318
-8.901
-8.473
-5.034
-0.034
4.976
7.874
8.453
8.489
9.311
12.38
17.856
24.228
30.56
36.189
40.857
45.066
49.008
52.603
55.845
58.654
61.028
63.077
64.862
66.414
67.784
69.037
70.226
71.398
72.589
73.825
75.14
76.583
78.195
80.009
82.05
84.324
86.837
89.588
92.572
95.78
99.196
102.801
106.576
110.505
114.573
118.763
123.058
127.435
131.874
136.351
140.844
145.331
149.791
154.199
158.534
162.774
166.896
170.881
174.707
178.352
181.794
185.013
187.987
190.698
193.128
195.259
197.077
198.567
199.72
200.524
200.973
201.059
200.778
200.128
199.107
197.718
195.961
193.843
191.368
188.544
185.382
181.892
178.087
173.981
169.588
164.926
160.012
154.864
149.502
143.946
138.217
132.337
126.326
120.207
114.001
107.732
101.42
95.088
88.757
82.447
76.179
69.972
63.843
57.812
51.894
46.105
40.461
34.974
29.658
24.524
19.581
14.839
10.307
5.989
1.892
-1.981
-5.627
-9.043
-12.23
-15.188
-17.92
-20.426
-22.713
-24.783
-26.643
-28.299
-29.759
-31.029
-32.118
-33.036
-33.789
-34.39
-34.846
-35.167
-35.365
-35.447
-35.425
-35.308
-35.105
-34.826
-34.48
-34.076
-33.622
-33.126
-32.596
-32.038
-31.46
-30.868
-30.266
-29.662
-29.059
-28.461
-27.872
-27.295
-26.734
-26.19
-25.665
-25.16
-24.677
-24.216
-23.779
-23.364
-22.971
-22.602
-22.254
-21.927
-21.621
-21.334
-21.066
-20.815
-20.581
-20.362
-20.157
-19.966
-19.787
-19.619
-19.462
-19.316
-19.178
-19.05
-18.929
-18.817
-18.712
-18.615
-18.525
-18.443
-18.368
-18.3
-18.24
-18.188
-18.144
-18.109
-18.082
-18.064
-18.055
-18.056
-18.067
-18.088
-18.119
-18.16
-18.213
-18.276
-18.351
-18.436
-18.533
-18.641
-18.761
-18.891
-19.032
-19.184
-19.347
-19.521
-19.705
-19.9
-20.106
-20.323
-20.549
-20.786
-21.034
-21.292
-21.56
-21.839
-22.128
-22.427
-22.737
-23.058
-23.389
-23.731
-24.082
-24.443
-24.813
-25.191
-25.576
-25.967
-26.363
-26.763
-27.166
-27.569
-27.973
-28.374
-28.771
-29.161
-29.543
-29.914
-30.27
-30.61
-30.929
-31.225
-31.494
-31.733
-31.939
-32.107
-32.234
-32.316
-32.349
-32.329
-32.253
-32.116
-31.915
-31.649
-31.314
-30.91
-30.434
-29.887
-29.27
-28.584
-27.829
-27.008
-26.123
-25.177
-24.172
-23.113
-22.002
-20.845
-19.646
-18.413
-17.154
-15.875
-14.584
-13.289
-11.996
-10.716
-9.456
-8.225
-7.029
-5.876
-4.772
-3.727
-2.752
-1.855
-1.036
-0.296
0.368
0.96
1.484
1.95
2.375
2.774
3.16
3.547
3.939
4.344
4.776
5.245
5.77
6.359
7.011
7.724
8.492
9.301
10.139
10.977
11.764
12.456
13.008
13.369
13.501
13.365
12.916
12.128
10.964
9.379
7.346
4.83
1.809
-1.701
-5.705
-10.227
-15.19
-20.436
-25.704
-30.616
-34.854
-38.208
-40.433
-41.211
-40.355
-37.953
-34.436
-30.529
-26.879
-23.823
-21.631
-20.764
-21.576
-23.69
-25.805
-26.19
-23.15
-16.207
-6.343
6.094
21.615
41.102
66.867
100.754
142.059
189.646
240.771
289.651
331.556
361.239
371.92
359.764
322.125
258.424
173.863
75.463
-30.745
-139.756
-251.212
-365.277
-475.227
-579.253
-677.335
-745.723
-763.486
-749.06
-724.4
-687.223
-635.513
-576.024
-512.818
-447.495
-382.829
-321.255
-263.965
-211.679
-165.133
-125.207
-92.99
-69.139
-53.247
-44.206
-40.004
-38.292
-37.221
-35.232
-31.556
-26.228
-19.385
-11.371
-2.891
5.381
12.653
18.055
21.317
22.566
22.077
20.334
17.838
15.016
12.394
10.513
9.644
9.881
11.194
13.429
16.467
20.217
24.537
29.273
34.288
39.463
44.7
49.93
55.059
59.989
64.622
68.863
72.663
76.002
78.887
81.345
83.409
85.118
86.525
87.691
88.675
89.533
90.318
91.073
91.847
92.691
93.654
94.787
96.122
97.679
99.469
101.496
103.757
106.249
108.962
111.879
114.984
118.265
121.708
125.304
129.037
132.89
136.843
140.877
144.972
149.108
153.268
157.428
161.571
165.674
169.719
173.687
177.557
181.307
184.915
188.36
191.62
194.675
197.506
200.092
202.417
204.464
206.22
207.671
208.807
209.618
210.096
210.234
210.027
209.474
208.571
207.32
205.722
203.781
201.501
198.89
195.955
192.706
189.154
185.312
181.193
176.812
172.185
167.33
162.262
157.002
151.569
145.981
140.26
134.425
128.497
122.498
116.447
110.364
104.27
98.183
92.123
86.107
80.153
74.277
68.496
62.825
57.278
51.868
46.608
41.508
36.58
31.833
27.274
22.91
18.748
14.792
11.046
7.512
4.192
1.085
-1.809
-4.492
-6.967
-9.238
-11.309
-13.186
-14.875
-16.383
-17.717
-18.886
-19.899
-20.763
-21.487
-22.082
-22.557
-22.92
-23.182
-23.352
-23.44
-23.455
-23.405
-23.3
-23.149
-22.959
-22.74
-22.497
-22.239
-21.973
-21.703
-21.437
-21.18
-20.935
-20.707
-20.5
-20.317
-20.161
-20.032
-19.934
-19.866
-19.829
-19.823
-19.849
-19.905
-19.99
-20.103
-20.243
-20.409
-20.597
-20.806
-21.035
-21.28
-21.54
-21.812
-22.093
-22.382
-22.676
-22.973
-23.27
-23.565
-23.857
-24.143
-24.422
-24.692
-24.952
-25.2
-25.435
-25.657
-25.864
-26.057
-26.234
-26.397
-26.545
-26.677
-26.796
-26.9
-26.992
-27.07
-27.138
-27.194
-27.24
-27.277
-27.306
-27.329
-27.345
-27.357
-27.365
-27.37
-27.374
-27.377
-27.381
-27.386
-27.393
-27.404
-27.419
-27.44
-27.467
-27.5
-27.542
-27.592
-27.65
-27.719
-27.797
-27.887
-27.987
-28.099
-28.223
-28.36
-28.51
-28.674
-28.851
-29.043
-29.251
-29.474
-29.713
-29.969
-30.242
-30.533
-30.842
-31.171
-31.518
-31.884
-32.27
-32.675
-33.099
-33.541
-34
-34.476
-34.968
-35.473
-35.992
-36.521
-37.059
-37.605
-38.156
-38.71
-39.263
-39.813
-40.356
-40.89
-41.41
-41.912
-42.394
-42.849
-43.275
-43.666
-44.018
-44.327
-44.586
-44.792
-44.941
-45.027
-45.046
-44.995
-44.872
-44.672
-44.395
-44.04
-43.606
-43.095
-42.506
-41.841
-41.102
-40.292
-39.415
-38.472
-37.467
-36.405
-35.292
-34.134
-32.938
-31.711
-30.46
-29.194
-27.92
-26.647
-25.386
-24.143
-22.925
-21.74
-20.595
-19.498
-18.462
-17.494
-16.595
-15.766
-15.006
-14.313
-13.685
-13.111
-12.575
-12.061
-11.554
-11.042
-10.521
-9.983
-9.416
-8.81
-8.145
-7.412
-6.615
-5.759
-4.848
-3.898
-2.917
-1.936
-1.01
-0.193
0.456
0.885
1.061
0.951
0.517
-0.283
-1.506
-3.202
-5.403
-8.134
-11.398
-15.207
-19.613
-24.578
-29.935
-35.425
-40.671
-45.334
-49.22
-52.095
-53.62
-53.597
-52.071
-49.397
-46.317
-43.507
-41.229
-39.725
-39.413
-40.501
-42.89
-45.666
-46.804
-44.491
-37.664
-26.219
-11.137
7.081
28.398
53.371
84.055
121.558
165.892
216.108
267.21
313.149
348.336
365.614
360.4
330.113
272.903
192.577
95.873
-10.404
-119.36
-229.794
-342.312
-452.711
-561.656
-668.714
-749.189
-779.195
-773.22
-752.201
-714.622
-660.646
-599.25
-535.036
-469.687
-405.85
-345.241
-288.947
-237.976
-192.393
-152.804
-120.103
-94.427
-76.067
-64.577
-58.236
-55.147
-53.211
-50.514
-46.278
-40.478
-33.282
-25.07
-16.423
-7.908
-0.308
5.467
9.091
10.652
10.402
8.822
6.379
3.475
0.633
-1.584
-2.853
-3.033
-2.122
-0.256
2.455
5.918
9.999
14.54
19.394
24.438
29.571
34.716
39.792
44.703
49.357
53.669
57.569
61.02
64.015
66.566
68.702
70.462
71.891
73.04
73.974
74.752
75.428
76.053
76.67
77.327
78.069
78.943
79.99
81.238
82.703
84.392
86.309
88.453
90.817
93.393
96.164
99.117
102.239
105.519
108.944
112.502
116.175
119.945
123.793
127.701
131.65
135.623
139.598
143.557
147.481
151.349
155.143
158.843
162.428
165.877
169.169
172.284
175.201
177.902
180.369
182.584
184.533
186.201
187.576
188.649
189.408
189.846
189.958
189.737
189.182
188.29
187.062
185.499
183.606
181.386
178.846
175.996
172.843
169.4
165.678
161.692
157.455
152.984
148.296
143.408
138.338
133.106
127.732
122.234
116.634
110.951
105.207
99.422
93.615
87.807
82.016
76.26
70.56
64.93
59.389
53.953
48.636
43.452
38.415
33.537
28.829
24.3
19.961
15.817
11.876
8.143
4.622
1.315
-1.775
-4.648
-7.306
-9.749
-11.98
-14.004
-15.824
-17.447
-18.879
-20.127
-21.198
-22.102
-22.846
-23.44
-23.893
-24.215
-24.416
-24.506
-24.494
-24.392
-24.209
-23.955
-23.639
-23.271
-22.859
-22.413
-21.94
-21.448
-20.944
-20.435
-19.928
-19.428
-18.94
-18.468
-18.017
-17.589
-17.189
-16.817
-16.476
-16.168
-15.892
-15.65
-15.442
-15.266
-15.124
-15.013
-14.933
-14.882
-14.859
-14.862
-14.889
-14.938
-15.007
-15.094
-15.197
-15.314
-15.443
-15.582
-15.73
-15.885
-16.045
-16.208
-16.375
-16.543
-16.712
-16.881
-17.049
-17.216
-17.382
-17.547
-17.71
-17.872
-18.033
-18.194
-18.353
-18.513
-18.674
-18.835
-18.997
-19.161
-19.328
-19.497
-19.67
-19.846
-20.026
-20.211
-20.401
-20.596
-20.796
-21.001
-21.212
-21.428
-21.649
-21.877
-22.109
-22.346
-22.589
-22.836
-23.087
-23.341
-23.598
-23.858
-24.12
-24.383
-24.647
-24.912
-25.177
-25.441
-25.705
-25.969
-26.231
-26.492
-26.752
-27.01
-27.267
-27.522
-27.777
-28.031
-28.283
-28.536
-28.788
-29.039
-29.29
-29.539
-29.788
-30.035
-30.279
-30.52
-30.757
-30.989
-31.215
-31.435
-31.647
-31.849
-32.041
-32.221
-32.387
-32.537
-32.669
-32.78
-32.869
-32.932
-32.968
-32.973
-32.946
-32.882
-32.78
-32.635
-32.445
-32.207
-31.918
-31.574
-31.173
-30.715
-30.197
-29.617
-28.978
-28.277
-27.519
-26.704
-25.834
-24.912
-23.94
-22.921
-21.86
-20.76
-19.625
-18.459
-17.267
-16.057
-14.836
-13.61
-12.388
-11.174
-9.978
-8.805
-7.664
-6.562
-5.505
-4.497
-3.546
-2.66
-1.848
-1.119
-0.471
0.096
0.587
1.007
1.364
1.67
1.943
2.2
2.457
2.728
3.018
3.337
3.696
4.109
4.593
5.16
5.809
6.534
7.326
8.168
9.04
9.907
10.713
11.408
11.938
12.247
12.299
12.048
11.451
10.484
9.102
7.264
4.942
2.111
-1.238
-5.073
-9.381
-14.176
-19.357
-24.754
-30.115
-35.056
-39.253
-42.5
-44.531
-45.007
-43.787
-40.958
-36.855
-32.208
-27.716
-23.804
-20.944
-19.709
-20.099
-21.412
-22.69
-22.316
-19.404
-14.495
-7.618
1.745
15.097
35.128
63.859
101.614
146.801
196.659
247.093
293.23
330.318
352.122
352.67
327.688
274.864
197.152
101.19
-5.309
-115.075
-225.95
-338.436
-448.824
-556.03
-666.031
-763.54
-810.046
-801.68
-772.996
-738.478
-689.907
-628.985
-563.826
-496.366
-427.746
-361.365
-299.724
-245.103
-198.727
-159.907
-128.273
-103.19
-84.059
-71.184
-63.601
-59.56
-57.21
-54.266
-49.588
-43.189
-35.252
-26.217
-16.738
-7.393
1.012
7.489
11.652
13.598
13.603
12.165
9.777
6.853
3.927
1.604
0.241
-0.012
0.855
2.702
5.411
8.905
13.054
17.706
22.72
27.965
33.333
38.745
44.116
49.344
54.332
58.984
63.216
66.99
70.297
73.147
75.571
77.603
79.284
80.669
81.819
82.796
83.657
84.452
85.225
86.024
86.901
87.903
89.075
90.447
92.034
93.844
95.881
98.143
100.626
103.319
106.204
109.267
112.496
115.879
119.405
123.06
126.825
130.683
134.614
138.6
142.623
146.663
150.7
154.715
158.689
162.601
166.434
170.167
173.778
177.247
180.553
183.673
186.588
189.28
191.728
193.916
195.827
197.449
198.768
199.772
200.453
200.802
200.812
200.479
199.798
198.769
197.39
195.663
193.591
191.179
188.433
185.362
181.974
178.28
174.293
170.027
165.496
160.715
155.703
150.477
145.056
139.459
133.707
127.819
121.818
115.725
109.56
103.344
97.1
90.847
84.606
78.397
72.238
66.149
60.147
54.25
48.474
42.834
37.345
32.02
26.873
21.913
17.151
12.597
8.257
4.139
0.246
-3.415
-6.844
-10.039
-12.998
-15.724
-18.219
-20.484
-22.526
-24.348
-25.957
-27.36
-28.564
-29.578
-30.41
-31.07
-31.568
-31.914
-32.118
-32.192
-32.144
-31.988
-31.732
-31.389
-30.968
-30.481
-29.936
-29.344
-28.715
-28.056
-27.377
-26.686
-25.99
-25.296
-24.61
-23.938
-23.286
-22.656
-22.054
-21.483
-20.945
-20.443
-19.978
-19.551
-19.163
-18.815
-18.506
-18.235
-18.002
-17.805
-17.643
-17.513
-17.415
-17.345
-17.302
-17.283
-17.285
-17.307
-17.344
-17.396
-17.459
-17.531
-17.61
-17.694
-17.781
-17.869
-17.956
-18.041
-18.122
-18.2
-18.272
-18.338
-18.397
-18.449
-18.494
-18.532
-18.562
-18.585
-18.601
-18.611
-18.615
-18.613
-18.607
-18.597
-18.584
-18.569
-18.553
-18.537
-18.522
-18.508
-18.498
-18.492
-18.492
-18.497
-18.51
-18.531
-18.561
-18.601
-18.652
-18.714
-18.787
-18.873
-18.972
-19.084
-19.209
-19.348
-19.501
-19.669
-19.852
-20.049
-20.262
-20.49
-20.733
-20.992
-21.266
-21.556
-21.861
-22.182
-22.517
-22.867
-23.231
-23.609
-23.999
-24.4
-24.812
-25.232
-25.659
-26.091
-26.527
-26.964
-27.4
-27.834
-28.263
-28.685
-29.098
-29.497
-29.882
-30.249
-30.594
-30.916
-31.21
-31.473
-31.703
-31.895
-32.047
-32.154
-32.214
-32.223
-32.177
-32.073
-31.908
-31.68
-31.387
-31.026
-30.597
-30.099
-29.533
-28.899
-28.2
-27.438
-26.615
-25.734
-24.8
-23.816
-22.787
-21.717
-20.611
-19.475
-18.314
-17.136
-15.95
-14.761
-13.577
-12.407
-11.258
-10.138
-9.057
-8.021
-7.036
-6.109
-5.246
-4.454
-3.744
-3.12
-2.582
-2.129
-1.758
-1.464
-1.243
-1.082
-0.965
-0.873
-0.791
-0.704
-0.609
-0.495
-0.35
-0.162
0.09
0.416
0.811
1.274
1.799
2.373
2.988
3.617
4.207
4.707
5.065
5.232
5.181
4.883
4.302
3.398
2.115
0.405
-1.759
-4.4
-7.523
-11.144
-15.317
-20.011
-25.074
-30.263
-35.228
-39.653
-43.359
-46.13
-47.641
-47.697
-46.325
-43.851
-40.986
-38.382
-36.305
-34.977
-34.751
-35.81
-38.076
-40.771
-42.092
-40.329
-34.384
-23.926
-9.696
7.69
27.947
51.08
78.536
111.649
150.839
195.984
243.705
288.531
325.14
346.613
347.257
323.817
274.097
200.685
109.821
8.342
-97.061
-204.194
-313.924
-423.152
-530.781
-642.437
-742.699
-793.228
-789.6
-764.692
-731.967
-683.814
-622.738
-556.938
-489.304
-421.968
-357.529
-297.665
-243.411
-194.564
-151.292
-114.526
-84.841
-62.82
-48.279
-39.849
-35.648
-33.604
-31.891
-29.177
-24.951
-19.304
-12.4
-4.652
3.348
11.04
17.673
22.512
25.357
26.361
25.823
24.223
22.022
19.612
17.485
16.131
15.793
16.539
18.319
20.969
24.363
28.403
32.945
37.835
42.937
48.128
53.313
58.429
63.389
68.104
72.486
76.451
79.955
82.991
85.572
87.729
89.5
90.926
92.061
92.967
93.704
94.329
94.893
95.437
96.008
96.655
97.425
98.363
99.501
100.855
102.435
104.242
106.276
108.533
111.002
113.666
116.512
119.527
122.699
126.018
129.469
133.037
136.701
140.444
144.247
148.091
151.958
155.827
159.681
163.497
167.259
170.947
174.541
178.02
181.363
184.548
187.555
190.363
192.953
195.307
197.406
199.234
200.778
202.024
202.962
203.579
203.87
203.825
203.441
202.712
201.638
200.218
198.452
196.344
193.898
191.12
188.018
184.601
180.88
176.866
172.572
168.014
163.206
158.166
152.91
147.458
141.829
136.041
130.117
124.076
117.939
111.728
105.464
99.167
92.858
86.558
80.287
74.063
67.905
61.832
55.861
50.008
44.288
38.717
33.308
28.073
23.025
18.172
13.525
9.091
4.878
0.889
-2.869
-6.395
-9.686
-12.742
-15.562
-18.15
-20.506
-22.636
-24.543
-26.234
-27.714
-28.991
-30.073
-30.968
-31.686
-32.235
-32.625
-32.868
-32.972
-32.949
-32.81
-32.564
-32.223
-31.798
-31.297
-30.732
-30.112
-29.448
-28.747
-28.018
-27.271
-26.513
-25.751
-24.992
-24.243
-23.509
-22.795
-22.107
-21.449
-20.824
-20.235
-19.686
-19.178
-18.713
-18.293
-17.918
-17.589
-17.306
-17.069
-16.877
-16.729
-16.624
-16.562
-16.539
-16.556
-16.609
-16.697
-16.818
-16.97
-17.15
-17.356
-17.587
-17.839
-18.11
-18.399
-18.704
-19.021
-19.35
-19.688
-20.033
-20.384
-20.739
-21.096
-21.455
-21.813
-22.169
-22.522
-22.872
-23.217
-23.557
-23.89
-24.217
-24.537
-24.85
-25.155
-25.453
-25.743
-26.027
-26.303
-26.574
-26.84
-27.1
-27.357
-27.61
-27.861
-28.111
-28.36
-28.611
-28.863
-29.118
-29.377
-29.641
-29.91
-30.185
-30.467
-30.756
-31.052
-31.354
-31.664
-31.979
-32.3
-32.626
-32.956
-33.29
-33.625
-33.96
-34.293
-34.623
-34.947
-35.263
-35.566
-35.856
-36.128
-36.379
-36.605
-36.804
-36.971
-37.103
-37.194
-37.243
-37.244
-37.194
-37.089
-36.927
-36.705
-36.421
-36.074
-35.661
-35.185
-34.645
-34.043
-33.379
-32.657
-31.878
-31.047
-30.165
-29.238
-28.268
-27.26
-26.221
-25.156
-24.073
-22.98
-21.882
-20.788
-19.705
-18.642
-17.609
-16.612
-15.657
-14.751
-13.9
-13.113
-12.399
-11.764
-11.208
-10.732
-10.331
-10.003
-9.743
-9.541
-9.38
-9.244
-9.115
-8.984
-8.845
-8.691
-8.511
-8.291
-8.014
-7.669
-7.262
-6.796
-6.276
-5.715
-5.12
-4.517
-3.958
-3.492
-3.172
-3.042
-3.125
-3.448
-4.045
-4.955
-6.233
-7.925
-10.053
-12.64
-15.691
-19.222
-23.286
-27.849
-32.749
-37.746
-42.502
-46.701
-50.173
-52.717
-54.013
-53.889
-52.407
-49.89
-47.031
-44.501
-42.579
-41.431
-41.39
-42.622
-44.917
-47.72
-49.536
-48.343
-42.895
-32.272
-16.292
3.567
25.752
49.052
73.203
100.335
133.315
173.815
220.592
268.42
309.545
335.124
337.614
312.589
259.324
182.207
88.837
-12.687
-116.23
-220.396
-326.127
-433.351
-538.105
-631.43
-703.119
-745.526
-756.899
-741.045
-704.539
-654.848
-597.732
-537.692
-478.153
-420.702
-366.12
-313.869
-263.367
-215.512
-171.503
-133.317
-102.853
-80.055
-64.359
-54.64
-48.62
-44.657
-41.495
-37.775
-33.099
-27.542
-21.002
-13.735
-6.345
0.674
6.653
10.863
13.172
13.772
12.912
11.034
8.585
5.925
3.528
1.883
1.219
1.604
3.006
5.271
8.289
11.98
16.212
20.836
25.721
30.743
35.808
40.85
45.783
50.514
54.953
59.009
62.636
65.825
68.584
70.942
72.934
74.595
75.978
77.142
78.146
79.046
79.888
80.716
81.574
82.511
83.573
84.808
86.246
87.904
89.791
91.909
94.256
96.829
99.616
102.599
105.763
109.096
112.583
116.215
119.975
123.846
127.808
131.841
135.925
140.041
144.168
148.286
152.374
156.412
160.379
164.256
168.023
171.658
175.138
178.442
181.547
184.434
187.083
189.473
191.587
193.41
194.926
196.122
196.988
197.512
197.688
197.507
196.965
196.059
194.788
193.151
191.151
188.791
186.078
183.017
179.62
175.895
171.855
167.514
162.887
157.989
152.839
147.455
141.855
136.062
130.094
123.975
117.727
111.371
104.93
98.428
91.887
85.329
78.776
72.25
65.771
59.361
53.038
46.822
40.731
34.781
28.989
23.369
17.936
12.701
7.676
2.872
-1.704
-6.045
-10.143
-13.995
-17.596
-20.946
-24.044
-26.889
-29.484
-31.832
-33.937
-35.804
-37.439
-38.849
-40.041
-41.025
-41.809
-42.404
-42.819
-43.065
-43.153
-43.095
-42.901
-42.583
-42.153
-41.622
-41.001
-40.301
-39.533
-38.707
-37.834
-36.922
-35.982
-35.021
-34.048
-33.07
-32.094
-31.127
-30.174
-29.24
-28.33
-27.447
-26.595
-25.777
-24.994
-24.248
-23.542
-22.874
-22.246
-21.658
-21.109
-20.598
-20.124
-19.686
-19.282
-18.911
-18.571
-18.259
-17.973
-17.712
-17.473
-17.254
-17.053
-16.868
-16.696
-16.537
-16.389
-16.249
-16.117
-15.991
-15.87
-15.754
-15.641
-15.532
-15.427
-15.325
-15.226
-15.131
-15.04
-14.953
-14.872
-14.796
-14.727
-14.666
-14.615
-14.573
-14.542
-14.525
-14.521
-14.532
-14.561
-14.607
-14.673
-14.759
-14.867
-14.998
-15.153
-15.333
-15.539
-15.771
-16.031
-16.318
-16.631
-16.971
-17.337
-17.728
-18.143
-18.579
-19.035
-19.51
-20.001
-20.506
-21.021
-21.545
-22.075
-22.606
-23.135
-23.659
-24.173
-24.674
-25.158
-25.619
-26.054
-26.458
-26.827
-27.156
-27.441
-27.676
-27.859
-27.983
-28.045
-28.042
-27.969
-27.824
-27.604
-27.309
-26.937
-26.489
-25.965
-25.368
-24.698
-23.959
-23.152
-22.283
-21.354
-20.37
-19.334
-18.252
-17.131
-15.976
-14.797
-13.601
-12.394
-11.186
-9.984
-8.797
-7.634
-6.504
-5.411
-4.362
-3.365
-2.427
-1.56
-0.77
-0.059
0.575
1.132
1.617
2.032
2.391
2.71
3.009
3.303
3.604
3.915
4.246
4.607
5.01
5.473
6.002
6.594
7.244
7.945
8.689
9.46
10.223
10.918
11.489
11.877
12.032
11.917
11.494
10.728
9.579
7.997
5.948
3.399
0.331
-3.257
-7.38
-12.072
-17.278
-22.834
-28.485
-33.868
-38.665
-42.678
-45.661
-47.301
-47.415
-46.046
-43.546
-40.596
-37.816
-35.463
-33.769
-33.157
-33.854
-35.788
-38.138
-39.06
-36.881
-30.626
-20.21
-6.538
9.858
28.855
50.896
77.902
111.08
150.704
196.196
243.066
285.465
317.605
332.038
323.784
290.313
230.539
148.972
52.933
-50.653
-155.557
-260.93
-367.549
-471.574
-573.444
-673.154
-748.012
-775.536
-770.725
-753.963
-721.637
-672.606
-614.104
-549.736
-483.17
-417.718
-355.669
-298.666
-246.033
-197.956
-155.595
-119.951
-92.409
-73.084
-60.967
-54.355
-50.945
-48.749
-46.082
-42.012
-36.452
-29.487
-21.378
-12.703
-4.041
3.825
9.933
13.899
15.773
15.784
14.405
12.109
9.301
6.507
4.308
3.046
2.869
3.785
5.653
8.358
11.81
15.874
20.391
25.218
30.232
35.332
40.445
45.489
50.369
54.994
59.277
63.149
66.571
69.54
72.069
74.189
75.941
77.367
78.523
79.471
80.27
80.974
81.636
82.296
83.002
83.801
84.738
85.855
87.179
88.724
90.497
92.5
94.73
97.18
99.839
102.689
105.715
108.903
112.24
115.714
119.308
123.005
126.784
130.627
134.513
138.424
142.341
146.242
150.109
153.921
157.658
161.303
164.835
168.233
171.477
174.546
177.42
180.081
182.511
184.69
186.605
188.24
189.583
190.623
191.351
191.757
191.836
191.582
190.993
190.067
188.804
187.206
185.275
183.017
180.439
177.547
174.351
170.862
167.092
163.055
158.764
154.236
149.487
144.533
139.393
134.087
128.632
123.049
117.358
111.58
105.734
99.84
93.92
87.993
82.078
76.194
70.359
64.592
58.908
53.325
47.857
42.519
37.325
32.286
27.414
22.72
18.213
13.902
9.792
5.89
2.201
-1.272
-4.526
-7.56
-10.373
-12.967
-15.344
-17.505
-19.455
-21.199
-22.742
-24.091
-25.251
-26.232
-27.041
-27.686
-28.177
-28.523
-28.734
-28.819
-28.789
-28.652
-28.419
-28.1
-27.703
-27.239
-26.715
-26.142
-25.528
-24.88
-24.206
-23.513
-22.809
-22.099
-21.389
-20.684
-19.99
-19.311
-18.65
-18.011
-17.396
-16.808
-16.249
-15.72
-15.222
-14.756
-14.322
-13.919
-13.548
-13.208
-12.897
-12.615
-12.36
-12.13
-11.925
-11.742
-11.58
-11.438
-11.313
-11.203
-11.108
-11.025
-10.953
-10.89
-10.836
-10.788
-10.745
-10.707
-10.672
-10.64
-10.609
-10.579
-10.55
-10.52
-10.49
-10.46
-10.43
-10.398
-10.367
-10.335
-10.304
-10.275
-10.246
-10.221
-10.198
-10.18
-10.167
-10.159
-10.159
-10.166
-10.182
-10.209
-10.245
-10.294
-10.356
-10.432
-10.524
-10.631
-10.757
-10.901
-11.065
-11.249
-11.455
-11.683
-11.936
-12.212
-12.513
-12.841
-13.195
-13.575
-13.982
-14.416
-14.876
-15.362
-15.871
-16.404
-16.959
-17.533
-18.126
-18.735
-19.357
-19.991
-20.633
-21.282
-21.933
-22.583
-23.229
-23.867
-24.492
-25.101
-25.69
-26.255
-26.79
-27.293
-27.757
-28.179
-28.554
-28.878
-29.146
-29.353
-29.497
-29.573
-29.578
-29.511
-29.37
-29.153
-28.862
-28.497
-28.06
-27.553
-26.978
-26.338
-25.637
-24.879
-24.068
-23.208
-22.305
-21.366
-20.396
-19.405
-18.4
-17.388
-16.378
-15.376
-14.393
-13.437
-12.516
-11.634
-10.8
-10.018
-9.298
-8.651
-8.082
-7.592
-7.179
-6.842
-6.577
-6.378
-6.235
-6.129
-6.042
-5.957
-5.862
-5.754
-5.621
-5.453
-5.237
-4.954
-4.596
-4.167
-3.67
-3.11
-2.496
-1.842
-1.18
-0.565
-0.051
0.308
0.465
0.388
0.04
-0.609
-1.598
-2.974
-4.775
-7.029
-9.758
-12.965
-16.666
-20.899
-25.622
-30.678
-35.824
-40.705
-45.002
-48.515
-51.011
-52.176
-51.82
-49.984
-47.015
-43.627
-40.488
-37.889
-36.089
-35.513
-36.405
-38.71
-41.57
-43.048
-41.375
-35.469
-25.248
-11.769
4.458
23.408
45.726
73.716
108.638
150.464
198.173
246.881
290.68
324.271
340.958
336.189
307.368
252.757
175.783
82.695
-20.006
-125.921
-233.855
-344.09
-452.803
-560.772
-667.702
-749.873
-783.427
-782.04
-765.99
-732.869
-682.542
-622.959
-557.314
-488.274
-419.713
-354.626
-295.728
-243.511
-197.009
-156.219
-121.52
-93.516
-73.021
-59.732
-52.238
-48.676
-46.996
-45.489
-42.973
-39.003
-33.665
-27.155
-19.926
-12.55
-5.572
0.314
4.483
6.766
7.322
6.466
4.67
2.383
-0.006
-2.038
-3.273
-3.49
-2.636
-0.768
1.96
5.411
9.48
14.023
18.882
23.931
29.053
34.151
39.164
44.009
48.598
52.855
56.704
60.103
63.049
65.556
67.654
69.384
70.791
71.927
72.856
73.636
74.323
74.967
75.611
76.299
77.079
77.995
79.089
80.39
81.915
83.671
85.66
87.88
90.327
92.988
95.848
98.893
102.109
105.483
109.004
112.657
116.424
120.287
124.226
128.222
132.255
136.307
140.357
144.384
148.37
152.293
156.136
159.877
163.494
166.968
170.276
173.397
176.312
179.001
181.447
183.633
185.542
187.163
188.482
189.49
190.178
190.537
190.563
190.251
189.6
188.609
187.278
185.611
183.612
181.287
178.644
175.691
172.441
168.904
165.095
161.028
156.718
152.183
147.44
142.508
137.406
132.154
126.772
121.28
115.701
110.054
104.36
98.64
92.914
87.202
81.523
75.895
70.336
64.864
59.494
54.242
49.121
44.147
39.33
34.682
30.213
25.931
21.845
17.96
14.282
10.815
7.561
4.522
1.698
-0.911
-3.308
-5.494
-7.475
-9.255
-10.84
-12.236
-13.451
-14.492
-15.368
-16.088
-16.661
-17.097
-17.406
-17.597
-17.681
-17.668
-17.568
-17.391
-17.147
-16.844
-16.493
-16.101
-15.678
-15.231
-14.767
-14.294
-13.818
-13.344
-12.879
-12.427
-11.992
-11.578
-11.188
-10.824
-10.489
-10.184
-9.91
-9.668
-9.457
-9.279
-9.131
-9.013
-8.925
-8.864
-8.829
-8.817
-8.828
-8.859
-8.908
-8.972
-9.05
-9.139
-9.238
-9.344
-9.455
-9.571
-9.688
-9.806
-9.924
-10.039
-10.152
-10.26
-10.364
-10.463
-10.557
-10.644
-10.726
-10.801
-10.871
-10.935
-10.993
-11.046
-11.095
-11.14
-11.182
-11.221
-11.259
-11.295
-11.333
-11.371
-11.411
-11.455
-11.502
-11.554
-11.611
-11.675
-11.746
-11.825
-11.912
-12.008
-12.114
-12.23
-12.358
-12.497
-12.647
-12.811
-12.988
-13.178
-13.382
-13.602
-13.836
-14.086
-14.352
-14.635
-14.935
-15.252
-15.586
-15.936
-16.303
-16.686
-17.084
-17.495
-17.92
-18.356
-18.802
-19.256
-19.718
-20.185
-20.655
-21.127
-21.597
-22.063
-22.523
-22.974
-23.412
-23.834
-24.238
-24.619
-24.975
-25.301
-25.593
-25.848
-26.062
-26.23
-26.348
-26.412
-26.418
-26.363
-26.244
-26.059
-25.805
-25.481
-25.088
-24.626
-24.095
-23.498
-22.835
-22.109
-21.323
-20.479
-19.582
-18.633
-17.639
-16.604
-15.535
-14.44
-13.326
-12.2
-11.069
-9.942
-8.825
-7.729
-6.661
-5.627
-4.633
-3.688
-2.801
-1.983
-1.244
-0.582
0.001
0.508
0.943
1.312
1.624
1.897
2.144
2.38
2.616
2.853
3.101
3.371
3.674
4.028
4.443
4.915
5.441
6.016
6.625
7.254
7.875
8.439
8.903
9.226
9.363
9.284
8.954
8.337
7.406
6.129
4.465
2.387
-0.132
-3.116
-6.553
-10.45
-14.83
-19.63
-24.71
-29.842
-34.676
-38.908
-42.341
-44.742
-45.803
-45.341
-43.4
-40.339
-36.887
-33.717
-31.139
-29.413
-28.963
-30.041
-32.58
-35.726
-37.553
-36.256
-30.721
-20.769
-7.339
9.019
28.217
50.713
78.527
112.984
154.183
201.372
250.231
295.041
330.61
350.235
348.769
322.957
270.349
193.641
99.034
-6.408
-115.608
-226.407
-339.234
-450.323
-558.043
-667.353
-763.084
-808.11
-800.08
-773.244
-740.308
-692.878
-631.844
-563.697
-491.545
-417.978
-347.644
-284.567
-230.472
-185.567
-148.486
-118.043
-93.685
-75.219
-63.087
-56.413
-53.364
-51.934
-49.768
-45.735
-39.867
-32.364
-23.707
-14.589
-5.599
2.448
8.584
12.457
14.16
13.96
12.357
9.837
6.817
3.834
1.472
0.07
-0.234
0.563
2.318
4.915
8.263
12.224
16.64
21.365
26.277
31.273
36.278
41.213
45.981
50.491
54.655
58.403
61.695
64.526
66.909
68.873
70.458
71.708
72.678
73.432
74.032
74.531
74.983
75.43
75.92
76.5
77.216
78.111
79.213
80.538
82.092
83.879
85.895
88.137
90.592
93.243
96.075
99.074
102.228
105.524
108.946
112.478
116.098
119.789
123.53
127.303
131.088
134.864
138.612
142.312
145.944
149.49
152.929
156.241
159.405
162.399
165.204
167.801
170.172
172.298
174.164
175.755
177.059
178.064
178.761
179.141
179.198
178.927
178.324
177.389
176.12
174.521
172.593
170.341
167.773
164.896
161.719
158.253
154.51
150.503
146.248
141.759
137.053
132.147
127.059
121.808
116.414
110.894
105.271
99.563
93.791
87.975
82.135
76.29
70.46
64.662
58.915
53.236
47.642
42.148
36.77
31.521
26.414
21.462
16.675
12.065
7.639
3.406
-0.628
-4.457
-8.076
-11.483
-14.675
-17.651
-20.411
-22.955
-25.286
-27.406
-29.32
-31.03
-32.544
-33.867
-35.005
-35.967
-36.759
-37.39
-37.869
-38.205
-38.407
-38.483
-38.444
-38.298
-38.056
-37.726
-37.317
-36.839
-36.3
-35.709
-35.073
-34.4
-33.699
-32.975
-32.234
-31.485
-30.731
-29.978
-29.23
-28.493
-27.769
-27.063
-26.376
-25.713
-25.074
-24.461
-23.876
-23.32
-22.793
-22.296
-21.828
-21.389
-20.979
-20.598
-20.243
-19.915
-19.613
-19.334
-19.078
-18.843
-18.629
-18.433
-18.254
-18.091
-17.943
-17.809
-17.687
-17.576
-17.475
-17.384
-17.3
-17.224
-17.154
-17.089
-17.029
-16.973
-16.92
-16.87
-16.822
-16.775
-16.73
-16.686
-16.642
-16.599
-16.556
-16.512
-16.469
-16.425
-16.381
-16.337
-16.293
-16.249
-16.206
-16.163
-16.12
-16.079
-16.039
-16
-15.964
-15.929
-15.897
-15.868
-15.842
-15.821
-15.804
-15.793
-15.787
-15.789
-15.799
-15.818
-15.846
-15.885
-15.935
-15.997
-16.073
-16.163
-16.268
-16.389
-16.527
-16.682
-16.855
-17.046
-17.254
-17.48
-17.723
-17.983
-18.258
-18.547
-18.85
-19.165
-19.49
-19.824
-20.166
-20.511
-20.86
-21.207
-21.552
-21.89
-22.218
-22.533
-22.831
-23.109
-23.363
-23.589
-23.783
-23.94
-24.056
-24.128
-24.15
-24.119
-24.032
-23.884
-23.673
-23.396
-23.053
-22.642
-22.162
-21.616
-21.004
-20.327
-19.587
-18.786
-17.927
-17.015
-16.051
-15.04
-13.986
-12.895
-11.774
-10.63
-9.47
-8.302
-7.132
-5.968
-4.818
-3.691
-2.594
-1.533
-0.514
0.454
1.364
2.204
2.969
3.656
4.267
4.805
5.276
5.686
6.045
6.372
6.681
6.987
7.304
7.634
7.989
8.377
8.811
9.308
9.882
10.528
11.247
12.029
12.854
13.71
14.568
15.374
16.083
16.646
17.006
17.137
17.003
16.564
15.8
14.665
13.11
11.112
8.632
5.655
2.209
-1.72
-6.15
-10.987
-16.072
-21.145
-25.812
-29.781
-32.87
-34.837
-35.391
-34.368
-31.841
-28.211
-24.223
-20.532
-17.417
-15.131
-14.117
-14.611
-16.494
-18.859
-19.753
-17.421
-10.855
0.014
14.157
30.9
50.023
71.945
98.864
132.322
172.743
219.536
267.854
311.383
343.949
357.726
347.408
310.385
245.884
158.855
57.106
-52.801
-165.471
-280.317
-397.697
-510.611
-616.826
-715.793
-782.651
-796.292
-776.666
-747.379
-706.473
-651.381
-588.528
-521.433
-451.677
-383.289
-319.585
-262.808
-214.136
-172.329
-136.787
-107.431
-83.845
-66.957
-56.73
-51.326
-48.858
-47.094
-44.123
-39.504
-33.434
-26.014
-17.614
-8.861
-0.332
7.119
12.612
15.938
17.256
16.844
15.188
12.753
9.941
7.28
5.295
4.274
4.325
5.419
7.411
10.183
13.642
17.662
22.101
26.829
31.734
36.714
41.694
46.599
51.336
55.821
59.973
63.721
67.029
69.901
72.354
74.421
76.142
77.559
78.722
79.693
80.529
81.283
82.004
82.732
83.509
84.381
85.391
86.578
87.969
89.576
91.404
93.453
95.72
98.199
100.877
103.737
106.763
109.941
113.259
116.705
120.263
123.916
127.645
131.43
135.253
139.096
142.939
146.763
150.548
154.275
157.926
161.482
164.925
168.235
171.391
174.373
177.164
179.743
182.095
184.202
186.049
187.622
188.908
189.898
190.582
190.952
191.002
190.727
190.124
189.191
187.928
186.336
184.417
182.177
179.621
176.757
173.592
170.137
166.404
162.404
158.152
153.662
148.951
144.033
138.927
133.651
128.223
122.662
116.988
111.219
105.376
99.479
93.546
87.598
81.653
75.73
69.846
64.019
58.267
52.604
47.046
41.609
36.305
31.147
26.148
21.318
16.667
12.204
7.936
3.869
0.01
-3.638
-7.071
-10.288
-13.287
-16.07
-18.636
-20.988
-23.13
-25.065
-26.797
-28.334
-29.68
-30.843
-31.83
-32.649
-33.308
-33.817
-34.184
-34.419
-34.531
-34.529
-34.423
-34.223
-33.938
-33.577
-33.15
-32.665
-32.131
-31.557
-30.95
-30.318
-29.668
-29.007
-28.342
-27.677
-27.018
-26.371
-25.739
-25.127
-24.538
-23.974
-23.439
-22.935
-22.463
-22.026
-21.624
-21.257
-20.927
-20.633
-20.375
-20.153
-19.967
-19.815
-19.696
-19.611
-19.556
-19.531
-19.535
-19.566
-19.622
-19.701
-19.803
-19.925
-20.065
-20.223
-20.396
-20.583
-20.782
-20.992
-21.212
-21.44
-21.675
-21.916
-22.161
-22.409
-22.659
-22.91
-23.161
-23.412
-23.661
-23.908
-24.153
-24.394
-24.632
-24.866
-25.095
-25.321
-25.542
-25.758
-25.97
-26.179
-26.383
-26.584
-26.783
-26.979
-27.174
-27.369
-27.564
-27.759
-27.957
-28.158
-28.363
-28.572
-28.789
-29.012
-29.244
-29.485
-29.737
-30
-30.274
-30.56
-30.857
-31.167
-31.487
-31.819
-32.16
-32.509
-32.867
-33.231
-33.6
-33.971
-34.344
-34.715
-35.081
-35.441
-35.79
-36.125
-36.444
-36.742
-37.016
-37.261
-37.474
-37.651
-37.786
-37.877
-37.917
-37.904
-37.832
-37.697
-37.497
-37.228
-36.888
-36.475
-35.987
-35.424
-34.789
-34.081
-33.302
-32.455
-31.541
-30.565
-29.529
-28.438
-27.295
-26.107
-24.878
-23.617
-22.331
-21.029
-19.718
-18.406
-17.103
-15.816
-14.555
-13.329
-12.144
-11.007
-9.927
-8.913
-7.977
-7.127
-6.364
-5.688
-5.096
-4.585
-4.149
-3.778
-3.455
-3.165
-2.895
-2.632
-2.374
-2.113
-1.836
-1.531
-1.181
-0.776
-0.319
0.186
0.735
1.312
1.905
2.486
3.007
3.424
3.699
3.787
3.659
3.284
2.624
1.656
0.343
-1.353
-3.454
-5.986
-8.969
-12.389
-16.254
-20.582
-25.302
-30.273
-35.269
-39.949
-44.024
-47.307
-49.568
-50.512
-49.97
-47.992
-44.931
-41.487
-38.301
-35.662
-33.812
-33.15
-33.905
-36.006
-38.683
-40.144
-38.649
-33.085
-23.102
-9.495
6.941
25.755
46.856
71.925
102.852
140.592
185.438
233.844
279.663
316.695
337.001
334.478
306.132
250.59
172.003
77.608
-25.662
-131.499
-239.11
-349.258
-458.25
-566.733
-673.982
-756.032
-789.375
-786.65
-766.838
-728.775
-673.427
-609.865
-543.154
-475.495
-409.614
-347.377
-289.891
-237.742
-190.77
-149.528
-114.897
-87.29
-67.23
-54.327
-46.89
-42.984
-40.429
-37.255
-32.643
-26.517
-19.015
-10.486
-1.478
7.448
15.49
21.695
25.696
27.558
27.527
26.085
23.701
20.781
17.86
15.524
14.122
13.808
14.592
16.339
18.937
22.3
26.295
30.767
35.571
40.584
45.704
50.854
55.954
60.905
65.613
69.987
73.951
77.465
80.519
83.128
85.317
87.128
88.602
89.792
90.764
91.576
92.284
92.939
93.584
94.266
95.036
95.94
97.021
98.31
99.821
101.564
103.54
105.748
108.182
110.832
113.68
116.712
119.915
123.276
126.784
130.424
134.18
138.031
141.958
145.945
149.971
154.018
158.066
162.095
166.087
170.022
173.881
177.644
181.291
184.799
188.148
191.317
194.286
197.036
199.548
201.804
203.79
205.49
206.892
207.985
208.758
209.204
209.315
209.086
208.514
207.596
206.332
204.723
202.771
200.482
197.86
194.913
191.651
188.082
184.221
180.078
175.669
171.01
166.116
161.006
155.697
150.21
144.563
138.778
132.874
126.874
120.798
114.668
108.505
102.329
96.161
90.021
83.929
77.904
71.963
66.124
60.404
54.82
49.384
44.112
39.017
34.11
29.401
24.899
20.614
16.552
12.717
9.115
5.749
2.62
-0.272
-2.927
-5.347
-7.535
-9.496
-11.234
-12.757
-14.07
-15.183
-16.103
-16.84
-17.405
-17.806
-18.055
-18.163
-18.142
-18.002
-17.754
-17.412
-16.984
-16.484
-15.921
-15.307
-14.651
-13.963
-13.254
-12.531
-11.804
-11.08
-10.367
-9.67
-8.997
-8.353
-7.741
-7.167
-6.634
-6.145
-5.701
-5.305
-4.958
-4.659
-4.411
-4.211
-4.059
-3.954
-3.895
-3.88
-3.906
-3.972
-4.076
-4.215
-4.388
-4.591
-4.822
-5.08
-5.362
-5.666
-5.99
-6.332
-6.691
-7.066
-7.455
-7.857
-8.272
-8.699
-9.138
-9.589
-10.053
-10.528
-11.017
-11.52
-12.036
-12.569
-13.117
-13.684
-14.269
-14.875
-15.502
-16.152
-16.826
-17.524
-18.247
-18.995
-19.769
-20.568
-21.39
-22.237
-23.105
-23.995
-24.903
-25.828
-26.768
-27.719
-28.679
-29.644
-30.611
-31.574
-32.53
-33.474
-34.402
-35.308
-36.187
-37.035
-37.846
-38.614
-39.334
-40.001
-40.608
-41.152
-41.625
-42.024
-42.345
-42.583
-42.737
-42.803
-42.78
-42.668
-42.468
-42.18
-41.807
-41.35
-40.812
-40.197
-39.509
-38.753
-37.933
-37.054
-36.125
-35.151
-34.143
-33.107
-32.054
-30.991
-29.926
-28.87
-27.832
-26.821
-25.844
-24.91
-24.027
-23.204
-22.454
-21.785
-21.2
-20.697
-20.275
-19.93
-19.655
-19.442
-19.272
-19.129
-18.997
-18.864
-18.721
-18.562
-18.375
-18.143
-17.849
-17.481
-17.039
-16.532
-15.971
-15.37
-14.747
-14.138
-13.599
-13.188
-12.96
-12.966
-13.24
-13.827
-14.765
-16.088
-17.836
-20.045
-22.742
-25.938
-29.639
-33.824
-38.473
-43.584
-49.032
-54.614
-60.052
-64.968
-69.048
-72.106
-73.883
-74.048
-72.561
-69.571
-65.476
-61.115
-57.029
-53.443
-50.827
-49.6
-49.792
-51.016
-51.939
-50.579
-45.569
-36.593
-24.36
-9.711
6.837
25.657
48.978
78.699
115.89
160.66
208.911
254.278
289.724
306.696
298.997
263.788
201.506
117.968
21.82
-79.047
-179.673
-280.53
-383.255
-484.498
-584.715
-684.348
-758.695
-783.065
-773.793
-752.437
-715.202
-661.118
-599.063
-534.495
-470.622
-409.878
-353.49
-301.327
-252.381
-206.935
-166.147
-131.578
-104.742
-85.686
-73.484
-66.348
-62.012
-58.693
-54.911
-49.914
-43.676
-36.234
-27.857
-19.108
-10.516
-2.886
3.162
7.554
10.034
10.736
9.501
6.046
1.575
-2.87
-5.938
-6.195
-4.487
-1.642
1.641
4.31
6.955
10.14
13.87
18.428
23.456
28.543
33.677
38.74
43.662
48.418
52.881
56.947
60.588
63.803
66.6
69.011
71.076
72.837
74.352
75.691
76.906
78.048
79.167
80.301
81.496
82.797
84.247
85.886
87.741
89.826
92.145
94.7
97.486
100.496
103.717
107.128
110.714
114.458
118.346
122.363
126.493
130.716
135.009
139.352
143.723
148.1
152.463
156.789
161.056
165.243
169.328
173.292
177.113
180.768
184.236
187.496
190.525
193.305
195.817
198.041
199.963
201.566
202.839
203.77
204.35
204.57
204.425
203.911
203.024
201.763
200.131
198.129
195.761
193.035
189.957
186.537
182.787
178.719
174.347
169.686
164.754
159.568
154.147
148.511
142.68
136.676
130.52
124.235
117.843
111.366
104.829
98.252
91.659
85.071
78.51
71.996
65.549
59.189
52.934
46.802
40.809
34.97
29.301
23.815
18.524
13.438
8.568
3.922
-0.492
-4.67
-8.606
-12.298
-15.743
-18.941
-21.892
-24.598
-27.062
-29.288
-31.28
-33.044
-34.588
-35.919
-37.045
-37.975
-38.719
-39.286
-39.686
-39.931
-40.031
-39.997
-39.84
-39.57
-39.2
-38.739
-38.199
-37.59
-36.921
-36.204
-35.446
-34.658
-33.847
-33.021
-32.189
-31.356
-30.529
-29.715
-28.917
-28.141
-27.391
-26.67
-25.981
-25.327
-24.709
-24.129
-23.587
-23.085
-22.622
-22.198
-21.812
-21.464
-21.152
-20.876
-20.632
-20.421
-20.239
-20.085
-19.957
-19.852
-19.769
-19.705
-19.659
-19.627
-19.609
-19.603
-19.606
-19.618
-19.636
-19.66
-19.688
-19.72
-19.754
-19.79
-19.827
-19.865
-19.905
-19.945
-19.986
-20.028
-20.073
-20.119
-20.17
-20.224
-20.284
-20.35
-20.423
-20.505
-20.597
-20.7
-20.815
-20.944
-21.089
-21.25
-21.428
-21.624
-21.84
-22.075
-22.331
-22.606
-22.9
-23.214
-23.547
-23.897
-24.264
-24.646
-25.043
-25.452
-25.871
-26.298
-26.731
-27.166
-27.601
-28.031
-28.454
-28.866
-29.263
-29.641
-29.995
-30.321
-30.615
-30.872
-31.087
-31.256
-31.373
-31.435
-31.438
-31.377
-31.25
-31.055
-30.789
-30.451
-30.043
-29.564
-29.015
-28.397
-27.711
-26.96
-26.147
-25.274
-24.344
-23.361
-22.331
-21.258
-20.152
-19.019
-17.866
-16.7
-15.53
-14.364
-13.209
-12.076
-10.969
-9.896
-8.864
-7.882
-6.963
-6.115
-5.338
-4.633
-3.997
-3.427
-2.917
-2.457
-2.03
-1.621
-1.216
-0.802
-0.378
0.066
0.54
1.056
1.63
2.272
2.975
3.737
4.55
5.397
6.265
7.122
7.914
8.596
9.121
9.439
9.516
9.313
8.785
7.906
6.639
4.941
2.79
0.158
-2.973
-6.581
-10.668
-15.251
-20.247
-25.5
-30.761
-35.666
-39.911
-43.3
-45.586
-46.452
-45.717
-43.456
-40.071
-36.258
-32.627
-29.493
-27.135
-26.011
-26.457
-28.115
-29.82
-29.963
-26.937
-20.374
-10.96
1.212
16.274
34.97
58.921
89.156
125.867
168.553
215.397
262.108
303.43
333.73
346.026
335.449
299.26
236.551
152.223
53.7
-52.077
-158.887
-266.465
-375.735
-481.94
-585.988
-688.537
-763.983
-787.506
-775.658
-750.619
-709.586
-652.198
-587.944
-522.376
-457.748
-395.729
-337.194
-282.109
-230.326
-182.845
-141.178
-106.938
-81.18
-63.549
-52.887
-47.197
-44.192
-42.065
-39.252
-34.965
-29.192
-22.017
-13.735
-4.978
3.638
11.33
17.207
20.959
22.678
22.622
21.268
19.086
16.487
13.983
12.114
11.188
11.328
12.521
14.625
17.522
21.117
25.281
29.862
34.722
39.741
44.819
49.881
54.847
59.624
64.124
68.266
71.982
75.236
78.03
80.38
82.318
83.886
85.126
86.094
86.851
87.458
87.968
88.434
88.896
89.402
89.999
90.731
91.64
92.753
94.086
95.644
97.432
99.447
101.684
104.133
106.779
109.607
112.605
115.761
119.065
122.501
126.054
129.704
133.433
137.223
141.055
144.911
148.77
152.614
156.422
160.175
163.855
167.441
170.913
174.25
177.43
180.433
183.24
185.831
188.19
190.298
192.141
193.704
194.976
195.945
196.603
196.941
196.952
196.633
195.98
194.991
193.667
192.009
190.021
187.708
185.075
182.131
178.886
175.351
171.536
167.457
163.127
158.563
153.78
148.796
143.63
138.299
132.824
127.223
121.518
115.728
109.874
103.977
98.055
92.129
86.217
80.34
74.516
68.761
63.093
57.528
52.082
46.768
41.602
36.594
31.757
27.101
22.635
18.367
14.305
10.453
6.817
3.4
0.204
-2.77
-5.522
-8.053
-10.366
-12.463
-14.348
-16.028
-17.507
-18.792
-19.892
-20.813
-21.565
-22.156
-22.597
-22.897
-23.066
-23.115
-23.054
-22.893
-22.643
-22.315
-21.918
-21.462
-20.958
-20.415
-19.841
-19.245
-18.636
-18.02
-17.406
-16.8
-16.207
-15.633
-15.084
-14.563
-14.074
-13.621
-13.206
-12.831
-12.497
-12.206
-11.958
-11.753
-11.59
-11.469
-11.389
-11.348
-11.343
-11.374
-11.437
-11.529
-11.65
-11.794
-11.96
-12.145
-12.345
-12.559
-12.782
-13.014
-13.251
-13.49
-13.731
-13.971
-14.207
-14.439
-14.666
-14.885
-15.097
-15.301
-15.496
-15.683
-15.861
-16.032
-16.195
-16.353
-16.505
-16.654
-16.801
-16.948
-17.096
-17.248
-17.406
-17.571
-17.747
-17.934
-18.135
-18.351
-18.585
-18.837
-19.108
-19.399
-19.711
-20.043
-20.397
-20.771
-21.165
-21.579
-22.011
-22.459
-22.922
-23.398
-23.884
-24.376
-24.872
-25.369
-25.861
-26.346
-26.819
-27.275
-27.71
-28.118
-28.495
-28.834
-29.131
-29.38
-29.576
-29.715
-29.792
-29.804
-29.748
-29.621
-29.421
-29.15
-28.806
-28.389
-27.899
-27.34
-26.712
-26.019
-25.262
-24.446
-23.574
-22.651
-21.684
-20.68
-19.647
-18.59
-17.518
-16.44
-15.363
-14.299
-13.254
-12.235
-11.25
-10.306
-9.413
-8.584
-7.826
-7.14
-6.527
-5.987
-5.515
-5.11
-4.758
-4.443
-4.149
-3.86
-3.563
-3.258
-2.936
-2.587
-2.203
-1.764
-1.262
-0.701
-0.082
0.585
1.284
2.005
2.714
3.352
3.866
4.197
4.291
4.127
3.673
2.902
1.782
0.258
-1.716
-4.164
-7.121
-10.581
-14.551
-19.084
-24.129
-29.528
-35.046
-40.313
-45.004
-48.939
-51.881
-53.547
-53.793
-52.557
-50.134
-47.213
-44.333
-41.874
-40.111
-39.222
-39.443
-40.881
-43.018
-44.55
-43.877
-39.581
-30.709
-17.184
0.165
20.584
43.254
67.741
95.761
128.991
168.139
212.979
259.042
299.784
328.976
339.575
326.732
288.764
225.688
141.285
42.231
-66.262
-180.194
-297.831
-418.355
-534.342
-641.299
-737.343
-801.26
-815.739
-797.609
-766.464
-722.074
-663.828
-597.93
-528.469
-457.545
-388.822
-325.125
-268.107
-218.662
-175.807
-139.27
-109.33
-85.752
-69.256
-59.551
-54.595
-52.379
-50.75
-47.898
-43.405
-37.477
-30.211
-21.979
-13.452
-5.231
1.843
6.921
9.835
10.775
10.039
8.127
5.531
2.668
0.076
-1.717
-2.462
-2.083
-0.63
1.729
4.872
8.698
13.068
17.831
22.852
28.011
33.206
38.362
43.388
48.185
52.657
56.715
60.308
63.421
66.066
68.279
70.096
71.562
72.73
73.662
74.42
75.064
75.646
76.213
76.813
77.496
78.313
79.313
80.528
81.977
83.67
85.609
87.791
90.212
92.861
95.722
98.778
102.016
105.423
108.989
112.698
116.532
120.473
124.498
128.59
132.728
136.893
141.062
145.217
149.335
153.397
157.383
161.272
165.041
168.669
172.133
175.412
178.484
181.33
183.931
186.268
188.326
190.091
191.549
192.689
193.502
193.979
194.114
193.902
193.34
192.426
191.161
189.546
187.585
185.283
182.646
179.683
176.405
172.821
168.946
164.792
160.376
155.714
150.823
145.72
140.426
134.96
129.342
123.593
117.734
111.785
105.768
99.704
93.613
87.516
81.433
75.382
69.382
63.451
57.607
51.866
46.243
40.753
35.409
30.226
25.214
20.383
15.744
11.304
7.071
3.05
-0.753
-4.336
-7.696
-10.831
-13.742
-16.43
-18.896
-21.145
-23.179
-25.005
-26.628
-28.054
-29.291
-30.346
-31.229
-31.947
-32.511
-32.928
-33.21
-33.366
-33.406
-33.34
-33.178
-32.93
-32.606
-32.215
-31.767
-31.271
-30.736
-30.169
-29.58
-28.976
-28.363
-27.749
-27.14
-26.541
-25.957
-25.394
-24.854
-24.341
-23.858
-23.408
-22.992
-22.612
-22.269
-21.963
-21.695
-21.463
-21.269
-21.11
-20.986
-20.896
-20.837
-20.807
-20.806
-20.829
-20.877
-20.945
-21.031
-21.133
-21.25
-21.377
-21.512
-21.655
-21.8
-21.948
-22.095
-22.24
-22.381
-22.516
-22.643
-22.763
-22.872
-22.972
-23.06
-23.137
-23.203
-23.257
-23.299
-23.329
-23.349
-23.358
-23.358
-23.349
-23.333
-23.312
-23.285
-23.256
-23.226
-23.196
-23.169
-23.147
-23.131
-23.123
-23.127
-23.144
-23.175
-23.225
-23.293
-23.382
-23.494
-23.63
-23.791
-23.978
-24.191
-24.43
-24.695
-24.986
-25.302
-25.643
-26.007
-26.392
-26.798
-27.221
-27.66
-28.111
-28.572
-29.038
-29.507
-29.973
-30.434
-30.884
-31.319
-31.734
-32.124
-32.485
-32.809
-33.093
-33.33
-33.516
-33.644
-33.711
-33.712
-33.643
-33.502
-33.285
-32.992
-32.623
-32.177
-31.655
-31.057
-30.385
-29.641
-28.828
-27.948
-27.005
-26.002
-24.946
-23.842
-22.698
-21.523
-20.323
-19.106
-17.88
-16.654
-15.438
-14.24
-13.066
-11.924
-10.823
-9.773
-8.787
-7.872
-7.031
-6.265
-5.571
-4.946
-4.386
-3.881
-3.414
-2.969
-2.535
-2.1
-1.66
-1.208
-0.733
-0.222
0.342
0.968
1.653
2.392
3.179
3.998
4.834
5.657
6.414
7.059
7.55
7.835
7.883
7.657
7.113
6.226
4.955
3.26
1.118
-1.499
-4.61
-8.196
-12.262
-16.824
-21.807
-27.063
-32.355
-37.325
-41.667
-45.177
-47.605
-48.637
-48.082
-45.976
-42.677
-38.899
-35.305
-32.203
-29.865
-28.74
-29.096
-30.88
-33.252
-34.302
-32.287
-26.164
-15.84
-2.322
13.879
32.779
55
82.694
117.114
158.185
204.937
252.929
296.593
330.859
348.965
345.603
317.232
261.454
181.663
84.649
-22.304
-132.21
-244.027
-358.257
-470.853
-582.412
-691.893
-774.504
-806.423
-801.231
-779.184
-739.746
-683.812
-619.721
-551.645
-480.675
-409.31
-341.195
-279.115
-225.2
-180.106
-142.674
-112.205
-87.99
-69.622
-57.532
-50.711
-47.341
-45.536
-43.024
-38.743
-32.766
-25.274
-16.734
-7.849
0.789
8.389
14.028
17.401
18.631
18.006
16.03
13.203
9.95
6.806
4.342
2.88
2.549
3.343
5.12
7.764
11.182
15.237
19.772
24.643
29.724
34.91
40.119
45.263
50.242
54.961
59.331
63.279
66.767
69.788
72.359
74.507
76.274
77.704
78.851
79.778
80.545
81.209
81.821
82.426
83.069
83.801
84.666
85.705
86.947
88.405
90.086
91.992
94.12
96.464
99.013
101.751
104.662
107.733
110.953
114.309
117.788
121.372
125.043
128.783
132.572
136.394
140.231
144.062
147.87
151.634
155.338
158.962
162.487
165.893
169.16
172.268
175.196
177.926
180.439
182.719
184.748
186.513
187.999
189.196
190.093
190.682
190.953
190.902
190.525
189.818
188.78
187.412
185.714
183.69
181.346
178.687
175.722
172.459
168.91
165.086
161
156.667
152.102
147.32
142.341
137.18
131.856
126.389
120.798
115.103
109.323
103.479
97.59
91.676
85.756
79.85
73.975
68.149
62.391
56.715
51.139
45.678
40.345
35.153
30.117
25.245
20.55
16.039
11.722
7.604
3.692
-0.01
-3.498
-6.77
-9.825
-12.663
-15.285
-17.692
-19.888
-21.877
-23.663
-25.252
-26.651
-27.866
-28.905
-29.776
-30.488
-31.049
-31.468
-31.755
-31.92
-31.971
-31.919
-31.773
-31.543
-31.237
-30.866
-30.438
-29.961
-29.444
-28.895
-28.322
-27.73
-27.128
-26.52
-25.913
-25.312
-24.721
-24.144
-23.586
-23.048
-22.534
-22.046
-21.585
-21.153
-20.751
-20.378
-20.037
-19.726
-19.445
-19.193
-18.971
-18.776
-18.608
-18.465
-18.347
-18.251
-18.177
-18.122
-18.085
-18.065
-18.059
-18.068
-18.088
-18.12
-18.161
-18.211
-18.268
-18.332
-18.403
-18.479
-18.56
-18.646
-18.736
-18.831
-18.931
-19.035
-19.144
-19.259
-19.379
-19.506
-19.64
-19.782
-19.932
-20.091
-20.26
-20.44
-20.632
-20.836
-21.053
-21.284
-21.531
-21.793
-22.072
-22.367
-22.68
-23.011
-23.359
-23.725
-24.107
-24.505
-24.919
-25.346
-25.786
-26.238
-26.699
-27.168
-27.643
-28.121
-28.6
-29.076
-29.548
-30.013
-30.465
-30.904
-31.323
-31.722
-32.095
-32.44
-32.751
-33.026
-33.26
-33.449
-33.59
-33.678
-33.711
-33.685
-33.598
-33.449
-33.235
-32.956
-32.613
-32.206
-31.737
-31.208
-30.62
-29.977
-29.281
-28.538
-27.749
-26.92
-26.055
-25.16
-24.241
-23.305
-22.36
-21.412
-20.468
-19.535
-18.622
-17.735
-16.883
-16.07
-15.302
-14.584
-13.923
-13.33
-12.809
-12.361
-11.983
-11.671
-11.42
-11.225
-11.074
-10.947
-10.828
-10.697
-10.546
-10.368
-10.156
-9.903
-9.592
-9.206
-8.738
-8.188
-7.567
-6.884
-6.146
-5.369
-4.589
-3.861
-3.243
-2.797
-2.561
-2.564
-2.839
-3.409
-4.32
-5.624
-7.353
-9.54
-12.198
-15.315
-18.909
-23.02
-27.581
-32.427
-37.295
-41.807
-45.67
-48.706
-50.686
-51.318
-50.422
-48.056
-44.595
-40.757
-37.197
-34.187
-31.972
-30.987
-31.485
-33.409
-35.904
-37.042
-35.049
-28.867
-18.456
-4.983
10.778
28.535
48.786
74.146
106.603
147.008
195.053
245.458
291.119
325.106
339.075
328.183
290.934
227.49
143.23
45.54
-59.882
-168.288
-279.072
-392.35
-501.546
-604.859
-702.672
-771.205
-788.44
-772.6
-745.181
-702.708
-643.797
-576.301
-505.365
-434.533
-367.592
-306.971
-253.969
-208.299
-168.305
-133.555
-104.195
-80.359
-63.246
-52.781
-47.097
-44.254
-42.042
-38.673
-33.783
-27.6
-20.222
-11.993
-3.524
4.642
11.699
16.812
19.811
20.875
20.276
18.493
15.996
13.182
10.579
8.717
7.852
8.071
9.338
11.495
14.432
18.059
22.246
26.845
31.729
36.78
41.903
47.029
52.068
56.922
61.497
65.697
69.47
72.798
75.689
78.174
80.287
82.067
83.567
84.846
85.963
86.975
87.932
88.877
89.856
90.919
92.113
93.487
95.074
96.89
98.945
101.24
103.771
106.534
109.515
112.695
116.058
119.588
123.271
127.095
131.043
135.096
139.234
143.434
147.677
151.942
156.208
160.453
164.657
168.798
172.856
176.811
180.643
184.33
187.849
191.18
194.3
197.19
199.83
202.202
204.288
206.074
207.545
208.691
209.5
209.964
210.077
209.832
209.226
208.257
206.926
205.233
203.18
200.774
198.021
194.928
191.505
187.763
183.714
179.373
174.754
169.873
164.749
159.398
153.84
148.094
142.182
136.124
129.941
123.655
117.288
110.861
104.396
97.915
91.438
84.985
78.575
72.229
65.965
59.799
53.749
47.831
42.058
36.446
31.008
25.753
20.695
15.84
11.199
6.778
2.583
-1.382
-5.114
-8.609
-11.867
-14.888
-17.674
-20.226
-22.548
-24.644
-26.52
-28.182
-29.636
-30.891
-31.954
-32.834
-33.541
-34.083
-34.472
-34.716
-34.826
-34.813
-34.686
-34.457
-34.134
-33.729
-33.251
-32.709
-32.113
-31.471
-30.792
-30.085
-29.356
-28.613
-27.862
-27.11
-26.363
-25.625
-24.901
-24.195
-23.512
-22.853
-22.222
-21.62
-21.051
-20.514
-20.011
-19.543
-19.11
-18.713
-18.351
-18.025
-17.733
-17.475
-17.251
-17.06
-16.902
-16.774
-16.678
-16.612
-16.576
-16.568
-16.589
-16.638
-16.715
-16.818
-16.948
-17.105
-17.288
-17.497
-17.732
-17.993
-18.279
-18.591
-18.927
-19.288
-19.673
-20.081
-20.51
-20.96
-21.429
-21.916
-22.418
-22.934
-23.462
-24
-24.544
-25.092
-25.641
-26.187
-26.727
-27.258
-27.774
-28.273
-28.75
-29.201
-29.621
-30.006
-30.352
-30.654
-30.908
-31.109
-31.254
-31.338
-31.358
-31.311
-31.194
-31.005
-30.744
-30.41
-30.004
-29.527
-28.981
-28.368
-27.692
-26.956
-26.164
-25.321
-24.431
-23.5
-22.533
-21.537
-20.52
-19.489
-18.453
-17.42
-16.399
-15.397
-14.423
-13.487
-12.597
-11.759
-10.978
-10.26
-9.615
-9.051
-8.575
-8.187
-7.884
-7.663
-7.52
-7.449
-7.439
-7.469
-7.523
-7.58
-7.63
-7.668
-7.684
-7.669
-7.607
-7.479
-7.276
-7.001
-6.661
-6.263
-5.815
-5.329
-4.842
-4.406
-4.08
-3.923
-3.972
-4.257
-4.813
-5.663
-6.854
-8.434
-10.437
-12.892
-15.811
-19.183
-23.025
-27.369
-32.142
-37.177
-42.211
-46.87
-50.863
-54.012
-56.083
-56.786
-55.959
-53.668
-50.291
-46.531
-43.021
-40.033
-37.831
-36.857
-37.339
-39.185
-41.53
-42.505
-40.43
-34.274
-23.907
-10.326
5.798
24.129
44.919
70.354
102.097
140.932
186.652
234.557
278.082
309.987
321.624
307.427
265.392
197.212
109.811
11.938
-89.797
-192.187
-296.206
-402.968
-506.756
-604.166
-693.525
-753.661
-766.787
-749.877
-722.376
-682.543
-629.092
-568.166
-504.337
-440.467
-379.338
-322.87
-271.49
-224.643
-182.191
-144.769
-113.389
-88.947
-71.665
-60.804
-54.494
-50.63
-47.525
-43.776
-38.885
-33.014
-26.153
-18.505
-10.637
-3.049
3.526
8.284
11.031
11.924
11.221
9.385
6.872
4.068
1.48
-0.372
-1.227
-0.989
0.311
2.519
5.523
9.233
13.519
18.235
23.247
28.439
33.709
38.983
44.172
49.176
53.899
58.248
62.171
65.649
68.691
71.329
73.595
75.532
77.19
78.627
79.902
81.072
82.186
83.288
84.425
85.644
86.994
88.523
90.262
92.227
94.428
96.864
99.533
102.429
105.539
108.844
112.328
115.976
119.774
123.709
127.766
131.924
136.164
140.463
144.8
149.155
153.507
157.834
162.115
166.327
170.451
174.467
178.352
182.084
185.641
189
192.14
195.041
197.682
200.044
202.11
203.865
205.295
206.387
207.132
207.52
207.544
207.199
206.481
205.389
203.922
202.083
199.874
197.302
194.373
191.097
187.483
183.545
179.296
174.751
169.927
164.841
159.513
153.962
148.208
142.274
136.181
129.951
123.608
117.175
110.675
104.131
97.565
91
84.458
77.96
71.526
65.177
58.93
52.805
46.818
40.985
35.321
29.839
24.553
19.474
14.61
9.972
5.565
1.397
-2.529
-6.209
-9.641
-12.825
-15.761
-18.452
-20.9
-23.11
-25.086
-26.835
-28.364
-29.68
-30.792
-31.709
-32.441
-32.999
-33.391
-33.63
-33.726
-33.69
-33.534
-33.268
-32.905
-32.454
-31.926
-31.333
-30.683
-29.987
-29.254
-28.494
-27.713
-26.921
-26.124
-25.329
-24.542
-23.769
-23.015
-22.283
-21.579
-20.904
-20.262
-19.654
-19.084
-18.551
-18.057
-17.602
-17.187
-16.811
-16.474
-16.175
-15.913
-15.688
-15.498
-15.342
-15.218
-15.126
-15.063
-15.03
-15.023
-15.042
-15.087
-15.154
-15.244
-15.356
-15.488
-15.64
-15.811
-16.002
-16.212
-16.44
-16.687
-16.953
-17.238
-17.542
-17.865
-18.208
-18.571
-18.954
-19.357
-19.781
-20.226
-20.691
-21.176
-21.682
-22.207
-22.75
-23.31
-23.887
-24.477
-25.079
-25.69
-26.31
-26.935
-27.562
-28.188
-28.811
-29.427
-30.033
-30.624
-31.197
-31.748
-32.271
-32.764
-33.222
-33.639
-34.013
-34.339
-34.613
-34.829
-34.985
-35.077
-35.1
-35.052
-34.929
-34.731
-34.454
-34.098
-33.663
-33.15
-32.561
-31.897
-31.163
-30.361
-29.496
-28.572
-27.595
-26.571
-25.505
-24.402
-23.271
-22.118
-20.952
-19.782
-18.616
-17.463
-16.331
-15.229
-14.165
-13.15
-12.192
-11.296
-10.467
-9.713
-9.039
-8.457
-7.971
-7.581
-7.284
-7.077
-6.953
-6.909
-6.933
-7.004
-7.103
-7.21
-7.311
-7.4
-7.465
-7.495
-7.472
-7.375
-7.192
-6.924
-6.578
-6.162
-5.681
-5.144
-4.587
-4.061
-3.626
-3.346
-3.265
-3.415
-3.837
-4.562
-5.637
-7.123
-9.062
-11.485
-14.407
-17.814
-21.718
-26.168
-31.098
-36.334
-41.608
-46.517
-50.738
-54.086
-56.315
-57.107
-56.309
-53.976
-50.481
-46.608
-43.013
-40.052
-38.089
-37.47
-38.388
-40.514
-42.64
-43.003
-39.897
-32.63
-21.919
-8.328
8.036
27.611
52.797
85.499
125.855
173.55
225.008
274.298
315.637
341.417
344.974
322.594
272.637
198.431
106.889
5.456
-99.627
-206.079
-314.973
-426.024
-532.612
-631.114
-719.927
-777.376
-784.87
-760.98
-727.941
-684.14
-628.182
-567.128
-504.469
-441.904
-381.479
-324.082
-270.688
-221.573
-177.146
-138.773
-107.377
-83.447
-67.023
-57.119
-51.762
-48.896
-46.77
-43.902
-39.764
-34.464
-27.985
-20.568
-12.834
-5.347
1.132
5.785
8.432
9.255
8.507
6.646
4.137
1.367
-1.153
-2.9
-3.632
-3.271
-1.857
0.449
3.533
7.306
11.629
16.346
21.321
26.427
31.569
36.68
41.672
46.45
50.921
54.996
58.628
61.806
64.542
66.864
68.809
70.415
71.736
72.834
73.767
74.595
75.367
76.126
76.92
77.798
78.807
79.995
81.394
83.018
84.879
86.977
89.312
91.877
94.662
97.648
100.82
104.164
107.666
111.316
115.098
118.991
122.978
127.036
131.146
135.289
139.443
143.587
147.701
151.764
155.756
159.658
163.448
167.104
170.605
173.929
177.055
179.962
182.631
185.043
187.181
189.03
190.576
191.807
192.712
193.283
193.512
193.393
192.923
192.1
190.923
189.394
187.515
185.291
182.728
179.835
176.622
173.099
169.278
165.175
160.804
156.181
151.323
146.249
140.978
135.53
129.924
124.182
118.325
112.374
106.35
100.275
94.169
88.055
81.951
75.877
69.853
63.896
58.025
52.256
46.604
41.086
35.714
30.502
25.461
20.602
15.936
11.469
7.208
3.161
-0.669
-4.277
-7.663
-10.823
-13.759
-16.472
-18.963
-21.235
-23.292
-25.14
-26.783
-28.229
-29.484
-30.555
-31.452
-32.182
-32.754
-33.178
-33.463
-33.618
-33.654
-33.579
-33.403
-33.137
-32.789
-32.368
-31.884
-31.344
-30.758
-30.133
-29.476
-28.795
-28.096
-27.386
-26.669
-25.952
-25.238
-24.532
-23.839
-23.16
-22.499
-21.858
-21.24
-20.645
-20.075
-19.531
-19.013
-18.523
-18.058
-17.621
-17.209
-16.823
-16.462
-16.125
-15.811
-15.518
-15.247
-14.996
-14.763
-14.549
-14.352
-14.171
-14.006
-13.856
-13.72
-13.599
-13.491
-13.397
-13.317
-13.25
-13.196
-13.157
-13.133
-13.124
-13.13
-13.153
-13.193
-13.252
-13.33
-13.427
-13.546
-13.686
-13.849
-14.036
-14.248
-14.486
-14.749
-15.04
-15.358
-15.703
-16.076
-16.476
-16.903
-17.355
-17.832
-18.332
-18.853
-19.394
-19.953
-20.527
-21.114
-21.711
-22.315
-22.923
-23.531
-24.135
-24.732
-25.318
-25.887
-26.436
-26.96
-27.455
-27.916
-28.338
-28.717
-29.049
-29.327
-29.549
-29.709
-29.804
-29.831
-29.786
-29.668
-29.475
-29.207
-28.863
-28.445
-27.954
-27.393
-26.763
-26.067
-25.311
-24.499
-23.633
-22.72
-21.764
-20.773
-19.754
-18.715
-17.663
-16.608
-15.557
-14.519
-13.503
-12.519
-11.573
-10.673
-9.826
-9.037
-8.315
-7.671
-7.111
-6.634
-6.241
-5.928
-5.689
-5.52
-5.41
-5.34
-5.295
-5.256
-5.212
-5.158
-5.087
-4.986
-4.845
-4.642
-4.365
-4.019
-3.604
-3.128
-2.604
-2.04
-1.465
-0.93
-0.486
-0.184
-0.073
-0.175
-0.518
-1.132
-2.053
-3.339
-5.037
-7.181
-9.797
-12.884
-16.452
-20.546
-25.126
-30.051
-35.091
-39.891
-44.135
-47.636
-50.157
-51.407
-51.228
-49.578
-46.746
-43.408
-40.158
-37.384
-35.47
-34.755
-35.428
-37.592
-40.498
-42.42
-41.779
-37.143
-27.96
-15.172
0.613
19.334
41.357
69.015
104.265
147.178
196.94
249.213
297.771
336.944
359.656
360.277
335.418
283.055
206.399
111.877
6.533
-102.726
-214.447
-328.738
-441.713
-554.536
-666.945
-754.058
-790.916
-791.453
-776.508
-743.99
-694.001
-634.305
-568.072
-497.383
-425.441
-356.31
-293.704
-239.2
-193.185
-154.809
-123.203
-97.997
-78.978
-66.39
-59.289
-55.834
-54.019
-51.529
-47.223
-41.089
-33.322
-24.379
-14.923
-5.554
2.897
9.42
13.614
15.566
15.548
14.062
11.603
8.589
5.564
3.137
1.671
1.315
2.076
3.814
6.407
9.775
13.787
18.289
23.138
28.205
33.382
38.593
43.755
48.766
53.532
57.96
61.968
65.518
68.604
71.239
73.452
75.28
76.765
77.962
78.935
79.744
80.447
81.096
81.734
82.411
83.175
84.076
85.158
86.451
87.968
89.72
91.708
93.932
96.386
99.059
101.933
104.995
108.231
111.628
115.174
118.854
122.65
126.542
130.51
134.535
138.596
142.674
146.748
150.798
154.801
158.739
162.592
166.339
169.958
173.428
176.726
179.831
182.723
185.383
187.792
189.932
191.789
193.347
194.596
195.524
196.122
196.383
196.3
195.869
195.088
193.956
192.475
190.645
188.473
185.964
183.126
179.968
176.5
172.736
168.689
164.374
159.806
155.002
149.982
144.762
139.363
133.805
128.108
122.293
116.381
110.393
104.35
98.274
92.184
86.101
80.045
74.034
68.087
62.222
56.454
50.802
45.278
39.899
34.676
29.622
24.747
20.061
15.573
11.29
7.218
3.362
-0.275
-3.689
-6.88
-9.848
-12.592
-15.116
-17.421
-19.512
-21.393
-23.07
-24.549
-25.837
-26.941
-27.87
-28.631
-29.235
-29.689
-30.003
-30.187
-30.251
-30.205
-30.057
-29.819
-29.499
-29.106
-28.651
-28.14
-27.584
-26.99
-26.365
-25.717
-25.053
-24.378
-23.699
-23.021
-22.349
-21.686
-21.038
-20.407
-19.796
-19.209
-18.646
-18.11
-17.602
-17.123
-16.674
-16.255
-15.866
-15.508
-15.179
-14.879
-14.607
-14.363
-14.144
-13.95
-13.78
-13.631
-13.504
-13.396
-13.305
-13.232
-13.174
-13.129
-13.098
-13.078
-13.068
-13.068
-13.077
-13.093
-13.116
-13.146
-13.181
-13.22
-13.265
-13.313
-13.364
-13.419
-13.476
-13.536
-13.598
-13.661
-13.727
-13.795
-13.865
-13.937
-14.012
-14.089
-14.169
-14.253
-14.341
-14.432
-14.528
-14.629
-14.736
-14.849
-14.969
-15.096
-15.232
-15.376
-15.53
-15.694
-15.869
-16.055
-16.253
-16.465
-16.69
-16.929
-17.184
-17.454
-17.741
-18.044
-18.364
-18.702
-19.056
-19.427
-19.814
-20.216
-20.632
-21.06
-21.5
-21.951
-22.409
-22.873
-23.341
-23.811
-24.279
-24.743
-25.2
-25.646
-26.077
-26.491
-26.883
-27.249
-27.587
-27.892
-28.159
-28.385
-28.566
-28.697
-28.775
-28.795
-28.754
-28.649
-28.477
-28.236
-27.925
-27.542
-27.088
-26.565
-25.973
-25.314
-24.59
-23.805
-22.962
-22.065
-21.118
-20.125
-19.092
-18.025
-16.932
-15.819
-14.695
-13.567
-12.442
-11.329
-10.236
-9.172
-8.145
-7.159
-6.222
-5.34
-4.52
-3.775
-3.109
-2.523
-2.016
-1.587
-1.233
-0.948
-0.723
-0.537
-0.375
-0.218
-0.055
0.12
0.318
0.549
0.829
1.175
1.594
2.087
2.651
3.282
3.972
4.708
5.457
6.165
6.776
7.23
7.476
7.475
7.185
6.573
5.597
4.203
2.353
0.009
-2.853
-6.234
-10.155
-14.656
-19.688
-25.09
-30.606
-35.857
-40.515
-44.371
-47.177
-48.612
-48.479
-46.818
-43.989
-40.701
-37.61
-34.98
-33.038
-32.212
-32.743
-34.569
-36.84
-37.591
-35.02
-28.091
-16.816
-2.351
14.603
33.944
56.429
84.574
119.992
162.977
212.62
263.698
309.77
345.015
362.161
356.47
325.526
267.642
186.359
88.473
-19.592
-131.467
-245.109
-360.507
-472.362
-580.25
-684.939
-762.008
-787.739
-778.74
-756.419
-718.133
-663.121
-599.493
-531.579
-461.503
-392.766
-328.128
-269.585
-218.256
-173.541
-135.358
-104.005
-79.419
-62.199
-52.043
-47.144
-45.459
-44.646
-42.71
-38.934
-33.35
-26.185
-17.884
-9.108
-0.508
7.083
12.758
16.224
17.599
17.161
15.407
12.828
9.848
6.999
4.826
3.635
3.543
4.537
6.474
9.24
12.738
16.833
21.373
26.217
31.248
36.364
41.489
46.54
51.422
56.049
60.336
64.215
67.652
70.642
73.202
75.362
77.161
78.642
79.857
80.869
81.734
82.508
83.239
83.969
84.742
85.605
86.599
87.765
89.128
90.702
92.492
94.499
96.721
99.152
101.78
104.589
107.564
110.692
113.961
117.36
120.875
124.487
128.18
131.936
135.735
139.562
143.397
147.221
151.017
154.765
158.446
162.043
165.538
168.91
172.139
175.206
178.091
180.776
183.244
185.476
187.459
189.177
190.617
191.77
192.624
193.171
193.405
193.319
192.909
192.174
191.11
189.72
188.004
185.966
183.611
180.944
177.974
174.708
171.158
167.336
163.252
158.923
154.361
149.584
144.607
139.447
134.124
128.655
123.058
117.354
111.562
105.701
99.79
93.849
87.897
81.952
76.032
70.155
64.338
58.598
52.95
47.409
41.99
36.706
31.569
26.592
21.785
17.158
12.719
8.475
4.434
0.6
-3.023
-6.431
-9.623
-12.597
-15.354
-17.896
-20.223
-22.341
-24.252
-25.962
-27.476
-28.801
-29.944
-30.912
-31.714
-32.359
-32.854
-33.21
-33.435
-33.54
-33.534
-33.426
-33.227
-32.946
-32.592
-32.176
-31.705
-31.189
-30.636
-30.055
-29.453
-28.838
-28.217
-27.595
-26.98
-26.377
-25.79
-25.225
-24.685
-24.174
-23.695
-23.25
-22.842
-22.472
-22.142
-21.852
-21.603
-21.395
-21.227
-21.1
-21.013
-20.963
-20.951
-20.975
-21.033
-21.123
-21.244
-21.394
-21.57
-21.771
-21.994
-22.238
-22.499
-22.777
-23.068
-23.371
-23.683
-24.003
-24.328
-24.657
-24.988
-25.32
-25.649
-25.976
-26.298
-26.615
-26.924
-27.226
-27.519
-27.803
-28.076
-28.34
-28.592
-28.834
-29.066
-29.287
-29.497
-29.698
-29.89
-30.074
-30.25
-30.419
-30.583
-30.742
-30.898
-31.052
-31.207
-31.362
-31.521
-31.685
-31.855
-32.033
-32.222
-32.422
-32.635
-32.864
-33.11
-33.374
-33.658
-33.964
-34.291
-34.64
-35.013
-35.408
-35.826
-36.265
-36.725
-37.204
-37.701
-38.214
-38.74
-39.278
-39.824
-40.376
-40.929
-41.48
-42.025
-42.56
-43.08
-43.58
-44.056
-44.503
-44.916
-45.29
-45.62
-45.9
-46.126
-46.292
-46.393
-46.424
-46.382
-46.263
-46.064
-45.782
-45.416
-44.966
-44.431
-43.814
-43.116
-42.339
-41.486
-40.562
-39.57
-38.517
-37.408
-36.247
-35.042
-33.8
-32.531
-31.243
-29.945
-28.647
-27.357
-26.084
-24.839
-23.632
-22.473
-21.367
-20.323
-19.348
-18.451
-17.644
-16.933
-16.32
-15.804
-15.382
-15.05
-14.805
-14.636
-14.524
-14.451
-14.401
-14.362
-14.328
-14.289
-14.237
-14.153
-14.02
-13.826
-13.571
-13.259
-12.899
-12.496
-12.061
-11.628
-11.247
-10.976
-10.875
-10.984
-11.332
-11.954
-12.871
-14.126
-15.774
-17.851
-20.39
-23.404
-26.882
-30.84
-35.319
-40.26
-45.495
-50.751
-55.648
-59.883
-63.274
-65.592
-66.535
-65.903
-63.765
-60.522
-56.867
-53.426
-50.519
-48.406
-47.516
-48.215
-50.163
-52.131
-52.506
-49.683
-43.259
-34.285
-23.124
-9.264
8.26
31.894
63.559
102.626
147.948
196.698
243.172
282.817
310.619
320.168
307.827
270.84
208.416
125.487
28.8
-75.644
-182.736
-292.403
-404.955
-513.154
-615.852
-713.826
-780.987
-794.41
-774.858
-746.752
-706.817
-651.755
-588.75
-522.055
-453.588
-387.355
-326.282
-271.927
-224.872
-183.82
-148.39
-118.89
-95.277
-78.464
-68.305
-62.894
-60.277
-58.303
-55.152
-50.383
-44.194
-36.677
-28.169
-19.27
-10.573
-2.949
2.761
6.347
7.944
7.907
6.463
3.821
0.71
-2.26
-3.952
-3.343
-1.152
2.04
5.269
7.294
9.02
11.171
14.19
18.907
24.529
30.268
35.897
40.923
45.504
49.876
53.903
57.56
60.794
63.546
65.88
67.862
69.522
70.901
72.054
73.042
73.92
74.741
75.546
76.369
77.256
78.255
79.409
80.756
82.324
84.123
86.16
88.437
90.951
93.695
96.658
99.823
103.174
106.697
110.381
114.211
118.173
122.248
126.416
130.657
134.951
139.278
143.619
147.95
152.252
156.502
160.681
164.767
168.74
172.577
176.256
179.754
183.051
186.126
188.96
191.532
193.827
195.828
197.521
198.894
199.936
200.638
200.992
200.992
200.635
199.917
198.837
197.397
195.599
193.447
190.946
188.105
184.933
181.439
177.636
173.537
169.158
164.514
159.622
154.5
149.167
143.642
137.947
132.102
126.128
120.048
113.883
107.655
101.386
95.097
88.809
82.543
76.319
70.156
64.072
58.087
52.215
46.475
40.881
35.447
30.186
25.11
20.23
15.556
11.096
6.858
2.846
-0.934
-4.478
-7.785
-10.853
-13.683
-16.276
-18.634
-20.761
-22.661
-24.341
-25.805
-27.062
-28.12
-28.986
-29.671
-30.183
-30.532
-30.729
-30.784
-30.708
-30.511
-30.204
-29.798
-29.303
-28.729
-28.087
-27.386
-26.636
-25.846
-25.025
-24.181
-23.322
-22.456
-21.588
-20.726
-19.876
-19.042
-18.23
-17.443
-16.685
-15.959
-15.268
-14.614
-13.997
-13.42
-12.882
-12.383
-11.925
-11.505
-11.124
-10.779
-10.47
-10.196
-9.954
-9.743
-9.561
-9.406
-9.276
-9.17
-9.085
-9.02
-8.973
-8.941
-8.924
-8.92
-8.927
-8.944
-8.97
-9.004
-9.045
-9.092
-9.144
-9.201
-9.263
-9.33
-9.401
-9.476
-9.557
-9.644
-9.736
-9.836
-9.943
-10.06
-10.185
-10.322
-10.47
-10.63
-10.805
-10.993
-11.197
-11.417
-11.654
-11.909
-12.181
-12.471
-12.779
-13.104
-13.447
-13.806
-14.179
-14.567
-14.967
-15.378
-15.798
-16.226
-16.658
-17.092
-17.526
-17.957
-18.381
-18.795
-19.196
-19.579
-19.94
-20.277
-20.584
-20.857
-21.093
-21.288
-21.436
-21.534
-21.578
-21.564
-21.489
-21.349
-21.141
-20.865
-20.517
-20.097
-19.604
-19.041
-18.408
-17.708
-16.942
-16.114
-15.227
-14.285
-13.293
-12.256
-11.177
-10.063
-8.919
-7.754
-6.575
-5.391
-4.208
-3.035
-1.88
-0.752
0.34
1.388
2.387
3.331
4.214
5.027
5.762
6.412
6.978
7.46
7.862
8.187
8.441
8.634
8.788
8.92
9.047
9.184
9.334
9.508
9.716
9.974
10.3
10.7
11.172
11.713
12.319
12.982
13.689
14.407
15.081
15.654
16.071
16.286
16.265
15.969
15.368
14.42
13.076
11.302
9.068
6.354
3.162
-0.525
-4.74
-9.42
-14.396
-19.414
-24.112
-28.188
-31.454
-33.678
-34.562
-33.946
-31.896
-28.779
-25.275
-21.988
-19.157
-16.999
-15.917
-16.11
-17.491
-19.248
-19.545
-16.673
-9.57
1.948
16.82
34.044
52.956
73.539
98.032
128.778
167.352
214.285
265.052
312.287
347.849
362.235
349.593
308.674
241.759
156.052
60.399
-38.976
-138.985
-240.231
-343.758
-444.51
-540.823
-633.562
-700.759
-720.9
-710.946
-690.632
-655.579
-604.373
-544.635
-481.675
-419.072
-359.385
-304.029
-253.041
-205.399
-161.267
-121.722
-88.197
-62.112
-43.575
-31.71
-24.753
-20.516
-17.266
-13.547
-8.631
-2.524
4.719
12.868
21.373
29.709
37.173
42.923
46.663
48.473
48.583
47.435
45.473
43.071
40.714
38.927
38.017
38.118
39.233
41.235
44.017
47.496
51.55
56.039
60.829
65.809
70.883
75.979
81.025
85.931
90.613
94.987
98.986
102.571
105.738
108.503
110.894
112.948
114.706
116.218
117.545
118.741
119.859
120.946
122.041
123.186
124.427
125.807
127.367
129.132
131.116
133.326
135.762
138.422
141.299
144.38
147.649
151.088
154.684
158.423
162.293
166.277
170.356
174.511
178.72
182.965
187.225
191.48
195.709
199.891
204.007
208.035
211.958
215.754
219.403
222.883
226.173
229.254
232.106
234.711
237.05
239.108
240.871
242.324
243.458
244.263
244.729
244.851
244.623
244.043
243.109
241.821
240.18
238.19
235.855
233.183
230.182
226.86
223.23
219.303
215.094
210.616
205.887
200.923
195.741
190.362
184.803
179.085
173.229
167.255
161.184
155.037
148.835
142.599
136.35
130.108
123.892
117.722
111.615
105.591
99.665
93.854
88.173
82.636
77.257
72.048
67.021
62.184
57.548
53.119
48.906
44.912
41.142
37.599
34.285
31.201
28.347
25.72
23.319
21.14
19.179
17.429
15.887
14.543
13.392
12.425
11.634
11.009
10.541
10.221
10.039
9.984
10.046
10.216
10.482
10.836
11.266
11.764
12.32
12.924
13.568
14.243
14.94
15.653
16.374
17.096
17.813
18.519
19.209
19.878
20.521
21.136
21.718
22.265
22.774
23.244
23.673
24.06
24.404
24.706
24.964
25.179
25.353
25.485
25.577
25.63
25.646
25.626
25.572
25.485
25.369
25.223
25.051
24.854
24.635
24.395
24.137
23.861
23.57
23.266
22.95
22.623
22.286
21.942
21.591
21.233
20.871
20.503
20.132
19.757
19.379
18.998
18.615
18.229
17.839
17.447
17.051
16.651
16.247
15.837
15.422
15
14.571
14.133
13.687
13.23
12.763
12.284
11.792
11.287
10.768
10.234
9.685
9.121
8.542
7.948
7.34
6.719
6.085
5.439
4.784
4.12
3.448
2.772
2.093
1.413
0.734
0.06
-0.606
-1.262
-1.904
-2.529
-3.133
-3.712
-4.264
-4.784
-5.268
-5.713
-6.115
-6.47
-6.773
-7.022
-7.212
-7.342
-7.409
-7.411
-7.348
-7.217
-7.021
-6.762
-6.44
-6.058
-5.619
-5.125
-4.581
-3.991
-3.36
-2.69
-1.989
-1.262
-0.517
0.239
0.997
1.75
2.49
3.209
3.899
4.552
5.16
5.717
6.217
6.653
7.016
7.297
7.488
7.59
7.603
7.532
7.381
7.158
6.872
6.542
6.185
5.816
5.449
5.091
4.751
4.444
4.183
3.987
3.866
3.819
3.842
3.93
4.069
4.244
4.424
4.557
4.595
4.49
4.189
3.654
2.841
1.705
0.217
-1.661
-3.969
-6.732
-9.974
-13.718
-17.941
-22.637
-27.831
-33.419
-39.221
-44.983
-50.306
-54.865
-58.476
-60.854
-61.65
-60.806
-58.449
-55.017
-51.39
-48.131
-45.499
-43.982
-44.025
-45.711
-48.549
-50.995
-50.994
-47.117
-39.222
-28.356
-15.088
0.53
19.438
44.464
77.121
117.615
165.285
215.577
262.413
299.501
319.019
314.848
283.693
225.272
144.117
48.095
-54.695
-159.001
-263.864
-370.73
-477.495
-581.581
-687.664
-782.882
-830.659
-826.473
-803.101
-773.681
-729.889
-672.206
-607.578
-539.591
-470.578
-404.536
-344.85
-292.843
-248.765
-211.669
-180.776
-155.802
-136.65
-123.716
-116.172
-112.284
-110.125
-107.377
-102.849
-96.487
-88.438
-79.147
-69.31
-59.528
-50.644
-43.707
-39.16
-37.015
-37.114
-39.029
-42.321
-46.644
-51.542
-56.479
-61.117
-65.189
-68.44
-70.742
-71.953
-71.873
-70.25
-66.977
-62.203
-56.276
-49.803
-43.475
-37.792
-33.322
-30.828
-30.266
-30.759
-31.253
-30.562
-29.399
-28.778
-26.216
-24.025
-25.997
-15.044
26.766
