-403.756
-435.89
-471.26
-507.418
-541.093
-568.975
-587.446
-593.664
-586.258
-565.13
-531.329
-487.376
-436.785
-382.862
-329.015
-278.102
-231.932
-191.577
-157.234
-128.025
-102.415
-79.265
-57.708
-37.193
-17.667
0.855
18.193
33.756
46.757
56.78
63.754
67.887
69.696
69.631
68.051
65.437
62.316
59.128
56.252
53.923
52.21
51.19
50.954
51.564
53.073
55.45
58.576
62.318
66.539
71.098
75.875
80.711
85.417
89.843
93.87
97.426
100.492
103.048
105.073
106.573
107.573
108.12
108.291
108.156
107.774
107.214
106.549
105.86
105.246
104.778
104.503
104.459
104.664
105.135
105.889
106.928
108.237
109.806
111.621
113.671
115.951
118.445
121.132
123.99
126.993
130.117
133.345
136.656
140.031
143.45
146.894
150.345
153.79
157.209
160.581
163.885
167.096
170.194
173.157
175.964
178.594
181.027
183.246
185.235
186.979
188.465
189.68
190.612
191.253
191.594
191.629
191.354
190.765
189.861
188.643
187.114
185.278
183.14
180.709
177.991
174.997
171.738
168.227
164.478
160.504
156.323
151.95
147.404
142.703
137.867
132.914
127.864
122.737
117.553
112.331
107.091
101.851
96.629
91.445
86.315
81.255
76.282
71.41
66.654
62.027
57.541
53.208
49.037
45.036
41.215
37.579
34.134
30.884
27.832
24.982
22.333
19.885
17.638
15.59
13.737
12.075
10.6
9.305
8.185
7.234
6.442
5.803
5.309
4.95
4.717
4.602
4.594
4.685
4.865
5.123
5.452
5.842
6.283
6.768
7.287
7.833
8.396
8.971
9.549
10.124
10.688
11.236
11.762
12.261
12.728
13.16
13.552
13.901
14.205
14.459
14.662
14.812
14.907
14.946
14.927
14.851
14.717
14.526
14.279
13.976
13.619
13.208
12.745
12.232
11.669
11.059
10.404
9.708
8.972
8.201
7.398
6.568
5.714
4.842
3.955
3.058
2.155
1.249
0.347
-0.548
-1.431
-2.295
-3.136
-3.947
-4.722
-5.457
-6.145
-6.783
-7.368
-7.896
-8.363
-8.767
-9.105
-9.374
-9.573
-9.7
-9.751
-9.725
-9.624
-9.45
-9.204
-8.889
-8.51
-8.073
-7.585
-7.053
-6.483
-5.879
-5.249
-4.595
-3.924
-3.241
-2.548
-1.852
-1.16
-0.481
0.174
0.796
1.377
1.909
2.387
2.806
3.162
3.454
3.689
3.864
3.976
4.016
3.965
3.815
3.57
3.232
2.811
2.327
1.808
1.301
0.867
0.541
0.345
0.291
0.365
0.57
0.917
1.403
2.042
2.842
3.796
4.911
6.177
7.536
8.884
10.069
10.907
11.268
11.061
10.208
8.684
6.455
3.516
-0.061
-4.209
-8.867
-14
-19.613
-25.653
-31.932
-38.15
-43.911
-48.795
-52.47
-54.555
-54.575
-52.262
-47.562
-40.756
-32.552
-23.577
-14.204
-4.827
4.019
12.062
19.49
27.236
37.095
50.549
68.271
90.541
117.58
149.195
183.941
218.556
247.979
267.245
272.683
261.379
230.634
178.006
102.81
7.541
-102.226
-220.103
-340.362
-457.562
-566.097
-659.307
-731.046
-778.378
-801.422
-801.485
-780.4
-740.218
-683.252
-614.284
-539.617
-463.822
-390.152
-321.477
-259.539
-206.127
-163.526
-131.684
-108.544
-92.511
-81.649
-73.679
-67.605
-62.274
-55.689
-47.158
-37.041
-25.652
-14.192
-4.238
3.769
9.565
12.609
12.986
10.977
6.885
1.692
-3.407
-7.776
-11.011
-12.869
-13.409
-12.6
-10.385
-6.939
-2.526
2.624
8.292
14.354
20.763
27.411
34.118
40.664
46.835
52.497
57.59
62.093
65.988
69.251
71.891
73.961
75.542
76.723
77.571
78.134
78.466
78.636
78.735
78.868
79.117
79.534
80.154
81.001
82.092
83.444
85.056
86.91
88.985
91.267
93.747
96.42
99.276
102.294
105.453
108.726
112.095
115.542
119.046
122.588
126.148
129.706
133.246
136.755
140.214
143.6
146.894
150.07
153.108
155.987
158.683
161.177
163.447
165.477
167.251
168.756
169.978
170.906
171.53
171.843
171.839
171.514
170.866
169.892
168.595
166.978
165.047
162.807
160.267
157.436
154.325
150.946
147.313
143.441
139.347
135.046
130.558
125.901
121.095
116.16
111.117
105.987
100.79
95.549
90.284
85.015
79.762
74.544
69.38
64.288
59.284
54.385
49.605
44.959
40.461
36.121
31.952
27.962
24.161
20.556
17.153
13.958
10.974
8.204
5.651
3.313
1.192
-0.716
-2.412
-3.9
-5.187
-6.277
-7.177
-7.895
-8.44
-8.819
-9.043
-9.122
-9.067
-8.888
-8.596
-8.203
-7.721
-7.162
-6.537
-5.859
-5.138
-4.388
-3.619
-2.843
-2.069
-1.31
-0.575
0.127
0.785
1.391
1.936
2.413
2.813
3.131
3.36
3.495
3.531
3.464
3.292
3.01
2.618
2.112
1.493
0.76
-0.088
-1.049
-2.121
-3.304
-4.592
-5.983
-7.473
-9.056
-10.728
-12.483
-14.316
-16.22
-18.188
-20.215
-22.292
-24.412
-26.566
-28.745
-30.942
-33.147
-35.35
-37.544
-39.718
-41.864
-43.973
-46.039
-48.052
-50.004
-51.885
-53.688
-55.404
-57.025
-58.542
-59.948
-61.236
-62.402
-63.442
-64.352
-65.13
-65.774
-66.282
-66.653
-66.887
-66.985
-66.948
-66.778
-66.477
-66.052
-65.508
-64.853
-64.096
-63.244
-62.308
-61.298
-60.227
-59.104
-57.937
-56.735
-55.506
-54.261
-53.011
-51.766
-50.533
-49.327
-48.16
-47.047
-46.004
-45.036
-44.149
-43.347
-42.633
-42.011
-41.483
-41.043
-40.69
-40.431
-40.273
-40.236
-40.334
-40.556
-40.892
-41.321
-41.806
-42.323
-42.841
-43.309
-43.695
-43.987
-44.176
-44.286
-44.333
-44.293
-44.141
-43.841
-43.349
-42.665
-41.806
-40.788
-39.695
-38.634
-37.719
-37.122
-36.976
-37.334
-38.25
-39.712
-41.682
-44.181
-47.192
-50.68
-54.657
-59.104
-63.993
-69.265
-74.699
-79.954
-84.678
-88.427
-90.84
-91.594
-90.232
-86.596
-80.843
-73.304
-64.71
-55.74
-46.619
-37.794
-29.946
-23.003
-16.486
-9.318
0.617
14.676
33.113
56.464
85.085
117.827
152.436
184.832
209.199
221.051
217.264
194.573
150.135
82.887
-5.899
-111.687
-227.65
-347.664
-466.175
-577.26
-674.287
-750.952
-803.493
-831.302
-835.658
-818.346
-781.365
-727.049
-659.871
-586.047
-510.41
-436.448
-367.165
-304.418
-249.979
-206.103
-172.924
-148.444
-131.06
-118.859
-109.458
-101.81
-94.824
-86.558
-76.37
-64.699
-51.872
-39.087
-28
-19.093
-12.657
-9.263
-8.746
-10.756
-14.967
-20.365
-25.744
-30.459
-34.057
-36.257
-37.107
-36.56
-34.551
-31.248
-26.881
-21.659
-15.787
-9.378
-2.505
4.693
12.028
19.259
26.159
32.589
38.463
43.744
48.415
52.45
55.856
58.685
61.007
62.898
64.426
65.633
66.575
67.327
67.979
68.638
69.393
70.296
71.386
72.688
74.216
75.985
77.991
80.214
82.631
85.229
87.996
90.927
94.012
97.23
100.559
103.975
107.455
110.984
114.542
118.109
121.667
125.199
128.69
132.129
135.5
138.785
141.963
145.015
147.92
150.661
153.219
155.573
157.708
159.607
161.259
162.651
163.775
164.619
165.178
165.446
165.418
165.094
164.471
163.55
162.335
160.828
159.037
156.969
154.632
152.035
149.189
146.108
142.804
139.292
135.587
131.705
127.662
123.477
119.167
114.751
110.247
105.674
101.052
96.399
91.734
87.075
82.438
77.842
73.301
68.832
64.448
60.164
55.992
51.944
48.031
44.263
40.649
37.198
33.914
30.806
27.876
25.13
22.569
20.196
18.012
16.016
14.207
12.584
11.144
9.884
8.799
7.884
7.133
6.54
6.099
5.802
5.641
5.608
5.696
5.896
6.198
6.595
7.076
7.634
8.259
8.942
9.674
10.448
11.255
12.087
12.936
13.795
14.657
15.516
16.364
17.195
18.004
18.785
19.532
20.242
20.909
21.531
22.103
22.624
23.089
23.497
23.845
24.131
24.354
24.513
24.607
24.635
24.598
24.497
24.333
24.107
23.82
23.475
23.073
22.616
22.107
21.547
20.94
20.288
19.595
18.866
18.104
17.313
16.5
15.668
14.823
13.97
13.114
12.26
11.411
10.575
9.756
8.961
8.196
7.467
6.78
6.143
5.561
5.039
4.579
4.186
3.861
3.61
3.433
3.332
3.31
3.368
3.507
3.728
4.033
4.417
4.879
5.415
6.02
6.69
7.417
8.193
9.01
9.862
10.742
11.644
12.564
13.494
14.429
15.362
16.287
17.196
18.077
18.92
19.711
20.445
21.116
21.718
22.249
22.707
23.091
23.408
23.656
23.83
23.921
23.911
23.789
23.556
23.221
22.796
22.31
21.799
21.305
20.882
20.566
20.375
20.316
20.377
20.551
20.845
21.269
21.844
22.593
23.524
24.629
25.89
27.228
28.513
29.597
30.304
30.492
30.078
29
27.234
24.783
21.672
17.956
13.696
8.926
3.655
-2.09
-8.234
-14.546
-20.661
-26.19
-30.683
-33.775
-35.092
-34.155
-30.754
-24.986
-17.223
-8.232
1.29
11.063
20.632
29.31
37.121
44.496
52.467
63.082
77.685
96.551
120.196
148.985
181.772
216.297
248.569
272.859
284.706
280.992
258.414
214.069
146.864
58.047
-47.899
-164.177
-284.672
-403.824
-515.656
-613.492
-690.999
-744.381
-773.031
-778.258
-761.867
-725.897
-672.719
-606.789
-534.287
-460.016
-387.413
-319.425
-257.863
-204.421
-161.291
-128.616
-104.442
-87.22
-75.095
-65.717
-58.062
-51.091
-42.922
-32.929
-21.532
-9.022
3.447
14.233
22.854
29.025
32.197
32.546
30.415
26.114
20.628
15.148
10.316
6.585
4.237
3.221
3.582
5.385
8.465
12.6
17.581
23.202
29.349
35.944
42.852
49.884
56.806
63.396
69.513
75.077
80.048
84.413
88.148
91.26
93.803
95.843
97.46
98.721
99.672
100.368
100.887
101.319
101.771
102.332
103.054
103.977
105.127
106.519
108.166
110.068
112.204
114.553
117.103
119.841
122.763
125.859
129.108
132.487
135.97
139.537
143.169
146.845
150.545
154.249
157.939
161.597
165.21
168.762
172.23
175.593
178.829
181.915
184.83
187.554
190.065
192.344
194.372
196.136
197.622
198.818
199.713
200.297
200.565
200.51
200.129
199.42
198.383
197.02
195.334
193.331
191.018
188.404
185.498
182.312
178.859
175.152
171.209
167.044
162.674
158.119
153.397
148.528
143.533
138.432
133.246
127.995
122.702
117.387
112.071
106.772
101.509
96.302
91.167
86.121
81.179
76.356
71.666
67.121
62.733
58.512
54.467
50.605
46.935
43.46
40.186
37.116
34.251
31.593
29.142
26.896
24.852
23.009
21.361
19.904
18.631
17.536
16.611
15.849
15.24
14.775
14.446
14.241
14.152
14.167
14.277
14.471
14.739
15.071
15.456
15.884
16.346
16.832
17.334
17.842
18.349
18.847
19.329
19.788
20.217
20.611
20.964
21.272
21.53
21.733
21.879
21.964
21.987
21.945
21.837
21.661
21.419
21.107
20.728
20.281
19.766
19.184
18.536
17.824
17.05
16.217
15.327
14.383
13.387
12.343
11.254
10.123
8.952
7.746
6.506
5.238
3.945
2.632
1.303
-0.037
-1.383
-2.73
-4.073
-5.407
-6.728
-8.032
-9.313
-10.569
-11.791
-12.977
-14.119
-15.213
-16.252
-17.23
-18.143
-18.986
-19.757
-20.452
-21.069
-21.604
-22.057
-22.425
-22.706
-22.9
-23.004
-23.018
-22.943
-22.78
-22.533
-22.206
-21.803
-21.331
-20.796
-20.206
-19.571
-18.895
-18.185
-17.447
-16.687
-15.91
-15.123
-14.332
-13.542
-12.764
-12.008
-11.285
-10.607
-9.983
-9.418
-8.919
-8.487
-8.128
-7.842
-7.624
-7.477
-7.405
-7.42
-7.539
-7.774
-8.125
-8.583
-9.136
-9.756
-10.407
-11.049
-11.632
-12.117
-12.488
-12.742
-12.889
-12.939
-12.892
-12.734
-12.444
-12.002
-11.396
-10.632
-9.728
-8.752
-7.83
-7.1
-6.733
-6.871
-7.6
-8.974
-11.018
-13.727
-17.067
-20.996
-25.463
-30.425
-35.884
-41.83
-48.199
-54.791
-61.284
-67.294
-72.39
-76.211
-78.352
-78.345
-75.964
-71.255
-64.569
-56.599
-47.989
-39.045
-30.214
-22.151
-14.872
-7.959
-0.368
9.853
24.042
42.544
65.869
94.499
127.465
162.662
196.27
222.61
237.189
236.855
218.187
178.064
115.107
30.051
-73.109
-187.558
-307.252
-426.618
-539.421
-639.195
-719.649
-776.389
-808.419
-817.188
-804.406
-772.444
-724.148
-663.116
-594.921
-524.586
-455.461
-390.266
-330.809
-278.004
-233.279
-197.744
-170.22
-149.28
-133.452
-120.47
-109.267
-99.556
-90.197
-79.986
-68.843
-56.881
-44.896
-34.624
-26.714
-21.106
-17.992
-17.401
-19.164
-23.09
-28.401
-33.815
-38.555
-42.225
-44.588
-45.66
-45.382
-43.643
-40.536
-36.309
-31.207
-25.439
-19.145
-12.403
-5.338
1.858
8.943
15.696
21.974
27.69
32.81
37.322
41.202
44.458
47.141
49.315
51.061
52.452
53.535
54.367
55.022
55.587
56.172
56.866
57.725
58.787
60.079
61.613
63.405
65.454
67.738
70.237
72.936
75.822
78.889
82.127
85.515
89.028
92.64
96.327
100.068
103.844
107.632
111.409
115.157
118.858
122.498
126.058
129.518
132.854
136.045
139.068
141.902
144.527
146.922
149.067
150.947
152.546
153.853
154.857
155.547
155.915
155.957
155.668
155.046
154.091
152.804
151.188
149.248
146.992
144.429
141.569
138.422
135.003
131.325
127.403
123.256
118.899
114.352
109.632
104.761
99.758
94.645
89.441
84.169
78.848
73.5
68.146
62.804
57.494
52.233
47.039
41.929
36.917
32.018
27.245
22.611
18.127
13.802
9.646
5.667
1.871
-1.736
-5.151
-8.37
-11.39
-14.211
-16.833
-19.255
-21.481
-23.513
-25.354
-27.009
-28.482
-29.78
-30.909
-31.875
-32.687
-33.352
-33.879
-34.275
-34.55
-34.712
-34.77
-34.733
-34.609
-34.409
-34.139
-33.809
-33.428
-33.003
-32.542
-32.053
-31.542
-31.018
-30.485
-29.95
-29.419
-28.898
-28.39
-27.901
-27.435
-26.997
-26.589
-26.215
-25.877
-25.578
-25.32
-25.105
-24.933
-24.807
-24.726
-24.692
-24.706
-24.767
-24.875
-25.031
-25.233
-25.479
-25.769
-26.1
-26.471
-26.88
-27.324
-27.8
-28.307
-28.842
-29.402
-29.985
-30.587
-31.204
-31.832
-32.467
-33.105
-33.742
-34.371
-34.988
-35.59
-36.17
-36.725
-37.25
-37.741
-38.191
-38.595
-38.948
-39.244
-39.477
-39.642
-39.734
-39.75
-39.687
-39.542
-39.315
-39.003
-38.605
-38.12
-37.549
-36.891
-36.147
-35.316
-34.401
-33.406
-32.336
-31.195
-29.989
-28.726
-27.414
-26.063
-24.681
-23.279
-21.862
-20.438
-19.014
-17.599
-16.201
-14.826
-13.481
-12.177
-10.925
-9.738
-8.627
-7.6
-6.663
-5.821
-5.077
-4.434
-3.891
-3.444
-3.092
-2.84
-2.696
-2.678
-2.793
-3.04
-3.41
-3.886
-4.441
-5.036
-5.628
-6.162
-6.601
-6.926
-7.129
-7.22
-7.201
-7.065
-6.803
-6.389
-5.802
-5.031
-4.08
-2.97
-1.778
-0.635
0.314
0.897
0.981
0.486
-0.646
-2.433
-4.865
-7.91
-11.5
-15.572
-20.096
-25.061
-30.446
-36.167
-41.98
-47.522
-52.4
-56.173
-58.494
-58.997
-57.228
-53.019
-46.499
-38.089
-28.598
-18.706
-8.677
1.085
9.972
18.013
25.652
33.906
44.71
59.356
78.056
101.151
128.882
160.008
192.159
221.596
242.999
251.975
245.603
220.766
174.678
106.978
19.534
-83.351
-194.916
-308.762
-419.427
-520.447
-604.952
-668.121
-707.174
-721.951
-715.163
-689.643
-647.954
-594.287
-533.89
-471.559
-411.763
-357.061
-307.701
-264.077
-226.752
-195.372
-169.268
-147.072
-126.422
-106.25
-86.888
-68.449
-51.14
-35.063
-19.682
-5.317
6.658
15.628
21.581
24.662
25.543
24.602
21.634
16.971
11.49
5.9
0.89
-3.106
-6.1
-8.017
-8.637
-7.903
-5.849
-2.574
1.685
6.732
12.455
18.721
25.41
32.385
39.44
46.352
52.942
59.081
64.704
69.782
74.284
78.187
81.5
84.268
86.573
88.497
90.104
91.446
92.576
93.564
94.502
95.488
96.595
97.867
99.334
101.014
102.926
105.083
107.482
110.103
112.923
115.926
119.101
122.442
125.935
129.557
133.283
137.088
140.949
144.849
148.766
152.68
156.569
160.414
164.197
167.905
171.519
175.017
178.377
181.577
184.595
187.412
190.006
192.356
194.444
196.255
197.774
198.988
199.888
200.462
200.704
200.608
200.17
199.388
198.262
196.792
194.983
192.84
190.37
187.582
184.487
181.096
177.422
173.479
169.285
164.854
160.206
155.358
150.331
145.145
139.821
134.38
128.845
123.236
117.577
111.888
106.191
100.507
94.855
89.256
83.726
78.285
72.948
67.731
62.648
57.713
52.938
48.334
43.911
39.678
35.642
31.809
28.184
24.771
21.573
18.591
15.826
13.277
10.942
8.819
6.904
5.192
3.678
2.356
1.219
0.258
-0.534
-1.166
-1.647
-1.988
-2.198
-2.287
-2.265
-2.142
-1.929
-1.635
-1.271
-0.846
-0.37
0.147
0.696
1.269
1.856
2.45
3.042
3.625
4.194
4.74
5.258
5.743
6.19
6.593
6.947
7.25
7.498
7.688
7.817
7.885
7.891
7.834
7.714
7.532
7.289
6.985
6.623
6.204
5.73
5.202
4.626
4.004
3.339
2.637
1.902
1.139
0.353
-0.45
-1.265
-2.087
-2.911
-3.731
-4.541
-5.335
-6.107
-6.85
-7.558
-8.223
-8.838
-9.399
-9.899
-10.335
-10.703
-11.001
-11.225
-11.372
-11.441
-11.43
-11.337
-11.161
-10.901
-10.558
-10.134
-9.632
-9.055
-8.409
-7.699
-6.933
-6.119
-5.264
-4.378
-3.465
-2.532
-1.586
-0.635
0.316
1.26
2.19
3.096
3.966
4.79
5.555
6.252
6.876
7.421
7.883
8.26
8.55
8.759
8.885
8.925
8.867
8.695
8.398
7.979
7.445
6.809
6.102
5.357
4.618
3.938
3.354
2.884
2.537
2.302
2.173
2.156
2.263
2.513
2.931
3.522
4.28
5.187
6.167
7.093
7.824
8.187
8.047
7.326
5.964
3.946
1.279
-2.009
-5.855
-10.196
-14.993
-20.228
-25.876
-31.86
-37.951
-43.797
-49.015
-53.172
-55.921
-56.907
-55.673
-52.046
-46.131
-38.313
-29.366
-19.968
-10.387
-1.049
7.426
15.092
22.371
30.269
40.727
54.974
73.211
95.794
122.922
153.411
185.037
214.055
235.16
244.219
238.454
214.962
171.208
106.49
22.209
-77.493
-186.113
-297.716
-407.15
-508.533
-595.54
-662.895
-707.24
-728.074
-727.625
-708.421
-672.827
-624.488
-568.131
-508.673
-450.738
-397.118
-348.41
-304.888
-266.977
-234.31
-206.187
-181.485
-158.155
-135.113
-112.635
-91.077
-70.806
-52.302
-35.514
-20.482
-8.209
0.754
6.53
9.316
9.711
8.338
5.365
0.974
-4.131
-9.3
-14.026
-17.833
-20.613
-22.35
-22.893
-22.137
-20.102
-16.853
-12.534
-7.36
-1.464
5.03
11.958
19.17
26.469
33.618
40.43
46.778
52.576
57.786
62.391
66.368
69.724
72.51
74.791
76.645
78.139
79.325
80.264
81.028
81.707
82.403
83.192
84.123
85.231
86.54
88.065
89.822
91.807
94.001
96.386
98.948
101.676
104.564
107.602
110.769
114.043
117.399
120.817
124.279
127.765
131.255
134.729
138.169
141.558
144.885
148.131
151.276
154.3
157.181
159.899
162.433
164.763
166.87
168.734
170.341
171.676
172.727
173.484
173.936
174.075
173.896
173.395
172.569
171.417
169.939
168.139
166.02
163.59
160.856
157.828
154.516
150.933
147.091
143.007
138.695
134.173
129.458
124.569
119.524
114.345
109.051
103.664
98.203
92.69
87.145
81.59
76.044
70.525
65.054
59.646
54.32
49.092
43.976
38.987
34.138
29.441
24.906
20.546
16.367
12.377
8.584
4.991
1.604
-1.575
-4.543
-7.3
-9.846
-12.181
-14.309
-16.232
-17.954
-19.479
-20.813
-21.962
-22.932
-23.732
-24.369
-24.851
-25.187
-25.385
-25.455
-25.405
-25.245
-24.984
-24.631
-24.195
-23.685
-23.112
-22.482
-21.805
-21.088
-20.341
-19.569
-18.781
-17.983
-17.182
-16.383
-15.592
-14.815
-14.056
-13.32
-12.611
-11.934
-11.291
-10.687
-10.123
-9.602
-9.126
-8.697
-8.316
-7.986
-7.706
-7.478
-7.304
-7.183
-7.117
-7.104
-7.145
-7.239
-7.385
-7.582
-7.829
-8.125
-8.467
-8.855
-9.288
-9.762
-10.278
-10.833
-11.423
-12.045
-12.698
-13.377
-14.078
-14.797
-15.53
-16.272
-17.02
-17.769
-18.516
-19.256
-19.985
-20.696
-21.385
-22.047
-22.675
-23.263
-23.806
-24.3
-24.74
-25.123
-25.446
-25.706
-25.899
-26.024
-26.08
-26.063
-25.973
-25.808
-25.566
-25.249
-24.86
-24.4
-23.874
-23.286
-22.643
-21.953
-21.223
-20.459
-19.668
-18.856
-18.028
-17.189
-16.346
-15.5
-14.66
-13.831
-13.024
-12.249
-11.518
-10.837
-10.215
-9.659
-9.172
-8.761
-8.426
-8.159
-7.963
-7.841
-7.801
-7.862
-8.031
-8.306
-8.684
-9.157
-9.704
-10.295
-10.881
-11.401
-11.816
-12.103
-12.247
-12.261
-12.141
-11.878
-11.477
-10.927
-10.22
-9.362
-8.343
-7.172
-5.906
-4.646
-3.545
-2.789
-2.51
-2.803
-3.748
-5.372
-7.708
-10.757
-14.439
-18.679
-23.411
-28.596
-34.243
-40.298
-46.575
-52.776
-58.502
-63.329
-66.928
-68.917
-68.816
-66.365
-61.515
-54.555
-46.21
-37.115
-27.629
-18.138
-9.15
-0.884
6.881
15.104
25.585
39.754
58.209
81.166
108.751
140.629
175.278
209.383
237.906
256.082
260.451
248.309
217.232
165.011
91.135
-1.766
-108.151
-221.832
-337.272
-449.401
-553.056
-641.773
-709.683
-754.009
-774.783
-773.564
-752.464
-713.287
-658.125
-591.91
-520.781
-449.507
-381.762
-319.597
-263.923
-216.464
-179.222
-151.701
-131.821
-117.304
-105.415
-94.842
-85.502
-76.471
-66.313
-54.631
-41.755
-28.717
-17.419
-8.74
-2.53
1.179
2.325
0.995
-2.67
-7.996
-13.7
-18.886
-23.129
-26.163
-27.984
-28.549
-27.707
-25.482
-22.078
-17.716
-12.614
-6.941
-0.768
5.817
12.669
19.607
26.396
32.839
38.821
44.278
49.191
53.537
57.29
60.456
63.084
65.252
67.044
68.526
69.741
70.744
71.605
72.413
73.273
74.259
75.415
76.774
78.351
80.163
82.226
84.535
87.069
89.808
92.735
95.838
99.113
102.544
106.111
109.788
113.549
117.372
121.238
125.128
129.02
132.892
136.726
140.504
144.212
147.831
151.341
154.718
157.941
160.989
163.842
166.477
168.876
171.02
172.893
174.482
175.774
176.759
177.426
177.77
177.784
177.465
176.812
175.824
174.503
172.852
170.877
168.586
165.989
163.095
159.916
156.466
152.758
148.81
144.638
140.259
135.691
130.955
126.071
121.059
115.94
110.736
105.467
100.155
94.822
89.487
84.171
78.892
73.669
68.52
63.462
58.509
53.676
48.978
44.425
40.03
35.803
31.753
27.887
24.212
20.732
17.453
14.377
11.505
8.839
6.379
4.122
2.066
0.209
-1.455
-2.929
-4.221
-5.336
-6.282
-7.067
-7.7
-8.188
-8.541
-8.768
-8.879
-8.884
-8.791
-8.61
-8.352
-8.025
-7.639
-7.202
-6.724
-6.212
-5.674
-5.119
-4.553
-3.982
-3.413
-2.852
-2.304
-1.774
-1.266
-0.784
-0.332
0.087
0.471
0.819
1.128
1.398
1.629
1.819
1.969
2.079
2.149
2.181
2.174
2.13
2.05
1.936
1.788
1.61
1.401
1.164
0.9
0.61
0.295
-0.043
-0.403
-0.785
-1.186
-1.605
-2.041
-2.492
-2.956
-3.432
-3.918
-4.414
-4.918
-5.429
-5.947
-6.47
-6.996
-7.525
-8.054
-8.582
-9.105
-9.623
-10.131
-10.628
-11.111
-11.578
-12.027
-12.455
-12.859
-13.235
-13.581
-13.891
-14.162
-14.389
-14.568
-14.695
-14.767
-14.784
-14.743
-14.643
-14.482
-14.259
-13.974
-13.627
-13.216
-12.74
-12.201
-11.597
-10.933
-10.212
-9.437
-8.613
-7.745
-6.841
-5.908
-4.954
-3.985
-3.007
-2.025
-1.045
-0.073
0.886
1.825
2.74
3.622
4.46
5.244
5.964
6.613
7.186
7.681
8.095
8.426
8.674
8.848
8.946
8.964
8.894
8.718
8.427
8.024
7.518
6.923
6.268
5.59
4.932
4.348
3.875
3.53
3.322
3.239
3.276
3.441
3.744
4.208
4.855
5.695
6.72
7.911
9.19
10.422
11.461
12.13
12.289
11.858
10.777
9.024
6.606
3.551
-0.082
-4.228
-8.857
-13.957
-19.506
-25.428
-31.483
-37.304
-42.491
-46.594
-49.252
-50.098
-48.663
-44.758
-38.506
-30.312
-20.98
-11.209
-1.263
8.437
17.251
25.251
32.905
41.271
52.398
67.577
87.001
111.059
139.962
172.434
206.122
237.028
259.534
269.329
263.481
238.949
193.14
125.283
36.894
-67.457
-181.078
-297.996
-412.849
-519.932
-612.909
-685.895
-735.512
-761.383
-764.876
-747.795
-712.108
-660.093
-596.06
-525.875
-454.04
-383.794
-317.939
-258.222
-206.339
-164.445
-132.676
-109.186
-92.513
-80.868
-72.01
-64.945
-58.62
-51.175
-41.977
-31.401
-19.73
-8.088
1.96
9.959
15.635
18.449
18.556
16.281
11.931
6.475
1.068
-3.666
-7.298
-9.558
-10.497
-10.074
-8.232
-5.139
-1.021
3.913
9.461
15.512
21.997
28.786
35.699
42.507
48.995
55.031
60.536
65.473
69.828
73.579
76.731
79.339
81.471
83.205
84.606
85.717
86.591
87.301
87.932
88.585
89.344
90.257
91.361
92.679
94.225
96.012
98.036
100.276
102.712
105.327
108.109
111.054
114.149
117.373
120.704
124.117
127.59
131.105
134.643
138.183
141.705
145.19
148.623
151.99
155.273
158.453
161.508
164.417
167.159
169.714
172.063
174.185
176.063
177.681
179.025
180.083
180.846
181.302
181.446
181.271
180.774
179.952
178.806
177.337
175.547
173.441
171.028
168.314
165.31
162.026
158.475
154.671
150.629
146.365
141.896
137.24
132.415
127.442
122.341
117.132
111.835
106.472
101.064
95.631
90.194
84.772
79.385
74.05
68.786
63.609
58.534
53.578
48.752
44.069
39.542
35.181
30.994
26.991
23.177
19.559
16.141
12.926
9.916
7.112
4.515
2.123
-0.065
-2.054
-3.847
-5.449
-6.865
-8.103
-9.169
-10.071
-10.818
-11.418
-11.88
-12.214
-12.43
-12.537
-12.545
-12.465
-12.306
-12.077
-11.789
-11.45
-11.071
-10.658
-10.222
-9.769
-9.308
-8.845
-8.387
-7.941
-7.51
-7.101
-6.718
-6.365
-6.045
-5.762
-5.517
-5.313
-5.151
-5.033
-4.958
-4.927
-4.939
-4.994
-5.092
-5.23
-5.408
-5.623
-5.875
-6.161
-6.478
-6.826
-7.2
-7.599
-8.02
-8.461
-8.919
-9.392
-9.878
-10.374
-10.88
-11.392
-11.911
-12.435
-12.961
-13.489
-14.017
-14.545
-15.073
-15.598
-16.122
-16.644
-17.163
-17.682
-18.199
-18.715
-19.229
-19.742
-20.254
-20.764
-21.274
-21.781
-22.288
-22.793
-23.297
-23.801
-24.304
-24.807
-25.307
-25.805
-26.298
-26.787
-27.268
-27.739
-28.198
-28.643
-29.071
-29.482
-29.872
-30.239
-30.581
-30.894
-31.175
-31.42
-31.625
-31.786
-31.899
-31.961
-31.97
-31.925
-31.823
-31.663
-31.444
-31.164
-30.824
-30.422
-29.958
-29.43
-28.839
-28.188
-27.478
-26.713
-25.899
-25.038
-24.14
-23.212
-22.263
-21.297
-20.323
-19.345
-18.369
-17.401
-16.445
-15.503
-14.583
-13.692
-12.839
-12.036
-11.29
-10.611
-10.005
-9.48
-9.038
-8.683
-8.413
-8.223
-8.113
-8.088
-8.157
-8.337
-8.632
-9.038
-9.552
-10.162
-10.846
-11.573
-12.289
-12.933
-13.467
-13.869
-14.13
-14.259
-14.25
-14.091
-13.784
-13.318
-12.694
-11.917
-10.983
-9.904
-8.736
-7.589
-6.622
-6.017
-5.906
-6.375
-7.491
-9.285
-11.789
-15.013
-18.894
-23.336
-28.257
-33.59
-39.304
-45.371
-51.633
-57.78
-63.424
-68.13
-71.511
-73.287
-73.1
-70.506
-65.331
-57.701
-48.083
-37.35
-26.218
-14.97
-4.066
5.838
14.726
23.003
31.76
43.063
58.285
77.706
101.728
130.586
163.009
196.591
227.296
249.485
258.756
252.112
226.5
179.287
109.792
19.72
-86.257
-201.335
-319.411
-435.05
-542.436
-635.112
-707.233
-755.549
-779.818
-781.571
-762.763
-725.461
-672.089
-607.087
-536.353
-464.357
-394.247
-328.692
-269.336
-217.802
-176.178
-144.541
-121.027
-104.172
-92.224
-83.009
-75.576
-68.899
-61.127
-51.633
-40.795
-28.904
-17.087
-6.894
1.233
7.019
9.927
10.102
7.869
3.54
-1.907
-7.323
-12.088
-15.775
-18.118
-19.167
-18.878
-17.19
-14.271
-10.34
-5.603
-0.253
5.603
11.899
18.505
25.241
31.877
38.198
44.072
49.421
54.21
58.424
62.043
65.074
67.572
69.605
71.25
72.573
73.615
74.43
75.091
75.686
76.317
77.069
77.993
79.126
80.492
82.104
83.976
86.103
88.465
91.04
93.812
96.768
99.903
103.205
106.653
110.221
113.884
117.621
121.41
125.231
129.063
132.884
136.674
140.416
144.097
147.697
151.195
154.569
157.796
160.855
163.725
166.385
168.813
170.992
172.903
174.534
175.871
176.904
177.622
178.018
178.086
177.823
177.225
176.293
175.028
173.433
171.513
169.277
166.732
163.888
160.757
157.352
153.687
149.778
145.642
141.295
136.757
132.047
127.184
122.19
117.085
111.891
106.629
101.319
95.984
90.644
85.319
80.029
74.792
69.625
64.545
59.569
54.711
49.984
45.401
40.974
36.712
32.626
28.722
25.007
21.486
18.165
15.044
12.128
9.415
6.907
4.601
2.496
0.587
-1.128
-2.656
-4.001
-5.171
-6.172
-7.012
-7.7
-8.244
-8.652
-8.935
-9.101
-9.161
-9.123
-8.997
-8.792
-8.519
-8.186
-7.801
-7.374
-6.913
-6.425
-5.918
-5.399
-4.875
-4.351
-3.833
-3.326
-2.835
-2.364
-1.917
-1.496
-1.105
-0.746
-0.42
-0.13
0.125
0.343
0.524
0.667
0.775
0.846
0.883
0.886
0.856
0.795
0.704
0.586
0.442
0.274
0.085
-0.124
-0.351
-0.594
-0.851
-1.12
-1.4
-1.689
-1.986
-2.288
-2.596
-2.907
-3.221
-3.537
-3.853
-4.169
-4.484
-4.798
-5.11
-5.421
-5.729
-6.036
-6.342
-6.646
-6.949
-7.25
-7.552
-7.853
-8.155
-8.458
-8.764
-9.074
-9.388
-9.708
-10.034
-10.367
-10.708
-11.056
-11.412
-11.776
-12.147
-12.527
-12.916
-13.312
-13.717
-14.129
-14.549
-14.975
-15.407
-15.843
-16.28
-16.718
-17.154
-17.585
-18.01
-18.426
-18.83
-19.221
-19.597
-19.952
-20.285
-20.59
-20.864
-21.103
-21.302
-21.457
-21.565
-21.622
-21.628
-21.58
-21.476
-21.315
-21.095
-20.816
-20.477
-20.077
-19.616
-19.093
-18.511
-17.872
-17.179
-16.436
-15.648
-14.819
-13.956
-13.068
-12.16
-11.239
-10.308
-9.373
-8.438
-7.512
-6.598
-5.702
-4.83
-3.988
-3.186
-2.434
-1.742
-1.112
-0.548
-0.053
0.372
0.724
1.005
1.22
1.37
1.452
1.461
1.375
1.185
0.898
0.524
0.083
-0.389
-0.871
-1.325
-1.702
-1.972
-2.113
-2.118
-2.009
-1.793
-1.462
-1.004
-0.379
0.448
1.468
2.67
4.014
5.398
6.73
7.884
8.685
9.01
8.777
7.926
6.469
4.447
1.883
-1.178
-4.716
-8.757
-13.287
-18.246
-23.492
-28.751
-33.711
-38.01
-41.255
-42.997
-42.741
-40.241
-35.548
-29.02
-21.335
-13.064
-4.464
4.041
11.833
18.881
25.57
33.042
43.354
57.685
76.224
99.265
126.992
158.652
192.54
224.828
249.884
263.72
263.492
246.414
210.179
152.887
74.468
-21.243
-127.874
-240.159
-352.966
-461.146
-559.5
-641.186
-701.079
-738.026
-752.898
-746.891
-722.124
-680.435
-624.37
-559.873
-492.34
-425.216
-361.605
-303.272
-251.006
-206.634
-171.593
-144.478
-123.716
-107.699
-93.993
-81.746
-70.877
-60.28
-48.839
-36.531
-23.473
-10.509
0.589
9.202
15.408
19.054
20.15
18.812
15.15
9.839
4.123
-1.156
-5.532
-8.712
-10.683
-11.379
-10.663
-8.571
-5.303
-1.084
3.867
9.384
15.399
21.828
28.527
35.31
41.938
48.214
54.016
59.277
63.973
68.076
71.562
74.441
76.764
78.613
80.073
81.206
82.058
82.681
83.146
83.543
83.977
84.524
85.23
86.129
87.24
88.581
90.168
92
94.054
96.313
98.759
101.384
104.184
107.147
110.254
113.48
116.803
120.202
123.663
127.167
130.693
134.223
137.74
141.228
144.675
148.063
151.373
154.584
157.675
160.624
163.414
166.022
168.43
170.618
172.571
174.273
175.713
176.879
177.759
178.345
178.63
178.609
178.278
177.634
176.678
175.41
173.833
171.954
169.778
167.312
164.566
161.55
158.276
154.757
151.008
147.042
142.877
138.53
134.018
129.36
124.576
119.684
114.706
109.659
104.565
99.443
94.313
89.193
84.101
79.054
74.07
69.165
64.353
59.65
55.067
50.617
46.312
42.162
38.176
34.362
30.725
27.273
24.01
20.938
18.061
15.379
12.892
10.601
8.502
6.593
4.87
3.329
1.963
0.767
-0.266
-1.143
-1.874
-2.466
-2.929
-3.272
-3.503
-3.633
-3.672
-3.629
-3.515
-3.338
-3.108
-2.834
-2.525
-2.19
-1.837
-1.474
-1.108
-0.746
-0.395
-0.06
0.254
0.541
0.797
1.018
1.202
1.346
1.447
1.505
1.517
1.483
1.404
1.279
1.109
0.896
0.641
0.346
0.012
-0.357
-0.758
-1.191
-1.65
-2.134
-2.639
-3.161
-3.699
-4.249
-4.807
-5.371
-5.939
-6.506
-7.072
-7.634
-8.189
-8.735
-9.271
-9.796
-10.307
-10.803
-11.283
-11.747
-12.194
-12.625
-13.038
-13.434
-13.814
-14.179
-14.53
-14.868
-15.193
-15.508
-15.815
-16.113
-16.407
-16.698
-16.988
-17.279
-17.574
-17.875
-18.182
-18.499
-18.825
-19.163
-19.514
-19.879
-20.257
-20.651
-21.062
-21.488
-21.932
-22.394
-22.872
-23.365
-23.874
-24.397
-24.931
-25.474
-26.024
-26.577
-27.131
-27.683
-28.23
-28.767
-29.292
-29.801
-30.287
-30.747
-31.176
-31.567
-31.916
-32.218
-32.47
-32.668
-32.81
-32.893
-32.915
-32.873
-32.767
-32.595
-32.355
-32.047
-31.669
-31.223
-30.71
-30.132
-29.494
-28.798
-28.05
-27.258
-26.428
-25.568
-24.683
-23.781
-22.866
-21.945
-21.025
-20.11
-19.204
-18.315
-17.448
-16.615
-15.825
-15.086
-14.405
-13.788
-13.24
-12.763
-12.363
-12.038
-11.78
-11.594
-11.479
-11.445
-11.51
-11.681
-11.957
-12.333
-12.794
-13.314
-13.861
-14.386
-14.837
-15.181
-15.388
-15.451
-15.377
-15.162
-14.811
-14.326
-13.678
-12.851
-11.841
-10.65
-9.311
-7.915
-6.574
-5.436
-4.676
-4.419
-4.773
-5.806
-7.54
-9.972
-13.038
-16.66
-20.793
-25.425
-30.552
-36.126
-41.997
-47.892
-53.481
-58.375
-62.181
-64.453
-64.654
-62.51
-58.023
-51.494
-43.645
-35.093
-26.12
-17.189
-8.913
-1.308
6.001
14.155
25.222
40.387
59.868
83.986
112.897
145.826
181.014
214.554
240.814
255.794
256.623
240.511
205.122
148.524
70.67
-24.575
-130.805
-242.712
-355.148
-462.967
-560.936
-642.202
-701.629
-738.057
-752.426
-745.994
-720.92
-679.089
-623.047
-558.725
-491.518
-424.854
-361.807
-304.133
-252.582
-208.935
-174.623
-148.235
-128.207
-112.971
-100.063
-88.599
-78.475
-68.56
-57.756
-46.059
-33.58
-21.152
-10.512
-2.244
3.724
7.229
8.311
7.104
3.757
-1.016
-6.045
-10.554
-14.115
-16.483
-17.644
-17.529
-16.031
-13.211
-9.27
-4.449
1.049
7.073
13.521
20.287
27.2
34.04
40.615
46.773
52.411
57.492
61.998
65.9
69.201
71.937
74.151
75.923
77.331
78.425
79.269
79.933
80.496
81.066
81.729
82.543
83.548
84.77
86.222
87.921
89.87
92.051
94.453
97.06
99.859
102.846
106.012
109.337
112.799
116.372
120.033
123.762
127.542
131.35
135.168
138.976
142.756
146.496
150.177
153.778
157.277
160.65
163.874
166.928
169.791
172.439
174.853
177.014
178.906
180.515
181.829
182.836
183.524
183.885
183.914
183.606
182.958
181.968
180.636
178.967
176.964
174.634
171.985
169.027
165.77
162.226
158.41
154.337
150.022
145.482
140.736
135.803
130.704
125.458
120.087
114.612
109.055
103.437
97.781
92.107
86.435
80.786
75.179
69.632
64.163
58.789
53.526
48.389
43.391
38.546
33.866
29.36
25.038
20.909
16.978
13.252
9.735
6.431
3.342
0.468
-2.19
-4.633
-6.864
-8.886
-10.703
-12.32
-13.744
-14.981
-16.038
-16.923
-17.645
-18.214
-18.637
-18.926
-19.089
-19.138
-19.081
-18.929
-18.693
-18.382
-18.006
-17.574
-17.096
-16.581
-16.036
-15.47
-14.89
-14.304
-13.719
-13.14
-12.573
-12.023
-11.494
-10.991
-10.517
-10.074
-9.666
-9.294
-8.959
-8.664
-8.408
-8.191
-8.014
-7.877
-7.778
-7.716
-7.692
-7.702
-7.745
-7.82
-7.925
-8.058
-8.219
-8.404
-8.613
-8.845
-9.097
-9.37
-9.661
-9.969
-10.294
-10.635
-10.991
-11.363
-11.749
-12.151
-12.569
-13.003
-13.453
-13.919
-14.401
-14.899
-15.413
-15.942
-16.488
-17.048
-17.624
-18.214
-18.82
-19.439
-20.071
-20.716
-21.371
-22.033
-22.702
-23.374
-24.047
-24.717
-25.38
-26.033
-26.673
-27.297
-27.901
-28.48
-29.029
-29.543
-30.017
-30.445
-30.822
-31.143
-31.402
-31.598
-31.725
-31.782
-31.766
-31.676
-31.509
-31.264
-30.94
-30.537
-30.055
-29.494
-28.855
-28.142
-27.36
-26.512
-25.605
-24.645
-23.64
-22.599
-21.531
-20.443
-19.342
-18.235
-17.129
-16.032
-14.952
-13.895
-12.87
-11.885
-10.953
-10.084
-9.29
-8.578
-7.951
-7.414
-6.968
-6.617
-6.361
-6.196
-6.121
-6.14
-6.258
-6.492
-6.852
-7.327
-7.908
-8.57
-9.278
-10.003
-10.711
-11.349
-11.888
-12.307
-12.594
-12.765
-12.827
-12.763
-12.569
-12.209
-11.648
-10.898
-9.974
-8.912
-7.816
-6.782
-5.923
-5.408
-5.348
-5.813
-6.867
-8.493
-10.658
-13.349
-16.499
-20.068
-24.049
-28.387
-33.041
-37.899
-42.683
-47.102
-50.804
-53.354
-54.423
-53.649
-50.62
-45.272
-37.808
-28.646
-18.582
-8.217
2.152
11.989
20.842
28.844
36.527
45.144
56.401
71.178
89.723
112.344
138.759
167.532
195.94
219.762
234.531
236.791
223.783
192.892
142.138
71.584
-15.943
-115.392
-221.25
-328.132
-430.743
-523.184
-598.91
-653.552
-685.941
-696.957
-688.444
-662.884
-623.051
-573.173
-519.33
-466.14
-416.072
-370.454
-329.551
-293.311
-261.833
-234.112
-207.788
-181.37
-154.356
-126.811
-99.652
-73.683
-49.318
-27.301
-8.628
6.18
16.941
23.795
27.362
28.225
26.894
23.974
19.985
15.356
10.517
5.853
1.69
-1.685
-4.076
-5.375
-5.492
-4.377
-2.023
1.527
6.137
11.628
17.815
24.522
31.604
38.912
46.266
53.454
60.295
66.663
72.488
77.743
82.399
86.434
89.859
92.721
95.097
97.073
98.717
100.086
101.242
102.259
103.221
104.225
105.34
106.612
108.072
109.742
111.637
113.773
116.146
118.737
121.526
124.495
127.634
130.935
134.384
137.957
141.631
145.378
149.177
153.01
156.854
160.686
164.486
168.233
171.909
175.498
178.982
182.338
185.544
188.577
191.415
194.038
196.424
198.552
200.403
201.962
203.215
204.149
204.754
205.021
204.942
204.512
203.729
202.592
201.1
199.256
197.065
194.534
191.67
188.486
184.992
181.2
177.127
172.788
168.2
163.382
158.353
153.132
147.742
142.204
136.539
130.772
124.924
119.018
113.077
107.124
101.18
95.267
89.404
83.611
77.907
72.309
66.832
61.493
56.305
51.281
46.431
41.767
37.297
33.028
28.966
25.117
21.484
18.068
14.872
11.895
9.137
6.594
4.263
2.142
0.223
-1.499
-3.03
-4.378
-5.552
-6.56
-7.41
-8.114
-8.68
-9.119
-9.44
-9.654
-9.771
-9.8
-9.751
-9.634
-9.457
-9.231
-8.962
-8.659
-8.33
-7.981
-7.619
-7.251
-6.88
-6.513
-6.153
-5.805
-5.472
-5.157
-4.862
-4.589
-4.341
-4.117
-3.919
-3.746
-3.599
-3.477
-3.379
-3.306
-3.255
-3.225
-3.215
-3.224
-3.25
-3.291
-3.346
-3.412
-3.49
-3.576
-3.67
-3.77
-3.876
-3.987
-4.102
-4.222
-4.345
-4.472
-4.603
-4.738
-4.877
-5.02
-5.169
-5.324
-5.486
-5.656
-5.836
-6.028
-6.231
-6.448
-6.68
-6.926
-7.187
-7.465
-7.759
-8.071
-8.401
-8.749
-9.115
-9.5
-9.904
-10.326
-10.765
-11.219
-11.687
-12.167
-12.657
-13.152
-13.651
-14.15
-14.647
-15.14
-15.624
-16.096
-16.552
-16.987
-17.398
-17.778
-18.123
-18.428
-18.687
-18.898
-19.058
-19.164
-19.214
-19.205
-19.136
-19.005
-18.81
-18.552
-18.228
-17.836
-17.378
-16.856
-16.272
-15.63
-14.933
-14.187
-13.397
-12.573
-11.721
-10.847
-9.956
-9.054
-8.146
-7.238
-6.335
-5.441
-4.563
-3.708
-2.886
-2.108
-1.383
-0.72
-0.122
0.407
0.863
1.246
1.555
1.796
1.97
2.073
2.096
2.022
1.841
1.555
1.172
0.703
0.178
-0.368
-0.895
-1.35
-1.695
-1.912
-1.995
-1.954
-1.795
-1.515
-1.104
-0.543
0.189
1.101
2.185
3.423
4.74
6.01
7.091
7.809
8.025
7.657
6.642
4.959
2.612
-0.375
-3.94
-8.023
-12.587
-17.62
-23.101
-28.963
-34.979
-40.799
-46.038
-50.256
-53.101
-54.209
-53.106
-49.608
-43.825
-36.142
-27.353
-18.152
-8.798
0.287
8.481
15.87
22.929
30.726
41.307
55.963
74.894
98.456
126.83
158.77
191.96
222.483
244.815
254.651
249.112
225.283
180.639
114.486
28.296
-73.667
-184.776
-298.844
-410.51
-514.01
-603.059
-672.436
-718.95
-741.819
-742.938
-724.994
-690.431
-642.471
-585.666
-524.494
-463.015
-404.778
-351.196
-302.575
-259.582
-222.389
-190.505
-163.647
-140.688
-119.643
-99.897
-81.643
-64.788
-49.542
-35.842
-22.948
-11.092
-1.486
5.4
9.552
11.135
10.802
8.866
5.117
-0.073
-5.769
-11.245
-15.872
-19.293
-21.587
-22.716
-22.479
-20.849
-17.922
-13.849
-8.895
-3.255
2.983
9.686
16.705
23.856
30.88
37.569
43.793
49.461
54.536
59.001
62.828
66.025
68.64
70.738
72.399
73.692
74.666
75.383
75.913
76.344
76.784
77.314
77.988
78.842
79.9
81.176
82.685
84.427
86.38
88.527
90.852
93.345
96
98.809
101.752
104.806
107.947
111.155
114.412
117.701
121.001
124.294
127.562
130.792
133.971
137.083
140.109
143.03
145.824
148.472
150.955
153.252
155.345
157.214
158.845
160.225
161.34
162.181
162.737
163.001
162.965
162.627
161.981
161.029
159.768
158.201
156.331
154.165
151.708
148.969
145.958
142.685
139.161
135.401
131.42
127.23
122.85
118.294
113.583
108.732
103.763
98.692
93.54
88.327
83.071
77.793
72.51
67.241
62.004
56.814
51.69
46.645
41.695
36.853
32.133
27.545
23.101
18.811
14.684
10.728
6.948
3.352
-0.057
-3.274
-6.298
-9.126
-11.758
-14.194
-16.434
-18.482
-20.34
-22.012
-23.501
-24.814
-25.956
-26.934
-27.754
-28.423
-28.951
-29.343
-29.61
-29.759
-29.799
-29.738
-29.586
-29.351
-29.041
-28.666
-28.232
-27.749
-27.223
-26.663
-26.075
-25.466
-24.843
-24.212
-23.578
-22.947
-22.323
-21.71
-21.114
-20.537
-19.982
-19.452
-18.951
-18.479
-18.038
-17.63
-17.256
-16.916
-16.61
-16.338
-16.101
-15.897
-15.726
-15.587
-15.479
-15.402
-15.354
-15.335
-15.343
-15.378
-15.439
-15.523
-15.631
-15.761
-15.912
-16.083
-16.274
-16.485
-16.714
-16.961
-17.227
-17.51
-17.81
-18.125
-18.456
-18.802
-19.161
-19.533
-19.918
-20.315
-20.723
-21.143
-21.573
-22.013
-22.461
-22.916
-23.376
-23.838
-24.301
-24.761
-25.216
-25.664
-26.101
-26.525
-26.934
-27.324
-27.691
-28.033
-28.344
-28.622
-28.86
-29.055
-29.202
-29.298
-29.34
-29.326
-29.254
-29.122
-28.927
-28.67
-28.348
-27.961
-27.508
-26.986
-26.397
-25.742
-25.023
-24.245
-23.41
-22.524
-21.593
-20.625
-19.629
-18.61
-17.573
-16.525
-15.472
-14.418
-13.37
-12.33
-11.304
-10.299
-9.326
-8.393
-7.511
-6.686
-5.925
-5.233
-4.616
-4.076
-3.615
-3.224
-2.905
-2.661
-2.502
-2.443
-2.495
-2.649
-2.905
-3.253
-3.671
-4.131
-4.586
-4.97
-5.245
-5.387
-5.383
-5.244
-4.967
-4.537
-3.958
-3.22
-2.315
-1.252
-0.028
1.354
2.832
4.299
5.603
6.549
6.997
6.853
6.034
4.508
2.245
-0.761
-4.431
-8.68
-13.442
-18.676
-24.381
-30.51
-36.862
-43.127
-48.913
-53.762
-57.323
-59.19
-58.84
-56.045
-50.815
-43.464
-34.769
-25.386
-15.599
-5.886
3.145
11.501
19.531
28.368
40.07
55.769
75.67
100.079
129.1
161.914
196.693
229.46
254.555
267.997
266.95
248.693
210.967
151.925
71.651
-25.866
-134.134
-247.784
-361.66
-470.645
-569.527
-651.465
-711.368
-748.114
-762.646
-756.234
-731.031
-688.885
-632.323
-567.288
-499.175
-431.425
-367.172
-308.208
-255.318
-210.348
-174.79
-147.262
-126.247
-110.192
-96.604
-84.588
-74.044
-63.816
-52.778
-40.909
-28.289
-15.744
-5.038
3.234
9.148
12.542
13.466
12.063
8.482
3.454
-1.822
-6.54
-10.256
-12.716
-13.907
-13.761
-12.172
-9.197
-5.049
0.027
5.816
12.161
18.955
26.088
33.38
40.599
47.544
54.054
60.018
65.396
70.167
74.299
77.797
80.693
83.032
84.899
86.369
87.494
88.34
88.975
89.483
89.973
90.535
91.227
92.092
93.156
94.433
95.941
97.683
99.642
101.805
104.157
106.686
109.39
112.258
115.273
118.413
121.653
124.971
128.35
131.771
135.215
138.665
142.101
145.509
148.876
152.187
155.421
158.556
161.572
164.446
167.158
169.687
172.013
174.115
175.976
177.582
178.92
179.976
180.739
181.201
181.353
181.189
180.705
179.9
178.771
177.32
175.549
173.465
171.073
168.383
165.402
162.142
158.615
154.836
150.819
146.58
142.136
137.505
132.705
127.757
122.681
117.497
112.227
106.89
101.509
96.104
90.695
85.302
79.945
74.64
69.407
64.261
59.218
54.294
49.501
44.852
40.36
36.034
31.884
27.918
24.141
20.561
17.18
14.003
11.03
8.264
5.704
3.348
1.194
-0.76
-2.52
-4.091
-5.478
-6.689
-7.73
-8.609
-9.335
-9.918
-10.365
-10.687
-10.893
-10.993
-10.997
-10.914
-10.754
-10.528
-10.243
-9.909
-9.536
-9.13
-8.701
-8.256
-7.801
-7.344
-6.89
-6.445
-6.013
-5.599
-5.206
-4.839
-4.499
-4.19
-3.912
-3.667
-3.455
-3.278
-3.135
-3.025
-2.948
-2.902
-2.887
-2.9
-2.941
-3.008
-3.097
-3.208
-3.338
-3.485
-3.647
-3.821
-4.005
-4.197
-4.394
-4.597
-4.801
-5.008
-5.214
-5.42
-5.625
-5.828
-6.029
-6.228
-6.424
-6.619
-6.813
-7.006
-7.2
-7.396
-7.596
-7.801
-8.012
-8.232
-8.461
-8.7
-8.95
-9.212
-9.487
-9.776
-10.081
-10.401
-10.738
-11.093
-11.466
-11.858
-12.267
-12.693
-13.135
-13.591
-14.061
-14.541
-15.028
-15.521
-16.018
-16.516
-17.012
-17.502
-17.983
-18.449
-18.898
-19.322
-19.717
-20.078
-20.4
-20.678
-20.911
-21.094
-21.226
-21.304
-21.325
-21.289
-21.191
-21.033
-20.81
-20.523
-20.17
-19.753
-19.275
-18.738
-18.146
-17.502
-16.814
-16.088
-15.332
-14.55
-13.747
-12.93
-12.101
-11.267
-10.433
-9.604
-8.786
-7.985
-7.213
-6.479
-5.794
-5.165
-4.596
-4.091
-3.652
-3.281
-2.977
-2.735
-2.552
-2.435
-2.391
-2.438
-2.585
-2.831
-3.168
-3.58
-4.041
-4.514
-4.957
-5.317
-5.556
-5.658
-5.614
-5.437
-5.133
-4.695
-4.114
-3.368
-2.434
-1.304
0.013
1.498
3.075
4.614
5.968
6.961
7.451
7.357
6.617
5.21
3.138
0.427
-2.868
-6.689
-11.002
-15.795
-21.047
-26.685
-32.481
-38.075
-43.073
-47.029
-49.58
-50.358
-48.894
-44.998
-38.772
-30.602
-21.266
-11.456
-1.446
8.322
17.198
25.23
32.871
41.167
52.147
67.116
86.298
110.126
138.9
171.427
205.436
236.981
260.395
271.295
266.697
243.455
198.863
132.05
44.281
-60.066
-174.122
-291.801
-407.58
-515.476
-609.322
-683.415
-734.049
-760.65
-764.919
-748.796
-714.714
-665.567
-604.991
-538.198
-469.798
-402.919
-339.969
-282.575
-231.631
-188.383
-153.822
-126.921
-106.36
-90.774
-78.116
-67.373
-58.245
-49.658
-40.392
-30.292
-19.439
-8.536
0.795
7.941
12.989
15.743
16.129
14.296
10.419
5.238
0.007
-4.524
-7.994
-10.17
-11.069
-10.643
-8.786
-5.605
-1.355
3.726
9.429
15.624
22.243
29.168
36.211
43.14
49.735
55.856
61.423
66.398
70.766
74.507
77.625
80.172
82.217
83.837
85.102
86.06
86.763
87.284
87.708
88.142
88.672
89.353
90.224
91.31
92.625
94.185
95.989
98.016
100.248
102.67
105.27
108.045
110.984
114.069
117.276
120.583
123.966
127.407
130.889
134.389
137.888
141.368
144.812
148.208
151.538
154.782
157.918
160.924
163.779
166.463
168.954
171.231
173.275
175.07
176.601
177.855
178.82
179.486
179.844
179.887
179.611
179.013
178.09
176.844
175.275
173.389
171.191
168.688
165.889
162.804
159.444
155.824
151.956
147.858
143.544
139.033
134.342
129.491
124.5
119.389
114.179
108.89
103.544
98.162
92.764
87.371
82.001
76.674
71.408
66.219
61.125
56.14
51.278
46.554
41.978
37.563
33.318
29.251
25.372
21.685
18.196
14.909
11.828
8.953
6.285
3.825
1.571
-0.48
-2.332
-3.987
-5.453
-6.735
-7.839
-8.773
-9.546
-10.166
-10.642
-10.983
-11.199
-11.301
-11.297
-11.198
-11.014
-10.755
-10.43
-10.049
-9.621
-9.156
-8.661
-8.145
-7.615
-7.08
-6.545
-6.018
-5.503
-5.007
-4.533
-4.087
-3.672
-3.291
-2.946
-2.64
-2.374
-2.149
-1.966
-1.825
-1.725
-1.667
-1.649
-1.67
-1.727
-1.82
-1.947
-2.104
-2.291
-2.504
-2.741
-3
-3.28
-3.576
-3.888
-4.213
-4.549
-4.893
-5.245
-5.603
-5.964
-6.329
-6.696
-7.064
-7.433
-7.803
-8.174
-8.546
-8.919
-9.293
-9.669
-10.048
-10.431
-10.819
-11.212
-11.614
-12.024
-12.446
-12.879
-13.326
-13.788
-14.265
-14.757
-15.266
-15.792
-16.335
-16.896
-17.474
-18.071
-18.685
-19.316
-19.964
-20.625
-21.3
-21.984
-22.676
-23.373
-24.071
-24.766
-25.455
-26.135
-26.803
-27.455
-28.087
-28.694
-29.272
-29.815
-30.318
-30.775
-31.182
-31.532
-31.821
-32.048
-32.209
-32.301
-32.322
-32.269
-32.142
-31.939
-31.658
-31.299
-30.86
-30.343
-29.75
-29.084
-28.35
-27.553
-26.698
-25.793
-24.847
-23.868
-22.861
-21.834
-20.793
-19.742
-18.688
-17.637
-16.595
-15.568
-14.565
-13.596
-12.671
-11.803
-10.998
-10.262
-9.599
-9.013
-8.505
-8.076
-7.72
-7.437
-7.232
-7.113
-7.096
-7.192
-7.398
-7.705
-8.099
-8.552
-9.026
-9.481
-9.865
-10.141
-10.289
-10.304
-10.196
-9.974
-9.634
-9.164
-8.541
-7.745
-6.763
-5.599
-4.271
-2.843
-1.438
-0.194
0.723
1.172
1.065
0.348
-1.005
-2.996
-5.591
-8.753
-12.433
-16.591
-21.231
-26.351
-31.891
-37.656
-43.332
-48.536
-52.842
-55.898
-57.302
-56.584
-53.518
-48.151
-40.835
-32.28
-23.134
-13.696
-4.402
4.112
11.859
19.277
27.438
38.339
53.338
72.774
97.127
126.811
160.784
196.889
231.266
258.191
273.167
273.066
254.531
214.555
151.871
67.27
-35.227
-148.821
-267.526
-385.849
-497.668
-596.661
-676.658
-733.335
-765.715
-775.203
-763.437
-732.694
-685.703
-625.96
-558.96
-489.679
-421.468
-357.04
-298.198
-245.889
-201.572
-166.369
-139.11
-118.335
-102.517
-89.411
-77.965
-67.907
-58.122
-47.392
-35.635
-22.988
-10.272
0.741
9.36
15.637
19.372
20.493
19.14
15.46
10.174
4.61
-0.41
-4.468
-7.286
-8.881
-9.196
-8.094
-5.642
-2.076
2.383
7.52
13.188
19.347
25.899
32.684
39.506
46.107
52.304
57.997
63.125
67.672
71.617
74.939
77.663
79.86
81.604
82.976
84.034
84.812
85.369
85.781
86.136
86.543
87.075
87.776
88.68
89.806
91.171
92.789
94.653
96.738
99.024
101.498
104.15
106.975
109.961
113.085
116.325
119.657
123.059
126.513
129.999
133.495
136.982
140.44
143.853
147.208
150.486
153.667
156.73
159.654
162.418
165.002
167.386
169.55
171.476
173.148
174.554
175.68
176.516
177.053
177.283
177.202
176.804
176.09
175.057
173.708
172.045
170.074
167.802
165.237
162.389
159.269
155.889
152.263
148.407
144.336
140.066
135.615
131.002
126.246
121.366
116.382
111.314
106.182
101.006
95.807
90.604
85.416
80.261
75.157
70.121
65.168
60.313
55.57
50.953
46.471
42.138
37.961
33.95
30.112
26.452
22.976
19.688
16.591
13.685
10.972
8.451
6.121
3.98
2.023
0.249
-1.35
-2.778
-4.041
-5.146
-6.101
-6.914
-7.593
-8.146
-8.583
-8.912
-9.143
-9.284
-9.344
-9.334
-9.26
-9.133
-8.96
-8.749
-8.507
-8.244
-7.964
-7.674
-7.381
-7.089
-6.805
-6.531
-6.273
-6.033
-5.814
-5.62
-5.451
-5.31
-5.197
-5.114
-5.06
-5.036
-5.041
-5.075
-5.136
-5.224
-5.336
-5.471
-5.628
-5.804
-5.998
-6.207
-6.43
-6.664
-6.907
-7.158
-7.414
-7.674
-7.935
-8.197
-8.458
-8.716
-8.97
-9.221
-9.466
-9.707
-9.943
-10.174
-10.4
-10.623
-10.841
-11.057
-11.27
-11.482
-11.694
-11.908
-12.124
-12.346
-12.573
-12.808
-13.053
-13.307
-13.572
-13.85
-14.14
-14.444
-14.762
-15.095
-15.444
-15.808
-16.189
-16.587
-17
-17.428
-17.87
-18.323
-18.787
-19.259
-19.734
-20.212
-20.688
-21.16
-21.626
-22.08
-22.521
-22.944
-23.345
-23.718
-24.059
-24.363
-24.625
-24.84
-25.006
-25.118
-25.175
-25.174
-25.113
-24.99
-24.803
-24.552
-24.235
-23.851
-23.399
-22.88
-22.295
-21.648
-20.943
-20.182
-19.372
-18.52
-17.633
-16.72
-15.787
-14.839
-13.883
-12.925
-11.97
-11.024
-10.091
-9.179
-8.293
-7.445
-6.644
-5.898
-5.216
-4.602
-4.061
-3.594
-3.205
-2.892
-2.65
-2.482
-2.389
-2.378
-2.466
-2.66
-2.957
-3.35
-3.824
-4.349
-4.889
-5.4
-5.833
-6.154
-6.341
-6.382
-6.284
-6.041
-5.656
-5.129
-4.44
-3.569
-2.515
-1.287
0.083
1.499
2.843
3.98
4.746
5.022
4.715
3.756
2.118
-0.205
-3.172
-6.7
-10.732
-15.234
-20.173
-25.514
-31.148
-36.798
-42.134
-46.797
-50.361
-52.503
-52.849
-50.914
-46.514
-39.76
-31.059
-21.228
-10.961
-0.528
9.593
18.718
26.842
34.354
42.35
52.919
67.403
86.084
109.405
137.643
169.616
203.035
233.901
256.562
266.625
261.048
236.713
190.906
122.73
33.627
-71.893
-187.123
-306.028
-423.169
-532.721
-628.183
-703.47
-755.017
-782.339
-786.765
-770.086
-734.278
-681.668
-616.621
-545.164
-471.965
-400.338
-333.146
-272.173
-219.117
-176.165
-143.489
-119.193
-101.761
-89.384
-79.768
-71.908
-64.769
-56.476
-46.389
-34.909
-22.328
-9.804
1.044
9.743
16.01
19.3
19.778
17.775
13.6
8.244
2.884
-1.842
-5.486
-7.775
-8.755
-8.377
-6.575
-3.512
0.592
5.527
11.093
17.177
23.706
30.542
37.5
44.344
50.852
56.888
62.37
67.26
71.543
75.197
78.227
80.686
82.643
84.174
85.349
86.21
86.814
87.238
87.572
87.925
88.383
89.001
89.818
90.861
92.144
93.682
95.474
97.499
99.739
102.179
104.807
107.621
110.61
113.754
117.029
120.412
123.879
127.412
130.992
134.597
138.207
141.803
145.369
148.891
152.351
155.727
158.998
162.141
165.134
167.954
170.581
172.993
175.169
177.093
178.748
180.122
181.201
181.975
182.433
182.568
182.376
181.851
180.992
179.798
178.269
176.411
174.228
171.727
168.917
165.806
162.408
158.733
154.798
150.617
146.207
141.586
136.771
131.783
126.641
121.368
115.983
110.508
104.965
99.376
93.763
88.146
82.546
76.982
71.474
66.041
60.698
55.464
50.354
45.382
40.562
35.907
31.427
27.133
23.034
19.138
15.449
11.976
8.72
5.685
2.872
0.283
-2.084
-4.231
-6.159
-7.874
-9.379
-10.68
-11.784
-12.699
-13.432
-13.992
-14.388
-14.63
-14.728
-14.693
-14.534
-14.263
-13.891
-13.427
-12.884
-12.272
-11.601
-10.882
-10.124
-9.337
-8.531
-7.714
-6.894
-6.08
-5.279
-4.497
-3.742
-3.019
-2.332
-1.688
-1.089
-0.539
-0.042
0.401
0.787
1.116
1.387
1.598
1.752
1.847
1.886
1.869
1.798
1.675
1.502
1.283
1.019
0.715
0.371
-0.007
-0.418
-0.858
-1.324
-1.813
-2.321
-2.847
-3.386
-3.936
-4.494
-5.058
-5.626
-6.194
-6.76
-7.324
-7.884
-8.437
-8.984
-9.523
-10.054
-10.575
-11.087
-11.59
-12.083
-12.567
-13.042
-13.509
-13.969
-14.424
-14.874
-15.321
-15.767
-16.212
-16.657
-17.104
-17.552
-18.004
-18.46
-18.921
-19.387
-19.86
-20.34
-20.828
-21.324
-21.828
-22.338
-22.855
-23.376
-23.902
-24.429
-24.955
-25.479
-25.999
-26.511
-27.015
-27.508
-27.985
-28.444
-28.881
-29.29
-29.668
-30.01
-30.311
-30.568
-30.777
-30.936
-31.042
-31.094
-31.089
-31.025
-30.902
-30.716
-30.469
-30.159
-29.786
-29.35
-28.854
-28.301
-27.695
-27.041
-26.343
-25.608
-24.844
-24.058
-23.255
-22.441
-21.622
-20.8
-19.984
-19.18
-18.392
-17.628
-16.895
-16.202
-15.561
-14.981
-14.466
-14.022
-13.648
-13.346
-13.119
-12.966
-12.882
-12.867
-12.924
-13.058
-13.286
-13.62
-14.05
-14.564
-15.142
-15.746
-16.352
-16.926
-17.421
-17.81
-18.076
-18.209
-18.226
-18.134
-17.922
-17.578
-17.068
-16.356
-15.451
-14.371
-13.152
-11.897
-10.702
-9.676
-8.98
-8.727
-8.983
-9.807
-11.189
-13.1
-15.535
-18.444
-21.792
-25.581
-29.767
-34.307
-39.105
-43.888
-48.35
-52.165
-54.91
-56.269
-55.914
-53.396
-48.595
-41.689
-33.05
-23.47
-13.625
-3.742
5.702
14.039
21.317
27.97
35.116
44.858
58.519
76.331
98.73
125.97
156.857
189.115
218.748
240.136
248.929
242.187
216.934
170.586
102.447
14.02
-90.263
-203.547
-319.644
-433.128
-538.165
-628.471
-698.502
-744.748
-766.576
-766.078
-745.702
-707.848
-655.492
-592.804
-525.069
-457.211
-392.831
-333.487
-279.923
-232.959
-193.518
-161.995
-137.231
-117.159
-99.596
-83.506
-68.819
-55.435
-42.786
-29.946
-16.746
-3.997
6.876
14.972
20.298
23.186
23.906
22.386
18.644
13.253
7.293
1.753
-2.819
-6.201
-8.398
-9.334
-8.847
-6.918
-3.7
0.575
5.673
11.423
17.746
24.538
31.644
38.865
45.948
52.681
58.939
64.638
69.744
74.239
78.101
81.338
84.003
86.171
87.924
89.332
90.442
91.309
92.008
92.629
93.278
94.039
94.961
96.08
97.417
98.988
100.806
102.869
105.155
107.644
110.318
113.167
116.185
119.361
122.674
126.101
129.616
133.198
136.83
140.492
144.163
147.823
151.455
155.042
158.57
162.023
165.379
168.618
171.717
174.655
177.413
179.969
182.303
184.396
186.231
187.795
189.074
190.057
190.733
191.093
191.13
190.84
190.218
189.264
187.976
186.356
184.408
182.138
179.552
176.659
173.467
169.989
166.236
162.224
157.967
153.481
148.784
143.892
138.827
133.606
128.251
122.781
117.218
111.582
105.895
100.177
94.449
88.73
83.039
77.394
71.814
66.316
60.915
55.626
50.465
45.442
40.572
35.865
31.331
26.978
22.814
18.845
15.077
11.512
8.155
5.007
2.068
-0.662
-3.185
-5.503
-7.62
-9.539
-11.267
-12.809
-14.172
-15.363
-16.389
-17.26
-17.984
-18.57
-19.027
-19.365
-19.593
-19.721
-19.759
-19.715
-19.599
-19.42
-19.188
-18.909
-18.594
-18.248
-17.88
-17.497
-17.104
-16.708
-16.315
-15.928
-15.552
-15.191
-14.849
-14.528
-14.232
-13.962
-13.719
-13.506
-13.323
-13.171
-13.049
-12.959
-12.898
-12.867
-12.865
-12.891
-12.944
-13.023
-13.126
-13.254
-13.405
-13.577
-13.771
-13.985
-14.218
-14.47
-14.739
-15.025
-15.329
-15.65
-15.988
-16.344
-16.717
-17.11
-17.52
-17.949
-18.396
-18.861
-19.344
-19.845
-20.363
-20.899
-21.453
-22.023
-22.611
-23.216
-23.836
-24.47
-25.117
-25.775
-26.441
-27.112
-27.786
-28.458
-29.127
-29.789
-30.44
-31.078
-31.698
-32.295
-32.866
-33.404
-33.904
-34.361
-34.768
-35.121
-35.416
-35.649
-35.817
-35.918
-35.949
-35.908
-35.793
-35.602
-35.334
-34.988
-34.562
-34.056
-33.473
-32.814
-32.084
-31.287
-30.428
-29.514
-28.553
-27.553
-26.522
-25.463
-24.385
-23.292
-22.191
-21.088
-19.989
-18.901
-17.832
-16.793
-15.796
-14.853
-13.971
-13.156
-12.414
-11.746
-11.157
-10.646
-10.208
-9.843
-9.556
-9.355
-9.258
-9.275
-9.405
-9.639
-9.964
-10.354
-10.773
-11.18
-11.521
-11.759
-11.877
-11.867
-11.738
-11.497
-11.141
-10.66
-10.036
-9.249
-8.291
-7.167
-5.894
-4.541
-3.23
-2.098
-1.311
-1.001
-1.25
-2.115
-3.622
-5.773
-8.535
-11.849
-15.647
-19.882
-24.546
-29.622
-35.035
-40.572
-45.9
-50.657
-54.443
-56.935
-57.771
-56.496
-52.905
-47.069
-39.354
-30.496
-21.15
-11.595
-2.227
6.36
14.177
21.608
29.606
40.037
54.146
72.188
94.496
121.255
151.332
182.621
211.579
233.123
243.255
239.227
218.132
177.429
116.328
36.053
-59.473
-164.128
-272.405
-379.255
-478.856
-564.897
-631.888
-676.585
-698.713
-700.209
-683.256
-650.378
-605.138
-552.453
-497.812
-445.209
-396.68
-352.888
-313.941
-279.777
-250.019
-223.322
-197.62
-171.693
-145.246
-118.6
-92.602
-67.943
-45.096
-24.795
-7.888
5.22
14.463
20.086
22.683
22.793
20.912
17.631
13.456
8.838
4.217
-0.073
-3.742
-6.533
-8.3
-8.951
-8.412
-6.675
-3.762
0.268
5.261
11.05
17.47
24.328
31.467
38.716
45.856
52.716
59.154
65.06
70.393
75.131
79.249
82.756
85.688
88.093
90.053
91.647
92.93
93.977
94.863
95.672
96.505
97.44
98.527
99.809
101.309
103.042
105.026
107.262
109.73
112.419
115.312
118.397
121.666
125.107
128.697
132.415
136.232
140.125
144.076
148.063
152.064
156.058
160.024
163.944
167.802
171.579
175.252
178.797
182.19
185.407
188.426
191.224
193.778
196.067
198.073
199.779
201.171
202.238
202.965
203.344
203.367
203.029
202.326
201.256
199.819
198.017
195.855
193.338
190.476
187.279
183.756
179.921
175.789
171.375
166.697
161.773
156.622
151.264
145.722
140.016
134.171
128.209
122.153
116.027
109.855
103.66
97.465
91.291
85.16
79.092
73.107
67.223
61.457
55.827
50.348
45.032
39.895
34.946
30.197
25.656
21.331
17.228
13.353
9.709
6.299
3.124
0.184
-2.522
-4.996
-7.241
-9.261
-11.063
-12.652
-14.035
-15.221
-16.217
-17.034
-17.68
-18.165
-18.501
-18.697
-18.765
-18.715
-18.558
-18.305
-17.967
-17.554
-17.076
-16.544
-15.966
-15.353
-14.712
-14.052
-13.382
-12.708
-12.037
-11.376
-10.731
-10.106
-9.507
-8.937
-8.401
-7.9
-7.438
-7.017
-6.637
-6.301
-6.008
-5.759
-5.553
-5.391
-5.27
-5.19
-5.149
-5.145
-5.177
-5.242
-5.34
-5.466
-5.621
-5.801
-6.005
-6.232
-6.479
-6.744
-7.026
-7.322
-7.633
-7.956
-8.29
-8.636
-8.992
-9.359
-9.735
-10.121
-10.516
-10.92
-11.333
-11.754
-12.182
-12.619
-13.064
-13.517
-13.978
-14.448
-14.926
-15.413
-15.907
-16.409
-16.917
-17.43
-17.945
-18.463
-18.979
-19.493
-20.002
-20.504
-20.998
-21.48
-21.949
-22.399
-22.827
-23.229
-23.6
-23.935
-24.229
-24.479
-24.681
-24.833
-24.933
-24.979
-24.967
-24.897
-24.766
-24.574
-24.318
-23.998
-23.613
-23.163
-22.65
-22.078
-21.45
-20.769
-20.042
-19.272
-18.468
-17.637
-16.783
-15.912
-15.028
-14.134
-13.239
-12.348
-11.468
-10.603
-9.764
-8.96
-8.202
-7.504
-6.869
-6.301
-5.801
-5.372
-5.014
-4.729
-4.511
-4.358
-4.274
-4.268
-4.36
-4.562
-4.866
-5.261
-5.727
-6.228
-6.739
-7.231
-7.65
-7.966
-8.166
-8.243
-8.223
-8.124
-7.924
-7.604
-7.128
-6.456
-5.59
-4.547
-3.347
-2.078
-0.848
0.226
0.967
1.239
0.987
0.159
-1.229
-3.132
-5.563
-8.493
-11.884
-15.739
-20.035
-24.741
-29.799
-34.98
-39.945
-44.333
-47.697
-49.681
-49.967
-48.117
-44.008
-37.828
-29.934
-21.091
-11.97
-2.781
6.065
13.957
21.02
27.754
35.226
45.463
59.69
78.03
100.809
128.166
158.852
190.583
219.444
239.987
248.02
240.762
215.435
169.664
102.888
16.694
-84.605
-194.437
-306.66
-415.962
-516.685
-602.679
-668.965
-712.615
-732.985
-732.035
-712.517
-676.907
-628.473
-571.765
-511.095
-450.333
-392.903
-340.114
-292.22
-249.867
-213.159
-181.572
-154.89
-132.05
-111.13
-91.577
-73.578
-57.025
-42.132
-28.811
-16.284
-4.757
4.604
11.361
15.504
17.196
17.085
15.459
12.089
7.334
2.101
-2.903
-7.06
-10.034
-11.915
-12.672
-12.116
-10.225
-7.1
-2.896
2.121
7.759
13.935
20.524
27.389
34.355
41.174
47.647
53.652
59.106
63.978
68.254
71.915
74.969
77.47
79.485
81.097
82.377
83.374
84.148
84.768
85.32
85.907
86.609
87.477
88.548
89.841
91.372
93.156
95.189
97.451
99.922
102.585
105.427
108.441
111.616
114.93
118.358
121.875
125.458
129.087
132.742
136.4
140.04
143.641
147.187
150.661
154.046
157.319
160.459
163.443
166.25
168.858
171.246
173.394
175.283
176.898
178.222
179.246
179.957
180.347
180.408
180.135
179.525
178.576
177.289
175.666
173.71
171.428
168.828
165.92
162.714
159.222
155.459
151.44
147.18
142.698
138.012
133.141
128.104
122.922
117.617
112.21
106.722
101.174
95.589
89.988
84.391
78.82
73.292
67.827
62.442
57.155
51.979
46.931
42.023
37.267
32.674
28.256
24.019
19.972
16.12
12.469
9.022
5.782
2.751
-0.071
-2.685
-5.093
-7.297
-9.299
-11.106
-12.721
-14.15
-15.4
-16.479
-17.393
-18.151
-18.761
-19.232
-19.574
-19.796
-19.906
-19.914
-19.83
-19.662
-19.42
-19.112
-18.747
-18.333
-17.878
-17.39
-16.875
-16.34
-15.792
-15.236
-14.678
-14.123
-13.575
-13.038
-12.516
-12.012
-11.529
-11.07
-10.637
-10.231
-9.854
-9.507
-9.192
-8.908
-8.655
-8.434
-8.245
-8.085
-7.956
-7.856
-7.785
-7.741
-7.724
-7.733
-7.767
-7.826
-7.908
-8.013
-8.139
-8.287
-8.455
-8.643
-8.852
-9.079
-9.327
-9.594
-9.88
-10.186
-10.511
-10.853
-11.214
-11.591
-11.984
-12.393
-12.817
-13.254
-13.704
-14.167
-14.642
-15.128
-15.623
-16.126
-16.634
-17.146
-17.659
-18.171
-18.678
-19.177
-19.665
-20.141
-20.6
-21.04
-21.456
-21.846
-22.204
-22.527
-22.81
-23.049
-23.238
-23.375
-23.456
-23.48
-23.444
-23.348
-23.189
-22.967
-22.681
-22.332
-21.919
-21.441
-20.899
-20.295
-19.631
-18.913
-18.142
-17.325
-16.467
-15.576
-14.661
-13.729
-12.786
-11.839
-10.894
-9.957
-9.036
-8.134
-7.256
-6.409
-5.6
-4.836
-4.129
-3.485
-2.911
-2.411
-1.989
-1.647
-1.39
-1.212
-1.109
-1.081
-1.128
-1.257
-1.486
-1.821
-2.257
-2.789
-3.4
-4.064
-4.747
-5.399
-5.967
-6.416
-6.717
-6.861
-6.855
-6.692
-6.377
-5.909
-5.261
-4.414
-3.366
-2.118
-0.705
0.78
2.226
3.482
4.372
4.77
4.567
3.693
2.125
-0.138
-3.033
-6.486
-10.452
-14.922
-19.893
-25.32
-31.05
-36.808
-42.256
-47.002
-50.653
-52.758
-52.772
-50.423
-45.713
-38.953
-30.883
-22.137
-12.998
-3.933
4.436
12.104
19.465
27.69
38.901
54.317
74.155
98.73
128.178
161.669
197.369
231.27
257.613
272.312
272.453
255.222
218.296
159.795
79.764
-17.804
-126.367
-240.51
-355.004
-464.648
-564.179
-646.719
-707.17
-744.434
-759.486
-753.627
-729.037
-687.594
-631.866
-567.805
-500.782
-434.21
-371.139
-313.284
-261.392
-217.261
-182.314
-155.151
-134.233
-117.999
-104.039
-91.528
-80.41
-69.603
-58.016
-45.639
-32.572
-19.636
-8.592
-0.05
6.068
9.612
10.606
9.178
5.433
0.039
-5.768
-11.146
-15.625
-18.907
-20.979
-21.775
-21.158
-19.162
-15.983
-11.844
-6.963
-1.509
4.449
10.824
17.472
24.209
30.795
37.032
42.798
48.029
52.699
56.781
60.253
63.124
65.445
67.297
68.765
69.914
70.786
71.438
71.939
72.379
72.864
73.469
74.241
75.211
76.399
77.822
79.494
81.412
83.556
85.903
88.438
91.149
94.032
97.074
100.252
103.543
106.92
110.363
113.854
117.372
120.897
124.408
127.886
131.314
134.679
137.962
141.142
144.198
147.107
149.848
152.402
154.747
156.863
158.733
160.339
161.67
162.712
163.455
163.89
164.009
163.806
163.279
162.426
161.246
159.74
157.913
155.77
153.319
150.568
147.528
144.21
140.627
136.793
132.725
128.439
123.952
119.283
114.452
109.478
104.383
99.188
93.913
88.581
83.213
77.829
72.452
67.101
61.795
56.552
51.391
46.329
41.38
36.561
31.884
27.362
23.006
18.827
14.833
11.033
7.434
4.039
0.854
-2.118
-4.876
-7.419
-9.747
-11.862
-13.766
-15.463
-16.958
-18.255
-19.361
-20.283
-21.029
-21.607
-22.025
-22.294
-22.422
-22.419
-22.295
-22.061
-21.727
-21.302
-20.797
-20.222
-19.585
-18.898
-18.168
-17.404
-16.615
-15.809
-14.994
-14.176
-13.361
-12.557
-11.768
-10.999
-10.255
-9.539
-8.855
-8.206
-7.594
-7.021
-6.487
-5.995
-5.544
-5.135
-4.766
-4.438
-4.149
-3.898
-3.684
-3.505
-3.359
-3.246
-3.162
-3.106
-3.075
-3.069
-3.084
-3.118
-3.17
-3.237
-3.319
-3.413
-3.517
-3.632
-3.755
-3.886
-4.025
-4.171
-4.324
-4.483
-4.648
-4.82
-4.998
-5.185
-5.38
-5.585
-5.801
-6.03
-6.271
-6.527
-6.798
-7.085
-7.387
-7.707
-8.043
-8.397
-8.769
-9.159
-9.567
-9.995
-10.441
-10.904
-11.385
-11.881
-12.39
-12.912
-13.442
-13.979
-14.519
-15.06
-15.599
-16.132
-16.658
-17.171
-17.667
-18.143
-18.593
-19.011
-19.393
-19.732
-20.024
-20.264
-20.451
-20.581
-20.651
-20.659
-20.602
-20.48
-20.291
-20.033
-19.705
-19.305
-18.835
-18.296
-17.691
-17.023
-16.296
-15.516
-14.689
-13.823
-12.926
-12.004
-11.062
-10.107
-9.144
-8.179
-7.217
-6.264
-5.326
-4.412
-3.531
-2.696
-1.916
-1.201
-0.554
0.018
0.515
0.933
1.273
1.542
1.739
1.861
1.899
1.836
1.662
1.379
0.995
0.525
-0.004
-0.554
-1.083
-1.536
-1.876
-2.082
-2.147
-2.081
-1.889
-1.566
-1.102
-0.473
0.342
1.355
2.557
3.934
5.411
6.861
8.142
9.077
9.526
9.406
8.654
7.248
5.189
2.501
-0.761
-4.539
-8.799
-13.528
-18.707
-24.267
-29.982
-35.499
-40.43
-44.331
-46.841
-47.587
-46.096
-42.163
-35.879
-27.617
-18.142
-8.144
2.097
12.139
21.321
29.68
37.662
46.311
57.667
73.061
92.74
117.159
146.645
180.029
215.056
247.774
272.467
284.704
281.449
259.503
216.096
150.264
63.176
-40.841
-154.914
-272.957
-389.434
-498.345
-593.491
-669.047
-721.173
-749.201
-754.772
-739.778
-706.63
-658.182
-598.045
-531.498
-463.226
-396.403
-333.497
-276.156
-225.265
-182.091
-147.633
-120.827
-100.334
-84.782
-72.091
-61.246
-51.965
-43.181
-33.705
-23.412
-12.387
-1.334
8.11
15.327
20.402
23.137
23.479
21.589
17.641
12.371
7.03
2.366
-1.25
-3.579
-4.638
-4.375
-2.679
0.347
4.455
9.412
15.009
21.112
27.651
34.503
41.479
48.348
54.888
60.959
66.478
71.407
75.731
79.43
82.505
85.006
87
88.562
89.761
90.647
91.271
91.708
92.044
92.385
92.821
93.405
94.178
95.165
96.381
97.841
99.545
101.472
103.606
105.932
108.438
111.123
113.975
116.977
120.105
123.335
126.646
130.019
133.434
136.871
140.31
143.732
147.121
150.465
153.745
156.941
160.032
162.994
165.807
168.449
170.899
173.136
175.139
176.892
178.38
179.59
180.509
181.126
181.432
181.42
181.085
180.423
179.432
178.112
176.463
174.491
172.2
169.598
166.694
163.496
160.017
156.27
152.27
148.031
143.571
138.906
134.056
129.039
123.876
118.587
113.194
107.717
102.179
96.599
91.001
85.403
79.826
74.289
68.81
63.407
58.097
52.896
47.817
42.876
38.084
33.454
28.996
24.718
20.63
16.738
13.047
9.562
6.286
3.221
0.369
-2.271
-4.7
-6.92
-8.934
-10.747
-12.364
-13.79
-15.033
-16.1
-16.998
-17.737
-18.325
-18.772
-19.086
-19.279
-19.359
-19.337
-19.223
-19.026
-18.756
-18.423
-18.036
-17.603
-17.135
-16.638
-16.121
-15.591
-15.055
-14.52
-13.993
-13.477
-12.979
-12.503
-12.052
-11.63
-11.239
-10.882
-10.56
-10.275
-10.028
-9.817
-9.644
-9.508
-9.408
-9.343
-9.311
-9.31
-9.339
-9.395
-9.477
-9.583
-9.71
-9.856
-10.018
-10.195
-10.384
-10.583
-10.789
-11.001
-11.216
-11.433
-11.65
-11.866
-12.079
-12.288
-12.494
-12.695
-12.891
-13.082
-13.268
-13.45
-13.628
-13.803
-13.976
-14.148
-14.322
-14.497
-14.677
-14.862
-15.054
-15.255
-15.464
-15.684
-15.915
-16.157
-16.411
-16.678
-16.959
-17.254
-17.563
-17.887
-18.226
-18.579
-18.944
-19.322
-19.71
-20.107
-20.511
-20.917
-21.325
-21.732
-22.134
-22.529
-22.913
-23.283
-23.633
-23.96
-24.258
-24.523
-24.749
-24.931
-25.065
-25.15
-25.181
-25.157
-25.076
-24.936
-24.737
-24.476
-24.154
-23.769
-23.322
-22.812
-22.24
-21.611
-20.927
-20.191
-19.409
-18.586
-17.728
-16.844
-15.942
-15.026
-14.102
-13.177
-12.256
-11.346
-10.455
-9.585
-8.744
-7.94
-7.182
-6.481
-5.844
-5.275
-4.778
-4.353
-4.002
-3.726
-3.525
-3.39
-3.321
-3.322
-3.397
-3.567
-3.841
-4.211
-4.667
-5.188
-5.739
-6.294
-6.814
-7.251
-7.573
-7.76
-7.8
-7.71
-7.491
-7.136
-6.633
-5.94
-5.021
-3.886
-2.548
-1.056
0.478
1.949
3.228
4.142
4.571
4.43
3.652
2.244
0.237
-2.333
-5.414
-8.994
-13.096
-17.697
-22.727
-28.008
-33.219
-38.031
-42.071
-44.935
-46.207
-45.392
-42.243
-36.847
-29.576
-21.16
-12.258
-3.136
5.778
13.818
21.004
27.816
35.326
45.615
60.065
78.901
102.563
131.389
164.23
198.878
231.41
256.096
268.493
265.56
244.074
201.239
136.028
49.5
-54.088
-167.904
-285.903
-402.524
-511.723
-607.27
-683.25
-735.712
-763.927
-769.487
-754.241
-720.611
-671.474
-610.464
-542.933
-473.653
-405.86
-342.068
-283.965
-232.459
-188.833
-154.101
-127.174
-106.671
-91.179
-78.584
-67.852
-58.685
-49.997
-40.575
-30.289
-19.236
-8.146
1.328
8.56
13.637
16.361
16.672
14.725
10.7
5.35
-0.057
-4.763
-8.396
-10.716
-11.739
-11.409
-9.614
-6.458
-2.194
2.939
8.73
15.043
21.809
28.903
36.134
43.264
50.071
56.409
62.195
67.389
71.975
75.928
79.251
81.992
84.217
86.003
87.42
88.515
89.34
89.969
90.49
91.008
91.613
92.358
93.284
94.415
95.765
97.351
99.17
101.204
103.434
105.844
108.425
111.173
114.079
117.124
120.285
123.539
126.865
130.245
133.661
137.092
140.52
143.928
147.3
150.624
153.885
157.063
160.136
163.085
165.887
168.522
170.972
173.213
175.228
177
178.514
179.757
180.718
181.385
181.749
181.802
181.54
180.958
180.054
178.827
177.278
175.41
173.228
170.739
167.95
164.87
161.51
157.883
154.002
149.882
145.537
140.984
136.242
131.328
126.261
121.062
115.751
110.347
104.872
99.347
93.793
88.229
82.675
77.151
71.676
66.266
60.939
55.712
50.599
45.616
40.775
36.089
31.57
27.227
23.069
19.105
15.34
11.781
8.431
5.293
2.37
-0.338
-2.83
-5.108
-7.174
-9.031
-10.684
-12.137
-13.396
-14.467
-15.359
-16.078
-16.635
-17.036
-17.293
-17.414
-17.409
-17.289
-17.064
-16.744
-16.339
-15.861
-15.318
-14.72
-14.078
-13.4
-12.696
-11.973
-11.24
-10.504
-9.772
-9.052
-8.348
-7.667
-7.013
-6.392
-5.807
-5.261
-4.757
-4.298
-3.886
-3.521
-3.205
-2.939
-2.721
-2.553
-2.432
-2.359
-2.331
-2.346
-2.404
-2.501
-2.635
-2.803
-3.004
-3.233
-3.489
-3.769
-4.07
-4.39
-4.726
-5.075
-5.436
-5.804
-6.18
-6.559
-6.942
-7.325
-7.708
-8.089
-8.468
-8.843
-9.215
-9.583
-9.946
-10.305
-10.659
-11.008
-11.353
-11.695
-12.035
-12.373
-12.711
-13.051
-13.393
-13.739
-14.089
-14.445
-14.806
-15.174
-15.549
-15.932
-16.324
-16.725
-17.137
-17.559
-17.991
-18.434
-18.887
-19.348
-19.816
-20.291
-20.769
-21.249
-21.727
-22.202
-22.672
-23.135
-23.587
-24.026
-24.448
-24.849
-25.225
-25.571
-25.884
-26.157
-26.386
-26.569
-26.704
-26.787
-26.817
-26.792
-26.709
-26.567
-26.366
-26.104
-25.779
-25.391
-24.939
-24.427
-23.855
-23.228
-22.55
-21.825
-21.06
-20.262
-19.437
-18.593
-17.733
-16.862
-15.986
-15.11
-14.238
-13.376
-12.528
-11.702
-10.908
-10.156
-9.454
-8.811
-8.228
-7.711
-7.26
-6.878
-6.563
-6.309
-6.114
-5.985
-5.928
-5.962
-6.095
-6.325
-6.643
-7.036
-7.475
-7.926
-8.346
-8.684
-8.903
-8.986
-8.927
-8.737
-8.421
-7.973
-7.383
-6.628
-5.689
-4.556
-3.238
-1.754
-0.181
1.35
2.697
3.684
4.173
4.085
3.357
1.966
-0.086
-2.776
-6.051
-9.852
-14.148
-18.932
-24.182
-29.827
-35.636
-41.252
-46.285
-50.295
-52.926
-53.814
-52.489
-48.754
-42.714
-34.754
-25.656
-16.115
-6.397
3.066
11.623
19.329
26.644
34.63
45.349
60.133
79.231
103.101
132.022
164.783
199.073
230.885
254.547
265.674
261.237
238.078
193.468
126.482
38.505
-65.942
-180.139
-298.076
-414.327
-523.095
-617.919
-692.724
-743.945
-771.102
-775.529
-759.015
-723.536
-671.394
-606.942
-536.176
-463.733
-392.932
-326.623
-266.573
-214.468
-172.47
-140.706
-117.264
-100.624
-88.954
-79.966
-72.657
-65.978
-58.064
-48.298
-37.089
-24.748
-12.43
-1.74
6.851
13.049
16.303
16.77
14.782
10.648
5.351
0.05
-4.629
-8.246
-10.529
-11.526
-11.189
-9.457
-6.492
-2.51
2.289
7.711
13.65
20.038
26.743
33.583
40.326
46.755
52.732
58.179
63.055
67.348
71.032
74.115
76.648
78.697
80.337
81.633
82.625
83.367
83.932
84.408
84.9
85.495
86.245
87.189
88.353
89.749
91.394
93.284
95.399
97.718
100.226
102.913
105.774
108.799
111.966
115.254
118.636
122.092
125.602
129.147
132.706
136.257
139.783
143.268
146.698
150.057
153.322
156.474
159.49
162.349
165.031
167.514
169.778
171.804
173.575
175.077
176.298
177.225
177.848
178.158
178.15
177.818
177.159
176.172
174.857
173.216
171.252
168.973
166.385
163.497
160.319
156.862
153.141
149.168
144.961
140.535
135.906
131.095
126.119
120.999
115.754
110.406
104.974
99.48
93.945
88.39
82.834
77.296
71.795
66.35
60.977
55.693
50.514
45.452
40.523
35.738
31.109
26.646
22.358
18.254
14.339
10.62
7.101
3.785
0.675
-2.229
-4.926
-7.417
-9.704
-11.79
-13.678
-15.374
-16.883
-18.211
-19.364
-20.35
-21.178
-21.854
-22.389
-22.79
-23.067
-23.23
-23.287
-23.247
-23.121
-22.917
-22.644
-22.311
-21.927
-21.499
-21.037
-20.547
-20.037
-19.513
-18.982
-18.45
-17.922
-17.403
-16.898
-16.411
-15.945
-15.504
-15.089
-14.703
-14.348
-14.024
-13.734
-13.477
-13.253
-13.062
-12.905
-12.779
-12.685
-12.621
-12.586
-12.578
-12.597
-12.64
-12.706
-12.794
-12.901
-13.027
-13.17
-13.328
-13.5
-13.684
-13.879
-14.084
-14.297
-14.517
-14.744
-14.977
-15.215
-15.458
-15.705
-15.958
-16.216
-16.478
-16.747
-17.022
-17.303
-17.591
-17.888
-18.193
-18.51
-18.838
-19.178
-19.532
-19.9
-20.283
-20.681
-21.094
-21.522
-21.965
-22.423
-22.896
-23.384
-23.886
-24.401
-24.93
-25.472
-26.023
-26.584
-27.152
-27.725
-28.301
-28.875
-29.446
-30.01
-30.563
-31.102
-31.625
-32.127
-32.604
-33.051
-33.464
-33.837
-34.165
-34.444
-34.669
-34.837
-34.944
-34.988
-34.967
-34.881
-34.727
-34.504
-34.213
-33.852
-33.422
-32.922
-32.353
-31.717
-31.018
-30.26
-29.446
-28.582
-27.673
-26.727
-25.753
-24.758
-23.749
-22.732
-21.712
-20.697
-19.695
-18.712
-17.753
-16.826
-15.937
-15.097
-14.317
-13.603
-12.96
-12.391
-11.898
-11.482
-11.145
-10.886
-10.698
-10.58
-10.535
-10.57
-10.704
-10.944
-11.284
-11.712
-12.209
-12.737
-13.271
-13.772
-14.19
-14.495
-14.665
-14.69
-14.584
-14.349
-13.979
-13.462
-12.755
-11.825
-10.68
-9.335
-7.84
-6.309
-4.846
-3.579
-2.681
-2.266
-2.421
-3.204
-4.602
-6.582
-9.098
-12.093
-15.556
-19.503
-23.911
-28.708
-33.711
-38.599
-43.044
-46.671
-49.088
-49.893
-48.602
-44.998
-39.2
-31.601
-22.958
-13.934
-4.779
4.104
12.084
19.229
26.045
33.607
43.955
58.401
77.105
100.398
128.479
160.124
193.061
223.445
245.821
255.92
250.901
227.852
184.229
119.336
34.61
-65.748
-175.184
-287.556
-397.502
-499.236
-586.467
-654.03
-698.81
-720.089
-719.812
-700.727
-665.356
-617.009
-560.292
-499.646
-439.054
-381.981
-329.751
-282.596
-241.113
-205.385
-174.856
-149.231
-127.39
-107.373
-88.592
-71.234
-55.202
-40.708
-27.681
-15.367
-3.981
5.3
12.028
16.192
17.948
17.933
16.438
13.232
8.664
3.632
-1.165
-5.122
-7.902
-9.594
-10.169
-9.437
-7.377
-4.089
0.275
5.452
11.253
17.595
24.355
31.397
38.55
45.57
52.261
58.504
64.214
69.36
73.928
77.895
81.269
84.099
86.452
88.407
90.032
91.377
92.499
93.466
94.36
95.285
96.317
97.506
98.889
100.484
102.306
104.37
106.673
109.196
111.919
114.827
117.907
121.153
124.555
128.091
131.738
135.471
139.269
143.113
146.982
150.856
154.713
158.535
162.303
166.005
169.621
173.131
176.512
179.743
182.8
185.663
188.312
190.723
192.88
194.763
196.36
197.655
198.639
199.299
199.627
199.617
199.262
198.562
197.513
196.115
194.372
192.287
189.867
187.118
184.05
180.674
177.002
173.046
168.823
164.348
159.638
154.711
149.586
144.283
138.823
133.227
127.517
121.714
115.84
109.917
103.968
98.013
92.072
86.167
80.316
74.537
68.848
63.267
57.807
52.485
47.314
42.306
37.474
32.826
28.371
24.119
20.074
16.243
12.63
9.237
6.067
3.12
0.396
-2.107
-4.39
-6.459
-8.316
-9.968
-11.42
-12.68
-13.755
-14.654
-15.384
-15.956
-16.378
-16.661
-16.814
-16.847
-16.771
-16.595
-16.33
-15.986
-15.571
-15.097
-14.571
-14.003
-13.402
-12.775
-12.13
-11.475
-10.816
-10.16
-9.513
-8.879
-8.266
-7.676
-7.114
-6.583
-6.087
-5.627
-5.206
-4.825
-4.486
-4.189
-3.935
-3.725
-3.558
-3.433
-3.352
-3.312
-3.314
-3.357
-3.439
-3.56
-3.717
-3.911
-4.139
-4.402
-4.698
-5.026
-5.386
-5.776
-6.195
-6.643
-7.116
-7.615
-8.137
-8.681
-9.246
-9.83
-10.432
-11.051
-11.684
-12.332
-12.992
-13.663
-14.341
-15.025
-15.713
-16.4
-17.085
-17.763
-18.432
-19.088
-19.729
-20.351
-20.951
-21.524
-22.066
-22.573
-23.04
-23.461
-23.833
-24.149
-24.408
-24.605
-24.738
-24.806
-24.806
-24.737
-24.597
-24.385
-24.101
-23.744
-23.315
-22.813
-22.24
-21.6
-20.896
-20.132
-19.315
-18.448
-17.541
-16.601
-15.637
-14.654
-13.659
-12.658
-11.657
-10.664
-9.686
-8.728
-7.797
-6.902
-6.051
-5.259
-4.532
-3.877
-3.297
-2.796
-2.375
-2.039
-1.787
-1.612
-1.515
-1.497
-1.565
-1.741
-2.033
-2.433
-2.932
-3.508
-4.126
-4.761
-5.378
-5.924
-6.367
-6.686
-6.872
-6.945
-6.913
-6.769
-6.5
-6.065
-5.429
-4.602
-3.596
-2.448
-1.263
-0.131
0.825
1.429
1.559
1.133
0.094
-1.539
-3.72
-6.421
-9.592
-13.212
-17.302
-21.841
-26.768
-31.938
-37.077
-41.877
-45.981
-48.998
-50.49
-49.965
-47.193
-42.249
-35.507
-27.665
-19.299
-10.658
-2.149
5.628
12.671
19.382
26.893
37.243
51.565
69.996
92.746
119.857
150.501
182.952
213.453
236.615
248.621
246.756
228.466
191.686
134.764
57.94
-34.963
-137.926
-245.714
-353.204
-455.387
-546.854
-621.15
-674.076
-704.756
-714.229
-704.417
-677.871
-636.969
-585.652
-529.709
-473.244
-419.257
-369.719
-324.831
-284.655
-249.75
-219.266
-191.58
-166.115
-141.553
-117.127
-93.651
-71.523
-50.903
-32.538
-16.647
-2.932
7.839
15.271
19.797
21.575
21.135
19.215
15.937
11.376
6.197
0.979
-3.812
-7.652
-10.438
-12.182
-12.718
-11.962
-9.937
-6.7
-2.434
2.625
8.332
14.552
21.155
28.018
34.951
41.726
48.162
54.131
59.565
64.441
68.729
72.409
75.494
78.031
80.104
81.799
83.18
84.303
85.222
86.003
86.736
87.518
88.419
89.487
90.753
92.234
93.948
95.911
98.116
100.543
103.17
105.978
108.957
112.099
115.389
118.804
122.32
125.91
129.553
133.23
136.92
140.599
144.247
147.844
151.371
154.816
158.158
161.376
164.449
167.355
170.071
172.579
174.857
176.886
178.646
180.124
181.305
182.177
182.731
182.957
182.849
182.402
181.613
180.48
179.005
177.19
175.038
172.557
169.756
166.643
163.23
159.529
155.554
151.321
146.846
142.148
137.244
132.154
126.898
121.498
115.974
110.349
104.644
98.882
93.085
87.274
81.472
75.698
69.973
64.315
58.743
53.274
47.924
42.707
37.639
32.732
27.997
23.445
19.085
14.924
10.971
7.228
3.702
0.395
-2.692
-5.558
-8.204
-10.63
-12.84
-14.838
-16.627
-18.214
-19.605
-20.806
-21.826
-22.674
-23.357
-23.885
-24.268
-24.516
-24.639
-24.646
-24.549
-24.356
-24.079
-23.727
-23.309
-22.836
-22.315
-21.755
-21.165
-20.552
-19.924
-19.286
-18.646
-18.009
-17.381
-16.766
-16.168
-15.591
-15.039
-14.513
-14.016
-13.551
-13.117
-12.716
-12.349
-12.015
-11.715
-11.448
-11.214
-11.01
-10.837
-10.694
-10.577
-10.487
-10.421
-10.378
-10.356
-10.354
-10.371
-10.405
-10.455
-10.522
-10.603
-10.698
-10.808
-10.93
-11.066
-11.215
-11.376
-11.551
-11.74
-11.943
-12.161
-12.396
-12.647
-12.917
-13.204
-13.51
-13.835
-14.179
-14.544
-14.928
-15.332
-15.757
-16.202
-16.668
-17.154
-17.661
-18.185
-18.727
-19.284
-19.854
-20.434
-21.02
-21.61
-22.201
-22.788
-23.369
-23.941
-24.499
-25.039
-25.556
-26.046
-26.503
-26.922
-27.298
-27.624
-27.897
-28.114
-28.271
-28.365
-28.393
-28.354
-28.245
-28.065
-27.812
-27.485
-27.082
-26.604
-26.052
-25.428
-24.737
-23.981
-23.167
-22.301
-21.392
-20.448
-19.475
-18.48
-17.47
-16.45
-15.428
-14.408
-13.394
-12.393
-11.414
-10.464
-9.557
-8.701
-7.904
-7.174
-6.517
-5.937
-5.44
-5.026
-4.688
-4.426
-4.245
-4.152
-4.165
-4.29
-4.522
-4.858
-5.288
-5.791
-6.339
-6.883
-7.36
-7.729
-7.965
-8.054
-8.006
-7.816
-7.472
-6.973
-6.309
-5.473
-4.472
-3.303
-1.97
-0.528
0.921
2.23
3.209
3.719
3.666
2.97
1.6
-0.477
-3.271
-6.709
-10.716
-15.223
-20.185
-25.6
-31.422
-37.462
-43.432
-48.947
-53.56
-56.928
-58.649
-58.214
-55.393
-50.174
-42.84
-34.126
-24.663
-14.746
-4.862
4.365
12.909
21.111
30.074
41.832
57.541
77.412
101.767
130.774
163.659
198.68
232.003
257.932
272.391
272.715
256.243
220.798
164.698
87.64
-6.897
-112.417
-223.589
-335.76
-444.058
-543.81
-628.854
-693.361
-735.331
-755.591
-755.073
-735.314
-697.894
-644.443
-579.876
-510.436
-440.486
-373.349
-311.323
-255.515
-207.786
-170.381
-142.725
-122.644
-107.955
-95.965
-85.328
-75.953
-66.868
-56.577
-44.713
-31.633
-18.37
-6.855
2.037
8.466
12.39
13.746
12.616
9.131
3.965
-1.594
-6.649
-10.768
-13.689
-15.409
-15.882
-14.956
-12.65
-9.166
-4.725
0.45
6.189
12.42
19.057
25.957
32.935
39.753
46.214
52.2
57.648
62.536
66.842
70.538
73.628
76.16
78.213
79.87
81.196
82.234
83.037
83.676
84.24
84.835
85.536
86.388
87.425
88.662
90.119
91.81
93.734
95.869
98.198
100.702
103.374
106.208
109.193
112.308
115.529
118.831
122.194
125.601
129.034
132.471
135.893
139.283
142.625
145.906
149.108
152.212
155.196
158.04
160.723
163.226
165.528
167.61
169.455
171.046
172.371
173.417
174.174
174.632
174.784
174.623
174.146
173.35
172.236
170.803
169.054
166.995
164.632
161.974
159.03
155.809
152.325
148.591
144.621
140.431
136.038
131.459
126.712
121.816
116.792
111.658
106.436
101.145
95.806
90.439
85.065
79.702
74.37
69.085
63.866
58.729
53.69
48.763
43.961
39.297
34.783
30.429
26.244
22.237
18.415
14.782
11.345
8.106
5.069
2.234
-0.398
-2.827
-5.056
-7.086
-8.921
-10.565
-12.023
-13.301
-14.405
-15.343
-16.121
-16.748
-17.232
-17.582
-17.807
-17.915
-17.915
-17.818
-17.632
-17.366
-17.03
-16.63
-16.177
-15.677
-15.14
-14.572
-13.98
-13.372
-12.753
-12.129
-11.506
-10.889
-10.282
-9.689
-9.114
-8.56
-8.029
-7.525
-7.049
-6.602
-6.187
-5.804
-5.454
-5.136
-4.852
-4.6
-4.381
-4.193
-4.036
-3.908
-3.81
-3.74
-3.696
-3.68
-3.688
-3.722
-3.78
-3.862
-3.966
-4.092
-4.24
-4.409
-4.599
-4.811
-5.043
-5.297
-5.573
-5.871
-6.19
-6.531
-6.894
-7.277
-7.68
-8.105
-8.549
-9.012
-9.495
-9.997
-10.519
-11.058
-11.614
-12.186
-12.772
-13.37
-13.978
-14.592
-15.21
-15.828
-16.443
-17.052
-17.652
-18.239
-18.809
-19.359
-19.882
-20.375
-20.833
-21.249
-21.618
-21.937
-22.202
-22.409
-22.557
-22.642
-22.663
-22.617
-22.504
-22.322
-22.071
-21.748
-21.354
-20.889
-20.355
-19.756
-19.094
-18.375
-17.604
-16.787
-15.935
-15.054
-14.151
-13.233
-12.305
-11.375
-10.448
-9.531
-8.628
-7.746
-6.892
-6.077
-5.31
-4.601
-3.957
-3.384
-2.886
-2.466
-2.129
-1.872
-1.689
-1.581
-1.549
-1.603
-1.759
-2.026
-2.401
-2.88
-3.445
-4.07
-4.719
-5.344
-5.894
-6.332
-6.63
-6.779
-6.786
-6.648
-6.373
-5.956
-5.37
-4.593
-3.619
-2.453
-1.126
0.269
1.619
2.778
3.579
3.892
3.614
2.676
1.055
-1.245
-4.158
-7.616
-11.575
-16.027
-20.976
-26.366
-32.05
-37.755
-43.13
-47.811
-51.42
-53.526
-53.628
-51.418
-46.845
-40.204
-32.192
-23.424
-14.256
-5.059
3.645
11.616
19.111
27.117
37.482
51.708
70.374
93.67
121.725
154.191
189.542
224.458
253.829
272.796
277.848
266.234
235.482
183.349
109.256
15.792
-91.484
-206.329
-323.127
-436.722
-541.87
-632.011
-701.165
-746.461
-767.884
-766.983
-745.894
-706.452
-650.781
-583.875
-511.961
-439.883
-371.373
-308.503
-252.197
-204.186
-166.481
-138.574
-118.348
-103.493
-91.25
-80.295
-70.55
-61.092
-50.482
-38.331
-24.988
-11.501
0.209
9.253
15.782
19.761
21.129
19.977
16.449
11.226
5.602
0.48
-3.712
-6.705
-8.492
-9.028
-8.16
-5.91
-2.48
1.911
7.045
12.753
18.964
25.59
32.483
39.46
46.281
52.747
58.738
64.19
69.082
73.39
77.086
80.176
82.707
84.756
86.408
87.728
88.758
89.555
90.188
90.748
91.343
92.05
92.914
93.968
95.229
96.716
98.443
100.41
102.593
104.973
107.534
110.265
113.163
116.213
119.394
122.681
126.049
129.475
132.943
136.432
139.92
143.388
146.816
150.188
153.49
156.705
159.812
162.788
165.613
168.264
170.722
172.966
174.976
176.734
178.223
179.43
180.343
180.951
181.244
181.214
180.856
180.166
179.142
177.784
176.093
174.072
171.726
169.064
166.093
162.824
159.269
155.439
151.349
147.016
142.456
137.685
132.722
127.588
122.301
116.883
111.354
105.737
100.053
94.323
88.568
82.812
77.073
71.371
65.726
60.156
54.679
49.31
44.067
38.962
34.009
29.221
24.609
20.183
15.951
11.922
8.1
4.491
1.1
-2.071
-5.022
-7.75
-10.257
-12.545
-14.616
-16.474
-18.124
-19.57
-20.821
-21.882
-22.762
-23.468
-24.011
-24.4
-24.643
-24.752
-24.737
-24.608
-24.376
-24.05
-23.642
-23.162
-22.619
-22.023
-21.384
-20.711
-20.012
-19.296
-18.571
-17.843
-17.121
-16.409
-15.714
-15.041
-14.394
-13.779
-13.198
-12.655
-12.153
-11.693
-11.277
-10.907
-10.583
-10.306
-10.075
-9.889
-9.748
-9.651
-9.596
-9.582
-9.606
-9.667
-9.762
-9.89
-10.05
-10.238
-10.452
-10.692
-10.955
-11.238
-11.541
-11.862
-12.199
-12.551
-12.917
-13.296
-13.688
-14.092
-14.507
-14.933
-15.368
-15.812
-16.264
-16.724
-17.191
-17.664
-18.143
-18.628
-19.119
-19.615
-20.116
-20.622
-21.13
-21.641
-22.152
-22.662
-23.168
-23.669
-24.161
-24.643
-25.111
-25.565
-26
-26.414
-26.804
-27.164
-27.492
-27.783
-28.032
-28.234
-28.388
-28.489
-28.535
-28.524
-28.455
-28.325
-28.134
-27.88
-27.563
-27.181
-26.735
-26.222
-25.645
-25.006
-24.309
-23.555
-22.751
-21.9
-21.011
-20.091
-19.148
-18.187
-17.215
-16.237
-15.26
-14.29
-13.332
-12.39
-11.47
-10.58
-9.728
-8.925
-8.178
-7.493
-6.876
-6.331
-5.86
-5.468
-5.152
-4.906
-4.731
-4.629
-4.609
-4.687
-4.871
-5.158
-5.544
-6.012
-6.535
-7.081
-7.601
-8.041
-8.367
-8.551
-8.584
-8.473
-8.213
-7.81
-7.264
-6.547
-5.641
-4.544
-3.258
-1.817
-0.316
1.132
2.374
3.235
3.586
3.32
2.363
0.695
-1.682
-4.702
-8.289
-12.396
-17.012
-22.134
-27.715
-33.599
-39.508
-45.103
-49.987
-53.765
-55.983
-56.093
-53.819
-49.167
-42.449
-34.411
-25.686
-16.557
-7.491
0.893
8.586
15.976
24.23
35.466
50.887
70.701
95.214
124.555
157.907
193.461
227.229
253.478
268.162
268.39
251.361
214.754
156.654
77.047
-20.108
-128.316
-242.22
-356.625
-466.343
-566.108
-648.969
-709.717
-747.176
-762.242
-756.127
-730.959
-688.571
-631.503
-565.789
-496.944
-428.506
-363.66
-304.237
-251.062
-206.028
-170.65
-143.503
-122.954
-107.325
-94.075
-82.283
-71.835
-61.565
-50.286
-37.961
-24.713
-11.424
0.06
9.083
15.709
19.759
21.215
20.181
16.759
11.635
6.083
0.96
-3.268
-6.305
-8.141
-8.711
-7.875
-5.673
-2.31
1.984
6.992
12.551
18.598
25.052
31.775
38.581
45.234
51.535
57.367
62.663
67.401
71.553
75.096
78.04
80.436
82.368
83.92
85.156
86.118
86.859
87.449
87.978
88.55
89.241
90.096
91.149
92.417
93.919
95.669
97.664
99.883
102.304
104.911
107.693
110.644
113.753
116.995
120.349
123.787
127.289
130.838
134.413
137.993
141.557
145.087
148.566
151.98
155.311
158.538
161.639
164.592
167.376
169.972
172.358
174.515
176.423
178.067
179.434
180.51
181.284
181.747
181.892
181.711
181.202
180.361
179.189
177.687
175.856
173.704
171.236
168.461
165.389
162.03
158.397
154.504
150.367
146.001
141.424
136.653
131.707
126.608
121.374
116.027
110.588
105.078
99.518
93.929
88.333
82.749
77.196
71.695
66.261
60.914
55.669
50.541
45.544
40.692
35.996
31.468
27.117
22.952
18.981
15.209
11.642
8.283
5.135
2.2
-0.522
-3.032
-5.331
-7.421
-9.307
-10.993
-12.485
-13.788
-14.909
-15.857
-16.638
-17.262
-17.738
-18.075
-18.283
-18.371
-18.349
-18.227
-18.014
-17.721
-17.357
-16.931
-16.452
-15.929
-15.37
-14.784
-14.177
-13.558
-12.932
-12.306
-11.686
-11.077
-10.484
-9.91
-9.36
-8.836
-8.342
-7.879
-7.449
-7.054
-6.695
-6.372
-6.086
-5.835
-5.621
-5.442
-5.297
-5.185
-5.104
-5.053
-5.032
-5.037
-5.069
-5.125
-5.204
-5.305
-5.427
-5.569
-5.728
-5.906
-6.099
-6.308
-6.533
-6.773
-7.028
-7.299
-7.584
-7.886
-8.204
-8.537
-8.887
-9.253
-9.634
-10.031
-10.445
-10.874
-11.319
-11.78
-12.257
-12.75
-13.258
-13.78
-14.316
-14.862
-15.418
-15.982
-16.55
-17.119
-17.688
-18.252
-18.81
-19.357
-19.891
-20.408
-20.902
-21.369
-21.803
-22.2
-22.554
-22.859
-23.112
-23.309
-23.445
-23.52
-23.529
-23.471
-23.344
-23.145
-22.874
-22.529
-22.11
-21.616
-21.049
-20.41
-19.703
-18.933
-18.104
-17.222
-16.293
-15.326
-14.329
-13.309
-12.271
-11.221
-10.165
-9.112
-8.068
-7.039
-6.032
-5.056
-4.122
-3.241
-2.425
-1.679
-1.008
-0.414
0.101
0.532
0.879
1.149
1.341
1.453
1.478
1.395
1.191
0.875
0.458
-0.04
-0.582
-1.144
-1.691
-2.173
-2.559
-2.829
-2.974
-3.015
-2.961
-2.804
-2.528
-2.09
-1.449
-0.612
0.409
1.576
2.788
3.95
4.945
5.604
5.805
5.468
4.54
3.031
0.989
-1.562
-4.591
-8.078
-12.057
-16.521
-21.4
-26.56
-31.726
-36.569
-40.756
-43.902
-45.574
-45.311
-42.835
-38.15
-31.62
-23.895
-15.543
-6.896
1.712
9.747
16.95
23.604
30.721
40.162
53.452
71.17
93.504
120.639
152.297
186.991
221.444
250.514
269.255
274.092
262.187
230.983
178.206
103.293
8.846
-99.516
-215.494
-333.428
-447.967
-553.676
-644.08
-713.297
-758.647
-780.354
-779.739
-758.649
-719.085
-663.309
-596.015
-523.275
-449.43
-377.588
-310.492
-249.818
-197.337
-155.274
-123.565
-100.247
-83.816
-72.441
-63.963
-57.439
-51.751
-44.968
-36.423
-26.467
-15.403
-4.382
5.087
12.591
17.889
20.465
20.412
18.02
13.598
8.115
2.744
-1.885
-5.37
-7.467
-8.224
-7.608
-5.557
-2.239
2.088
7.197
12.873
18.99
25.5
32.29
39.18
45.947
52.373
58.325
63.738
68.588
72.854
76.51
79.562
82.059
84.082
85.714
87.023
88.053
88.855
89.498
90.07
90.673
91.39
92.268
93.341
94.631
96.152
97.919
99.93
102.163
104.596
107.212
110
112.954
116.062
119.302
122.65
126.08
129.572
133.106
136.664
140.223
143.764
147.268
150.718
154.102
157.401
160.595
163.662
166.581
169.331
171.891
174.241
176.361
178.233
179.841
181.171
182.212
182.951
183.38
183.49
183.276
182.735
181.863
180.661
179.129
177.27
175.089
172.595
169.793
166.695
163.311
159.653
155.735
151.572
147.18
142.577
137.779
132.805
127.676
122.412
117.032
111.559
106.012
100.413
94.783
89.142
83.511
77.909
72.355
66.865
61.458
56.15
50.956
45.889
40.964
36.192
31.584
27.151
22.901
18.841
14.979
11.318
7.865
4.621
1.588
-1.232
-3.84
-6.236
-8.424
-10.405
-12.185
-13.767
-15.158
-16.363
-17.391
-18.248
-18.942
-19.483
-19.878
-20.138
-20.271
-20.286
-20.195
-20.005
-19.727
-19.371
-18.945
-18.459
-17.922
-17.343
-16.728
-16.088
-15.429
-14.758
-14.082
-13.408
-12.742
-12.088
-11.452
-10.839
-10.253
-9.696
-9.172
-8.683
-8.232
-7.82
-7.45
-7.121
-6.834
-6.591
-6.39
-6.232
-6.115
-6.04
-6.004
-6.006
-6.046
-6.121
-6.23
-6.372
-6.544
-6.745
-6.974
-7.228
-7.508
-7.809
-8.132
-8.474
-8.835
-9.212
-9.605
-10.012
-10.435
-10.871
-11.32
-11.783
-12.257
-12.744
-13.241
-13.748
-14.264
-14.789
-15.322
-15.863
-16.411
-16.966
-17.527
-18.094
-18.666
-19.241
-19.818
-20.396
-20.972
-21.545
-22.11
-22.667
-23.212
-23.744
-24.261
-24.76
-25.238
-25.691
-26.117
-26.512
-26.87
-27.188
-27.461
-27.685
-27.857
-27.974
-28.035
-28.038
-27.981
-27.862
-27.68
-27.433
-27.122
-26.745
-26.301
-25.789
-25.213
-24.576
-23.88
-23.131
-22.333
-21.494
-20.62
-19.721
-18.802
-17.868
-16.925
-15.977
-15.03
-14.089
-13.16
-12.247
-11.358
-10.504
-9.695
-8.943
-8.254
-7.634
-7.086
-6.614
-6.218
-5.901
-5.654
-5.479
-5.379
-5.363
-5.448
-5.646
-5.955
-6.365
-6.865
-7.427
-8.013
-8.583
-9.082
-9.471
-9.733
-9.861
-9.864
-9.751
-9.516
-9.15
-8.633
-7.943
-7.07
-6.017
-4.8
-3.488
-2.205
-1.09
-0.316
-0.019
-0.284
-1.172
-2.709
-4.9
-7.717
-11.103
-14.998
-19.36
-24.189
-29.476
-35.157
-41.016
-46.717
-51.885
-56.098
-59.013
-60.246
-59.315
-55.994
-50.34
-42.719
-33.877
-24.493
-14.858
-5.402
3.229
11.052
18.497
26.614
37.444
52.37
71.727
95.993
125.532
159.231
194.868
228.541
254.547
268.41
267.025
247.077
205.652
141.649
56.099
-46.797
-160.214
-278.116
-395
-504.765
-601.083
-677.977
-731.421
-760.667
-767.334
-753.27
-720.866
-672.985
-613.26
-547.067
-479.191
-412.807
-350.358
-293.442
-242.879
-199.942
-165.621
-138.798
-118.114
-102.196
-88.985
-77.525
-67.589
-58.141
-48.04
-37.2
-25.72
-14.321
-4.632
2.742
7.876
10.601
10.9
8.951
4.944
-0.379
-5.783
-10.512
-14.182
-16.554
-17.645
-17.4
-15.718
-12.691
-8.559
-3.554
2.119
8.32
14.97
21.945
29.053
36.058
42.739
48.95
54.602
59.658
64.103
67.915
71.097
73.699
75.784
77.429
78.708
79.666
80.358
80.858
81.253
81.65
82.138
82.773
83.594
84.627
85.888
87.393
89.141
91.114
93.293
95.665
98.22
100.955
103.861
106.919
110.108
113.402
116.782
120.229
123.724
127.246
130.777
134.298
137.793
141.25
144.651
147.976
151.203
154.309
157.272
160.073
162.689
165.098
167.281
169.221
170.901
172.308
173.428
174.251
174.766
174.964
174.84
174.389
173.608
172.494
171.049
169.275
167.176
164.758
162.028
158.996
155.672
152.068
148.197
144.073
139.714
135.134
130.352
125.387
120.259
114.987
109.593
104.098
98.522
92.888
87.217
81.529
75.846
70.186
64.57
59.016
53.541
48.163
42.897
37.759
32.763
27.922
23.249
18.753
14.445
10.334
6.425
2.727
-0.758
-4.024
-7.07
-9.894
-12.495
-14.876
-17.037
-18.982
-20.714
-22.24
-23.564
-24.694
-25.637
-26.4
-26.993
-27.425
-27.705
-27.844
-27.85
-27.735
-27.51
-27.183
-26.767
-26.27
-25.704
-25.079
-24.403
-23.687
-22.94
-22.17
-21.385
-20.593
-19.802
-19.017
-18.246
-17.493
-16.765
-16.065
-15.397
-14.765
-14.172
-13.621
-13.113
-12.649
-12.231
-11.859
-11.533
-11.253
-11.017
-10.826
-10.679
-10.573
-10.508
-10.483
-10.496
-10.545
-10.629
-10.746
-10.894
-11.071
-11.276
-11.508
-11.765
-12.046
-12.35
-12.676
-13.024
-13.393
-13.781
-14.187
-14.611
-15.052
-15.508
-15.979
-16.465
-16.964
-17.476
-18
-18.536
-19.084
-19.641
-20.206
-20.777
-21.353
-21.931
-22.509
-23.083
-23.651
-24.209
-24.756
-25.288
-25.802
-26.295
-26.761
-27.196
-27.595
-27.954
-28.268
-28.531
-28.74
-28.89
-28.98
-29.006
-28.967
-28.859
-28.682
-28.433
-28.111
-27.716
-27.247
-26.704
-26.086
-25.398
-24.643
-23.824
-22.947
-22.016
-21.04
-20.027
-18.985
-17.92
-16.839
-15.748
-14.653
-13.56
-12.48
-11.416
-10.377
-9.371
-8.41
-7.505
-6.669
-5.906
-5.222
-4.62
-4.101
-3.67
-3.328
-3.068
-2.893
-2.805
-2.81
-2.928
-3.17
-3.525
-3.985
-4.526
-5.111
-5.714
-6.303
-6.827
-7.259
-7.58
-7.779
-7.874
-7.874
-7.765
-7.539
-7.158
-6.586
-5.832
-4.914
-3.867
-2.795
-1.794
-0.972
-0.492
-0.464
-0.955
-2.02
-3.646
-5.794
-8.456
-11.577
-15.117
-19.08
-23.415
-28.075
-32.958
-37.789
-42.26
-46.043
-48.713
-49.953
-49.438
-46.731
-41.73
-34.632
-25.82
-16.076
-6.068
3.991
13.641
22.227
29.797
36.773
44.24
54.222
67.956
85.616
107.544
133.917
163.554
194.227
222.084
241.737
248.985
241.006
215.015
168.648
101.406
14.953
-86.428
-196.184
-308.144
-416.941
-516.828
-601.646
-666.505
-708.588
-727.336
-724.74
-703.586
-666.399
-616.526
-558.604
-496.973
-435.471
-377.455
-324.213
-275.993
-233.466
-196.765
-165.299
-138.801
-116.201
-95.58
-76.431
-58.969
-43.072
-28.928
-16.435
-4.787
5.819
14.223
20.049
23.326
24.265
23.563
21.47
17.724
12.67
7.195
2.017
-2.24
-5.262
-7.157
-7.888
-7.265
-5.258
-1.958
2.452
7.688
13.537
19.896
26.659
33.701
40.848
47.856
54.527
60.734
66.409
71.529
76.072
80.01
83.35
86.135
88.444
90.364
91.964
93.297
94.42
95.397
96.314
97.276
98.359
99.609
101.062
102.734
104.64
106.798
109.205
111.839
114.68
117.711
120.918
124.297
127.834
131.505
135.287
139.153
143.08
147.049
151.039
155.027
158.992
162.914
166.775
170.56
174.25
177.823
181.257
184.527
187.613
190.492
193.143
195.543
197.673
199.517
201.058
202.284
203.182
203.741
203.953
203.81
203.307
202.442
201.213
199.62
197.667
195.357
192.697
189.697
186.365
182.713
178.754
174.503
169.975
165.188
160.159
154.907
149.452
143.816
138.021
132.088
126.041
119.901
113.692
107.437
101.16
94.881
88.624
82.407
76.253
70.18
64.206
58.35
52.627
47.053
41.642
36.408
31.362
26.514
21.875
17.452
13.252
9.28
5.541
2.037
-1.229
-4.258
-7.049
-9.604
-11.926
-14.018
-15.885
-17.532
-18.966
-20.194
-21.224
-22.064
-22.724
-23.212
-23.538
-23.713
-23.746
-23.649
-23.431
-23.103
-22.676
-22.161
-21.567
-20.905
-20.185
-19.416
-18.608
-17.769
-16.909
-16.034
-15.154
-14.274
-13.402
-12.544
-11.707
-10.894
-10.113
-9.367
-8.661
-7.998
-7.383
-6.817
-6.303
-5.844
-5.441
-5.095
-4.809
-4.582
-4.416
-4.311
-4.268
-4.285
-4.363
-4.499
-4.693
-4.942
-5.244
-5.599
-6.003
-6.453
-6.949
-7.486
-8.062
-8.675
-9.32
-9.993
-10.691
-11.409
-12.143
-12.887
-13.637
-14.388
-15.134
-15.872
-16.595
-17.301
-17.982
-18.633
-19.249
-19.823
-20.349
-20.822
-21.236
-21.586
-21.869
-22.081
-22.22
-22.284
-22.271
-22.179
-22.007
-21.755
-21.422
-21.008
-20.515
-19.943
-19.297
-18.581
-17.8
-16.96
-16.068
-15.131
-14.16
-13.162
-12.146
-11.118
-10.085
-9.055
-8.035
-7.034
-6.058
-5.117
-4.218
-3.373
-2.594
-1.892
-1.273
-0.741
-0.301
0.047
0.299
0.454
0.518
0.489
0.365
0.141
-0.202
-0.671
-1.259
-1.954
-2.735
-3.564
-4.416
-5.257
-6.034
-6.72
-7.294
-7.743
-8.084
-8.322
-8.441
-8.435
-8.268
-7.904
-7.354
-6.631
-5.769
-4.869
-4.023
-3.344
-3
-3.102
-3.723
-4.925
-6.692
-8.995
-11.829
-15.127
-18.853
-23
-27.512
-32.358
-37.434
-42.472
-47.184
-51.217
-54.131
-55.595
-55.243
-52.651
-47.75
-40.722
-31.971
-22.305
-12.335
-2.374
7.017
15.401
22.942
30.21
38.53
49.676
64.587
83.599
107.093
134.807
165.286
195.666
221.515
238.195
242.068
230.246
200
149.184
77.763
-11.382
-113.106
-221.68
-331.455
-437.169
-532.878
-611.9
-669.858
-705.236
-718.534
-711.746
-687.502
-648.251
-598.151
-542.973
-486.837
-432.964
-383.491
-338.669
-298.607
-263.81
-233.33
-205.561
-179.928
-155.089
-130.275
-106.249
-83.375
-61.847
-42.462
-25.515
-10.779
0.953
9.266
14.552
16.938
16.915
15.192
11.955
7.334
2.023
-3.365
-8.37
-12.468
-15.523
-17.519
-18.284
-17.726
-15.873
-12.788
-8.627
-3.61
2.127
8.463
15.241
22.316
29.488
36.521
43.228
49.477
55.184
60.311
64.833
68.733
72.021
74.752
76.996
78.834
80.332
81.541
82.522
83.345
84.099
84.884
85.774
86.818
88.051
89.493
91.161
93.068
95.209
97.563
100.109
102.831
105.717
108.759
111.946
115.255
118.664
122.146
125.68
129.248
132.829
136.403
139.948
143.445
146.878
150.234
153.493
156.636
159.642
162.489
165.156
167.624
169.873
171.882
173.633
175.113
176.307
177.203
177.792
178.065
178.014
177.635
176.924
175.882
174.506
172.801
170.768
168.415
165.749
162.78
159.517
155.972
152.16
148.094
143.792
139.269
134.544
129.636
124.563
119.346
114.007
108.566
103.045
97.465
91.847
86.212
80.583
74.979
69.418
63.921
58.503
53.183
47.976
42.898
37.96
33.177
28.559
24.118
19.862
15.798
11.935
8.276
4.827
1.589
-1.434
-4.242
-6.836
-9.217
-11.388
-13.351
-15.112
-16.675
-18.046
-19.233
-20.243
-21.083
-21.763
-22.291
-22.677
-22.93
-23.06
-23.077
-22.991
-22.811
-22.546
-22.208
-21.804
-21.345
-20.838
-20.293
-19.717
-19.118
-18.503
-17.879
-17.251
-16.625
-16.007
-15.402
-14.813
-14.244
-13.699
-13.18
-12.689
-12.229
-11.801
-11.406
-11.043
-10.713
-10.416
-10.152
-9.919
-9.717
-9.546
-9.404
-9.291
-9.205
-9.145
-9.11
-9.099
-9.111
-9.144
-9.198
-9.272
-9.365
-9.478
-9.61
-9.762
-9.932
-10.121
-10.328
-10.554
-10.796
-11.056
-11.333
-11.626
-11.936
-12.263
-12.607
-12.968
-13.347
-13.742
-14.152
-14.577
-15.016
-15.466
-15.926
-16.394
-16.866
-17.341
-17.817
-18.29
-18.759
-19.22
-19.669
-20.101
-20.512
-20.898
-21.252
-21.57
-21.847
-22.078
-22.263
-22.396
-22.477
-22.503
-22.471
-22.38
-22.227
-22.013
-21.734
-21.389
-20.979
-20.505
-19.969
-19.375
-18.726
-18.027
-17.285
-16.507
-15.7
-14.87
-14.023
-13.163
-12.298
-11.431
-10.57
-9.719
-8.884
-8.075
-7.3
-6.572
-5.902
-5.296
-4.759
-4.297
-3.911
-3.604
-3.375
-3.219
-3.134
-3.125
-3.201
-3.379
-3.669
-4.068
-4.569
-5.159
-5.807
-6.477
-7.126
-7.7
-8.16
-8.487
-8.673
-8.728
-8.657
-8.455
-8.111
-7.603
-6.909
-6.016
-4.932
-3.674
-2.317
-0.992
0.156
0.95
1.25
0.97
0.048
-1.537
-3.782
-6.66
-10.11
-14.07
-18.507
-23.41
-28.761
-34.489
-40.363
-46.022
-51.067
-55.05
-57.608
-58.367
-56.851
-52.87
-46.535
-38.248
-28.812
-18.928
-8.862
0.96
9.902
18.039
25.854
34.427
45.825
61.363
81.229
105.802
135.312
168.484
202.977
234.796
258.236
268.916
263.9
240.124
194.982
127.722
39.71
-64.623
-178.39
-295.518
-410.533
-517.526
-610.423
-683.632
-733.551
-759.661
-763.682
-747.552
-713.682
-664.927
-604.886
-538.709
-470.949
-404.692
-342.32
-285.446
-234.964
-192.121
-157.902
-131.284
-110.95
-95.544
-83.044
-72.444
-63.447
-54.982
-45.835
-35.855
-25.137
-14.378
-5.181
1.852
6.817
9.519
9.882
8.054
4.217
-0.895
-6.039
-10.477
-13.853
-15.936
-16.745
-16.229
-14.286
-11.021
-6.691
-1.532
4.248
10.517
17.209
24.205
31.318
38.318
44.988
51.189
56.841
61.905
66.368
70.207
73.426
76.076
78.224
79.947
81.314
82.372
83.173
83.786
84.299
84.813
85.416
86.16
87.083
88.21
89.556
91.134
92.946
94.97
97.188
99.585
102.152
104.883
107.77
110.793
113.932
117.162
120.463
123.816
127.204
130.607
134.005
137.381
140.719
144.008
147.23
150.365
153.393
156.293
159.043
161.624
164.016
166.198
168.151
169.86
171.31
172.488
173.383
173.984
174.283
174.273
173.949
173.308
172.348
171.068
169.47
167.557
165.336
162.813
159.996
156.894
153.519
149.883
146
141.886
137.554
133.023
128.311
123.435
118.415
113.271
108.023
102.691
97.296
91.859
86.399
80.937
75.492
70.082
64.725
59.439
54.24
49.143
44.163
39.313
34.607
30.056
25.671
21.46
17.433
13.595
9.954
6.514
3.279
0.252
-2.567
-5.176
-7.576
-9.77
-11.758
-13.545
-15.135
-16.534
-17.747
-18.78
-19.642
-20.34
-20.882
-21.277
-21.535
-21.663
-21.672
-21.571
-21.369
-21.077
-20.704
-20.259
-19.752
-19.191
-18.586
-17.945
-17.276
-16.586
-15.884
-15.175
-14.467
-13.766
-13.076
-12.404
-11.754
-11.13
-10.535
-9.973
-9.448
-8.959
-8.511
-8.103
-7.738
-7.415
-7.135
-6.899
-6.705
-6.555
-6.447
-6.382
-6.357
-6.373
-6.427
-6.519
-6.647
-6.81
-7.007
-7.236
-7.497
-7.788
-8.109
-8.457
-8.833
-9.234
-9.659
-10.107
-10.575
-11.063
-11.57
-12.093
-12.631
-13.184
-13.751
-14.33
-14.92
-15.519
-16.124
-16.734
-17.346
-17.958
-18.565
-19.165
-19.755
-20.332
-20.893
-21.436
-21.957
-22.452
-22.917
-23.349
-23.743
-24.094
-24.397
-24.648
-24.844
-24.983
-25.061
-25.077
-25.029
-24.915
-24.734
-24.484
-24.166
-23.778
-23.318
-22.787
-22.188
-21.522
-20.794
-20.007
-19.167
-18.28
-17.354
-16.399
-15.42
-14.422
-13.413
-12.398
-11.384
-10.376
-9.376
-8.392
-7.432
-6.505
-5.621
-4.79
-4.018
-3.315
-2.685
-2.132
-1.661
-1.273
-0.96
-0.723
-0.566
-0.496
-0.531
-0.678
-0.932
-1.29
-1.742
-2.266
-2.835
-3.401
-3.9
-4.294
-4.556
-4.674
-4.658
-4.503
-4.197
-3.74
-3.121
-2.332
-1.382
-0.267
1.009
2.388
3.77
5.006
5.905
6.328
6.182
5.386
3.911
1.723
-1.186
-4.743
-8.87
-13.502
-18.591
-24.135
-30.086
-36.255
-42.348
-47.98
-52.703
-56.171
-57.982
-57.624
-54.869
-49.708
-42.428
-33.771
-24.367
-14.513
-4.697
4.456
12.915
21.023
29.891
41.556
57.175
76.956
101.221
130.143
162.955
197.914
231.177
257.042
271.432
271.678
255.108
219.53
163.236
85.912
-8.949
-114.84
-226.42
-339.014
-447.714
-547.8
-633.036
-697.54
-739.296
-759.12
-757.945
-737.325
-698.866
-644.241
-578.458
-507.847
-436.826
-368.759
-305.964
-249.557
-201.419
-163.806
-136.101
-116.072
-101.49
-89.628
-79.126
-69.887
-60.913
-50.67
-38.79
-25.647
-12.301
-0.701
8.271
14.777
18.768
20.164
19.039
15.53
10.326
4.729
-0.352
-4.49
-7.42
-9.139
-9.602
-8.658
-6.33
-2.825
1.632
6.82
12.569
18.813
25.468
32.389
39.392
46.236
52.722
58.73
64.195
69.097
73.411
77.11
80.2
82.73
84.779
86.432
87.753
88.784
89.578
90.207
90.759
91.341
92.03
92.872
93.899
95.129
96.581
98.27
100.193
102.331
104.662
107.172
109.848
112.689
115.682
118.804
122.033
125.344
128.715
132.131
135.572
139.017
142.446
145.842
149.188
152.471
155.674
158.776
161.756
164.593
167.265
169.752
172.035
174.092
175.906
177.46
178.74
179.735
180.432
180.821
180.895
180.647
180.074
179.172
177.941
176.381
174.496
172.29
169.77
166.945
163.823
160.415
156.735
152.795
148.611
144.199
139.576
134.76
129.769
124.625
119.347
113.957
108.474
102.922
97.32
91.692
86.057
80.436
74.85
69.316
63.854
58.481
53.214
48.067
43.056
38.194
33.493
28.965
24.619
20.464
16.507
12.755
9.212
5.883
2.77
-0.126
-2.803
-5.264
-7.509
-9.542
-11.366
-12.986
-14.408
-15.639
-16.685
-17.554
-18.256
-18.799
-19.192
-19.445
-19.569
-19.573
-19.468
-19.264
-18.971
-18.599
-18.159
-17.659
-17.11
-16.52
-15.898
-15.252
-14.59
-13.919
-13.246
-12.577
-11.918
-11.275
-10.652
-10.053
-9.482
-8.941
-8.435
-7.963
-7.53
-7.134
-6.778
-6.462
-6.186
-5.948
-5.75
-5.588
-5.463
-5.373
-5.315
-5.289
-5.292
-5.323
-5.381
-5.463
-5.568
-5.695
-5.842
-6.008
-6.191
-6.39
-6.605
-6.834
-7.077
-7.334
-7.605
-7.89
-8.188
-8.501
-8.827
-9.167
-9.52
-9.887
-10.267
-10.66
-11.066
-11.486
-11.919
-12.365
-12.825
-13.298
-13.784
-14.282
-14.79
-15.307
-15.831
-16.36
-16.89
-17.42
-17.947
-18.468
-18.981
-19.481
-19.967
-20.432
-20.874
-21.287
-21.667
-22.007
-22.303
-22.55
-22.745
-22.885
-22.968
-22.992
-22.953
-22.85
-22.683
-22.449
-22.147
-21.776
-21.335
-20.824
-20.247
-19.605
-18.903
-18.144
-17.333
-16.478
-15.587
-14.666
-13.722
-12.761
-11.788
-10.809
-9.831
-8.86
-7.901
-6.961
-6.048
-5.172
-4.344
-3.575
-2.871
-2.237
-1.677
-1.192
-0.786
-0.456
-0.198
-0.01
0.103
0.132
0.061
-0.119
-0.405
-0.789
-1.257
-1.781
-2.325
-2.846
-3.292
-3.626
-3.831
-3.899
-3.84
-3.659
-3.347
-2.894
-2.278
-1.476
-0.481
0.701
2.051
3.492
4.894
6.111
6.969
7.328
7.111
6.253
4.735
2.558
-0.257
-3.65
-7.56
-11.954
-16.819
-22.138
-27.839
-33.688
-39.322
-44.346
-48.315
-50.871
-51.654
-50.192
-46.299
-40.09
-31.966
-22.734
-13.105
-3.351
6.098
14.603
22.24
29.494
37.444
48.157
62.961
82.07
105.888
134.655
167.107
200.872
231.929
254.615
264.543
258.774
234.261
188.352
120.295
31.552
-73.389
-187.587
-304.828
-419.654
-526.2
-618.142
-689.815
-737.587
-760.819
-761.602
-742.366
-705.511
-653.956
-591.82
-524.443
-456.823
-392.619
-333.444
-280.07
-233.325
-194.173
-163.058
-138.802
-119.289
-102.269
-86.641
-72.307
-59.155
-46.603
-33.707
-20.308
-7.249
4.003
12.507
18.247
21.54
22.645
21.474
18.04
12.918
7.194
1.858
-2.545
-5.796
-7.901
-8.781
-8.272
-6.357
-3.186
1.015
6.015
11.648
17.843
24.493
31.445
38.503
45.414
51.967
58.037
63.541
68.443
72.728
76.371
79.379
81.805
83.723
85.211
86.339
87.155
87.713
88.089
88.374
88.676
89.082
89.641
90.392
91.357
92.554
93.999
95.69
97.606
99.729
102.043
104.539
107.212
110.051
113.038
116.149
119.359
122.648
125.998
129.39
132.802
136.216
139.613
142.976
146.293
149.546
152.714
155.776
158.709
161.491
164.103
166.522
168.728
170.701
172.425
173.883
175.064
175.954
176.544
176.823
176.785
176.425
175.739
174.726
173.384
171.715
169.724
167.416
164.797
161.877
158.665
155.173
151.413
147.4
143.15
138.678
134.002
129.141
124.113
118.939
113.64
108.236
102.748
97.198
91.607
85.997
80.388
74.799
69.25
63.76
58.347
53.026
47.816
42.729
37.781
32.985
28.351
23.892
19.616
15.532
11.647
7.966
4.495
1.237
-1.805
-4.631
-7.24
-9.632
-11.811
-13.779
-15.539
-17.097
-18.459
-19.631
-20.621
-21.436
-22.086
-22.578
-22.923
-23.13
-23.209
-23.17
-23.024
-22.781
-22.45
-22.043
-21.569
-21.039
-20.461
-19.844
-19.198
-18.531
-17.85
-17.164
-16.48
-15.803
-15.139
-14.495
-13.875
-13.284
-12.724
-12.2
-11.714
-11.269
-10.865
-10.504
-10.187
-9.913
-9.683
-9.496
-9.35
-9.246
-9.181
-9.153
-9.161
-9.203
-9.276
-9.377
-9.505
-9.657
-9.829
-10.02
-10.227
-10.448
-10.681
-10.924
-11.175
-11.432
-11.695
-11.961
-12.23
-12.501
-12.773
-13.045
-13.317
-13.59
-13.863
-14.138
-14.416
-14.696
-14.98
-15.269
-15.563
-15.863
-16.169
-16.483
-16.804
-17.134
-17.473
-17.822
-18.181
-18.552
-18.935
-19.328
-19.733
-20.148
-20.571
-21.002
-21.439
-21.878
-22.318
-22.757
-23.192
-23.621
-24.041
-24.449
-24.84
-25.211
-25.556
-25.872
-26.152
-26.392
-26.587
-26.733
-26.828
-26.869
-26.854
-26.78
-26.644
-26.446
-26.184
-25.857
-25.462
-24.999
-24.467
-23.87
-23.21
-22.489
-21.713
-20.885
-20.013
-19.105
-18.167
-17.205
-16.226
-15.235
-14.237
-13.239
-12.246
-11.264
-10.299
-9.359
-8.454
-7.597
-6.796
-6.058
-5.39
-4.793
-4.272
-3.827
-3.459
-3.161
-2.933
-2.779
-2.709
-2.739
-2.878
-3.123
-3.467
-3.895
-4.378
-4.883
-5.366
-5.776
-6.077
-6.25
-6.288
-6.201
-5.993
-5.656
-5.179
-4.538
-3.712
-2.692
-1.484
-0.108
1.362
2.797
4.055
4.962
5.384
5.241
4.47
3.048
0.976
-1.726
-5.008
-8.811
-13.105
-17.883
-23.12
-28.745
-34.531
-40.118
-45.123
-49.108
-51.718
-52.591
-51.256
-47.513
-41.459
-33.467
-24.301
-14.65
-4.786
4.851
13.593
21.475
28.933
36.995
47.698
62.368
81.263
104.867
133.504
166.006
200.116
231.873
255.616
266.964
262.876
240.154
196.007
129.419
41.671
-62.789
-177.268
-295.776
-412.898
-522.827
-619.066
-695.433
-748.223
-776.853
-782.576
-767.114
-732.396
-680.665
-616.234
-545.16
-472.159
-400.63
-333.518
-272.656
-219.769
-177.089
-144.799
-120.979
-104.094
-92.286
-83.199
-75.794
-69.016
-60.973
-51.03
-39.604
-26.994
-14.362
-3.354
5.542
12.03
15.55
16.269
14.521
10.611
5.518
0.421
-4.047
-7.438
-9.475
-10.206
-9.586
-7.55
-4.26
0.063
5.215
10.994
17.29
24.027
31.071
38.237
45.291
52.014
58.267
63.968
69.079
73.584
77.459
80.709
83.386
85.554
87.291
88.661
89.707
90.486
91.071
91.553
92.036
92.611
93.329
94.23
95.342
96.678
98.254
100.07
102.106
104.342
106.767
109.37
112.147
115.09
118.178
121.391
124.704
128.096
131.551
135.048
138.568
142.091
145.6
149.079
152.516
155.894
159.191
162.388
165.462
168.391
171.156
173.734
176.104
178.247
180.146
181.785
183.151
184.231
185.014
185.491
185.652
185.494
185.011
184.2
183.061
181.594
179.802
177.69
175.265
172.532
169.502
166.185
162.593
158.74
154.639
150.307
145.76
141.016
136.093
131.01
125.788
120.447
115.007
109.489
103.915
98.306
92.682
87.062
81.466
75.913
70.421
65.007
59.687
54.478
49.392
44.445
39.649
35.015
30.553
26.272
22.181
18.287
14.594
11.108
7.832
4.768
1.918
-0.719
-3.143
-5.356
-7.361
-9.163
-10.766
-12.175
-13.398
-14.441
-15.311
-16.018
-16.571
-16.977
-17.247
-17.39
-17.417
-17.337
-17.161
-16.897
-16.558
-16.151
-15.687
-15.175
-14.623
-14.041
-13.436
-12.817
-12.191
-11.564
-10.943
-10.335
-9.745
-9.176
-8.635
-8.125
-7.649
-7.209
-6.809
-6.45
-6.134
-5.862
-5.633
-5.449
-5.309
-5.212
-5.158
-5.144
-5.171
-5.234
-5.334
-5.467
-5.632
-5.826
-6.048
-6.296
-6.567
-6.86
-7.173
-7.504
-7.85
-8.211
-8.584
-8.968
-9.363
-9.767
-10.179
-10.599
-11.027
-11.462
-11.904
-12.351
-12.804
-13.261
-13.722
-14.187
-14.656
-15.128
-15.604
-16.083
-16.566
-17.053
-17.543
-18.035
-18.528
-19.022
-19.514
-20.002
-20.486
-20.961
-21.427
-21.881
-22.321
-22.746
-23.151
-23.534
-23.892
-24.219
-24.512
-24.766
-24.978
-25.143
-25.258
-25.322
-25.332
-25.287
-25.185
-25.024
-24.803
-24.522
-24.178
-23.772
-23.301
-22.767
-22.171
-21.517
-20.807
-20.047
-19.24
-18.392
-17.513
-16.609
-15.685
-14.747
-13.801
-12.852
-11.906
-10.968
-10.043
-9.137
-8.259
-7.417
-6.624
-5.888
-5.217
-4.614
-4.085
-3.63
-3.252
-2.951
-2.721
-2.561
-2.476
-2.474
-2.573
-2.782
-3.099
-3.514
-4.015
-4.574
-5.155
-5.716
-6.204
-6.583
-6.836
-6.954
-6.949
-6.826
-6.578
-6.196
-5.658
-4.942
-4.041
-2.963
-1.725
-0.404
0.871
1.96
2.686
2.915
2.568
1.585
-0.051
-2.333
-5.234
-8.692
-12.644
-17.056
-21.911
-27.187
-32.813
-38.559
-44.071
-48.964
-52.798
-55.223
-55.886
-54.328
-50.383
-44.176
-36.1
-26.951
-17.416
-7.756
1.611
10.069
17.703
24.982
32.946
43.583
58.141
76.795
99.893
127.618
158.74
190.97
220.468
241.84
250.869
244.739
220.578
175.889
110.049
24.604
-76.194
-185.779
-297.982
-407.458
-508.448
-594.694
-661.146
-704.823
-725.078
-723.925
-704.17
-668.352
-619.814
-563.172
-502.788
-442.557
-385.874
-333.999
-287.126
-245.836
-210.175
-179.57
-153.758
-131.66
-111.369
-92.344
-74.784
-58.599
-44.014
-30.958
-18.674
-7.363
1.82
8.452
12.52
14.188
14.093
12.52
9.246
4.622
-0.46
-5.305
-9.305
-12.128
-13.861
-14.475
-13.784
-11.767
-8.522
-4.205
0.928
6.686
12.989
19.714
26.724
33.849
40.843
47.509
53.726
59.41
64.53
69.072
73.013
76.364
79.175
81.512
83.456
85.074
86.416
87.539
88.511
89.416
90.356
91.409
92.625
94.041
95.675
97.544
99.66
102.023
104.609
107.401
110.381
113.538
116.864
120.348
123.967
127.699
131.517
135.398
139.323
143.27
147.218
151.144
155.027
158.85
162.598
166.25
169.785
173.18
176.411
179.455
182.291
184.896
187.249
189.329
191.12
192.604
193.77
194.605
195.097
195.238
195.022
194.443
193.498
192.188
190.511
188.471
186.073
183.324
180.233
176.81
173.066
169.014
164.671
160.052
155.175
150.058
144.72
139.183
133.467
127.595
121.59
115.474
109.27
103.002
96.693
90.366
84.043
77.746
71.495
65.31
59.212
53.217
47.343
41.606
36.021
30.601
25.36
20.308
15.455
10.81
6.38
2.171
-1.812
-5.566
-9.089
-12.379
-15.437
-18.263
-20.861
-23.233
-25.384
-27.318
-29.042
-30.563
-31.887
-33.023
-33.98
-34.767
-35.393
-35.868
-36.201
-36.403
-36.484
-36.454
-36.323
-36.101
-35.797
-35.423
-34.986
-34.496
-33.961
-33.39
-32.791
-32.17
-31.536
-30.893
-30.249
-29.61
-28.979
-28.363
-27.766
-27.191
-26.644
-26.126
-25.642
-25.193
-24.781
-24.409
-24.077
-23.788
-23.543
-23.342
-23.186
-23.077
-23.013
-22.995
-23.023
-23.095
-23.211
-23.369
-23.569
-23.808
-24.086
-24.401
-24.751
-25.135
-25.551
-25.996
-26.469
-26.966
-27.485
-28.021
-28.572
-29.134
-29.702
-30.273
-30.843
-31.407
-31.961
-32.503
-33.027
-33.527
-33.999
-34.436
-34.835
-35.188
-35.491
-35.74
-35.93
-36.059
-36.123
-36.122
-36.052
-35.911
-35.698
-35.412
-35.052
-34.618
-34.109
-33.526
-32.873
-32.153
-31.37
-30.53
-29.638
-28.7
-27.727
-26.726
-25.704
-24.666
-23.619
-22.569
-21.524
-20.492
-19.478
-18.488
-17.533
-16.622
-15.767
-14.979
-14.262
-13.623
-13.065
-12.589
-12.202
-11.902
-11.683
-11.547
-11.496
-11.537
-11.691
-11.969
-12.362
-12.862
-13.447
-14.082
-14.742
-15.391
-15.976
-16.467
-16.841
-17.088
-17.229
-17.274
-17.214
-17.038
-16.705
-16.179
-15.469
-14.587
-13.572
-12.524
-11.533
-10.721
-10.26
-10.272
-10.838
-12.015
-13.781
-16.09
-18.908
-22.185
-25.9
-30.069
-34.67
-39.64
-44.833
-49.982
-54.786
-58.894
-61.922
-63.433
-62.943
-60.223
-55.335
-48.651
-40.844
-32.482
-23.818
-15.262
-7.411
-0.294
6.463
13.957
24.157
38.179
56.176
78.366
104.829
134.78
166.542
196.487
219.37
231.465
230.119
212.763
177.27
121.96
47
-43.903
-144.813
-250.698
-356.63
-457.482
-547.775
-620.955
-672.608
-702.072
-710.683
-700.185
-673.007
-631.891
-580.92
-526.32
-472.809
-422.725
-377.301
-336.754
-300.963
-270.017
-242.917
-217.237
-191.456
-165.071
-138.139
-111.604
-86.289
-62.603
-41.277
-23.277
-9.096
1.103
7.474
10.644
11.196
9.64
6.572
2.491
-2.188
-7.05
-11.722
-15.878
-19.236
-21.606
-22.887
-22.997
-21.896
-19.579
-16.096
-11.587
-6.229
-0.208
6.307
13.175
20.255
27.371
34.315
40.91
47.032
52.613
57.628
62.05
65.86
69.07
71.729
73.918
75.719
77.204
78.427
79.451
80.345
81.194
82.092
83.106
84.281
85.648
87.228
89.037
91.091
93.384
95.899
98.613
101.513
104.584
107.82
111.206
114.72
118.336
122.03
125.781
129.568
133.372
137.168
140.936
144.656
148.308
151.879
155.347
158.691
161.888
164.915
167.751
170.373
172.761
174.892
176.75
178.315
179.575
180.517
181.128
181.4
181.325
180.896
180.111
178.967
177.465
175.606
173.394
170.837
167.941
164.718
161.177
157.332
153.198
148.79
144.125
139.222
134.1
128.778
123.279
117.624
111.836
105.938
99.952
93.902
87.811
81.702
75.598
69.521
63.492
57.531
51.657
45.89
40.246
34.741
29.391
24.21
19.21
14.402
9.797
5.403
1.227
-2.725
-6.447
-9.937
-13.193
-16.214
-19
-21.553
-23.875
-25.97
-27.842
-29.498
-30.944
-32.186
-33.234
-34.095
-34.778
-35.294
-35.652
-35.862
-35.935
-35.881
-35.71
-35.434
-35.062
-34.604
-34.072
-33.473
-32.819
-32.117
-31.376
-30.605
-29.81
-29
-28.18
-27.357
-26.537
-25.724
-24.923
-24.139
-23.375
-22.633
-21.918
-21.23
-20.573
-19.946
-19.351
-18.789
-18.26
-17.764
-17.302
-16.872
-16.475
-16.111
-15.778
-15.478
-15.208
-14.969
-14.76
-14.579
-14.427
-14.304
-14.208
-14.14
-14.099
-14.086
-14.101
-14.144
-14.215
-14.314
-14.44
-14.593
-14.773
-14.979
-15.212
-15.471
-15.755
-16.064
-16.399
-16.759
-17.143
-17.548
-17.974
-18.419
-18.88
-19.354
-19.838
-20.328
-20.822
-21.316
-21.807
-22.291
-22.764
-23.222
-23.66
-24.074
-24.457
-24.803
-25.109
-25.367
-25.574
-25.726
-25.82
-25.854
-25.824
-25.728
-25.564
-25.33
-25.025
-24.648
-24.195
-23.667
-23.067
-22.396
-21.658
-20.857
-19.998
-19.088
-18.136
-17.149
-16.133
-15.096
-14.044
-12.981
-11.917
-10.855
-9.8
-8.759
-7.74
-6.752
-5.807
-4.914
-4.08
-3.313
-2.619
-2.002
-1.466
-1.011
-0.631
-0.325
-0.1
0.038
0.07
-0.011
-0.199
-0.49
-0.875
-1.331
-1.828
-2.315
-2.729
-3.028
-3.192
-3.204
-3.076
-2.801
-2.364
-1.766
-0.995
-0.042
1.087
2.399
3.887
5.488
7.09
8.536
9.632
10.237
10.262
9.627
8.296
6.235
3.439
-0.014
-4.04
-8.572
-13.577
-19.061
-24.973
-31.102
-37.126
-42.634
-47.17
-50.386
-51.885
-51.16
-47.967
-42.311
-34.503
-25.312
-15.431
-5.17
5.01
14.509
23.359
31.98
41.427
53.665
70.007
90.762
116.355
147.074
181.785
218.246
252.548
279.082
293.453
292.626
273.39
232.887
170.035
85.821
-15.638
-127.591
-244.138
-359.919
-468.968
-565.129
-642.525
-697.125
-728.152
-737.149
-725.781
-696.274
-651.316
-594.312
-530.516
-464.638
-399.801
-338.497
-282.37
-232.266
-189.534
-155.21
-128.177
-107.095
-90.543
-76.417
-63.824
-52.59
-41.73
-30.172
-17.837
-4.821
8.1
19.261
28.023
34.438
38.356
39.753
38.748
35.466
30.568
25.28
20.435
16.485
13.715
12.139
11.817
12.88
15.29
18.846
23.326
28.519
34.268
40.514
47.174
54.107
61.129
68.002
74.531
80.597
86.135
91.121
95.529
99.336
102.554
105.235
107.461
109.314
110.857
112.128
113.181
114.083
114.921
115.8
116.791
117.941
119.28
120.827
122.598
124.609
126.855
129.314
131.963
134.787
137.775
140.921
144.213
147.628
151.144
154.736
158.383
162.069
165.775
169.479
173.163
176.808
180.399
183.923
187.362
190.697
193.908
196.972
199.872
202.587
205.099
207.387
209.435
211.227
212.752
213.996
214.95
215.605
215.953
215.989
215.71
215.114
214.201
212.97
211.426
209.573
207.419
204.971
202.237
199.229
195.958
192.437
188.68
184.704
180.523
176.155
171.618
166.931
162.112
157.182
152.161
147.067
141.923
136.747
131.56
126.38
121.227
116.118
111.07
106.099
101.222
96.453
91.805
87.29
82.921
78.709
74.662
70.79
67.099
63.596
60.285
57.172
54.258
51.547
49.038
46.731
44.626
42.72
41.011
39.494
38.164
37.016
36.044
35.241
34.6
34.111
33.768
33.561
33.482
33.522
33.671
33.921
34.262
34.685
35.181
35.741
36.357
37.02
37.723
38.457
39.216
39.993
40.781
41.574
42.365
43.151
43.925
44.685
45.425
46.142
46.833
47.496
48.129
48.73
49.298
49.832
50.331
50.795
51.224
51.618
51.976
52.298
52.587
52.841
53.061
53.25
53.406
53.531
53.625
53.69
53.725
53.73
53.706
53.654
53.573
53.466
53.331
53.171
52.986
52.777
52.544
52.289
52.012
51.713
51.392
51.051
50.69
50.311
49.915
49.504
49.079
48.644
48.201
47.753
47.303
46.853
46.406
45.964
45.533
45.114
44.711
44.331
43.976
43.652
43.365
43.119
42.918
42.765
42.663
42.614
42.621
42.687
42.812
42.999
43.248
43.562
43.941
44.387
44.898
45.471
46.104
46.793
47.534
48.32
49.143
49.996
50.872
51.767
52.673
53.586
54.5
55.41
56.313
57.202
58.069
58.907
59.704
60.449
61.137
61.758
62.307
62.78
63.172
63.484
63.723
63.888
63.975
63.978
63.879
63.67
63.357
62.941
62.432
61.852
61.229
60.614
60.069
59.631
59.325
59.166
59.142
59.256
59.522
59.932
60.501
61.237
62.134
63.202
64.434
65.772
67.113
68.305
69.162
69.551
69.377
68.56
67.07
64.873
61.967
58.429
54.331
49.738
44.685
39.161
33.219
27.048
20.951
15.327
10.605
7.113
5.236
5.458
8.038
13.02
20.102
28.546
37.714
47.258
56.796
65.822
74.126
81.943
90.25
100.879
115.253
133.935
157.115
184.887
216.883
251.546
285.512
313.687
331.304
334.923
321.86
289.717
236.302
161.132
66.895
-40.808
-155.768
-272.427
-385.69
-490.366
-579.938
-648.513
-693.325
-714.425
-713.381
-692.33
-653.102
-597.833
-531.525
-460.364
-389.129
-321.492
-259.492
-204.027
-156.808
-119.818
-92.517
-72.795
-58.368
-46.518
-35.953
-26.61
-17.574
-7.417
4.238
17.033
29.928
41.023
49.446
55.355
58.715
59.46
57.681
53.527
47.681
41.427
35.664
30.817
27.152
24.678
23.443
23.598
25.122
27.813
31.455
35.834
40.784
46.238
52.108
58.251
64.483
70.563
76.292
81.553
86.278
90.448
94.039
97.023
99.404
101.233
102.585
103.545
104.177
104.521
104.632
104.58
104.455
104.364
104.384
104.56
104.924
105.494
106.287
107.319
108.585
110.065
111.736
113.582
115.591
117.759
120.073
122.508
125.042
127.647
130.301
132.986
135.681
138.364
141.015
143.614
146.145
148.593
150.941
153.167
155.251
157.171
158.904
160.433
161.735
162.791
163.583
164.096
164.315
164.23
163.83
163.105
162.049
160.657
158.926
156.853
154.44
151.686
148.597
145.179
141.438
137.384
133.028
128.381
123.457
118.271
112.839
107.178
101.306
95.242
89.005
82.615
76.093
69.461
62.74
55.952
49.118
42.26
35.4
28.557
21.752
15.001
8.323
1.735
-4.748
-11.112
-17.343
-23.428
-29.355
-35.114
-40.695
-46.089
-51.291
-56.295
-61.098
-65.697
-70.09
-74.28
-78.266
-82.052
-85.641
-89.036
-92.241
-95.262
-98.106
-100.781
-103.294
-105.655
-107.874
-109.961
-111.928
-113.784
-115.54
-117.204
-118.784
-120.291
-121.732
-123.117
-124.453
-125.748
-127.012
-128.253
-129.478
-130.693
-131.905
-133.117
-134.332
-135.553
-136.778
-138.008
-139.239
-140.471
-141.704
-142.937
-144.168
-145.399
-146.632
-147.869
-149.113
-150.362
-151.613
-152.863
-154.103
-155.33
-156.538
-157.721
-158.876
-160.001
-161.098
-162.18
-163.255
-164.326
-165.39
-166.427
-167.428
-168.394
-169.326
-170.232
-171.132
-172.057
-173.06
-174.227
-175.629
-177.314
-179.311
-181.609
-184.191
-187.054
-190.196
-193.629
-197.364
-201.389
-205.707
-210.329
-215.221
-220.31
-225.448
-230.389
-234.928
-238.926
-242.283
-244.987
-247.065
-248.535
-249.45
-249.871
-249.826
-249.369
-248.548
-247.408
-246.104
-244.892
-244.116
-244.29
-245.945
-249.355
-254.578
-261.401
-269.312
-277.828
-286.647
-295.538
-304.345
-313.499
-323.934
-336.881
-353.934
-376.19
