-174.506
-157.616
-140.534
-123.567
-106.991
-91.024
-75.852
-61.649
-48.582
-36.848
-26.65
-18.073
-11.123
-5.695
-1.579
1.428
3.554
5.006
5.948
6.553
6.955
7.247
7.489
7.757
8.127
8.719
9.68
11.096
13.008
15.399
18.18
21.25
24.483
27.765
31.011
34.155
37.165
40.033
42.778
45.414
47.955
50.391
52.682
54.805
56.744
58.508
60.128
61.649
63.133
64.635
66.206
67.879
69.672
71.587
73.615
75.739
77.937
80.192
82.498
84.849
87.24
89.663
92.103
94.54
96.949
99.304
101.575
103.734
105.755
107.616
109.298
110.785
112.066
113.129
113.961
114.551
114.885
114.951
114.738
114.235
113.434
112.327
110.911
109.183
107.147
104.805
102.161
99.221
95.995
92.49
88.719
84.692
80.423
75.926
71.216
66.312
61.231
55.993
50.618
45.128
39.544
33.889
28.183
22.45
16.71
10.985
5.294
-0.341
-5.901
-11.367
-16.719
-21.941
-27.014
-31.924
-36.655
-41.195
-45.532
-49.656
-53.559
-57.232
-60.671
-63.869
-66.825
-69.535
-71.999
-74.217
-76.19
-77.921
-79.415
-80.675
-81.708
-82.521
-83.121
-83.517
-83.717
-83.732
-83.572
-83.246
-82.766
-82.142
-81.386
-80.51
-79.524
-78.44
-77.27
-76.024
-74.714
-73.35
-71.942
-70.5
-69.032
-67.548
-66.057
-64.565
-63.079
-61.608
-60.156
-58.73
-57.334
-55.973
-54.652
-53.372
-52.139
-50.953
-49.817
-48.731
-47.698
-46.717
-45.789
-44.914
-44.09
-43.319
-42.597
-41.926
-41.303
-40.727
-40.196
-39.71
-39.265
-38.86
-38.495
-38.167
-37.875
-37.619
-37.397
-37.21
-37.055
-36.933
-36.843
-36.784
-36.755
-36.755
-36.784
-36.842
-36.928
-37.042
-37.185
-37.355
-37.554
-37.782
-38.037
-38.319
-38.628
-38.961
-39.32
-39.701
-40.103
-40.526
-40.967
-41.425
-41.899
-42.387
-42.887
-43.393
-43.904
-44.414
-44.919
-45.414
-45.895
-46.356
-46.794
-47.205
-47.587
-47.936
-48.25
-48.523
-48.754
-48.938
-49.073
-49.157
-49.185
-49.157
-49.072
-48.93
-48.734
-48.485
-48.184
-47.835
-47.443
-47.011
-46.544
-46.042
-45.507
-44.941
-44.349
-43.735
-43.103
-42.457
-41.803
-41.151
-40.511
-39.895
-39.306
-38.745
-38.216
-37.718
-37.255
-36.827
-36.428
-36.059
-35.726
-35.437
-35.216
-35.076
-35.011
-35.011
-35.057
-35.118
-35.169
-35.185
-35.118
-34.939
-34.641
-34.223
-33.71
-33.126
-32.45
-31.661
-30.727
-29.608
-28.31
-26.852
-25.258
-23.614
-22.031
-20.625
-19.571
-19.001
-18.967
-19.518
-20.639
-22.288
-24.482
-27.202
-30.415
-34.128
-38.318
-42.948
-47.957
-53.122
-58.11
-62.572
-66.071
-68.244
-68.776
-67.234
-63.466
-57.622
-50.012
-41.326
-32.217
-22.929
-13.918
-5.877
1.229
7.828
14.92
24.507
37.895
55.38
77.556
104.876
136.336
169.835
201.471
225.642
237.979
235.365
214.501
172.454
108.014
22.291
-80.361
-193.321
-310.599
-426.7
-535.741
-631.097
-706.429
-757.925
-784.921
-788.625
-770.782
-733.37
-678.7
-611.23
-537.18
-461.4
-387.399
-318.195
-255.653
-201.549
-158.154
-125.603
-101.88
-85.348
-74.051
-65.571
-58.836
-52.719
-45.245
-35.747
-24.653
-12.304
0.079
10.82
19.427
25.591
28.722
28.965
26.655
22.114
16.362
10.605
5.485
1.45
-1.222
-2.58
-2.575
-1.141
1.551
5.275
9.824
15
20.7
26.858
33.346
39.978
46.52
52.748
58.526
63.774
68.454
72.551
76.042
78.934
81.28
83.151
84.626
85.771
86.628
87.251
87.714
88.107
88.537
89.09
89.821
90.767
91.953
93.393
95.103
97.078
99.297
101.737
104.383
107.222
110.247
113.449
116.803
120.287
123.874
127.541
131.269
135.036
138.821
142.602
146.359
150.075
153.735
157.322
160.812
164.184
167.413
170.478
173.356
176.025
178.463
180.649
182.566
184.197
185.529
186.549
187.244
187.606
187.627
187.301
186.626
185.599
184.219
182.489
180.413
177.996
175.248
172.175
168.79
165.105
161.134
156.892
152.395
147.663
142.712
137.563
132.237
126.755
121.14
115.413
109.598
103.718
97.796
91.854
85.916
80.002
74.134
68.331
62.614
57.001
51.509
46.154
40.952
35.916
31.06
26.395
21.932
17.679
13.643
9.831
6.248
2.897
-0.22
-3.101
-5.748
-8.16
-10.341
-12.295
-14.025
-15.537
-16.838
-17.935
-18.837
-19.552
-20.089
-20.458
-20.67
-20.735
-20.664
-20.467
-20.155
-19.739
-19.23
-18.639
-17.976
-17.25
-16.473
-15.652
-14.798
-13.918
-13.019
-12.11
-11.198
-10.288
-9.387
-8.499
-7.63
-6.783
-5.963
-5.173
-4.415
-3.691
-3.004
-2.354
-1.742
-1.17
-0.637
-0.145
0.309
0.722
1.097
1.433
1.731
1.992
2.218
2.408
2.564
2.685
2.774
2.829
2.852
2.843
2.801
2.727
2.622
2.486
2.32
2.124
1.9
1.647
1.366
1.059
0.724
0.364
-0.022
-0.432
-0.865
-1.319
-1.792
-2.282
-2.787
-3.304
-3.83
-4.363
-4.898
-5.435
-5.97
-6.499
-7.018
-7.522
-8.006
-8.465
-8.895
-9.289
-9.642
-9.951
-10.211
-10.421
-10.577
-10.677
-10.718
-10.698
-10.616
-10.47
-10.261
-9.986
-9.646
-9.241
-8.775
-8.252
-7.675
-7.049
-6.377
-5.666
-4.926
-4.162
-3.38
-2.583
-1.776
-0.966
-0.163
0.629
1.404
2.154
2.871
3.545
4.162
4.717
5.206
5.628
5.982
6.266
6.476
6.615
6.687
6.694
6.634
6.496
6.257
5.913
5.477
4.962
4.398
3.807
3.205
2.626
2.116
1.697
1.389
1.187
1.063
1.027
1.098
1.298
1.685
2.283
3.075
4.048
5.148
6.289
7.4
8.358
9.002
9.245
9.015
8.28
7.085
5.427
3.314
0.784
-2.18
-5.592
-9.427
-13.626
-18.028
-22.359
-26.345
-29.652
-31.912
-32.762
-31.745
-28.659
-23.627
-16.965
-9.33
-1.336
6.777
14.606
21.521
27.542
33.128
39.309
48.066
60.766
77.705
99.331
125.972
156.578
189.085
219.845
243.551
255.989
254.203
235.043
195.713
135.231
54.705
-41.894
-148.248
-258.628
-367.717
-469.382
-556.988
-624.8
-669.442
-690.628
-690.426
-671.19
-635.646
-587.62
-532.323
-475.477
-421.22
-371.645
-327.369
-288.426
-254.68
-225.638
-199.808
-175.008
-149.939
-124.268
-98.335
-73.014
-49.012
-26.823
-7.204
8.987
21.34
29.799
34.636
36.468
35.851
33.294
29.387
24.635
19.486
14.375
9.631
5.548
2.381
0.274
-0.68
-0.411
1.085
3.781
7.611
12.411
18.01
24.237
30.9
37.845
44.902
51.857
58.542
64.81
70.553
75.731
80.319
84.292
87.659
90.456
92.733
94.574
96.059
97.247
98.209
99.021
99.762
100.532
101.406
102.431
103.647
105.077
106.734
108.633
110.776
113.142
115.719
118.488
121.435
124.553
127.827
131.235
134.753
138.356
142.02
145.726
149.454
153.183
156.892
160.561
164.172
167.71
171.157
174.489
177.683
180.717
183.567
186.212
188.631
190.8
192.7
194.314
195.626
196.623
197.292
197.622
197.604
197.232
196.499
195.403
193.942
192.118
189.93
187.386
184.491
181.253
177.682
173.79
169.589
165.094
160.32
155.284
150.005
144.501
138.792
132.901
126.85
120.66
114.354
107.957
101.491
94.979
88.445
81.911
75.398
68.929
62.522
56.198
49.975
43.87
37.901
32.083
26.429
20.954
15.669
10.584
5.71
1.053
-3.379
-7.581
-11.549
-15.28
-18.771
-22.022
-25.035
-27.81
-30.351
-32.66
-34.744
-36.609
-38.259
-39.704
-40.951
-42.008
-42.884
-43.59
-44.134
-44.527
-44.778
-44.898
-44.898
-44.787
-44.577
-44.276
-43.897
-43.447
-42.936
-42.375
-41.77
-41.131
-40.466
-39.782
-39.087
-38.386
-37.687
-36.994
-36.315
-35.653
-35.012
-34.398
-33.812
-33.258
-32.738
-32.254
-31.809
-31.404
-31.04
-30.718
-30.44
-30.206
-30.017
-29.872
-29.771
-29.713
-29.697
-29.723
-29.788
-29.892
-30.033
-30.209
-30.42
-30.664
-30.938
-31.241
-31.57
-31.921
-32.292
-32.68
-33.08
-33.49
-33.905
-34.323
-34.739
-35.152
-35.557
-35.951
-36.329
-36.688
-37.021
-37.325
-37.594
-37.822
-38.005
-38.14
-38.222
-38.249
-38.218
-38.127
-37.972
-37.753
-37.467
-37.112
-36.687
-36.19
-35.621
-34.983
-34.276
-33.505
-32.673
-31.786
-30.849
-29.869
-28.854
-27.81
-26.74
-25.651
-24.547
-23.433
-22.314
-21.194
-20.08
-18.981
-17.904
-16.862
-15.865
-14.922
-14.039
-13.221
-12.47
-11.791
-11.185
-10.647
-10.176
-9.779
-9.464
-9.247
-9.142
-9.147
-9.255
-9.452
-9.712
-10
-10.277
-10.494
-10.611
-10.611
-10.487
-10.252
-9.919
-9.489
-8.952
-8.287
-7.475
-6.503
-5.384
-4.129
-2.805
-1.526
-0.423
0.337
0.611
0.311
-0.621
-2.201
-4.417
-7.232
-10.605
-14.483
-18.826
-23.622
-28.856
-34.469
-40.273
-45.971
-51.2
-55.534
-58.624
-60.064
-59.39
-56.41
-51.185
-44.068
-35.757
-26.837
-17.571
-8.398
0.074
7.82
15.173
23.214
33.899
48.298
66.61
89.123
115.998
146.548
179.121
209.999
233.774
246.572
245.601
228.181
192.078
135.455
58.373
-35.462
-139.922
-249.648
-359.51
-464.356
-558.893
-636.729
-693.283
-727.378
-739.839
-732.286
-707.017
-666.343
-613.409
-553.35
-490.643
-428.591
-369.982
-316.044
-267.349
-224.845
-188.974
-159.186
-134.83
-114.558
-96.491
-80.09
-65.3
-51.813
-39.348
-27.297
-15.203
-3.652
6.092
13.441
18.346
21.046
21.911
20.822
17.699
13.065
7.89
3.083
-0.786
-3.511
-5.123
-5.531
-4.6
-2.323
1.161
5.593
10.726
16.391
22.5
28.983
35.718
42.522
49.165
55.454
61.266
66.542
71.26
75.396
78.932
81.878
84.287
86.245
87.837
89.132
90.176
91.019
91.726
92.383
93.091
93.924
94.929
96.137
97.565
99.23
101.147
103.313
105.704
108.3
111.081
114.035
117.157
120.43
123.834
127.343
130.93
134.574
138.255
141.951
145.641
149.302
152.913
156.458
159.919
163.279
166.515
169.605
172.526
175.257
177.777
180.065
182.101
183.867
185.345
186.524
187.39
187.933
188.143
188.014
187.541
186.72
185.549
184.031
182.165
179.958
177.415
174.545
171.358
167.864
164.077
160.01
155.678
151.1
146.293
141.274
136.064
130.684
125.155
119.498
113.735
107.89
101.984
96.039
90.078
84.122
78.193
72.311
66.494
60.761
55.131
49.619
44.241
39.011
33.943
29.048
24.338
19.823
15.509
11.405
7.517
3.849
0.404
-2.815
-5.807
-8.573
-11.112
-13.427
-15.522
-17.4
-19.066
-20.526
-21.787
-22.856
-23.74
-24.448
-24.989
-25.372
-25.607
-25.703
-25.67
-25.518
-25.257
-24.896
-24.446
-23.915
-23.314
-22.652
-21.937
-21.178
-20.383
-19.561
-18.718
-17.862
-17
-16.136
-15.278
-14.43
-13.597
-12.784
-11.995
-11.233
-10.503
-9.806
-9.147
-8.526
-7.946
-7.408
-6.913
-6.462
-6.057
-5.697
-5.383
-5.116
-4.895
-4.722
-4.595
-4.516
-4.482
-4.493
-4.549
-4.648
-4.788
-4.97
-5.191
-5.451
-5.747
-6.08
-6.448
-6.848
-7.279
-7.738
-8.223
-8.73
-9.256
-9.798
-10.352
-10.915
-11.484
-12.055
-12.625
-13.19
-13.746
-14.29
-14.816
-15.319
-15.794
-16.236
-16.64
-17.002
-17.317
-17.583
-17.797
-17.956
-18.058
-18.099
-18.078
-17.994
-17.843
-17.625
-17.337
-16.982
-16.559
-16.073
-15.526
-14.922
-14.267
-13.569
-12.834
-12.067
-11.275
-10.461
-9.631
-8.789
-7.94
-7.085
-6.231
-5.386
-4.558
-3.758
-2.994
-2.274
-1.607
-0.998
-0.45
0.032
0.45
0.808
1.106
1.338
1.495
1.56
1.527
1.402
1.184
0.886
0.528
0.139
-0.23
-0.522
-0.701
-0.747
-0.652
-0.426
-0.064
0.445
1.1
1.91
2.874
3.987
5.252
6.658
8.149
9.619
10.914
11.858
12.323
12.225
11.497
10.106
8.021
5.226
1.783
-2.223
-6.711
-11.62
-16.923
-22.593
-28.48
-34.284
-39.628
-44.092
-47.301
-48.98
-48.775
-46.246
-41.215
-33.799
-24.448
-14.012
-3.19
7.743
18.33
27.914
36.471
44.393
52.761
63.64
78.397
97.327
120.859
149.268
181.355
214.799
245.621
268.206
278.182
272.548
248.222
202.515
134.607
46.023
-58.689
-172.81
-290.319
-405.814
-513.488
-606.852
-679.894
-729.157
-754.244
-756.562
-737.966
-700.473
-646.461
-580.395
-508.331
-434.925
-363.471
-296.778
-236.575
-184.547
-142.849
-111.553
-88.691
-72.684
-61.673
-53.374
-46.787
-40.83
-33.586
-24.411
-13.714
-1.819
10.095
20.433
28.737
34.712
37.788
38.102
35.974
31.718
26.324
20.953
16.221
12.552
10.211
9.145
9.396
11.02
13.845
17.646
22.219
27.37
32.998
39.041
45.374
51.818
58.149
64.152
69.698
74.711
79.157
83.022
86.285
88.955
91.085
92.745
94.011
94.949
95.6
96.014
96.266
96.439
96.638
96.944
97.408
98.067
98.945
100.056
101.411
103.01
104.829
106.848
109.052
111.428
113.971
116.669
119.503
122.447
125.478
128.574
131.715
134.883
138.055
141.213
144.336
147.409
150.418
153.346
156.172
158.875
161.433
163.826
166.032
168.033
169.806
171.334
172.602
173.594
174.3
174.707
174.807
174.591
174.054
173.192
172.002
170.485
168.641
166.473
163.985
161.186
158.082
154.684
151.001
147.046
142.832
138.375
133.69
128.794
123.704
118.439
113.018
107.461
101.789
96.022
90.182
84.288
78.363
72.427
66.5
60.602
54.75
48.964
43.261
37.657
32.168
26.807
21.589
16.525
11.628
6.907
2.371
-1.971
-6.112
-10.048
-13.772
-17.282
-20.575
-23.65
-26.505
-29.142
-31.562
-33.767
-35.761
-37.547
-39.132
-40.52
-41.718
-42.733
-43.573
-44.245
-44.758
-45.121
-45.343
-45.432
-45.399
-45.252
-45.001
-44.655
-44.224
-43.715
-43.138
-42.502
-41.815
-41.084
-40.317
-39.523
-38.707
-37.877
-37.039
-36.199
-35.361
-34.532
-33.715
-32.915
-32.135
-31.38
-30.652
-29.954
-29.289
-28.658
-28.065
-27.509
-26.993
-26.517
-26.082
-25.689
-25.336
-25.026
-24.758
-24.533
-24.35
-24.209
-24.111
-24.055
-24.039
-24.064
-24.127
-24.228
-24.366
-24.54
-24.748
-24.989
-25.263
-25.568
-25.903
-26.267
-26.656
-27.069
-27.503
-27.956
-28.425
-28.906
-29.395
-29.891
-30.391
-30.89
-31.387
-31.878
-32.358
-32.823
-33.269
-33.69
-34.083
-34.44
-34.759
-35.036
-35.267
-35.451
-35.585
-35.666
-35.691
-35.661
-35.572
-35.423
-35.211
-34.936
-34.598
-34.196
-33.734
-33.214
-32.639
-32.014
-31.343
-30.633
-29.892
-29.123
-28.33
-27.519
-26.692
-25.855
-25.012
-24.167
-23.325
-22.492
-21.678
-20.893
-20.145
-19.44
-18.783
-18.176
-17.622
-17.122
-16.675
-16.275
-15.921
-15.619
-15.378
-15.214
-15.138
-15.149
-15.239
-15.395
-15.591
-15.792
-15.956
-16.034
-15.991
-15.81
-15.486
-15.032
-14.454
-13.747
-12.904
-11.905
-10.728
-9.366
-7.828
-6.131
-4.355
-2.63
-1.099
0.063
0.718
0.785
0.202
-1.056
-2.985
-5.557
-8.716
-12.404
-16.59
-21.267
-26.412
-31.955
-37.667
-43.193
-48.148
-52.093
-54.671
-55.52
-54.168
-50.424
-44.396
-36.473
-27.431
-17.958
-8.317
1.063
9.529
17.139
24.356
32.233
42.814
57.422
76.299
99.912
128.571
161.09
195.183
226.898
250.613
261.967
257.946
235.379
191.49
125.333
38.284
-65.18
-178.37
-295.263
-410.422
-518.011
-611.5
-684.812
-734.411
-759.84
-762.48
-744.2
-707.043
-653.393
-587.732
-516.116
-443.195
-372.286
-306.186
-246.597
-195.178
-154.046
-123.227
-100.734
-84.989
-74.124
-65.886
-59.288
-53.258
-45.913
-36.638
-25.859
-13.908
-1.946
8.466
16.887
23.03
26.337
26.95
25.198
21.396
16.518
11.7
7.544
4.466
2.727
2.274
3.142
5.379
8.813
13.216
18.386
24.127
30.332
36.937
43.813
50.787
57.636
64.153
70.207
75.723
80.668
85.027
88.781
91.937
94.548
96.683
98.418
99.818
100.923
101.788
102.483
103.09
103.711
104.425
105.282
106.316
107.552
109.001
110.677
112.577
114.68
116.966
119.421
122.031
124.792
127.692
130.712
133.827
137.015
140.254
143.527
146.813
150.092
153.345
156.554
159.702
162.776
165.759
168.63
171.368
173.952
176.361
178.575
180.575
182.34
183.852
185.096
186.057
186.725
187.087
187.135
186.862
186.26
185.328
184.062
182.463
180.531
178.271
175.686
172.785
169.576
166.069
162.275
158.206
153.877
149.304
144.503
139.491
134.287
128.911
123.382
117.722
111.952
106.093
100.166
94.195
88.2
82.203
76.225
70.285
64.404
58.599
52.889
47.29
41.818
36.489
31.314
26.308
21.481
16.845
12.406
8.175
4.156
0.355
-3.224
-6.577
-9.704
-12.603
-15.275
-17.722
-19.945
-21.95
-23.74
-25.322
-26.7
-27.883
-28.878
-29.694
-30.339
-30.822
-31.154
-31.344
-31.402
-31.339
-31.165
-30.89
-30.525
-30.079
-29.562
-28.984
-28.354
-27.681
-26.973
-26.238
-25.484
-24.718
-23.947
-23.177
-22.414
-21.664
-20.93
-20.218
-19.531
-18.872
-18.243
-17.648
-17.088
-16.564
-16.078
-15.631
-15.222
-14.853
-14.522
-14.231
-13.978
-13.762
-13.583
-13.439
-13.329
-13.252
-13.208
-13.196
-13.213
-13.261
-13.337
-13.44
-13.57
-13.724
-13.901
-14.1
-14.319
-14.557
-14.812
-15.084
-15.369
-15.668
-15.979
-16.3
-16.629
-16.964
-17.302
-17.641
-17.977
-18.309
-18.633
-18.945
-19.243
-19.525
-19.786
-20.025
-20.238
-20.419
-20.565
-20.672
-20.735
-20.749
-20.71
-20.615
-20.46
-20.245
-19.966
-19.624
-19.214
-18.738
-18.195
-17.584
-16.905
-16.158
-15.345
-14.468
-13.53
-12.537
-11.493
-10.404
-9.276
-8.118
-6.938
-5.746
-4.546
-3.346
-2.153
-0.972
0.188
1.32
2.418
3.476
4.484
5.433
6.312
7.112
7.828
8.456
8.994
9.44
9.79
10.047
10.215
10.294
10.282
10.172
9.945
9.592
9.122
8.546
7.885
7.176
6.444
5.726
5.075
4.518
4.077
3.762
3.558
3.46
3.48
3.631
3.954
4.49
5.232
6.169
7.261
8.4
9.489
10.408
10.983
11.098
10.676
9.651
8.032
5.858
3.155
-0.034
-3.692
-7.851
-12.504
-17.588
-22.955
-28.319
-33.357
-37.711
-40.985
-42.738
-42.485
-39.96
-35.209
-28.583
-20.75
-12.328
-3.617
4.956
12.743
19.736
26.409
33.858
44.105
58.568
77.589
101.663
131.251
165.334
201.778
236.737
264.473
280.441
281.468
264.128
225.33
163.767
80.191
-21.393
-134.169
-252.11
-369.651
-480.575
-578.49
-657.216
-712.452
-743.269
-751.161
-737.859
-705.739
-657.645
-597.137
-529.694
-460.25
-392.091
-327.87
-269.352
-217.432
-173.511
-138.69
-111.818
-91.488
-76.232
-63.798
-53.113
-43.876
-34.942
-25.1
-14.249
-2.492
9.374
19.618
27.582
33.31
36.598
37.405
35.882
32.207
27.146
21.966
17.436
13.942
11.715
10.735
11.058
12.792
15.841
19.959
24.904
30.472
36.524
42.989
49.744
56.601
63.324
69.696
75.577
80.883
85.578
89.653
93.084
95.878
98.086
99.77
101.008
101.872
102.409
102.674
102.741
102.696
102.646
102.68
102.855
103.211
103.774
104.559
105.583
106.846
108.33
110.017
111.895
113.954
116.189
118.594
121.149
123.832
126.62
129.49
132.426
135.408
138.416
141.429
144.429
147.401
150.331
153.201
155.991
158.679
161.243
163.66
165.911
167.972
169.823
171.444
172.816
173.925
174.755
175.296
175.534
175.459
175.064
174.343
173.291
171.907
170.187
168.135
165.751
163.043
160.016
156.679
153.041
149.113
144.909
140.442
135.728
130.783
125.626
120.274
114.747
109.065
103.25
97.323
91.306
85.22
79.088
72.931
66.772
60.63
54.526
48.48
42.511
36.636
30.873
25.238
19.745
14.409
9.243
4.258
-0.535
-5.127
-9.511
-13.679
-17.626
-21.348
-24.842
-28.106
-31.14
-33.944
-36.52
-38.871
-41
-42.912
-44.613
-46.11
-47.41
-48.522
-49.453
-50.213
-50.812
-51.26
-51.567
-51.743
-51.8
-51.748
-51.598
-51.36
-51.045
-50.663
-50.224
-49.738
-49.214
-48.66
-48.085
-47.498
-46.904
-46.312
-45.727
-45.156
-44.603
-44.074
-43.573
-43.103
-42.666
-42.267
-41.905
-41.583
-41.302
-41.062
-40.863
-40.705
-40.588
-40.511
-40.473
-40.472
-40.508
-40.579
-40.682
-40.816
-40.98
-41.171
-41.387
-41.627
-41.89
-42.174
-42.477
-42.799
-43.137
-43.49
-43.856
-44.234
-44.621
-45.018
-45.422
-45.832
-46.249
-46.67
-47.096
-47.526
-47.959
-48.394
-48.829
-49.264
-49.697
-50.125
-50.548
-50.963
-51.368
-51.764
-52.147
-52.516
-52.869
-53.203
-53.515
-53.802
-54.06
-54.286
-54.476
-54.625
-54.733
-54.797
-54.817
-54.79
-54.715
-54.59
-54.415
-54.188
-53.909
-53.576
-53.187
-52.743
-52.245
-51.695
-51.096
-50.45
-49.761
-49.035
-48.277
-47.492
-46.685
-45.859
-45.018
-44.165
-43.303
-42.436
-41.568
-40.701
-39.842
-38.999
-38.181
-37.394
-36.644
-35.934
-35.266
-34.64
-34.057
-33.515
-33.007
-32.532
-32.095
-31.703
-31.372
-31.113
-30.924
-30.797
-30.721
-30.67
-30.609
-30.5
-30.293
-29.956
-29.474
-28.841
-28.069
-27.167
-26.13
-24.95
-23.609
-22.088
-20.377
-18.486
-16.434
-14.298
-12.209
-10.309
-8.769
-7.73
-7.273
-7.466
-8.336
-9.883
-12.084
-14.888
-18.238
-22.108
-26.494
-31.378
-36.691
-42.211
-47.585
-52.436
-56.328
-58.901
-59.786
-58.505
-54.858
-48.945
-41.147
-32.237
-22.905
-13.42
-4.226
4.01
11.336
18.221
25.744
35.995
50.344
69.089
92.755
121.719
154.827
189.788
222.576
247.445
259.903
256.81
234.844
191.085
124.483
36.371
-68.704
-183.893
-303.01
-420.446
-530.172
-625.46
-700.048
-750.277
-775.67
-777.67
-758.224
-719.464
-663.874
-596.057
-522.217
-447.119
-374.15
-306.149
-244.834
-191.878
-149.415
-117.471
-94.028
-77.479
-65.927
-57.074
-49.917
-43.374
-35.532
-25.765
-14.495
-2.054
10.378
21.202
29.964
36.373
39.861
40.575
38.846
34.993
30.01
25.065
20.778
17.58
15.739
15.201
16.003
18.2
21.614
26.014
31.191
36.944
43.167
49.792
56.691
63.685
70.549
77.066
83.106
88.591
93.486
97.779
101.449
104.506
107.004
109.017
110.622
111.889
112.861
113.593
114.158
114.644
115.153
115.769
116.543
117.513
118.702
120.125
121.796
123.712
125.852
128.196
130.729
133.438
136.318
139.358
142.537
145.831
149.216
152.671
156.177
159.715
163.262
166.798
170.305
173.765
177.165
180.485
183.704
186.8
189.751
192.533
195.127
197.51
199.66
201.559
203.19
204.536
205.585
206.324
206.744
206.834
206.588
206.002
205.073
203.798
202.179
200.217
197.917
195.286
192.331
189.061
185.487
181.621
177.478
173.072
168.42
163.539
158.449
153.167
147.715
142.115
136.387
130.554
124.639
118.663
112.649
106.62
100.598
94.604
88.657
82.778
76.985
71.297
65.73
60.3
55.021
49.908
44.974
40.229
35.683
31.347
27.226
23.328
19.658
16.22
13.017
10.049
7.319
4.824
2.564
0.536
-1.265
-2.841
-4.201
-5.349
-6.293
-7.041
-7.602
-7.985
-8.199
-8.254
-8.16
-7.928
-7.568
-7.09
-6.506
-5.825
-5.059
-4.218
-3.311
-2.349
-1.342
-0.298
0.773
1.864
2.966
4.071
5.172
6.262
7.334
8.383
9.401
10.383
11.325
12.221
13.068
13.862
14.599
15.277
15.892
16.442
16.925
17.338
17.681
17.951
18.147
18.27
18.319
18.295
18.198
18.029
17.79
17.481
17.104
16.66
16.151
15.578
14.944
14.252
13.504
12.705
11.859
10.969
10.041
9.078
8.087
7.072
6.039
4.991
3.935
2.878
1.824
0.783
-0.239
-1.235
-2.197
-3.118
-3.99
-4.809
-5.57
-6.268
-6.899
-7.458
-7.942
-8.347
-8.671
-8.91
-9.063
-9.126
-9.1
-8.985
-8.784
-8.499
-8.135
-7.696
-7.186
-6.614
-5.988
-5.312
-4.591
-3.832
-3.04
-2.221
-1.385
-0.539
0.311
1.154
1.978
2.769
3.514
4.207
4.843
5.416
5.924
6.361
6.725
7.022
7.248
7.399
7.464
7.422
7.258
6.981
6.598
6.127
5.602
5.046
4.489
3.982
3.558
3.227
2.996
2.841
2.744
2.728
2.807
3.016
3.393
3.933
4.623
5.444
6.311
7.121
7.753
8.03
7.82
7.067
5.716
3.785
1.319
-1.689
-5.198
-9.165
-13.588
-18.434
-23.678
-29.249
-34.925
-40.389
-45.261
-49.092
-51.509
-52.161
-50.639
-46.86
-41.013
-33.486
-25.034
-16.262
-7.471
0.841
8.256
14.976
21.63
29.465
40.181
54.686
73.239
96.202
123.334
153.175
182.945
208.355
224.868
228.97
217.838
188.739
139.59
70.368
-16.144
-114.834
-220.134
-326.621
-428.936
-521.133
-596.605
-650.911
-682.864
-693.372
-684.296
-658.158
-617.785
-567.43
-513.239
-459.875
-409.806
-364.382
-323.882
-288.232
-257.516
-230.697
-205.348
-179.942
-153.963
-127.444
-101.282
-76.271
-52.804
-31.628
-13.749
0.309
10.363
16.557
19.518
19.827
17.985
14.59
10.154
5.103
-0.138
-5.195
-9.752
-13.529
-16.336
-18.068
-18.636
-17.997
-16.148
-13.134
-9.092
-4.196
1.372
7.443
13.876
20.531
27.234
33.781
39.998
45.763
51.01
55.713
59.847
63.394
66.364
68.808
70.804
72.436
73.774
74.874
75.797
76.612
77.403
78.261
79.255
80.426
81.805
83.411
85.258
87.361
89.714
92.297
95.087
98.067
101.224
104.547
108.021
111.62
115.32
119.092
122.915
126.766
130.624
134.463
138.262
141.998
145.651
149.206
152.641
155.933
159.06
161.996
164.719
167.209
169.444
171.401
173.063
174.413
175.437
176.123
176.461
176.44
176.054
175.299
174.172
172.672
170.8
168.559
165.954
162.993
159.684
156.04
152.072
147.793
143.221
138.371
133.262
127.913
122.345
116.579
110.636
104.539
98.313
91.981
85.566
79.092
72.584
66.065
59.558
53.085
46.668
40.327
34.082
27.951
21.953
16.104
10.419
4.911
-0.405
-5.518
-10.419
-15.097
-19.546
-23.758
-27.73
-31.456
-34.934
-38.163
-41.143
-43.873
-46.356
-48.595
-50.595
-52.359
-53.893
-55.206
-56.303
-57.192
-57.883
-58.385
-58.707
-58.858
-58.85
-58.691
-58.394
-57.968
-57.425
-56.774
-56.027
-55.194
-54.284
-53.309
-52.277
-51.199
-50.082
-48.936
-47.77
-46.592
-45.409
-44.229
-43.059
-41.906
-40.775
-39.673
-38.606
-37.576
-36.59
-35.651
-34.763
-33.93
-33.153
-32.437
-31.784
-31.194
-30.669
-30.211
-29.818
-29.491
-29.23
-29.034
-28.901
-28.83
-28.819
-28.868
-28.972
-29.131
-29.342
-29.6
-29.903
-30.246
-30.624
-31.035
-31.472
-31.931
-32.407
-32.893
-33.386
-33.881
-34.371
-34.851
-35.314
-35.754
-36.165
-36.54
-36.873
-37.159
-37.393
-37.571
-37.688
-37.743
-37.732
-37.654
-37.505
-37.286
-36.994
-36.63
-36.192
-35.682
-35.101
-34.453
-33.741
-32.969
-32.142
-31.267
-30.349
-29.397
-28.42
-27.421
-26.408
-25.386
-24.363
-23.347
-22.345
-21.362
-20.406
-19.484
-18.608
-17.787
-17.029
-16.338
-15.714
-15.161
-14.679
-14.273
-13.942
-13.682
-13.492
-13.372
-13.333
-13.394
-13.56
-13.822
-14.163
-14.551
-14.964
-15.384
-15.779
-16.108
-16.344
-16.464
-16.466
-16.372
-16.179
-15.881
-15.455
-14.843
-14.031
-13.034
-11.889
-10.676
-9.481
-8.378
-7.486
-6.952
-6.878
-7.346
-8.383
-9.944
-12.007
-14.529
-17.479
-20.885
-24.735
-28.987
-33.533
-38.136
-42.515
-46.387
-49.392
-51.165
-51.33
-49.422
-45.296
-39.153
-31.396
-22.795
-13.989
-5.18
3.214
10.555
16.872
22.65
29.019
38.046
51.093
68.351
90.145
116.694
146.756
177.974
206.513
226.966
234.871
227.271
201.166
153.902
85.228
-2.861
-106.035
-217.599
-331.052
-440.823
-540.685
-623.948
-686.064
-724.637
-739.308
-732.448
-707.03
-665.675
-612.164
-551.527
-488.005
-425.369
-366.803
-313.286
-265.216
-223.378
-187.931
-158.429
-134.359
-114.297
-96.326
-79.914
-64.996
-51.305
-38.632
-26.373
-14.056
-2.268
7.738
15.36
20.529
23.475
24.569
23.713
20.835
16.456
11.547
7.001
3.383
0.906
-0.46
-0.622
0.56
3.089
6.826
11.521
16.931
22.885
29.293
36.077
43.11
50.206
57.135
63.705
69.794
75.337
80.311
84.69
88.453
91.61
94.208
96.33
98.059
99.461
100.586
101.483
102.22
102.881
103.569
104.358
105.294
106.41
107.722
109.249
111.006
112.99
115.181
117.558
120.107
122.815
125.678
128.683
131.81
135.035
138.334
141.685
145.072
148.474
151.871
155.242
158.57
161.837
165.03
168.131
171.118
173.972
176.669
179.189
181.512
183.618
185.486
187.099
188.44
189.497
190.257
190.708
190.843
190.652
190.13
189.275
188.083
186.555
184.69
182.494
179.972
177.13
173.978
170.525
166.784
162.766
158.488
153.963
149.21
144.246
139.089
133.759
128.277
122.663
116.939
111.127
105.248
99.324
93.378
87.43
81.501
75.611
69.779
64.025
58.365
52.817
47.395
42.116
36.991
32.034
27.257
22.668
18.278
14.093
10.12
6.365
2.83
-0.481
-3.565
-6.424
-9.057
-11.467
-13.654
-15.624
-17.38
-18.928
-20.275
-21.426
-22.391
-23.176
-23.791
-24.245
-24.547
-24.706
-24.733
-24.638
-24.43
-24.12
-23.718
-23.234
-22.677
-22.058
-21.385
-20.667
-19.914
-19.132
-18.33
-17.515
-16.694
-15.874
-15.062
-14.262
-13.48
-12.722
-11.992
-11.294
-10.632
-10.008
-9.426
-8.888
-8.396
-7.952
-7.558
-7.214
-6.923
-6.684
-6.498
-6.366
-6.287
-6.259
-6.284
-6.358
-6.482
-6.653
-6.871
-7.133
-7.438
-7.786
-8.174
-8.599
-9.059
-9.552
-10.074
-10.622
-11.192
-11.78
-12.382
-12.994
-13.613
-14.234
-14.854
-15.468
-16.072
-16.662
-17.231
-17.776
-18.289
-18.766
-19.2
-19.589
-19.926
-20.211
-20.438
-20.605
-20.709
-20.748
-20.72
-20.622
-20.453
-20.209
-19.891
-19.498
-19.033
-18.498
-17.896
-17.231
-16.508
-15.736
-14.922
-14.069
-13.186
-12.275
-11.344
-10.397
-9.438
-8.471
-7.501
-6.536
-5.584
-4.657
-3.765
-2.914
-2.114
-1.37
-0.688
-0.072
0.477
0.966
1.392
1.751
2.036
2.226
2.314
2.303
2.192
1.991
1.719
1.404
1.093
0.846
0.699
0.677
0.79
1.026
1.388
1.886
2.513
3.282
4.201
5.264
6.479
7.84
9.291
10.732
12.013
12.953
13.42
13.323
12.584
11.176
9.065
6.251
2.811
-1.184
-5.669
-10.61
-16.014
-21.831
-27.879
-33.866
-39.404
-44.074
-47.551
-49.454
-49.311
-46.857
-42.041
-35.148
-26.889
-17.898
-8.548
0.765
9.517
17.467
24.837
32.595
42.556
56.216
74.257
96.984
124.628
156.964
192.502
227.924
258.138
278.224
284.537
274.195
244.546
193.162
119.431
25.966
-81.611
-196.895
-314.103
-427.939
-532.964
-622.433
-690.33
-733.826
-753.021
-749.665
-726.098
-684.321
-626.628
-558.201
-485.329
-412.847
-344.474
-282.208
-226.867
-180.124
-143.936
-117.684
-99.22
-86.234
-75.892
-66.838
-58.964
-51.266
-42.271
-31.598
-19.584
-7.275
3.412
11.618
17.484
20.941
21.928
20.535
16.944
11.886
6.604
1.944
-1.703
-4.118
-5.297
-5.197
-3.7
-0.859
3.105
7.955
13.484
19.541
26.028
32.839
39.801
46.69
53.313
59.513
65.189
70.301
74.834
78.762
82.084
84.831
87.045
88.804
90.182
91.231
92.012
92.592
93.053
93.5
94.021
94.673
95.499
96.521
97.754
99.213
100.901
102.803
104.905
107.192
109.652
112.282
115.072
118.004
121.055
124.201
127.419
130.69
133.996
137.317
140.635
143.931
147.188
150.395
153.534
156.585
159.526
162.336
164.992
167.473
169.76
171.828
173.661
175.239
176.548
177.575
178.306
178.732
178.842
178.628
178.085
177.21
175.999
174.452
172.571
170.358
167.82
164.964
161.799
158.334
154.581
150.554
146.266
141.735
136.975
132.006
126.846
121.515
116.034
110.423
104.705
98.901
93.034
87.125
81.196
75.269
69.364
63.502
57.7
51.979
46.354
40.844
35.464
30.228
25.15
20.242
15.515
10.979
6.644
2.515
-1.401
-5.098
-8.574
-11.825
-14.852
-17.653
-20.229
-22.584
-24.719
-26.639
-28.349
-29.855
-31.163
-32.282
-33.217
-33.979
-34.576
-35.017
-35.311
-35.469
-35.5
-35.414
-35.221
-34.93
-34.552
-34.096
-33.571
-32.986
-32.35
-31.672
-30.96
-30.221
-29.462
-28.69
-27.912
-27.133
-26.358
-25.592
-24.839
-24.103
-23.387
-22.695
-22.028
-21.389
-20.78
-20.203
-19.659
-19.149
-18.674
-18.234
-17.829
-17.461
-17.13
-16.834
-16.575
-16.353
-16.167
-16.019
-15.907
-15.831
-15.792
-15.787
-15.817
-15.88
-15.976
-16.105
-16.265
-16.455
-16.676
-16.927
-17.207
-17.516
-17.851
-18.212
-18.596
-19.003
-19.429
-19.872
-20.328
-20.796
-21.272
-21.754
-22.24
-22.724
-23.205
-23.677
-24.137
-24.579
-24.998
-25.389
-25.746
-26.066
-26.345
-26.581
-26.77
-26.909
-26.996
-27.028
-27.003
-26.92
-26.775
-26.567
-26.293
-25.955
-25.554
-25.092
-24.572
-23.996
-23.37
-22.702
-21.998
-21.263
-20.501
-19.716
-18.915
-18.101
-17.279
-16.452
-15.624
-14.803
-13.996
-13.216
-12.47
-11.764
-11.106
-10.501
-9.953
-9.466
-9.039
-8.667
-8.351
-8.094
-7.908
-7.811
-7.81
-7.901
-8.084
-8.349
-8.679
-9.045
-9.399
-9.677
-9.843
-9.875
-9.761
-9.513
-9.124
-8.579
-7.883
-7.028
-6.009
-4.834
-3.495
-1.997
-0.405
1.17
2.572
3.609
4.146
4.098
3.379
1.95
-0.228
-3.168
-6.777
-10.962
-15.659
-20.831
-26.482
-32.564
-38.857
-45.035
-50.712
-55.447
-58.906
-60.711
-60.339
-57.539
-52.312
-44.954
-36.249
-26.918
-17.278
-7.806
0.857
8.737
16.244
24.424
35.33
50.362
69.92
94.554
124.648
159.106
195.696
230.471
257.74
273.014
273.125
254.685
214.681
151.92
67.387
-34.725
-147.577
-265.102
-381.754
-491.371
-587.534
-664.182
-717.211
-745.831
-751.714
-736.761
-703.411
-654.595
-593.99
-527.027
-458.585
-391.901
-329.416
-272.727
-222.633
-180.385
-146.982
-121.273
-101.826
-87.191
-75.241
-64.968
-56.112
-47.598
-38.228
-27.899
-16.722
-5.45
4.244
11.722
17.045
20.016
20.581
18.894
15.135
10.043
4.861
0.341
-3.141
-5.353
-6.315
-5.975
-4.231
-1.178
2.944
7.904
13.503
19.611
26.16
33.035
40.053
46.985
53.618
59.81
65.477
70.585
75.12
79.06
82.41
85.216
87.541
89.462
91.047
92.341
93.394
94.275
95.069
95.877
96.785
97.845
99.094
100.553
102.237
104.157
106.312
108.681
111.243
113.981
116.884
119.946
123.154
126.489
129.925
133.437
137.002
140.6
144.209
147.809
151.378
154.897
158.349
161.719
164.991
168.142
171.151
173.996
176.654
179.106
181.331
183.308
185.018
186.445
187.575
188.396
188.896
189.067
188.9
188.389
187.531
186.325
184.769
182.866
180.619
178.033
175.117
171.879
168.33
164.482
160.347
155.942
151.282
146.384
141.267
135.95
130.453
124.796
119.002
113.092
107.088
101.014
94.891
88.743
82.591
76.457
70.363
64.327
58.371
52.511
46.767
41.154
35.687
30.381
25.249
20.304
15.555
11.012
6.684
2.576
-1.304
-4.954
-8.369
-11.547
-14.489
-17.194
-19.664
-21.901
-23.908
-25.692
-27.256
-28.607
-29.753
-30.702
-31.462
-32.043
-32.454
-32.706
-32.809
-32.775
-32.614
-32.338
-31.958
-31.484
-30.928
-30.301
-29.613
-28.874
-28.094
-27.283
-26.45
-25.604
-24.752
-23.902
-23.061
-22.235
-21.431
-20.654
-19.909
-19.199
-18.529
-17.902
-17.319
-16.785
-16.299
-15.863
-15.478
-15.143
-14.858
-14.621
-14.433
-14.29
-14.192
-14.136
-14.121
-14.144
-14.203
-14.296
-14.421
-14.575
-14.755
-14.959
-15.186
-15.432
-15.697
-15.979
-16.277
-16.588
-16.914
-17.252
-17.601
-17.96
-18.329
-18.706
-19.091
-19.484
-19.883
-20.288
-20.7
-21.118
-21.543
-21.974
-22.412
-22.855
-23.304
-23.757
-24.213
-24.671
-25.13
-25.587
-26.041
-26.492
-26.936
-27.373
-27.8
-28.214
-28.612
-28.99
-29.345
-29.672
-29.966
-30.224
-30.444
-30.622
-30.756
-30.844
-30.883
-30.871
-30.807
-30.69
-30.517
-30.286
-29.997
-29.648
-29.242
-28.78
-28.265
-27.698
-27.084
-26.429
-25.74
-25.021
-24.279
-23.517
-22.739
-21.951
-21.157
-20.361
-19.566
-18.779
-18.006
-17.256
-16.537
-15.858
-15.227
-14.648
-14.124
-13.66
-13.257
-12.914
-12.628
-12.401
-12.236
-12.141
-12.131
-12.214
-12.39
-12.651
-12.985
-13.364
-13.755
-14.117
-14.401
-14.579
-14.63
-14.545
-14.328
-13.977
-13.494
-12.882
-12.122
-11.195
-10.099
-8.843
-7.456
-6.033
-4.69
-3.559
-2.799
-2.523
-2.819
-3.762
-5.376
-7.669
-10.598
-14.076
-18.044
-22.473
-27.336
-32.603
-38.165
-43.747
-49.019
-53.625
-57.144
-59.261
-59.604
-57.685
-53.332
-46.681
-38.173
-28.664
-18.86
-9.011
0.431
8.8
16.141
22.926
30.334
40.542
54.937
73.78
97.476
126.255
158.827
192.736
223.854
246.461
256.101
249.762
224.395
177.35
107.965
18.029
-87.715
-202.361
-319.627
-434.057
-539.849
-630.34
-699.654
-744.544
-764.682
-761.971
-738.862
-697.432
-640.162
-572.056
-499.246
-426.654
-358.02
-295.312
-239.375
-191.83
-154.558
-127.032
-107.154
-92.613
-80.672
-70.015
-60.552
-51.36
-40.998
-29.071
-15.919
-2.577
9.045
18.066
24.638
28.718
30.23
29.256
25.932
20.936
15.556
10.687
6.748
3.999
2.442
2.117
3.171
5.576
9.122
13.586
18.751
24.45
30.618
37.171
43.968
50.828
57.52
63.847
69.695
75.003
79.751
83.916
87.475
90.434
92.844
94.785
96.34
97.575
98.533
99.268
99.849
100.364
100.917
101.584
102.408
103.421
104.64
106.083
107.765
109.684
111.818
114.146
116.654
119.33
122.169
125.159
128.278
131.502
134.805
138.168
141.571
144.996
148.422
151.828
155.195
158.507
161.75
164.905
167.952
170.869
173.634
176.225
178.622
180.806
182.754
184.449
185.875
187.017
187.864
188.404
188.626
188.524
188.09
187.322
186.217
184.773
182.993
180.878
178.435
175.671
172.595
169.215
165.543
161.592
157.377
152.913
148.217
143.306
138.199
132.915
127.475
121.9
116.212
110.431
104.58
98.681
92.756
86.827
80.913
75.036
69.215
63.468
57.814
52.269
46.85
41.57
36.445
31.485
26.703
22.109
17.711
13.517
9.534
5.765
2.216
-1.111
-4.215
-7.095
-9.752
-12.189
-14.408
-16.413
-18.209
-19.802
-21.198
-22.405
-23.432
-24.285
-24.976
-25.513
-25.906
-26.165
-26.301
-26.324
-26.244
-26.072
-25.819
-25.494
-25.107
-24.667
-24.184
-23.666
-23.122
-22.559
-21.985
-21.407
-20.83
-20.261
-19.704
-19.165
-18.647
-18.154
-17.689
-17.254
-16.852
-16.484
-16.151
-15.854
-15.594
-15.37
-15.182
-15.029
-14.911
-14.826
-14.773
-14.75
-14.755
-14.787
-14.844
-14.924
-15.026
-15.147
-15.287
-15.444
-15.616
-15.803
-16.003
-16.216
-16.44
-16.676
-16.922
-17.18
-17.448
-17.729
-18.021
-18.326
-18.644
-18.976
-19.322
-19.682
-20.056
-20.444
-20.847
-21.266
-21.699
-22.148
-22.613
-23.094
-23.59
-24.102
-24.627
-25.165
-25.714
-26.272
-26.838
-27.408
-27.98
-28.552
-29.121
-29.685
-30.24
-30.783
-31.309
-31.814
-32.292
-32.739
-33.149
-33.518
-33.839
-34.11
-34.327
-34.487
-34.589
-34.629
-34.605
-34.515
-34.357
-34.13
-33.832
-33.463
-33.022
-32.512
-31.935
-31.295
-30.595
-29.839
-29.034
-28.186
-27.302
-26.388
-25.447
-24.485
-23.503
-22.511
-21.514
-20.516
-19.525
-18.548
-17.595
-16.679
-15.812
-14.997
-14.239
-13.54
-12.901
-12.325
-11.812
-11.356
-10.955
-10.616
-10.345
-10.162
-10.083
-10.097
-10.196
-10.36
-10.555
-10.756
-10.936
-11.043
-11.047
-10.938
-10.71
-10.388
-9.992
-9.502
-8.899
-8.148
-7.211
-6.09
-4.8
-3.361
-1.858
-0.397
0.908
1.884
2.402
2.408
1.852
0.747
-0.861
-2.987
-5.603
-8.675
-12.21
-16.19
-20.586
-25.338
-30.226
-34.919
-39.068
-42.238
-44.079
-44.279
-42.412
-38.351
-32.276
-24.535
-15.858
-6.902
2.121
10.801
18.509
25.345
31.808
38.954
48.794
62.596
80.543
103.065
130.454
161.547
194.113
224.259
246.467
256.482
251.425
228.3
184.527
119.381
34.266
-66.439
-175.956
-288.203
-397.801
-498.979
-585.621
-652.346
-695.769
-715.404
-713.39
-692.213
-654.345
-602.748
-541.527
-475.827
-410.384
-348.677
-292.214
-241.669
-197.805
-161.504
-133.063
-111.326
-94.273
-79.683
-66.507
-54.636
-43.899
-33.737
-23.236
-12.191
-1.402
7.767
14.503
18.815
21.039
21.502
20.081
16.789
12.208
7.288
2.915
-0.414
-2.569
-3.58
-3.366
-1.804
1.101
5.206
10.25
16.001
22.302
29.03
36.08
43.294
50.447
57.352
63.855
69.85
75.301
80.192
84.496
88.214
91.372
94.01
96.2
98.019
99.52
100.768
101.829
102.778
103.72
104.739
105.89
107.218
108.744
110.48
112.442
114.632
117.035
119.639
122.428
125.389
128.517
131.803
135.227
138.767
142.398
146.094
149.839
153.611
157.39
161.156
164.89
168.573
172.193
175.732
179.167
182.478
185.639
188.629
191.426
194.007
196.35
198.435
200.243
201.759
202.967
203.856
204.412
204.626
204.489
203.995
203.14
201.92
200.336
198.386
196.076
193.41
190.396
187.043
183.361
179.362
175.059
170.469
165.606
160.49
155.138
149.571
143.808
137.873
131.788
125.575
119.257
112.859
106.404
99.915
93.415
86.926
80.47
74.068
67.74
61.506
55.384
49.39
43.542
37.855
32.342
27.016
21.889
16.971
12.269
7.792
3.546
-0.466
-4.239
-7.771
-11.062
-14.111
-16.921
-19.493
-21.831
-23.941
-25.827
-27.497
-28.957
-30.216
-31.282
-32.164
-32.873
-33.418
-33.809
-34.057
-34.172
-34.166
-34.049
-33.832
-33.526
-33.141
-32.687
-32.175
-31.613
-31.01
-30.377
-29.72
-29.047
-28.365
-27.682
-27.004
-26.336
-25.685
-25.054
-24.449
-23.873
-23.33
-22.824
-22.356
-21.929
-21.545
-21.204
-20.91
-20.663
-20.463
-20.311
-20.208
-20.154
-20.147
-20.188
-20.274
-20.405
-20.579
-20.795
-21.051
-21.345
-21.675
-22.039
-22.436
-22.864
-23.32
-23.802
-24.307
-24.831
-25.372
-25.927
-26.491
-27.062
-27.635
-28.208
-28.776
-29.336
-29.885
-30.417
-30.928
-31.413
-31.866
-32.283
-32.658
-32.987
-33.265
-33.491
-33.66
-33.772
-33.824
-33.814
-33.741
-33.604
-33.402
-33.134
-32.801
-32.402
-31.94
-31.416
-30.835
-30.2
-29.517
-28.789
-28.024
-27.23
-26.413
-25.58
-24.734
-23.881
-23.027
-22.183
-21.354
-20.545
-19.765
-19.021
-18.325
-17.689
-17.121
-16.623
-16.197
-15.845
-15.567
-15.37
-15.249
-15.2
-15.221
-15.314
-15.489
-15.771
-16.163
-16.654
-17.229
-17.858
-18.519
-19.196
-19.852
-20.443
-20.945
-21.336
-21.619
-21.825
-21.94
-21.949
-21.826
-21.51
-20.978
-20.248
-19.335
-18.296
-17.219
-16.175
-15.289
-14.728
-14.579
-14.916
-15.763
-17.068
-18.834
-21.051
-23.684
-26.756
-30.269
-34.186
-38.444
-42.872
-47.18
-51.085
-54.228
-56.224
-56.72
-55.27
-51.691
-46.14
-38.948
-30.788
-22.286
-13.661
-5.313
2.131
8.727
14.959
21.852
31.385
44.866
62.486
84.623
111.502
141.978
173.934
203.685
225.96
236.642
232.91
211.841
170.919
109.403
28.59
-67.442
-172.422
-280.689
-387.028
-485.594
-570.086
-635.092
-677.54
-697.261
-696.289
-676.93
-641.821
-594.628
-540.384
-484.571
-431.113
-382.034
-337.96
-298.985
-265.071
-235.754
-209.588
-184.483
-159.198
-133.444
-107.572
-82.417
-58.638
-36.708
-17.357
-1.42
10.699
18.973
23.687
25.464
24.867
22.38
18.567
13.922
8.882
3.876
-0.767
-4.767
-7.885
-9.971
-10.928
-10.683
-9.226
-6.586
-2.836
1.867
7.35
13.451
19.985
26.8
33.728
40.56
47.128
53.294
58.953
64.064
68.601
72.538
75.883
78.674
80.959
82.822
84.338
85.564
86.572
87.435
88.231
89.06
89.994
91.08
92.357
93.848
95.564
97.522
99.719
102.137
104.761
107.573
110.557
113.705
117.004
120.43
123.96
127.567
131.228
134.922
138.63
142.33
146.002
149.624
153.18
156.654
160.028
163.281
166.39
169.332
172.085
174.629
176.942
179.003
180.793
182.297
183.498
184.386
184.948
185.176
185.06
184.595
183.778
182.606
181.079
179.199
176.968
174.393
171.482
168.243
164.688
160.828
156.677
152.251
147.565
142.637
137.487
132.133
126.596
120.897
115.059
109.103
103.054
96.933
90.765
84.571
78.374
72.197
66.061
59.986
53.991
48.097
42.32
36.677
31.183
25.854
20.703
15.741
10.98
6.428
2.095
-2.014
-5.893
-9.537
-12.943
-16.111
-19.038
-21.727
-24.18
-26.398
-28.386
-30.149
-31.694
-33.026
-34.155
-35.087
-35.833
-36.401
-36.803
-37.047
-37.146
-37.109
-36.948
-36.674
-36.298
-35.83
-35.281
-34.662
-33.983
-33.253
-32.483
-31.68
-30.854
-30.012
-29.161
-28.309
-27.461
-26.624
-25.802
-25.001
-24.224
-23.474
-22.755
-22.069
-21.418
-20.802
-20.224
-19.682
-19.177
-18.71
-18.278
-17.881
-17.518
-17.188
-16.89
-16.622
-16.382
-16.169
-15.982
-15.817
-15.675
-15.552
-15.449
-15.364
-15.297
-15.246
-15.212
-15.194
-15.192
-15.206
-15.234
-15.278
-15.335
-15.408
-15.496
-15.598
-15.717
-15.851
-16.003
-16.173
-16.361
-16.567
-16.791
-17.033
-17.292
-17.567
-17.857
-18.16
-18.474
-18.8
-19.135
-19.479
-19.828
-20.181
-20.534
-20.885
-21.228
-21.559
-21.874
-22.167
-22.436
-22.676
-22.884
-23.059
-23.196
-23.293
-23.347
-23.356
-23.316
-23.226
-23.082
-22.881
-22.624
-22.312
-21.944
-21.523
-21.052
-20.536
-19.98
-19.389
-18.767
-18.119
-17.448
-16.757
-16.05
-15.329
-14.596
-13.858
-13.119
-12.389
-11.677
-10.995
-10.349
-9.747
-9.196
-8.697
-8.255
-7.868
-7.532
-7.245
-7.013
-6.844
-6.758
-6.763
-6.857
-7.039
-7.299
-7.618
-7.967
-8.298
-8.554
-8.696
-8.699
-8.559
-8.289
-7.891
-7.365
-6.704
-5.891
-4.924
-3.809
-2.534
-1.108
0.428
1.986
3.401
4.489
5.109
5.154
4.567
3.323
1.392
-1.229
-4.5
-8.352
-12.705
-17.492
-22.71
-28.342
-34.279
-40.268
-45.905
-50.741
-54.38
-56.511
-56.788
-54.785
-50.31
-43.465
-34.67
-24.745
-14.393
-3.901
6.312
15.629
24.083
32.125
40.792
52.085
67.357
86.872
111.053
140.178
173.022
207.249
238.91
262.407
273.38
268.888
245.87
201.649
135.451
48.686
-54.211
-166.353
-281.606
-394.583
-499.465
-589.992
-660.547
-707.515
-730.277
-730.94
-711.915
-675.595
-624.884
-563.859
-497.807
-431.675
-369.068
-311.558
-259.879
-214.808
-177.259
-147.638
-124.758
-106.522
-90.698
-76.186
-62.887
-50.694
-39.04
-27.006
-14.432
-2.138
8.438
16.372
21.648
24.574
25.404
24.053
20.529
15.386
9.682
4.38
0.011
-3.211
-5.292
-6.158
-5.649
-3.75
-0.609
3.553
8.508
14.095
20.242
26.849
33.765
40.804
47.722
54.316
60.468
66.095
71.163
75.656
79.549
82.848
85.604
87.885
89.767
91.317
92.578
93.603
94.46
95.236
96.034
96.931
97.974
99.198
100.622
102.26
104.126
106.215
108.507
110.98
113.619
116.412
119.353
122.431
125.624
128.91
132.264
135.664
139.093
142.532
145.959
149.357
152.705
155.989
159.195
162.307
165.305
168.168
170.876
173.407
175.744
177.865
179.753
181.388
182.756
183.844
184.64
185.134
185.317
185.182
184.724
183.939
182.826
181.384
179.616
177.524
175.113
172.392
169.368
166.052
162.453
158.586
154.464
150.102
145.517
140.725
135.744
130.594
125.293
119.863
114.324
108.696
103.001
97.26
91.493
85.722
79.966
74.245
68.577
62.98
57.471
52.065
46.779
41.626
36.618
31.769
27.087
22.584
18.267
14.144
10.22
6.501
2.99
-0.31
-3.397
-6.272
-8.934
-11.385
-13.627
-15.665
-17.501
-19.142
-20.594
-21.862
-22.954
-23.878
-24.641
-25.253
-25.722
-26.058
-26.269
-26.365
-26.355
-26.249
-26.056
-25.785
-25.444
-25.043
-24.59
-24.092
-23.556
-22.992
-22.404
-21.799
-21.184
-20.564
-19.944
-19.328
-18.721
-18.127
-17.549
-16.989
-16.451
-15.936
-15.445
-14.981
-14.544
-14.136
-13.756
-13.404
-13.082
-12.788
-12.523
-12.284
-12.072
-11.886
-11.724
-11.587
-11.472
-11.38
-11.31
-11.261
-11.233
-11.225
-11.236
-11.267
-11.317
-11.384
-11.47
-11.575
-11.697
-11.838
-11.999
-12.179
-12.379
-12.599
-12.839
-13.1
-13.38
-13.681
-14.001
-14.341
-14.701
-15.08
-15.479
-15.897
-16.335
-16.791
-17.264
-17.753
-18.256
-18.771
-19.296
-19.827
-20.362
-20.898
-21.434
-21.965
-22.49
-23.004
-23.505
-23.989
-24.451
-24.887
-25.292
-25.661
-25.989
-26.274
-26.512
-26.7
-26.837
-26.919
-26.944
-26.911
-26.819
-26.664
-26.447
-26.164
-25.815
-25.402
-24.926
-24.39
-23.797
-23.15
-22.457
-21.724
-20.958
-20.164
-19.347
-18.511
-17.662
-16.804
-15.941
-15.075
-14.211
-13.356
-12.518
-11.707
-10.931
-10.196
-9.509
-8.876
-8.3
-7.785
-7.33
-6.93
-6.584
-6.297
-6.078
-5.945
-5.907
-5.958
-6.097
-6.317
-6.595
-6.905
-7.197
-7.409
-7.504
-7.459
-7.264
-6.93
-6.452
-5.82
-5.038
-4.096
-2.989
-1.724
-0.295
1.293
2.975
4.644
6.144
7.282
7.92
7.966
7.34
6.006
3.93
1.107
-2.383
-6.458
-11.054
-16.134
-21.706
-27.721
-33.978
-40.165
-45.885
-50.689
-54.235
-56.126
-55.858
-53.186
-48.104
-40.904
-32.328
-23.047
-13.369
-3.753
5.194
13.493
21.551
30.401
41.987
57.62
77.636
102.506
132.597
166.867
203.179
237.717
264.925
280.428
281.175
263.894
225.61
165.071
83.052
-16.515
-126.972
-242.481
-357.712
-466.682
-563.174
-641.159
-696.388
-727.913
-737.211
-725.9
-696.205
-650.844
-593.249
-528.807
-462.404
-397.278
-336.001
-280.27
-230.923
-189.296
-156.412
-131.048
-111.752
-97.048
-84.74
-73.879
-64.257
-54.835
-44.537
-33.33
-21.357
-9.418
0.834
8.798
14.529
17.859
18.782
17.435
13.996
9.176
4.141
-0.346
-3.872
-6.202
-7.317
-7.152
-5.607
-2.747
1.218
6.051
11.553
17.583
24.048
30.843
37.797
44.69
51.332
57.571
63.304
68.494
73.121
77.156
80.603
83.496
85.881
87.838
89.441
90.738
91.79
92.664
93.437
94.213
95.076
96.08
97.265
98.654
100.259
102.096
104.166
106.45
108.935
111.603
114.44
117.442
120.596
123.882
127.279
130.76
134.3
137.881
141.485
145.089
148.675
152.223
155.717
159.141
162.48
165.712
168.815
171.768
174.546
177.132
179.502
181.637
183.516
185.124
186.444
187.465
188.175
188.564
188.621
188.341
187.719
186.752
185.439
183.781
181.779
179.438
176.765
173.768
170.457
166.843
162.938
158.755
154.311
149.622
144.705
139.578
134.261
128.775
123.139
117.377
111.51
105.559
99.548
93.499
87.434
81.374
75.341
69.354
63.433
57.596
51.862
46.247
40.767
35.435
30.267
25.273
20.466
15.855
11.448
7.253
3.275
-0.479
-4.008
-7.308
-10.378
-13.218
-15.829
-18.213
-20.373
-22.313
-24.038
-25.555
-26.87
-27.99
-28.924
-29.68
-30.268
-30.697
-30.977
-31.12
-31.134
-31.031
-30.821
-30.515
-30.123
-29.656
-29.124
-28.536
-27.902
-27.232
-26.532
-25.812
-25.08
-24.343
-23.606
-22.877
-22.161
-21.464
-20.789
-20.14
-19.522
-18.937
-18.388
-17.877
-17.405
-16.974
-16.584
-16.236
-15.928
-15.662
-15.436
-15.249
-15.099
-14.987
-14.909
-14.864
-14.85
-14.866
-14.908
-14.976
-15.067
-15.179
-15.31
-15.458
-15.622
-15.799
-15.99
-16.193
-16.407
-16.631
-16.864
-17.105
-17.355
-17.613
-17.877
-18.149
-18.429
-18.715
-19.01
-19.314
-19.626
-19.948
-20.279
-20.619
-20.969
-21.328
-21.696
-22.074
-22.461
-22.857
-23.261
-23.675
-24.097
-24.526
-24.963
-25.406
-25.852
-26.301
-26.75
-27.197
-27.638
-28.071
-28.493
-28.902
-29.295
-29.67
-30.022
-30.348
-30.645
-30.908
-31.134
-31.318
-31.455
-31.543
-31.579
-31.562
-31.489
-31.359
-31.17
-30.922
-30.615
-30.248
-29.82
-29.331
-28.781
-28.172
-27.506
-26.787
-26.018
-25.203
-24.349
-23.462
-22.551
-21.622
-20.681
-19.735
-18.788
-17.846
-16.915
-15.999
-15.103
-14.23
-13.389
-12.586
-11.832
-11.132
-10.494
-9.92
-9.415
-8.98
-8.617
-8.324
-8.094
-7.927
-7.825
-7.795
-7.854
-8.009
-8.258
-8.595
-9.002
-9.454
-9.916
-10.341
-10.68
-10.901
-10.976
-10.898
-10.676
-10.307
-9.798
-9.148
-8.33
-7.323
-6.123
-4.736
-3.198
-1.604
-0.07
1.261
2.222
2.688
2.559
1.765
0.287
-1.869
-4.636
-7.946
-11.757
-16.067
-20.881
-26.145
-31.709
-37.292
-42.55
-47.121
-50.63
-52.658
-52.706
-50.475
-45.931
-39.38
-31.526
-22.994
-14.128
-5.299
2.982
10.499
17.498
24.954
34.695
48.183
66.027
88.471
115.66
147.273
181.784
215.823
244.416
262.872
267.512
255.462
224.095
170.931
95.707
1.437
-106.43
-221.735
-338.423
-451.113
-554.021
-639.919
-703.591
-743.068
-758.448
-751.574
-725.156
-681.275
-622.971
-556.271
-486.53
-417.641
-353.07
-294.342
-242.047
-197.877
-163.033
-136.144
-115.693
-99.956
-86.422
-74.26
-63.393
-52.745
-41.246
-28.859
-15.692
-2.593
8.67
17.465
23.858
27.685
28.945
27.759
24.244
19.073
13.491
8.336
4.067
0.979
-0.91
-1.538
-0.77
1.355
4.631
8.838
13.765
19.25
25.231
31.624
38.287
45.038
51.642
57.902
63.7
68.969
73.684
77.819
81.35
84.288
86.683
88.619
90.176
91.419
92.391
93.143
93.745
94.285
94.868
95.568
96.43
97.485
98.753
100.249
101.988
103.966
106.162
108.552
111.12
113.856
116.752
119.796
122.966
126.237
129.582
132.981
136.417
139.868
143.314
146.734
150.109
153.423
156.661
159.807
162.838
165.734
168.473
171.035
173.399
175.545
177.454
179.108
180.491
181.59
182.394
182.892
183.074
182.934
182.467
181.67
180.541
179.081
177.289
175.172
172.734
169.984
166.93
163.583
159.953
156.054
151.901
147.51
142.896
138.078
133.074
127.903
122.585
117.142
111.594
105.963
100.27
94.535
88.782
83.029
77.299
71.609
65.979
60.427
54.969
49.621
44.4
39.317
34.387
29.621
25.029
20.622
16.406
12.39
8.578
4.976
1.587
-1.587
-4.545
-7.286
-9.812
-12.125
-14.228
-16.125
-17.821
-19.321
-20.633
-21.763
-22.72
-23.511
-24.145
-24.633
-24.982
-25.203
-25.306
-25.301
-25.196
-25.004
-24.731
-24.389
-23.987
-23.533
-23.036
-22.504
-21.945
-21.367
-20.776
-20.179
-19.582
-18.991
-18.41
-17.843
-17.295
-16.769
-16.267
-15.792
-15.346
-14.93
-14.545
-14.191
-13.869
-13.579
-13.32
-13.09
-12.89
-12.717
-12.57
-12.448
-12.349
-12.27
-12.212
-12.171
-12.146
-12.135
-12.137
-12.149
-12.17
-12.199
-12.233
-12.272
-12.315
-12.361
-12.408
-12.458
-12.509
-12.563
-12.618
-12.675
-12.734
-12.797
-12.863
-12.934
-13.011
-13.094
-13.187
-13.29
-13.404
-13.532
-13.674
-13.832
-14.005
-14.196
-14.404
-14.631
-14.876
-15.139
-15.423
-15.726
-16.049
-16.392
-16.754
-17.134
-17.532
-17.944
-18.37
-18.807
-19.251
-19.701
-20.153
-20.606
-21.055
-21.498
-21.932
-22.352
-22.753
-23.132
-23.482
-23.8
-24.079
-24.315
-24.504
-24.643
-24.73
-24.762
-24.738
-24.654
-24.51
-24.304
-24.034
-23.7
-23.3
-22.835
-22.306
-21.715
-21.066
-20.364
-19.611
-18.816
-17.985
-17.125
-16.242
-15.341
-14.427
-13.505
-12.58
-11.657
-10.742
-9.838
-8.955
-8.101
-7.288
-6.524
-5.817
-5.171
-4.59
-4.076
-3.631
-3.254
-2.938
-2.683
-2.494
-2.378
-2.353
-2.428
-2.601
-2.865
-3.206
-3.596
-4.001
-4.379
-4.678
-4.863
-4.915
-4.828
-4.614
-4.279
-3.817
-3.219
-2.464
-1.531
-0.411
0.888
2.348
3.896
5.405
6.735
7.714
8.203
8.121
7.408
6.04
4.02
1.371
-1.855
-5.601
-9.834
-14.545
-19.712
-25.27
-31.001
-36.559
-41.566
-45.588
-48.269
-49.245
-48.053
-44.493
-38.656
-30.908
-22.003
-12.623
-3.054
6.258
14.657
22.173
29.25
36.935
47.254
61.55
80.12
103.464
131.961
164.511
198.903
231.224
255.809
268.225
265.394
244.065
201.402
136.374
50.105
-53.11
-166.426
-283.747
-399.495
-507.62
-601.868
-676.391
-727.346
-754.095
-758.332
-742.013
-707.616
-658.086
-597.113
-530.014
-461.506
-394.752
-332.145
-275.282
-225
-182.5
-148.719
-122.55
-102.59
-87.444
-75.08
-64.504
-55.444
-46.853
-37.536
-27.376
-16.496
-5.612
3.673
10.762
15.753
18.458
18.805
16.945
13.065
7.904
2.696
-1.821
-5.294
-7.492
-8.429
-8.053
-6.26
-3.152
1.019
6.019
11.645
17.766
24.316
31.176
38.16
45.039
51.596
57.694
63.253
68.234
72.624
76.403
79.573
82.185
84.307
86.015
87.379
88.447
89.27
89.92
90.483
91.062
91.745
92.585
93.618
94.871
96.356
98.088
100.065
102.268
104.677
107.276
110.054
113.005
116.12
119.378
122.756
126.228
129.774
133.373
137.005
140.649
144.285
147.894
151.458
154.963
158.393
161.725
164.937
168.008
170.914
173.635
176.149
178.434
180.471
182.243
183.734
184.932
185.824
186.399
186.649
186.565
186.145
185.383
184.278
182.83
181.042
178.916
176.46
173.68
170.586
167.187
163.496
159.527
155.293
150.812
146.099
141.172
136.052
130.756
125.307
119.724
114.03
108.245
102.393
96.495
90.572
84.647
78.738
72.866
67.051
61.309
55.66
50.119
44.702
39.424
34.297
29.335
24.548
19.947
15.54
11.335
7.339
3.556
-0.008
-3.352
-6.473
-9.371
-12.046
-14.5
-16.734
-18.752
-20.559
-22.16
-23.562
-24.77
-25.793
-26.639
-27.316
-27.834
-28.203
-28.431
-28.53
-28.508
-28.377
-28.147
-27.827
-27.429
-26.961
-26.433
-25.855
-25.236
-24.585
-23.91
-23.219
-22.519
-21.818
-21.122
-20.438
-19.77
-19.125
-18.507
-17.92
-17.367
-16.852
-16.377
-15.945
-15.556
-15.212
-14.913
-14.661
-14.453
-14.292
-14.174
-14.1
-14.069
-14.078
-14.126
-14.211
-14.331
-14.484
-14.667
-14.879
-15.117
-15.379
-15.664
-15.968
-16.291
-16.631
-16.985
-17.352
-17.73
-18.118
-18.513
-18.916
-19.325
-19.74
-20.159
-20.584
-21.012
-21.445
-21.881
-22.32
-22.761
-23.205
-23.65
-24.097
-24.544
-24.993
-25.442
-25.891
-26.342
-26.791
-27.24
-27.686
-28.129
-28.566
-28.997
-29.418
-29.828
-30.224
-30.604
-30.967
-31.31
-31.631
-31.926
-32.192
-32.426
-32.624
-32.781
-32.893
-32.957
-32.969
-32.926
-32.827
-32.669
-32.452
-32.173
-31.831
-31.426
-30.956
-30.422
-29.822
-29.157
-28.428
-27.638
-26.79
-25.888
-24.938
-23.944
-22.913
-21.853
-20.77
-19.672
-18.562
-17.445
-16.328
-15.217
-14.118
-13.036
-11.977
-10.951
-9.965
-9.031
-8.159
-7.352
-6.616
-5.952
-5.361
-4.848
-4.412
-4.047
-3.757
-3.543
-3.413
-3.384
-3.467
-3.652
-3.93
-4.283
-4.673
-5.079
-5.467
-5.789
-6.018
-6.139
-6.142
-6.045
-5.852
-5.551
-5.136
-4.575
-3.834
-2.925
-1.862
-0.68
0.515
1.629
2.548
3.106
3.194
2.743
1.69
0.047
-2.16
-4.923
-8.179
-11.889
-16.055
-20.626
-25.57
-30.78
-35.981
-40.877
-45.114
-48.253
-49.961
-49.876
-47.574
-42.978
-36.284
-27.903
-18.64
-9.11
0.39
9.312
17.2
24.219
30.965
38.784
49.492
64.063
82.843
106.273
134.156
165.033
195.989
222.455
239.66
243.899
232.187
201.692
150.177
77.491
-13.412
-117.059
-227.645
-339.518
-447.341
-545.467
-627.095
-687.245
-724.349
-738.931
-732.443
-707.206
-665.243
-609.347
-545.319
-478.392
-412.041
-349.357
-292.047
-240.845
-197.446
-163.166
-136.627
-116.316
-100.699
-87.385
-75.512
-64.976
-54.686
-43.582
-31.676
-19.085
-6.628
3.996
12.223
18.131
21.565
22.576
21.305
17.908
13.101
8.044
3.506
-0.087
-2.491
-3.689
-3.611
-2.149
0.64
4.554
9.359
14.851
20.882
27.35
34.148
41.105
47.995
54.625
60.839
66.533
71.668
76.224
80.171
83.511
86.28
88.522
90.317
91.741
92.844
93.689
94.345
94.894
95.442
96.078
96.857
97.823
99.002
100.407
102.056
103.951
106.076
108.417
110.959
113.69
116.605
119.694
122.939
126.315
129.799
133.365
136.996
140.672
144.371
148.074
151.762
155.417
159.025
162.568
166.025
169.373
172.588
175.647
178.528
181.21
183.669
185.884
187.838
189.513
190.896
191.972
192.731
193.16
193.252
193.001
192.402
191.452
190.15
188.496
186.495
184.151
181.473
178.468
175.146
171.519
167.601
163.407
158.952
154.253
149.33
144.2
138.885
133.406
127.786
122.045
116.207
110.295
104.331
98.339
92.34
86.355
80.407
74.514
68.696
62.972
57.359
51.873
46.53
41.344
36.327
31.492
26.847
22.404
18.168
14.146
10.344
6.765
3.411
0.284
-2.616
-5.291
-7.742
-9.973
-11.989
-13.793
-15.394
-16.798
-18.011
-19.044
-19.904
-20.602
-21.146
-21.547
-21.814
-21.96
-21.993
-21.925
-21.765
-21.524
-21.213
-20.839
-20.413
-19.945
-19.441
-18.911
-18.362
-17.801
-17.235
-16.671
-16.113
-15.567
-15.038
-14.529
-14.045
-13.587
-13.159
-12.762
-12.399
-12.071
-11.779
-11.524
-11.306
-11.127
-10.985
-10.881
-10.814
-10.785
-10.791
-10.833
-10.91
-11.021
-11.166
-11.344
-11.554
-11.797
-12.07
-12.374
-12.707
-13.067
-13.454
-13.867
-14.304
-14.764
-15.246
-15.75
-16.274
-16.817
-17.378
-17.955
-18.547
-19.15
-19.763
-20.383
-21.006
-21.63
-22.251
-22.866
-23.472
-24.065
-24.643
-25.2
-25.732
-26.234
-26.702
-27.13
-27.512
-27.845
-28.123
-28.344
-28.506
-28.605
-28.639
-28.607
-28.507
-28.337
-28.098
-27.787
-27.404
-26.949
-26.423
-25.829
-25.17
-24.45
-23.675
-22.848
-21.978
-21.074
-20.143
-19.19
-18.222
-17.246
-16.266
-15.292
-14.33
-13.385
-12.465
-11.578
-10.734
-9.945
-9.219
-8.563
-7.979
-7.471
-7.04
-6.691
-6.422
-6.227
-6.108
-6.067
-6.112
-6.262
-6.529
-6.904
-7.378
-7.932
-8.53
-9.148
-9.747
-10.277
-10.71
-11.025
-11.21
-11.283
-11.249
-11.101
-10.83
-10.398
-9.769
-8.949
-7.952
-6.82
-5.66
-4.568
-3.664
-3.113
-3.027
-3.488
-4.56
-6.232
-8.465
-11.21
-14.406
-18.028
-22.099
-26.599
-31.455
-36.5
-41.438
-45.966
-49.754
-52.439
-53.619
-52.821
-49.803
-44.636
-37.692
-29.669
-21.19
-12.515
-4.019
3.711
10.682
17.318
24.61
34.463
48.162
65.931
88.076
114.775
144.902
176.4
205.768
227.945
238.964
236.113
216.506
177.625
118.648
40.691
-52.424
-154.687
-260.726
-365.562
-463.43
-548.086
-614.034
-657.986
-679.627
-680.829
-663.687
-630.692
-585.38
-532.654
-478.038
-425.566
-377.297
-333.926
-295.592
-262.251
-233.52
-208.025
-183.645
-159.106
-134.071
-108.828
-84.195
-60.834
-39.195
-20.002
-4.106
8.087
16.51
21.413
23.395
22.989
20.684
17.052
12.59
7.735
2.914
-1.55
-5.376
-8.317
-10.232
-11.032
-10.646
-9.07
-6.328
-2.485
2.304
7.873
14.06
20.68
27.582
34.601
41.53
48.203
54.482
60.261
65.5
70.177
74.265
77.773
80.737
83.203
85.253
86.962
88.386
89.594
90.659
91.657
92.686
93.817
95.098
96.566
98.243
100.142
102.277
104.649
107.238
110.029
113.005
116.152
119.462
122.92
126.504
130.189
133.95
137.763
141.607
145.464
149.31
153.125
156.887
160.58
164.188
167.692
171.069
174.298
177.354
180.216
182.863
185.273
187.424
189.298
190.878
192.149
193.098
193.715
193.988
193.91
193.474
192.678
191.518
189.996
188.112
185.87
183.277
180.34
177.069
173.476
169.573
165.374
160.896
156.155
151.169
145.958
140.543
134.943
129.181
123.281
117.264
111.155
104.977
98.753
92.506
86.261
80.038
73.859
67.745
61.716
55.79
49.985
44.318
38.804
33.456
28.289
23.313
18.539
13.976
9.63
5.508
1.615
-2.046
-5.473
-8.665
-11.622
-14.346
-16.839
-19.106
-21.15
-22.978
-24.595
-26.01
-27.23
-28.263
-29.119
-29.808
-30.339
-30.722
-30.969
-31.089
-31.093
-30.992
-30.796
-30.516
-30.161
-29.742
-29.267
-28.745
-28.187
-27.598
-26.989
-26.365
-25.733
-25.1
-24.472
-23.853
-23.249
-22.663
-22.099
-21.56
-21.049
-20.568
-20.12
-19.705
-19.325
-18.982
-18.675
-18.407
-18.176
-17.983
-17.827
-17.708
-17.625
-17.579
-17.567
-17.591
-17.65
-17.742
-17.868
-18.026
-18.216
-18.436
-18.685
-18.962
-19.266
-19.596
-19.949
-20.325
-20.724
-21.143
-21.583
-22.041
-22.517
-23.007
-23.511
-24.024
-24.546
-25.073
-25.602
-26.129
-26.651
-27.166
-27.671
-28.163
-28.636
-29.089
-29.515
-29.91
-30.27
-30.589
-30.862
-31.086
-31.256
-31.37
-31.427
-31.423
-31.357
-31.227
-31.033
-30.772
-30.443
-30.047
-29.581
-29.046
-28.445
-27.781
-27.058
-26.278
-25.449
-24.576
-23.667
-22.73
-21.771
-20.794
-19.806
-18.813
-17.819
-16.833
-15.857
-14.899
-13.966
-13.07
-12.219
-11.424
-10.692
-10.026
-9.431
-8.908
-8.46
-8.086
-7.779
-7.54
-7.372
-7.285
-7.295
-7.411
-7.631
-7.945
-8.341
-8.791
-9.26
-9.707
-10.079
-10.342
-10.478
-10.481
-10.361
-10.122
-9.758
-9.259
-8.604
-7.772
-6.754
-5.559
-4.205
-2.768
-1.377
-0.175
0.665
1.008
0.776
-0.092
-1.617
-3.794
-6.599
-9.973
-13.852
-18.205
-23.021
-28.281
-33.913
-39.689
-45.249
-50.207
-54.123
-56.649
-57.43
-56.006
-52.2
-46.134
-38.209
-29.227
-19.884
-10.435
-1.292
6.933
14.33
21.388
29.172
39.706
54.275
73.052
96.395
124.497
156.081
188.799
218.727
240.352
249.433
243.16
218.633
173.347
106.667
20.096
-81.961
-192.746
-306.224
-417.125
-519.792
-608.137
-676.754
-722.216
-743.955
-744.029
-724.81
-688.618
-638.273
-577.769
-512.238
-446.464
-383.964
-326.284
-274.168
-228.436
-190.035
-159.395
-135.398
-116.026
-99.123
-83.645
-69.505
-56.592
-44.337
-31.823
-18.889
-6.341
4.411
12.465
17.82
20.786
21.621
20.242
16.666
11.456
5.671
0.278
-4.188
-7.512
-9.696
-10.662
-10.248
-8.438
-5.376
-1.285
3.607
9.139
15.238
21.803
28.683
35.687
42.564
49.108
55.196
60.745
65.72
70.103
73.87
77.026
79.624
81.734
83.435
84.793
85.853
86.668
87.309
87.863
88.437
89.11
89.931
90.935
92.143
93.569
95.227
97.115
99.21
101.492
103.945
106.556
109.322
112.23
115.26
118.389
121.592
124.85
128.143
131.455
134.763
138.05
141.297
144.49
147.615
150.657
153.596
156.412
159.084
161.592
163.917
166.041
167.943
169.607
171.017
172.159
173.024
173.601
173.88
173.854
173.519
172.87
171.905
170.625
169.029
167.122
164.907
162.391
159.583
156.49
153.124
149.497
145.621
141.51
137.181
132.65
127.933
123.048
118.015
112.853
107.581
102.22
96.79
91.31
85.803
80.287
74.781
69.305
63.877
58.513
53.231
48.046
42.973
38.025
33.216
28.557
24.058
19.731
15.582
11.62
7.85
4.279
0.909
-2.255
-5.212
-7.961
-10.503
-12.837
-14.966
-16.894
-18.623
-20.159
-21.507
-22.674
-23.664
-24.487
-25.15
-25.661
-26.028
-26.261
-26.369
-26.36
-26.243
-26.029
-25.726
-25.344
-24.89
-24.374
-23.804
-23.189
-22.535
-21.852
-21.145
-20.422
-19.69
-18.953
-18.219
-17.492
-16.777
-16.078
-15.399
-14.744
-14.115
-13.516
-12.949
-12.416
-11.919
-11.46
-11.04
-10.66
-10.321
-10.022
-9.765
-9.549
-9.375
-9.242
-9.15
-9.099
-9.09
-9.121
-9.193
-9.304
-9.454
-9.642
-9.866
-10.126
-10.419
-10.746
-11.104
-11.493
-11.91
-12.355
-12.827
-13.322
-13.839
-14.375
-14.927
-15.493
-16.069
-16.65
-17.234
-17.818
-18.396
-18.968
-19.527
-20.07
-20.594
-21.093
-21.562
-21.996
-22.39
-22.738
-23.036
-23.28
-23.467
-23.595
-23.66
-23.66
-23.593
-23.459
-23.254
-22.979
-22.632
-22.212
-21.721
-21.16
-20.533
-19.843
-19.094
-18.292
-17.444
-16.559
-15.644
-14.705
-13.75
-12.783
-11.811
-10.841
-9.878
-8.927
-7.995
-7.088
-6.216
-5.391
-4.619
-3.91
-3.269
-2.7
-2.206
-1.792
-1.455
-1.192
-1.002
-0.887
-0.856
-0.926
-1.104
-1.389
-1.775
-2.245
-2.774
-3.327
-3.86
-4.321
-4.678
-4.902
-4.986
-4.936
-4.748
-4.43
-3.975
-3.356
-2.553
-1.559
-0.379
0.956
2.359
3.719
4.9
5.737
6.111
5.921
5.105
3.636
1.522
-1.178
-4.402
-8.108
-12.29
-16.953
-22.045
-27.427
-32.834
-37.933
-42.37
-45.781
-47.752
-47.796
-45.616
-41.159
-34.713
-26.955
-18.488
-9.67
-0.874
7.382
14.849
21.784
29.165
38.826
52.291
70.19
92.777
120.247
152.326
187.539
222.607
252.466
272.243
278.366
268.01
238.617
187.86
115.127
22.981
-83.053
-196.707
-312.305
-424.646
-528.425
-617.06
-684.636
-728.358
-748.282
-746.072
-723.97
-683.899
-628.081
-561.546
-490.448
-419.545
-352.465
-291.162
-236.466
-190.02
-153.731
-127.033
-107.82
-93.809
-82.289
-71.981
-62.815
-53.882
-43.767
-32.093
-19.203
-6.126
5.251
14.057
20.439
24.351
25.72
24.627
21.208
16.131
10.664
5.69
1.626
-1.266
-2.98
-3.474
-2.599
-0.38
2.981
7.27
12.276
17.834
23.882
30.334
37.051
43.853
50.509
56.823
62.679
68.015
72.809
77.039
80.678
83.731
86.246
88.298
89.97
91.325
92.403
93.258
93.957
94.588
95.254
96.031
96.963
98.08
99.399
100.937
102.708
104.71
106.921
109.319
111.888
114.617
117.501
120.526
123.671
126.909
130.217
133.571
136.954
140.345
143.724
147.069
150.361
153.585
156.726
159.766
162.685
165.461
168.072
170.499
172.721
174.718
176.471
177.962
179.177
180.101
180.725
181.038
181.032
180.699
180.037
179.042
177.713
176.052
174.061
171.745
169.111
166.167
162.924
159.393
155.586
151.518
147.204
142.661
137.907
132.96
127.839
122.564
117.157
111.638
106.03
100.354
94.632
88.885
83.136
77.404
71.711
66.076
60.517
55.051
49.696
44.468
39.379
34.444
29.674
25.081
20.674
16.461
12.449
8.645
5.053
1.675
-1.485
-4.427
-7.15
-9.656
-11.948
-14.027
-15.899
-17.568
-19.039
-20.321
-21.419
-22.342
-23.097
-23.694
-24.142
-24.45
-24.628
-24.686
-24.634
-24.48
-24.236
-23.91
-23.512
-23.051
-22.534
-21.971
-21.37
-20.737
-20.081
-19.407
-18.722
-18.032
-17.342
-16.657
-15.981
-15.318
-14.672
-14.046
-13.442
-12.862
-12.308
-11.782
-11.286
-10.82
-10.385
-9.982
-9.612
-9.274
-8.969
-8.695
-8.455
-8.245
-8.068
-7.922
-7.808
-7.725
-7.674
-7.655
-7.668
-7.714
-7.791
-7.9
-8.04
-8.211
-8.413
-8.646
-8.91
-9.204
-9.528
-9.883
-10.268
-10.682
-11.124
-11.592
-12.085
-12.601
-13.137
-13.691
-14.259
-14.839
-15.429
-16.025
-16.625
-17.225
-17.82
-18.408
-18.982
-19.538
-20.071
-20.573
-21.041
-21.47
-21.856
-22.194
-22.483
-22.717
-22.894
-23.011
-23.065
-23.055
-22.977
-22.828
-22.608
-22.318
-21.958
-21.53
-21.038
-20.484
-19.876
-19.219
-18.521
-17.787
-17.021
-16.229
-15.416
-14.587
-13.746
-12.896
-12.044
-11.197
-10.363
-9.553
-8.778
-8.044
-7.359
-6.73
-6.16
-5.655
-5.215
-4.835
-4.515
-4.26
-4.079
-3.99
-4.002
-4.11
-4.314
-4.604
-4.961
-5.355
-5.74
-6.055
-6.265
-6.348
-6.291
-6.107
-5.792
-5.338
-4.748
-4.012
-3.12
-2.079
-0.879
0.472
1.915
3.347
4.615
5.537
5.983
5.86
5.091
3.647
1.497
-1.359
-4.841
-8.873
-13.394
-18.371
-23.815
-29.677
-35.764
-41.771
-47.306
-51.945
-55.361
-57.177
-56.913
-54.308
-49.326
-42.267
-33.865
-24.766
-15.322
-5.918
2.94
11.05
18.613
26.583
36.753
50.533
68.557
91.101
118.308
149.876
184.288
218.163
246.539
264.754
269.128
256.791
225.119
171.62
96.034
1.391
-106.835
-222.468
-339.471
-452.476
-555.71
-641.939
-705.926
-745.683
-761.309
-754.643
-728.382
-684.597
-626.309
-559.545
-489.683
-420.649
-355.95
-297.141
-244.829
-200.724
-166.049
-139.447
-119.406
-104.181
-91.218
-79.654
-69.395
-59.346
-48.419
-36.555
-23.841
-11.126
-0.198
8.296
14.416
17.996
19.034
17.644
13.936
8.584
2.843
-2.44
-6.804
-9.951
-11.869
-12.498
-11.703
-9.528
-6.183
-1.892
3.127
8.711
14.796
21.299
28.076
34.946
41.674
48.062
53.991
59.395
64.249
68.525
72.201
75.286
77.832
79.92
81.635
83.037
84.17
85.086
85.853
86.559
87.306
88.167
89.186
90.395
91.811
93.45
95.327
97.437
99.759
102.27
104.953
107.798
110.798
113.941
117.203
120.561
123.99
127.469
130.98
134.504
138.02
141.507
144.947
148.324
151.624
154.829
157.918
160.87
163.664
166.278
168.694
170.891
172.849
174.55
175.979
177.122
177.968
178.505
178.725
178.621
178.186
177.418
176.315
174.877
173.105
171.002
168.575
165.832
162.78
159.431
155.794
151.885
147.716
143.304
138.666
133.818
128.78
123.572
118.213
112.725
107.13
101.447
95.7
89.91
84.099
78.288
72.497
66.747
61.056
55.443
49.926
44.521
39.242
34.106
29.124
24.309
19.672
15.223
10.97
6.921
3.081
-0.545
-3.954
-7.141
-10.108
-12.852
-15.376
-17.682
-19.771
-21.649
-23.321
-24.791
-26.068
-27.157
-28.068
-28.808
-29.387
-29.813
-30.098
-30.249
-30.278
-30.194
-30.007
-29.727
-29.364
-28.928
-28.428
-27.873
-27.271
-26.632
-25.963
-25.271
-24.564
-23.847
-23.128
-22.412
-21.703
-21.008
-20.329
-19.671
-19.036
-18.429
-17.85
-17.302
-16.786
-16.303
-15.853
-15.439
-15.058
-14.712
-14.4
-14.122
-13.878
-13.667
-13.489
-13.343
-13.228
-13.144
-13.089
-13.063
-13.066
-13.097
-13.157
-13.244
-13.36
-13.503
-13.675
-13.875
-14.101
-14.355
-14.635
-14.942
-15.275
-15.632
-16.016
-16.424
-16.857
-17.315
-17.796
-18.301
-18.826
-19.372
-19.935
-20.514
-21.106
-21.707
-22.315
-22.927
-23.54
-24.15
-24.754
-25.348
-25.929
-26.49
-27.026
-27.533
-28.004
-28.434
-28.818
-29.15
-29.429
-29.649
-29.81
-29.906
-29.936
-29.897
-29.787
-29.605
-29.347
-29.013
-28.602
-28.115
-27.555
-26.924
-26.225
-25.464
-24.646
-23.78
-22.87
-21.925
-20.949
-19.947
-18.925
-17.888
-16.843
-15.795
-14.749
-13.715
-12.702
-11.722
-10.785
-9.9
-9.073
-8.308
-7.609
-6.978
-6.416
-5.919
-5.486
-5.122
-4.838
-4.651
-4.57
-4.597
-4.726
-4.943
-5.225
-5.537
-5.84
-6.083
-6.232
-6.269
-6.186
-5.994
-5.699
-5.298
-4.781
-4.129
-3.319
-2.341
-1.2
0.089
1.455
2.778
3.92
4.715
5.025
4.768
3.88
2.337
0.139
-2.691
-6.098
-10.028
-14.448
-19.352
-24.724
-30.5
-36.466
-42.285
-47.584
-51.932
-54.976
-56.345
-55.568
-52.438
-47.042
-39.747
-31.308
-22.403
-13.307
-4.455
3.5
10.609
17.343
24.78
34.984
49.326
68.095
91.785
120.767
153.902
188.937
221.912
247.102
260.038
257.637
236.655
194.263
129.469
43.445
-59.478
-172.408
-289.225
-404.357
-511.773
-605.248
-678.984
-729.201
-755.299
-759.001
-742.286
-707.632
-657.964
-596.942
-529.839
-461.316
-394.502
-331.793
-274.782
-224.31
-181.593
-147.591
-121.228
-101.148
-85.975
-73.651
-63.163
-54.225
-45.769
-36.586
-26.536
-15.707
-4.8
4.562
11.763
16.889
19.735
20.226
18.507
14.746
9.674
4.534
0.07
-3.361
-5.523
-6.435
-6.049
-4.26
-1.17
2.965
7.913
13.468
19.5
25.948
32.696
39.563
46.322
52.759
58.738
64.179
69.046
73.328
77.002
80.076
82.599
84.641
86.278
87.58
88.595
89.375
89.988
90.522
91.079
91.743
92.569
93.593
94.839
96.322
98.056
100.039
102.251
104.671
107.285
110.081
113.053
116.19
119.472
122.877
126.378
129.953
133.583
137.247
140.925
144.595
148.238
151.836
155.376
158.839
162.203
165.448
168.549
171.484
174.233
176.773
179.084
181.145
182.939
184.451
185.668
186.578
187.17
187.434
187.363
186.953
186.2
185.103
183.661
181.876
179.752
177.297
174.516
171.42
168.018
164.323
160.348
156.108
151.62
146.901
141.967
136.84
131.538
126.082
120.495
114.796
109.009
103.155
97.256
91.335
85.411
79.507
73.641
67.834
62.104
56.468
50.943
45.544
40.287
35.185
30.251
25.496
20.929
16.56
12.397
8.445
4.711
1.197
-2.092
-5.157
-7.995
-10.608
-12.998
-15.167
-17.119
-18.859
-20.392
-21.725
-22.864
-23.818
-24.595
-25.203
-25.652
-25.951
-26.111
-26.142
-26.053
-25.855
-25.559
-25.174
-24.71
-24.178
-23.586
-22.945
-22.263
-21.55
-20.813
-20.06
-19.3
-18.538
-17.782
-17.037
-16.308
-15.601
-14.92
-14.269
-13.65
-13.068
-12.525
-12.023
-11.564
-11.149
-10.781
-10.459
-10.184
-9.956
-9.775
-9.64
-9.552
-9.51
-9.512
-9.56
-9.651
-9.784
-9.959
-10.174
-10.428
-10.717
-11.04
-11.396
-11.782
-12.197
-12.638
-13.104
-13.592
-14.102
-14.631
-15.177
-15.737
-16.308
-16.887
-17.472
-18.058
-18.643
-19.221
-19.791
-20.349
-20.892
-21.416
-21.916
-22.389
-22.829
-23.232
-23.593
-23.907
-24.169
-24.375
-24.523
-24.61
-24.634
-24.593
-24.485
-24.309
-24.064
-23.75
-23.366
-22.911
-22.385
-21.789
-21.127
-20.402
-19.618
-18.779
-17.892
-16.963
-16.001
-15.014
-14.008
-12.989
-11.962
-10.934
-9.913
-8.905
-7.917
-6.954
-6.026
-5.142
-4.314
-3.553
-2.862
-2.246
-1.707
-1.247
-0.871
-0.578
-0.361
-0.222
-0.164
-0.194
-0.332
-0.59
-0.958
-1.43
-1.985
-2.588
-3.215
-3.828
-4.378
-4.834
-5.177
-5.395
-5.504
-5.51
-5.405
-5.181
-4.797
-4.219
-3.451
-2.507
-1.428
-0.318
0.73
1.594
2.112
2.172
1.692
0.608
-1.072
-3.308
-6.058
-9.259
-12.888
-16.967
-21.476
-26.345
-31.409
-36.376
-40.946
-44.79
-47.544
-48.806
-48.099
-45.175
-40.096
-33.22
-25.237
-16.773
-8.099
0.396
8.106
15.028
21.585
28.771
38.513
52.142
69.934
92.258
119.359
150.14
182.538
213.015
236.414
248.651
246.902
228.147
189.732
130.752
52.284
-41.822
-145.442
-253.069
-359.604
-459.145
-545.3
-612.465
-657.267
-679.373
-680.712
-663.457
-630.162
-584.431
-531.237
-476.165
-423.301
-374.729
-331.124
-292.594
-259.067
-230.142
-204.429
-179.795
-154.956
-129.578
-103.96
-78.939
-55.201
-33.213
-13.719
2.417
14.775
23.286
28.192
30.094
29.532
26.995
23.071
18.264
13.024
7.786
2.881
-1.404
-4.814
-7.2
-8.465
-8.535
-7.399
-5.076
-1.626
2.798
8.034
13.918
20.262
26.914
33.704
40.422
46.899
52.996
58.604
63.683
68.212
72.162
75.542
78.389
80.748
82.701
84.324
85.672
86.818
87.833
88.798
89.812
90.948
92.253
93.766
95.508
97.492
99.731
102.223
104.948
107.891
111.032
114.356
117.853
121.507
125.294
129.189
133.164
137.191
141.251
145.321
149.377
153.397
157.359
161.243
165.035
168.713
172.254
175.636
178.833
181.822
184.582
187.091
189.326
191.269
192.901
194.209
195.179
195.801
196.065
195.962
195.487
194.637
193.411
191.809
189.833
187.489
184.782
181.721
178.319
174.586
170.537
166.186
161.551
156.648
151.499
146.122
140.539
134.772
128.843
122.777
116.598
110.329
103.995
97.62
91.227
84.842
78.487
72.182
65.951
59.812
53.784
47.887
42.136
36.548
31.135
25.912
20.889
16.077
11.484
7.118
2.985
-0.912
-4.568
-7.982
-11.154
-14.085
-16.775
-19.228
-21.449
-23.441
-25.212
-26.767
-28.115
-29.265
-30.224
-31.004
-31.613
-32.063
-32.363
-32.526
-32.561
-32.48
-32.293
-32.012
-31.647
-31.209
-30.706
-30.15
-29.549
-28.912
-28.247
-27.563
-26.866
-26.163
-25.46
-24.762
-24.076
-23.405
-22.753
-22.125
-21.523
-20.951
-20.411
-19.904
-19.434
-19
-18.605
-18.248
-17.93
-17.652
-17.414
-17.216
-17.058
-16.939
-16.861
-16.821
-16.819
-16.855
-16.927
-17.034
-17.175
-17.35
-17.556
-17.793
-18.06
-18.355
-18.678
-19.028
-19.403
-19.801
-20.221
-20.66
-21.116
-21.587
-22.07
-22.562
-23.06
-23.56
-24.06
-24.556
-25.045
-25.523
-25.983
-26.423
-26.835
-27.217
-27.562
-27.867
-28.127
-28.338
-28.499
-28.607
-28.659
-28.652
-28.585
-28.456
-28.264
-28.007
-27.686
-27.299
-26.848
-26.336
-25.765
-25.138
-24.46
-23.735
-22.97
-22.172
-21.347
-20.501
-19.639
-18.767
-17.892
-17.022
-16.163
-15.32
-14.501
-13.712
-12.964
-12.266
-11.625
-11.045
-10.528
-10.076
-9.693
-9.381
-9.141
-8.967
-8.857
-8.815
-8.851
-8.987
-9.227
-9.563
-9.979
-10.448
-10.95
-11.464
-11.954
-12.378
-12.704
-12.911
-12.999
-12.986
-12.871
-12.646
-12.28
-11.719
-10.946
-9.973
-8.833
-7.601
-6.352
-5.171
-4.186
-3.551
-3.381
-3.752
-4.689
-6.142
-8.078
-10.466
-13.291
-16.594
-20.389
-24.614
-29.13
-33.719
-38.106
-41.99
-45.047
-46.794
-46.706
-44.531
-40.286
-34.319
-27.292
-19.737
-11.887
-4.156
2.865
9.15
15.075
21.803
31.367
44.959
62.837
85.26
112.371
143.452
176.812
208.737
233.791
248.014
248.565
232.746
198.299
143.423
68.182
-23.786
-126.391
-234.299
-342.413
-445.588
-538.558
-615.028
-670.489
-703.798
-715.836
-708.249
-683.346
-643.463
-591.713
-533.149
-472.151
-411.917
-355.165
-303.072
-256.166
-215.354
-181.064
-152.746
-129.79
-110.919
-94.255
-79.248
-65.825
-53.641
-42.435
-31.626
-20.748
-10.37
-1.705
4.698
8.784
10.776
11.071
9.576
6.252
1.66
-3.304
-7.801
-11.298
-13.633
-14.833
-14.803
-13.436
-10.748
-6.877
-2.092
3.374
9.367
15.763
22.468
29.327
36.12
42.658
48.79
54.408
59.477
63.978
67.884
71.2
73.958
76.201
78.009
79.458
80.601
81.504
82.23
82.857
83.484
84.196
85.048
86.083
87.322
88.778
90.467
92.39
94.53
96.874
99.404
102.108
104.98
108.009
111.174
114.455
117.825
121.26
124.742
128.251
131.766
135.268
138.737
142.157
145.513
148.79
151.965
155.019
157.927
160.669
163.224
165.572
167.692
169.565
171.174
172.506
173.548
174.289
174.719
174.83
174.615
174.071
173.196
171.988
170.448
168.58
166.388
163.88
161.063
157.948
154.546
150.87
146.933
142.752
138.342
133.721
128.908
123.92
118.778
113.503
108.116
102.638
97.09
91.494
85.872
80.244
74.631
69.052
63.526
58.071
52.703
47.44
42.296
37.284
32.419
27.711
23.171
18.809
14.633
10.65
6.866
3.285
-0.089
-3.254
-6.208
-8.951
-11.484
-13.809
-15.928
-17.845
-19.564
-21.091
-22.433
-23.595
-24.585
-25.41
-26.08
-26.603
-26.988
-27.244
-27.379
-27.404
-27.327
-27.158
-26.906
-26.579
-26.187
-25.737
-25.238
-24.698
-24.123
-23.522
-22.9
-22.264
-21.621
-20.974
-20.33
-19.693
-19.068
-18.458
-17.867
-17.297
-16.752
-16.233
-15.743
-15.281
-14.851
-14.452
-14.085
-13.751
-13.45
-13.182
-12.948
-12.747
-12.578
-12.442
-12.338
-12.265
-12.223
-12.212
-12.231
-12.28
-12.359
-12.468
-12.607
-12.773
-12.968
-13.19
-13.437
-13.71
-14.006
-14.326
-14.667
-15.029
-15.412
-15.814
-16.235
-16.672
-17.124
-17.589
-18.065
-18.549
-19.038
-19.53
-20.022
-20.509
-20.991
-21.463
-21.923
-22.368
-22.792
-23.193
-23.565
-23.903
-24.203
-24.46
-24.67
-24.829
-24.934
-24.985
-24.978
-24.912
-24.785
-24.597
-24.345
-24.03
-23.651
-23.206
-22.696
-22.123
-21.491
-20.803
-20.063
-19.277
-18.45
-17.59
-16.706
-15.802
-14.884
-13.958
-13.028
-12.1
-11.18
-10.272
-9.382
-8.519
-7.69
-6.907
-6.179
-5.514
-4.916
-4.389
-3.933
-3.552
-3.243
-3.002
-2.825
-2.718
-2.689
-2.754
-2.922
-3.191
-3.554
-3.997
-4.491
-5.002
-5.485
-5.889
-6.177
-6.33
-6.34
-6.218
-5.968
-5.586
-5.064
-4.38
-3.512
-2.451
-1.203
0.216
1.731
3.215
4.524
5.486
5.962
5.87
5.146
3.769
1.74
-0.912
-4.127
-7.843
-12.027
-16.669
-21.754
-27.214
-32.823
-38.228
-43.042
-46.827
-49.23
-49.886
-48.328
-44.367
-38.114
-29.966
-20.723
-11.084
-1.318
8.156
16.715
24.44
31.827
39.96
50.898
65.97
85.4
109.587
138.774
171.706
206.021
237.731
261.217
272.123
267.529
244.409
200.125
133.924
47.245
-55.479
-167.386
-282.343
-394.981
-499.524
-589.748
-660.082
-706.956
-729.76
-730.592
-711.86
-675.934
-625.678
-565.129
-499.538
-433.825
-371.582
-314.378
-262.952
-218.098
-180.76
-151.379
-128.777
-110.84
-95.325
-81.118
-68.1
-56.152
-44.683
-32.743
-20.173
-7.813
2.882
10.967
16.414
19.524
20.539
19.354
15.973
10.954
5.359
0.154
-4.132
-7.29
-9.33
-10.175
-9.664
-7.783
-4.678
-0.571
4.313
9.816
15.87
22.375
29.182
36.104
42.896
49.358
55.371
60.854
65.772
70.109
73.842
76.975
79.559
81.661
83.358
84.715
85.776
86.594
87.239
87.798
88.375
89.049
89.868
90.867
92.068
93.485
95.132
97.007
99.09
101.361
103.805
106.411
109.174
112.084
115.12
118.261
121.48
124.758
128.076
131.416
134.756
138.078
141.363
144.596
147.762
150.845
153.826
156.682
159.393
161.938
164.298
166.452
168.38
170.065
171.49
172.642
173.51
174.082
174.35
174.305
173.943
173.259
172.252
170.92
169.267
167.294
165.007
162.412
159.52
156.339
152.881
149.158
145.185
140.978
136.552
131.926
127.117
122.144
117.029
111.79
106.449
101.027
95.545
90.025
84.487
78.953
73.441
67.972
62.564
57.234
52
46.877
41.88
37.023
32.317
27.776
23.408
19.224
15.231
11.436
7.843
4.458
1.283
-1.68
-4.431
-6.97
-9.298
-11.419
-13.334
-15.05
-16.571
-17.902
-19.052
-20.028
-20.837
-21.488
-21.99
-22.353
-22.585
-22.696
-22.697
-22.597
-22.405
-22.131
-21.786
-21.377
-20.914
-20.406
-19.861
-19.288
-18.692
-18.083
-17.466
-16.846
-16.23
-15.623
-15.028
-14.45
-13.893
-13.359
-12.85
-12.369
-11.918
-11.497
-11.107
-10.749
-10.422
-10.126
-9.861
-9.625
-9.419
-9.24
-9.088
-8.962
-8.862
-8.785
-8.731
-8.698
-8.685
-8.691
-8.715
-8.756
-8.814
-8.888
-8.977
-9.083
-9.205
-9.343
-9.498
-9.669
-9.858
-10.062
-10.285
-10.525
-10.782
-11.059
-11.354
-11.669
-12.005
-12.363
-12.741
-13.14
-13.559
-13.998
-14.454
-14.927
-15.413
-15.911
-16.419
-16.933
-17.453
-17.975
-18.497
-19.014
-19.522
-20.018
-20.497
-20.952
-21.38
-21.773
-22.129
-22.444
-22.713
-22.934
-23.103
-23.216
-23.271
-23.266
-23.196
-23.06
-22.854
-22.576
-22.228
-21.809
-21.321
-20.768
-20.152
-19.479
-18.756
-17.99
-17.185
-16.347
-15.48
-14.59
-13.683
-12.761
-11.829
-10.891
-9.956
-9.032
-8.132
-7.263
-6.434
-5.653
-4.927
-4.259
-3.656
-3.118
-2.64
-2.223
-1.874
-1.602
-1.427
-1.358
-1.391
-1.526
-1.753
-2.054
-2.399
-2.74
-3.014
-3.182
-3.223
-3.124
-2.897
-2.537
-2.031
-1.383
-0.581
0.381
1.498
2.775
4.208
5.735
7.248
8.59
9.568
10.044
9.927
9.137
7.64
5.402
2.42
-1.23
-5.462
-10.21
-15.436
-21.147
-27.29
-33.666
-39.96
-45.769
-50.642
-54.226
-56.124
-55.83
-53.091
-47.897
-40.536
-31.748
-22.217
-12.274
-2.398
6.786
15.286
23.508
32.498
44.216
60.015
80.289
105.568
136.268
171.37
208.699
244.366
272.711
289.236
290.758
273.875
235.491
174.293
91.076
-10.122
-122.492
-240.03
-357.243
-467.99
-565.908
-644.873
-700.612
-732.227
-741.289
-729.517
-699.234
-653.246
-595.05
-530.077
-463.227
-397.724
-336.126
-280.11
-230.488
-188.58
-155.421
-129.803
-110.302
-95.447
-83.019
-72.052
-62.335
-52.822
-42.425
-31.088
-18.931
-6.752
3.764
11.991
17.967
21.517
22.634
21.444
18.113
13.352
8.337
3.843
0.287
-2.091
-3.279
-3.214
-1.792
0.924
4.722
9.366
14.657
20.455
26.668
33.194
39.863
46.453
52.774
58.673
64.049
68.867
73.107
76.742
79.777
82.248
84.201
85.718
86.873
87.716
88.308
88.716
89.021
89.329
89.727
90.271
91.002
91.947
93.118
94.534
96.196
98.089
100.198
102.507
105.005
107.687
110.543
113.553
116.695
119.944
123.274
126.669
130.108
133.57
137.035
140.484
143.898
147.263
150.563
153.775
156.877
159.845
162.658
165.293
167.729
169.943
171.916
173.631
175.071
176.222
177.074
177.614
177.833
177.723
177.28
176.5
175.38
173.922
172.126
169.997
167.541
164.767
161.683
158.3
154.632
150.69
146.492
142.052
137.39
132.522
127.469
122.25
116.887
111.401
105.815
100.149
94.427
88.67
82.9
77.138
71.405
65.72
60.102
54.57
49.139
43.827
38.648
33.617
28.745
24.045
19.528
15.201
11.074
7.153
3.442
-0.053
-3.331
-6.388
-9.225
-11.842
-14.24
-16.423
-18.393
-20.155
-21.714
-23.078
-24.252
-25.244
-26.062
-26.715
-27.213
-27.564
-27.777
-27.864
-27.834
-27.696
-27.461
-27.138
-26.738
-26.269
-25.742
-25.165
-24.547
-23.896
-23.221
-22.528
-21.825
-21.118
-20.413
-19.716
-19.032
-18.365
-17.72
-17.1
-16.507
-15.945
-15.416
-14.921
-14.462
-14.038
-13.652
-13.302
-12.989
-12.711
-12.469
-12.261
-12.086
-11.943
-11.83
-11.745
-11.688
-11.656
-11.646
-11.658
-11.688
-11.736
-11.799
-11.876
-11.964
-12.064
-12.172
-12.29
-12.414
-12.546
-12.683
-12.825
-12.972
-13.124
-13.28
-13.441
-13.607
-13.778
-13.957
-14.143
-14.337
-14.54
-14.752
-14.974
-15.205
-15.447
-15.699
-15.963
-16.237
-16.524
-16.823
-17.135
-17.46
-17.798
-18.148
-18.509
-18.881
-19.261
-19.648
-20.04
-20.435
-20.829
-21.223
-21.612
-21.995
-22.368
-22.729
-23.073
-23.395
-23.692
-23.958
-24.188
-24.378
-24.526
-24.627
-24.68
-24.683
-24.634
-24.529
-24.368
-24.15
-23.873
-23.534
-23.134
-22.671
-22.148
-21.566
-20.928
-20.238
-19.5
-18.72
-17.905
-17.061
-16.194
-15.309
-14.41
-13.501
-12.589
-11.677
-10.771
-9.875
-8.998
-8.148
-7.337
-6.573
-5.865
-5.217
-4.632
-4.114
-3.662
-3.278
-2.955
-2.693
-2.496
-2.373
-2.342
-2.411
-2.581
-2.844
-3.188
-3.586
-4.002
-4.397
-4.717
-4.929
-5.015
-4.966
-4.795
-4.507
-4.099
-3.561
-2.873
-2.013
-0.971
0.246
1.623
3.084
4.503
5.739
6.621
7.011
6.826
6.002
4.514
2.364
-0.422
-3.79
-7.68
-12.064
-16.933
-22.271
-28.007
-33.918
-39.653
-44.83
-49.014
-51.85
-52.97
-51.897
-48.429
-42.664
-34.98
-26.15
-16.859
-7.369
1.893
10.28
17.849
25.065
32.988
43.686
58.495
77.672
101.684
130.825
163.893
198.598
230.954
255.293
267.23
263.737
241.637
198.175
132.392
45.62
-57.676
-170.807
-287.792
-403.244
-511.387
-605.77
-680.315
-731.422
-758.583
-763.122
-746.814
-711.613
-659.797
-595.701
-525.323
-453.311
-382.991
-317.207
-257.712
-206.183
-164.778
-133.611
-110.748
-94.643
-83.45
-74.876
-67.921
-61.536
-53.859
-44.279
-33.221
-21.002
-8.78
1.847
10.413
16.624
19.924
20.471
18.593
14.598
9.456
4.312
-0.22
-3.705
-5.874
-6.774
-6.361
-4.574
-1.578
2.413
7.2
12.588
18.473
24.785
31.395
38.124
44.749
51.056
56.913
62.242
67.006
71.192
74.776
77.765
80.21
82.177
83.74
84.965
85.891
86.575
87.088
87.516
87.963
88.513
89.217
90.112
91.224
92.567
94.154
95.984
98.037
100.292
102.736
105.357
108.151
111.108
114.206
117.424
120.736
124.122
127.562
131.038
134.528
138.013
141.473
144.893
148.259
151.554
154.757
157.846
160.8
163.596
166.215
168.636
170.837
172.799
174.506
175.944
177.098
177.959
178.514
178.755
178.676
178.272
177.54
176.477
175.085
173.365
171.322
168.961
166.289
163.315
160.05
156.504
152.691
148.625
144.321
139.797
135.068
130.153
125.072
119.844
114.49
109.031
103.486
97.879
92.229
86.557
80.885
75.232
69.616
64.056
58.571
53.176
47.888
42.721
37.689
32.805
28.081
23.529
19.156
14.972
10.983
7.197
3.617
0.249
-2.906
-5.846
-8.57
-11.079
-13.373
-15.456
-17.33
-19.001
-20.472
-21.751
-22.844
-23.757
-24.5
-25.08
-25.507
-25.788
-25.935
-25.956
-25.86
-25.659
-25.361
-24.977
-24.516
-23.986
-23.398
-22.761
-22.083
-21.371
-20.636
-19.883
-19.12
-18.354
-17.592
-16.838
-16.1
-15.381
-14.686
-14.019
-13.384
-12.784
-12.22
-11.695
-11.211
-10.769
-10.37
-10.013
-9.7
-9.429
-9.201
-9.013
-8.866
-8.757
-8.686
-8.651
-8.65
-8.682
-8.745
-8.838
-8.958
-9.104
-9.274
-9.465
-9.677
-9.907
-10.154
-10.416
-10.692
-10.98
-11.28
-11.591
-11.911
-12.241
-12.58
-12.927
-13.282
-13.645
-14.016
-14.396
-14.785
-15.184
-15.593
-16.015
-16.449
-16.896
-17.356
-17.83
-18.318
-18.82
-19.336
-19.866
-20.41
-20.969
-21.541
-22.129
-22.73
-23.344
-23.97
-24.606
-25.251
-25.903
-26.559
-27.217
-27.873
-28.526
-29.172
-29.809
-30.433
-31.041
-31.629
-32.191
-32.723
-33.22
-33.676
-34.086
-34.444
-34.747
-34.993
-35.177
-35.298
-35.352
-35.338
-35.253
-35.097
-34.867
-34.562
-34.18
-33.722
-33.19
-32.586
-31.912
-31.174
-30.375
-29.522
-28.622
-27.683
-26.71
-25.708
-24.683
-23.641
-22.587
-21.527
-20.466
-19.411
-18.37
-17.354
-16.373
-15.439
-14.559
-13.738
-12.981
-12.291
-11.67
-11.119
-10.633
-10.211
-9.86
-9.588
-9.412
-9.343
-9.379
-9.513
-9.733
-10.011
-10.312
-10.597
-10.812
-10.923
-10.911
-10.771
-10.512
-10.14
-9.65
-9.03
-8.262
-7.322
-6.202
-4.909
-3.459
-1.927
-0.44
0.861
1.802
2.248
2.12
1.355
-0.068
-2.147
-4.858
-8.141
-11.935
-16.207
-20.945
-26.134
-31.703
-37.425
-42.947
-47.88
-51.788
-54.32
-55.113
-53.7
-49.893
-43.799
-35.809
-26.721
-17.23
-7.603
1.737
10.162
17.749
24.976
32.922
43.646
58.469
77.617
101.5
130.362
162.964
196.977
228.421
251.668
262.367
257.591
234.298
189.846
123.455
36.514
-66.559
-178.897
-294.364
-407.57
-512.705
-603.517
-674.385
-721.682
-744.762
-745.703
-726.907
-690.749
-640.127
-579.115
-512.993
-446.704
-383.85
-326.002
-273.902
-228.341
-190.235
-159.991
-136.426
-117.452
-100.862
-85.576
-71.506
-58.554
-46.165
-33.437
-20.229
-7.369
3.71
12.086
17.746
20.997
22.095
20.964
17.621
12.628
7.047
1.84
-2.457
-5.627
-7.671
-8.512
-7.986
-6.074
-2.922
1.253
6.226
11.839
18.017
24.659
31.611
38.683
45.626
52.237
58.391
64.007
69.049
73.501
77.338
80.567
83.24
85.424
87.197
88.628
89.76
90.65
91.369
92.005
92.666
93.434
94.358
95.475
96.806
98.367
100.171
102.219
104.487
106.956
109.611
112.442
115.442
118.601
121.898
125.311
128.813
132.384
136.004
139.654
143.314
146.962
150.58
154.152
157.663
161.097
164.433
167.648
170.721
173.629
176.353
178.872
181.163
183.208
184.99
186.495
187.71
188.623
189.223
189.501
189.451
189.069
188.35
187.294
185.899
184.169
182.107
179.719
177.013
173.997
170.681
167.078
163.199
159.061
154.679
150.068
145.247
140.234
135.048
129.71
124.24
118.659
112.989
107.25
101.465
95.655
89.84
84.04
78.275
72.564
66.924
61.372
55.926
50.599
45.407
40.364
35.48
30.768
26.238
21.897
17.755
13.816
10.087
6.571
3.272
0.192
-2.67
-5.312
-7.737
-9.946
-11.942
-13.731
-15.316
-16.705
-17.903
-18.917
-19.756
-20.428
-20.941
-21.305
-21.529
-21.623
-21.595
-21.458
-21.219
-20.889
-20.478
-19.996
-19.451
-18.854
-18.212
-17.535
-16.829
-16.103
-15.365
-14.62
-13.874
-13.135
-12.407
-11.695
-11.002
-10.334
-9.693
-9.082
-8.503
-7.959
-7.451
-6.979
-6.545
-6.15
-5.793
-5.474
-5.192
-4.947
-4.739
-4.564
-4.423
-4.313
-4.234
-4.183
-4.158
-4.16
-4.185
-4.232
-4.301
-4.391
-4.5
-4.626
-4.77
-4.931
-5.108
-5.301
-5.51
-5.736
-5.978
-6.237
-6.514
-6.809
-7.122
-7.453
-7.801
-8.168
-8.553
-8.957
-9.378
-9.818
-10.276
-10.752
-11.246
-11.757
-12.285
-12.827
-13.382
-13.949
-14.526
-15.11
-15.698
-16.287
-16.876
-17.459
-18.036
-18.602
-19.152
-19.681
-20.185
-20.658
-21.094
-21.489
-21.836
-22.132
-22.373
-22.556
-22.678
-22.737
-22.73
-22.654
-22.509
-22.293
-22.006
-21.645
-21.212
-20.707
-20.134
-19.495
-18.795
-18.038
-17.228
-16.372
-15.479
-14.555
-13.606
-12.638
-11.654
-10.663
-9.675
-8.696
-7.732
-6.791
-5.881
-5.016
-4.207
-3.464
-2.787
-2.182
-1.649
-1.192
-0.814
-0.515
-0.289
-0.137
-0.061
-0.073
-0.195
-0.432
-0.774
-1.205
-1.698
-2.228
-2.782
-3.325
-3.81
-4.217
-4.522
-4.731
-4.872
-4.933
-4.896
-4.735
-4.39
-3.839
-3.096
-2.18
-1.144
-0.076
0.952
1.816
2.353
2.477
2.115
1.246
-0.081
-1.868
-4.108
-6.768
-9.873
-13.426
-17.39
-21.708
-26.211
-30.612
-34.631
-37.907
-40.057
-40.73
-39.479
-36.127
-30.821
-23.877
-15.955
-7.677
0.728
8.845
16.035
22.349
28.264
34.811
43.971
57.055
74.3
96.143
122.892
153.47
185.761
216.037
238.953
250.298
247.196
226.645
185.996
124.383
43.029
-54.032
-160.369
-270.083
-377.996
-478.238
-564.487
-631.398
-675.547
-696.376
-696.064
-677.117
-641.894
-594.002
-538.124
-479.19
-421.84
-368.874
-320.896
-278.167
-241.098
-209.329
-182.166
-158.457
-136.117
-114.035
-92.46
-71.738
-52.233
-34.415
-18.228
-3.725
8.076
16.612
21.994
24.412
24.461
22.756
19.459
14.745
9.316
3.817
-1.257
-5.432
-8.605
-10.757
-11.735
-11.431
-9.861
-7.087
-3.249
1.444
6.86
12.879
19.336
26.086
32.936
39.654
46.059
52.028
57.476
62.368
66.686
70.408
73.543
76.138
78.258
79.98
81.371
82.485
83.382
84.135
84.833
85.575
86.436
87.466
88.699
90.157
91.855
93.806
96.008
98.442
101.088
103.932
106.962
110.171
113.548
117.069
120.713
124.452
128.266
132.133
136.035
139.947
143.849
147.72
151.542
155.301
158.976
162.545
165.985
169.272
172.382
175.295
177.986
180.434
182.618
184.52
186.124
187.417
188.385
189.016
189.302
189.235
188.81
188.022
186.872
185.357
183.481
181.247
178.663
175.736
172.475
168.892
165
160.813
156.346
151.618
146.647
141.45
136.05
130.467
124.724
118.843
112.847
106.76
100.605
94.407
88.188
81.971
75.778
69.631
63.55
57.555
51.664
45.896
40.267
34.792
29.486
24.363
19.433
14.708
10.196
5.906
1.843
-1.986
-5.578
-8.931
-12.042
-14.912
-17.542
-19.934
-22.091
-24.017
-25.719
-27.202
-28.474
-29.542
-30.416
-31.104
-31.616
-31.963
-32.155
-32.202
-32.116
-31.907
-31.587
-31.166
-30.656
-30.067
-29.41
-28.694
-27.93
-27.126
-26.293
-25.437
-24.569
-23.695
-22.823
-21.958
-21.109
-20.28
-19.476
-18.703
-17.963
-17.262
-16.601
-15.983
-15.41
-14.885
-14.409
-13.982
-13.605
-13.28
-13.006
-12.783
-12.612
-12.491
-12.419
-12.397
-12.423
-12.497
-12.616
-12.782
-12.993
-13.247
-13.544
-13.882
-14.261
-14.678
-15.131
-15.618
-16.139
-16.69
-17.27
-17.876
-18.508
-19.162
-19.837
-20.531
-21.24
-21.962
-22.693
-23.43
-24.169
-24.907
-25.639
-26.361
-27.069
-27.759
-28.428
-29.071
-29.683
-30.26
-30.796
-31.285
-31.722
-32.103
-32.421
-32.673
-32.855
-32.965
-33.001
-32.96
-32.84
-32.641
-32.361
-32.001
-31.559
-31.037
-30.434
-29.754
-29
-28.176
-27.287
-26.341
-25.342
-24.299
-23.221
-22.118
-20.995
-19.862
-18.723
-17.586
-16.461
-15.355
-14.275
-13.227
-12.222
-11.27
-10.383
-9.57
-8.838
-8.192
-7.633
-7.166
-6.793
-6.515
-6.326
-6.226
-6.217
-6.305
-6.51
-6.841
-7.288
-7.843
-8.483
-9.174
-9.893
-10.603
-11.253
-11.812
-12.259
-12.584
-12.805
-12.926
-12.937
-12.826
-12.55
-12.075
-11.409
-10.56
-9.566
-8.523
-7.519
-6.674
-6.154
-6.075
-6.515
-7.529
-9.1
-11.19
-13.774
-16.805
-20.263
-24.17
-28.507
-33.22
-38.166
-43.082
-47.666
-51.568
-54.411
-55.769
-55.163
-52.369
-47.447
-40.751
-32.956
-24.63
-16.025
-7.555
0.184
7.184
13.83
21.24
31.425
45.521
63.715
86.273
113.306
144.055
176.818
207.863
231.805
244.788
244.082
227.099
191.679
136.096
60.506
-31.387
-133.499
-240.499
-347.441
-449.405
-541.082
-616.195
-670.233
-701.92
-712.401
-703.658
-677.835
-637.12
-584.97
-526.549
-466.646
-409.05
-355.757
-307.164
-263.812
-226.422
-194.949
-168.699
-146.253
-125.4
-105.176
-85.934
-67.793
-50.908
-35.272
-20.307
-6.311
5.37
14.128
19.955
23.01
23.959
23.158
20.366
15.893
10.594
5.172
0.322
-3.524
-6.389
-8.206
-8.764
-8.011
-5.979
-2.766
1.384
6.273
11.793
17.816
24.235
30.921
37.668
44.259
50.514
56.308
61.579
66.301
70.446
73.992
76.949
79.367
81.328
82.913
84.186
85.197
85.995
86.648
87.246
87.884
88.634
89.541
90.631
91.924
93.438
95.185
97.163
99.348
101.72
104.261
106.961
109.813
112.803
115.91
119.11
122.377
125.691
129.035
132.39
135.734
139.047
142.312
145.512
148.635
151.662
154.574
157.352
159.974
162.421
164.674
166.714
168.522
170.082
171.379
172.401
173.137
173.578
173.714
173.54
173.052
172.246
171.122
169.681
167.924
165.855
163.481
160.809
157.848
154.608
151.101
147.339
143.337
139.109
134.673
130.044
125.24
120.279
115.182
109.967
104.655
99.266
93.819
88.336
82.837
77.34
71.866
66.433
61.058
55.758
50.55
45.448
40.467
35.621
30.92
26.377
22.001
17.802
13.788
9.964
6.337
2.912
-0.309
-3.323
-6.129
-8.726
-11.115
-13.297
-15.276
-17.053
-18.635
-20.025
-21.229
-22.255
-23.108
-23.797
-24.33
-24.715
-24.961
-25.077
-25.073
-24.958
-24.741
-24.432
-24.041
-23.577
-23.049
-22.467
-21.838
-21.172
-20.476
-19.758
-19.026
-18.287
-17.546
-16.811
-16.087
-15.378
-14.691
-14.028
-13.395
-12.794
-12.227
-11.699
-11.209
-10.761
-10.355
-9.991
-9.671
-9.395
-9.162
-8.971
-8.822
-8.714
-8.644
-8.611
-8.613
-8.649
-8.715
-8.812
-8.935
-9.084
-9.256
-9.451
-9.665
-9.897
-10.146
-10.409
-10.685
-10.973
-11.271
-11.578
-11.895
-12.219
-12.551
-12.891
-13.237
-13.589
-13.947
-14.309
-14.676
-15.047
-15.421
-15.798
-16.179
-16.564
-16.952
-17.344
-17.74
-18.139
-18.54
-18.943
-19.345
-19.747
-20.144
-20.537
-20.922
-21.299
-21.666
-22.02
-22.361
-22.684
-22.987
-23.267
-23.521
-23.744
-23.931
-24.08
-24.188
-24.252
-24.27
-24.242
-24.164
-24.035
-23.854
-23.62
-23.332
-22.987
-22.585
-22.125
-21.608
-21.037
-20.414
-19.741
-19.024
-18.269
-17.482
-16.671
-15.839
-14.993
-14.137
-13.275
-12.413
-11.553
-10.698
-9.853
-9.025
-8.22
-7.45
-6.723
-6.043
-5.419
-4.856
-4.356
-3.923
-3.558
-3.251
-3.005
-2.824
-2.715
-2.699
-2.782
-2.961
-3.232
-3.587
-4.004
-4.454
-4.885
-5.234
-5.462
-5.546
-5.474
-5.259
-4.895
-4.371
-3.692
-2.847
-1.832
-0.651
0.7
2.213
3.826
5.424
6.847
7.898
8.437
8.37
7.618
6.146
3.922
0.945
-2.701
-6.927
-11.666
-16.881
-22.579
-28.707
-35.057
-41.307
-47.047
-51.82
-55.276
-57.017
-56.535
-53.588
-48.185
-40.639
-31.723
-22.131
-12.175
-2.314
6.855
15.367
23.653
32.78
44.718
60.792
81.325
106.752
137.384
172.113
208.708
243.272
270.204
285.104
284.928
266.448
226.761
164.735
81.313
-19.428
-130.742
-246.723
-362.008
-470.615
-566.356
-643.311
-697.385
-727.764
-736.018
-723.838
-693.492
-647.72
-589.942
-525.484
-459.158
-394.15
-333
-277.387
-228.149
-186.635
-153.914
-128.814
-109.906
-95.701
-83.982
-73.766
-64.818
-56.061
-46.355
-35.613
-23.962
-12.213
-2.043
5.917
11.712
15.161
16.226
15.024
11.719
7.024
2.114
-2.239
-5.631
-7.831
-8.831
-8.57
-6.954
-4.052
-0.081
4.72
10.151
16.072
22.396
29.026
35.792
42.48
48.899
54.899
60.382
65.312
69.669
73.427
76.591
79.196
81.288
82.948
84.252
85.247
85.993
86.554
87.01
87.461
87.992
88.657
89.497
90.535
91.785
93.265
94.975
96.901
99.028
101.342
103.83
106.488
109.306
112.267
115.349
118.529
121.783
125.095
128.448
131.821
135.198
138.559
141.889
145.175
148.4
151.545
154.589
157.509
160.285
162.896
165.323
167.544
169.54
171.294
172.793
174.022
174.97
175.625
175.979
176.023
175.753
175.165
174.257
173.028
171.478
169.613
167.436
164.955
162.177
159.113
155.773
152.168
148.314
144.224
139.915
135.403
130.705
125.841
120.829
115.69
110.444
105.111
99.711
94.267
88.797
83.322
77.861
72.433
67.055
61.746
56.521
51.396
46.385
41.503
36.761
32.17
27.743
23.487
19.41
15.52
11.822
8.32
5.018
1.92
-0.976
-3.667
-6.155
-8.441
-10.528
-12.421
-14.122
-15.638
-16.975
-18.138
-19.136
-19.976
-20.666
-21.214
-21.63
-21.922
-22.1
-22.172
-22.149
-22.038
-21.85
-21.592
-21.273
-20.902
-20.487
-20.035
-19.553
-19.049
-18.528
-17.998
-17.462
-16.928
-16.398
-15.877
-15.369
-14.876
-14.402
-13.949
-13.519
-13.113
-12.732
-12.378
-12.051
-11.751
-11.479
-11.232
-11.012
-10.817
-10.646
-10.498
-10.372
-10.267
-10.182
-10.115
-10.066
-10.033
-10.016
-10.015
-10.027
-10.053
-10.091
-10.141
-10.204
-10.279
-10.366
-10.467
-10.581
-10.709
-10.853
-11.012
-11.186
-11.377
-11.583
-11.807
-12.047
-12.304
-12.578
-12.87
-13.179
-13.508
-13.854
-14.219
-14.6
-14.997
-15.409
-15.833
-16.268
-16.712
-17.161
-17.613
-18.067
-18.519
-18.967
-19.408
-19.836
-20.249
-20.642
-21.009
-21.345
-21.646
-21.905
-22.12
-22.288
-22.405
-22.47
-22.479
-22.431
-22.323
-22.155
-21.924
-21.629
-21.268
-20.842
-20.353
-19.802
-19.192
-18.528
-17.815
-17.057
-16.263
-15.44
-14.594
-13.729
-12.85
-11.963
-11.073
-10.185
-9.304
-8.436
-7.589
-6.773
-5.998
-5.275
-4.611
-4.012
-3.48
-3.019
-2.63
-2.313
-2.062
-1.877
-1.762
-1.725
-1.784
-1.949
-2.217
-2.581
-3.027
-3.528
-4.047
-4.542
-4.961
-5.266
-5.438
-5.472
-5.376
-5.158
-4.812
-4.328
-3.684
-2.859
-1.841
-0.638
0.733
2.199
3.632
4.889
5.796
6.214
6.06
5.274
3.833
1.74
-0.977
-4.263
-8.057
-12.327
-17.062
-22.244
-27.804
-33.517
-39.031
-43.959
-47.86
-50.374
-51.131
-49.663
-45.775
-39.571
-31.436
-22.148
-12.4
-2.463
7.226
16.017
23.967
31.547
39.82
50.838
65.93
85.332
109.49
138.722
171.839
206.558
238.924
263.246
275.106
271.495
249.242
205.6
139.674
52.725
-50.879
-164.253
-281.282
-396.421
-503.662
-596.811
-670.152
-719.989
-745.763
-749.216
-732.345
-697.634
-648.025
-587.196
-520.386
-452.22
-385.814
-323.542
-266.985
-216.991
-174.763
-141.255
-115.4
-95.838
-81.187
-69.407
-59.487
-51.131
-43.264
-34.659
-25.167
-14.882
-4.51
4.34
11.061
15.746
18.193
18.315
16.255
12.191
6.855
1.493
-3.158
-6.746
-9.042
-10.064
-9.765
-8.042
-5.002
-0.902
4.022
9.565
15.599
22.061
28.837
35.741
42.548
49.042
55.084
60.597
65.543
69.907
73.668
76.83
79.443
81.574
83.298
84.684
85.778
86.628
87.304
87.888
88.483
89.171
90.004
91.019
92.237
93.673
95.339
97.234
99.335
101.624
104.085
106.706
109.481
112.401
115.445
118.592
121.818
125.101
128.423
131.766
135.11
138.435
141.725
144.963
148.137
151.232
154.227
157.103
159.838
162.412
164.806
167.002
168.978
170.718
172.206
173.429
174.376
175.035
175.398
175.457
175.207
174.643
173.764
172.569
171.058
169.234
167.101
164.666
161.936
158.92
155.628
152.071
148.263
144.217
139.948
135.474
130.809
125.973
120.983
115.859
110.621
105.288
99.881
94.42
88.925
83.416
77.912
72.432
66.994
61.616
56.314
51.103
45.999
41.016
36.166
31.461
26.913
22.532
18.326
14.304
10.471
6.835
3.398
0.166
-2.86
-5.678
-8.287
-10.689
-12.885
-14.876
-16.667
-18.262
-19.665
-20.883
-21.921
-22.788
-23.489
-24.034
-24.431
-24.689
-24.815
-24.821
-24.714
-24.504
-24.2
-23.812
-23.349
-22.82
-22.234
-21.599
-20.923
-20.215
-19.482
-18.732
-17.972
-17.208
-16.446
-15.692
-14.952
-14.229
-13.53
-12.857
-12.213
-11.603
-11.027
-10.489
-9.989
-9.53
-9.112
-8.736
-8.402
-8.11
-7.859
-7.65
-7.48
-7.349
-7.256
-7.199
-7.177
-7.188
-7.231
-7.304
-7.406
-7.536
-7.691
-7.871
-8.074
-8.298
-8.542
-8.806
-9.087
-9.386
-9.7
-10.032
-10.378
-10.741
-11.118
-11.51
-11.917
-12.337
-12.769
-13.215
-13.672
-14.141
-14.622
-15.113
-15.615
-16.128
-16.651
-17.183
-17.724
-18.27
-18.822
-19.377
-19.933
-20.488
-21.037
-21.581
-22.115
-22.639
-23.148
-23.64
-24.112
-24.559
-24.978
-25.363
-25.71
-26.013
-26.27
-26.476
-26.629
-26.726
-26.766
-26.745
-26.663
-26.517
-26.306
-26.03
-25.687
-25.275
-24.795
-24.249
-23.639
-22.969
-22.242
-21.462
-20.637
-19.774
-18.88
-17.961
-17.022
-16.068
-15.104
-14.136
-13.17
-12.209
-11.26
-10.331
-9.431
-8.572
-7.764
-7.014
-6.327
-5.707
-5.158
-4.68
-4.274
-3.934
-3.66
-3.456
-3.33
-3.3
-3.375
-3.553
-3.828
-4.187
-4.603
-5.041
-5.463
-5.817
-6.066
-6.194
-6.192
-6.071
-5.836
-5.483
-5.001
-4.368
-3.563
-2.574
-1.41
-0.084
1.333
2.72
3.941
4.829
5.248
5.116
4.372
2.99
0.97
-1.668
-4.876
-8.599
-12.807
-17.491
-22.633
-28.168
-33.885
-39.448
-44.486
-48.575
-51.362
-52.48
-51.464
-48.103
-42.475
-34.925
-26.184
-16.92
-7.413
1.885
10.304
17.862
24.98
32.684
42.996
57.261
75.786
99.112
127.668
160.399
195.168
228.097
253.504
266.948
265.323
245.301
203.957
140.128
54.775
-47.914
-161.124
-278.793
-395.353
-504.709
-600.54
-676.836
-729.545
-757.874
-763.423
-748.066
-714.236
-664.852
-603.612
-535.943
-466.702
-399.165
-335.821
-278.328
-227.555
-184.73
-150.802
-124.61
-104.702
-89.641
-77.332
-66.763
-57.66
-48.966
-39.499
-29.169
-18.103
-7.031
2.418
9.638
14.726
17.487
17.859
16.005
12.106
6.905
1.645
-2.935
-6.472
-8.73
-9.723
-9.396
-7.644
-4.571
-0.428
4.55
10.156
16.257
22.783
29.612
36.558
43.391
49.893
55.925
61.404
66.293
70.576
74.232
77.264
79.722
81.673
83.194
84.355
85.204
85.795
86.201
86.508
86.82
87.227
87.782
88.525
89.481
90.665
92.092
93.764
95.66
97.763
100.059
102.538
105.196
108.025
111.005
114.114
117.33
120.63
123.998
127.414
130.857
134.309
137.751
141.168
144.546
147.868
151.114
154.261
157.289
160.174
162.896
165.433
167.764
169.869
171.731
173.333
174.662
175.706
176.452
176.891
177.015
176.817
176.294
175.442
174.26
172.748
170.91
168.75
166.275
163.491
160.408
157.037
153.389
149.479
145.32
140.93
136.324
131.52
126.537
121.395
116.114
110.713
105.215
99.64
94.01
88.345
82.666
76.994
71.347
65.744
60.203
54.743
49.378
44.125
38.998
34.011
29.176
24.505
20.007
15.693
11.569
7.643
3.92
0.404
-2.9
-5.992
-8.869
-11.532
-13.982
-16.221
-18.251
-20.078
-21.705
-23.137
-24.383
-25.447
-26.338
-27.064
-27.633
-28.054
-28.337
-28.49
-28.522
-28.445
-28.266
-27.996
-27.644
-27.22
-26.731
-26.188
-25.598
-24.971
-24.312
-23.631
-22.934
-22.227
-21.517
-20.81
-20.11
-19.422
-18.751
-18.1
-17.473
-16.873
-16.302
-15.762
-15.255
-14.782
-14.345
-13.943
-13.578
-13.25
-12.958
-12.701
-12.48
-12.293
-12.139
-12.018
-11.927
-11.866
-11.833
-11.828
-11.849
-11.896
-11.966
-12.059
-12.174
-12.31
-12.466
-12.641
-12.834
-13.045
-13.274
-13.52
-13.783
-14.063
-14.359
-14.672
-15
-15.343
-15.699
-16.07
-16.453
-16.849
-17.255
-17.673
-18.101
-18.54
-18.987
-19.441
-19.902
-20.368
-20.836
-21.305
-21.772
-22.233
-22.687
-23.131
-23.563
-23.979
-24.377
-24.753
-25.105
-25.429
-25.72
-25.975
-26.189
-26.358
-26.479
-26.549
-26.566
-26.529
-26.436
-26.285
-26.076
-25.808
-25.481
-25.094
-24.647
-24.139
-23.571
-22.948
-22.27
-21.543
-20.769
-19.955
-19.108
-18.235
-17.343
-16.438
-15.525
-14.61
-13.699
-12.795
-11.905
-11.033
-10.183
-9.362
-8.579
-7.843
-7.162
-6.54
-5.984
-5.496
-5.079
-4.734
-4.461
-4.254
-4.113
-4.042
-4.047
-4.143
-4.335
-4.62
-4.994
-5.44
-5.932
-6.435
-6.903
-7.287
-7.556
-7.687
-7.667
-7.505
-7.192
-6.733
-6.133
-5.373
-4.439
-3.332
-2.056
-0.645
0.806
2.185
3.351
4.136
4.427
4.128
3.165
1.518
-0.823
-3.81
-7.344
-11.365
-15.831
-20.703
-25.96
-31.487
-37.01
-42.221
-46.733
-50.115
-52.037
-52.091
-49.834
-45.146
-38.16
-29.343
-19.55
-9.414
0.721
10.316
18.94
26.732
34.267
42.887
54.375
69.713
89.247
113.33
141.73
172.945
204.038
230.571
247.834
252.162
240.676
210.585
159.711
88.056
-1.507
-103.671
-212.453
-322.271
-427.867
-523.289
-602.035
-659.482
-693.795
-705.74
-697.55
-671.586
-630.251
-577.338
-518.067
-457.291
-399.021
-345.351
-296.672
-253.506
-216.493
-185.491
-159.781
-137.896
-117.565
-97.795
-78.905
-61.001
-44.248
-28.655
-13.663
0.402
12.173
21.022
26.933
30.061
31.072
30.32
27.569
23.13
17.867
12.483
7.668
3.851
1.006
-0.802
-1.361
-0.617
1.396
4.58
8.691
13.532
18.995
24.951
31.293
37.89
44.538
51.023
57.168
62.85
68.007
72.617
76.649
80.085
82.935
85.246
87.103
88.587
89.764
90.684
91.399
91.979
92.513
93.1
93.811
94.691
95.77
97.066
98.598
100.383
102.415
104.677
107.147
109.811
112.657
115.68
118.868
122.198
125.646
129.188
132.802
136.47
140.173
143.889
147.595
151.273
154.905
158.477
161.968
165.356
168.619
171.734
174.678
177.43
179.969
182.271
184.319
186.093
187.58
188.764
189.634
190.179
190.388
190.255
189.775
188.945
187.761
186.225
184.338
182.105
179.532
176.627
173.399
169.859
166.019
161.893
157.498
152.848
147.962
142.859
137.558
132.081
126.447
120.681
114.802
108.835
102.801
96.724
90.626
84.529
78.453
72.42
66.449
60.56
54.77
49.097
43.556
38.162
32.93
27.873
23.001
18.325
13.853
9.594
5.554
1.737
-1.852
-5.21
-8.337
-11.232
-13.896
-16.33
-18.539
-20.525
-22.294
-23.852
-25.205
-26.361
-27.327
-28.113
-28.726
-29.178
-29.478
-29.635
-29.66
-29.563
-29.355
-29.046
-28.646
-28.166
-27.616
-27.005
-26.343
-25.639
-24.901
-24.139
-23.36
-22.571
-21.779
-20.991
-20.213
-19.451
-18.709
-17.992
-17.305
-16.651
-16.035
-15.458
-14.924
-14.435
-13.991
-13.596
-13.249
-12.953
-12.707
-12.513
-12.37
-12.279
-12.239
-12.248
-12.306
-12.411
-12.561
-12.754
-12.99
-13.264
-13.576
-13.923
-14.303
-14.713
-15.151
-15.614
-16.098
-16.599
-17.116
-17.643
-18.178
-18.716
-19.253
-19.784
-20.308
-20.82
-21.315
-21.789
-22.236
-22.652
-23.031
-23.369
-23.66
-23.899
-24.083
-24.208
-24.273
-24.276
-24.214
-24.087
-23.893
-23.632
-23.303
-22.908
-22.446
-21.917
-21.324
-20.671
-19.963
-19.203
-18.397
-17.549
-16.668
-15.762
-14.837
-13.901
-12.959
-12.015
-11.077
-10.155
-9.255
-8.383
-7.547
-6.755
-6.018
-5.35
-4.756
-4.241
-3.806
-3.452
-3.18
-2.995
-2.895
-2.872
-2.926
-3.058
-3.277
-3.608
-4.053
-4.601
-5.237
-5.932
-6.662
-7.413
-8.149
-8.823
-9.414
-9.898
-10.278
-10.584
-10.803
-10.919
-10.907
-10.705
-10.291
-9.679
-8.886
-7.967
-7.007
-6.077
-5.301
-4.844
-4.793
-5.223
-6.161
-7.556
-9.412
-11.719
-14.446
-17.614
-21.23
-25.259
-29.641
-34.207
-38.672
-42.755
-46.101
-48.328
-49.082
-47.912
-44.636
-39.409
-32.559
-24.766
-16.645
-8.412
-0.463
6.578
12.769
18.594
25.091
34.257
47.4
64.712
86.575
113.222
143.52
175.372
205.087
227.368
238.086
234.407
213.38
172.462
110.866
29.841
-66.542
-171.991
-280.82
-387.778
-486.961
-572.012
-637.46
-680.167
-699.943
-698.842
-679.195
-643.687
-596.055
-541.394
-485.248
-431.598
-382.489
-338.545
-299.848
-266.331
-237.485
-211.822
-187.22
-162.407
-137.08
-111.587
-86.758
-63.259
-41.574
-22.44
-6.692
5.264
13.407
18.028
19.75
19.14
16.685
12.944
8.409
3.511
-1.331
-5.795
-9.607
-12.531
-14.422
-15.186
-14.755
-13.12
-10.316
-6.418
-1.588
4.001
10.183
16.772
23.619
30.555
37.377
43.92
50.047
55.654
60.701
65.165
69.02
72.275
74.967
77.148
78.901
80.302
81.412
82.303
83.049
83.728
84.438
85.252
86.217
87.374
88.743
90.34
92.179
94.261
96.568
99.087
101.802
104.698
107.767
110.997
114.366
117.85
121.425
125.067
128.758
132.479
136.208
139.925
143.61
147.245
150.815
154.302
157.683
160.937
164.039
166.966
169.699
172.215
174.491
176.509
178.252
179.703
180.85
181.68
182.183
182.349
182.173
181.647
180.771
179.542
177.961
176.03
173.755
171.141
168.197
164.933
161.361
157.492
153.342
148.926
144.261
139.365
134.257
128.957
123.485
117.863
112.114
106.259
100.322
94.324
88.289
82.239
76.195
70.179
64.211
58.31
52.495
46.785
41.195
35.742
30.439
25.301
20.34
15.567
10.991
6.621
2.463
-1.475
-5.19
-8.677
-11.936
-14.964
-17.762
-20.331
-22.674
-24.792
-26.692
-28.376
-29.853
-31.128
-32.209
-33.103
-33.82
-34.368
-34.757
-34.997
-35.097
-35.067
-34.918
-34.659
-34.301
-33.854
-33.328
-32.732
-32.075
-31.367
-30.616
-29.831
-29.019
-28.187
-27.344
-26.494
-25.644
-24.801
-23.968
-23.152
-22.356
-21.583
-20.839
-20.125
-19.444
-18.797
-18.188
-17.617
-17.084
-16.592
-16.141
-15.73
-15.361
-15.033
-14.746
-14.5
-14.294
-14.128
-14
-13.911
-13.859
-13.844
-13.866
-13.922
-14.015
-14.141
-14.302
-14.497
-14.723
-14.981
-15.268
-15.584
-15.927
-16.296
-16.69
-17.107
-17.547
-18.007
-18.488
-18.986
-19.499
-20.026
-20.563
-21.108
-21.658
-22.208
-22.755
-23.296
-23.828
-24.347
-24.851
-25.334
-25.793
-26.225
-26.623
-26.984
-27.302
-27.573
-27.79
-27.952
-28.056
-28.098
-28.077
-27.991
-27.838
-27.616
-27.325
-26.965
-26.533
-26.029
-25.453
-24.809
-24.099
-23.326
-22.496
-21.613
-20.685
-19.721
-18.729
-17.714
-16.684
-15.644
-14.6
-13.56
-12.528
-11.507
-10.505
-9.528
-8.585
-7.688
-6.846
-6.064
-5.349
-4.707
-4.142
-3.657
-3.253
-2.922
-2.664
-2.485
-2.392
-2.402
-2.524
-2.749
-3.076
-3.495
-3.981
-4.506
-5.02
-5.456
-5.776
-5.956
-5.985
-5.872
-5.609
-5.182
-4.593
-3.832
-2.89
-1.773
-0.473
1.001
2.588
4.173
5.598
6.67
7.25
7.248
6.583
5.22
3.127
0.299
-3.178
-7.221
-11.765
-16.777
-22.267
-28.185
-34.322
-40.357
-45.881
-50.439
-53.682
-55.212
-54.521
-51.366
-45.766
-38.042
-28.98
-19.284
-9.265
0.619
9.766
18.231
26.475
35.593
47.6
63.84
84.626
110.378
141.387
176.483
213.357
248.036
274.838
289.32
288.434
268.971
228.074
164.691
79.887
-22.154
-134.605
-251.451
-367.256
-476.018
-571.535
-647.939
-701.251
-730.725
-737.971
-724.793
-693.535
-646.989
-588.642
-523.759
-457.05
-391.636
-330
-273.798
-223.879
-181.572
-147.925
-121.844
-101.986
-86.971
-74.687
-64.132
-55.037
-46.318
-36.806
-26.411
-15.241
-4.049
5.526
12.871
18.05
20.88
21.325
19.543
15.726
10.618
5.441
0.938
-2.519
-4.707
-5.641
-5.267
-3.484
-0.386
3.786
8.798
14.449
20.605
27.191
34.086
41.105
48.016
54.606
60.739
66.33
71.346
75.773
79.59
82.802
85.458
87.619
89.36
90.749
91.833
92.663
93.309
93.857
94.407
95.047
95.828
96.789
97.953
99.334
100.945
102.788
104.842
107.089
109.515
112.109
114.867
117.78
120.828
123.989
127.24
130.558
133.926
137.325
140.733
144.132
147.503
150.83
154.1
157.297
160.399
163.387
166.238
168.932
171.448
173.768
175.868
177.733
179.344
180.689
181.755
182.53
183.004
183.169
183.018
182.547
181.753
180.634
179.191
177.425
175.341
172.945
170.244
167.247
163.964
160.407
156.589
152.526
148.231
143.723
139.018
134.134
129.09
123.908
118.606
113.206
107.729
102.194
96.624
91.039
85.458
79.902
74.387
68.934
63.558
58.275
53.102
48.053
43.14
38.377
33.774
29.341
25.089
21.024
17.152
13.48
10.012
6.751
3.698
0.855
-1.778
-4.203
-6.421
-8.436
-10.252
-11.874
-13.307
-14.557
-15.633
-16.541
-17.29
-17.888
-18.343
-18.666
-18.864
-18.948
-18.926
-18.808
-18.604
-18.322
-17.972
-17.563
-17.103
-16.6
-16.063
-15.499
-14.915
-14.318
-13.715
-13.11
-12.511
-11.921
-11.345
-10.787
-10.251
-9.741
-9.257
-8.803
-8.38
-7.989
-7.632
-7.308
-7.019
-6.765
-6.545
-6.36
-6.209
-6.093
-6.01
-5.96
-5.941
-5.954
-5.997
-6.069
-6.17
-6.298
-6.454
-6.637
-6.846
-7.081
-7.34
-7.624
-7.929
-8.257
-8.605
-8.973
-9.36
-9.765
-10.187
-10.626
-11.082
-11.554
-12.04
-12.539
-13.049
-13.568
-14.095
-14.626
-15.158
-15.689
-16.216
-16.736
-17.247
-17.746
-18.229
-18.692
-19.131
-19.541
-19.919
-20.258
-20.554
-20.803
-21.002
-21.148
-21.238
-21.272
-21.246
-21.159
-21.011
-20.8
-20.525
-20.185
-19.779
-19.308
-18.773
-18.179
-17.527
-16.824
-16.074
-15.283
-14.46
-13.613
-12.747
-11.868
-10.983
-10.096
-9.213
-8.341
-7.485
-6.651
-5.848
-5.085
-4.373
-3.724
-3.143
-2.635
-2.205
-1.854
-1.585
-1.395
-1.28
-1.238
-1.274
-1.395
-1.618
-1.951
-2.393
-2.936
-3.564
-4.251
-4.961
-5.65
-6.267
-6.774
-7.153
-7.394
-7.508
-7.498
-7.357
-7.075
-6.628
-5.993
-5.16
-4.132
-2.924
-1.61
-0.313
0.825
1.633
1.975
1.768
0.95
-0.5
-2.583
-5.274
-8.517
-12.255
-16.455
-21.111
-26.208
-31.68
-37.306
-42.736
-47.585
-51.415
-53.868
-54.575
-53.066
-49.145
-42.92
-34.782
-25.524
-15.849
-6.032
3.491
12.073
19.789
27.137
35.225
46.153
61.296
80.918
105.471
135.269
169.083
204.553
237.634
262.539
274.758
271.22
248.716
204.483
137.685
49.695
-54.999
-169.38
-287.208
-402.845
-510.21
-603.056
-675.713
-724.593
-749.25
-751.56
-733.64
-698.064
-647.863
-586.793
-520.075
-452.278
-386.452
-324.873
-269.048
-219.775
-178.197
-145.215
-119.765
-100.496
-86.053
-74.448
-64.699
-56.521
-48.858
-40.489
-31.256
-21.252
-11.162
-2.563
3.953
8.488
10.847
10.939
8.903
4.915
-0.303
-5.518
-10.004
-13.418
-15.537
-16.381
-15.911
-14.028
-10.843
-6.618
-1.589
4.038
10.132
16.634
23.429
30.335
37.13
43.603
49.616
55.095
60.004
64.328
68.049
71.171
73.744
75.838
77.529
78.885
79.953
80.783
81.442
82.013
82.595
83.271
84.091
85.092
86.296
87.715
89.364
91.241
93.326
95.598
98.044
100.65
103.412
106.319
109.353
112.49
115.707
118.984
122.301
125.641
128.982
132.306
135.595
138.831
142.004
145.094
148.082
150.948
153.669
156.224
158.593
160.757
162.694
164.386
165.817
166.972
167.84
168.409
168.669
168.61
168.228
167.518
166.477
165.103
163.398
161.363
159.004
156.325
153.337
150.046
146.464
142.604
138.478
134.101
129.491
124.663
119.635
114.426
109.058
103.549
97.921
92.196
86.395
80.54
74.653
68.755
62.868
57.011
51.205
45.468
39.818
34.272
28.848
23.56
18.421
13.446
8.646
4.032
-0.387
-4.603
-8.608
-12.396
-15.964
-19.308
-22.425
-25.315
-27.978
-30.415
-32.628
-34.621
-36.399
-37.965
-39.328
-40.494
-41.47
-42.265
-42.888
-43.348
-43.656
-43.822
-43.855
-43.767
-43.568
-43.269
-42.881
-42.413
-41.877
-41.282
-40.637
-39.953
-39.237
-38.5
-37.747
-36.988
-36.229
-35.477
-34.738
-34.017
-33.319
-32.649
-32.01
-31.406
-30.84
-30.313
-29.829
-29.387
-28.99
-28.638
-28.331
-28.068
-27.85
-27.675
-27.541
-27.449
-27.395
-27.379
-27.398
-27.452
-27.539
-27.657
-27.804
-27.979
-28.18
-28.406
-28.655
-28.926
-29.218
-29.53
-29.861
-30.211
-30.579
-30.966
-31.37
-31.792
-32.23
-32.683
-33.152
-33.635
-34.132
-34.642
-35.165
-35.7
-36.248
-36.807
-37.377
-37.958
-38.547
-39.143
-39.745
-40.35
-40.956
-41.56
-42.16
-42.752
-43.334
-43.904
-44.459
-44.996
-45.509
-45.996
-46.451
-46.87
-47.249
-47.581
-47.863
-48.091
-48.264
-48.378
-48.433
-48.426
-48.355
-48.22
-48.019
-47.752
-47.417
-47.014
-46.543
-46.007
-45.409
-44.752
-44.041
-43.281
-42.479
-41.642
-40.777
-39.892
-38.99
-38.078
-37.161
-36.245
-35.335
-34.436
-33.554
-32.697
-31.876
-31.1
-30.38
-29.723
-29.132
-28.611
-28.163
-27.788
-27.487
-27.253
-27.084
-26.987
-26.968
-27.045
-27.227
-27.511
-27.891
-28.353
-28.868
-29.401
-29.911
-30.345
-30.666
-30.859
-30.913
-30.841
-30.647
-30.326
-29.868
-29.252
-28.455
-27.467
-26.293
-24.951
-23.517
-22.119
-20.9
-20.035
-19.661
-19.86
-20.699
-22.2
-24.362
-27.158
-30.529
-34.417
-38.793
-43.651
-48.972
-54.688
-60.57
-66.261
-71.373
-75.463
-78.173
-79.132
-77.86
-74.159
-68.145
-60.214
-51.163
-41.694
-32.068
-22.715
-14.29
-6.719
0.493
8.443
19.236
34.234
53.686
78.054
107.633
141.178
176.313
208.969
233.395
245.119
241.074
218.045
173.241
105.778
17.146
-88.037
-202.915
-321.314
-437.694
-546.127
-640.025
-713.349
-762.654
-787.586
-789.657
-770.856
-733.315
-679.509
-613.962
-542.68
-470.237
-399.868
-334.29
-275.139
-224.015
-182.971
-152.022
-129.237
-113.107
-101.835
-93.213
-86.281
-80.003
-72.536
-63.275
-52.622
-40.874
-29.152
-19.007
-10.882
-5.055
-2.069
-1.776
-3.846
-7.968
-13.179
-18.335
-22.824
-26.222
-28.261
-28.993
-28.381
-26.371
-23.133
-18.889
-13.845
-8.196
-2.051
4.524
11.4
18.399
25.296
31.878
38.012
43.621
48.67
53.143
57.02
60.308
63.059
65.342
67.233
68.798
70.078
71.126
72.015
72.828
73.667
74.616
75.723
77.025
78.545
80.297
82.293
84.533
86.992
89.653
92.498
95.516
98.702
102.044
105.521
109.11
112.786
116.528
120.318
124.135
127.957
131.766
135.541
139.266
142.927
146.506
149.981
153.331
156.533
159.564
162.405
165.033
167.427
169.568
171.439
173.024
174.31
175.286
175.941
176.265
176.252
175.898
175.198
174.152
172.76
171.023
168.948
166.539
163.804
160.753
157.397
153.747
149.818
145.625
141.185
136.514
131.631
126.557
121.311
115.914
110.389
104.758
99.043
93.266
87.451
81.62
75.794
69.995
64.243
58.558
52.959
47.463
42.088
36.849
31.762
26.84
22.095
17.54
13.183
9.035
5.102
1.39
-2.095
-5.349
-8.371
-11.158
-13.711
-16.031
-18.119
-19.98
-21.616
-23.034
-24.24
-25.24
-26.042
-26.655
-27.087
-27.348
-27.449
-27.398
-27.207
-26.885
-26.444
-25.895
-25.247
-24.512
-23.699
-22.819
-21.882
-20.896
-19.872
-18.816
-17.739
-16.646
-15.546
-14.445
-13.349
-12.263
-11.193
-10.144
-9.119
-8.121
-7.154
-6.22
-5.321
-4.458
-3.633
-2.846
-2.098
-1.388
-0.717
-0.085
0.511
1.07
1.594
2.083
2.541
2.967
3.364
3.733
4.074
4.39
4.681
4.948
5.193
5.416
5.617
5.799
5.961
6.103
6.227
6.332
6.417
6.483
6.53
6.556
6.563
6.549
6.516
6.463
6.392
6.302
6.194
6.068
5.925
5.766
5.591
5.401
5.198
4.982
4.756
4.522
4.282
4.04
3.798
3.561
3.332
3.114
2.91
2.725
2.562
2.426
2.321
2.253
2.227
2.248
2.322
2.454
2.647
2.906
3.233
3.629
4.097
4.639
5.256
5.948
6.716
7.561
8.482
9.481
10.554
11.698
12.91
14.185
15.518
16.903
18.331
19.794
21.282
22.791
24.312
25.84
27.369
28.89
30.395
31.879
33.335
34.754
36.125
37.436
38.677
39.844
40.933
41.94
42.865
43.703
44.455
45.128
45.722
46.234
46.655
46.966
47.157
47.233
47.206
47.094
46.933
46.751
46.584
46.485
46.483
46.602
46.85
47.212
47.684
48.27
48.983
49.863
50.949
52.235
53.711
55.337
57.003
58.614
60.044
61.125
61.742
61.809
61.262
60.103
58.37
56.106
53.371
50.188
46.527
42.401
37.879
33.128
28.452
24.167
20.619
18.18
17.266
18.371
21.755
27.361
34.831
43.454
52.592
61.975
71.217
79.701
87.442
94.893
103.094
114.053
129.151
148.666
172.998
202.433
235.837
271.03
304.25
330.026
344.064
343.448
325.071
286.163
225.723
144.775
47.34
-60.045
-171.622
-282.279
-386.319
-477.556
-550.204
-600.29
-626.906
-631.862
-617.189
-584.982
-537.858
-479.635
-415.668
-351.05
-289.463
-232.622
-181.331
-136.377
-98.82
-69.164
-46.126
-27.565
-11.17
4.288
18.848
32.54
45.909
59.766
74.192
88.358
100.76
110.411
117.277
121.613
123.691
123.491
121.009
116.784
111.837
107.064
103.035
100.027
98.051
97.208
97.67
99.449
102.439
106.466
111.307
116.807
122.884
129.412
136.259
143.252
150.16
156.801
163.04
168.771
173.961
178.588
182.623
186.072
188.971
191.369
193.349
194.987
196.33
197.442
198.391
199.259
200.154
201.156
202.318
203.68
205.262
207.081
209.152
211.479
214.042
216.828
219.821
223.006
226.38
229.929
233.635
237.472
241.415
245.44
249.527
253.657
257.808
261.959
266.09
270.182
274.221
278.186
282.056
285.805
289.41
292.847
296.092
299.124
301.917
304.451
306.707
308.668
310.319
311.645
312.634
313.275
313.559
313.479
313.031
312.212
311.02
309.456
307.524
305.228
302.576
299.578
296.241
292.579
288.605
284.334
279.783
274.968
269.909
264.625
259.137
253.468
247.64
241.675
235.598
229.432
223.201
216.928
210.637
204.35
198.09
191.877
185.732
179.676
173.726
167.9
162.216
156.688
151.331
146.158
141.18
136.408
131.85
127.515
123.409
119.537
115.902
112.507
109.354
106.441
103.769
101.335
99.135
97.164
95.418
93.89
92.572
91.457
90.535
89.798
89.235
88.835
88.589
88.485
88.511
88.658
88.912
89.263
89.699
90.209
90.783
91.408
92.076
92.775
93.497
94.232
94.97
95.705
96.427
97.13
97.807
98.452
99.059
99.623
100.138
100.601
101.007
101.352
101.635
101.853
102.003
102.084
102.096
102.037
101.907
101.705
101.432
101.088
100.673
100.188
99.635
99.014
98.329
97.581
96.773
95.908
94.987
94.013
92.99
91.92
90.806
89.651
88.458
87.23
85.972
84.687
83.38
82.055
80.715
79.367
78.015
76.662
75.313
73.971
72.641
71.327
70.035
68.769
67.535
66.337
65.181
64.072
63.015
62.011
61.063
60.173
59.342
58.572
57.864
57.218
56.635
56.115
55.657
55.261
54.926
54.647
54.421
54.242
54.104
54.002
53.929
53.876
53.834
53.798
53.76
53.717
53.663
53.589
53.49
53.358
53.189
52.973
52.699
52.356
51.933
51.425
50.828
50.142
49.364
48.492
47.527
46.476
45.341
44.118
42.801
41.37
39.814
38.143
36.368
34.51
32.604
30.677
28.761
26.912
25.162
23.526
22.013
20.598
19.265
18.037
16.93
15.977
15.218
14.645
14.249
14.008
13.837
13.631
13.269
12.571
11.406
9.714
7.439
4.6
1.24
-2.649
-7.026
-11.851
-17.12
-22.805
-28.883
-35.287
-41.793
-48.084
-53.783
-58.441
-61.69
-63.184
-62.514
-59.603
-54.646
-48.038
-40.546
-32.776
-25.021
-17.765
-11.421
-5.774
-0.185
6.598
16.291
29.805
47.372
69.324
95.391
124.08
152.597
176.651
191.68
194.172
181.351
150.527
99.679
28.834
-59.212
-159.333
-265.929
-373.583
-476.98
-570.238
-646.854
-702.466
-735.919
-748.166
-741.111
-717.302
-679.57
-632.106
-580.947
-530.664
-483.663
-441.273
-403.766
-371.041
-343.161
-319.12
-296.543
-273.971
-250.94
-227.451
-204.358
-182.424
-162.008
-143.861
-128.985
-117.885
-110.733
-107.372
-107.156
-109.522
-113.977
-119.891
-126.733
-134.035
-141.324
-148.279
-154.642
-160.156
-164.675
-168.092
-170.311
-171.313
-171.112
-169.757
-167.391
-164.176
-160.279
-155.906
-151.223
-146.403
-141.666
-137.177
-133.07
-129.457
-126.377
-123.854
-121.919
-120.565
-119.759
-119.466
-119.614
-120.133
-120.978
-122.08
-123.371
-124.777
-126.205
-127.585
-128.873
-130.032
-131.04
-131.886
-132.558
-133.057
-133.41
-133.636
-133.759
-133.801
-133.777
-133.707
-133.623
-133.553
-133.522
-133.551
-133.658
-133.865
-134.205
-134.704
-135.373
-136.217
-137.235
-138.419
-139.765
-141.256
-142.846
-144.495
-146.158
-147.8
-149.417
-151.009
-152.567
-154.085
-155.553
-156.979
-158.413
-159.918
-161.538
-163.322
-165.311
-167.56
-170.191
-173.311
-177.003
-181.334
-186.316
-191.94
-198.207
-205.095
-212.535
-220.407
-228.504
-236.567
-244.385
-251.74
-258.438
-264.293
-269.037
-272.429
-274.28
-274.429
-272.762
-269.194
-263.621
-255.968
-246.268
-234.64
-221.324
-206.661
-190.951
