121.374
116.932
112.46
107.977
103.499
99.045
94.631
90.275
85.992
81.797
77.706
73.734
69.892
66.195
62.652
59.275
56.074
53.056
50.23
47.6
45.171
42.946
40.928
39.117
37.514
36.117
34.923
33.93
33.133
32.527
32.107
31.866
31.795
31.889
32.139
32.537
33.074
33.742
34.531
35.434
36.441
37.545
38.737
40.01
41.356
42.769
44.242
45.77
47.346
48.965
50.623
52.314
54.036
55.783
57.551
59.338
61.139
62.952
64.772
66.596
68.422
70.245
72.062
73.869
75.663
77.437
79.189
80.912
82.6
84.247
85.846
87.391
88.872
90.281
91.61
92.85
93.991
95.023
95.935
96.717
97.359
97.85
98.179
98.336
98.311
98.094
97.675
97.047
96.201
95.13
93.826
92.285
90.5
88.468
86.185
83.65
80.862
77.82
74.527
70.984
67.197
63.169
58.908
54.421
49.716
44.804
39.694
34.4
28.933
23.309
17.541
11.644
5.636
-0.468
-6.65
-12.894
-19.181
-25.494
-31.815
-38.127
-44.413
-50.656
-56.839
-62.945
-68.96
-74.869
-80.657
-86.311
-91.819
-97.17
-102.352
-107.357
-112.176
-116.801
-121.228
-125.45
-129.464
-133.266
-136.855
-140.23
-143.392
-146.342
-149.082
-151.615
-153.946
-156.08
-158.021
-159.778
-161.357
-162.764
-164.009
-165.1
-166.044
-166.852
-167.533
-168.095
-168.548
-168.901
-169.164
-169.345
-169.453
-169.497
-169.485
-169.424
-169.323
-169.187
-169.024
-168.84
-168.64
-168.431
-168.216
-168.001
-167.788
-167.581
-167.383
-167.197
-167.023
-166.863
-166.719
-166.591
-166.479
-166.384
-166.305
-166.242
-166.195
-166.163
-166.144
-166.138
-166.143
-166.159
-166.184
-166.217
-166.256
-166.302
-166.354
-166.411
-166.472
-166.538
-166.607
-166.679
-166.753
-166.829
-166.907
-166.985
-167.065
-167.146
-167.227
-167.311
-167.397
-167.485
-167.576
-167.67
-167.765
-167.862
-167.96
-168.058
-168.155
-168.25
-168.341
-168.429
-168.512
-168.589
-168.658
-168.717
-168.764
-168.795
-168.807
-168.797
-168.76
-168.693
-168.595
-168.462
-168.293
-168.086
-167.84
-167.552
-167.221
-166.846
-166.425
-165.956
-165.437
-164.868
-164.251
-163.585
-162.875
-162.121
-161.329
-160.501
-159.646
-158.768
-157.872
-156.96
-156.038
-155.107
-154.172
-153.236
-152.303
-151.377
-150.463
-149.571
-148.709
-147.888
-147.112
-146.385
-145.711
-145.091
-144.526
-144.015
-143.551
-143.134
-142.767
-142.46
-142.229
-142.085
-142.025
-142.043
-142.124
-142.243
-142.364
-142.446
-142.437
-142.303
-142.025
-141.598
-141.033
-140.337
-139.507
-138.531
-137.39
-136.062
-134.54
-132.831
-130.953
-128.982
-127.044
-125.281
-123.866
-122.937
-122.574
-122.843
-123.767
-125.345
-127.554
-130.345
-133.658
-137.464
-141.751
-146.497
-151.63
-156.928
-162.037
-166.581
-170.124
-172.309
-172.771
-171.036
-166.892
-160.421
-151.977
-142.298
-132.058
-121.532
-111.161
-101.622
-92.904
-84.597
-75.696
-64.199
-48.792
-29.195
-4.896
24.472
57.824
92.984
126.049
151.412
164.719
162.909
142.745
101.362
37.58
-47.5
-149.56
-262.014
-378.975
-495.062
-604.485
-700.732
-777.447
-830.713
-859.799
-865.822
-850.374
-815.323
-762.846
-697.215
-624.604
-549.885
-476.559
-407.689
-345.187
-290.81
-246.837
-213.489
-188.78
-171.104
-158.545
-148.679
-140.443
-132.779
-123.781
-112.81
-100.31
-86.605
-72.885
-60.823
-50.913
-43.452
-39.002
-37.393
-38.286
-41.371
-45.66
-49.969
-53.657
-56.275
-57.539
-57.496
-56.096
-53.27
-49.181
-44.046
-38.071
-31.457
-24.316
-16.724
-8.816
-0.777
7.159
14.774
21.928
28.541
34.574
40.01
44.825
49.026
52.662
55.8
58.515
60.875
62.924
64.717
66.332
67.858
69.402
71.053
72.864
74.876
77.115
79.596
82.335
85.331
88.564
92.016
95.673
99.526
103.57
107.797
112.186
116.714
121.357
126.094
130.906
135.772
140.672
145.586
150.494
155.38
160.23
165.025
169.745
174.365
178.864
183.216
187.402
191.397
195.18
198.729
202.025
205.052
207.796
210.242
212.377
214.192
215.676
216.823
217.628
218.087
218.197
217.958
217.373
216.445
215.181
213.586
211.671
209.443
206.917
204.104
201.02
197.68
194.1
190.298
186.294
182.106
177.756
173.263
168.649
163.936
159.145
154.297
149.413
144.514
139.62
134.748
129.919
125.15
120.458
115.858
111.366
106.996
102.76
98.671
94.74
90.976
87.387
83.981
80.763
77.738
74.911
72.283
69.856
67.629
65.604
63.776
62.144
60.704
59.45
58.377
57.478
56.748
56.177
55.758
55.482
55.34
55.323
55.421
55.624
55.924
56.308
56.769
57.296
57.88
58.511
59.18
59.878
60.597
61.328
62.063
62.795
63.517
64.223
64.905
65.56
66.181
66.764
67.306
67.803
68.253
68.651
68.997
69.288
69.524
69.703
69.824
69.887
69.894
69.842
69.735
69.572
69.355
69.084
68.762
68.388
67.965
67.495
66.979
66.419
65.819
65.181
64.508
63.802
63.066
62.304
61.518
60.711
59.885
59.044
58.19
57.327
56.457
55.584
54.711
53.843
52.982
52.132
51.297
50.48
49.686
48.918
48.178
47.47
46.8
46.171
45.588
45.056
44.578
44.16
43.805
43.515
43.293
43.139
43.055
43.041
43.099
43.228
43.427
43.697
44.036
44.444
44.918
45.456
46.053
46.705
47.405
48.15
48.933
49.748
50.584
51.435
52.296
53.161
54.024
54.879
55.715
56.527
57.31
58.056
58.758
59.404
59.984
60.492
60.927
61.287
61.571
61.778
61.904
61.954
61.933
61.842
61.68
61.435
61.088
60.637
60.091
59.466
58.791
58.087
57.373
56.686
56.071
55.55
55.145
54.851
54.642
54.532
54.535
54.674
55.006
55.549
56.29
57.212
58.254
59.326
60.342
61.167
61.637
61.66
61.159
60.111
58.563
56.512
53.983
51.01
47.573
43.674
39.336
34.628
29.726
24.916
20.521
16.932
14.56
13.802
15.08
18.518
23.938
30.96
38.865
47.078
55.289
63.004
69.801
75.872
81.892
89.163
99.426
113.653
132.145
155.299
182.929
213.611
244.526
271.302
289.304
294.893
285.16
257.268
209.003
140.241
53.71
-45.461
-151.533
-258.891
-362.198
-455.451
-532.036
-587.574
-620.552
-631.589
-622.729
-596.651
-555.921
-504.702
-448.749
-392.185
-338.166
-288.789
-244.323
-204.838
-170.826
-141.384
-114.854
-90.646
-67.439
-44.384
-22.202
-1.237
18.394
35.917
51.052
64.069
74.188
81.016
85.014
86.325
85.464
83.206
79.705
75.084
70.067
65.17
60.788
57.413
55.102
53.846
53.822
55.089
57.598
61.29
65.969
71.408
77.475
83.994
90.807
97.757
104.612
111.191
117.357
122.998
128.071
132.559
136.427
139.683
142.36
144.499
146.179
147.479
148.452
149.177
149.726
150.179
150.642
151.198
151.897
152.786
153.888
155.217
156.791
158.613
160.667
162.942
165.423
168.099
170.965
174.01
177.214
180.555
184.008
187.548
191.158
194.817
198.505
202.2
205.883
209.536
213.144
216.689
220.148
223.498
226.714
229.773
232.651
235.327
237.775
239.975
241.908
243.555
244.903
245.937
246.643
247.011
247.032
246.699
246.005
244.949
243.527
241.74
239.591
237.085
234.229
231.032
227.503
223.653
219.497
215.05
210.328
205.349
200.13
194.692
189.057
183.245
177.279
171.183
164.979
158.692
152.344
145.96
139.562
133.172
126.812
120.503
114.265
108.117
102.077
96.163
90.391
84.775
79.33
74.068
69
64.135
59.483
55.048
50.838
46.856
43.106
39.587
36.302
33.248
30.425
27.827
25.452
23.293
21.345
19.599
18.048
16.683
15.496
14.475
13.612
12.895
12.313
11.856
11.513
11.271
11.121
11.049
11.046
11.101
11.202
11.34
11.504
11.686
11.876
12.067
12.25
12.418
12.564
12.682
12.766
12.811
12.811
12.764
12.665
12.512
12.301
12.032
11.701
11.309
10.853
10.332
9.748
9.098
8.384
7.606
6.766
5.865
4.906
3.89
2.821
1.701
0.533
-0.679
-1.934
-3.226
-4.553
-5.912
-7.299
-8.708
-10.137
-11.58
-13.033
-14.492
-15.951
-17.406
-18.852
-20.284
-21.698
-23.09
-24.453
-25.782
-27.072
-28.316
-29.508
-30.643
-31.714
-32.717
-33.647
-34.5
-35.275
-35.968
-36.578
-37.102
-37.539
-37.888
-38.148
-38.321
-38.405
-38.401
-38.313
-38.143
-37.896
-37.577
-37.19
-36.741
-36.238
-35.689
-35.102
-34.481
-33.834
-33.165
-32.483
-31.797
-31.115
-30.443
-29.789
-29.161
-28.573
-28.036
-27.557
-27.139
-26.786
-26.499
-26.282
-26.139
-26.068
-26.065
-26.131
-26.268
-26.488
-26.813
-27.247
-27.78
-28.398
-29.074
-29.784
-30.512
-31.222
-31.869
-32.43
-32.884
-33.238
-33.517
-33.708
-33.795
-33.757
-33.537
-33.114
-32.504
-31.723
-30.832
-29.923
-29.082
-28.445
-28.178
-28.372
-29.105
-30.398
-32.204
-34.526
-37.338
-40.604
-44.343
-48.554
-53.213
-58.25
-63.486
-68.629
-73.348
-77.25
-79.921
-80.962
-79.941
-76.733
-71.52
-64.692
-56.981
-48.971
-40.965
-33.448
-26.841
-20.946
-15.079
-7.929
2.274
16.506
35.041
58.232
85.854
116.445
147.155
173.593
191.095
196.014
185.475
156.701
107.535
37.907
-49.418
-149.323
-256.082
-364.095
-468.072
-562.063
-639.482
-695.982
-730.052
-742.24
-734.52
-709.503
-669.66
-619.112
-563.6
-507.235
-453.206
-403.649
-358.862
-318.968
-284.519
-254.626
-227.637
-202.947
-179.178
-155.488
-132.62
-110.926
-90.548
-72.255
-56.32
-42.483
-31.558
-23.985
-19.339
-17.483
-17.901
-19.848
-23.196
-27.867
-33.179
-38.55
-43.53
-47.594
-50.638
-52.674
-53.523
-53.09
-51.4
-48.501
-44.568
-39.836
-34.445
-28.53
-22.228
-15.658
-9.013
-2.518
3.647
9.356
14.539
19.171
23.222
26.667
29.516
31.814
33.641
35.079
36.195
37.041
37.675
38.163
38.593
39.065
39.649
40.394
41.33
42.477
43.852
45.472
47.334
49.418
51.704
54.175
56.82
59.634
62.604
65.708
68.923
72.223
75.588
79.002
82.442
85.891
89.326
92.73
96.088
99.386
102.607
105.731
108.737
111.605
114.314
116.845
119.178
121.293
123.173
124.802
126.166
127.255
128.058
128.564
128.768
128.662
128.243
127.51
126.461
125.098
123.423
121.441
119.16
116.587
113.731
110.602
107.214
103.578
99.71
95.624
91.337
86.865
82.225
77.438
72.522
67.496
62.379
57.193
51.956
46.689
41.411
36.142
30.899
25.699
20.561
15.499
10.53
5.668
0.925
-3.685
-8.151
-12.464
-16.612
-20.59
-24.388
-28.002
-31.426
-34.656
-37.69
-40.525
-43.16
-45.596
-47.832
-49.871
-51.716
-53.369
-54.835
-56.119
-57.226
-58.162
-58.934
-59.55
-60.015
-60.339
-60.528
-60.591
-60.537
-60.373
-60.108
-59.75
-59.307
-58.788
-58.199
-57.549
-56.845
-56.095
-55.303
-54.479
-53.627
-52.754
-51.865
-50.966
-50.062
-49.158
-48.257
-47.365
-46.484
-45.618
-44.77
-43.942
-43.136
-42.356
-41.603
-40.878
-40.184
-39.522
-38.893
-38.298
-37.739
-37.216
-36.731
-36.283
-35.874
-35.504
-35.174
-34.886
-34.639
-34.436
-34.275
-34.159
-34.086
-34.057
-34.072
-34.129
-34.229
-34.371
-34.554
-34.778
-35.041
-35.343
-35.684
-36.06
-36.471
-36.915
-37.388
-37.887
-38.411
-38.955
-39.514
-40.087
-40.667
-41.252
-41.838
-42.419
-42.992
-43.549
-44.086
-44.596
-45.073
-45.51
-45.902
-46.243
-46.529
-46.756
-46.919
-47.017
-47.044
-47
-46.881
-46.685
-46.411
-46.057
-45.622
-45.106
-44.511
-43.84
-43.096
-42.283
-41.407
-40.473
-39.49
-38.464
-37.401
-36.307
-35.187
-34.046
-32.894
-31.735
-30.577
-29.425
-28.288
-27.177
-26.105
-25.08
-24.108
-23.194
-22.343
-21.556
-20.838
-20.191
-19.608
-19.092
-18.645
-18.276
-18.006
-17.847
-17.792
-17.834
-17.952
-18.115
-18.3
-18.473
-18.583
-18.602
-18.511
-18.301
-17.993
-17.597
-17.104
-16.503
-15.756
-14.824
-13.718
-12.446
-11.046
-9.618
-8.252
-7.069
-6.243
-5.892
-6.097
-6.918
-8.338
-10.315
-12.822
-15.812
-19.266
-23.209
-27.628
-32.466
-37.581
-42.706
-47.531
-51.7
-54.828
-56.468
-56.129
-53.573
-48.857
-42.348
-34.73
-26.573
-18.127
-9.802
-2.2
4.671
11.224
18.627
28.953
43.39
62.13
85.459
113.536
145.59
179.89
212.601
238.118
252.475
252.86
236.533
201.242
145.142
68.233
-25.637
-130.117
-239.965
-350.091
-455.417
-550.815
-629.558
-686.64
-720.991
-733.559
-725.604
-699.278
-656.45
-599.653
-534.782
-467.174
-400.206
-336.904
-278.988
-227.205
-183.338
-148.81
-122.202
-101.937
-86.44
-73.294
-61.647
-51.398
-41.41
-30.561
-18.839
-6.381
5.97
16.502
24.65
30.496
33.881
34.827
33.462
29.954
25.028
19.859
15.225
11.551
9.079
7.83
7.874
9.314
12.09
15.996
20.791
26.275
32.3
38.768
45.576
52.549
59.464
66.125
72.374
78.104
83.277
87.869
91.85
95.222
98.019
100.285
102.1
103.54
104.652
105.499
106.146
106.673
107.186
107.771
108.484
109.366
110.441
111.722
113.227
114.957
116.895
119.026
121.335
123.809
126.444
129.231
132.151
135.183
138.302
141.486
144.718
147.981
151.256
154.525
157.772
160.981
164.141
167.238
170.252
173.163
175.951
178.596
181.079
183.38
185.48
187.361
189.006
190.403
191.539
192.404
192.986
193.277
193.271
192.962
192.348
191.425
190.194
188.656
186.814
184.673
182.241
179.524
176.532
173.275
169.764
166.014
162.038
157.852
153.47
148.909
144.188
139.326
134.34
129.25
124.076
118.837
113.553
108.244
102.928
97.625
92.35
87.122
81.958
76.872
71.88
66.995
62.231
57.598
53.109
48.773
44.598
40.593
36.762
33.112
29.646
26.368
23.279
20.381
17.672
15.153
12.82
10.671
8.702
6.909
5.284
3.824
2.519
1.363
0.349
-0.533
-1.291
-1.935
-2.472
-2.913
-3.266
-3.542
-3.749
-3.896
-3.992
-4.045
-4.065
-4.059
-4.034
-3.998
-3.956
-3.915
-3.881
-3.859
-3.852
-3.866
-3.904
-3.969
-4.063
-4.189
-4.348
-4.543
-4.773
-5.038
-5.34
-5.677
-6.048
-6.453
-6.891
-7.359
-7.857
-8.382
-8.934
-9.51
-10.108
-10.726
-11.363
-12.017
-12.684
-13.365
-14.057
-14.759
-15.469
-16.188
-16.914
-17.647
-18.386
-19.131
-19.881
-20.634
-21.39
-22.148
-22.909
-23.671
-24.433
-25.197
-25.961
-26.725
-27.489
-28.253
-29.015
-29.774
-30.528
-31.277
-32.017
-32.748
-33.466
-34.17
-34.857
-35.527
-36.176
-36.801
-37.4
-37.968
-38.501
-38.996
-39.447
-39.85
-40.2
-40.495
-40.732
-40.91
-41.025
-41.076
-41.061
-40.98
-40.83
-40.611
-40.322
-39.961
-39.529
-39.028
-38.461
-37.83
-37.14
-36.395
-35.601
-34.767
-33.898
-33.001
-32.081
-31.142
-30.189
-29.228
-28.264
-27.302
-26.346
-25.406
-24.491
-23.61
-22.775
-21.993
-21.267
-20.603
-20.002
-19.466
-18.995
-18.583
-18.23
-17.94
-17.722
-17.592
-17.56
-17.625
-17.779
-18.011
-18.294
-18.592
-18.865
-19.063
-19.149
-19.108
-18.93
-18.626
-18.203
-17.657
-16.978
-16.147
-15.14
-13.948
-12.577
-11.042
-9.417
-7.828
-6.411
-5.338
-4.743
-4.709
-5.301
-6.544
-8.437
-10.956
-14.047
-17.653
-21.746
-26.32
-31.359
-36.795
-42.407
-47.851
-52.752
-56.68
-59.283
-60.198
-58.948
-55.33
-49.439
-41.648
-32.718
-23.323
-13.722
-4.34
4.171
11.86
19.182
27.188
37.93
52.741
71.88
95.83
124.919
157.993
192.806
225.418
250.191
262.755
260.083
238.978
196.627
131.989
46.307
-56.028
-168.378
-284.794
-399.901
-507.917
-602.349
-677.026
-728.253
-755.453
-759.901
-743.35
-707.745
-655.353
-590.544
-519.409
-446.684
-375.763
-309.537
-249.776
-198.174
-156.914
-126.086
-103.685
-88.091
-77.393
-69.254
-62.653
-56.515
-48.941
-39.317
-28.094
-15.622
-3.093
7.877
16.819
23.428
27.129
28.068
26.573
22.954
18.186
13.408
9.227
6.066
4.195
3.563
4.212
6.202
9.364
13.483
18.363
23.812
29.73
36.047
42.639
49.332
55.904
62.149
67.939
73.198
77.892
82.008
85.525
88.451
90.837
92.75
94.265
95.446
96.336
96.99
97.479
97.891
98.327
98.872
99.577
100.48
101.606
102.969
104.583
106.449
108.545
110.853
113.36
116.053
118.93
121.979
125.18
128.51
131.946
135.464
139.046
142.672
146.32
149.971
153.603
157.2
160.748
164.228
167.617
170.894
174.035
177.018
179.821
182.422
184.798
186.931
188.801
190.394
191.695
192.693
193.374
193.731
193.756
193.442
192.788
191.789
190.447
188.763
186.74
184.385
181.704
178.707
175.404
171.807
167.929
163.786
159.392
154.767
149.926
144.89
139.68
134.315
128.817
123.209
117.511
111.747
105.938
100.107
94.276
88.465
82.694
76.982
71.35
65.813
60.391
55.097
49.947
44.954
40.131
35.491
31.041
26.792
22.751
18.925
15.317
11.932
8.773
5.841
3.135
0.656
-1.6
-3.636
-5.455
-7.063
-8.467
-9.673
-10.689
-11.523
-12.186
-12.685
-13.033
-13.238
-13.312
-13.266
-13.11
-12.857
-12.516
-12.098
-11.616
-11.078
-10.496
-9.878
-9.236
-8.577
-7.911
-7.245
-6.587
-5.944
-5.321
-4.725
-4.161
-3.633
-3.145
-2.7
-2.302
-1.952
-1.653
-1.404
-1.208
-1.063
-0.97
-0.928
-0.935
-0.99
-1.092
-1.238
-1.427
-1.656
-1.923
-2.225
-2.561
-2.928
-3.323
-3.744
-4.189
-4.656
-5.142
-5.646
-6.168
-6.705
-7.257
-7.823
-8.403
-8.995
-9.598
-10.212
-10.836
-11.469
-12.111
-12.762
-13.422
-14.09
-14.767
-15.453
-16.146
-16.848
-17.556
-18.269
-18.988
-19.709
-20.431
-21.152
-21.87
-22.582
-23.286
-23.98
-24.661
-25.325
-25.967
-26.584
-27.171
-27.721
-28.23
-28.693
-29.106
-29.464
-29.764
-30.003
-30.177
-30.285
-30.323
-30.289
-30.18
-29.994
-29.729
-29.384
-28.959
-28.454
-27.872
-27.215
-26.487
-25.69
-24.831
-23.917
-22.954
-21.946
-20.899
-19.817
-18.707
-17.575
-16.428
-15.271
-14.109
-12.952
-11.81
-10.694
-9.614
-8.575
-7.58
-6.635
-5.741
-4.904
-4.124
-3.396
-2.725
-2.114
-1.575
-1.128
-0.786
-0.544
-0.395
-0.322
-0.292
-0.282
-0.259
-0.175
-0.005
0.271
0.66
1.145
1.722
2.396
3.179
4.111
5.226
6.514
7.962
9.52
11.075
12.526
13.746
14.565
14.87
14.576
13.619
12.01
9.782
6.973
3.637
-0.216
-4.608
-9.513
-14.86
-20.47
-26.023
-31.195
-35.617
-38.887
-40.597
-40.253
-37.607
-32.748
-26.047
-18.228
-9.953
-1.491
6.732
14.047
20.482
26.532
33.281
42.837
56.625
74.937
98.285
127.035
160.036
195.032
228.044
253.343
266.442
264.204
243.322
200.902
135.872
49.461
-53.895
-167.467
-285.21
-401.607
-510.727
-605.97
-681.104
-732.422
-759.389
-763.352
-746.133
-709.765
-656.617
-591.135
-519.446
-446.285
-375.012
-308.461
-248.362
-196.38
-154.658
-123.27
-100.223
-83.924
-72.505
-63.69
-56.5
-49.889
-41.993
-32.21
-20.984
-8.656
3.602
14.202
22.695
28.798
31.961
32.346
30.291
26.119
20.814
15.528
10.877
7.295
5.053
4.107
4.502
6.297
9.327
13.371
18.229
23.701
29.68
36.091
42.801
49.628
56.343
62.729
68.653
74.034
78.834
83.039
86.627
89.601
92.016
93.938
95.442
96.596
97.443
98.039
98.459
98.79
99.136
99.585
100.187
100.98
101.991
103.233
104.72
106.453
108.411
110.575
112.931
115.469
118.185
121.068
124.099
127.256
130.514
133.853
137.255
140.7
144.168
147.64
151.096
154.522
157.902
161.22
164.454
167.582
170.582
173.431
176.107
178.59
180.857
182.889
184.666
186.175
187.4
188.329
188.95
189.252
189.229
188.873
188.181
187.15
185.779
184.068
182.022
179.643
176.941
173.921
170.595
166.972
163.066
158.891
154.463
149.799
144.915
139.83
134.566
129.142
123.579
117.901
112.128
106.282
100.388
94.467
88.54
82.63
76.756
70.939
65.198
59.552
54.017
48.61
43.347
38.241
33.306
28.553
23.994
19.637
15.491
11.561
7.854
4.373
1.121
-1.9
-4.69
-7.251
-9.583
-11.691
-13.579
-15.251
-16.716
-17.979
-19.049
-19.935
-20.647
-21.193
-21.586
-21.836
-21.953
-21.949
-21.837
-21.626
-21.329
-20.956
-20.519
-20.029
-19.494
-18.927
-18.334
-17.727
-17.113
-16.499
-15.894
-15.304
-14.734
-14.19
-13.677
-13.198
-12.757
-12.357
-12.001
-11.688
-11.422
-11.202
-11.028
-10.899
-10.816
-10.776
-10.778
-10.82
-10.898
-11.012
-11.157
-11.332
-11.533
-11.757
-12.003
-12.267
-12.546
-12.839
-13.144
-13.458
-13.779
-14.105
-14.436
-14.77
-15.106
-15.444
-15.784
-16.126
-16.47
-16.816
-17.164
-17.515
-17.869
-18.227
-18.588
-18.955
-19.326
-19.704
-20.088
-20.481
-20.883
-21.295
-21.717
-22.15
-22.592
-23.044
-23.505
-23.973
-24.446
-24.924
-25.403
-25.883
-26.362
-26.837
-27.305
-27.762
-28.206
-28.632
-29.035
-29.411
-29.755
-30.063
-30.331
-30.557
-30.738
-30.871
-30.953
-30.982
-30.957
-30.876
-30.736
-30.536
-30.273
-29.949
-29.564
-29.12
-28.618
-28.063
-27.458
-26.809
-26.123
-25.406
-24.662
-23.897
-23.115
-22.322
-21.521
-20.717
-19.914
-19.117
-18.334
-17.572
-16.842
-16.151
-15.505
-14.911
-14.371
-13.887
-13.463
-13.097
-12.785
-12.529
-12.333
-12.204
-12.158
-12.202
-12.336
-12.554
-12.842
-13.173
-13.512
-13.819
-14.046
-14.164
-14.154
-14.005
-13.725
-13.311
-12.768
-12.097
-11.281
-10.301
-9.158
-7.859
-6.439
-4.992
-3.638
-2.51
-1.769
-1.529
-1.883
-2.902
-4.612
-7.018
-10.075
-13.698
-17.831
-22.445
-27.511
-32.996
-38.789
-44.615
-50.147
-55.029
-58.843
-61.267
-61.927
-60.338
-56.329
-50.034
-41.885
-32.712
-23.205
-13.616
-4.405
3.746
10.846
17.331
24.344
34.011
47.69
65.642
88.296
115.955
147.437
180.422
210.899
233.195
242.885
236.921
212.165
165.882
97.243
7.798
-97.865
-212.954
-331.311
-447.371
-555.164
-648.078
-720.075
-767.757
-790.806
-790.699
-769.425
-729.139
-672.373
-603.811
-529.639
-454.539
-381.811
-314.26
-253.588
-201.504
-160.178
-129.539
-107.51
-92.444
-82.405
-75.131
-69.63
-64.759
-58.544
-50.322
-40.487
-29.387
-18.225
-8.543
-0.759
4.862
7.777
8.07
6.024
1.95
-3.174
-8.188
-12.481
-15.663
-17.499
-18.04
-17.256
-15.092
-11.724
-7.408
-2.369
3.185
9.135
15.44
21.992
28.618
35.105
41.247
46.913
52.047
56.626
60.632
64.042
66.862
69.145
70.969
72.418
73.559
74.437
75.101
75.619
76.077
76.575
77.192
77.974
78.956
80.156
81.592
83.277
85.21
87.37
89.737
92.295
95.032
97.944
101.02
104.237
107.573
111.004
114.509
118.07
121.668
125.283
128.894
132.484
136.036
139.536
142.966
146.306
149.534
152.628
155.566
158.33
160.897
163.246
165.361
167.223
168.818
170.134
171.159
171.881
172.292
172.385
172.155
171.599
170.714
169.499
167.958
166.092
163.908
161.412
158.613
155.519
152.141
148.492
144.585
140.435
136.059
131.471
126.691
121.737
116.63
111.388
106.032
100.583
95.061
89.489
83.886
78.273
72.67
67.096
61.57
56.11
50.732
45.454
40.291
35.258
30.368
25.634
21.068
16.681
12.482
8.479
4.681
1.092
-2.281
-5.435
-8.366
-11.073
-13.555
-15.813
-17.848
-19.662
-21.259
-22.644
-23.821
-24.797
-25.579
-26.174
-26.591
-26.838
-26.925
-26.861
-26.655
-26.319
-25.863
-25.296
-24.629
-23.874
-23.04
-22.137
-21.176
-20.167
-19.12
-18.044
-16.948
-15.841
-14.731
-13.628
-12.537
-11.467
-10.423
-9.413
-8.441
-7.513
-6.633
-5.806
-5.034
-4.322
-3.671
-3.083
-2.559
-2.102
-1.71
-1.385
-1.125
-0.931
-0.801
-0.735
-0.73
-0.786
-0.9
-1.072
-1.298
-1.577
-1.906
-2.283
-2.706
-3.171
-3.677
-4.221
-4.8
-5.414
-6.057
-6.73
-7.427
-8.148
-8.889
-9.647
-10.419
-11.203
-11.995
-12.794
-13.597
-14.401
-15.204
-16.004
-16.799
-17.585
-18.36
-19.121
-19.865
-20.589
-21.29
-21.964
-22.609
-23.221
-23.798
-24.336
-24.833
-25.285
-25.688
-26.038
-26.331
-26.564
-26.734
-26.837
-26.872
-26.836
-26.729
-26.551
-26.301
-25.978
-25.585
-25.12
-24.586
-23.983
-23.314
-22.579
-21.783
-20.93
-20.025
-19.074
-18.081
-17.053
-15.999
-14.927
-13.845
-12.76
-11.676
-10.601
-9.541
-8.505
-7.5
-6.531
-5.604
-4.727
-3.909
-3.161
-2.49
-1.897
-1.383
-0.95
-0.598
-0.33
-0.144
-0.035
-0
-0.04
-0.162
-0.387
-0.717
-1.141
-1.642
-2.189
-2.758
-3.332
-3.878
-4.354
-4.733
-4.991
-5.127
-5.159
-5.083
-4.892
-4.562
-4.037
-3.299
-2.368
-1.275
-0.097
1.083
2.194
3.12
3.714
3.878
3.529
2.639
1.248
-0.629
-2.956
-5.702
-8.894
-12.52
-16.534
-20.837
-25.204
-29.363
-33.04
-35.88
-37.523
-37.598
-35.642
-31.495
-25.343
-17.566
-8.91
-0.021
8.89
17.378
24.763
31.074
36.798
43.082
52.051
65.08
82.379
104.352
131.3
162.061
194.383
224.32
246.254
255.806
250.021
225.89
180.803
114.059
27.126
-75.6
-187.285
-301.745
-413.497
-516.648
-604.951
-672.928
-717.162
-737.129
-734.966
-713.18
-674.27
-621.285
-558.44
-491.015
-423.862
-360.502
-302.451
-250.404
-205.146
-167.574
-137.994
-115.192
-97.075
-81.422
-67.203
-54.342
-42.704
-31.698
-20.372
-8.518
3.058
12.934
20.252
25.033
27.626
28.33
27.003
23.605
18.674
13.238
8.261
4.277
1.464
-0.213
-0.68
0.216
2.493
6.005
10.501
15.73
21.515
27.766
34.401
41.291
48.252
55.048
61.485
67.441
72.854
77.704
81.967
85.619
88.665
91.153
93.161
94.776
96.065
97.079
97.869
98.501
99.064
99.66
100.367
101.231
102.285
103.546
105.032
106.76
108.73
110.921
113.316
115.898
118.658
121.592
124.69
127.93
131.29
134.746
138.279
141.87
145.502
149.154
152.806
156.441
160.041
163.592
167.078
170.476
173.764
176.921
179.923
182.751
185.382
187.795
189.97
191.889
193.537
194.899
195.963
196.717
197.149
197.252
197.021
196.449
195.533
194.273
192.668
190.721
188.438
185.823
182.885
179.633
176.076
172.229
168.103
163.715
159.079
154.214
149.138
143.869
138.429
132.838
127.117
121.287
115.371
109.391
103.369
97.326
91.282
85.259
79.275
73.351
67.505
61.754
56.115
50.603
45.232
40.018
34.972
30.105
25.428
20.948
16.674
12.612
8.767
5.144
1.744
-1.432
-4.381
-7.106
-9.609
-11.892
-13.959
-15.817
-17.469
-18.923
-20.187
-21.268
-22.175
-22.917
-23.503
-23.944
-24.249
-24.428
-24.493
-24.453
-24.32
-24.103
-23.813
-23.459
-23.053
-22.603
-22.119
-21.61
-21.083
-20.547
-20.009
-19.477
-18.958
-18.457
-17.98
-17.533
-17.121
-16.746
-16.414
-16.127
-15.888
-15.7
-15.564
-15.482
-15.457
-15.488
-15.577
-15.723
-15.927
-16.187
-16.503
-16.873
-17.296
-17.769
-18.291
-18.859
-19.471
-20.124
-20.816
-21.544
-22.304
-23.094
-23.908
-24.744
-25.596
-26.462
-27.337
-28.215
-29.093
-29.965
-30.828
-31.678
-32.508
-33.315
-34.092
-34.835
-35.537
-36.192
-36.797
-37.346
-37.834
-38.259
-38.617
-38.906
-39.124
-39.268
-39.338
-39.332
-39.249
-39.09
-38.854
-38.543
-38.158
-37.702
-37.18
-36.597
-35.956
-35.264
-34.527
-33.756
-32.957
-32.135
-31.298
-30.451
-29.601
-28.759
-27.929
-27.12
-26.336
-25.588
-24.885
-24.238
-23.656
-23.141
-22.697
-22.326
-22.032
-21.82
-21.687
-21.632
-21.653
-21.751
-21.936
-22.229
-22.631
-23.136
-23.725
-24.37
-25.048
-25.74
-26.411
-27.02
-27.537
-27.939
-28.223
-28.407
-28.486
-28.459
-28.3
-27.957
-27.417
-26.695
-25.824
-24.88
-23.941
-23.082
-22.424
-22.112
-22.249
-22.919
-24.142
-25.878
-28.105
-30.772
-33.843
-37.333
-41.215
-45.447
-49.918
-54.408
-58.662
-62.39
-65.228
-66.801
-66.708
-64.52
-60.128
-53.722
-45.706
-36.82
-27.628
-18.428
-9.743
-2.025
4.846
11.452
19.079
29.453
43.516
61.547
83.885
110.302
139.408
168.508
193.406
209.662
213.795
202.99
174.551
126.401
58.487
-26.471
-123.506
-227.219
-332.297
-433.429
-524.689
-599.485
-653.36
-685.099
-695.552
-686.5
-660.397
-620.048
-569.698
-515.474
-462.055
-411.93
-366.438
-325.864
-290.139
-259.333
-232.413
-206.966
-181.451
-155.34
-128.664
-102.315
-77.088
-53.385
-31.946
-13.776
0.599
10.993
17.54
20.854
21.513
20.014
16.951
12.836
8.09
3.133
-1.657
-5.965
-9.51
-12.101
-13.631
-14.012
-13.195
-11.174
-7.992
-3.782
1.281
7.018
13.257
19.859
26.681
33.549
40.258
46.632
52.552
57.949
62.798
67.072
70.753
73.852
76.415
78.522
80.255
81.685
82.867
83.865
84.75
85.605
86.525
87.578
88.809
90.249
91.918
93.832
96.006
98.436
101.103
103.987
107.071
110.344
113.796
117.414
121.174
125.05
129.017
133.052
137.136
141.246
145.359
149.453
153.505
157.498
161.416
165.236
168.937
172.495
175.885
179.085
182.072
184.825
187.321
189.54
191.464
193.079
194.372
195.33
195.942
196.201
196.101
195.638
194.809
193.614
192.055
190.136
187.862
185.243
182.288
179.007
175.415
171.525
167.353
162.916
158.234
153.326
148.21
142.911
137.448
131.846
126.128
120.317
114.436
108.51
102.562
96.614
90.69
84.81
78.996
73.266
67.639
62.133
56.764
51.547
46.495
41.621
36.936
32.45
28.172
24.107
20.262
16.64
13.245
10.078
7.139
4.428
1.943
-0.32
-2.365
-4.196
-5.821
-7.247
-8.48
-9.531
-10.409
-11.122
-11.683
-12.101
-12.387
-12.552
-12.608
-12.565
-12.434
-12.226
-11.951
-11.619
-11.241
-10.825
-10.38
-9.914
-9.436
-8.951
-8.467
-7.989
-7.523
-7.074
-6.647
-6.243
-5.868
-5.523
-5.211
-4.933
-4.691
-4.483
-4.311
-4.174
-4.072
-4.002
-3.964
-3.956
-3.977
-4.024
-4.096
-4.191
-4.307
-4.442
-4.594
-4.762
-4.943
-5.137
-5.343
-5.56
-5.787
-6.024
-6.271
-6.529
-6.797
-7.076
-7.365
-7.664
-7.975
-8.298
-8.633
-8.98
-9.342
-9.718
-10.11
-10.519
-10.946
-11.39
-11.853
-12.334
-12.832
-13.348
-13.879
-14.424
-14.983
-15.553
-16.135
-16.725
-17.321
-17.922
-18.522
-19.119
-19.708
-20.285
-20.844
-21.379
-21.889
-22.367
-22.812
-23.221
-23.588
-23.911
-24.188
-24.415
-24.59
-24.71
-24.77
-24.769
-24.708
-24.585
-24.403
-24.162
-23.866
-23.519
-23.126
-22.693
-22.224
-21.722
-21.191
-20.635
-20.057
-19.462
-18.85
-18.225
-17.596
-16.968
-16.353
-15.758
-15.189
-14.654
-14.159
-13.707
-13.302
-12.946
-12.631
-12.359
-12.135
-11.967
-11.875
-11.866
-11.938
-12.088
-12.309
-12.581
-12.878
-13.153
-13.345
-13.416
-13.345
-13.119
-12.754
-12.247
-11.587
-10.779
-9.816
-8.692
-7.415
-5.984
-4.404
-2.736
-1.085
0.398
1.521
2.144
2.173
1.527
0.176
-1.909
-4.731
-8.21
-12.263
-16.826
-21.855
-27.351
-33.268
-39.41
-45.477
-51.086
-55.787
-59.236
-61.03
-60.655
-57.887
-52.734
-45.501
-36.943
-27.705
-18.073
-8.523
0.335
8.498
16.305
24.871
36.222
51.486
70.901
94.814
123.391
155.884
190.537
223.452
249.051
263.385
263.61
246.96
211.107
154.119
76.002
-19.353
-125.535
-237.223
-349.286
-456.604
-553.942
-634.443
-692.996
-728.464
-741.804
-734.309
-708.147
-665.205
-608.048
-542.647
-474.433
-406.858
-343.01
-284.647
-232.522
-188.438
-153.847
-127.315
-107.251
-92.061
-79.262
-67.963
-58.057
-48.385
-37.807
-26.308
-14.006
-1.738
8.747
16.863
22.688
26.053
26.979
25.597
22.059
17.084
11.859
7.168
3.44
0.918
-0.382
-0.397
0.977
3.677
7.49
12.174
17.521
23.382
29.658
36.247
42.976
49.624
55.998
61.941
67.349
72.184
76.425
80.044
83.044
85.459
87.337
88.759
89.802
90.515
90.962
91.21
91.339
91.454
91.642
91.959
92.446
93.129
94.021
95.14
96.488
98.049
99.809
101.754
103.871
106.157
108.603
111.19
113.898
116.703
119.583
122.52
125.5
128.501
131.508
134.502
137.469
140.398
143.272
146.074
148.782
151.376
153.835
156.141
158.273
160.211
161.936
163.433
164.687
165.686
166.418
166.872
167.039
166.912
166.485
165.754
164.718
163.375
161.726
159.773
157.522
154.98
152.152
149.048
145.678
142.053
138.187
134.091
129.782
125.275
120.586
115.732
110.733
105.607
100.374
95.051
89.66
84.221
78.753
73.275
67.805
62.363
56.966
51.63
46.373
41.209
36.153
31.218
26.418
21.764
17.267
12.936
8.78
4.807
1.022
-2.568
-5.96
-9.149
-12.135
-14.916
-17.49
-19.86
-22.027
-23.992
-25.76
-27.335
-28.722
-29.927
-30.956
-31.816
-32.514
-33.059
-33.459
-33.721
-33.856
-33.872
-33.779
-33.585
-33.299
-32.932
-32.491
-31.987
-31.426
-30.817
-30.17
-29.49
-28.786
-28.065
-27.333
-26.597
-25.863
-25.136
-24.422
-23.724
-23.048
-22.396
-21.773
-21.18
-20.621
-20.098
-19.613
-19.167
-18.762
-18.398
-18.077
-17.798
-17.562
-17.368
-17.216
-17.105
-17.036
-17.006
-17.016
-17.065
-17.153
-17.277
-17.438
-17.634
-17.864
-18.125
-18.417
-18.737
-19.084
-19.456
-19.852
-20.27
-20.709
-21.167
-21.643
-22.134
-22.638
-23.152
-23.675
-24.203
-24.732
-25.261
-25.784
-26.3
-26.806
-27.298
-27.775
-28.231
-28.665
-29.07
-29.444
-29.782
-30.078
-30.329
-30.53
-30.678
-30.772
-30.81
-30.789
-30.707
-30.564
-30.358
-30.089
-29.754
-29.354
-28.887
-28.354
-27.757
-27.098
-26.382
-25.612
-24.792
-23.93
-23.033
-22.107
-21.158
-20.192
-19.212
-18.224
-17.232
-16.243
-15.259
-14.287
-13.334
-12.409
-11.522
-10.684
-9.899
-9.172
-8.507
-7.904
-7.367
-6.893
-6.477
-6.118
-5.82
-5.594
-5.456
-5.416
-5.472
-5.616
-5.835
-6.101
-6.378
-6.625
-6.79
-6.838
-6.752
-6.526
-6.174
-5.701
-5.102
-4.369
-3.481
-2.416
-1.167
0.258
1.838
3.495
5.097
6.5
7.527
8.042
7.962
7.226
5.814
3.731
1.004
-2.311
-6.154
-10.492
-15.316
-20.601
-26.273
-32.102
-37.729
-42.767
-46.776
-49.395
-50.264
-48.915
-45.156
-39.096
-31.118
-21.991
-12.4
-2.614
6.932
15.582
23.377
30.757
38.756
49.386
63.947
82.681
106.058
134.391
166.529
200.227
231.564
254.964
266.112
262.01
239.504
195.831
130.003
43.332
-59.746
-172.605
-289.298
-404.434
-512.233
-606.218
-680.274
-730.794
-757.26
-760.958
-743.653
-707.315
-654.232
-588.792
-517.062
-443.734
-372.192
-305.349
-245.01
-192.905
-151.251
-120.164
-97.683
-82.228
-71.888
-64.304
-58.419
-53.118
-46.455
-37.77
-27.46
-15.841
-4.099
6.135
14.381
20.328
23.395
23.715
21.605
17.369
11.991
6.639
1.933
-1.698
-3.989
-4.996
-4.682
-2.99
-0.096
3.775
8.416
13.633
19.323
25.425
31.816
38.323
44.722
50.805
56.44
61.555
66.115
70.107
73.512
76.337
78.638
80.483
81.948
83.1
83.979
84.638
85.147
85.591
86.071
86.668
87.434
88.402
89.598
91.034
92.723
94.663
96.831
99.207
101.776
104.525
107.447
110.532
113.758
117.101
120.537
124.043
127.601
131.189
134.787
138.374
141.931
145.441
148.89
152.26
155.53
158.677
161.681
164.52
167.173
169.62
171.84
173.814
175.528
176.966
178.117
178.969
179.513
179.741
179.646
179.226
178.479
177.403
175.999
174.272
172.227
169.87
167.209
164.255
161.019
157.513
153.752
149.75
145.523
141.09
136.468
131.675
126.732
121.659
116.477
111.206
105.867
100.481
95.069
89.652
84.25
78.88
73.563
68.314
63.152
58.091
53.147
48.333
43.661
39.143
34.789
30.609
26.611
22.801
19.184
15.767
12.551
9.539
6.732
4.131
1.735
-0.459
-2.452
-4.25
-5.855
-7.275
-8.514
-9.579
-10.478
-11.218
-11.809
-12.258
-12.574
-12.767
-12.845
-12.819
-12.696
-12.487
-12.2
-11.844
-11.428
-10.96
-10.448
-9.9
-9.323
-8.724
-8.109
-7.484
-6.856
-6.229
-5.607
-4.996
-4.399
-3.819
-3.26
-2.724
-2.214
-1.73
-1.275
-0.849
-0.453
-0.087
0.249
0.554
0.83
1.077
1.296
1.487
1.651
1.789
1.901
1.988
2.051
2.091
2.109
2.105
2.08
2.033
1.966
1.877
1.767
1.636
1.483
1.307
1.11
0.891
0.651
0.388
0.104
-0.202
-0.531
-0.881
-1.253
-1.649
-2.067
-2.507
-2.969
-3.451
-3.953
-4.472
-5.008
-5.556
-6.115
-6.682
-7.255
-7.832
-8.41
-8.986
-9.554
-10.113
-10.657
-11.182
-11.682
-12.152
-12.587
-12.983
-13.336
-13.643
-13.902
-14.109
-14.262
-14.357
-14.393
-14.369
-14.281
-14.127
-13.906
-13.62
-13.269
-12.856
-12.384
-11.856
-11.279
-10.659
-10.005
-9.319
-8.607
-7.875
-7.127
-6.369
-5.604
-4.837
-4.072
-3.318
-2.582
-1.877
-1.211
-0.59
-0.023
0.484
0.927
1.302
1.607
1.849
2.025
2.13
2.155
2.08
1.897
1.611
1.221
0.737
0.179
-0.426
-1.029
-1.569
-2.009
-2.33
-2.519
-2.588
-2.534
-2.343
-2.019
-1.552
-0.934
-0.172
0.741
1.798
2.937
4.047
4.975
5.527
5.568
5.007
3.768
1.814
-0.886
-4.338
-8.463
-13.176
-18.412
-24.136
-30.358
-37.027
-43.939
-50.781
-57.149
-62.593
-66.767
-69.273
-69.604
-67.513
-62.998
-56.359
-48.355
-39.681
-30.661
-21.766
-13.611
-6.169
0.994
8.95
19.702
34.632
54.135
78.735
108.828
143.349
180.069
215.062
242.633
258.254
258.743
240.701
201.065
138.619
54.285
-47.809
-160.789
-278.595
-395.7
-505.928
-602.906
-680.602
-734.877
-764.946
-772.464
-759.228
-727.602
-680.433
-621.27
-555.516
-488.023
-421.99
-359.912
-303.41
-253.29
-210.872
-177.183
-151.046
-131.016
-115.58
-102.558
-91.005
-80.722
-70.673
-59.713
-47.739
-34.872
-21.926
-10.624
-1.64
5.067
9.315
11.035
10.319
7.281
2.587
-2.517
-7.192
-10.999
-13.656
-15.156
-15.441
-14.384
-12.027
-8.58
-4.266
0.708
6.191
12.138
18.476
25.07
31.743
38.263
44.438
50.156
55.354
60.01
64.098
67.6
70.527
72.936
74.909
76.53
77.858
78.934
79.806
80.543
81.23
81.969
82.832
83.865
85.097
86.548
88.235
90.171
92.353
94.758
97.362
100.15
103.108
106.232
109.508
112.913
116.423
120.014
123.663
127.354
131.066
134.777
138.468
142.119
145.714
149.238
152.674
155.999
159.195
162.238
165.108
167.785
170.249
172.48
174.461
176.175
177.608
178.748
179.586
180.11
180.314
180.191
179.739
178.955
177.839
176.392
174.616
172.518
170.104
167.382
164.361
161.052
157.468
153.621
149.526
145.199
140.657
135.916
130.996
125.915
120.694
115.352
109.91
104.389
98.809
93.192
87.557
81.926
76.316
70.748
65.239
59.808
54.469
49.239
44.133
39.163
34.343
29.685
25.199
20.894
16.778
12.859
9.142
5.633
2.335
-0.749
-3.617
-6.269
-8.705
-10.927
-12.937
-14.737
-16.334
-17.731
-18.934
-19.95
-20.787
-21.452
-21.954
-22.302
-22.504
-22.571
-22.512
-22.337
-22.056
-21.68
-21.217
-20.678
-20.073
-19.411
-18.702
-17.954
-17.176
-16.376
-15.561
-14.74
-13.919
-13.104
-12.301
-11.516
-10.755
-10.021
-9.318
-8.65
-8.021
-7.432
-6.886
-6.384
-5.926
-5.514
-5.148
-4.828
-4.553
-4.323
-4.136
-3.993
-3.892
-3.831
-3.808
-3.823
-3.872
-3.955
-4.07
-4.215
-4.39
-4.592
-4.822
-5.078
-5.359
-5.663
-5.991
-6.34
-6.709
-7.098
-7.505
-7.931
-8.373
-8.832
-9.309
-9.802
-10.311
-10.836
-11.375
-11.928
-12.494
-13.072
-13.659
-14.253
-14.853
-15.457
-16.064
-16.672
-17.278
-17.881
-18.476
-19.061
-19.631
-20.182
-20.709
-21.208
-21.673
-22.103
-22.492
-22.84
-23.144
-23.399
-23.604
-23.756
-23.852
-23.891
-23.87
-23.785
-23.636
-23.424
-23.148
-22.811
-22.416
-21.964
-21.462
-20.915
-20.328
-19.706
-19.053
-18.371
-17.666
-16.941
-16.2
-15.447
-14.688
-13.93
-13.181
-12.453
-11.756
-11.096
-10.479
-9.909
-9.39
-8.923
-8.51
-8.145
-7.829
-7.569
-7.375
-7.265
-7.252
-7.336
-7.509
-7.761
-8.065
-8.387
-8.687
-8.914
-9.032
-9.027
-8.893
-8.643
-8.285
-7.814
-7.223
-6.492
-5.6
-4.539
-3.317
-1.953
-0.522
0.844
2.004
2.784
3.046
2.713
1.722
0.052
-2.29
-5.278
-8.852
-12.95
-17.537
-22.601
-28.119
-34.017
-40.065
-45.907
-51.16
-55.387
-58.234
-59.343
-58.243
-54.737
-48.924
-41.178
-32.266
-22.875
-13.274
-3.895
4.606
12.273
19.541
27.432
37.967
52.455
71.162
94.575
123.009
155.31
189.233
220.858
244.636
256.248
252.708
230.875
187.942
122.89
37.023
-65.267
-177.355
-293.23
-407.61
-514.821
-608.216
-681.621
-731.317
-756.572
-758.99
-740.749
-703.736
-650.228
-585.022
-514.296
-443.174
-375.595
-313.686
-258.385
-211.31
-174.34
-147.055
-127.347
-112.861
-100.833
-89.846
-79.78
-69.768
-58.43
-45.438
-31.214
-16.821
-4.18
5.753
13.091
17.748
19.617
18.842
15.615
10.625
5.175
0.146
-4.048
-7.112
-9.011
-9.701
-9.023
-7.003
-3.844
0.271
5.151
10.648
16.714
23.242
30.068
37.008
43.818
50.298
56.33
61.834
66.774
71.133
74.887
78.041
80.649
82.776
84.496
85.874
86.948
87.776
88.433
89.007
89.607
90.313
91.173
92.225
93.491
94.988
96.729
98.715
100.923
103.337
105.941
108.725
111.687
114.816
118.09
121.487
124.982
128.555
132.186
135.857
139.547
143.236
146.903
150.534
154.114
157.625
161.046
164.354
167.527
170.542
173.377
176.012
178.423
180.591
182.498
184.128
185.467
186.503
187.223
187.617
187.678
187.4
186.778
185.811
184.496
182.835
180.831
178.49
175.818
172.823
169.515
165.906
162.007
157.833
153.401
148.725
143.825
138.718
133.425
127.967
122.364
116.638
110.812
104.907
98.947
92.954
86.949
80.954
74.988
69.073
63.228
57.47
51.818
46.288
40.896
35.656
30.581
25.685
20.978
16.469
12.169
8.083
4.219
0.581
-2.826
-6.001
-8.94
-11.645
-14.116
-16.354
-18.363
-20.146
-21.709
-23.057
-24.198
-25.138
-25.885
-26.449
-26.838
-27.063
-27.132
-27.056
-26.847
-26.513
-26.067
-25.518
-24.878
-24.157
-23.366
-22.514
-21.613
-20.67
-19.697
-18.701
-17.692
-16.677
-15.666
-14.666
-13.685
-12.728
-11.803
-10.915
-10.07
-9.272
-8.527
-7.837
-7.207
-6.64
-6.138
-5.705
-5.342
-5.05
-4.831
-4.685
-4.613
-4.613
-4.685
-4.829
-5.041
-5.322
-5.669
-6.079
-6.551
-7.082
-7.668
-8.308
-8.995
-9.727
-10.499
-11.306
-12.143
-13.004
-13.885
-14.778
-15.679
-16.582
-17.481
-18.371
-19.244
-20.093
-20.913
-21.695
-22.434
-23.123
-23.755
-24.326
-24.83
-25.264
-25.626
-25.91
-26.115
-26.238
-26.277
-26.232
-26.101
-25.884
-25.58
-25.193
-24.724
-24.178
-23.56
-22.874
-22.125
-21.323
-20.475
-19.59
-18.674
-17.734
-16.777
-15.81
-14.844
-13.887
-12.945
-12.026
-11.139
-10.297
-9.51
-8.786
-8.132
-7.55
-7.043
-6.616
-6.272
-6.014
-5.836
-5.741
-5.727
-5.806
-5.998
-6.307
-6.725
-7.236
-7.809
-8.423
-9.059
-9.681
-10.248
-10.731
-11.105
-11.367
-11.535
-11.605
-11.573
-11.415
-11.077
-10.545
-9.834
-8.976
-8.047
-7.124
-6.283
-5.645
-5.356
-5.519
-6.218
-7.476
-9.252
-11.524
-14.24
-17.364
-20.911
-24.855
-29.155
-33.701
-38.273
-42.612
-46.426
-49.347
-51.002
-50.986
-48.866
-44.532
-38.175
-30.209
-21.386
-12.279
-3.183
5.381
12.967
19.704
26.186
33.719
44.062
58.175
76.33
98.851
125.482
154.793
184.061
209.04
225.227
229.108
217.861
188.798
139.877
71.09
-14.8
-112.771
-217.345
-323.167
-424.906
-516.622
-591.743
-645.843
-677.731
-688.303
-679.399
-653.506
-613.446
-563.483
-509.734
-456.861
-407.342
-362.488
-322.55
-287.444
-257.227
-230.853
-205.915
-180.88
-155.215
-128.963
-103.02
-78.179
-54.843
-33.751
-15.896
-1.804
8.343
14.681
17.823
18.342
16.734
13.589
9.414
4.63
-0.35
-5.149
-9.455
-12.991
-15.568
-17.081
-17.444
-16.609
-14.569
-11.368
-7.136
-2.046
3.724
10.006
16.659
23.544
30.485
37.281
43.756
49.789
55.314
60.305
64.736
68.587
71.868
74.627
76.939
78.886
80.537
81.945
83.173
84.289
85.378
86.531
87.816
89.276
90.943
92.834
94.966
97.352
99.988
102.853
105.927
109.193
112.638
116.253
120.023
123.924
127.93
132.015
136.156
140.332
144.521
148.698
152.842
156.931
160.945
164.868
168.68
172.356
175.875
179.211
182.342
185.247
187.902
190.287
192.381
194.167
195.631
196.761
197.543
197.969
198.031
197.722
197.04
195.982
194.55
192.744
190.569
188.032
185.141
181.906
178.338
174.452
170.261
165.781
161.032
156.03
150.797
145.351
139.716
133.913
127.966
121.897
115.732
109.492
103.203
96.888
90.57
84.271
78.014
71.819
65.706
59.693
53.8
48.043
42.436
36.995
31.732
26.66
21.789
17.129
12.687
8.469
4.481
0.728
-2.789
-6.068
-9.109
-11.912
-14.479
-16.813
-18.919
-20.801
-22.465
-23.918
-25.168
-26.223
-27.092
-27.783
-28.307
-28.674
-28.893
-28.975
-28.932
-28.772
-28.507
-28.148
-27.704
-27.185
-26.602
-25.964
-25.279
-24.557
-23.806
-23.033
-22.246
-21.452
-20.659
-19.871
-19.095
-18.336
-17.6
-16.89
-16.211
-15.567
-14.959
-14.391
-13.865
-13.383
-12.948
-12.559
-12.22
-11.93
-11.69
-11.502
-11.363
-11.275
-11.236
-11.245
-11.301
-11.403
-11.549
-11.739
-11.971
-12.242
-12.553
-12.901
-13.283
-13.698
-14.141
-14.61
-15.103
-15.615
-16.142
-16.682
-17.23
-17.783
-18.339
-18.893
-19.441
-19.979
-20.5
-21.001
-21.475
-21.918
-22.323
-22.687
-23.005
-23.274
-23.492
-23.656
-23.763
-23.811
-23.797
-23.721
-23.58
-23.373
-23.098
-22.756
-22.348
-21.877
-21.346
-20.759
-20.12
-19.434
-18.709
-17.951
-17.165
-16.356
-15.527
-14.684
-13.832
-12.978
-12.128
-11.287
-10.464
-9.669
-8.915
-8.214
-7.569
-6.986
-6.466
-6.011
-5.624
-5.307
-5.052
-4.859
-4.735
-4.686
-4.733
-4.891
-5.15
-5.501
-5.925
-6.386
-6.86
-7.32
-7.713
-8.009
-8.198
-8.272
-8.259
-8.175
-8.003
-7.721
-7.294
-6.684
-5.893
-4.938
-3.84
-2.681
-1.567
-0.611
0.016
0.183
-0.164
-1.071
-2.521
-4.466
-6.92
-9.856
-13.235
-17.06
-21.308
-25.942
-30.906
-35.979
-40.836
-45.132
-48.431
-50.389
-50.699
-48.939
-44.988
-39.017
-31.357
-22.72
-13.752
-4.667
4.123
12.006
19.074
25.785
33.141
43.07
56.764
74.38
96.293
122.714
152.517
183.563
212.105
232.884
241.819
236.157
213.111
170.258
106.896
24.419
-73.08
-179.269
-288.205
-394.712
-493.253
-577.782
-643.31
-686.832
-707.609
-707.472
-689.051
-654.734
-607.674
-552.299
-492.884
-433.3
-376.961
-325.209
-278.321
-236.937
-201.183
-170.563
-144.836
-122.921
-102.894
-84.173
-66.924
-51.042
-36.726
-23.892
-11.788
-0.625
8.433
14.94
18.879
20.405
20.148
18.392
14.914
10.061
4.728
-0.392
-4.694
-7.845
-9.93
-10.92
-10.625
-9.022
-6.208
-2.335
2.34
7.629
13.452
19.687
26.198
32.814
39.293
45.44
51.135
56.297
60.893
64.909
68.325
71.149
73.43
75.235
76.642
77.72
78.518
79.093
79.513
79.86
80.237
80.722
81.363
82.197
83.245
84.521
86.039
87.799
89.779
91.962
94.331
96.875
99.59
102.462
105.473
108.601
111.82
115.109
118.452
121.827
125.215
128.595
131.95
135.262
138.518
141.702
144.793
147.769
150.609
153.293
155.801
158.112
160.206
162.065
163.673
165.016
166.081
166.858
167.337
167.509
167.368
166.911
166.135
165.039
163.622
161.889
159.843
157.491
154.84
151.899
148.679
145.192
141.45
137.469
133.264
128.851
124.247
119.471
114.541
109.477
104.298
99.025
93.678
88.278
82.845
77.398
71.959
66.544
61.174
55.864
50.632
45.493
40.463
35.556
30.783
26.158
21.691
17.391
13.268
9.328
5.579
2.025
-1.33
-4.482
-7.429
-10.171
-12.707
-15.038
-17.166
-19.094
-20.824
-22.363
-23.713
-24.882
-25.875
-26.698
-27.36
-27.867
-28.229
-28.452
-28.545
-28.518
-28.378
-28.134
-27.796
-27.37
-26.866
-26.291
-25.655
-24.963
-24.225
-23.447
-22.636
-21.798
-20.941
-20.069
-19.188
-18.304
-17.421
-16.543
-15.674
-14.82
-13.982
-13.164
-12.37
-11.602
-10.864
-10.157
-9.483
-8.846
-8.245
-7.683
-7.161
-6.681
-6.243
-5.849
-5.5
-5.197
-4.942
-4.735
-4.576
-4.467
-4.407
-4.396
-4.435
-4.523
-4.661
-4.847
-5.081
-5.364
-5.695
-6.073
-6.497
-6.966
-7.477
-8.028
-8.616
-9.239
-9.892
-10.572
-11.275
-11.998
-12.737
-13.487
-14.244
-15.004
-15.762
-16.51
-17.245
-17.959
-18.645
-19.298
-19.912
-20.482
-21.004
-21.474
-21.886
-22.238
-22.526
-22.746
-22.896
-22.972
-22.971
-22.89
-22.729
-22.489
-22.172
-21.78
-21.315
-20.783
-20.192
-19.547
-18.854
-18.117
-17.342
-16.532
-15.695
-14.832
-13.948
-13.047
-12.14
-11.233
-10.338
-9.467
-8.626
-7.824
-7.07
-6.366
-5.719
-5.129
-4.592
-4.109
-3.688
-3.338
-3.079
-2.917
-2.85
-2.876
-2.988
-3.164
-3.376
-3.576
-3.703
-3.724
-3.62
-3.383
-3.023
-2.539
-1.918
-1.163
-0.27
0.763
1.925
3.219
4.634
6.111
7.542
8.767
9.608
9.938
9.673
8.748
7.132
4.792
1.72
-2.022
-6.337
-11.141
-16.372
-21.999
-27.99
-34.186
-40.276
-45.875
-50.559
-53.949
-55.775
-55.691
-53.261
-48.324
-41.016
-31.804
-21.551
-10.956
-0.275
10.054
19.387
27.713
35.425
43.581
54.194
68.578
86.955
109.685
136.982
167.591
199.175
227.828
248.103
255.777
248.019
221.924
174.957
106.494
18.223
-85.307
-197.453
-312.229
-424.428
-528.459
-617.858
-686.839
-732.125
-753.301
-752.102
-730.795
-691.31
-635.958
-569.597
-498.283
-426.907
-359.247
-297.363
-242.165
-195.329
-158.81
-132.11
-113.153
-99.659
-88.85
-79.347
-71.012
-62.866
-53.455
-42.41
-30.089
-17.537
-6.644
1.736
7.743
11.318
12.411
11.123
7.649
2.72
-2.434
-6.979
-10.532
-12.878
-14.011
-13.881
-12.368
-9.521
-5.553
-0.695
4.85
10.932
17.451
24.296
31.292
38.213
44.866
51.094
56.795
61.932
66.487
70.434
73.773
76.531
78.751
80.507
81.875
82.903
83.654
84.198
84.615
85.014
85.483
86.08
86.847
87.811
88.984
90.384
92.016
93.863
95.914
98.156
100.577
103.177
105.945
108.865
111.917
115.075
118.319
121.63
124.991
128.384
131.791
135.193
138.576
141.928
145.233
148.47
151.62
154.659
157.567
160.322
162.904
165.29
167.46
169.398
171.086
172.511
173.661
174.522
175.083
175.338
175.277
174.897
174.194
173.166
171.812
170.135
168.138
165.827
163.21
160.294
157.09
153.608
149.862
145.866
141.634
137.183
132.53
127.694
122.694
117.549
112.281
106.909
101.456
95.943
90.391
84.821
79.253
73.707
68.203
62.758
57.391
52.119
46.957
41.921
37.024
32.279
27.699
23.294
19.072
15.043
11.213
7.588
4.172
0.97
-2.018
-4.789
-7.343
-9.683
-11.809
-13.726
-15.437
-16.947
-18.264
-19.392
-20.341
-21.117
-21.73
-22.189
-22.503
-22.682
-22.736
-22.676
-22.511
-22.252
-21.909
-21.491
-21.009
-20.471
-19.887
-19.266
-18.615
-17.943
-17.257
-16.564
-15.87
-15.183
-14.507
-13.847
-13.208
-12.594
-12.007
-11.451
-10.928
-10.439
-9.988
-9.574
-9.199
-8.862
-8.566
-8.308
-8.089
-7.908
-7.765
-7.658
-7.585
-7.548
-7.543
-7.571
-7.63
-7.721
-7.842
-7.992
-8.17
-8.376
-8.607
-8.863
-9.144
-9.447
-9.772
-10.119
-10.486
-10.873
-11.28
-11.706
-12.15
-12.611
-13.087
-13.576
-14.077
-14.588
-15.105
-15.628
-16.152
-16.677
-17.2
-17.718
-18.228
-18.727
-19.21
-19.673
-20.111
-20.519
-20.891
-21.225
-21.514
-21.758
-21.953
-22.096
-22.185
-22.218
-22.191
-22.104
-21.955
-21.741
-21.46
-21.112
-20.699
-20.222
-19.685
-19.09
-18.441
-17.745
-17.009
-16.239
-15.44
-14.618
-13.776
-12.921
-12.057
-11.191
-10.326
-9.47
-8.629
-7.816
-7.039
-6.311
-5.638
-5.026
-4.479
-4
-3.591
-3.253
-2.981
-2.775
-2.641
-2.588
-2.636
-2.793
-3.059
-3.425
-3.88
-4.395
-4.934
-5.455
-5.906
-6.25
-6.471
-6.56
-6.531
-6.389
-6.126
-5.732
-5.188
-4.469
-3.567
-2.488
-1.25
0.068
1.336
2.408
3.108
3.301
2.907
1.865
0.155
-2.216
-5.221
-8.797
-12.878
-17.433
-22.451
-27.911
-33.741
-39.702
-45.428
-50.524
-54.543
-57.131
-57.928
-56.46
-52.541
-46.293
-38.123
-28.849
-19.181
-9.38
0.136
8.731
16.494
23.919
32.089
43.093
58.262
77.818
102.178
131.561
164.669
199.086
230.759
254.046
264.576
259.393
235.439
190.037
122.419
34.197
-70.006
-183.408
-299.866
-414.044
-520.257
-611.889
-683
-730.195
-752.997
-753.202
-733.146
-694.808
-640.565
-575.286
-505.033
-434.727
-368.122
-307.183
-252.758
-206.415
-169.962
-142.914
-123.194
-108.519
-96.235
-85.028
-74.811
-64.724
-53.399
-40.515
-26.497
-12.391
-0.059
9.596
16.705
21.191
22.942
22.096
18.853
13.903
8.529
3.597
-0.494
-3.459
-5.264
-5.866
-5.117
-3.047
0.136
4.247
9.098
14.54
20.524
26.946
33.645
40.439
47.087
53.393
59.24
64.553
69.297
73.457
77.01
79.966
82.379
84.315
85.851
87.051
87.955
88.619
89.118
89.539
89.99
90.548
91.262
92.167
93.286
94.634
96.226
98.06
100.114
102.369
104.813
107.432
110.224
113.176
116.269
119.478
122.78
126.152
129.577
133.035
136.504
139.965
143.398
146.787
150.117
153.37
156.525
159.561
162.455
165.185
167.73
170.07
172.183
174.05
175.656
176.984
178.022
178.759
179.185
179.29
179.07
178.519
177.635
176.417
174.867
172.985
170.779
168.254
165.419
162.284
158.859
155.158
151.194
146.985
142.545
137.892
133.046
128.025
122.85
117.542
112.121
106.61
101.031
95.404
89.752
84.096
78.457
72.855
67.309
61.838
56.459
51.188
46.041
41.033
36.177
31.485
26.968
22.636
18.498
14.56
10.829
7.309
4.004
0.916
-1.953
-4.605
-7.039
-9.258
-11.265
-13.065
-14.661
-16.06
-17.269
-18.295
-19.145
-19.828
-20.352
-20.728
-20.964
-21.071
-21.057
-20.933
-20.709
-20.395
-19.999
-19.532
-19.003
-18.42
-17.793
-17.129
-16.436
-15.721
-14.992
-14.254
-13.515
-12.778
-12.05
-11.334
-10.635
-9.956
-9.3
-8.669
-8.066
-7.493
-6.95
-6.439
-5.962
-5.517
-5.107
-4.731
-4.389
-4.082
-3.808
-3.567
-3.36
-3.184
-3.041
-2.93
-2.851
-2.803
-2.787
-2.803
-2.85
-2.928
-3.036
-3.174
-3.342
-3.538
-3.763
-4.016
-4.297
-4.605
-4.941
-5.304
-5.693
-6.108
-6.547
-7.008
-7.49
-7.991
-8.51
-9.042
-9.585
-10.138
-10.697
-11.261
-11.825
-12.386
-12.941
-13.483
-14.007
-14.51
-14.985
-15.426
-15.83
-16.192
-16.508
-16.777
-16.995
-17.159
-17.268
-17.318
-17.307
-17.234
-17.098
-16.897
-16.631
-16.301
-15.911
-15.463
-14.961
-14.41
-13.814
-13.182
-12.519
-11.831
-11.122
-10.397
-9.659
-8.915
-8.174
-7.438
-6.716
-6.016
-5.348
-4.725
-4.158
-3.652
-3.211
-2.837
-2.53
-2.293
-2.128
-2.027
-1.989
-2.02
-2.127
-2.329
-2.64
-3.052
-3.552
-4.122
-4.726
-5.339
-5.933
-6.457
-6.879
-7.189
-7.38
-7.477
-7.498
-7.42
-7.222
-6.869
-6.318
-5.573
-4.649
-3.565
-2.407
-1.282
-0.303
0.356
0.563
0.266
-0.589
-1.99
-3.895
-6.323
-9.253
-12.653
-16.531
-20.868
-25.635
-30.77
-36.052
-41.146
-45.7
-49.278
-51.525
-52.125
-50.637
-46.914
-41.116
-33.569
-24.986
-16.023
-6.895
1.973
9.927
17.041
23.769
31.13
41.139
55.067
73.116
95.756
123.289
154.573
187.427
217.942
240.561
251.025
246.385
223.565
179.897
114.417
28.394
-73.807
-185.658
-301.315
-415.482
-522.506
-616.048
-690.09
-741.051
-768.349
-773.176
-757.212
-722.338
-670.773
-606.803
-536.383
-464.134
-393.408
-327.1
-267.012
-214.865
-172.833
-141.042
-117.571
-100.888
-89.161
-80.11
-72.733
-65.98
-57.995
-48.169
-36.932
-24.603
-12.327
-1.686
6.864
13.045
16.311
16.824
14.92
10.914
5.775
0.651
-3.845
-7.282
-9.39
-10.218
-9.723
-7.845
-4.749
-0.654
4.238
9.727
15.705
22.099
28.776
35.556
42.21
48.524
54.365
59.655
64.357
68.458
71.937
74.801
77.102
78.91
80.3
81.339
82.073
82.556
82.864
83.084
83.322
83.665
84.165
84.86
85.778
86.933
88.34
90
91.893
93.999
96.307
98.804
101.489
104.35
107.368
110.522
113.787
117.142
120.568
124.048
127.56
131.084
134.601
138.095
141.553
144.955
148.281
151.509
154.616
157.58
160.379
162.991
165.395
167.57
169.499
171.167
172.558
173.661
174.464
174.956
175.13
174.981
174.504
173.697
172.557
171.088
169.291
167.172
164.737
161.994
158.952
155.623
152.019
148.154
144.042
139.7
135.145
130.394
125.466
120.383
115.162
109.826
104.394
98.888
93.328
87.737
82.133
76.537
70.967
65.442
59.979
54.596
49.308
44.13
39.076
34.159
29.391
24.782
20.343
16.083
12.007
8.123
4.436
0.949
-2.333
-5.41
-8.28
-10.943
-13.4
-15.654
-17.708
-19.564
-21.228
-22.706
-24.002
-25.125
-26.08
-26.877
-27.522
-28.024
-28.391
-28.634
-28.759
-28.777
-28.697
-28.527
-28.277
-27.956
-27.573
-27.137
-26.656
-26.138
-25.592
-25.024
-24.442
-23.852
-23.263
-22.679
-22.107
-21.553
-21.022
-20.519
-20.048
-19.612
-19.216
-18.861
-18.55
-18.285
-18.068
-17.898
-17.777
-17.707
-17.686
-17.715
-17.792
-17.917
-18.087
-18.3
-18.553
-18.844
-19.167
-19.519
-19.896
-20.295
-20.712
-21.142
-21.581
-22.023
-22.465
-22.899
-23.322
-23.725
-24.103
-24.45
-24.76
-25.031
-25.256
-25.434
-25.559
-25.628
-25.639
-25.588
-25.474
-25.294
-25.044
-24.724
-24.333
-23.874
-23.348
-22.757
-22.106
-21.4
-20.646
-19.851
-19.019
-18.156
-17.266
-16.355
-15.426
-14.484
-13.532
-12.575
-11.621
-10.678
-9.758
-8.869
-8.019
-7.216
-6.466
-5.773
-5.141
-4.57
-4.054
-3.595
-3.2
-2.877
-2.645
-2.508
-2.465
-2.512
-2.639
-2.826
-3.044
-3.244
-3.367
-3.38
-3.263
-3.009
-2.629
-2.121
-1.47
-0.68
0.257
1.34
2.562
3.924
5.413
6.97
8.485
9.799
10.733
11.158
10.992
10.167
8.651
6.411
3.432
-0.224
-4.465
-9.213
-14.406
-20.017
-26.013
-32.235
-38.37
-44.031
-48.793
-52.275
-54.199
-54.21
-51.869
-47.009
-39.763
-30.603
-20.39
-9.824
0.831
11.125
20.391
28.598
36.137
44.088
54.493
68.691
86.922
109.57
136.894
167.673
199.574
228.639
249.287
257.182
249.374
222.825
174.919
104.961
14.596
-91.564
-206.759
-324.923
-440.596
-547.907
-640.378
-712.112
-759.812
-783.206
-783.761
-763.397
-724.195
-668.607
-601.206
-528.046
-453.704
-381.42
-313.979
-253.093
-200.497
-158.384
-126.737
-103.569
-87.313
-76.094
-67.69
-61.132
-55.299
-48.249
-39.33
-28.92
-17.351
-5.813
4.161
12.154
17.908
20.899
21.224
19.169
15.049
9.843
4.716
0.286
-3.046
-5.042
-5.75
-5.13
-3.121
0.113
4.319
9.277
14.777
20.699
26.997
33.56
40.21
46.723
52.888
58.573
63.715
68.294
72.288
75.673
78.455
80.686
82.442
83.81
84.856
85.623
86.163
86.548
86.866
87.222
87.697
88.343
89.193
90.27
91.59
93.169
95.004
97.075
99.36
101.843
104.514
107.366
110.389
113.559
116.853
120.244
123.71
127.233
130.792
134.365
137.93
141.468
144.962
148.398
151.756
155.014
158.152
161.146
163.973
166.614
169.046
171.247
173.2
174.887
176.294
177.408
178.217
178.712
178.883
178.725
178.233
177.406
176.242
174.742
172.91
170.749
168.268
165.475
162.38
158.993
155.327
151.397
147.219
142.809
138.184
133.362
128.364
123.209
117.919
112.515
107.018
101.45
95.833
90.189
84.539
78.904
73.303
67.757
62.282
56.898
51.622
46.467
41.45
36.583
31.88
27.351
23.007
18.858
14.91
11.17
7.645
4.337
1.251
-1.611
-4.25
-6.665
-8.857
-10.829
-12.585
-14.129
-15.467
-16.604
-17.548
-18.307
-18.888
-19.301
-19.555
-19.661
-19.627
-19.466
-19.188
-18.803
-18.323
-17.759
-17.122
-16.422
-15.671
-14.879
-14.056
-13.212
-12.358
-11.504
-10.658
-9.829
-9.026
-8.257
-7.529
-6.847
-6.218
-5.646
-5.137
-4.693
-4.319
-4.016
-3.786
-3.632
-3.553
-3.55
-3.622
-3.767
-3.983
-4.267
-4.615
-5.024
-5.488
-6.002
-6.562
-7.162
-7.796
-8.459
-9.144
-9.843
-10.548
-11.251
-11.945
-12.62
-13.268
-13.882
-14.455
-14.981
-15.454
-15.869
-16.221
-16.504
-16.716
-16.851
-16.908
-16.882
-16.772
-16.577
-16.297
-15.936
-15.495
-14.979
-14.391
-13.737
-13.026
-12.263
-11.455
-10.608
-9.725
-8.813
-7.88
-6.934
-5.978
-5.021
-4.073
-3.144
-2.247
-1.393
-0.589
0.159
0.847
1.472
2.027
2.513
2.932
3.282
3.56
3.756
3.846
3.819
3.681
3.44
3.116
2.743
2.343
1.951
1.613
1.358
1.204
1.157
1.196
1.308
1.502
1.792
2.219
2.821
3.592
4.515
5.552
6.602
7.568
8.335
8.736
8.65
8.003
6.742
4.882
2.469
-0.47
-3.901
-7.804
-12.208
-17.102
-22.413
-28.007
-33.605
-38.883
-43.509
-47.105
-49.245
-49.478
-47.528
-43.399
-37.442
-30.294
-22.519
-14.457
-6.442
0.988
7.555
13.52
19.865
28.407
40.668
57.247
78.366
104.265
134.727
168.339
201.896
230.329
248.754
253.595
242.013
211.423
159.441
85.396
-8.177
-115.751
-231.038
-348.291
-462.216
-567.418
-657.154
-725.384
-769.255
-788.752
-785.503
-761.787
-719.571
-661.164
-591.783
-517.754
-443.949
-374.107
-310.25
-253.244
-204.79
-166.827
-138.731
-118.317
-103.245
-90.767
-79.603
-69.694
-60.106
-49.383
-37.148
-23.773
-10.317
1.313
10.254
16.674
20.543
21.782
20.474
16.78
11.395
5.623
0.373
-3.927
-7.013
-8.872
-9.462
-8.636
-6.423
-3.034
1.303
6.371
11.999
18.121
24.651
31.444
38.315
45.022
51.363
57.218
62.523
67.254
71.39
74.904
77.806
80.147
82.011
83.485
84.635
85.506
86.151
86.644
87.074
87.55
88.148
88.915
89.884
91.074
92.501
94.181
96.113
98.272
100.639
103.195
105.929
108.838
111.906
115.111
118.43
121.836
125.308
128.828
132.376
135.93
139.47
142.978
146.435
149.829
153.141
156.349
159.432
162.367
165.133
167.71
170.077
172.212
174.098
175.718
177.058
178.105
178.849
179.278
179.386
179.166
178.614
177.729
176.508
174.953
173.067
170.856
168.325
165.485
162.343
158.911
155.202
151.228
147.006
142.552
137.882
133.014
127.968
122.763
117.42
111.96
106.404
100.773
95.089
89.373
83.645
77.927
72.238
66.597
61.022
55.531
50.14
44.864
39.718
34.716
29.87
25.192
20.691
16.376
12.256
8.336
4.622
1.12
-2.169
-5.24
-8.095
-10.732
-13.152
-15.357
-17.351
-19.138
-20.721
-22.108
-23.304
-24.316
-25.153
-25.822
-26.332
-26.692
-26.912
-27.001
-26.969
-26.827
-26.585
-26.253
-25.841
-25.36
-24.82
-24.229
-23.599
-22.937
-22.252
-21.555
-20.853
-20.155
-19.468
-18.799
-18.157
-17.547
-16.974
-16.444
-15.961
-15.529
-15.151
-14.83
-14.568
-14.367
-14.229
-14.154
-14.143
-14.195
-14.309
-14.483
-14.716
-15.003
-15.343
-15.73
-16.161
-16.631
-17.136
-17.671
-18.232
-18.812
-19.407
-20.009
-20.613
-21.21
-21.794
-22.358
-22.895
-23.399
-23.864
-24.286
-24.66
-24.981
-25.246
-25.451
-25.594
-25.669
-25.676
-25.613
-25.476
-25.267
-24.986
-24.637
-24.221
-23.743
-23.206
-22.617
-21.983
-21.31
-20.604
-19.87
-19.113
-18.337
-17.551
-16.761
-15.971
-15.187
-14.419
-13.674
-12.966
-12.304
-11.692
-11.134
-10.634
-10.195
-9.82
-9.509
-9.257
-9.067
-8.94
-8.885
-8.924
-9.067
-9.307
-9.637
-10.035
-10.468
-10.912
-11.335
-11.688
-11.945
-12.087
-12.106
-12.024
-11.849
-11.575
-11.188
-10.648
-9.918
-9.002
-7.914
-6.695
-5.449
-4.27
-3.274
-2.625
-2.441
-2.8
-3.755
-5.293
-7.367
-9.946
-12.993
-16.493
-20.479
-24.945
-29.827
-34.984
-40.138
-44.971
-49.153
-52.31
-54.019
-53.827
-51.463
-46.946
-40.641
-33.196
-25.185
-16.929
-8.761
-1.206
5.499
11.618
18.141
26.886
39.307
55.99
77.173
103.065
133.426
166.816
199.939
227.819
245.772
250.124
237.987
206.71
153.734
78.704
-15.428
-123.227
-238.483
-355.063
-467.516
-570.009
-655.238
-717.937
-756.115
-769.858
-761.117
-732.748
-686.97
-626.942
-558.744
-487.746
-417.837
-352.488
-293.216
-240.58
-196.211
-161.27
-134.408
-114.149
-98.849
-86.046
-74.848
-65.122
-55.75
-45.628
-34.716
-23.108
-11.612
-1.928
5.361
10.343
12.854
12.915
10.7
6.4
0.777
-4.931
-9.968
-13.938
-16.604
-17.971
-17.978
-16.518
-13.68
-9.705
-4.826
0.751
6.885
13.488
20.436
27.534
34.545
41.252
47.51
53.23
58.372
62.922
66.856
70.176
72.931
75.18
77.001
78.462
79.611
80.504
81.214
81.828
82.452
83.176
84.053
85.124
86.412
87.932
89.698
91.709
93.946
96.388
99.023
101.839
104.83
107.988
111.293
114.72
118.246
121.848
125.506
129.2
132.911
136.617
140.3
143.944
147.534
151.055
154.485
157.803
160.986
164.013
166.863
169.514
171.945
174.137
176.073
177.738
179.117
180.2
180.975
181.433
181.566
181.369
180.839
179.972
178.769
177.231
175.361
173.164
170.649
167.822
164.694
161.277
157.582
153.626
149.422
144.987
140.34
135.497
130.478
125.304
119.996
114.573
109.058
103.472
97.837
92.175
86.505
80.85
75.227
69.657
64.158
58.746
53.44
48.254
43.204
38.302
33.561
28.994
24.609
20.417
16.424
12.638
9.063
5.704
2.564
-0.356
-3.055
-5.533
-7.793
-9.836
-11.667
-13.29
-14.71
-15.934
-16.97
-17.825
-18.508
-19.029
-19.398
-19.625
-19.72
-19.696
-19.563
-19.332
-19.014
-18.622
-18.167
-17.659
-17.111
-16.533
-15.936
-15.33
-14.725
-14.13
-13.553
-13.002
-12.484
-12.006
-11.572
-11.189
-10.861
-10.592
-10.385
-10.243
-10.167
-10.158
-10.217
-10.341
-10.529
-10.78
-11.089
-11.454
-11.869
-12.329
-12.829
-13.365
-13.929
-14.517
-15.12
-15.729
-16.338
-16.937
-17.519
-18.075
-18.596
-19.076
-19.508
-19.886
-20.206
-20.462
-20.65
-20.764
-20.802
-20.761
-20.638
-20.43
-20.137
-19.759
-19.297
-18.756
-18.138
-17.448
-16.691
-15.873
-15.005
-14.094
-13.146
-12.167
-11.162
-10.141
-9.115
-8.09
-7.075
-6.078
-5.111
-4.186
-3.318
-2.517
-1.787
-1.133
-0.557
-0.063
0.34
0.655
0.884
1.027
1.079
1.029
0.849
0.537
0.102
-0.442
-1.065
-1.746
-2.469
-3.198
-3.886
-4.511
-5.052
-5.515
-5.927
-6.278
-6.551
-6.721
-6.728
-6.549
-6.198
-5.689
-5.075
-4.442
-3.858
-3.444
-3.361
-3.693
-4.508
-5.831
-7.609
-9.838
-12.506
-15.573
-19.049
-22.944
-27.224
-31.828
-36.59
-41.236
-45.491
-49.019
-51.454
-52.441
-51.537
-48.55
-43.607
-37.021
-29.43
-21.436
-13.274
-5.332
1.787
8.105
14.056
20.614
29.673
42.525
59.421
80.751
106.769
136.414
167.683
197.06
219.462
230.878
228.518
209.433
171.049
112.516
34.956
-57.791
-159.681
-265.274
-369.533
-466.676
-550.461
-615.471
-658.522
-679.35
-679.891
-662.323
-629.166
-583.972
-531.622
-477.532
-425.629
-377.912
-335.007
-297
-263.826
-235.087
-209.425
-184.785
-159.942
-134.594
-109.059
-84.169
-60.596
-38.797
-19.492
-3.511
8.748
17.227
22.18
24.2
23.822
21.535
17.911
13.444
8.572
3.717
-0.797
-4.69
-7.712
-9.721
-10.626
-10.357
-8.907
-6.3
-2.598
2.044
7.459
13.484
19.931
26.65
33.475
40.2
46.662
52.721
58.274
63.282
67.724
71.574
74.841
77.562
79.785
81.592
83.059
84.242
85.216
86.051
86.826
87.639
88.562
89.644
90.921
92.417
94.144
96.118
98.338
100.787
103.45
106.31
109.353
112.571
115.949
119.466
123.098
126.817
130.6
134.428
138.281
142.135
145.97
149.765
153.501
157.163
160.731
164.183
167.496
170.646
173.609
176.365
178.892
181.168
183.172
184.889
186.302
187.398
188.166
188.596
188.677
188.404
187.773
186.781
185.428
183.714
181.643
179.22
176.453
173.351
169.925
166.187
162.151
157.832
153.248
148.416
143.355
138.086
132.628
127.004
121.237
115.35
109.365
103.307
97.198
91.062
84.923
78.802
72.721
66.7
60.761
54.921
49.198
43.611
38.174
32.901
27.807
22.904
18.202
13.711
9.438
5.391
1.574
-2.009
-5.354
-8.461
-11.33
-13.962
-16.36
-18.526
-20.465
-22.183
-23.687
-24.983
-26.08
-26.987
-27.714
-28.27
-28.667
-28.915
-29.025
-29.01
-28.881
-28.649
-28.327
-27.927
-27.459
-26.936
-26.37
-25.77
-25.148
-24.513
-23.874
-23.242
-22.622
-22.023
-21.451
-20.913
-20.413
-19.956
-19.545
-19.184
-18.875
-18.619
-18.419
-18.272
-18.18
-18.141
-18.154
-18.216
-18.325
-18.477
-18.668
-18.893
-19.15
-19.431
-19.731
-20.045
-20.363
-20.681
-20.99
-21.284
-21.556
-21.798
-22.005
-22.171
-22.292
-22.363
-22.38
-22.34
-22.239
-22.076
-21.851
-21.561
-21.206
-20.787
-20.306
-19.764
-19.165
-18.512
-17.81
-17.06
-16.27
-15.446
-14.594
-13.721
-12.833
-11.937
-11.042
-10.159
-9.297
-8.467
-7.676
-6.933
-6.247
-5.628
-5.081
-4.61
-4.216
-3.9
-3.666
-3.517
-3.453
-3.475
-3.582
-3.769
-4.042
-4.405
-4.859
-5.407
-6.04
-6.744
-7.517
-8.354
-9.237
-10.154
-11.084
-11.994
-12.879
-13.724
-14.496
-15.185
-15.76
-16.187
-16.441
-16.499
-16.357
-16.047
-15.597
-15.039
-14.448
-13.885
-13.421
-13.166
-13.158
-13.444
-14.086
-15.076
-16.416
-18.126
-20.223
-22.73
-25.623
-28.754
-31.929
-34.95
-37.548
-39.509
-40.502
-40.026
-37.894
-34.126
-28.956
-23.021
-16.819
-10.505
-4.457
0.773
5.214
9.216
13.869
21.206
32.364
47.601
67.205
91.198
118.83
148.445
176.412
197.64
208.53
206.471
189.017
154.194
100.4
27.917
-59.548
-156.29
-257.449
-358.277
-453.875
-538.938
-607.159
-654.365
-679.989
-685.405
-672.419
-643.468
-601.298
-549.969
-495.532
-442.554
-393.301
-348.892
-309.451
-274.785
-244.891
-218.774
-194.108
-169.451
-144.357
-118.888
-93.957
-70.364
-48.487
-29.009
-12.817
-0.328
8.351
13.4
15.451
15.074
12.76
9.11
4.613
-0.302
-5.203
-9.763
-13.699
-16.756
-18.79
-19.705
-19.429
-17.95
-15.291
-11.509
-6.761
-1.213
4.968
11.585
18.489
25.511
32.44
39.111
45.381
51.141
56.349
60.982
65.011
68.442
71.308
73.653
75.557
77.095
78.321
79.308
80.128
80.86
81.604
82.434
83.399
84.539
85.875
87.424
89.2
91.206
93.423
95.839
98.439
101.211
104.149
107.24
110.465
113.802
117.226
120.716
124.255
127.823
131.402
134.973
138.516
142.017
145.462
148.835
152.115
155.281
158.311
161.183
163.879
166.378
168.658
170.7
172.488
174.008
175.245
176.19
176.83
177.156
177.162
176.842
176.192
175.211
173.898
172.255
170.284
167.992
165.386
162.475
159.267
155.775
152.012
147.991
143.728
139.24
134.543
129.656
124.598
119.39
114.052
108.605
103.071
97.47
91.824
86.155
80.483
74.828
69.21
63.649
58.161
52.765
47.477
42.313
37.287
32.413
27.703
23.169
18.822
14.669
10.718
6.977
3.45
0.142
-2.945
-5.808
-8.448
-10.864
-13.058
-15.034
-16.794
-18.343
-19.688
-20.834
-21.788
-22.559
-23.153
-23.582
-23.853
-23.976
-23.963
-23.823
-23.566
-23.205
-22.75
-22.212
-21.603
-20.932
-20.211
-19.449
-18.658
-17.847
-17.026
-16.203
-15.389
-14.591
-13.818
-13.076
-12.372
-11.712
-11.101
-10.543
-10.042
-9.601
-9.223
-8.909
-8.662
-8.483
-8.372
-8.329
-8.353
-8.442
-8.594
-8.805
-9.073
-9.393
-9.76
-10.169
-10.615
-11.092
-11.596
-12.121
-12.659
-13.205
-13.751
-14.291
-14.815
-15.316
-15.788
-16.221
-16.611
-16.953
-17.241
-17.471
-17.64
-17.742
-17.776
-17.737
-17.625
-17.436
-17.168
-16.821
-16.395
-15.894
-15.319
-14.675
-13.967
-13.2
-12.383
-11.524
-10.628
-9.703
-8.753
-7.784
-6.804
-5.819
-4.833
-3.855
-2.893
-1.959
-1.063
-0.218
0.567
1.286
1.934
2.508
3.002
3.417
3.758
4.023
4.207
4.301
4.286
4.153
3.902
3.54
3.079
2.547
1.979
1.414
0.906
0.49
0.185
-0.002
-0.082
-0.061
0.065
0.308
0.687
1.223
1.927
2.792
3.802
4.886
5.921
6.769
7.262
7.267
6.706
5.52
3.691
1.223
-1.859
-5.495
-9.625
-14.213
-19.247
-24.705
-30.52
-36.473
-42.222
-47.393
-51.56
-54.377
-55.493
-54.455
-51.07
-45.43
-37.9
-29.23
-20.094
-10.766
-1.667
6.581
14.03
21.123
28.88
39.27
53.588
72.094
95.227
123.274
155.082
188.428
219.479
242.786
254.103
250.536
229.072
187.068
123.664
40.115
-59.36
-168.141
-280.304
-390.631
-493.494
-582.811
-653.028
-700.508
-724.533
-727.038
-710.273
-676.479
-628.372
-569.836
-506.032
-441.822
-380.762
-324.447
-273.643
-229.151
-191.927
-162.421
-139.476
-121.041
-104.936
-90.067
-76.337
-63.654
-51.467
-38.905
-25.848
-13.116
-2.134
6.172
11.779
14.978
16.015
14.828
11.438
6.395
0.744
-4.574
-9.035
-12.418
-14.72
-15.862
-15.677
-14.143
-11.396
-7.64
-3.09
2.1
7.86
14.086
20.625
27.29
33.835
40.061
45.845
51.105
55.805
59.928
63.448
66.372
68.746
70.636
72.114
73.247
74.078
74.661
75.068
75.386
75.722
76.158
76.742
77.511
78.488
79.687
81.125
82.799
84.689
86.778
89.051
91.497
94.114
96.891
99.808
102.844
105.974
109.177
112.435
115.73
119.042
122.351
125.639
128.891
132.094
135.232
138.285
141.232
144.052
146.724
149.229
151.546
153.655
155.539
157.181
158.566
159.684
160.523
161.073
161.325
161.275
160.917
160.249
159.27
157.979
156.38
154.477
152.276
149.784
147.01
143.965
140.659
137.107
133.322
129.321
125.118
120.731
116.178
111.478
106.651
101.715
96.692
91.601
86.462
81.296
76.124
70.963
65.834
60.753
55.738
50.805
45.97
41.248
36.651
32.192
27.883
23.734
19.754
15.952
12.334
8.906
5.673
2.639
-0.196
-2.828
-5.258
-7.486
-9.515
-11.346
-12.984
-14.433
-15.697
-16.784
-17.699
-18.451
-19.046
-19.494
-19.803
-19.981
-20.04
-19.987
-19.832
-19.585
-19.255
-18.852
-18.385
-17.863
-17.296
-16.693
-16.062
-15.412
-14.75
-14.085
-13.423
-12.771
-12.136
-11.523
-10.938
-10.386
-9.872
-9.399
-8.973
-8.595
-8.27
-7.997
-7.78
-7.618
-7.513
-7.464
-7.47
-7.532
-7.648
-7.818
-8.039
-8.311
-8.63
-8.995
-9.4
-9.844
-10.323
-10.83
-11.362
-11.914
-12.481
-13.057
-13.64
-14.224
-14.803
-15.372
-15.927
-16.461
-16.968
-17.443
-17.879
-18.271
-18.615
-18.907
-19.144
-19.323
-19.442
-19.498
-19.49
-19.416
-19.276
-19.067
-18.788
-18.439
-18.02
-17.536
-16.989
-16.383
-15.722
-15.012
-14.264
-13.484
-12.678
-11.853
-11.013
-10.165
-9.315
-8.468
-7.626
-6.796
-5.984
-5.2
-4.455
-3.756
-3.111
-2.526
-2.005
-1.553
-1.173
-0.865
-0.62
-0.44
-0.329
-0.296
-0.359
-0.524
-0.787
-1.146
-1.591
-2.102
-2.65
-3.185
-3.642
-3.982
-4.185
-4.235
-4.144
-3.903
-3.497
-2.93
-2.193
-1.28
-0.2
1.056
2.481
4.01
5.529
6.881
7.87
8.364
8.277
7.521
6.055
3.84
0.863
-2.783
-7.003
-11.735
-16.945
-22.632
-28.746
-35.06
-41.239
-46.897
-51.591
-54.991
-56.723
-56.26
-53.349
-47.996
-40.502
-31.653
-22.167
-12.346
-2.646
6.291
14.493
22.356
30.899
42.151
57.476
77.225
101.907
131.835
165.874
201.78
235.619
261.802
275.964
275.026
255.715
215.102
151.983
67.445
-34.26
-146.583
-263.684
-380.274
-490.537
-587.895
-665.974
-720.794
-751.591
-759.541
-746.258
-713.593
-663.725
-600.917
-531.327
-459.842
-389.916
-324.502
-265.392
-214.236
-173.278
-142.721
-120.548
-105.133
-94.548
-86.392
-79.653
-73.311
-65.483
-55.565
-44.032
-31.229
-18.375
-7.14
1.973
8.639
12.3
13.138
11.494
7.685
2.685
-2.36
-6.825
-10.261
-12.395
-13.279
-12.865
-11.095
-8.121
-4.142
0.65
6.067
12.004
18.38
25.067
31.885
38.607
45.02
50.991
56.434
61.314
65.618
69.322
72.431
74.993
77.067
78.725
80.032
81.027
81.765
82.319
82.774
83.236
83.79
84.489
85.371
86.461
87.772
89.32
91.105
93.105
95.304
97.688
100.248
102.979
105.874
108.91
112.067
115.32
118.647
122.03
125.45
128.886
132.318
135.728
139.1
142.422
145.675
148.84
151.895
154.818
157.588
160.185
162.588
164.776
166.731
168.436
169.877
171.041
171.917
172.494
172.763
172.719
172.356
171.671
170.663
169.332
167.68
165.711
163.431
160.848
157.971
154.808
151.373
147.679
143.739
139.569
135.187
130.608
125.852
120.937
115.883
110.712
105.442
100.096
94.694
89.256
83.805
78.359
72.938
67.56
62.245
57.008
51.866
46.835
41.929
37.16
32.543
28.087
23.803
19.7
15.785
12.066
8.547
5.233
2.127
-0.768
-3.452
-5.925
-8.188
-10.242
-12.091
-13.739
-15.191
-16.451
-17.527
-18.426
-19.155
-19.723
-20.137
-20.408
-20.543
-20.554
-20.448
-20.237
-19.93
-19.536
-19.066
-18.529
-17.934
-17.29
-16.607
-15.893
-15.155
-14.401
-13.639
-12.876
-12.118
-11.372
-10.643
-9.937
-9.26
-8.615
-8.006
-7.438
-6.913
-6.433
-6.002
-5.62
-5.29
-5.013
-4.79
-4.622
-4.51
-4.452
-4.45
-4.501
-4.605
-4.76
-4.965
-5.217
-5.515
-5.857
-6.24
-6.664
-7.125
-7.621
-8.15
-8.708
-9.292
-9.897
-10.521
-11.159
-11.807
-12.46
-13.115
-13.768
-14.414
-15.05
-15.671
-16.274
-16.851
-17.399
-17.913
-18.385
-18.812
-19.188
-19.51
-19.774
-19.979
-20.121
-20.199
-20.21
-20.153
-20.027
-19.83
-19.56
-19.217
-18.802
-18.315
-17.759
-17.139
-16.457
-15.719
-14.931
-14.101
-13.236
-12.342
-11.424
-10.488
-9.539
-8.581
-7.622
-6.665
-5.717
-4.786
-3.882
-3.016
-2.198
-1.435
-0.733
-0.096
0.474
0.973
1.403
1.769
2.071
2.303
2.456
2.513
2.463
2.307
2.052
1.71
1.31
0.885
0.477
0.139
-0.095
-0.207
-0.189
-0.053
0.195
0.558
1.046
1.681
2.484
3.465
4.618
5.925
7.312
8.648
9.793
10.572
10.846
10.534
9.571
7.933
5.623
2.668
-0.874
-4.944
-9.511
-14.568
-20.094
-26.02
-32.119
-38.035
-43.381
-47.716
-50.681
-51.905
-50.909
-47.49
-41.751
-34.08
-25.262
-15.992
-6.539
2.665
10.963
18.42
25.508
33.307
43.91
58.674
77.868
101.97
131.286
164.604
199.595
232.225
256.761
268.755
265.133
242.667
198.552
131.821
43.849
-60.824
-175.416
-293.844
-410.628
-519.893
-615.076
-690.031
-741.154
-767.97
-771.864
-754.686
-718.456
-665.522
-600.334
-528.984
-456.171
-385.248
-319.055
-259.334
-207.771
-166.534
-135.695
-113.267
-97.658
-86.984
-78.932
-72.495
-66.591
-59.314
-50.044
-39.214
-27.164
-15.078
-4.567
3.905
10.033
13.246
13.689
11.696
7.583
2.335
-2.891
-7.482
-11.007
-13.197
-14.101
-13.677
-11.867
-8.839
-4.811
0.017
5.453
11.393
17.77
24.456
31.273
37.991
44.399
50.362
55.801
60.681
64.984
68.69
71.803
74.373
76.467
78.158
79.51
80.562
81.367
81.997
82.536
83.089
83.739
84.535
85.517
86.707
88.12
89.768
91.65
93.745
96.033
98.499
101.131
103.926
106.872
109.949
113.136
116.407
119.741
123.12
126.525
129.936
133.333
136.699
140.018
143.277
146.46
149.546
152.516
155.347
158.02
160.516
162.813
164.892
166.735
168.326
169.651
170.699
171.458
171.918
172.072
171.914
171.44
170.647
169.535
168.104
166.356
164.298
161.934
159.273
156.324
153.097
149.603
145.857
141.872
137.665
133.251
128.648
123.874
118.948
113.889
108.717
103.454
98.118
92.731
87.313
81.885
76.466
71.075
65.731
60.449
55.249
50.144
45.151
40.282
35.55
30.968
26.545
22.292
18.216
14.325
10.625
7.121
3.816
0.714
-2.185
-4.879
-7.368
-9.656
-11.742
-13.632
-15.328
-16.835
-18.16
-19.308
-20.286
-21.101
-21.762
-22.276
-22.652
-22.9
-23.027
-23.042
-22.956
-22.775
-22.51
-22.169
-21.761
-21.293
-20.775
-20.213
-19.615
-18.988
-18.34
-17.676
-17.003
-16.326
-15.649
-14.978
-14.318
-13.671
-13.042
-12.434
-11.85
-11.293
-10.765
-10.269
-9.807
-9.379
-8.987
-8.632
-8.315
-8.037
-7.798
-7.599
-7.44
-7.322
-7.247
-7.212
-7.22
-7.268
-7.357
-7.485
-7.653
-7.859
-8.103
-8.383
-8.699
-9.05
-9.434
-9.852
-10.3
-10.776
-11.28
-11.807
-12.354
-12.92
-13.5
-14.089
-14.686
-15.286
-15.887
-16.483
-17.072
-17.648
-18.206
-18.741
-19.248
-19.719
-20.15
-20.535
-20.87
-21.151
-21.375
-21.538
-21.637
-21.67
-21.635
-21.529
-21.351
-21.099
-20.771
-20.366
-19.888
-19.337
-18.717
-18.032
-17.287
-16.487
-15.642
-14.758
-13.841
-12.897
-11.932
-10.951
-9.96
-8.966
-7.973
-6.988
-6.02
-5.08
-4.179
-3.327
-2.534
-1.805
-1.144
-0.554
-0.04
0.4
0.77
1.07
1.295
1.435
1.474
1.401
1.218
0.932
0.555
0.115
-0.355
-0.816
-1.216
-1.52
-1.712
-1.782
-1.743
-1.597
-1.34
-0.959
-0.433
0.262
1.135
2.179
3.381
4.669
5.923
7.009
7.76
8.043
7.781
6.91
5.405
3.264
0.504
-2.83
-6.684
-11.029
-15.859
-21.151
-26.843
-32.721
-38.446
-43.656
-47.929
-50.912
-52.248
-51.463
-48.335
-42.935
-35.595
-27.035
-17.927
-8.559
0.614
8.894
16.277
23.174
30.597
40.587
54.532
72.796
95.991
124.594
157.592
192.845
226.428
252.625
266.946
266.177
246.892
206.017
142.182
56.344
-47.209
-161.805
-281.447
-400.628
-513.394
-613.013
-692.86
-748.79
-779.957
-787.468
-772.936
-738.266
-685.681
-619.582
-546.387
-471.185
-397.622
-328.849
-266.808
-213.286
-170.612
-138.966
-116.214
-100.609
-90.122
-82.234
-75.85
-69.872
-62.328
-52.577
-41.118
-28.332
-15.471
-4.255
4.81
11.409
14.948
15.587
13.678
9.539
4.182
-1.199
-5.968
-9.672
-12.026
-13.074
-12.765
-11.032
-8.042
-4.012
0.854
6.359
12.392
18.878
25.683
32.621
39.458
45.978
52.041
57.565
62.51
66.859
70.588
73.699
76.244
78.285
79.898
81.149
82.079
82.746
83.223
83.6
83.985
84.464
85.091
85.906
86.934
88.19
89.688
91.429
93.39
95.554
97.908
100.439
103.146
106.019
109.037
112.178
115.419
118.737
122.115
125.535
128.975
132.417
135.842
139.237
142.588
145.878
149.088
152.197
155.183
158.024
160.701
163.193
165.479
167.54
169.359
170.921
172.215
173.228
173.948
174.368
174.48
174.28
173.763
172.927
171.773
170.302
168.517
166.423
164.028
161.339
158.366
155.12
151.614
147.86
143.874
139.672
135.269
130.683
125.934
121.04
116.021
110.897
105.689
100.416
95.1
89.76
84.418
79.091
73.799
68.559
63.389
58.305
53.321
48.454
43.715
39.117
34.672
30.389
26.279
22.348
18.604
15.051
11.694
8.537
5.582
2.829
0.279
-2.07
-4.218
-6.17
-7.929
-9.5
-10.888
-12.1
-13.143
-14.025
-14.754
-15.338
-15.787
-16.109
-16.315
-16.414
-16.415
-16.328
-16.163
-15.929
-15.636
-15.292
-14.907
-14.488
-14.044
-13.581
-13.108
-12.63
-12.155
-11.686
-11.231
-10.792
-10.375
-9.984
-9.621
-9.289
-8.991
-8.727
-8.5
-8.31
-8.157
-8.041
-7.963
-7.921
-7.916
-7.945
-8.007
-8.103
-8.23
-8.386
-8.57
-8.781
-9.016
-9.274
-9.553
-9.853
-10.172
-10.509
-10.863
-11.234
-11.62
-12.021
-12.436
-12.863
-13.301
-13.751
-14.211
-14.681
-15.159
-15.646
-16.141
-16.644
-17.155
-17.672
-18.194
-18.721
-19.251
-19.782
-20.312
-20.839
-21.361
-21.875
-22.38
-22.873
-23.352
-23.814
-24.256
-24.674
-25.065
-25.423
-25.745
-26.026
-26.263
-26.451
-26.59
-26.676
-26.707
-26.681
-26.597
-26.452
-26.246
-25.978
-25.645
-25.247
-24.784
-24.259
-23.673
-23.028
-22.33
-21.582
-20.79
-19.963
-19.106
-18.226
-17.327
-16.414
-15.493
-14.568
-13.645
-12.726
-11.818
-10.928
-10.064
-9.237
-8.454
-7.722
-7.048
-6.434
-5.883
-5.397
-4.976
-4.616
-4.317
-4.084
-3.923
-3.853
-3.878
-3.999
-4.208
-4.491
-4.82
-5.16
-5.469
-5.7
-5.821
-5.813
-5.666
-5.387
-4.972
-4.426
-3.75
-2.925
-1.932
-0.772
0.546
1.988
3.459
4.84
5.998
6.77
7.042
6.725
5.747
4.083
1.73
-1.269
-4.832
-8.902
-13.448
-18.441
-23.843
-29.545
-35.269
-40.69
-45.451
-49.133
-51.416
-51.925
-50.183
-46.015
-39.547
-31.201
-21.793
-12.014
-2.123
7.407
15.883
23.304
30.083
37.333
47.163
60.933
78.926
101.606
129.303
160.855
193.97
224.668
247.274
257.344
251.8
227.447
181.512
113.132
23.807
-81.915
-197.238
-316.001
-432.632
-541.129
-634.861
-707.774
-756.421
-780.446
-781.319
-761.012
-721.662
-665.797
-598.077
-524.666
-450.238
-378.085
-310.985
-250.623
-198.694
-157.348
-126.516
-104.133
-88.58
-77.958
-70.05
-63.9
-58.405
-51.641
-42.981
-32.835
-21.551
-10.313
-0.639
7.067
12.557
15.314
15.442
13.238
9.02
3.76
-1.389
-5.815
-9.121
-11.067
-11.7
-10.982
-8.855
-5.487
-1.128
3.998
9.68
15.794
22.288
29.048
35.896
42.612
48.984
54.879
60.233
65.023
69.227
72.818
75.801
78.224
80.163
81.701
82.903
83.815
84.486
84.987
85.403
85.838
86.371
87.051
87.912
88.974
90.253
91.765
93.509
95.464
97.611
99.935
102.426
105.081
107.889
110.829
113.88
117.018
120.224
123.482
126.772
130.076
133.377
136.656
139.9
143.097
146.23
149.279
152.226
155.05
157.73
160.248
162.584
164.719
166.635
168.316
169.749
170.922
171.824
172.445
172.775
172.81
172.543
171.972
171.095
169.911
168.421
166.63
164.542
162.164
159.504
156.569
153.371
149.921
146.233
142.32
138.197
133.88
129.386
124.732
119.938
115.021
110.002
104.898
99.731
94.52
89.284
84.043
78.814
73.615
68.464
63.377
58.37
53.459
48.657
43.977
39.432
35.033
30.791
26.715
22.812
19.091
15.557
12.215
9.069
6.122
3.375
0.83
-1.515
-3.66
-5.607
-7.361
-8.926
-10.305
-11.506
-12.535
-13.398
-14.104
-14.66
-15.075
-15.358
-15.517
-15.563
-15.505
-15.352
-15.113
-14.798
-14.417
-13.978
-13.491
-12.964
-12.405
-11.822
-11.224
-10.618
-10.01
-9.407
-8.815
-8.24
-7.687
-7.161
-6.664
-6.202
-5.776
-5.39
-5.044
-4.742
-4.483
-4.269
-4.101
-3.978
-3.9
-3.868
-3.881
-3.938
-4.037
-4.179
-4.36
-4.58
-4.839
-5.133
-5.464
-5.828
-6.225
-6.653
-7.111
-7.598
-8.11
-8.647
-9.206
-9.786
-10.385
-11.002
-11.634
-12.281
-12.94
-13.612
-14.293
-14.983
-15.678
-16.377
-17.077
-17.776
-18.471
-19.159
-19.837
-20.502
-21.152
-21.784
-22.394
-22.979
-23.535
-24.058
-24.542
-24.984
-25.379
-25.721
-26.009
-26.238
-26.406
-26.511
-26.552
-26.525
-26.43
-26.265
-26.029
-25.722
-25.343
-24.89
-24.366
-23.774
-23.115
-22.394
-21.616
-20.785
-19.908
-18.993
-18.046
-17.075
-16.083
-15.077
-14.061
-13.044
-12.032
-11.028
-10.041
-9.079
-8.15
-7.267
-6.439
-5.672
-4.969
-4.335
-3.771
-3.283
-2.869
-2.525
-2.251
-2.052
-1.933
-1.919
-2.018
-2.225
-2.53
-2.913
-3.342
-3.794
-4.232
-4.607
-4.891
-5.061
-5.112
-5.066
-4.929
-4.695
-4.355
-3.867
-3.197
-2.357
-1.355
-0.232
0.912
1.987
2.87
3.39
3.427
2.902
1.761
0.022
-2.271
-5.09
-8.383
-12.131
-16.351
-21.021
-26.083
-31.393
-36.685
-41.658
-45.958
-49.2
-50.949
-50.726
-48.301
-43.731
-37.368
-29.87
-21.802
-13.426
-5.165
2.373
9.152
15.539
22.635
32.418
46.017
63.643
85.589
112.027
142.282
174.712
205.631
229.693
243.033
242.873
226.557
191.806
136.745
61.416
-30.549
-133.085
-240.813
-348.708
-451.742
-544.46
-620.419
-674.956
-706.702
-716.789
-707.251
-680.32
-638.296
-584.734
-524.915
-463.752
-405.127
-351.103
-302.101
-258.635
-221.392
-190.318
-164.698
-143.082
-123.218
-104.056
-85.893
-68.814
-52.931
-38.231
-24.107
-10.854
0.16
8.328
13.662
16.308
16.936
15.927
13.037
8.618
3.584
-1.411
-5.714
-8.92
-11.105
-12.203
-11.999
-10.47
-7.675
-3.724
1.118
6.661
12.807
19.394
26.295
33.346
40.304
46.989
53.264
59.016
64.212
68.829
72.836
76.24
79.074
81.381
83.245
84.741
85.921
86.856
87.611
88.266
88.93
89.682
90.575
91.653
92.935
94.436
96.174
98.15
100.347
102.752
105.35
108.127
111.079
114.195
117.455
120.837
124.316
127.868
131.475
135.119
138.779
142.436
146.071
149.666
153.21
156.683
160.065
163.335
166.47
169.446
172.244
174.843
177.219
179.354
181.23
182.831
184.144
185.157
185.857
186.235
186.284
185.997
185.371
184.403
183.092
181.44
179.45
177.127
174.479
171.514
168.241
164.672
160.821
156.7
152.327
147.717
142.887
137.857
132.645
127.274
121.763
116.134
110.409
104.609
98.758
92.876
86.986
81.108
75.263
69.469
63.745
58.111
52.582
47.174
41.903
36.783
31.826
27.045
22.45
18.05
13.852
9.865
6.094
2.543
-0.785
-3.887
-6.763
-9.413
-11.837
-14.038
-16.02
-17.787
-19.344
-20.698
-21.854
-22.822
-23.61
-24.226
-24.68
-24.982
-25.143
-25.171
-25.079
-24.876
-24.574
-24.183
-23.713
-23.176
-22.582
-21.94
-21.261
-20.554
-19.829
-19.095
-18.359
-17.631
-16.917
-16.224
-15.56
-14.93
-14.34
-13.797
-13.303
-12.864
-12.482
-12.162
-11.904
-11.71
-11.581
-11.518
-11.519
-11.584
-11.713
-11.904
-12.153
-12.46
-12.822
-13.235
-13.697
-14.202
-14.746
-15.326
-15.935
-16.569
-17.223
-17.89
-18.565
-19.242
-19.916
-20.581
-21.23
-21.857
-22.455
-23.017
-23.537
-24.008
-24.424
-24.78
-25.072
-25.295
-25.447
-25.525
-25.527
-25.452
-25.297
-25.063
-24.749
-24.355
-23.883
-23.333
-22.709
-22.015
-21.256
-20.436
-19.561
-18.637
-17.673
-16.677
-15.658
-14.62
-13.569
-12.515
-11.468
-10.435
-9.426
-8.446
-7.504
-6.61
-5.776
-5.012
-4.322
-3.708
-3.171
-2.716
-2.345
-2.061
-1.862
-1.742
-1.7
-1.741
-1.882
-2.135
-2.503
-2.971
-3.514
-4.116
-4.767
-5.443
-6.111
-6.736
-7.283
-7.746
-8.136
-8.456
-8.695
-8.836
-8.827
-8.63
-8.233
-7.653
-6.936
-6.139
-5.314
-4.549
-3.967
-3.693
-3.837
-4.445
-5.502
-7.001
-8.923
-11.243
-13.981
-17.162
-20.778
-24.773
-28.99
-33.207
-37.193
-40.653
-43.277
-44.646
-44.251
-41.885
-37.634
-31.807
-25.059
-17.93
-10.603
-3.477
2.85
8.374
13.451
19.186
27.632
39.951
56.351
77.09
102.2
130.923
161.637
190.67
212.79
224.285
222.444
204.77
169.275
114.311
40.113
-49.575
-148.973
-253.037
-356.782
-455.351
-543.444
-614.729
-665.115
-693.728
-701.561
-690.497
-663.033
-621.516
-569.854
-513.747
-457.247
-403.356
-354.02
-309.442
-269.68
-235.266
-205.383
-178.45
-153.917
-130.486
-107.345
-85.252
-64.564
-45.396
-28.455
-13.924
-1.462
8.199
14.671
18.398
19.526
18.566
16.275
12.783
8.185
3.178
-1.712
-6.067
-9.391
-11.624
-12.785
-12.713
-11.353
-8.757
-4.99
-0.251
5.229
11.319
17.851
24.677
31.646
38.533
45.152
51.364
57.055
62.185
66.733
70.67
74.001
76.76
78.992
80.779
82.198
83.305
84.172
84.87
85.475
86.091
86.798
87.646
88.678
89.916
91.372
93.063
94.99
97.136
99.486
102.025
104.738
107.62
110.658
113.831
117.118
120.492
123.929
127.411
130.92
134.434
137.934
141.4
144.817
148.17
151.442
154.614
157.662
160.566
163.303
165.854
168.199
170.316
172.186
173.795
175.127
176.172
176.917
177.352
177.47
177.265
176.732
175.87
174.677
173.154
171.304
169.133
166.648
163.856
160.769
157.397
153.752
149.849
145.704
141.333
136.753
131.982
127.039
121.945
116.72
111.385
105.961
100.469
94.931
89.368
83.801
78.249
72.734
67.272
61.883
56.583
51.388
46.314
41.374
36.582
31.95
27.487
23.204
19.109
15.209
11.509
8.015
4.729
1.655
-1.207
-3.857
-6.296
-8.525
-10.547
-12.367
-13.989
-15.418
-16.661
-17.724
-18.615
-19.341
-19.911
-20.334
-20.618
-20.774
-20.809
-20.735
-20.56
-20.293
-19.944
-19.523
-19.037
-18.497
-17.91
-17.285
-16.629
-15.951
-15.257
-14.554
-13.848
-13.145
-12.451
-11.769
-11.105
-10.462
-9.844
-9.254
-8.696
-8.172
-7.684
-7.234
-6.824
-6.455
-6.129
-5.846
-5.606
-5.41
-5.258
-5.151
-5.089
-5.072
-5.098
-5.17
-5.284
-5.442
-5.641
-5.88
-6.158
-6.473
-6.825
-7.211
-7.63
-8.081
-8.562
-9.072
-9.609
-10.171
-10.755
-11.359
-11.979
-12.614
-13.259
-13.911
-14.566
-15.222
-15.875
-16.521
-17.157
-17.78
-18.383
-18.963
-19.515
-20.032
-20.512
-20.947
-21.336
-21.673
-21.956
-22.183
-22.352
-22.46
-22.506
-22.488
-22.405
-22.256
-22.04
-21.756
-21.405
-20.99
-20.514
-19.979
-19.39
-18.753
-18.072
-17.356
-16.612
-15.845
-15.059
-14.259
-13.452
-12.642
-11.836
-11.039
-10.256
-9.495
-8.764
-8.076
-7.438
-6.856
-6.332
-5.87
-5.47
-5.137
-4.87
-4.663
-4.515
-4.429
-4.413
-4.488
-4.664
-4.933
-5.289
-5.71
-6.163
-6.626
-7.063
-7.423
-7.678
-7.808
-7.805
-7.691
-7.475
-7.149
-6.704
-6.099
-5.3
-4.314
-3.153
-1.855
-0.52
0.76
1.862
2.614
2.891
2.614
1.722
0.231
-1.818
-4.399
-7.469
-11.008
-15.041
-19.553
-24.486
-29.703
-34.937
-39.884
-44.189
-47.461
-49.254
-49.079
-46.692
-42.143
-35.785
-28.281
-20.195
-11.789
-3.492
4.074
10.874
17.296
24.48
34.475
48.474
66.706
89.515
117.142
148.89
183.086
215.929
241.81
256.712
257.746
242.06
207.261
151.373
74.283
-20.213
-125.734
-236.965
-348.727
-455.82
-552.983
-633.351
-691.799
-727.195
-740.5
-733.026
-706.99
-664.337
-607.674
-542.967
-475.616
-409.033
-346.249
-288.965
-237.889
-194.767
-160.994
-135.127
-115.58
-100.771
-88.265
-77.202
-67.488
-57.996
-47.615
-36.335
-24.277
-12.276
-2.051
5.824
11.43
14.605
15.376
13.872
10.247
5.216
-0.053
-4.785
-8.556
-11.124
-12.477
-12.547
-11.234
-8.597
-4.845
-0.215
5.089
10.917
17.171
23.748
30.476
37.136
43.534
49.516
54.976
59.878
64.199
67.912
71.02
73.554
75.561
77.119
78.304
79.166
79.765
80.168
80.455
80.73
81.078
81.555
82.202
83.044
84.093
85.366
86.865
88.575
90.482
92.57
94.828
97.252
99.833
102.553
105.39
108.322
111.326
114.385
117.484
120.602
123.724
126.831
129.91
132.949
135.934
138.844
141.661
144.365
146.935
149.352
151.598
153.652
155.498
157.119
158.502
159.635
160.507
161.108
161.429
161.463
161.207
160.655
159.807
158.662
157.221
155.487
153.465
151.162
148.585
145.744
142.648
139.308
135.738
131.951
127.963
123.787
119.442
114.943
110.31
105.56
100.712
95.786
90.8
85.773
80.725
75.674
70.637
65.632
60.676
55.784
50.971
46.252
41.641
37.149
32.788
28.57
24.504
20.599
16.861
13.297
9.914
6.714
3.702
0.88
-1.751
-4.19
-6.439
-8.499
-10.371
-12.06
-13.569
-14.904
-16.069
-17.071
-17.916
-18.611
-19.164
-19.583
-19.875
-20.049
-20.112
-20.075
-19.945
-19.731
-19.441
-19.084
-18.667
-18.199
-17.688
-17.14
-16.564
-15.966
-15.352
-14.728
-14.101
-13.476
-12.857
-12.25
-11.657
-11.083
-10.531
-10.003
-9.503
-9.032
-8.593
-8.186
-7.815
-7.479
-7.18
-6.92
-6.697
-6.513
-6.368
-6.262
-6.194
-6.166
-6.177
-6.226
-6.315
-6.443
-6.609
-6.813
-7.054
-7.33
-7.642
-7.988
-8.366
-8.777
-9.217
-9.688
-10.187
-10.714
-11.267
-11.844
-12.444
-13.064
-13.702
-14.354
-15.018
-15.69
-16.367
-17.045
-17.721
-18.392
-19.053
-19.701
-20.332
-20.939
-21.518
-22.064
-22.571
-23.033
-23.446
-23.806
-24.109
-24.353
-24.536
-24.654
-24.705
-24.688
-24.601
-24.444
-24.213
-23.909
-23.532
-23.083
-22.565
-21.982
-21.338
-20.638
-19.888
-19.096
-18.27
-17.415
-16.538
-15.644
-14.74
-13.83
-12.921
-12.019
-11.13
-10.263
-9.428
-8.635
-7.896
-7.218
-6.605
-6.062
-5.59
-5.193
-4.87
-4.614
-4.427
-4.312
-4.278
-4.341
-4.512
-4.787
-5.158
-5.612
-6.122
-6.652
-7.162
-7.599
-7.929
-8.134
-8.206
-8.156
-7.987
-7.692
-7.259
-6.666
-5.891
-4.924
-3.772
-2.451
-1.036
0.349
1.564
2.439
2.84
2.689
1.924
0.521
-1.518
-4.173
-7.391
-11.117
-15.321
-19.994
-25.116
-30.617
-36.273
-41.735
-46.625
-50.513
-53.046
-53.868
-52.509
-48.771
-42.75
-34.814
-25.719
-16.145
-6.365
3.185
11.838
19.625
26.985
34.946
45.534
60.079
78.855
102.365
130.966
163.529
197.824
229.922
254.205
266.29
263.121
241.465
198.471
133.07
46.504
-56.829
-170.273
-287.837
-404.08
-513.15
-608.477
-683.838
-735.518
-762.935
-767.374
-750.62
-714.67
-661.855
-596.615
-525.089
-452.037
-380.857
-314.431
-254.52
-202.802
-161.432
-130.482
-107.938
-92.184
-81.336
-73.09
-66.451
-60.365
-52.951
-43.599
-32.761
-20.782
-8.833
1.497
9.758
15.67
18.676
18.933
16.783
12.548
7.208
1.914
-2.723
-6.275
-8.472
-9.363
-8.906
-7.044
-3.947
0.163
5.085
10.621
16.662
23.135
29.91
36.804
43.59
50.054
56.061
61.533
66.431
70.741
74.439
77.53
80.066
82.113
83.745
85.028
86.001
86.72
87.257
87.696
88.14
88.673
89.345
90.192
91.238
92.497
93.982
95.692
97.606
99.704
101.973
104.402
106.987
109.718
112.575
115.538
118.582
121.688
124.839
128.017
131.203
134.379
137.527
140.634
143.688
146.673
149.569
152.359
155.02
157.534
159.882
162.045
164.003
165.739
167.238
168.488
169.475
170.191
170.626
170.771
170.621
170.173
169.423
168.37
167.015
165.36
163.408
161.166
158.641
155.841
152.775
149.455
145.893
142.102
138.097
133.893
129.507
124.955
120.255
115.427
110.489
105.459
100.358
95.205
90.019
84.82
79.626
74.456
69.325
64.251
59.25
54.337
49.525
44.829
40.26
35.831
31.55
27.428
23.473
19.692
16.091
12.675
9.448
6.413
3.571
0.924
-1.528
-3.787
-5.854
-7.733
-9.426
-10.938
-12.275
-13.442
-14.445
-15.292
-15.99
-16.547
-16.97
-17.268
-17.449
-17.522
-17.495
-17.377
-17.177
-16.901
-16.56
-16.161
-15.712
-15.219
-14.692
-14.135
-13.556
-12.961
-12.356
-11.745
-11.134
-10.527
-9.93
-9.344
-8.774
-8.224
-7.694
-7.189
-6.708
-6.255
-5.829
-5.433
-5.065
-4.729
-4.422
-4.147
-3.902
-3.689
-3.506
-3.355
-3.233
-3.142
-3.08
-3.048
-3.044
-3.069
-3.123
-3.205
-3.317
-3.457
-3.626
-3.823
-4.048
-4.3
-4.579
-4.884
-5.215
-5.57
-5.949
-6.352
-6.778
-7.226
-7.696
-8.186
-8.694
-9.219
-9.758
-10.308
-10.868
-11.433
-12.001
-12.569
-13.133
-13.692
-14.241
-14.777
-15.295
-15.791
-16.26
-16.697
-17.097
-17.454
-17.763
-18.023
-18.228
-18.377
-18.468
-18.497
-18.463
-18.365
-18.201
-17.969
-17.669
-17.299
-16.859
-16.352
-15.78
-15.147
-14.456
-13.713
-12.924
-12.097
-11.239
-10.355
-9.45
-8.531
-7.601
-6.668
-5.736
-4.809
-3.895
-3.001
-2.136
-1.312
-0.538
0.178
0.834
1.424
1.946
2.399
2.783
3.105
3.363
3.554
3.668
3.689
3.607
3.424
3.147
2.791
2.383
1.957
1.554
1.226
1.007
0.914
0.954
1.114
1.389
1.785
2.312
2.991
3.844
4.879
6.089
7.455
8.901
10.299
11.507
12.352
12.699
12.469
11.599
10.067
7.878
5.053
1.647
-2.284
-6.709
-11.62
-16.998
-22.771
-28.716
-34.479
-39.68
-43.882
-46.731
-47.865
-46.817
-43.391
-37.689
-30.089
-21.357
-12.182
-2.841
6.225
14.355
21.594
28.398
35.819
45.912
60.027
78.462
101.737
130.212
162.735
197.032
229.121
253.332
265.228
261.705
239.49
195.715
129.365
41.784
-62.524
-176.798
-294.936
-411.417
-520.312
-615.011
-689.37
-739.808
-765.874
-769.005
-751.116
-714.29
-660.958
-595.622
-524.353
-451.817
-381.318
-315.615
-256.385
-205.256
-164.315
-133.587
-111.097
-95.273
-84.268
-75.844
-69.034
-62.791
-55.263
-45.851
-34.985
-22.999
-11.051
-0.704
7.598
13.57
16.661
17.022
14.984
10.863
5.634
0.436
-4.126
-7.625
-9.797
-10.69
-10.263
-8.459
-5.447
-1.446
3.344
8.729
14.605
20.904
27.497
34.209
40.812
47.095
52.925
58.226
62.962
67.117
70.669
73.626
76.04
77.977
79.514
80.714
81.619
82.282
82.776
83.184
83.609
84.136
84.814
85.681
86.759
88.065
89.61
91.395
93.397
95.597
97.981
100.538
103.263
106.146
109.167
112.304
115.533
118.834
122.188
125.577
128.98
132.379
135.756
139.094
142.382
145.603
148.737
151.763
154.66
157.408
159.987
162.377
164.558
166.512
168.223
169.676
170.86
171.764
172.378
172.692
172.702
172.402
171.79
170.863
169.623
168.07
166.209
164.046
161.587
158.842
155.818
152.529
148.985
145.202
141.194
136.976
132.566
127.98
123.238
118.358
113.36
108.264
103.089
97.856
92.585
87.297
82.009
76.742
71.512
66.338
61.237
56.223
51.312
46.518
41.854
37.332
32.963
28.757
24.723
20.869
17.201
13.724
10.444
7.362
4.482
1.804
-0.671
-2.945
-5.02
-6.898
-8.583
-10.08
-11.394
-12.531
-13.498
-14.303
-14.954
-15.458
-15.825
-16.063
-16.181
-16.19
-16.097
-15.913
-15.647
-15.307
-14.903
-14.444
-13.938
-13.394
-12.819
-12.22
-11.607
-10.984
-10.358
-9.735
-9.12
-8.519
-7.935
-7.373
-6.837
-6.329
-5.852
-5.408
-5
-4.629
-4.295
-3.999
-3.741
-3.522
-3.341
-3.198
-3.092
-3.023
-2.99
-2.992
-3.028
-3.098
-3.2
-3.334
-3.498
-3.692
-3.914
-4.164
-4.442
-4.747
-5.078
-5.435
-5.819
-6.23
-6.665
-7.126
-7.611
-8.12
-8.652
-9.206
-9.783
-10.381
-11.001
-11.641
-12.302
-12.983
-13.683
-14.4
-15.132
-15.877
-16.634
-17.399
-18.17
-18.942
-19.714
-20.483
-21.245
-21.997
-22.735
-23.455
-24.152
-24.821
-25.457
-26.054
-26.606
-27.11
-27.56
-27.954
-28.289
-28.562
-28.771
-28.912
-28.984
-28.986
-28.915
-28.769
-28.547
-28.249
-27.876
-27.431
-26.916
-26.335
-25.693
-24.995
-24.249
-23.462
-22.639
-21.785
-20.906
-20.005
-19.09
-18.165
-17.235
-16.306
-15.386
-14.486
-13.616
-12.786
-12.003
-11.272
-10.597
-9.98
-9.425
-8.93
-8.49
-8.106
-7.783
-7.531
-7.367
-7.303
-7.336
-7.459
-7.659
-7.911
-8.178
-8.421
-8.588
-8.645
-8.578
-8.379
-8.063
-7.635
-7.089
-6.416
-5.595
-4.605
-3.439
-2.104
-0.62
0.935
2.429
3.718
4.626
5.018
4.816
3.955
2.414
0.198
-2.669
-6.129
-10.123
-14.623
-19.622
-25.096
-30.971
-37.014
-42.863
-48.129
-52.37
-55.224
-56.327
-55.209
-51.679
-45.858
-38.147
-29.33
-20.102
-10.728
-1.638
6.5
13.729
20.525
27.961
38.099
52.281
70.755
93.991
122.334
154.61
188.512
220.039
243.492
254.436
249.791
226.318
181.202
113.51
24.675
-80.711
-195.812
-314.463
-431.065
-539.623
-633.522
-706.656
-755.535
-779.813
-780.955
-760.93
-721.889
-666.313
-598.814
-525.549
-451.191
-379.065
-312.007
-251.735
-199.962
-158.876
-128.443
-106.621
-91.791
-82.004
-74.961
-69.647
-64.915
-58.801
-50.642
-40.824
-29.683
-18.421
-8.606
-0.679
5.085
8.144
8.583
6.682
2.742
-2.27
-7.197
-11.421
-14.55
-16.347
-16.863
-16.067
-13.901
-10.534
-6.218
-1.173
4.391
10.357
16.68
23.255
29.908
36.428
42.606
48.313
53.49
58.116
62.17
65.628
68.496
70.822
72.681
74.156
75.314
76.195
76.852
77.35
77.776
78.229
78.791
79.509
80.416
81.533
82.876
84.461
86.287
88.333
90.581
93.015
95.624
98.404
101.345
104.424
107.621
110.91
114.272
117.689
121.142
124.61
128.076
131.521
134.929
138.288
141.581
144.787
147.886
150.857
153.679
156.332
158.798
161.054
163.084
164.872
166.404
167.666
168.65
169.342
169.737
169.827
169.608
169.076
168.231
167.073
165.603
163.826
161.748
159.377
156.72
153.786
150.589
147.139
143.451
139.54
135.421
131.111
126.626
121.986
117.21
112.316
107.324
102.255
97.127
91.961
86.777
81.594
76.43
71.303
66.23
61.227
56.311
51.496
46.796
42.223
37.79
33.507
29.383
25.429
21.65
18.053
14.644
11.426
8.404
5.578
2.95
0.519
-1.715
-3.753
-5.6
-7.258
-8.733
-10.029
-11.153
-12.111
-12.91
-13.558
-14.064
-14.436
-14.683
-14.814
-14.839
-14.765
-14.604
-14.363
-14.052
-13.68
-13.257
-12.789
-12.286
-11.755
-11.204
-10.64
-10.069
-9.499
-8.933
-8.379
-7.84
-7.321
-6.825
-6.357
-5.92
-5.515
-5.145
-4.812
-4.517
-4.261
-4.044
-3.866
-3.727
-3.626
-3.563
-3.536
-3.544
-3.586
-3.66
-3.765
-3.9
-4.062
-4.25
-4.463
-4.698
-4.954
-5.229
-5.523
-5.834
-6.161
-6.504
-6.861
-7.233
-7.618
-8.015
-8.424
-8.844
-9.274
-9.714
-10.162
-10.618
-11.082
-11.553
-12.031
-12.517
-13.008
-13.505
-14.006
-14.51
-15.016
-15.522
-16.026
-16.527
-17.021
-17.508
-17.986
-18.452
-18.904
-19.34
-19.755
-20.147
-20.51
-20.842
-21.137
-21.391
-21.601
-21.765
-21.879
-21.942
-21.952
-21.907
-21.804
-21.644
-21.424
-21.144
-20.802
-20.398
-19.932
-19.407
-18.826
-18.19
-17.505
-16.775
-16.005
-15.203
-14.374
-13.524
-12.657
-11.777
-10.889
-9.998
-9.11
-8.23
-7.362
-6.514
-5.695
-4.916
-4.186
-3.511
-2.893
-2.334
-1.837
-1.404
-1.036
-0.725
-0.474
-0.284
-0.164
-0.135
-0.21
-0.382
-0.642
-0.969
-1.328
-1.696
-2.039
-2.309
-2.478
-2.526
-2.449
-2.27
-2.002
-1.637
-1.166
-0.545
0.264
1.253
2.407
3.686
4.983
6.201
7.22
7.87
8.027
7.615
6.577
4.929
2.721
-0.016
-3.243
-6.942
-11.146
-15.847
-20.977
-26.392
-31.81
-36.902
-41.331
-44.714
-46.621
-46.592
-44.349
-39.908
-33.637
-26.191
-18.148
-9.833
-1.575
6.102
12.953
19.234
25.93
34.862
47.497
64.431
85.893
112.079
142.744
176.44
209.868
238.039
256.224
260.712
248.585
217.167
163.896
88.415
-6.315
-114.848
-230.982
-348.578
-462.151
-565.832
-652.273
-716.161
-755.495
-770.344
-762.58
-735
-689.785
-630.088
-562.066
-491.173
-421.354
-356.104
-296.934
-244.399
-200.15
-165.331
-138.519
-118.146
-102.458
-88.953
-76.817
-65.99
-55.413
-44.018
-31.768
-18.782
-5.915
5.083
13.594
19.698
23.244
24.23
22.776
19.008
13.606
7.816
2.482
-1.941
-5.159
-7.156
-7.871
-7.175
-5.113
-1.894
2.256
7.123
12.545
18.457
24.776
31.361
38.026
44.536
50.693
56.377
61.52
66.098
70.085
73.458
76.231
78.456
80.218
81.6
82.667
83.463
84.04
84.469
84.837
85.251
85.785
86.485
87.383
88.498
89.849
91.451
93.301
95.377
97.658
100.129
102.778
105.602
108.587
111.713
114.956
118.293
121.702
125.167
128.67
132.188
135.704
139.198
142.655
146.06
149.397
152.643
155.779
158.782
161.631
164.306
166.787
169.052
171.083
172.864
174.38
175.619
176.567
177.216
177.555
177.578
177.279
176.656
175.706
174.428
172.825
170.899
168.656
166.104
163.248
160.1
156.67
152.97
149.015
144.818
140.397
135.768
130.949
125.959
120.818
115.546
110.163
104.691
99.15
93.562
87.948
82.327
76.72
71.145
65.622
60.167
54.8
49.534
44.387
39.371
34.501
29.789
25.246
20.883
16.708
12.729
8.953
5.386
2.03
-1.109
-4.031
-6.735
-9.22
-11.489
-13.544
-15.388
-17.026
-18.464
-19.708
-20.764
-21.641
-22.347
-22.89
-23.279
-23.525
-23.636
-23.623
-23.496
-23.266
-22.941
-22.533
-22.051
-21.505
-20.905
-20.26
-19.579
-18.871
-18.144
-17.406
-16.665
-15.927
-15.199
-14.487
-13.797
-13.132
-12.497
-11.895
-11.33
-10.804
-10.32
-9.878
-9.481
-9.13
-8.824
-8.564
-8.35
-8.183
-8.06
-7.982
-7.947
-7.955
-8.004
-8.094
-8.224
-8.392
-8.597
-8.839
-9.114
-9.422
-9.76
-10.127
-10.521
-10.94
-11.382
-11.846
-12.329
-12.831
-13.35
-13.885
-14.433
-14.994
-15.564
-16.142
-16.725
-17.311
-17.898
-18.482
-19.062
-19.633
-20.195
-20.743
-21.275
-21.786
-22.273
-22.73
-23.152
-23.536
-23.877
-24.17
-24.412
-24.6
-24.731
-24.805
-24.819
-24.77
-24.658
-24.48
-24.238
-23.929
-23.553
-23.11
-22.601
-22.03
-21.399
-20.713
-19.974
-19.187
-18.358
-17.496
-16.605
-15.692
-14.76
-13.814
-12.861
-11.91
-10.967
-10.038
-9.129
-8.248
-7.408
-6.619
-5.889
-5.219
-4.613
-4.071
-3.596
-3.192
-2.857
-2.586
-2.38
-2.241
-2.181
-2.223
-2.37
-2.614
-2.939
-3.317
-3.725
-4.149
-4.554
-4.897
-5.155
-5.31
-5.366
-5.353
-5.258
-5.066
-4.754
-4.261
-3.567
-2.688
-1.643
-0.494
0.665
1.757
2.654
3.194
3.291
2.867
1.902
0.451
-1.483
-3.881
-6.711
-9.998
-13.75
-17.929
-22.464
-27.169
-31.744
-35.896
-39.258
-41.443
-42.088
-40.749
-37.263
-31.818
-24.78
-16.853
-8.657
-0.402
7.532
14.53
20.633
26.34
32.676
41.586
54.373
71.204
92.399
118.187
147.388
177.794
205.81
226.29
234.96
228.926
205.166
161.012
96.111
12.281
-86.398
-193.642
-303.234
-409.597
-506.262
-586.266
-644.998
-680.39
-692.487
-683.658
-656.932
-615.363
-563.664
-508.018
-453.052
-401.682
-355.645
-315.02
-279.553
-249.182
-222.628
-197.524
-172.421
-146.694
-120.312
-94.19
-69.128
-45.572
-24.336
-6.414
7.689
17.787
24.037
27.048
27.387
25.559
22.164
17.729
12.688
7.469
2.448
-2.06
-5.776
-8.504
-10.137
-10.585
-9.807
-7.801
-4.616
-0.383
4.726
10.529
16.852
23.55
30.477
37.453
44.275
50.763
56.794
62.298
67.246
71.612
75.374
78.545
81.17
83.326
85.094
86.546
87.736
88.728
89.592
90.413
91.285
92.276
93.43
94.781
96.346
98.143
100.187
102.474
104.986
107.704
110.611
113.696
116.953
120.367
123.916
127.576
131.322
135.133
138.99
142.872
146.758
150.626
154.457
158.232
161.937
165.553
169.057
172.426
175.638
178.67
181.501
184.108
186.471
188.569
190.386
191.906
193.115
194.002
194.556
194.767
194.629
194.136
193.286
192.078
190.51
188.587
186.312
183.693
180.738
177.456
173.859
169.959
165.771
161.312
156.597
151.645
146.475
141.107
135.561
129.861
124.029
118.086
112.056
105.962
99.826
93.673
87.524
81.399
75.321
69.31
63.383
57.561
51.86
46.296
40.884
35.638
30.572
25.696
21.02
16.554
12.305
8.278
4.48
0.914
-2.419
-5.516
-8.378
-11.005
-13.401
-15.568
-17.511
-19.235
-20.748
-22.055
-23.165
-24.086
-24.829
-25.402
-25.815
-26.08
-26.206
-26.206
-26.088
-25.866
-25.55
-25.151
-24.679
-24.145
-23.56
-22.933
-22.274
-21.592
-20.895
-20.191
-19.488
-18.794
-18.114
-17.455
-16.824
-16.224
-15.661
-15.14
-14.662
-14.233
-13.853
-13.525
-13.251
-13.032
-12.868
-12.762
-12.712
-12.72
-12.783
-12.903
-13.077
-13.303
-13.58
-13.906
-14.277
-14.693
-15.149
-15.645
-16.176
-16.741
-17.336
-17.959
-18.607
-19.275
-19.96
-20.658
-21.366
-22.078
-22.792
-23.502
-24.204
-24.896
-25.572
-26.23
-26.865
-27.473
-28.048
-28.585
-29.08
-29.528
-29.924
-30.264
-30.545
-30.765
-30.921
-31.013
-31.036
-30.991
-30.877
-30.692
-30.436
-30.11
-29.712
-29.243
-28.708
-28.109
-27.45
-26.736
-25.973
-25.166
-24.325
-23.455
-22.564
-21.657
-20.738
-19.812
-18.888
-17.97
-17.064
-16.177
-15.317
-14.493
-13.717
-12.998
-12.342
-11.754
-11.235
-10.789
-10.418
-10.123
-9.899
-9.747
-9.67
-9.675
-9.781
-9.997
-10.315
-10.727
-11.213
-11.736
-12.274
-12.794
-13.246
-13.603
-13.849
-13.973
-13.995
-13.923
-13.743
-13.452
-13.014
-12.397
-11.613
-10.674
-9.616
-8.539
-7.537
-6.721
-6.259
-6.263
-6.8
-7.932
-9.644
-11.905
-14.708
-17.991
-21.717
-25.884
-30.44
-35.355
-40.524
-45.685
-50.55
-54.766
-57.898
-59.61
-59.543
-57.284
-52.761
-46.16
-37.875
-28.689
-19.197
-9.702
-0.751
7.216
14.358
21.251
29.205
39.97
54.481
73.07
96.164
123.579
153.904
184.329
210.421
227.504
231.945
220.824
191.366
141.411
70.866
-17.5
-118.472
-226.23
-335.179
-439.993
-534.967
-613.761
-671.895
-707.735
-721.712
-715.61
-691.844
-652.824
-601.873
-543.971
-483.422
-423.556
-367.139
-315.336
-268.687
-228.042
-193.738
-165.21
-141.823
-122.271
-104.742
-88.705
-74.108
-60.671
-48.161
-36.056
-23.944
-12.399
-2.656
4.71
9.65
12.384
13.28
12.25
9.224
4.71
-0.347
-5.079
-8.933
-11.699
-13.403
-13.95
-13.199
-11.139
-7.892
-3.701
1.201
6.649
12.555
18.847
25.401
32.037
38.529
44.686
50.391
55.58
60.231
64.318
67.82
70.745
73.139
75.081
76.651
77.915
78.919
79.711
80.355
80.938
81.559
82.293
83.185
84.266
85.555
87.067
88.818
90.805
93.007
95.404
97.98
100.722
103.627
106.681
109.863
113.15
116.515
119.939
123.402
126.885
130.366
133.827
137.246
140.61
143.903
147.109
150.206
153.174
155.993
158.64
161.097
163.345
165.362
167.133
168.642
169.876
170.823
171.474
171.819
171.852
171.567
170.962
170.036
168.788
167.221
165.337
163.145
160.65
157.863
154.793
151.452
147.853
144.011
139.941
135.659
131.184
126.531
121.722
116.775
111.71
106.549
101.31
96.016
90.687
85.342
80.003
74.689
69.418
64.208
59.075
54.037
49.107
44.301
39.63
35.108
30.743
26.547
22.528
18.692
15.045
11.593
8.339
5.286
2.434
-0.216
-2.664
-4.912
-6.964
-8.822
-10.49
-11.975
-13.282
-14.418
-15.39
-16.205
-16.873
-17.401
-17.799
-18.076
-18.24
-18.302
-18.269
-18.152
-17.959
-17.7
-17.382
-17.014
-16.604
-16.16
-15.687
-15.194
-14.686
-14.17
-13.649
-13.129
-12.615
-12.11
-11.618
-11.142
-10.684
-10.246
-9.83
-9.437
-9.069
-8.725
-8.405
-8.111
-7.841
-7.596
-7.375
-7.177
-7.002
-6.85
-6.719
-6.609
-6.52
-6.45
-6.4
-6.368
-6.355
-6.361
-6.386
-6.43
-6.494
-6.579
-6.685
-6.811
-6.96
-7.13
-7.323
-7.538
-7.776
-8.038
-8.323
-8.633
-8.969
-9.329
-9.715
-10.126
-10.56
-11.018
-11.498
-11.997
-12.515
-13.048
-13.594
-14.15
-14.715
-15.284
-15.855
-16.424
-16.986
-17.536
-18.069
-18.58
-19.063
-19.512
-19.923
-20.291
-20.612
-20.884
-21.103
-21.266
-21.369
-21.411
-21.389
-21.3
-21.143
-20.916
-20.619
-20.253
-19.821
-19.325
-18.769
-18.156
-17.493
-16.787
-16.044
-15.269
-14.467
-13.642
-12.799
-11.946
-11.089
-10.23
-9.378
-8.541
-7.726
-6.948
-6.214
-5.529
-4.9
-4.327
-3.815
-3.366
-2.981
-2.655
-2.389
-2.187
-2.057
-2.021
-2.09
-2.259
-2.518
-2.849
-3.217
-3.599
-3.959
-4.249
-4.44
-4.513
-4.459
-4.3
-4.042
-3.681
-3.203
-2.57
-1.742
-0.727
0.464
1.791
3.147
4.438
5.543
6.287
6.551
6.256
5.34
3.811
1.714
-0.924
-4.06
-7.674
-11.798
-16.425
-21.491
-26.849
-32.223
-37.289
-41.698
-45.059
-46.933
-46.844
-44.53
-40.034
-33.706
-26.192
-18.086
-9.663
-1.324
6.315
13.245
19.93
27.426
37.676
52.037
70.806
94.412
123.275
156.394
191.706
225.518
252.31
267.707
268.692
251.991
214.638
155.376
74.901
-22.964
-131.675
-245.495
-359.139
-466.663
-561.925
-638.948
-693.524
-724.718
-733.938
-722.741
-693.325
-648.354
-591.203
-527.216
-461.219
-396.407
-335.368
-279.807
-230.573
-189.035
-156.242
-130.989
-111.842
-97.327
-85.24
-74.621
-65.251
-56.071
-45.988
-34.958
-23.122
-11.287
-1.116
6.781
12.449
15.714
16.561
15.12
11.567
6.614
1.429
-3.22
-6.924
-9.444
-10.765
-10.818
-9.502
-6.882
-3.165
1.412
6.652
12.415
18.61
25.133
31.814
38.431
44.793
50.748
56.192
61.088
65.416
69.144
72.278
74.849
76.904
78.521
79.775
80.713
81.396
81.889
82.271
82.647
83.1
83.686
84.446
85.404
86.572
87.969
89.596
91.436
93.477
95.702
98.1
100.667
103.393
106.261
109.249
112.334
115.494
118.711
121.969
125.249
128.534
131.805
135.047
138.25
141.396
144.467
147.442
150.3
153.02
155.584
157.97
160.158
162.13
163.869
165.361
166.593
167.553
168.229
168.614
168.699
168.48
167.951
167.11
165.958
164.493
162.719
160.641
158.265
155.599
152.651
149.431
145.952
142.225
138.266
134.09
129.711
125.149
120.42
115.544
110.541
105.43
100.231
94.965
89.652
84.314
78.968
73.636
68.335
63.084
57.9
52.799
47.798
42.91
38.151
33.532
29.065
24.762
20.632
16.683
12.922
9.356
5.989
2.826
-0.131
-2.881
-5.422
-7.756
-9.885
-11.81
-13.536
-15.067
-16.408
-17.567
-18.549
-19.363
-20.016
-20.518
-20.877
-21.102
-21.204
-21.192
-21.075
-20.864
-20.568
-20.197
-19.76
-19.266
-18.725
-18.145
-17.534
-16.9
-16.251
-15.594
-14.935
-14.28
-13.634
-13.004
-12.393
-11.805
-11.244
-10.714
-10.215
-9.752
-9.324
-8.934
-8.583
-8.269
-7.994
-7.756
-7.556
-7.392
-7.264
-7.169
-7.108
-7.078
-7.079
-7.11
-7.169
-7.254
-7.364
-7.498
-7.656
-7.834
-8.034
-8.253
-8.491
-8.749
-9.025
-9.319
-9.63
-9.959
-10.304
-10.664
-11.04
-11.43
-11.835
-12.253
-12.685
-13.131
-13.59
-14.062
-14.546
-15.041
-15.546
-16.06
-16.58
-17.104
-17.63
-18.154
-18.675
-19.19
-19.696
-20.192
-20.672
-21.135
-21.576
-21.992
-22.377
-22.729
-23.04
-23.308
-23.53
-23.701
-23.821
-23.886
-23.895
-23.845
-23.736
-23.565
-23.333
-23.038
-22.678
-22.252
-21.764
-21.214
-20.607
-19.946
-19.235
-18.481
-17.692
-16.875
-16.035
-15.179
-14.312
-13.439
-12.566
-11.697
-10.834
-9.984
-9.153
-8.349
-7.584
-6.865
-6.199
-5.593
-5.053
-4.581
-4.18
-3.851
-3.586
-3.385
-3.251
-3.192
-3.225
-3.357
-3.584
-3.903
-4.305
-4.767
-5.261
-5.738
-6.136
-6.419
-6.565
-6.559
-6.415
-6.13
-5.691
-5.106
-4.361
-3.45
-2.377
-1.135
0.27
1.777
3.28
4.626
5.631
6.162
6.13
5.455
4.108
2.059
-0.692
-4.062
-7.974
-12.368
-17.212
-22.515
-28.227
-34.155
-39.99
-45.339
-49.781
-52.989
-54.588
-54.098
-51.264
-46.06
-38.792
-30.2
-20.928
-11.318
-1.751
7.267
15.536
23.256
31.378
41.693
55.589
73.67
96.196
123.308
154.721
188.941
222.619
250.821
268.926
273.299
261.094
229.68
176.532
101.334
7.064
-100.826
-216.179
-332.973
-445.827
-548.932
-635
-698.71
-738.019
-753.033
-745.614
-718.505
-673.848
-614.718
-547.217
-476.822
-407.51
-342.81
-284.291
-232.529
-189.197
-155.509
-130.053
-111.252
-97.34
-85.71
-75.454
-66.452
-57.561
-47.674
-36.751
-24.903
-12.999
-2.81
5.049
10.638
13.778
14.477
12.862
9.096
3.909
-1.5
-6.342
-10.195
-12.812
-14.178
-14.23
-12.865
-10.151
-6.306
-1.571
3.854
9.82
16.232
22.986
29.908
36.775
43.393
49.606
55.306
60.456
65.032
69.004
72.375
75.176
77.453
79.284
80.744
81.881
82.754
83.431
83.991
84.539
85.159
85.909
86.828
87.941
89.261
90.803
92.571
94.546
96.716
99.064
101.579
104.256
107.086
110.051
113.129
116.297
119.532
122.816
126.134
129.466
132.795
136.103
139.376
142.601
145.765
148.848
151.83
154.691
157.409
159.965
162.341
164.516
166.471
168.19
169.66
170.868
171.803
172.453
172.811
172.869
172.621
172.064
171.196
170.017
168.525
166.726
164.624
162.225
159.537
156.569
153.33
149.834
146.091
142.118
137.928
133.537
128.962
124.222
119.334
114.318
109.194
103.981
98.699
93.368
88.01
82.641
77.283
71.952
66.668
61.445
56.303
51.254
46.315
41.498
36.816
32.282
27.906
23.697
19.663
15.812
12.151
8.684
5.415
2.347
-0.518
-3.18
-5.637
-7.893
-9.948
-11.806
-13.471
-14.948
-16.242
-17.361
-18.31
-19.097
-19.731
-20.219
-20.571
-20.796
-20.902
-20.898
-20.796
-20.603
-20.329
-19.983
-19.574
-19.112
-18.603
-18.058
-17.482
-16.885
-16.272
-15.651
-15.028
-14.409
-13.798
-13.201
-12.621
-12.064
-11.531
-11.026
-10.552
-10.111
-9.703
-9.331
-8.996
-8.697
-8.436
-8.211
-8.022
-7.87
-7.751
-7.667
-7.614
-7.593
-7.602
-7.639
-7.704
-7.795
-7.911
-8.051
-8.213
-8.396
-8.599
-8.822
-9.063
-9.321
-9.597
-9.889
-10.198
-10.523
-10.864
-11.22
-11.591
-11.976
-12.374
-12.784
-13.207
-13.641
-14.086
-14.541
-15.006
-15.481
-15.965
-16.455
-16.952
-17.453
-17.957
-18.462
-18.964
-19.461
-19.95
-20.428
-20.893
-21.342
-21.772
-22.179
-22.56
-22.91
-23.226
-23.503
-23.737
-23.923
-24.057
-24.138
-24.163
-24.13
-24.038
-23.885
-23.67
-23.393
-23.053
-22.65
-22.182
-21.651
-21.058
-20.404
-19.695
-18.932
-18.121
-17.268
-16.379
-15.463
-14.527
-13.578
-12.621
-11.661
-10.706
-9.762
-8.832
-7.922
-7.037
-6.183
-5.37
-4.608
-3.902
-3.259
-2.684
-2.181
-1.751
-1.397
-1.118
-0.906
-0.763
-0.69
-0.696
-0.799
-1.004
-1.31
-1.71
-2.19
-2.721
-3.269
-3.786
-4.219
-4.535
-4.709
-4.731
-4.605
-4.328
-3.904
-3.334
-2.591
-1.655
-0.523
0.8
2.277
3.81
5.279
6.536
7.406
7.765
7.509
6.563
4.902
2.529
-0.491
-4.081
-8.195
-12.828
-17.98
-23.596
-29.516
-35.451
-41.056
-45.944
-49.725
-51.96
-52.126
-49.937
-45.387
-38.77
-30.79
-22.097
-12.996
-3.937
4.462
12.196
19.696
28.003
39.068
54.242
73.832
98.285
127.972
161.851
197.803
232.052
259.058
274.443
275.165
257.95
219.822
159.528
77.809
-21.442
-131.612
-246.897
-361.959
-470.808
-567.235
-645.214
-700.501
-732.143
-741.583
-730.414
-700.861
-655.622
-598.091
-533.625
-467.07
-401.654
-339.982
-283.775
-233.888
-191.702
-158.295
-132.494
-112.901
-98.048
-85.697
-74.867
-65.327
-56.004
-45.794
-34.63
-22.618
-10.561
-0.151
7.977
13.859
17.311
18.323
17.024
13.576
8.693
3.558
-1.046
-4.701
-7.164
-8.424
-8.415
-7.034
-4.341
-0.549
4.108
9.428
15.27
21.546
28.152
34.916
41.617
48.062
54.097
59.619
64.592
68.996
72.803
76.015
78.668
80.807
82.512
83.859
84.895
85.681
86.283
86.782
87.283
87.871
88.603
89.518
90.642
91.987
93.571
95.394
97.44
99.694
102.14
104.766
107.567
110.532
113.643
116.877
120.209
123.615
127.079
130.58
134.099
137.617
141.115
144.577
147.99
151.337
154.599
157.753
160.778
163.651
166.354
168.865
171.163
173.23
175.047
176.601
177.879
178.869
179.56
179.943
180.01
179.757
179.181
178.278
177.05
175.496
173.622
171.432
168.934
166.137
163.05
159.684
156.052
152.168
148.048
143.706
139.162
134.431
129.533
124.488
119.317
114.039
108.675
103.247
97.775
92.279
86.781
81.299
75.852
70.458
65.136
59.9
54.768
49.754
44.871
40.132
35.549
31.133
26.892
22.836
18.97
15.301
11.834
8.571
5.516
2.67
0.033
-2.396
-4.618
-6.635
-8.453
-10.075
-11.506
-12.753
-13.822
-14.721
-15.457
-16.039
-16.476
-16.776
-16.948
-17.003
-16.948
-16.795
-16.552
-16.229
-15.835
-15.38
-14.871
-14.318
-13.729
-13.112
-12.474
-11.823
-11.164
-10.504
-9.849
-9.204
-8.573
-7.962
-7.372
-6.809
-6.274
-5.77
-5.299
-4.861
-4.459
-4.092
-3.762
-3.468
-3.21
-2.988
-2.801
-2.648
-2.528
-2.44
-2.382
-2.352
-2.349
-2.371
-2.417
-2.485
-2.573
-2.68
-2.804
-2.945
-3.101
-3.272
-3.455
-3.651
-3.858
-4.076
-4.305
-4.545
-4.796
-5.058
-5.332
-5.619
-5.918
-6.229
-6.554
-6.892
-7.243
-7.607
-7.984
-8.374
-8.777
-9.194
-9.625
-10.069
-10.527
-10.996
-11.477
-11.968
-12.467
-12.973
-13.483
-13.994
-14.505
-15.013
-15.516
-16.01
-16.494
-16.962
-17.413
-17.84
-18.239
-18.606
-18.935
-19.222
-19.463
-19.653
-19.792
-19.875
-19.901
-19.866
-19.77
-19.61
-19.386
-19.095
-18.736
-18.309
-17.814
-17.253
-16.63
-15.948
-15.21
-14.421
-13.588
-12.718
-11.818
-10.893
-9.948
-8.988
-8.017
-7.044
-6.072
-5.108
-4.156
-3.226
-2.325
-1.467
-0.661
0.089
0.778
1.403
1.964
2.454
2.876
3.234
3.528
3.754
3.906
3.959
3.902
3.742
3.487
3.158
2.79
2.407
2.043
1.747
1.547
1.463
1.499
1.635
1.857
2.171
2.59
3.154
3.903
4.83
5.92
7.134
8.366
9.519
10.475
11.063
11.163
10.696
9.607
7.912
5.664
2.892
-0.363
-4.083
-8.3
-13.006
-18.134
-23.543
-28.951
-34.034
-38.456
-41.836
-43.746
-43.732
-41.516
-37.114
-30.89
-23.494
-15.502
-7.248
0.936
8.531
15.295
21.486
28.087
36.904
49.413
66.233
87.604
113.735
144.378
178.079
211.548
239.817
258.158
262.859
251.006
219.929
167.092
92.16
-1.912
-109.689
-224.99
-341.714
-454.434
-557.348
-643.186
-706.687
-745.871
-760.815
-753.367
-726.287
-681.695
-622.642
-555.196
-484.749
-415.213
-350.127
-291.064
-238.613
-194.485
-159.911
-133.517
-113.792
-99.01
-86.578
-75.6
-65.956
-56.506
-46.15
-34.837
-22.652
-10.45
0.005
8.099
13.89
17.204
18.063
16.596
12.957
7.875
2.553
-2.214
-5.993
-8.536
-9.828
-9.804
-8.362
-5.57
-1.646
3.164
8.655
14.676
21.128
27.907
34.839
41.698
48.292
54.462
60.101
65.171
69.65
73.508
76.749
79.408
81.531
83.199
84.49
85.454
86.154
86.658
87.046
87.425
87.881
88.472
89.24
90.21
91.396
92.814
94.468
96.341
98.42
100.689
103.136
105.756
108.54
111.47
114.524
117.677
120.906
124.195
127.525
130.876
134.23
137.569
140.878
144.143
147.348
150.474
153.498
156.4
159.157
161.749
164.156
166.357
168.331
170.062
171.535
172.737
173.656
174.28
174.599
174.605
174.295
173.662
172.705
171.422
169.815
167.887
165.642
163.089
160.234
157.087
153.658
149.96
146.007
141.813
137.395
132.769
127.952
122.965
117.825
112.555
107.174
101.702
96.162
90.574
84.959
79.337
73.729
68.152
62.627
57.17
51.798
46.528
41.374
36.351
31.47
26.745
22.186
17.803
13.604
9.595
5.784
2.175
-1.229
-4.424
-7.409
-10.185
-12.75
-15.109
-17.262
-19.213
-20.969
-22.533
-23.911
-25.112
-26.142
-27.009
-27.723
-28.291
-28.722
-29.028
-29.215
-29.296
-29.278
-29.171
-28.985
-28.73
-28.413
-28.043
-27.63
-27.18
-26.702
-26.203
-25.69
-25.169
-24.646
-24.126
-23.614
-23.116
-22.634
-22.172
-21.734
-21.322
-20.938
-20.585
-20.263
-19.974
-19.719
-19.497
-19.309
-19.155
-19.035
-18.947
-18.891
-18.866
-18.872
-18.908
-18.972
-19.064
-19.182
-19.328
-19.499
-19.695
-19.915
-20.159
-20.426
-20.715
-21.027
-21.361
-21.718
-22.098
-22.5
-22.925
-23.374
-23.845
-24.339
-24.855
-25.393
-25.952
-26.533
-27.133
-27.754
-28.394
-29.053
-29.73
-30.424
-31.133
-31.854
-32.587
-33.327
-34.073
-34.821
-35.568
-36.31
-37.044
-37.766
-38.472
-39.161
-39.825
-40.462
-41.065
-41.63
-42.151
-42.624
-43.042
-43.403
-43.702
-43.936
-44.104
-44.203
-44.231
-44.186
-44.067
-43.873
-43.603
-43.257
-42.836
-42.34
-41.773
-41.139
-40.442
-39.687
-38.88
-38.027
-37.139
-36.223
-35.285
-34.33
-33.366
-32.399
-31.435
-30.482
-29.546
-28.633
-27.751
-26.91
-26.123
-25.398
-24.741
-24.156
-23.647
-23.214
-22.863
-22.592
-22.396
-22.275
-22.232
-22.272
-22.417
-22.677
-23.043
-23.506
-24.046
-24.629
-25.231
-25.816
-26.335
-26.756
-27.058
-27.233
-27.302
-27.272
-27.135
-26.879
-26.464
-25.854
-25.059
-24.088
-22.978
-21.827
-20.721
-19.782
-19.179
-19.03
-19.416
-20.39
-21.934
-24.009
-26.587
-29.623
-33.098
-37.032
-41.409
-46.173
-51.188
-56.195
-60.897
-64.947
-67.961
-69.51
-69.114
-66.542
-61.852
-55.39
-47.813
-39.683
-31.261
-22.969
-15.415
-8.628
-2.224
4.915
14.794
28.576
46.492
68.86
95.872
126.854
160.147
192.032
217.103
231.433
232.197
216.695
182.601
128.023
52.994
-38.841
-141.367
-249.16
-357.165
-460.327
-553.165
-629.224
-683.833
-715.635
-725.799
-716.383
-689.638
-647.886
-594.693
-535.354
-474.782
-416.823
-363.505
-315.227
-272.472
-235.896
-205.414
-180.272
-159.004
-139.393
-120.412
-102.367
-85.364
-69.528
-54.869
-40.822
-27.695
-16.839
-8.846
-3.7
-1.249
-0.833
-2.071
-5.189
-9.834
-15.1
-20.342
-24.916
-28.421
-30.926
-32.359
-32.505
-31.338
-28.913
-25.333
-20.856
-15.667
-9.86
-3.594
3.003
9.769
16.46
22.899
28.949
34.498
39.512
43.97
47.839
51.125
53.863
56.094
57.902
59.359
60.516
61.442
62.204
62.882
63.584
64.391
65.355
66.52
67.905
69.525
71.398
73.524
75.885
78.468
81.256
84.236
87.402
90.743
94.238
97.865
101.595
105.405
109.276
113.187
117.117
121.045
124.951
128.816
132.626
136.363
140.005
143.528
146.909
150.125
153.153
155.972
158.559
160.892
162.954
164.727
166.199
167.356
168.186
168.678
168.825
168.62
168.061
167.143
165.867
164.232
162.244
159.907
157.229
154.218
150.886
147.242
143.302
139.079
134.591
129.854
124.886
119.706
114.336
108.797
103.11
97.297
91.382
85.388
79.337
73.253
67.157
61.072
55.018
49.015
43.084
37.242
31.509
25.899
20.43
15.115
9.967
5
0.224
-4.352
-8.719
-12.871
-16.8
-20.503
-23.977
-27.218
-30.226
-33.002
-35.545
-37.859
-39.947
-41.813
-43.463
-44.903
-46.139
-47.18
-48.034
-48.71
-49.217
-49.564
-49.762
-49.82
-49.75
-49.562
-49.265
-48.871
-48.39
-47.831
-47.206
-46.522
-45.79
-45.018
-44.214
-43.388
-42.545
-41.695
-40.844
-39.998
-39.164
-38.347
-37.553
-36.786
-36.051
-35.351
-34.689
-34.068
-33.492
-32.961
-32.479
-32.046
-31.663
-31.333
-31.054
-30.826
-30.649
-30.522
-30.444
-30.413
-30.427
-30.486
-30.587
-30.728
-30.908
-31.124
-31.373
-31.653
-31.961
-32.293
-32.645
-33.014
-33.396
-33.785
-34.177
-34.569
-34.957
-35.335
-35.701
-36.048
-36.372
-36.667
-36.928
-37.15
-37.326
-37.452
-37.524
-37.539
-37.493
-37.384
-37.21
-36.969
-36.659
-36.28
-35.829
-35.307
-34.712
-34.044
-33.304
-32.495
-31.62
-30.683
-29.689
-28.642
-27.549
-26.42
-25.261
-24.079
-22.877
-21.663
-20.443
-19.223
-18.011
-16.811
-15.63
-14.476
-13.358
-12.289
-11.276
-10.324
-9.436
-8.616
-7.865
-7.186
-6.578
-6.037
-5.561
-5.155
-4.826
-4.596
-4.473
-4.451
-4.521
-4.663
-4.844
-5.039
-5.209
-5.307
-5.304
-5.179
-4.924
-4.555
-4.077
-3.483
-2.764
-1.883
-0.802
0.469
1.919
3.504
5.118
6.662
8.015
9.011
9.538
9.516
8.882
7.644
5.84
3.512
0.721
-2.51
-6.204
-10.345
-14.865
-19.596
-24.24
-28.487
-31.998
-34.407
-35.312
-34.241
-30.951
-25.509
-18.276
-9.948
-1.152
7.845
16.665
24.717
32.019
39.01
46.699
57.021
71.291
89.773
112.811
140.633
172.143
205.231
236.28
260.079
272.487
270.68
251.737
213.06
153.778
75.027
-19.349
-123.16
-230.671
-336.843
-436.088
-522.298
-590.257
-636.61
-660.451
-663.488
-648.098
-616.508
-571.71
-517.969
-459.716
-401.029
-345.392
-294.242
-247.882
-206.909
-171.57
-141.46
-116.219
-94.674
-74.786
-55.823
-38.005
-21.295
-5.892
8.23
21.778
34.523
45.22
53.351
58.877
61.914
63.108
62.794
60.729
57.258
53.256
49.375
46.271
44.337
43.504
43.829
45.512
48.569
52.937
58.497
64.988
72.219
80.093
88.457
97.18
106.093
114.948
123.551
131.749
139.416
146.502
152.965
158.758
163.866
168.303
172.096
175.307
177.99
180.173
181.902
183.219
184.183
184.881
185.373
185.696
185.875
185.92
185.833
185.625
185.29
184.807
184.16
183.334
182.317
181.112
179.714
178.114
176.304
174.274
172.018
169.539
166.843
163.933
160.817
157.504
154.009
150.349
146.542
142.601
138.538
134.369
130.108
125.771
