268.525
239.545
211.933
186.659
164.43
145.659
130.372
118.152
108.607
101.458
96.205
92.154
88.941
86.79
86.855
91.149
101.173
117.362
139.68
168.046
201.915
239.495
277.071
309.072
330.291
337.054
326.603
296.453
244.332
169.653
74.983
-34.021
-150.972
-270.143
-386.137
-493.437
-585.409
-655.965
-702.198
-724.214
-723.359
-701.563
-660.979
-604.016
-535.52
-461.727
-387.086
-314.772
-247.571
-187.151
-135.216
-93.943
-63.225
-41.051
-25.957
-16.116
-9.277
-4.421
-0.345
4.955
12.139
20.844
30.782
40.829
49.494
56.36
61.121
63.219
62.764
60.096
55.607
50.271
45.176
40.879
37.726
35.946
35.492
36.377
38.606
41.965
46.186
51.059
56.404
62.095
68.056
74.137
80.114
85.795
91.029
95.719
99.835
103.363
106.286
108.61
110.379
111.655
112.511
113.02
113.23
113.197
112.992
112.699
112.421
112.242
112.222
112.4
112.801
113.441
114.331
115.47
116.838
118.417
120.193
122.155
124.299
126.613
129.08
131.678
134.382
137.171
140.027
142.929
145.859
148.797
151.725
154.63
157.498
160.314
163.059
165.712
168.253
170.659
172.911
174.989
176.873
178.542
179.981
181.176
182.113
182.78
183.166
183.263
183.061
182.556
181.742
180.617
179.18
177.43
175.371
173.006
170.342
167.386
164.145
160.631
156.855
152.83
148.569
144.088
139.402
134.529
129.486
124.294
118.97
113.534
108.008
102.411
96.764
91.088
85.403
79.727
74.08
68.48
62.945
57.492
52.137
46.896
41.782
36.809
31.989
27.335
22.855
18.559
14.455
10.548
6.846
3.351
0.068
-3.003
-5.859
-8.502
-10.933
-13.154
-15.168
-16.979
-18.594
-20.019
-21.259
-22.323
-23.218
-23.953
-24.538
-24.982
-25.294
-25.485
-25.564
-25.542
-25.428
-25.233
-24.967
-24.638
-24.258
-23.834
-23.377
-22.893
-22.393
-21.882
-21.369
-20.859
-20.36
-19.877
-19.416
-18.979
-18.572
-18.198
-17.86
-17.56
-17.301
-17.083
-16.909
-16.779
-16.694
-16.654
-16.658
-16.706
-16.798
-16.932
-17.108
-17.325
-17.582
-17.878
-18.212
-18.582
-18.988
-19.428
-19.901
-20.404
-20.936
-21.496
-22.081
-22.69
-23.321
-23.973
-24.645
-25.334
-26.041
-26.763
-27.498
-28.245
-29
-29.763
-30.531
-31.302
-32.073
-32.841
-33.604
-34.359
-35.105
-35.837
-36.552
-37.246
-37.915
-38.552
-39.155
-39.718
-40.237
-40.709
-41.129
-41.497
-41.808
-42.063
-42.256
-42.388
-42.457
-42.461
-42.399
-42.269
-42.073
-41.81
-41.483
-41.094
-40.648
-40.146
-39.593
-38.994
-38.357
-37.687
-36.988
-36.264
-35.519
-34.759
-33.993
-33.226
-32.463
-31.709
-30.974
-30.268
-29.603
-28.985
-28.416
-27.898
-27.433
-27.022
-26.672
-26.379
-26.138
-25.951
-25.822
-25.761
-25.794
-25.923
-26.141
-26.433
-26.772
-27.135
-27.509
-27.859
-28.144
-28.343
-28.438
-28.434
-28.36
-28.207
-27.957
-27.589
-27.043
-26.299
-25.37
-24.278
-23.084
-21.884
-20.756
-19.826
-19.258
-19.136
-19.534
-20.474
-21.905
-23.825
-26.213
-29.039
-32.331
-36.099
-40.313
-44.901
-49.676
-54.338
-58.585
-62.047
-64.339
-65.099
-63.882
-60.525
-55.207
-48.296
-40.507
-32.471
-24.397
-16.669
-9.898
-4.018
1.494
7.704
16.62
29.604
46.867
68.792
95.669
126.283
158.326
188.049
210.084
220.006
214.865
191.52
147.185
81.476
-3.814
-104.429
-213.649
-325.128
-433.416
-532.099
-614.389
-675.538
-712.82
-726.112
-718.132
-691.733
-649.499
-595.598
-535.228
-473.114
-413.64
-359.334
-310.433
-267.295
-230.465
-199.594
-174.017
-152.405
-132.452
-113.066
-94.548
-76.985
-60.538
-45.304
-30.753
-17.189
-5.97
2.315
7.682
10.267
10.728
9.468
6.295
1.582
-3.749
-9.047
-13.68
-17.245
-19.799
-21.267
-21.425
-20.244
-17.78
-14.138
-9.568
-4.253
1.709
8.151
14.934
21.886
28.76
35.375
41.591
47.295
52.449
57.028
60.998
64.365
67.158
69.421
71.231
72.663
73.768
74.619
75.285
75.85
76.422
77.086
77.894
78.893
80.102
81.537
83.216
85.142
87.297
89.67
92.246
95.012
97.966
101.095
104.382
107.803
111.334
114.949
118.632
122.364
126.123
129.891
133.647
137.376
141.063
144.692
148.24
151.686
155.005
158.176
161.175
163.981
166.571
168.924
171.022
172.849
174.389
175.63
176.559
177.165
177.441
177.38
176.977
176.229
175.135
173.694
171.911
169.79
167.338
164.564
161.477
158.087
154.409
150.457
146.246
141.792
137.115
132.232
127.163
121.93
116.554
111.057
105.462
99.791
94.066
88.311
82.548
76.797
71.08
65.416
59.824
54.324
48.932
43.664
38.536
33.562
28.755
24.126
19.687
15.446
11.411
7.589
3.986
0.606
-2.548
-5.475
-8.173
-10.643
-12.886
-14.905
-16.703
-18.286
-19.658
-20.826
-21.797
-22.579
-23.18
-23.609
-23.876
-23.991
-23.964
-23.804
-23.524
-23.131
-22.639
-22.055
-21.392
-20.658
-19.864
-19.019
-18.133
-17.214
-16.273
-15.317
-14.354
-13.393
-12.44
-11.503
-10.587
-9.699
-8.845
-8.029
-7.257
-6.533
-5.861
-5.245
-4.687
-4.191
-3.757
-3.387
-3.082
-2.842
-2.667
-2.557
-2.511
-2.528
-2.607
-2.747
-2.946
-3.202
-3.512
-3.874
-4.283
-4.737
-5.23
-5.76
-6.319
-6.905
-7.512
-8.135
-8.77
-9.412
-10.054
-10.691
-11.316
-11.922
-12.504
-13.055
-13.567
-14.037
-14.459
-14.829
-15.145
-15.401
-15.596
-15.726
-15.789
-15.783
-15.707
-15.557
-15.334
-15.037
-14.668
-14.229
-13.724
-13.155
-12.528
-11.848
-11.124
-10.362
-9.568
-8.746
-7.901
-7.041
-6.17
-5.297
-4.426
-3.562
-2.715
-1.894
-1.111
-0.375
0.309
0.936
1.503
2.008
2.447
2.818
3.129
3.378
3.561
3.671
3.685
3.593
3.402
3.119
2.762
2.362
1.943
1.54
1.202
0.957
0.826
0.815
0.906
1.091
1.375
1.765
2.299
3.007
3.881
4.91
6.053
7.212
8.297
9.188
9.722
9.785
9.292
8.185
6.477
4.206
1.417
-1.831
-5.513
-9.646
-14.202
-19.119
-24.24
-29.29
-33.989
-38.008
-40.989
-42.521
-42.12
-39.554
-34.891
-28.494
-21.059
-13.169
-5.07
2.837
9.949
16.235
22.04
28.435
37.433
50.178
66.859
87.734
112.871
141.505
172.011
200.803
222.713
234.094
232.308
214.807
179.527
124.801
50.816
-38.71
-137.945
-241.932
-345.772
-444.374
-532.273
-602.941
-652.009
-678.852
-684.852
-671.823
-642.274
-599.045
-546.315
-490.343
-435.877
-385.281
-339.74
-299.418
-264.129
-233.866
-207.587
-182.865
-158.178
-133.033
-107.463
-82.377
-58.58
-36.456
-16.717
-0.291
12.378
21.165
26.246
28.259
27.779
25.303
21.445
16.706
11.527
6.35
1.505
-2.719
-6.064
-8.379
-9.569
-9.556
-8.329
-5.911
-2.358
2.172
7.512
13.494
19.92
26.638
33.478
40.228
46.719
52.81
58.388
63.413
67.861
71.702
74.945
77.623
79.782
81.503
82.862
83.915
84.736
85.398
85.982
86.587
87.288
88.134
89.165
90.403
91.862
93.558
95.491
97.642
99.998
102.543
105.264
108.153
111.198
114.378
117.669
121.046
124.486
127.97
131.48
134.993
138.492
141.956
145.369
148.718
151.985
155.15
158.19
161.083
163.808
166.346
168.675
170.774
172.625
174.212
175.52
176.538
177.255
177.659
177.744
177.502
176.93
176.025
174.787
173.217
171.316
169.09
166.546
163.693
160.54
157.099
153.381
149.402
145.176
140.72
136.052
131.189
126.15
120.957
115.629
110.187
104.654
99.051
93.399
87.719
82.035
76.364
70.729
65.147
59.637
54.216
48.901
43.708
38.65
33.742
28.995
24.42
20.028
15.826
11.822
8.023
4.432
1.054
-2.109
-5.056
-7.787
-10.302
-12.603
-14.693
-16.577
-18.258
-19.743
-21.038
-22.15
-23.087
-23.856
-24.467
-24.928
-25.25
-25.441
-25.512
-25.472
-25.33
-25.098
-24.784
-24.398
-23.949
-23.447
-22.9
-22.317
-21.706
-21.074
-20.429
-19.779
-19.128
-18.483
-17.85
-17.232
-16.636
-16.064
-15.52
-15.008
-14.529
-14.088
-13.685
-13.323
-13.002
-12.725
-12.491
-12.301
-12.155
-12.053
-11.995
-11.982
-12.012
-12.085
-12.202
-12.36
-12.56
-12.8
-13.078
-13.394
-13.745
-14.13
-14.548
-14.995
-15.472
-15.975
-16.504
-17.056
-17.63
-18.224
-18.834
-19.458
-20.093
-20.737
-21.385
-22.034
-22.681
-23.322
-23.954
-24.575
-25.18
-25.765
-26.327
-26.86
-27.36
-27.821
-28.239
-28.608
-28.926
-29.187
-29.389
-29.531
-29.609
-29.622
-29.567
-29.444
-29.25
-28.986
-28.65
-28.241
-27.761
-27.212
-26.597
-25.919
-25.183
-24.394
-23.557
-22.681
-21.773
-20.838
-19.88
-18.905
-17.917
-16.923
-15.929
-14.94
-13.961
-13.002
-12.071
-11.181
-10.34
-9.555
-8.83
-8.167
-7.567
-7.035
-6.571
-6.169
-5.831
-5.56
-5.363
-5.26
-5.261
-5.36
-5.546
-5.801
-6.089
-6.384
-6.658
-6.863
-6.974
-6.976
-6.86
-6.646
-6.345
-5.946
-5.442
-4.8
-3.984
-3.004
-1.877
-0.638
0.61
1.77
2.737
3.348
3.496
3.116
2.148
0.604
-1.481
-4.098
-7.195
-10.735
-14.728
-19.131
-23.902
-28.943
-33.982
-38.717
-42.825
-45.89
-47.6
-47.635
-45.549
-41.23
-34.869
-26.843
-17.926
-8.775
0.41
9.187
16.899
23.602
29.738
36.411
45.69
58.859
76.131
97.928
124.496
154.663
186.173
215.089
235.936
244.492
237.876
213.162
167.803
101.083
14.604
-87.135
-197.557
-310.685
-421.293
-523.827
-611.87
-679.682
-724.029
-744.495
-742.804
-721.246
-681.772
-626.712
-560.894
-490.296
-419.74
-352.955
-291.956
-237.622
-191.593
-155.76
-129.617
-111.116
-98
-87.525
-78.335
-70.29
-62.425
-53.311
-42.579
-30.575
-18.329
-7.707
0.447
6.269
9.699
10.683
9.32
5.793
0.822
-4.378
-8.986
-12.62
-15.069
-16.328
-16.347
-15.009
-12.361
-8.612
-3.99
1.304
7.124
13.374
19.948
26.674
33.333
39.733
45.723
51.202
56.133
60.5
64.278
67.464
70.089
72.193
73.85
75.133
76.093
76.787
77.285
77.664
78.03
78.47
79.039
79.78
80.716
81.859
83.226
84.82
86.626
88.629
90.816
93.175
95.703
98.39
101.219
104.168
107.214
110.332
113.506
116.718
119.949
123.18
126.395
129.579
132.718
135.799
138.801
141.706
144.491
147.136
149.622
151.93
154.039
155.931
157.59
159.001
160.153
161.035
161.636
161.948
161.965
161.68
161.091
160.198
158.998
157.494
155.689
153.59
151.203
148.537
145.601
142.407
138.967
135.294
131.403
127.311
123.032
118.585
113.988
109.26
104.419
99.486
94.48
89.422
84.331
79.227
74.129
69.055
64.023
59.05
54.153
49.346
44.645
40.062
35.611
31.302
27.147
23.155
19.335
15.692
12.233
8.964
5.887
3.005
0.321
-2.166
-4.456
-6.55
-8.45
-10.16
-11.683
-13.025
-14.191
-15.187
-16.02
-16.698
-17.227
-17.617
-17.876
-18.011
-18.033
-17.95
-17.77
-17.504
-17.159
-16.745
-16.269
-15.741
-15.167
-14.557
-13.917
-13.254
-12.575
-11.886
-11.194
-10.503
-9.819
-9.147
-8.49
-7.852
-7.236
-6.646
-6.084
-5.551
-5.049
-4.581
-4.146
-3.746
-3.382
-3.054
-2.763
-2.508
-2.289
-2.107
-1.96
-1.848
-1.772
-1.73
-1.722
-1.748
-1.809
-1.903
-2.03
-2.19
-2.382
-2.605
-2.858
-3.14
-3.451
-3.789
-4.155
-4.547
-4.964
-5.407
-5.874
-6.365
-6.877
-7.409
-7.959
-8.526
-9.106
-9.696
-10.295
-10.899
-11.506
-12.113
-12.717
-13.315
-13.902
-14.475
-15.028
-15.557
-16.056
-16.52
-16.944
-17.324
-17.657
-17.94
-18.17
-18.344
-18.46
-18.515
-18.508
-18.436
-18.297
-18.089
-17.811
-17.465
-17.052
-16.574
-16.035
-15.437
-14.787
-14.091
-13.355
-12.584
-11.783
-10.956
-10.107
-9.241
-8.363
-7.477
-6.589
-5.706
-4.839
-3.996
-3.19
-2.427
-1.712
-1.05
-0.444
0.105
0.595
1.032
1.416
1.741
1.998
2.169
2.243
2.22
2.107
1.916
1.672
1.409
1.167
0.996
0.93
0.985
1.169
1.469
1.877
2.398
3.04
3.822
4.768
5.885
7.167
8.597
10.102
11.558
12.826
13.736
14.154
13.998
13.206
11.753
9.642
6.899
3.575
-0.271
-4.609
-9.432
-14.719
-20.403
-26.264
-31.959
-37.112
-41.297
-44.159
-45.337
-44.358
-41.018
-35.407
-27.886
-19.206
-10.037
-0.646
8.532
16.84
24.314
31.393
39.116
49.516
63.925
82.628
106.135
134.799
167.501
202.029
234.457
259.163
271.773
269.231
248.304
206.157
141.706
56.151
-46.138
-158.526
-275.068
-390.37
-498.628
-593.353
-668.369
-719.961
-747.55
-752.419
-736.323
-701.229
-649.431
-585.273
-514.808
-442.75
-372.46
-306.803
-247.534
-196.311
-155.272
-124.524
-102.109
-86.457
-75.711
-67.57
-61.032
-55.061
-47.803
-38.653
-28.037
-16.271
-4.506
5.662
13.771
19.533
22.402
22.537
20.271
15.91
10.42
4.95
0.115
-3.651
-6.076
-7.207
-7.001
-5.397
-2.558
1.298
5.972
11.267
17.075
23.326
29.888
36.582
43.183
49.476
55.328
60.659
65.431
69.627
73.224
76.226
78.683
80.658
82.226
83.45
84.37
85.04
85.529
85.922
86.322
86.81
87.437
88.239
89.238
90.45
91.885
93.543
95.402
97.444
99.653
102.018
104.536
107.197
109.98
112.864
115.825
118.844
121.903
124.985
128.069
131.139
134.178
137.172
140.108
142.972
145.746
148.41
150.945
153.33
155.549
157.583
159.412
161.02
162.393
163.517
164.383
164.979
165.297
165.33
165.073
164.522
163.674
162.53
161.09
159.357
157.334
155.029
152.449
149.601
146.497
143.146
139.562
135.759
131.75
127.551
123.178
118.648
113.979
109.189
104.298
99.323
94.285
89.202
84.095
78.981
73.88
68.809
63.786
58.825
53.945
49.159
44.481
39.925
35.503
31.225
27.102
23.144
19.358
15.751
12.329
9.098
6.06
3.219
0.577
-1.866
-4.111
-6.158
-8.009
-9.668
-11.138
-12.424
-13.532
-14.468
-15.239
-15.852
-16.315
-16.638
-16.828
-16.894
-16.847
-16.694
-16.447
-16.114
-15.704
-15.228
-14.694
-14.111
-13.488
-12.833
-12.155
-11.461
-10.759
-10.055
-9.356
-8.668
-7.996
-7.346
-6.721
-6.127
-5.566
-5.042
-4.556
-4.112
-3.71
-3.352
-3.039
-2.77
-2.545
-2.365
-2.228
-2.132
-2.078
-2.061
-2.082
-2.137
-2.225
-2.344
-2.492
-2.666
-2.865
-3.087
-3.329
-3.59
-3.868
-4.161
-4.467
-4.786
-5.117
-5.458
-5.809
-6.169
-6.539
-6.919
-7.307
-7.704
-8.108
-8.52
-8.941
-9.369
-9.804
-10.248
-10.7
-11.161
-11.631
-12.111
-12.6
-13.098
-13.603
-14.116
-14.635
-15.158
-15.684
-16.21
-16.735
-17.257
-17.775
-18.285
-18.785
-19.272
-19.741
-20.188
-20.61
-21
-21.354
-21.668
-21.939
-22.163
-22.338
-22.462
-22.531
-22.543
-22.497
-22.39
-22.221
-21.988
-21.689
-21.323
-20.892
-20.398
-19.842
-19.229
-18.561
-17.845
-17.087
-16.294
-15.469
-14.617
-13.743
-12.851
-11.946
-11.034
-10.118
-9.204
-8.299
-7.414
-6.559
-5.743
-4.974
-4.255
-3.592
-2.985
-2.439
-1.953
-1.521
-1.143
-0.826
-0.579
-0.419
-0.357
-0.39
-0.512
-0.71
-0.958
-1.223
-1.466
-1.635
-1.698
-1.64
-1.456
-1.159
-0.754
-0.234
0.409
1.196
2.146
3.266
4.549
5.976
7.47
8.902
10.131
10.986
11.334
11.1
10.221
8.675
6.465
3.613
0.174
-3.79
-8.253
-13.206
-18.628
-24.444
-30.424
-36.208
-41.415
-45.614
-48.452
-49.578
-48.527
-45.108
-39.439
-31.91
-23.297
-14.286
-5.133
3.75
11.705
18.783
25.445
32.738
42.69
56.61
74.726
97.481
125.175
156.634
189.567
220.034
242.48
252.59
247.404
223.831
179.143
112.441
25.173
-78.166
-190.885
-306.913
-420.893
-527.109
-618.954
-690.382
-737.862
-760.834
-760.974
-740.541
-701.51
-646.235
-579.599
-507.785
-435.827
-367.589
-305.176
-249.517
-202.257
-165.306
-138.165
-118.698
-104.555
-92.966
-82.56
-73.231
-64.076
-53.683
-41.692
-28.486
-15.119
-3.501
5.479
11.97
15.936
17.314
16.199
12.741
7.618
2.107
-2.911
-7.019
-9.956
-11.716
-12.253
-11.415
-9.228
-5.893
-1.624
3.364
8.904
14.928
21.347
28.017
34.758
41.336
47.556
53.303
58.512
63.162
67.231
70.691
73.548
75.848
77.667
79.089
80.179
80.98
81.545
81.945
82.268
82.62
83.076
83.681
84.467
85.451
86.652
88.085
89.749
91.623
93.689
95.931
98.34
100.911
103.633
106.485
109.445
112.486
115.591
118.743
121.923
125.11
128.288
131.438
134.545
137.597
140.578
143.467
146.245
148.892
151.387
153.712
155.847
157.773
159.474
160.933
162.139
163.08
163.745
164.126
164.214
164.005
163.495
162.682
161.566
160.145
158.425
156.409
154.104
151.518
148.66
145.539
142.168
138.559
134.726
130.684
126.45
122.038
117.466
112.754
107.92
102.982
97.96
92.873
87.741
82.584
77.42
72.267
67.144
62.067
57.053
52.118
47.275
42.54
37.924
33.441
29.1
24.911
20.885
17.028
13.346
9.846
6.533
3.409
0.477
-2.261
-4.805
-7.155
-9.312
-11.279
-13.059
-14.655
-16.073
-17.317
-18.393
-19.309
-20.071
-20.687
-21.165
-21.512
-21.738
-21.85
-21.858
-21.771
-21.596
-21.343
-21.021
-20.636
-20.199
-19.716
-19.196
-18.645
-18.071
-17.48
-16.878
-16.271
-15.664
-15.063
-14.471
-13.893
-13.333
-12.793
-12.276
-11.786
-11.323
-10.889
-10.485
-10.113
-9.772
-9.462
-9.184
-8.937
-8.72
-8.533
-8.375
-8.244
-8.14
-8.06
-8.004
-7.969
-7.955
-7.959
-7.98
-8.017
-8.068
-8.133
-8.21
-8.298
-8.397
-8.506
-8.624
-8.751
-8.887
-9.031
-9.183
-9.344
-9.514
-9.693
-9.883
-10.084
-10.297
-10.523
-10.763
-11.017
-11.286
-11.571
-11.871
-12.187
-12.521
-12.871
-13.24
-13.626
-14.031
-14.455
-14.896
-15.354
-15.827
-16.314
-16.814
-17.324
-17.842
-18.364
-18.89
-19.416
-19.94
-20.459
-20.97
-21.467
-21.948
-22.406
-22.838
-23.238
-23.601
-23.923
-24.2
-24.429
-24.608
-24.733
-24.801
-24.809
-24.757
-24.642
-24.461
-24.215
-23.899
-23.516
-23.067
-22.553
-21.978
-21.345
-20.658
-19.922
-19.146
-18.334
-17.491
-16.622
-15.731
-14.821
-13.899
-12.97
-12.039
-11.11
-10.193
-9.295
-8.428
-7.601
-6.818
-6.085
-5.401
-4.77
-4.195
-3.675
-3.207
-2.792
-2.434
-2.14
-1.931
-1.817
-1.791
-1.844
-1.958
-2.098
-2.239
-2.354
-2.395
-2.341
-2.176
-1.895
-1.516
-1.049
-0.485
0.184
0.988
1.963
3.096
4.37
5.746
7.118
8.388
9.448
10.136
10.343
10.005
9.063
7.524
5.422
2.765
-0.394
-4.018
-8.116
-12.646
-17.564
-22.769
-27.983
-32.901
-37.198
-40.454
-42.356
-42.579
-40.672
-36.522
-30.324
-22.465
-13.737
-4.815
4.091
12.523
19.804
25.994
31.553
37.62
46.326
59.009
75.915
97.507
124.072
154.414
186.213
215.438
236.474
244.96
237.911
212.287
165.433
96.63
7.564
-97.131
-210.678
-326.879
-440.318
-545.226
-634.951
-703.63
-748.014
-767.729
-764.618
-741.115
-699.293
-641.643
-573.212
-500.134
-427.312
-358.514
-295.739
-239.839
-192.458
-155.478
-128.324
-108.89
-94.888
-83.564
-73.589
-64.852
-56.38
-46.729
-35.54
-23.173
-10.678
0.073
8.249
14.008
17.302
18.084
16.457
12.626
7.333
1.817
-3.078
-6.962
-9.619
-11.038
-11.171
-9.899
-7.273
-3.512
1.148
6.498
12.386
18.711
25.363
32.164
38.888
45.337
51.354
56.832
61.735
66.045
69.737
72.81
75.296
77.241
78.722
79.819
80.584
81.08
81.377
81.558
81.732
81.987
82.382
82.96
83.747
84.755
86.002
87.493
89.21
91.141
93.271
95.588
98.089
100.765
103.598
106.567
109.646
112.813
116.052
119.345
122.672
126.016
129.359
132.686
135.985
139.24
142.431
145.539
148.54
151.413
154.14
156.698
159.068
161.229
163.164
164.859
166.299
167.473
168.369
168.977
169.289
169.298
169
168.392
167.472
166.241
164.7
162.854
160.709
158.272
155.551
152.555
149.296
145.787
142.042
138.074
133.9
129.535
124.999
120.309
115.484
110.545
105.51
100.399
95.234
90.035
84.82
79.609
74.421
69.273
64.183
59.168
54.243
49.424
44.724
40.157
35.735
31.468
27.367
23.44
19.695
16.139
12.777
9.613
6.651
3.894
1.341
-1.006
-3.148
-5.088
-6.827
-8.371
-9.723
-10.889
-11.874
-12.687
-13.333
-13.822
-14.162
-14.361
-14.429
-14.375
-14.208
-13.938
-13.575
-13.129
-12.609
-12.024
-11.383
-10.697
-9.972
-9.218
-8.443
-7.653
-6.858
-6.062
-5.273
-4.497
-3.738
-3.003
-2.294
-1.616
-0.973
-0.367
0.199
0.724
1.205
1.641
2.033
2.38
2.682
2.94
3.155
3.327
3.458
3.549
3.603
3.62
3.602
3.552
3.472
3.363
3.228
3.07
2.889
2.688
2.47
2.235
1.986
1.723
1.45
1.166
0.873
0.571
0.263
-0.051
-0.371
-0.696
-1.027
-1.362
-1.703
-2.051
-2.405
-2.766
-3.136
-3.514
-3.9
-4.295
-4.699
-5.113
-5.535
-5.968
-6.41
-6.861
-7.323
-7.795
-8.276
-8.766
-9.264
-9.768
-10.278
-10.79
-11.304
-11.818
-12.328
-12.833
-13.332
-13.821
-14.299
-14.762
-15.206
-15.628
-16.024
-16.388
-16.717
-17.006
-17.252
-17.45
-17.6
-17.698
-17.743
-17.732
-17.664
-17.537
-17.35
-17.102
-16.793
-16.421
-15.987
-15.495
-14.946
-14.344
-13.692
-12.997
-12.262
-11.495
-10.703
-9.889
-9.058
-8.214
-7.361
-6.504
-5.65
-4.802
-3.965
-3.147
-2.356
-1.604
-0.899
-0.245
0.354
0.897
1.383
1.808
2.173
2.484
2.738
2.932
3.061
3.105
3.054
2.915
2.697
2.421
2.122
1.823
1.556
1.365
1.273
1.296
1.44
1.686
2.024
2.464
3.011
3.698
4.561
5.589
6.766
8.053
9.343
10.536
11.523
12.142
12.285
11.885
10.878
9.276
7.112
4.396
1.188
-2.481
-6.62
-11.194
-16.165
-21.429
-26.702
-31.677
-36.023
-39.317
-41.244
-41.472
-39.54
-35.338
-29.069
-21.14
-12.371
-3.437
5.457
13.867
21.145
27.337
32.909
39.015
47.788
60.61
77.756
99.655
126.565
157.249
189.28
218.659
239.839
248.244
240.762
214.233
165.814
95.092
4.187
-102.319
-217.673
-335.235
-449.366
-553.809
-641.276
-706.594
-747.328
-763.149
-756.123
-729.169
-684.522
-625.489
-558.061
-487.544
-417.99
-352.983
-294.049
-241.781
-197.839
-163.363
-137.001
-117.226
-102.254
-89.529
-78.161
-68.028
-58.029
-47.053
-35.047
-22.124
-9.156
2.052
10.841
17.265
21.143
22.451
21.297
17.791
12.612
7.023
1.865
-2.407
-5.504
-7.415
-8.079
-7.362
-5.309
-2.129
1.954
6.729
12.038
17.824
24.007
30.449
36.967
43.328
49.336
54.874
59.875
64.316
68.169
71.412
74.056
76.153
77.784
79.033
79.96
80.608
81.028
81.289
81.479
81.7
82.029
82.511
83.178
84.05
85.146
86.48
88.051
89.838
91.82
93.984
96.318
98.821
101.479
104.275
107.184
110.184
113.257
116.386
119.553
122.74
125.928
129.1
132.242
135.341
138.381
141.343
144.207
146.953
149.56
152.011
154.286
156.365
158.231
159.869
161.264
162.406
163.282
163.882
164.199
164.225
163.957
163.391
162.525
161.358
159.892
158.131
156.08
153.745
151.133
148.252
145.114
141.729
138.111
134.272
130.229
125.995
121.588
117.025
112.323
107.502
102.58
97.576
92.509
87.399
82.264
77.123
71.993
66.893
61.84
56.848
51.935
47.114
42.399
37.803
33.338
29.015
24.844
20.835
16.995
13.331
9.848
6.553
3.448
0.536
-2.181
-4.703
-7.029
-9.16
-11.1
-12.851
-14.417
-15.802
-17.012
-18.054
-18.933
-19.657
-20.234
-20.672
-20.979
-21.164
-21.235
-21.202
-21.073
-20.857
-20.564
-20.203
-19.781
-19.307
-18.79
-18.238
-17.658
-17.057
-16.443
-15.822
-15.199
-14.581
-13.972
-13.377
-12.801
-12.246
-11.716
-11.214
-10.742
-10.302
-9.896
-9.523
-9.185
-8.882
-8.614
-8.381
-8.181
-8.014
-7.88
-7.777
-7.702
-7.656
-7.637
-7.642
-7.669
-7.717
-7.785
-7.869
-7.969
-8.082
-8.208
-8.345
-8.492
-8.648
-8.812
-8.983
-9.16
-9.343
-9.532
-9.726
-9.926
-10.132
-10.344
-10.563
-10.79
-11.026
-11.271
-11.526
-11.791
-12.066
-12.352
-12.649
-12.958
-13.278
-13.61
-13.955
-14.312
-14.682
-15.064
-15.459
-15.865
-16.28
-16.704
-17.136
-17.572
-18.01
-18.449
-18.886
-19.318
-19.744
-20.16
-20.563
-20.95
-21.315
-21.655
-21.965
-22.24
-22.476
-22.668
-22.814
-22.91
-22.956
-22.948
-22.885
-22.763
-22.583
-22.342
-22.04
-21.674
-21.243
-20.749
-20.194
-19.579
-18.908
-18.184
-17.412
-16.597
-15.748
-14.869
-13.966
-13.043
-12.103
-11.153
-10.197
-9.242
-8.291
-7.348
-6.423
-5.523
-4.659
-3.84
-3.069
-2.349
-1.682
-1.071
-0.519
-0.025
0.418
0.806
1.137
1.402
1.579
1.657
1.643
1.545
1.379
1.18
0.97
0.784
0.67
0.655
0.757
0.981
1.311
1.737
2.268
2.91
3.7
4.673
5.82
7.127
8.552
9.985
11.328
12.457
13.203
13.452
13.12
12.14
10.515
8.279
5.468
2.135
-1.7
-6.066
-10.949
-16.283
-21.908
-27.529
-32.841
-37.5
-41.125
-43.297
-43.526
-41.539
-37.378
-31.377
-24.206
-16.494
-8.528
-0.727
6.248
12.374
18.086
24.417
33.384
46.411
63.856
86.238
114.017
146.203
180.727
213.839
239.942
254.609
254.725
236.919
198.171
137.178
54.686
-45.353
-156.325
-272.376
-388.068
-497.332
-593.851
-671.479
-725.95
-756.32
-764.016
-750.717
-718.736
-670.847
-610.605
-543.496
-474.471
-406.849
-343.236
-285.355
-234.086
-190.802
-156.58
-130.245
-110.347
-95.403
-83.209
-72.722
-63.665
-54.925
-45.292
-34.679
-23.206
-11.645
-1.709
5.954
11.4
14.426
14.986
13.242
9.374
4.133
-1.222
-5.928
-9.6
-12.002
-13.152
-12.998
-11.432
-8.55
-4.595
0.201
5.632
11.564
17.925
24.596
31.389
38.074
44.431
50.318
55.65
60.39
64.526
68.036
70.924
73.239
75.046
76.42
77.436
78.139
78.584
78.842
79.002
79.167
79.428
79.839
80.439
81.253
82.297
83.585
85.119
86.878
88.844
91.004
93.348
95.871
98.565
101.41
104.385
107.465
110.629
113.859
117.137
120.442
123.754
127.057
130.334
133.574
136.759
139.869
142.884
145.782
148.542
151.144
153.568
155.793
157.801
159.576
161.102
162.368
163.362
164.073
164.493
164.615
164.434
163.947
163.151
162.048
160.637
158.924
156.913
154.612
152.028
149.17
146.051
142.682
139.077
135.25
131.217
126.995
122.599
118.05
113.365
108.563
103.664
98.687
93.653
88.58
83.489
78.399
73.328
68.292
63.31
58.398
53.571
48.843
44.228
39.739
35.388
31.184
27.138
23.258
19.551
16.024
12.681
9.528
6.566
3.799
1.226
-1.151
-3.334
-5.325
-7.126
-8.741
-10.173
-11.429
-12.514
-13.434
-14.196
-14.808
-15.277
-15.612
-15.821
-15.913
-15.896
-15.78
-15.574
-15.287
-14.927
-14.504
-14.025
-13.5
-12.936
-12.341
-11.723
-11.088
-10.444
-9.796
-9.15
-8.513
-7.889
-7.283
-6.698
-6.139
-5.608
-5.109
-4.644
-4.215
-3.823
-3.47
-3.156
-2.881
-2.647
-2.452
-2.297
-2.18
-2.1
-2.057
-2.048
-2.071
-2.126
-2.21
-2.321
-2.458
-2.619
-2.801
-3.003
-3.223
-3.459
-3.71
-3.974
-4.25
-4.535
-4.829
-5.131
-5.44
-5.754
-6.075
-6.401
-6.732
-7.068
-7.408
-7.753
-8.101
-8.452
-8.806
-9.164
-9.524
-9.888
-10.254
-10.624
-10.998
-11.375
-11.755
-12.137
-12.52
-12.904
-13.288
-13.669
-14.047
-14.418
-14.783
-15.14
-15.487
-15.822
-16.143
-16.447
-16.73
-16.99
-17.222
-17.423
-17.588
-17.714
-17.8
-17.842
-17.839
-17.788
-17.688
-17.537
-17.334
-17.077
-16.765
-16.397
-15.972
-15.489
-14.952
-14.363
-13.723
-13.037
-12.309
-11.544
-10.749
-9.93
-9.09
-8.235
-7.368
-6.491
-5.611
-4.733
-3.86
-2.998
-2.153
-1.334
-0.552
0.184
0.87
1.501
2.077
2.596
3.055
3.453
3.797
4.085
4.313
4.476
4.552
4.531
4.419
4.226
3.973
3.693
3.411
3.157
2.976
2.894
2.924
3.076
3.326
3.665
4.101
4.644
5.325
6.18
7.198
8.36
9.628
10.899
12.074
13.047
13.653
13.782
13.37
12.355
10.747
8.581
5.859
2.632
-1.066
-5.244
-9.859
-14.866
-20.165
-25.486
-30.52
-34.948
-38.35
-40.405
-40.79
-39.051
-35.06
-28.994
-21.217
-12.49
-3.477
5.603
14.282
21.864
28.367
34.209
40.484
49.284
61.942
78.733
100.157
126.557
156.833
188.77
218.389
240.091
249.508
243.601
219.261
173.742
106.13
17.891
-86.483
-200.284
-317.381
-432.362
-539.451
-631.965
-703.83
-751.521
-774.454
-774.314
-753.381
-713.637
-657.493
-589.915
-517.149
-444.282
-375.194
-311.987
-255.596
-207.688
-170.183
-142.564
-122.662
-108.09
-96.073
-85.252
-75.53
-65.999
-55.232
-42.868
-29.307
-15.624
-3.751
5.416
12.032
16.061
17.437
16.259
12.685
7.406
1.722
-3.472
-7.75
-10.845
-12.746
-13.404
-12.661
-10.537
-7.236
-2.971
2.042
7.635
13.741
20.266
27.064
33.949
40.678
47.051
52.949
58.305
63.097
67.299
70.883
73.854
76.259
78.175
79.685
80.855
81.728
82.359
82.82
83.201
83.611
84.128
84.799
85.657
86.72
88.006
89.532
91.297
93.278
95.457
97.818
100.351
103.053
105.912
108.907
112.013
115.206
118.466
121.776
125.116
128.466
131.808
135.122
138.395
141.613
144.759
147.814
150.757
153.568
156.224
158.708
161
163.08
164.93
166.535
167.881
168.957
169.752
170.256
170.461
170.362
169.954
169.236
168.206
166.865
165.215
163.261
161.011
158.47
155.649
152.558
149.207
145.611
141.784
137.74
133.496
129.068
124.474
119.733
114.863
109.885
104.817
99.679
94.491
89.272
84.043
78.821
73.625
68.472
63.379
58.362
53.437
48.617
43.916
39.346
34.918
30.643
26.53
22.588
18.823
15.24
11.846
8.643
5.635
2.823
0.208
-2.211
-4.434
-6.464
-8.303
-9.955
-11.425
-12.718
-13.839
-14.795
-15.592
-16.238
-16.741
-17.108
-17.348
-17.469
-17.48
-17.389
-17.206
-16.938
-16.596
-16.186
-15.718
-15.2
-14.639
-14.044
-13.42
-12.776
-12.118
-11.451
-10.783
-10.117
-9.459
-8.814
-8.185
-7.575
-6.989
-6.429
-5.898
-5.397
-4.929
-4.495
-4.097
-3.735
-3.411
-3.124
-2.874
-2.662
-2.487
-2.347
-2.244
-2.174
-2.138
-2.134
-2.162
-2.219
-2.306
-2.42
-2.56
-2.725
-2.915
-3.127
-3.361
-3.615
-3.891
-4.186
-4.5
-4.835
-5.188
-5.56
-5.95
-6.357
-6.782
-7.222
-7.678
-8.148
-8.632
-9.13
-9.64
-10.163
-10.697
-11.243
-11.798
-12.362
-12.933
-13.509
-14.088
-14.669
-15.248
-15.824
-16.394
-16.956
-17.509
-18.049
-18.573
-19.077
-19.558
-20.011
-20.431
-20.815
-21.157
-21.454
-21.703
-21.902
-22.048
-22.138
-22.172
-22.146
-22.06
-21.912
-21.701
-21.425
-21.083
-20.676
-20.206
-19.675
-19.087
-18.444
-17.751
-17.013
-16.239
-15.433
-14.6
-13.744
-12.869
-11.98
-11.083
-10.183
-9.284
-8.39
-7.51
-6.652
-5.827
-5.043
-4.304
-3.613
-2.974
-2.386
-1.855
-1.379
-0.954
-0.58
-0.263
-0.01
0.155
0.223
0.2
0.094
-0.079
-0.284
-0.498
-0.686
-0.8
-0.814
-0.71
-0.481
-0.147
0.287
0.827
1.481
2.286
3.277
4.444
5.775
7.223
8.681
10.047
11.197
11.962
12.227
11.91
10.944
9.333
7.111
4.315
0.999
-2.817
-7.162
-12.021
-17.325
-22.912
-28.483
-33.728
-38.302
-41.822
-43.867
-43.947
-41.79
-37.442
-31.243
-23.868
-15.95
-7.773
0.245
7.439
13.785
19.713
26.253
35.423
48.638
66.236
88.723
116.552
148.731
183.194
216.195
242.133
256.588
256.459
238.383
199.342
138.025
55.167
-45.289
-156.719
-273.265
-389.476
-499.262
-596.277
-674.333
-729.12
-759.663
-767.377
-753.937
-721.67
-673.369
-612.62
-544.96
-475.392
-407.272
-343.233
-285.008
-233.484
-190.03
-155.719
-129.356
-109.459
-94.524
-82.337
-71.85
-62.785
-54.025
-44.352
-33.684
-22.149
-10.529
-0.536
7.182
12.686
15.776
16.402
14.726
10.934
5.778
0.522
-4.07
-7.618
-9.886
-10.895
-10.592
-8.873
-5.835
-1.725
3.22
8.796
14.864
21.354
28.142
35.043
41.823
48.261
54.216
59.603
64.383
68.545
72.067
74.954
77.253
79.032
80.367
81.332
81.973
82.347
82.526
82.596
82.666
82.824
83.126
83.612
84.308
85.23
86.393
87.8
89.433
91.273
93.309
95.531
97.937
100.518
103.256
106.131
109.12
112.202
115.361
118.579
121.835
125.113
128.394
131.663
134.909
138.116
141.262
144.327
147.29
150.129
152.824
155.354
157.699
159.838
161.755
163.435
164.864
166.029
166.919
167.524
167.837
167.85
167.56
166.963
166.057
164.843
163.323
161.502
159.384
156.976
154.286
151.325
148.103
144.633
140.929
137.004
132.876
128.559
124.072
119.433
114.66
109.774
104.794
99.738
94.629
89.485
84.325
79.169
74.034
68.938
63.898
58.931
54.051
49.274
44.612
40.078
35.684
31.442
27.36
23.447
19.71
16.156
12.79
9.616
6.638
3.858
1.276
-1.107
-3.293
-5.282
-7.077
-8.683
-10.103
-11.343
-12.409
-13.307
-14.044
-14.628
-15.068
-15.37
-15.544
-15.598
-15.541
-15.382
-15.13
-14.794
-14.382
-13.904
-13.367
-12.78
-12.151
-11.488
-10.797
-10.087
-9.362
-8.63
-7.897
-7.167
-6.445
-5.737
-5.047
-4.378
-3.733
-3.116
-2.528
-1.973
-1.451
-0.964
-0.513
-0.099
0.278
0.617
0.919
1.182
1.407
1.594
1.744
1.858
1.935
1.977
1.983
1.956
1.894
1.799
1.671
1.51
1.316
1.09
0.832
0.544
0.227
-0.12
-0.494
-0.896
-1.323
-1.777
-2.254
-2.756
-3.28
-3.826
-4.392
-4.976
-5.576
-6.189
-6.813
-7.446
-8.083
-8.723
-9.361
-9.995
-10.623
-11.24
-11.843
-12.428
-12.989
-13.522
-14.022
-14.484
-14.903
-15.274
-15.594
-15.861
-16.071
-16.222
-16.312
-16.337
-16.298
-16.19
-16.015
-15.769
-15.453
-15.066
-14.613
-14.094
-13.513
-12.875
-12.184
-11.446
-10.669
-9.86
-9.022
-8.163
-7.285
-6.394
-5.497
-4.6
-3.706
-2.822
-1.955
-1.114
-0.312
0.444
1.149
1.799
2.391
2.924
3.393
3.799
4.147
4.436
4.662
4.819
4.883
4.843
4.706
4.48
4.186
3.857
3.516
3.198
2.949
2.796
2.758
2.841
3.021
3.288
3.647
4.11
4.717
5.505
6.468
7.59
8.831
10.082
11.248
12.209
12.797
12.892
12.413
11.306
9.585
7.298
4.478
1.161
-2.636
-6.947
-11.767
-17.03
-22.595
-28.18
-33.464
-38.112
-41.74
-43.918
-44.184
-42.261
-38.168
-32.27
-25.227
-17.621
-9.778
-2.039
5.064
11.298
16.928
22.967
31.274
43.331
59.752
80.798
106.687
137.18
170.826
204.28
232.474
250.643
255.035
242.69
210.896
157.04
80.733
-15.034
-124.735
-242.064
-360.782
-475.329
-579.76
-666.627
-730.541
-769.451
-783.442
-774.481
-745.46
-698.638
-637.234
-567.457
-494.814
-423.301
-356.463
-295.868
-242.109
-196.859
-161.31
-134.08
-113.63
-98.253
-85.418
-74.2
-64.447
-55.003
-44.725
-33.569
-21.645
-9.794
0.236
7.844
13.115
15.874
16.13
14.054
9.838
4.263
-1.408
-6.406
-10.333
-12.951
-14.268
-14.223
-12.709
-9.82
-5.802
-0.896
4.691
10.815
17.388
24.285
31.309
38.219
44.795
50.891
56.415
61.331
65.622
69.264
72.262
74.663
76.531
77.941
78.967
79.656
80.065
80.269
80.357
80.436
80.599
80.902
81.385
82.075
82.987
84.136
85.525
87.133
88.943
90.943
93.123
95.479
98.004
100.679
103.483
106.392
109.386
112.446
115.556
118.694
121.844
124.987
128.109
131.198
134.239
137.212
140.097
142.872
145.518
148.015
150.342
152.479
154.408
156.112
157.577
158.789
159.738
160.413
160.805
160.906
160.711
160.217
159.421
158.322
156.921
155.221
153.227
150.945
148.383
145.55
142.455
139.111
135.531
131.728
127.719
123.518
119.142
114.61
109.939
105.148
100.257
95.285
90.251
85.175
80.077
74.975
69.888
64.832
59.826
54.884
50.024
45.258
40.6
36.064
31.661
27.401
23.295
19.351
15.577
11.978
8.56
5.327
2.282
-0.572
-3.235
-5.706
-7.986
-10.077
-11.982
-13.704
-15.248
-16.617
-17.819
-18.86
-19.745
-20.483
-21.082
-21.548
-21.891
-22.119
-22.24
-22.263
-22.197
-22.049
-21.828
-21.542
-21.199
-20.808
-20.375
-19.907
-19.412
-18.895
-18.363
-17.82
-17.273
-16.727
-16.184
-15.65
-15.128
-14.622
-14.133
-13.665
-13.219
-12.798
-12.402
-12.031
-11.688
-11.373
-11.084
-10.824
-10.592
-10.387
-10.21
-10.06
-9.938
-9.843
-9.774
-9.731
-9.714
-9.722
-9.756
-9.815
-9.9
-10.01
-10.147
-10.31
-10.499
-10.715
-10.956
-11.224
-11.518
-11.837
-12.181
-12.55
-12.945
-13.364
-13.809
-14.277
-14.769
-15.284
-15.82
-16.377
-16.951
-17.541
-18.144
-18.758
-19.379
-20.005
-20.632
-21.258
-21.879
-22.491
-23.089
-23.668
-24.223
-24.748
-25.238
-25.688
-26.093
-26.45
-26.755
-27.005
-27.197
-27.329
-27.398
-27.402
-27.339
-27.207
-27.004
-26.731
-26.386
-25.971
-25.489
-24.942
-24.333
-23.668
-22.951
-22.19
-21.392
-20.56
-19.701
-18.819
-17.92
-17.01
-16.097
-15.183
-14.275
-13.382
-12.512
-11.677
-10.885
-10.14
-9.447
-8.807
-8.224
-7.7
-7.236
-6.825
-6.47
-6.174
-5.947
-5.809
-5.771
-5.826
-5.967
-6.174
-6.416
-6.669
-6.897
-7.054
-7.112
-7.052
-6.868
-6.575
-6.177
-5.667
-5.036
-4.244
-3.257
-2.086
-0.746
0.716
2.187
3.567
4.732
5.512
5.796
5.502
4.57
3.01
0.851
-1.866
-5.091
-8.809
-13.04
-17.755
-22.885
-28.257
-33.56
-38.478
-42.649
-45.682
-47.18
-46.669
-43.909
-38.982
-32.239
-24.376
-16.039
-7.507
0.789
8.183
14.676
20.722
27.35
36.565
49.742
67.179
89.387
116.79
148.348
181.932
213.734
238.215
251.001
249.045
229.113
188.297
125.474
41.667
-58.977
-169.751
-284.595
-398.063
-504.23
-596.685
-669.502
-718.726
-743.495
-745.761
-727.853
-692.162
-641.598
-580.264
-513.619
-446.801
-383.532
-325.46
-273.351
-227.973
-190.249
-160.588
-137.718
-119.457
-103.524
-88.78
-75.127
-62.478
-50.271
-37.612
-24.393
-11.475
-0.329
8.092
13.767
16.997
18.031
16.795
13.307
8.133
2.342
-3.099
-7.657
-11.108
-13.453
-14.608
-14.404
-12.818
-9.992
-6.136
-1.473
3.842
9.738
16.111
22.807
29.636
36.346
42.734
48.675
54.084
58.925
63.179
66.821
69.854
72.328
74.309
75.872
77.084
77.991
78.646
79.122
79.509
79.914
80.42
81.078
81.925
82.983
84.268
85.796
87.565
89.555
91.748
94.13
96.689
99.424
102.324
105.371
108.541
111.811
115.16
118.571
122.026
125.505
128.989
132.461
135.904
139.307
142.654
145.924
149.097
152.151
155.065
157.819
160.392
162.764
164.916
166.829
168.491
169.887
171.005
171.834
172.365
172.589
172.502
172.099
171.377
170.334
168.972
167.293
165.301
163.002
160.404
157.515
154.345
150.906
147.211
143.274
139.11
134.735
130.166
125.421
120.52
115.481
110.324
105.071
99.74
94.354
88.932
83.494
78.061
72.65
67.281
61.972
56.738
51.597
46.564
41.653
36.877
32.25
27.782
23.483
19.364
15.431
11.691
8.151
4.815
1.686
-1.234
-3.942
-6.438
-8.725
-10.802
-12.673
-14.342
-15.813
-17.092
-18.184
-19.096
-19.836
-20.412
-20.832
-21.105
-21.241
-21.247
-21.135
-20.913
-20.592
-20.182
-19.691
-19.13
-18.507
-17.832
-17.114
-16.361
-15.58
-14.781
-13.971
-13.156
-12.344
-11.542
-10.754
-9.988
-9.247
-8.537
-7.862
-7.225
-6.631
-6.083
-5.583
-5.133
-4.737
-4.396
-4.111
-3.882
-3.71
-3.594
-3.533
-3.528
-3.576
-3.677
-3.829
-4.03
-4.279
-4.574
-4.912
-5.291
-5.707
-6.157
-6.638
-7.146
-7.677
-8.226
-8.788
-9.36
-9.938
-10.517
-11.093
-11.66
-12.213
-12.746
-13.254
-13.73
-14.17
-14.566
-14.914
-15.211
-15.451
-15.634
-15.755
-15.811
-15.801
-15.723
-15.574
-15.353
-15.06
-14.693
-14.252
-13.741
-13.161
-12.517
-11.811
-11.05
-10.238
-9.385
-8.496
-7.578
-6.636
-5.675
-4.701
-3.72
-2.74
-1.766
-0.805
0.135
1.043
1.907
2.718
3.469
4.156
4.774
5.323
5.796
6.193
6.519
6.771
6.945
7.033
7.017
6.886
6.648
6.31
5.893
5.431
4.948
4.475
4.063
3.735
3.509
3.396
3.376
3.442
3.607
3.875
4.278
4.848
5.572
6.438
7.409
8.38
9.262
9.941
10.253
10.091
9.386
8.078
6.184
3.738
0.754
-2.696
-6.573
-10.868
-15.526
-20.509
-25.708
-30.853
-35.661
-39.786
-42.799
-44.373
-44.153
-41.725
-37.032
-30.279
-21.888
-12.662
-3.21
6.17
14.942
22.663
29.495
36.014
43.524
53.79
67.754
85.712
108.02
134.435
163.51
192.481
217.069
232.731
235.922
223.813
193.706
143.55
73.399
-13.871
-113.136
-218.774
-325.281
-427.256
-518.689
-592.952
-645.664
-675.72
-684.116
-672.852
-644.584
-602.263
-550.27
-494.811
-440.557
-389.963
-344.331
-303.868
-268.432
-238.034
-211.593
-186.679
-161.79
-136.441
-110.656
-85.33
-61.242
-38.762
-18.634
-1.838
11.138
20.133
25.327
27.379
26.869
24.302
20.303
15.395
10.041
4.711
-0.265
-4.611
-8.07
-10.496
-11.785
-11.846
-10.665
-8.26
-4.689
-0.107
5.316
11.411
17.973
24.84
31.838
38.745
45.394
51.643
57.381
62.566
67.173
71.172
74.569
77.398
79.703
81.561
83.05
84.224
85.159
85.93
86.62
87.329
88.135
89.086
90.223
91.571
93.142
94.955
97.008
99.285
101.773
104.457
107.324
110.367
113.576
116.927
120.4
123.968
127.608
131.301
135.029
138.77
142.503
146.211
149.874
153.48
157.01
160.443
163.757
166.927
169.933
172.752
175.363
177.744
179.873
181.735
183.312
184.592
185.56
186.207
186.522
186.496
186.126
185.405
184.333
182.909
181.133
179.01
176.546
173.747
170.623
167.185
163.444
159.414
155.111
150.55
145.749
140.726
135.502
130.096
124.53
118.826
113.007
107.096
101.115
95.087
89.035
82.982
76.949
70.958
65.027
59.177
53.426
47.792
42.291
36.939
31.75
26.737
21.912
17.285
12.866
8.663
4.681
0.927
-2.596
-5.885
-8.939
-11.757
-14.34
-16.691
-18.812
-20.708
-22.384
-23.846
-25.101
-26.156
-27.021
-27.703
-28.214
-28.562
-28.757
-28.811
-28.733
-28.535
-28.227
-27.82
-27.325
-26.753
-26.113
-25.416
-24.672
-23.89
-23.079
-22.247
-21.402
-20.551
-19.702
-18.862
-18.035
-17.229
-16.447
-15.695
-14.976
-14.296
-13.656
-13.06
-12.509
-12.006
-11.552
-11.148
-10.797
-10.497
-10.251
-10.058
-9.918
-9.832
-9.799
-9.817
-9.886
-10.003
-10.169
-10.38
-10.636
-10.934
-11.273
-11.651
-12.067
-12.519
-13.004
-13.52
-14.064
-14.632
-15.223
-15.832
-16.455
-17.088
-17.729
-18.373
-19.017
-19.658
-20.292
-20.913
-21.517
-22.098
-22.652
-23.172
-23.653
-24.091
-24.48
-24.817
-25.1
-25.326
-25.49
-25.592
-25.627
-25.596
-25.494
-25.321
-25.074
-24.753
-24.358
-23.892
-23.357
-22.757
-22.094
-21.376
-20.608
-19.798
-18.951
-18.071
-17.163
-16.233
-15.285
-14.326
-13.359
-12.39
-11.429
-10.484
-9.566
-8.688
-7.855
-7.074
-6.35
-5.686
-5.085
-4.547
-4.07
-3.652
-3.301
-3.025
-2.843
-2.765
-2.793
-2.919
-3.132
-3.408
-3.712
-4.007
-4.242
-4.383
-4.414
-4.328
-4.138
-3.849
-3.458
-2.956
-2.324
-1.541
-0.598
0.498
1.733
3.033
4.278
5.332
6.027
6.232
5.866
4.87
3.224
0.93
-1.988
-5.472
-9.465
-13.932
-18.864
-24.242
-29.999
-35.92
-41.668
-46.873
-51.114
-54.044
-55.31
-54.456
-51.287
-45.894
-38.638
-30.267
-21.451
-12.46
-3.721
4.133
11.149
17.778
25.048
34.952
48.806
66.887
89.669
117.49
149.233
182.689
214.012
237.698
249.437
246.277
225.119
183.216
119.633
35.586
-64.696
-174.506
-287.811
-399.28
-503.148
-593.183
-663.728
-711.084
-734.533
-736.083
-718.093
-682.916
-633.41
-573.6
-508.747
-443.771
-382.248
-325.738
-274.953
-230.639
-193.683
-164.459
-141.762
-123.519
-107.549
-92.781
-79.138
-66.541
-54.457
-42.028
-29.137
-16.595
-5.806
2.326
7.795
10.903
11.903
10.733
7.413
2.492
-2.999
-8.122
-12.36
-15.496
-17.531
-18.389
-17.911
-16.08
-13.039
-8.998
-4.18
1.258
7.241
13.663
20.376
27.191
33.868
40.207
46.087
51.428
56.194
60.367
63.924
66.871
69.256
71.146
72.617
73.735
74.545
75.102
75.475
75.753
76.039
76.413
76.924
77.608
78.486
79.574
80.888
82.426
84.171
86.103
88.21
90.483
92.917
95.505
98.227
101.063
103.99
106.989
110.043
113.136
116.248
119.362
122.462
125.532
128.562
131.536
134.434
137.238
139.927
142.481
144.882
147.109
149.145
150.97
152.57
153.931
155.041
155.89
156.467
156.765
156.777
156.498
155.925
155.058
153.895
152.437
150.69
148.657
146.346
143.764
140.919
137.824
134.488
130.927
127.153
123.181
119.026
114.707
110.239
105.642
100.933
96.132
91.257
86.327
81.363
76.382
71.402
66.442
61.518
56.647
51.844
47.124
42.5
37.987
33.595
29.336
25.221
21.257
17.454
13.818
10.354
7.069
3.965
1.047
-1.685
-4.23
-6.587
-8.756
-10.741
-12.543
-14.166
-15.614
-16.893
-18.006
-18.961
-19.764
-20.422
-20.942
-21.332
-21.599
-21.753
-21.8
-21.75
-21.61
-21.388
-21.093
-20.733
-20.314
-19.845
-19.332
-18.782
-18.203
-17.6
-16.979
-16.347
-15.708
-15.069
-14.434
-13.808
-13.195
-12.598
-12.022
-11.47
-10.944
-10.447
-9.981
-9.549
-9.154
-8.796
-8.478
-8.201
-7.966
-7.774
-7.623
-7.515
-7.45
-7.427
-7.446
-7.507
-7.608
-7.75
-7.933
-8.154
-8.413
-8.708
-9.036
-9.396
-9.784
-10.198
-10.634
-11.089
-11.56
-12.044
-12.537
-13.037
-13.539
-14.039
-14.533
-15.014
-15.478
-15.919
-16.331
-16.709
-17.049
-17.347
-17.599
-17.802
-17.953
-18.048
-18.085
-18.061
-17.973
-17.819
-17.595
-17.302
-16.94
-16.51
-16.015
-15.457
-14.84
-14.171
-13.454
-12.697
-11.904
-11.08
-10.228
-9.353
-8.46
-7.553
-6.637
-5.717
-4.801
-3.899
-3.021
-2.178
-1.378
-0.627
0.069
0.709
1.288
1.806
2.265
2.665
3.001
3.262
3.432
3.497
3.457
3.321
3.099
2.816
2.509
2.214
1.979
1.842
1.819
1.913
2.113
2.41
2.802
3.301
3.927
4.699
5.632
6.719
7.945
9.245
10.502
11.581
12.321
12.584
12.285
11.37
9.815
7.622
4.828
1.473
-2.395
-6.737
-11.555
-16.846
-22.548
-28.476
-34.322
-39.715
-44.24
-47.548
-49.245
-48.873
-46.21
-41.301
-34.489
-26.459
-17.836
-8.912
-0.111
7.951
15.279
22.305
30.081
40.548
55.031
73.874
97.553
126.491
159.696
195.078
228.867
255.487
270.536
270.937
253.391
214.927
154.275
72.195
-27.39
-137.829
-253.247
-368.247
-476.818
-572.753
-650.036
-704.469
-735.141
-743.506
-731.244
-700.647
-654.476
-596.204
-531.182
-464.227
-398.529
-336.632
-280.226
-230.164
-187.771
-154.065
-127.887
-107.847
-92.547
-79.885
-68.886
-59.311
-50.109
-40.169
-29.447
-18.085
-6.851
2.638
9.791
14.685
17.157
17.195
14.974
10.706
5.144
-0.492
-5.464
-9.392
-12.048
-13.437
-13.493
-12.112
-9.38
-5.533
-0.801
4.613
10.574
16.999
23.761
30.666
37.476
43.973
50.015
55.514
60.432
64.753
68.452
71.532
74.04
76.037
77.595
78.785
79.651
80.248
80.649
80.939
81.225
81.594
82.102
82.787
83.674
84.779
86.115
87.685
89.467
91.446
93.607
95.942
98.446
101.113
103.922
106.853
109.883
112.99
116.158
119.368
122.602
125.84
129.066
132.264
135.423
138.527
141.557
144.493
147.314
149.998
152.528
154.882
157.041
158.986
160.7
162.169
163.382
164.325
164.988
165.363
165.443
165.221
164.696
163.864
162.724
161.279
159.53
157.484
155.147
152.526
149.632
146.474
143.065
139.419
135.55
131.472
127.203
122.759
118.159
113.422
108.566
103.61
98.575
93.481
88.347
83.194
78.039
72.902
67.801
62.752
57.772
52.876
48.08
43.396
38.838
34.417
30.144
26.029
22.079
18.304
14.707
11.295
8.071
5.039
2.199
-0.446
-2.898
-5.157
-7.225
-9.105
-10.8
-12.316
-13.656
-14.827
-15.834
-16.686
-17.388
-17.95
-18.378
-18.68
-18.866
-18.944
-18.921
-18.807
-18.609
-18.337
-17.999
-17.602
-17.154
-16.664
-16.138
-15.583
-15.006
-14.412
-13.807
-13.197
-12.586
-11.98
-11.381
-10.796
-10.226
-9.676
-9.149
-8.648
-8.175
-7.732
-7.321
-6.944
-6.602
-6.296
-6.028
-5.799
-5.61
-5.461
-5.354
-5.288
-5.263
-5.28
-5.337
-5.433
-5.569
-5.743
-5.955
-6.202
-6.485
-6.803
-7.155
-7.539
-7.953
-8.397
-8.867
-9.361
-9.876
-10.409
-10.957
-11.516
-12.084
-12.655
-13.229
-13.8
-14.366
-14.921
-15.461
-15.98
-16.474
-16.936
-17.362
-17.746
-18.084
-18.373
-18.61
-18.793
-18.917
-18.982
-18.984
-18.922
-18.794
-18.598
-18.333
-17.997
-17.593
-17.121
-16.586
-15.989
-15.336
-14.632
-13.884
-13.099
-12.282
-11.439
-10.573
-9.69
-8.794
-7.892
-6.986
-6.085
-5.194
-4.323
-3.484
-2.687
-1.939
-1.245
-0.61
-0.035
0.475
0.922
1.311
1.64
1.906
2.099
2.202
2.203
2.104
1.912
1.638
1.307
0.955
0.62
0.352
0.186
0.138
0.215
0.406
0.703
1.111
1.638
2.304
3.132
4.129
5.29
6.596
7.978
9.311
10.461
11.259
11.572
11.32
10.44
8.909
6.728
3.92
0.535
-3.37
-7.767
-12.647
-17.989
-23.726
-29.645
-35.407
-40.647
-44.944
-47.948
-49.302
-48.542
-45.459
-40.13
-32.904
-24.502
-15.587
-6.432
2.528
10.63
17.888
24.716
32.123
42.101
55.978
74.07
96.913
124.904
157
191.06
223.235
247.974
260.936
259.048
239.059
198.081
134.914
50.627
-50.527
-162.027
-278.011
-393.123
-501.598
-596.951
-672.908
-725.62
-754.398
-760.418
-745.344
-711.09
-659.883
-596.018
-525.607
-453.457
-382.995
-317.161
-257.757
-206.456
-165.433
-134.824
-112.624
-97.202
-86.656
-78.631
-72.104
-66.039
-58.569
-49.083
-38.038
-25.778
-13.482
-2.774
5.875
12.171
15.554
16.181
14.382
10.464
5.393
0.313
-4.168
-7.618
-9.766
-10.66
-10.254
-8.486
-5.519
-1.565
3.179
8.52
14.353
20.605
27.148
33.803
40.348
46.572
52.344
57.584
62.255
66.344
69.827
72.709
75.04
76.885
78.315
79.397
80.17
80.691
81.031
81.277
81.533
81.882
82.377
83.056
83.944
85.056
86.407
87.997
89.805
91.816
94.015
96.392
98.945
101.664
104.529
107.52
110.613
113.787
117.024
120.307
123.613
126.925
130.224
133.495
136.725
139.898
142.992
145.986
148.86
151.591
154.159
156.543
158.723
160.678
162.393
163.853
165.043
165.953
166.572
166.889
166.899
166.596
165.975
165.036
163.778
162.202
160.311
158.112
155.611
152.816
149.737
146.386
142.775
138.917
134.83
130.527
126.027
121.346
116.505
111.523
106.42
101.216
95.931
90.588
85.207
79.808
74.411
69.037
63.703
58.427
53.228
48.12
43.121
38.244
33.502
28.909
24.475
20.21
16.124
12.224
8.517
5.008
1.701
-1.4
-4.293
-6.979
-9.456
-11.726
-13.791
-15.654
-17.32
-18.793
-20.078
-21.184
-22.116
-22.881
-23.49
-23.949
-24.268
-24.456
-24.522
-24.476
-24.328
-24.086
-23.761
-23.362
-22.897
-22.375
-21.805
-21.196
-20.555
-19.889
-19.207
-18.514
-17.817
-17.121
-16.433
-15.756
-15.096
-14.455
-13.839
-13.248
-12.687
-12.158
-11.662
-11.201
-10.776
-10.389
-10.039
-9.727
-9.454
-9.218
-9.02
-8.859
-8.734
-8.646
-8.594
-8.577
-8.595
-8.647
-8.732
-8.85
-8.999
-9.178
-9.386
-9.621
-9.883
-10.171
-10.482
-10.817
-11.174
-11.552
-11.95
-12.366
-12.799
-13.245
-13.704
-14.173
-14.65
-15.131
-15.614
-16.096
-16.576
-17.05
-17.516
-17.97
-18.409
-18.828
-19.223
-19.589
-19.922
-20.217
-20.471
-20.679
-20.84
-20.951
-21.009
-21.012
-20.959
-20.847
-20.676
-20.443
-20.149
-19.791
-19.371
-18.89
-18.351
-17.758
-17.114
-16.423
-15.691
-14.926
-14.133
-13.318
-12.485
-11.638
-10.782
-9.921
-9.063
-8.211
-7.372
-6.552
-5.761
-5.011
-4.31
-3.663
-3.075
-2.547
-2.08
-1.678
-1.341
-1.063
-0.847
-0.695
-0.615
-0.624
-0.735
-0.939
-1.226
-1.577
-1.956
-2.339
-2.697
-2.982
-3.17
-3.247
-3.205
-3.064
-2.832
-2.499
-2.057
-1.472
-0.709
0.222
1.303
2.497
3.7
4.815
5.735
6.301
6.401
5.975
4.962
3.371
1.237
-1.436
-4.598
-8.212
-12.289
-16.786
-21.659
-26.808
-31.962
-36.813
-41.043
-44.233
-46.068
-46.225
-44.257
-40.042
-33.765
-25.798
-16.915
-7.783
1.381
10.109
17.711
24.222
30.073
36.377
45.237
57.988
74.903
96.485
123.07
153.531
185.618
215.332
237.078
246.492
240.546
216.136
170.515
102.825
14.616
-89.567
-202.999
-319.527
-433.741
-539.86
-631.168
-701.637
-747.841
-769.274
-767.677
-745.388
-704.398
-647.139
-578.658
-505.228
-431.92
-362.603
-299.352
-243.086
-195.508
-158.569
-131.704
-112.691
-99.094
-88.087
-78.288
-69.571
-60.962
-50.95
-39.152
-25.979
-12.534
-0.785
8.357
15.041
19.203
20.731
19.701
16.267
11.126
5.59
0.556
-3.565
-6.514
-8.285
-8.833
-8.007
-5.837
-2.533
1.687
6.61
12.076
18.024
24.371
30.976
37.657
44.178
50.344
56.038
61.198
65.802
69.828
73.247
76.067
78.337
80.134
81.542
82.624
83.422
83.988
84.392
84.724
85.089
85.562
86.19
87.005
88.025
89.268
90.751
92.47
94.406
96.539
98.853
101.337
103.99
106.799
109.742
112.798
115.941
119.151
122.412
125.706
129.011
132.31
135.584
138.818
141.998
145.109
148.13
151.04
153.819
156.446
158.901
161.165
163.217
165.04
166.619
167.938
168.987
169.755
170.23
170.405
170.275
169.835
169.083
168.017
166.637
164.946
162.948
160.65
158.06
155.184
152.035
148.623
144.961
141.063
136.945
132.622
128.112
123.432
118.601
113.64
108.567
103.403
98.167
92.881
87.565
82.24
76.924
71.637
66.396
61.22
56.125
51.126
46.24
41.479
36.856
32.384
28.073
23.932
19.972
16.198
12.616
9.233
6.052
3.076
0.306
-2.257
-4.612
-6.762
-8.709
-10.457
-12.009
-13.371
-14.548
-15.548
-16.378
-17.045
-17.559
-17.928
-18.161
-18.268
-18.258
-18.141
-17.927
-17.626
-17.246
-16.797
-16.289
-15.73
-15.129
-14.495
-13.834
-13.156
-12.466
-11.771
-11.078
-10.392
-9.718
-9.061
-8.425
-7.814
-7.232
-6.68
-6.162
-5.679
-5.232
-4.822
-4.45
-4.115
-3.817
-3.556
-3.33
-3.139
-2.982
-2.857
-2.762
-2.698
-2.661
-2.651
-2.667
-2.705
-2.766
-2.848
-2.95
-3.07
-3.209
-3.366
-3.54
-3.73
-3.938
-4.161
-4.399
-4.652
-4.92
-5.202
-5.497
-5.806
-6.129
-6.466
-6.816
-7.182
-7.561
-7.954
-8.36
-8.779
-9.209
-9.649
-10.099
-10.554
-11.015
-11.48
-11.946
-12.412
-12.877
-13.336
-13.786
-14.224
-14.646
-15.046
-15.422
-15.767
-16.08
-16.355
-16.59
-16.784
-16.932
-17.034
-17.086
-17.086
-17.032
-16.923
-16.756
-16.531
-16.246
-15.902
-15.503
-15.049
-14.545
-13.992
-13.397
-12.765
-12.103
-11.413
-10.699
-9.964
-9.213
-8.449
-7.679
-6.905
-6.134
-5.371
-4.627
-3.911
-3.232
-2.595
-2.003
-1.459
-0.964
-0.52
-0.129
0.216
0.511
0.753
0.935
1.036
1.046
0.97
0.818
0.607
0.374
0.142
-0.061
-0.188
-0.215
-0.13
0.075
0.378
0.768
1.255
1.844
2.566
3.459
4.51
5.701
6.995
8.283
9.466
10.436
11.028
11.13
10.677
9.606
7.929
5.681
2.871
-0.445
-4.232
-8.497
-13.199
-18.295
-23.683
-29.085
-34.191
-38.673
-42.105
-44.167
-44.529
-42.736
-38.67
-32.531
-24.709
-16.003
-7.089
1.827
10.285
17.611
23.864
29.508
35.688
44.541
57.4
74.502
96.297
123.062
153.595
185.568
214.936
236.07
244.602
237.546
211.865
164.906
95.951
6.701
-98.208
-211.988
-328.429
-442.106
-547.241
-637.164
-706.008
-750.531
-770.348
-767.304
-743.832
-701.997
-644.306
-575.835
-502.742
-429.953
-361.233
-298.558
-242.78
-195.546
-158.726
-131.724
-112.389
-98.373
-86.934
-76.757
-67.744
-58.943
-48.881
-37.182
-24.22
-11.056
0.396
9.262
15.698
19.65
21.016
19.873
16.372
11.197
5.643
0.6
-3.521
-6.467
-8.23
-8.773
-7.951
-5.794
-2.515
1.664
6.531
11.923
17.781
24.025
30.513
37.066
43.452
49.475
55.02
60.026
64.472
68.336
71.594
74.253
76.365
78.009
79.27
80.212
80.877
81.317
81.602
81.819
82.075
82.444
82.971
83.689
84.617
85.773
87.173
88.816
90.681
92.749
95.004
97.438
100.045
102.816
105.729
108.762
111.892
115.098
118.366
121.676
125.009
128.346
131.67
134.965
138.219
141.415
144.533
147.553
150.454
153.215
155.817
158.239
160.462
162.468
164.24
165.765
167.028
168.02
168.728
169.145
169.263
169.078
168.585
167.782
166.669
165.246
163.519
161.49
159.168
156.559
153.671
150.516
147.106
143.453
139.572
135.477
131.184
126.712
122.076
117.297
112.393
107.383
102.288
97.126
91.919
86.686
81.446
76.219
71.022
65.873
60.789
55.786
50.881
46.086
41.416
36.883
32.499
28.275
24.22
20.341
16.647
13.144
9.836
6.727
3.82
1.116
-1.383
-3.679
-5.772
-7.665
-9.361
-10.865
-12.182
-13.318
-14.279
-15.073
-15.707
-16.19
-16.531
-16.738
-16.822
-16.792
-16.658
-16.428
-16.114
-15.725
-15.27
-14.758
-14.199
-13.601
-12.973
-12.323
-11.658
-10.987
-10.315
-9.649
-8.995
-8.358
-7.742
-7.153
-6.593
-6.066
-5.575
-5.122
-4.708
-4.336
-4.006
-3.718
-3.473
-3.27
-3.108
-2.987
-2.904
-2.858
-2.849
-2.873
-2.93
-3.017
-3.132
-3.274
-3.441
-3.632
-3.843
-4.073
-4.321
-4.586
-4.865
-5.158
-5.463
-5.782
-6.112
-6.454
-6.807
-7.171
-7.545
-7.928
-8.321
-8.723
-9.133
-9.552
-9.98
-10.417
-10.863
-11.318
-11.782
-12.256
-12.737
-13.227
-13.722
-14.223
-14.728
-15.233
-15.739
-16.242
-16.741
-17.234
-17.719
-18.193
-18.653
-19.096
-19.516
-19.91
-20.273
-20.601
-20.89
-21.136
-21.337
-21.49
-21.595
-21.647
-21.645
-21.587
-21.472
-21.297
-21.062
-20.764
-20.403
-19.98
-19.497
-18.957
-18.363
-17.718
-17.028
-16.3
-15.539
-14.75
-13.937
-13.105
-12.256
-11.397
-10.532
-9.664
-8.798
-7.943
-7.106
-6.298
-5.528
-4.801
-4.123
-3.495
-2.92
-2.4
-1.935
-1.519
-1.152
-0.838
-0.589
-0.42
-0.341
-0.352
-0.445
-0.609
-0.818
-1.039
-1.233
-1.351
-1.361
-1.248
-1.006
-0.648
-0.18
0.403
1.108
1.957
2.97
4.153
5.499
6.99
8.549
10.05
11.353
12.287
12.719
12.569
11.776
10.314
8.186
5.415
2.053
-1.844
-6.248
-11.152
-16.536
-22.332
-28.318
-34.145
-39.438
-43.767
-46.78
-48.116
-47.309
-44.164
-38.782
-31.539
-23.197
-14.436
-5.519
3.122
10.832
17.66
24.064
31.098
40.812
54.539
72.554
95.359
123.303
155.247
188.948
220.46
244.156
255.66
251.919
229.716
186.222
120.407
33.562
-69.869
-183.201
-300.42
-416.07
-524.29
-618.529
-692.627
-742.954
-769.004
-772.125
-754.156
-717.134
-663.429
-597.507
-525.473
-452.041
-380.581
-313.954
-253.908
-202.128
-160.77
-129.895
-107.513
-92.025
-81.531
-73.708
-67.531
-61.907
-54.919
-45.929
-35.354
-23.52
-11.609
-1.227
7.158
13.245
16.46
16.939
15.003
10.961
5.793
0.655
-3.839
-7.264
-9.359
-10.176
-9.68
-7.816
-4.758
-0.733
4.055
9.41
15.228
21.447
27.942
34.538
41.012
47.155
52.836
57.981
62.555
66.544
69.929
72.716
74.961
76.731
78.104
79.145
79.895
80.407
80.752
81.015
81.297
81.68
82.214
82.935
83.868
85.025
86.421
88.053
89.902
91.948
94.175
96.573
99.138
101.859
104.715
107.686
110.748
113.881
117.067
120.288
123.523
126.755
129.965
133.139
136.263
139.321
142.293
145.16
147.898
150.49
152.914
155.152
157.183
158.99
160.556
161.869
162.916
163.686
164.169
164.358
164.246
163.829
163.104
162.069
160.726
159.076
157.124
154.874
152.334
149.513
146.42
143.065
139.463
135.625
131.568
127.306
122.856
118.236
113.464
108.559
103.541
98.428
93.242
88.002
82.728
77.44
72.158
66.898
61.681
56.521
51.437
46.444
41.556
36.787
32.151
27.658
23.319
19.146
15.145
11.325
7.692
4.25
1.006
-2.04
-4.883
-7.524
-9.963
-12.2
-14.237
-16.079
-17.727
-19.189
-20.468
-21.571
-22.506
-23.28
-23.901
-24.377
-24.717
-24.931
-25.027
-25.015
-24.905
-24.706
-24.428
-24.079
-23.669
-23.207
-22.702
-22.162
-21.594
-21.007
-20.407
-19.801
-19.197
-18.598
-18.011
-17.441
-16.892
-16.368
-15.871
-15.404
-14.971
-14.571
-14.207
-13.879
-13.588
-13.334
-13.115
-12.933
-12.785
-12.671
-12.589
-12.538
-12.515
-12.518
-12.545
-12.595
-12.665
-12.752
-12.856
-12.974
-13.105
-13.246
-13.397
-13.555
-13.719
-13.889
-14.062
-14.239
-14.418
-14.6
-14.785
-14.972
-15.164
-15.36
-15.561
-15.767
-15.979
-16.198
-16.423
-16.656
-16.897
-17.146
-17.406
-17.676
-17.957
-18.25
-18.555
-18.873
-19.202
-19.542
-19.892
-20.251
-20.618
-20.99
-21.366
-21.744
-22.123
-22.499
-22.872
-23.238
-23.592
-23.932
-24.252
-24.547
-24.814
-25.046
-25.239
-25.389
-25.494
-25.551
-25.557
-25.51
-25.406
-25.244
-25.021
-24.735
-24.386
-23.971
-23.49
-22.944
-22.336
-21.669
-20.946
-20.171
-19.349
-18.487
-17.591
-16.665
-15.714
-14.741
-13.75
-12.746
-11.737
-10.727
-9.721
-8.729
-7.76
-6.827
-5.941
-5.107
-4.328
-3.608
-2.947
-2.35
-1.817
-1.342
-0.925
-0.572
-0.292
-0.107
-0.029
-0.053
-0.168
-0.355
-0.581
-0.821
-1.048
-1.212
-1.283
-1.252
-1.115
-0.9
-0.625
-0.272
0.18
0.763
1.517
2.438
3.51
4.712
5.957
7.136
8.135
8.778
8.935
8.555
7.587
6.049
3.986
1.388
-1.721
-5.303
-9.364
-13.885
-18.832
-24.144
-29.599
-34.859
-39.57
-43.292
-45.67
-46.39
-45.022
-41.44
-35.822
-28.518
-20.261
-11.716
-3.104
5.159
12.433
18.805
24.778
31.413
40.728
54.011
71.466
93.538
120.543
151.332
183.66
213.606
235.619
245.388
239.981
216.367
171.918
105.892
19.722
-82.178
-192.98
-306.521
-417.342
-519.601
-607.101
-674.408
-718.134
-737.795
-735.546
-713.905
-675.375
-622.98
-560.897
-494.336
-428.073
-365.575
-308.323
-256.991
-212.338
-175.224
-145.927
-123.243
-105.113
-89.371
-75.022
-62.001
-50.19
-39.027
-27.595
-15.712
-4.184
5.608
12.832
17.514
20.009
20.613
19.191
15.718
10.733
5.244
0.196
-3.888
-6.831
-8.665
-9.313
-8.625
-6.583
-3.328
0.896
5.844
11.345
17.31
23.66
30.265
36.945
43.468
49.64
55.343
60.514
65.132
69.177
72.624
75.478
77.788
79.632
81.094
82.243
83.127
83.797
84.319
84.779
85.282
85.902
86.687
87.668
88.863
90.288
91.962
93.882
96.029
98.382
100.926
103.65
106.55
109.614
112.82
116.145
119.564
123.057
126.606
130.191
133.792
137.388
140.961
144.494
147.973
151.38
154.693
157.892
160.954
163.858
166.582
169.107
171.411
173.476
175.283
176.82
178.072
179.027
179.676
180.008
180.017
179.697
179.046
178.062
176.743
175.093
173.115
170.816
168.203
165.284
162.071
158.573
154.806
150.784
146.522
142.037
137.347
132.47
127.426
122.236
116.921
111.501
105.997
100.432
94.827
89.202
83.58
77.98
72.421
66.922
61.501
56.177
50.964
45.877
40.933
36.142
31.518
27.071
22.811
18.746
14.884
11.229
7.787
4.561
1.554
-1.234
-3.803
-6.153
-8.287
-10.208
-11.921
-13.43
-14.743
-15.865
-16.804
-17.568
-18.167
-18.608
-18.902
-19.058
-19.088
-19
-18.806
-18.515
-18.139
-17.687
-17.17
-16.596
-15.977
-15.32
-14.636
-13.931
-13.215
-12.495
-11.777
-11.069
-10.377
-9.706
-9.06
-8.445
-7.863
-7.319
-6.814
-6.352
-5.934
-5.561
-5.235
-4.957
-4.726
-4.543
-4.409
-4.321
-4.28
-4.284
-4.332
-4.423
-4.555
-4.728
-4.941
-5.191
-5.477
-5.798
-6.153
-6.539
-6.954
-7.396
-7.864
-8.355
-8.868
-9.4
-9.95
-10.517
-11.098
-11.692
-12.298
-12.913
-13.536
-14.163
-14.792
-15.42
-16.046
-16.664
-17.273
-17.87
-18.451
-19.015
-19.557
-20.075
-20.563
-21.019
-21.436
-21.812
-22.14
-22.418
-22.641
-22.806
-22.912
-22.957
-22.939
-22.856
-22.707
-22.491
-22.208
-21.856
-21.435
-20.944
-20.385
-19.761
-19.075
-18.33
-17.53
-16.682
-15.79
-14.864
-13.911
-12.934
-11.941
-10.936
-9.925
-8.914
-7.911
-6.92
-5.947
-5.001
-4.09
-3.226
-2.418
-1.671
-0.987
-0.369
0.18
0.658
1.064
1.404
1.677
1.88
2.005
2.031
1.947
1.761
1.48
1.123
0.723
0.305
-0.097
-0.432
-0.675
-0.806
-0.815
-0.719
-0.525
-0.228
0.18
0.738
1.481
2.4
3.485
4.692
5.916
7.063
8.011
8.598
8.712
8.271
7.21
5.539
3.298
0.531
-2.699
-6.37
-10.504
-15.086
-20.046
-25.221
-30.319
-35.04
-39.054
-41.999
-43.471
-42.993
-40.32
-35.519
-28.963
-21.355
-13.326
-5.151
2.789
9.897
16.187
22.11
28.703
37.922
51.127
68.614
90.748
117.765
148.549
180.977
211.451
234.778
246.824
244.727
225.458
186.358
126.576
47.305
-47.498
-151.628
-259.481
-365.878
-464.845
-549.955
-615.664
-658.741
-678.997
-678.492
-659.527
-624.777
-577.967
-524.159
-468.921
-416.264
-368.184
-325.271
-287.556
-254.901
-226.831
-201.9
-177.981
-153.815
-129.087
-104.126
-79.775
-56.717
-35.422
-16.617
-1.128
10.654
18.683
23.223
24.875
24.179
21.623
17.776
13.123
8.093
3.106
-1.52
-5.504
-8.599
-10.669
-11.627
-11.408
-10.012
-7.466
-3.838
0.713
6.021
11.923
18.234
24.81
31.488
38.064
44.375
50.282
55.681
60.534
64.818
68.509
71.617
74.179
76.243
77.893
79.204
80.234
81.053
81.732
82.348
82.997
83.751
84.656
85.75
87.057
88.589
90.364
92.38
94.62
97.072
99.72
102.549
105.553
108.718
112.025
115.451
118.97
122.562
126.208
129.889
133.585
137.277
140.944
144.571
148.142
151.639
155.041
158.326
161.471
164.453
167.253
169.848
172.218
174.342
176.204
177.788
179.082
180.071
180.746
181.097
181.116
180.798
180.139
179.137
177.792
176.106
174.081
171.724
169.042
166.044
162.739
159.14
155.259
151.111
146.712
142.078
137.228
132.181
126.956
121.574
116.058
110.428
104.706
98.915
93.077
87.214
81.348
75.5
69.689
63.936
58.26
52.679
47.209
41.866
36.667
31.624
26.751
22.059
17.559
13.259
9.169
5.294
1.64
-1.789
-4.989
-7.96
-10.7
-13.209
-15.491
-17.547
-19.381
-20.998
-22.405
-23.608
-24.613
-25.431
-26.069
-26.536
-26.844
-27.001
-27.019
-26.908
-26.68
-26.344
-25.913
-25.396
-24.804
-24.148
-23.439
-22.684
-21.896
-21.081
-20.25
-19.41
-18.57
-17.735
-16.914
-16.112
-15.334
-14.585
-13.871
-13.194
-12.558
-11.966
-11.42
-10.921
-10.471
-10.07
-9.718
-9.416
-9.162
-8.956
-8.796
-8.68
-8.607
-8.575
-8.582
-8.626
-8.704
-8.816
-8.959
-9.131
-9.329
-9.553
-9.8
-10.068
-10.355
-10.661
-10.985
-11.325
-11.681
-12.052
-12.437
-12.837
-13.25
-13.676
-14.113
-14.562
-15.023
-15.494
-15.976
-16.468
-16.971
-17.485
-18.009
-18.543
-19.087
-19.639
-20.198
-20.763
-21.332
-21.903
-22.474
-23.042
-23.605
-24.16
-24.705
-25.237
-25.752
-26.246
-26.715
-27.155
-27.559
-27.925
-28.246
-28.518
-28.74
-28.908
-29.018
-29.07
-29.061
-28.988
-28.85
-28.646
-28.374
-28.033
-27.621
-27.141
-26.593
-25.98
-25.305
-24.571
-23.785
-22.951
-22.077
-21.17
-20.235
-19.277
-18.303
-17.316
-16.325
-15.335
-14.352
-13.381
-12.431
-11.511
-10.632
-9.804
-9.03
-8.314
-7.66
-7.07
-6.546
-6.09
-5.695
-5.363
-5.098
-4.908
-4.814
-4.826
-4.938
-5.142
-5.419
-5.737
-6.07
-6.385
-6.634
-6.788
-6.828
-6.745
-6.557
-6.267
-5.868
-5.349
-4.672
-3.802
-2.748
-1.526
-0.18
1.18
2.456
3.524
4.216
4.422
4.059
3.068
1.46
-0.735
-3.48
-6.723
-10.453
-14.687
-19.401
-24.526
-29.893
-35.194
-40.116
-44.3
-47.359
-48.895
-48.439
-45.751
-40.914
-34.281
-26.538
-18.314
-9.87
-1.612
5.818
12.437
18.698
25.622
35.187
48.724
66.465
88.841
116.194
147.444
180.492
211.603
235.32
247.391
244.897
224.75
184.27
122.454
40.295
-58.163
-166.424
-278.735
-389.802
-493.876
-585.025
-657.592
-707.798
-734.934
-740.488
-726.199
-694.357
-647.675
-589.6
-525.249
-459.179
-394.473
-333.549
-278.026
-228.771
-187.019
-153.734
-127.861
-108.082
-93.058
-80.775
-70.253
-61.218
-52.644
-43.388
-33.345
-22.609
-11.863
-2.682
4.349
9.312
12.02
12.422
10.673
6.94
1.937
-3.137
-7.563
-10.986
-13.175
-14.144
-13.841
-12.162
-9.205
-5.21
-0.406
5.008
10.9
17.204
23.801
30.51
37.109
43.387
49.208
54.493
59.204
63.328
66.843
69.753
72.106
73.967
75.408
76.499
77.285
77.821
78.174
78.43
78.69
79.039
79.53
80.2
81.075
82.169
83.495
85.056
86.833
88.806
90.965
93.299
95.804
98.472
101.285
104.222
107.261
110.381
113.566
116.797
120.055
123.323
126.582
129.819
133.022
136.175
139.258
142.251
145.134
147.887
150.489
152.922
155.164
157.198
159.008
160.579
161.899
162.956
163.74
164.241
164.452
164.368
163.986
163.301
162.315
161.026
159.438
157.556
155.385
152.933
150.207
147.218
143.977
140.497
136.79
132.873
128.759
124.465
120.009
115.409
110.682
105.847
100.925
95.933
90.891
85.819
80.735
75.658
70.604
65.591
60.636
55.754
50.96
46.268
41.691
37.241
32.93
28.769
24.766
20.93
17.268
13.786
10.489
7.381
4.466
1.744
-0.782
-3.113
-5.25
-7.194
-8.949
-10.517
-11.904
-13.115
-14.155
-15.031
-15.75
-16.32
-16.749
-17.045
-17.217
-17.273
-17.223
-17.075
-16.839
-16.524
-16.138
-15.69
-15.189
-14.644
-14.062
-13.451
-12.819
-12.173
-11.519
-10.864
-10.214
-9.574
-8.95
-8.345
-7.764
-7.21
-6.688
-6.199
-5.745
-5.329
-4.952
-4.614
-4.316
-4.058
-3.84
-3.661
-3.52
-3.416
-3.349
-3.318
-3.32
-3.355
-3.421
-3.517
-3.64
-3.79
-3.964
-4.162
-4.381
-4.621
-4.881
-5.16
-5.456
-5.769
-6.097
-6.44
-6.796
-7.165
-7.544
-7.934
-8.333
-8.741
-9.157
-9.581
-10.014
-10.454
-10.9
-11.353
-11.811
-12.272
-12.736
-13.201
-13.664
-14.123
-14.577
-15.023
-15.46
-15.886
-16.296
-16.69
-17.062
-17.409
-17.727
-18.012
-18.259
-18.465
-18.628
-18.743
-18.81
-18.827
-18.79
-18.699
-18.551
-18.347
-18.083
-17.758
-17.372
-16.923
-16.414
-15.845
-15.22
-14.541
-13.812
-13.04
-12.231
-11.391
-10.525
-9.638
-8.734
-7.819
-6.897
-5.973
-5.051
-4.136
-3.235
-2.358
-1.514
-0.711
0.043
0.743
1.384
1.965
2.481
2.934
3.326
3.656
3.92
4.109
4.207
4.204
4.103
3.909
3.635
3.308
2.963
2.642
2.391
2.241
2.211
2.309
2.528
2.871
3.334
3.913
4.628
5.496
6.518
7.682
8.956
10.243
11.424
12.366
12.907
12.932
12.355
11.107
9.165
6.527
3.24
-0.61
-4.961
-9.783
-15.039
-20.695
-26.636
-32.581
-38.2
-43.137
-46.971
-49.386
-50.018
-48.392
-44.343
-38.003
-29.797
-20.548
-10.947
-1.245
8.102
16.421
23.726
30.434
37.641
47.416
61.074
78.861
101.191
128.324
159.061
191.088
220.461
241.666
250.407
243.759
218.725
172.663
104.829
16.843
-86.769
-199.344
-314.813
-427.874
-532.857
-623.195
-692.998
-738.92
-760.491
-759.441
-738.062
-698.303
-642.518
-575.603
-503.679
-431.705
-363.473
-301.035
-245.299
-197.939
-160.892
-133.669
-114.155
-100.012
-88.484
-78.216
-69.099
-60.203
-50.071
-38.314
-25.298
-12.074
-0.564
8.339
14.782
18.717
20.065
18.906
15.385
10.179
4.576
-0.535
-4.737
-7.773
-9.635
-10.283
-9.564
-7.503
-4.308
-0.194
4.625
9.983
15.818
22.045
28.523
35.073
41.461
47.495
53.06
58.094
62.577
66.488
69.8
72.52
74.698
76.411
77.743
78.758
79.5
80.021
80.391
80.7
81.051
81.52
82.151
82.977
84.014
85.281
86.794
88.549
90.526
92.706
95.072
97.614
100.328
103.202
106.214
109.341
112.557
115.842
119.179
122.548
125.929
129.302
132.649
135.954
139.204
142.382
145.466
148.437
151.272
153.953
156.459
158.77
160.867
162.731
164.348
165.705
166.788
167.588
168.094
168.3
168.199
167.787
167.063
166.024
164.673
163.01
161.043
158.776
156.218
153.378
150.266
146.893
143.274
139.422
135.353
131.082
126.628
122.006
117.237
112.34
107.334
102.238
97.073
91.858
86.614
81.361
76.116
70.899
65.726
60.616
55.584
50.645
45.815
41.106
36.532
32.103
27.831
23.724
19.792
16.04
12.476
9.104
5.927
2.949
0.171
-2.407
-4.784
-6.963
-8.946
-10.736
-12.336
-13.753
-14.992
-16.059
-16.962
-17.707
-18.303
-18.758
-19.081
-19.281
-19.367
-19.349
-19.235
-19.036
-18.761
-18.418
-18.018
-17.568
-17.078
-16.555
-16.009
-15.445
-14.871
-14.295
-13.721
-13.155
-12.603
-12.069
-11.557
-11.07
-10.611
-10.184
-9.789
-9.429
-9.104
-8.816
-8.564
-8.349
-8.171
-8.028
-7.92
-7.846
-7.804
-7.792
-7.809
-7.854
-7.923
-8.016
-8.131
-8.265
-8.417
-8.585
-8.768
-8.963
-9.169
-9.386
-9.611
-9.845
-10.086
-10.336
-10.593
-10.858
-11.13
-11.411
-11.7
-11.997
-12.302
-12.615
-12.938
-13.27
-13.612
-13.963
-14.325
-14.698
-15.082
-15.476
-15.88
-16.292
-16.712
-17.139
-17.57
-18.004
-18.439
-18.872
-19.302
-19.727
-20.144
-20.55
-20.942
-21.314
-21.664
-21.985
-22.274
-22.525
-22.735
-22.899
-23.014
-23.078
-23.087
-23.039
-22.931
-22.76
-22.526
-22.226
-21.859
-21.423
-20.919
-20.348
-19.713
-19.017
-18.263
-17.455
-16.601
-15.706
-14.778
-13.821
-12.841
-11.841
-10.826
-9.802
-8.777
-7.753
-6.738
-5.74
-4.769
-3.835
-2.951
-2.121
-1.35
-0.641
0.005
0.581
1.089
1.532
1.909
2.215
2.443
2.572
2.592
2.508
2.331
2.08
1.79
1.486
1.198
0.973
0.837
0.803
0.882
1.051
1.3
1.64
2.08
2.652
3.394
4.294
5.336
6.484
7.631
8.681
9.527
10.006
10.007
9.466
8.324
6.59
4.302
1.467
-1.863
-5.65
-9.904
-14.581
-19.634
-24.961
-30.286
-35.301
-39.681
-43.005
-44.955
-45.203
-43.296
-39.114
-32.843
-24.853
-15.912
-6.68
2.644
11.597
19.49
26.351
32.596
39.309
48.561
61.638
78.754
100.364
126.777
156.872
188.447
217.574
238.729
247.644
241.39
216.948
171.638
104.583
17.242
-85.956
-198.413
-314.111
-427.752
-533.661
-625.209
-696.339
-743.522
-766.117
-765.716
-744.523
-704.436
-647.792
-579.563
-506.04
-432.357
-362.472
-298.572
-241.648
-193.447
-155.965
-128.678
-109.362
-95.571
-84.449
-74.573
-65.807
-57.18
-47.182
-35.429
-22.33
-8.988
2.626
11.594
18.065
21.985
23.254
21.955
18.243
12.816
6.991
1.673
-2.722
-5.931
-7.944
-8.718
-8.099
-6.114
-2.974
1.101
5.895
11.244
17.086
23.337
29.853
36.451
42.896
48.989
54.615
59.709
64.25
68.216
71.577
74.34
76.556
78.302
79.662
80.701
81.461
81.995
82.373
82.684
83.035
83.501
84.128
84.948
85.98
87.24
88.746
90.494
92.463
94.634
96.99
99.52
102.222
105.082
108.079
111.19
114.389
117.656
120.975
124.327
127.69
131.047
134.379
137.671
140.91
144.079
147.158
150.128
152.967
155.655
158.172
160.5
162.619
164.51
166.158
167.55
168.675
169.52
170.076
170.336
170.294
169.945
169.287
168.319
167.041
165.456
163.569
161.385
158.913
156.161
153.139
149.858
146.332
142.574
138.598
134.422
130.059
125.53
120.85
116.04
111.119
106.105
101.017
95.877
90.703
85.514
80.33
75.169
70.047
64.982
59.99
55.086
50.285
45.6
41.042
36.624
32.356
28.248
24.307
20.54
16.954
13.553
10.341
7.322
4.496
1.864
-0.573
-2.816
-4.868
-6.731
-8.409
-9.906
-11.227
-12.378
-13.365
-14.195
-14.876
-15.415
-15.821
-16.101
-16.265
-16.321
-16.277
-16.144
-15.928
-15.64
-15.287
-14.878
-14.42
-13.922
-13.389
-12.831
-12.252
-11.66
-11.059
-10.456
-9.856
-9.262
-8.678
-8.11
-7.559
-7.028
-6.521
-6.04
-5.586
-5.16
-4.764
-4.399
-4.065
-3.762
-3.491
-3.25
-3.039
-2.858
-2.705
-2.58
-2.481
-2.408
-2.359
-2.333
-2.331
-2.349
-2.389
-2.448
-2.526
-2.623
-2.737
-2.868
-3.017
-3.184
-3.368
-3.57
-3.79
-4.028
-4.284
-4.558
-4.85
-5.159
-5.485
-5.829
-6.189
-6.567
-6.961
-7.372
-7.8
-8.244
-8.703
-9.175
-9.661
-10.157
-10.662
-11.175
-11.692
-12.212
-12.732
-13.249
-13.762
-14.267
-14.762
-15.241
-15.701
-16.137
-16.545
-16.92
-17.257
-17.553
-17.803
-18.006
-18.16
-18.261
-18.306
-18.296
-18.227
-18.098
-17.907
-17.655
-17.34
-16.962
-16.525
-16.03
-15.482
-14.882
-14.237
-13.551
-12.833
-12.087
-11.318
-10.532
-9.731
-8.922
-8.109
-7.299
-6.496
-5.705
-4.933
-4.19
-3.485
-2.828
-2.221
-1.67
-1.175
-0.738
-0.364
-0.051
0.207
0.408
0.55
0.625
0.614
0.504
0.304
0.022
-0.322
-0.694
-1.073
-1.426
-1.706
-1.888
-1.954
-1.898
-1.742
-1.495
-1.152
-0.699
-0.098
0.688
1.653
2.781
4.034
5.306
6.504
7.512
8.168
8.352
7.988
7.021
5.462
3.356
0.731
-2.379
-5.959
-10.045
-14.632
-19.657
-24.984
-30.338
-35.405
-39.856
-43.319
-45.375
-45.569
-43.627
-39.56
-33.721
-26.754
-19.231
-11.477
-3.828
3.191
9.34
14.874
20.777
28.876
40.645
56.705
77.328
102.746
132.739
165.89
198.918
226.837
244.927
249.466
237.505
206.35
153.399
78.246
-16.192
-124.496
-240.458
-357.919
-471.393
-575.01
-661.397
-725.214
-764.399
-778.967
-770.813
-742.751
-696.958
-636.596
-567.797
-496.016
-425.242
-359.015
-298.901
-245.515
-200.548
-165.19
-138.078
-117.664
-102.209
-89.201
-77.73
-67.655
-57.851
-47.165
-35.538
-23.085
-10.651
-0.016
8.175
13.999
17.278
17.979
16.245
12.216
6.609
0.738
-4.58
-8.922
-12.004
-13.839
-14.37
-13.459
-11.177
-7.76
-3.431
1.599
7.174
13.25
19.727
26.446
33.213
39.77
45.934
51.602
56.71
61.24
65.168
68.474
71.181
73.357
75.078
76.424
77.453
78.201
78.725
79.101
79.416
79.777
80.257
80.9
81.738
82.791
84.075
85.604
87.371
89.352
91.527
93.883
96.408
99.102
101.95
104.931
108.024
111.205
114.454
117.754
121.085
124.428
127.763
131.073
134.343
137.56
140.707
143.764
146.712
149.53
152.198
154.697
157.009
159.112
160.99
162.628
164.012
165.131
165.974
166.532
166.796
166.761
166.424
165.781
164.831
163.575
162.016
160.156
158.004
155.564
152.847
149.861
146.617
143.129
139.41
135.474
131.338
127.016
122.526
117.887
113.117
108.235
103.259
98.208
93.104
87.965
82.809
77.657
72.525
67.431
62.392
57.424
52.542
47.761
43.092
38.551
34.146
29.891
25.793
21.861
18.102
14.524
11.13
7.926
4.914
2.096
-0.527
-2.953
-5.185
-7.225
-9.073
-10.735
-12.213
-13.515
-14.644
-15.607
-16.412
-17.064
-17.574
-17.947
-18.194
-18.321
-18.34
-18.257
-18.082
-17.825
-17.493
-17.095
-16.64
-16.136
-15.591
-15.012
-14.407
-13.782
-13.144
-12.499
-11.853
-11.211
-10.577
-9.956
-9.352
-8.768
-8.207
-7.672
-7.165
-6.688
-6.242
-5.829
-5.449
-5.103
-4.791
-4.512
-4.267
-4.055
-3.875
-3.725
-3.605
-3.513
-3.449
-3.412
-3.4
-3.412
-3.448
-3.506
-3.585
-3.685
-3.804
-3.942
-4.099
-4.275
-4.469
-4.683
-4.915
-5.166
-5.437
-5.727
-6.037
-6.366
-6.714
-7.081
-7.467
-7.871
-8.295
-8.737
-9.198
-9.678
-10.176
-10.691
-11.223
-11.769
-12.328
-12.898
-13.478
-14.063
-14.652
-15.241
-15.829
-16.413
-16.989
-17.554
-18.103
-18.632
-19.135
-19.608
-20.044
-20.44
-20.79
-21.091
-21.339
-21.532
-21.666
-21.739
-21.748
-21.691
-21.566
-21.372
-21.106
-20.768
-20.357
-19.876
-19.326
-18.711
-18.035
-17.301
-16.516
-15.686
-14.819
-13.92
-12.992
-12.041
-11.071
-10.088
-9.099
-8.108
-7.123
-6.151
-5.201
-4.287
-3.416
-2.596
-1.831
-1.122
-0.472
0.116
0.64
1.106
1.511
1.85
2.117
2.291
2.36
2.332
2.216
2.032
1.816
1.591
1.388
1.254
1.213
1.279
1.459
1.733
2.092
2.545
3.101
3.795
4.661
5.687
6.856
8.129
9.399
10.565
11.519
12.096
12.186
11.726
10.655
8.985
6.752
3.961
0.666
-3.096
-7.333
-11.999
-17.048
-22.376
-27.704
-32.72
-37.094
-40.401
-42.319
-42.521
-40.552
-36.29
-29.926
-21.845
-12.838
-3.592
5.668
14.466
22.1
28.604
34.425
40.701
49.578
62.427
79.529
101.385
128.334
159.218
191.725
221.784
243.696
253.006
246.633
221.439
174.653
105.429
15.383
-90.848
-206.418
-325.045
-441.213
-549.05
-641.742
-713.185
-759.932
-781.479
-779.603
-756.7
-714.819
-656.443
-586.705
-511.965
-437.36
-366.813
-302.429
-245.136
-196.647
-158.932
-131.425
-111.884
-97.855
-86.489
-76.395
-67.457
-58.701
-48.606
-36.777
-23.62
-10.243
1.375
10.318
16.746
20.606
21.798
20.4
16.571
11.021
5.082
-0.328
-4.788
-8.034
-10.058
-10.816
-10.155
-8.105
-4.881
-0.709
4.193
9.659
15.625
22.006
28.655
35.387
41.96
48.172
53.904
59.091
63.711
67.739
71.148
73.946
76.184
77.94
79.302
80.334
81.079
81.59
81.94
82.219
82.534
82.962
83.551
84.332
85.325
86.548
88.018
89.731
91.667
93.806
96.132
98.634
101.31
104.147
107.123
110.217
113.404
116.663
119.978
123.331
126.702
130.071
133.421
136.737
140.006
143.211
146.332
149.348
152.238
154.982
157.561
159.953
162.139
164.101
165.822
167.289
168.489
169.411
170.044
170.38
170.412
170.135
169.548
168.647
167.432
165.905
164.072
161.936
159.505
156.787
153.791
150.529
147.014
143.258
139.277
135.086
130.703
126.144
121.429
116.576
111.606
106.538
101.393
96.19
90.951
85.696
80.443
75.213
70.024
64.893
59.837
54.874
50.016
45.28
40.677
36.221
31.923
27.792
23.838
20.069
16.49
13.107
9.926
6.948
4.175
1.61
-0.75
-2.905
-4.858
-6.611
-8.17
-9.539
-10.724
-11.734
-12.574
-13.253
-13.78
-14.163
-14.413
-14.54
-14.552
-14.461
-14.276
-14.008
-13.666
-13.261
-12.802
-12.299
-11.76
-11.194
-10.61
-10.016
-9.419
-8.826
-8.243
-7.677
-7.132
-6.614
-6.126
-5.671
-5.254
-4.876
-4.539
-4.244
-3.994
-3.787
-3.624
-3.505
-3.429
-3.395
-3.4
-3.444
-3.525
-3.639
-3.785
-3.961
-4.164
-4.392
-4.643
-4.914
-5.203
-5.509
-5.829
-6.162
-6.505
-6.858
-7.218
-7.584
-7.957
-8.335
-8.719
-9.107
-9.501
-9.901
-10.307
-10.718
-11.134
-11.557
-11.986
-12.422
-12.864
-13.314
-13.772
-14.239
-14.715
-15.2
-15.695
-16.198
-16.709
-17.227
-17.75
-18.277
-18.805
-19.332
-19.856
-20.375
-20.886
-21.388
-21.876
-22.346
-22.796
-23.22
-23.613
-23.971
-24.287
-24.558
-24.78
-24.949
-25.063
-25.118
-25.113
-25.044
-24.909
-24.707
-24.436
-24.093
-23.677
-23.188
-22.627
-21.996
-21.297
-20.536
-19.715
-18.841
-17.921
-16.963
-15.972
-14.952
-13.91
-12.85
-11.778
-10.699
-9.619
-8.543
-7.479
-6.438
-5.431
-4.468
-3.558
-2.705
-1.914
-1.188
-0.529
0.061
0.588
1.052
1.446
1.762
1.981
2.094
2.1
2.008
1.828
1.586
1.318
1.061
0.866
0.767
0.781
0.914
1.154
1.496
1.944
2.508
3.21
4.071
5.099
6.286
7.616
9.017
10.366
11.525
12.328
12.639
12.381
11.491
9.945
7.745
4.908
1.485
-2.468
-6.923
-11.869
-17.283
-23.098
-29.097
-34.941
-40.262
-44.636
-47.712
-49.13
-48.424
-45.38
-40.071
-32.837
-24.399
-15.424
-6.196
2.832
10.978
18.241
25.023
32.325
42.154
55.855
73.772
96.486
124.436
156.602
190.862
223.34
248.418
261.689
260.008
240.026
198.761
134.936
49.559
-53.098
-166.431
-284.495
-401.833
-512.547
-610.01
-687.779
-741.866
-771.512
-777.873
-762.61
-727.664
-675.308
-609.922
-537.758
-463.743
-391.404
-323.769
-262.705
-209.932
-167.674
-136.076
-113.099
-97.094
-86.122
-77.771
-70.993
-64.726
-57.071
-47.408
-36.195
-23.767
-11.318
-0.505
8.188
14.463
17.757
18.239
16.248
12.095
6.766
1.434
-3.272
-6.906
-9.191
-10.176
-9.814
-8.043
-5.029
-0.99
3.869
9.345
15.329
21.744
28.457
35.283
41.994
48.37
54.277
59.633
64.398
68.559
72.09
74.999
77.335
79.165
80.565
81.6
82.315
82.766
83.027
83.187
83.352
83.609
84.011
84.597
85.393
86.415
87.679
89.184
90.913
92.847
94.973
97.284
99.776
102.441
105.26
108.212
111.276
114.43
117.658
120.943
124.265
127.605
130.947
134.276
137.579
140.841
144.04
147.157
150.17
153.057
155.798
158.372
160.758
162.936
164.889
166.602
168.061
169.253
170.165
170.787
171.112
171.132
170.842
170.239
169.32
168.085
166.536
164.677
162.513
160.05
157.296
154.261
150.954
147.39
143.581
139.542
135.288
130.837
126.205
121.411
116.475
111.416
106.253
101.008
95.7
90.35
84.977
79.601
74.242
68.916
63.644
58.44
53.322
48.306
43.404
38.633
34.003
29.527
25.215
21.077
17.12
13.352
9.78
6.407
3.237
0.274
-2.482
-5.03
-7.37
-9.505
-11.437
-13.17
-14.707
-16.055
-17.22
-18.208
-19.026
-19.683
-20.188
-20.548
-20.774
-20.875
-20.86
-20.739
-20.523
-20.22
-19.841
-19.394
-18.89
-18.337
-17.745
-17.12
-16.473
-15.809
-15.137
-14.463
-13.792
-13.131
-12.485
-11.859
-11.255
-10.679
-10.132
-9.619
-9.14
-8.698
-8.293
-7.928
-7.601
-7.313
-7.063
-6.851
-6.675
-6.534
-6.427
-6.352
-6.308
-6.292
-6.303
-6.34
-6.4
-6.483
-6.585
-6.705
-6.843
-6.996
-7.163
-7.344
-7.539
-7.746
-7.967
-8.2
-8.445
-8.703
-8.974
-9.256
-9.55
-9.856
-10.175
-10.505
-10.849
-11.206
-11.577
-11.962
-12.361
-12.775
-13.203
-13.645
-14.098
-14.563
-15.038
-15.522
-16.012
-16.507
-17.006
-17.507
-18.008
-18.505
-18.996
-19.475
-19.939
-20.384
-20.803
-21.193
-21.549
-21.866
-22.143
-22.377
-22.565
-22.703
-22.789
-22.82
-22.795
-22.711
-22.566
-22.358
-22.086
-21.752
-21.357
-20.903
-20.394
-19.833
-19.223
-18.572
-17.884
-17.164
-16.416
-15.641
-14.843
-14.028
-13.202
-12.368
-11.532
-10.701
-9.886
-9.098
-8.348
-7.64
-6.978
-6.363
-5.796
-5.282
-4.82
-4.405
-4.035
-3.718
-3.462
-3.288
-3.211
-3.222
-3.313
-3.465
-3.644
-3.829
-3.992
-4.084
-4.078
-3.964
-3.74
-3.434
-3.064
-2.612
-2.059
-1.37
-0.509
0.521
1.702
3.012
4.364
5.648
6.752
7.501
7.766
7.494
6.634
5.199
3.232
0.717
-2.325
-5.861
-9.902
-14.429
-19.407
-24.775
-30.311
-35.681
-40.538
-44.446
-47.051
-48.038
-46.974
-43.716
-38.431
-31.451
-23.475
-15.151
-6.7
1.454
8.643
14.921
20.749
27.154
36.136
48.98
65.92
87.465
113.995
144.444
176.658
206.75
229.169
239.611
235.059
212.35
168.736
103.222
17.097
-85.23
-197.156
-312.725
-426.491
-532.649
-624.781
-696.887
-745.483
-770.131
-772.154
-753.384
-715.867
-661.976
-596.162
-524.435
-451.385
-380.297
-314.002
-254.225
-202.661
-161.457
-130.612
-108.145
-92.487
-81.768
-73.751
-67.458
-61.803
-54.906
-46.138
-35.887
-24.479
-13.07
-3.181
4.766
10.522
13.582
14.047
12.203
8.349
3.428
-1.421
-5.588
-8.681
-10.461
-10.976
-10.189
-8.04
-4.689
-0.38
4.666
10.241
16.222
22.559
29.144
35.801
42.315
48.479
54.162
59.302
63.878
67.87
71.253
74.031
76.253
77.994
79.338
80.35
81.076
81.566
81.892
82.138
82.408
82.784
83.315
84.037
84.97
86.133
87.542
89.199
91.083
93.177
95.466
97.94
100.597
103.426
106.407
109.519
112.736
116.04
119.413
122.837
126.29
129.755
133.212
136.647
140.044
143.388
146.656
149.827
152.879
155.791
158.541
161.108
163.471
165.61
167.507
169.149
170.519
171.607
172.4
172.889
173.066
172.924
172.461
171.672
170.557
169.118
167.356
165.278
162.89
160.2
157.216
153.95
150.414
146.621
142.588
138.328
133.861
129.202
124.372
119.391
114.278
109.055
103.742
98.36
92.931
87.475
82.015
76.568
71.155
65.794
60.503
55.299
50.199
45.217
40.368
35.665
31.119
26.742
22.543
18.531
14.713
11.095
7.682
4.477
1.484
-1.297
-3.865
-6.221
-8.367
-10.305
-12.041
-13.579
-14.924
-16.084
-17.065
-17.876
-18.525
-19.021
-19.373
-19.591
-19.686
-19.666
-19.543
-19.326
-19.026
-18.653
-18.216
-17.725
-17.19
-16.618
-16.019
-15.401
-14.771
-14.137
-13.506
-12.884
-12.277
-11.689
-11.127
-10.593
-10.092
-9.626
-9.198
-8.81
-8.464
-8.16
-7.9
-7.683
-7.51
-7.381
-7.294
-7.25
-7.247
-7.283
-7.358
-7.469
-7.614
-7.793
-8.004
-8.245
-8.514
-8.811
-9.134
-9.481
-9.851
-10.241
-10.651
-11.078
-11.52
-11.977
-12.447
-12.928
-13.421
-13.922
-14.433
-14.95
-15.474
-16.002
-16.533
-17.064
-17.594
-18.121
-18.642
-19.154
-19.657
-20.147
-20.622
-21.081
-21.52
-21.935
-22.323
-22.681
-23.003
-23.285
-23.524
-23.716
-23.859
-23.949
-23.985
-23.966
-23.888
-23.751
-23.552
-23.291
-22.966
-22.577
-22.122
-21.602
-21.02
-20.377
-19.677
-18.925
-18.123
-17.279
-16.399
-15.489
-14.555
-13.602
-12.632
-11.652
-10.668
-9.685
-8.708
-7.743
-6.799
-5.884
-5.009
-4.184
-3.413
-2.702
-2.051
-1.464
-0.944
-0.492
-0.103
0.221
0.475
0.653
0.735
0.711
0.588
0.376
0.093
-0.225
-0.556
-0.866
-1.107
-1.255
-1.293
-1.213
-1.036
-0.766
-0.393
0.089
0.711
1.506
2.46
3.558
4.763
5.968
7.078
7.977
8.496
8.528
8.004
6.864
5.125
2.818
-0.047
-3.399
-7.199
-11.442
-16.072
-21.054
-26.277
-31.463
-36.322
-40.495
-43.546
-45.145
-44.93
-42.492
-37.768
-30.953
-22.465
-13.107
-3.489
6.079
15.044
22.953
29.957
36.632
44.29
54.69
68.785
86.908
109.479
136.335
166.046
195.765
221.09
237.351
240.905
228.868
198.43
147.382
75.693
-13.78
-115.758
-224.276
-333.725
-438.812
-533.568
-611.468
-667.925
-701.171
-711.992
-702.658
-675.605
-633.298
-579.589
-519.744
-458.606
-400.134
-346.388
-297.716
-254.594
-217.627
-186.645
-160.91
-138.956
-118.541
-98.706
-79.798
-61.943
-45.318
-29.926
-15.2
-1.463
9.939
18.397
23.908
26.64
27.267
26.142
23.026
18.237
12.635
6.927
1.808
-2.293
-5.404
-7.456
-8.24
-7.703
-5.878
-2.866
1.09
5.792
11.13
16.979
23.233
29.762
36.361
42.813
48.939
54.614
59.778
64.404
68.465
71.94
74.839
77.214
79.147
80.722
82.003
83.039
83.881
84.597
85.277
86.017
86.888
87.933
89.18
90.649
92.356
94.314
96.52
98.952
101.587
104.408
107.404
110.567
113.883
117.33
120.883
124.517
128.21
131.944
135.699
139.454
143.186
146.877
150.51
154.07
157.538
160.893
164.114
167.177
170.062
172.749
175.217
177.445
179.415
181.112
182.521
183.63
184.429
184.906
185.055
184.87
184.348
183.485
182.283
180.741
178.863
176.655
174.124
171.278
168.127
164.683
160.957
156.965
152.723
148.245
143.551
138.658
133.585
128.353
122.984
117.497
111.915
106.258
100.548
94.808
89.058
83.318
77.608
71.948
66.355
60.846
55.44
50.149
44.99
39.975
35.116
30.425
25.911
21.583
17.449
13.514
9.783
6.262
2.951
-0.146
-3.03
-5.702
-8.162
-10.413
-12.46
-14.305
-15.956
-17.417
-18.696
-19.8
-20.736
-21.513
-22.141
-22.626
-22.98
-23.21
-23.327
-23.339
-23.256
-23.088
-22.842
-22.529
-22.156
-21.731
-21.264
-20.76
-20.228
-19.675
-19.106
-18.528
-17.946
-17.367
-16.793
-16.23
-15.682
-15.152
-14.643
-14.157
-13.696
-13.263
-12.859
-12.485
-12.143
-11.832
-11.555
-11.311
-11.1
-10.924
-10.782
-10.673
-10.598
-10.556
-10.547
-10.572
-10.63
-10.72
-10.844
-11
-11.188
-11.408
-11.659
-11.94
-12.249
-12.587
-12.951
-13.341
-13.757
-14.196
-14.657
-15.141
-15.645
-16.167
-16.705
-17.256
-17.819
-18.39
-18.965
-19.542
-20.116
-20.685
-21.245
-21.793
-22.324
-22.835
-23.32
-23.775
-24.195
-24.574
-24.907
-25.189
-25.417
-25.585
-25.693
-25.736
-25.714
-25.623
-25.463
-25.232
-24.929
-24.552
-24.103
-23.58
-22.984
-22.319
-21.588
-20.796
-19.946
-19.045
-18.1
-17.12
-16.111
-15.081
-14.035
-12.978
-11.918
-10.86
-9.813
-8.781
-7.772
-6.793
-5.854
-4.968
-4.144
-3.387
-2.702
-2.091
-1.557
-1.103
-0.73
-0.431
-0.209
-0.065
-0.007
-0.057
-0.226
-0.507
-0.891
-1.357
-1.869
-2.404
-2.925
-3.381
-3.743
-3.991
-4.115
-4.137
-4.064
-3.888
-3.599
-3.156
-2.521
-1.701
-0.709
0.413
1.561
2.637
3.519
4.033
4.06
3.52
2.352
0.568
-1.786
-4.68
-8.067
-11.925
-16.28
-21.118
-26.374
-31.896
-37.406
-42.584
-47.075
-50.489
-52.392
-52.305
-49.976
-45.452
-39.076
-31.498
-23.314
-14.807
-6.389
1.325
8.322
15.04
22.509
32.64
46.751
65.138
88.217
116.36
148.588
182.865
215.555
241.287
255.742
255.935
238.69
201.078
141.896
61.963
-35.011
-142.651
-255.023
-366.864
-472.257
-564.733
-638.619
-690.081
-717.935
-723.828
-710.121
-679.106
-633.904
-578.937
-518.944
-458.315
-400.728
-347.78
-299.864
-257.604
-221.274
-190.434
-164.594
-142.49
-122.017
-102.389
-83.846
-66.376
-50.195
-35.348
-21.208
-8.063
2.772
10.765
15.9
18.3
18.638
17.28
14.005
9.186
3.737
-1.681
-6.411
-10.045
-12.654
-14.166
-14.366
-13.23
-10.814
-7.231
-2.742
2.462
8.285
14.569
21.181
27.952
34.631
41.037
47.026
52.486
57.381
61.689
65.376
68.45
70.945
72.906
74.418
75.556
76.373
76.939
77.321
77.602
77.891
78.27
78.793
79.504
80.423
81.566
82.95
84.578
86.432
88.499
90.764
93.213
95.843
98.642
101.592
104.67
107.852
111.114
114.44
117.811
121.208
124.611
128.003
131.368
134.694
137.963
141.156
144.252
147.23
150.067
152.744
155.241
157.537
159.612
161.451
163.038
164.361
165.409
166.169
166.633
166.794
166.646
166.186
165.413
164.324
162.921
161.208
159.191
156.875
154.27
151.385
148.229
144.816
141.16
137.274
133.175
128.878
124.402
119.764
114.985
110.082
105.077
99.989
94.838
89.645
84.43
79.212
74.011
68.843
63.728
58.68
53.717
48.854
44.104
39.48
34.994
30.658
26.482
22.474
18.641
14.99
11.526
8.253
5.175
2.294
-0.39
-2.877
-5.167
-7.263
-9.166
-10.882
-12.414
-13.769
-14.951
-15.968
-16.826
-17.534
-18.1
-18.531
-18.836
-19.024
-19.104
-19.084
-18.974
-18.781
-18.516
-18.185
-17.798
-17.362
-16.885
-16.373
-15.834
-15.274
-14.699
-14.115
-13.527
-12.94
-12.359
-11.787
-11.227
-10.685
-10.161
-9.659
-9.18
-8.727
-8.3
-7.901
-7.529
-7.187
-6.874
-6.59
-6.337
-6.113
-5.918
-5.754
-5.619
-5.513
-5.436
-5.388
-5.368
-5.377
-5.414
-5.481
-5.577
-5.703
-5.859
-6.045
-6.262
-6.508
-6.785
-7.09
-7.426
-7.79
-8.183
-8.604
-9.053
-9.53
-10.034
-10.565
-11.12
-11.698
-12.298
-12.916
-13.552
-14.201
-14.86
-15.527
-16.197
-16.868
-17.536
-18.198
-18.848
-19.482
-20.095
-20.68
-21.233
-21.747
-22.217
-22.638
-23.006
-23.317
-23.569
-23.758
-23.882
-23.938
-23.925
-23.839
-23.681
-23.447
-23.138
-22.753
-22.295
-21.768
-21.173
-20.514
-19.798
-19.03
-18.218
-17.37
-16.491
-15.585
-14.66
-13.72
-12.773
-11.825
-10.882
-9.95
-9.037
-8.154
-7.312
-6.52
-5.783
-5.105
-4.489
-3.937
-3.452
-3.036
-2.682
-2.392
-2.169
-2.023
-1.973
-2.031
-2.189
-2.439
-2.763
-3.127
-3.509
-3.871
-4.165
-4.364
-4.45
-4.413
-4.27
-4.026
-3.673
-3.203
-2.577
-1.761
-0.76
0.411
1.712
3.035
4.283
5.335
6.025
6.241
5.9
4.938
3.356
1.189
-1.529
-4.743
-8.434
-12.631
-17.318
-22.43
-27.804
-33.149
-38.158
-42.493
-45.781
-47.608
-47.494
-45.172
-40.687
-34.374
-26.897
-18.87
-10.57
-2.401
4.995
11.598
17.819
24.661
34.088
47.457
65.073
87.403
114.841
146.388
180.025
212.092
237.142
250.903
250.392
232.378
193.992
134.006
53.153
-44.717
-153.173
-266.557
-379.605
-486.435
-580.928
-657.098
-710.764
-740.97
-749.059
-736.605
-705.817
-659.372
-600.717
-535.201
-467.663
-401.36
-338.865
-281.891
-231.327
-188.524
-154.53
-128.209
-108.16
-92.946
-80.434
-69.618
-60.234
-51.215
-41.408
-30.736
-19.313
-7.892
1.873
9.36
14.63
17.497
17.937
16.115
12.216
6.978
1.631
-3.075
-6.76
-9.189
-10.378
-10.269
-8.759
-5.938
-2.041
2.701
8.089
13.987
20.321
26.97
33.749
40.424
46.78
52.674
58.019
62.779
66.94
70.48
73.401
75.751
77.593
79.004
80.052
80.786
81.257
81.539
81.717
81.897
82.167
82.582
83.181
83.988
85.021
86.293
87.807
89.543
91.483
93.614
95.928
98.42
101.082
103.896
106.841
109.894
113.032
116.24
119.498
122.787
126.089
129.385
132.661
135.904
139.098
142.224
145.259
148.184
150.976
153.617
156.084
158.359
160.421
162.254
163.842
165.174
166.237
167.02
167.513
167.708
167.6
167.184
166.459
165.422
164.074
162.417
160.458
158.2
155.652
152.823
149.722
146.361
142.754
138.914
134.856
130.597
126.153
121.543
116.785
111.898
106.903
101.819
96.666
91.464
86.234
80.996
75.767
70.567
65.413
60.322
55.312
50.396
45.59
40.908
36.361
31.962
27.722
23.649
19.753
16.039
12.515
9.184
6.052
3.12
0.39
-2.137
-4.462
-6.587
-8.513
-10.243
-11.784
-13.139
-14.314
-15.317
-16.154
-16.833
-17.362
-17.751
-18.008
-18.141
-18.162
-18.078
-17.9
-17.637
-17.299
-16.894
-16.432
-15.921
-15.371
-14.789
-14.182
-13.559
-12.926
-12.289
-11.655
-11.029
-10.417
-9.822
-9.25
-8.704
-8.186
-7.7
-7.248
-6.832
-6.452
-6.11
-5.805
-5.539
-5.31
-5.119
-4.964
-4.846
-4.762
-4.713
-4.695
-4.709
-4.752
-4.822
-4.918
-5.039
-5.182
-5.348
-5.536
-5.743
-5.97
-6.215
-6.479
-6.758
-7.053
-7.362
-7.685
-8.02
-8.367
-8.725
-9.095
-9.474
-9.865
-10.265
-10.674
-11.092
-11.516
-11.947
-12.382
-12.82
-13.259
-13.696
-14.131
-14.561
-14.986
-15.402
-15.808
-16.201
-16.577
-16.933
-17.264
-17.566
-17.835
-18.066
-18.257
-18.406
-18.509
-18.565
-18.572
-18.526
-18.428
-18.274
-18.064
-17.796
-17.468
-17.079
-16.631
-16.126
-15.566
-14.955
-14.295
-13.592
-12.854
-12.085
-11.291
-10.476
-9.644
-8.799
-7.946
-7.089
-6.232
-5.38
-4.541
-3.722
-2.935
-2.19
-1.493
-0.85
-0.264
0.262
0.726
1.127
1.472
1.76
1.987
2.142
2.21
2.179
2.051
1.83
1.53
1.176
0.801
0.443
0.153
-0.035
-0.105
-0.049
0.121
0.396
0.781
1.285
1.928
2.73
3.699
4.83
6.105
7.454
8.756
9.876
10.646
10.931
10.65
9.742
8.184
5.975
3.137
-0.28
-4.221
-8.654
-13.569
-18.947
-24.722
-30.682
-36.494
-41.791
-46.151
-49.223
-50.646
-49.957
-46.947
-41.692
-34.534
-26.188
-17.311
-8.177
0.775
8.885
16.161
23.016
30.453
40.446
54.307
72.326
95.012
122.779
154.609
188.412
220.391
244.988
257.857
255.965
236.075
195.322
132.535
48.627
-52.316
-163.632
-279.392
-394.136
-501.901
-596.487
-671.938
-724.22
-752.512
-758.329
-743.474
-710.327
-661.725
-601.28
-534.361
-465.78
-398.784
-335.871
-278.7
-228.135
-185.413
-151.491
-125.222
-105.175
-89.932
-77.419
-66.635
-57.318
-48.424
-38.792
-28.34
-17.2
-6.097
3.353
10.553
15.597
18.295
18.594
16.658
12.674
7.379
2.008
-2.704
-6.396
-8.832
-10.02
-9.905
-8.379
-5.54
-1.634
3.109
8.486
14.366
20.679
27.302
34.049
40.689
47.006
52.858
58.166
62.89
67.015
70.52
73.407
75.727
77.544
78.935
79.97
80.696
81.168
81.458
81.653
81.859
82.165
82.624
83.276
84.146
85.25
86.602
88.203
90.033
92.075
94.313
96.739
99.348
102.131
105.07
108.141
111.322
114.591
117.93
121.321
124.742
128.174
131.601
135.005
138.375
141.693
144.94
148.093
151.132
154.034
156.78
159.347
161.715
163.864
165.777
167.439
168.837
169.959
170.792
171.328
171.559
171.479
171.084
170.371
169.339
167.988
166.322
164.345
162.062
159.482
156.614
153.466
150.052
146.384
142.476
138.344
134.004
129.472
124.767
119.907
114.912
109.802
104.596
99.316
93.98
88.611
83.227
77.848
72.492
67.177
61.921
56.74
51.65
46.666
41.802
37.071
32.485
28.055
23.791
19.702
15.796
12.078
8.555
5.232
2.11
-0.807
-3.519
-6.024
-8.325
-10.423
-12.321
-14.022
-15.531
-16.854
-17.997
-18.966
-19.769
-20.414
-20.91
-21.264
-21.486
-21.585
-21.57
-21.451
-21.237
-20.938
-20.563
-20.121
-19.622
-19.073
-18.484
-17.862
-17.215
-16.551
-15.877
-15.199
-14.523
-13.855
-13.2
-12.563
-11.948
-11.359
-10.798
-10.269
-9.773
-9.313
-8.89
-8.504
-8.156
-7.846
-7.574
-7.34
-7.143
-6.983
-6.858
-6.768
-6.711
-6.686
-6.692
-6.726
-6.788
-6.877
-6.99
-7.127
-7.288
-7.47
-7.674
-7.898
-8.141
-8.402
-8.68
-8.973
-9.281
-9.604
-9.939
-10.287
-10.647
-11.019
-11.403
-11.797
-12.201
-12.613
-13.034
-13.46
-13.891
-14.325
-14.759
-15.193
-15.623
-16.049
-16.468
-16.879
-17.278
-17.662
-18.027
-18.37
-18.685
-18.97
-19.22
-19.431
-19.6
-19.726
-19.806
-19.837
-19.818
-19.747
-19.621
-19.441
-19.204
-18.909
-18.555
-18.142
-17.673
-17.15
-16.574
-15.951
-15.283
-14.576
-13.836
-13.07
-12.282
-11.474
-10.652
-9.82
-8.982
-8.146
-7.313
-6.49
-5.684
-4.902
-4.157
-3.455
-2.802
-2.201
-1.654
-1.162
-0.729
-0.354
-0.031
0.238
0.452
0.602
0.669
0.64
0.521
0.322
0.062
-0.227
-0.524
-0.795
-0.997
-1.102
-1.093
-0.964
-0.737
-0.423
-0.016
0.497
1.154
1.993
3.007
4.185
5.485
6.809
8.062
9.131
9.853
10.111
9.825
8.941
7.467
5.447
2.907
-0.12
-3.618
-7.624
-12.134
-17.088
-22.35
-27.648
-32.669
-37.086
-40.532
-42.589
-42.804
-40.899
-36.88
-31.096
-24.19
-16.728
-9.031
-1.425
5.577
11.739
17.319
23.298
31.494
43.396
59.631
80.46
106.105
136.329
169.701
202.957
231.136
249.508
254.36
242.76
212.018
159.58
85.065
-8.63
-116.12
-231.255
-347.962
-460.818
-564.008
-650.242
-714.221
-753.902
-769.301
-762.223
-735.38
-690.864
-631.745
-564.116
-493.406
-423.582
-358.198
-298.825
-246.079
-201.679
-166.83
-140.135
-120.031
-104.736
-91.678
-79.985
-69.556
-59.283
-48.063
-35.85
-22.755
-9.647
1.677
10.567
17.082
21.05
22.452
21.4
18.004
12.942
7.469
2.431
-1.717
-4.682
-6.452
-6.966
-6.093
-3.878
-0.533
3.715
8.654
14.12
20.055
26.377
32.947
39.583
46.054
52.164
57.795
62.884
67.405
71.334
74.649
77.362
79.528
81.228
82.549
83.554
84.285
84.798
85.16
85.46
85.803
86.263
86.886
87.705
88.739
90.005
91.52
93.281
95.267
97.456
99.833
102.387
105.114
108.001
111.026
114.167
117.398
120.699
124.053
127.441
130.842
134.235
137.603
140.93
144.2
147.398
150.502
153.49
156.342
159.037
161.554
163.874
165.976
167.842
169.457
170.807
171.878
172.661
173.145
173.322
173.186
172.734
171.962
170.87
169.458
167.729
165.688
163.342
160.699
157.767
154.556
151.08
147.351
143.384
139.194
134.798
130.213
125.458
120.551
115.512
110.362
105.12
99.806
94.441
89.046
83.641
78.245
72.877
67.554
62.295
57.116
52.033
47.06
42.212
37.501
32.94
28.538
24.305
20.251
16.381
12.703
9.22
5.938
2.859
-0.015
-2.684
-5.147
-7.407
-9.466
-11.326
-12.991
-14.467
-15.76
-16.874
-17.818
-18.599
-19.224
-19.703
-20.043
-20.254
-20.345
-20.325
-20.203
-19.988
-19.691
-19.319
-18.882
-18.389
-17.847
-17.266
-16.652
-16.013
-15.357
-14.689
-14.016
-13.343
-12.676
-12.02
-11.378
-10.755
-10.153
-9.577
-9.029
-8.51
-8.024
-7.57
-7.149
-6.764
-6.413
-6.096
-5.814
-5.566
-5.352
-5.17
-5.02
-4.901
-4.813
-4.753
-4.722
-4.718
-4.74
-4.787
-4.857
-4.952
-5.069
-5.209
-5.372
-5.556
-5.763
-5.992
-6.243
-6.515
-6.807
-7.121
-7.454
-7.807
-8.18
-8.573
-8.985
-9.415
-9.865
-10.334
-10.819
-11.322
-11.839
-12.369
-12.911
-13.463
-14.021
-14.584
-15.148
-15.712
-16.274
-16.829
-17.375
-17.907
-18.421
-18.912
-19.376
-19.807
-20.199
-20.55
-20.855
-21.11
-21.314
-21.463
-21.555
-21.587
-21.557
-21.464
-21.305
-21.079
-20.785
-20.424
-19.996
-19.505
-18.952
-18.343
-17.68
-16.97
-16.221
-15.437
-14.625
-13.789
-12.934
-12.063
-11.184
-10.302
-9.422
-8.551
-7.697
-6.87
-6.08
-5.338
-4.65
-4.019
-3.449
-2.94
-2.498
-2.121
-1.807
-1.555
-1.372
-1.262
-1.247
-1.337
-1.526
-1.805
-2.155
-2.54
-2.938
-3.318
-3.635
-3.864
-3.991
-4.005
-3.928
-3.767
-3.512
-3.156
-2.666
-2.004
-1.179
-0.207
0.877
1.97
2.974
3.784
4.241
4.233
3.696
2.567
0.855
-1.407
-4.212
-7.505
-11.252
-15.462
-20.096
-25.113
-30.414
-35.727
-40.745
-45.143
-48.5
-50.495
-50.799
-48.951
-44.829
-38.628
-30.736
-21.953
-12.962
-3.973
4.553
11.935
18.232
23.924
30.183
39.184
52.303
69.804
92.158
119.665
151.124
184.172
214.688
236.942
246.469
240.204
215.039
168.252
99.079
9.217
-96.615
-211.508
-329.134
-443.961
-550.109
-640.826
-710.158
-754.818
-774.462
-771.016
-747.002
-704.589
-646.359
-577.43
-504.001
-431.016
-362.237
-299.631
-244.008
-196.953
-160.297
-133.437
-114.247
-100.428
-89.231
-79.341
-70.66
-62.238
-52.656
-41.559
-29.305
-16.936
-6.316
1.733
7.37
10.557
11.252
9.564
5.692
0.377
-5.147
-10.037
-13.904
-16.53
-17.906
-17.982
-16.643
-13.94
-10.09
-5.333
0.122
6.122
12.563
19.335
26.26
33.114
39.698
45.853
51.476
56.527
60.988
64.834
68.064
70.709
72.814
74.457
75.716
76.644
77.304
77.765
78.11
78.447
78.865
79.421
80.158
81.102
82.265
83.665
85.305
87.17
89.246
91.52
93.979
96.62
99.434
102.404
105.507
108.721
112.021
115.392
118.817
122.275
125.75
129.223
132.68
136.109
139.493
142.814
146.05
149.18
152.181
155.034
157.717
160.209
162.491
164.544
166.353
167.905
169.187
170.186
170.893
171.297
171.394
171.177
170.643
169.79
168.617
167.126
165.321
163.206
160.789
158.078
155.08
151.808
148.273
144.488
140.469
136.229
131.786
127.156
122.359
117.413
112.338
107.154
101.881
96.54
91.15
85.732
80.305
74.888
69.499
64.156
58.876
53.676
48.57
43.573
38.699
33.96
29.368
24.934
20.667
16.575
12.665
8.945
5.418
2.089
-1.04
-3.965
-6.686
-9.204
-11.519
-13.634
-15.551
-17.274
-18.809
-20.16
-21.334
-22.337
-23.177
-23.862
-24.4
-24.799
-25.068
-25.216
-25.252
-25.184
-25.022
-24.774
-24.449
-24.056
-23.603
-23.099
-22.55
-21.965
-21.35
-20.713
-20.059
-19.396
-18.728
-18.061
-17.399
-16.748
-16.112
-15.494
-14.897
-14.324
-13.777
-13.26
-12.772
-12.316
-11.893
-11.502
-11.144
-10.821
-10.531
-10.275
-10.054
-9.865
-9.711
-9.59
-9.501
-9.445
-9.422
-9.429
-9.468
-9.539
-9.64
-9.772
-9.936
-10.13
-10.354
-10.609
-10.894
-11.208
-11.549
-11.918
-12.314
-12.735
-13.181
-13.65
-14.143
-14.657
-15.192
-15.747
-16.319
-16.906
-17.507
-18.117
-18.735
-19.358
-19.981
-20.601
-21.215
-21.819
-22.41
-22.983
-23.535
-24.06
-24.554
-25.01
-25.424
-25.791
-26.105
-26.362
-26.559
-26.693
-26.761
-26.761
-26.691
-26.549
-26.334
-26.044
-25.68
-25.24
-24.725
-24.135
-23.473
-22.744
-21.951
-21.099
-20.194
-19.242
-18.253
-17.232
-16.188
-15.124
-14.048
-12.965
-11.883
-10.809
-9.748
-8.708
-7.697
-6.726
-5.805
-4.944
-4.15
-3.426
-2.775
-2.199
-1.703
-1.285
-0.942
-0.676
-0.49
-0.39
-0.395
-0.513
-0.738
-1.059
-1.457
-1.896
-2.354
-2.796
-3.174
-3.463
-3.646
-3.714
-3.683
-3.56
-3.331
-2.993
-2.512
-1.855
-1.037
-0.069
1.012
2.101
3.107
3.914
4.359
4.336
3.776
2.621
0.885
-1.401
-4.227
-7.521
-11.246
-15.397
-19.922
-24.788
-29.887
-34.946
-39.677
-43.729
-46.673
-48.186
-47.914
-45.448
-40.73
-33.96
-25.558
-16.332
-6.89
2.477
11.239
18.959
25.802
32.354
39.93
50.299
64.416
82.581
105.164
131.974
161.561
191.091
216.208
232.267
235.666
223.606
193.372
142.844
72.042
-16.196
-116.649
-223.401
-330.917
-434.011
-526.843
-603.044
-658.129
-690.362
-700.534
-690.905
-663.892
-621.929
-568.782
-509.596
-449.123
-391.263
-338.076
-289.932
-247.309
-210.808
-180.294
-155.07
-133.725
-114.062
-95.082
-77.075
-60.125
-44.361
-29.779
-15.805
-2.741
8.076
16.058
21.218
23.71
24.19
23.034
20.014
15.481
10.339
5.234
0.805
-2.552
-4.909
-6.201
-6.215
-4.927
-2.392
1.284
5.841
11.094
16.949
23.248
29.864
36.634
43.317
49.736
55.753
61.259
66.218
70.61
74.403
77.604
80.245
82.369
84.06
85.391
86.412
87.193
87.799
88.311
88.835
89.453
90.216
91.168
92.329
93.716
95.345
97.218
99.32
101.639
104.158
106.866
109.759
112.827
116.051
119.41
122.879
126.434
130.06
133.737
137.445
141.167
144.882
148.574
152.23
155.833
159.363
162.796
166.111
169.284
172.296
175.123
177.744
180.139
182.288
184.177
185.789
187.112
188.133
188.842
189.228
189.285
189.007
188.391
187.434
186.136
184.498
182.525
180.222
177.596
174.654
171.408
167.868
164.048
159.962
155.625
151.053
146.265
141.279
136.114
130.792
125.333
119.758
114.089
108.347
102.556
96.735
90.906
85.09
79.305
73.572
67.909
62.334
56.862
51.512
46.296
41.229
36.324
31.592
27.044
22.688
18.533
14.586
10.851
7.333
4.035
0.959
-1.895
-4.527
-6.938
-9.131
-11.109
-12.878
-14.442
-15.808
-16.983
-17.974
-18.789
-19.438
-19.929
-20.272
-20.477
-20.553
-20.511
-20.36
-20.11
-19.772
-19.355
-18.87
-18.324
-17.729
-17.092
-16.422
-15.728
-15.016
-14.294
-13.569
-12.846
-12.132
-11.432
-10.75
-10.091
-9.458
-8.855
-8.285
-7.751
-7.255
-6.798
-6.383
-6.01
-5.68
-5.393
-5.15
-4.952
-4.798
-4.688
-4.623
-4.602
-4.625
-4.691
-4.799
-4.948
-5.137
-5.364
-5.628
-5.927
-6.261
-6.627
-7.024
-7.451
-7.907
-8.389
-8.896
-9.424
-9.972
-10.537
-11.116
-11.705
-12.302
-12.902
-13.504
-14.103
-14.697
-15.281
-15.852
-16.406
-16.937
-17.439
-17.909
-18.341
-18.73
-19.07
-19.36
-19.594
-19.772
-19.889
-19.943
-19.933
-19.855
-19.709
-19.493
-19.206
-18.847
-18.416
-17.916
-17.349
-16.719
-16.03
-15.287
-14.495
-13.663
-12.797
-11.903
-10.986
-10.05
-9.102
-8.147
-7.193
-6.245
-5.309
-4.395
-3.511
-2.671
-1.882
-1.152
-0.485
0.115
0.647
1.105
1.49
1.805
2.048
2.215
2.299
2.281
2.151
1.916
1.584
1.176
0.725
0.255
-0.202
-0.598
-0.907
-1.112
-1.204
-1.202
-1.112
-0.923
-0.628
-0.196
0.407
1.167
2.074
3.09
4.113
5.05
5.788
6.162
6.061
5.418
4.17
2.332
-0.068
-3.02
-6.457
-10.342
-14.673
-19.398
-24.486
-29.831
-35.165
-40.198
-44.576
-47.866
-49.738
-49.829
-47.721
-43.344
-36.889
-28.772
-19.8
-10.582
-1.418
7.151
14.683
21.344
27.731
35.185
45.501
59.652
77.968
100.846
128.09
158.238
188.408
214.149
230.736
234.502
222.563
192.13
141.03
69.247
-20.361
-122.504
-231.216
-340.913
-446.332
-541.547
-620.067
-677.297
-711.446
-723.263
-714.959
-688.903
-647.5
-594.549
-535.291
-474.567
-416.339
-362.694
-314.028
-270.85
-233.795
-202.71
-176.839
-154.71
-134.087
-114.007
-94.804
-76.605
-59.584
-43.76
-28.602
-14.451
-2.652
6.185
12.059
15.139
16.093
15.279
12.474
7.998
2.708
-2.694
-7.522
-11.351
-14.202
-16.008
-16.557
-15.798
-13.762
-10.55
-6.405
-1.524
3.982
9.98
16.362
22.995
29.675
36.184
42.342
48.027
53.174
57.761
61.756
65.139
67.922
70.152
71.912
73.286
74.339
75.12
75.683
76.096
76.45
76.842
77.345
78.003
78.847
79.896
81.168
82.679
84.427
86.391
88.552
90.895
93.41
96.092
98.93
101.902
104.986
108.158
111.399
114.693
118.02
121.361
124.697
128.01
131.284
134.506
137.659
140.723
143.677
146.501
149.173
151.675
153.987
156.088
157.961
159.59
160.962
162.064
162.885
163.416
163.647
163.573
163.189
162.493
161.482
160.157
158.52
156.575
154.328
151.785
148.956
145.849
142.477
138.85
134.984
130.893
126.593
122.1
117.432
112.608
107.646
102.566
97.389
92.133
86.82
81.469
76.101
70.734
65.388
60.081
54.83
49.653
44.564
39.58
34.715
29.981
25.391
20.957
16.689
12.595
8.685
4.964
1.439
-1.886
-5.006
-7.92
-10.626
-13.124
-15.414
-17.497
-19.377
-21.056
-22.539
-23.832
-24.941
-25.871
-26.63
-27.226
-27.667
-27.962
-28.119
-28.147
-28.057
-27.856
-27.556
-27.164
-26.691
-26.145
-25.537
-24.874
-24.165
-23.42
-22.645
-21.848
-21.037
-20.219
-19.4
-18.586
-17.783
-16.996
-16.229
-15.488
-14.774
-14.093
-13.445
-12.834
-12.261
-11.727
-11.234
-10.783
-10.374
-10.007
-9.683
-9.401
-9.161
-8.963
-8.805
-8.687
-8.607
-8.565
-8.56
-8.59
-8.655
-8.754
-8.886
-9.049
-9.243
-9.467
-9.719
-9.997
-10.3
-10.627
-10.976
-11.346
-11.735
-12.144
-12.57
-13.013
-13.472
-13.944
-14.429
-14.924
-15.427
-15.936
-16.449
-16.961
-17.471
-17.975
-18.471
-18.956
-19.429
-19.884
-20.318
-20.728
-21.109
-21.456
-21.764
-22.03
-22.249
-22.417
-22.533
-22.595
-22.6
-22.546
-22.432
-22.257
-22.018
-21.716
-21.349
-20.915
-20.414
-19.85
-19.224
-18.54
-17.801
-17.011
-16.179
-15.309
-14.411
-13.488
-12.547
-11.592
-10.628
-9.66
-8.695
-7.737
-6.79
-5.865
-4.968
-4.112
-3.305
-2.555
-1.866
-1.242
-0.685
-0.196
0.224
0.582
0.878
1.106
1.259
1.318
1.274
1.129
0.89
0.57
0.196
-0.196
-0.567
-0.864
-1.052
-1.113
-1.042
-0.849
-0.541
-0.111
0.448
1.158
2.039
3.101
4.336
5.725
7.194
8.614
9.842
10.704
11.064
10.841
9.973
8.44
6.245
3.414
0.007
-3.915
-8.32
-13.196
-18.523
-24.232
-30.094
-35.757
-40.834
-44.887
-47.563
-48.5
-47.234
-43.579
-37.646
-29.823
-20.899
-11.565
-2.085
7.112
15.388
22.813
29.858
37.58
48.008
62.448
81.115
104.432
132.681
164.657
198.064
228.974
251.809
262.246
257.374
234.138
189.849
123.688
37.011
-65.817
-177.963
-293.298
-406.431
-511.532
-602.304
-673.091
-720.241
-743.077
-743.664
-724.419
-687.738
-636.54
-574.941
-508.264
-441.489
-378.265
-320.186
-267.999
-222.502
-184.621
-154.76
-131.72
-113.383
-97.496
-82.954
-69.652
-57.472
-45.831
-33.795
-21.204
-8.886
1.715
9.67
14.968
17.92
18.78
17.453
13.948
8.821
3.134
-2.145
-6.487
-9.681
-11.74
-12.591
-12.077
-10.187
-7.074
-2.964
1.909
7.384
13.386
19.813
26.518
33.311
39.95
46.234
52.043
57.298
61.966
66.032
69.475
72.302
74.566
76.339
77.699
78.717
79.439
79.921
80.232
80.463
80.717
81.074
81.585
82.284
83.194
84.33
85.708
87.328
89.17
91.215
93.45
95.864
98.452
101.207
104.107
107.131
110.256
113.462
116.732
120.047
123.389
126.737
130.074
133.385
136.656
139.87
143.006
146.044
148.962
151.738
154.352
156.784
159.012
161.018
162.785
164.298
165.544
166.511
167.187
167.564
167.635
167.395
166.839
165.966
164.775
163.269
161.449
159.323
156.897
154.178
151.177
147.905
144.374
140.599
136.595
132.376
127.961
123.367
118.614
113.72
108.705
103.591
98.396
93.143
87.851
82.541
77.233
71.946
66.698
61.507
56.39
51.364
46.443
41.641
36.972
32.447
28.078
23.874
19.845
15.996
12.335
8.866
5.593
2.519
-0.354
-3.026
-5.497
-7.769
-9.843
-11.725
-13.416
-14.924
-16.253
-17.41
-18.401
-19.236
-19.92
-20.463
-20.874
-21.161
-21.333
-21.4
-21.37
-21.252
-21.056
-20.79
-20.463
-20.083
-19.657
-19.194
-18.7
-18.183
-17.648
-17.102
-16.55
-15.998
-15.45
-14.909
-14.381
-13.868
-13.374
-12.899
-12.448
-12.02
-11.619
-11.244
-10.898
-10.579
-10.29
-10.031
-9.802
-9.602
-9.432
-9.291
-9.18
-9.097
-9.042
-9.016
-9.018
-9.048
-9.106
-9.192
-9.307
-9.45
-9.62
-9.817
-10.041
-10.291
-10.567
-10.869
-11.195
-11.546
-11.922
-12.322
-12.746
-13.193
-13.662
-14.15
-14.657
-15.18
-15.717
-16.266
-16.822
-17.383
-17.948
-18.512
-19.074
-19.628
-20.172
-20.7
-21.208
-21.691
-22.142
-22.558
-22.931
-23.26
-23.539
-23.767
-23.94
-24.055
-24.109
-24.101
-24.029
-23.889
-23.682
-23.403
-23.054
-22.635
-22.148
-21.595
-20.98
-20.308
-19.582
-18.812
-18.004
-17.162
-16.292
-15.4
-14.489
-13.565
-12.634
-11.7
-10.77
-9.851
-8.954
-8.089
-7.267
-6.496
-5.781
-5.127
-4.536
-4.01
-3.551
-3.154
-2.817
-2.547
-2.352
-2.251
-2.252
-2.355
-2.555
-2.838
-3.179
-3.545
-3.897
-4.186
-4.376
-4.452
-4.407
-4.25
-3.99
-3.62
-3.131
-2.501
-1.711
-0.75
0.374
1.646
2.996
4.3
5.427
6.208
6.512
6.26
5.388
3.872
1.711
-1.074
-4.437
-8.321
-12.7
-17.564
-22.891
-28.613
-34.517
-40.266
-45.498
-49.794
-52.807
-54.179
-53.446
-50.396
-45.1
-37.892
-29.478
-20.509
-11.256
-2.161
6.102
13.531
20.516
28.029
38.033
51.831
69.727
92.278
119.909
151.611
185.308
217.208
241.794
254.766
253.066
233.416
192.888
130.213
46.351
-54.531
-165.962
-282.133
-397.713
-506.921
-603.239
-680.306
-734.149
-763.973
-770.873
-756.439
-722.542
-671.386
-607.258
-536.32
-463.445
-392.131
-325.389
-265.082
-212.917
-171.104
-139.801
-116.995
-101.06
-90.08
-81.666
-74.777
-68.371
-60.577
-50.791
-39.474
-26.961
-14.432
-3.529
5.265
11.656
15.084
15.719
13.9
9.931
4.783
-0.389
-4.963
-8.5
-10.72
-11.672
-11.307
-9.558
-6.585
-2.602
2.192
7.602
13.518
19.866
26.514
33.282
39.941
46.279
52.161
57.507
62.279
66.462
70.032
72.993
75.395
77.302
78.787
79.917
80.733
81.291
81.664
81.941
82.226
82.605
83.131
83.843
84.766
85.915
87.305
88.938
90.792
92.851
95.101
97.532
100.142
102.922
105.852
108.91
112.074
115.321
118.636
121.998
125.389
128.788
132.178
135.544
138.872
142.146
145.347
148.451
151.439
154.288
156.978
159.488
161.796
163.884
165.735
167.333
168.665
169.719
170.483
170.948
171.105
170.95
170.477
169.685
168.572
167.139
165.389
163.327
160.958
158.292
155.335
152.101
148.599
144.846
140.854
136.639
132.219
127.61
122.832
117.904
112.846
107.677
102.419
97.093
91.719
86.318
80.911
75.516
70.153
64.84
59.595
54.435
49.376
44.432
39.618
34.947
30.431
26.081
21.906
17.916
14.117
10.515
7.116
3.923
0.939
-1.834
-4.397
-6.749
-8.892
-10.83
-12.565
-14.103
-15.449
-16.608
-17.589
-18.397
-19.042
-19.532
-19.875
-20.081
-20.159
-20.119
-19.97
-19.722
-19.385
-18.969
-18.483
-17.935
-17.336
-16.694
-16.017
-15.313
-14.589
-13.854
-13.113
-12.373
-11.64
-10.919
-10.216
-9.533
-8.875
-8.246
-7.648
-7.083
-6.553
-6.061
-5.607
-5.192
-4.817
-4.483
-4.189
-3.936
-3.723
-3.55
-3.416
-3.321
-3.262
-3.241
-3.255
-3.304
-3.388
-3.505
-3.655
-3.837
-4.049
-4.291
-4.56
-4.855
-5.176
-5.52
-5.887
-6.276
-6.684
-7.112
-7.559
-8.022
-8.5
-8.991
-9.494
-10.005
-10.522
-11.044
-11.565
-12.085
-12.6
-13.106
-13.603
-14.086
-14.552
-14.996
-15.415
-15.803
-16.157
-16.47
-16.739
-16.96
-17.129
-17.244
-17.304
-17.305
-17.245
-17.123
-16.937
-16.686
-16.369
-15.984
-15.532
-15.012
-14.428
-13.783
-13.079
-12.321
-11.514
-10.663
-9.778
-8.863
-7.924
-6.966
-5.994
-5.012
-4.028
-3.048
-2.075
-1.117
-0.18
0.727
1.591
2.405
3.165
3.865
4.504
5.08
5.588
6.029
6.409
6.726
6.977
7.155
7.238
7.216
7.096
6.888
6.61
6.296
5.968
5.662
5.426
5.289
5.27
5.376
5.584
5.886
6.29
6.807
7.475
8.331
9.362
10.557
11.877
13.219
14.488
15.563
16.268
16.483
16.126
15.141
13.543
11.374
8.66
5.445
1.748
-2.457
-7.151
-12.277
-17.694
-23.133
-28.287
-32.798
-36.271
-38.259
-38.271
-36.062
-31.682
-25.481
-18.121
-10.168
-1.886
6.292
13.73
20.386
26.633
33.6
43.329
56.994
74.809
97.121
124.179
155.31
188.874
221.082
246.332
260.647
261.147
244.978
209.742
153.393
75.752
-19.418
-125.782
-238.048
-351.006
-459.429
-558.007
-639.737
-699.361
-735.631
-749.375
-741.848
-715.257
-671.533
-613.332
-546.725
-477.245
-408.443
-343.462
-284.098
-231.159
-186.456
-151.426
-124.633
-104.409
-89.104
-76.277
-64.995
-55.11
-45.458
-34.823
-23.178
-10.686
1.796
12.481
20.743
26.675
30.096
30.967
29.42
25.593
20.204
14.55
9.439
5.282
2.356
0.647
0.215
1.195
3.521
6.963
11.298
16.315
21.861
27.891
34.307
40.957
47.646
54.123
60.209
65.803
70.845
75.318
79.2
82.471
85.154
87.318
89.037
90.392
91.441
92.22
92.787
93.216
93.595
94.029
94.591
95.324
96.26
97.419
98.817
100.467
102.364
104.482
106.804
109.314
112.003
114.868
117.894
121.061
124.345
127.724
131.176
134.683
138.225
141.781
145.33
148.855
152.338
155.765
159.119
162.378
165.522
168.528
171.375
174.044
176.513
178.762
180.774
182.531
184.02
185.227
186.143
186.756
187.059
187.046
186.712
186.055
185.074
183.77
182.144
180.203
177.951
175.398
172.551
169.422
166.023
162.366
158.468
154.343
150.009
145.482
140.781
135.925
130.935
125.831
120.632
115.36
110.035
104.678
99.31
93.949
88.615
83.327
78.101
72.954
67.903
62.962
58.145
53.464
48.931
44.557
40.352
36.323
32.478
28.823
25.362
22.099
19.038
16.178
13.522
11.068
8.814
6.759
4.899
3.229
1.746
0.441
-0.689
-1.654
-2.459
-3.114
-3.626
-4.003
-4.256
-4.391
-4.42
-4.349
-4.19
-3.949
-3.636
-3.259
-2.827
-2.346
-1.825
-1.271
-0.69
-0.089
0.526
1.149
1.775
2.399
3.017
3.624
4.218
4.795
5.353
5.889
6.402
6.888
7.348
7.78
8.182
8.554
8.894
9.204
9.481
9.727
9.94
10.122
10.272
10.39
10.475
10.528
10.548
10.534
10.488
10.408
10.296
10.152
9.976
9.769
9.531
9.264
8.966
8.64
8.285
7.901
7.49
7.053
6.591
6.106
5.6
5.077
4.537
3.985
3.424
2.856
2.286
1.715
1.147
0.586
0.037
-0.495
-1.005
-1.488
-1.939
-2.351
-2.719
-3.039
-3.308
-3.522
-3.679
-3.776
-3.809
-3.777
-3.678
-3.51
-3.271
-2.959
-2.573
-2.117
-1.591
-0.998
-0.343
0.37
1.136
1.946
2.794
3.674
4.581
5.509
6.453
7.408
8.366
9.324
10.274
11.208
12.117
12.988
13.812
14.58
15.289
15.932
16.509
17.015
17.45
17.82
18.124
18.357
18.51
18.564
18.511
18.352
18.094
17.749
17.344
16.912
16.491
16.132
15.869
15.717
15.684
15.757
15.933
16.216
16.619
17.163
17.869
18.746
19.786
20.972
22.235
23.451
24.484
25.167
25.369
25.011
24.034
22.418
20.163
17.29
13.848
9.892
5.453
0.54
-4.825
-10.578
-16.505
-22.269
-27.5
-31.776
-34.745
-36.05
-35.238
-32.11
-26.752
-19.519
-11.143
-2.295
6.739
15.508
23.346
30.268
36.708
43.692
53.219
66.636
84.26
106.636
134.204
165.932
199.674
231.575
256.012
268.562
266.118
245.378
203.423
139.133
53.551
-49.095
-161.996
-279.049
-394.643
-502.672
-596.812
-671.149
-721.781
-748.036
-751.611
-734.494
-699.217
-648.786
-586.959
-519.116
-450.027
-382.88
-320.065
-263.163
-212.991
-170.719
-137.258
-111.465
-91.908
-77.177
-65.246
-55.126
-46.549
-38.464
-29.669
-20.047
-9.726
0.582
9.283
15.793
20.222
22.383
22.197
19.817
15.431
9.782
4.11
-0.85
-4.747
-7.354
-8.684
-8.687
-7.26
-4.512
-0.7
3.938
9.196
14.944
21.116
27.595
34.196
40.689
46.859
52.567
57.735
62.325
66.322
69.707
72.485
74.707
76.444
77.773
78.767
79.472
79.942
80.247
80.473
80.724
81.083
81.605
82.327
83.272
84.455
85.891
87.578
89.496
91.625
93.95
96.459
99.148
102.006
105.013
108.147
111.383
114.701
118.081
121.505
124.952
128.402
131.836
135.238
138.594
141.887
145.096
148.199
151.173
153.996
156.648
159.108
161.353
163.364
165.125
166.619
167.833
168.755
169.373
169.678
169.662
169.319
168.646
167.64
166.3
164.628
162.626
160.299
157.654
154.7
151.444
147.898
144.074
139.986
135.65
131.08
126.294
121.309
116.145
110.821
105.358
99.775
94.094
88.336
82.522
76.672
70.808
64.949
59.114
53.321
47.59
41.937
36.378
30.928
25.602
20.413
15.374
10.496
5.79
1.263
-3.075
-7.218
-11.161
-14.899
-18.428
-21.746
-24.851
-27.744
-30.424
-32.895
-35.157
-37.215
-39.074
-40.737
-42.212
-43.505
-44.622
-45.572
-46.362
-47.002
-47.498
-47.862
-48.101
-48.225
-48.245
-48.168
-48.006
-47.767
-47.46
-47.095
-46.68
-46.224
-45.735
-45.222
-44.692
-44.152
-43.611
-43.074
-42.549
-42.042
-41.558
-41.103
-40.683
-40.3
-39.96
-39.666
-39.421
-39.23
-39.095
-39.019
-39.003
-39.05
-39.161
-39.336
-39.576
-39.881
-40.25
-40.682
-41.176
-41.73
-42.344
-43.015
-43.74
-44.519
-45.348
-46.223
-47.142
-48.099
-49.091
-50.112
-51.158
-52.224
-53.304
-54.393
-55.485
-56.576
-57.661
-58.733
-59.786
-60.813
-61.807
-62.762
-63.671
-64.527
-65.325
-66.06
-66.727
-67.324
-67.847
-68.293
-68.658
-68.943
-69.144
-69.26
-69.291
-69.236
-69.096
-68.875
-68.574
-68.2
-67.756
-67.249
-66.686
-66.076
-65.427
-64.745
-64.038
-63.312
-62.572
-61.828
-61.086
-60.354
-59.64
-58.954
-58.306
-57.709
-57.175
-56.711
-56.323
-56.015
-55.789
-55.651
-55.603
-55.638
-55.762
-55.976
-56.287
-56.715
-57.271
-57.946
-58.733
-59.611
-60.545
-61.511
-62.475
-63.389
-64.224
-64.962
-65.592
-66.133
-66.591
-66.954
-67.216
-67.343
-67.299
-67.094
-66.74
-66.269
-65.781
-65.365
-65.131
-65.246
-65.819
-66.92
-68.612
-70.878
-73.684
-77.022
-80.822
-85.048
-89.697
-94.714
-100.068
-105.659
-111.223
-116.476
-121.071
-124.57
-126.64
-126.916
-124.975
-120.749
-114.431
-106.431
-97.547
-88.39
-79.264
-70.717
-63.189
-56.51
-50.083
-42.567
-32.171
-17.932
0.495
23.501
50.87
81.163
111.518
137.515
154.488
158.755
147.399
117.649
67.341
-3.532
-92.06
-193.074
-300.77
-409.433
-513.734
-607.669
-684.592
-740.221
-773.156
-784.035
-774.973
-748.709
-707.801
-656.478
-600.558
-544.165
-490.463
-441.515
-397.521
-358.531
-325.025
-296.057
-269.948
-246.069
-223.05
-200.088
-177.948
-157.003
-137.41
-119.929
-104.815
-91.8
-81.667
-74.825
-70.843
-69.569
-70.483
-72.85
-76.544
-81.494
-87.035
-92.6
-97.742
-101.945
-105.113
-107.26
-108.217
-107.898
-106.329
-103.564
-99.784
-95.221
-90.019
-84.312
-78.228
-71.886
-65.471
-59.202
-53.252
-47.744
-42.742
-38.269
-34.354
-31.016
-28.242
-25.987
-24.169
-22.704
-21.526
-20.581
-19.814
-19.16
-18.532
-17.837
-17.005
-15.991
-14.765
-13.311
-11.61
-9.648
-7.431
-4.977
-2.307
0.559
3.612
6.843
10.238
13.774
17.426
21.169
24.98
28.84
32.728
36.621
40.497
44.336
48.119
51.831
55.453
58.961
62.334
65.549
68.582
71.414
74.022
76.385
78.484
80.302
81.824
83.037
83.928
84.488
84.708
84.581
84.103
83.271
82.084
80.543
78.65
76.41
73.831
70.922
67.692
64.152
60.316
56.199
51.817
47.186
42.326
37.254
31.992
26.561
20.982
15.278
9.47
3.582
-2.363
-8.343
-14.335
-20.318
-26.269
-32.168
-37.996
-43.733
-49.361
-54.863
-60.223
-65.425
-70.456
-75.303
-79.954
-84.399
-88.63
-92.638
-96.416
-99.961
-103.267
-106.333
-109.157
-111.738
-114.079
-116.18
-118.045
-119.679
-121.087
-122.274
-123.248
-124.016
-124.588
-124.971
-125.175
-125.211
-125.089
-124.82
-124.415
-123.885
-123.24
-122.493
-121.653
-120.732
-119.741
-118.69
-117.589
-116.448
-115.278
-114.088
-112.886
-111.68
-110.48
-109.292
-108.123
-106.978
-105.865
-104.787
-103.75
-102.758
-101.814
-100.922
-100.085
-99.305
-98.582
-97.917
-97.311
-96.763
-96.271
-95.836
-95.455
-95.127
-94.848
-94.618
-94.434
-94.293
-94.19
-94.123
-94.086
-94.076
-94.088
-94.116
-94.154
-94.199
-94.243
-94.283
-94.313
-94.328
-94.323
-94.293
-94.23
-94.13
-93.986
-93.792
-93.543
-93.232
-92.856
-92.412
-91.897
-91.309
-90.644
-89.901
-89.079
-88.176
-87.19
-86.122
-84.97
-83.734
-82.417
-81.021
-79.551
-78.009
-76.402
-74.736
-73.019
-71.258
-69.46
-67.629
-65.773
-63.895
-62.002
-60.099
-58.192
-56.287
-54.391
-52.515
-50.669
-48.863
-47.105
-45.398
-43.747
-42.154
-40.622
-39.149
-37.731
-36.368
-35.063
-33.827
-32.675
-31.618
-30.652
-29.772
-28.963
-28.201
-27.45
-26.671
-25.813
-24.843
-23.742
-22.506
-21.145
-19.664
-18.058
-16.317
-14.42
-12.348
-10.093
-7.662
-5.073
-2.398
0.24
2.704
4.825
6.474
7.574
8.067
7.933
7.176
5.818
3.914
1.521
-1.327
-4.616
-8.325
-12.386
-16.583
-20.575
-23.993
-26.418
-27.509
-26.92
-24.208
-19.186
-11.949
-2.85
7.373
18.057
28.928
39.559
49.324
58.259
66.789
75.904
87.539
102.963
122.442
146.443
175.291
207.892
242.086
274.103
298.566
311.272
309.329
289.705
249.72
188.473
107.178
10.013
-96.431
-206.229
-314.136
-414.479
-501.137
-568.563
-613.138
-634.163
-633.616
-613.808
-577.042
-526.121
-464.989
-398.791
-332.352
-269.192
-210.848
-158.041
-111.533
-72.221
-40.511
-15.266
5.528
24.017
41.251
57.307
72.27
86.668
101.357
116.475
131.222
144.196
154.494
162.103
167.315
170.388
171.266
169.972
167.059
163.569
160.447
158.221
157.118
157.14
158.366
160.961
164.944
170.184
176.479
183.619
191.458
199.931
208.943
218.35
227.968
237.557
246.911
255.902
264.44
272.489
280.039
287.082
293.634
299.742
305.465
310.866
315.992
320.854
325.456
329.793
333.876
337.757
341.49
345.126
348.71
352.27
355.82
359.364
362.907
366.452
370.002
373.557
377.129
380.778
384.615
388.821
393.588
399.045
405.259
412.229
419.909
428.215
437.046
446.27
455.703
465.151
474.42
483.338
491.736
499.378
505.924
510.898
513.775
514.112
511.573
505.93
497.073
485.001
469.79
451.626
430.796
407.584
382.327
355.381
327.1
297.951
