96.695
127.937
163.235
202.563
245.79
292.38
340.621
386.928
425.946
452.682
463.722
456.544
428.772
378.173
304.154
209.076
98.489
-21.034
-143.949
-265.008
-378.583
-478.327
-558.159
-614.522
-647.121
-657.341
-646.756
-617.596
-572.494
-515.197
-451.249
-385.349
-320.652
-259.779
-204.425
-155.472
-114.297
-81.865
-57.02
-38.446
-24.72
-13.691
-4.427
3.285
10.485
18.277
26.775
35.916
44.951
52.246
57.199
59.876
60.129
57.972
53.551
47.05
39.194
31.179
23.8
17.487
12.489
8.817
6.533
5.731
6.341
8.145
10.898
14.389
18.467
23.029
27.963
33.088
38.178
43.032
47.497
51.466
54.902
57.785
60.088
61.817
63.005
63.698
63.976
63.914
63.563
62.984
62.249
61.439
60.664
60.012
59.542
59.298
59.305
59.578
60.134
60.978
62.093
63.467
65.086
66.938
69.021
71.324
73.829
76.514
79.353
82.319
85.395
88.56
91.79
95.064
98.361
101.66
104.946
108.198
111.392
114.501
117.499
120.358
123.053
125.558
127.846
129.891
131.671
133.165
134.354
135.222
135.75
135.926
135.735
135.169
134.22
132.881
131.149
129.022
126.501
123.591
120.297
116.628
112.593
108.205
103.477
98.427
93.071
87.428
81.52
75.368
68.996
62.429
55.692
48.811
41.812
34.724
27.572
20.386
13.19
6.012
-1.123
-8.19
-15.165
-22.026
-28.75
-35.317
-41.708
-47.906
-53.893
-59.656
-65.181
-70.457
-75.475
-80.228
-84.708
-88.913
-92.838
-96.485
-99.853
-102.945
-105.763
-108.314
-110.604
-112.64
-114.43
-115.986
-117.316
-118.434
-119.351
-120.08
-120.634
-121.027
-121.274
-121.387
-121.381
-121.27
-121.068
-120.788
-120.445
-120.05
-119.617
-119.157
-118.682
-118.202
-117.727
-117.267
-116.828
-116.419
-116.047
-115.717
-115.434
-115.203
-115.027
-114.91
-114.854
-114.862
-114.933
-115.07
-115.272
-115.538
-115.868
-116.261
-116.715
-117.228
-117.8
-118.427
-119.108
-119.84
-120.62
-121.445
-122.311
-123.215
-124.154
-125.123
-126.119
-127.138
-128.178
-129.233
-130.303
-131.382
-132.468
-133.558
-134.647
-135.731
-136.807
-137.87
-138.918
-139.944
-140.945
-141.918
-142.858
-143.762
-144.626
-145.446
-146.217
-146.934
-147.593
-148.188
-148.716
-149.171
-149.551
-149.852
-150.073
-150.213
-150.27
-150.242
-150.13
-149.935
-149.654
-149.29
-148.844
-148.315
-147.707
-147.024
-146.271
-145.453
-144.577
-143.648
-142.676
-141.671
-140.641
-139.593
-138.535
-137.473
-136.415
-135.369
-134.344
-133.344
-132.379
-131.456
-130.585
-129.781
-129.051
-128.402
-127.838
-127.363
-126.976
-126.684
-126.483
-126.369
-126.34
-126.399
-126.551
-126.816
-127.205
-127.709
-128.319
-129.011
-129.749
-130.505
-131.242
-131.907
-132.467
-132.898
-133.187
-133.353
-133.402
-133.326
-133.114
-132.723
-132.111
-131.285
-130.255
-129.062
-127.812
-126.6
-125.549
-124.833
-124.575
-124.86
-125.751
-127.24
-129.276
-131.824
-134.835
-138.285
-142.202
-146.578
-151.34
-156.337
-161.281
-165.848
-169.686
-172.406
-173.565
-172.677
-169.484
-164.051
-156.759
-148.303
-139.296
-130.012
-120.834
-112.35
-104.541
-96.929
-88.439
-77.125
-61.673
-41.859
-17.405
11.882
44.833
79.273
111.525
136.265
149.304
147.8
128.753
89.508
29.178
-51.132
-147.493
-253.591
-363.797
-472.939
-575.048
-663.709
-733.239
-780.183
-804.19
-807.174
-791.249
-758.937
-713.802
-660.752
-605.421
-551.92
-502.312
-457.365
-417.279
-382.041
-351.348
-323.859
-297.414
-270.747
-243.555
-216.129
-189.319
-163.821
-140.09
-118.907
-101.189
-87.388
-77.607
-71.588
-68.703
-68.394
-70.152
-73.363
-77.497
-82.074
-86.626
-90.822
-94.374
-97.023
-98.62
-99.059
-98.253
-96.19
-92.891
-88.416
-82.925
-76.59
-69.583
-62.107
-54.33
-46.431
-38.638
-31.123
-24.027
-17.463
-11.473
-6.08
-1.315
2.833
6.4
9.432
12.012
14.219
16.111
17.767
19.263
20.688
22.145
23.713
25.446
27.386
29.559
31.98
34.668
37.625
40.833
44.281
47.955
51.842
55.937
60.227
64.693
69.31
74.053
78.899
83.828
88.82
93.852
98.904
103.955
108.985
113.978
118.915
123.772
128.524
133.145
137.609
141.894
145.974
149.824
153.422
156.747
159.78
162.506
164.909
166.975
168.693
170.051
171.042
171.661
171.903
171.766
171.25
170.358
169.093
167.462
165.475
163.14
160.468
157.474
154.172
150.579
146.712
142.591
138.236
133.667
128.909
123.983
118.914
113.726
108.443
103.089
97.689
92.266
86.843
81.443
76.086
70.794
65.586
60.481
55.496
50.647
45.949
41.417
37.063
32.897
28.93
25.169
21.621
18.293
15.188
12.308
9.656
7.232
5.035
3.063
1.312
-0.222
-1.545
-2.663
-3.584
-4.315
-4.865
-5.244
-5.461
-5.527
-5.451
-5.244
-4.917
-4.48
-3.943
-3.318
-2.614
-1.842
-1.009
-0.127
0.796
1.753
2.735
3.734
4.745
5.759
6.772
7.776
8.769
9.743
10.696
11.623
12.522
13.388
14.221
15.018
15.778
16.499
17.179
17.819
18.416
18.971
19.483
19.952
20.376
20.756
21.092
21.383
21.63
21.831
21.987
22.097
22.16
22.175
22.142
22.059
21.927
21.745
21.512
21.23
20.897
20.515
20.084
19.605
19.078
18.504
17.884
17.218
16.51
15.76
14.972
14.148
13.292
12.409
11.501
10.574
9.633
8.683
7.728
6.774
5.825
4.887
3.968
3.073
2.211
1.388
0.611
-0.111
-0.771
-1.365
-1.886
-2.33
-2.694
-2.973
-3.162
-3.26
-3.264
-3.171
-2.98
-2.688
-2.296
-1.806
-1.22
-0.543
0.221
1.065
1.982
2.964
4.002
5.088
6.215
7.378
8.57
9.783
11.01
12.244
13.479
14.703
15.906
17.074
18.195
19.261
20.264
21.199
22.063
22.852
23.565
24.206
24.776
25.268
25.674
25.978
26.168
26.246
26.222
26.11
25.94
25.75
25.58
25.484
25.5
25.648
25.933
26.346
26.878
27.534
28.327
29.281
30.418
31.75
33.269
34.959
36.752
38.523
40.132
41.409
42.21
42.45
42.075
41.059
39.403
37.137
34.3
30.942
27.106
22.791
18.002
12.806
7.404
2.125
-2.637
-6.451
-8.964
-9.778
-8.427
-4.688
1.386
9.435
18.741
28.653
38.873
48.978
58.347
66.984
75.314
84.38
96.134
111.899
131.972
156.76
186.598
220.393
255.96
289.463
315.267
328.95
327.469
307.594
266.465
202.969
118.022
15.683
-97.319
-215.111
-332.326
-442.986
-540.93
-620.185
-676.611
-709.343
-719.787
-709.477
-680.567
-635.666
-578.154
-513.374
-446.114
-379.563
-316.343
-258.199
-206.055
-161.356
-125.181
-96.392
-73.653
-55.558
-39.985
-26.06
-13.63
-1.715
10.728
23.741
37.219
50.383
61.562
70.13
76.161
79.524
80.233
78.438
74.283
68.451
62.194
56.373
51.462
47.765
45.304
44.148
44.437
46.137
49.046
52.937
57.589
62.831
68.594
74.787
81.256
87.808
94.193
100.205
105.72
110.669
115.026
118.765
121.864
124.336
126.238
127.658
128.685
129.386
129.81
130.013
130.07
130.077
130.144
130.351
130.746
131.365
132.23
133.36
134.773
136.464
138.414
140.6
143.007
145.624
148.447
151.463
154.649
157.981
161.432
164.982
168.612
172.3
176.023
179.76
183.49
187.193
190.853
194.449
197.958
201.353
204.61
207.703
210.608
213.301
215.756
217.95
219.863
221.476
222.772
223.735
224.349
224.602
224.483
223.984
223.097
221.817
220.14
218.066
215.595
212.732
209.482
205.85
201.846
197.481
192.767
187.718
182.352
176.684
170.734
164.522
158.071
151.402
144.541
137.511
130.338
123.047
115.665
108.218
100.732
93.232
85.744
78.293
70.903
63.597
56.398
49.329
42.409
35.659
29.098
22.742
16.608
10.711
5.063
-0.324
-5.44
-10.276
-14.826
-19.083
-23.044
-26.706
-30.07
-33.135
-35.904
-38.38
-40.569
-42.476
-44.11
-45.478
-46.59
-47.457
-48.089
-48.499
-48.699
-48.701
-48.519
-48.167
-47.658
-47.007
-46.226
-45.33
-44.332
-43.246
-42.085
-40.861
-39.586
-38.271
-36.928
-35.567
-34.197
-32.828
-31.467
-30.122
-28.799
-27.506
-26.246
-25.025
-23.846
-22.713
-21.627
-20.591
-19.606
-18.673
-17.792
-16.962
-16.184
-15.458
-14.781
-14.153
-13.573
-13.04
-12.551
-12.105
-11.701
-11.336
-11.009
-10.719
-10.463
-10.242
-10.055
-9.899
-9.776
-9.683
-9.62
-9.585
-9.578
-9.599
-9.645
-9.717
-9.815
-9.936
-10.083
-10.253
-10.448
-10.665
-10.903
-11.162
-11.439
-11.732
-12.039
-12.356
-12.681
-13.01
-13.34
-13.67
-13.994
-14.31
-14.613
-14.898
-15.161
-15.396
-15.598
-15.761
-15.879
-15.949
-15.967
-15.93
-15.835
-15.679
-15.459
-15.174
-14.822
-14.401
-13.911
-13.348
-12.714
-12.01
-11.238
-10.402
-9.507
-8.558
-7.562
-6.528
-5.465
-4.379
-3.278
-2.168
-1.056
0.052
1.148
2.229
3.287
4.314
5.299
6.23
7.097
7.893
8.609
9.239
9.778
10.222
10.571
10.832
11.005
11.085
11.063
10.922
10.654
10.265
9.76
9.149
8.457
7.715
6.977
6.311
5.759
5.347
5.09
4.979
5.02
5.231
5.61
6.171
6.924
7.864
8.999
10.323
11.771
13.228
14.528
15.471
15.911
15.754
14.916
13.363
11.057
7.996
4.261
-0.06
-4.896
-10.209
-16.007
-22.235
-28.673
-34.985
-40.741
-45.463
-48.787
-50.299
-49.468
-46.038
-40.014
-31.712
-21.933
-11.4
-0.439
10.467
20.689
30.261
39.619
49.854
63.004
80.443
102.496
129.605
162.073
198.708
237.16
273.36
301.463
316.875
316.43
296.779
254.948
189.83
102.476
-2.822
-119.035
-240.007
-360.164
-473.308
-573.041
-653.281
-709.878
-742.04
-751.377
-739.621
-709.07
-662.501
-603.443
-537.318
-468.953
-401.539
-337.637
-278.931
-226.299
-181.135
-144.491
-115.221
-91.991
-73.396
-57.306
-42.837
-29.839
-17.327
-4.245
9.457
23.687
37.67
49.703
59.138
66.037
70.255
71.796
70.803
67.409
62.296
56.732
51.586
47.335
44.29
42.469
41.938
42.842
45.147
48.65
53.124
58.347
64.15
70.468
77.209
84.219
91.303
98.205
104.715
110.706
116.106
120.887
125.02
128.478
131.273
133.46
135.123
136.351
137.21
137.743
138.008
138.08
138.054
138.044
138.132
138.367
138.789
139.419
140.279
141.389
142.748
144.336
146.133
148.126
150.308
152.676
155.221
157.922
160.758
163.706
166.746
169.863
173.038
176.252
179.484
182.717
185.935
189.125
192.268
195.343
198.326
201.195
203.926
206.497
208.884
211.062
213.01
214.708
216.137
217.281
218.123
218.649
218.844
218.698
218.202
217.347
216.126
214.535
212.571
210.233
207.524
204.446
201.003
197.203
193.052
188.561
183.743
178.61
173.177
167.459
161.476
155.245
148.788
142.126
135.281
128.276
121.136
113.885
106.548
99.149
91.714
84.266
76.829
69.428
62.085
54.823
47.664
40.628
33.736
27.008
20.46
14.111
7.975
2.067
-3.6
-9.014
-14.166
-19.047
-23.649
-27.967
-31.997
-35.735
-39.182
-42.337
-45.202
-47.781
-50.078
-52.1
-53.855
-55.35
-56.595
-57.601
-58.38
-58.944
-59.305
-59.477
-59.474
-59.31
-59
-58.558
-57.999
-57.339
-56.59
-55.769
-54.888
-53.961
-53.002
-52.022
-51.034
-50.048
-49.077
-48.128
-47.212
-46.336
-45.508
-44.734
-44.02
-43.37
-42.788
-42.277
-41.838
-41.472
-41.181
-40.963
-40.817
-40.743
-40.736
-40.795
-40.916
-41.094
-41.327
-41.608
-41.934
-42.299
-42.698
-43.126
-43.579
-44.051
-44.538
-45.035
-45.538
-46.043
-46.546
-47.042
-47.529
-48.004
-48.463
-48.906
-49.329
-49.733
-50.117
-50.479
-50.821
-51.142
-51.441
-51.72
-51.979
-52.22
-52.443
-52.65
-52.843
-53.025
-53.197
-53.362
-53.521
-53.676
-53.829
-53.98
-54.131
-54.281
-54.431
-54.579
-54.727
-54.875
-55.021
-55.166
-55.309
-55.447
-55.579
-55.702
-55.813
-55.909
-55.984
-56.036
-56.061
-56.056
-56.019
-55.947
-55.838
-55.689
-55.496
-55.259
-54.974
-54.638
-54.247
-53.801
-53.298
-52.739
-52.125
-51.458
-50.74
-49.976
-49.173
-48.335
-47.467
-46.571
-45.653
-44.715
-43.762
-42.795
-41.815
-40.829
-39.84
-38.858
-37.891
-36.949
-36.037
-35.163
-34.332
-33.547
-32.813
-32.127
-31.484
-30.885
-30.333
-29.837
-29.418
-29.083
-28.83
-28.659
-28.558
-28.507
-28.476
-28.413
-28.255
-27.964
-27.515
-26.897
-26.125
-25.198
-24.108
-22.862
-21.448
-19.86
-18.107
-16.182
-14.099
-11.922
-9.765
-7.793
-6.207
-5.153
-4.732
-5.031
-6.079
-7.909
-10.522
-13.833
-17.768
-22.259
-27.261
-32.779
-38.754
-44.987
-51.157
-56.843
-61.589
-65.04
-66.789
-66.332
-63.389
-57.908
-50.181
-40.956
-30.895
-20.378
-9.82
0.227
9.512
18.242
27.376
38.759
53.883
73.374
97.474
126.354
159.716
196.015
231.862
262.027
281.479
286.545
274.318
242.142
187.602
110.04
12.063
-100.586
-221.415
-344.635
-464.769
-576.192
-672.116
-746.255
-795.588
-820.197
-821.387
-800.974
-760.973
-703.677
-633.892
-557.988
-480.622
-405.114
-334.365
-270.158
-214.303
-169.102
-134.588
-108.744
-90
-76.464
-65.841
-57.138
-49.241
-40.174
-29.272
-16.94
-3.501
9.831
21.412
30.776
37.626
41.383
42.192
40.393
36.318
31.008
25.688
21.014
17.437
15.236
14.359
14.85
16.771
19.944
24.132
29.122
34.709
40.786
47.288
54.08
60.974
67.727
74.109
79.981
85.265
89.924
93.946
97.312
100.033
102.171
103.804
105.015
105.879
106.44
106.757
106.912
106.999
107.134
107.409
107.882
108.596
109.579
110.85
112.426
114.304
116.464
118.885
121.551
124.45
127.578
130.923
134.463
138.173
142.025
145.996
150.064
154.205
158.397
162.613
166.833
171.036
175.204
179.316
183.346
187.268
191.054
194.678
198.115
201.337
204.318
207.034
209.463
211.585
213.382
214.838
215.937
216.667
217.017
216.977
216.542
215.707
214.468
212.826
210.78
208.337
205.501
202.28
198.684
194.722
190.409
185.759
180.788
175.515
169.957
164.135
158.072
151.789
145.311
138.661
131.864
124.946
117.932
110.848
103.719
96.57
89.425
82.307
75.24
68.247
61.347
54.562
47.909
41.409
35.077
28.929
22.979
17.241
11.726
6.443
1.403
-3.387
-7.922
-12.197
-16.209
-19.956
-23.437
-26.654
-29.608
-32.303
-34.744
-36.936
-38.887
-40.605
-42.099
-43.378
-44.452
-45.333
-46.032
-46.561
-46.932
-47.158
-47.25
-47.222
-47.086
-46.855
-46.54
-46.152
-45.705
-45.208
-44.673
-44.109
-43.526
-42.933
-42.339
-41.75
-41.175
-40.619
-40.089
-39.59
-39.124
-38.697
-38.312
-37.969
-37.671
-37.418
-37.211
-37.048
-36.93
-36.855
-36.821
-36.825
-36.865
-36.938
-37.042
-37.172
-37.325
-37.498
-37.687
-37.889
-38.1
-38.317
-38.537
-38.756
-38.973
-39.183
-39.385
-39.576
-39.754
-39.917
-40.064
-40.194
-40.305
-40.397
-40.471
-40.525
-40.562
-40.582
-40.587
-40.576
-40.553
-40.518
-40.475
-40.425
-40.37
-40.315
-40.261
-40.211
-40.17
-40.141
-40.125
-40.126
-40.146
-40.188
-40.253
-40.344
-40.463
-40.61
-40.788
-40.999
-41.243
-41.521
-41.835
-42.182
-42.563
-42.977
-43.421
-43.893
-44.39
-44.91
-45.448
-46.002
-46.569
-47.145
-47.726
-48.307
-48.882
-49.447
-49.994
-50.518
-51.011
-51.466
-51.877
-52.24
-52.549
-52.801
-52.989
-53.111
-53.162
-53.139
-53.037
-52.855
-52.587
-52.231
-51.788
-51.256
-50.638
-49.936
-49.154
-48.296
-47.37
-46.381
-45.335
-44.238
-43.093
-41.906
-40.681
-39.422
-38.132
-36.818
-35.488
-34.152
-32.822
-31.509
-30.224
-28.975
-27.771
-26.615
-25.512
-24.463
-23.463
-22.514
-21.619
-20.791
-20.05
-19.404
-18.853
-18.396
-18.024
-17.717
-17.447
-17.163
-16.809
-16.345
-15.745
-15.005
-14.139
-13.149
-12.033
-10.784
-9.383
-7.829
-6.125
-4.26
-2.243
-0.116
2.035
4.041
5.714
6.912
7.527
7.499
6.802
5.401
3.288
0.5
-2.904
-6.841
-11.25
-16.127
-21.459
-27.134
-32.899
-38.338
-42.999
-46.476
-48.449
-48.561
-46.356
-41.614
-34.416
-25.174
-14.706
-3.736
7.432
18.354
28.356
37.443
46.058
55.269
67.194
83.298
103.935
129.64
160.778
196.139
233.348
268.252
294.907
308.663
306.283
284.378
239.998
172.068
81.903
-25.844
-144.145
-266.76
-388.048
-501.956
-601.749
-680.976
-735.746
-765.466
-771.481
-755.581
-719.781
-666.415
-599.93
-526.629
-451.442
-377.889
-309.005
-246.666
-192.613
-149.116
-116.356
-92.309
-75.353
-63.548
-54.444
-46.974
-40.065
-31.788
-21.501
-9.648
3.453
16.597
28.084
37.411
44.272
48.098
49.061
47.507
43.746
38.782
33.817
29.502
26.297
24.487
24.022
24.95
27.338
31.017
35.763
41.366
47.616
54.398
61.631
69.175
76.839
84.385
91.588
98.306
104.452
109.986
114.888
119.134
122.726
125.714
128.164
130.149
131.738
132.974
133.912
134.63
135.217
135.783
136.416
137.172
138.091
139.2
140.515
142.054
143.818
145.787
147.944
150.278
152.781
155.451
158.281
161.252
164.345
167.537
170.809
174.146
177.529
180.939
184.36
187.774
191.168
194.529
197.841
201.084
204.238
207.279
210.187
212.94
215.517
217.894
220.051
221.969
223.632
225.024
226.131
226.938
227.433
227.606
227.448
226.952
226.113
224.925
223.387
221.497
219.259
216.674
213.747
210.484
206.892
202.981
198.761
194.245
189.446
184.377
179.056
173.499
167.724
161.751
155.598
149.287
142.839
136.274
129.615
122.883
116.099
109.285
102.46
95.646
88.862
82.128
75.463
68.883
62.407
56.05
49.829
43.758
37.85
32.118
26.572
21.224
16.082
11.154
6.446
1.966
-2.284
-6.3
-10.079
-13.621
-16.926
-19.996
-22.831
-25.436
-27.815
-29.973
-31.915
-33.648
-35.18
-36.517
-37.669
-38.643
-39.45
-40.098
-40.597
-40.956
-41.187
-41.297
-41.297
-41.198
-41.007
-40.735
-40.391
-39.983
-39.519
-39.009
-38.458
-37.876
-37.267
-36.639
-35.998
-35.348
-34.694
-34.041
-33.393
-32.754
-32.126
-31.511
-30.913
-30.332
-29.769
-29.227
-28.705
-28.203
-27.721
-27.26
-26.818
-26.396
-25.991
-25.604
-25.234
-24.878
-24.537
-24.208
-23.892
-23.586
-23.29
-23.003
-22.725
-22.455
-22.192
-21.938
-21.69
-21.45
-21.218
-20.993
-20.776
-20.568
-20.369
-20.18
-20.002
-19.837
-19.686
-19.55
-19.432
-19.334
-19.257
-19.202
-19.172
-19.169
-19.195
-19.252
-19.343
-19.469
-19.633
-19.838
-20.086
-20.378
-20.715
-21.099
-21.531
-22.01
-22.539
-23.116
-23.741
-24.416
-25.139
-25.91
-26.728
-27.592
-28.5
-29.449
-30.436
-31.458
-32.51
-33.588
-34.687
-35.802
-36.929
-38.064
-39.2
-40.334
-41.457
-42.565
-43.649
-44.703
-45.719
-46.688
-47.603
-48.457
-49.244
-49.959
-50.597
-51.153
-51.621
-51.998
-52.279
-52.461
-52.54
-52.512
-52.376
-52.13
-51.775
-51.314
-50.75
-50.087
-49.331
-48.49
-47.571
-46.58
-45.523
-44.406
-43.234
-42.014
-40.749
-39.446
-38.112
-36.757
-35.393
-34.032
-32.688
-31.372
-30.096
-28.866
-27.69
-26.574
-25.519
-24.523
-23.588
-22.721
-21.936
-21.252
-20.68
-20.22
-19.873
-19.627
-19.463
-19.352
-19.242
-19.078
-18.822
-18.445
-17.945
-17.34
-16.631
-15.82
-14.901
-13.851
-12.669
-11.361
-9.911
-8.329
-6.656
-4.977
-3.458
-2.288
-1.607
-1.524
-2.105
-3.362
-5.33
-8.013
-11.363
-15.328
-19.835
-24.808
-30.252
-36.165
-42.435
-48.826
-54.951
-60.342
-64.6
-67.402
-68.355
-67.021
-63.171
-56.855
-48.475
-38.794
-28.489
-17.888
-7.435
2.233
11.084
19.535
28.638
40.372
56.142
76.308
101.35
131.697
166.258
202.791
237.35
264.11
278.464
277.222
256.953
214.578
148.885
60.798
-45.473
-162.885
-285.245
-406.884
-521.465
-622.457
-703.6
-760.565
-792.45
-800.816
-787.442
-754.746
-705.649
-643.82
-574.852
-503.763
-433.895
-367.937
-307.684
-254.051
-208.448
-171.97
-143.449
-121.48
-104.61
-90.607
-78.427
-67.799
-57.602
-46.646
-34.851
-22.327
-9.87
0.793
9.021
14.884
18.198
18.951
17.318
13.504
8.299
2.995
-1.62
-5.145
-7.341
-8.221
-7.725
-5.742
-2.367
2.15
7.564
13.659
20.293
27.382
34.797
42.335
49.747
56.805
63.36
69.321
74.653
79.341
83.363
86.724
89.479
91.693
93.448
94.818
95.852
96.609
97.168
97.62
98.079
98.64
99.364
100.292
101.455
102.87
104.553
106.508
108.716
111.158
113.822
116.698
119.784
123.072
126.542
130.171
133.935
137.811
141.78
145.821
149.912
154.032
158.16
162.278
166.37
170.418
174.397
178.283
182.051
185.674
189.128
192.388
195.429
198.226
200.757
203.003
204.945
206.568
207.855
208.791
209.365
209.567
209.389
208.825
207.869
206.52
204.776
202.641
200.118
197.214
193.935
190.291
186.294
181.957
177.295
172.324
167.062
161.528
155.742
149.727
143.504
137.097
130.53
123.828
117.016
110.12
103.164
96.174
89.173
82.185
75.233
68.341
61.529
54.818
48.229
41.779
35.487
29.37
23.441
17.715
12.204
6.919
1.869
-2.938
-7.495
-11.798
-15.843
-19.628
-23.152
-26.415
-29.421
-32.172
-34.673
-36.929
-38.948
-40.738
-42.307
-43.665
-44.823
-45.791
-46.581
-47.204
-47.673
-48
-48.197
-48.276
-48.251
-48.132
-47.933
-47.664
-47.336
-46.961
-46.547
-46.106
-45.644
-45.172
-44.695
-44.222
-43.757
-43.306
-42.875
-42.466
-42.084
-41.73
-41.407
-41.115
-40.856
-40.629
-40.434
-40.269
-40.134
-40.026
-39.944
-39.885
-39.847
-39.828
-39.824
-39.834
-39.854
-39.883
-39.917
-39.954
-39.992
-40.03
-40.065
-40.098
-40.126
-40.15
-40.169
-40.185
-40.198
-40.21
-40.221
-40.233
-40.249
-40.271
-40.3
-40.341
-40.396
-40.469
-40.563
-40.683
-40.831
-41.012
-41.229
-41.484
-41.78
-42.119
-42.505
-42.938
-43.422
-43.957
-44.545
-45.186
-45.882
-46.631
-47.434
-48.288
-49.191
-50.139
-51.13
-52.158
-53.219
-54.307
-55.416
-56.542
-57.677
-58.815
-59.949
-61.071
-62.171
-63.242
-64.274
-65.258
-66.184
-67.043
-67.828
-68.532
-69.149
-69.672
-70.094
-70.411
-70.617
-70.708
-70.679
-70.526
-70.245
-69.835
-69.295
-68.628
-67.834
-66.918
-65.884
-64.738
-63.489
-62.145
-60.712
-59.198
-57.61
-55.955
-54.241
-52.476
-50.667
-48.825
-46.96
-45.086
-43.217
-41.368
-39.548
-37.768
-36.034
-34.354
-32.734
-31.177
-29.682
-28.253
-26.897
-25.63
-24.473
-23.44
-22.531
-21.743
-21.065
-20.471
-19.928
-19.393
-18.816
-18.162
-17.414
-16.566
-15.634
-14.625
-13.535
-12.355
-11.066
-9.645
-8.087
-6.399
-4.603
-2.777
-1.053
0.421
1.466
1.943
1.771
0.888
-0.718
-3.037
-6.037
-9.652
-13.813
-18.482
-23.636
-29.245
-35.231
-41.357
-47.256
-52.532
-56.731
-59.487
-60.431
-59.098
-55.306
-49.173
-41.09
-31.848
-22.145
-12.255
-2.614
6.14
14.068
21.618
29.82
40.661
55.396
74.221
97.503
125.449
156.856
189.45
219.361
241.14
250.517
244.607
220.465
175.526
109.069
22.57
-79.704
-191.131
-305.491
-417.344
-520.826
-609.551
-678.25
-723.743
-745.274
-744.767
-724.962
-688.382
-638.363
-579.577
-516.564
-453.395
-393.602
-338.575
-288.608
-244.357
-205.954
-172.862
-144.783
-120.6
-98.37
-77.532
-58.297
-40.588
-24.627
-10.357
2.962
15.107
24.9
31.905
36.136
37.781
37.507
35.635
31.966
26.882
21.32
16.014
11.6
8.432
6.435
5.646
6.264
8.313
11.692
16.239
21.684
27.823
34.563
41.771
49.294
56.948
64.471
71.651
78.357
84.499
90.04
94.964
99.244
102.89
105.955
108.508
110.634
112.407
113.878
115.111
116.178
117.167
118.189
119.324
120.626
122.133
123.867
125.843
128.078
130.568
133.294
136.235
139.377
142.706
146.219
149.903
153.738
157.7
161.765
165.91
170.117
174.366
178.635
182.903
187.151
191.361
195.518
199.603
203.594
207.467
211.198
214.763
218.139
221.304
224.233
226.905
229.3
231.4
233.191
234.658
235.786
236.563
236.982
237.032
236.709
236.008
234.925
233.461
231.616
229.394
226.8
223.842
220.528
216.868
212.874
208.561
203.944
199.039
193.864
188.439
182.784
176.921
170.873
164.662
158.312
151.847
145.292
138.671
132.007
125.326
118.649
111.999
105.399
98.87
92.433
86.106
79.908
73.858
67.971
62.263
56.749
51.44
46.348
41.482
36.853
32.465
28.326
24.44
20.809
17.434
14.316
11.454
8.844
6.483
4.366
2.487
0.838
-0.588
-1.802
-2.811
-3.627
-4.261
-4.723
-5.026
-5.182
-5.203
-5.101
-4.888
-4.578
-4.181
-3.711
-3.179
-2.595
-1.972
-1.319
-0.647
0.035
0.718
1.395
2.057
2.697
3.31
3.891
4.434
4.935
5.392
5.802
6.162
6.471
6.729
6.935
7.089
7.191
7.243
7.246
7.202
7.113
6.98
6.807
6.596
6.348
6.068
5.757
5.419
5.055
4.669
4.262
3.839
3.4
2.948
2.485
2.013
1.534
1.048
0.557
0.062
-0.438
-0.942
-1.449
-1.96
-2.475
-2.995
-3.518
-4.047
-4.581
-5.122
-5.67
-6.227
-6.793
-7.37
-7.958
-8.558
-9.169
-9.792
-10.426
-11.071
-11.727
-12.393
-13.069
-13.753
-14.445
-15.145
-15.851
-16.561
-17.273
-17.985
-18.694
-19.396
-20.089
-20.768
-21.43
-22.072
-22.69
-23.282
-23.842
-24.368
-24.854
-25.297
-25.692
-26.033
-26.317
-26.538
-26.693
-26.78
-26.796
-26.742
-26.615
-26.415
-26.143
-25.797
-25.379
-24.89
-24.33
-23.701
-23.004
-22.244
-21.426
-20.556
-19.639
-18.683
-17.696
-16.687
-15.666
-14.639
-13.614
-12.597
-11.596
-10.617
-9.667
-8.752
-7.877
-7.05
-6.282
-5.584
-4.963
-4.427
-3.978
-3.62
-3.354
-3.181
-3.098
-3.096
-3.173
-3.329
-3.572
-3.92
-4.38
-4.949
-5.617
-6.37
-7.18
-8.008
-8.811
-9.531
-10.127
-10.575
-10.867
-11.013
-11.019
-10.881
-10.582
-10.093
-9.386
-8.447
-7.278
-5.896
-4.374
-2.838
-1.442
-0.367
0.233
0.263
-0.34
-1.603
-3.515
-6.034
-9.127
-12.752
-16.905
-21.621
-26.863
-32.529
-38.394
-44.076
-49.174
-53.285
-55.936
-56.618
-55.025
-51.088
-45.092
-37.724
-29.582
-21.026
-12.438
-4.305
3.182
10.375
18.374
29.073
44.015
63.8
88.609
118.574
153.305
191.153
228.648
260.481
281.567
288.266
277.73
247.374
194.933
119.836
24.696
-84.726
-201.994
-321.421
-437.66
-545.313
-637.918
-709.492
-757.217
-781.282
-783.015
-764.214
-726.842
-673.065
-607.413
-535.887
-462.845
-391.412
-324.34
-263.322
-210.068
-166.762
-133.473
-108.351
-89.978
-76.594
-66.016
-57.299
-49.404
-40.488
-29.928
-18.09
-5.246
7.477
18.51
27.393
33.846
37.333
38.011
36.207
32.231
27.064
21.88
17.318
13.821
11.663
10.795
11.259
13.119
16.209
20.305
25.201
30.697
36.683
43.09
49.785
56.583
63.247
69.555
75.367
80.602
85.225
89.219
92.565
95.269
97.389
98.995
100.166
100.971
101.454
101.671
101.699
101.629
101.572
101.618
101.822
102.227
102.861
103.741
104.884
106.291
107.942
109.819
111.909
114.202
116.696
119.383
122.244
125.256
128.397
131.645
134.982
138.39
141.847
145.334
148.831
152.322
155.794
159.228
162.603
165.896
169.084
172.142
175.049
177.782
180.316
182.631
184.706
186.523
188.068
189.324
190.277
190.916
191.23
191.21
190.849
190.143
189.086
187.679
185.92
183.812
181.36
178.568
175.444
171.997
168.238
164.178
159.832
155.214
150.34
145.227
139.895
134.363
128.65
122.779
116.771
110.647
104.43
98.143
91.808
85.447
79.081
72.731
66.417
60.159
53.977
47.887
41.908
36.056
30.347
24.794
19.412
14.211
9.202
4.395
-0.202
-4.583
-8.741
-12.674
-16.377
-19.85
-23.091
-26.102
-28.885
-31.442
-33.779
-35.899
-37.809
-39.516
-41.028
-42.353
-43.5
-44.477
-45.296
-45.965
-46.495
-46.896
-47.18
-47.355
-47.433
-47.424
-47.338
-47.184
-46.971
-46.709
-46.405
-46.067
-45.703
-45.32
-44.922
-44.516
-44.106
-43.696
-43.289
-42.889
-42.498
-42.116
-41.745
-41.386
-41.038
-40.702
-40.375
-40.058
-39.748
-39.443
-39.143
-38.844
-38.545
-38.243
-37.936
-37.622
-37.299
-36.964
-36.617
-36.255
-35.876
-35.482
-35.069
-34.639
-34.19
-33.723
-33.24
-32.739
-32.225
-31.697
-31.159
-30.612
-30.061
-29.509
-28.959
-28.414
-27.88
-27.361
-26.859
-26.381
-25.93
-25.511
-25.128
-24.787
-24.491
-24.245
-24.052
-23.917
-23.841
-23.828
-23.879
-23.997
-24.183
-24.437
-24.76
-25.153
-25.614
-26.144
-26.741
-27.403
-28.126
-28.907
-29.743
-30.628
-31.556
-32.522
-33.519
-34.541
-35.582
-36.634
-37.69
-38.744
-39.786
-40.808
-41.802
-42.76
-43.672
-44.53
-45.327
-46.055
-46.709
-47.285
-47.776
-48.178
-48.488
-48.703
-48.82
-48.837
-48.751
-48.562
-48.27
-47.876
-47.385
-46.8
-46.125
-45.366
-44.532
-43.633
-42.676
-41.67
-40.621
-39.538
-38.428
-37.3
-36.16
-35.014
-33.871
-32.739
-31.629
-30.553
-29.52
-28.539
-27.616
-26.756
-25.964
-25.244
-24.594
-24.01
-23.494
-23.047
-22.679
-22.408
-22.241
-22.176
-22.208
-22.321
-22.487
-22.671
-22.824
-22.891
-22.838
-22.637
-22.276
-21.759
-21.079
-20.243
-19.248
-18.065
-16.674
-15.069
-13.253
-11.263
-9.196
-7.172
-5.342
-3.886
-2.934
-2.591
-2.941
-4.015
-5.812
-8.274
-11.325
-14.92
-19.056
-23.739
-28.919
-34.435
-39.996
-45.245
-49.783
-53.206
-55.059
-54.795
-52.104
-46.973
-39.696
-31.007
-21.586
-11.754
-1.979
7.097
15.481
23.643
32.692
44.709
61.145
82.354
108.814
140.901
177.489
216.309
253.342
282.71
299.761
301.26
283.761
244.172
181.217
95.718
-8.19
-123.549
-244.27
-364.767
-478.807
-579.947
-661.927
-720.368
-754.324
-765.298
-754.931
-725.487
-679.705
-621.094
-555.195
-486.983
-419.749
-356.115
-297.807
-245.71
-201.239
-165.454
-137.124
-114.811
-97.042
-81.645
-67.727
-55.14
-42.891
-29.93
-16.252
-2.006
11.99
24.015
33.423
40.276
44.422
45.862
44.746
41.221
35.98
30.294
25.023
20.642
17.463
15.513
14.868
15.676
17.907
21.365
25.832
31.09
36.974
43.419
50.33
57.554
64.893
72.091
78.938
85.305
91.118
96.347
100.958
104.924
108.251
110.991
113.223
115.032
116.481
117.612
118.48
119.159
119.743
120.343
121.04
121.882
122.906
124.132
125.579
127.265
129.188
131.325
133.657
136.168
138.849
141.699
144.705
147.848
151.104
154.45
157.866
161.335
164.841
168.361
171.879
175.377
178.841
182.257
185.61
188.88
192.045
195.084
197.976
200.7
203.235
205.56
207.654
209.5
211.083
212.388
213.402
214.112
214.508
214.58
214.321
213.726
212.789
211.508
209.882
207.911
205.598
202.948
199.966
196.658
193.034
189.103
184.876
180.368
175.591
170.561
165.295
159.81
154.125
148.26
142.236
136.073
129.792
123.416
116.967
110.467
103.937
97.398
90.871
84.376
77.935
71.565
65.286
59.115
53.07
47.166
41.42
35.845
30.454
25.259
20.271
15.5
10.954
6.641
2.565
-1.267
-4.854
-8.193
-11.282
-14.124
-16.72
-19.073
-21.188
-23.069
-24.724
-26.16
-27.385
-28.409
-29.241
-29.892
-30.373
-30.695
-30.87
-30.912
-30.831
-30.642
-30.356
-29.987
-29.547
-29.049
-28.505
-27.927
-27.328
-26.718
-26.108
-25.51
-24.932
-24.385
-23.876
-23.415
-23.007
-22.66
-22.38
-22.171
-22.038
-21.983
-22.011
-22.123
-22.321
-22.604
-22.974
-23.429
-23.968
-24.59
-25.293
-26.074
-26.929
-27.856
-28.85
-29.906
-31.021
-32.19
-33.407
-34.668
-35.968
-37.3
-38.66
-40.043
-41.442
-42.853
-44.271
-45.689
-47.104
-48.51
-49.903
-51.279
-52.633
-53.962
-55.263
-56.533
-57.77
-58.97
-60.132
-61.254
-62.333
-63.37
-64.363
-65.311
-66.213
-67.072
-67.885
-68.656
-69.384
-70.069
-70.714
-71.319
-71.884
-72.412
-72.903
-73.358
-73.78
-74.17
-74.53
-74.862
-75.167
-75.447
-75.703
-75.935
-76.145
-76.331
-76.495
-76.635
-76.751
-76.842
-76.908
-76.949
-76.963
-76.95
-76.908
-76.835
-76.729
-76.587
-76.407
-76.185
-75.917
-75.602
-75.239
-74.825
-74.36
-73.843
-73.272
-72.647
-71.966
-71.231
-70.439
-69.589
-68.681
-67.719
-66.703
-65.637
-64.526
-63.374
-62.187
-60.974
-59.742
-58.497
-57.245
-55.991
-54.74
-53.498
-52.268
-51.053
-49.859
-48.692
-47.561
-46.477
-45.448
-44.48
-43.582
-42.759
-42.012
-41.347
-40.762
-40.249
-39.808
-39.443
-39.16
-38.978
-38.903
-38.93
-39.057
-39.273
-39.555
-39.872
-40.171
-40.391
-40.49
-40.444
-40.238
-39.885
-39.381
-38.715
-37.891
-36.894
-35.716
-34.363
-32.825
-31.111
-29.283
-27.445
-25.754
-24.404
-23.529
-23.23
-23.586
-24.626
-26.382
-28.856
-31.97
-35.655
-39.846
-44.501
-49.628
-55.173
-60.947
-66.646
-71.866
-76.169
-79.213
-80.608
-79.868
-76.72
-71.105
-63.303
-54.03
-43.933
-33.398
-22.836
-12.794
-3.539
5.127
14.145
25.319
40.15
59.321
83.125
111.795
145.116
181.6
217.927
248.954
269.652
276.297
265.938
235.84
183.502
108.209
12.487
-98.022
-216.851
-338.21
-456.648
-566.544
-661.137
-734.198
-782.74
-806.864
-807.937
-787.836
-748.599
-692.53
-624.409
-550.534
-475.504
-402.573
-334.547
-273.117
-220.016
-177.474
-145.476
-121.981
-105.39
-93.79
-84.894
-77.708
-71.111
-63.134
-53.111
-41.45
-28.484
-15.426
-3.902
5.614
12.812
17.092
18.577
17.586
14.433
10.123
5.839
2.202
-0.358
-1.577
-1.513
-0.131
2.62
6.561
11.461
17.112
23.318
29.979
37.032
44.354
51.764
59.034
65.949
72.376
78.24
83.505
88.16
92.186
95.59
98.43
100.778
102.711
104.296
105.574
106.6
107.447
108.203
108.975
109.849
110.879
112.103
113.548
115.231
117.165
119.351
121.767
124.394
127.218
130.227
133.417
136.778
140.289
143.926
147.665
151.483
155.362
159.279
163.214
167.144
171.049
174.913
178.719
182.448
186.079
189.588
192.952
196.147
199.152
201.944
204.499
206.799
208.824
210.559
211.989
213.101
213.883
214.327
214.423
214.168
213.556
212.586
211.257
209.571
207.532
205.145
202.419
199.362
195.983
192.296
188.314
184.051
179.524
174.75
169.747
164.534
159.132
153.562
147.844
142.001
136.055
130.027
123.941
117.818
111.681
105.549
99.444
93.384
87.389
81.477
75.666
69.97
64.405
58.986
53.725
48.635
43.725
39.007
34.487
30.173
26.072
22.188
18.524
15.084
11.868
8.877
6.11
3.565
1.24
-0.869
-2.767
-4.46
-5.953
-7.254
-8.37
-9.309
-10.08
-10.691
-11.153
-11.475
-11.666
-11.736
-11.696
-11.554
-11.322
-11.009
-10.625
-10.178
-9.679
-9.136
-8.557
-7.95
-7.324
-6.685
-6.04
-5.395
-4.757
-4.131
-3.521
-2.932
-2.367
-1.83
-1.324
-0.85
-0.411
-0.009
0.358
0.687
0.978
1.233
1.452
1.635
1.785
1.902
1.988
2.045
2.076
2.083
2.067
2.031
1.978
1.91
1.829
1.738
1.637
1.531
1.419
1.304
1.188
1.072
0.957
0.844
0.735
0.63
0.529
0.432
0.341
0.253
0.17
0.089
0.01
-0.069
-0.147
-0.227
-0.31
-0.398
-0.492
-0.594
-0.707
-0.833
-0.974
-1.133
-1.311
-1.511
-1.733
-1.979
-2.25
-2.546
-2.87
-3.221
-3.599
-4.006
-4.44
-4.903
-5.393
-5.909
-6.45
-7.014
-7.597
-8.197
-8.811
-9.435
-10.065
-10.696
-11.326
-11.951
-12.565
-13.165
-13.744
-14.298
-14.819
-15.301
-15.739
-16.124
-16.452
-16.716
-16.914
-17.04
-17.092
-17.066
-16.958
-16.767
-16.491
-16.126
-15.673
-15.128
-14.493
-13.769
-12.959
-12.066
-11.097
-10.055
-8.949
-7.786
-6.576
-5.323
-4.035
-2.719
-1.378
-0.02
1.348
2.722
4.092
5.451
6.787
8.087
9.341
10.539
11.674
12.741
13.737
14.659
15.506
16.283
16.989
17.619
18.165
18.609
18.94
19.16
19.276
19.303
19.27
19.214
19.176
19.208
19.349
19.617
20.019
20.544
21.184
21.939
22.823
23.859
25.07
26.469
28.05
29.799
31.646
33.469
35.126
36.446
37.284
37.549
37.182
36.157
34.473
32.16
29.258
25.813
21.863
17.406
12.441
7.03
1.373
-4.208
-9.317
-13.515
-16.439
-17.673
-16.731
-13.381
-7.67
0.037
9.008
18.581
28.453
38.181
47.127
55.3
63.151
71.791
83.272
98.998
119.331
144.749
175.651
210.955
248.418
284.055
311.993
327.55
327.47
308.272
266.843
201.964
114.554
8.802
-108.252
-230.457
-352.235
-467.198
-568.767
-650.885
-709.333
-743.372
-754.762
-744.914
-715.777
-670.25
-611.936
-545.985
-477.19
-408.364
-341.544
-279.166
-222.899
-174.207
-134.406
-102.776
-78.053
-59.534
-45.9
-35.357
-26.853
-19.169
-10.718
-1.166
9.372
20.814
32.162
42.116
50.155
55.904
58.893
59.25
57.24
53.17
47.99
42.823
38.336
34.958
32.935
32.239
32.892
34.938
38.21
42.445
47.416
52.918
58.835
65.121
71.663
78.279
84.74
90.832
96.417
101.431
105.85
109.649
112.809
115.341
117.303
118.779
119.858
120.604
121.063
121.289
121.351
121.339
121.362
121.5
121.808
122.321
123.065
124.057
125.316
126.839
128.606
130.596
132.795
135.193
137.786
140.563
143.504
146.587
149.788
153.086
156.465
159.904
163.382
166.88
170.378
173.86
177.312
180.715
184.048
187.288
190.412
193.396
196.22
198.86
201.294
203.5
205.459
207.155
208.571
209.694
210.509
211.005
211.172
211.001
210.487
209.623
208.407
206.836
204.912
202.637
200.015
197.051
193.75
190.123
186.178
181.928
177.386
172.565
167.481
162.15
156.59
150.821
144.861
138.731
132.452
126.046
119.534
112.939
106.283
99.586
92.871
86.157
79.467
72.821
66.236
59.733
53.329
47.042
40.887
34.882
29.039
23.372
17.893
12.613
7.542
2.689
-1.94
-6.337
-10.499
-14.422
-18.102
-21.541
-24.736
-27.691
-30.408
-32.89
-35.143
-37.172
-38.986
-40.59
-41.995
-43.21
-44.244
-45.108
-45.813
-46.371
-46.794
-47.093
-47.281
-47.37
-47.372
-47.299
-47.163
-46.976
-46.749
-46.492
-46.217
-45.932
-45.648
-45.373
-45.114
-44.881
-44.678
-44.512
-44.389
-44.313
-44.287
-44.314
-44.396
-44.536
-44.732
-44.985
-45.295
-45.66
-46.078
-46.546
-47.061
-47.621
-48.22
-48.855
-49.52
-50.211
-50.923
-51.651
-52.389
-53.132
-53.875
-54.613
-55.341
-56.055
-56.749
-57.42
-58.063
-58.675
-59.252
-59.791
-60.289
-60.745
-61.157
-61.523
-61.844
-62.118
-62.346
-62.528
-62.666
-62.761
-62.813
-62.826
-62.801
-62.742
-62.652
-62.535
-62.394
-62.233
-62.057
-61.87
-61.674
-61.474
-61.274
-61.076
-60.885
-60.703
-60.533
-60.379
-60.243
-60.128
-60.036
-59.969
-59.926
-59.908
-59.916
-59.947
-60.001
-60.076
-60.169
-60.278
-60.401
-60.536
-60.679
-60.827
-60.975
-61.117
-61.25
-61.366
-61.46
-61.525
-61.554
-61.543
-61.487
-61.381
-61.222
-61.005
-60.727
-60.383
-59.972
-59.489
-58.932
-58.299
-57.589
-56.802
-55.94
-55.005
-54.003
-52.936
-51.812
-50.639
-49.422
-48.17
-46.886
-45.578
-44.249
-42.906
-41.555
-40.201
-38.852
-37.516
-36.204
-34.93
-33.705
-32.539
-31.439
-30.412
-29.461
-28.592
-27.806
-27.099
-26.472
-25.932
-25.486
-25.154
-24.948
-24.868
-24.906
-25.049
-25.269
-25.53
-25.793
-26.005
-26.127
-26.139
-26.033
-25.824
-25.523
-25.131
-24.636
-24.016
-23.249
-22.324
-21.249
-20.038
-18.754
-17.513
-16.446
-15.725
-15.493
-15.842
-16.827
-18.466
-20.745
-23.626
-27.07
-31.023
-35.442
-40.316
-45.629
-51.324
-57.212
-62.992
-68.293
-72.678
-75.787
-77.206
-76.455
-73.332
-67.895
-60.503
-51.87
-42.605
-32.989
-23.48
-14.708
-6.695
0.915
9.256
20.373
35.417
54.64
78.38
106.833
139.289
174.017
207.136
232.996
247.507
247.705
230.748
194.268
136.344
57.047
-39.767
-147.709
-261.17
-374.791
-483.201
-580.885
-661.224
-719.492
-754.491
-767.123
-759.114
-732.865
-690.792
-636.164
-574.292
-509.794
-446.051
-385.889
-330.527
-280.526
-236.832
-199.875
-169.061
-143.703
-122.427
-103.336
-85.906
-70.11
-55.655
-42.277
-29.386
-16.537
-4.343
5.908
13.619
18.746
21.538
22.379
21.162
17.817
12.889
7.377
2.213
-2.011
-5.078
-7.009
-7.705
-7.02
-4.941
-1.603
2.735
7.823
13.49
19.642
26.207
33.053
39.991
46.777
53.209
59.159
64.562
69.395
73.631
77.251
80.265
82.727
84.725
86.348
87.667
88.731
89.596
90.33
91.027
91.795
92.715
93.838
95.199
96.818
98.716
100.908
103.394
106.151
109.158
112.398
115.859
119.535
123.413
127.469
131.679
136.014
140.452
144.971
149.549
154.161
158.784
163.395
167.973
172.501
176.957
181.315
185.55
189.633
193.539
197.244
200.72
203.942
206.887
209.533
211.861
213.853
215.495
216.769
217.666
218.173
218.283
217.991
217.29
216.18
214.66
212.733
210.403
207.678
204.565
201.073
197.216
193.006
188.46
183.594
178.426
172.976
167.265
161.315
155.15
148.793
142.269
135.604
128.823
121.952
115.016
108.042
101.053
94.074
87.129
80.24
73.43
66.72
60.129
53.677
47.381
41.257
35.322
29.588
24.068
18.773
13.712
8.894
4.326
0.012
-4.044
-7.838
-11.371
-14.642
-17.653
-20.406
-22.907
-25.16
-27.172
-28.95
-30.502
-31.838
-32.967
-33.9
-34.647
-35.221
-35.633
-35.894
-36.017
-36.014
-35.896
-35.677
-35.367
-34.978
-34.521
-34.008
-33.448
-32.851
-32.228
-31.586
-30.934
-30.28
-29.63
-28.992
-28.371
-27.772
-27.199
-26.658
-26.151
-25.681
-25.25
-24.86
-24.511
-24.204
-23.94
-23.718
-23.537
-23.396
-23.295
-23.233
-23.207
-23.217
-23.26
-23.336
-23.443
-23.578
-23.74
-23.928
-24.14
-24.375
-24.633
-24.911
-25.21
-25.53
-25.87
-26.229
-26.607
-27.003
-27.417
-27.849
-28.298
-28.764
-29.248
-29.749
-30.268
-30.804
-31.359
-31.931
-32.52
-33.124
-33.742
-34.373
-35.015
-35.665
-36.32
-36.979
-37.639
-38.297
-38.951
-39.597
-40.231
-40.849
-41.446
-42.016
-42.554
-43.055
-43.513
-43.923
-44.282
-44.588
-44.836
-45.024
-45.147
-45.204
-45.193
-45.11
-44.954
-44.722
-44.413
-44.028
-43.569
-43.039
-42.441
-41.779
-41.059
-40.289
-39.477
-38.628
-37.746
-36.839
-35.909
-34.963
-34.008
-33.047
-32.088
-31.14
-30.212
-29.316
-28.465
-27.666
-26.926
-26.249
-25.639
-25.098
-24.628
-24.223
-23.883
-23.614
-23.425
-23.334
-23.353
-23.479
-23.704
-24.015
-24.385
-24.775
-25.146
-25.441
-25.623
-25.673
-25.582
-25.363
-25.022
-24.554
-23.949
-23.187
-22.246
-21.117
-19.807
-18.33
-16.758
-15.217
-13.847
-12.823
-12.28
-12.301
-12.946
-14.239
-16.182
-18.747
-21.878
-25.504
-29.582
-34.103
-39.054
-44.366
-49.816
-55.057
-59.708
-63.345
-65.634
-66.203
-64.576
-60.545
-54.178
-45.846
-36.317
-26.273
-15.989
-5.875
3.463
12.059
20.319
29.248
40.818
56.317
75.998
100.206
129.113
161.53
195.239
226.456
249.781
260.98
257.187
235.443
193.172
129.562
45.882
-53.812
-163.079
-276.005
-387.438
-491.668
-582.448
-654.416
-704.121
-730.633
-735.668
-721.592
-690.598
-645.662
-591.132
-531.573
-471.188
-413.565
-360.192
-311.413
-267.898
-229.965
-197.217
-169.267
-144.922
-122.124
-100.198
-79.445
-59.897
-41.819
-25.228
-9.464
5.216
17.547
26.981
33.469
37.15
38.698
38.455
36.194
32.232
27.419
22.479
18.131
14.816
12.518
11.299
11.359
12.75
15.434
19.305
24.116
29.661
35.828
42.491
49.54
56.838
64.179
71.332
78.11
84.386
90.096
95.216
99.716
103.58
106.818
109.487
111.676
113.472
114.944
116.144
117.125
117.959
118.743
119.575
120.532
121.66
122.991
124.545
126.344
128.402
130.717
133.266
136.029
138.989
142.136
145.461
148.953
152.587
156.339
160.182
164.094
168.058
172.05
176.047
180.027
183.968
187.852
191.662
195.376
198.971
202.422
205.705
208.795
211.67
214.306
216.68
218.771
220.561
222.034
223.175
223.97
224.409
224.481
224.18
223.5
222.439
220.994
219.168
216.962
214.383
211.439
208.137
204.49
200.509
196.209
191.606
186.718
181.562
176.16
170.531
164.699
158.686
152.516
146.214
139.804
133.31
126.759
120.174
113.58
107
100.459
93.977
87.576
81.276
75.097
69.056
63.17
57.454
51.922
46.587
41.46
36.55
31.865
27.413
23.198
19.224
15.493
12.006
8.762
5.76
2.997
0.468
-1.832
-3.91
-5.772
-7.429
-8.888
-10.16
-11.255
-12.184
-12.96
-13.594
-14.097
-14.483
-14.762
-14.948
-15.052
-15.087
-15.062
-14.99
-14.881
-14.744
-14.59
-14.426
-14.262
-14.105
-13.96
-13.835
-13.735
-13.663
-13.624
-13.62
-13.655
-13.729
-13.844
-14
-14.197
-14.433
-14.708
-15.019
-15.364
-15.741
-16.145
-16.575
-17.026
-17.495
-17.978
-18.47
-18.968
-19.469
-19.967
-20.46
-20.943
-21.414
-21.868
-22.302
-22.715
-23.104
-23.466
-23.801
-24.108
-24.385
-24.632
-24.851
-25.04
-25.2
-25.333
-25.441
-25.524
-25.585
-25.627
-25.652
-25.663
-25.665
-25.659
-25.649
-25.639
-25.63
-25.627
-25.631
-25.646
-25.674
-25.718
-25.78
-25.864
-25.971
-26.103
-26.262
-26.448
-26.663
-26.904
-27.173
-27.468
-27.787
-28.128
-28.488
-28.866
-29.259
-29.664
-30.078
-30.496
-30.914
-31.328
-31.731
-32.119
-32.484
-32.821
-33.126
-33.394
-33.621
-33.804
-33.938
-34.02
-34.048
-34.019
-33.931
-33.78
-33.564
-33.281
-32.932
-32.518
-32.042
-31.506
-30.913
-30.271
-29.586
-28.865
-28.113
-27.337
-26.541
-25.731
-24.911
-24.088
-23.262
-22.44
-21.631
-20.841
-20.084
-19.368
-18.699
-18.086
-17.535
-17.05
-16.635
-16.291
-16.009
-15.792
-15.642
-15.569
-15.59
-15.714
-15.934
-16.249
-16.65
-17.113
-17.609
-18.087
-18.482
-18.752
-18.874
-18.832
-18.638
-18.285
-17.76
-17.065
-16.189
-15.125
-13.878
-12.444
-10.827
-9.091
-7.342
-5.742
-4.486
-3.719
-3.537
-4.021
-5.21
-7.141
-9.823
-13.178
-17.126
-21.599
-26.558
-32.009
-37.897
-44.02
-50.064
-55.62
-60.224
-63.519
-65.094
-64.429
-61.272
-55.607
-47.727
-38.387
-28.265
-17.686
-7.126
2.782
12.041
21.082
30.984
43.76
60.775
82.334
108.86
140.684
176.703
214.698
250.782
279.142
295.15
295.857
278.047
238.865
177.327
94.026
-7.337
-119.809
-237.382
-355.112
-467.067
-567.386
-650.769
-712.323
-750.446
-766.77
-762.36
-738.535
-697.854
-642.898
-577.731
-507.91
-437.089
-367.53
-302.19
-243.037
-191.572
-149.915
-118.172
-94.539
-77.809
-66.419
-58.092
-51.755
-46.297
-39.797
-31.598
-22.036
-11.358
-0.646
8.615
15.993
21.231
23.842
23.945
21.881
18.009
13.243
8.699
4.976
2.428
1.296
1.539
3.163
6.203
10.487
15.736
21.729
28.265
35.183
42.405
49.782
57.084
64.128
70.738
76.792
82.255
87.106
91.319
94.897
97.869
100.279
102.208
103.73
104.901
105.784
106.449
106.978
107.479
108.038
108.718
109.566
110.61
111.865
113.348
115.063
116.993
119.128
121.452
123.954
126.632
129.477
132.472
135.596
138.827
142.141
145.522
148.953
152.415
155.889
159.359
162.81
166.229
169.601
172.907
176.125
179.233
182.21
185.034
187.685
190.14
192.379
194.384
196.139
197.63
198.843
199.765
200.384
200.692
200.681
200.345
199.679
198.68
197.346
195.679
193.681
191.357
188.713
185.754
182.491
178.932
175.089
170.976
166.605
161.992
157.152
152.102
146.861
141.448
135.882
130.183
124.37
118.465
112.489
106.461
100.401
94.329
88.264
82.225
76.229
70.294
64.436
58.671
53.014
47.479
42.08
36.828
31.734
26.808
22.06
17.496
13.124
8.949
4.976
1.208
-2.351
-5.702
-8.842
-11.773
-14.496
-17.013
-19.329
-21.448
-23.373
-25.112
-26.67
-28.054
-29.272
-30.332
-31.242
-32.01
-32.645
-33.157
-33.554
-33.846
-34.042
-34.15
-34.181
-34.141
-34.041
-33.888
-33.691
-33.456
-33.192
-32.905
-32.602
-32.289
-31.971
-31.654
-31.343
-31.041
-30.752
-30.48
-30.228
-29.998
-29.792
-29.611
-29.457
-29.33
-29.23
-29.158
-29.113
-29.094
-29.101
-29.131
-29.184
-29.258
-29.352
-29.464
-29.591
-29.733
-29.887
-30.052
-30.226
-30.407
-30.592
-30.781
-30.973
-31.165
-31.357
-31.548
-31.737
-31.924
-32.109
-32.291
-32.471
-32.648
-32.823
-32.997
-33.171
-33.345
-33.521
-33.7
-33.884
-34.075
-34.274
-34.484
-34.706
-34.941
-35.191
-35.456
-35.739
-36.039
-36.359
-36.699
-37.06
-37.444
-37.85
-38.28
-38.732
-39.205
-39.7
-40.213
-40.744
-41.289
-41.845
-42.41
-42.98
-43.553
-44.126
-44.695
-45.255
-45.801
-46.33
-46.834
-47.309
-47.748
-48.145
-48.494
-48.792
-49.033
-49.216
-49.335
-49.387
-49.369
-49.278
-49.113
-48.87
-48.546
-48.139
-47.649
-47.078
-46.427
-45.7
-44.899
-44.03
-43.101
-42.119
-41.091
-40.02
-38.914
-37.776
-36.614
-35.432
-34.234
-33.024
-31.81
-30.601
-29.409
-28.245
-27.117
-26.032
-24.998
-24.021
-23.108
-22.261
-21.472
-20.741
-20.071
-19.473
-18.968
-18.568
-18.268
-18.064
-17.952
-17.913
-17.926
-17.948
-17.905
-17.744
-17.433
-16.96
-16.336
-15.564
-14.63
-13.518
-12.218
-10.731
-9.075
-7.255
-5.265
-3.141
-0.969
1.088
2.805
4.001
4.559
4.403
3.489
1.775
-0.766
-4.111
-8.175
-12.855
-18.086
-23.866
-30.163
-36.833
-43.602
-50.018
-55.583
-59.898
-62.53
-62.99
-60.972
-56.381
-49.458
-40.866
-31.276
-21.11
-10.792
-0.852
8.495
17.534
27.286
39.545
55.767
76.559
102.125
132.638
167.771
205.911
243.603
275.572
296.779
303.587
293.121
262.712
209.972
134.258
38.153
-72.57
-191.397
-312.577
-430.674
-540.124
-634.289
-707.013
-755.355
-779.471
-780.713
-760.923
-722.124
-666.565
-598.978
-525.619
-451.023
-378.443
-310.733
-249.615
-196.877
-154.793
-123.308
-100.384
-84.457
-73.602
-65.556
-59.341
-53.823
-47.048
-38.364
-28.147
-16.712
-5.243
4.705
12.697
18.476
21.517
21.923
19.986
16.01
10.962
6.019
1.811
-1.253
-2.927
-3.263
-2.228
0.238
3.969
8.707
14.225
20.304
26.815
33.706
40.864
48.11
55.223
61.989
68.273
74.011
79.181
83.761
87.726
91.078
93.866
96.167
98.065
99.628
100.901
101.936
102.804
103.592
104.407
105.33
106.411
107.685
109.173
110.894
112.864
115.082
117.529
120.187
123.039
126.077
129.298
132.691
136.234
139.905
143.679
147.535
151.456
155.422
159.411
163.405
167.382
171.328
175.227
179.061
182.807
186.444
189.947
193.294
196.462
199.428
202.17
204.666
206.899
208.85
210.506
211.851
212.873
213.56
213.903
213.895
213.53
212.805
211.715
210.262
208.448
206.277
203.755
200.889
197.687
194.159
190.32
186.181
181.758
177.067
172.126
166.952
161.566
155.988
150.241
144.344
138.322
132.196
125.99
119.726
113.427
107.115
100.81
94.535
88.309
82.151
76.082
70.117
64.275
58.57
53.018
47.632
42.424
37.406
32.586
27.974
23.576
19.399
15.446
11.722
8.229
4.966
1.935
-0.867
-3.443
-5.795
-7.929
-9.851
-11.567
-13.084
-14.411
-15.555
-16.528
-17.337
-17.993
-18.507
-18.889
-19.149
-19.299
-19.35
-19.311
-19.193
-19.008
-18.763
-18.471
-18.139
-17.776
-17.391
-16.992
-16.586
-16.18
-15.78
-15.393
-15.022
-14.673
-14.35
-14.056
-13.794
-13.567
-13.376
-13.222
-13.107
-13.031
-12.994
-12.996
-13.035
-13.112
-13.225
-13.371
-13.55
-13.76
-13.998
-14.262
-14.551
-14.861
-15.191
-15.537
-15.899
-16.273
-16.658
-17.051
-17.451
-17.855
-18.263
-18.672
-19.082
-19.491
-19.899
-20.304
-20.705
-21.103
-21.497
-21.886
-22.27
-22.649
-23.023
-23.393
-23.759
-24.121
-24.481
-24.839
-25.196
-25.554
-25.912
-26.272
-26.635
-27.001
-27.374
-27.752
-28.138
-28.534
-28.94
-29.358
-29.789
-30.233
-30.69
-31.161
-31.647
-32.147
-32.661
-33.189
-33.731
-34.286
-34.855
-35.436
-36.028
-36.63
-37.241
-37.856
-38.475
-39.095
-39.711
-40.319
-40.918
-41.503
-42.072
-42.62
-43.144
-43.639
-44.101
-44.525
-44.906
-45.238
-45.515
-45.733
-45.888
-45.975
-45.992
-45.937
-45.806
-45.596
-45.308
-44.938
-44.487
-43.953
-43.333
-42.628
-41.841
-40.975
-40.031
-39.016
-37.935
-36.794
-35.604
-34.373
-33.107
-31.814
-30.5
-29.172
-27.837
-26.501
-25.167
-23.843
-22.537
-21.26
-20.025
-18.841
-17.718
-16.664
-15.688
-14.794
-13.987
-13.268
-12.632
-12.08
-11.617
-11.252
-11.005
-10.884
-10.885
-11.005
-11.235
-11.551
-11.923
-12.299
-12.61
-12.815
-12.888
-12.817
-12.611
-12.265
-11.765
-11.113
-10.297
-9.309
-8.154
-6.825
-5.329
-3.727
-2.132
-0.706
0.348
0.885
0.811
0.043
-1.455
-3.716
-6.748
-10.466
-14.786
-19.636
-24.975
-30.81
-37.087
-43.595
-50.006
-55.899
-60.797
-64.336
-66.103
-65.569
-62.473
-56.801
-48.849
-39.39
-29.131
-18.402
-7.691
2.366
11.785
20.983
31.028
43.937
61.08
82.806
109.597
141.809
178.326
216.886
253.478
282.28
298.71
299.581
281.502
241.429
178.092
92.331
-11.716
-127.114
-247.805
-368.266
-482.346
-583.664
-665.981
-724.91
-759.478
-771.138
-761.487
-732.743
-687.582
-629.454
-563.882
-495.855
-428.7
-365.12
-306.902
-254.962
-210.753
-175.375
-147.609
-126.025
-109.128
-94.668
-81.695
-70.03
-58.646
-46.464
-33.46
-19.754
-6.158
5.575
14.775
21.488
25.546
26.941
25.814
22.289
17.048
11.359
6.078
1.677
-1.536
-3.547
-4.288
-3.612
-1.558
1.677
5.867
10.797
16.303
22.323
28.767
35.489
42.299
48.953
55.249
61.065
66.334
71.031
75.13
78.606
81.47
83.777
85.61
87.054
88.175
89.018
89.638
90.108
90.523
90.991
91.593
92.377
93.378
94.618
96.115
97.887
99.932
102.228
104.754
107.495
110.44
113.586
116.919
120.417
124.056
127.809
131.654
135.573
139.544
143.544
147.552
151.547
155.511
159.428
163.279
167.04
170.689
174.199
177.548
180.712
183.67
186.396
188.87
191.074
192.989
194.602
195.898
196.865
197.492
197.771
197.694
197.258
196.459
195.296
193.769
191.882
189.64
187.05
184.119
180.857
177.276
173.388
169.208
164.752
160.036
155.078
149.898
144.515
138.951
133.228
127.366
121.389
115.319
109.18
102.993
96.783
90.569
84.373
78.216
72.117
66.096
60.171
54.359
48.675
43.136
37.756
32.547
27.521
22.689
18.06
13.642
9.443
5.468
1.722
-1.793
-5.073
-8.118
-10.928
-13.503
-15.848
-17.964
-19.856
-21.529
-22.99
-24.246
-25.304
-26.172
-26.859
-27.375
-27.729
-27.932
-27.993
-27.923
-27.732
-27.432
-27.032
-26.543
-25.976
-25.34
-24.646
-23.903
-23.12
-22.306
-21.471
-20.622
-19.766
-18.912
-18.065
-17.233
-16.421
-15.634
-14.877
-14.155
-13.471
-12.828
-12.23
-11.678
-11.174
-10.719
-10.315
-9.961
-9.659
-9.406
-9.204
-9.051
-8.945
-8.886
-8.871
-8.899
-8.967
-9.075
-9.218
-9.397
-9.607
-9.847
-10.114
-10.407
-10.723
-11.058
-11.413
-11.783
-12.167
-12.564
-12.971
-13.386
-13.808
-14.236
-14.668
-15.103
-15.539
-15.976
-16.413
-16.848
-17.282
-17.714
-18.144
-18.571
-18.996
-19.42
-19.843
-20.265
-20.686
-21.108
-21.53
-21.954
-22.38
-22.808
-23.24
-23.676
-24.117
-24.565
-25.02
-25.482
-25.952
-26.43
-26.915
-27.407
-27.907
-28.414
-28.927
-29.446
-29.971
-30.5
-31.035
-31.572
-32.11
-32.648
-33.183
-33.711
-34.231
-34.738
-35.229
-35.701
-36.149
-36.573
-36.967
-37.328
-37.653
-37.937
-38.176
-38.365
-38.5
-38.576
-38.588
-38.534
-38.411
-38.218
-37.952
-37.613
-37.199
-36.711
-36.147
-35.508
-34.794
-34.003
-33.138
-32.201
-31.197
-30.13
-29.005
-27.829
-26.609
-25.357
-24.081
-22.789
-21.487
-20.183
-18.883
-17.595
-16.324
-15.072
-13.848
-12.66
-11.516
-10.429
-9.408
-8.459
-7.591
-6.809
-6.116
-5.516
-5.009
-4.585
-4.244
-3.992
-3.833
-3.788
-3.862
-4.049
-4.346
-4.74
-5.206
-5.712
-6.203
-6.609
-6.886
-7.008
-6.961
-6.753
-6.379
-5.823
-5.089
-4.163
-3.038
-1.719
-0.199
1.515
3.357
5.21
6.906
8.238
9.057
9.263
8.772
7.545
5.546
2.769
-0.702
-4.777
-9.388
-14.494
-20.104
-26.163
-32.454
-38.641
-44.291
-48.923
-52.165
-53.6
-52.69
-49.174
-43.05
-34.63
-24.715
-14.029
-2.901
8.177
18.566
28.289
37.772
48.105
61.34
78.852
100.968
128.15
160.727
197.537
236.267
272.843
301.367
317.217
317.191
297.886
256.25
191.056
103.219
-3.031
-120.641
-243.444
-365.832
-481.543
-584.09
-667.191
-726.456
-760.94
-772.176
-761.838
-732.215
-686.088
-627.015
-560.591
-491.86
-424.182
-360.243
-301.815
-249.801
-205.63
-170.383
-142.821
-121.481
-104.838
-90.645
-77.95
-66.572
-55.477
-43.561
-30.785
-17.276
-3.854
7.726
16.797
23.418
27.422
28.795
27.672
24.186
19.026
13.47
8.379
4.219
1.295
-0.382
-0.748
0.335
2.824
6.51
11.162
16.557
22.528
29.009
35.909
43.077
50.322
57.394
64.092
70.291
75.921
80.958
85.372
89.139
92.27
94.819
96.87
98.509
99.8
100.788
101.529
102.096
102.582
103.096
103.716
104.492
105.459
106.638
108.049
109.711
111.622
113.762
116.113
118.66
121.395
124.316
127.411
130.663
134.047
137.541
141.126
144.786
148.501
152.253
156.022
159.79
163.541
167.261
170.933
174.535
178.044
181.439
184.696
187.794
190.71
193.421
195.907
198.149
200.13
201.834
203.248
204.356
205.147
205.613
205.744
205.534
204.978
204.072
202.815
201.208
199.254
196.956
194.321
191.354
188.065
184.465
180.564
176.378
171.919
167.203
162.248
157.072
151.694
146.134
140.413
134.551
128.571
122.495
116.344
110.141
103.906
97.66
91.425
85.221
79.066
72.981
66.982
61.088
55.314
49.676
44.189
38.865
33.718
28.757
23.994
19.436
15.092
10.967
7.067
3.395
-0.045
-3.253
-6.228
-8.972
-11.486
-13.773
-15.838
-17.686
-19.323
-20.756
-21.992
-23.04
-23.909
-24.608
-25.147
-25.536
-25.785
-25.905
-25.907
-25.802
-25.6
-25.312
-24.949
-24.522
-24.039
-23.512
-22.95
-22.362
-21.756
-21.142
-20.525
-19.914
-19.316
-18.736
-18.179
-17.652
-17.157
-16.698
-16.279
-15.903
-15.57
-15.283
-15.042
-14.847
-14.7
-14.598
-14.542
-14.53
-14.56
-14.631
-14.74
-14.885
-15.064
-15.273
-15.51
-15.771
-16.053
-16.354
-16.67
-16.998
-17.336
-17.68
-18.027
-18.375
-18.722
-19.064
-19.401
-19.729
-20.047
-20.354
-20.649
-20.931
-21.198
-21.451
-21.689
-21.913
-22.122
-22.317
-22.498
-22.666
-22.823
-22.968
-23.105
-23.234
-23.357
-23.477
-23.596
-23.716
-23.84
-23.97
-24.108
-24.257
-24.419
-24.597
-24.793
-25.01
-25.25
-25.516
-25.809
-26.133
-26.49
-26.879
-27.302
-27.76
-28.254
-28.784
-29.349
-29.949
-30.585
-31.255
-31.96
-32.697
-33.466
-34.263
-35.087
-35.933
-36.798
-37.678
-38.568
-39.463
-40.358
-41.248
-42.13
-42.997
-43.845
-44.667
-45.458
-46.212
-46.921
-47.58
-48.18
-48.715
-49.181
-49.571
-49.883
-50.112
-50.256
-50.312
-50.277
-50.148
-49.926
-49.607
-49.189
-48.674
-48.061
-47.354
-46.557
-45.674
-44.711
-43.675
-42.576
-41.423
-40.223
-38.985
-37.714
-36.419
-35.105
-33.778
-32.445
-31.114
-29.794
-28.496
-27.234
-26.021
-24.866
-23.78
-22.77
-21.841
-20.998
-20.24
-19.563
-18.967
-18.456
-18.041
-17.74
-17.56
-17.501
-17.56
-17.725
-17.975
-18.28
-18.586
-18.834
-18.98
-18.997
-18.877
-18.632
-18.261
-17.762
-17.124
-16.329
-15.373
-14.26
-12.976
-11.529
-9.961
-8.361
-6.897
-5.763
-5.1
-5.019
-5.58
-6.81
-8.738
-11.371
-14.669
-18.565
-22.973
-27.825
-33.116
-38.829
-44.849
-50.914
-56.604
-61.455
-65.058
-67.094
-67.209
-64.959
-60.143
-52.857
-43.527
-32.99
-21.967
-10.753
0.222
10.317
19.555
28.375
37.815
49.909
66.029
86.425
111.508
141.544
175.262
210.28
242.566
266.387
277.294
272.302
248.303
202.585
134.344
44.983
-60.997
-176.577
-295.534
-412.405
-521.281
-615.782
-690.096
-740.427
-766.049
-769.007
-751.655
-716.337
-665.918
-604.503
-537.525
-470.071
-405.859
-346.559
-292.97
-245.93
-206.425
-174.888
-150.091
-129.917
-112.124
-95.603
-80.285
-66.098
-52.497
-38.612
-24.342
-10.531
1.362
10.401
16.588
20.242
21.64
20.741
17.585
12.751
7.324
2.28
-1.838
-4.794
-6.582
-7.12
-6.236
-3.91
-0.287
4.419
9.975
16.215
23.056
30.38
38.023
45.785
53.405
60.673
67.461
73.678
79.287
84.27
88.6
92.282
95.368
97.925
100.033
101.762
103.16
104.287
105.219
106.051
106.894
107.835
108.927
110.211
111.71
113.442
115.425
117.659
120.123
122.801
125.68
128.749
132.007
135.444
139.04
142.773
146.619
150.556
154.565
158.628
162.724
166.832
170.933
175.009
179.047
183.029
186.93
190.729
194.4
197.92
201.265
204.411
207.335
210.013
212.427
214.556
216.385
217.899
219.083
219.924
220.412
220.538
220.296
219.679
218.686
217.313
215.562
213.435
210.939
208.078
204.86
201.296
197.397
193.176
188.649
183.83
178.738
173.39
167.808
162.011
156.022
149.863
143.558
137.13
130.604
124.003
117.352
110.673
103.991
97.326
90.703
84.142
77.662
71.285
65.029
58.911
52.948
47.156
41.548
36.138
30.938
25.956
21.204
16.687
12.413
8.387
4.611
1.089
-2.18
-5.194
-7.957
-10.469
-12.737
-14.764
-16.557
-18.123
-19.47
-20.606
-21.542
-22.287
-22.851
-23.247
-23.485
-23.577
-23.534
-23.37
-23.095
-22.722
-22.262
-21.727
-21.128
-20.477
-19.783
-19.057
-18.31
-17.549
-16.784
-16.023
-15.274
-14.544
-13.84
-13.166
-12.529
-11.933
-11.382
-10.879
-10.428
-10.03
-9.687
-9.4
-9.17
-8.997
-8.881
-8.82
-8.814
-8.862
-8.961
-9.11
-9.305
-9.546
-9.829
-10.152
-10.512
-10.906
-11.332
-11.787
-12.267
-12.771
-13.296
-13.838
-14.396
-14.966
-15.546
-16.135
-16.73
-17.329
-17.932
-18.537
-19.142
-19.747
-20.351
-20.952
-21.551
-22.147
-22.74
-23.33
-23.917
-24.503
-25.087
-25.671
-26.255
-26.84
-27.426
-28.012
-28.6
-29.189
-29.78
-30.373
-30.968
-31.565
-32.164
-32.767
-33.371
-33.978
-34.585
-35.192
-35.797
-36.399
-36.994
-37.582
-38.158
-38.722
-39.27
-39.8
-40.31
-40.796
-41.254
-41.68
-42.07
-42.42
-42.724
-42.977
-43.177
-43.319
-43.401
-43.422
-43.379
-43.271
-43.096
-42.854
-42.543
-42.162
-41.712
-41.19
-40.599
-39.941
-39.219
-38.437
-37.599
-36.712
-35.782
-34.818
-33.828
-32.817
-31.792
-30.76
-29.725
-28.695
-27.675
-26.671
-25.69
-24.739
-23.829
-22.972
-22.177
-21.452
-20.801
-20.228
-19.735
-19.325
-18.996
-18.743
-18.564
-18.463
-18.45
-18.541
-18.744
-19.056
-19.468
-19.966
-20.519
-21.089
-21.635
-22.1
-22.446
-22.654
-22.715
-22.641
-22.434
-22.087
-21.59
-20.92
-20.055
-18.986
-17.722
-16.282
-14.742
-13.236
-11.907
-10.936
-10.46
-10.559
-11.297
-12.688
-14.727
-17.389
-20.61
-24.326
-28.502
-33.12
-38.16
-43.546
-49.044
-54.289
-58.886
-62.385
-64.433
-64.668
-62.626
-58.135
-51.321
-42.589
-32.752
-22.515
-12.139
-2.048
7.142
15.519
23.551
32.288
43.753
59.197
78.779
102.817
131.442
163.367
196.258
226.209
247.744
256.613
250
225.051
179.324
112.243
25.386
-76.931
-188.073
-301.849
-412.906
-515.484
-603.333
-671.357
-716.51
-738.11
-738.119
-719.268
-684.037
-635.701
-578.84
-517.86
-456.714
-398.851
-345.601
-297.231
-254.385
-217.181
-185.092
-157.849
-134.372
-112.752
-92.439
-73.641
-56.279
-40.581
-26.495
-13.292
-1.19
8.645
15.78
20.215
22.122
22.153
20.618
17.315
12.613
7.424
2.459
-1.664
-4.599
-6.423
-7.101
-6.438
-4.41
-1.114
3.298
8.565
14.488
20.982
27.915
35.14
42.477
49.671
56.518
62.892
68.704
73.921
78.528
82.501
85.849
88.624
90.895
92.742
94.239
95.437
96.398
97.194
97.916
98.671
99.542
100.583
101.833
103.316
105.047
107.044
109.307
111.814
114.549
117.496
120.645
123.991
127.522
131.218
135.057
139.012
143.061
147.184
151.361
155.569
159.785
163.99
168.164
172.292
176.354
180.326
184.184
187.902
191.456
194.823
197.977
200.895
203.554
205.934
208.017
209.787
211.229
212.329
213.075
213.458
213.47
213.105
212.36
211.232
209.72
207.829
205.56
202.922
199.922
196.569
192.874
188.852
184.516
179.882
174.969
169.795
164.378
158.742
152.907
146.896
140.732
134.439
128.042
121.564
115.029
108.461
101.884
95.319
88.788
82.314
75.916
69.613
63.425
57.367
51.458
45.711
40.142
34.762
29.582
24.614
19.864
15.341
11.05
6.996
3.182
-0.389
-3.718
-6.804
-9.649
-12.256
-14.629
-16.774
-18.695
-20.401
-21.898
-23.196
-24.303
-25.229
-25.983
-26.578
-27.022
-27.328
-27.505
-27.567
-27.523
-27.384
-27.163
-26.868
-26.511
-26.102
-25.651
-25.166
-24.657
-24.133
-23.599
-23.065
-22.537
-22.021
-21.522
-21.046
-20.597
-20.178
-19.794
-19.446
-19.136
-18.866
-18.638
-18.45
-18.304
-18.199
-18.135
-18.108
-18.12
-18.166
-18.246
-18.358
-18.497
-18.663
-18.851
-19.059
-19.285
-19.525
-19.775
-20.035
-20.3
-20.568
-20.836
-21.102
-21.365
-21.621
-21.868
-22.106
-22.332
-22.546
-22.745
-22.93
-23.1
-23.254
-23.394
-23.519
-23.631
-23.729
-23.817
-23.893
-23.961
-24.021
-24.076
-24.128
-24.179
-24.231
-24.287
-24.35
-24.423
-24.508
-24.608
-24.725
-24.861
-25.017
-25.196
-25.4
-25.63
-25.888
-26.175
-26.492
-26.842
-27.223
-27.637
-28.082
-28.558
-29.063
-29.596
-30.153
-30.731
-31.327
-31.939
-32.563
-33.196
-33.834
-34.471
-35.104
-35.726
-36.333
-36.917
-37.473
-37.994
-38.473
-38.906
-39.289
-39.617
-39.886
-40.091
-40.23
-40.299
-40.295
-40.216
-40.057
-39.815
-39.492
-39.086
-38.6
-38.037
-37.398
-36.69
-35.92
-35.096
-34.223
-33.307
-32.354
-31.369
-30.359
-29.329
-28.282
-27.223
-26.16
-25.104
-24.067
-23.059
-22.089
-21.166
-20.298
-19.491
-18.754
-18.085
-17.482
-16.943
-16.473
-16.084
-15.795
-15.616
-15.542
-15.568
-15.69
-15.891
-16.149
-16.418
-16.631
-16.732
-16.693
-16.505
-16.172
-15.694
-15.054
-14.232
-13.222
-12.035
-10.687
-9.186
-7.528
-5.746
-3.922
-2.216
-0.838
0.04
0.312
-0.089
-1.212
-3.101
-5.798
-9.305
-13.514
-18.306
-23.59
-29.32
-35.494
-42.012
-48.602
-54.847
-60.259
-64.399
-66.95
-67.555
-65.721
-61.217
-54.087
-44.703
-33.954
-22.615
-11.003
0.415
11.005
20.813
30.278
40.455
53.426
70.584
92.194
118.675
150.237
185.548
222.151
255.899
280.97
292.866
288.553
264.901
219.241
150.805
61.021
-45.528
-161.773
-281.521
-399.215
-508.868
-604.304
-679.79
-731.619
-759.254
-764.458
-749.189
-715.86
-667.324
-607.184
-540.67
-472.41
-405.531
-342.454
-284.809
-233.491
-189.773
-154.666
-127.142
-105.905
-89.62
-76.24
-64.771
-54.94
-45.694
-35.852
-25.286
-14.068
-2.886
6.639
13.901
18.993
21.729
22.07
20.184
16.25
11.008
5.711
1.114
-2.409
-4.613
-5.513
-5.058
-3.137
0.147
4.543
9.811
15.738
22.185
29.076
36.284
43.616
50.836
57.722
64.131
69.977
75.221
79.849
83.838
87.191
89.959
92.21
94.021
95.464
96.589
97.452
98.128
98.706
99.294
99.982
100.827
101.869
103.134
104.639
106.401
108.42
110.677
113.156
115.842
118.727
121.807
125.074
128.509
132.09
135.794
139.598
143.484
147.433
151.425
155.438
159.454
163.456
167.43
171.358
175.218
178.987
182.639
186.153
189.505
192.672
195.63
198.357
200.834
203.042
204.966
206.592
207.904
208.89
209.542
209.85
209.807
209.41
208.654
207.538
206.063
204.233
202.051
199.524
196.66
193.468
189.96
186.148
182.047
177.671
173.038
168.164
163.069
157.773
152.296
146.659
140.884
134.993
129.008
122.953
116.848
110.715
104.575
98.449
92.357
86.317
80.35
74.471
68.698
63.046
57.531
52.166
46.963
41.934
37.088
32.436
27.984
23.739
19.706
15.89
12.293
8.917
5.763
2.83
0.117
-2.379
-4.662
-6.736
-8.606
-10.278
-11.76
-13.058
-14.182
-15.139
-15.939
-16.59
-17.102
-17.486
-17.75
-17.904
-17.959
-17.924
-17.809
-17.623
-17.376
-17.075
-16.731
-16.352
-15.944
-15.516
-15.074
-14.626
-14.176
-13.732
-13.297
-12.877
-12.476
-12.097
-11.743
-11.418
-11.123
-10.861
-10.633
-10.439
-10.281
-10.158
-10.071
-10.019
-10.002
-10.018
-10.068
-10.148
-10.26
-10.4
-10.567
-10.76
-10.977
-11.216
-11.476
-11.754
-12.05
-12.361
-12.687
-13.025
-13.375
-13.735
-14.104
-14.482
-14.866
-15.256
-15.652
-16.051
-16.454
-16.861
-17.27
-17.683
-18.098
-18.517
-18.939
-19.366
-19.796
-20.231
-20.671
-21.116
-21.567
-22.025
-22.489
-22.962
-23.444
-23.936
-24.438
-24.952
-25.477
-26.013
-26.56
-27.119
-27.688
-28.267
-28.856
-29.455
-30.062
-30.678
-31.301
-31.932
-32.568
-33.207
-33.847
-34.486
-35.121
-35.748
-36.364
-36.966
-37.551
-38.115
-38.656
-39.17
-39.653
-40.101
-40.51
-40.875
-41.191
-41.454
-41.658
-41.799
-41.876
-41.886
-41.827
-41.697
-41.495
-41.22
-40.871
-40.448
-39.951
-39.379
-38.731
-38.009
-37.218
-36.36
-35.441
-34.466
-33.441
-32.376
-31.28
-30.16
-29.023
-27.876
-26.724
-25.575
-24.435
-23.308
-22.199
-21.115
-20.067
-19.065
-18.121
-17.241
-16.433
-15.702
-15.054
-14.495
-14.025
-13.636
-13.325
-13.095
-12.955
-12.922
-13.009
-13.208
-13.512
-13.917
-14.404
-14.949
-15.508
-16.007
-16.39
-16.625
-16.697
-16.614
-16.376
-15.969
-15.373
-14.576
-13.581
-12.402
-11.041
-9.492
-7.79
-6.017
-4.332
-2.958
-2.073
-1.797
-2.206
-3.347
-5.261
-7.978
-11.479
-15.68
-20.477
-25.807
-31.666
-38.026
-44.748
-51.562
-58.024
-63.641
-68.017
-70.722
-71.27
-69.352
-64.869
-58.048
-49.539
-40.011
-29.889
-19.599
-9.676
-0.324
8.748
18.55
30.867
47.162
68.042
93.729
124.41
159.735
198.083
236
268.213
289.698
296.83
286.744
256.788
204.572
129.438
33.948
-76.155
-194.401
-315.073
-432.799
-542.088
-636.322
-709.371
-758.289
-783.196
-785.475
-766.975
-729.701
-675.895
-610.2
-538.738
-465.974
-395.093
-328.819
-268.794
-216.693
-174.65
-142.666
-118.81
-101.6
-89.239
-79.552
-71.611
-64.383
-56.033
-45.959
-34.562
-22.138
-9.816
0.848
9.411
15.596
18.863
19.373
17.464
13.451
8.311
3.2
-1.255
-4.62
-6.62
-7.307
-6.642
-4.567
-1.251
3.084
8.233
13.996
20.264
26.965
33.966
41.084
48.085
54.751
60.945
66.588
71.642
76.093
79.919
83.129
85.776
87.931
89.671
91.063
92.15
92.989
93.655
94.237
94.842
95.558
96.439
97.523
98.837
100.397
102.219
104.301
106.624
109.168
111.92
114.869
118.011
121.337
124.826
128.456
132.202
136.042
139.958
143.93
147.935
151.953
155.965
159.954
163.905
167.799
171.613
175.326
178.913
182.351
185.618
188.69
191.545
194.161
196.52
198.605
200.401
201.894
203.071
203.921
204.435
204.606
204.428
203.898
203.014
201.775
200.184
198.245
195.963
193.346
190.401
187.139
183.572
179.713
175.578
171.181
166.539
161.671
156.595
151.331
145.9
140.323
134.62
128.813
122.924
116.976
110.987
104.98
98.975
92.99
87.046
81.159
75.348
69.629
64.018
58.529
53.175
47.971
42.926
38.051
33.357
28.849
24.537
20.424
16.517
12.818
9.329
6.053
2.989
0.137
-2.506
-4.942
-7.174
-9.208
-11.049
-12.701
-14.173
-15.471
-16.602
-17.576
-18.399
-19.081
-19.631
-20.057
-20.369
-20.576
-20.687
-20.712
-20.658
-20.536
-20.354
-20.119
-19.841
-19.526
-19.183
-18.817
-18.437
-18.047
-17.654
-17.262
-16.877
-16.503
-16.144
-15.803
-15.484
-15.188
-14.917
-14.675
-14.461
-14.277
-14.124
-14.002
-13.911
-13.851
-13.821
-13.821
-13.849
-13.906
-13.988
-14.096
-14.227
-14.379
-14.551
-14.741
-14.948
-15.169
-15.403
-15.648
-15.902
-16.164
-16.432
-16.705
-16.981
-17.259
-17.538
-17.818
-18.097
-18.375
-18.651
-18.926
-19.198
-19.468
-19.735
-19.999
-20.26
-20.519
-20.777
-21.032
-21.287
-21.542
-21.798
-22.057
-22.32
-22.587
-22.859
-23.139
-23.427
-23.725
-24.034
-24.356
-24.692
-25.043
-25.412
-25.799
-26.207
-26.635
-27.083
-27.553
-28.044
-28.556
-29.088
-29.642
-30.215
-30.807
-31.418
-32.048
-32.694
-33.355
-34.028
-34.712
-35.402
-36.096
-36.79
-37.479
-38.16
-38.828
-39.481
-40.113
-40.722
-41.3
-41.844
-42.349
-42.809
-43.218
-43.57
-43.86
-44.082
-44.234
-44.312
-44.314
-44.238
-44.081
-43.842
-43.519
-43.113
-42.622
-42.045
-41.381
-40.633
-39.804
-38.898
-37.919
-36.874
-35.768
-34.613
-33.417
-32.188
-30.932
-29.658
-28.372
-27.082
-25.794
-24.513
-23.244
-21.997
-20.78
-19.607
-18.489
-17.434
-16.449
-15.541
-14.717
-13.982
-13.338
-12.777
-12.296
-11.899
-11.595
-11.403
-11.334
-11.383
-11.541
-11.804
-12.152
-12.562
-12.988
-13.358
-13.614
-13.723
-13.673
-13.47
-13.116
-12.595
-11.887
-10.981
-9.877
-8.591
-7.127
-5.478
-3.679
-1.814
-0.044
1.409
2.368
2.712
2.369
1.292
-0.559
-3.214
-6.655
-10.799
-15.542
-20.817
-26.618
-32.913
-39.565
-46.302
-52.678
-58.203
-62.478
-65.078
-65.524
-63.502
-58.902
-51.941
-43.248
-33.485
-23.088
-12.488
-2.223
7.471
16.854
26.891
39.313
55.578
76.319
101.771
132.148
167.154
205.23
243.012
275.304
297.079
304.693
295.259
266.084
214.72
140.393
45.511
-64.299
-182.61
-303.746
-422.34
-532.892
-628.761
-703.662
-754.448
-781.087
-784.827
-767.405
-730.761
-677.079
-610.953
-538.619
-464.691
-392.472
-324.831
-263.518
-210.264
-167.283
-134.637
-110.353
-92.898
-80.429
-70.687
-62.706
-55.446
-47.045
-36.884
-25.381
-12.844
-0.42
10.297
18.853
24.976
28.128
28.476
26.369
22.126
16.736
11.376
6.685
3.106
0.919
0.074
0.614
2.598
5.858
10.167
15.316
21.1
27.402
34.147
41.196
48.362
55.408
62.112
68.334
73.994
79.05
83.49
87.29
90.457
93.045
95.124
96.773
98.06
99.03
99.74
100.267
100.701
101.152
101.707
102.42
103.332
104.468
105.845
107.479
109.368
111.493
113.835
116.381
119.12
122.049
125.159
128.43
131.84
135.365
138.983
142.677
146.428
150.215
154.018
157.819
161.601
165.351
169.05
172.678
176.212
179.63
182.907
186.024
188.957
191.683
194.182
196.436
198.428
200.143
201.567
202.688
203.495
203.977
204.13
203.945
203.421
202.553
201.342
199.789
197.898
195.674
193.122
190.251
187.071
183.592
179.828
175.792
171.498
166.964
162.205
157.241
152.091
146.774
141.31
135.721
130.028
124.251
118.412
112.532
106.631
100.729
94.845
88.999
83.207
77.488
71.858
66.332
60.926
55.652
50.524
45.553
40.749
36.123
31.681
27.432
23.381
19.533
15.891
12.459
9.237
6.226
3.426
0.833
-1.553
-3.737
-5.723
-7.517
-9.124
-10.551
-11.806
-12.896
-13.83
-14.615
-15.261
-15.777
-16.172
-16.455
-16.636
-16.724
-16.728
-16.657
-16.52
-16.326
-16.082
-15.798
-15.481
-15.138
-14.776
-14.401
-14.02
-13.638
-13.261
-12.892
-12.537
-12.199
-11.881
-11.587
-11.319
-11.078
-10.868
-10.688
-10.541
-10.426
-10.345
-10.296
-10.281
-10.299
-10.349
-10.431
-10.544
-10.686
-10.858
-11.058
-11.284
-11.536
-11.812
-12.111
-12.432
-12.773
-13.133
-13.511
-13.905
-14.314
-14.738
-15.175
-15.623
-16.082
-16.551
-17.028
-17.512
-18.002
-18.498
-18.997
-19.5
-20.005
-20.511
-21.018
-21.523
-22.027
-22.528
-23.025
-23.517
-24.003
-24.482
-24.953
-25.416
-25.869
-26.312
-26.745
-27.168
-27.579
-27.98
-28.369
-28.747
-29.113
-29.467
-29.811
-30.144
-30.467
-30.781
-31.088
-31.388
-31.682
-31.971
-32.256
-32.537
-32.815
-33.092
-33.367
-33.642
-33.918
-34.197
-34.478
-34.764
-35.055
-35.351
-35.652
-35.958
-36.268
-36.58
-36.893
-37.206
-37.516
-37.823
-38.125
-38.419
-38.704
-38.976
-39.232
-39.47
-39.684
-39.87
-40.023
-40.138
-40.213
-40.244
-40.227
-40.161
-40.043
-39.869
-39.639
-39.35
-38.999
-38.586
-38.107
-37.56
-36.948
-36.271
-35.531
-34.732
-33.877
-32.972
-32.026
-31.045
-30.034
-28.999
-27.946
-26.88
-25.805
-24.727
-23.648
-22.574
-21.512
-20.473
-19.468
-18.507
-17.597
-16.749
-15.968
-15.26
-14.629
-14.076
-13.595
-13.186
-12.856
-12.612
-12.475
-12.453
-12.544
-12.747
-13.052
-13.437
-13.872
-14.305
-14.671
-14.931
-15.058
-15.039
-14.887
-14.598
-14.164
-13.592
-12.865
-11.978
-10.934
-9.724
-8.355
-6.889
-5.431
-4.141
-3.216
-2.795
-2.98
-3.853
-5.441
-7.774
-10.85
-14.583
-18.897
-23.723
-29.016
-34.784
-40.972
-47.387
-53.717
-59.546
-64.423
-67.999
-69.869
-69.532
-66.716
-61.373
-53.8
-44.752
-34.892
-24.593
-14.263
-4.437
4.665
13.29
22.442
34.002
49.468
69.467
94.234
123.907
158.13
195.285
231.896
262.689
282.644
288.105
276.205
244.36
190.26
113.399
16.529
-94.555
-213.378
-334.181
-451.575
-560.051
-653.007
-724.459
-771.67
-794.897
-795.574
-775.609
-737.048
-682.206
-615.79
-543.887
-470.873
-399.836
-333.444
-273.313
-221.101
-178.926
-146.765
-122.708
-105.307
-92.811
-83.082
-75.204
-68.144
-60.052
-50.306
-39.272
-27.22
-15.261
-4.931
3.335
9.27
12.337
12.687
10.649
6.532
1.313
-3.841
-8.305
-11.643
-13.589
-14.196
-13.431
-11.24
-7.797
-3.334
1.939
7.816
14.186
20.979
28.064
35.256
42.323
49.043
55.28
60.956
66.032
70.494
74.322
77.524
80.156
82.29
84.005
85.368
86.423
87.224
87.847
88.38
88.929
89.58
90.386
91.387
92.609
94.069
95.782
97.748
99.948
102.362
104.978
107.788
110.787
113.967
117.309
120.793
124.396
128.099
131.883
135.732
139.625
143.543
147.469
151.387
155.284
159.142
162.94
166.657
170.27
173.757
177.096
180.265
183.241
186.004
188.535
190.817
192.835
194.574
196.021
197.163
197.991
198.496
198.673
198.515
198.018
197.182
196.005
194.49
192.641
190.461
187.958
185.139
182.015
178.595
174.892
170.921
166.694
162.229
157.542
152.651
147.575
142.334
136.946
131.434
125.816
120.115
114.351
108.544
102.713
96.879
91.06
85.276
79.544
73.881
68.303
62.827
57.468
52.239
47.154
42.224
37.46
32.872
28.469
24.259
20.248
16.442
12.845
9.46
6.29
3.335
0.596
-1.928
-4.241
-6.344
-8.241
-9.938
-11.44
-12.753
-13.885
-14.842
-15.633
-16.266
-16.75
-17.094
-17.308
-17.402
-17.384
-17.265
-17.054
-16.762
-16.397
-15.969
-15.488
-14.962
-14.4
-13.811
-13.202
-12.581
-11.955
-11.331
-10.715
-10.113
-9.53
-8.972
-8.441
-7.942
-7.479
-7.054
-6.669
-6.326
-6.027
-5.772
-5.562
-5.397
-5.277
-5.2
-5.166
-5.174
-5.222
-5.309
-5.432
-5.589
-5.779
-5.998
-6.245
-6.517
-6.81
-7.123
-7.453
-7.797
-8.154
-8.52
-8.893
-9.272
-9.654
-10.037
-10.421
-10.803
-11.181
-11.555
-11.924
-12.286
-12.642
-12.991
-13.332
-13.667
-13.995
-14.318
-14.636
-14.95
-15.262
-15.572
-15.882
-16.194
-16.509
-16.829
-17.157
-17.494
-17.843
-18.207
-18.587
-18.985
-19.403
-19.842
-20.303
-20.787
-21.297
-21.831
-22.391
-22.978
-23.592
-24.234
-24.902
-25.597
-26.316
-27.057
-27.82
-28.599
-29.393
-30.198
-31.009
-31.823
-32.635
-33.443
-34.241
-35.025
-35.789
-36.527
-37.232
-37.899
-38.52
-39.088
-39.597
-40.043
-40.419
-40.724
-40.953
-41.101
-41.167
-41.146
-41.038
-40.839
-40.547
-40.162
-39.682
-39.11
-38.449
-37.701
-36.873
-35.971
-35
-33.971
-32.892
-31.77
-30.613
-29.426
-28.217
-26.992
-25.76
-24.526
-23.299
-22.09
-20.91
-19.773
-18.692
-17.676
-16.734
-15.871
-15.092
-14.402
-13.801
-13.287
-12.86
-12.526
-12.294
-12.183
-12.205
-12.359
-12.636
-13.023
-13.49
-13.998
-14.504
-14.953
-15.306
-15.541
-15.651
-15.647
-15.537
-15.32
-14.982
-14.502
-13.854
-13.025
-12.02
-10.853
-9.595
-8.371
-7.321
-6.62
-6.412
-6.785
-7.796
-9.463
-11.779
-14.704
-18.185
-22.165
-26.596
-31.475
-36.795
-42.486
-48.339
-54.02
-59.129
-63.225
-65.951
-66.904
-65.61
-61.866
-55.743
-47.628
-38.279
-28.358
-18.151
-8.073
1.279
9.955
18.404
27.698
39.808
56.015
76.567
101.796
131.914
165.752
201.05
233.963
258.969
271.708
269.237
248.505
206.781
143.164
58.857
-42.095
-153.082
-268.01
-381.578
-487.885
-580.517
-654.002
-704.785
-731.907
-737.153
-722.979
-691.688
-646.408
-591.588
-531.874
-471.519
-414.118
-361.182
-313.053
-270.367
-233.395
-201.679
-174.787
-151.499
-129.725
-108.767
-88.913
-70.181
-52.833
-36.901
-21.723
-7.577
4.237
13.18
19.21
22.461
23.617
23.009
20.391
16.091
10.97
5.741
1.119
-2.466
-5.043
-6.548
-6.775
-5.675
-3.285
0.287
4.791
10.026
15.884
22.245
29
36.015
43.082
49.976
56.515
62.574
68.091
73.041
77.397
81.14
84.284
86.883
89.025
90.795
92.259
93.468
94.473
95.346
96.18
97.076
98.107
99.323
100.753
102.42
104.344
106.542
109.011
111.73
114.679
117.842
121.208
124.773
128.524
132.438
136.491
140.658
144.919
149.254
153.642
158.061
162.488
166.902
171.284
175.619
179.884
184.056
188.111
192.022
195.767
199.32
202.658
205.755
208.59
211.142
213.392
215.325
216.924
218.175
219.066
219.586
219.729
219.487
218.856
217.833
216.418
214.613
212.423
209.852
206.908
203.6
199.94
195.939
191.612
186.976
182.047
176.844
171.386
165.695
159.793
153.703
147.448
141.051
134.539
127.934
121.263
114.548
107.815
101.087
94.386
87.735
81.155
74.667
68.291
62.044
55.945
50.009
44.252
38.688
33.328
28.184
23.266
18.582
14.139
9.943
5.996
2.304
-1.134
-4.317
-7.247
-9.925
-12.355
-14.543
-16.493
-18.214
-19.711
-20.995
-22.074
-22.959
-23.659
-24.186
-24.552
-24.766
-24.842
-24.791
-24.624
-24.354
-23.991
-23.548
-23.035
-22.463
-21.842
-21.182
-20.493
-19.784
-19.063
-18.337
-17.614
-16.901
-16.204
-15.527
-14.878
-14.258
-13.673
-13.126
-12.619
-12.155
-11.735
-11.359
-11.029
-10.745
-10.507
-10.314
-10.165
-10.06
-9.998
-9.977
-9.996
-10.055
-10.152
-10.284
-10.452
-10.652
-10.884
-11.146
-11.438
-11.758
-12.105
-12.48
-12.88
-13.305
-13.754
-14.226
-14.72
-15.233
-15.766
-16.317
-16.884
-17.467
-18.065
-18.676
-19.3
-19.936
-20.581
-21.234
-21.892
-22.553
-23.215
-23.873
-24.526
-25.168
-25.798
-26.411
-27.005
-27.576
-28.12
-28.632
-29.108
-29.543
-29.932
-30.269
-30.549
-30.769
-30.924
-31.013
-31.034
-30.984
-30.863
-30.669
-30.402
-30.061
-29.646
-29.157
-28.594
-27.96
-27.257
-26.49
-25.664
-24.784
-23.857
-22.891
-21.896
-20.88
-19.851
-18.816
-17.782
-16.756
-15.747
-14.761
-13.803
-12.881
-12.004
-11.182
-10.426
-9.748
-9.154
-8.647
-8.233
-7.914
-7.691
-7.562
-7.521
-7.564
-7.693
-7.917
-8.255
-8.713
-9.288
-9.972
-10.747
-11.585
-12.449
-13.293
-14.057
-14.701
-15.2
-15.546
-15.75
-15.818
-15.744
-15.51
-15.087
-14.45
-13.585
-12.497
-11.204
-9.779
-8.348
-7.066
-6.114
-5.643
-5.745
-6.477
-7.856
-9.867
-12.468
-15.62
-19.275
-23.423
-28.085
-33.216
-38.714
-44.353
-49.757
-54.528
-58.264
-60.505
-60.764
-58.75
-54.412
-48.035
-40.274
-31.72
-22.742
-13.722
-5.152
2.762
10.343
18.611
29.334
43.949
62.995
86.612
114.897
147.468
182.775
217.54
246.778
265.701
270.824
259.468
229.231
177.964
105.216
13.506
-91.867
-204.686
-319.16
-430.034
-531.905
-618.459
-684.535
-727.621
-747.532
-746.132
-726.101
-689.879
-640.6
-583.019
-521.627
-460.211
-402.1
-348.572
-299.84
-256.568
-218.899
-186.245
-158.341
-134.158
-111.818
-90.842
-71.484
-53.673
-37.651
-23.363
-10.058
2.064
11.857
18.907
23.226
24.995
24.877
23.182
19.713
14.837
9.474
4.346
0.084
-2.962
-4.862
-5.584
-4.934
-2.886
0.46
4.949
10.316
16.358
22.987
30.07
37.458
44.966
52.336
59.355
65.893
71.862
77.224
81.963
86.057
89.514
92.386
94.744
96.671
98.24
99.502
100.52
101.368
102.136
102.933
103.844
104.921
106.207
107.722
109.485
111.512
113.801
116.333
119.089
122.053
125.214
128.569
132.105
135.804
139.641
143.591
147.633
151.748
155.914
160.112
164.319
168.516
172.686
176.813
180.879
184.862
188.738
192.483
196.074
199.489
202.705
205.697
208.446
210.932
213.139
215.051
216.654
217.937
218.887
219.497
219.758
219.667
219.219
218.413
217.248
215.728
213.856
211.639
209.084
206.2
202.998
199.491
195.692
191.618
187.283
182.706
177.906
172.901
167.714
162.364
156.875
151.266
145.562
139.785
133.957
128.1
122.235
116.383
110.564
104.798
99.103
93.497
87.996
82.617
77.375
72.283
67.353
62.597
58.025
53.647
49.468
45.496
41.736
38.192
34.865
31.758
28.871
26.203
23.751
21.513
19.485
17.66
16.034
14.599
13.348
12.272
11.364
10.612
10.009
9.544
9.206
8.986
8.873
8.856
8.925
9.07
9.28
9.546
9.857
10.204
10.579
10.973
11.378
11.786
12.191
12.586
12.965
13.322
13.654
13.954
14.221
14.45
14.64
14.788
14.893
14.953
14.968
14.938
14.863
14.744
14.58
14.374
14.126
13.838
13.512
13.15
12.754
12.327
11.869
11.385
10.875
10.342
9.788
9.214
8.623
8.015
7.392
6.755
6.106
5.445
4.774
4.093
3.402
2.701
1.991
1.271
0.541
-0.2
-0.952
-1.716
-2.491
-3.278
-4.077
-4.888
-5.711
-6.546
-7.394
-8.253
-9.126
-10.013
-10.911
-11.822
-12.743
-13.673
-14.611
-15.555
-16.5
-17.446
-18.387
-19.323
-20.25
-21.167
-22.068
-22.951
-23.812
-24.647
-25.451
-26.219
-26.947
-27.628
-28.258
-28.835
-29.355
-29.815
-30.213
-30.546
-30.813
-31.011
-31.14
-31.198
-31.183
-31.093
-30.93
-30.696
-30.393
-30.025
-29.598
-29.116
-28.59
-28.026
-27.431
-26.812
-26.176
-25.526
-24.87
-24.211
-23.554
-22.902
-22.264
-21.649
-21.068
-20.531
-20.047
-19.624
-19.269
-18.989
-18.789
-18.669
-18.624
-18.652
-18.756
-18.948
-19.243
-19.651
-20.167
-20.784
-21.497
-22.287
-23.131
-23.981
-24.767
-25.436
-25.954
-26.31
-26.511
-26.554
-26.426
-26.109
-25.597
-24.9
-24.034
-23.003
-21.801
-20.459
-19.053
-17.738
-16.723
-16.176
-16.213
-16.908
-18.307
-20.457
-23.403
-27.135
-31.56
-36.569
-42.062
-48.005
-54.414
-61.192
-68.096
-74.739
-80.632
-85.337
-88.534
-89.822
-88.703
-84.92
-78.47
-69.706
-59.463
-48.467
-37.054
-25.692
-14.99
-4.944
4.864
15.506
28.997
46.731
69.052
96.382
129.013
165.744
204.22
240.389
268.417
283.693
283.062
263.179
221.054
155.614
67.911
-37.789
-154.428
-275.909
-396.775
-510.781
-611.472
-692.919
-750.981
-784.94
-796.589
-787.318
-759.014
-714.509
-657.298
-592.427
-524.621
-456.661
-390.602
-328.914
-273.277
-225.182
-185.991
-155.027
-131.092
-113.528
-100.967
-91.568
-84.243
-77.722
-70.427
-62.025
-52.6
-42.223
-31.863
-22.787
-15.521
-10.448
-7.992
-8.002
-10.173
-14.141
-19.022
-23.748
-27.684
-30.445
-31.785
-31.728
-30.281
-27.424
-23.334
-18.29
-12.513
-6.196
0.503
7.511
14.678
21.775
28.618
35.035
40.9
46.179
50.847
54.876
58.273
61.072
63.32
65.1
66.489
67.537
68.311
68.88
69.326
69.756
70.258
70.895
71.714
72.744
74.003
75.509
77.264
79.253
81.464
83.882
86.497
89.306
92.3
95.462
98.771
102.205
105.74
109.359
113.045
116.779
120.54
124.313
128.08
131.829
135.545
139.206
142.791
146.277
149.641
152.862
155.918
158.786
161.445
163.877
166.065
167.993
169.647
171.014
172.082
172.842
173.284
173.402
173.193
172.651
171.775
170.566
169.027
167.161
164.975
162.475
159.669
156.569
153.184
149.528
145.615
141.459
137.077
132.486
127.704
122.75
117.643
112.403
107.051
101.606
96.09
90.522
84.922
79.31
73.703
68.12
62.58
57.097
51.69
46.372
41.158
36.062
31.096
26.271
21.598
17.085
12.742
8.574
4.587
0.787
-2.822
-6.239
-9.461
-12.487
-15.319
-17.957
-20.403
-22.662
-24.736
-26.631
-28.352
-29.905
-31.297
-32.535
-33.627
-34.58
-35.403
-36.103
-36.691
-37.173
-37.56
-37.86
-38.08
-38.231
-38.32
-38.355
-38.344
-38.295
-38.214
-38.108
-37.984
-37.848
-37.704
-37.56
-37.418
-37.284
-37.161
-37.053
-36.963
-36.893
-36.845
-36.821
-36.822
-36.85
-36.905
-36.987
-37.097
-37.233
-37.397
-37.587
-37.802
-38.042
-38.304
-38.589
-38.893
-39.217
-39.559
-39.916
-40.289
-40.675
-41.075
-41.486
-41.909
-42.342
-42.784
-43.236
-43.695
-44.163
-44.638
-45.121
-45.612
-46.111
-46.619
-47.136
-47.664
-48.202
-48.751
-49.311
-49.883
-50.467
-51.063
-51.671
-52.292
-52.927
-53.575
-54.237
-54.913
-55.604
-56.309
-57.026
-57.755
-58.493
-59.24
-59.992
-60.746
-61.501
-62.254
-63.003
-63.744
-64.475
-65.192
-65.891
-66.568
-67.219
-67.838
-68.42
-68.96
-69.453
-69.896
-70.287
-70.621
-70.897
-71.111
-71.261
-71.345
-71.361
-71.307
-71.18
-70.978
-70.702
-70.353
-69.933
-69.445
-68.893
-68.281
-67.617
-66.907
-66.159
-65.376
-64.563
-63.726
-62.87
-61.999
-61.116
-60.225
-59.332
-58.448
-57.581
-56.743
-55.941
-55.179
-54.467
-53.808
-53.207
-52.664
-52.173
-51.732
-51.344
-51.021
-50.78
-50.631
-50.567
-50.582
-50.67
-50.815
-50.991
-51.155
-51.236
-51.181
-50.961
-50.568
-50.006
-49.275
-48.359
-47.236
-45.901
-44.363
-42.64
-40.74
-38.659
-36.433
-34.151
-31.975
-30.122
-28.764
-28.013
-27.933
-28.578
-29.994
-32.226
-35.273
-39.031
-43.382
-48.237
-53.555
-59.332
-65.463
-71.668
-77.513
-82.508
-86.205
-88.282
-88.379
-85.994
-80.89
-73.124
-63.08
-51.662
-39.655
-27.367
-15.27
-4.017
6.434
16.523
27.31
40.905
58.704
80.963
108.114
140.364
176.353
213.572
247.789
273.13
285.08
280.558
256.384
209.804
139.97
48.439
-60.004
-178.34
-300.361
-420.511
-532.864
-630.788
-708.041
-760.961
-789.072
-793.781
-776.922
-740.497
-686.834
-620.354
-547.213
-472.185
-398.693
-329.685
-266.997
-212.368
-168.046
-134.22
-108.955
-90.714
-77.638
-67.36
-58.847
-51.042
-42.041
-31.199
-18.934
-5.545
7.8
19.44
28.889
35.857
39.787
40.852
39.401
35.747
30.892
26.035
21.824
18.716
16.996
16.614
17.614
20.063
23.793
28.578
34.206
40.471
47.255
54.478
62.002
69.636
77.139
84.288
90.941
97.014
102.469
107.29
111.453
114.965
117.879
120.264
122.198
123.751
124.968
125.907
126.648
127.281
127.919
128.652
129.535
130.61
131.906
133.438
135.224
137.265
139.541
142.035
144.734
147.629
150.718
153.993
157.434
161.02
164.727
168.534
172.423
176.376
180.371
184.389
188.412
192.422
196.407
200.347
204.223
208.009
211.683
215.221
218.601
221.798
224.79
227.554
230.07
232.322
234.292
235.966
237.33
238.37
239.078
239.444
239.461
239.125
238.43
237.376
235.963
234.194
232.071
229.602
226.792
223.651
220.189
216.418
212.352
208.003
203.389
198.525
193.431
188.124
182.624
176.952
171.129
165.174
159.111
152.961
146.744
140.482
134.194
127.9
121.62
115.373
109.176
103.046
96.999
91.051
85.216
79.508
73.938
68.518
63.258
58.166
53.25
48.517
43.972
39.619
35.461
31.501
27.739
24.176
20.809
17.638
14.658
11.866
9.258
6.826
4.566
2.47
0.531
-1.259
-2.909
-4.426
-5.819
-7.098
-8.272
-9.35
-10.34
-11.252
-12.096
-12.878
-13.609
-14.296
-14.947
-15.569
-16.169
-16.754
-17.33
-17.903
-18.478
-19.06
-19.652
-20.259
-20.884
-21.529
-22.198
-22.891
-23.611
-24.358
-25.132
-25.935
-26.765
-27.623
-28.507
-29.418
-30.353
-31.311
-32.291
-33.291
-34.309
-35.343
-36.391
-37.451
-38.521
-39.599
-40.683
-41.773
-42.865
-43.96
-45.056
-46.151
-47.246
-48.339
-49.43
-50.518
-51.603
-52.686
-53.765
-54.843
-55.919
-56.994
-58.07
-59.146
-60.224
-61.304
-62.386
-63.472
-64.56
-65.653
-66.749
-67.85
-68.957
-70.069
-71.188
-72.312
-73.443
-74.577
-75.716
-76.856
-77.997
-79.136
-80.269
-81.394
-82.509
-83.611
-84.698
-85.765
-86.81
-87.827
-88.814
-89.764
-90.673
-91.535
-92.345
-93.098
-93.79
-94.419
-94.982
-95.475
-95.896
-96.243
-96.515
-96.708
-96.822
-96.854
-96.803
-96.669
-96.455
-96.162
-95.794
-95.356
-94.852
-94.291
-93.68
-93.026
-92.335
-91.612
-90.862
-90.093
-89.308
-88.512
-87.708
-86.907
-86.115
-85.346
-84.609
-83.913
-83.265
-82.672
-82.139
-81.673
-81.272
-80.932
-80.651
-80.432
-80.287
-80.234
-80.281
-80.423
-80.654
-80.968
-81.347
-81.767
-82.184
-82.527
-82.742
-82.799
-82.69
-82.42
-81.988
-81.376
-80.563
-79.542
-78.323
-76.921
-75.345
-73.59
-71.689
-69.731
-67.877
-66.341
-65.298
-64.855
-65.078
-66.021
-67.726
-70.239
-73.559
-77.58
-82.184
-87.282
-92.832
-98.832
-105.176
-111.587
-117.633
-122.821
-126.704
-128.96
-129.226
-126.998
-122.042
-114.412
-104.495
-93.202
-81.324
-69.178
-57.241
-46.169
-35.915
-26.027
-15.416
-1.941
15.831
38.196
65.622
98.34
134.99
173.027
208.158
234.433
247.241
243.418
219.697
173.256
103.247
11.284
-97.76
-216.737
-339.292
-459.749
-572.051
-669.465
-745.767
-797.367
-823.893
-826.918
-808.437
-770.591
-715.858
-648.774
-575.477
-500.683
-427.732
-359.431
-297.495
-243.565
-199.765
-166.194
-140.923
-122.437
-108.92
-98.086
-88.948
-80.479
-70.828
-59.382
-46.55
-32.616
-18.725
-6.49
3.615
11.305
16.034
17.976
17.47
14.824
11.02
7.234
4.103
2.075
1.427
2.109
4.161
7.647
12.399
18.196
24.83
32.096
39.882
48.11
56.645
65.3
73.838
82.037
89.759
96.92
103.481
109.427
114.734
119.409
123.503
127.085
130.23
133.006
135.456
137.636
139.624
141.507
143.397
145.382
147.515
149.838
152.379
155.154
158.179
161.456
164.964
168.686
172.61
176.727
181.034
185.523
190.176
194.971
199.884
204.896
209.988
215.143
220.339
225.558
230.781
235.993
241.18
246.325
251.407
256.403
261.291
266.047
270.65
275.077
279.304
283.31
287.076
290.585
293.821
296.768
299.414
301.745
303.753
305.427
306.762
307.751
308.392
308.682
308.621
308.212
307.458
306.365
304.939
303.188
301.124
298.756
296.099
293.165
289.97
286.53
282.864
278.988
274.924
270.69
266.306
261.794
257.176
252.472
247.703
242.89
238.053
233.212
228.387
223.597
218.858
214.189
209.606
205.125
200.76
196.525
192.433
188.495
184.721
181.122
177.704
174.475
171.44
168.605
165.972
163.544
161.323
159.307
157.496
155.889
154.48
153.268
152.246
151.409
150.749
150.261
149.934
149.762
149.734
149.843
150.076
150.426
150.881
151.432
152.067
152.777
153.551
154.379
155.252
156.158
157.089
158.037
158.991
159.944
160.889
161.817
162.721
163.597
164.436
165.234
165.987
166.689
167.337
167.927
168.457
168.925
169.328
169.665
169.935
170.138
170.273
170.34
170.339
170.271
170.136
169.936
169.671
169.343
168.954
168.505
167.997
167.432
166.811
166.136
165.408
164.627
163.796
162.914
161.982
161.002
159.974
158.899
157.776
156.607
155.391
154.128
152.817
151.459
150.052
148.597
147.092
145.538
143.935
142.283
140.582
138.832
137.033
135.186
133.291
131.349
129.359
127.323
125.241
123.117
120.951
118.746
116.506
114.233
111.932
109.606
107.26
104.897
102.521
100.136
97.747
95.359
92.978
90.608
88.257
85.93
83.635
81.376
79.159
76.988
74.867
72.8
70.789
68.839
66.952
65.129
63.374
61.688
60.074
58.533
57.063
55.661
54.326
53.052
51.835
50.668
49.543
48.451
47.387
46.343
45.314
44.294
43.276
42.254
41.226
40.183
39.117
38.019
36.877
35.681
34.423
33.096
31.692
30.208
28.637
26.979
25.241
23.422
21.514
19.51
17.389
15.144
12.78
10.3
7.713
5.042
2.319
-0.403
-3.059
-5.605
-8.02
-10.289
-12.423
-14.416
-16.254
-17.938
-19.456
-20.801
-21.977
-22.979
-23.811
-24.542
-25.286
-26.211
-27.518
-29.352
-31.809
-34.971
-38.873
-43.548
-49
-55.139
-61.878
-69.148
-76.909
-85.17
-93.876
-102.807
-111.628
-119.912
-127.177
-133.057
-137.133
-138.867
-138.004
-134.549
-128.822
-121.629
-113.695
-105.343
-97.063
-89.492
-82.59
-75.909
-68.335
-57.789
-42.89
-23.313
1.405
31.589
66.059
102.474
136.733
162.922
176.426
174.054
152.42
108.509
41.145
-48.677
-156.666
-275.743
-399.679
-522.811
-638.853
-741.317
-823.988
-882.599
-916.28
-926.613
-915.396
-885.021
-838.359
-779.048
-712.622
-644.031
-576.582
-512.906
-454.75
-403.023
-359.125
-324.121
-296.86
-275.952
-259.951
-246.686
-235.16
-225.135
-215.544
-205.215
-194.066
-182.193
-170.371
-160.329
-152.731
-147.504
-144.821
-144.718
-147.035
-151.619
-157.747
-164.081
-169.785
-174.425
-177.712
-179.661
-180.216
-179.236
-176.791
-173.121
-168.456
-163.02
-156.973
-150.361
-143.292
-135.931
-128.485
-121.221
-114.33
-107.917
-102.048
-96.743
-92.025
-87.917
-84.393
-81.384
-78.811
-76.592
-74.667
-73
-71.531
-70.184
-68.865
-67.466
-65.911
-64.156
-62.164
-59.917
-57.395
-54.583
-51.488
-48.134
-44.539
-40.716
-36.674
-32.415
-27.95
-23.303
-18.493
-13.544
-8.475
-3.306
1.945
7.256
12.607
17.979
23.356
28.722
34.058
39.341
44.548
49.656
54.64
59.476
64.141
68.61
72.86
76.87
80.621
84.095
87.274
90.142
92.685
94.89
96.746
98.244
99.375
100.132
100.512
100.513
100.133
99.375
98.241
96.735
94.864
92.637
90.064
87.156
83.925
80.387
76.556
72.451
68.09
63.491
58.676
53.665
48.481
43.146
37.682
32.113
26.46
20.748
14.998
9.232
3.472
-2.26
-7.944
-13.56
-19.089
-24.513
-29.813
-34.974
-39.98
-44.818
-49.475
-53.939
-58.2
-62.25
-66.08
-69.685
-73.059
-76.199
-79.103
-81.769
-84.197
-86.388
-88.345
-90.071
-91.569
-92.845
-93.904
-94.751
-95.394
-95.839
-96.093
-96.164
-96.059
-95.785
-95.351
-94.764
-94.03
-93.156
-92.15
-91.017
-89.763
-88.393
-86.91
-85.32
-83.624
-81.827
-79.929
-77.933
-75.839
-73.647
-71.358
-68.972
-66.486
-63.901
-61.214
-58.424
-55.531
-52.531
-49.425
-46.212
-42.891
-39.462
-35.927
-32.285
-28.54
-24.694
-20.749
-16.71
-12.581
-8.369
-4.079
0.281
4.702
9.175
13.689
18.234
22.798
27.368
31.932
36.477
40.989
45.455
49.859
54.187
58.425
62.557
66.569
70.446
74.175
77.743
81.137
84.347
87.362
90.174
92.774
95.157
97.317
99.25
100.952
102.422
103.659
104.665
105.441
105.993
106.327
106.449
106.369
106.097
105.641
105.014
104.225
103.286
102.207
101.002
99.683
98.263
96.756
95.174
93.532
91.843
90.12
88.374
86.615
84.85
83.09
81.339
79.604
77.885
76.187
74.512
72.864
71.244
69.655
68.098
66.573
65.079
63.615
62.177
60.757
59.347
57.938
56.525
55.101
53.665
52.213
50.742
49.251
47.747
46.226
44.684
43.11
41.483
39.793
38.038
36.224
34.362
32.48
30.612
28.798
27.091
25.527
24.124
22.889
21.81
20.881
20.107
19.499
19.077
18.865
18.87
19.084
19.489
20.01
20.516
20.864
20.878
20.417
19.401
17.769
15.502
12.605
9.102
5.053
0.523
-4.45
-9.848
-15.647
-21.772
-27.99
-33.937
-39.219
-43.392
-46.104
-46.997
-45.608
-41.757
-35.558
-27.402
-18.082
-8.291
1.705
11.484
20.423
28.586
36.408
44.901
56.039
71.066
90.155
113.639
141.678
173.034
205.424
235.007
256.364
265.263
258.878
234.322
189.094
122.546
36.159
-65.831
-176.851
-290.806
-402.415
-505.946
-595.162
-664.92
-712.082
-735.921
-738.368
-722.039
-689.32
-643.396
-588.747
-529.809
-470.584
-414.525
-362.988
-316.243
-274.903
-239.118
-208.388
-182.377
-159.971
-139.219
-119.495
-101.058
-83.891
-68.245
-54.132
-40.855
-28.635
-18.666
-11.418
-6.897
-4.954
-4.936
-6.509
-9.898
-14.76
-20.219
-25.616
-30.302
-33.887
-36.432
-37.87
-38.001
-36.8
-34.331
-30.715
-26.21
-21.011
-15.207
-8.947
-2.357
4.399
11.081
17.504
23.529
29.051
34.033
38.455
42.289
45.545
48.262
50.492
52.323
53.835
55.083
56.138
57.069
57.961
58.927
60.048
61.381
62.97
64.84
67.006
69.488
72.287
75.385
78.767
82.418
86.322
90.474
94.861
99.459
104.246
109.19
114.267
119.455
124.729
130.066
135.44
140.828
146.206
151.556
156.853
162.072
167.182
172.155
176.961
181.572
185.961
190.097
193.955
197.511
200.742
203.628
206.151
208.294
210.041
211.38
212.299
212.791
212.848
212.467
211.646
210.384
208.686
206.557
204.004
201.035
197.662
193.898
189.757
185.258
180.417
175.255
169.792
164.052
158.058
151.836
145.412
138.81
132.059
125.185
118.216
111.178
104.097
96.999
89.91
82.854
75.854
68.934
62.114
55.416
48.858
42.458
36.234
30.201
24.373
18.761
13.377
8.23
3.328
-1.322
-5.715
-9.849
-13.719
-17.327
-20.673
-23.758
-26.586
-29.162
-31.491
-33.58
-35.436
-37.068
-38.485
-39.697
-40.714
-41.546
-42.205
-42.702
-43.05
-43.258
-43.34
-43.307
-43.17
-42.94
-42.628
-42.246
-41.802
-41.308
-40.773
-40.205
-39.614
-39.008
-38.394
-37.779
-37.17
-36.573
-35.991
-35.432
-34.897
-34.392
-33.919
-33.481
-33.081
-32.72
-32.402
-32.125
-31.893
-31.705
-31.561
-31.463
-31.409
-31.401
-31.437
-31.518
-31.643
-31.812
-32.026
-32.282
-32.581
-32.922
-33.302
-33.721
-34.178
-34.67
-35.197
-35.757
-36.349
-36.971
-37.623
-38.301
-39.006
-39.733
-40.481
-41.247
-42.028
-42.82
-43.62
-44.423
-45.226
-46.027
-46.82
-47.602
-48.369
-49.116
-49.838
-50.529
-51.185
-51.799
-52.365
-52.881
-53.34
-53.741
-54.081
-54.356
-54.564
-54.703
-54.773
-54.771
-54.697
-54.548
-54.324
-54.026
-53.656
-53.217
-52.712
-52.145
-51.522
-50.85
-50.138
-49.392
-48.619
-47.826
-47.017
-46.202
-45.384
-44.57
-43.765
-42.973
-42.204
-41.467
-40.771
-40.125
-39.536
-39.009
-38.548
-38.157
-37.838
-37.59
-37.407
-37.289
-37.238
-37.263
-37.382
-37.602
-37.92
-38.33
-38.816
-39.349
-39.892
-40.395
-40.803
-41.081
-41.2
-41.148
-40.931
-40.543
-39.991
-39.274
-38.363
-37.238
-35.894
-34.335
-32.601
-30.79
-29.024
-27.456
-26.267
-25.585
-25.517
-26.139
-27.474
-29.517
-32.197
-35.435
-39.183
-43.434
-48.188
-53.391
-58.875
-64.344
-69.441
-73.764
-76.914
-78.442
-77.81
-74.738
-69.24
-61.637
-52.676
-43.029
-32.992
-23.006
-13.675
-4.957
3.62
13.147
25.633
42.418
63.743
89.942
121.227
156.415
193.248
227.854
254.654
269.242
268.625
249.696
209.697
147.655
64.636
-35.384
-145.835
-260.713
-374.627
-481.577
-575.316
-650.36
-703.121
-732.715
-740.59
-728.764
-699.616
-656.274
-602.691
-543.353
-482.083
-421.894
-365.061
-312.763
-265.675
-224.329
-188.82
-158.876
-134.109
-113.387
-95.081
-78.567
-63.666
-50.132
-37.752
-25.896
-14.087
-2.853
6.647
13.825
18.597
21.194
22.007
20.959
18.036
13.814
9.211
5.079
1.964
0.032
-0.742
-0.259
1.592
4.796
9.208
14.558
20.608
27.204
34.22
41.553
49.035
56.433
63.548
70.223
76.346
81.878
86.799
91.079
94.722
97.763
100.244
102.25
103.857
105.12
106.106
106.884
107.535
108.167
108.868
109.699
110.704
111.91
113.333
114.991
116.89
119.013
121.35
123.887
126.613
129.527
132.619
135.872
139.267
142.78
146.388
150.075
153.824
157.614
161.427
165.245
169.052
172.835
176.577
180.258
183.854
187.343
190.7
193.905
196.935
199.764
202.373
204.74
206.848
208.681
210.223
211.46
212.379
212.969
213.22
213.125
212.679
211.875
210.712
209.19
207.309
205.075
202.492
199.566
196.306
192.721
188.824
184.627
180.145
175.392
170.387
165.147
159.692
154.042
148.219
142.243
136.138
129.925
123.629
117.271
110.874
104.46
98.051
91.668
85.332
79.063
72.88
66.801
60.845
55.028
49.366
43.873
38.562
33.445
28.534
23.837
19.363
15.119
11.111
7.342
3.817
0.538
-2.497
-5.286
-7.831
-10.137
-12.206
-14.044
-15.657
-17.052
-18.237
-19.22
-20.01
-20.617
-21.051
-21.322
-21.443
-21.423
-21.274
-21.007
-20.634
-20.166
-19.614
-18.989
-18.302
-17.564
-16.784
-15.971
-15.136
-14.287
-13.431
-12.577
-11.732
-10.902
-10.093
-9.312
-8.562
-7.849
-7.176
-6.547
-5.964
-5.43
-4.947
-4.516
-4.138
-3.814
-3.544
-3.329
-3.168
-3.061
-3.007
-3.007
-3.06
-3.163
-3.317
-3.52
-3.771
-4.069
-4.412
-4.8
-5.233
-5.708
-6.227
-6.787
-7.388
-8.029
-8.708
-9.424
-10.175
-10.962
-11.781
-12.631
-13.512
-14.421
-15.359
-16.322
-17.309
-18.318
-19.345
-20.388
-21.444
-22.508
-23.576
-24.644
-25.708
-26.764
-27.808
-28.835
-29.841
-30.821
-31.77
-32.682
-33.55
-34.37
-35.133
-35.835
-36.47
-37.035
-37.525
-37.938
-38.269
-38.517
-38.679
-38.753
-38.738
-38.632
-38.433
-38.14
-37.756
-37.283
-36.725
-36.086
-35.372
-34.589
-33.749
-32.86
-31.928
-30.961
-29.966
-28.95
-27.921
-26.884
-25.843
-24.807
-23.784
-22.786
-21.825
-20.913
-20.058
-19.27
-18.558
-17.926
-17.38
-16.923
-16.546
-16.253
-16.049
-15.942
-15.952
-16.089
-16.349
-16.729
-17.22
-17.799
-18.433
-19.07
-19.64
-20.1
-20.423
-20.594
-20.624
-20.505
-20.225
-19.789
-19.184
-18.401
-17.444
-16.305
-14.988
-13.557
-12.124
-10.856
-9.957
-9.576
-9.814
-10.755
-12.438
-14.896
-18.13
-22.052
-26.572
-31.62
-37.154
-43.185
-49.66
-56.364
-62.966
-69.035
-74.086
-77.747
-79.594
-79.083
-75.954
-70.202
-62.145
-52.588
-42.247
-31.445
-20.66
-10.509
-0.949
8.466
18.852
32.273
50.101
72.66
100.373
133.508
170.87
210.098
247.098
276.004
292.187
292.459
273.47
232.24
167.668
80.793
-24.119
-140.042
-260.871
-381.132
-494.6
-594.852
-675.985
-733.916
-767.961
-779.901
-771.14
-743.558
-699.963
-643.847
-580.199
-513.665
-446.956
-382.044
-321.325
-266.448
-218.848
-179.82
-148.684
-124.251
-105.885
-92.32
-81.784
-73.235
-65.491
-57.02
-47.502
-37.028
-25.642
-14.292
-4.257
3.942
9.937
13.278
14.102
12.663
9.245
4.755
0.289
-3.498
-6.18
-7.516
-7.537
-6.225
-3.535
0.369
5.231
10.823
16.94
23.461
30.335
37.454
44.636
51.663
58.326
64.49
70.095
75.114
79.524
83.305
86.467
89.063
91.175
92.887
94.265
95.354
96.206
96.892
97.499
98.132
98.87
99.766
100.856
102.164
103.708
105.507
107.559
109.847
112.352
115.059
117.961
121.055
124.33
127.765
131.341
135.032
138.819
142.684
146.608
150.57
154.548
158.525
162.483
166.407
170.278
174.073
177.77
181.343
184.771
188.029
191.094
193.943
196.554
198.907
200.985
202.772
204.252
205.412
206.24
206.725
206.86
206.639
206.057
205.11
203.799
202.126
200.093
197.707
194.975
191.904
188.505
184.79
180.773
176.47
171.895
167.067
162.004
156.727
151.257
145.614
139.822
133.904
127.881
121.778
115.619
109.426
103.222
97.029
90.868
84.76
78.726
72.785
66.954
61.252
55.694
50.296
45.071
40.033
35.191
30.557
26.138
21.943
17.976
14.244
10.748
7.492
4.476
1.699
-0.84
-3.143
-5.216
-7.063
-8.689
-10.103
-11.31
-12.321
-13.144
-13.788
-14.264
-14.581
-14.752
-14.785
-14.694
-14.488
-14.179
-13.777
-13.292
-12.736
-12.119
-11.448
-10.735
-9.987
-9.212
-8.419
-7.614
-6.804
-5.994
-5.191
-4.398
-3.62
-2.86
-2.121
-1.407
-0.718
-0.056
0.576
1.18
1.754
2.299
2.815
3.302
3.762
4.195
4.604
4.989
5.352
5.695
6.017
6.322
6.608
6.879
7.133
7.371
7.595
7.805
8
8.181
8.347
8.497
8.632
8.748
8.846
8.924
8.981
9.015
9.025
9.011
8.973
8.908
8.817
8.699
8.553
8.379
8.175
7.942
7.679
7.388
7.068
6.723
6.352
5.959
5.546
5.117
4.675
4.224
3.766
3.305
2.845
2.391
1.948
1.521
1.115
0.738
0.394
0.09
-0.167
-0.375
-0.529
-0.627
-0.665
-0.641
-0.553
-0.399
-0.178
0.111
0.47
0.898
1.396
1.96
2.586
3.272
4.01
4.795
5.618
6.471
7.344
8.23
9.121
10.01
10.889
11.753
12.593
13.402
14.174
14.899
15.565
16.16
16.672
17.093
17.417
17.641
17.761
17.776
17.687
17.501
17.219
16.838
16.351
15.742
15.002
14.135
13.151
12.067
10.913
9.73
8.565
7.476
6.505
5.674
4.996
4.464
4.074
3.836
3.763
3.88
4.214
4.779
5.569
6.572
7.71
8.854
9.857
10.539
10.757
10.425
9.477
7.887
5.654
2.803
-0.608
-4.517
-8.891
-13.725
-19.001
-24.647
-30.428
-35.972
-40.875
-44.679
-47.018
-47.511
-45.658
-41.251
-34.393
-25.488
-15.36
-4.735
6.112
16.741
26.487
35.417
44.015
53.394
65.712
82.354
103.56
129.762
161.186
196.514
233.294
267.324
292.677
304.797
300.57
276.778
230.673
161.37
70.353
-37.657
-155.678
-277.51
-397.601
-510.041
-608.265
-686.086
-739.861
-769.125
-775.269
-760.108
-725.633
-674.14
-609.982
-539.232
-466.6
-395.455
-328.708
-268.169
-215.544
-173.05
-140.877
-117.113
-100.239
-88.409
-79.267
-71.783
-64.913
-56.78
-46.755
-35.251
-22.559
-9.843
1.243
10.205
16.742
20.301
21.054
19.336
15.447
10.368
5.273
0.798
-2.604
-4.654
-5.403
-4.803
-2.79
0.475
4.776
9.911
15.677
21.963
28.692
35.727
42.886
49.936
56.659
62.919
68.634
73.766
78.301
82.217
85.52
88.26
90.502
92.322
93.787
94.941
95.84
96.561
97.194
97.846
98.608
99.534
100.664
102.026
103.634
105.505
107.64
110.018
112.621
115.437
118.454
121.671
125.076
128.649
132.369
136.208
140.145
144.16
148.232
152.338
156.457
160.569
164.655
168.701
172.686
176.587
180.381
184.042
187.545
190.867
193.984
196.871
199.506
201.869
203.942
205.708
207.152
208.261
209.023
209.428
209.468
209.137
208.431
207.347
205.886
204.048
201.839
199.264
196.33
193.047
189.426
185.48
181.223
176.671
171.84
166.749
161.417
155.866
150.116
144.189
138.109
131.899
125.582
119.183
112.725
106.232
99.726
93.229
86.764
80.35
74.008
67.757
61.616
55.6
49.727
44.011
38.465
33.102
27.933
22.968
18.214
13.678
9.367
5.284
1.432
-2.186
-5.571
-8.724
-11.645
-14.338
-16.808
-19.059
-21.097
-22.93
-24.564
-26.009
-27.273
-28.366
-29.297
-30.076
-30.714
-31.221
-31.607
-31.884
-32.06
-32.147
-32.154
-32.092
-31.968
-31.792
-31.573
-31.318
-31.035
-30.731
-30.412
-30.083
-29.75
-29.418
-29.091
-28.772
-28.463
-28.169
-27.89
-27.628
-27.384
-27.159
-26.953
-26.766
-26.598
-26.448
-26.315
-26.198
-26.096
-26.007
-25.932
-25.868
-25.813
-25.768
-25.731
-25.7
-25.675
-25.655
-25.639
-25.627
-25.619
-25.614
-25.614
-25.617
-25.626
-25.642
-25.665
-25.697
-25.739
-25.793
-25.86
-25.943
-26.042
-26.16
-26.3
-26.462
-26.65
-26.866
-27.112
-27.388
-27.698
-28.04
-28.417
-28.83
-29.278
-29.762
-30.282
-30.837
-31.428
-32.054
-32.714
-33.407
-34.13
-34.881
-35.657
-36.454
-37.27
-38.098
-38.934
-39.774
-40.614
-41.449
-42.275
-43.085
-43.875
-44.639
-45.37
-46.063
-46.711
-47.306
-47.844
-48.319
-48.727
-49.064
-49.327
-49.511
-49.616
-49.637
-49.575
-49.427
-49.192
-48.868
-48.454
-47.955
-47.371
-46.707
-45.968
-45.158
-44.286
-43.362
-42.393
-41.388
-40.353
-39.295
-38.223
-37.141
-36.058
-34.976
-33.904
-32.85
-31.824
-30.84
-29.908
-29.035
-28.233
-27.507
-26.862
-26.304
-25.832
-25.44
-25.131
-24.907
-24.778
-24.761
-24.866
-25.087
-25.424
-25.865
-26.387
-26.958
-27.526
-28.025
-28.415
-28.671
-28.779
-28.749
-28.575
-28.244
-27.761
-27.111
-26.285
-25.285
-24.1
-22.739
-21.264
-19.785
-18.468
-17.505
-17.034
-17.151
-17.936
-19.423
-21.65
-24.619
-28.247
-32.458
-37.186
-42.4
-48.117
-54.277
-60.677
-66.989
-72.783
-77.613
-81.132
-82.949
-82.567
-79.705
-74.314
-66.702
-57.63
-47.795
-37.581
-27.37
-17.69
-8.719
-0.126
9.046
20.628
36.28
56.678
82.14
112.945
148.384
186.4
223.536
254.51
273.945
278.073
263.609
227.437
168.069
85.938
-15.998
-131.607
-253.95
-377.14
-494.993
-601.11
-689.828
-756.193
-797.857
-815.692
-811.411
-786.918
-744.995
-688.711
-622.207
-550.984
-479.128
-409.238
-344.007
-285.206
-234.209
-192.887
-161.394
-137.962
-121.238
-109.628
-100.903
-94.021
-87.945
-80.788
-71.863
-61.508
-49.982
-38.386
-28.263
-20.06
-14.037
-10.734
-10.05
-11.689
-15.353
-20.075
-24.696
-28.599
-31.385
-32.817
-32.947
-31.743
-29.148
-25.333
-20.551
-15.026
-8.968
-2.495
4.342
11.428
18.585
25.589
32.228
38.371
43.955
48.959
53.362
57.14
60.3
62.894
65
66.703
68.071
69.146
69.982
70.65
71.24
71.857
72.584
73.474
74.562
75.872
77.424
79.235
81.306
83.619
86.155
88.9
91.847
94.994
98.331
101.837
105.493
109.274
113.16
117.134
121.178
125.27
129.392
133.524
137.65
141.756
145.824
149.832
153.757
157.576
161.265
164.803
168.166
171.331
174.277
176.984
179.434
181.612
183.503
185.092
186.367
187.317
187.934
188.211
188.142
187.723
186.952
185.829
184.357
182.539
180.38
177.887
175.067
171.931
168.491
164.758
160.747
156.473
151.952
147.202
142.242
137.09
131.768
126.294
120.691
114.979
109.18
103.316
97.406
91.472
85.534
79.61
73.721
67.885
62.119
56.44
50.865
45.408
40.085
34.908
29.889
25.04
20.37
15.888
11.603
7.52
3.645
-0.018
-3.466
-6.697
-9.71
-12.505
-15.084
-17.45
-19.605
-21.554
-23.303
-24.856
-26.222
-27.407
-28.419
-29.266
-29.957
-30.502
-30.909
-31.189
-31.351
-31.404
-31.36
-31.228
-31.017
-30.737
-30.398
-30.008
-29.577
-29.113
-28.623
-28.117
-27.6
-27.079
-26.561
-26.052
-25.556
-25.079
-24.623
-24.193
-23.792
-23.422
-23.086
-22.784
-22.518
-22.289
-22.096
-21.94
-21.821
-21.736
-21.686
-21.669
-21.683
-21.727
-21.798
-21.895
-22.016
-22.158
-22.32
-22.499
-22.692
-22.898
-23.115
-23.339
-23.571
-23.806
-24.045
-24.286
-24.527
-24.768
-25.008
-25.247
-25.484
-25.719
-25.952
-26.183
-26.412
-26.64
-26.868
-27.096
-27.325
-27.558
-27.795
-28.037
-28.285
-28.541
-28.804
-29.076
-29.357
-29.648
-29.949
-30.261
-30.584
-30.919
-31.267
-31.627
-31.999
-32.381
-32.773
-33.173
-33.58
-33.99
-34.4
-34.809
-35.214
-35.611
-35.998
-36.372
-36.729
-37.065
-37.375
-37.655
-37.9
-38.105
-38.264
-38.373
-38.428
-38.427
-38.368
-38.248
-38.066
-37.818
-37.506
-37.126
-36.679
-36.163
-35.578
-34.924
-34.204
-33.421
-32.578
-31.681
-30.735
-29.747
-28.726
-27.678
-26.612
-25.533
-24.447
-23.359
-22.277
-21.206
-20.151
-19.12
-18.12
-17.161
-16.255
-15.412
-14.638
-13.939
-13.317
-12.775
-12.315
-11.935
-11.628
-11.394
-11.236
-11.162
-11.188
-11.323
-11.565
-11.904
-12.326
-12.802
-13.292
-13.754
-14.131
-14.384
-14.495
-14.452
-14.265
-13.938
-13.464
-12.834
-12.024
-11.012
-9.786
-8.353
-6.73
-4.994
-3.278
-1.73
-0.528
0.185
0.324
-0.177
-1.341
-3.167
-5.627
-8.658
-12.197
-16.208
-20.683
-25.606
-30.904
-36.34
-41.544
-46.111
-49.588
-51.613
-51.812
-49.701
-45.094
-38.114
-29.179
-19.132
-8.694
1.874
12.151
21.51
30.054
38.292
47.341
59.312
75.532
96.168
121.553
151.844
185.671
220.566
252.428
275.515
285.428
279.273
254.079
207.308
138.353
48.817
-56.706
-171.204
-288.431
-402.959
-508.971
-600.222
-671.181
-718.36
-741.209
-741.873
-722.808
-686.405
-635.559
-574.362
-508.048
-441.487
-378.253
-319.903
-267.171
-220.874
-181.955
-150.837
-126.388
-106.577
-89.22
-73.261
-58.63
-45.227
-32.495
-19.529
-6.163
6.795
17.919
26.295
31.921
35.111
36.134
34.922
31.495
26.418
20.764
15.506
11.188
8.032
6.037
5.277
5.918
7.975
11.301
15.672
20.859
26.696
33.107
39.986
47.178
54.488
61.664
68.5
74.87
80.692
85.929
90.567
94.583
97.985
100.825
103.176
105.118
106.721
108.033
109.112
110.031
110.882
111.774
112.793
113.989
115.4
117.051
118.957
121.136
123.586
126.287
129.219
132.369
135.725
139.284
143.034
146.954
151.021
155.21
159.498
163.866
168.292
172.755
177.233
181.704
186.15
190.556
194.9
199.16
203.31
207.324
211.179
214.849
218.309
221.536
224.505
227.196
229.59
231.669
233.419
234.824
235.872
236.551
236.853
236.771
236.301
235.437
234.18
232.53
230.491
228.068
225.267
222.096
218.567
214.691
210.483
205.956
201.13
196.02
190.646
185.03
179.193
173.157
166.945
160.581
154.09
147.496
140.824
134.097
127.339
120.574
113.825
107.113
100.46
93.886
87.412
81.056
74.836
68.768
62.868
57.15
51.627
46.311
41.211
36.336
31.695
27.293
23.136
19.226
15.566
12.158
8.999
6.09
3.427
1.007
-1.177
-3.129
-4.857
-6.367
-7.67
-8.772
-9.684
-10.416
-10.978
-11.381
-11.635
-11.751
-11.742
-11.617
-11.388
-11.066
-10.661
-10.185
-9.647
-9.058
-8.426
-7.762
-7.073
-6.37
-5.658
-4.947
-4.243
-3.553
-2.881
-2.235
-1.618
-1.034
-0.489
0.016
0.477
0.891
1.256
1.57
1.831
2.038
2.19
2.285
2.324
2.307
2.232
2.101
1.913
1.669
1.369
1.013
0.602
0.137
-0.381
-0.951
-1.571
-2.239
-2.952
-3.709
-4.507
-5.344
-6.217
-7.125
-8.063
-9.029
-10.021
-11.035
-12.067
-13.111
-14.165
-15.224
-16.281
-17.333
-18.373
-19.396
-20.398
-21.373
-22.316
-23.221
-24.082
-24.892
-25.646
-26.335
-26.956
-27.501
-27.965
-28.345
-28.638
-28.84
-28.95
-28.966
-28.886
-28.71
-28.437
-28.069
-27.605
-27.046
-26.396
-25.659
-24.839
-23.945
-22.981
-21.957
-20.881
-19.766
-18.62
-17.453
-16.273
-15.09
-13.912
-12.749
-11.611
-10.506
-9.443
-8.433
-7.488
-6.623
-5.849
-5.174
-4.605
-4.145
-3.797
-3.567
-3.455
-3.455
-3.567
-3.794
-4.142
-4.63
-5.269
-6.05
-6.963
-7.983
-9.074
-10.21
-11.353
-12.446
-13.456
-14.357
-15.135
-15.809
-16.387
-16.856
-17.202
-17.38
-17.352
-17.121
-16.698
-16.116
-15.472
-14.851
-14.373
-14.21
-14.484
-15.278
-16.648
-18.574
-21.008
-23.922
-27.269
-31.025
-35.208
-39.795
-44.724
-49.859
-54.938
-59.659
-63.673
-66.594
-67.983
-67.357
-64.475
-59.391
-52.457
-44.33
-35.58
-26.466
-17.406
-9.007
-1.292
6.119
14.311
25.252
40.07
58.927
82.063
109.572
140.637
173.559
204.682
228.706
241.88
241.533
225.064
190.333
135.63
61.054
-29.725
-130.783
-237.139
-343.915
-446.034
-538.07
-613.423
-667.568
-699.728
-711.117
-703.373
-678.828
-640.128
-591.274
-538.44
-486.339
-437.355
-392.784
-352.881
-317.558
-286.896
-259.874
-234.114
-208.123
-181.412
-154.055
-126.967
-100.957
-76.462
-54.255
-35.347
-20.276
-9.216
-2.017
1.898
3.082
2.001
-0.788
-4.732
-9.367
-14.263
-19.018
-23.309
-26.854
-29.432
-30.91
-31.207
-30.278
-28.122
-24.796
-20.411
-15.128
-9.115
-2.53
4.468
11.718
19.036
26.208
33.05
39.436
45.283
50.552
55.221
59.276
62.732
65.641
68.075
70.112
71.822
73.26
74.491
75.59
76.643
77.746
78.975
80.375
81.986
83.831
85.927
88.289
90.914
93.784
96.88
100.189
103.7
107.405
111.293
115.341
119.528
123.829
128.22
132.684
137.199
141.741
146.289
150.82
155.316
159.76
164.13
168.404
172.555
176.558
180.389
184.024
187.438
190.606
193.506
196.118
198.423
200.404
202.047
203.338
204.265
204.818
204.989
204.773
204.167
203.166
201.773
199.99
197.821
195.273
192.353
189.073
185.443
181.477
177.192
172.603
167.728
162.588
157.201
151.591
145.78
139.79
133.647
127.375
120.998
114.541
108.03
101.488
94.94
88.408
81.915
75.484
69.135
62.887
56.761
50.772
44.94
39.277
33.8
28.519
23.448
18.595
13.97
9.578
5.427
1.52
-2.139
-5.549
-8.71
-11.623
-14.29
-16.715
-18.901
-20.855
-22.584
-24.094
-25.395
-26.496
-27.405
-28.134
-28.693
-29.093
-29.345
-29.462
-29.453
-29.332
-29.109
-28.795
-28.402
-27.94
-27.42
-26.852
-26.245
-25.609
-24.952
-24.283
-23.608
-22.936
-22.273
-21.624
-20.994
-20.389
-19.812
-19.267
-18.757
-18.284
-17.851
-17.459
-17.108
-16.8
-16.534
-16.311
-16.129
-15.987
-15.885
-15.822
-15.795
-15.804
-15.847
-15.923
-16.03
-16.168
-16.334
-16.526
-16.744
-16.987
-17.251
-17.538
-17.845
-18.173
-18.52
-18.886
-19.271
-19.674
-20.095
-20.533
-20.987
-21.457
-21.941
-22.44
-22.952
-23.478
-24.016
-24.567
-25.129
-25.703
-26.287
-26.879
-27.478
-28.083
-28.69
-29.297
-29.901
-30.499
-31.089
-31.668
-32.233
-32.782
-33.31
-33.814
-34.291
-34.735
-35.143
-35.509
-35.829
-36.098
-36.314
-36.475
-36.579
-36.624
-36.609
-36.532
-36.394
-36.193
-35.929
-35.602
-35.211
-34.758
-34.245
-33.676
-33.055
-32.386
-31.677
-30.933
-30.164
-29.378
-28.581
-27.78
-26.98
-26.187
-25.406
-24.644
-23.904
-23.194
-22.521
-21.893
-21.323
-20.82
-20.39
-20.039
-19.769
-19.582
-19.479
-19.458
-19.511
-19.636
-19.837
-20.119
-20.499
-20.985
-21.576
-22.26
-23.024
-23.837
-24.659
-25.445
-26.139
-26.701
-27.109
-27.352
-27.439
-27.377
-27.161
-26.781
-26.216
-25.441
-24.446
-23.235
-21.826
-20.294
-18.772
-17.405
-16.374
-15.823
-15.841
-16.493
-17.804
-19.771
-22.363
-25.519
-29.176
-33.302
-37.886
-42.914
-48.316
-53.861
-59.185
-63.887
-67.514
-69.704
-70.075
-68.145
-63.723
-56.923
-48.156
-38.241
-27.883
-17.344
-7.036
2.418
11.114
19.555
28.842
41.061
57.529
78.41
104.034
134.565
168.65
203.874
236.189
259.872
270.536
265.28
241.113
195.535
127.937
39.833
-64.26
-177.424
-293.573
-407.273
-512.691
-603.863
-675.4
-723.919
-749.048
-752.595
-736.559
-703.349
-655.806
-597.482
-533.341
-467.7
-403.461
-342.852
-287.371
-237.852
-195.465
-161.131
-133.904
-112.606
-96.02
-82.262
-70.416
-60.233
-50.728
-40.78
-30.25
-19.19
-8.238
1.084
8.21
13.237
15.995
16.45
14.763
11.11
6.202
1.24
-3.053
-6.317
-8.318
-9.071
-8.527
-6.581
-3.332
0.978
6.121
11.892
18.159
24.849
31.842
38.951
45.949
52.618
58.822
64.478
69.549
74.023
77.877
81.117
83.792
85.968
87.723
89.126
90.223
91.069
91.736
92.311
92.897
93.584
94.426
95.461
96.716
98.207
99.949
101.944
104.171
106.614
109.26
112.099
115.127
118.335
121.706
125.218
128.847
132.571
136.373
140.235
144.134
148.051
151.968
155.868
159.738
163.559
167.311
170.972
174.517
177.924
181.173
184.239
187.101
189.737
192.13
194.262
196.118
197.685
198.949
199.899
200.525
200.821
200.78
200.398
199.672
198.601
197.186
195.431
193.341
190.921
188.178
185.123
181.766
178.12
174.198
170.014
165.585
160.927
156.058
150.997
145.764
140.378
134.86
129.231
123.512
117.724
111.888
106.023
100.15
94.287
88.453
82.667
76.944
71.302
65.756
60.32
55.009
49.834
44.806
39.937
35.235
30.709
26.365
22.209
18.245
14.478
10.909
7.54
4.372
1.403
-1.368
-3.945
-6.33
-8.528
-10.544
-12.385
-14.057
-15.567
-16.923
-18.132
-19.205
-20.148
-20.972
-21.684
-22.295
-22.812
-23.246
-23.604
-23.896
-24.129
-24.311
-24.45
-24.554
-24.628
-24.68
-24.716
-24.741
-24.76
-24.778
-24.799
-24.827
-24.864
-24.913
-24.977
-25.057
-25.156
-25.273
-25.409
-25.566
-25.742
-25.938
-26.153
-26.386
-26.636
-26.902
-27.182
-27.475
-27.78
-28.096
-28.422
-28.756
-29.099
-29.449
-29.805
-30.168
-30.536
-30.91
-31.289
-31.674
-32.065
-32.463
-32.868
-33.282
-33.706
-34.141
-34.588
-35.048
-35.522
-36.01
-36.514
-37.034
-37.571
-38.126
-38.699
-39.291
-39.904
-40.538
-41.193
-41.868
-42.562
-43.274
-44.003
-44.746
-45.5
-46.262
-47.03
-47.8
-48.57
-49.336
-50.095
-50.841
-51.571
-52.279
-52.96
-53.607
-54.216
-54.78
-55.294
-55.756
-56.161
-56.506
-56.789
-57.005
-57.152
-57.23
-57.235
-57.166
-57.019
-56.795
-56.494
-56.12
-55.673
-55.159
-54.582
-53.948
-53.267
-52.546
-51.791
-51.01
-50.207
-49.389
-48.562
-47.732
-46.902
-46.078
-45.269
-44.485
-43.736
-43.035
-42.386
-41.799
-41.282
-40.837
-40.47
-40.18
-39.961
-39.813
-39.742
-39.754
-39.87
-40.097
-40.431
-40.868
-41.399
-42
-42.64
-43.264
-43.804
-44.217
-44.477
-44.57
-44.505
-44.276
-43.869
-43.289
-42.524
-41.563
-40.413
-39.065
-37.525
-35.858
-34.178
-32.652
-31.486
-30.827
-30.775
-31.417
-32.791
-34.932
-37.843
-41.436
-45.626
-50.342
-55.546
-61.249
-67.399
-73.779
-80.056
-85.8
-90.528
-93.87
-95.402
-94.583
-91.154
-85.117
-76.792
-66.991
-56.433
-45.436
-34.478
-24.179
-14.497
-4.982
5.483
18.967
36.844
59.427
87.136
120.24
157.537
196.66
233.509
262.21
278.131
278.09
258.738
217.091
152.056
64.694
-40.709
-157.106
-278.366
-398.998
-512.752
-613.171
-694.337
-752.163
-785.971
-797.554
-788.327
-760.185
-715.952
-659.143
-594.772
-527.505
-460.071
-394.454
-333.063
-277.565
-229.413
-189.925
-158.429
-133.732
-115.193
-101.538
-90.982
-82.475
-74.818
-66.453
-57.046
-46.687
-35.421
-24.207
-14.336
-6.329
-0.561
2.514
3.031
1.247
-2.548
-7.432
-12.293
-16.471
-19.533
-21.237
-21.612
-20.638
-18.27
-14.674
-10.109
-4.802
1.04
7.298
13.924
20.807
27.767
34.584
41.045
47.016
52.437
57.281
61.525
65.152
68.172
70.641
72.642
74.263
75.568
76.605
77.425
78.1
78.719
79.385
80.181
81.158
82.352
83.787
85.482
87.453
89.699
92.201
94.938
97.896
101.065
104.441
108.013
111.76
115.659
119.686
123.819
128.041
132.331
136.667
141.027
145.393
149.746
154.071
158.348
162.553
166.664
170.655
174.504
178.187
181.68
184.959
188.002
190.791
193.307
195.533
197.455
199.059
200.333
201.266
201.851
202.081
201.952
201.459
200.603
199.384
197.807
195.875
193.594
190.973
188.021
184.75
181.172
177.302
173.154
168.746
164.094
159.217
154.137
148.873
143.445
137.876
132.188
126.403
120.543
114.629
108.684
102.729
96.783
90.867
85.001
79.202
73.488
67.877
62.384
57.023
51.81
46.756
41.874
37.172
32.662
28.35
24.243
20.347
16.667
13.205
9.964
6.945
4.147
1.569
-0.791
-2.936
-4.872
-6.603
-8.134
-9.474
-10.628
-11.606
-12.415
-13.066
-13.566
-13.925
-14.154
-14.262
-14.259
-14.156
-13.962
-13.686
-13.34
-12.933
-12.472
-11.969
-11.43
-10.865
-10.28
-9.682
-9.08
-8.478
-7.882
-7.298
-6.73
-6.183
-5.659
-5.163
-4.696
-4.261
-3.86
-3.493
-3.162
-2.866
-2.606
-2.382
-2.192
-2.036
-1.912
-1.82
-1.758
-1.723
-1.715
-1.732
-1.77
-1.828
-1.903
-1.995
-2.101
-2.218
-2.347
-2.484
-2.63
-2.784
-2.943
-3.107
-3.276
-3.449
-3.626
-3.807
-3.991
-4.179
-4.371
-4.569
-4.774
-4.985
-5.205
-5.432
-5.669
-5.915
-6.17
-6.437
-6.714
-7.002
-7.303
-7.615
-7.941
-8.281
-8.634
-8.999
-9.375
-9.761
-10.156
-10.558
-10.962
-11.367
-11.769
-12.167
-12.557
-12.936
-13.301
-13.647
-13.97
-14.266
-14.529
-14.754
-14.934
-15.065
-15.143
-15.163
-15.123
-15.02
-14.85
-14.609
-14.298
-13.912
-13.451
-12.913
-12.294
-11.594
-10.815
-9.958
-9.027
-8.024
-6.954
-5.824
-4.643
-3.418
-2.154
-0.859
0.462
1.803
3.158
4.522
5.891
7.259
8.617
9.956
11.264
12.531
13.749
14.909
16.005
17.032
17.984
18.861
19.67
20.409
21.073
21.653
22.13
22.494
22.752
22.904
22.961
22.944
22.885
22.834
22.859
23.001
23.285
23.725
24.31
25.045
25.943
27.003
28.236
29.649
31.237
33.004
34.945
36.996
39.046
40.932
42.452
43.46
43.858
43.563
42.541
40.751
38.188
34.929
31.057
26.644
21.732
16.315
10.449
4.341
-1.686
-7.211
-11.76
-14.969
-16.422
-15.591
-12.217
-6.286
1.905
11.587
22.061
32.998
43.911
54.153
63.726
73.074
83.29
96.426
113.88
135.954
163.082
195.619
232.435
271.273
308.165
337.165
353.58
354.425
336.439
296.727
234.237
149.535
46.396
-68.105
-187.843
-307.706
-421.739
-524.045
-608.984
-671.45
-709.674
-725.084
-719.059
-693.328
-650.399
-592.917
-525.521
-454.101
-382.898
-314.818
-252.129
-196.023
-147.974
-109.841
-81.161
-59.85
-43.81
-30.564
-18.711
-8.075
2.244
13.725
26.731
40.875
55.138
67.625
77.434
84.711
89.404
91.417
90.849
87.865
83.159
78.047
73.444
69.778
67.32
66.078
66.097
67.531
70.354
74.358
79.317
85.009
91.265
98.02
105.182
112.602
120.09
127.396
134.318
140.734
146.579
151.829
156.462
160.45
163.8
166.565
168.825
170.669
172.162
173.35
174.288
175.051
175.733
176.447
177.272
178.259
179.443
180.847
182.489
184.391
186.552
188.952
191.572
194.4
197.426
200.649
204.059
207.636
211.356
215.197
219.138
223.163
227.252
231.386
235.546
239.711
243.866
247.997
252.087
256.112
260.051
263.88
267.576
271.116
274.479
277.64
280.578
283.274
285.711
287.872
289.744
291.311
292.562
293.487
294.078
294.327
294.231
293.784
292.986
291.837
290.339
288.498
286.317
283.805
280.968
277.818
274.366
270.625
266.609
262.333
257.814
253.069
248.116
242.976
237.667
232.211
226.627
220.938
215.165
209.328
203.447
197.543
191.635
185.742
179.884
174.077
168.339
162.685
157.132
151.693
146.381
141.21
136.191
131.333
126.646
122.138
117.816
113.685
109.751
106.017
102.485
99.158
96.034
93.115
90.397
87.878
85.554
83.422
81.475
79.708
78.113
76.685
75.414
74.293
73.313
72.465
71.74
71.13
70.624
70.214
69.89
69.644
69.465
69.345
69.276
69.249
69.256
69.289
69.341
69.404
69.473
69.541
69.602
69.651
69.685
69.697
69.685
69.646
69.576
69.474
69.337
69.165
68.957
68.711
68.428
68.108
67.752
67.36
66.933
66.473
65.981
65.457
64.905
64.325
63.719
63.089
62.436
61.763
61.071
60.362
59.638
58.901
58.151
57.39
56.619
55.84
55.052
54.255
53.452
52.64
51.822
50.996
50.162
49.32
48.469
47.608
46.736
45.852
44.955
44.042
43.113
42.166
41.201
40.216
39.213
38.188
37.143
36.077
34.989
33.879
32.746
31.591
30.414
29.216
27.997
26.76
25.507
24.238
22.958
21.67
20.377
19.081
17.787
16.496
15.214
13.944
12.691
11.46
10.256
9.085
7.952
6.864
5.826
4.842
3.916
3.05
2.246
1.509
0.84
0.24
-0.289
-0.746
-1.129
-1.438
-1.673
-1.837
-1.933
-1.964
-1.936
-1.854
-1.726
-1.561
-1.366
-1.15
-0.918
-0.678
-0.434
-0.195
0.033
0.244
0.431
0.585
0.694
0.747
0.731
0.639
0.464
0.202
-0.151
-0.596
-1.133
-1.757
-2.466
-3.264
-4.16
-5.171
-6.305
-7.562
-8.932
-10.401
-11.94
-13.51
-15.068
-16.558
-17.941
-19.195
-20.31
-21.295
-22.156
-22.886
-23.474
-23.895
-24.125
-24.151
-23.979
-23.623
-23.157
-22.707
-22.418
-22.468
-22.999
-24.099
-25.834
-28.231
-31.291
-34.989
-39.274
-44.085
-49.39
-55.181
-61.441
-68.104
-74.944
-81.604
-87.688
-92.748
-96.412
-98.296
-97.909
-95.033
-89.755
-82.455
-73.926
-64.88
-55.606
-46.559
-38.421
-31.152
-24.289
-16.74
-6.374
8.209
27.287
51.342
80.717
114.213
149.502
182.483
207.215
219.091
214.94
191.428
145.677
76.658
-14.448
-123.166
-242.393
-365.846
-487.797
-602.04
-702.167
-782.118
-837.885
-868.773
-876.447
-862.831
-830.394
-782.051
-721.534
-654.332
-585.325
-517.822
-454.373
-396.675
-345.649
-302.61
-268.573
-242.41
-222.689
-207.937
-196.025
-185.932
-177.391
-169.344
-160.561
-150.92
-140.534
-130.148
-121.491
-115.245
-111.328
-109.948
-111.203
-114.951
-121.061
-128.83
-136.921
-144.515
-151.217
-156.737
-161.086
-164.208
-165.95
-166.37
-165.687
-164.078
-161.703
-158.663
-154.943
-150.597
-145.747
-140.54
-135.208
-129.916
-124.732
-119.707
-114.869
-110.249
-105.915
-101.923
-98.279
-95.023
-92.233
-89.99
-88.43
-87.671
-87.775
-88.806
-90.756
-93.6
-97.354
-102.001
-107.453
-113.611
-120.281
-127.23
-134.316
-141.315
-147.869
-153.596
-157.991
-160.529
-160.83
-158.419
-152.737
-143.503
-130.627
-114.335
-95.343
-74.267
-51.526
-27.759
-3.688
20.326
44.332
69.214
