-380.662
-381.482
-382.087
-382.475
-382.642
-382.587
-382.309
-381.81
-381.09
-380.151
-378.996
-377.63
-376.057
-374.284
-372.316
-370.163
-367.831
-365.33
-362.67
-359.862
-356.916
-353.843
-350.655
-347.363
-343.98
-340.519
-336.991
-333.41
-329.789
-326.14
-322.474
-318.805
-315.144
-311.501
-307.887
-304.311
-300.782
-297.308
-293.898
-290.557
-287.292
-284.108
-281.01
-278.002
-275.086
-272.264
-269.536
-266.901
-264.359
-261.908
-259.543
-257.262
-255.059
-252.93
-250.87
-248.874
-246.934
-245.043
-243.193
-241.376
-239.583
-237.806
-236.034
-234.259
-232.473
-230.669
-228.839
-226.978
-225.08
-223.137
-221.147
-219.104
-217.003
-214.843
-212.619
-210.329
-207.972
-205.55
-203.064
-200.518
-197.915
-195.26
-192.558
-189.819
-187.049
-184.255
-181.441
-178.615
-175.783
-172.951
-170.129
-167.322
-164.537
-161.785
-159.076
-156.421
-153.832
-151.315
-148.874
-146.513
-144.234
-142.042
-139.937
-137.913
-135.973
-134.12
-132.358
-130.707
-129.174
-127.752
-126.43
-125.187
-123.988
-122.807
-121.61
-120.348
-118.992
-117.524
-115.932
-114.232
-112.429
-110.509
-108.464
-106.262
-103.866
-101.29
-98.544
-95.663
-92.748
-89.89
-87.2
-84.845
-82.933
-81.532
-80.705
-80.439
-80.704
-81.492
-82.736
-84.399
-86.478
-88.919
-91.691
-94.692
-97.65
-100.282
-102.236
-103.08
-102.491
-100.107
-95.509
-88.635
-79.683
-69.073
-57.62
-45.936
-34.314
-23.29
-13.303
-4.183
4.654
14.534
27.251
43.749
64.318
89.288
118.394
150.16
181.74
208.763
226.583
231.574
220.92
191.959
142.639
73.041
-13.934
-113.179
-218.942
-325.58
-427.869
-519.906
-595.156
-649.419
-681.285
-691.321
-681.569
-654.691
-613.149
-561.105
-504.303
-446.812
-391.8
-341.375
-295.784
-255.133
-219.961
-189.361
-161.692
-136.359
-111.998
-87.797
-64.522
-42.534
-21.979
-3.611
12.321
26.092
36.917
44.385
48.933
50.716
50.262
48.32
45.022
40.451
35.284
30.107
25.378
21.623
18.947
17.339
16.974
17.943
20.219
23.75
28.351
33.787
39.911
46.586
53.678
61.063
68.549
75.912
82.974
89.606
95.74
101.351
106.408
110.888
114.802
118.195
121.146
123.739
126.039
128.096
129.966
131.713
133.42
135.182
137.063
139.107
141.34
143.776
146.429
149.308
152.406
155.698
159.16
162.769
166.511
170.376
174.344
178.391
182.489
186.61
190.729
194.826
198.879
202.863
206.756
210.537
214.189
217.695
221.038
224.195
227.145
229.867
232.34
234.545
236.464
238.077
239.368
240.325
240.935
241.19
241.082
240.606
239.756
238.533
236.935
234.967
232.632
229.934
226.884
223.491
219.767
215.725
211.381
206.751
201.851
196.702
191.322
185.734
179.957
174.015
167.93
161.726
155.427
149.057
142.64
136.199
129.758
123.341
116.97
110.667
104.452
98.345
92.364
86.526
80.848
75.344
70.028
64.912
60.006
55.32
50.862
46.639
42.655
38.915
35.42
32.173
29.171
26.415
23.902
21.627
19.586
17.774
16.184
14.808
13.638
12.665
11.878
11.268
10.823
10.531
10.38
10.359
10.454
10.655
10.949
11.323
11.767
12.267
12.813
13.394
13.997
14.613
15.232
15.844
16.441
17.015
17.56
18.069
18.536
18.957
19.327
19.642
19.901
20.1
20.236
20.311
20.323
20.275
20.167
20.002
19.784
19.516
19.204
18.851
18.465
18.048
17.608
17.149
16.679
16.203
15.73
15.268
14.824
14.405
14.022
13.68
13.385
13.145
12.962
12.842
12.79
12.809
12.902
13.073
13.324
13.657
14.075
14.579
15.167
15.835
16.582
17.403
18.292
19.243
20.248
21.297
22.385
23.505
24.651
25.817
26.998
28.184
29.373
30.555
31.722
32.864
33.968
35.022
36.018
36.95
37.813
38.604
39.32
39.959
40.526
41.021
41.44
41.773
42.002
42.117
42.12
42.018
41.825
41.567
41.281
41.006
40.797
40.69
40.704
40.845
41.103
41.473
41.958
42.569
43.326
44.248
45.346
46.616
48.043
49.559
51.042
52.355
53.331
53.836
53.789
53.132
51.84
49.907
47.362
44.259
40.66
36.607
32.099
27.146
21.811
16.304
10.956
6.136
2.253
-0.36
-1.332
-0.198
3.26
8.979
16.599
25.381
34.659
44.151
53.448
61.936
69.645
77.001
85.03
95.716
110.394
129.364
153.046
181.73
214.279
248.497
280.586
305.034
317.54
315.154
294.761
253.661
190.905
107.578
7.785
-101.894
-215.676
-328.303
-433.979
-526.72
-600.86
-652.601
-681.25
-688.318
-675.519
-645.089
-599.691
-542.724
-479.288
-413.927
-349.692
-289.002
-233.474
-183.961
-141.776
-107.955
-81.485
-61.125
-45.567
-32.776
-21.795
-12.374
-3.48
6.015
16.221
27.083
37.907
47.09
54.025
58.774
61.169
61.201
59.04
54.865
49.397
43.852
38.978
35.16
32.634
31.383
31.458
32.964
35.811
39.764
44.596
50.102
56.143
62.641
69.474
76.455
83.349
89.941
96.087
101.7
106.743
111.202
115.055
118.306
121.001
123.205
124.991
126.432
127.573
128.467
129.186
129.814
130.456
131.197
132.09
133.172
134.468
135.99
137.75
139.749
141.965
144.377
146.971
149.734
152.66
155.738
158.948
162.264
165.661
169.116
172.608
176.117
179.62
183.096
186.525
189.888
193.172
196.358
199.422
202.342
205.096
207.659
210.011
212.129
213.993
215.581
216.878
217.868
218.538
218.876
218.871
218.516
217.803
216.729
215.292
213.489
211.323
208.796
205.914
202.684
199.116
195.219
191.006
186.49
181.688
176.615
171.289
165.73
159.957
153.992
147.855
141.571
135.162
128.65
122.061
115.417
108.742
102.06
95.392
88.76
82.186
75.689
69.29
63.006
56.854
50.852
45.013
39.352
33.881
28.612
23.555
18.719
14.11
9.736
5.6
1.708
-1.94
-5.341
-8.496
-11.406
-14.074
-16.504
-18.699
-20.666
-22.411
-23.941
-25.265
-26.391
-27.329
-28.087
-28.677
-29.109
-29.394
-29.543
-29.568
-29.479
-29.289
-29.009
-28.651
-28.225
-27.742
-27.213
-26.648
-26.058
-25.451
-24.837
-24.224
-23.622
-23.038
-22.48
-21.953
-21.464
-21.017
-20.616
-20.265
-19.968
-19.726
-19.541
-19.414
-19.346
-19.339
-19.391
-19.502
-19.669
-19.89
-20.162
-20.482
-20.845
-21.245
-21.678
-22.139
-22.622
-23.122
-23.634
-24.151
-24.667
-25.176
-25.671
-26.144
-26.589
-26.997
-27.361
-27.677
-27.939
-28.142
-28.283
-28.357
-28.362
-28.296
-28.155
-27.938
-27.642
-27.267
-26.811
-26.277
-25.665
-24.981
-24.227
-23.41
-22.537
-21.616
-20.657
-19.666
-18.651
-17.618
-16.575
-15.527
-14.48
-13.438
-12.409
-11.403
-10.429
-9.501
-8.628
-7.819
-7.084
-6.431
-5.863
-5.385
-4.996
-4.691
-4.47
-4.34
-4.308
-4.392
-4.597
-4.92
-5.356
-5.894
-6.51
-7.173
-7.828
-8.412
-8.885
-9.226
-9.421
-9.481
-9.399
-9.161
-8.769
-8.211
-7.486
-6.599
-5.545
-4.333
-3.021
-1.719
-0.588
0.188
0.475
0.186
-0.749
-2.362
-4.684
-7.728
-11.43
-15.694
-20.438
-25.594
-31.132
-37.022
-43.105
-49.067
-54.513
-59
-62.135
-63.632
-63.128
-60.169
-54.574
-46.467
-36.317
-25.006
-13.259
-1.359
10.226
20.823
30.415
39.395
48.857
60.897
76.9
97.129
121.984
151.694
184.965
219.381
250.861
273.67
283.358
276.907
251.232
203.68
133.532
42.434
-64.934
-181.701
-301.742
-419.598
-529.411
-624.662
-699.35
-750.042
-776.368
-779.763
-762.085
-725.336
-671.884
-606.173
-534.239
-460.713
-388.886
-321.589
-260.589
-207.596
-164.803
-132.333
-108.277
-91.128
-79.08
-69.859
-62.472
-55.863
-48.137
-38.653
-27.808
-15.891
-4.049
6.116
14.148
19.766
22.421
22.276
19.667
14.91
9.005
3.135
-2.061
-6.136
-8.813
-10.141
-10.073
-8.547
-5.731
-1.852
2.88
8.261
14.181
20.571
27.294
34.166
40.95
47.424
53.451
58.949
63.881
68.23
71.975
75.122
77.725
79.856
81.591
82.998
84.12
85.01
85.744
86.409
87.111
87.937
88.937
90.149
91.597
93.294
95.253
97.469
99.918
102.58
105.435
108.471
111.68
115.05
118.556
122.174
125.875
129.635
133.433
137.246
141.05
144.821
148.54
152.185
155.742
159.19
162.506
165.666
168.645
171.42
173.969
176.269
178.297
180.033
181.46
182.563
183.328
183.744
183.799
183.487
182.801
181.738
180.295
178.473
176.273
173.7
170.759
167.46
163.812
159.828
155.519
150.901
145.991
140.806
135.367
129.692
123.803
117.723
111.474
105.081
98.567
91.957
85.275
78.545
71.793
65.041
58.314
51.633
45.018
38.492
32.073
25.78
19.629
13.637
7.819
2.187
-3.246
-8.469
-13.472
-18.248
-22.789
-27.091
-31.148
-34.959
-38.52
-41.833
-44.897
-47.715
-50.289
-52.624
-54.724
-56.596
-58.245
-59.681
-60.91
-61.941
-62.784
-63.447
-63.942
-64.277
-64.464
-64.512
-64.432
-64.234
-63.929
-63.526
-63.035
-62.465
-61.826
-61.127
-60.376
-59.581
-58.751
-57.893
-57.015
-56.124
-55.225
-54.326
-53.431
-52.546
-51.675
-50.824
-49.995
-49.193
-48.421
-47.683
-46.981
-46.319
-45.699
-45.122
-44.589
-44.102
-43.662
-43.269
-42.923
-42.626
-42.376
-42.175
-42.022
-41.918
-41.863
-41.855
-41.894
-41.978
-42.106
-42.276
-42.485
-42.731
-43.012
-43.324
-43.665
-44.034
-44.427
-44.841
-45.271
-45.714
-46.165
-46.618
-47.069
-47.512
-47.942
-48.355
-48.748
-49.118
-49.463
-49.777
-50.059
-50.306
-50.515
-50.684
-50.809
-50.888
-50.919
-50.901
-50.837
-50.725
-50.57
-50.372
-50.135
-49.867
-49.57
-49.248
-48.904
-48.54
-48.161
-47.769
-47.368
-46.959
-46.547
-46.138
-45.739
-45.359
-45.008
-44.69
-44.409
-44.168
-43.968
-43.812
-43.696
-43.615
-43.566
-43.552
-43.583
-43.68
-43.852
-44.1
-44.418
-44.793
-45.201
-45.608
-45.971
-46.238
-46.369
-46.344
-46.16
-45.828
-45.359
-44.753
-43.996
-43.061
-41.925
-40.572
-39.007
-37.247
-35.362
-33.48
-31.752
-30.358
-29.452
-29.129
-29.452
-30.449
-32.106
-34.382
-37.242
-40.641
-44.576
-49.078
-54.111
-59.576
-65.255
-70.775
-75.742
-79.756
-82.344
-83.004
-81.417
-77.499
-71.518
-64.131
-55.929
-47.285
-38.587
-30.334
-22.76
-15.541
-7.608
2.895
17.555
37.051
61.631
91.532
126.498
164.971
203.572
237.045
260.205
269.271
261.263
233.39
183.159
109.8
15.742
-93.346
-210.948
-331.264
-448.834
-558.078
-652.318
-725.327
-774.068
-798.618
-800.321
-781.022
-742.738
-687.709
-620.615
-547.689
-473.494
-401.295
-333.916
-273.067
-220.487
-178.399
-146.816
-123.733
-107.589
-96.49
-88.15
-81.576
-75.659
-68.466
-59.349
-48.711
-36.87
-25.01
-14.745
-6.542
-0.7
2.204
2.313
-0.044
-4.548
-10.199
-15.812
-20.754
-24.585
-27.03
-28.142
-27.881
-26.189
-23.239
-19.26
-14.458
-9.032
-3.087
3.313
10.039
16.913
23.705
30.197
36.256
41.803
46.803
51.241
55.097
58.377
61.136
63.444
65.379
67.005
68.365
69.511
70.515
71.462
72.456
73.579
74.882
76.399
78.152
80.155
82.416
84.934
87.682
90.637
93.781
97.101
100.587
104.226
107.995
111.868
115.817
119.819
123.852
127.895
131.923
135.916
139.851
143.712
147.483
151.145
154.676
158.054
161.256
164.258
167.042
169.586
171.87
173.874
175.583
176.983
178.062
178.811
179.221
179.283
178.994
178.352
177.355
176.004
174.301
172.252
169.862
167.14
164.097
160.743
157.091
153.156
148.952
144.497
139.81
134.908
129.812
124.542
119.12
113.567
107.907
102.161
96.353
90.503
84.637
78.774
72.938
67.147
61.422
55.782
50.244
44.827
39.545
34.413
29.446
24.655
20.053
15.65
11.456
7.477
3.721
0.193
-3.102
-6.162
-8.984
-11.567
-13.913
-16.022
-17.897
-19.541
-20.959
-22.157
-23.141
-23.918
-24.496
-24.883
-25.089
-25.122
-24.994
-24.714
-24.293
-23.741
-23.07
-22.291
-21.416
-20.454
-19.417
-18.317
-17.163
-15.967
-14.74
-13.491
-12.23
-10.967
-9.712
-8.473
-7.258
-6.075
-4.933
-3.836
-2.792
-1.807
-0.885
-0.031
0.75
1.455
2.081
2.626
3.086
3.46
3.747
3.946
4.057
4.081
4.018
3.868
3.633
3.315
2.915
2.436
1.879
1.249
0.549
-0.217
-1.044
-1.928
-2.864
-3.845
-4.868
-5.926
-7.013
-8.124
-9.254
-10.396
-11.544
-12.692
-13.831
-14.957
-16.061
-17.137
-18.178
-19.175
-20.125
-21.019
-21.852
-22.619
-23.313
-23.928
-24.459
-24.898
-25.241
-25.482
-25.615
-25.636
-25.543
-25.333
-25.006
-24.561
-23.998
-23.317
-22.52
-21.609
-20.585
-19.452
-18.212
-16.87
-15.432
-13.907
-12.301
-10.624
-8.887
-7.099
-5.274
-3.424
-1.559
0.311
2.176
4.028
5.857
7.653
9.409
11.114
12.758
14.329
15.812
17.197
18.473
19.633
20.674
21.592
22.386
23.055
23.605
24.038
24.349
24.533
24.574
24.466
24.21
23.818
23.306
22.707
22.06
21.408
20.804
20.288
19.879
19.585
19.399
19.318
19.343
19.491
19.788
20.259
20.925
21.786
22.826
23.979
25.123
26.12
26.809
27.06
26.785
25.932
24.476
22.415
19.787
16.633
12.994
8.902
4.346
-0.686
-6.126
-11.78
-17.324
-22.361
-26.487
-29.36
-30.596
-29.749
-26.563
-21.05
-13.572
-4.835
4.504
14.089
23.566
32.401
40.406
47.896
55.807
65.937
79.925
98.491
122.027
150.91
184.537
220.951
256.754
286.785
305.774
309.735
295.173
258.743
198.642
115.476
12.49
-104.332
-228.072
-352.314
-470.527
-575.674
-661.328
-723.139
-759.475
-771.182
-760.24
-729.153
-681.008
-619.862
-550.909
-478.897
-407.125
-338.078
-274.049
-216.6
-167.123
-126.754
-94.885
-70.342
-52.329
-39.462
-29.858
-22.375
-15.754
-8.366
0.176
9.78
20.385
30.995
40.273
47.686
52.833
55.208
54.973
52.417
47.89
42.401
37.052
32.471
29.081
27.106
26.507
27.311
29.532
32.968
37.363
42.492
48.16
54.271
60.76
67.5
74.296
80.906
87.132
92.857
98.022
102.61
106.602
109.981
112.774
115.053
116.898
118.389
119.588
120.534
121.283
121.911
122.505
123.172
123.989
125.003
126.248
127.746
129.509
131.549
133.859
136.408
139.175
142.142
145.295
148.627
152.121
155.751
159.492
163.314
167.193
171.106
175.027
178.93
182.792
186.59
190.302
193.912
197.397
200.734
203.897
206.863
209.608
212.108
214.342
216.287
217.924
219.236
220.207
220.826
221.082
220.966
220.47
219.59
218.325
216.674
214.637
212.22
209.427
206.268
202.752
198.891
194.699
190.19
185.38
180.29
174.937
169.343
163.529
157.516
151.329
144.991
138.527
131.96
125.317
118.62
111.895
105.166
98.456
91.789
85.185
78.665
72.248
65.954
59.8
53.8
47.97
42.324
36.872
31.626
26.595
21.786
17.206
12.86
8.751
4.881
1.252
-2.137
-5.288
-8.202
-10.884
-13.339
-15.572
-17.591
-19.401
-21.013
-22.435
-23.676
-24.746
-25.657
-26.418
-27.042
-27.538
-27.919
-28.195
-28.378
-28.477
-28.505
-28.471
-28.386
-28.258
-28.097
-27.913
-27.712
-27.503
-27.294
-27.091
-26.899
-26.725
-26.573
-26.447
-26.353
-26.292
-26.268
-26.284
-26.34
-26.438
-26.579
-26.764
-26.992
-27.262
-27.575
-27.928
-28.319
-28.749
-29.213
-29.711
-30.241
-30.8
-31.386
-31.998
-32.634
-33.29
-33.965
-34.658
-35.365
-36.086
-36.819
-37.563
-38.316
-39.079
-39.849
-40.626
-41.41
-42.199
-42.993
-43.791
-44.592
-45.395
-46.201
-47.008
-47.816
-48.626
-49.438
-50.251
-51.064
-51.878
-52.692
-53.504
-54.313
-55.118
-55.916
-56.704
-57.482
-58.248
-58.999
-59.733
-60.447
-61.139
-61.805
-62.441
-63.043
-63.607
-64.128
-64.601
-65.022
-65.39
-65.701
-65.954
-66.144
-66.27
-66.33
-66.323
-66.246
-66.098
-65.876
-65.58
-65.21
-64.768
-64.255
-63.676
-63.034
-62.334
-61.583
-60.789
-59.955
-59.088
-58.192
-57.271
-56.332
-55.377
-54.41
-53.436
-52.463
-51.499
-50.555
-49.64
-48.761
-47.926
-47.141
-46.409
-45.736
-45.121
-44.559
-44.05
-43.599
-43.215
-42.916
-42.71
-42.595
-42.569
-42.623
-42.737
-42.884
-43.017
-43.076
-43.025
-42.843
-42.517
-42.06
-41.47
-40.737
-39.865
-38.842
-37.661
-36.326
-34.831
-33.183
-31.441
-29.706
-28.13
-26.897
-26.138
-25.946
-26.402
-27.534
-29.374
-31.926
-35.113
-38.864
-43.118
-47.839
-53.039
-58.664
-64.528
-70.331
-75.678
-80.144
-83.399
-85.054
-84.621
-81.833
-76.643
-69.347
-60.679
-51.281
-41.514
-31.768
-22.568
-14.151
-6.286
2.019
12.624
27.034
45.903
69.481
97.936
130.991
167.111
202.927
233.286
253.207
259.04
247.915
217.218
164.615
89.566
-5.276
-114.229
-230.875
-349.477
-464.62
-570.75
-661.29
-730.275
-774.962
-795.605
-793.604
-770.867
-729.475
-671.787
-602.589
-528.041
-452.554
-379.243
-310.832
-248.966
-195.366
-152.206
-119.38
-94.895
-77.245
-64.614
-54.866
-47.088
-40.192
-32.281
-22.715
-11.85
0.022
11.767
21.894
30.003
35.867
38.984
39.46
37.591
33.686
28.711
23.84
19.706
16.712
15.104
14.832
15.929
18.455
22.241
27.025
32.577
38.678
45.199
52.088
59.23
66.442
73.498
80.18
86.35
91.944
96.938
101.311
105.037
108.124
110.622
112.615
114.189
115.414
116.335
117.007
117.5
117.906
118.329
118.852
119.527
120.388
121.458
122.754
124.294
126.075
128.077
130.28
132.668
135.23
137.963
140.854
143.882
147.024
150.254
153.551
156.898
160.274
163.657
167.028
170.367
173.657
176.884
180.028
183.068
185.982
188.746
191.337
193.734
195.915
197.857
199.539
200.945
202.058
202.864
203.35
203.505
203.317
202.78
201.889
200.639
199.028
197.056
194.724
192.038
189.004
185.629
181.923
177.897
173.564
168.939
164.037
158.876
153.473
147.849
142.023
136.018
129.856
123.561
117.154
110.66
104.102
97.506
90.893
84.288
77.713
71.189
64.736
58.377
52.129
46.01
40.037
34.227
28.593
23.149
17.907
12.877
8.067
3.487
-0.859
-4.966
-8.83
-12.45
-15.824
-18.955
-21.842
-24.49
-26.904
-29.088
-31.048
-32.794
-34.332
-35.672
-36.823
-37.797
-38.604
-39.255
-39.762
-40.137
-40.391
-40.537
-40.586
-40.551
-40.442
-40.272
-40.05
-39.788
-39.495
-39.181
-38.854
-38.522
-38.193
-37.874
-37.57
-37.287
-37.03
-36.802
-36.607
-36.447
-36.324
-36.239
-36.192
-36.185
-36.217
-36.286
-36.391
-36.531
-36.703
-36.905
-37.135
-37.389
-37.664
-37.956
-38.262
-38.58
-38.904
-39.232
-39.561
-39.887
-40.208
-40.522
-40.826
-41.118
-41.397
-41.662
-41.91
-42.142
-42.358
-42.557
-42.739
-42.906
-43.059
-43.2
-43.329
-43.448
-43.559
-43.663
-43.762
-43.857
-43.95
-44.043
-44.138
-44.237
-44.341
-44.455
-44.578
-44.713
-44.861
-45.022
-45.199
-45.39
-45.595
-45.814
-46.045
-46.288
-46.542
-46.804
-47.074
-47.349
-47.626
-47.902
-48.173
-48.435
-48.683
-48.913
-49.119
-49.298
-49.448
-49.565
-49.648
-49.692
-49.697
-49.659
-49.576
-49.448
-49.271
-49.041
-48.759
-48.425
-48.039
-47.602
-47.117
-46.586
-46.014
-45.408
-44.772
-44.111
-43.429
-42.729
-42.016
-41.295
-40.567
-39.835
-39.103
-38.377
-37.665
-36.975
-36.315
-35.69
-35.105
-34.564
-34.069
-33.624
-33.226
-32.866
-32.545
-32.266
-32.038
-31.88
-31.797
-31.784
-31.841
-31.957
-32.112
-32.276
-32.399
-32.416
-32.29
-32
-31.531
-30.897
-30.089
-29.093
-27.913
-26.54
-24.966
-23.203
-21.246
-19.106
-16.858
-14.625
-12.573
-10.909
-9.776
-9.263
-9.467
-10.425
-12.174
-14.729
-17.996
-21.883
-26.34
-31.322
-36.82
-42.778
-48.949
-54.967
-60.422
-64.827
-67.816
-69.006
-67.849
-64.108
-57.831
-49.352
-39.522
-29.093
-18.349
-7.778
1.945
10.881
19.479
28.826
41.078
57.607
78.676
104.769
136.148
171.557
208.594
243.075
269.124
282.189
279.118
256.612
211.772
143.566
53.358
-54.233
-172.258
-294.541
-415.555
-529.226
-628.726
-707.795
-762.648
-792.771
-799.66
-784.798
-749.798
-697.07
-631.108
-557.797
-481.872
-406.394
-333.825
-266.763
-207.763
-159.167
-121.402
-92.951
-72.395
-58.615
-50.064
-44.814
-40.915
-36.231
-29.639
-21.304
-11.517
-0.726
10.125
19.913
27.772
32.917
35.083
34.628
31.993
27.809
22.964
18.373
14.694
12.348
11.515
12.149
14.202
17.587
22.115
27.537
33.636
40.253
47.256
54.548
61.973
69.299
76.323
82.89
88.904
94.329
99.147
103.336
106.906
109.909
112.413
114.498
116.23
117.656
118.832
119.832
120.743
121.67
122.696
123.877
125.254
126.852
128.689
130.775
133.108
135.664
138.423
141.37
144.49
147.778
151.222
154.799
158.486
162.257
166.088
169.959
173.849
177.734
181.592
185.404
189.151
192.82
196.39
199.839
203.144
206.281
209.228
211.963
214.462
216.705
218.669
220.339
221.698
222.733
223.432
223.783
223.778
223.409
222.672
221.564
220.083
218.23
216.008
213.421
210.477
207.185
203.554
199.596
195.325
190.756
185.907
180.795
175.439
169.86
164.078
158.117
152
145.75
139.391
132.947
126.444
119.905
113.356
106.818
100.316
93.871
87.505
81.237
75.088
69.075
63.216
57.527
52.022
46.715
41.618
36.741
32.095
27.686
23.52
19.604
15.94
12.529
9.374
6.473
3.823
1.422
-0.735
-2.654
-4.341
-5.805
-7.053
-8.097
-8.945
-9.609
-10.101
-10.432
-10.615
-10.662
-10.585
-10.398
-10.112
-9.74
-9.294
-8.786
-8.227
-7.628
-7.001
-6.354
-5.698
-5.041
-4.39
-3.755
-3.14
-2.552
-1.996
-1.477
-0.997
-0.56
-0.168
0.177
0.475
0.724
0.926
1.08
1.189
1.254
1.277
1.26
1.207
1.12
1.001
0.855
0.684
0.491
0.279
0.051
-0.191
-0.444
-0.706
-0.974
-1.247
-1.524
-1.802
-2.081
-2.362
-2.643
-2.926
-3.21
-3.498
-3.789
-4.085
-4.386
-4.694
-5.011
-5.336
-5.672
-6.021
-6.383
-6.761
-7.156
-7.569
-8.001
-8.453
-8.925
-9.416
-9.926
-10.454
-10.999
-11.559
-12.131
-12.713
-13.304
-13.901
-14.501
-15.099
-15.693
-16.276
-16.843
-17.389
-17.909
-18.395
-18.843
-19.249
-19.608
-19.917
-20.171
-20.368
-20.504
-20.576
-20.581
-20.518
-20.385
-20.18
-19.902
-19.554
-19.137
-18.655
-18.113
-17.513
-16.863
-16.171
-15.443
-14.686
-13.905
-13.104
-12.29
-11.47
-10.651
-9.839
-9.04
-8.264
-7.522
-6.826
-6.186
-5.61
-5.101
-4.665
-4.301
-4.015
-3.808
-3.674
-3.615
-3.634
-3.738
-3.945
-4.266
-4.693
-5.215
-5.809
-6.44
-7.081
-7.699
-8.246
-8.694
-9.024
-9.227
-9.32
-9.311
-9.186
-8.934
-8.52
-7.905
-7.099
-6.116
-4.992
-3.829
-2.722
-1.778
-1.158
-0.974
-1.286
-2.154
-3.564
-5.482
-7.903
-10.772
-14.053
-17.752
-21.822
-26.224
-30.857
-35.448
-39.69
-43.252
-45.71
-46.748
-46.039
-43.141
-37.94
-30.629
-21.594
-11.632
-1.428
8.797
18.576
27.246
34.863
41.886
49.453
59.676
73.893
92.339
115.432
143.424
175.092
208.104
238.44
260.453
269.751
263.371
238.328
192.085
124.076
35.954
-67.748
-180.092
-294.814
-406.426
-509.053
-596.492
-663.424
-706.601
-725.62
-722.715
-700.453
-661.327
-608.384
-545.818
-478.787
-412.013
-348.92
-290.948
-238.758
-193.134
-154.96
-124.536
-100.709
-81.463
-64.651
-49.302
-35.366
-22.727
-10.818
1.283
13.781
25.883
36.192
43.865
48.928
51.729
52.569
51.322
47.955
43.007
37.506
32.414
28.269
25.258
23.354
22.637
23.266
25.268
28.508
32.741
37.726
43.291
49.348
55.818
62.571
69.422
76.132
82.503
88.414
93.8
98.641
102.914
106.593
109.685
112.236
114.325
116.039
117.446
118.592
119.53
120.327
121.073
121.874
122.809
123.925
125.254
126.815
128.623
130.695
133.027
135.598
138.384
141.367
144.536
147.883
151.395
155.046
158.812
162.663
166.575
170.527
174.496
178.459
182.391
186.271
190.079
193.799
197.41
200.889
204.21
207.35
210.284
212.99
215.445
217.625
219.51
221.081
222.324
223.223
223.766
223.942
223.742
223.158
222.187
220.825
219.071
216.926
214.392
211.475
208.182
204.523
200.508
196.148
191.458
186.453
181.15
175.567
169.723
163.637
157.331
150.827
144.148
137.317
130.358
123.295
116.151
108.95
101.717
94.475
87.244
80.048
72.906
65.839
58.865
52.004
45.27
38.682
32.252
25.994
19.922
14.046
8.376
2.92
-2.314
-7.321
-12.095
-16.634
-20.934
-24.994
-28.815
-32.397
-35.742
-38.853
-41.735
-44.392
-46.83
-49.056
-51.077
-52.9
-54.534
-55.987
-57.269
-58.387
-59.352
-60.172
-60.858
-61.419
-61.865
-62.205
-62.448
-62.605
-62.683
-62.693
-62.641
-62.537
-62.388
-62.203
-61.987
-61.748
-61.492
-61.226
-60.955
-60.685
-60.42
-60.164
-59.923
-59.699
-59.495
-59.314
-59.159
-59.031
-58.934
-58.867
-58.834
-58.835
-58.872
-58.946
-59.058
-59.206
-59.391
-59.612
-59.869
-60.161
-60.487
-60.846
-61.236
-61.656
-62.105
-62.582
-63.082
-63.604
-64.146
-64.702
-65.272
-65.849
-66.432
-67.016
-67.597
-68.172
-68.738
-69.292
-69.829
-70.346
-70.839
-71.301
-71.728
-72.116
-72.459
-72.751
-72.991
-73.173
-73.297
-73.359
-73.358
-73.29
-73.155
-72.952
-72.679
-72.335
-71.921
-71.435
-70.882
-70.264
-69.585
-68.851
-68.066
-67.237
-66.373
-65.481
-64.568
-63.64
-62.701
-61.757
-60.813
-59.874
-58.946
-58.033
-57.145
-56.29
-55.479
-54.723
-54.03
-53.405
-52.853
-52.375
-51.975
-51.653
-51.402
-51.222
-51.117
-51.092
-51.163
-51.341
-51.624
-52.002
-52.462
-52.975
-53.504
-54.012
-54.446
-54.766
-54.953
-54.997
-54.911
-54.703
-54.372
-53.908
-53.289
-52.492
-51.506
-50.339
-49.001
-47.554
-46.109
-44.792
-43.769
-43.178
-43.109
-43.62
-44.73
-46.43
-48.688
-51.465
-54.714
-58.393
-62.498
-67.017
-71.899
-76.964
-81.92
-86.409
-90.01
-92.376
-93.105
-91.724
-88.038
-82.107
-74.292
-65.305
-55.745
-45.877
-36.141
-27.145
-18.885
-10.988
-2.313
9.189
24.658
44.322
68.487
97.304
130.023
164.904
198.095
224.003
238.61
239.045
222.572
186.934
130.323
52.857
-41.659
-146.919
-257.426
-367.968
-473.333
-568.19
-646.125
-702.547
-736.291
-748.254
-740.115
-714.212
-672.891
-619.298
-558.583
-495.23
-432.543
-373.348
-318.896
-269.76
-226.898
-190.777
-160.848
-136.502
-116.422
-98.664
-82.645
-68.28
-55.214
-43.177
-31.571
-19.913
-8.786
0.555
7.539
12.111
14.5
15.123
13.886
10.752
6.301
1.461
-2.899
-6.225
-8.348
-9.296
-8.969
-7.258
-4.176
0.13
5.383
11.341
17.842
24.757
31.987
39.372
46.682
53.722
60.334
66.407
71.904
76.805
81.081
84.738
87.809
90.338
92.41
94.103
95.471
96.583
97.506
98.319
99.126
100.012
101.037
102.243
103.655
105.284
107.149
109.25
111.57
114.096
116.812
119.703
122.764
125.983
129.342
132.817
136.382
140.012
143.689
147.392
151.099
154.792
158.448
162.051
165.587
169.037
172.379
175.59
178.648
181.528
184.21
186.67
188.888
190.841
192.512
193.886
194.948
195.686
196.089
196.145
195.848
195.192
194.174
192.791
191.042
188.93
186.459
183.634
180.465
176.96
173.13
168.988
164.548
159.827
154.841
149.607
144.147
138.478
132.624
126.606
120.447
114.171
107.8
101.359
94.872
88.363
81.853
75.366
68.924
62.546
56.254
50.068
44.004
38.081
32.315
26.72
21.311
16.101
11.1
6.319
1.767
-2.551
-6.627
-10.457
-14.037
-17.367
-20.444
-23.269
-25.845
-28.173
-30.259
-32.106
-33.721
-35.112
-36.285
-37.25
-38.015
-38.591
-38.988
-39.215
-39.285
-39.209
-38.997
-38.662
-38.215
-37.668
-37.031
-36.317
-35.535
-34.697
-33.813
-32.893
-31.946
-30.983
-30.01
-29.037
-28.07
-27.118
-26.186
-25.281
-24.406
-23.567
-22.768
-22.013
-21.303
-20.642
-20.031
-19.473
-18.968
-18.516
-18.12
-17.778
-17.49
-17.256
-17.075
-16.945
-16.865
-16.836
-16.854
-16.919
-17.03
-17.185
-17.382
-17.619
-17.894
-18.205
-18.549
-18.925
-19.329
-19.76
-20.215
-20.693
-21.191
-21.709
-22.243
-22.793
-23.355
-23.927
-24.506
-25.09
-25.675
-26.259
-26.837
-27.408
-27.968
-28.515
-29.046
-29.557
-30.044
-30.503
-30.929
-31.319
-31.666
-31.968
-32.218
-32.415
-32.556
-32.639
-32.662
-32.624
-32.522
-32.356
-32.125
-31.827
-31.461
-31.026
-30.522
-29.952
-29.317
-28.621
-27.868
-27.061
-26.206
-25.312
-24.384
-23.427
-22.446
-21.445
-20.429
-19.404
-18.373
-17.341
-16.313
-15.296
-14.3
-13.334
-12.407
-11.525
-10.692
-9.912
-9.184
-8.51
-7.889
-7.315
-6.785
-6.304
-5.881
-5.532
-5.267
-5.084
-4.975
-4.925
-4.908
-4.886
-4.817
-4.649
-4.345
-3.888
-3.271
-2.506
-1.599
-0.544
0.668
2.056
3.644
5.439
7.432
9.603
11.872
14.102
16.145
17.82
18.983
19.549
19.452
18.665
17.19
15.051
12.307
9.018
5.215
0.904
-3.897
-9.111
-14.501
-19.693
-24.285
-27.824
-29.943
-30.267
-28.31
-23.874
-17.081
-8.343
1.518
11.791
22.219
32.381
41.625
50.03
58.084
66.88
78.534
94.369
114.567
139.513
169.409
202.943
237.713
269.624
292.912
303.172
297.425
272.578
225.984
156.835
66.644
-39.945
-156.105
-275.748
-393.416
-503.287
-598.866
-674.083
-725.409
-752.398
-756.405
-739.238
-702.883
-649.651
-583.963
-511.875
-438.051
-365.854
-298.182
-236.842
-183.581
-140.624
-108.096
-84.069
-67.012
-55.066
-45.922
-38.564
-31.906
-24.036
-14.317
-3.16
9.123
21.355
31.924
40.365
46.388
49.435
49.668
47.428
43.041
37.512
32.027
27.223
23.544
21.267
20.342
20.815
22.746
25.965
30.243
35.373
41.15
47.465
54.243
61.349
68.595
75.742
82.569
88.934
94.756
99.995
104.634
108.651
112.049
114.882
117.22
119.137
120.702
121.956
122.953
123.769
124.49
125.223
126.055
127.036
128.205
129.586
131.192
133.037
135.118
137.412
139.898
142.56
145.386
148.369
151.499
154.754
158.11
161.541
165.025
168.543
172.074
175.596
179.09
182.536
185.916
189.218
192.422
195.508
198.454
201.237
203.834
206.225
208.389
210.303
211.95
213.31
214.371
215.119
215.541
215.628
215.37
214.762
213.799
212.478
210.798
208.76
206.366
203.623
200.536
197.114
193.367
189.307
184.947
180.301
175.386
170.219
164.819
159.205
153.397
147.418
141.289
135.034
128.675
122.236
115.74
109.211
102.673
96.148
89.658
83.224
76.868
70.608
64.464
58.453
52.592
46.896
41.378
36.053
30.931
26.024
21.338
16.883
12.663
8.684
4.949
1.459
-1.784
-4.782
-7.536
-10.049
-12.326
-14.372
-16.194
-17.798
-19.194
-20.389
-21.394
-22.219
-22.875
-23.374
-23.727
-23.947
-24.044
-24.032
-23.922
-23.727
-23.457
-23.125
-22.742
-22.319
-21.866
-21.392
-20.908
-20.421
-19.941
-19.473
-19.025
-18.604
-18.214
-17.86
-17.547
-17.278
-17.057
-16.885
-16.765
-16.698
-16.683
-16.722
-16.813
-16.957
-17.151
-17.394
-17.684
-18.02
-18.398
-18.818
-19.276
-19.77
-20.298
-20.856
-21.441
-22.052
-22.686
-23.34
-24.013
-24.704
-25.409
-26.129
-26.862
-27.606
-28.361
-29.124
-29.894
-30.672
-31.454
-32.241
-33.032
-33.826
-34.622
-35.421
-36.222
-37.024
-37.827
-38.628
-39.427
-40.222
-41.011
-41.791
-42.561
-43.319
-44.062
-44.79
-45.498
-46.186
-46.848
-47.483
-48.087
-48.655
-49.183
-49.666
-50.1
-50.482
-50.808
-51.078
-51.289
-51.438
-51.522
-51.542
-51.496
-51.381
-51.198
-50.943
-50.616
-50.221
-49.758
-49.232
-48.644
-48.001
-47.307
-46.572
-45.802
-45.001
-44.177
-43.332
-42.473
-41.606
-40.734
-39.86
-38.989
-38.129
-37.288
-36.477
-35.704
-34.974
-34.294
-33.67
-33.105
-32.602
-32.162
-31.777
-31.447
-31.178
-30.978
-30.866
-30.847
-30.917
-31.072
-31.303
-31.586
-31.893
-32.175
-32.367
-32.431
-32.347
-32.101
-31.706
-31.155
-30.433
-29.542
-28.472
-27.216
-25.779
-24.157
-22.357
-20.446
-18.537
-16.79
-15.399
-14.505
-14.196
-14.555
-15.621
-17.428
-19.983
-23.209
-27.022
-31.363
-36.199
-41.539
-47.329
-53.359
-59.302
-64.753
-69.256
-72.46
-73.964
-73.247
-70.053
-64.386
-56.552
-47.318
-37.387
-27.071
-16.843
-7.345
1.447
9.958
19.258
31.377
47.676
68.509
94.38
125.646
161.2
198.773
234.354
262.197
277.804
278.011
259.451
219.062
155.519
69.797
-33.859
-148.717
-268.79
-388.651
-502.318
-603.078
-684.338
-741.883
-774.823
-784.264
-771.744
-739.114
-688.557
-624.325
-552.726
-478.782
-406.047
-337.689
-275.679
-221.761
-178.317
-145.631
-121.658
-104.782
-93.062
-83.968
-76.425
-69.386
-60.9
-50.354
-38.234
-24.866
-11.495
0.153
9.569
16.429
20.18
21.025
19.318
15.382
10.224
5.034
0.465
-3.01
-5.112
-5.889
-5.287
-3.24
0.097
4.514
9.799
15.753
22.257
29.225
36.52
43.954
51.288
58.304
64.864
70.882
76.321
81.168
85.397
89.015
92.072
94.628
96.761
98.536
99.996
101.198
102.217
103.141
104.075
105.109
106.293
107.666
109.251
111.063
113.113
115.401
117.904
120.602
123.479
126.524
129.731
133.088
136.574
140.163
143.83
147.55
151.304
155.07
158.825
162.548
166.219
169.821
173.339
176.755
180.046
183.191
186.167
188.951
191.523
193.862
195.945
197.755
199.275
200.49
201.388
201.958
202.189
202.075
201.608
200.787
199.608
198.071
196.178
193.932
191.339
188.407
185.146
181.565
177.677
173.496
169.037
164.317
159.353
154.165
148.771
143.191
137.449
131.565
125.561
119.461
113.286
107.061
100.807
94.547
88.302
82.094
75.942
69.867
63.885
58.016
52.276
46.68
41.241
35.975
30.892
26.004
21.321
16.85
12.598
8.572
4.776
1.214
-2.112
-5.201
-8.054
-10.671
-13.054
-15.206
-17.133
-18.838
-20.328
-21.609
-22.69
-23.577
-24.281
-24.809
-25.172
-25.379
-25.441
-25.368
-25.171
-24.861
-24.448
-23.943
-23.357
-22.7
-21.982
-21.215
-20.406
-19.566
-18.705
-17.829
-16.948
-16.07
-15.202
-14.35
-13.522
-12.722
-11.957
-11.231
-10.548
-9.912
-9.326
-8.793
-8.316
-7.897
-7.536
-7.235
-6.996
-6.817
-6.698
-6.64
-6.642
-6.701
-6.816
-6.986
-7.209
-7.483
-7.805
-8.174
-8.586
-9.041
-9.535
-10.065
-10.628
-11.223
-11.847
-12.497
-13.17
-13.866
-14.581
-15.314
-16.063
-16.827
-17.604
-18.392
-19.188
-19.992
-20.8
-21.611
-22.424
-23.237
-24.048
-24.856
-25.661
-26.461
-27.255
-28.04
-28.816
-29.58
-30.33
-31.064
-31.779
-32.473
-33.144
-33.79
-34.41
-35.001
-35.561
-36.087
-36.578
-37.028
-37.435
-37.796
-38.105
-38.359
-38.555
-38.692
-38.767
-38.78
-38.728
-38.612
-38.429
-38.18
-37.864
-37.48
-37.027
-36.505
-35.916
-35.263
-34.549
-33.779
-32.956
-32.089
-31.183
-30.247
-29.286
-28.306
-27.311
-26.305
-25.294
-24.28
-23.269
-22.264
-21.274
-20.308
-19.376
-18.488
-17.653
-16.877
-16.165
-15.52
-14.946
-14.439
-13.994
-13.611
-13.292
-13.047
-12.894
-12.841
-12.883
-13.018
-13.235
-13.512
-13.821
-14.112
-14.327
-14.428
-14.39
-14.208
-13.898
-13.458
-12.887
-12.174
-11.299
-10.26
-9.061
-7.691
-6.158
-4.503
-2.815
-1.262
-0.029
0.743
0.949
0.532
-0.533
-2.279
-4.715
-7.805
-11.489
-15.687
-20.341
-25.447
-30.994
-36.872
-42.825
-48.441
-53.265
-56.896
-59.015
-59.273
-57.223
-52.66
-45.687
-36.734
-26.639
-16.133
-5.51
4.79
14.112
22.494
30.417
38.984
50.326
65.905
86.051
111.268
141.881
176.61
213.003
246.874
272.302
284.664
280.776
257.33
211.48
142.343
51.465
-56.373
-174.097
-295.406
-414.649
-525.797
-622.177
-697.604
-748.515
-774.549
-777.215
-758.463
-720.402
-665.458
-598.141
-524.592
-449.525
-376.304
-307.82
-245.853
-192.12
-148.84
-116.144
-92.099
-75.176
-63.497
-54.694
-47.718
-41.468
-33.998
-24.637
-13.761
-1.648
10.531
21.117
29.615
35.726
38.874
39.213
37.071
32.752
27.258
21.795
17.014
13.366
11.13
10.248
10.76
12.728
15.978
20.275
25.403
31.157
37.423
44.131
51.151
58.297
65.337
72.048
78.293
83.992
89.108
93.627
97.526
100.814
103.544
105.789
107.627
109.125
110.327
111.288
112.082
112.796
113.533
114.38
115.386
116.589
118.012
119.669
121.57
123.713
126.074
128.632
131.37
134.273
137.335
140.544
143.876
147.307
150.811
154.365
157.947
161.538
165.113
168.653
172.136
175.545
178.865
182.076
185.157
188.085
190.836
193.388
195.72
197.81
199.636
201.18
202.424
203.354
203.957
204.223
204.142
203.705
202.908
201.748
200.222
198.332
196.079
193.469
190.507
187.202
183.564
179.606
175.339
170.78
165.943
160.848
155.513
149.958
144.203
138.271
132.185
125.967
119.643
113.235
106.768
100.267
93.755
87.256
80.792
74.387
68.061
61.834
55.725
49.752
43.932
38.281
32.812
27.538
22.472
17.622
12.998
8.607
4.454
0.545
-3.119
-6.536
-9.704
-12.626
-15.303
-17.739
-19.939
-21.907
-23.651
-25.178
-26.498
-27.619
-28.551
-29.306
-29.895
-30.328
-30.619
-30.78
-30.822
-30.758
-30.601
-30.362
-30.053
-29.687
-29.274
-28.824
-28.349
-27.858
-27.361
-26.865
-26.38
-25.912
-25.468
-25.054
-24.676
-24.338
-24.044
-23.797
-23.601
-23.457
-23.367
-23.331
-23.351
-23.425
-23.553
-23.733
-23.963
-24.242
-24.567
-24.935
-25.343
-25.788
-26.265
-26.773
-27.307
-27.862
-28.437
-29.027
-29.628
-30.237
-30.85
-31.464
-32.077
-32.685
-33.287
-33.879
-34.461
-35.03
-35.585
-36.125
-36.649
-37.157
-37.646
-38.118
-38.572
-39.009
-39.429
-39.834
-40.224
-40.601
-40.966
-41.32
-41.664
-41.999
-42.327
-42.649
-42.965
-43.278
-43.588
-43.897
-44.206
-44.517
-44.83
-45.146
-45.464
-45.785
-46.108
-46.432
-46.756
-47.078
-47.396
-47.71
-48.016
-48.315
-48.604
-48.88
-49.141
-49.383
-49.602
-49.794
-49.956
-50.082
-50.169
-50.214
-50.216
-50.171
-50.079
-49.936
-49.742
-49.494
-49.192
-48.834
-48.419
-47.946
-47.413
-46.824
-46.181
-45.486
-44.743
-43.956
-43.132
-42.277
-41.398
-40.5
-39.587
-38.664
-37.735
-36.805
-35.878
-34.958
-34.051
-33.162
-32.3
-31.475
-30.696
-29.968
-29.295
-28.678
-28.119
-27.62
-27.177
-26.784
-26.44
-26.149
-25.918
-25.765
-25.697
-25.711
-25.8
-25.95
-26.133
-26.312
-26.447
-26.486
-26.391
-26.147
-25.745
-25.197
-24.507
-23.667
-22.669
-21.489
-20.108
-18.515
-16.72
-14.741
-12.654
-10.591
-8.696
-7.144
-6.076
-5.573
-5.703
-6.493
-7.946
-10.044
-12.734
-15.96
-19.694
-23.928
-28.645
-33.775
-39.09
-44.227
-48.798
-52.357
-54.543
-54.983
-53.192
-48.958
-42.382
-33.853
-24.165
-14.033
-3.735
6.284
15.348
23.511
31.249
39.662
50.891
66.332
86.264
111.178
141.376
175.62
211.531
244.969
270.053
282.232
278.356
255.149
209.786
141.291
51.062
-56.251
-173.701
-295.086
-414.802
-526.869
-624.648
-701.865
-754.807
-782.959
-787.68
-770.79
-734.326
-680.65
-614.197
-541.13
-466.226
-392.907
-324.137
-261.763
-207.514
-163.621
-130.259
-105.497
-87.81
-75.347
-65.742
-57.956
-50.929
-42.762
-32.805
-21.455
-8.984
3.459
14.223
22.828
28.991
32.168
32.534
30.434
26.174
20.751
15.371
10.69
7.167
5.084
4.39
5.126
7.358
10.915
15.565
21.089
27.275
34
41.187
48.696
56.335
63.866
71.061
77.777
83.931
89.482
94.412
98.698
102.344
105.403
107.945
110.046
111.777
113.18
114.311
115.247
116.075
116.902
117.814
118.864
120.09
121.516
123.156
125.023
127.115
129.409
131.887
134.532
137.331
140.282
143.371
146.579
149.883
153.257
156.68
160.133
163.597
167.051
170.475
173.851
177.163
180.398
183.537
186.561
189.448
192.176
194.723
197.068
199.192
201.071
202.688
204.026
205.069
205.806
206.224
206.312
206.062
205.468
204.523
203.226
201.575
199.57
197.214
194.51
191.466
188.089
184.389
180.376
176.064
171.466
166.597
161.476
156.118
150.544
144.772
138.824
132.722
126.487
120.142
113.711
107.215
100.679
94.125
87.575
81.052
74.576
68.167
61.846
55.631
49.54
43.588
37.793
32.168
26.727
21.481
16.442
11.62
7.021
2.654
-1.476
-5.365
-9.009
-12.408
-15.559
-18.464
-21.124
-23.542
-25.722
-27.669
-29.389
-30.888
-32.174
-33.255
-34.141
-34.841
-35.365
-35.723
-35.926
-35.985
-35.911
-35.716
-35.41
-35.004
-34.511
-33.939
-33.301
-32.605
-31.863
-31.083
-30.274
-29.446
-28.606
-27.761
-26.92
-26.087
-25.271
-24.474
-23.703
-22.962
-22.254
-21.583
-20.95
-20.359
-19.81
-19.304
-18.843
-18.426
-18.053
-17.724
-17.437
-17.192
-16.986
-16.819
-16.688
-16.593
-16.53
-16.497
-16.494
-16.517
-16.564
-16.634
-16.724
-16.832
-16.956
-17.094
-17.246
-17.408
-17.581
-17.762
-17.952
-18.15
-18.354
-18.566
-18.784
-19.008
-19.238
-19.476
-19.721
-19.974
-20.236
-20.508
-20.792
-21.088
-21.397
-21.721
-22.06
-22.414
-22.785
-23.172
-23.577
-24
-24.44
-24.899
-25.376
-25.873
-26.389
-26.923
-27.473
-28.039
-28.62
-29.212
-29.814
-30.422
-31.034
-31.647
-32.258
-32.865
-33.464
-34.052
-34.624
-35.177
-35.705
-36.205
-36.669
-37.094
-37.475
-37.808
-38.09
-38.319
-38.491
-38.604
-38.656
-38.645
-38.569
-38.428
-38.218
-37.938
-37.588
-37.171
-36.689
-36.144
-35.54
-34.883
-34.18
-33.439
-32.664
-31.862
-31.038
-30.196
-29.342
-28.48
-27.613
-26.744
-25.881
-25.032
-24.207
-23.415
-22.665
-21.962
-21.312
-20.72
-20.191
-19.724
-19.313
-18.956
-18.656
-18.423
-18.274
-18.217
-18.246
-18.355
-18.537
-18.777
-19.05
-19.314
-19.502
-19.562
-19.465
-19.205
-18.785
-18.206
-17.453
-16.503
-15.351
-14.007
-12.487
-10.8
-8.944
-6.953
-4.908
-2.965
-1.33
-0.168
0.412
0.348
-0.411
-1.91
-4.194
-7.269
-11.039
-15.394
-20.247
-25.557
-31.32
-37.439
-43.653
-49.557
-54.683
-58.605
-61.008
-61.542
-59.724
-55.318
-48.357
-39.184
-28.646
-17.493
-6.047
5.209
15.614
25.173
34.281
43.952
56.22
72.473
93.02
118.359
148.823
183.231
219.278
252.922
278.387
291.185
288.225
266.255
222.431
155.719
67.263
-38.531
-154.674
-275.022
-393.974
-505.459
-603.167
-681.058
-735.074
-764.439
-770.752
-755.852
-722.128
-672.413
-610.315
-541.284
-470.221
-400.477
-334.698
-274.671
-221.366
-176.164
-140.181
-112.324
-91.195
-75.336
-62.517
-51.641
-42.394
-33.637
-24.109
-13.673
-2.408
8.942
18.643
26.04
31.212
33.946
34.188
32.098
27.851
22.219
16.514
11.523
7.636
5.109
3.925
4.141
5.876
9.025
13.328
18.537
24.436
30.882
37.804
45.075
52.498
59.832
66.846
73.393
79.388
84.788
89.578
93.731
97.252
100.19
102.613
104.601
106.225
107.534
108.583
109.447
110.214
110.993
111.875
112.914
114.149
115.605
117.296
119.235
121.422
123.833
126.448
129.251
132.228
135.374
138.678
142.118
145.669
149.305
153.001
156.738
160.494
164.246
167.972
171.653
175.271
178.811
182.253
185.576
188.756
191.769
194.592
197.203
199.578
201.695
203.534
205.076
206.305
207.208
207.772
207.986
207.84
207.328
206.443
205.184
203.548
201.537
199.152
196.399
193.285
189.819
186.011
181.874
177.42
172.666
167.629
162.327
156.778
151.004
145.025
138.865
132.546
126.093
119.53
112.882
106.172
99.426
92.669
85.924
79.214
72.562
65.989
59.516
53.163
46.949
40.891
35.006
29.308
23.811
18.529
13.472
8.649
4.069
-0.261
-4.336
-8.152
-11.706
-14.997
-18.025
-20.791
-23.297
-25.547
-27.545
-29.298
-30.812
-32.095
-33.154
-34
-34.642
-35.091
-35.357
-35.452
-35.387
-35.175
-34.826
-34.354
-33.769
-33.085
-32.312
-31.463
-30.549
-29.58
-28.568
-27.521
-26.451
-25.365
-24.272
-23.18
-22.096
-21.028
-19.98
-18.96
-17.971
-17.018
-16.104
-15.233
-14.408
-13.63
-12.901
-12.222
-11.594
-11.017
-10.492
-10.017
-9.593
-9.217
-8.89
-8.607
-8.369
-8.173
-8.016
-7.896
-7.812
-7.761
-7.74
-7.749
-7.784
-7.844
-7.927
-8.032
-8.156
-8.299
-8.458
-8.634
-8.825
-9.031
-9.251
-9.486
-9.737
-10.002
-10.282
-10.576
-10.885
-11.208
-11.546
-11.898
-12.264
-12.645
-13.04
-13.451
-13.877
-14.319
-14.777
-15.249
-15.736
-16.235
-16.747
-17.269
-17.799
-18.334
-18.874
-19.417
-19.96
-20.502
-21.039
-21.569
-22.087
-22.589
-23.072
-23.529
-23.957
-24.351
-24.706
-25.021
-25.293
-25.519
-25.697
-25.824
-25.898
-25.918
-25.882
-25.788
-25.633
-25.417
-25.142
-24.807
-24.417
-23.974
-23.482
-22.946
-22.374
-21.772
-21.144
-20.495
-19.828
-19.148
-18.459
-17.765
-17.07
-16.379
-15.7
-15.04
-14.412
-13.825
-13.287
-12.803
-12.375
-12.007
-11.7
-11.454
-11.263
-11.126
-11.048
-11.038
-11.112
-11.283
-11.549
-11.903
-12.331
-12.806
-13.293
-13.75
-14.124
-14.376
-14.49
-14.458
-14.293
-14.001
-13.582
-13.026
-12.315
-11.427
-10.353
-9.098
-7.677
-6.158
-4.666
-3.338
-2.346
-1.827
-1.861
-2.51
-3.799
-5.73
-8.271
-11.368
-14.955
-18.987
-23.461
-28.37
-33.644
-39.072
-44.318
-49.007
-52.723
-55.134
-55.863
-54.445
-50.662
-44.576
-36.553
-27.339
-17.602
-7.624
2.188
11.231
19.533
27.513
36.195
47.554
62.926
82.616
107.033
136.449
169.719
204.647
237.445
262.617
275.862
274.224
254.583
214.241
152.274
69.78
-29.133
-137.881
-250.709
-362.396
-467.149
-558.995
-632.314
-683.331
-711.399
-718.095
-705.11
-674.651
-629.381
-572.679
-509.646
-444.836
-381.276
-321.338
-266.585
-217.825
-176.334
-143.119
-117.115
-97.033
-81.512
-68.5
-57.106
-47.14
-37.609
-27.446
-16.549
-4.987
6.512
16.347
23.917
29.273
32.258
32.873
31.25
27.549
22.456
17.128
12.337
8.501
5.864
4.436
4.279
5.493
8.015
11.645
16.153
21.343
27.075
33.263
39.808
46.542
53.25
59.736
65.846
71.478
76.595
81.176
85.195
88.658
91.597
94.062
96.134
97.888
99.371
100.643
101.769
102.826
103.917
105.126
106.505
108.095
109.915
111.978
114.297
116.87
119.677
122.699
125.917
129.314
132.881
136.603
140.457
144.417
148.453
152.538
156.65
160.767
164.863
168.917
172.905
176.807
180.607
184.286
187.818
191.181
194.348
197.297
200.006
202.451
204.611
206.466
207.998
209.192
210.037
210.52
210.631
210.363
209.71
208.669
207.239
205.42
203.215
200.628
197.667
194.34
190.66
186.638
182.288
177.625
172.666
167.43
161.936
156.205
150.258
144.116
137.805
131.346
124.765
118.086
111.333
104.53
97.702
90.872
84.064
77.299
70.598
63.981
57.469
51.079
44.827
38.73
32.802
27.056
21.504
16.156
11.022
6.109
1.424
-3.028
-7.244
-11.22
-14.956
-18.452
-21.707
-24.725
-27.508
-30.06
-32.386
-34.493
-36.386
-38.074
-39.563
-40.864
-41.984
-42.933
-43.721
-44.358
-44.854
-45.218
-45.461
-45.594
-45.625
-45.565
-45.424
-45.209
-44.932
-44.599
-44.218
-43.799
-43.348
-42.871
-42.376
-41.867
-41.352
-40.834
-40.32
-39.812
-39.315
-38.832
-38.366
-37.92
-37.495
-37.094
-36.718
-36.368
-36.045
-35.749
-35.482
-35.242
-35.031
-34.849
-34.695
-34.568
-34.469
-34.397
-34.352
-34.332
-34.338
-34.37
-34.427
-34.51
-34.618
-34.751
-34.91
-35.094
-35.303
-35.536
-35.792
-36.071
-36.373
-36.697
-37.042
-37.408
-37.795
-38.202
-38.629
-39.074
-39.537
-40.015
-40.508
-41.012
-41.527
-42.048
-42.575
-43.105
-43.636
-44.164
-44.689
-45.207
-45.714
-46.206
-46.679
-47.128
-47.55
-47.938
-48.29
-48.602
-48.871
-49.095
-49.272
-49.4
-49.478
-49.502
-49.473
-49.389
-49.248
-49.049
-48.793
-48.48
-48.113
-47.694
-47.228
-46.718
-46.169
-45.589
-44.982
-44.355
-43.709
-43.05
-42.382
-41.708
-41.033
-40.361
-39.695
-39.043
-38.413
-37.814
-37.255
-36.74
-36.274
-35.859
-35.495
-35.185
-34.926
-34.711
-34.539
-34.415
-34.346
-34.347
-34.429
-34.588
-34.816
-35.101
-35.416
-35.723
-35.984
-36.145
-36.172
-36.048
-35.766
-35.337
-34.768
-34.054
-33.187
-32.146
-30.911
-29.473
-27.84
-26.03
-24.121
-22.241
-20.537
-19.183
-18.318
-18.026
-18.371
-19.374
-21.036
-23.331
-26.201
-29.585
-33.454
-37.8
-42.613
-47.825
-53.209
-58.408
-63.028
-66.622
-68.834
-69.295
-67.532
-63.363
-56.912
-48.597
-39.246
-29.573
-19.84
-10.462
-2.047
5.519
12.779
20.881
31.954
47.364
67.321
92.187
122.148
155.846
190.807
222.927
246.436
256.879
251.291
226.648
180.43
112.089
23.271
-81.38
-194.84
-310.887
-423.971
-528.173
-617.478
-686.579
-732.257
-754.298
-754.67
-735.537
-699.451
-649.388
-589.002
-523.242
-456.383
-391.273
-330.063
-274.198
-224.48
-182.039
-147.779
-120.774
-99.828
-83.705
-70.529
-59.363
-49.928
-41.201
-31.982
-22.076
-11.53
-0.986
8.034
14.959
19.893
22.659
23.174
21.575
18.032
13.26
8.477
4.41
1.401
-0.328
-0.797
0.036
2.267
5.789
10.342
15.69
21.628
28.024
34.823
41.909
49.104
56.185
62.94
69.236
74.999
80.194
84.809
88.828
92.257
95.15
97.58
99.625
101.356
102.819
104.066
105.166
106.201
107.272
108.46
109.816
111.375
113.16
115.183
117.456
119.976
122.72
125.667
128.799
132.102
135.568
139.184
142.927
146.773
150.694
154.668
158.672
162.685
166.684
170.645
174.548
178.374
182.107
185.726
189.208
192.531
195.671
198.604
201.309
203.763
205.946
207.836
209.418
210.676
211.599
212.173
212.391
212.243
211.725
210.833
209.566
207.925
205.911
203.53
200.787
197.691
194.254
190.486
186.402
182.015
177.343
172.404
167.217
161.801
156.178
150.37
144.399
138.29
132.066
125.75
119.367
112.941
106.497
100.057
93.645
87.282
80.99
74.789
68.697
62.733
56.914
51.255
45.77
40.473
35.375
30.488
25.819
21.376
17.166
13.192
9.46
5.97
2.723
-0.28
-3.041
-5.564
-7.852
-9.909
-11.742
-13.358
-14.765
-15.97
-16.983
-17.814
-18.473
-18.971
-19.318
-19.527
-19.608
-19.573
-19.434
-19.201
-18.886
-18.5
-18.054
-17.558
-17.022
-16.456
-15.868
-15.266
-14.66
-14.055
-13.459
-12.877
-12.315
-11.778
-11.27
-10.795
-10.355
-9.953
-9.592
-9.272
-8.994
-8.758
-8.565
-8.413
-8.303
-8.232
-8.2
-8.203
-8.241
-8.311
-8.41
-8.537
-8.687
-8.859
-9.05
-9.256
-9.476
-9.706
-9.945
-10.19
-10.44
-10.692
-10.947
-11.202
-11.457
-11.71
-11.962
-12.212
-12.46
-12.706
-12.952
-13.197
-13.442
-13.69
-13.942
-14.198
-14.461
-14.731
-15.009
-15.297
-15.597
-15.909
-16.234
-16.575
-16.932
-17.308
-17.703
-18.119
-18.556
-19.013
-19.492
-19.99
-20.508
-21.044
-21.595
-22.159
-22.736
-23.322
-23.917
-24.516
-25.117
-25.716
-26.309
-26.892
-27.46
-28.007
-28.528
-29.019
-29.476
-29.895
-30.275
-30.61
-30.898
-31.136
-31.322
-31.454
-31.528
-31.541
-31.491
-31.378
-31.201
-30.963
-30.664
-30.308
-29.899
-29.443
-28.947
-28.415
-27.851
-27.26
-26.646
-26.012
-25.364
-24.702
-24.03
-23.354
-22.683
-22.026
-21.393
-20.79
-20.224
-19.701
-19.226
-18.805
-18.436
-18.112
-17.834
-17.604
-17.432
-17.337
-17.327
-17.398
-17.543
-17.758
-18.025
-18.322
-18.607
-18.81
-18.879
-18.787
-18.526
-18.102
-17.517
-16.753
-15.793
-14.631
-13.278
-11.753
-10.065
-8.212
-6.227
-4.196
-2.277
-0.681
0.422
0.925
0.761
-0.119
-1.758
-4.201
-7.447
-11.394
-15.928
-20.958
-26.44
-32.37
-38.649
-45.008
-51.034
-56.248
-60.215
-62.621
-63.11
-61.202
-56.667
-49.549
-40.212
-29.524
-18.243
-6.685
4.678
15.207
24.931
34.271
44.249
56.899
73.584
94.571
120.298
151.024
185.482
221.292
254.397
279.065
290.858
286.763
263.636
218.761
151.295
62.574
-42.92
-158.204
-277.142
-394.188
-503.348
-598.42
-673.624
-725.192
-752.521
-757.33
-741.556
-707.621
-658.396
-597.503
-530.206
-461.18
-393.604
-329.94
-271.846
-220.226
-176.366
-141.292
-113.969
-93.082
-77.261
-64.42
-53.533
-44.311
-35.67
-26.394
-16.337
-5.568
5.214
14.363
21.26
25.998
28.38
28.352
26.075
21.726
16.052
10.325
5.308
1.374
-1.231
-2.523
-2.451
-0.903
2.018
6.054
10.966
16.541
22.642
29.198
36.087
43.117
50.053
56.673
62.835
68.455
73.497
77.944
81.776
84.997
87.657
89.826
91.583
92.998
94.119
95.002
95.719
96.358
97.025
97.806
98.757
99.914
101.302
102.934
104.824
106.969
109.348
111.938
114.726
117.696
120.844
124.156
127.612
131.186
134.852
138.584
142.364
146.168
149.973
153.757
157.5
161.182
164.788
168.3
171.693
174.945
178.03
180.926
183.611
186.061
188.254
190.17
191.791
193.101
194.087
194.736
195.037
194.982
194.563
193.776
192.619
191.089
189.189
186.921
184.291
181.306
177.975
174.309
170.321
166.025
161.437
156.573
151.452
146.095
140.52
134.75
128.807
122.714
116.495
110.174
103.774
97.321
90.837
84.347
77.873
71.438
65.063
58.769
52.574
46.499
40.559
34.771
29.151
23.711
18.465
13.423
8.596
3.99
-0.387
-4.53
-8.435
-12.099
-15.521
-18.701
-21.64
-24.34
-26.805
-29.04
-31.05
-32.841
-34.42
-35.797
-36.979
-37.977
-38.799
-39.456
-39.959
-40.319
-40.546
-40.652
-40.648
-40.544
-40.352
-40.082
-39.745
-39.35
-38.907
-38.424
-37.911
-37.376
-36.825
-36.265
-35.704
-35.145
-34.595
-34.058
-33.538
-33.037
-32.56
-32.106
-31.68
-31.28
-30.909
-30.566
-30.252
-29.965
-29.705
-29.471
-29.261
-29.074
-28.909
-28.762
-28.633
-28.519
-28.417
-28.326
-28.243
-28.168
-28.097
-28.029
-27.963
-27.897
-27.83
-27.762
-27.691
-27.616
-27.538
-27.456
-27.37
-27.281
-27.188
-27.094
-26.998
-26.902
-26.807
-26.715
-26.627
-26.544
-26.468
-26.401
-26.344
-26.299
-26.268
-26.252
-26.255
-26.278
-26.322
-26.39
-26.482
-26.599
-26.742
-26.912
-27.109
-27.334
-27.586
-27.866
-28.173
-28.507
-28.868
-29.254
-29.664
-30.096
-30.547
-31.015
-31.497
-31.988
-32.486
-32.987
-33.488
-33.985
-34.475
-34.954
-35.417
-35.861
-36.281
-36.67
-37.026
-37.34
-37.61
-37.83
-37.998
-38.111
-38.166
-38.16
-38.092
-37.961
-37.764
-37.5
-37.169
-36.769
-36.298
-35.761
-35.158
-34.494
-33.772
-32.997
-32.175
-31.315
-30.424
-29.508
-28.573
-27.624
-26.667
-25.706
-24.747
-23.791
-22.845
-21.915
-21.009
-20.139
-19.313
-18.536
-17.816
-17.158
-16.565
-16.04
-15.583
-15.186
-14.849
-14.575
-14.371
-14.254
-14.23
-14.296
-14.449
-14.678
-14.961
-15.269
-15.553
-15.749
-15.821
-15.744
-15.504
-15.114
-14.57
-13.861
-12.993
-11.954
-10.734
-9.341
-7.765
-6.015
-4.151
-2.276
-0.547
0.849
1.776
2.139
1.855
0.893
-0.779
-3.163
-6.178
-9.751
-13.821
-18.352
-23.359
-28.787
-34.446
-40.031
-45.141
-49.344
-52.305
-53.632
-52.83
-49.644
-44.041
-36.337
-27.298
-17.575
-7.519
2.483
11.917
20.585
28.744
37.423
48.516
63.487
82.916
106.998
135.821
169.004
204.937
240.166
269.495
288.047
292.296
279.487
247.158
193.128
116.999
21.582
-87.366
-203.519
-321.244
-435.241
-540.115
-629.415
-697.331
-741.301
-761.671
-759.826
-737.645
-697.142
-640.585
-572.716
-499.619
-425.615
-353.783
-286.837
-226.425
-174.312
-132.724
-101.557
-78.822
-63
-52.232
-44.361
-38.443
-33.332
-27.065
-18.968
-9.385
1.378
12.157
21.452
28.857
34.118
36.703
36.694
34.374
30.052
24.702
19.489
15.032
11.727
9.81
9.229
10.011
12.21
15.649
20.067
25.238
30.949
37.081
43.591
50.371
57.245
63.998
70.417
76.372
81.803
86.689
91.008
94.739
97.889
100.511
102.686
104.497
106.011
107.272
108.329
109.249
110.116
111.031
112.071
113.283
114.698
116.336
118.211
120.335
122.705
125.298
128.091
131.066
134.209
137.515
140.968
144.546
148.222
151.972
155.772
159.603
163.443
167.27
171.061
174.798
178.461
182.036
185.503
188.839
192.023
195.032
197.842
200.435
202.788
204.88
206.693
208.21
209.417
210.301
210.852
211.059
210.915
210.414
209.553
208.33
206.743
204.796
202.491
199.835
196.835
193.501
189.844
185.875
181.607
177.058
172.242
167.179
161.885
156.382
150.69
144.83
138.825
132.698
126.47
120.165
113.806
107.417
101.019
94.634
88.284
81.99
75.77
69.644
63.63
57.744
52.003
46.42
41.01
35.784
30.754
25.93
21.32
16.931
12.769
8.839
5.144
1.687
-1.533
-4.514
-7.259
-9.77
-12.051
-14.106
-15.941
-17.562
-18.977
-20.193
-21.22
-22.067
-22.743
-23.259
-23.625
-23.852
-23.951
-23.932
-23.807
-23.587
-23.282
-22.904
-22.462
-21.968
-21.431
-20.86
-20.265
-19.655
-19.036
-18.418
-17.807
-17.21
-16.633
-16.08
-15.558
-15.07
-14.62
-14.211
-13.846
-13.527
-13.255
-13.032
-12.859
-12.734
-12.659
-12.633
-12.654
-12.721
-12.832
-12.987
-13.181
-13.414
-13.683
-13.985
-14.317
-14.676
-15.06
-15.466
-15.89
-16.33
-16.783
-17.247
-17.718
-18.195
-18.674
-19.154
-19.633
-20.108
-20.578
-21.041
-21.495
-21.939
-22.371
-22.791
-23.197
-23.588
-23.965
-24.327
-24.673
-25.005
-25.321
-25.623
-25.912
-26.186
-26.449
-26.699
-26.94
-27.171
-27.394
-27.611
-27.823
-28.033
-28.242
-28.453
-28.666
-28.883
-29.105
-29.333
-29.57
-29.815
-30.071
-30.339
-30.62
-30.914
-31.225
-31.552
-31.895
-32.254
-32.629
-33.02
-33.425
-33.842
-34.269
-34.705
-35.149
-35.598
-36.051
-36.504
-36.956
-37.402
-37.84
-38.264
-38.671
-39.055
-39.412
-39.736
-40.024
-40.274
-40.481
-40.643
-40.756
-40.817
-40.823
-40.772
-40.662
-40.488
-40.247
-39.941
-39.568
-39.129
-38.628
-38.065
-37.447
-36.777
-36.064
-35.31
-34.52
-33.699
-32.848
-31.973
-31.077
-30.16
-29.226
-28.282
-27.336
-26.397
-25.474
-24.576
-23.709
-22.879
-22.094
-21.359
-20.673
-20.033
-19.438
-18.892
-18.407
-18.002
-17.685
-17.453
-17.302
-17.226
-17.211
-17.234
-17.254
-17.204
-17.035
-16.719
-16.248
-15.631
-14.871
-13.954
-12.866
-11.602
-10.173
-8.597
-6.88
-5.019
-3.045
-1.034
0.864
2.445
3.547
4.06
3.916
3.071
1.48
-0.9
-4.059
-7.909
-12.345
-17.272
-22.657
-28.517
-34.758
-41.147
-47.311
-52.779
-57.132
-60.058
-61.173
-59.996
-56.276
-50.01
-41.538
-31.66
-21.09
-10.159
0.667
10.781
20.183
29.295
39.174
51.802
68.571
89.846
116.091
147.665
183.435
221.11
256.71
284.491
299.929
299.899
281.087
240.506
176.998
91.529
-11.72
-125.823
-244.714
-362.883
-474.207
-572.349
-651.217
-706.615
-737.683
-745.988
-733.284
-701.911
-654.679
-595.125
-528.685
-460.24
-393.027
-329.638
-271.801
-220.394
-176.787
-142.041
-114.998
-94.273
-78.457
-65.387
-54.055
-44.211
-34.765
-24.574
-13.583
-1.912
9.668
19.492
26.949
32.113
34.808
35.022
32.935
28.751
23.237
17.643
12.729
8.885
6.349
5.112
5.24
6.841
9.824
13.95
18.979
24.705
30.989
37.747
44.851
52.106
59.269
66.121
72.516
78.367
83.634
88.303
92.348
95.774
98.629
100.975
102.887
104.438
105.673
106.647
107.435
108.123
108.82
109.614
110.561
111.7
113.057
114.644
116.478
118.557
120.862
123.372
126.075
128.957
132.015
135.238
138.606
142.096
145.681
149.338
153.049
156.792
160.545
164.287
167.998
171.661
175.262
178.781
182.198
185.489
188.63
191.598
194.371
196.928
199.244
201.298
203.074
204.553
205.722
206.567
207.076
207.239
207.047
206.495
205.579
204.295
202.643
200.625
198.243
195.504
192.416
188.986
185.227
181.15
176.769
172.1
167.16
161.966
156.537
150.894
145.057
139.049
132.893
126.61
120.225
113.762
107.243
100.693
94.136
87.592
81.084
74.633
68.259
61.982
55.82
49.79
43.908
38.19
32.648
27.296
22.144
17.202
12.478
7.98
3.713
-0.319
-4.113
-7.666
-10.979
-14.053
-16.888
-19.488
-21.857
-24
-25.923
-27.633
-29.138
-30.446
-31.566
-32.508
-33.282
-33.898
-34.368
-34.702
-34.91
-35.005
-34.996
-34.896
-34.714
-34.462
-34.149
-33.784
-33.378
-32.939
-32.474
-31.993
-31.502
-31.008
-30.517
-30.034
-29.565
-29.113
-28.683
-28.278
-27.901
-27.555
-27.239
-26.957
-26.709
-26.494
-26.314
-26.168
-26.055
-25.974
-25.923
-25.902
-25.909
-25.941
-25.996
-26.073
-26.17
-26.283
-26.411
-26.551
-26.703
-26.863
-27.03
-27.203
-27.379
-27.558
-27.738
-27.918
-28.098
-28.275
-28.45
-28.622
-28.791
-28.957
-29.119
-29.278
-29.433
-29.585
-29.734
-29.88
-30.024
-30.166
-30.307
-30.448
-30.589
-30.731
-30.876
-31.024
-31.177
-31.337
-31.503
-31.677
-31.86
-32.053
-32.257
-32.473
-32.702
-32.944
-33.201
-33.474
-33.764
-34.072
-34.396
-34.739
-35.1
-35.478
-35.874
-36.288
-36.719
-37.167
-37.632
-38.114
-38.613
-39.127
-39.656
-40.197
-40.749
-41.31
-41.878
-42.448
-43.018
-43.586
-44.148
-44.701
-45.244
-45.771
-46.281
-46.769
-47.231
-47.663
-48.059
-48.416
-48.728
-48.991
-49.204
-49.362
-49.465
-49.508
-49.49
-49.41
-49.266
-49.056
-48.779
-48.432
-48.015
-47.53
-46.977
-46.36
-45.682
-44.947
-44.16
-43.331
-42.465
-41.568
-40.646
-39.704
-38.747
-37.779
-36.805
-35.826
-34.848
-33.879
-32.925
-31.997
-31.105
-30.255
-29.456
-28.714
-28.031
-27.412
-26.857
-26.359
-25.918
-25.538
-25.225
-24.999
-24.866
-24.824
-24.872
-25.001
-25.189
-25.408
-25.609
-25.728
-25.728
-25.585
-25.283
-24.834
-24.238
-23.484
-22.581
-21.517
-20.283
-18.886
-17.315
-15.579
-13.733
-11.88
-10.173
-8.8
-7.897
-7.562
-7.879
-8.878
-10.594
-13.027
-16.097
-19.733
-23.872
-28.477
-33.563
-39.079
-44.841
-50.551
-55.81
-60.188
-63.347
-64.896
-64.34
-61.41
-56.055
-48.57
-39.692
-30.062
-20.033
-9.987
-0.432
8.414
16.794
25.703
36.997
52.157
71.8
96.14
125.298
158.937
195.489
231.577
262.055
281.988
287.8
276.693
246.136
193.886
119.439
25.436
-82.482
-197.989
-315.488
-429.71
-535.269
-625.752
-695.274
-741.104
-763.466
-763.676
-743.513
-704.919
-650.076
-583.591
-511.532
-438.273
-366.927
-300.263
-239.971
-187.812
-146.038
-114.609
-91.55
-75.347
-64.145
-55.752
-49.22
-43.442
-36.492
-27.718
-17.486
-6.102
5.266
15.09
22.948
28.585
31.482
31.735
29.627
25.463
20.203
15.015
10.525
7.138
5.101
4.368
4.981
7.004
10.277
14.552
19.609
25.237
31.317
37.802
44.582
51.481
58.276
64.757
70.788
76.308
81.292
85.72
89.564
92.829
95.562
97.84
99.746
101.344
102.677
103.796
104.769
105.682
106.64
107.724
108.982
110.447
112.14
114.076
116.269
118.716
121.394
124.282
127.361
130.619
134.049
137.639
141.364
145.198
149.113
153.087
157.098
161.123
165.14
169.125
173.057
176.919
180.693
184.36
187.898
191.281
194.488
197.493
200.276
202.814
205.083
207.065
208.742
210.098
211.121
211.797
212.116
212.07
211.653
210.859
209.688
208.137
206.208
203.904
201.232
198.2
194.816
191.092
187.039
182.673
178.008
173.063
167.855
162.403
156.727
150.849
144.792
138.578
132.23
125.773
119.23
112.625
105.982
99.325
92.677
86.06
79.496
73.005
66.606
60.319
54.162
48.15
42.299
36.622
31.134
25.846
20.767
15.906
11.271
6.869
2.703
-1.223
-4.905
-8.344
-11.538
-14.49
-17.202
-19.676
-21.918
-23.932
-25.725
-27.304
-28.677
-29.852
-30.838
-31.645
-32.282
-32.76
-33.089
-33.279
-33.342
-33.287
-33.126
-32.868
-32.524
-32.105
-31.619
-31.076
-30.485
-29.854
-29.193
-28.507
-27.805
-27.094
-26.38
-25.668
-24.965
-24.274
-23.601
-22.949
-22.323
-21.725
-21.157
-20.623
-20.124
-19.662
-19.237
-18.851
-18.504
-18.196
-17.928
-17.699
-17.51
-17.359
-17.246
-17.17
-17.131
-17.126
-17.156
-17.219
-17.313
-17.438
-17.593
-17.776
-17.986
-18.221
-18.481
-18.765
-19.069
-19.394
-19.738
-20.099
-20.476
-20.868
-21.272
-21.689
-22.115
-22.55
-22.992
-23.441
-23.893
-24.347
-24.803
-25.257
-25.71
-26.158
-26.601
-27.037
-27.465
-27.884
-28.292
-28.69
-29.076
-29.449
-29.808
-30.152
-30.482
-30.796
-31.094
-31.377
-31.645
-31.899
-32.138
-32.365
-32.579
-32.781
-32.971
-33.15
-33.319
-33.479
-33.631
-33.775
-33.913
-34.046
-34.177
-34.306
-34.435
-34.564
-34.693
-34.824
-34.957
-35.091
-35.225
-35.359
-35.492
-35.623
-35.753
-35.881
-36.004
-36.122
-36.232
-36.332
-36.419
-36.49
-36.54
-36.566
-36.565
-36.537
-36.479
-36.39
-36.268
-36.11
-35.915
-35.682
-35.41
-35.096
-34.737
-34.332
-33.882
-33.387
-32.849
-32.27
-31.653
-31.002
-30.324
-29.625
-28.908
-28.176
-27.434
-26.684
-25.929
-25.174
-24.417
-23.663
-22.917
-22.186
-21.48
-20.805
-20.166
-19.57
-19.019
-18.516
-18.065
-17.663
-17.303
-16.983
-16.708
-16.487
-16.338
-16.269
-16.276
-16.356
-16.501
-16.69
-16.893
-17.06
-17.122
-17.042
-16.798
-16.376
-15.79
-15.034
-14.094
-12.978
-11.679
-10.19
-8.524
-6.672
-4.644
-2.507
-0.38
1.574
3.151
4.212
4.667
4.43
3.463
1.727
-0.785
-3.974
-7.739
-12.011
-16.751
-21.962
-27.589
-33.403
-39.055
-44.14
-48.201
-50.902
-51.862
-50.559
-46.75
-40.459
-32.018
-22.259
-11.923
-1.314
9.124
18.793
27.759
36.465
45.977
58.347
74.946
96.081
122.15
153.35
188.415
224.971
259.031
284.973
298.402
296.323
275.62
233.595
169.424
84.409
-17.124
-128.384
-243.433
-356.942
-463.04
-555.656
-629.186
-679.948
-707.403
-713.294
-699.463
-668.207
-622.275
-565.112
-501.822
-436.949
-373.494
-313.762
-259.262
-210.768
-169.536
-136.58
-110.846
-91.037
-75.786
-63.04
-51.901
-42.176
-32.859
-22.84
-11.999
-0.412
11.189
21.185
28.962
34.57
37.838
38.746
37.415
34.004
29.201
24.166
19.674
16.135
13.787
12.641
12.75
14.211
16.959
20.786
25.461
30.786
36.625
42.89
49.485
56.241
62.943
69.397
75.447
80.992
85.995
90.437
94.291
97.563
100.286
102.509
104.317
105.782
106.955
107.895
108.667
109.352
110.055
110.86
111.824
112.988
114.377
116.004
117.887
120.028
122.409
125.016
127.834
130.847
134.052
137.438
140.983
144.667
148.461
152.341
156.289
160.283
164.302
168.324
172.328
176.295
180.21
184.053
187.8
191.426
194.907
198.218
201.334
204.233
206.889
209.281
211.389
213.194
214.682
215.836
216.645
217.096
217.179
216.888
216.218
215.165
213.728
211.907
209.705
207.128
204.183
200.879
197.226
193.236
188.923
184.303
179.394
174.213
168.78
163.116
157.243
151.183
144.961
138.6
132.125
125.56
118.931
112.262
105.577
98.9
92.253
85.658
79.137
72.711
66.398
60.216
54.182
48.313
42.622
37.123
31.828
26.746
21.888
17.259
12.867
8.716
4.809
1.148
-2.265
-5.433
-8.356
-11.037
-13.482
-15.694
-17.68
-19.448
-21.004
-22.359
-23.52
-24.498
-25.302
-25.944
-26.434
-26.784
-27.003
-27.103
-27.096
-26.991
-26.799
-26.531
-26.196
-25.804
-25.364
-24.886
-24.376
-23.844
-23.295
-22.737
-22.175
-21.615
-21.062
-20.519
-19.991
-19.481
-18.992
-18.526
-18.084
-17.668
-17.278
-16.916
-16.582
-16.275
-15.994
-15.74
-15.512
-15.308
-15.128
-14.971
-14.836
-14.721
-14.626
-14.549
-14.49
-14.447
-14.419
-14.407
-14.409
-14.424
-14.454
-14.496
-14.553
-14.624
-14.71
-14.811
-14.929
-15.064
-15.216
-15.388
-15.58
-15.793
-16.029
-16.29
-16.577
-16.892
-17.235
-17.609
-18.014
-18.45
-18.917
-19.417
-19.949
-20.512
-21.107
-21.733
-22.39
-23.076
-23.79
-24.532
-25.299
-26.088
-26.897
-27.722
-28.561
-29.408
-30.261
-31.113
-31.962
-32.803
-33.632
-34.444
-35.234
-35.995
-36.723
-37.411
-38.054
-38.645
-39.178
-39.649
-40.054
-40.39
-40.653
-40.842
-40.954
-40.987
-40.94
-40.812
-40.603
-40.311
-39.937
-39.481
-38.948
-38.34
-37.663
-36.921
-36.12
-35.267
-34.374
-33.446
-32.491
-31.515
-30.524
-29.526
-28.527
-27.536
-26.557
-25.597
-24.666
-23.774
-22.933
-22.153
-21.438
-20.793
-20.221
-19.723
-19.303
-18.96
-18.689
-18.488
-18.361
-18.315
-18.372
-18.541
-18.814
-19.183
-19.626
-20.108
-20.603
-21.071
-21.46
-21.74
-21.888
-21.895
-21.778
-21.541
-21.18
-20.684
-20.013
-19.131
-18.045
-16.767
-15.339
-13.87
-12.456
-11.221
-10.336
-9.916
-10.046
-10.79
-12.139
-14.053
-16.487
-19.38
-22.707
-26.493
-30.716
-35.305
-40.093
-44.777
-49.051
-52.572
-54.966
-55.825
-54.665
-51.235
-45.606
-38.14
-29.535
-20.422
-11.064
-1.841
6.641
14.39
21.838
29.98
40.749
55.45
74.3
97.613
125.573
157.04
189.922
220.622
243.946
255.813
253.425
233.877
194.641
134.864
55.673
-39.055
-143.259
-251.387
-358.288
-458.339
-545.351
-613.869
-660.738
-685.345
-689.181
-674.438
-643.643
-599.872
-547.809
-492.547
-437.539
-385.55
-338.079
-295.307
-257.42
-224.578
-195.614
-169.202
-145.005
-121.86
-99.195
-77.688
-57.576
-39.049
-22.85
-9.109
2.543
11.427
17.231
20.369
20.956
19.504
16.751
12.833
7.857
2.511
-2.679
-7.294
-10.842
-13.265
-14.585
-14.644
-13.39
-10.881
-7.186
-2.506
2.928
8.986
15.505
22.336
29.328
36.259
42.943
49.243
55.047
60.317
65.033
69.167
72.727
75.746
78.272
80.387
82.172
83.68
84.983
86.151
87.259
88.409
89.677
91.112
92.753
94.621
96.727
99.087
101.698
104.542
107.603
110.864
114.307
117.926
121.705
125.62
129.648
133.76
137.93
142.138
146.362
150.578
154.765
158.901
162.966
166.943
170.813
174.551
178.134
181.536
184.734
187.705
190.426
192.874
195.029
196.873
198.389
199.564
200.385
200.84
200.921
200.62
199.932
198.855
197.387
195.528
193.282
190.655
187.653
184.286
180.565
176.502
172.112
167.41
162.414
157.142
151.614
145.852
139.875
133.708
127.375
120.899
114.305
107.618
100.861
94.061
87.242
80.426
73.638
66.9
60.234
53.659
47.196
40.864
34.679
28.659
22.818
17.171
11.729
6.505
1.507
-3.257
-7.778
-12.052
-16.074
-19.843
-23.355
-26.612
-29.613
-32.362
-34.862
-37.116
-39.132
-40.914
-42.471
-43.811
-44.941
-45.872
-46.614
-47.177
-47.572
-47.809
-47.901
-47.858
-47.692
-47.415
-47.038
-46.572
-46.028
-45.418
-44.751
-44.038
-43.29
-42.514
-41.72
-40.916
-40.11
-39.309
-38.519
-37.747
-36.998
-36.277
-35.587
-34.933
-34.318
-33.744
-33.212
-32.726
-32.284
-31.889
-31.54
-31.237
-30.98
-30.767
-30.598
-30.47
-30.382
-30.332
-30.318
-30.336
-30.386
-30.464
-30.567
-30.694
-30.841
-31.006
-31.186
-31.38
-31.584
-31.796
-32.014
-32.237
-32.461
-32.687
-32.912
-33.135
-33.356
-33.574
-33.789
-34.001
-34.208
-34.412
-34.612
-34.808
-35
-35.19
-35.379
-35.566
-35.754
-35.944
-36.137
-36.334
-36.537
-36.745
-36.961
-37.184
-37.415
-37.655
-37.905
-38.165
-38.437
-38.72
-39.016
-39.324
-39.644
-39.974
-40.315
-40.663
-41.018
-41.377
-41.736
-42.096
-42.452
-42.803
-43.147
-43.48
-43.8
-44.103
-44.385
-44.641
-44.867
-45.058
-45.21
-45.317
-45.379
-45.391
-45.353
-45.261
-45.115
-44.911
-44.649
-44.327
-43.943
-43.496
-42.985
-42.41
-41.775
-41.081
-40.332
-39.533
-38.69
-37.809
-36.898
-35.963
-35.007
-34.037
-33.055
-32.068
-31.078
-30.089
-29.105
-28.134
-27.184
-26.265
-25.387
-24.558
-23.785
-23.072
-22.422
-21.838
-21.319
-20.857
-20.45
-20.101
-19.817
-19.617
-19.51
-19.494
-19.567
-19.718
-19.925
-20.161
-20.374
-20.504
-20.508
-20.357
-20.041
-19.576
-18.965
-18.209
-17.304
-16.226
-14.968
-13.532
-11.903
-10.088
-8.131
-6.117
-4.214
-2.619
-1.483
-0.925
-1.018
-1.782
-3.246
-5.402
-8.193
-11.571
-15.47
-19.849
-24.737
-30.098
-35.786
-41.551
-46.963
-51.558
-54.981
-56.809
-56.567
-54.001
-49.048
-41.978
-33.485
-24.182
-14.438
-4.654
4.691
13.41
21.782
30.817
42.265
57.534
77.21
101.473
130.449
163.809
200.001
235.729
265.964
285.852
291.896
281.408
251.91
201.166
128.615
36.633
-69.387
-183.067
-298.798
-411.408
-515.561
-605.046
-674.207
-719.927
-741.995
-742.277
-722.987
-686.355
-635.03
-573.19
-506.23
-439
-375.094
-316.163
-262.999
-216.494
-177.674
-146.937
-123.088
-104.029
-87.489
-72.374
-58.591
-46.009
-34.037
-21.728
-8.901
3.62
14.38
22.451
27.822
30.81
31.676
30.327
26.768
21.561
15.781
10.413
6.003
2.768
0.701
-0.124
0.452
2.444
5.698
9.984
15.066
20.779
27.049
33.776
40.81
47.958
54.976
61.658
67.88
73.564
78.675
83.198
87.112
90.424
93.188
95.478
97.375
98.947
100.242
101.314
102.234
103.091
103.991
105.014
106.209
107.612
109.242
111.115
113.244
115.626
118.239
121.061
124.074
127.266
130.63
134.154
137.814
141.586
145.443
149.361
153.32
157.3
161.276
165.226
169.13
172.968
176.726
180.383
183.917
187.303
190.52
193.542
196.349
198.918
201.227
203.256
204.988
206.407
207.501
208.257
208.665
208.716
208.404
207.725
206.676
205.258
203.47
201.317
198.804
195.938
192.729
189.187
185.325
181.156
176.695
171.961
166.97
161.742
156.297
150.655
144.84
138.873
132.777
126.577
120.295
113.954
107.58
101.194
94.82
88.478
82.191
75.977
69.857
63.848
57.967
52.231
46.655
41.252
36.034
31.014
26.201
21.603
17.229
13.083
9.171
5.497
2.062
-1.132
-4.086
-6.8
-9.277
-11.52
-13.534
-15.324
-16.897
-18.259
-19.418
-20.383
-21.163
-21.766
-22.203
-22.484
-22.62
-22.62
-22.496
-22.257
-21.915
-21.48
-20.962
-20.372
-19.719
-19.014
-18.264
-17.479
-16.668
-15.838
-14.997
-14.152
-13.31
-12.477
-11.659
-10.86
-10.086
-9.339
-8.625
-7.946
-7.304
-6.703
-6.142
-5.625
-5.151
-4.722
-4.336
-3.995
-3.698
-3.444
-3.232
-3.061
-2.931
-2.838
-2.782
-2.761
-2.774
-2.817
-2.89
-2.991
-3.118
-3.268
-3.441
-3.635
-3.847
-4.077
-4.323
-4.582
-4.855
-5.139
-5.433
-5.736
-6.048
-6.368
-6.694
-7.027
-7.367
-7.713
-8.066
-8.424
-8.789
-9.161
-9.539
-9.924
-10.317
-10.718
-11.129
-11.55
-11.982
-12.426
-12.883
-13.353
-13.836
-14.333
-14.843
-15.367
-15.904
-16.455
-17.02
-17.598
-18.191
-18.796
-19.414
-20.044
-20.683
-21.33
-21.983
-22.64
-23.298
-23.953
-24.603
-25.246
-25.878
-26.497
-27.099
-27.68
-28.237
-28.765
-29.259
-29.714
-30.125
-30.487
-30.796
-31.05
-31.246
-31.381
-31.452
-31.458
-31.396
-31.267
-31.067
-30.796
-30.45
-30.031
-29.541
-28.98
-28.353
-27.663
-26.913
-26.112
-25.268
-24.386
-23.474
-22.537
-21.579
-20.607
-19.627
-18.642
-17.656
-16.674
-15.704
-14.754
-13.836
-12.959
-12.129
-11.354
-10.64
-9.992
-9.415
-8.908
-8.464
-8.084
-7.774
-7.543
-7.408
-7.38
-7.452
-7.624
-7.886
-8.217
-8.586
-8.941
-9.215
-9.367
-9.375
-9.223
-8.924
-8.471
-7.853
-7.075
-6.128
-5.005
-3.712
-2.241
-0.597
1.154
2.896
4.465
5.656
6.324
6.371
5.712
4.309
2.126
-0.836
-4.485
-8.733
-13.51
-18.781
-24.561
-30.797
-37.276
-43.664
-49.534
-54.407
-57.921
-59.655
-59.071
-55.918
-50.211
-42.29
-32.987
-23.033
-12.74
-2.565
6.892
15.722
24.426
34.175
47.091
64.561
86.881
114.434
147.434
184.587
223.434
259.805
287.791
302.804
301.742
281.38
238.897
173.339
85.91
-19.007
-134.346
-253.931
-372.224
-483.148
-580.462
-658.273
-712.609
-742.772
-750.426
-737.398
-706.038
-659.134
-600.158
-534.399
-466.586
-399.87
-336.808
-279.125
-227.721
-183.999
-149.083
-121.916
-101.187
-85.509
-72.699
-61.71
-52.256
-43.214
-33.385
-22.659
-11.12
0.465
10.394
18.022
23.399
26.331
26.787
24.924
20.929
15.568
10.101
5.3
1.556
-0.895
-2.067
-1.9
-0.285
2.687
6.771
11.73
17.357
23.517
30.133
37.081
44.173
51.167
57.847
64.072
69.754
74.859
79.373
83.273
86.565
89.299
91.536
93.354
94.823
95.99
96.908
97.651
98.306
98.98
99.762
100.706
101.852
103.226
104.84
106.71
108.835
111.194
113.769
116.544
119.508
122.655
125.975
129.448
133.05
136.753
140.535
144.376
148.253
152.143
156.026
159.88
163.687
167.431
171.094
174.654
178.085
181.365
184.469
187.376
190.061
192.503
194.68
196.575
198.17
199.451
200.406
201.022
201.29
201.202
200.752
199.938
198.755
197.205
195.289
193.012
190.379
187.398
184.079
180.433
176.473
172.212
167.667
162.856
157.795
152.504
147.003
141.315
135.46
129.461
123.342
117.125
110.834
104.493
98.124
91.75
85.394
79.075
72.815
66.632
60.547
54.576
48.735
43.04
37.505
32.144
26.968
21.988
17.213
12.651
8.308
4.191
0.303
-3.353
-6.774
-9.961
-12.913
-15.633
-18.123
-20.386
-22.428
-24.255
-25.871
-27.285
-28.504
-29.536
-30.391
-31.078
-31.605
-31.984
-32.223
-32.334
-32.326
-32.208
-31.992
-31.687
-31.303
-30.848
-30.333
-29.765
-29.154
-28.507
-27.832
-27.137
-26.428
-25.711
-24.993
-24.278
-23.573
-22.88
-22.205
-21.551
-20.921
-20.318
-19.744
-19.201
-18.691
-18.215
-17.773
-17.367
-16.997
-16.663
-16.364
-16.101
-15.872
-15.677
-15.515
-15.385
-15.287
-15.219
-15.18
-15.169
-15.185
-15.226
-15.291
-15.38
-15.49
-15.621
-15.772
-15.942
-16.129
-16.332
-16.552
-16.786
-17.034
-17.295
-17.567
-17.85
-18.143
-18.445
-18.755
-19.072
-19.397
-19.728
-20.066
-20.409
-20.758
-21.112
-21.469
-21.831
-22.195
-22.563
-22.934
-23.308
-23.685
-24.065
-24.449
-24.835
-25.224
-25.614
-26.006
-26.399
-26.793
-27.186
-27.578
-27.969
-28.359
-28.747
-29.134
-29.517
-29.898
-30.274
-30.643
-31.006
-31.36
-31.701
-32.03
-32.343
-32.639
-32.917
-33.175
-33.411
-33.622
-33.807
-33.962
-34.085
-34.172
-34.219
-34.224
-34.183
-34.096
-33.961
-33.777
-33.544
-33.259
-32.924
-32.538
-32.101
-31.612
-31.071
-30.478
-29.835
-29.145
-28.412
-27.639
-26.831
-25.994
-25.138
-24.268
-23.39
-22.51
-21.632
-20.761
-19.902
-19.058
-18.23
-17.424
-16.645
-15.901
-15.202
-14.556
-13.967
-13.444
-12.992
-12.611
-12.305
-12.073
-11.905
-11.802
-11.765
-11.8
-11.923
-12.142
-12.45
-12.847
-13.32
-13.848
-14.4
-14.926
-15.363
-15.671
-15.827
-15.814
-15.645
-15.317
-14.82
-14.16
-13.325
-12.306
-11.108
-9.724
-8.159
-6.472
-4.764
-3.19
-1.938
-1.143
-0.902
-1.301
-2.368
-4.14
-6.618
-9.724
-13.387
-17.547
-22.167
-27.263
-32.785
-38.547
-44.251
-49.496
-53.852
-56.986
-58.504
-57.911
-54.943
-49.553
-42.04
-33.154
-23.536
-13.533
-3.529
5.965
14.74
23.041
31.873
43.114
58.241
77.846
102.135
131.212
164.718
201.077
236.895
266.99
286.432
291.675
279.935
248.703
195.757
120.582
25.823
-82.845
-199.105
-317.376
-432.388
-538.755
-630.038
-700.289
-746.727
-769.56
-770.066
-749.999
-711.294
-656.128
-589.152
-516.518
-442.679
-370.812
-303.742
-243.197
-190.977
-149.364
-118.312
-95.8
-80.262
-69.787
-62.143
-56.357
-51.289
-44.977
-36.752
-26.978
-15.974
-4.928
4.624
12.26
17.724
20.488
20.644
18.474
14.281
9.033
3.898
-0.502
-3.769
-5.661
-6.232
-5.447
-3.251
0.188
4.611
9.792
15.515
21.658
28.171
34.945
41.805
48.535
54.926
60.847
66.237
71.076
75.342
79.014
82.096
84.637
86.716
88.417
89.806
90.929
91.836
92.597
93.296
94.035
94.894
95.92
97.145
98.59
100.27
102.2
104.376
106.778
109.384
112.178
115.148
118.289
121.588
125.021
128.566
132.195
135.886
139.622
143.379
147.137
150.875
154.571
158.21
161.775
165.248
168.607
171.83
174.893
177.774
180.453
182.907
185.116
187.06
188.723
190.091
191.149
191.888
192.295
192.364
192.088
191.464
190.488
189.16
187.48
185.453
183.083
180.378
177.347
173.999
170.347
166.403
162.183
157.702
152.977
148.026
142.869
137.525
132.014
126.359
120.581
114.703
108.745
102.731
96.683
90.622
84.57
78.547
72.573
66.667
60.846
55.129
49.531
44.067
38.751
33.595
28.613
23.814
19.207
14.8
10.6
6.613
2.842
-0.709
-4.038
-7.145
-10.03
-12.694
-15.14
-17.37
-19.39
-21.204
-22.818
-24.239
-25.474
-26.531
-27.419
-28.146
-28.721
-29.154
-29.455
-29.634
-29.7
-29.663
-29.533
-29.321
-29.035
-28.684
-28.279
-27.828
-27.338
-26.819
-26.278
-25.721
-25.156
-24.588
-24.024
-23.468
-22.926
-22.401
-21.897
-21.418
-20.967
-20.546
-20.157
-19.801
-19.481
-19.196
-18.947
-18.734
-18.557
-18.415
-18.309
-18.236
-18.195
-18.185
-18.205
-18.252
-18.325
-18.421
-18.539
-18.677
-18.833
-19.005
-19.191
-19.39
-19.6
-19.819
-20.046
-20.279
-20.518
-20.76
-21.005
-21.252
-21.5
-21.747
-21.995
-22.241
-22.486
-22.73
-22.973
-23.214
-23.455
-23.695
-23.934
-24.174
-24.415
-24.657
-24.903
-25.153
-25.41
-25.673
-25.946
-26.228
-26.52
-26.824
-27.139
-27.467
-27.808
-28.162
-28.53
-28.912
-29.308
-29.72
-30.146
-30.587
-31.041
-31.507
-31.985
-32.472
-32.967
-33.467
-33.969
-34.472
-34.973
-35.47
-35.96
-36.44
-36.906
-37.354
-37.78
-38.179
-38.545
-38.873
-39.159
-39.399
-39.591
-39.731
-39.817
-39.847
-39.819
-39.73
-39.58
-39.366
-39.087
-38.742
-38.33
-37.853
-37.314
-36.714
-36.059
-35.352
-34.598
-33.806
-32.982
-32.131
-31.258
-30.368
-29.464
-28.553
-27.64
-26.728
-25.823
-24.933
-24.068
-23.237
-22.451
-21.717
-21.04
-20.422
-19.867
-19.376
-18.948
-18.577
-18.263
-18.009
-17.824
-17.727
-17.725
-17.819
-18
-18.255
-18.556
-18.866
-19.144
-19.337
-19.407
-19.337
-19.119
-18.762
-18.274
-17.649
-16.877
-15.938
-14.807
-13.476
-11.95
-10.246
-8.44
-6.664
-5.059
-3.805
-3.04
-2.849
-3.299
-4.415
-6.197
-8.619
-11.623
-15.151
-19.171
-23.676
-28.649
-34.018
-39.555
-44.898
-49.655
-53.378
-55.704
-56.256
-54.546
-50.367
-43.823
-35.306
-25.62
-15.472
-5.139
4.943
14.112
22.432
30.383
39.068
50.613
66.4
86.69
111.948
142.449
176.935
213.021
246.584
271.794
284.139
280.512
257.686
212.885
145.182
56.009
-49.996
-165.945
-285.689
-403.694
-514.06
-610.235
-686.056
-737.911
-765.337
-769.715
-752.871
-716.822
-663.893
-598.477
-526.65
-453.11
-381.222
-313.896
-252.938
-200.062
-157.48
-125.351
-101.754
-85.161
-73.72
-65.08
-58.202
-52.016
-44.621
-35.366
-24.647
-12.745
-0.816
9.505
17.736
23.585
26.497
26.634
24.328
19.881
14.277
8.701
3.792
-0.002
-2.402
-3.462
-3.138
-1.368
1.679
5.777
10.713
16.282
22.371
28.907
35.756
42.738
49.62
56.186
62.3
67.882
72.896
77.325
81.149
84.373
87.051
89.25
91.05
92.516
93.695
94.64
95.426
96.141
96.889
97.755
98.79
100.033
101.507
103.225
105.202
107.435
109.903
112.585
115.466
118.533
121.781
125.198
128.762
132.449
136.234
140.092
144.005
147.952
151.91
155.857
159.773
163.642
167.446
171.168
174.784
178.272
181.607
184.766
187.727
190.467
192.963
195.195
197.144
198.795
200.132
201.143
201.816
202.141
202.11
201.718
200.96
199.835
198.342
196.484
194.263
191.687
188.763
185.5
181.91
178.005
173.8
169.309
164.551
159.543
154.304
148.854
143.215
137.409
131.458
125.385
119.213
112.967
106.669
100.342
94.011
87.695
81.418
75.199
69.059
63.017
57.09
51.296
45.65
40.166
34.86
29.741
24.822
20.112
15.618
11.347
7.306
3.497
-0.075
-3.41
-6.508
-9.368
-11.992
-14.384
-16.548
-18.489
-20.212
-21.726
-23.036
-24.152
-25.083
-25.838
-26.427
-26.86
-27.148
-27.301
-27.331
-27.248
-27.063
-26.787
-26.43
-26.003
-25.515
-24.977
-24.397
-23.784
-23.146
-22.492
-21.827
-21.16
-20.496
-19.84
-19.198
-18.575
-17.973
-17.396
-16.847
-16.329
-15.843
-15.39
-14.971
-14.587
-14.237
-13.922
-13.64
-13.391
-13.173
-12.985
-12.826
-12.693
-12.585
-12.499
-12.435
-12.39
-12.363
-12.351
-12.353
-12.367
-12.392
-12.427
-12.469
-12.518
-12.573
-12.634
-12.7
-12.771
-12.846
-12.928
-13.014
-13.107
-13.206
-13.312
-13.426
-13.549
-13.683
-13.828
-13.986
-14.158
-14.347
-14.553
-14.776
-15.02
-15.282
-15.565
-15.869
-16.193
-16.538
-16.904
-17.292
-17.7
-18.129
-18.577
-19.045
-19.53
-20.03
-20.544
-21.068
-21.6
-22.136
-22.674
-23.209
-23.739
-24.26
-24.769
-25.262
-25.734
-26.181
-26.598
-26.98
-27.322
-27.619
-27.866
-28.061
-28.201
-28.284
-28.308
-28.27
-28.171
-28.009
-27.783
-27.494
-27.14
-26.721
-26.239
-25.697
-25.099
-24.448
-23.748
-23.006
-22.229
-21.427
-20.606
-19.772
-18.933
-18.094
-17.261
-16.442
-15.64
-14.86
-14.108
-13.39
-12.717
-12.097
-11.538
-11.046
-10.627
-10.283
-10.019
-9.836
-9.731
-9.698
-9.737
-9.847
-10.037
-10.324
-10.712
-11.2
-11.782
-12.44
-13.148
-13.869
-14.554
-15.148
-15.616
-15.925
-16.068
-16.052
-15.87
-15.532
-15.034
-14.351
-13.462
-12.365
-11.06
-9.58
-8.017
-6.48
-5.122
-4.118
-3.597
-3.668
-4.398
-5.806
-7.886
-10.571
-13.78
-17.471
-21.628
-26.247
-31.285
-36.589
-41.891
-46.86
-51.101
-54.225
-55.779
-55.226
-52.307
-47.038
-39.736
-31.142
-21.882
-12.227
-2.635
6.294
14.576
22.611
31.562
43.511
59.616
80.055
105.08
134.751
168.231
203.712
237.292
263.401
278.071
278.488
262
226.427
170.032
92.982
-0.899
-105.362
-214.978
-324.597
-429.088
-523.194
-600.586
-656.744
-690.536
-702.872
-695.428
-670.517
-630.458
-578.348
-519.27
-457.641
-396.72
-339.282
-286.549
-239.085
-197.828
-163.236
-134.773
-111.829
-93.099
-76.654
-61.908
-48.767
-36.871
-25.943
-15.384
-4.707
5.513
14.039
20.31
24.264
26.124
26.292
24.669
21.21
16.479
11.386
6.781
3.206
0.827
-0.386
-0.339
1.077
3.843
7.816
12.719
18.315
24.444
30.983
37.837
44.852
51.808
58.516
64.825
70.628
75.889
80.591
84.704
88.236
91.218
93.694
95.745
97.451
98.863
100.05
101.075
102.015
102.971
104.026
105.236
106.641
108.266
110.121
112.223
114.573
117.156
119.956
122.958
126.148
129.52
133.063
136.756
140.577
144.499
148.499
152.555
156.649
160.757
164.86
168.936
172.966
176.935
180.825
184.612
188.273
191.783
195.117
198.253
201.169
203.84
206.244
208.364
210.181
211.681
212.85
213.675
214.144
214.25
213.985
213.344
212.325
210.926
209.147
206.992
204.466
201.576
198.332
194.742
190.82
186.578
182.033
177.201
172.099
166.747
161.164
155.373
149.395
143.253
136.971
130.573
124.083
117.525
110.923
104.3
97.681
91.087
84.54
78.061
71.67
65.387
59.23
53.215
47.359
41.676
36.18
30.884
25.798
20.931
16.291
11.886
7.721
3.801
0.127
-3.299
-6.476
-9.405
-12.089
-14.531
-16.735
-18.708
-20.454
-21.983
-23.302
-24.419
-25.344
-26.088
-26.66
-27.072
-27.334
-27.458
-27.455
-27.336
-27.112
-26.795
-26.397
-25.926
-25.394
-24.812
-24.188
-23.531
-22.852
-22.158
-21.458
-20.757
-20.064
-19.385
-18.724
-18.088
-17.479
-16.903
-16.362
-15.858
-15.394
-14.973
-14.594
-14.259
-13.969
-13.724
-13.523
-13.366
-13.253
-13.182
-13.152
-13.162
-13.211
-13.297
-13.42
-13.578
-13.769
-13.993
-14.248
-14.532
-14.844
-15.181
-15.542
-15.925
-16.328
-16.751
-17.192
-17.649
-18.121
-18.608
-19.108
-19.62
-20.142
-20.672
-21.208
-21.749
-22.293
-22.836
-23.377
-23.913
-24.444
-24.966
-25.478
-25.976
-26.457
-26.918
-27.356
-27.765
-28.142
-28.483
-28.786
-29.047
-29.265
-29.438
-29.565
-29.643
-29.672
-29.652
-29.579
-29.456
-29.279
-29.05
-28.769
-28.438
-28.06
-27.639
-27.178
-26.682
-26.156
-25.609
-25.046
-24.473
-23.893
-23.311
-22.732
-22.161
-21.604
-21.065
-20.548
-20.061
-19.611
-19.211
-18.867
-18.583
-18.364
-18.211
-18.125
-18.109
-18.161
-18.274
-18.448
-18.683
-18.987
-19.38
-19.87
-20.451
-21.113
-21.834
-22.579
-23.325
-24.035
-24.656
-25.158
-25.519
-25.73
-25.813
-25.777
-25.613
-25.312
-24.832
-24.138
-23.24
-22.148
-20.899
-19.595
-18.325
-17.211
-16.428
-16.096
-16.297
-17.087
-18.448
-20.337
-22.726
-25.568
-28.844
-32.573
-36.736
-41.278
-46.055
-50.805
-55.223
-58.956
-61.618
-62.774
-61.943
-58.896
-53.693
-46.685
-38.541
-29.822
-20.784
-11.843
-3.594
3.949
11.165
19.163
29.93
44.591
63.328
86.403
113.932
145.166
178.414
209.965
234.458
248.043
247.993
231.714
197.029
142.186
67.304
-23.963
-125.562
-232.179
-338.887
-440.775
-532.534
-607.881
-662.266
-694.362
-705.286
-696.992
-671.607
-631.319
-579.555
-521.465
-461.847
-404.497
-351.46
-303.185
-260.221
-223.294
-192.381
-166.787
-145.114
-125.172
-105.935
-87.701
-70.553
-54.602
-39.851
-25.735
-12.545
-1.625
6.43
11.64
14.151
14.618
13.433
10.374
5.793
0.594
-4.578
-9.084
-12.521
-14.954
-16.316
-16.389
-15.149
-12.649
-8.993
-4.438
0.828
6.711
13.047
19.707
26.53
33.271
39.757
45.85
51.442
56.499
61
64.914
68.249
71.037
73.321
75.183
76.697
77.915
78.907
79.739
80.492
81.274
82.165
83.217
84.473
85.954
87.671
89.644
91.871
94.335
97.023
99.916
103.002
106.274
109.72
113.318
117.044
120.87
124.771
128.726
132.714
136.712
140.698
144.652
148.552
152.386
156.132
159.768
163.27
166.614
169.775
172.732
175.461
177.939
180.146
182.063
183.673
184.963
185.919
186.53
186.786
186.679
186.205
185.358
184.139
182.546
180.582
178.251
175.561
172.519
169.137
165.425
161.397
157.067
152.452
147.57
142.439
137.078
131.509
125.752
119.832
113.769
107.589
101.314
94.969
88.577
82.163
75.748
69.357
63.009
56.727
50.53
44.437
38.467
32.637
26.962
21.458
16.138
11.013
6.096
1.395
-3.081
-7.326
-11.334
-15.1
-18.622
-21.898
-24.927
-27.71
-30.249
-32.546
-34.606
-36.433
-38.034
-39.415
-40.583
-41.546
-42.315
-42.897
-43.304
-43.545
-43.63
-43.572
-43.38
-43.067
-42.642
-42.118
-41.504
-40.812
-40.051
-39.232
-38.365
-37.46
-36.523
-35.566
-34.594
-33.617
-32.64
-31.67
-30.713
-29.775
-28.859
-27.971
-27.114
-26.292
-25.507
-24.762
-24.059
-23.399
-22.784
-22.213
-21.689
-21.209
-20.775
-20.384
-20.037
-19.732
-19.469
-19.245
-19.061
-18.914
-18.803
-18.728
-18.687
-18.677
-18.699
-18.75
-18.83
-18.938
-19.073
-19.235
-19.423
-19.637
-19.878
-20.144
-20.435
-20.75
-21.089
-21.451
-21.836
-22.243
-22.671
-23.121
-23.591
-24.082
-24.592
-25.122
-25.67
-26.234
-26.813
-27.404
-28.006
-28.614
-29.227
-29.841
-30.455
-31.065
-31.669
-32.264
-32.845
-33.409
-33.951
-34.466
-34.949
-35.394
-35.796
-36.15
-36.453
-36.702
-36.895
-37.027
-37.098
-37.103
-37.043
-36.914
-36.715
-36.444
-36.099
-35.682
-35.194
-34.638
-34.018
-33.338
-32.604
-31.823
-31.003
-30.149
-29.267
-28.362
-27.438
-26.501
-25.555
-24.604
-23.654
-22.713
-21.789
-20.895
-20.042
-19.239
-18.494
-17.812
-17.198
-16.656
-16.186
-15.782
-15.443
-15.172
-14.978
-14.881
-14.89
-15.004
-15.222
-15.532
-15.914
-16.339
-16.758
-17.109
-17.349
-17.45
-17.402
-17.221
-16.909
-16.468
-15.892
-15.155
-14.25
-13.179
-11.926
-10.496
-8.932
-7.318
-5.817
-4.628
-3.896
-3.739
-4.226
-5.373
-7.208
-9.723
-12.858
-16.567
-20.782
-25.458
-30.625
-36.246
-42.175
-48.164
-53.783
-58.571
-62.17
-64.161
-64.073
-61.651
-56.826
-49.864
-41.451
-32.199
-22.488
-12.726
-3.396
5.302
13.646
22.643
34.049
49.297
69.018
93.431
122.696
156.524
193.369
229.914
261.103
282.011
289.048
279.452
250.673
200.407
128.077
36.085
-70.135
-184.119
-300.159
-413.008
-517.264
-606.662
-675.549
-720.846
-742.4
-742.16
-722.425
-685.489
-634.049
-572.313
-505.657
-438.882
-375.525
-317.173
-264.558
-218.527
-180.068
-149.556
-125.811
-106.766
-90.189
-75.02
-61.188
-48.583
-36.633
-24.409
-11.73
0.59
11.114
18.923
24.012
26.696
27.24
25.559
21.662
16.112
9.981
4.251
-0.532
-4.145
-6.593
-7.799
-7.602
-5.984
-3.096
0.835
5.579
10.972
16.939
23.379
30.141
37.032
43.804
50.25
56.246
61.71
66.607
70.921
74.629
77.738
80.301
82.391
84.087
85.457
86.547
87.411
88.122
88.767
89.453
90.261
91.24
92.426
93.838
95.491
97.399
99.56
101.949
104.546
107.333
110.298
113.435
116.731
120.164
123.709
127.34
131.034
134.772
138.533
142.294
146.035
149.734
153.375
156.944
160.42
163.783
167.009
170.077
172.963
175.647
178.107
180.322
182.272
183.94
185.312
186.374
187.116
187.526
187.597
187.323
186.699
185.723
184.394
182.713
180.684
178.311
175.603
172.566
169.213
165.553
161.6
157.369
152.875
148.137
143.171
137.996
132.634
127.103
121.427
115.626
109.724
103.742
97.703
91.63
85.544
79.468
73.422
67.427
61.5
55.662
49.929
44.318
38.843
33.52
28.361
23.378
18.582
13.982
9.587
5.403
1.435
-2.311
-5.833
-9.129
-12.197
-15.038
-17.653
-20.044
-22.216
-24.171
-25.916
-27.456
-28.799
-29.951
-30.922
-31.719
-32.353
-32.832
-33.166
-33.366
-33.441
-33.403
-33.26
-33.023
-32.703
-32.308
-31.849
-31.334
-30.772
-30.172
-29.541
-28.888
-28.218
-27.54
-26.858
-26.179
-25.508
-24.849
-24.206
-23.584
-22.984
-22.411
-21.865
-21.348
-20.862
-20.408
-19.986
-19.596
-19.238
-18.911
-18.616
-18.351
-18.114
-17.905
-17.721
-17.561
-17.425
-17.309
-17.213
-17.136
-17.076
-17.033
-17.005
-16.991
-16.991
-17.004
-17.029
-17.065
-17.113
-17.173
-17.244
-17.327
-17.422
-17.531
-17.655
-17.793
-17.946
-18.116
-18.301
-18.502
-18.721
-18.958
-19.212
-19.485
-19.776
-20.088
-20.42
-20.772
-21.143
-21.532
-21.938
-22.36
-22.795
-23.241
-23.695
-24.154
-24.617
-25.081
-25.543
-26
-26.448
-26.882
-27.3
-27.694
-28.062
-28.395
-28.69
-28.942
-29.147
-29.303
-29.405
-29.452
-29.441
-29.368
-29.232
-29.031
-28.762
-28.424
-28.014
-27.534
-26.984
-26.368
-25.688
-24.949
-24.156
-23.317
-22.437
-21.523
-20.581
-19.614
-18.627
-17.626
-16.615
-15.596
-14.576
-13.561
-12.561
-11.586
-10.648
-9.754
-8.914
-8.13
-7.409
-6.753
-6.163
-5.632
-5.158
-4.743
-4.397
-4.139
-3.979
-3.915
-3.947
-4.063
-4.244
-4.462
-4.666
-4.797
-4.813
-4.682
-4.396
-3.971
-3.409
-2.71
-1.871
-0.867
0.308
1.655
3.188
4.902
6.756
8.664
10.46
11.949
12.983
13.444
13.261
12.411
10.864
8.626
5.759
2.308
-1.662
-6.115
-11.087
-16.538
-22.319
-28.177
-33.681
-38.371
-41.892
-43.819
-43.674
-41.2
-36.332
-29.353
-20.967
-11.772
-2.12
7.604
16.939
25.686
34.123
43.274
54.9
70.404
90.359
114.921
144.206
177.895
214.423
250.476
281
301.124
307.36
296.99
267.482
216.601
143.764
51.437
-54.828
-168.79
-284.983
-398.224
-503.226
-593.688
-663.689
-710.382
-733.914
-735.493
-716.8
-679.722
-626.311
-561.043
-489.947
-417.397
-346.589
-280.407
-220.597
-168.957
-127.796
-97.128
-75.022
-60.002
-50.134
-43.132
-37.982
-33.515
-27.808
-20.21
-11.065
-0.67
9.831
18.93
26.185
31.33
33.885
33.966
31.897
28.024
23.236
18.635
14.816
12.131
10.822
10.844
12.201
14.931
18.865
23.736
29.329
35.445
41.921
48.682
55.586
62.415
68.996
75.163
80.796
85.864
90.349
94.229
97.505
100.205
102.372
104.079
105.402
106.394
107.121
107.651
108.065
108.469
108.947
109.563
110.363
111.373
112.609
114.088
115.811
117.766
119.939
122.317
124.889
127.649
130.589
133.691
136.931
140.284
143.726
147.237
150.798
154.386
157.981
161.562
165.113
168.617
172.058
175.413
178.657
181.767
184.719
187.489
190.055
192.393
194.481
196.3
197.832
199.064
199.98
200.568
200.816
200.716
200.262
199.447
198.271
196.73
194.826
192.562
189.945
186.981
183.68
180.053
176.112
171.87
167.345
162.552
157.511
152.239
146.758
141.089
135.254
129.276
123.179
116.985
110.72
104.406
98.068
91.729
85.411
79.135
72.922
66.793
60.766
54.86
49.092
43.477
38.029
32.762
27.688
22.818
18.16
13.723
9.512
5.533
1.789
-1.718
-4.985
-8.014
-10.805
-13.362
-15.687
-17.785
-19.662
-21.324
-22.778
-24.033
-25.098
-25.98
-26.691
-27.24
-27.638
-27.895
-28.021
-28.028
-27.927
-27.728
-27.441
-27.076
-26.645
-26.155
-25.617
-25.039
-24.43
-23.797
-23.148
-22.49
-21.829
-21.171
-20.52
-19.882
-19.261
-18.659
-18.081
-17.528
-17.003
-16.507
-16.041
-15.606
-15.202
-14.83
-14.488
-14.177
-13.895
-13.641
-13.415
-13.215
-13.038
-12.885
-12.754
-12.643
-12.551
-12.475
-12.416
-12.372
-12.342
-12.323
-12.316
-12.32
-12.333
-12.356
-12.387
-12.427
-12.476
-12.535
-12.603
-12.682
-12.772
-12.874
-12.989
-13.117
-13.261
-13.421
-13.599
-13.797
-14.015
-14.256
-14.52
-14.811
-15.127
-15.47
-15.841
-16.239
-16.666
-17.121
-17.604
-18.115
-18.654
-19.219
-19.812
-20.43
-21.073
-21.737
-22.422
-23.123
-23.84
-24.567
-25.3
-26.037
-26.772
-27.503
-28.225
-28.933
-29.622
-30.289
-30.927
-31.53
-32.092
-32.608
-33.072
-33.478
-33.822
-34.1
-34.31
-34.448
-34.511
-34.498
-34.407
-34.237
-33.986
-33.653
-33.238
-32.741
-32.166
-31.515
-30.792
-30.002
-29.15
-28.245
-27.296
-26.31
-25.295
-24.259
-23.207
-22.147
-21.087
-20.032
-18.988
-17.962
-16.963
-16.001
-15.088
-14.234
-13.448
-12.736
-12.103
-11.553
-11.091
-10.716
-10.423
-10.212
-10.084
-10.05
-10.128
-10.324
-10.639
-11.065
-11.588
-12.179
-12.803
-13.413
-13.958
-14.399
-14.708
-14.877
-14.911
-14.807
-14.573
-14.202
-13.664
-12.938
-12.015
-10.898
-9.617
-8.258
-6.934
-5.786
-4.981
-4.645
-4.883
-5.759
-7.298
-9.494
-12.283
-15.603
-19.411
-23.7
-28.477
-33.686
-39.189
-44.716
-49.926
-54.455
-57.925
-59.904
-59.889
-57.567
-52.876
-46.103
-37.93
-28.965
-19.569
-10.117
-1.135
7.111
14.871
23.128
33.73
48.233
67.278
91.091
119.857
153.305
189.932
226.449
257.736
278.765
285.872
276.176
247.03
196.084
122.689
29.317
-78.482
-194.355
-312.641
-427.994
-534.937
-626.975
-698.085
-745.371
-768.949
-770.091
-750.564
-712.329
-657.584
-590.942
-518.549
-444.871
-373.1
-306.076
-245.541
-193.27
-151.535
-120.326
-97.648
-81.965
-71.393
-63.666
-57.796
-52.657
-46.304
-38.066
-28.297
-17.286
-6.196
3.41
11.087
16.576
19.349
19.505
17.321
13.084
7.748
2.487
-2.064
-5.498
-7.567
-8.323
-7.73
-5.726
-2.473
1.775
6.791
12.358
18.351
24.721
31.36
38.091
44.697
50.968
56.77
62.043
66.763
70.91
74.459
77.414
79.823
81.764
83.319
84.557
85.522
86.266
86.858
87.385
87.95
88.635
89.489
90.545
91.825
93.345
95.121
97.151
99.415
101.894
104.571
107.435
110.483
113.702
117.07
120.563
124.157
127.828
131.558
135.326
139.11
142.889
146.643
150.354
154.007
157.582
161.058
164.41
167.616
170.652
173.495
176.124
178.514
180.647
182.505
184.07
185.329
186.268
186.877
187.144
187.064
186.629
185.836
184.683
183.168
181.295
179.067
176.491
173.573
170.324
166.753
162.874
158.701
154.249
149.534
144.576
139.392
134.003
128.431
122.698
116.825
110.836
104.754
98.603
92.406
86.186
79.967
73.769
67.614
61.523
55.515
49.61
43.824
38.174
32.676
27.345
22.193
17.233
12.475
7.929
3.602
-0.499
-4.368
-8.001
-11.396
-14.552
-17.467
-20.144
-22.583
-24.789
-26.767
-28.52
-30.057
-31.383
-32.509
-33.441
-34.19
-34.766
-35.179
-35.439
-35.558
-35.547
-35.416
-35.178
-34.843
-34.422
-33.926
-33.366
-32.751
-32.093
-31.4
-30.683
-29.948
-29.206
-28.463
-27.726
-27.003
-26.298
-25.618
-24.968
-24.351
-23.771
-23.232
-22.735
-22.282
-21.875
-21.515
-21.202
-20.935
-20.714
-20.539
-20.408
-20.319
-20.272
-20.263
-20.292
-20.356
-20.451
-20.577
-20.73
-20.907
-21.107
-21.325
-21.561
-21.811
-22.073
-22.344
-22.623
-22.908
-23.195
-23.484
-23.772
-24.058
-24.341
-24.619
-24.891
-25.157
-25.416
-25.669
-25.914
-26.154
-26.386
-26.613
-26.835
-27.051
-27.263
-27.471
-27.677
-27.882
-28.087
-28.293
-28.503
-28.717
-28.937
-29.163
-29.397
-29.64
-29.892
-30.155
-30.429
-30.715
-31.014
-31.327
-31.654
-31.997
-32.355
-32.728
-33.114
-33.515
-33.927
-34.349
-34.779
-35.214
-35.652
-36.092
-36.531
-36.967
-37.396
-37.816
-38.223
-38.614
-38.983
-39.327
-39.64
-39.918
-40.158
-40.356
-40.51
-40.617
-40.675
-40.68
-40.632
-40.528
-40.366
-40.144
-39.86
-39.513
-39.104
-38.635
-38.106
-37.523
-36.887
-36.205
-35.484
-34.73
-33.949
-33.145
-32.323
-31.486
-30.641
-29.791
-28.936
-28.083
-27.238
-26.409
-25.605
-24.836
-24.108
-23.427
-22.801
-22.23
-21.72
-21.27
-20.872
-20.528
-20.24
-20.016
-19.875
-19.824
-19.858
-19.977
-20.169
-20.413
-20.68
-20.919
-21.069
-21.09
-20.96
-20.665
-20.219
-19.619
-18.855
-17.933
-16.839
-15.567
-14.123
-12.501
-10.709
-8.807
-6.902
-5.149
-3.739
-2.807
-2.447
-2.74
-3.711
-5.394
-7.788
-10.813
-14.395
-18.467
-22.993
-27.982
-33.378
-38.99
-44.51
-49.532
-53.623
-56.449
-57.626
-56.666
-53.316
-47.54
-39.647
-30.389
-20.416
-10.083
0.222
9.981
18.993
27.502
36.502
47.849
62.983
82.473
106.521
135.227
168.207
203.874
238.82
267.892
286.286
290.541
277.95
246.102
192.816
117.64
23.325
-84.454
-199.439
-316.035
-429.115
-533.467
-622.544
-690.441
-734.414
-754.537
-752.394
-730.137
-689.6
-632.917
-565.143
-492.512
-419.842
-350.865
-287.657
-231.142
-183.084
-145.515
-117.889
-98.073
-83.743
-72.105
-61.822
-52.8
-44.068
-34.138
-22.607
-9.812
3.198
14.482
23.147
29.346
33.028
34.113
32.678
28.865
23.36
17.472
12.115
7.716
4.544
2.603
1.936
2.694
4.848
8.186
12.484
17.523
23.134
29.253
35.797
42.623
49.547
56.332
62.778
68.768
74.238
79.166
83.53
87.303
90.492
93.148
95.35
97.184
98.714
99.982
101.041
101.961
102.832
103.758
104.815
106.048
107.489
109.155
111.062
113.226
115.642
118.289
121.145
124.191
127.416
130.815
134.374
138.068
141.873
145.762
149.713
153.706
157.72
161.732
165.72
169.664
173.547
177.351
181.058
184.644
188.087
191.362
194.447
197.32
199.958
202.339
204.442
206.251
207.75
208.924
209.762
210.251
210.383
210.151
209.55
208.576
207.229
205.507
203.414
200.956
198.137
194.968
191.458
187.616
183.458
178.998
174.251
169.235
163.968
158.469
152.76
146.862
140.798
134.59
128.261
121.836
115.338
108.792
102.22
95.646
89.093
82.581
76.133
69.767
63.505
57.363
51.359
45.509
39.828
34.329
29.026
23.93
19.049
14.394
9.97
5.785
1.843
-1.853
-5.3
-8.498
-11.447
-14.148
-16.605
-18.82
-20.799
-22.548
-24.074
-25.383
-26.485
-27.389
-28.104
-28.641
-29.01
-29.221
-29.287
-29.218
-29.025
-28.72
-28.314
-27.819
-27.244
-26.601
-25.901
-25.152
-24.366
-23.551
-22.716
-21.869
-21.018
-20.17
-19.332
-18.51
-17.71
-16.936
-16.193
-15.484
-14.814
-14.185
-13.598
-13.055
-12.558
-12.107
-11.702
-11.343
-11.029
-10.76
-10.535
-10.353
-10.211
-10.108
-10.042
-10.012
-10.014
-10.047
-10.108
-10.196
-10.308
-10.443
-10.598
-10.772
-10.963
-11.171
-11.393
-11.629
-11.877
-12.137
-12.407
-12.688
-12.978
-13.278
-13.588
-13.908
-14.239
-14.581
-14.935
-15.299
-15.676
-16.063
-16.463
-16.875
-17.298
-17.734
-18.181
-18.641
-19.114
-19.599
-20.097
-20.605
-21.122
-21.648
-22.18
-22.716
-23.253
-23.787
-24.318
-24.841
-25.354
-25.854
-26.338
-26.802
-27.242
-27.654
-28.033
-28.374
-28.672
-28.923
-29.122
-29.268
-29.358
-29.389
-29.36
-29.267
-29.11
-28.888
-28.599
-28.242
-27.816
-27.32
-26.756
-26.128
-25.438
-24.689
-23.888
-23.04
-22.156
-21.241
-20.302
-19.345
-18.377
-17.402
-16.428
-15.46
-14.5
-13.555
-12.633
-11.742
-10.894
-10.098
-9.36
-8.687
-8.087
-7.563
-7.118
-6.754
-6.462
-6.244
-6.105
-6.051
-6.101
-6.262
-6.529
-6.899
-7.364
-7.9
-8.477
-9.045
-9.538
-9.917
-10.159
-10.247
-10.193
-9.99
-9.625
-9.102
-8.412
-7.547
-6.511
-5.299
-3.914
-2.42
-0.927
0.411
1.401
1.906
1.837
1.112
-0.298
-2.424
-5.263
-8.725
-12.721
-17.181
-22.065
-27.379
-33.072
-38.934
-44.647
-49.812
-53.978
-56.808
-57.92
-56.814
-53.271
-47.316
-39.268
-29.911
-19.932
-9.627
0.575
10.119
19.079
27.895
37.606
50.126
66.694
87.561
113.037
143.261
177.041
212.115
244.707
269.531
282.418
280.57
261.129
221.534
160.988
80.748
-15.249
-120.66
-229.635
-337.145
-437.628
-525.012
-594.152
-641.734
-666.864
-671.298
-657.427
-627.447
-584.315
-532.223
-475.526
-418.239
-363.795
-313.659
-268.176
-227.969
-193.324
-163.855
-139.205
-118.252
-98.996
-80.694
-63.558
-47.547
-32.841
-19.446
-6.686
5.21
14.99
22.149
26.665
28.649
28.746
27.296
24.06
19.382
14.136
8.955
4.477
1.088
-1.288
-2.591
-2.619
-1.354
1.142
4.756
9.229
14.375
20.107
26.278
32.765
39.415
45.995
52.333
58.297
63.785
68.764
73.215
77.109
80.455
83.286
85.649
87.624
89.286
90.683
91.881
92.942
93.94
94.977
96.127
97.44
98.953
100.684
102.646
104.854
107.306
109.984
112.873
115.955
119.214
122.643
126.228
129.949
133.78
137.694
141.667
145.678
149.706
153.729
157.725
161.673
165.553
169.35
173.044
176.611
180.03
183.274
186.322
189.15
191.736
194.058
196.096
197.83
199.245
200.328
201.065
201.445
201.458
201.098
200.358
199.235
197.729
195.839
193.567
190.919
187.901
184.523
180.794
176.727
172.334
167.631
162.635
157.363
151.834
146.069
140.089
133.915
127.572
121.083
114.471
107.763
100.981
94.151
87.298
80.445
73.615
66.832
60.116
53.489
46.971
40.581
34.337
28.255
22.351
16.64
11.133
5.843
0.78
-4.048
-8.633
-12.97
-17.053
-20.879
-24.447
-27.756
-30.806
-33.6
-36.139
-38.429
-40.475
-42.283
-43.861
-45.216
-46.357
-47.294
-48.038
-48.598
-48.987
-49.215
-49.295
-49.237
-49.055
-48.759
-48.362
-47.876
-47.311
-46.678
-45.988
-45.252
-44.48
-43.68
-42.861
-42.033
-41.202
-40.376
-39.562
-38.765
-37.992
-37.246
-36.533
-35.856
-35.218
-34.622
-34.07
-33.564
-33.104
-32.692
-32.327
-32.009
-31.737
-31.51
-31.327
-31.186
-31.087
-31.026
-31.003
-31.015
-31.061
-31.14
-31.249
-31.388
-31.553
-31.744
-31.96
-32.198
-32.458
-32.739
-33.04
-33.361
-33.701
-34.06
-34.437
-34.831
-35.241
-35.667
-36.108
-36.564
-37.034
-37.518
-38.015
-38.526
-39.05
-39.589
-40.14
-40.703
-41.278
-41.862
-42.455
-43.054
-43.657
-44.261
-44.863
-45.461
-46.054
-46.637
-47.208
-47.763
-48.298
-48.809
-49.291
-49.74
-50.151
-50.518
-50.84
-51.112
-51.334
-51.502
-51.614
-51.668
-51.664
-51.599
-51.473
-51.283
-51.027
-50.704
-50.318
-49.868
-49.357
-48.788
-48.165
-47.494
-46.782
-46.037
-45.264
-44.467
-43.652
-42.824
-41.989
-41.152
-40.314
-39.48
-38.659
-37.857
-37.086
-36.354
-35.665
-35.027
-34.444
-33.919
-33.456
-33.052
-32.701
-32.402
-32.158
-31.98
-31.885
-31.88
-31.96
-32.122
-32.358
-32.644
-32.952
-33.229
-33.408
-33.452
-33.337
-33.049
-32.6
-31.982
-31.179
-30.196
-29.023
-27.654
-26.098
-24.351
-22.425
-20.391
-18.372
-16.533
-15.079
-14.151
-13.837
-14.227
-15.351
-17.242
-19.91
-23.256
-27.186
-31.639
-36.567
-41.959
-47.754
-53.711
-59.467
-64.61
-68.663
-71.27
-72.062
-70.525
-66.444
-59.875
-51.15
-41.102
-30.466
-19.525
-8.743
1.249
10.523
19.51
29.233
41.703
58.183
78.861
104.122
134.16
167.713
202.463
234.454
258.125
269.214
264.841
242.007
198.138
132.449
46.264
-56.071
-167.812
-283.008
-396.291
-501.867
-593.732
-666.328
-716.051
-742.332
-746.837
-731.462
-698.553
-650.906
-592.055
-527.073
-460.448
-395.226
-333.751
-277.601
-227.646
-185.1
-150.922
-124.111
-103.402
-87.501
-74.44
-63.257
-53.685
-44.704
-35.162
-24.935
-14.096
-3.313
5.855
12.828
17.701
20.292
20.557
18.656
14.768
9.612
4.404
-0.125
-3.615
-5.832
-6.787
-6.429
-4.653
-1.558
2.61
7.622
13.271
19.426
26.018
32.926
39.964
46.904
53.531
59.705
65.348
70.42
74.908
78.789
82.068
84.795
87.035
88.865
90.354
91.55
92.506
93.293
93.997
94.721
95.553
96.544
97.734
99.145
100.793
102.691
104.839
107.216
109.802
112.583
115.547
118.689
121.998
125.453
129.032
132.708
136.459
140.265
144.105
147.957
151.8
155.614
159.381
163.086
166.712
170.234
173.632
176.88
179.957
182.84
185.506
187.934
190.104
191.997
193.598
194.893
195.869
196.516
196.823
196.783
196.392
195.646
194.542
193.081
191.266
189.099
186.589
183.743
180.57
177.082
173.292
169.214
164.864
160.259
155.418
150.36
145.104
139.673
134.089
128.373
122.548
116.639
110.667
104.656
98.629
92.608
86.615
80.671
74.795
69.007
63.324
57.765
52.344
47.077
41.977
37.058
32.329
27.802
23.483
19.381
15.501
11.847
8.422
5.23
2.269
-0.461
-2.961
-5.235
-7.287
-9.12
-10.743
-12.161
-13.382
-14.415
-15.269
-15.952
-16.476
-16.851
-17.087
-17.195
-17.186
-17.071
-16.86
-16.566
-16.197
-15.765
-15.279
-14.749
-14.184
-13.592
-12.982
-12.361
-11.736
-11.113
-10.499
-9.899
-9.317
-8.757
-8.224
-7.719
-7.244
-6.803
-6.395
-6.022
-5.684
-5.381
-5.112
-4.877
-4.675
-4.504
-4.362
-4.248
-4.16
-4.095
-4.052
-4.027
-4.02
-4.028
-4.049
-4.081
-4.124
-4.175
-4.234
-4.3
-4.372
-4.448
-4.53
-4.617
-4.708
-4.804
-4.906
-5.015
-5.132
-5.259
-5.396
-5.545
-5.707
-5.883
-6.075
-6.283
-6.508
-6.752
-7.016
-7.3
-7.606
-7.936
-8.289
-8.665
-9.065
-9.488
-9.933
-10.398
-10.882
-11.381
-11.893
-12.415
-12.946
-13.481
-14.019
-14.554
-15.085
-15.605
-16.111
-16.597
-17.057
-17.486
-17.878
-18.228
-18.533
-18.79
-18.994
-19.142
-19.232
-19.261
-19.227
-19.128
-18.96
-18.722
-18.413
-18.034
-17.586
-17.071
-16.494
-15.858
-15.17
-14.438
-13.669
-12.869
-12.045
-11.201
-10.344
-9.479
-8.612
-7.744
-6.882
-6.035
-5.212
-4.424
-3.681
-2.99
-2.362
-1.803
-1.316
-0.906
-0.574
-0.313
-0.124
-0.011
0.018
-0.055
-0.238
-0.528
-0.924
-1.414
-1.977
-2.583
-3.18
-3.706
-4.119
-4.395
-4.518
-4.501
-4.34
-4.024
-3.561
-2.935
-2.137
-1.172
-0.03
1.282
2.707
4.142
5.434
6.392
6.881
6.803
6.075
4.672
2.562
-0.254
-3.695
-7.688
-12.168
-17.093
-22.47
-28.248
-34.239
-40.146
-45.569
-50.071
-53.314
-54.91
-54.37
-51.425
-46.023
-38.443
-29.407
-19.556
-9.253
1.103
10.987
20.172
28.881
38.065
49.532
64.748
84.329
108.511
137.447
170.818
207.089
242.946
273.293
293.23
299.201
288.409
258.309
206.618
132.733
39.179
-68.493
-184.032
-301.905
-416.9
-523.679
-615.803
-687.271
-735.196
-759.659
-761.884
-743.565
-706.583
-653.064
-587.542
-516.101
-443.201
-372.046
-305.476
-245.245
-193.114
-151.331
-119.959
-97.066
-81.144
-70.334
-62.352
-56.184
-50.718
-44.015
-35.402
-25.238
-13.804
-2.258
7.792
15.874
21.686
24.656
24.917
22.784
18.554
13.209
7.927
3.338
-0.126
-2.196
-2.934
-2.308
-0.262
3.025
7.317
12.404
18.08
24.239
30.815
37.682
44.66
51.524
58.06
64.134
69.671
74.635
79.012
82.783
85.956
88.585
90.741
92.501
93.932
95.077
95.987
96.737
97.41
98.109
98.916
99.883
101.045
102.426
104.042
105.903
108.009
110.338
112.871
115.591
118.487
121.554
124.779
128.143
131.621
135.19
138.826
142.511
146.224
149.943
153.648
157.319
160.938
164.491
167.957
171.315
174.541
177.614
180.509
183.205
185.679
187.91
189.878
191.564
192.953
194.032
194.788
195.21
195.288
195.015
194.388
193.402
192.056
190.352
188.291
185.879
183.123
180.031
176.612
172.879
168.845
164.524
159.933
155.09
150.012
144.72
139.233
133.573
127.764
121.826
115.784
109.66
103.477
97.26
91.029
84.809
78.62
72.483
66.419
60.445
54.58
48.841
43.243
37.801
32.529
27.438
22.54
17.843
13.356
9.085
5.037
1.215
-2.378
-5.739
-8.87
-11.769
-14.44
-16.884
-19.106
-21.111
-22.904
-24.492
-25.882
-27.082
-28.101
-28.947
-29.631
-30.162
-30.551
-30.806
-30.94
-30.961
-30.881
-30.709
-30.456
-30.13
-29.742
-29.3
-28.814
-28.291
-27.74
-27.167
-26.58
-25.986
-25.389
-24.795
-24.209
-23.635
-23.077
-22.538
-22.022
-21.529
-21.063
-20.625
-20.215
-19.835
-19.485
-19.165
-18.874
-18.612
-18.378
-18.172
-17.993
-17.84
-17.711
-17.605
-17.521
-17.458
-17.415
-17.389
-17.38
-17.386
-17.406
-17.44
-17.487
-17.545
-17.615
-17.697
-17.791
-17.896
-18.012
-18.141
-18.281
-18.434
-18.6
-18.78
-18.975
-19.186
-19.415
-19.663
-19.93
-20.218
-20.527
-20.857
-21.208
-21.58
-21.975
-22.391
-22.828
-23.287
-23.767
-24.268
-24.79
-25.332
-25.891
-26.466
-27.055
-27.656
-28.265
-28.88
-29.497
-30.113
-30.725
-31.331
-31.925
-32.505
-33.066
-33.604
-34.112
-34.586
-35.02
-35.409
-35.749
-36.035
-36.265
-36.436
-36.548
-36.597
-36.581
-36.5
-36.352
-36.138
-35.855
-35.502
-35.082
-34.596
-34.049
-33.442
-32.781
-32.072
-31.32
-30.535
-29.723
-28.891
-28.044
-27.187
-26.327
-25.469
-24.619
-23.782
-22.963
-22.17
-21.413
-20.703
-20.049
-19.457
-18.931
-18.473
-18.086
-17.773
-17.53
-17.349
-17.229
-17.172
-17.187
-17.292
-17.496
-17.796
-18.183
-18.645
-19.152
-19.671
-20.156
-20.553
-20.821
-20.939
-20.901
-20.718
-20.397
-19.934
-19.312
-18.503
-17.481
-16.232
-14.761
-13.084
-11.273
-9.454
-7.777
-6.425
-5.544
-5.23
-5.541
-6.503
-8.103
-10.302
-13.068
-16.358
-20.167
-24.527
-29.399
-34.682
-40.154
-45.442
-50.151
-53.884
-56.178
-56.538
-54.659
-50.466
-44.232
-36.612
-28.189
-19.327
-10.405
-1.915
5.917
13.405
21.593
32.294
47.033
66.43
90.682
119.98
154.035
191.298
228.447
260.327
281.894
289.51
280.317
251.651
201.132
128.033
34.754
-73.139
-189.297
-308.084
-424.183
-532.165
-625.5
-698.056
-746.82
-771.825
-774.307
-756.008
-718.857
-665.009
-599.047
-527.117
-453.733
-382.14
-315.181
-254.587
-202.106
-159.96
-128.179
-104.796
-88.281
-76.774
-68.022
-61.044
-54.754
-47.252
-37.903
-27.108
-15.175
-3.262
7.048
15.301
21.209
24.215
24.467
22.298
18.021
12.622
7.27
2.593
-0.976
-3.167
-4.031
-3.535
-1.621
1.534
5.702
10.672
16.245
22.308
28.795
35.574
42.465
49.24
55.681
61.655
67.085
71.934
76.19
79.832
82.869
85.357
87.366
88.977
90.256
91.248
92.008
92.611
93.144
93.712
94.399
95.259
96.328
97.632
99.186
101.002
103.08
105.399
107.937
110.68
113.616
116.74
120.039
123.493
127.078
130.769
134.542
138.379
142.259
146.158
150.055
153.931
157.766
161.545
165.249
168.854
172.337
175.674
178.839
181.812
184.568
187.085
189.341
191.317
192.997
194.366
195.41
196.118
196.479
196.485
196.131
195.411
194.325
192.871
191.052
188.87
186.333
183.448
180.225
176.673
172.805
168.636
164.183
159.46
154.488
149.285
143.871
138.269
132.499
126.586
120.553
114.423
108.22
101.967
95.69
89.41
83.151
76.933
70.777
64.705
58.735
52.884
47.17
41.608
36.213
30.999
25.976
21.157
16.549
12.162
8.001
4.071
0.377
-3.079
-6.296
-9.273
-12.012
-14.515
-16.785
-18.827
-20.647
-22.251
-23.647
-24.842
-25.847
-26.67
-27.321
-27.812
-28.153
-28.355
-28.429
-28.387
-28.241
-28
-27.677
-27.281
-26.825
-26.316
-25.767
-25.185
-24.579
-23.957
-23.328
-22.699
-22.076
-21.465
-20.871
-20.3
-19.756
-19.242
-18.761
-18.317
-17.91
-17.543
-17.215
-16.929
-16.683
-16.476
-16.309
-16.18
-16.086
-16.028
-16.001
-16.005
-16.036
-16.092
-16.171
-16.271
-16.388
-16.521
-16.667
-16.824
-16.99
-17.164
-17.342
-17.525
-17.709
-17.894
-18.078
-18.261
-18.442
-18.621
-18.797
-18.97
-19.142
-19.312
-19.48
-19.648
-19.816
-19.985
-20.156
-20.332
-20.512
-20.698
-20.894
-21.099
-21.317
-21.549
-21.796
-22.059
-22.339
-22.636
-22.952
-23.288
-23.642
-24.017
-24.411
-24.827
-25.263
-25.719
-26.194
-26.686
-27.195
-27.718
-28.252
-28.796
-29.344
-29.895
-30.445
-30.993
-31.534
-32.065
-32.582
-33.081
-33.557
-34.006
-34.422
-34.8
-35.135
-35.422
-35.657
-35.839
-35.964
-36.03
-36.034
-35.974
-35.848
-35.657
-35.397
-35.067
-34.666
-34.196
-33.657
-33.053
-32.388
-31.666
-30.891
-30.074
-29.22
-28.337
-27.43
-26.504
-25.564
-24.617
-23.667
-22.717
-21.771
-20.837
-19.925
-19.043
-18.204
-17.412
-16.676
-16.001
-15.392
-14.855
-14.388
-13.985
-13.644
-13.37
-13.172
-13.068
-13.065
-13.159
-13.341
-13.607
-13.939
-14.313
-14.685
-14.987
-15.166
-15.193
-15.062
-14.778
-14.34
-13.731
-12.93
-11.931
-10.744
-9.385
-7.861
-6.171
-4.347
-2.475
-0.718
0.717
1.658
2
1.679
0.645
-1.146
-3.737
-7.127
-11.215
-15.885
-21.052
-26.676
-32.756
-39.191
-45.707
-51.882
-57.234
-61.326
-63.842
-64.432
-62.605
-58.133
-51.079
-41.827
-31.276
-20.209
-8.933
2.088
12.216
21.513
30.439
40.071
52.524
69.217
90.439
116.643
148.046
183.284
219.83
253.462
278.343
289.944
285.176
260.86
214.255
144.584
53.492
-54.216
-171.534
-292.236
-410.785
-521.285
-617.166
-692.369
-743.432
-770.012
-773.628
-756.215
-719.821
-666.804
-601.587
-530.193
-457.247
-386.054
-319.436
-259.127
-206.82
-164.707
-132.925
-109.565
-93.112
-81.721
-73.068
-66.131
-59.835
-52.265
-42.775
-31.762
-19.524
-7.232
3.479
12.122
18.393
21.717
22.243
20.3
16.194
10.913
5.632
0.985
-2.588
-4.81
-5.732
-5.31
-3.484
-0.419
3.663
8.558
14.069
20.09
26.553
33.328
40.234
47.042
53.533
59.574
65.085
70.029
74.391
78.15
81.311
83.927
86.065
87.802
89.203
90.308
91.173
91.871
92.489
93.134
93.89
94.81
95.933
97.283
98.874
100.722
102.823
105.156
107.701
110.443
113.37
116.477
119.754
123.179
126.728
130.375
134.098
137.878
141.694
145.523
149.345
153.139
156.888
160.578
164.189
167.7
171.088
174.33
177.402
180.282
182.95
185.381
187.555
189.456
191.066
192.373
193.363
194.025
194.35
194.329
193.958
193.234
192.154
190.718
188.928
186.788
184.305
181.486
178.339
174.876
171.109
167.052
162.72
158.129
153.297
148.243
142.985
137.546
131.946
126.208
120.353
114.405
108.386
102.319
96.228
90.134
84.06
78.025
72.05
66.154
60.357
54.675
49.124
43.721
38.478
33.41
28.528
23.842
19.362
15.096
11.05
7.23
3.64
0.283
-2.839
-5.726
-8.378
-10.798
-12.987
-14.95
-16.692
-18.219
-19.537
-20.654
-21.578
-22.319
-22.886
-23.289
-23.537
-23.643
-23.616
-23.467
-23.207
-22.848
-22.399
-21.873
-21.278
-20.625
-19.924
-19.184
-18.415
-17.625
-16.822
-16.014
-15.208
-14.411
-13.628
-12.865
-12.128
-11.419
-10.744
-10.106
-9.507
-8.95
-8.436
-7.966
-7.542
-7.163
-6.83
-6.541
-6.296
-6.095
-5.935
-5.815
-5.734
-5.689
-5.68
-5.704
-5.759
-5.843
-5.954
-6.09
-6.248
-6.427
-6.626
-6.842
-7.074
-7.32
-7.58
-7.852
-8.136
-8.431
-8.737
-9.051
-9.375
-9.707
-10.048
-10.399
-10.758
-11.128
-11.509
-11.902
-12.307
-12.725
-13.157
-13.601
-14.059
-14.531
-15.017
-15.517
-16.03
-16.558
-17.098
-17.653
-18.221
-18.801
-19.392
-19.992
-20.599
-21.212
-21.827
-22.441
-23.052
-23.657
-24.254
-24.839
-25.41
-25.964
-26.496
-27.003
-27.48
-27.922
-28.324
-28.682
-28.989
-29.244
-29.444
-29.585
-29.665
-29.683
-29.637
-29.524
-29.344
-29.095
-28.777
-28.389
-27.93
-27.403
-26.811
-26.158
-25.447
-24.686
-23.879
-23.035
-22.162
-21.265
-20.351
-19.423
-18.487
-17.549
-16.613
-15.685
-14.77
-13.876
-13.014
-12.194
-11.426
-10.719
-10.078
-9.508
-9.011
-8.589
-8.244
-7.969
-7.763
-7.632
-7.583
-7.633
-7.792
-8.059
-8.425
-8.878
-9.389
-9.92
-10.431
-10.87
-11.198
-11.396
-11.456
-11.389
-11.205
-10.901
-10.469
-9.887
-9.133
-8.193
-7.073
-5.786
-4.399
-3.03
-1.815
-0.921
-0.486
-0.597
-1.311
-2.649
-4.607
-7.148
-10.222
-13.776
-17.766
-22.192
-27.05
-32.28
-37.683
-42.946
-47.687
-51.485
-53.996
-54.829
-53.52
-49.866
-43.935
-36.099
-27.091
-17.556
-7.775
1.845
10.727
18.926
26.905
35.738
47.383
63.133
83.274
108.161
138.031
171.746
207.08
240.237
265.769
279.351
278.054
258.849
219.028
157.689
76.011
-22.036
-129.94
-241.691
-352.081
-455.328
-545.155
-616.228
-665.084
-690.791
-695.145
-680.592
-649.415
-604.685
-550.736
-492.081
-432.868
-376.623
-324.848
-277.895
-236.387
-200.602
-170.126
-144.575
-122.784
-102.696
-83.556
-65.594
-48.773
-33.293
-19.167
-5.709
6.84
17.188
24.817
29.704
31.965
32.266
30.959
27.801
23.148
17.904
12.721
8.255
4.908
2.603
1.402
1.515
2.96
5.677
9.548
14.309
19.769
25.838
32.362
39.216
46.237
53.184
59.878
66.181
71.985
77.254
81.969
86.098
89.651
92.661
95.175
97.277
99.042
100.52
101.778
102.881
103.905
104.956
106.111
107.422
108.928
110.649
112.598
114.791
117.226
119.887
122.757
125.819
129.057
132.465
136.03
139.731
143.544
147.441
151.399
155.398
159.417
163.435
167.43
171.383
175.273
179.087
182.806
186.407
189.868
193.163
196.271
199.17
201.837
204.251
206.39
208.237
209.777
210.994
211.877
212.414
212.595
212.412
211.86
210.935
209.636
207.962
205.914
203.498
200.719
197.586
194.108
190.296
186.162
181.72
176.986
171.978
166.712
161.208
155.487
149.569
143.476
137.232
130.859
124.38
117.82
111.201
104.548
97.884
91.23
84.608
78.039
71.544
65.142
58.852
52.69
46.673
40.815
35.132
29.635
24.336
19.245
14.371
9.721
5.301
1.116
-2.83
-6.535
-9.998
-13.218
-16.197
-18.937
-21.443
-23.717
-25.766
-27.595
-29.213
-30.626
-31.843
-32.873
-33.726
-34.411
-34.938
-35.319
-35.563
-35.681
-35.684
-35.582
-35.386
-35.107
-34.753
-34.335
-33.862
-33.344
-32.789
-32.205
-31.6
-30.982
-30.358
-29.734
-29.115
-28.508
-27.917
-27.345
-26.799
-26.28
-25.792
-25.337
-24.919
-24.538
-24.197
-23.897
-23.64
-23.424
-23.252
-23.122
-23.035
-22.991
-22.99
-23.031
-23.115
-23.241
-23.409
-23.617
-23.865
-24.151
-24.474
-24.833
-25.226
-25.652
-26.11
-26.597
-27.112
-27.655
-28.223
-28.816
-29.43
-30.063
-30.713
-31.377
-32.051
-32.734
-33.42
-34.107
-34.791
-35.47
-36.139
-36.796
-37.436
-38.054
-38.647
-39.208
-39.734
-40.218
-40.657
-41.047
-41.384
-41.667
-41.893
-42.06
-42.167
-42.212
-42.195
-42.115
-41.971
-41.763
-41.491
-41.156
-40.762
-40.313
-39.811
-39.263
-38.674
-38.051
-37.403
-36.739
-36.063
-35.382
-34.702
-34.028
-33.369
-32.732
-32.121
-31.542
-31.005
-30.519
-30.095
-29.742
-29.464
-29.264
-29.145
-29.107
-29.153
-29.283
-29.488
-29.769
-30.127
-30.57
-31.116
-31.774
-32.536
-33.392
-34.322
-35.289
-36.266
-37.216
-38.086
-38.846
-39.473
-39.955
-40.308
-40.534
-40.626
-40.573
-40.334
-39.873
-39.194
-38.307
-37.256
-36.144
-35.068
-34.15
-33.557
-33.401
-33.766
-34.715
-36.245
-38.321
-40.9
-43.924
-47.37
-51.263
-55.588
-60.281
-65.172
-69.963
-74.344
-77.971
-80.479
-81.463
-80.441
-77.164
-71.698
-64.402
-55.985
-47.08
-37.952
-28.982
-20.767
-13.282
-6.08
1.857
12.498
27.17
46.116
69.664
98.011
130.005
163.486
194.778
218.584
230.726
228.39
208.665
168.992
108.54
28.479
-67.299
-172.544
-281.507
-389.168
-489.973
-577.836
-647.526
-695.653
-721.279
-726.072
-712.347
-682.251
-638.683
-585.85
-528.192
-469.807
-414.221
-362.929
-316.287
-274.955
-239.259
-208.846
-183.356
-161.633
-141.631
-122.604
-104.777
-88.117
-72.814
-58.857
-45.562
-33.162
-22.917
-15.356
-10.514
-8.274
-7.986
-9.302
-12.45
-17.088
-22.333
-27.53
-32.026
-35.42
-37.778
-39.043
-39.01
-37.66
-35.055
-31.308
-26.677
-21.353
-15.432
-9.065
-2.379
4.466
11.234
17.743
23.857
29.465
34.535
39.044
42.965
46.304
49.095
51.385
53.259
54.794
56.041
57.069
57.944
58.745
59.577
60.519
61.622
62.927
64.453
66.215
68.228
70.493
72.992
75.71
78.63
81.738
85.026
88.483
92.085
95.811
99.631
103.522
107.464
111.436
115.416
119.382
123.313
127.191
131
134.72
138.327
141.799
145.111
148.238
151.158
153.849
156.288
158.453
160.327
161.894
163.139
164.049
164.614
164.823
164.669
164.148
163.255
161.99
160.353
158.346
155.975
153.247
150.17
146.757
143.018
138.967
134.62
129.993
125.106
119.977
114.627
109.076
103.348
97.467
91.455
85.338
79.138
72.882
66.593
60.296
54.014
47.77
41.585
35.481
29.478
23.595
17.849
12.259
6.838
1.602
-3.436
-8.266
-12.876
-17.259
-21.406
-25.312
-28.973
-32.385
-35.546
-38.456
-41.116
-43.527
-45.694
-47.62
-49.31
-50.771
-52.011
-53.038
-53.86
-54.487
-54.929
-55.197
-55.302
-55.255
-55.067
-54.75
-54.315
-53.774
-53.137
-52.417
-51.623
-50.766
-49.857
-48.905
-47.92
-46.91
-45.884
-44.85
-43.814
-42.784
-41.765
-40.763
-39.782
-38.828
-37.904
-37.013
-36.157
-35.34
-34.561
-33.824
-33.127
-32.472
-31.859
-31.286
-30.755
-30.262
-29.809
-29.394
-29.017
-28.675
-28.368
-28.094
-27.853
-27.642
-27.46
-27.306
-27.179
-27.078
-27.003
-26.951
-26.924
-26.92
-26.939
-26.98
-27.043
-27.125
-27.228
-27.351
-27.492
-27.652
-27.831
-28.027
-28.241
-28.473
-28.722
-28.986
-29.265
-29.557
-29.859
-30.17
-30.487
-30.806
-31.126
-31.443
-31.755
-32.059
-32.352
-32.631
-32.891
-33.129
-33.339
-33.517
-33.659
-33.758
-33.811
-33.816
-33.768
-33.666
-33.506
-33.286
-33.004
-32.659
-32.249
-31.772
-31.226
-30.61
-29.925
-29.175
-28.36
-27.485
-26.553
-25.572
-24.55
-23.493
-22.407
-21.298
-20.173
-19.035
-17.892
-16.746
-15.601
-14.463
-13.338
-12.236
-11.167
-10.141
-9.166
-8.249
-7.398
-6.615
-5.905
-5.269
-4.699
-4.196
-3.763
-3.406
-3.145
-2.986
-2.926
-2.963
-3.088
-3.278
-3.504
-3.717
-3.854
-3.874
-3.754
-3.477
-3.055
-2.485
-1.756
-0.875
0.172
1.394
2.785
4.354
6.098
7.959
9.838
11.583
13.008
13.979
14.4
14.189
13.316
11.747
9.478
6.588
3.148
-0.778
-5.152
-9.987
-15.234
-20.711
-26.122
-31.07
-35.126
-37.959
-39.183
-38.312
-35.075
-29.418
-21.627
-12.431
-2.476
7.873
18.227
28.069
37.177
45.786
54.887
66.325
81.597
101.346
125.817
155.161
189.053
225.926
262.383
293.257
313.605
319.825
309.105
278.916
226.967
152.734
58.885
-48.923
-164.308
-281.566
-395.49
-500.775
-590.825
-659.683
-704.523
-725.395
-723.95
-702.397
-662.618
-606.791
-539.929
-468.234
-396.519
-328.475
-266.12
-210.32
-162.754
-125.377
-97.66
-77.503
-62.621
-50.28
-39.179
-29.261
-19.629
-8.879
3.364
16.762
30.29
42.049
51.165
57.793
61.904
63.446
62.517
59.257
54.339
49.038
44.247
40.393
37.743
36.302
36.115
37.332
39.928
43.701
48.432
53.904
59.943
66.477
73.415
80.609
87.878
94.985
101.734
108.007
113.74
118.913
123.502
127.482
130.857
133.675
136.014
137.958
139.572
140.901
142
142.941
143.813
144.724
145.749
146.934
148.313
149.902
151.721
153.786
156.094
158.626
161.363
164.29
167.396
170.678
174.124
177.711
181.416
185.213
189.081
193.002
196.956
200.921
204.877
208.804
212.685
216.506
220.247
223.888
227.404
230.774
233.974
236.984
239.782
242.345
244.654
246.693
248.445
249.897
251.038
251.854
252.338
252.483
252.283
251.735
250.837
249.59
247.996
246.059
243.787
241.187
238.27
235.045
231.526
227.728
223.665
219.356
214.817
210.067
205.126
200.016
194.758
189.373
183.885
178.315
172.686
167.022
161.344
155.674
150.033
144.442
138.919
133.484
128.155
122.947
117.878
112.96
108.207
103.633
99.246
95.058
91.075
87.304
83.752
80.422
77.317
74.439
71.788
69.364
67.166
65.189
63.431
61.886
60.549
59.413
58.47
57.713
57.132
56.718
56.462
56.354
56.383
56.538
56.811
57.188
57.662
58.22
58.853
59.551
60.304
61.103
61.94
62.806
63.693
64.594
65.502
66.411
67.315
68.21
69.09
69.951
70.79
71.603
72.388
73.143
73.866
74.556
75.211
75.832
76.419
76.971
77.489
77.974
78.426
78.846
79.235
79.594
79.924
80.225
80.499
80.746
80.968
81.165
81.337
81.484
81.608
81.708
81.783
81.833
81.858
81.856
81.828
81.772
81.689
81.578
81.439
81.27
81.073
80.846
80.588
80.301
79.982
79.631
79.25
78.839
78.399
77.932
77.438
76.921
76.384
75.828
75.258
74.675
74.083
73.485
72.885
72.288
71.697
71.118
70.555
70.016
69.507
69.031
68.596
68.204
67.859
67.565
67.326
67.144
67.022
66.963
66.969
67.042
67.184
67.397
67.679
68.029
68.444
68.92
69.455
70.04
70.669
71.333
72.027
72.745
73.481
74.23
74.985
75.741
76.496
77.243
77.974
78.679
79.348
79.971
80.54
81.046
81.483
81.847
82.133
82.341
82.478
82.543
82.532
82.437
82.241
81.936
81.525
81.011
80.403
79.723
79.002
78.288
77.647
77.116
76.72
76.473
76.366
76.401
76.59
76.928
77.428
78.099
78.936
79.95
81.137
82.436
83.743
84.905
85.732
86.092
85.889
85.041
83.518
81.289
78.353
74.794
70.69
66.103
61.068
55.568
49.653
43.517
37.47
31.917
27.29
23.925
22.208
22.635
25.47
30.741
38.134
46.879
56.308
66.068
75.767
84.9
93.286
101.167
109.556
120.331
134.941
154.016
177.807
206.419
239.472
275.334
310.466
339.726
358.332
362.554
349.509
316.583
261.321
183.558
86.482
-24.234
-142.263
-261.471
-376.429
-481.318
-568.852
-633.779
-674.164
-690.194
-683.784
-657.701
-614.06
-555.9
-489.306
-419.695
-350.986
-286.714
-228.451
-176.787
-133.438
-99.653
-74.057
-55.141
-41.189
-29.585
-19.423
-10.587
-1.931
7.64
18.17
29.581
41.025
50.722
58.052
63.068
65.592
65.655
63.391
58.952
53.068
46.942
41.372
36.793
33.457
31.378
30.619
31.286
33.311
36.476
40.538
45.291
50.583
56.312
62.372
68.586
74.73
80.609
86.066
90.994
95.355
99.126
102.28
104.818
106.776
108.196
109.161
109.746
110
109.986
109.774
109.443
109.101
108.834
108.7
108.739
108.978
109.428
110.106
111.015
112.137
113.459
114.964
116.639
118.481
120.478
122.612
124.859
127.193
129.591
132.032
134.499
136.97
139.424
141.843
144.208
146.507
148.72
150.827
152.805
154.63
156.279
157.732
158.965
159.956
160.685
161.134
161.287
161.129
160.649
159.834
158.675
157.163
155.292
153.06
150.463
147.5
144.174
140.488
136.448
132.061
127.337
122.285
116.919
111.252
105.3
99.078
92.605
85.898
78.978
71.866
64.584
57.153
49.596
41.936
34.197
26.402
18.573
10.732
2.902
-4.896
-12.643
-20.32
-27.906
-35.386
-42.743
-49.961
-57.027
-63.927
-70.65
-77.185
-83.523
-89.657
-95.58
-101.287
-106.774
-112.038
-117.077
-121.893
-126.485
-130.856
-135.008
-138.947
-142.677
-146.205
-149.537
-152.682
-155.646
-158.441
-161.073
-163.554
-165.893
-168.101
-170.187
-172.161
-174.036
-175.819
-177.523
-179.156
-180.728
-182.249
-183.728
-185.174
-186.594
-187.997
-189.391
-190.782
-192.178
-193.583
-195.004
-196.447
-197.915
-199.413
-200.945
-202.514
-204.123
-205.775
-207.472
-209.217
-211.01
-212.853
-214.748
-216.696
-218.699
-220.755
-222.868
-225.037
-227.262
-229.545
-231.886
-234.285
-236.743
-239.259
-241.835
-244.471
-247.166
-249.92
-252.734
-255.606
-258.538
-261.527
-264.573
-267.675
-270.833
-274.043
-277.306
-280.618
-283.977
-287.381
-290.826
-294.307
-297.822
-301.366
-304.932
-308.516
-312.111
-315.711
-319.309
-322.897
-326.466
-330.01
-333.518
-336.982
-340.393
-343.74
-347.013
-350.203
-353.3
-356.292
-359.172
-361.927
-364.549
-367.028
-369.354
-371.519
-373.514
-375.329
-376.959
-378.395
-379.632
