33.407
31.812
30.192
28.551
26.896
25.23
23.561
21.894
20.237
18.597
16.982
15.402
13.864
12.378
10.952
9.595
8.313
7.112
6
4.983
4.068
3.258
2.56
1.979
1.52
1.186
0.98
0.904
0.957
1.137
1.442
1.867
2.406
3.054
3.801
4.642
5.57
6.579
7.663
8.815
10.029
11.296
12.608
13.955
15.323
16.699
18.069
19.422
20.748
22.041
23.294
24.503
25.664
26.779
27.844
28.85
29.786
30.633
31.379
32.023
32.571
33.035
33.441
33.822
34.218
34.672
35.215
35.862
36.613
37.453
38.374
39.375
40.47
41.677
43.008
44.474
46.063
47.754
49.483
51.132
52.563
53.627
54.198
54.199
53.594
52.364
50.511
48.062
45.035
41.49
37.483
33.038
28.197
23.006
17.614
12.325
7.497
3.513
0.742
-0.547
-0.062
2.591
7.523
14.55
23.271
32.899
42.763
52.621
62.008
70.244
77.302
83.559
90.04
98.716
110.902
126.891
147.173
172.107
200.6
230.436
257.75
277.14
284.352
276.434
250.366
203.459
134.937
46.417
-57.595
-170.479
-286.171
-399.338
-504.279
-594.394
-663.829
-709.318
-730.437
-728.956
-707.225
-667.26
-611.511
-544.939
-473.634
-402.485
-335.213
-273.793
-219.073
-172.666
-136.422
-109.794
-90.67
-76.744
-65.316
-55.086
-45.965
-37.044
-26.895
-15.143
-2.155
11.028
22.524
31.468
38.012
42.117
43.698
42.837
39.679
34.895
29.752
25.122
21.409
18.863
17.486
17.314
18.49
20.984
24.589
29.087
34.266
39.961
46.107
52.62
59.357
66.141
72.738
78.956
84.682
89.854
94.453
98.458
101.846
104.624
106.843
108.582
109.924
110.936
111.66
112.152
112.483
112.741
113.033
113.435
113.994
114.745
115.707
116.899
118.341
120.032
121.954
124.09
126.426
128.953
131.672
134.569
137.628
140.825
144.137
147.546
151.037
154.589
158.184
161.801
165.424
169.035
172.62
176.162
179.638
183.027
186.305
189.451
192.442
195.256
197.871
200.267
202.425
204.328
205.963
207.314
208.369
209.116
209.548
209.656
209.435
208.88
207.99
206.763
205.202
203.31
201.092
198.556
195.707
192.557
189.117
185.4
181.419
177.19
172.729
168.054
163.184
158.138
152.936
147.599
142.149
136.605
130.992
125.328
119.637
113.938
108.252
102.597
96.994
91.461
86.014
80.671
75.446
70.355
65.412
60.629
56.018
51.588
47.35
43.312
39.479
35.859
32.454
29.269
26.305
23.562
21.042
18.741
16.658
14.789
13.129
11.673
10.413
9.343
8.455
7.738
7.186
6.786
6.53
6.406
6.405
6.514
6.723
7.021
7.396
7.837
8.333
8.871
9.442
10.034
10.637
11.24
11.833
12.407
12.953
13.462
13.926
14.337
14.688
14.972
15.183
15.316
15.364
15.325
15.194
14.969
14.649
14.231
13.715
13.1
12.387
11.576
10.668
9.665
8.568
7.381
6.106
4.749
3.313
1.803
0.226
-1.413
-3.107
-4.849
-6.632
-8.449
-10.293
-12.156
-14.03
-15.906
-17.775
-19.628
-21.455
-23.248
-24.996
-26.693
-28.331
-29.902
-31.401
-32.822
-34.159
-35.406
-36.559
-37.613
-38.564
-39.408
-40.141
-40.762
-41.271
-41.669
-41.955
-42.134
-42.208
-42.182
-42.062
-41.855
-41.565
-41.198
-40.757
-40.25
-39.684
-39.066
-38.4
-37.695
-36.96
-36.206
-35.445
-34.688
-33.94
-33.208
-32.497
-31.812
-31.158
-30.539
-29.95
-29.397
-28.886
-28.428
-28.047
-27.756
-27.551
-27.428
-27.371
-27.353
-27.355
-27.345
-27.28
-27.135
-26.893
-26.551
-26.131
-25.637
-25.066
-24.408
-23.627
-22.693
-21.622
-20.427
-19.153
-17.905
-16.777
-15.892
-15.418
-15.468
-16.126
-17.445
-19.412
-21.998
-25.171
-28.879
-33.111
-37.876
-43.137
-48.828
-54.788
-60.725
-66.346
-71.293
-75.174
-77.583
-78.037
-76.306
-72.465
-66.844
-60.106
-52.829
-45.255
-37.83
-31.237
-25.535
-20.399
-14.788
-6.682
5.05
20.572
40.284
64.472
92.521
122.9
151.904
174.074
185.581
183.626
165.446
128.738
71.465
-6.532
-101.466
-207.145
-318.352
-429.891
-536.67
-633.447
-713.25
-770.917
-805.213
-816.926
-807.353
-778.738
-733.027
-672.96
-604.629
-533.577
-463.43
-397.324
-337.051
-283.439
-238.235
-202.823
-175.768
-155.369
-139.971
-127.158
-115.973
-106.255
-96.849
-86.5
-75.157
-62.966
-50.726
-40.212
-32.05
-26.123
-22.631
-21.647
-23.04
-26.692
-31.905
-37.362
-42.258
-46.194
-48.882
-50.338
-50.511
-49.262
-46.667
-42.968
-38.388
-33.144
-27.386
-21.149
-14.528
-7.673
-0.773
5.917
12.215
18.026
23.286
27.977
32.078
35.569
38.474
40.866
42.824
44.427
45.736
46.785
47.632
48.352
49.032
49.777
50.661
51.724
53.001
54.511
56.269
58.29
60.566
63.071
65.786
68.697
71.793
75.071
78.517
82.109
85.826
89.645
93.543
97.505
101.509
105.535
109.563
113.575
117.554
121.488
125.357
129.141
132.82
136.371
139.773
143.007
146.051
148.886
151.493
153.855
155.959
157.791
159.341
160.597
161.552
162.199
162.533
162.551
162.252
161.634
160.7
159.453
157.9
156.046
153.898
151.468
148.765
145.802
142.593
139.151
135.492
131.632
127.589
123.381
119.025
114.542
109.949
105.268
100.517
95.716
90.886
86.043
81.208
76.397
71.628
66.917
62.279
57.729
53.281
48.947
44.74
40.671
36.749
32.983
29.382
25.952
22.698
19.626
16.739
14.04
11.53
9.211
7.081
5.141
3.387
1.817
0.428
-0.786
-1.829
-2.706
-3.425
-3.992
-4.415
-4.701
-4.859
-4.896
-4.821
-4.642
-4.369
-4.009
-3.572
-3.066
-2.499
-1.88
-1.217
-0.518
0.209
0.957
1.718
2.486
3.253
4.013
4.76
5.488
6.192
6.866
7.506
8.107
8.664
9.174
9.633
10.038
10.386
10.674
10.902
11.067
11.169
11.207
11.181
11.09
10.936
10.718
10.439
10.099
9.699
9.243
8.731
8.168
7.556
6.899
6.201
5.464
4.695
3.898
3.078
2.24
1.388
0.53
-0.33
-1.183
-2.024
-2.845
-3.639
-4.399
-5.119
-5.792
-6.413
-6.976
-7.477
-7.913
-8.278
-8.57
-8.786
-8.922
-8.978
-8.951
-8.84
-8.646
-8.369
-8.012
-7.578
-7.069
-6.489
-5.842
-5.136
-4.378
-3.573
-2.727
-1.844
-0.933
-0.002
0.94
1.884
2.825
3.754
4.66
5.532
6.361
7.142
7.873
8.549
9.17
9.729
10.224
10.654
11.021
11.323
11.556
11.705
11.757
11.711
11.578
11.381
11.136
10.852
10.547
10.248
9.985
9.783
9.651
9.579
9.572
9.644
9.811
10.111
10.582
11.225
12.02
12.916
13.847
14.752
15.546
16.111
16.334
16.12
15.418
14.237
12.56
10.38
7.734
4.609
1.011
-3.01
-7.423
-12.095
-16.782
-21.251
-25.187
-28.203
-29.995
-30.18
-28.369
-24.529
-18.789
-11.537
-3.555
4.622
12.665
19.964
26.061
31.072
35.555
40.902
48.909
60.529
76.186
96.371
120.97
148.655
176.514
200.006
214.46
216.18
202.213
169.786
116.57
42.369
-49.817
-154.614
-266.244
-378.983
-487.537
-586.216
-668.045
-727.97
-764.31
-777.44
-768.828
-740.828
-695.48
-635.733
-567.579
-496.452
-426.09
-359.716
-299.14
-245.232
-199.73
-163.989
-136.618
-115.961
-100.371
-87.436
-76.178
-66.416
-56.992
-46.653
-35.358
-23.252
-11.135
-0.793
7.148
12.807
15.985
16.62
14.857
10.817
5.208
-0.64
-5.921
-10.229
-13.274
-15.073
-15.573
-14.63
-12.323
-8.896
-4.575
0.418
5.927
11.91
18.268
24.844
31.444
37.811
43.761
49.199
54.059
58.322
61.969
64.976
67.37
69.224
70.617
71.63
72.326
72.742
72.939
72.995
72.999
73.059
73.249
73.613
74.185
74.986
76.033
77.342
78.907
80.704
82.716
84.93
87.337
89.936
92.715
95.652
98.729
101.921
105.212
108.584
112.018
115.495
118.996
122.505
126.006
129.486
132.927
136.309
139.612
142.812
145.89
148.824
151.594
154.179
156.56
158.72
160.643
162.317
163.729
164.867
165.721
166.284
166.549
166.512
166.17
165.521
164.565
163.304
161.743
159.886
157.74
155.312
152.613
149.653
146.445
143
139.335
135.463
131.401
127.167
122.778
118.253
113.61
108.869
104.049
99.169
94.249
89.307
84.362
79.431
74.532
69.68
64.893
60.185
55.569
51.06
46.669
42.409
38.289
34.319
30.507
26.86
23.385
20.087
16.97
14.037
11.289
8.73
6.357
4.17
2.169
0.348
-1.294
-2.763
-4.064
-5.202
-6.184
-7.017
-7.708
-8.265
-8.697
-9.011
-9.216
-9.322
-9.336
-9.267
-9.125
-8.918
-8.654
-8.341
-7.987
-7.601
-7.189
-6.759
-6.317
-5.87
-5.425
-4.987
-4.561
-4.154
-3.769
-3.411
-3.082
-2.788
-2.529
-2.31
-2.132
-1.997
-1.908
-1.865
-1.87
-1.924
-2.026
-2.176
-2.374
-2.618
-2.909
-3.244
-3.622
-4.042
-4.502
-5.001
-5.538
-6.109
-6.713
-7.347
-8.008
-8.692
-9.395
-10.115
-10.847
-11.586
-12.329
-13.073
-13.813
-14.546
-15.267
-15.97
-16.652
-17.307
-17.929
-18.513
-19.052
-19.542
-19.979
-20.359
-20.68
-20.937
-21.128
-21.25
-21.301
-21.278
-21.179
-21.002
-20.743
-20.404
-19.984
-19.486
-18.911
-18.262
-17.543
-16.76
-15.919
-15.025
-14.084
-13.1
-12.077
-11.02
-9.934
-8.824
-7.693
-6.549
-5.398
-4.25
-3.116
-2.005
-0.925
0.12
1.125
2.087
3.003
3.872
4.698
5.48
6.211
6.88
7.468
7.964
8.369
8.689
8.933
9.127
9.3
9.49
9.741
10.087
10.538
11.099
11.754
12.494
13.326
14.257
15.308
16.496
17.825
19.284
20.852
22.455
23.969
25.255
26.148
26.513
26.276
25.379
23.803
21.55
18.636
15.107
11.017
6.397
1.261
-4.364
-10.408
-16.658
-22.778
-28.405
-33.119
-36.57
-38.409
-38.193
-35.721
-31.069
-24.562
-16.887
-8.69
-0.257
7.961
15.282
21.684
27.534
33.772
42.29
54.367
70.311
90.685
115.987
145.305
176.666
206.41
229.119
240.528
237.602
217.063
175.968
113.041
29.089
-71.912
-183.417
-299.555
-414.842
-523.266
-618.543
-694.615
-747.37
-775.916
-781.694
-766.48
-732.657
-683.094
-621.49
-553.317
-483.47
-415.268
-351.228
-293.01
-241.504
-197.95
-163.272
-136.276
-115.463
-99.364
-85.948
-74.26
-64.06
-54.34
-43.917
-32.713
-20.893
-9.188
0.774
8.383
13.76
16.727
17.192
15.305
11.224
5.649
-0.124
-5.304
-9.51
-12.464
-14.177
-14.599
-13.597
-11.253
-7.816
-3.508
1.455
6.924
12.866
19.178
25.702
32.244
38.544
44.419
49.776
54.551
58.722
62.27
65.176
67.467
69.221
70.519
71.439
72.044
72.37
72.476
72.44
72.353
72.318
72.411
72.674
73.142
73.838
74.778
75.977
77.43
79.113
81.008
83.103
85.389
87.865
90.519
93.33
96.28
99.348
102.515
105.765
109.081
112.443
115.834
119.237
122.638
126.022
129.374
132.673
135.9
139.032
142.049
144.931
147.657
150.206
152.559
154.7
156.612
158.281
159.694
160.84
161.707
162.288
162.576
162.565
162.251
161.631
160.705
159.475
157.943
156.113
153.991
151.584
148.901
145.951
142.746
139.298
135.62
131.728
127.637
123.363
118.925
114.34
109.625
104.802
99.888
94.903
89.868
84.8
79.72
74.645
69.593
64.583
59.63
54.751
49.961
45.275
40.707
36.268
31.971
27.827
23.845
20.033
16.4
12.952
9.695
6.632
3.767
1.102
-1.362
-3.625
-5.687
-7.551
-9.219
-10.695
-11.984
-13.091
-14.022
-14.785
-15.386
-15.833
-16.137
-16.304
-16.345
-16.27
-16.087
-15.807
-15.439
-14.994
-14.481
-13.909
-13.289
-12.629
-11.939
-11.226
-10.501
-9.771
-9.044
-8.327
-7.628
-6.952
-6.305
-5.694
-5.123
-4.597
-4.121
-3.698
-3.333
-3.027
-2.785
-2.607
-2.494
-2.448
-2.469
-2.556
-2.709
-2.927
-3.208
-3.551
-3.954
-4.414
-4.93
-5.499
-6.117
-6.78
-7.484
-8.226
-8.999
-9.8
-10.624
-11.464
-12.316
-13.175
-14.037
-14.896
-15.746
-16.581
-17.395
-18.181
-18.933
-19.644
-20.308
-20.919
-21.472
-21.963
-22.388
-22.743
-23.025
-23.231
-23.358
-23.403
-23.364
-23.239
-23.028
-22.729
-22.344
-21.875
-21.325
-20.697
-19.997
-19.228
-18.399
-17.516
-16.583
-15.606
-14.588
-13.535
-12.452
-11.347
-10.222
-9.086
-7.947
-6.814
-5.698
-4.612
-3.56
-2.548
-1.58
-0.656
0.217
1.038
1.81
2.531
3.195
3.793
4.304
4.716
5.034
5.266
5.429
5.557
5.67
5.795
5.976
6.235
6.585
7.032
7.552
8.133
8.784
9.513
10.353
11.337
12.452
13.679
14.981
16.257
17.416
18.351
18.904
18.965
18.468
17.361
15.655
13.383
10.549
7.195
3.351
-0.987
-5.772
-10.96
-16.456
-22.006
-27.322
-32.093
-35.908
-38.448
-39.387
-38.293
-35.035
-29.765
-22.809
-14.874
-6.595
1.792
9.792
16.707
22.529
27.638
33.083
40.88
52.345
67.799
87.818
112.881
142.042
173.271
202.765
224.984
235.567
231.434
209.349
166.434
101.604
15.927
-86.446
-198.802
-315.071
-429.671
-536.514
-629.283
-702.155
-751.333
-776.132
-778.241
-759.67
-722.956
-671.173
-608.147
-539.226
-469.127
-401.008
-337.227
-279.35
-228.2
-184.918
-150.382
-123.476
-102.806
-87.012
-74.11
-63.13
-53.801
-45.075
-35.749
-25.686
-14.987
-4.343
4.67
11.475
16.187
18.621
18.699
16.571
12.421
6.992
1.536
-3.204
-6.878
-9.255
-10.354
-10.126
-8.469
-5.494
-1.463
3.379
8.825
14.74
21.064
27.679
34.396
40.984
47.223
52.972
58.152
62.728
66.685
70.003
72.689
74.798
76.405
77.589
78.425
78.96
79.248
79.362
79.39
79.436
79.588
79.9
80.413
81.15
82.13
83.367
84.863
86.596
88.549
90.709
93.064
95.612
98.343
101.239
104.28
107.443
110.707
114.057
117.473
120.937
124.431
127.936
131.437
134.922
138.374
141.773
145.098
148.326
151.437
154.41
157.224
159.856
162.288
164.502
166.481
168.212
169.682
170.877
171.788
172.406
172.723
172.735
172.437
171.828
170.906
169.673
168.133
166.29
164.151
161.724
159.016
156.04
152.808
149.333
145.629
141.712
137.598
133.305
128.851
124.255
119.537
114.716
109.813
104.847
99.839
94.808
89.773
84.754
79.768
74.832
69.964
65.179
60.492
55.918
51.469
47.158
42.996
38.992
35.157
31.496
28.017
24.725
21.625
18.719
16.009
13.497
11.182
9.062
7.137
5.402
3.854
2.487
1.296
0.275
-0.583
-1.285
-1.841
-2.258
-2.546
-2.713
-2.769
-2.723
-2.586
-2.366
-2.074
-1.718
-1.307
-0.852
-0.36
0.159
0.698
1.247
1.801
2.351
2.89
3.412
3.911
4.381
4.818
5.217
5.573
5.882
6.141
6.347
6.496
6.587
6.616
6.582
6.484
6.321
6.093
5.801
5.443
5.022
4.537
3.991
3.384
2.718
1.993
1.214
0.381
-0.501
-1.43
-2.401
-3.411
-4.455
-5.528
-6.626
-7.744
-8.877
-10.022
-11.173
-12.325
-13.472
-14.607
-15.725
-16.817
-17.878
-18.9
-19.876
-20.801
-21.668
-22.474
-23.214
-23.882
-24.474
-24.987
-25.415
-25.755
-26.004
-26.158
-26.216
-26.176
-26.04
-25.809
-25.486
-25.074
-24.576
-24.001
-23.352
-22.635
-21.853
-21.011
-20.113
-19.164
-18.167
-17.129
-16.056
-14.957
-13.841
-12.72
-11.608
-10.511
-9.439
-8.396
-7.388
-6.42
-5.493
-4.606
-3.764
-2.974
-2.25
-1.61
-1.065
-0.617
-0.262
0.011
0.224
0.412
0.607
0.853
1.178
1.591
2.09
2.661
3.292
3.982
4.741
5.584
6.522
7.563
8.697
9.904
11.118
12.218
13.067
13.517
13.442
12.767
11.454
9.478
6.845
3.581
-0.288
-4.698
-9.596
-14.962
-20.758
-26.946
-33.373
-39.73
-45.659
-50.771
-54.686
-57.133
-57.801
-56.279
-52.461
-46.538
-38.939
-30.491
-21.867
-13.306
-5.258
1.634
7.36
12.343
17.673
25.374
36.829
52.369
72.457
97.416
126.064
156.004
183.313
202.569
209.237
200.203
172.3
122.618
50.73
-41.235
-148.707
-264.924
-383.216
-497.91
-602.683
-690.187
-755.235
-795.39
-810.339
-802.242
-774.103
-728.256
-668.133
-599.75
-528.41
-458.143
-392.46
-332.843
-279.867
-235.122
-199.687
-172.238
-151.281
-135.129
-121.373
-109.145
-98.322
-87.831
-76.566
-64.491
-51.73
-39.108
-28.357
-20.094
-14.228
-10.918
-10.183
-11.862
-15.807
-21.299
-27.037
-32.214
-36.414
-39.356
-41.051
-41.442
-40.39
-37.966
-34.401
-29.916
-24.724
-18.979
-12.731
-6.085
0.798
7.718
14.415
20.703
26.477
31.672
36.27
40.247
43.58
46.296
48.462
50.155
51.455
52.422
53.093
53.527
53.801
54.006
54.251
54.61
55.129
55.842
56.773
57.937
59.351
61.01
62.891
64.977
67.255
69.717
72.362
75.179
78.148
81.249
84.459
87.761
91.138
94.571
98.043
101.534
105.028
108.51
111.969
115.387
118.745
122.023
125.2
128.256
131.172
133.926
136.499
138.873
141.031
142.958
144.642
146.07
147.232
148.119
148.723
149.04
149.065
148.795
148.23
147.371
146.22
144.782
143.063
141.07
138.811
136.297
133.539
130.55
127.344
123.934
120.337
116.569
112.648
108.59
104.416
100.143
95.791
91.378
86.925
82.45
77.972
73.508
69.075
64.691
60.37
56.129
51.981
47.938
44.013
40.218
36.561
33.053
29.701
26.512
23.49
20.641
17.968
15.474
13.16
11.027
9.073
7.297
5.698
4.271
3.013
1.918
0.982
0.197
-0.443
-0.946
-1.319
-1.57
-1.708
-1.742
-1.681
-1.533
-1.307
-1.013
-0.659
-0.253
0.195
0.679
1.189
1.719
2.262
2.811
3.361
3.904
4.435
4.949
5.442
5.909
6.345
6.747
7.112
7.437
7.72
7.959
8.15
8.294
8.388
8.43
8.421
8.359
8.245
8.078
7.858
7.588
7.268
6.9
6.484
6.023
5.517
4.969
4.381
3.755
3.092
2.394
1.666
0.909
0.128
-0.676
-1.497
-2.333
-3.179
-4.032
-4.887
-5.74
-6.587
-7.424
-8.245
-9.045
-9.816
-10.554
-11.252
-11.904
-12.504
-13.048
-13.53
-13.947
-14.296
-14.573
-14.775
-14.899
-14.942
-14.903
-14.778
-14.567
-14.269
-13.883
-13.412
-12.858
-12.224
-11.513
-10.729
-9.878
-8.966
-8
-6.984
-5.922
-4.819
-3.682
-2.52
-1.34
-0.147
1.051
2.244
3.421
4.568
5.676
6.744
7.766
8.739
9.66
10.522
11.323
12.069
12.754
13.374
13.914
14.349
14.673
14.894
15.024
15.087
15.102
15.081
15.054
15.061
15.12
15.246
15.433
15.648
15.902
16.214
16.605
17.132
17.817
18.641
19.585
20.593
21.576
22.461
23.124
23.405
23.223
22.511
21.246
19.481
17.208
14.434
11.189
7.449
3.209
-1.492
-6.595
-11.931
-17.215
-22.164
-26.42
-29.595
-31.339
-31.214
-29.037
-24.947
-19.239
-12.546
-5.475
1.743
8.678
14.659
19.711
24.294
29.417
37.063
48.567
64.205
84.549
110.083
139.859
171.879
202.405
225.978
238.298
236.349
216.911
177.069
115.645
33.565
-65.14
-173.878
-286.662
-398.086
-502.264
-592.815
-663.857
-711.458
-734.708
-735.516
-716.21
-679.197
-627.439
-565.099
-497.633
-430.168
-366.445
-308.118
-255.946
-210.694
-173.236
-143.912
-121.427
-103.582
-88.097
-73.847
-60.726
-48.628
-36.991
-24.912
-12.275
0.071
10.688
18.652
23.96
26.925
27.796
26.485
23.008
17.921
12.279
7.041
2.733
-0.435
-2.47
-3.296
-2.753
-0.829
2.326
6.487
11.425
16.978
23.071
29.605
36.432
43.363
50.156
56.61
62.601
68.053
72.927
77.207
80.87
83.922
86.415
88.419
90.012
91.265
92.222
92.938
93.483
93.946
94.43
95.015
95.75
96.671
97.8
99.154
100.747
102.581
104.635
106.892
109.339
111.966
114.77
117.742
120.864
124.115
127.474
130.922
134.443
138.02
141.636
145.272
148.911
152.539
156.144
159.71
163.216
166.642
169.966
173.168
176.227
179.122
181.831
184.335
186.617
188.66
190.45
191.973
193.217
194.17
194.824
195.17
195.204
194.92
194.315
193.389
192.142
190.576
188.696
186.508
184.017
181.233
178.166
174.828
171.23
167.387
163.315
159.028
154.545
149.885
145.065
140.106
135.027
129.848
124.592
119.278
113.926
108.558
103.191
97.846
92.54
87.293
82.121
77.041
72.067
67.215
62.498
57.929
53.52
49.28
45.22
41.346
37.667
34.187
30.912
27.844
24.985
22.337
19.9
17.671
15.648
13.828
12.207
10.778
9.536
8.474
7.583
6.855
6.282
5.854
5.561
5.393
5.339
5.389
5.533
5.758
6.055
6.413
6.821
7.268
7.744
8.239
8.743
9.247
9.74
10.216
10.665
11.081
11.456
11.786
12.064
12.285
12.447
12.545
12.577
12.541
12.436
12.261
12.016
11.701
11.317
10.867
10.352
9.775
9.139
8.446
7.7
6.906
6.069
5.192
4.282
3.344
2.386
1.414
0.437
-0.54
-1.508
-2.46
-3.389
-4.287
-5.148
-5.967
-6.739
-7.458
-8.12
-8.72
-9.256
-9.725
-10.126
-10.456
-10.714
-10.902
-11.018
-11.065
-11.045
-10.959
-10.808
-10.596
-10.325
-10.001
-9.626
-9.206
-8.746
-8.253
-7.736
-7.204
-6.666
-6.132
-5.612
-5.112
-4.642
-4.209
-3.814
-3.461
-3.152
-2.889
-2.675
-2.513
-2.404
-2.35
-2.354
-2.418
-2.542
-2.729
-2.973
-3.275
-3.634
-4.051
-4.526
-5.059
-5.64
-6.265
-6.929
-7.619
-8.316
-8.992
-9.606
-10.128
-10.539
-10.816
-10.942
-10.902
-10.683
-10.296
-9.781
-9.176
-8.531
-7.895
-7.299
-6.808
-6.495
-6.441
-6.729
-7.391
-8.423
-9.837
-11.661
-13.913
-16.577
-19.528
-22.544
-25.409
-27.89
-29.787
-30.85
-30.678
-29.045
-25.944
-21.574
-16.505
-11.262
-6.025
-1.138
2.867
6.052
8.846
12.205
17.98
27.462
40.987
59.019
81.838
108.403
136.708
163.312
183.324
192.881
189.289
169.728
131.726
74.492
-0.822
-90.476
-188.672
-290.159
-390.093
-482.966
-562.782
-624.364
-664.71
-683.575
-682.824
-664.6
-631.379
-586.65
-535.211
-482.299
-431.69
-385.34
-343.862
-307.344
-275.733
-248.562
-224.427
-201.322
-178.043
-154.297
-130.403
-107.145
-85.144
-64.845
-46.938
-32.208
-21.03
-13.427
-9.125
-7.533
-8.115
-10.414
-13.907
-18.135
-22.696
-27.193
-31.321
-34.822
-37.477
-39.15
-39.755
-39.229
-37.562
-34.787
-30.976
-26.282
-20.869
-14.892
-8.524
-1.906
4.804
11.409
17.754
23.705
29.166
34.098
38.476
42.275
45.503
48.195
50.397
52.19
53.643
54.811
55.762
56.565
57.295
58.046
58.886
59.862
61.012
62.358
63.914
65.697
67.706
69.925
72.344
74.946
77.72
80.66
83.754
86.982
90.326
93.762
97.268
100.83
104.43
108.048
111.666
115.266
118.833
122.353
125.809
129.181
132.448
135.588
138.58
141.404
144.039
146.464
148.659
150.608
152.296
153.708
154.832
155.657
156.174
156.373
156.25
155.8
155.02
153.909
152.467
150.698
148.605
146.196
143.479
140.461
137.153
133.568
129.72
125.622
121.29
116.742
111.995
107.068
101.981
96.755
91.41
85.967
80.448
74.875
69.269
63.651
58.041
52.46
46.925
41.456
36.072
30.787
25.619
20.582
15.69
10.957
6.394
2.011
-2.182
-6.178
-9.968
-13.548
-16.913
-20.06
-22.986
-25.69
-28.173
-30.437
-32.483
-34.315
-35.937
-37.356
-38.578
-39.609
-40.458
-41.133
-41.643
-41.998
-42.207
-42.281
-42.23
-42.064
-41.796
-41.434
-40.991
-40.476
-39.902
-39.277
-38.613
-37.919
-37.204
-36.478
-35.751
-35.03
-34.323
-33.64
-32.985
-32.366
-31.789
-31.257
-30.776
-30.349
-29.979
-29.667
-29.416
-29.227
-29.1
-29.035
-29.032
-29.09
-29.206
-29.379
-29.606
-29.882
-30.205
-30.571
-30.975
-31.411
-31.875
-32.361
-32.865
-33.38
-33.901
-34.419
-34.929
-35.422
-35.893
-36.332
-36.735
-37.094
-37.404
-37.661
-37.86
-37.997
-38.069
-38.072
-38.004
-37.862
-37.646
-37.353
-36.983
-36.536
-36.013
-35.418
-34.753
-34.021
-33.225
-32.371
-31.465
-30.514
-29.523
-28.498
-27.441
-26.361
-25.266
-24.164
-23.062
-21.966
-20.882
-19.82
-18.793
-17.807
-16.867
-15.976
-15.135
-14.347
-13.617
-12.947
-12.339
-11.788
-11.294
-10.864
-10.515
-10.26
-10.104
-10.035
-10.03
-10.077
-10.164
-10.273
-10.377
-10.445
-10.45
-10.385
-10.261
-10.081
-9.839
-9.517
-9.072
-8.464
-7.684
-6.751
-5.714
-4.634
-3.571
-2.607
-1.858
-1.444
-1.466
-1.973
-2.961
-4.418
-6.325
-8.658
-11.434
-14.686
-18.414
-22.558
-26.959
-31.393
-35.62
-39.363
-42.324
-44.105
-44.225
-42.466
-38.907
-33.856
-27.95
-21.755
-15.485
-9.512
-4.418
-0.176
3.66
8.137
15.194
26.205
41.524
61.548
86.555
115.511
146.382
175.646
198.212
209.983
208.087
189.514
151.602
93.471
16.266
-76.178
-177.8
-283.089
-386.95
-483.505
-566.414
-630.267
-671.933
-691.218
-690.159
-671.051
-636.521
-590.25
-537.218
-482.838
-430.998
-383.632
-341.278
-303.933
-271.45
-243.349
-218.213
-193.991
-169.474
-144.374
-119.034
-94.3
-70.852
-49.157
-29.931
-13.979
-1.683
6.906
12.045
14.317
14.25
12.32
9.084
5.015
0.536
-3.942
-8.105
-11.674
-14.408
-16.172
-16.88
-16.468
-14.931
-12.294
-8.622
-4.065
1.213
7.054
13.279
19.744
26.288
32.711
38.852
44.573
49.775
54.418
58.485
61.95
64.825
67.146
68.962
70.356
71.403
72.159
72.696
73.084
73.401
73.743
74.184
74.771
75.543
76.524
77.727
79.17
80.853
82.76
84.879
87.195
89.694
92.371
95.214
98.202
101.315
104.528
107.82
111.174
114.571
117.993
121.421
124.837
128.223
131.569
134.856
138.065
141.175
144.165
147.014
149.704
152.214
154.525
156.618
158.479
160.093
161.45
162.537
163.345
163.867
164.095
164.026
163.656
162.987
162.016
160.747
159.184
157.334
155.203
152.801
150.138
147.224
144.072
140.697
137.112
133.334
129.378
125.262
121.003
116.621
112.133
107.559
102.919
98.23
93.512
88.784
84.064
79.368
74.714
70.117
65.592
61.154
56.815
52.589
48.486
44.518
40.692
37.019
33.504
30.155
26.975
23.969
21.141
18.491
16.021
13.731
11.62
9.687
7.93
6.344
4.926
3.672
2.575
1.629
0.829
0.167
-0.364
-0.771
-1.062
-1.246
-1.329
-1.32
-1.226
-1.057
-0.82
-0.524
-0.175
0.218
0.647
1.106
1.587
2.083
2.589
3.099
3.606
4.106
4.592
5.06
5.505
5.922
6.309
6.661
6.975
7.25
7.484
7.675
7.821
7.922
7.977
7.985
7.947
7.861
7.729
7.551
7.328
7.062
6.755
6.409
6.027
5.612
5.168
4.697
4.204
3.69
3.161
2.62
2.071
1.519
0.971
0.43
-0.096
-0.603
-1.083
-1.534
-1.95
-2.327
-2.662
-2.952
-3.193
-3.381
-3.515
-3.591
-3.608
-3.561
-3.45
-3.274
-3.033
-2.73
-2.365
-1.943
-1.465
-0.936
-0.364
0.247
0.894
1.571
2.277
3.006
3.754
4.514
5.284
6.057
6.826
7.582
8.314
9.013
9.675
10.296
10.871
11.4
11.878
12.304
12.682
13.008
13.278
13.483
13.604
13.63
13.568
13.424
13.218
12.982
12.739
12.519
12.371
12.316
12.368
12.534
12.795
13.142
13.587
14.132
14.808
15.647
16.632
17.749
18.959
20.154
21.237
22.093
22.555
22.516
21.909
20.674
18.827
16.401
13.406
9.912
5.956
1.539
-3.283
-8.477
-13.932
-19.372
-24.503
-28.972
-32.34
-34.278
-34.433
-32.391
-28.09
-21.728
-13.717
-4.854
4.253
13.309
21.776
29.212
35.779
42.064
49.372
59.459
73.261
91.096
113.38
139.906
169.236
198.514
223.303
238.988
241.98
229.415
198.59
147.34
75.565
-13.809
-115.462
-223.713
-333.021
-438.21
-533.803
-613.168
-671.487
-707.249
-720.94
-714.023
-688.808
-647.26
-592.104
-528.99
-463.012
-397.576
-335.732
-279.184
-228.696
-185.977
-152.383
-126.63
-107.251
-92.755
-80.809
-70.481
-61.596
-53.007
-43.562
-33.229
-22.125
-11.04
-1.656
5.456
10.383
12.95
13.166
11.187
7.184
1.896
-3.477
-8.205
-11.912
-14.373
-15.602
-15.537
-14.073
-11.294
-7.428
-2.706
2.672
8.568
14.9
21.548
28.328
35.01
41.384
47.314
52.712
57.542
61.79
65.432
68.468
70.944
72.917
74.458
75.633
76.489
77.077
77.467
77.742
78.003
78.335
78.792
79.412
80.218
81.225
82.448
83.887
85.526
87.348
89.34
91.495
93.81
96.277
98.88
101.6
104.414
107.304
110.254
113.248
116.268
119.297
122.32
125.324
128.298
131.228
134.096
136.884
139.573
142.144
144.578
146.858
148.963
150.878
152.587
154.077
155.336
156.352
157.116
157.62
157.855
157.817
157.503
156.908
156.033
154.877
153.443
151.734
149.756
147.515
145.018
142.275
139.295
136.091
132.674
129.059
125.259
121.288
117.164
112.903
108.522
104.039
99.471
94.835
90.152
85.437
80.708
75.983
71.278
66.608
61.989
57.435
52.961
48.578
44.3
40.137
36.101
32.201
28.445
24.84
21.395
18.115
15.003
12.065
9.304
6.72
4.317
2.092
0.046
-1.822
-3.516
-5.038
-6.393
-7.584
-8.618
-9.5
-10.236
-10.834
-11.299
-11.641
-11.866
-11.983
-12
-11.925
-11.766
-11.532
-11.23
-10.869
-10.457
-10
-9.508
-8.987
-8.444
-7.887
-7.323
-6.759
-6.199
-5.651
-5.12
-4.611
-4.129
-3.677
-3.26
-2.883
-2.548
-2.258
-2.017
-1.828
-1.691
-1.609
-1.582
-1.611
-1.697
-1.837
-2.034
-2.285
-2.59
-2.949
-3.359
-3.82
-4.33
-4.887
-5.488
-6.13
-6.809
-7.523
-8.267
-9.036
-9.826
-10.632
-11.452
-12.28
-13.111
-13.942
-14.766
-15.578
-16.372
-17.142
-17.881
-18.583
-19.243
-19.855
-20.416
-20.922
-21.369
-21.755
-22.075
-22.329
-22.511
-22.621
-22.656
-22.613
-22.491
-22.291
-22.014
-21.663
-21.24
-20.748
-20.194
-19.582
-18.92
-18.212
-17.462
-16.674
-15.853
-15.003
-14.129
-13.235
-12.327
-11.412
-10.499
-9.6
-8.724
-7.878
-7.068
-6.298
-5.571
-4.891
-4.257
-3.666
-3.118
-2.619
-2.179
-1.818
-1.545
-1.362
-1.264
-1.239
-1.264
-1.307
-1.33
-1.285
-1.14
-0.88
-0.5
-0.014
0.569
1.251
2.039
2.951
4.006
5.21
6.556
8.026
9.548
11
12.245
13.116
13.481
13.26
12.392
10.855
8.654
5.812
2.386
-1.568
-6.017
-10.949
-16.343
-22.132
-28.104
-33.925
-39.234
-43.612
-46.715
-48.189
-47.583
-44.701
-39.628
-32.707
-24.658
-16.129
-7.387
1.137
8.804
15.632
22.035
28.994
38.436
51.627
68.836
90.554
117.172
147.677
179.993
210.402
233.538
245.206
242.499
222.314
181.845
119.98
37.704
-60.952
-169.471
-281.984
-393.241
-497.507
-588.521
-660.413
-709.21
-733.966
-736.493
-718.981
-683.7
-633.443
-572.227
-505.506
-438.469
-374.913
-316.585
-264.34
-219.004
-181.561
-152.451
-130.371
-113.071
-98.211
-84.586
-72.043
-60.459
-49.226
-37.401
-24.875
-12.527
-1.837
6.228
11.644
14.716
15.68
14.437
10.995
5.916
0.262
-5.002
-9.351
-12.58
-14.696
-15.624
-15.203
-13.418
-10.42
-6.432
-1.68
3.677
9.568
15.894
22.507
29.222
35.8
42.043
47.833
53.09
57.78
61.888
65.39
68.292
70.643
72.513
73.977
75.103
75.936
76.528
76.95
77.286
77.64
78.09
78.683
79.453
80.421
81.602
83.01
84.644
86.484
88.511
90.711
93.074
95.595
98.266
101.067
103.976
106.972
110.036
113.15
116.298
119.461
122.622
125.765
128.874
131.939
134.943
137.87
140.698
143.409
145.982
148.4
150.643
152.693
154.533
156.147
157.522
158.647
159.512
160.107
160.425
160.46
160.207
159.664
158.83
157.705
156.291
154.592
152.612
150.36
147.842
145.069
142.049
138.796
135.322
131.641
127.768
123.719
119.51
115.159
110.684
106.102
101.434
96.697
91.911
87.095
82.267
77.447
72.651
67.896
63.199
58.574
54.037
49.601
45.28
41.083
37.023
33.11
29.352
25.756
22.331
19.08
16.009
13.121
10.419
7.904
5.575
3.434
1.477
-0.297
-1.892
-3.312
-4.561
-5.647
-6.575
-7.352
-7.986
-8.485
-8.858
-9.113
-9.26
-9.306
-9.262
-9.137
-8.938
-8.677
-8.36
-7.997
-7.596
-7.165
-6.712
-6.244
-5.768
-5.292
-4.82
-4.359
-3.913
-3.487
-3.087
-2.714
-2.373
-2.066
-1.797
-1.567
-1.377
-1.229
-1.125
-1.063
-1.044
-1.068
-1.135
-1.243
-1.392
-1.582
-1.811
-2.078
-2.384
-2.725
-3.101
-3.51
-3.951
-4.421
-4.918
-5.441
-5.988
-6.557
-7.146
-7.754
-8.38
-9.02
-9.675
-10.34
-11.015
-11.697
-12.383
-13.072
-13.76
-14.446
-15.126
-15.799
-16.461
-17.113
-17.749
-18.367
-18.964
-19.534
-20.075
-20.581
-21.05
-21.476
-21.857
-22.19
-22.473
-22.704
-22.882
-23.003
-23.067
-23.072
-23.017
-22.902
-22.725
-22.485
-22.184
-21.824
-21.409
-20.94
-20.42
-19.854
-19.247
-18.605
-17.933
-17.235
-16.514
-15.773
-15.017
-14.255
-13.49
-12.726
-11.969
-11.227
-10.508
-9.824
-9.18
-8.578
-8.02
-7.506
-7.038
-6.619
-6.248
-5.92
-5.635
-5.396
-5.215
-5.114
-5.099
-5.16
-5.285
-5.448
-5.627
-5.814
-5.976
-6.072
-6.084
-5.996
-5.814
-5.57
-5.253
-4.847
-4.33
-3.646
-2.776
-1.739
-0.551
0.731
2.019
3.242
4.277
4.963
5.213
4.957
4.168
2.892
1.117
-1.158
-3.907
-7.16
-10.925
-15.167
-19.832
-24.76
-29.675
-34.306
-38.3
-41.274
-42.876
-42.667
-40.455
-36.364
-30.671
-23.977
-16.862
-9.543
-2.446
3.759
9.077
13.94
19.319
27.15
38.724
54.288
74.391
99.531
128.819
160.371
190.567
214.009
226.492
225.055
206.495
167.943
108.113
27.68
-69.531
-177.134
-289.437
-401.111
-506.328
-599.006
-673.214
-724.856
-752.969
-758.895
-744.298
-711.472
-663.174
-602.929
-536.077
-467.442
-400.343
-337.375
-280.267
-229.936
-187.667
-154.46
-129.168
-110.325
-96.45
-85.378
-76.039
-68.111
-60.488
-51.942
-42.363
-31.878
-21.228
-12.071
-5.036
-0.044
2.683
3.058
1.223
-2.653
-7.836
-13.08
-17.648
-21.189
-23.469
-24.507
-24.253
-22.6
-19.654
-15.668
-10.876
-5.481
0.389
6.676
13.263
19.97
26.572
32.854
38.679
43.97
48.689
52.82
56.341
59.256
61.613
63.479
64.929
66.031
66.83
67.378
67.743
68.009
68.277
68.634
69.132
69.809
70.689
71.787
73.118
74.684
76.464
78.441
80.602
82.936
85.442
88.111
90.925
93.864
96.906
100.031
103.225
106.468
109.744
113.034
116.322
119.594
122.839
126.042
129.184
132.245
135.205
138.045
140.744
143.285
145.645
147.809
149.758
151.479
152.96
154.188
155.153
155.844
156.255
156.381
156.216
155.757
155.004
153.957
152.617
150.989
149.079
146.893
144.439
141.726
138.766
135.572
132.155
128.531
124.715
120.722
116.571
112.278
107.862
103.343
98.737
94.066
89.348
84.602
79.847
75.101
70.381
65.705
61.088
56.546
52.094
47.745
43.512
39.408
35.443
31.627
27.969
24.476
21.155
18.012
15.05
12.273
9.682
7.279
5.063
3.034
1.188
-0.476
-1.964
-3.279
-4.428
-5.416
-6.251
-6.94
-7.491
-7.911
-8.21
-8.397
-8.479
-8.467
-8.369
-8.195
-7.953
-7.653
-7.302
-6.909
-6.483
-6.031
-5.56
-5.077
-4.59
-4.104
-3.625
-3.157
-2.706
-2.276
-1.87
-1.491
-1.141
-0.823
-0.539
-0.288
-0.072
0.108
0.252
0.36
0.432
0.47
0.472
0.441
0.377
0.281
0.155
-0.001
-0.185
-0.397
-0.636
-0.901
-1.192
-1.506
-1.844
-2.205
-2.586
-2.988
-3.408
-3.847
-4.303
-4.776
-5.264
-5.767
-6.285
-6.817
-7.363
-7.921
-8.49
-9.069
-9.656
-10.249
-10.846
-11.445
-12.044
-12.639
-13.23
-13.813
-14.385
-14.943
-15.484
-16.002
-16.493
-16.953
-17.376
-17.758
-18.095
-18.384
-18.62
-18.802
-18.928
-18.993
-18.996
-18.934
-18.806
-18.61
-18.345
-18.007
-17.599
-17.121
-16.576
-15.965
-15.293
-14.562
-13.778
-12.948
-12.077
-11.169
-10.23
-9.262
-8.271
-7.262
-6.241
-5.212
-4.182
-3.157
-2.148
-1.165
-0.217
0.692
1.556
2.374
3.143
3.859
4.523
5.137
5.698
6.203
6.643
7
7.262
7.435
7.528
7.557
7.556
7.547
7.559
7.634
7.793
8.049
8.408
8.851
9.37
9.973
10.664
11.474
12.437
13.542
14.77
16.084
17.375
18.546
19.491
20.053
20.128
19.65
18.558
16.863
14.598
11.774
8.449
4.654
0.378
-4.34
-9.46
-14.876
-20.31
-25.464
-30.015
-33.553
-35.769
-36.339
-34.818
-31.103
-25.387
-18.056
-9.894
-1.544
6.789
14.665
21.449
27.171
32.261
37.806
45.821
57.603
73.404
93.648
118.605
147.116
176.881
204.087
223.441
230.575
222.514
196.209
148.861
80.004
-8.393
-111.974
-224.236
-338.757
-450.087
-552.132
-637.753
-701.84
-741.896
-757.474
-750.543
-723.932
-679.816
-621.429
-554.608
-484.546
-415.243
-350.285
-291.264
-238.833
-194.648
-159.866
-133.218
-113.266
-98.353
-85.983
-75.198
-65.806
-56.659
-46.641
-35.717
-23.991
-12.281
-2.316
5.301
10.639
13.514
13.935
12.076
8.118
2.821
-2.579
-7.336
-11.061
-13.518
-14.718
-14.599
-13.052
-10.166
-6.179
-1.324
4.198
10.244
16.733
23.537
30.468
37.288
43.785
49.817
55.295
60.182
64.464
68.113
71.135
73.574
75.491
76.958
78.045
78.8
79.276
79.548
79.702
79.843
80.059
80.408
80.927
81.644
82.573
83.73
85.117
86.717
88.513
90.494
92.651
94.983
97.482
100.131
102.91
105.799
108.776
111.827
114.934
118.079
121.246
124.418
127.582
130.728
133.84
136.901
139.89
142.789
145.577
148.235
150.744
153.083
155.233
157.179
158.905
160.4
161.649
162.643
163.37
163.823
163.996
163.883
163.481
162.787
161.8
160.522
158.957
157.108
154.981
152.584
149.925
147.014
143.863
140.484
136.89
133.095
129.115
124.966
120.666
116.232
111.683
107.036
102.311
97.528
92.706
87.863
83.017
78.187
73.39
68.643
63.963
59.363
54.86
50.466
46.195
42.058
38.068
34.232
30.561
27.061
23.739
20.601
17.651
14.891
12.325
9.952
7.774
5.789
3.994
2.388
0.965
-0.279
-1.35
-2.253
-2.998
-3.59
-4.039
-4.353
-4.542
-4.615
-4.581
-4.451
-4.234
-3.94
-3.58
-3.163
-2.697
-2.194
-1.661
-1.106
-0.539
0.033
0.603
1.165
1.711
2.237
2.736
3.206
3.641
4.039
4.397
4.712
4.982
5.207
5.386
5.518
5.602
5.641
5.633
5.581
5.485
5.348
5.171
4.957
4.706
4.423
4.108
3.763
3.391
2.993
2.571
2.128
1.665
1.184
0.688
0.178
-0.344
-0.876
-1.418
-1.968
-2.525
-3.089
-3.658
-4.232
-4.809
-5.389
-5.969
-6.55
-7.129
-7.705
-8.276
-8.84
-9.397
-9.945
-10.482
-11.007
-11.518
-12.012
-12.485
-12.935
-13.358
-13.751
-14.109
-14.43
-14.711
-14.951
-15.146
-15.296
-15.397
-15.448
-15.448
-15.394
-15.285
-15.119
-14.896
-14.614
-14.276
-13.883
-13.438
-12.942
-12.4
-11.816
-11.197
-10.546
-9.869
-9.167
-8.444
-7.704
-6.95
-6.189
-5.424
-4.658
-3.9
-3.157
-2.439
-1.754
-1.107
-0.502
0.061
0.58
1.051
1.475
1.855
2.191
2.476
2.705
2.858
2.923
2.908
2.821
2.679
2.516
2.353
2.216
2.15
2.175
2.302
2.539
2.865
3.27
3.763
4.352
5.066
5.939
6.957
8.104
9.341
10.567
11.684
12.59
13.129
13.196
12.729
11.67
10.026
7.829
5.082
1.834
-1.88
-6.07
-10.695
-15.711
-21.02
-26.355
-31.423
-35.912
-39.42
-41.639
-42.254
-40.826
-37.236
-31.66
-24.458
-16.381
-8.077
0.243
8.113
14.85
20.476
25.408
30.729
38.498
50.03
65.608
85.752
110.837
139.806
170.498
199.031
219.932
228.915
222.987
199.06
154.372
88
1.386
-101.071
-212.79
-327.712
-440.482
-545.357
-635.653
-705.35
-750.99
-772.002
-770.073
-747.518
-706.343
-649.004
-580.554
-507.254
-434.171
-365.175
-302.344
-246.586
-199.563
-163.173
-136.82
-118.275
-105.113
-94.525
-85.135
-76.819
-68.611
-59.02
-47.671
-34.967
-21.993
-10.685
-1.936
4.409
8.29
9.598
8.408
4.872
-0.322
-5.879
-10.91
-15.013
-17.932
-19.664
-20.169
-19.303
-17.097
-13.767
-9.534
-4.61
0.842
6.762
13.07
19.624
26.247
32.706
38.807
44.436
49.531
54.071
58.032
61.389
64.149
66.362
68.106
69.464
70.5
71.254
71.779
72.142
72.43
72.746
73.165
73.73
74.472
75.41
76.56
77.94
79.547
81.361
83.362
85.537
87.875
90.373
93.021
95.8
98.687
101.66
104.702
107.799
110.932
114.084
117.239
120.38
123.494
126.57
129.592
132.543
135.403
138.154
140.776
143.251
145.562
147.69
149.617
151.329
152.813
154.057
155.05
155.783
156.248
156.438
156.348
155.975
155.318
154.374
153.146
151.637
149.85
147.793
145.471
142.892
140.065
137.002
133.714
130.213
126.514
122.63
118.577
114.372
110.031
105.571
101.011
96.369
91.662
86.91
82.129
77.339
72.557
67.798
63.081
58.419
53.829
49.324
44.919
40.624
36.453
32.417
28.524
24.785
21.207
17.797
14.56
11.503
8.629
5.94
3.439
1.126
-0.998
-2.935
-4.686
-6.255
-7.645
-8.86
-9.907
-10.792
-11.52
-12.101
-12.541
-12.849
-13.034
-13.105
-13.071
-12.942
-12.727
-12.436
-12.079
-11.665
-11.205
-10.706
-10.179
-9.633
-9.076
-8.516
-7.961
-7.419
-6.897
-6.401
-5.937
-5.512
-5.128
-4.793
-4.509
-4.279
-4.108
-3.997
-3.948
-3.963
-4.041
-4.183
-4.389
-4.659
-4.99
-5.382
-5.834
-6.343
-6.907
-7.525
-8.192
-8.906
-9.663
-10.459
-11.291
-12.153
-13.043
-13.956
-14.887
-15.833
-16.79
-17.753
-18.719
-19.683
-20.64
-21.585
-22.515
-23.425
-24.31
-25.167
-25.991
-26.779
-27.527
-28.234
-28.895
-29.508
-30.068
-30.574
-31.02
-31.404
-31.722
-31.972
-32.152
-32.26
-32.296
-32.259
-32.15
-31.967
-31.712
-31.385
-30.987
-30.519
-29.982
-29.377
-28.708
-27.979
-27.193
-26.357
-25.474
-24.552
-23.596
-22.615
-21.616
-20.603
-19.581
-18.554
-17.526
-16.504
-15.491
-14.492
-13.512
-12.556
-11.633
-10.75
-9.916
-9.134
-8.406
-7.733
-7.113
-6.551
-6.043
-5.585
-5.178
-4.824
-4.528
-4.308
-4.173
-4.116
-4.127
-4.188
-4.263
-4.328
-4.356
-4.301
-4.144
-3.869
-3.471
-2.969
-2.374
-1.678
-0.876
0.061
1.167
2.431
3.833
5.333
6.823
8.204
9.366
10.153
10.455
10.204
9.34
7.87
5.83
3.229
0.124
-3.457
-7.525
-12.045
-16.981
-22.23
-27.518
-32.546
-36.992
-40.441
-42.582
-43.087
-41.507
-37.738
-31.977
-24.62
-16.46
-8.159
0.071
7.786
14.344
19.786
24.578
29.856
37.691
49.446
65.42
86.072
111.709
141.152
172.015
200.375
220.803
228.776
221.197
194.913
147.035
77.115
-12.756
-118.065
-232.103
-348.225
-460.795
-563.555
-649.237
-712.733
-751.659
-765.74
-757.162
-728.957
-683.481
-624.151
-556.912
-486.982
-418.307
-354.292
-296.332
-244.937
-201.612
-167.376
-140.899
-120.685
-105.068
-91.706
-79.767
-69.149
-58.819
-47.7
-35.767
-23.163
-10.702
-0.07
8.135
14.006
17.387
18.251
16.75
13.034
7.803
2.316
-2.648
-6.688
-9.533
-11.192
-11.609
-10.651
-8.385
-5.038
-0.818
4.069
9.477
15.359
21.617
28.095
34.604
40.893
46.786
52.182
57.02
61.283
64.95
68
70.459
72.393
73.877
74.989
75.788
76.309
76.612
76.77
76.871
77.021
77.293
77.731
78.368
79.226
80.32
81.667
83.261
85.08
87.105
89.325
91.73
94.32
97.081
99.993
103.036
106.187
109.427
112.738
116.101
119.497
122.906
126.311
129.696
133.048
136.351
139.583
142.725
145.755
148.652
151.398
153.971
156.352
158.522
160.465
162.167
163.614
164.795
165.699
166.318
166.645
166.674
166.401
165.826
164.946
163.764
162.284
160.509
158.447
156.104
153.492
150.619
147.499
144.145
140.571
136.793
132.826
128.688
124.397
119.971
115.43
110.793
106.078
101.306
96.497
91.669
86.843
82.035
77.264
72.546
67.898
63.335
58.872
54.521
50.296
46.209
42.268
38.485
34.867
31.421
28.154
25.069
22.17
19.461
16.942
14.613
12.475
10.525
8.761
7.178
5.774
4.542
3.477
2.572
1.82
1.213
0.743
0.402
0.181
0.07
0.061
0.144
0.311
0.551
0.856
1.217
1.624
2.07
2.546
3.044
3.557
4.078
4.6
5.116
5.622
6.112
6.581
7.025
7.442
7.826
8.177
8.491
8.767
9.004
9.199
9.354
9.466
9.536
9.563
9.548
9.49
9.391
9.252
9.072
8.854
8.599
8.309
7.984
7.628
7.241
6.827
6.386
5.923
5.438
4.935
4.415
3.881
3.336
2.782
2.222
1.657
1.089
0.521
-0.044
-0.605
-1.158
-1.702
-2.234
-2.749
-3.244
-3.716
-4.159
-4.572
-4.948
-5.285
-5.577
-5.823
-6.02
-6.164
-6.254
-6.287
-6.262
-6.178
-6.034
-5.831
-5.569
-5.249
-4.871
-4.439
-3.955
-3.421
-2.841
-2.217
-1.552
-0.851
-0.118
0.642
1.425
2.226
3.04
3.857
4.669
5.469
6.247
6.995
7.706
8.371
8.985
9.544
10.048
10.495
10.883
11.211
11.477
11.681
11.822
11.897
11.905
11.847
11.724
11.541
11.301
11.006
10.655
10.249
9.79
9.285
8.742
8.163
7.559
6.95
6.361
5.836
5.408
5.089
4.894
4.841
4.938
5.204
5.636
6.197
6.857
7.569
8.288
8.986
9.605
10.062
10.271
10.134
9.597
8.686
7.405
5.746
3.714
1.288
-1.459
-4.329
-7.149
-9.695
-11.732
-13.077
-13.405
-12.297
-9.589
-5.318
0.19
6.213
12.241
18.011
23.023
26.887
29.735
32.139
35.484
41.6
51.58
65.913
85.038
108.782
135.758
163.175
186.788
202.139
205.659
194.452
165.782
117.489
49.541
-35.234
-131.873
-234.952
-339.107
-439.033
-528.732
-601.534
-652.991
-681.935
-689.322
-677.119
-647.956
-604.805
-552.11
-496.13
-441.632
-391.154
-345.965
-306.226
-271.747
-242.445
-217.187
-193.511
-169.85
-145.667
-120.979
-96.661
-73.496
-51.87
-32.502
-16.345
-3.864
4.813
9.853
11.893
11.508
9.184
5.526
1.038
-3.854
-8.717
-13.231
-17.128
-20.163
-22.192
-23.128
-22.897
-21.491
-18.934
-15.285
-10.699
-5.345
0.61
6.974
13.595
20.31
26.915
33.248
39.173
44.584
49.443
53.729
57.415
60.509
63.046
65.071
66.665
67.905
68.847
69.565
70.132
70.628
71.151
71.776
72.552
73.519
74.701
76.113
77.772
79.679
81.82
84.182
86.752
89.518
92.474
95.609
98.903
102.335
105.88
109.516
113.226
116.991
120.791
124.607
128.419
132.21
135.967
139.672
143.303
146.837
150.252
153.526
156.635
159.56
162.277
164.765
167.007
168.986
170.687
172.097
173.203
173.993
174.46
174.595
174.394
173.853
172.97
171.744
170.178
168.276
166.045
163.491
160.623
157.452
153.989
150.248
146.244
141.993
137.511
132.817
127.928
122.867
117.652
112.306
106.85
101.304
95.692
90.035
84.355
78.672
73.006
67.377
61.806
56.309
50.904
45.608
40.437
35.405
30.526
25.812
21.274
16.921
12.764
8.808
5.06
1.525
-1.794
-4.894
-7.773
-10.432
-12.871
-15.093
-17.1
-18.897
-20.49
-21.883
-23.083
-24.099
-24.938
-25.609
-26.121
-26.484
-26.708
-26.803
-26.779
-26.646
-26.416
-26.099
-25.706
-25.247
-24.732
-24.172
-23.576
-22.953
-22.313
-21.665
-21.016
-20.374
-19.746
-19.139
-18.561
-18.016
-17.511
-17.05
-16.638
-16.278
-15.973
-15.726
-15.538
-15.411
-15.344
-15.34
-15.397
-15.516
-15.694
-15.932
-16.226
-16.575
-16.977
-17.427
-17.923
-18.46
-19.035
-19.643
-20.279
-20.939
-21.617
-22.31
-23.011
-23.717
-24.421
-25.116
-25.797
-26.456
-27.088
-27.686
-28.244
-28.757
-29.218
-29.626
-29.976
-30.265
-30.49
-30.647
-30.735
-30.752
-30.696
-30.566
-30.363
-30.084
-29.733
-29.311
-28.824
-28.273
-27.663
-26.997
-26.282
-25.525
-24.731
-23.906
-23.051
-22.175
-21.284
-20.389
-19.496
-18.61
-17.739
-16.893
-16.084
-15.322
-14.612
-13.955
-13.352
-12.805
-12.318
-11.895
-11.534
-11.23
-10.985
-10.805
-10.704
-10.7
-10.793
-10.967
-11.203
-11.482
-11.797
-12.132
-12.456
-12.732
-12.941
-13.078
-13.16
-13.201
-13.177
-13.061
-12.813
-12.39
-11.784
-11.013
-10.106
-9.102
-8.067
-7.084
-6.284
-5.804
-5.722
-6.078
-6.853
-8.037
-9.666
-11.738
-14.256
-17.222
-20.62
-24.431
-28.586
-32.934
-37.227
-41.148
-44.321
-46.384
-46.981
-45.753
-42.628
-37.718
-31.322
-24.086
-16.511
-8.911
-1.785
4.483
10.067
15.565
22.165
31.439
44.243
60.89
81.788
106.762
134.521
162.44
186.427
202.26
206.626
196.799
170.117
124.475
59.652
-21.842
-115.241
-215.447
-317.439
-416.172
-505.993
-580.477
-635.169
-668.718
-681.777
-675.887
-653.249
-616.423
-569.391
-518.023
-466.846
-418.321
-373.851
-333.808
-298.228
-267.249
-239.899
-213.895
-187.793
-161.112
-133.908
-107.032
-81.241
-56.933
-34.86
-16.052
-1.077
9.869
16.909
20.605
21.498
20.04
16.781
12.284
7.026
1.455
-4.012
-9.05
-13.375
-16.758
-19.062
-20.191
-20.092
-18.756
-16.233
-12.628
-8.095
-2.8
3.103
9.451
16.081
22.807
29.408
35.698
41.549
46.874
51.631
55.796
59.35
62.303
64.707
66.629
68.145
69.322
70.213
70.88
71.399
71.854
72.34
72.932
73.675
74.606
75.747
77.113
78.718
80.559
82.615
84.867
87.301
89.905
92.673
95.593
98.645
101.807
105.055
108.369
111.734
115.129
118.535
121.934
125.308
128.642
131.923
135.134
138.258
141.273
144.159
146.896
149.465
151.847
154.021
155.971
157.68
159.135
160.325
161.238
161.864
162.197
162.229
161.956
161.377
160.489
159.292
157.79
155.986
153.885
151.495
148.825
145.884
142.682
139.234
135.553
131.653
127.551
123.263
118.805
114.198
109.46
104.61
99.669
94.655
89.59
84.494
79.386
74.286
69.212
64.183
59.215
54.326
49.531
44.845
40.282
35.854
31.573
27.45
23.494
19.714
16.116
12.707
9.492
6.474
3.655
1.039
-1.376
-3.59
-5.605
-7.423
-9.047
-10.483
-11.735
-12.81
-13.715
-14.456
-15.042
-15.482
-15.784
-15.958
-16.013
-15.959
-15.807
-15.565
-15.244
-14.853
-14.402
-13.901
-13.357
-12.78
-12.178
-11.559
-10.93
-10.298
-9.671
-9.053
-8.452
-7.873
-7.32
-6.796
-6.307
-5.855
-5.443
-5.073
-4.748
-4.468
-4.237
-4.054
-3.92
-3.837
-3.802
-3.815
-3.875
-3.98
-4.129
-4.319
-4.549
-4.816
-5.118
-5.453
-5.819
-6.213
-6.633
-7.075
-7.536
-8.014
-8.504
-9.004
-9.509
-10.015
-10.521
-11.022
-11.516
-11.999
-12.468
-12.919
-13.348
-13.751
-14.123
-14.46
-14.756
-15.009
-15.214
-15.371
-15.477
-15.53
-15.529
-15.471
-15.357
-15.185
-14.954
-14.662
-14.31
-13.896
-13.424
-12.895
-12.312
-11.678
-10.997
-10.276
-9.519
-8.734
-7.925
-7.095
-6.249
-5.391
-4.524
-3.654
-2.783
-1.917
-1.061
-0.225
0.582
1.351
2.076
2.753
3.379
3.951
4.468
4.931
5.345
5.71
6.021
6.27
6.441
6.523
6.517
6.431
6.276
6.076
5.864
5.678
5.565
5.558
5.672
5.911
6.263
6.721
7.288
7.972
8.792
9.766
10.901
12.188
13.61
15.096
16.525
17.762
18.644
19.041
18.876
18.091
16.667
14.604
11.925
8.682
4.932
0.703
-3.992
-9.135
-14.663
-20.365
-25.912
-30.945
-35.051
-37.897
-39.139
-38.335
-35.3
-30.124
-23.157
-15.127
-6.686
1.903
10.218
17.636
24.202
30.35
37.077
46.328
59.382
76.511
98.195
124.785
155.21
187.34
217.441
240.146
251.26
247.906
227.043
185.964
123.728
41.477
-56.687
-164.222
-275.245
-384.553
-486.498
-574.967
-644.383
-691.07
-714.268
-715.914
-698.288
-663.675
-614.858
-555.784
-491.638
-427.306
-366.362
-310.386
-260.115
-216.317
-179.899
-151.256
-129.201
-111.661
-96.433
-82.418
-69.512
-57.607
-46.15
-34.262
-21.811
-9.608
0.932
8.895
14.262
17.32
18.311
17.155
13.861
8.964
3.49
-1.63
-5.885
-9.067
-11.182
-12.158
-11.838
-10.206
-7.403
-3.641
0.862
5.951
11.557
17.582
23.882
30.273
36.522
42.434
47.893
52.82
57.183
60.968
64.151
66.739
68.781
70.345
71.504
72.326
72.854
73.141
73.257
73.287
73.333
73.474
73.759
74.222
74.885
75.763
76.873
78.213
79.765
81.512
83.44
85.539
87.807
90.235
92.805
95.495
98.284
101.152
104.084
107.063
110.069
113.085
116.095
119.084
122.041
124.949
127.79
130.546
133.195
135.717
138.095
140.308
142.338
144.167
145.78
147.163
148.304
149.192
149.818
150.172
150.25
150.046
149.556
148.781
147.718
146.37
144.74
142.834
140.657
138.217
135.524
132.587
129.418
126.031
122.439
118.657
114.7
110.584
106.328
101.95
97.467
92.897
88.261
83.577
78.864
74.141
69.425
64.735
60.087
55.498
50.982
46.555
42.231
38.022
33.94
29.996
26.2
22.561
19.086
15.782
12.655
9.71
6.948
4.374
1.988
-0.209
-2.218
-4.041
-5.679
-7.137
-8.418
-9.528
-10.472
-11.257
-11.889
-12.376
-12.726
-12.947
-13.047
-13.037
-12.924
-12.719
-12.429
-12.065
-11.634
-11.147
-10.612
-10.036
-9.429
-8.797
-8.149
-7.49
-6.829
-6.17
-5.521
-4.886
-4.271
-3.68
-3.117
-2.587
-2.091
-1.634
-1.216
-0.841
-0.51
-0.225
0.014
0.205
0.349
0.444
0.492
0.493
0.448
0.36
0.23
0.058
-0.152
-0.399
-0.68
-0.995
-1.34
-1.715
-2.116
-2.54
-2.984
-3.446
-3.922
-4.41
-4.904
-5.402
-5.901
-6.398
-6.89
-7.374
-7.846
-8.302
-8.739
-9.152
-9.537
-9.89
-10.205
-10.479
-10.709
-10.892
-11.028
-11.113
-11.146
-11.126
-11.051
-10.921
-10.734
-10.488
-10.184
-9.82
-9.4
-8.924
-8.395
-7.818
-7.195
-6.531
-5.834
-5.11
-4.362
-3.594
-2.81
-2.014
-1.209
-0.401
0.409
1.215
2.012
2.79
3.54
4.254
4.926
5.552
6.129
6.655
7.128
7.55
7.926
8.256
8.536
8.756
8.901
8.959
8.933
8.828
8.655
8.44
8.216
8.019
7.899
7.886
7.996
8.233
8.583
9.04
9.607
10.291
11.11
12.082
13.215
14.5
15.92
17.398
18.811
20.022
20.864
21.208
20.975
20.105
18.572
16.379
13.549
10.136
6.198
1.761
-3.169
-8.568
-14.368
-20.351
-26.174
-31.474
-35.833
-38.906
-40.347
-39.701
-36.774
-31.668
-24.748
-16.752
-8.346
0.206
8.482
15.833
22.291
28.296
34.865
43.971
56.928
74.035
95.804
122.611
153.373
185.894
216.341
239.267
250.391
246.706
225.042
182.576
118.297
33.524
-67.383
-177.866
-291.941
-404.291
-509.203
-600.069
-670.834
-717.938
-740.801
-741.083
-721.016
-682.562
-628.076
-562.43
-491.789
-421.173
-354.389
-293.495
-239.391
-193.692
-158.268
-132.583
-114.455
-101.513
-91.003
-81.566
-73.09
-64.669
-54.887
-43.406
-30.642
-17.669
-6.384
2.332
8.622
12.438
13.694
12.483
8.962
3.807
-1.724
-6.769
-10.928
-13.945
-15.811
-16.479
-15.8
-13.8
-10.677
-6.638
-1.889
3.411
9.198
15.382
21.822
28.341
34.709
40.734
46.303
51.351
55.856
59.795
63.139
65.891
68.096
69.827
71.164
72.168
72.88
73.353
73.656
73.875
74.113
74.446
74.917
75.558
76.388
77.423
78.682
80.161
81.844
83.712
85.75
87.951
90.313
92.826
95.468
98.22
101.059
103.966
106.926
109.923
112.939
115.956
118.958
121.932
124.867
127.748
130.557
133.274
135.881
138.358
140.688
142.852
144.831
146.608
148.17
149.502
150.594
151.435
152.016
152.328
152.366
152.125
151.603
150.797
149.708
148.337
146.689
144.768
142.581
140.136
137.441
134.506
131.344
127.966
124.386
120.617
116.676
112.578
108.339
103.977
99.509
94.954
90.329
85.653
80.943
76.218
71.496
66.792
62.123
57.505
52.953
48.481
44.102
39.83
35.674
31.646
27.757
24.014
20.426
16.998
13.738
10.648
7.734
4.998
2.441
0.064
-2.132
-4.148
-5.987
-7.65
-9.141
-10.464
-11.623
-12.624
-13.472
-14.175
-14.739
-15.17
-15.478
-15.668
-15.75
-15.731
-15.62
-15.425
-15.155
-14.816
-14.419
-13.97
-13.477
-12.949
-12.392
-11.813
-11.22
-10.617
-10.011
-9.409
-8.814
-8.232
-7.669
-7.127
-6.611
-6.126
-5.673
-5.257
-4.879
-4.542
-4.248
-3.998
-3.795
-3.638
-3.531
-3.472
-3.463
-3.505
-3.596
-3.736
-3.924
-4.16
-4.44
-4.765
-5.133
-5.541
-5.987
-6.471
-6.989
-7.539
-8.12
-8.729
-9.362
-10.016
-10.688
-11.375
-12.072
-12.775
-13.481
-14.186
-14.886
-15.577
-16.254
-16.914
-17.551
-18.16
-18.736
-19.274
-19.769
-20.215
-20.608
-20.946
-21.225
-21.444
-21.599
-21.69
-21.714
-21.67
-21.558
-21.375
-21.122
-20.798
-20.403
-19.942
-19.415
-18.825
-18.178
-17.476
-16.727
-15.937
-15.113
-14.258
-13.379
-12.48
-11.566
-10.644
-9.719
-8.794
-7.877
-6.974
-6.094
-5.246
-4.439
-3.675
-2.958
-2.291
-1.674
-1.11
-0.598
-0.133
0.285
0.652
0.959
1.188
1.328
1.385
1.367
1.291
1.187
1.08
1
0.993
1.084
1.291
1.62
2.054
2.59
3.233
3.991
4.901
5.995
7.26
8.681
10.212
11.742
13.176
14.39
15.219
15.556
15.316
14.438
12.928
10.812
8.124
4.914
1.192
-3.06
-7.816
-13.01
-18.472
-23.903
-28.998
-33.409
-36.755
-38.648
-38.621
-36.433
-32.158
-26.125
-19.003
-11.406
-3.592
4.022
10.781
16.679
22.137
28.132
36.605
48.861
65.151
85.956
111.689
141.364
172.98
202.895
225.757
237.385
234.888
215.159
175.374
114.349
32.904
-65.074
-173.172
-285.641
-397.286
-502.409
-594.769
-668.401
-719.165
-745.969
-750.476
-734.729
-700.898
-651.677
-591.016
-524.427
-457.171
-393.115
-334.094
-281.029
-234.806
-196.475
-166.512
-143.584
-125.434
-109.723
-95.24
-81.85
-69.446
-57.429
-44.897
-31.787
-18.998
-8.018
0.185
5.601
8.544
9.265
7.695
3.873
-1.622
-7.711
-13.42
-18.217
-21.878
-24.4
-25.696
-25.595
-24.075
-21.28
-17.425
-12.739
-7.382
-1.432
5
11.757
18.644
25.41
31.851
37.839
43.292
48.171
52.456
56.121
59.17
61.652
63.634
65.191
66.392
67.284
67.922
68.38
68.747
69.129
69.608
70.233
71.04
72.05
73.277
74.737
76.428
78.329
80.421
82.691
85.127
87.727
90.481
93.369
96.369
99.46
102.62
105.835
109.087
112.358
115.629
118.886
122.115
125.304
128.439
131.501
134.472
137.332
140.061
142.642
145.056
147.283
149.307
151.113
152.687
154.02
155.1
155.917
156.464
156.735
156.725
156.432
155.853
154.988
153.838
152.406
150.697
148.717
146.473
143.972
141.226
138.244
135.039
131.624
128.012
124.218
120.258
116.148
111.906
107.548
103.092
98.557
93.961
89.322
84.659
79.988
75.326
70.69
66.097
61.56
57.094
52.714
48.431
44.259
40.207
36.287
32.508
28.879
25.406
22.096
18.955
15.987
13.196
10.584
8.152
5.901
3.831
1.941
0.229
-1.309
-2.677
-3.878
-4.918
-5.803
-6.538
-7.132
-7.592
-7.924
-8.137
-8.239
-8.239
-8.145
-7.965
-7.707
-7.381
-6.995
-6.556
-6.073
-5.553
-5.005
-4.435
-3.85
-3.258
-2.664
-2.074
-1.493
-0.927
-0.379
0.147
0.646
1.117
1.555
1.96
2.329
2.66
2.953
3.206
3.419
3.592
3.724
3.817
3.871
3.885
3.861
3.8
3.702
3.567
3.398
3.194
2.958
2.69
2.392
2.066
1.713
1.335
0.934
0.51
0.066
-0.398
-0.881
-1.381
-1.897
-2.427
-2.971
-3.526
-4.09
-4.662
-5.24
-5.821
-6.402
-6.983
-7.56
-8.132
-8.697
-9.25
-9.79
-10.312
-10.812
-11.287
-11.732
-12.143
-12.516
-12.85
-13.141
-13.387
-13.586
-13.737
-13.836
-13.884
-13.877
-13.815
-13.695
-13.516
-13.279
-12.983
-12.632
-12.225
-11.767
-11.26
-10.708
-10.118
-9.495
-8.841
-8.161
-7.458
-6.734
-5.995
-5.246
-4.49
-3.73
-2.975
-2.232
-1.51
-0.818
-0.159
0.464
1.049
1.594
2.098
2.559
2.983
3.368
3.708
3.996
4.214
4.349
4.41
4.402
4.343
4.265
4.189
4.147
4.182
4.318
4.568
4.938
5.41
5.98
6.656
7.44
8.362
9.447
10.679
12.041
13.487
14.908
16.204
17.257
17.903
18.037
17.586
16.49
14.76
12.414
9.469
5.998
2.029
-2.424
-7.29
-12.534
-18.024
-23.465
-28.575
-32.996
-36.287
-38.149
-38.223
-36.104
-31.746
-25.333
-17.291
-8.446
0.605
9.532
17.728
24.729
30.656
36.042
42.247
51.046
63.379
79.684
100.463
125.596
153.74
182.022
205.939
220.845
223.064
209.619
177.714
125.025
51.364
-40.252
-144.406
-255.265
-367.064
-474.467
-571.762
-652.005
-710.179
-744.696
-756.099
-746.019
-716.946
-671.05
-611.357
-543.854
-473.955
-405.309
-340.97
-282.602
-230.948
-187.603
-153.816
-128.149
-108.911
-94.486
-82.549
-72.173
-63.194
-54.483
-44.841
-34.258
-22.928
-11.652
-2.111
5.142
10.236
12.984
13.345
11.476
7.561
2.347
-2.939
-7.577
-11.211
-13.609
-14.781
-14.666
-13.156
-10.349
-6.488
-1.8
3.511
9.315
15.538
22.06
28.698
35.226
41.431
47.175
52.375
56.993
61.016
64.419
67.205
69.422
71.134
72.415
73.337
73.947
74.298
74.464
74.531
74.604
74.771
75.087
75.59
76.307
77.253
78.444
79.882
81.546
83.421
85.495
87.756
90.204
92.829
95.614
98.538
101.577
104.712
107.925
111.198
114.512
117.848
121.189
124.52
127.829
131.099
134.311
137.445
140.478
143.388
146.157
148.763
151.184
153.402
155.399
157.161
158.673
159.924
160.902
161.597
162.001
162.108
161.914
161.414
160.609
159.497
158.081
156.365
154.356
152.058
149.482
146.635
143.531
140.181
136.6
132.8
128.799
124.613
120.259
115.755
111.122
106.377
101.541
96.633
91.674
86.684
81.681
76.684
71.712
66.782
61.911
57.114
52.408
47.806
43.322
38.968
34.756
30.695
26.797
23.067
19.515
16.144
12.961
9.968
7.169
4.564
2.155
-0.059
-2.079
-3.909
-5.551
-7.009
-8.29
-9.398
-10.34
-11.123
-11.756
-12.246
-12.601
-12.831
-12.945
-12.951
-12.859
-12.678
-12.418
-12.087
-11.696
-11.253
-10.766
-10.244
-9.696
-9.129
-8.55
-7.967
-7.385
-6.812
-6.252
-5.711
-5.194
-4.705
-4.249
-3.829
-3.448
-3.109
-2.814
-2.565
-2.363
-2.21
-2.106
-2.051
-2.047
-2.093
-2.19
-2.336
-2.532
-2.776
-3.067
-3.403
-3.782
-4.203
-4.663
-5.16
-5.692
-6.256
-6.85
-7.472
-8.119
-8.79
-9.479
-10.186
-10.905
-11.634
-12.369
-13.107
-13.842
-14.573
-15.293
-16.002
-16.693
-17.365
-18.012
-18.629
-19.213
-19.758
-20.259
-20.712
-21.111
-21.453
-21.736
-21.956
-22.112
-22.202
-22.223
-22.176
-22.059
-21.871
-21.612
-21.281
-20.878
-20.405
-19.865
-19.26
-18.594
-17.872
-17.098
-16.279
-15.423
-14.536
-13.623
-12.69
-11.742
-10.785
-9.825
-8.868
-7.919
-6.983
-6.069
-5.185
-4.342
-3.548
-2.805
-2.118
-1.49
-0.92
-0.412
0.035
0.426
0.761
1.036
1.244
1.364
1.387
1.32
1.17
0.957
0.711
0.456
0.226
0.067
0.003
0.054
0.226
0.504
0.883
1.371
1.978
2.742
3.694
4.825
6.118
7.527
8.942
10.266
11.376
12.106
12.345
12.011
11.045
9.454
7.264
4.509
1.235
-2.548
-6.859
-11.67
-16.912
-22.417
-27.885
-33.01
-37.438
-40.783
-42.649
-42.571
-40.308
-35.93
-29.764
-22.461
-14.629
-6.531
1.401
8.493
14.714
20.472
26.728
35.409
47.82
64.224
85.144
111.063
141.053
173.17
203.793
227.508
240.064
238.47
219.466
180.12
119.154
37.293
-61.586
-171.003
-285.164
-398.647
-505.48
-599.431
-674.494
-726.551
-754.683
-760.336
-745.276
-711.884
-663.037
-602.391
-535.35
-466.752
-399.862
-337.165
-280.295
-230.102
-187.784
-154.249
-128.317
-108.537
-93.49
-81.137
-70.505
-61.336
-52.604
-43.162
-32.943
-22.09
-11.319
-2.216
4.646
9.37
11.776
11.81
9.641
5.461
0.007
-5.495
-10.321
-14.113
-16.637
-17.903
-17.855
-16.386
-13.597
-9.735
-5.031
0.312
6.163
12.451
19.055
25.787
32.416
38.724
44.571
49.875
54.597
58.72
62.223
65.106
67.42
69.23
70.613
71.637
72.351
72.806
73.075
73.245
73.418
73.683
74.093
74.685
75.486
76.508
77.768
79.265
80.979
82.892
84.99
87.263
89.707
92.314
95.065
97.939
100.913
103.967
107.083
110.246
113.434
116.632
119.822
122.99
126.124
129.211
132.23
135.162
137.987
140.684
143.236
145.621
147.82
149.816
151.592
153.134
154.431
155.471
156.243
156.738
156.951
156.876
156.508
155.847
154.89
153.64
152.099
150.271
148.164
145.784
143.139
140.24
137.098
133.727
130.139
126.349
122.372
118.225
113.926
109.492
104.942
100.295
95.569
90.784
85.96
81.116
76.27
71.441
66.645
61.9
57.221
52.625
48.126
43.737
39.471
35.339
31.353
27.522
23.855
20.358
17.04
13.903
10.953
8.193
5.625
3.249
1.065
-0.928
-2.732
-4.349
-5.785
-7.044
-8.131
-9.052
-9.816
-10.429
-10.899
-11.235
-11.446
-11.54
-11.527
-11.416
-11.216
-10.937
-10.589
-10.179
-9.718
-9.214
-8.675
-8.111
-7.528
-6.935
-6.337
-5.743
-5.156
-4.584
-4.032
-3.503
-3.003
-2.534
-2.101
-1.705
-1.35
-1.037
-0.767
-0.542
-0.361
-0.226
-0.135
-0.09
-0.089
-0.132
-0.219
-0.348
-0.52
-0.732
-0.983
-1.272
-1.597
-1.954
-2.344
-2.764
-3.211
-3.685
-4.183
-4.703
-5.243
-5.802
-6.377
-6.965
-7.564
-8.172
-8.785
-9.4
-10.015
-10.627
-11.232
-11.829
-12.415
-12.987
-13.542
-14.077
-14.586
-15.067
-15.514
-15.924
-16.291
-16.612
-16.884
-17.104
-17.269
-17.377
-17.425
-17.412
-17.335
-17.194
-16.986
-16.71
-16.364
-15.951
-15.47
-14.924
-14.317
-13.652
-12.932
-12.163
-11.352
-10.506
-9.627
-8.722
-7.792
-6.843
-5.879
-4.907
-3.93
-2.954
-1.987
-1.037
-0.117
0.766
1.603
2.393
3.13
3.815
4.442
5.01
5.523
5.98
6.375
6.702
6.94
7.077
7.12
7.077
6.967
6.823
6.667
6.527
6.448
6.453
6.556
6.762
7.052
7.414
7.857
8.391
9.046
9.858
10.814
11.898
13.075
14.244
15.313
16.18
16.688
16.73
16.248
15.183
13.545
11.369
8.657
5.458
1.804
-2.313
-6.851
-11.765
-16.962
-22.18
-27.126
-31.493
-34.875
-36.966
-37.451
-35.891
-32.16
-26.427
-19.036
-10.718
-2.114
6.563
14.852
22.069
28.23
33.735
39.647
48.004
60.109
76.25
96.951
122.587
152.119
183.421
212.64
234.316
244.189
239.277
216.497
173.107
108.141
22.951
-78.135
-188.603
-302.493
-414.536
-519.079
-609.553
-679.948
-726.739
-749.289
-749.204
-728.683
-689.635
-634.401
-567.866
-496.209
-424.478
-356.533
-294.474
-239.24
-192.493
-156.141
-129.662
-110.878
-97.402
-86.457
-76.674
-67.936
-59.323
-49.397
-37.799
-24.935
-11.872
-0.527
8.212
14.493
18.271
19.466
18.167
14.532
9.238
3.566
-1.606
-5.865
-8.953
-10.859
-11.538
-10.839
-8.787
-5.585
-1.449
3.41
8.826
14.733
21.041
27.606
34.248
40.731
46.861
52.522
57.648
62.218
66.206
69.586
72.362
74.581
76.318
77.656
78.659
79.37
79.842
80.146
80.37
80.619
80.969
81.466
82.142
83.016
84.107
85.432
86.991
88.765
90.737
92.894
95.227
97.736
100.409
103.229
106.175
109.224
112.359
115.565
118.825
122.12
125.435
128.752
132.057
135.339
138.581
141.764
144.868
147.871
150.753
153.495
156.075
158.473
160.67
162.65
164.395
165.894
167.132
168.097
168.779
169.169
169.259
169.045
168.521
167.685
166.535
165.073
163.302
161.225
158.849
156.18
153.227
149.999
146.508
142.767
138.789
134.589
130.184
125.591
120.828
115.914
110.869
105.712
100.465
95.148
89.782
84.387
78.985
73.593
68.233
62.923
57.681
52.525
47.471
42.536
37.735
33.082
28.59
24.27
20.134
16.191
12.45
8.918
5.601
2.504
-0.37
-3.018
-5.44
-7.635
-9.606
-11.354
-12.885
-14.202
-15.313
-16.224
-16.943
-17.479
-17.843
-18.044
-18.093
-18.003
-17.785
-17.45
-17.013
-16.485
-15.878
-15.207
-14.482
-13.717
-12.923
-12.113
-11.298
-10.488
-9.695
-8.93
-8.2
-7.516
-6.886
-6.316
-5.814
-5.386
-5.037
-4.771
-4.593
-4.506
-4.51
-4.609
-4.803
-5.09
-5.47
-5.941
-6.5
-7.143
-7.866
-8.666
-9.537
-10.474
-11.47
-12.521
-13.619
-14.759
-15.932
-17.131
-18.349
-19.578
-20.81
-22.036
-23.249
-24.441
-25.604
-26.731
-27.815
-28.849
-29.825
-30.737
-31.576
-32.337
-33.012
-33.597
-34.087
-34.477
-34.764
-34.946
-35.022
-34.991
-34.852
-34.605
-34.252
-33.793
-33.23
-32.565
-31.801
-30.943
-29.996
-28.966
-27.859
-26.684
-25.447
-24.158
-22.827
-21.464
-20.076
-18.67
-17.255
-15.839
-14.432
-13.042
-11.677
-10.343
-9.051
-7.81
-6.632
-5.524
-4.492
-3.537
-2.662
-1.871
-1.168
-0.553
-0.022
0.424
0.787
1.055
1.21
1.247
1.174
1.008
0.776
0.501
0.199
-0.095
-0.342
-0.516
-0.592
-0.57
-0.467
-0.281
-0.01
0.368
0.903
1.609
2.47
3.453
4.483
5.481
6.374
7.043
7.345
7.18
6.465
5.177
3.356
1.025
-1.761
-4.969
-8.613
-12.67
-17.103
-21.804
-26.557
-31.11
-35.174
-38.392
-40.398
-40.799
-39.166
-35.397
-29.69
-22.463
-14.473
-6.288
1.816
9.344
15.868
21.546
26.994
33.527
42.923
56.161
73.49
95.207
121.048
149.557
178.009
202.218
217.703
220.969
209.269
180.003
131.205
62.977
-21.874
-118.37
-221.047
-324.57
-423.697
-512.614
-584.921
-636.408
-666.035
-674.774
-664.552
-637.916
-597.693
-548.1
-495.112
-443.226
-394.786
-351.008
-312.056
-277.784
-248.206
-222.278
-197.663
-172.895
-147.489
-121.519
-95.892
-71.403
-48.457
-27.771
-10.296
3.473
13.366
19.523
22.541
22.982
21.332
18.16
13.953
9.119
4.064
-0.837
-5.268
-8.952
-11.702
-13.415
-14.004
-13.423
-11.661
-8.76
-4.849
-0.095
5.33
11.264
17.575
24.123
30.736
37.21
43.368
49.089
54.307
58.992
63.119
66.667
69.645
72.101
74.11
75.751
77.091
78.183
79.086
79.867
80.611
81.409
82.329
83.414
84.696
86.195
87.926
89.904
92.126
94.571
97.219
100.055
103.066
106.247
109.581
113.049
116.625
120.284
124.007
127.773
131.563
135.355
139.126
142.858
146.534
150.137
153.649
157.049
160.313
163.42
166.347
169.074
171.578
173.839
175.838
177.558
178.983
180.102
180.902
181.373
181.507
181.296
180.738
179.828
178.567
176.954
174.992
172.687
170.046
167.076
163.787
160.191
156.3
152.129
147.693
143.01
138.096
132.97
127.653
122.165
116.527
110.762
104.892
98.939
92.926
86.874
80.808
74.747
68.714
62.727
56.807
50.973
45.242
39.631
34.156
28.831
23.669
18.684
13.887
9.287
4.892
0.711
-3.25
-6.986
-10.494
-13.771
-16.815
-19.626
-22.205
-24.555
-26.678
-28.578
-30.261
-31.732
-32.999
-34.069
-34.95
-35.651
-36.182
-36.552
-36.772
-36.851
-36.8
-36.631
-36.353
-35.979
-35.518
-34.981
-34.38
-33.725
-33.026
-32.292
-31.534
-30.761
-29.981
-29.204
-28.437
-27.689
-26.966
-26.276
-25.625
-25.017
-24.458
-23.951
-23.499
-23.106
-22.772
-22.501
-22.292
-22.146
-22.062
-22.041
-22.08
-22.179
-22.335
-22.544
-22.804
-23.111
-23.461
-23.848
-24.269
-24.718
-25.189
-25.677
-26.177
-26.682
-27.185
-27.679
-28.157
-28.613
-29.037
-29.424
-29.767
-30.059
-30.295
-30.47
-30.582
-30.625
-30.598
-30.496
-30.317
-30.061
-29.726
-29.312
-28.817
-28.242
-27.591
-26.865
-26.07
-25.208
-24.284
-23.304
-22.274
-21.203
-20.097
-18.961
-17.801
-16.624
-15.44
-14.257
-13.084
-11.927
-10.794
-9.695
-8.643
-7.646
-6.709
-5.835
-5.025
-4.282
-3.611
-3.014
-2.491
-2.04
-1.659
-1.356
-1.142
-1.032
-1.027
-1.112
-1.267
-1.474
-1.721
-1.99
-2.252
-2.477
-2.64
-2.731
-2.76
-2.729
-2.626
-2.438
-2.127
-1.657
-1.023
-0.243
0.635
1.547
2.437
3.224
3.793
4.033
3.849
3.192
2.074
0.495
-1.54
-3.983
-6.832
-10.09
-13.711
-17.666
-21.827
-25.972
-29.883
-33.276
-35.799
-37.149
-36.953
-34.835
-30.764
-24.907
-17.674
-9.83
-1.908
5.813
12.812
18.66
23.484
27.856
33.105
40.991
52.476
67.848
87.407
110.973
137.209
163.429
185.541
199.176
200.861
187.904
157.775
108.465
40.075
-44.546
-140.502
-242.342
-344.668
-442.231
-529.156
-598.983
-647.537
-673.827
-678.892
-664.825
-634.36
-590.525
-537.758
-482.176
-428.35
-378.677
-334.329
-295.373
-261.557
-232.757
-207.825
-184.379
-160.929
-136.982
-112.591
-88.642
-65.908
-44.768
-25.911
-10.228
1.854
10.225
15.068
17.01
16.614
14.36
10.829
6.494
1.767
-2.933
-7.295
-11.052
-13.968
-15.909
-16.792
-16.551
-15.181
-12.706
-9.189
-4.782
0.353
6.054
12.139
18.466
24.881
31.184
37.218
42.85
47.978
52.566
56.593
60.035
62.903
65.231
67.067
68.491
69.579
70.385
70.981
71.436
71.827
72.248
72.772
73.446
74.307
75.378
76.673
78.209
79.984
81.984
84.196
86.603
89.193
91.961
94.892
97.967
101.165
104.461
107.833
111.263
114.734
118.224
121.715
125.187
128.625
132.014
135.336
138.572
141.7
144.698
147.545
150.221
152.706
154.981
157.025
158.824
160.364
161.632
162.618
163.311
163.704
163.79
163.564
163.025
162.172
161.004
159.525
157.739
155.651
153.271
150.607
147.67
144.471
141.024
137.344
133.446
129.347
125.065
120.616
116.022
111.301
106.474
101.561
96.583
91.559
86.51
81.457
76.417
71.41
66.453
61.564
56.758
52.051
47.456
42.987
38.656
34.474
30.451
26.596
22.917
19.419
16.109
12.991
10.067
7.34
4.81
2.477
0.339
-1.605
-3.359
-4.926
-6.313
-7.525
-8.567
-9.447
-10.173
-10.752
-11.192
-11.502
-11.691
-11.768
-11.741
-11.621
-11.415
-11.132
-10.782
-10.373
-9.914
-9.412
-8.875
-8.31
-7.726
-7.128
-6.523
-5.917
-5.316
-4.726
-4.15
-3.593
-3.059
-2.551
-2.072
-1.625
-1.212
-0.836
-0.498
-0.2
0.058
0.272
0.444
0.572
0.656
0.697
0.695
0.651
0.565
0.439
0.272
0.067
-0.175
-0.455
-0.769
-1.116
-1.495
-1.902
-2.335
-2.793
-3.271
-3.768
-4.279
-4.802
-5.335
-5.873
-6.416
-6.958
-7.496
-8.026
-8.542
-9.04
-9.515
-9.961
-10.375
-10.752
-11.088
-11.381
-11.628
-11.826
-11.971
-12.063
-12.098
-12.074
-11.991
-11.846
-11.638
-11.369
-11.038
-10.65
-10.206
-9.71
-9.164
-8.574
-7.947
-7.287
-6.598
-5.884
-5.148
-4.395
-3.633
-2.869
-2.104
-1.346
-0.604
0.114
0.795
1.433
2.026
2.571
3.066
3.51
3.897
4.228
4.509
4.737
4.909
5.013
5.025
4.941
4.769
4.523
4.228
3.906
3.568
3.247
2.984
2.799
2.708
2.706
2.763
2.889
3.101
3.423
3.911
4.586
5.43
6.426
7.518
8.62
9.659
10.513
11.024
11.109
10.7
9.774
8.38
6.51
4.171
1.391
-1.853
-5.568
-9.718
-14.247
-18.993
-23.672
-28.01
-31.654
-34.226
-35.384
-34.697
-31.984
-27.38
-21.18
-14.014
-6.484
1.184
8.575
15.048
20.635
25.796
31.526
39.769
51.831
67.969
88.695
114.413
144.143
175.882
205.943
228.988
240.843
238.602
219.204
179.919
119.673
39.431
-56.833
-162.717
-272.456
-380.866
-482.343
-570.808
-640.598
-687.919
-711.897
-714.333
-697.393
-663.311
-614.819
-555.82
-491.562
-427.015
-365.826
-309.655
-259.3
-215.563
-179.382
-151.178
-129.717
-112.859
-98.353
-85.055
-72.834
-61.567
-50.679
-39.27
-27.219
-15.363
-5.132
2.544
7.643
10.456
11.221
9.851
6.352
1.268
-4.373
-9.634
-14.004
-17.278
-19.463
-20.486
-20.189
-18.557
-15.736
-11.937
-7.382
-2.225
3.464
9.586
15.996
22.513
28.901
34.966
40.591
45.699
50.253
54.239
57.632
60.438
62.704
64.495
65.885
66.938
67.698
68.217
68.562
68.816
69.079
69.43
69.914
70.567
71.407
72.45
73.711
75.189
76.865
78.721
80.744
82.926
85.261
87.743
90.354
93.073
95.88
98.756
101.686
104.654
107.644
110.639
113.622
116.582
119.508
122.385
125.195
127.922
130.545
133.046
135.407
137.611
139.639
141.474
143.101
144.508
145.684
146.616
147.297
147.717
147.87
147.752
147.359
146.69
145.742
144.518
143.019
141.251
139.218
136.928
134.389
131.608
128.598
125.371
121.938
118.314
114.513
110.55
106.442
102.206
97.86
93.42
88.906
84.335
79.726
75.097
70.465
65.849
61.265
56.728
52.255
47.861
43.558
39.361
35.281
31.33
27.518
23.856
20.35
17.009
13.839
10.845
8.031
5.401
2.956
0.697
-1.375
-3.261
-4.962
-6.483
-7.825
-8.994
-9.996
-10.834
-11.517
-12.051
-12.445
-12.705
-12.84
-12.86
-12.773
-12.588
-12.315
-11.962
-11.54
-11.057
-10.522
-9.944
-9.332
-8.692
-8.034
-7.365
-6.69
-6.018
-5.355
-4.706
-4.077
-3.472
-2.898
-2.356
-1.852
-1.388
-0.967
-0.591
-0.263
0.017
0.246
0.423
0.548
0.62
0.638
0.604
0.518
0.381
0.195
-0.038
-0.317
-0.64
-1.005
-1.41
-1.853
-2.333
-2.846
-3.39
-3.963
-4.562
-5.182
-5.822
-6.476
-7.142
-7.815
-8.492
-9.169
-9.843
-10.51
-11.166
-11.806
-12.425
-13.019
-13.581
-14.107
-14.589
-15.024
-15.406
-15.734
-16.003
-16.211
-16.355
-16.432
-16.44
-16.377
-16.241
-16.029
-15.739
-15.37
-14.925
-14.403
-13.808
-13.142
-12.408
-11.614
-10.764
-9.865
-8.923
-7.941
-6.924
-5.878
-4.806
-3.714
-2.608
-1.493
-0.377
0.729
1.813
2.864
3.873
4.835
5.744
6.595
7.383
8.109
8.774
9.378
9.913
10.367
10.722
10.963
11.091
11.11
11.031
10.878
10.685
10.491
10.346
10.283
10.318
10.455
10.679
10.983
11.366
11.835
12.41
13.111
13.946
14.906
15.973
17.073
18.078
18.85
19.216
19.042
18.248
16.777
14.615
11.771
8.28
4.204
-0.392
-5.472
-11.021
-17.013
-23.375
-29.881
-36.186
-41.911
-46.625
-49.98
-51.619
-51.095
-48.228
-43.122
-36.146
-28.047
-19.475
-10.681
-2.077
5.722
12.767
19.478
26.834
36.738
50.392
67.978
89.896
116.426
146.461
177.88
206.998
228.542
238.445
233.955
212.148
170.421
107.898
25.737
-71.999
-178.862
-289.08
-397.541
-498.673
-586.43
-655.28
-701.563
-724.5
-725.971
-708.19
-673.398
-624.36
-565.007
-500.529
-435.827
-374.484
-318.102
-267.46
-223.346
-186.676
-157.853
-135.672
-118.025
-102.711
-88.631
-75.662
-63.693
-52.157
-40.152
-27.562
-15.223
-4.543
3.564
9.078
12.298
13.454
12.453
9.308
4.565
-0.75
-5.705
-9.79
-12.807
-14.761
-15.577
-15.1
-13.316
-10.367
-6.467
-1.833
3.384
9.115
15.266
21.692
28.213
34.594
40.643
46.242
51.318
55.836
59.783
63.136
65.902
68.133
69.895
71.263
72.304
73.061
73.587
73.951
74.239
74.553
74.971
75.54
76.297
77.261
78.449
79.876
81.54
83.422
85.504
87.772
90.216
92.831
95.608
98.527
101.567
104.704
107.917
111.19
114.503
117.837
121.173
124.492
127.778
131.018
134.196
137.289
140.279
143.142
145.858
148.407
150.769
152.922
154.849
156.533
157.959
159.115
159.989
160.57
160.85
160.822
160.482
159.825
158.851
157.559
155.951
154.031
151.805
149.281
146.467
143.372
140.009
136.391
132.532
128.448
124.156
119.674
115.019
110.211
105.271
100.219
95.076
89.864
84.602
79.314
74.019
68.739
63.492
58.299
53.176
48.143
43.216
38.41
33.741
29.22
24.862
20.678
16.677
12.87
9.262
5.861
2.672
-0.301
-3.057
-5.592
-7.908
-10.004
-11.884
-13.55
-15.007
-16.259
-17.312
-18.174
-18.853
-19.356
-19.693
-19.874
-19.907
-19.804
-19.575
-19.231
-18.783
-18.241
-17.617
-16.922
-16.166
-15.359
-14.513
-13.638
-12.741
-11.834
-10.924
-10.02
-9.129
-8.258
-7.414
-6.603
-5.831
-5.102
-4.422
-3.794
-3.221
-2.706
-2.252
-1.859
-1.53
-1.265
-1.064
-0.928
-0.857
-0.85
-0.907
-1.027
-1.208
-1.449
-1.748
-2.102
-2.508
-2.963
-3.466
-4.013
-4.6
-5.226
-5.886
-6.579
-7.3
-8.047
-8.814
-9.599
-10.397
-11.204
-12.016
-12.827
-13.634
-14.432
-15.218
-15.987
-16.736
-17.46
-18.155
-18.815
-19.436
-20.011
-20.537
-21.007
-21.418
-21.764
-22.043
-22.253
-22.391
-22.454
-22.441
-22.35
-22.18
-21.929
-21.595
-21.179
-20.68
-20.101
-19.444
-18.712
-17.91
-17.042
-16.115
-15.136
-14.114
-13.053
-11.96
-10.839
-9.697
-8.538
-7.37
-6.196
-5.023
-3.859
-2.715
-1.602
-0.531
0.49
1.457
2.362
3.204
3.978
4.685
5.327
5.905
6.412
6.839
7.167
7.386
7.498
7.507
7.426
7.281
7.103
6.932
6.817
6.79
6.867
7.055
7.342
7.72
8.195
8.775
9.481
10.331
11.335
12.483
13.759
15.09
16.357
17.427
18.135
18.353
18.006
17.037
15.424
13.17
10.296
6.855
2.902
-1.531
-6.432
-11.773
-17.487
-23.359
-29.057
-34.227
-38.461
-41.422
-42.773
-42.069
-39.106
-33.959
-26.95
-18.766
-10.044
-1.049
7.79
15.819
23.026
29.768
36.959
46.467
59.527
76.43
97.708
123.764
153.656
185.4
215.362
238.317
250.185
248.076
228.899
189.811
129.516
48.911
-48.034
-155.155
-266.863
-378.163
-483.643
-576.839
-651.424
-703.359
-731.601
-737.379
-722.516
-688.646
-637.768
-574.435
-504.896
-434.452
-367.2
-305.473
-250.377
-203.608
-167.175
-140.759
-122.163
-108.912
-98.14
-88.306
-79.224
-70.007
-59.236
-46.567
-32.481
-18.097
-5.381
4.662
12.125
16.912
18.895
18.215
15.065
10.135
4.725
-0.296
-4.524
-7.669
-9.698
-10.561
-10.095
-8.323
-5.447
-1.64
2.912
8.066
13.777
19.935
26.379
32.928
39.343
45.431
51.078
56.205
60.776
64.776
68.178
70.988
73.255
75.04
76.417
77.447
78.169
78.641
78.935
79.14
79.362
79.68
80.143
80.786
81.632
82.697
83.996
85.528
87.273
89.214
91.34
93.64
96.111
98.745
101.521
104.418
107.413
110.484
113.616
116.79
119.987
123.187
126.373
129.531
132.648
135.707
138.69
141.575
144.341
146.969
149.438
151.729
153.821
155.696
157.339
158.734
159.869
160.734
161.318
161.612
161.61
161.306
160.699
159.786
158.566
157.042
155.217
153.096
150.687
147.997
145.037
141.816
138.348
134.647
130.726
126.601
122.288
117.806
113.17
108.402
103.519
98.54
93.487
88.378
83.233
78.072
72.914
67.778
62.68
57.638
52.668
47.786
43.007
38.343
33.807
29.412
25.167
21.083
17.168
13.429
9.872
6.502
3.323
0.337
-2.452
-5.046
-7.444
-9.647
-11.657
-13.478
-15.112
-16.566
-17.843
-18.95
-19.894
-20.681
-21.319
-21.818
-22.183
-22.425
-22.552
-22.572
-22.495
-22.328
-22.082
-21.765
-21.385
-20.951
-20.471
-19.952
-19.403
-18.83
-18.241
-17.641
-17.035
-16.431
-15.832
-15.243
-14.669
-14.112
-13.577
-13.067
-12.585
-12.132
-11.712
-11.325
-10.973
-10.658
-10.379
-10.137
-9.934
-9.768
-9.64
-9.55
-9.499
-9.486
-9.51
-9.571
-9.668
-9.8
-9.965
-10.162
-10.39
-10.648
-10.934
-11.248
-11.586
-11.949
-12.335
-12.743
-13.17
-13.614
-14.072
-14.543
-15.023
-15.509
-15.999
-16.489
-16.975
-17.456
-17.929
-18.389
-18.834
-19.26
-19.661
-20.034
-20.373
-20.675
-20.934
-21.146
-21.308
-21.418
-21.472
-21.469
-21.406
-21.28
-21.091
-20.836
-20.515
-20.125
-19.666
-19.139
-18.544
-17.886
-17.166
-16.388
-15.558
-14.68
-13.761
-12.809
-11.828
-10.822
-9.797
-8.755
-7.703
-6.647
-5.591
-4.541
-3.505
-2.491
-1.511
-0.574
0.314
1.151
1.932
2.658
3.323
3.928
4.477
4.967
5.395
5.753
6.022
6.19
6.264
6.254
6.177
6.067
5.947
5.845
5.805
5.85
5.994
6.242
6.575
6.982
7.473
8.056
8.763
9.625
10.633
11.767
12.99
14.202
15.306
16.201
16.73
16.787
16.311
15.247
13.602
11.411
8.677
5.447
1.755
-2.407
-6.996
-11.964
-17.212
-22.479
-27.471
-31.883
-35.314
-37.458
-38.002
-36.519
-32.882
-27.259
-19.986
-11.775
-3.258
5.348
13.575
20.735
26.816
32.189
37.87
45.832
57.34
72.68
92.39
116.873
145.162
175.212
203.267
223.996
233.224
227.998
205.247
162.205
97.832
13.39
-86.895
-196.633
-309.957
-421.632
-526.034
-616.584
-687.21
-734.314
-757.189
-757.354
-736.948
-697.846
-642.36
-575.376
-503.125
-430.721
-362.084
-299.375
-243.578
-196.392
-159.769
-133.202
-114.483
-101.179
-90.464
-80.924
-72.419
-63.998
-54.188
-42.611
-29.676
-16.477
-4.96
3.96
10.427
14.384
15.737
14.566
11.024
5.796
0.174
-4.955
-9.182
-12.249
-14.149
-14.838
-14.164
-12.153
-9.011
-4.955
-0.195
5.105
10.883
17.051
23.468
29.954
36.274
42.236
47.725
52.677
57.071
60.885
64.091
66.695
68.746
70.32
71.5
72.351
72.914
73.245
73.414
73.509
73.635
73.868
74.254
74.825
75.601
76.598
77.836
79.312
81.008
82.905
84.989
87.252
89.691
92.296
95.046
97.921
100.898
103.957
107.085
110.263
113.472
116.695
119.914
123.116
126.288
129.413
132.472
135.445
138.312
141.05
143.643
146.068
148.307
150.341
152.154
153.731
155.061
156.13
156.928
157.447
157.678
157.617
157.258
156.601
155.642
154.384
152.829
150.981
148.847
146.432
143.747
140.799
137.601
134.165
130.505
126.635
122.571
118.33
113.928
109.385
104.719
99.948
95.093
90.173
85.207
80.216
75.217
70.229
65.271
60.358
55.509
50.739
46.063
41.494
37.047
32.733
28.563
24.549
20.698
17.02
13.52
10.205
7.08
4.148
1.412
-1.128
-3.469
-5.614
-7.564
-9.321
-10.889
-12.272
-13.475
-14.505
-15.368
-16.071
-16.622
-17.028
-17.298
-17.441
-17.466
-17.382
-17.199
-16.925
-16.569
-16.141
-15.649
-15.102
-14.508
-13.877
-13.214
-12.529
-11.828
-11.118
-10.406
-9.697
-8.996
-8.308
-7.639
-6.991
-6.368
-5.773
-5.208
-4.676
-4.179
-3.718
-3.293
-2.908
-2.561
-2.253
-1.985
-1.757
-1.567
-1.416
-1.303
-1.228
-1.191
-1.191
-1.229
-1.303
-1.414
-1.56
-1.743
-1.959
-2.209
-2.491
-2.805
-3.15
-3.526
-3.93
-4.363
-4.825
-5.314
-5.83
-6.372
-6.937
-7.525
-8.132
-8.757
-9.399
-10.053
-10.717
-11.389
-12.066
-12.745
-13.424
-14.098
-14.763
-15.414
-16.046
-16.653
-17.229
-17.77
-18.27
-18.724
-19.129
-19.482
-19.78
-20.019
-20.195
-20.306
-20.349
-20.323
-20.223
-20.049
-19.799
-19.474
-19.076
-18.607
-18.07
-17.469
-16.807
-16.092
-15.329
-14.522
-13.674
-12.79
-11.872
-10.928
-9.963
-8.983
-7.993
-7.003
-6.023
-5.064
-4.139
-3.254
-2.411
-1.615
-0.866
-0.17
0.473
1.066
1.61
2.098
2.519
2.853
3.086
3.222
3.271
3.25
3.191
3.114
3.046
3.033
3.102
3.261
3.511
3.828
4.191
4.62
5.135
5.768
6.558
7.5
8.58
9.776
11.007
12.165
13.141
13.768
13.918
13.542
12.589
11.071
9.03
6.451
3.352
-0.235
-4.319
-8.885
-13.896
-19.296
-24.869
-30.292
-35.225
-39.246
-42.001
-43.181
-42.357
-39.385
-34.423
-27.789
-20.166
-12.198
-4.111
3.661
10.444
16.284
21.639
27.525
35.935
48.174
64.526
85.56
111.724
142.002
174.285
204.716
227.758
239.085
235.623
214.121
171.726
107.351
22.212
-79.332
-190.701
-305.928
-419.546
-525.705
-617.907
-690.066
-738.635
-763.136
-764.875
-745.692
-707.631
-653.066
-586.496
-514.026
-440.325
-368.755
-302.217
-242.477
-191.278
-150.835
-121.144
-100.159
-86.241
-77.415
-71.33
-66.93
-63.045
-57.685
-50.17
-40.885
-30.162
-19.208
-9.605
-1.809
3.894
6.943
7.414
5.581
1.733
-3.177
-7.994
-12.112
-15.139
-16.84
-17.273
-16.409
-14.193
-10.797
-6.473
-1.442
4.088
10.001
16.255
22.746
29.307
35.729
41.809
47.42
52.503
57.037
61
64.369
67.149
69.386
71.156
72.539
73.599
74.378
74.923
75.3
75.591
75.894
76.286
76.815
77.512
78.398
79.49
80.804
82.339
84.078
86.001
88.096
90.352
92.769
95.336
98.036
100.847
103.749
106.724
109.758
112.835
115.936
119.046
122.149
125.231
128.283
131.288
134.23
137.088
139.844
142.479
144.975
147.312
149.473
151.439
153.195
154.728
156.026
157.076
157.869
158.395
158.647
158.62
158.31
157.714
156.83
155.66
154.205
152.469
150.458
148.178
145.636
142.842
139.805
136.537
133.051
129.36
125.478
121.421
117.205
112.848
108.366
103.778
99.102
94.358
89.562
84.735
79.895
75.059
70.245
65.469
60.748
56.098
51.533
47.067
42.713
38.484
34.391
30.443
26.651
23.023
19.564
16.283
13.183
10.27
7.545
5.011
2.669
0.519
-1.441
-3.212
-4.798
-6.201
-7.427
-8.481
-9.37
-10.099
-10.676
-11.109
-11.407
-11.577
-11.629
-11.572
-11.415
-11.167
-10.837
-10.434
-9.968
-9.447
-8.879
-8.273
-7.637
-6.979
-6.306
-5.625
-4.942
-4.264
-3.596
-2.944
-2.311
-1.703
-1.123
-0.573
-0.059
0.419
0.858
1.256
1.612
1.924
2.192
2.417
2.596
2.732
2.824
2.873
2.879
2.842
2.764
2.645
2.486
2.288
2.054
1.783
1.479
1.142
0.775
0.38
-0.043
-0.491
-0.963
-1.456
-1.97
-2.502
-3.049
-3.609
-4.179
-4.756
-5.339
-5.922
-6.504
-7.079
-7.646
-8.202
-8.743
-9.265
-9.764
-10.236
-10.675
-11.077
-11.436
-11.749
-12.009
-12.213
-12.358
-12.442
-12.461
-12.414
-12.299
-12.113
-11.855
-11.525
-11.121
-10.642
-10.089
-9.463
-8.767
-8.005
-7.18
-6.296
-5.358
-4.373
-3.349
-2.293
-1.209
-0.104
1.019
2.151
3.284
4.41
5.525
6.62
7.686
8.711
9.683
10.593
11.44
12.219
12.929
13.565
14.124
14.605
15.013
15.346
15.601
15.764
15.811
15.739
15.556
15.275
14.923
14.523
14.085
13.644
13.241
12.896
12.627
12.427
12.268
12.16
12.121
12.176
12.382
12.76
13.294
13.965
14.718
15.465
16.134
16.602
16.708
16.37
15.52
14.137
12.275
9.928
7.101
3.822
0.067
-4.167
-8.839
-13.889
-19.153
-24.347
-29.194
-33.34
-36.395
-38.012
-37.766
-35.475
-31.271
-25.439
-18.581
-11.277
-3.754
3.567
10.03
15.639
20.816
26.505
34.584
46.305
61.901
81.889
106.723
135.499
166.333
195.659
218.215
229.887
227.778
208.781
170.141
110.699
31.241
-64.397
-169.933
-279.747
-388.591
-490.747
-580.282
-651.514
-700.604
-726.734
-731.305
-716.024
-683.183
-635.531
-576.55
-511.375
-444.603
-379.384
-318.165
-262.583
-213.516
-172.177
-139.515
-114.461
-95.645
-81.68
-70.522
-61.159
-53.282
-45.834
-37.628
-28.534
-18.651
-8.676
-0.19
6.213
10.618
12.825
12.755
10.545
6.364
0.923
-4.564
-9.378
-13.175
-15.731
-17.062
-17.12
-15.801
-13.21
-9.594
-5.183
-0.176
5.303
11.196
17.393
23.718
29.953
35.889
41.393
46.391
50.848
54.751
58.078
60.836
63.074
64.859
66.267
67.364
68.197
68.814
69.284
69.688
70.125
70.676
71.394
72.312
73.454
74.834
76.465
78.346
80.456
82.777
85.293
87.994
90.874
93.923
97.122
100.449
103.882
107.399
110.983
114.615
118.276
121.947
125.61
129.25
132.853
136.405
139.884
143.27
146.542
149.68
152.663
155.472
158.085
160.484
162.654
164.577
166.243
167.638
168.752
169.575
170.1
170.32
170.231
169.831
169.118
168.093
166.757
165.114
163.171
160.934
158.41
155.608
152.541
149.219
145.656
141.866
137.862
133.662
129.283
124.74
120.054
115.241
110.321
105.312
100.234
95.107
89.947
84.774
79.605
74.457
69.347
64.29
59.301
54.395
49.585
44.882
40.3
35.849
31.538
27.376
23.37
19.528
15.854
12.354
9.031
5.889
2.928
0.15
-2.445
-4.857
-7.089
-9.143
-11.022
-12.729
-14.27
-15.651
-16.876
-17.952
-18.885
-19.684
-20.355
-20.906
-21.344
-21.678
-21.914
-22.061
-22.127
-22.12
-22.047
-21.915
-21.733
-21.507
-21.244
-20.952
-20.635
-20.302
-19.957
-19.606
-19.255
-18.909
-18.573
-18.252
-17.95
-17.671
-17.419
-17.197
-17.008
-16.852
-16.733
-16.651
-16.608
-16.605
-16.641
-16.717
-16.833
-16.987
-17.181
-17.412
-17.678
-17.978
-18.31
-18.671
-19.059
-19.472
-19.905
-20.355
-20.818
-21.293
-21.774
-22.257
-22.736
-23.207
-23.664
-24.101
-24.513
-24.894
-25.237
-25.539
-25.796
-26.002
-26.157
-26.255
-26.294
-26.27
-26.183
-26.03
-25.811
-25.524
-25.168
-24.745
-24.255
-23.704
-23.092
-22.422
-21.698
-20.924
-20.108
-19.255
-18.37
-17.457
-16.521
-15.571
-14.615
-13.663
-12.721
-11.796
-10.898
-10.037
-9.224
-8.466
-7.766
-7.125
-6.545
-6.03
-5.585
-5.211
-4.909
-4.675
-4.514
-4.434
-4.444
-4.554
-4.76
-5.039
-5.38
-5.778
-6.222
-6.694
-7.174
-7.631
-8.053
-8.444
-8.801
-9.11
-9.348
-9.481
-9.485
-9.328
-9.011
-8.562
-8.008
-7.388
-6.761
-6.207
-5.814
-5.683
-5.869
-6.384
-7.25
-8.503
-10.158
-12.204
-14.626
-17.414
-20.533
-23.953
-27.563
-31.164
-34.529
-37.37
-39.379
-40.28
-39.753
-37.484
-33.394
-27.601
-20.49
-12.788
-5.027
2.513
9.348
15.078
19.831
24.165
29.364
37.149
48.49
63.67
82.97
106.193
131.939
157.521
178.917
191.81
192.816
179.355
149.009
99.916
32.294
-51.01
-145.182
-244.873
-344.872
-440.137
-525.034
-593.396
-641.236
-667.608
-673.519
-660.961
-632.506
-590.989
-540.608
-487.196
-435.125
-386.699
-343.055
-304.299
-270.25
-240.868
-215.127
-190.784
-166.456
-141.708
-116.625
-92.086
-68.854
-47.298
-28.092
-12.11
0.226
8.804
13.799
15.825
15.438
13.116
9.445
4.91
-0.063
-5.045
-9.709
-13.78
-17.009
-19.255
-20.427
-20.448
-19.306
-17.02
-13.645
-9.329
-4.233
1.482
7.627
14.055
20.604
27.067
33.28
39.105
44.438
49.24
53.488
57.156
60.251
62.808
64.871
66.518
67.824
68.843
69.646
70.304
70.895
71.518
72.245
73.126
74.198
75.485
76.999
78.758
80.759
82.986
85.426
88.061
90.88
93.875
97.033
100.334
103.754
107.268
110.854
114.493
118.166
121.851
125.529
129.181
132.79
136.343
139.821
143.205
146.471
149.6
152.568
155.357
157.946
160.314
162.443
164.317
165.921
167.244
168.275
169.003
169.421
169.522
169.303
168.76
167.893
166.703
165.192
163.364
161.227
158.789
156.058
153.045
149.763
146.224
142.444
138.438
134.222
129.814
125.233
120.496
115.625
110.638
105.557
100.402
95.193
89.951
84.696
79.447
74.223
69.042
63.92
58.876
53.924
49.079
44.354
39.762
35.315
31.023
26.896
22.942
19.168
15.58
12.183
8.982
5.979
3.176
0.575
-1.827
-4.028
-6.032
-7.84
-9.458
-10.889
-12.138
-13.211
-14.115
-14.856
-15.442
-15.881
-16.18
-16.349
-16.395
-16.328
-16.156
-15.889
-15.535
-15.102
-14.6
-14.037
-13.422
-12.761
-12.064
-11.339
-10.592
-9.831
-9.064
-8.296
-7.534
-6.785
-6.054
-5.346
-4.666
-4.019
-3.409
-2.84
-2.316
-1.84
-1.416
-1.046
-0.732
-0.477
-0.28
-0.143
-0.066
-0.048
-0.091
-0.192
-0.352
-0.569
-0.842
-1.168
-1.547
-1.976
-2.451
-2.968
-3.525
-4.118
-4.741
-5.391
-6.062
-6.75
-7.449
-8.155
-8.863
-9.567
-10.26
-10.936
-11.588
-12.21
-12.795
-13.336
-13.828
-14.265
-14.642
-14.957
-15.205
-15.384
-15.49
-15.521
-15.475
-15.351
-15.146
-14.861
-14.496
-14.05
-13.529
-12.934
-12.271
-11.543
-10.755
-9.913
-9.027
-8.103
-7.145
-6.161
-5.154
-4.133
-3.107
-2.084
-1.069
-0.069
0.905
1.842
2.731
3.564
4.338
5.05
5.699
6.282
6.793
7.235
7.611
7.921
8.162
8.321
8.377
8.324
8.174
7.938
7.646
7.319
6.971
6.635
6.354
6.147
6.034
6.01
6.046
6.153
6.346
6.65
7.12
7.779
8.61
9.592
10.665
11.736
12.729
13.518
13.944
13.92
13.372
12.278
10.69
8.611
6.059
3.064
-0.4
-4.343
-8.729
-13.49
-18.442
-23.294
-27.757
-31.472
-34.055
-35.151
-34.314
-31.388
-26.555
-20.177
-12.952
-5.49
2.004
9.151
15.334
20.597
25.431
30.862
38.84
50.668
66.527
86.769
111.661
140.072
169.85
197.44
217.71
226.391
220.574
197.185
153.488
89.043
5.561
-92.951
-200.229
-310.062
-416.849
-514.051
-594.621
-653.856
-689.578
-701.761
-692.766
-665.631
-623.444
-571
-514.573
-458.87
-406.893
-360.434
-319.581
-284.08
-253.848
-227.551
-202.764
-177.988
-152.554
-126.402
-100.44
-75.464
-51.92
-30.642
-12.644
1.551
11.744
18.082
21.174
21.579
19.799
16.432
12.002
6.941
1.673
-3.426
-8.046
-11.91
-14.824
-16.678
-17.385
-16.898
-15.216
-12.383
-8.53
-3.825
1.551
7.43
13.666
20.114
26.598
32.912
38.877
44.369
49.319
53.698
57.479
60.639
63.192
65.182
66.687
67.788
68.555
69.044
69.317
69.446
69.516
69.621
69.832
70.194
70.739
71.489
72.461
73.671
75.118
76.783
78.648
80.7
82.927
85.326
87.884
90.58
93.393
96.3
99.281
102.322
105.403
108.505
111.609
114.699
117.76
120.779
123.74
126.624
129.411
132.082
134.616
136.996
139.202
141.216
143.02
144.601
145.944
147.04
147.878
148.449
148.745
148.762
148.496
147.945
147.108
145.985
144.579
142.896
140.94
138.721
136.245
133.523
130.566
127.386
123.998
120.416
116.654
112.728
108.656
104.455
100.142
95.737
91.258
86.722
82.148
77.556
72.963
68.387
63.843
59.349
54.919
50.567
46.309
42.155
38.119
34.209
30.437
26.812
23.34
20.028
16.883
13.908
11.108
8.484
6.039
3.772
1.684
-0.226
-1.962
-3.525
-4.919
-6.149
-7.22
-8.137
-8.907
-9.536
-10.032
-10.402
-10.653
-10.795
-10.835
-10.782
-10.644
-10.43
-10.147
-9.803
-9.406
-8.965
-8.486
-7.976
-7.442
-6.892
-6.33
-5.764
-5.199
-4.64
-4.092
-3.56
-3.047
-2.557
-2.094
-1.66
-1.259
-0.893
-0.565
-0.276
-0.029
0.175
0.336
0.452
0.524
0.553
0.537
0.479
0.379
0.238
0.056
-0.165
-0.424
-0.719
-1.05
-1.412
-1.806
-2.227
-2.672
-3.14
-3.627
-4.129
-4.642
-5.165
-5.692
-6.223
-6.752
-7.275
-7.789
-8.287
-8.765
-9.218
-9.641
-10.028
-10.375
-10.68
-10.937
-11.146
-11.304
-11.406
-11.453
-11.44
-11.367
-11.232
-11.033
-10.77
-10.443
-10.053
-9.603
-9.097
-8.537
-7.928
-7.274
-6.584
-5.863
-5.115
-4.345
-3.558
-2.756
-1.948
-1.138
-0.331
0.467
1.248
2.003
2.721
3.394
4.018
4.587
5.1
5.554
5.946
6.275
6.545
6.755
6.898
6.969
6.948
6.826
6.611
6.312
5.946
5.548
5.141
4.757
4.442
4.219
4.104
4.105
4.203
4.394
4.69
5.095
5.64
6.358
7.234
8.255
9.383
10.511
11.544
12.367
12.816
12.785
12.206
11.02
9.239
6.891
3.986
0.59
-3.261
-7.568
-12.278
-17.359
-22.701
-28.031
-33.057
-37.427
-40.703
-42.557
-42.629
-40.505
-36.117
-29.664
-21.555
-12.591
-3.38
5.774
14.312
21.782
28.346
34.598
41.872
51.951
65.788
83.739
106.273
133.226
163.174
193.232
218.876
235.406
239.159
227.165
196.586
145.123
72.582
-18.108
-121.528
-231.882
-343.502
-451.046
-548.833
-629.983
-689.474
-725.71
-739.198
-731.463
-704.904
-661.605
-604.448
-539.318
-471.526
-404.598
-341.611
-284.264
-233.292
-190.378
-156.832
-131.249
-112.033
-97.628
-85.691
-75.306
-66.319
-57.586
-47.946
-37.411
-26.153
-14.994
-5.613
1.437
6.263
8.697
8.735
6.545
2.319
-3.188
-8.767
-13.694
-17.598
-20.256
-21.677
-21.797
-20.513
-17.911
-14.224
-9.681
-4.483
1.235
7.39
13.862
20.467
26.974
33.174
38.929
44.154
48.813
52.895
56.373
59.252
61.579
63.412
64.825
65.887
66.643
67.147
67.47
67.695
67.925
68.247
68.712
69.36
70.213
71.286
72.593
74.134
75.89
77.842
79.979
82.287
84.765
87.403
90.183
93.082
96.077
99.148
102.276
105.444
108.631
111.821
114.994
118.138
121.24
124.284
127.252
130.124
132.879
135.499
137.965
140.257
142.356
144.245
145.908
147.333
148.508
149.423
150.068
150.435
150.518
150.315
149.821
149.037
147.962
146.599
144.951
143.025
140.828
138.368
135.654
132.698
129.511
126.107
122.501
118.706
114.739
110.617
106.355
101.974
97.489
92.921
88.287
83.607
78.898
74.18
69.47
64.784
60.14
55.553
51.037
46.608
42.278
38.06
33.964
30.001
26.18
22.51
18.998
15.649
12.47
9.463
6.634
3.983
1.512
-0.778
-2.887
-4.817
-6.57
-8.147
-9.554
-10.793
-11.871
-12.791
-13.561
-14.186
-14.673
-15.03
-15.264
-15.383
-15.395
-15.307
-15.129
-14.867
-14.531
-14.127
-13.664
-13.149
-12.589
-11.991
-11.362
-10.708
-10.035
-9.35
-8.658
-7.964
-7.274
-6.593
-5.925
-5.274
-4.645
-4.04
-3.463
-2.918
-2.406
-1.932
-1.497
-1.103
-0.753
-0.448
-0.189
0.022
0.186
0.303
0.372
0.395
0.371
0.302
0.187
0.028
-0.174
-0.419
-0.704
-1.029
-1.39
-1.786
-2.213
-2.669
-3.151
-3.655
-4.177
-4.714
-5.262
-5.819
-6.38
-6.94
-7.496
-8.04
-8.568
-9.075
-9.553
-9.999
-10.405
-10.768
-11.085
-11.352
-11.567
-11.726
-11.825
-11.864
-11.839
-11.749
-11.592
-11.365
-11.07
-10.706
-10.277
-9.784
-9.232
-8.624
-7.965
-7.262
-6.521
-5.746
-4.942
-4.113
-3.261
-2.394
-1.518
-0.638
0.24
1.109
1.957
2.773
3.544
4.267
4.938
5.553
6.111
6.609
7.046
7.428
7.755
8.02
8.216
8.322
8.324
8.229
8.047
7.796
7.508
7.205
6.914
6.681
6.535
6.485
6.535
6.659
6.839
7.095
7.448
7.929
8.578
9.391
10.353
11.446
12.588
13.677
14.606
15.208
15.36
15.013
14.116
12.679
10.743
8.289
5.335
1.913
-1.987
-6.349
-11.14
-16.305
-21.632
-26.803
-31.489
-35.274
-37.814
-38.808
-37.827
-34.719
-29.631
-22.87
-15.113
-7.003
1.23
9.155
16.096
22.089
27.576
33.566
42.055
54.365
70.808
91.978
118.331
148.887
181.557
212.487
236.164
248.268
245.725
225.296
184.069
120.856
36.793
-63.83
-174.462
-289.123
-402.47
-508.775
-601.363
-673.97
-722.808
-747.119
-748.437
-728.918
-690.466
-635.378
-568.552
-496.336
-423.959
-355.429
-292.961
-237.547
-190.884
-154.937
-129.187
-111.357
-98.948
-89.069
-80.251
-72.343
-64.391
-54.92
-43.568
-30.779
-17.672
-6.221
2.641
9.051
12.949
14.236
12.997
9.386
4.095
-1.588
-6.78
-11.076
-14.218
-16.197
-16.968
-16.375
-14.445
-11.383
-7.397
-2.697
2.558
8.305
14.456
20.87
27.369
33.72
39.733
45.293
50.335
54.836
58.775
62.12
64.875
67.087
68.828
70.177
71.198
71.93
72.427
72.757
73.006
73.279
73.65
74.164
74.854
75.736
76.828
78.148
79.694
81.447
83.389
85.505
87.787
90.233
92.832
95.565
98.41
101.343
104.348
107.407
110.506
113.623
116.744
119.851
122.93
125.97
128.957
131.87
134.692
137.401
139.98
142.41
144.672
146.747
148.618
150.27
151.689
152.864
153.784
154.439
154.82
154.921
154.736
154.264
153.501
152.446
151.101
149.469
147.555
145.365
142.905
140.184
137.211
133.999
130.558
126.903
123.048
119.007
114.797
110.434
105.937
101.322
96.609
91.815
86.96
82.062
77.14
72.213
67.297
62.41
57.569
52.789
48.085
43.473
38.966
34.576
30.316
26.196
22.227
18.417
14.775
11.308
8.02
4.918
2.005
-0.716
-3.244
-5.578
-7.717
-9.663
-11.419
-12.986
-14.369
-15.573
-16.602
-17.463
-18.162
-18.707
-19.104
-19.363
-19.491
-19.496
-19.388
-19.176
-18.868
-18.475
-18.004
-17.466
-16.869
-16.222
-15.534
-14.812
-14.067
-13.304
-12.531
-11.756
-10.984
-10.223
-9.478
-8.755
-8.058
-7.391
-6.76
-6.168
-5.618
-5.113
-4.655
-4.246
-3.888
-3.583
-3.332
-3.136
-2.995
-2.909
-2.879
-2.904
-2.983
-3.115
-3.299
-3.531
-3.811
-4.137
-4.505
-4.913
-5.36
-5.841
-6.355
-6.897
-7.466
-8.057
-8.667
-9.292
-9.929
-10.573
-11.222
-11.871
-12.515
-13.151
-13.776
-14.384
-14.971
-15.533
-16.063
-16.557
-17.01
-17.417
-17.773
-18.074
-18.316
-18.498
-18.617
-18.671
-18.659
-18.578
-18.429
-18.21
-17.923
-17.567
-17.144
-16.654
-16.1
-15.486
-14.816
-14.094
-13.323
-12.509
-11.659
-10.779
-9.877
-8.956
-8.021
-7.08
-6.141
-5.211
-4.298
-3.406
-2.541
-1.715
-0.935
-0.211
0.456
1.064
1.612
2.098
2.519
2.873
3.163
3.391
3.56
3.665
3.691
3.624
3.464
3.222
2.921
2.576
2.195
1.799
1.414
1.072
0.801
0.61
0.489
0.439
0.471
0.604
0.886
1.356
2.022
2.868
3.841
4.881
5.928
6.896
7.668
8.125
8.163
7.731
6.834
5.466
3.638
1.362
-1.394
-4.657
-8.426
-12.646
-17.152
-21.708
-26.066
-29.924
-32.96
-34.783
-34.9
-33.091
-29.442
-24.234
-18.102
-11.62
-4.987
1.382
6.834
11.39
15.502
20.23
27.613
39.043
54.842
75.54
101.57
131.972
164.727
196.076
220.513
233.709
232.637
214.1
175.197
114.688
33.399
-64.731
-173.176
-286.066
-398.111
-503.508
-595.918
-669.331
-719.603
-745.659
-749.238
-732.469
-697.589
-647.389
-585.915
-518.717
-451.08
-386.87
-327.887
-275.007
-229.076
-191.09
-161.475
-138.874
-121.015
-105.549
-91.272
-78.056
-65.798
-53.908
-41.485
-28.461
-15.729
-4.775
3.435
8.891
11.906
12.726
11.278
7.592
2.241
-3.699
-9.256
-13.898
-17.404
-19.773
-20.92
-20.677
-19.024
-16.105
-12.14
-7.356
-1.912
4.116
10.621
17.448
24.404
31.241
37.755
43.819
49.351
54.312
58.683
62.437
65.577
68.154
70.232
71.887
73.188
74.178
74.911
75.46
75.911
76.369
76.916
77.6
78.456
79.504
80.76
82.237
83.934
85.83
87.906
90.147
92.543
95.09
97.778
100.588
103.499
106.487
109.532
112.62
115.732
118.85
121.958
125.038
128.078
131.067
133.99
136.829
139.566
142.182
144.657
146.974
149.116
151.063
152.799
154.311
155.586
156.612
157.38
157.882
158.108
158.055
157.718
157.095
156.183
154.984
153.5
151.734
149.691
147.378
144.803
141.975
138.904
135.602
132.081
128.355
124.439
120.347
116.096
111.703
107.185
102.56
97.846
93.06
88.223
83.351
78.463
73.577
68.708
63.875
59.092
54.374
49.737
45.193
40.755
36.435
32.244
28.192
24.288
20.539
16.954
13.537
10.294
7.228
4.343
1.641
-0.878
-3.213
-5.365
-7.335
-9.127
-10.742
-12.185
-13.461
-14.574
-15.531
-16.337
-16.999
-17.524
-17.919
-18.192
-18.351
-18.404
-18.358
-18.222
-18.004
-17.712
-17.354
-16.937
-16.47
-15.959
-15.411
-14.833
-14.232
-13.614
-12.983
-12.347
-11.709
-11.076
-10.45
-9.837
-9.241
-8.665
-8.112
-7.584
-7.086
-6.618
-6.185
-5.786
-5.426
-5.105
-4.824
-4.586
-4.39
-4.237
-4.127
-4.06
-4.035
-4.052
-4.111
-4.211
-4.35
-4.529
-4.745
-4.998
-5.287
-5.609
-5.963
-6.346
-6.757
-7.191
-7.648
-8.122
-8.613
-9.115
-9.627
-10.145
-10.666
-11.184
-11.695
-12.194
-12.675
-13.135
-13.566
-13.965
-14.326
-14.646
-14.923
-15.153
-15.334
-15.462
-15.536
-15.552
-15.51
-15.408
-15.244
-15.017
-14.728
-14.378
-13.97
-13.505
-12.987
-12.419
-11.806
-11.154
-10.468
-9.752
-9.009
-8.244
-7.46
-6.667
-5.87
-5.071
-4.279
-3.499
-2.743
-2.021
-1.34
-0.7
-0.105
0.446
0.949
1.401
1.804
2.163
2.476
2.742
2.948
3.071
3.107
3.066
2.961
2.817
2.656
2.489
2.349
2.277
2.291
2.409
2.625
2.909
3.272
3.731
4.308
5.058
6.002
7.12
8.396
9.772
11.16
12.485
13.624
14.42
14.789
14.66
14.011
12.888
11.284
9.203
6.676
3.678
0.201
-3.718
-8.021
-12.543
-16.999
-21.113
-24.531
-26.878
-27.814
-26.91
-23.987
-19.188
-12.806
-5.47
2.228
10.073
17.662
24.36
30.202
35.638
41.637
50.102
62.288
78.4
98.903
124.168
153.201
184.023
213.019
234.96
245.779
242.676
222.694
183.183
123.133
43.513
-51.776
-156.455
-264.873
-371.959
-472.215
-559.656
-628.706
-675.622
-699.506
-702.08
-685.44
-651.75
-603.678
-545.075
-481.129
-416.749
-355.559
-299.235
-248.598
-204.476
-167.832
-139.095
-117.054
-99.607
-84.541
-70.739
-58.082
-46.453
-35.278
-23.672
-11.526
0.325
10.466
17.982
22.861
25.402
25.845
24.112
20.224
14.735
8.683
3.009
-1.769
-5.437
-7.997
-9.366
-9.382
-8.023
-5.428
-1.808
2.62
7.704
13.375
19.535
26.038
32.698
39.276
45.572
51.466
56.88
61.776
66.137
69.938
73.183
75.918
78.211
80.133
81.748
83.099
84.236
85.225
86.152
87.115
88.194
89.432
90.862
92.503
94.366
96.465
98.794
101.331
104.054
106.946
109.995
113.193
116.528
119.98
123.523
127.133
130.787
134.468
138.156
141.829
145.469
149.058
152.579
156.02
159.364
162.592
165.684
168.619
171.377
173.94
176.288
178.402
180.266
181.864
183.184
184.214
184.945
185.367
185.475
185.261
184.725
183.862
182.674
181.161
179.326
177.175
174.713
171.949
168.892
165.552
161.941
158.072
153.959
149.617
145.063
140.312
135.383
130.294
125.064
119.712
114.259
108.723
103.126
97.486
91.824
86.159
80.508
74.89
69.323
63.822
58.403
53.081
47.871
42.784
37.833
33.029
28.383
23.902
19.596
15.471
11.532
7.786
4.235
0.883
-2.269
-5.219
-7.968
-10.516
-12.865
-15.018
-16.978
-18.749
-20.338
-21.748
-22.986
-24.059
-24.975
-25.74
-26.362
-26.85
-27.213
-27.458
-27.594
-27.63
-27.576
-27.439
-27.229
-26.955
-26.624
-26.244
-25.825
-25.374
-24.898
-24.406
-23.904
-23.4
-22.9
-22.41
-21.935
-21.48
-21.05
-20.648
-20.279
-19.945
-19.648
-19.391
-19.176
-19.003
-18.874
-18.788
-18.746
-18.746
-18.788
-18.87
-18.99
-19.146
-19.335
-19.555
-19.801
-20.071
-20.361
-20.667
-20.984
-21.307
-21.63
-21.949
-22.256
-22.547
-22.815
-23.056
-23.263
-23.435
-23.566
-23.653
-23.694
-23.685
-23.624
-23.509
-23.339
-23.113
-22.83
-22.489
-22.092
-21.641
-21.139
-20.588
-19.99
-19.349
-18.67
-17.958
-17.218
-16.456
-15.674
-14.879
-14.077
-13.278
-12.489
-11.717
-10.966
-10.244
-9.563
-8.929
-8.349
-7.823
-7.352
-6.938
-6.586
-6.296
-6.07
-5.908
-5.804
-5.762
-5.791
-5.899
-6.096
-6.38
-6.73
-7.133
-7.587
-8.078
-8.588
-9.096
-9.569
-9.992
-10.371
-10.7
-10.969
-11.161
-11.239
-11.172
-10.93
-10.506
-9.929
-9.237
-8.469
-7.696
-7.011
-6.507
-6.296
-6.45
-6.97
-7.881
-9.202
-10.919
-13.047
-15.596
-18.57
-21.983
-25.764
-29.761
-33.772
-37.512
-40.659
-42.92
-43.899
-43.203
-40.753
-36.639
-31.181
-25.033
-18.667
-12.349
-6.536
-1.582
2.702
6.933
12.353
20.583
32.539
48.549
68.95
93.555
121.06
148.84
172.879
188.95
193.711
184.476
158.641
114.167
50.949
-28.468
-119.365
-216.586
-315.088
-409.862
-495.296
-565.165
-615.276
-644.474
-653.616
-644.464
-619.402
-581.134
-533.691
-482.847
-432.984
-386.416
-344.4
-307.182
-274.655
-246.841
-222.742
-200.065
-177.378
-154.214
-130.558
-107.207
-84.877
-63.9
-44.975
-29.048
-16.599
-7.79
-2.473
-0.044
0.028
-1.805
-4.968
-8.973
-13.394
-17.799
-21.895
-25.446
-28.221
-30.09
-30.958
-30.74
-29.421
-27.02
-23.582
-19.246
-14.164
-8.485
-2.4
3.944
10.388
16.732
22.825
28.544
33.789
38.523
42.727
46.373
49.468
52.045
54.141
55.829
57.176
58.235
59.076
59.769
60.391
61.035
61.774
62.653
63.713
64.976
66.454
68.164
70.108
72.27
74.639
77.201
79.946
82.868
85.955
89.188
92.547
96.006
99.543
103.141
106.78
110.441
114.103
117.748
121.359
124.922
128.42
131.833
135.138
138.315
141.341
144.196
146.861
149.313
151.533
153.506
155.216
156.65
157.797
158.646
159.188
159.415
159.324
158.91
158.171
157.108
155.721
154.015
151.996
149.672
147.05
144.142
140.958
137.512
133.819
129.894
125.753
121.414
116.894
112.213
107.391
102.448
97.404
92.281
87.098
81.877
76.638
71.402
66.187
61.012
55.895
50.854
45.903
41.06
36.338
31.75
27.309
23.027
18.913
14.976
11.225
7.665
4.303
1.141
-1.816
-4.567
-7.111
-9.447
-11.578
-13.505
-15.231
-16.76
-18.098
-19.249
-20.22
-21.019
-21.653
-22.129
-22.457
-22.645
-22.703
-22.639
-22.463
-22.184
-21.813
-21.359
-20.832
-20.241
-19.597
-18.909
-18.185
-17.435
-16.668
-15.891
-15.111
-14.337
-13.576
-12.834
-12.118
-11.433
-10.785
-10.179
-9.619
-9.109
-8.652
-8.249
-7.903
-7.615
-7.387
-7.218
-7.109
-7.061
-7.071
-7.14
-7.265
-7.446
-7.679
-7.961
-8.289
-8.659
-9.067
-9.508
-9.977
-10.47
-10.981
-11.506
-12.039
-12.575
-13.107
-13.628
-14.134
-14.615
-15.068
-15.484
-15.857
-16.184
-16.459
-16.68
-16.842
-16.942
-16.978
-16.947
-16.847
-16.676
-16.433
-16.117
-15.728
-15.265
-14.733
-14.134
-13.472
-12.751
-11.974
-11.149
-10.284
-9.384
-8.456
-7.503
-6.532
-5.55
-4.565
-3.585
-2.615
-1.661
-0.733
0.158
1
1.787
2.516
3.182
3.785
4.32
4.783
5.175
5.501
5.759
5.945
6.048
6.046
5.933
5.719
5.415
5.048
4.638
4.201
3.771
3.391
3.082
2.863
2.729
2.654
2.646
2.719
2.893
3.222
3.723
4.385
5.187
6.074
6.958
7.762
8.356
8.583
8.356
7.601
6.298
4.498
2.206
-0.553
-3.745
-7.385
-11.469
-15.968
-20.809
-25.828
-30.752
-35.282
-39.052
-41.671
-42.762
-41.927
-39.047
-34.293
-28.022
-20.888
-13.417
-5.885
1.256
7.606
13.32
18.999
25.808
35.316
48.372
65.189
86.087
110.862
138.209
165.61
189.132
204.616
208.838
199.181
173.07
128.507
65.328
-14.042
-104.961
-202.393
-301.406
-397.015
-483.65
-555.082
-606.992
-638.099
-649.127
-641.651
-617.919
-580.554
-533.508
-482.568
-432.198
-384.785
-341.699
-303.321
-269.636
-240.745
-215.701
-192.196
-168.779
-144.964
-120.705
-96.781
-73.897
-52.38
-32.945
-16.577
-3.777
5.276
10.723
13.176
13.174
11.179
7.79
3.517
-1.195
-5.897
-10.284
-14.112
-17.143
-19.236
-20.289
-20.213
-18.991
-16.642
-13.213
-8.846
-3.702
2.062
8.245
14.69
21.231
27.661
33.826
39.598
44.874
49.614
53.798
57.396
60.415
62.888
64.851
66.379
67.543
68.397
69.014
69.469
69.84
70.223
70.692
71.294
72.07
73.041
74.222
75.63
77.267
79.117
81.172
83.419
85.846
88.451
91.221
94.139
97.184
100.332
103.562
106.858
110.2
113.571
116.952
120.325
123.674
126.986
130.246
133.433
136.528
139.508
142.352
145.043
147.558
149.88
151.988
153.867
155.503
156.883
157.997
158.834
159.384
159.642
159.601
159.26
158.615
157.668
156.418
154.87
153.028
150.902
148.497
145.825
142.896
139.723
136.318
132.697
128.876
124.87
120.697
116.374
111.921
107.357
102.7
97.971
93.189
88.374
83.544
78.719
73.916
69.152
64.445
59.809
55.261
50.813
46.48
42.272
38.201
34.277
30.509
26.905
23.472
20.215
17.138
14.245
11.538
9.02
6.689
4.547
2.59
0.818
-0.774
-2.188
-3.43
-4.505
-5.419
-6.178
-6.789
-7.261
-7.601
-7.817
-7.918
-7.911
-7.806
-7.612
-7.335
-6.986
-6.573
-6.103
-5.584
-5.026
-4.434
-3.818
-3.183
-2.537
-1.886
-1.236
-0.593
0.038
0.653
1.245
1.811
2.346
2.847
3.31
3.731
4.108
4.44
4.724
4.959
5.144
5.28
5.365
5.4
5.386
5.322
5.21
5.049
4.843
4.591
4.298
3.964
3.593
3.187
2.751
2.287
1.8
1.292
0.768
0.23
-0.318
-0.871
-1.424
-1.973
-2.511
-3.033
-3.534
-4.007
-4.449
-4.856
-5.223
-5.548
-5.828
-6.06
-6.24
-6.369
-6.442
-6.458
-6.415
-6.312
-6.148
-5.925
-5.645
-5.309
-4.92
-4.483
-4.002
-3.484
-2.935
-2.358
-1.756
-1.134
-0.496
0.153
0.808
1.465
2.119
2.763
3.389
3.986
4.545
5.063
5.537
5.963
6.339
6.662
6.932
7.155
7.329
7.451
7.513
7.493
7.38
7.181
6.902
6.56
6.185
5.799
5.436
5.142
4.944
4.86
4.895
5.029
5.255
5.575
5.997
6.555
7.281
8.164
9.194
10.331
11.475
12.539
13.401
13.902
13.931
13.404
12.266
10.525
8.217
5.38
2.074
-1.681
-5.904
-10.574
-15.633
-20.927
-26.182
-31.116
-35.402
-38.687
-40.572
-40.584
-38.493
-34.359
-28.525
-21.668
-14.358
-6.823
0.552
7.179
13.042
18.488
24.562
33.244
45.659
61.979
82.482
107.275
135.611
165.874
194.474
216.226
227.504
225.745
208.476
173.656
119.585
46.33
-42.454
-140.873
-244.028
-347.299
-446.123
-535.559
-609.201
-662.244
-693.468
-703.99
-695.342
-669.404
-627.817
-573.363
-511.78
-448.62
-387.783
-331.498
-280.647
-235.945
-198.896
-170.415
-149.044
-132.474
-118.225
-104.768
-92.088
-80.216
-68.489
-56.036
-42.776
-29.532
-17.866
-8.845
-2.492
1.453
3.247
2.878
0.303
-3.976
-8.954
-13.754
-17.819
-20.88
-22.938
-23.901
-23.6
-22.026
-19.288
-15.555
-11.054
-5.935
-0.282
5.78
12.128
18.599
24.971
31.072
36.771
41.966
46.624
50.723
54.234
57.162
59.539
61.408
62.852
63.939
64.717
65.246
65.589
65.825
66.055
66.357
66.78
67.362
68.124
69.081
70.251
71.636
73.222
74.996
76.946
79.059
81.335
83.764
86.329
89.012
91.788
94.639
97.551
100.509
103.494
106.492
109.486
112.464
115.414
118.323
121.172
123.943
126.616
129.172
131.594
133.862
135.958
137.864
139.565
141.049
142.302
143.315
144.076
144.576
144.81
144.772
144.457
143.865
142.993
141.842
140.416
138.719
136.755
134.533
132.06
129.345
126.399
123.232
119.859
116.292
112.545
108.633
104.573
100.382
96.077
91.675
87.193
82.651
78.066
73.456
68.839
64.23
59.648
55.108
50.624
46.212
41.886
37.658
33.541
29.545
25.68
21.958
18.384
14.967
11.713
8.627
5.714
2.977
0.419
-1.959
-4.156
-6.172
-8.009
-9.668
-11.153
-12.465
-13.611
-14.594
-15.42
-16.096
-16.627
-17.02
-17.285
-17.427
-17.455
-17.378
-17.203
-16.94
-16.596
-16.181
-15.702
-15.167
-14.585
-13.963
-13.31
-12.631
-11.936
-11.23
-10.521
-9.815
-9.118
-8.436
-7.773
-7.136
-6.528
-5.954
-5.418
-4.923
-4.473
-4.071
-3.719
-3.42
-3.175
-2.986
-2.852
-2.774
-2.751
-2.784
-2.871
-3.01
-3.202
-3.445
-3.736
-4.073
-4.456
-4.88
-5.343
-5.84
-6.37
-6.926
-7.505
-8.102
-8.712
-9.331
-9.955
-10.578
-11.195
-11.802
-12.393
-12.962
-13.502
-14.008
-14.473
-14.892
-15.26
-15.573
-15.827
-16.02
-16.148
-16.209
-16.202
-16.123
-15.973
-15.748
-15.449
-15.075
-14.626
-14.104
-13.513
-12.856
-12.136
-11.359
-10.531
-9.66
-8.754
-7.817
-6.855
-5.874
-4.88
-3.879
-2.878
-1.882
-0.897
0.068
1.004
1.9
2.746
3.538
4.272
4.945
5.554
6.096
6.572
6.987
7.339
7.625
7.835
7.951
7.959
7.867
7.681
7.421
7.118
6.797
6.492
6.25
6.099
6.059
6.137
6.318
6.596
6.977
7.472
8.119
8.954
9.966
11.143
12.441
13.752
14.98
16.001
16.651
16.816
16.415
15.385
13.735
11.496
8.705
5.414
1.634
-2.652
-7.419
-12.602
-18.033
-23.412
-28.434
-32.746
-35.962
-37.685
-37.443
-34.988
-30.391
-23.986
-16.449
-8.408
-0.135
7.947
15.173
21.543
27.497
34.044
43.168
56.228
73.517
95.553
122.768
154.158
187.655
219.521
244.281
257.623
256.554
237.863
198.645
137.705
55.923
-42.706
-151.619
-264.923
-377.318
-483.006
-575.664
-649.312
-699.851
-726.27
-730.354
-714.263
-680.24
-631.036
-570.638
-504.544
-437.989
-374.804
-316.762
-264.716
-219.505
-182.143
-153.094
-131.037
-113.721
-98.785
-85.007
-72.248
-60.396
-48.853
-36.708
-23.876
-11.246
-0.322
7.91
13.423
16.51
17.412
16.049
12.439
7.147
1.243
-4.31
-8.983
-12.557
-15.031
-16.326
-16.268
-14.837
-12.176
-8.497
-4.022
1.093
6.775
12.918
19.37
25.941
32.388
38.512
44.19
49.342
53.929
57.936
61.336
64.134
66.376
68.129
69.466
70.455
71.141
71.58
71.843
72.018
72.21
72.501
72.94
73.561
74.387
75.432
76.712
78.225
79.951
81.872
83.975
86.25
88.692
91.293
94.032
96.889
99.838
102.861
105.94
109.057
112.193
115.329
118.449
121.538
124.584
127.57
130.479
133.288
135.979
138.53
140.923
143.139
145.157
146.961
148.535
149.865
150.942
151.753
152.289
152.544
152.51
152.184
151.564
150.649
149.438
147.935
146.143
144.069
141.721
139.106
136.235
133.119
129.77
126.203
122.433
118.475
114.345
110.062
105.642
101.106
96.471
91.758
86.986
82.174
77.341
72.507
67.69
62.907
58.175
53.51
48.928
44.443
40.068
35.816
31.699
27.727
23.908
20.252
16.766
13.455
10.324
7.377
4.617
2.045
-0.338
-2.532
-4.538
-6.36
-7.999
-9.461
-10.749
-11.869
-12.827
-13.631
-14.287
-14.802
-15.185
-15.444
-15.588
-15.624
-15.561
-15.409
-15.176
-14.87
-14.501
-14.076
-13.603
-13.09
-12.545
-11.974
-11.384
-10.782
-10.172
-9.561
-8.954
-8.355
-7.769
-7.199
-6.649
-6.121
-5.62
-5.146
-4.703
-4.291
-3.911
-3.565
-3.253
-2.976
-2.735
-2.53
-2.362
-2.229
-2.134
-2.074
-2.05
-2.06
-2.103
-2.179
-2.287
-2.424
-2.591
-2.787
-3.01
-3.258
-3.533
-3.831
-4.151
-4.491
-4.849
-5.223
-5.611
-6.01
-6.417
-6.83
-7.245
-7.662
-8.077
-8.487
-8.889
-9.28
-9.655
-10.009
-10.339
-10.64
-10.906
-11.135
-11.323
-11.467
-11.564
-11.612
-11.608
-11.55
-11.435
-11.262
-11.029
-10.734
-10.375
-9.954
-9.47
-8.927
-8.327
-7.673
-6.969
-6.22
-5.432
-4.613
-3.765
-2.894
-2.002
-1.094
-0.175
0.748
1.673
2.593
3.501
4.388
5.243
6.056
6.821
7.535
8.195
8.799
9.342
9.824
10.25
10.616
10.918
11.149
11.289
11.326
11.267
11.12
10.905
10.655
10.393
10.148
9.964
9.866
9.866
9.973
10.163
10.428
10.778
11.22
11.787
12.512
13.386
14.39
15.488
16.581
17.572
18.361
18.789
18.752
18.189
17.046
15.336
13.094
10.325
7.079
3.391
-0.747
-5.29
-10.192
-15.357
-20.523
-25.395
-29.664
-32.925
-34.872
-35.195
-33.466
-29.564
-23.663
-16.113
-7.644
1.098
9.894
18.284
25.597
31.846
37.432
43.41
51.791
63.869
79.941
100.521
125.967
155.244
186.217
215.054
236.366
245.92
240.745
217.797
174.374
109.57
24.809
-75.564
-185.072
-297.766
-408.386
-511.312
-600.04
-668.706
-713.941
-735.234
-734.267
-713.303
-674.309
-619.678
-554.275
-484.156
-414.222
-348.172
-287.976
-234.493
-189.295
-154.188
-128.614
-110.424
-97.291
-86.549
-76.902
-68.256
-59.728
-49.928
-38.514
-25.896
-13.121
-2.037
6.506
12.662
16.39
17.605
16.396
12.919
7.839
2.397
-2.558
-6.632
-9.575
-11.378
-11.996
-11.284
-9.269
-6.147
-2.125
2.593
7.848
13.58
19.702
26.077
32.529
38.831
44.795
50.31
55.313
59.783
63.697
67.029
69.784
72.008
73.775
75.164
76.238
77.036
77.611
78.029
78.376
78.753
79.234
79.862
80.668
81.668
82.881
84.321
85.986
87.856
89.912
92.139
94.528
97.075
99.768
102.587
105.509
108.512
111.576
114.684
117.819
120.962
124.094
127.199
130.261
133.269
136.207
139.055
141.795
144.406
146.87
149.168
151.281
153.192
154.883
156.339
157.549
158.502
159.188
159.597
159.724
159.562
159.11
158.364
157.326
155.994
154.374
152.469
150.287
147.836
145.123
142.16
138.957
135.528
131.887
128.048
124.026
119.839
115.503
111.037
106.458
101.786
97.039
92.236
87.396
82.54
77.684
72.847
68.046
63.299
58.62
54.025
49.527
45.141
40.878
36.75
32.766
28.936
25.269
21.77
18.447
15.304
12.344
9.572
6.987
4.592
2.386
0.368
-1.464
-3.112
-4.581
-5.875
-6.999
-7.958
-8.76
-9.411
-9.919
-10.291
-10.537
-10.664
-10.681
-10.597
-10.422
-10.162
-9.828
-9.429
-8.972
-8.466
-7.92
-7.341
-6.736
-6.114
-5.48
-4.841
-4.204
-3.573
-2.954
-2.351
-1.77
-1.213
-0.685
-0.189
0.273
0.696
1.08
1.423
1.723
1.979
2.191
2.358
2.48
2.556
2.588
2.573
2.514
2.411
2.265
2.077
1.848
1.58
1.276
0.936
0.563
0.159
-0.274
-0.736
-1.223
-1.734
-2.267
-2.819
-3.388
-3.97
-4.564
-5.166
-5.772
-6.379
-6.983
-7.582
-8.172
-8.75
-9.314
-9.858
-10.38
-10.873
-11.335
-11.76
-12.144
-12.482
-12.771
-13.008
-13.191
-13.319
-13.389
-13.399
-13.348
-13.237
-13.062
-12.824
-12.523
-12.156
-11.726
-11.236
-10.687
-10.084
-9.431
-8.732
-7.994
-7.223
-6.428
-5.612
-4.78
-3.936
-3.086
-2.235
-1.39
-0.555
0.264
1.06
1.824
2.544
3.214
3.829
4.386
4.882
5.318
5.69
5.998
6.248
6.438
6.564
6.618
6.582
6.448
6.223
5.916
5.546
5.146
4.74
4.363
4.061
3.857
3.767
3.798
3.933
4.168
4.514
4.974
5.576
6.352
7.286
8.365
9.545
10.718
11.783
12.624
13.076
13.036
12.431
11.197
9.342
6.889
3.858
0.328
-3.665
-8.117
-12.971
-18.188
-23.644
-29.046
-34.111
-38.493
-41.765
-43.614
-43.67
-41.513
-37.079
-30.56
-22.396
-13.418
-4.232
4.851
13.25
20.495
26.702
32.419
39.011
48.284
61.21
78.179
99.647
125.459
154.233
183.103
207.578
223.006
225.709
212.702
181.182
128.85
55.539
-35.762
-139.673
-250.423
-362.315
-469.985
-567.698
-648.515
-707.409
-742.811
-755.255
-746.328
-718.476
-673.831
-615.399
-549.153
-480.496
-413.033
-349.764
-292.293
-241.317
-198.456
-164.966
-139.422
-120.142
-105.489
-93.179
-82.346
-72.873
-63.675
-53.556
-42.494
-30.672
-18.906
-8.907
-1.268
4.126
7.106
7.619
5.804
1.801
-3.695
-9.418
-14.589
-18.816
-21.832
-23.654
-24.231
-23.435
-21.337
-18.163
-14.125
-9.43
-4.221
1.459
7.517
13.808
20.144
26.278
32.032
37.309
42.047
46.232
49.842
52.857
55.301
57.242
58.754
59.917
60.787
61.398
61.804
62.079
62.306
62.589
62.997
63.57
64.34
65.327
66.544
68.006
69.704
71.615
73.719
76.001
78.452
81.068
83.836
86.733
89.739
92.831
95.987
99.192
102.426
105.667
108.898
112.101
115.26
118.363
121.392
124.328
127.15
129.839
132.375
134.739
136.912
138.874
140.611
142.106
143.347
144.323
145.024
145.44
145.566
145.395
144.925
144.154
143.082
141.709
140.038
138.076
135.827
133.301
130.506
127.451
124.15
120.615
116.859
112.899
108.748
104.425
99.946
95.33
90.594
85.758
80.84
75.86
70.837
65.79
60.738
55.699
50.69
45.728
40.829
36.009
31.281
26.66
22.157
17.786
13.555
9.476
5.556
1.804
-1.775
-5.174
-8.391
-11.42
-14.26
-16.909
-19.367
-21.634
-23.712
-25.602
-27.308
-28.833
-30.182
-31.36
-32.372
-33.226
-33.928
-34.485
-34.905
-35.196
-35.366
-35.423
-35.376
-35.234
-35.005
-34.697
-34.32
-33.882
-33.39
-32.854
-32.281
-31.678
-31.053
-30.412
-29.762
-29.109
-28.459
-27.819
-27.192
-26.584
-26
-25.443
-24.918
-24.429
-23.978
-23.569
-23.203
-22.884
-22.613
-22.392
-22.224
-22.109
-22.048
-22.041
-22.09
-22.194
-22.352
-22.563
-22.827
-23.142
-23.506
-23.919
-24.377
-24.879
-25.422
-26.005
-26.624
-27.278
-27.961
-28.672
-29.406
-30.16
-30.929
-31.71
-32.498
-33.289
-34.077
-34.86
-35.631
-36.385
-37.118
-37.821
-38.491
-39.122
-39.706
-40.241
-40.72
-41.14
-41.498
-41.79
-42.016
-42.172
-42.256
-42.268
-42.207
-42.073
-41.865
-41.585
-41.234
-40.814
-40.328
-39.783
-39.18
-38.524
-37.821
-37.079
-36.305
-35.506
-34.687
-33.854
-33.014
-32.178
-31.353
-30.547
-29.765
-29.014
-28.306
-27.649
-27.051
-26.518
-26.049
-25.647
-25.314
-25.053
-24.866
-24.751
-24.705
-24.726
-24.818
-24.996
-25.273
-25.649
-26.112
-26.637
-27.209
-27.815
-28.436
-29.044
-29.603
-30.085
-30.48
-30.796
-31.034
-31.183
-31.223
-31.108
-30.798
-30.286
-29.592
-28.769
-27.879
-26.982
-26.163
-25.539
-25.227
-25.331
-25.896
-26.91
-28.368
-30.253
-32.546
-35.274
-38.457
-42.083
-46.086
-50.3
-54.488
-58.41
-61.772
-64.258
-65.487
-64.987
-62.561
-58.314
-52.542
-45.872
-38.859
-31.7
-24.793
-18.757
-13.58
-8.85
-3.587
4.091
15.445
30.718
50.307
74.505
102.332
131.873
159.677
180.74
191.118
188.05
168.629
130.275
72.023
-5.116
-97.406
-198.919
-304.229
-408.254
-505.227
-588.862
-653.628
-696.261
-716.373
-715.782
-696.694
-661.705
-614.466
-560.013
-503.87
-450.035
-400.612
-356.293
-317.227
-283.398
-254.335
-228.576
-204.027
-179.416
-154.456
-129.511
-105.343
-82.559
-61.599
-43.15
-28.058
-16.747
-9.231
-5.219
-4.093
-5.28
-8.312
-12.652
-17.775
-23.225
-28.547
-33.368
-37.45
-40.597
-42.671
-43.601
-43.316
-41.799
-39.104
-35.324
-30.61
-25.128
-19.031
-12.488
-5.667
1.248
8.039
14.519
20.566
26.092
31.058
35.444
39.228
42.417
45.06
47.219
48.968
50.376
51.496
52.394
53.147
53.839
54.57
55.413
56.415
57.613
59.031
60.684
62.586
64.734
67.111
69.698
72.483
75.455
78.608
81.93
85.402
89.002
92.707
96.495
100.351
104.255
108.187
112.129
116.061
119.97
123.841
127.658
131.4
135.048
138.578
141.969
145.202
148.256
151.108
153.74
156.135
158.277
160.154
161.751
163.059
164.067
164.767
165.154
165.222
164.968
164.392
163.493
162.273
160.737
158.889
156.738
154.291
151.558
148.549
145.278
141.758
138.003
134.029
129.853
125.491
120.962
116.286
111.481
106.567
101.564
96.492
91.372
86.223
81.063
75.913
70.79
65.712
60.695
55.755
50.909
46.17
41.551
37.066
32.726
28.542
24.523
20.677
17.012
13.534
10.248
7.159
4.27
1.582
-0.902
-3.182
-5.26
-7.137
-8.816
-10.3
-11.594
-12.701
-13.629
-14.383
-14.971
-15.399
-15.676
-15.809
-15.808
-15.68
-15.434
-15.081
-14.628
-14.085
-13.461
-12.765
-12.006
-11.192
-10.332
-9.435
-8.508
-7.559
-6.595
-5.624
-4.651
-3.684
-2.729
-1.789
-0.871
0.021
0.882
1.711
2.503
3.255
3.966
4.634
5.257
5.835
6.368
6.855
7.297
7.694
8.049
8.363
8.637
8.874
9.077
9.249
9.394
9.513
9.613
9.696
9.767
9.83
9.89
9.952
10.02
10.099
10.194
10.31
10.45
10.619
10.823
11.064
11.346
11.674
12.05
12.479
12.962
13.502
14.101
14.761
15.484
16.27
17.12
18.033
19.01
20.05
21.152
22.313
23.531
24.804
26.128
27.499
28.914
30.367
31.855
33.371
34.91
36.467
38.036
39.61
41.184
42.752
44.307
45.844
47.358
48.842
50.291
51.701
53.066
54.381
55.644
56.848
57.992
59.071
60.084
61.026
61.897
62.695
63.418
64.066
64.64
65.138
65.561
65.912
66.191
66.4
66.54
66.616
66.629
66.582
66.479
66.322
66.115
65.861
65.563
65.222
64.843
64.426
63.973
63.488
62.969
62.421
61.842
61.234
60.598
59.934
59.241
58.52
57.77
56.989
56.176
55.331
54.453
53.539
52.59
51.603
50.579
49.515
48.41
47.263
46.073
44.84
43.561
42.237
40.868
39.456
38.001
36.506
34.973
