-32.11
-104.462
-170.272
-226.225
-268.603
-296.735
-312.244
-317.289
-315.354
-309.389
-300.816
-291.643
-284.316
-279.722
-277.774
-277.58
-277.108
-275.264
-272.074
-267.397
-261.094
-253.259
-244.025
-234.01
-224.354
-215.724
-208.343
-202.31
-197.536
-193.999
-191.74
-190.646
-190.463
-190.912
-191.72
-192.599
-193.303
-193.645
-193.475
-192.669
-191.148
-188.861
-185.803
-182.052
-177.73
-172.942
-167.794
-162.352
-156.685
-150.925
-145.232
-139.791
-134.773
-130.224
-126.161
-122.613
-119.6
-117.156
-115.206
-113.505
-111.736
-109.564
-106.678
-102.875
-97.869
-91.218
-82.713
-72.378
-60.516
-47.893
-35.139
-22.478
-10.311
0.818
10.929
20.399
30.244
42.4
58.234
78.146
102.605
131.867
164.782
199.071
231.104
255.855
269.13
268.057
249.622
211.044
151.816
73.748
-19.051
-120.432
-224.529
-326.432
-420.293
-499.26
-558.284
-594.695
-608.3
-601.271
-576.05
-534.471
-479.834
-417.78
-353.747
-292.248
-236.037
-185.791
-142.057
-106.161
-78.69
-58.225
-42.454
-28.653
-15.154
-1.888
11.151
24.558
39.113
54.851
70.854
85.472
97.58
107.027
113.979
118.624
120.84
120.569
118.298
114.962
111.439
108.322
105.903
104.247
103.504
103.84
105.286
107.769
111.137
115.223
119.917
125.15
130.845
136.917
143.244
149.679
156.061
162.207
167.985
173.321
178.16
182.478
186.264
189.509
192.242
194.533
196.445
198.037
199.355
200.43
201.316
202.083
202.806
203.56
204.401
205.361
206.469
207.746
209.207
210.862
212.707
214.725
216.902
219.231
221.709
224.333
227.095
229.98
232.974
236.063
239.235
242.479
245.78
249.125
252.5
255.893
259.291
262.685
266.061
269.403
272.693
275.915
279.05
282.083
284.994
287.765
290.379
292.82
295.074
297.125
298.962
300.569
301.937
303.053
303.908
304.492
304.799
304.819
304.549
303.983
303.119
301.953
300.484
298.714
296.643
294.274
291.612
288.662
285.431
281.925
278.155
274.13
269.863
265.364
260.647
255.727
250.617
245.335
239.895
234.314
228.609
222.796
216.894
210.919
204.89
198.823
192.736
186.647
180.573
174.532
168.539
162.612
156.766
151.015
145.376
139.861
134.482
129.253
124.185
119.286
114.566
110.034
105.695
101.556
97.621
93.893
90.375
87.069
83.973
81.088
78.412
75.942
73.674
71.604
69.726
68.034
66.522
65.182
64.006
62.985
62.109
61.37
60.758
60.262
59.873
59.58
59.373
59.242
59.177
59.168
59.206
59.281
59.385
59.51
59.648
59.791
59.932
60.066
60.186
60.287
60.364
60.414
60.432
60.415
60.361
60.268
60.133
59.957
59.738
59.475
59.17
58.824
58.436
58.008
57.542
57.04
56.504
55.936
55.338
54.713
54.063
53.392
52.7
51.992
51.27
50.535
49.791
49.04
48.283
47.522
46.76
45.998
45.238
44.481
43.729
42.983
42.244
41.512
40.79
40.077
39.373
38.681
37.998
37.326
36.664
36.012
35.37
34.737
34.113
33.497
32.888
32.285
31.687
31.093
30.502
29.912
29.322
28.731
28.137
27.54
26.936
26.327
25.709
25.082
24.444
23.793
23.128
22.448
21.751
21.035
20.298
19.54
18.759
17.954
17.124
16.268
15.384
14.472
13.532
12.562
11.562
10.531
9.471
8.381
7.263
6.117
4.945
3.748
2.528
1.288
0.029
-1.246
-2.536
-3.837
-5.147
-6.461
-7.776
-9.088
-10.393
-11.686
-12.962
-14.216
-15.442
-16.638
-17.797
-18.916
-19.989
-21.011
-21.978
-22.886
-23.728
-24.502
-25.202
-25.824
-26.364
-26.822
-27.196
-27.485
-27.688
-27.805
-27.838
-27.787
-27.654
-27.442
-27.151
-26.786
-26.35
-25.851
-25.293
-24.685
-24.033
-23.347
-22.638
-21.917
-21.193
-20.475
-19.772
-19.092
-18.445
-17.838
-17.277
-16.768
-16.322
-15.946
-15.651
-15.446
-15.336
-15.328
-15.427
-15.638
-15.965
-16.407
-16.956
-17.612
-18.377
-19.256
-20.259
-21.387
-22.63
-23.977
-25.421
-26.944
-28.521
-30.113
-31.656
-33.104
-34.432
-35.624
-36.675
-37.573
-38.289
-38.805
-39.122
-39.246
-39.187
-38.957
-38.544
-37.986
-37.366
-36.8
-36.457
-36.471
-36.914
-37.853
-39.342
-41.421
-44.14
-47.485
-51.341
-55.618
-60.239
-65.148
-70.348
-75.718
-80.998
-85.882
-89.967
-92.888
-94.394
-94.132
-91.701
-86.965
-79.979
-71.12
-61.203
-50.832
-40.369
-30.366
-21.196
-12.765
-4.602
4.48
16.038
30.954
49.637
72.51
99.385
128.936
158.474
183.879
200.945
206.379
197.487
171.603
126.527
62
-19.517
-113.246
-213.834
-316.275
-415.782
-506.816
-583.115
-640.037
-675.488
-689.848
-684.992
-662.943
-625.831
-577.207
-522.018
-465.005
-410.241
-359.944
-314.653
-275.01
-241.641
-214.367
-192.533
-174.66
-158.448
-142.87
-128.055
-113.956
-100.684
-88.195
-75.942
-64.29
-54.578
-47.412
-42.861
-40.808
-40.663
-42.156
-45.488
-50.315
-55.781
-61.173
-65.879
-69.542
-72.2
-73.796
-74.139
-73.184
-71.005
-67.737
-63.599
-58.772
-53.344
-47.415
-41.117
-34.601
-28.067
-21.73
-15.74
-10.198
-5.168
-0.684
3.234
6.569
9.341
11.606
13.429
14.873
15.996
16.837
17.449
17.9
18.272
18.652
19.105
19.67
20.38
21.258
22.321
23.585
25.052
26.706
28.541
30.551
32.736
35.1
37.639
40.346
43.208
46.217
49.362
52.638
56.036
59.545
63.158
66.865
70.659
74.534
78.478
82.478
86.519
90.584
94.657
98.72
102.754
106.74
110.659
114.491
118.221
121.828
125.298
128.611
131.75
134.7
137.445
139.971
142.261
144.304
146.086
147.595
148.823
149.758
150.393
150.721
150.735
150.432
149.807
148.86
147.589
145.995
144.08
141.849
139.307
136.46
133.316
129.885
126.177
122.204
117.979
113.517
108.83
103.936
98.85
93.588
88.169
82.61
76.929
71.145
65.277
59.343
53.363
47.356
41.339
35.333
29.354
23.421
17.552
11.762
6.067
0.484
-4.973
-10.291
-15.458
-20.461
-25.29
-29.935
-34.389
-38.645
-42.695
-46.536
-50.165
-53.578
-56.774
-59.754
-62.518
-65.068
-67.407
-69.538
-71.467
-73.198
-74.738
-76.093
-77.271
-78.278
-79.125
-79.818
-80.367
-80.78
-81.068
-81.239
-81.303
-81.269
-81.146
-80.943
-80.67
-80.334
-79.945
-79.511
-79.038
-78.535
-78.008
-77.463
-76.907
-76.345
-75.781
-75.221
-74.667
-74.123
-73.593
-73.079
-72.582
-72.104
-71.647
-71.212
-70.798
-70.406
-70.036
-69.688
-69.361
-69.055
-68.768
-68.499
-68.248
-68.012
-67.792
-67.585
-67.39
-67.206
-67.031
-66.863
-66.702
-66.547
-66.394
-66.245
-66.096
-65.948
-65.8
-65.65
-65.498
-65.344
-65.186
-65.025
-64.86
-64.691
-64.517
-64.34
-64.158
-63.973
-63.785
-63.593
-63.4
-63.204
-63.007
-62.809
-62.611
-62.414
-62.218
-62.025
-61.834
-61.648
-61.466
-61.29
-61.122
-60.961
-60.81
-60.668
-60.538
-60.42
-60.315
-60.226
-60.151
-60.095
-60.056
-60.037
-60.04
-60.065
-60.114
-60.188
-60.287
-60.414
-60.569
-60.752
-60.965
-61.209
-61.483
-61.79
-62.128
-62.5
-62.904
-63.341
-63.809
-64.309
-64.838
-65.397
-65.983
-66.594
-67.229
-67.886
-68.563
-69.258
-69.967
-70.686
-71.413
-72.143
-72.872
-73.595
-74.306
-75
-75.671
-76.315
-76.927
-77.501
-78.032
-78.514
-78.942
-79.31
-79.611
-79.841
-79.993
-80.062
-80.042
-79.93
-79.724
-79.421
-79.017
-78.512
-77.905
-77.195
-76.382
-75.467
-74.45
-73.332
-72.116
-70.806
-69.408
-67.929
-66.373
-64.751
-63.072
-61.348
-59.587
-57.797
-55.989
-54.171
-52.352
-50.541
-48.744
-46.969
-45.227
-43.528
-41.886
-40.312
-38.815
-37.405
-36.09
-34.877
-33.772
-32.779
-31.894
-31.116
-30.449
-29.903
-29.491
-29.22
-29.086
-29.083
-29.206
-29.444
-29.775
-30.163
-30.55
-30.892
-31.162
-31.348
-31.448
-31.459
-31.362
-31.134
-30.771
-30.275
-29.654
-28.907
-28.022
-27.016
-25.951
-24.948
-24.17
-23.75
-23.773
-24.294
-25.363
-27.021
-29.308
-32.224
-35.683
-39.591
-43.883
-48.531
-53.54
-58.837
-64.207
-69.312
-73.77
-77.216
-79.381
-79.954
-78.491
-74.775
-68.844
-61.011
-52.037
-42.599
-32.969
-23.568
-14.985
-7.181
0.275
8.381
19.072
33.693
52.612
76.365
105.314
138.392
173.423
206.642
232.785
247.686
248.422
231.932
195.426
137.861
60.447
-32.672
-135.199
-241.412
-346.287
-444.401
-529.376
-595.297
-638.608
-658.642
-656.992
-635.802
-596.925
-542.601
-477.542
-407.826
-338.446
-273.185
-214.115
-162.152
-118.865
-86.087
-63.265
-48.128
-38.251
-30.88
-24.536
-18.997
-13.285
-5.89
3.536
14.528
26.021
36.158
44.06
49.868
53.491
54.765
53.772
50.679
46.156
41.443
37.318
34.098
31.997
30.997
31.13
32.525
35.121
38.688
43.025
47.939
53.289
59.032
65.078
71.287
77.493
83.482
89.097
94.254
98.901
103.025
106.609
109.629
112.103
114.085
115.638
116.833
117.725
118.348
118.754
119.01
119.196
119.405
119.702
120.127
120.712
121.475
122.436
123.613
125.008
126.608
128.404
130.392
132.57
134.943
137.507
140.252
143.164
146.23
149.439
152.784
156.252
159.83
163.508
167.274
171.116
175.027
178.991
182.993
187.014
191.034
195.033
198.992
202.889
206.702
210.408
213.989
217.423
220.691
223.775
226.656
229.314
231.735
233.9
235.795
237.406
238.718
239.721
240.403
240.756
240.772
240.444
239.769
238.742
237.363
235.632
233.549
231.119
228.345
225.235
221.797
218.039
213.975
209.615
204.974
200.067
194.91
189.521
183.918
178.119
172.143
166.01
159.741
153.355
146.875
140.32
133.712
127.072
120.421
113.778
107.165
100.601
94.104
87.694
81.386
75.199
69.147
63.245
57.507
51.945
46.57
41.392
36.42
31.661
27.122
22.805
18.716
14.856
11.225
7.825
4.652
1.705
-1.019
-3.526
-5.821
-7.909
-9.798
-11.496
-13.01
-14.349
-15.523
-16.541
-17.412
-18.146
-18.755
-19.246
-19.632
-19.92
-20.122
-20.247
-20.303
-20.3
-20.246
-20.149
-20.017
-19.856
-19.673
-19.473
-19.263
-19.046
-18.828
-18.611
-18.399
-18.195
-18.001
-17.818
-17.649
-17.494
-17.353
-17.228
-17.118
-17.022
-16.94
-16.872
-16.817
-16.773
-16.739
-16.714
-16.697
-16.687
-16.681
-16.679
-16.679
-16.68
-16.681
-16.681
-16.679
-16.675
-16.667
-16.656
-16.641
-16.622
-16.6
-16.573
-16.543
-16.51
-16.475
-16.437
-16.399
-16.359
-16.32
-16.282
-16.245
-16.211
-16.18
-16.153
-16.131
-16.115
-16.106
-16.105
-16.112
-16.129
-16.156
-16.194
-16.245
-16.308
-16.385
-16.476
-16.582
-16.702
-16.838
-16.99
-17.157
-17.34
-17.54
-17.755
-17.985
-18.231
-18.492
-18.767
-19.055
-19.357
-19.672
-19.998
-20.337
-20.687
-21.048
-21.419
-21.8
-22.19
-22.588
-22.995
-23.407
-23.826
-24.25
-24.678
-25.11
-25.544
-25.98
-26.417
-26.854
-27.289
-27.723
-28.152
-28.577
-28.995
-29.405
-29.806
-30.198
-30.578
-30.947
-31.302
-31.644
-31.97
-32.279
-32.569
-32.838
-33.085
-33.308
-33.503
-33.669
-33.805
-33.908
-33.978
-34.012
-34.008
-33.965
-33.881
-33.754
-33.58
-33.359
-33.088
-32.765
-32.39
-31.964
-31.486
-30.957
-30.377
-29.748
-29.07
-28.345
-27.575
-26.76
-25.901
-25.002
-24.065
-23.096
-22.099
-21.079
-20.042
-18.994
-17.944
-16.898
-15.863
-14.844
-13.846
-12.873
-11.931
-11.024
-10.157
-9.335
-8.564
-7.852
-7.206
-6.634
-6.14
-5.726
-5.395
-5.145
-4.977
-4.887
-4.871
-4.925
-5.054
-5.264
-5.563
-5.955
-6.438
-7.002
-7.634
-8.31
-8.999
-9.665
-10.268
-10.778
-11.183
-11.478
-11.666
-11.746
-11.711
-11.546
-11.238
-10.774
-10.145
-9.357
-8.425
-7.408
-6.412
-5.553
-4.961
-4.742
-4.958
-5.656
-6.864
-8.582
-10.805
-13.499
-16.599
-20.065
-23.869
-27.965
-32.319
-36.781
-41.065
-44.881
-47.873
-49.696
-50.134
-48.896
-45.635
-40.314
-33.104
-24.431
-15.125
-5.792
3.284
11.584
18.699
24.795
30.277
36.262
44.634
56.506
72.425
93.025
117.906
145.342
172.912
196.813
212.181
215.255
202.685
171.063
119.318
48.742
-37.867
-135.507
-237.761
-338.78
-432.047
-510.175
-568.386
-604.41
-617.615
-609.826
-584.138
-543.664
-493.148
-438.893
-385.436
-335.717
-291.657
-253.371
-220.544
-193.008
-169.321
-147.04
-124.697
-101.572
-77.528
-53.415
-29.963
-7.61
12.786
30.23
44.187
54.446
61.134
64.768
65.82
64.719
61.985
58.111
53.519
48.574
43.597
38.911
34.799
31.481
29.107
27.752
27.452
28.223
30.024
32.761
36.303
40.489
45.169
50.228
55.538
60.962
66.342
71.481
76.235
80.519
84.273
87.473
90.109
92.171
93.691
94.741
95.392
95.716
95.776
95.616
95.294
94.881
94.451
94.084
93.842
93.763
93.881
94.22
94.798
95.631
96.718
98.044
99.6
101.379
103.378
105.598
108.033
110.669
113.497
116.504
119.68
123.014
126.497
130.114
133.853
137.703
141.652
145.689
149.799
153.966
158.171
162.393
166.611
170.806
174.954
179.033
183.02
186.894
190.635
194.221
197.632
200.85
203.854
206.627
209.152
211.412
213.393
215.079
216.458
217.519
218.252
218.646
218.695
218.392
217.731
216.712
215.33
213.588
211.485
209.026
206.216
203.061
199.571
195.755
191.625
187.193
182.475
177.486
172.243
166.764
161.066
155.171
149.096
142.864
136.495
130.01
123.432
116.781
110.08
103.35
96.613
89.89
83.202
76.57
70.013
63.55
57.199
50.979
44.904
38.992
33.255
27.707
22.36
17.222
12.305
7.614
3.155
-1.065
-5.045
-8.782
-12.276
-15.527
-18.537
-21.309
-23.848
-26.157
-28.244
-30.115
-31.778
-33.242
-34.515
-35.606
-36.527
-37.287
-37.897
-38.369
-38.712
-38.94
-39.062
-39.091
-39.037
-38.91
-38.722
-38.482
-38.2
-37.884
-37.544
-37.187
-36.82
-36.452
-36.087
-35.731
-35.39
-35.069
-34.77
-34.498
-34.255
-34.044
-33.866
-33.723
-33.616
-33.546
-33.512
-33.516
-33.555
-33.63
-33.74
-33.883
-34.057
-34.262
-34.495
-34.754
-35.038
-35.344
-35.67
-36.016
-36.378
-36.755
-37.146
-37.549
-37.962
-38.384
-38.815
-39.251
-39.694
-40.141
-40.592
-41.047
-41.503
-41.962
-42.422
-42.883
-43.344
-43.805
-44.265
-44.724
-45.182
-45.639
-46.094
-46.548
-47
-47.45
-47.899
-48.346
-48.791
-49.234
-49.676
-50.115
-50.552
-50.986
-51.417
-51.846
-52.27
-52.691
-53.107
-53.518
-53.924
-54.323
-54.716
-55.101
-55.479
-55.848
-56.208
-56.559
-56.901
-57.233
-57.555
-57.865
-58.162
-58.446
-58.716
-58.97
-59.207
-59.426
-59.625
-59.804
-59.961
-60.095
-60.205
-60.288
-60.344
-60.369
-60.364
-60.325
-60.251
-60.139
-59.988
-59.797
-59.563
-59.285
-58.962
-58.592
-58.172
-57.7
-57.174
-56.592
-55.952
-55.252
-54.492
-53.671
-52.789
-51.848
-50.849
-49.792
-48.681
-47.516
-46.301
-45.038
-43.73
-42.38
-40.992
-39.573
-38.127
-36.661
-35.182
-33.696
-32.211
-30.736
-29.279
-27.847
-26.446
-25.084
-23.766
-22.5
-21.293
-20.15
-19.077
-18.081
-17.17
-16.353
-15.635
-15.019
-14.508
-14.104
-13.805
-13.615
-13.528
-13.541
-13.651
-13.858
-14.165
-14.585
-15.121
-15.767
-16.514
-17.344
-18.228
-19.142
-20.053
-20.919
-21.713
-22.412
-23.006
-23.499
-23.887
-24.162
-24.313
-24.306
-24.111
-23.725
-23.155
-22.433
-21.642
-20.867
-20.213
-19.815
-19.769
-20.151
-21.014
-22.359
-24.167
-26.394
-28.999
-31.967
-35.312
-39.035
-43.08
-47.314
-51.497
-55.343
-58.533
-60.727
-61.545
-60.592
-57.705
-52.968
-46.738
-39.678
-32.313
-24.974
-18.128
-12.129
-6.804
-1.523
4.953
14.239
27.306
44.582
66.543
93.065
122.858
153.307
180.378
199.856
208.367
203.08
181.209
140.558
80.869
4.61
-83.475
-178.248
-274.668
-367.668
-451.626
-520.294
-569.406
-597.806
-606.448
-597.216
-572.598
-535.396
-489.648
-441.028
-393.861
-350.414
-311.8
-278.091
-249.017
-224.399
-203.103
-182.885
-162.317
-140.898
-118.666
-96.418
-74.88
-54.469
-35.897
-20.081
-7.505
1.677
7.599
10.773
11.682
10.727
8.388
5.136
1.36
-2.581
-6.357
-9.71
-12.409
-14.273
-15.196
-15.115
-13.996
-11.849
-8.726
-4.73
0.001
5.317
11.081
17.155
23.4
29.662
35.757
41.531
46.874
51.712
56.01
59.746
62.906
65.498
67.567
69.171
70.375
71.24
71.812
72.147
72.31
72.375
72.422
72.518
72.705
73.018
73.484
74.123
74.952
75.979
77.196
78.596
80.178
81.942
83.893
86.029
88.345
90.832
93.481
96.284
99.238
102.334
105.565
108.922
112.396
115.982
119.671
123.455
127.32
131.249
135.227
139.236
143.257
147.271
151.257
155.194
159.063
162.845
166.519
170.066
173.467
176.703
179.753
182.601
185.23
187.621
189.758
191.627
193.214
194.505
195.49
196.157
196.498
196.504
196.169
195.489
194.461
193.083
191.355
189.279
186.858
184.098
181.006
177.591
173.862
169.831
165.512
160.919
156.067
150.974
145.655
140.131
134.421
128.544
122.521
116.375
110.126
103.796
97.409
90.986
84.55
78.123
71.726
65.38
59.107
52.926
46.857
40.918
35.127
29.5
24.053
18.799
13.75
8.919
4.316
-0.052
-4.177
-8.054
-11.677
-15.045
-18.156
-21.01
-23.607
-25.951
-28.046
-29.896
-31.507
-32.886
-34.042
-34.983
-35.719
-36.26
-36.616
-36.8
-36.823
-36.696
-36.432
-36.043
-35.542
-34.94
-34.25
-33.483
-32.651
-31.764
-30.834
-29.871
-28.883
-27.881
-26.873
-25.866
-24.868
-23.885
-22.923
-21.988
-21.083
-20.213
-19.381
-18.589
-17.84
-17.134
-16.473
-15.857
-15.285
-14.758
-14.274
-13.831
-13.429
-13.065
-12.738
-12.444
-12.181
-11.948
-11.741
-11.559
-11.398
-11.256
-11.131
-11.02
-10.923
-10.835
-10.756
-10.685
-10.619
-10.557
-10.498
-10.441
-10.385
-10.329
-10.274
-10.218
-10.162
-10.106
-10.048
-9.991
-9.934
-9.878
-9.823
-9.77
-9.719
-9.673
-9.63
-9.593
-9.562
-9.538
-9.521
-9.514
-9.515
-9.527
-9.549
-9.583
-9.629
-9.688
-9.758
-9.842
-9.94
-10.05
-10.175
-10.315
-10.468
-10.637
-10.822
-11.022
-11.238
-11.471
-11.72
-11.987
-12.27
-12.571
-12.89
-13.227
-13.582
-13.956
-14.348
-14.76
-15.191
-15.64
-16.107
-16.591
-17.093
-17.612
-18.146
-18.696
-19.26
-19.838
-20.429
-21.031
-21.643
-22.264
-22.89
-23.52
-24.15
-24.778
-25.4
-26.012
-26.612
-27.196
-27.762
-28.304
-28.819
-29.303
-29.752
-30.163
-30.529
-30.848
-31.114
-31.324
-31.475
-31.565
-31.592
-31.553
-31.448
-31.275
-31.034
-30.725
-30.348
-29.902
-29.388
-28.808
-28.167
-27.468
-26.715
-25.915
-25.074
-24.201
-23.307
-22.397
-21.48
-20.564
-19.655
-18.762
-17.891
-17.047
-16.237
-15.469
-14.753
-14.1
-13.518
-13.015
-12.597
-12.274
-12.049
-11.928
-11.911
-11.994
-12.178
-12.465
-12.863
-13.384
-14.032
-14.799
-15.679
-16.663
-17.736
-18.874
-20.04
-21.177
-22.24
-23.209
-24.069
-24.819
-25.448
-25.932
-26.255
-26.414
-26.412
-26.262
-25.971
-25.533
-24.984
-24.4
-23.894
-23.623
-23.706
-24.209
-25.186
-26.682
-28.734
-31.386
-34.626
-38.356
-42.486
-46.944
-51.677
-56.672
-61.819
-66.868
-71.513
-75.4
-78.201
-79.698
-79.598
-77.498
-73.216
-66.783
-58.509
-49.13
-39.278
-29.232
-19.445
-10.507
-2.47
4.94
12.61
22.29
35.19
51.661
72.187
97.12
125.544
155.55
183.778
205.422
216.699
214.976
197.424
161.453
106.082
32.241
-56.422
-153.956
-255.167
-355.453
-449.443
-531.322
-595.613
-638.437
-659.147
-659.764
-642.142
-608.245
-561.025
-504.31
-443.603
-384.384
-329.531
-279.908
-236.31
-199.296
-169.298
-146.599
-129.162
-113.877
-99.317
-85.132
-71.268
-58.018
-45.024
-31.344
-17.598
-5.403
4.435
11.528
16.011
18.568
19.368
18.127
15.195
11.409
7.482
4.098
1.589
-0.11
-0.934
-0.708
0.624
3.022
6.372
10.472
15.155
20.342
25.933
31.812
37.843
43.846
49.623
55.021
59.935
64.301
68.088
71.283
73.868
75.851
77.279
78.215
78.727
78.876
78.709
78.278
77.651
76.916
76.163
75.466
74.873
74.42
74.134
74.041
74.16
74.502
75.06
75.829
76.808
78
79.412
81.046
82.895
84.95
87.202
89.644
92.268
95.07
98.039
101.165
104.441
107.859
111.412
115.088
118.873
122.751
126.704
130.712
134.756
138.816
142.87
146.895
150.871
154.778
158.595
162.301
165.877
169.302
172.557
175.622
178.481
181.116
183.509
185.645
187.51
189.091
190.375
191.352
192.012
192.346
192.349
192.014
191.338
190.318
188.954
187.246
185.197
182.811
180.095
177.054
173.698
170.037
166.083
161.85
157.35
152.599
147.613
142.409
137.004
131.418
125.67
119.778
113.765
107.65
101.454
95.2
88.907
82.598
76.294
70.014
63.781
57.613
51.53
45.55
39.693
33.974
28.41
23.017
17.807
12.795
7.992
3.408
-0.949
-5.069
-8.947
-12.577
-15.957
-19.083
-21.955
-24.572
-26.937
-29.051
-30.919
-32.546
-33.937
-35.1
-36.042
-36.773
-37.302
-37.639
-37.794
-37.779
-37.606
-37.287
-36.833
-36.257
-35.572
-34.79
-33.922
-32.982
-31.982
-30.932
-29.844
-28.729
-27.597
-26.458
-25.32
-24.194
-23.085
-22.003
-20.953
-19.941
-18.972
-18.052
-17.183
-16.369
-15.612
-14.913
-14.275
-13.697
-13.179
-12.721
-12.322
-11.979
-11.692
-11.456
-11.271
-11.132
-11.037
-10.982
-10.964
-10.979
-11.023
-11.093
-11.185
-11.295
-11.421
-11.559
-11.705
-11.857
-12.012
-12.167
-12.321
-12.47
-12.614
-12.75
-12.877
-12.995
-13.103
-13.2
-13.285
-13.361
-13.425
-13.48
-13.525
-13.562
-13.592
-13.616
-13.636
-13.654
-13.671
-13.689
-13.71
-13.736
-13.768
-13.807
-13.857
-13.917
-13.989
-14.075
-14.176
-14.293
-14.426
-14.577
-14.747
-14.936
-15.143
-15.37
-15.617
-15.882
-16.166
-16.469
-16.791
-17.13
-17.487
-17.86
-18.25
-18.654
-19.071
-19.5
-19.938
-20.384
-20.836
-21.291
-21.748
-22.205
-22.658
-23.108
-23.551
-23.985
-24.407
-24.816
-25.208
-25.58
-25.931
-26.256
-26.552
-26.819
-27.051
-27.249
-27.409
-27.529
-27.605
-27.636
-27.618
-27.548
-27.423
-27.241
-26.998
-26.693
-26.325
-25.893
-25.398
-24.839
-24.216
-23.53
-22.783
-21.976
-21.11
-20.186
-19.206
-18.176
-17.098
-15.979
-14.823
-13.636
-12.427
-11.205
-9.976
-8.748
-7.528
-6.323
-5.138
-3.981
-2.857
-1.77
-0.727
0.264
1.194
2.054
2.835
3.533
4.141
4.654
5.068
5.382
5.595
5.715
5.74
5.667
5.49
5.197
4.786
4.265
3.637
2.911
2.108
1.254
0.39
-0.431
-1.176
-1.827
-2.372
-2.812
-3.139
-3.332
-3.388
-3.299
-3.06
-2.676
-2.144
-1.465
-0.688
0.098
0.765
1.161
1.175
0.739
-0.211
-1.708
-3.778
-6.444
-9.658
-13.329
-17.4
-21.81
-26.522
-31.527
-36.683
-41.721
-46.328
-50.105
-52.695
-53.86
-53.261
-50.533
-45.59
-38.553
-29.878
-20.381
-10.647
-1.009
8.018
16.047
23.196
29.991
37.671
47.876
61.535
79.052
100.846
126.776
155.477
184.178
208.716
224.742
228.841
218.326
190.563
143.373
76.651
-6.807
-101.92
-203.146
-305.241
-403.408
-492.215
-565.169
-617.519
-647.588
-656.159
-645.119
-616.683
-572.803
-516.621
-453.861
-390.013
-329.051
-273.235
-223.439
-180.334
-145.226
-118.832
-99.606
-85.157
-73.051
-61.815
-51.314
-41.496
-31.665
-20.899
-9.182
2.596
12.941
20.853
26.338
29.701
31.151
30.598
28.031
23.96
19.379
15.169
11.791
9.42
8.032
7.692
8.55
10.614
13.737
17.71
22.312
27.396
32.889
38.693
44.671
50.66
56.445
61.857
66.794
71.185
75.002
78.233
80.855
82.876
84.34
85.307
85.848
86.028
85.892
85.494
84.9
84.191
83.465
82.795
82.231
81.811
81.561
81.501
81.655
82.031
82.623
83.426
84.438
85.661
87.101
88.762
90.637
92.718
94.995
97.459
100.106
102.928
105.919
109.068
112.367
115.809
119.388
123.092
126.907
130.818
134.806
138.851
142.936
147.039
151.137
155.21
159.235
163.192
167.06
170.818
174.445
177.921
181.224
184.336
187.238
189.911
192.337
194.499
196.382
197.971
199.255
200.22
200.856
201.153
201.104
200.702
199.943
198.823
197.342
195.499
193.297
190.739
187.831
184.581
180.997
177.09
172.872
168.356
163.557
158.491
153.174
147.623
141.858
135.898
129.763
123.475
117.054
110.523
103.905
97.22
90.493
83.745
76.998
70.276
63.598
56.987
50.462
44.044
37.752
31.603
25.614
19.801
14.179
8.76
3.557
-1.421
-6.164
-10.664
-14.916
-18.916
-22.658
-26.143
-29.369
-32.337
-35.05
-37.51
-39.724
-41.695
-43.432
-44.941
-46.232
-47.313
-48.196
-48.89
-49.406
-49.757
-49.953
-50.008
-49.934
-49.743
-49.447
-49.06
-48.592
-48.055
-47.462
-46.823
-46.149
-45.449
-44.733
-44.011
-43.289
-42.577
-41.88
-41.205
-40.557
-39.941
-39.36
-38.818
-38.317
-37.86
-37.447
-37.078
-36.755
-36.477
-36.242
-36.051
-35.9
-35.789
-35.714
-35.674
-35.666
-35.687
-35.733
-35.803
-35.892
-35.998
-36.119
-36.25
-36.389
-36.534
-36.681
-36.829
-36.975
-37.118
-37.255
-37.386
-37.508
-37.623
-37.729
-37.826
-37.915
-37.996
-38.07
-38.139
-38.204
-38.266
-38.328
-38.391
-38.457
-38.53
-38.61
-38.702
-38.807
-38.928
-39.068
-39.229
-39.415
-39.626
-39.866
-40.137
-40.441
-40.781
-41.158
-41.574
-42.031
-42.53
-43.073
-43.661
-44.294
-44.973
-45.698
-46.468
-47.282
-48.14
-49.039
-49.979
-50.956
-51.97
-53.016
-54.092
-55.195
-56.32
-57.464
-58.621
-59.788
-60.958
-62.128
-63.292
-64.444
-65.579
-66.692
-67.777
-68.828
-69.84
-70.806
-71.72
-72.576
-73.369
-74.091
-74.737
-75.301
-75.778
-76.162
-76.449
-76.634
-76.715
-76.687
-76.547
-76.292
-75.919
-75.427
-74.814
-74.079
-73.223
-72.247
-71.154
-69.946
-68.627
-67.2
-65.671
-64.046
-62.328
-60.526
-58.644
-56.691
-54.676
-52.606
-50.494
-48.347
-46.178
-43.997
-41.818
-39.653
-37.515
-35.412
-33.357
-31.36
-29.429
-27.575
-25.806
-24.129
-22.551
-21.079
-19.721
-18.485
-17.376
-16.398
-15.551
-14.836
-14.252
-13.797
-13.469
-13.261
-13.169
-13.189
-13.322
-13.575
-13.95
-14.437
-15.023
-15.685
-16.393
-17.118
-17.831
-18.492
-19.071
-19.541
-19.884
-20.097
-20.18
-20.131
-19.938
-19.565
-18.986
-18.206
-17.243
-16.149
-15.003
-13.879
-12.865
-12.08
-11.621
-11.572
-11.991
-12.889
-14.235
-15.982
-18.093
-20.568
-23.411
-26.6
-30.052
-33.588
-36.978
-39.988
-42.338
-43.739
-43.846
-42.231
-38.691
-33.299
-26.38
-18.586
-10.48
-2.296
5.55
12.441
18.343
23.618
29.251
37.108
48.458
63.637
83.149
107.389
135.463
165.472
194.002
216.14
228.005
226.868
209.792
174.05
118.514
44.118
-45.411
-144.211
-247.043
-349.254
-445.47
-529.4
-595.06
-638.591
-659.37
-659.071
-639.47
-602.2
-549.787
-486.931
-420.033
-354.664
-293.926
-239.16
-191.33
-151.781
-121.83
-100.875
-85.985
-73.908
-62.832
-52.166
-41.863
-31.465
-19.805
-6.554
7.092
19.335
28.965
35.648
39.706
41.473
40.778
37.623
32.587
26.692
20.953
15.969
11.947
8.908
6.95
6.225
6.793
8.558
11.323
14.918
19.202
24.099
29.536
35.369
41.429
47.515
53.402
58.936
64.02
68.586
72.603
76.053
78.915
81.206
82.986
84.314
85.253
85.86
86.169
86.239
86.147
85.98
85.834
85.776
85.85
86.09
86.52
87.161
88.028
89.124
90.434
91.95
93.67
95.591
97.72
100.054
102.581
105.291
108.172
111.213
114.408
117.748
121.22
124.815
128.524
132.339
136.252
140.252
144.323
148.45
152.614
156.796
160.979
165.141
169.261
173.317
177.29
181.161
184.908
188.513
191.957
195.22
198.284
201.131
203.746
206.111
208.212
210.033
211.563
212.79
213.703
214.292
214.55
214.471
214.049
213.28
212.163
210.697
208.883
206.723
204.221
201.385
198.22
194.736
190.943
186.854
182.481
177.839
172.944
167.812
162.461
156.91
151.177
145.282
139.247
133.092
126.838
120.507
114.12
107.701
101.269
94.848
88.457
82.118
75.851
69.675
63.61
57.673
51.881
46.251
40.798
35.536
30.478
25.634
21.016
16.633
12.491
8.596
4.954
1.568
-1.562
-4.434
-7.049
-9.411
-11.522
-13.387
-15.012
-16.405
-17.572
-18.524
-19.27
-19.82
-20.185
-20.378
-20.409
-20.292
-20.039
-19.663
-19.177
-18.593
-17.926
-17.187
-16.389
-15.544
-14.666
-13.764
-12.85
-11.935
-11.029
-10.141
-9.28
-8.454
-7.67
-6.936
-6.256
-5.636
-5.081
-4.593
-4.177
-3.833
-3.564
-3.369
-3.251
-3.207
-3.237
-3.34
-3.514
-3.757
-4.065
-4.438
-4.87
-5.36
-5.903
-6.497
-7.137
-7.819
-8.541
-9.297
-10.084
-10.899
-11.738
-12.597
-13.472
-14.361
-15.261
-16.167
-17.078
-17.992
-18.904
-19.814
-20.72
-21.621
-22.514
-23.399
-24.275
-25.141
-25.997
-26.842
-27.676
-28.499
-29.311
-30.112
-30.901
-31.679
-32.447
-33.203
-33.949
-34.684
-35.407
-36.121
-36.823
-37.513
-38.193
-38.86
-39.517
-40.161
-40.793
-41.413
-42.02
-42.616
-43.198
-43.767
-44.322
-44.863
-45.389
-45.899
-46.393
-46.871
-47.331
-47.773
-48.198
-48.604
-48.991
-49.358
-49.705
-50.032
-50.338
-50.623
-50.887
-51.13
-51.351
-51.552
-51.732
-51.892
-52.032
-52.152
-52.251
-52.33
-52.387
-52.421
-52.432
-52.418
-52.378
-52.312
-52.219
-52.098
-51.948
-51.767
-51.555
-51.31
-51.031
-50.715
-50.361
-49.965
-49.527
-49.045
-48.518
-47.945
-47.325
-46.657
-45.94
-45.173
-44.356
-43.488
-42.567
-41.594
-40.569
-39.494
-38.372
-37.206
-36
-34.761
-33.495
-32.207
-30.904
-29.591
-28.273
-26.954
-25.639
-24.331
-23.033
-21.751
-20.492
-19.264
-18.078
-16.94
-15.86
-14.843
-13.897
-13.031
-12.248
-11.547
-10.929
-10.397
-9.96
-9.637
-9.436
-9.356
-9.393
-9.538
-9.777
-10.101
-10.48
-10.868
-11.225
-11.509
-11.698
-11.801
-11.814
-11.725
-11.521
-11.169
-10.665
-10.052
-9.356
-8.593
-7.795
-6.988
-6.253
-5.746
-5.599
-5.928
-6.815
-8.278
-10.352
-13.095
-16.534
-20.689
-25.509
-30.834
-36.542
-42.563
-48.806
-55.202
-61.557
-67.507
-72.712
-76.863
-79.664
-80.928
-80.373
-77.575
-72.376
-64.878
-55.46
-44.93
-33.962
-22.842
-12.059
-2.258
6.435
14.248
22.084
31.764
44.615
61.067
81.637
106.698
135.283
165.365
193.571
215.093
225.828
222.861
203.083
163.598
103.766
25.129
-68.462
-170.922
-276.401
-379.591
-474.189
-553.306
-611.882
-647.243
-659.348
-650.63
-623.745
-581.606
-528.555
-470.195
-411.915
-357.576
-309.018
-266.505
-230.211
-200.062
-175.408
-154.79
-135.864
-117.076
-98.168
-79.435
-61.288
-44.128
-27.997
-13.09
-0.525
8.994
15.468
19.046
20.266
19.703
17.514
13.905
9.597
5.224
1.244
-1.913
-4.159
-5.473
-5.684
-4.691
-2.526
0.747
4.983
9.995
15.67
21.888
28.486
35.304
42.146
48.794
55.088
60.911
66.179
70.847
74.887
78.281
81.04
83.205
84.834
85.992
86.739
87.128
87.222
87.095
86.832
86.527
86.254
86.064
85.996
86.079
86.338
86.793
87.45
88.305
89.353
90.595
92.033
93.674
95.517
97.559
99.79
102.202
104.786
107.538
110.45
113.515
116.724
120.069
123.543
127.14
130.849
134.658
138.55
142.506
146.51
150.543
154.583
158.61
162.602
166.539
170.4
174.166
177.817
181.333
184.693
187.88
190.875
193.66
196.218
198.532
200.588
202.372
203.871
205.074
205.971
206.553
206.813
206.744
206.343
205.606
204.533
203.124
201.379
199.304
196.902
194.182
191.149
187.816
184.192
180.29
176.123
171.707
167.057
162.188
157.118
151.866
146.45
140.889
135.203
129.412
123.537
117.597
111.614
105.608
99.599
93.607
87.65
81.748
75.919
70.181
64.55
59.043
53.673
48.456
43.404
38.528
33.841
29.35
25.064
20.991
17.136
13.502
10.095
6.915
3.964
1.241
-1.256
-3.53
-5.583
-7.422
-9.052
-10.48
-11.714
-12.76
-13.63
-14.331
-14.874
-15.268
-15.525
-15.654
-15.667
-15.574
-15.386
-15.113
-14.767
-14.356
-13.892
-13.384
-12.842
-12.273
-11.688
-11.094
-10.499
-9.91
-9.334
-8.777
-8.245
-7.743
-7.275
-6.845
-6.456
-6.11
-5.81
-5.556
-5.35
-5.193
-5.083
-5.021
-5.005
-5.036
-5.11
-5.227
-5.385
-5.582
-5.815
-6.083
-6.383
-6.713
-7.071
-7.453
-7.859
-8.285
-8.729
-9.189
-9.662
-10.146
-10.638
-11.137
-11.64
-12.146
-12.652
-13.157
-13.66
-14.16
-14.654
-15.144
-15.628
-16.105
-16.577
-17.042
-17.501
-17.955
-18.403
-18.846
-19.285
-19.721
-20.153
-20.584
-21.014
-21.443
-21.872
-22.303
-22.737
-23.173
-23.613
-24.059
-24.51
-24.968
-25.434
-25.908
-26.393
-26.888
-27.396
-27.917
-28.451
-28.999
-29.563
-30.141
-30.735
-31.343
-31.967
-32.605
-33.257
-33.923
-34.603
-35.295
-35.998
-36.712
-37.434
-38.164
-38.898
-39.635
-40.374
-41.111
-41.844
-42.572
-43.291
-43.999
-44.695
-45.374
-46.033
-46.67
-47.279
-47.859
-48.405
-48.912
-49.378
-49.798
-50.17
-50.49
-50.756
-50.964
-51.112
-51.197
-51.216
-51.165
-51.043
-50.847
-50.575
-50.227
-49.803
-49.302
-48.728
-48.08
-47.36
-46.572
-45.717
-44.8
-43.822
-42.788
-41.702
-40.57
-39.398
-38.192
-36.962
-35.715
-34.46
-33.206
-31.964
-30.743
-29.552
-28.397
-27.286
-26.227
-25.226
-24.291
-23.429
-22.645
-21.946
-21.342
-20.84
-20.447
-20.166
-19.999
-19.945
-20.004
-20.175
-20.456
-20.839
-21.322
-21.905
-22.588
-23.381
-24.289
-25.299
-26.398
-27.565
-28.766
-29.976
-31.163
-32.281
-33.306
-34.218
-35.003
-35.673
-36.224
-36.642
-36.92
-37.025
-36.926
-36.633
-36.151
-35.51
-34.795
-34.083
-33.468
-33.086
-33.028
-33.356
-34.121
-35.316
-36.918
-38.919
-41.266
-43.927
-46.904
-50.152
-53.649
-57.305
-60.901
-64.201
-66.917
-68.686
-69.228
-68.231
-65.341
-60.508
-53.908
-45.913
-37.223
-28.381
-19.682
-11.639
-4.662
1.381
7.033
13.504
22.386
34.585
50.497
70.591
94.807
121.955
149.537
173.635
190.11
195.635
187.443
162.848
119.705
57.859
-20.106
-109.467
-205.016
-301.562
-393.95
-476.472
-542.849
-588.952
-613.804
-618.465
-604.996
-576.106
-534.786
-485.303
-433.507
-383.77
-338.342
-298.28
-263.57
-233.862
-208.924
-187.562
-167.45
-147.112
-126.019
-104.211
-82.528
-61.713
-42.17
-24.569
-9.763
1.825
10.067
15.122
17.548
17.862
16.506
13.983
10.701
6.995
3.195
-0.403
-3.539
-5.992
-7.62
-8.352
-8.134
-6.947
-4.799
-1.744
2.089
6.544
11.466
16.713
22.175
27.74
33.264
38.583
43.55
48.067
52.081
55.573
58.525
60.928
62.797
64.179
65.149
65.783
66.146
66.289
66.268
66.145
65.996
65.901
65.923
66.105
66.48
67.072
67.905
68.998
70.357
71.974
73.842
75.956
78.313
80.917
83.763
86.84
90.137
93.64
97.341
101.229
105.294
109.521
113.898
118.41
123.045
127.791
132.633
137.549
142.521
147.525
152.539
157.54
162.504
167.404
172.217
176.919
181.485
185.893
190.121
194.144
197.942
201.493
204.779
207.779
210.476
212.853
214.894
216.586
217.918
218.877
219.455
219.643
219.436
218.83
217.821
216.41
214.598
212.386
209.781
206.789
203.418
199.68
195.585
191.147
186.382
181.306
175.938
170.295
164.399
158.269
151.928
145.398
138.703
131.867
124.912
117.864
110.748
103.587
96.406
89.23
82.081
74.984
67.96
61.032
54.22
47.545
41.025
34.678
28.52
22.568
16.835
11.334
6.075
1.068
-3.679
-8.159
-12.367
-16.301
-19.957
-23.336
-26.438
-29.265
-31.821
-34.11
-36.139
-37.915
-39.444
-40.737
-41.803
-42.653
-43.296
-43.746
-44.014
-44.112
-44.052
-43.846
-43.509
-43.051
-42.487
-41.826
-41.083
-40.268
-39.393
-38.468
-37.505
-36.512
-35.498
-34.474
-33.446
-32.422
-31.41
-30.414
-29.441
-28.496
-27.584
-26.707
-25.868
-25.072
-24.319
-23.61
-22.948
-22.332
-21.763
-21.241
-20.765
-20.335
-19.949
-19.607
-19.307
-19.047
-18.826
-18.642
-18.493
-18.377
-18.292
-18.236
-18.207
-18.204
-18.223
-18.264
-18.324
-18.401
-18.494
-18.602
-18.721
-18.851
-18.991
-19.138
-19.292
-19.451
-19.614
-19.782
-19.952
-20.124
-20.299
-20.474
-20.65
-20.827
-21.004
-21.181
-21.359
-21.538
-21.719
-21.902
-22.089
-22.281
-22.478
-22.683
-22.895
-23.117
-23.35
-23.596
-23.856
-24.131
-24.425
-24.738
-25.072
-25.431
-25.815
-26.225
-26.663
-27.13
-27.628
-28.156
-28.715
-29.306
-29.929
-30.583
-31.27
-31.988
-32.736
-33.513
-34.316
-35.143
-35.991
-36.856
-37.733
-38.618
-39.507
-40.394
-41.275
-42.145
-42.997
-43.826
-44.626
-45.39
-46.111
-46.783
-47.399
-47.95
-48.432
-48.838
-49.164
-49.405
-49.556
-49.613
-49.573
-49.433
-49.191
-48.845
-48.391
-47.829
-47.16
-46.386
-45.51
-44.534
-43.465
-42.309
-41.075
-39.772
-38.407
-36.989
-35.526
-34.026
-32.498
-30.949
-29.386
-27.816
-26.25
-24.7
-23.177
-21.695
-20.26
-18.884
-17.578
-16.348
-15.204
-14.15
-13.183
-12.307
-11.528
-10.858
-10.312
-9.897
-9.608
-9.441
-9.394
-9.451
-9.594
-9.787
-9.97
-10.1
-10.157
-10.126
-10.007
-9.792
-9.457
-8.986
-8.385
-7.658
-6.821
-5.884
-4.837
-3.717
-2.601
-1.601
-0.883
-0.578
-0.754
-1.473
-2.783
-4.715
-7.308
-10.545
-14.307
-18.498
-23.035
-27.854
-32.951
-38.209
-43.383
-48.182
-52.218
-55.136
-56.685
-56.527
-54.278
-49.811
-43.18
-34.744
-25.28
-15.387
-5.453
3.956
12.461
20.156
27.528
35.751
46.36
60.291
78.068
100.237
126.706
156.248
186.252
212.683
231.438
239.18
233.029
210.157
168.261
107.036
29.02
-60.994
-157.84
-256.402
-351.536
-437.469
-507.715
-557.853
-586.66
-595.074
-585.035
-559.125
-520.251
-472.63
-422.172
-373.389
-328.682
-289.251
-255.19
-226.21
-202.095
-181.638
-162.478
-143.116
-123.003
-102.11
-81.189
-60.938
-41.738
-24.313
-9.597
1.934
10.139
15.181
17.61
17.91
16.483
13.835
10.448
6.73
3.065
-0.277
-3.092
-5.182
-6.412
-6.687
-5.948
-4.197
-1.467
2.174
6.604
11.685
17.276
23.211
29.339
35.501
41.517
47.246
52.569
57.395
61.678
65.389
68.508
71.046
73.035
74.518
75.557
76.217
76.547
76.617
76.494
76.255
75.987
75.76
75.622
75.617
75.776
76.121
76.676
77.45
78.44
79.649
81.076
82.723
84.598
86.701
89.028
91.573
94.326
97.282
100.434
103.776
107.301
110.999
114.863
118.883
123.054
127.364
131.797
136.336
140.961
145.653
150.39
155.15
159.909
164.641
169.324
173.935
178.45
182.847
187.101
191.19
195.091
198.782
202.243
205.451
208.389
211.036
213.376
215.393
217.072
218.4
219.365
219.957
220.167
219.989
219.417
218.449
217.082
215.318
213.159
210.61
207.679
204.373
200.703
196.681
192.321
187.639
182.651
177.375
171.829
166.035
160.011
153.781
147.367
140.792
134.079
127.252
120.335
113.353
106.33
99.289
92.254
85.249
78.296
71.418
64.635
57.969
51.439
45.062
38.856
32.838
27.021
21.418
16.04
10.898
6
1.353
-3.039
-7.171
-11.041
-14.648
-17.993
-21.078
-23.905
-26.478
-28.804
-30.888
-32.738
-34.361
-35.767
-36.965
-37.966
-38.779
-39.416
-39.889
-40.21
-40.389
-40.441
-40.375
-40.205
-39.943
-39.598
-39.184
-38.71
-38.187
-37.624
-37.03
-36.415
-35.786
-35.149
-34.513
-33.882
-33.263
-32.659
-32.076
-31.515
-30.982
-30.477
-30.003
-29.562
-29.155
-28.783
-28.447
-28.146
-27.881
-27.651
-27.455
-27.293
-27.163
-27.065
-26.995
-26.954
-26.939
-26.949
-26.982
-27.037
-27.112
-27.206
-27.317
-27.444
-27.586
-27.742
-27.912
-28.094
-28.287
-28.492
-28.709
-28.935
-29.172
-29.419
-29.675
-29.94
-30.214
-30.495
-30.784
-31.079
-31.381
-31.688
-32
-32.316
-32.636
-32.959
-33.285
-33.614
-33.944
-34.275
-34.607
-34.938
-35.269
-35.598
-35.925
-36.248
-36.568
-36.884
-37.194
-37.498
-37.796
-38.087
-38.371
-38.646
-38.913
-39.172
-39.421
-39.663
-39.896
-40.121
-40.34
-40.553
-40.762
-40.966
-41.167
-41.366
-41.563
-41.759
-41.954
-42.15
-42.346
-42.543
-42.741
-42.943
-43.147
-43.356
-43.569
-43.785
-44.005
-44.229
-44.456
-44.685
-44.915
-45.144
-45.373
-45.598
-45.821
-46.038
-46.248
-46.449
-46.637
-46.811
-46.966
-47.1
-47.208
-47.287
-47.335
-47.349
-47.329
-47.273
-47.178
-47.045
-46.872
-46.659
-46.405
-46.109
-45.771
-45.389
-44.967
-44.506
-44.008
-43.476
-42.913
-42.325
-41.718
-41.097
-40.467
-39.832
-39.195
-38.561
-37.935
-37.32
-36.718
-36.133
-35.571
-35.038
-34.542
-34.09
-33.684
-33.331
-33.033
-32.793
-32.611
-32.486
-32.411
-32.384
-32.408
-32.487
-32.636
-32.858
-33.148
-33.505
-33.919
-34.371
-34.838
-35.274
-35.627
-35.863
-35.961
-35.908
-35.71
-35.358
-34.838
-34.156
-33.303
-32.269
-31.058
-29.664
-28.093
-26.403
-24.69
-23.089
-21.766
-20.835
-20.376
-20.473
-21.157
-22.458
-24.383
-26.847
-29.773
-33.119
-36.85
-40.968
-45.424
-50.016
-54.455
-58.407
-61.48
-63.38
-63.781
-62.221
-58.515
-52.718
-45.136
-36.514
-27.49
-18.31
-9.376
-1.233
6.164
13.208
20.836
30.858
44.485
61.986
83.748
109.994
139.659
170.677
199.687
221.934
233.431
231.416
212.956
175.359
118.071
42.612
-47.344
-145.982
-247.512
-346.769
-437.646
-513.431
-569.575
-603.861
-616.127
-608.594
-584.122
-545.597
-497.536
-445.828
-394.915
-347.72
-305.992
-269.785
-238.816
-212.892
-190.628
-169.724
-148.743
-126.994
-104.378
-81.662
-59.53
-38.408
-19.098
-2.567
10.674
20.453
26.918
30.583
31.926
31.35
29.348
26.424
22.987
19.403
15.993
13.001
10.647
9.113
8.504
8.879
10.263
12.638
15.939
20.067
24.879
30.224
35.963
41.951
48.05
54.109
59.951
65.425
70.428
74.89
78.777
82.074
84.77
86.879
88.45
89.545
90.234
90.581
90.639
90.466
90.132
89.714
89.294
88.941
88.7
88.608
88.694
88.981
89.487
90.223
91.182
92.359
93.753
95.365
97.198
99.253
101.523
103.996
106.664
109.518
112.55
115.751
119.11
122.617
126.26
130.029
133.914
137.903
141.978
146.121
150.312
154.53
158.753
162.961
167.128
171.231
175.248
179.156
182.935
186.561
190.014
193.272
196.314
199.122
201.677
203.961
205.956
207.649
209.025
210.071
210.777
211.133
211.131
210.764
210.029
208.921
207.441
205.587
203.362
200.771
197.819
194.512
190.862
186.877
182.571
177.956
173.049
167.865
162.423
156.74
150.836
144.732
138.448
132.007
125.43
118.741
111.963
105.119
98.233
91.328
84.427
77.553
70.727
63.973
57.31
50.759
44.34
38.07
31.967
26.046
20.324
14.814
9.528
4.476
-0.33
-4.884
-9.178
-13.207
-16.967
-20.456
-23.672
-26.617
-29.292
-31.7
-33.845
-35.734
-37.372
-38.769
-39.933
-40.873
-41.601
-42.127
-42.464
-42.624
-42.62
-42.464
-42.17
-41.751
-41.221
-40.592
-39.878
-39.092
-38.246
-37.352
-36.423
-35.468
-34.5
-33.529
-32.564
-31.614
-30.687
-29.791
-28.934
-28.121
-27.358
-26.649
-25.998
-25.408
-24.883
-24.422
-24.028
-23.7
-23.439
-23.242
-23.11
-23.039
-23.028
-23.074
-23.174
-23.324
-23.521
-23.761
-24.041
-24.356
-24.703
-25.077
-25.473
-25.889
-26.32
-26.762
-27.211
-27.663
-28.115
-28.563
-29.004
-29.434
-29.851
-30.253
-30.636
-30.998
-31.339
-31.655
-31.947
-32.212
-32.451
-32.662
-32.846
-33.002
-33.131
-33.233
-33.309
-33.36
-33.387
-33.391
-33.373
-33.335
-33.279
-33.206
-33.118
-33.016
-32.903
-32.78
-32.65
-32.515
-32.375
-32.235
-32.096
-31.96
-31.83
-31.708
-31.596
-31.495
-31.409
-31.338
-31.284
-31.249
-31.235
-31.244
-31.275
-31.332
-31.414
-31.523
-31.66
-31.823
-32.012
-32.229
-32.47
-32.737
-33.028
-33.34
-33.675
-34.029
-34.401
-34.79
-35.192
-35.606
-36.026
-36.451
-36.877
-37.298
-37.711
-38.111
-38.495
-38.857
-39.196
-39.505
-39.78
-40.016
-40.21
-40.356
-40.449
-40.485
-40.457
-40.362
-40.198
-39.962
-39.651
-39.265
-38.802
-38.261
-37.642
-36.946
-36.173
-35.322
-34.394
-33.392
-32.32
-31.182
-29.984
-28.73
-27.429
-26.09
-24.722
-23.332
-21.928
-20.519
-19.11
-17.709
-16.322
-14.954
-13.612
-12.304
-11.04
-9.831
-8.688
-7.618
-6.629
-5.729
-4.922
-4.214
-3.605
-3.09
-2.669
-2.344
-2.125
-2.027
-2.055
-2.202
-2.464
-2.833
-3.296
-3.833
-4.407
-4.959
-5.445
-5.842
-6.141
-6.348
-6.456
-6.448
-6.301
-6.008
-5.577
-5.027
-4.361
-3.573
-2.686
-1.762
-0.926
-0.348
-0.157
-0.437
-1.234
-2.584
-4.532
-7.118
-10.357
-14.181
-18.472
-23.144
-28.138
-33.419
-38.94
-44.524
-49.837
-54.51
-58.185
-60.541
-61.382
-60.407
-57.223
-51.729
-44.05
-34.662
-24.467
-14.114
-3.929
5.564
13.952
21.387
28.257
35.706
45.665
59.286
77.181
100.014
127.358
157.431
187.532
213.546
230.62
235.02
223.481
192.706
141.254
69.973
-18.112
-117.599
-222.317
-326.704
-425.055
-510.921
-578.698
-624.697
-647.652
-649.041
-631.276
-596.782
-548.414
-490.257
-427.436
-364.811
-306.091
-252.936
-206.056
-166.151
-134.037
-110.019
-92.831
-80.287
-70.059
-60.935
-52.681
-45.096
-37.574
-29.172
-19.761
-10.177
-1.799
4.476
8.606
10.868
11.48
10.307
7.36
3.175
-1.329
-5.308
-8.324
-10.256
-11.133
-10.9
-9.45
-6.805
-3.131
1.331
6.368
11.838
17.643
23.684
29.806
35.82
41.557
46.879
51.697
55.968
59.667
62.781
65.313
67.288
68.747
69.756
70.38
70.675
70.701
70.519
70.201
69.837
69.502
69.254
69.134
69.171
69.384
69.794
70.41
71.232
72.258
73.487
74.918
76.559
78.41
80.467
82.726
85.176
87.808
90.617
93.598
96.744
100.047
103.501
107.097
110.83
114.691
118.666
122.74
126.895
131.112
135.373
139.658
143.944
148.21
152.436
156.599
160.68
164.658
168.51
172.217
175.758
179.111
182.259
185.183
187.863
190.283
192.426
194.279
195.827
197.059
197.964
198.53
198.751
198.619
198.13
197.28
196.067
194.491
192.554
190.259
187.612
184.62
181.291
177.636
173.666
169.395
164.837
160.007
154.921
149.599
144.058
138.318
132.399
126.322
120.109
113.782
107.364
100.876
94.343
87.785
81.227
74.689
68.195
61.764
55.42
49.18
43.066
37.095
31.286
25.654
20.215
14.982
9.97
5.187
0.646
-3.647
-7.684
-11.46
-14.971
-18.213
-21.187
-23.892
-26.33
-28.504
-30.417
-32.076
-33.486
-34.654
-35.59
-36.303
-36.802
-37.098
-37.202
-37.127
-36.884
-36.486
-35.947
-35.28
-34.497
-33.614
-32.642
-31.596
-30.487
-29.33
-28.136
-26.916
-25.683
-24.447
-23.217
-22.004
-20.815
-19.659
-18.542
-17.472
-16.453
-15.49
-14.589
-13.751
-12.98
-12.278
-11.646
-11.085
-10.596
-10.177
-9.829
-9.549
-9.337
-9.188
-9.102
-9.074
-9.102
-9.18
-9.306
-9.475
-9.684
-9.926
-10.199
-10.498
-10.818
-11.155
-11.506
-11.867
-12.233
-12.603
-12.973
-13.34
-13.702
-14.057
-14.403
-14.739
-15.063
-15.375
-15.673
-15.958
-16.229
-16.485
-16.729
-16.959
-17.177
-17.384
-17.581
-17.769
-17.95
-18.126
-18.299
-18.47
-18.642
-18.818
-18.998
-19.186
-19.384
-19.593
-19.816
-20.054
-20.308
-20.579
-20.869
-21.179
-21.509
-21.859
-22.231
-22.624
-23.038
-23.473
-23.928
-24.403
-24.897
-25.409
-25.937
-26.481
-27.039
-27.609
-28.191
-28.782
-29.381
-29.986
-30.594
-31.203
-31.809
-32.41
-33.003
-33.584
-34.152
-34.702
-35.233
-35.742
-36.226
-36.683
-37.109
-37.503
-37.86
-38.179
-38.457
-38.691
-38.876
-39.012
-39.096
-39.126
-39.101
-39.018
-38.875
-38.67
-38.402
-38.068
-37.666
-37.193
-36.649
-36.031
-35.34
-34.576
-33.741
-32.835
-31.859
-30.817
-29.709
-28.539
-27.309
-26.021
-24.677
-23.284
-21.844
-20.365
-18.853
-17.314
-15.756
-14.189
-12.622
-11.064
-9.52
-8
-6.509
-5.054
-3.642
-2.278
-0.967
0.284
1.464
2.565
3.576
4.49
5.303
6.006
6.597
7.07
7.427
7.673
7.81
7.836
7.744
7.523
7.166
6.68
6.072
5.349
4.524
3.62
2.674
1.742
0.871
0.085
-0.605
-1.198
-1.691
-2.065
-2.301
-2.392
-2.34
-2.155
-1.837
-1.375
-0.792
-0.153
0.422
0.77
0.759
0.304
-0.648
-2.145
-4.221
-6.915
-10.224
-14.061
-18.337
-22.983
-27.969
-33.301
-38.894
-44.53
-49.883
-54.573
-58.252
-60.663
-61.499
-60.342
-56.99
-51.477
-44.114
-35.642
-26.702
-17.574
-8.675
-0.562
6.747
13.605
20.904
30.417
43.443
60.363
81.69
107.802
137.699
169.334
199.329
222.828
235.732
235.14
217.879
181.002
123.764
47.518
-43.974
-144.679
-248.859
-351.301
-445.79
-525.531
-585.449
-622.763
-637.341
-631.496
-607.734
-568.82
-518.939
-463.559
-408.006
-356.13
-309.792
-269.266
-234.738
-206.165
-182.908
-163.496
-145.555
-127.464
-108.918
-90.232
-71.843
-54.189
-37.349
-21.546
-7.934
2.731
10.384
15.112
17.412
17.833
16.493
13.556
9.692
5.466
1.337
-2.213
-5.052
-7.111
-8.195
-8.197
-7.118
-4.981
-1.892
1.992
6.566
11.713
17.298
23.199
29.261
35.315
41.183
46.71
51.789
56.352
60.362
63.798
66.65
68.928
70.68
71.972
72.869
73.434
73.715
73.767
73.664
73.485
73.316
73.228
73.266
73.464
73.853
74.455
75.288
76.361
77.665
79.193
80.945
82.919
85.12
87.545
90.186
93.032
96.07
99.29
102.685
106.245
109.956
113.806
117.785
121.88
126.082
130.376
134.744
139.167
143.624
148.093
152.552
156.977
161.345
165.631
169.812
173.866
177.771
181.506
185.049
188.379
191.477
194.325
196.906
199.203
201.201
202.887
204.248
205.275
205.958
206.29
206.266
205.88
205.13
204.017
202.54
200.702
198.508
195.962
193.075
189.854
186.311
182.458
178.309
173.879
169.186
164.246
159.077
153.7
148.134
142.398
136.515
130.504
124.388
118.187
111.922
105.616
99.288
92.959
86.649
80.379
74.166
68.029
61.986
56.052
50.245
44.578
39.064
33.718
28.549
23.569
18.785
14.206
9.838
5.686
1.754
-1.955
-5.44
-8.702
-11.74
-14.558
-17.158
-19.545
-21.723
-23.698
-25.477
-27.066
-28.474
-29.708
-30.777
-31.69
-32.455
-33.082
-33.581
-33.961
-34.231
-34.401
-34.48
-34.477
-34.402
-34.261
-34.065
-33.821
-33.536
-33.217
-32.871
-32.504
-32.121
-31.729
-31.33
-30.929
-30.53
-30.134
-29.745
-29.363
-28.992
-28.63
-28.28
-27.942
-27.615
-27.299
-26.995
-26.7
-26.415
-26.138
-25.869
-25.606
-25.348
-25.094
-24.842
-24.593
-24.344
-24.094
-23.844
-23.592
-23.337
-23.079
-22.818
-22.553
-22.285
-22.014
-21.741
-21.466
-21.191
-20.916
-20.644
-20.375
-20.112
-19.857
-19.61
-19.375
-19.154
-18.947
-18.758
-18.588
-18.439
-18.314
-18.214
-18.14
-18.095
-18.08
-18.096
-18.144
-18.226
-18.342
-18.493
-18.679
-18.9
-19.158
-19.452
-19.781
-20.145
-20.545
-20.978
-21.443
-21.94
-22.467
-23.022
-23.603
-24.208
-24.836
-25.485
-26.152
-26.836
-27.534
-28.246
-28.969
-29.701
-30.441
-31.186
-31.936
-32.689
-33.444
-34.199
-34.954
-35.708
-36.46
-37.211
-37.959
-38.703
-39.443
-40.178
-40.908
-41.632
-42.349
-43.06
-43.763
-44.459
-45.147
-45.827
-46.499
-47.161
-47.812
-48.451
-49.077
-49.687
-50.28
-50.851
-51.399
-51.922
-52.417
-52.882
-53.312
-53.705
-54.056
-54.363
-54.622
-54.827
-54.973
-55.057
-55.075
-55.023
-54.898
-54.699
-54.422
-54.065
-53.626
-53.105
-52.5
-51.811
-51.035
-50.174
-49.227
-48.199
-47.091
-45.908
-44.654
-43.336
-41.962
-40.542
-39.081
-37.587
-36.068
-34.53
-32.982
-31.43
-29.878
-28.334
-26.807
-25.308
-23.846
-22.435
-21.081
-19.794
-18.584
-17.457
-16.421
-15.48
-14.629
-13.873
-13.217
-12.67
-12.247
-11.956
-11.793
-11.754
-11.836
-12.025
-12.302
-12.63
-12.951
-13.224
-13.429
-13.552
-13.591
-13.541
-13.377
-13.09
-12.684
-12.163
-11.539
-10.819
-9.994
-9.098
-8.211
-7.449
-6.971
-6.901
-7.308
-8.255
-9.793
-11.956
-14.779
-18.236
-22.21
-26.605
-31.351
-36.395
-41.729
-47.234
-52.654
-57.679
-61.944
-65.107
-66.93
-67.096
-65.176
-61.003
-54.651
-46.488
-37.319
-27.808
-18.229
-9.024
-0.768
6.521
13.211
20.295
29.634
42.552
59.426
80.704
106.695
136.35
167.531
196.786
219.23
230.687
228.233
208.795
169.575
110.092
32.069
-60.597
-161.795
-265.438
-366.076
-457.305
-532.229
-586.301
-617.463
-625.838
-613.962
-585.014
-542.198
-490.331
-435.556
-382.457
-333.947
-291.674
-255.57
-225.204
-200.271
-179.314
-159.914
-140.569
-120.585
-99.835
-79.119
-59.15
-40.329
-23.444
-9.417
1.305
8.582
12.6
13.957
13.171
10.692
7.084
2.816
-1.712
-6.111
-10.119
-13.519
-16.105
-17.754
-18.387
-17.941
-16.42
-13.857
-10.32
-5.955
-0.917
4.636
10.521
16.596
22.709
28.679
34.366
39.65
44.437
48.69
52.386
55.502
58.044
60.042
61.536
62.596
63.294
63.681
63.829
63.806
63.684
63.554
63.484
63.521
63.707
64.067
64.623
65.396
66.398
67.625
69.076
70.75
72.648
74.774
77.129
79.705
82.496
85.489
88.675
92.049
95.604
99.33
103.218
107.258
111.442
115.762
120.208
124.763
129.409
134.127
138.896
143.696
148.504
153.297
158.05
162.741
167.346
171.844
176.211
180.425
184.462
188.301
191.921
195.3
198.42
201.26
203.803
206.032
207.933
209.493
210.7
211.543
212.013
212.103
211.807
211.122
210.046
208.578
206.72
204.475
201.849
198.85
195.487
191.771
187.714
183.331
178.637
173.65
168.388
162.869
157.114
151.144
144.981
138.649
132.17
125.568
118.868
112.094
105.271
98.423
91.573
84.746
77.964
71.25
64.626
58.112
51.729
45.496
39.431
33.551
27.871
22.405
17.167
12.167
7.416
2.922
-1.308
-5.269
-8.957
-12.369
-15.504
-18.363
-20.947
-23.26
-25.306
-27.09
-28.62
-29.903
-30.948
-31.764
-32.363
-32.755
-32.951
-32.964
-32.806
-32.49
-32.028
-31.434
-30.72
-29.901
-28.988
-27.995
-26.934
-25.817
-24.656
-23.463
-22.249
-21.024
-19.799
-18.582
-17.383
-16.209
-15.07
-13.971
-12.919
-11.92
-10.979
-10.101
-9.289
-8.547
-7.877
-7.281
-6.761
-6.318
-5.952
-5.663
-5.452
-5.318
-5.259
-5.274
-5.362
-5.521
-5.748
-6.041
-6.397
-6.814
-7.288
-7.816
-8.396
-9.023
-9.694
-10.406
-11.154
-11.936
-12.746
-13.582
-14.438
-15.312
-16.198
-17.093
-17.992
-18.893
-19.79
-20.68
-21.559
-22.424
-23.27
-24.094
-24.893
-25.664
-26.403
-27.107
-27.774
-28.401
-28.986
-29.528
-30.023
-30.472
-30.871
-31.221
-31.52
-31.767
-31.962
-32.105
-32.197
-32.237
-32.228
-32.17
-32.066
-31.917
-31.727
-31.499
-31.234
-30.938
-30.612
-30.263
-29.892
-29.506
-29.109
-28.706
-28.301
-27.899
-27.507
-27.127
-26.764
-26.423
-26.107
-25.821
-25.567
-25.349
-25.17
-25.033
-24.941
-24.896
-24.901
-24.955
-25.06
-25.216
-25.422
-25.678
-25.981
-26.328
-26.716
-27.143
-27.604
-28.096
-28.615
-29.154
-29.708
-30.272
-30.837
-31.398
-31.947
-32.476
-32.978
-33.446
-33.875
-34.26
-34.594
-34.874
-35.094
-35.25
-35.338
-35.356
-35.3
-35.167
-34.954
-34.662
-34.292
-33.846
-33.325
-32.734
-32.078
-31.364
-30.599
-29.788
-28.938
-28.055
-27.144
-26.214
-25.27
-24.318
-23.366
-22.423
-21.5
-20.609
-19.76
-18.96
-18.219
-17.544
-16.94
-16.413
-15.963
-15.589
-15.293
-15.083
-14.966
-14.956
-15.059
-15.271
-15.588
-16.003
-16.498
-17.046
-17.606
-18.127
-18.578
-18.943
-19.211
-19.387
-19.46
-19.413
-19.242
-18.94
-18.504
-17.935
-17.226
-16.381
-15.451
-14.526
-13.736
-13.226
-13.103
-13.429
-14.261
-15.633
-17.57
-20.084
-23.118
-26.581
-30.406
-34.544
-38.973
-43.671
-48.493
-53.171
-57.388
-60.774
-62.999
-63.832
-62.957
-60.008
-54.889
-47.739
-39.002
-29.51
-19.881
-10.392
-1.483
6.459
13.607
20.383
27.842
37.824
51.446
69.157
91.479
117.949
146.772
175.535
200.533
216.986
221.224
210.024
180.068
130.364
62.202
-21.723
-116.488
-215.863
-314.26
-405.382
-482.165
-540.089
-576.956
-592.201
-587.7
-566.421
-531.331
-486.929
-439.032
-391.857
-348.146
-309.594
-276.267
-247.807
-223.926
-203.278
-183.647
-163.658
-142.696
-120.657
-98.246
-76.187
-54.961
-35.378
-18.44
-4.672
5.742
12.872
17.175
19.091
18.974
17.322
14.661
11.37
7.81
4.291
1.015
-1.767
-3.829
-5.062
-5.379
-4.74
-3.159
-0.661
2.691
6.763
11.417
16.513
21.894
27.435
32.995
38.401
43.521
48.238
52.464
56.165
59.321
61.915
63.96
65.493
66.559
67.227
67.566
67.626
67.473
67.173
66.796
66.431
66.144
65.983
65.99
66.194
66.615
67.278
68.192
69.353
70.761
72.413
74.309
76.453
78.844
81.476
84.34
87.424
90.719
94.216
97.907
101.782
105.828
110.034
114.389
118.882
123.5
128.223
133.034
137.908
142.825
147.76
152.691
157.59
162.433
167.194
171.849
176.375
180.748
184.944
188.94
192.713
196.242
199.508
202.489
205.168
207.527
209.55
211.223
212.534
213.472
214.027
214.19
213.957
213.323
212.286
210.846
209.004
206.765
204.134
201.12
197.732
193.983
189.884
185.453
180.704
175.658
170.333
164.749
158.928
152.892
146.664
140.268
133.727
127.067
120.313
113.489
106.621
99.734
92.853
86.002
79.206
72.486
65.867
59.368
53.012
46.817
40.801
34.982
29.374
23.993
18.849
13.954
9.317
4.946
0.846
-2.979
-6.526
-9.794
-12.783
-15.496
-17.936
-20.108
-22.017
-23.671
-25.079
-26.249
-27.191
-27.918
-28.44
-28.771
-28.922
-28.909
-28.744
-28.441
-28.015
-27.48
-26.848
-26.135
-25.353
-24.516
-23.636
-22.726
-21.796
-20.857
-19.921
-18.996
-18.091
-17.213
-16.37
-15.568
-14.812
-14.107
-13.456
-12.864
-12.331
-11.86
-11.452
-11.106
-10.823
-10.6
-10.438
-10.334
-10.284
-10.288
-10.34
-10.439
-10.58
-10.76
-10.974
-11.219
-11.491
-11.786
-12.1
-12.428
-12.768
-13.115
-13.467
-13.82
-14.171
-14.517
-14.856
-15.187
-15.507
-15.814
-16.107
-16.386
-16.65
-16.897
-17.129
-17.345
-17.546
-17.731
-17.902
-18.061
-18.207
-18.342
-18.468
-18.585
-18.696
-18.802
-18.903
-19.003
-19.101
-19.201
-19.302
-19.408
-19.518
-19.635
-19.76
-19.893
-20.037
-20.191
-20.356
-20.534
-20.724
-20.927
-21.143
-21.373
-21.615
-21.871
-22.139
-22.419
-22.711
-23.013
-23.324
-23.644
-23.972
-24.306
-24.646
-24.99
-25.338
-25.689
-26.042
-26.396
-26.751
-27.104
-27.456
-27.805
-28.151
-28.493
-28.831
-29.162
-29.489
-29.809
-30.123
-30.429
-30.728
-31.018
-31.3
-31.572
-31.834
-32.086
-32.327
-32.557
-32.776
-32.985
-33.183
-33.369
-33.543
-33.703
-33.85
-33.98
-34.094
-34.187
-34.26
-34.31
-34.336
-34.336
-34.31
-34.254
-34.166
-34.045
-33.888
-33.693
-33.457
-33.178
-32.851
-32.477
-32.055
-31.583
-31.061
-30.487
-29.862
-29.185
-28.458
-27.679
-26.849
-25.967
-25.035
-24.057
-23.034
-21.972
-20.874
-19.748
-18.6
-17.438
-16.27
-15.102
-13.939
-12.787
-11.653
-10.541
-9.455
-8.4
-7.381
-6.406
-5.486
-4.628
-3.841
-3.129
-2.5
-1.96
-1.515
-1.168
-0.914
-0.754
-0.689
-0.729
-0.891
-1.178
-1.587
-2.109
-2.733
-3.451
-4.244
-5.078
-5.899
-6.654
-7.306
-7.844
-8.27
-8.576
-8.747
-8.756
-8.584
-8.253
-7.794
-7.222
-6.55
-5.791
-4.996
-4.286
-3.821
-3.752
-4.189
-5.187
-6.781
-9.028
-11.967
-15.622
-19.955
-24.814
-30.07
-35.642
-41.467
-47.505
-53.601
-59.435
-64.635
-68.821
-71.655
-72.895
-72.225
-69.24
-63.821
-56.097
-46.513
-35.933
-24.995
-14.021
-3.509
6.127
14.979
23.517
32.88
44.682
59.833
78.621
101.35
127.781
156.535
184.999
209.248
225.143
229.425
219.521
192.925
147.635
83.652
3.624
-87.737
-185.19
-283.585
-377.882
-462.395
-530.788
-578.854
-605.437
-611.403
-598.737
-570.085
-528.401
-478.015
-424.897
-373.547
-326.385
-284.679
-248.589
-217.884
-192.382
-170.868
-150.949
-131.12
-110.857
-90.152
-69.736
-50.267
-32.075
-15.827
-2.423
7.697
14.437
17.998
18.992
17.956
15.329
11.644
7.373
2.916
-1.329
-5.067
-8.115
-10.302
-11.53
-11.747
-10.902
-9.002
-6.1
-2.286
2.294
7.484
13.134
19.078
25.168
31.25
37.136
42.674
47.761
52.319
56.316
59.74
62.57
64.816
66.519
67.733
68.525
68.96
69.087
68.969
68.675
68.281
67.872
67.515
67.257
67.133
67.171
67.391
67.814
68.448
69.288
70.33
71.573
73.02
74.674
76.538
78.603
80.862
83.305
85.923
88.712
91.663
94.767
98.015
101.398
104.907
108.536
112.273
116.104
120.012
123.979
127.986
132.015
136.044
140.052
144.017
147.918
151.735
155.448
159.036
162.48
165.758
168.853
171.747
174.42
176.857
179.041
180.958
182.594
183.937
184.977
185.704
186.111
186.191
185.938
185.351
184.427
183.166
181.569
179.64
177.383
174.805
171.914
168.72
165.232
161.465
157.431
153.145
148.624
143.884
138.942
133.817
128.528
123.095
117.537
111.875
106.13
100.322
94.473
88.602
82.73
76.877
71.062
65.305
59.622
54.031
48.549
43.191
37.972
32.905
28.003
23.275
18.734
14.386
10.239
6.3
2.573
-0.938
-4.231
-7.305
-10.16
-12.797
-15.219
-17.429
-19.432
-21.234
-22.84
-24.258
-25.496
-26.562
-27.465
-28.215
-28.82
-29.292
-29.64
-29.874
-30.003
-30.039
-29.99
-29.866
-29.676
-29.429
-29.134
-28.799
-28.43
-28.036
-27.623
-27.198
-26.765
-26.331
-25.899
-25.474
-25.06
-24.66
-24.276
-23.91
-23.565
-23.241
-22.938
-22.658
-22.4
-22.164
-21.95
-21.756
-21.582
-21.427
-21.29
-21.169
-21.064
-20.974
-20.896
-20.832
-20.779
-20.738
-20.707
-20.687
-20.676
-20.676
-20.684
-20.703
-20.732
-20.77
-20.819
-20.878
-20.948
-21.029
-21.122
-21.227
-21.344
-21.474
-21.617
-21.775
-21.947
-22.134
-22.336
-22.554
-22.787
-23.037
-23.303
-23.584
-23.881
-24.193
-24.52
-24.861
-25.215
-25.58
-25.956
-26.342
-26.735
-27.134
-27.539
-27.946
-28.355
-28.764
-29.171
-29.575
-29.975
-30.368
-30.754
-31.132
-31.5
-31.858
-32.204
-32.539
-32.862
-33.172
-33.47
-33.754
-34.025
-34.284
-34.53
-34.764
-34.987
-35.199
-35.402
-35.596
-35.783
-35.966
-36.145
-36.322
-36.499
-36.679
-36.862
-37.052
-37.249
-37.457
-37.676
-37.91
-38.159
-38.425
-38.71
-39.015
-39.341
-39.687
-40.054
-40.442
-40.851
-41.28
-41.728
-42.194
-42.677
-43.175
-43.688
-44.213
-44.747
-45.287
-45.831
-46.374
-46.912
-47.442
-47.957
-48.454
-48.929
-49.376
-49.791
-50.168
-50.504
-50.792
-51.028
-51.206
-51.321
-51.369
-51.342
-51.24
-51.057
-50.793
-50.446
-50.012
-49.492
-48.886
-48.193
-47.415
-46.551
-45.603
-44.573
-43.463
-42.28
-41.027
-39.711
-38.338
-36.917
-35.459
-33.973
-32.468
-30.952
-29.434
-27.922
-26.426
-24.953
-23.507
-22.098
-20.733
-19.424
-18.181
-17.014
-15.929
-14.934
-14.036
-13.242
-12.556
-11.981
-11.511
-11.146
-10.891
-10.755
-10.748
-10.876
-11.13
-11.502
-11.988
-12.572
-13.23
-13.926
-14.596
-15.196
-15.705
-16.108
-16.403
-16.579
-16.61
-16.481
-16.197
-15.765
-15.199
-14.508
-13.685
-12.768
-11.843
-11.028
-10.496
-10.376
-10.741
-11.655
-13.17
-15.324
-18.158
-21.647
-25.667
-30.122
-34.934
-40.044
-45.453
-51.034
-56.522
-61.605
-65.88
-68.982
-70.657
-70.559
-68.288
-63.72
-56.945
-48.377
-38.868
-29.048
-19.269
-10.053
-1.774
5.695
12.889
21.039
31.785
46.099
64.368
86.978
113.734
143.213
172.671
197.991
214.87
219.938
210.49
183.873
137.99
72.823
-8.941
-102.318
-201.795
-302.268
-398.677
-485.353
-556.069
-606.313
-634.619
-642.08
-630.835
-603.167
-561.851
-510.741
-455.211
-400.45
-349.614
-303.932
-263.725
-229.235
-200.483
-177.096
-157.62
-139.708
-121.986
-104.298
-86.95
-70.353
-54.835
-40.313
-26.911
-15.696
-7.343
-1.862
0.92
1.556
0.626
-1.717
-5.346
-9.611
-13.91
-17.819
-20.916
-23.121
-24.45
-24.766
-23.968
-22.089
-19.183
-15.377
-10.871
-5.781
-0.222
5.647
11.699
17.767
23.647
29.19
34.29
38.872
42.91
46.39
49.294
51.63
53.44
54.778
55.715
56.313
56.623
56.704
56.624
56.462
56.312
56.245
56.309
56.542
56.97
57.614
58.497
59.626
60.995
62.6
64.438
66.511
68.823
71.374
74.157
77.161
80.374
83.786
87.388
91.171
95.124
99.234
103.49
107.881
112.399
117.029
121.756
126.559
131.419
136.313
141.222
146.122
150.989
155.798
160.528
165.156
169.659
174.017
178.206
182.207
185.998
189.561
192.876
195.927
198.696
201.167
203.327
205.164
206.667
207.825
208.631
209.079
209.164
208.883
208.235
207.221
205.842
204.102
202.007
199.564
196.783
193.673
190.247
186.519
182.504
178.218
173.679
168.904
163.913
158.725
153.36
147.841
142.187
136.421
130.565
124.641
118.671
112.678
106.683
100.707
94.772
88.897
83.103
77.408
71.829
66.385
61.091
55.961
51.01
46.25
41.693
37.347
33.223
29.327
25.664
22.239
19.056
16.115
13.417
10.962
8.748
6.771
5.027
3.511
2.216
1.137
0.264
-0.41
-0.895
-1.202
-1.339
-1.319
-1.151
-0.846
-0.417
0.126
0.772
1.509
2.326
3.213
4.158
5.152
6.184
7.245
8.326
9.417
10.512
11.602
12.68
13.74
14.777
15.783
16.756
17.689
18.58
19.426
20.222
20.969
21.663
22.303
22.888
23.419
23.895
24.315
24.681
24.993
25.251
25.457
25.612
25.717
25.775
25.786
25.752
25.676
25.56
25.405
25.213
24.987
24.729
24.44
24.123
23.779
23.411
23.02
22.609
22.18
21.733
21.272
20.796
20.309
19.811
19.303
18.788
18.265
17.737
17.204
16.668
16.129
15.59
15.05
14.511
13.974
13.44
12.909
12.383
11.861
11.345
10.835
10.333
9.837
9.349
8.87
8.399
7.936
7.483
7.039
6.605
6.179
5.763
5.357
4.96
4.572
4.193
3.824
3.464
3.112
2.769
2.433
2.105
1.784
1.468
1.158
0.853
0.552
0.253
-0.044
-0.339
-0.636
-0.934
-1.235
-1.54
-1.851
-2.168
-2.493
-2.827
-3.172
-3.527
-3.896
-4.277
-4.674
-5.087
-5.516
-5.962
-6.425
-6.906
-7.404
-7.919
-8.45
-8.997
-9.56
-10.136
-10.724
-11.324
-11.934
-12.551
-13.172
-13.796
-14.418
-15.036
-15.645
-16.242
-16.821
-17.379
-17.912
-18.416
-18.886
-19.317
-19.705
-20.045
-20.332
-20.561
-20.727
-20.826
-20.853
-20.806
-20.683
-20.481
-20.199
-19.836
-19.392
-18.867
-18.261
-17.575
-16.809
-15.966
-15.048
-14.061
-13.008
-11.894
-10.726
-9.511
-8.259
-6.977
-5.676
-4.363
-3.046
-1.733
-0.434
0.845
2.095
3.312
4.486
5.61
6.674
7.67
8.588
9.424
10.171
10.825
11.383
11.842
12.203
12.471
12.645
12.722
12.696
12.555
12.294
11.913
11.418
10.821
10.145
9.421
8.689
7.991
7.356
6.81
6.366
6.025
5.799
5.681
5.674
5.803
6.087
6.534
7.143
7.88
8.663
9.394
9.949
10.193
10.026
9.35
8.096
6.238
3.771
0.767
-2.702
-6.612
-10.958
-15.739
-20.908
-26.304
-31.657
-36.683
-41.05
-44.44
-46.503
-46.761
-44.98
-41.205
-35.737
-29.287
-22.469
-15.495
-8.729
-2.719
2.61
7.709
13.574
22.108
34.541
51.07
72.047
97.654
126.778
157.354
185.868
207.404
218.207
215.757
197.38
160.66
104.725
30.689
-57.608
-154.373
-254.548
-353.724
-446.877
-528.097
-591.715
-634.122
-654.825
-655.443
-637.647
-602.907
-553.487
-493.839
-430.137
-367.769
-309.779
-257.508
-211.918
-174.404
-146.355
-127.22
-114.117
-103.778
-94.312
-85.106
-76.085
-66.75
-55.916
-43.2
-29.757
-17.41
-7.394
-0.075
4.825
7.61
8.083
6.17
2.396
-2.272
-6.893
-10.871
-13.994
-16.263
-17.573
-17.783
-16.85
-14.86
-11.991
-8.421
-4.282
0.354
5.416
10.787
16.327
21.864
27.208
32.21
36.773
40.835
44.367
47.353
49.776
51.645
53.006
53.924
54.464
54.682
54.619
54.323
53.864
53.324
52.791
52.333
51.993
51.803
51.79
51.976
52.379
53.007
53.851
54.905
56.167
57.637
59.322
61.221
63.328
65.631
68.121
70.79
73.634
76.644
79.811
83.126
86.58
90.163
93.87
97.689
101.604
105.598
109.654
113.752
117.873
121.996
126.099
130.159
134.155
138.067
141.874
145.555
149.09
152.458
155.64
158.618
161.372
163.886
166.143
168.128
169.826
171.225
172.313
173.08
173.516
173.614
173.368
172.774
171.83
170.534
168.886
166.891
164.551
161.873
158.865
155.536
151.898
147.962
143.743
139.255
134.516
129.542
124.352
118.964
113.397
107.673
101.812
95.835
89.764
83.621
77.427
71.205
64.975
58.759
52.577
46.451
40.399
34.439
28.591
22.871
17.295
11.876
6.63
1.568
-3.298
-7.96
-12.41
-16.64
-20.645
-24.421
-27.966
-31.279
-34.358
-37.206
-39.825
-42.218
-44.39
-46.346
-48.093
-49.637
-50.987
-52.152
-53.139
-53.96
-54.624
-55.14
-55.521
-55.775
-55.914
-55.947
-55.886
-55.74
-55.519
-55.233
-54.89
-54.499
-54.069
-53.607
-53.12
-52.615
-52.098
-51.575
-51.05
-50.529
-50.014
-49.51
-49.019
-48.543
-48.086
-47.648
-47.23
-46.833
-46.458
-46.104
-45.772
-45.462
-45.172
-44.902
-44.651
-44.418
-44.203
-44.004
-43.821
-43.652
-43.496
-43.354
-43.222
-43.102
-42.992
-42.891
-42.799
-42.716
-42.64
-42.571
-42.509
-42.454
-42.405
-42.362
-42.325
-42.293
-42.266
-42.244
-42.227
-42.214
-42.206
-42.202
-42.202
-42.205
-42.212
-42.221
-42.234
-42.247
-42.263
-42.279
-42.295
-42.31
-42.324
-42.336
-42.345
-42.35
-42.35
-42.345
-42.334
-42.316
-42.29
-42.256
-42.213
-42.161
-42.099
-42.026
-41.944
-41.85
-41.745
-41.63
-41.503
-41.364
-41.215
-41.054
-40.883
-40.702
-40.51
-40.309
-40.1
-39.881
-39.656
-39.423
-39.185
-38.943
-38.696
-38.448
-38.199
-37.95
-37.703
-37.46
-37.222
-36.99
-36.765
-36.549
-36.343
-36.148
-35.967
-35.799
-35.646
-35.51
-35.392
-35.292
-35.211
-35.149
-35.108
-35.086
-35.086
-35.105
-35.144
-35.202
-35.279
-35.375
-35.489
-35.618
-35.762
-35.918
-36.084
-36.256
-36.433
-36.609
-36.781
-36.946
-37.099
-37.237
-37.357
-37.453
-37.521
-37.557
-37.556
-37.514
-37.426
-37.285
-37.088
-36.831
-36.51
-36.122
-35.666
-35.137
-34.534
-33.856
-33.102
-32.271
-31.363
-30.376
-29.31
-28.169
-26.956
-25.674
-24.327
-22.922
-21.465
-19.967
-18.435
-16.878
-15.302
-13.715
-12.125
-10.541
-8.97
-7.415
-5.885
-4.388
-2.934
-1.534
-0.199
1.065
2.25
3.348
4.35
5.252
6.049
6.747
7.343
7.832
8.203
8.444
8.548
8.523
8.374
8.106
7.734
7.28
6.782
6.3
5.879
5.539
5.294
5.147
5.104
5.192
5.425
5.795
6.299
6.921
7.651
8.498
9.422
10.34
11.132
11.632
11.71
11.297
10.332
8.766
6.571
3.713
0.223
-3.772
-8.173
-12.901
-17.894
-23.146
-28.53
-33.781
-38.591
-42.564
-45.339
-46.67
-46.221
-43.6
-38.7
-31.627
-22.798
-13.049
-2.99
7.06
16.61
25.291
33.228
40.933
49.584
60.766
75.372
93.69
116.008
142.082
170.547
198.792
222.918
238.83
243.307
233.829
207.973
163.808
101.381
23.326
-65.708
-160.534
-256.086
-347.457
-429.15
-495.067
-541.197
-566.485
-571.841
-559.26
-531.347
-490.956
-442.25
-390.946
-341.34
-295.723
-255.273
-220.111
-190.005
-164.801
-143.363
-123.432
-103.598
-83.393
-62.849
-42.7
-23.601
-5.877
9.834
22.671
32.215
38.378
41.361
41.763
40.116
36.857
32.514
27.556
22.384
17.404
12.92
9.126
6.2
4.246
3.321
3.481
4.725
7.002
10.224
14.248
18.916
24.079
29.57
35.24
40.928
46.444
51.633
56.389
60.63
64.323
67.453
70
71.97
73.405
74.357
74.893
75.079
74.963
74.609
74.085
73.469
72.847
72.288
71.835
71.527
71.391
71.447
71.717
72.208
72.917
73.839
74.975
76.327
77.901
79.699
81.714
83.941
86.369
88.993
91.808
94.806
97.981
101.324
104.825
108.478
112.276
116.208
120.259
124.413
128.65
132.952
137.298
141.668
146.038
150.384
154.684
158.917
163.06
167.091
170.987
174.726
178.285
181.645
184.783
187.68
190.316
192.672
194.733
196.481
197.903
198.985
199.716
200.085
200.085
199.708
198.95
197.807
196.279
194.366
192.071
189.399
186.357
182.952
179.196
175.099
170.677
165.943
160.915
155.61
150.046
144.243
138.222
132.006
125.615
119.073
112.404
105.632
98.782
91.877
84.942
78.002
71.08
64.199
57.384
50.655
44.035
37.543
31.2
25.023
19.031
13.237
7.658
2.305
-2.81
-7.678
-12.289
-16.637
-20.717
-24.525
-28.059
-31.319
-34.303
-37.016
-39.459
-41.637
-43.556
-45.223
-46.646
-47.833
-48.794
-49.539
-50.08
-50.428
-50.595
-50.594
-50.438
-50.138
-49.71
-49.165
-48.517
-47.778
-46.961
-46.079
-45.143
-44.165
-43.156
-42.125
-41.084
-40.041
-39.005
-37.985
-36.986
-36.017
-35.083
-34.19
-33.342
-32.544
-31.798
-31.109
-30.477
-29.905
-29.394
-28.945
-28.556
-28.229
-27.962
-27.754
-27.603
-27.508
-27.465
-27.472
-27.526
-27.624
-27.764
-27.94
-28.15
-28.39
-28.656
-28.945
-29.253
-29.575
-29.909
-30.25
-30.595
-30.94
-31.283
-31.619
-31.946
-32.261
-32.56
-32.842
-33.103
-33.342
-33.556
-33.744
-33.904
-34.034
-34.133
-34.202
-34.237
-34.24
-34.211
-34.148
-34.054
-33.927
-33.769
-33.582
-33.365
-33.122
-32.853
-32.56
-32.245
-31.91
-31.558
-31.19
-30.81
-30.418
-30.017
-29.61
-29.199
-28.787
-28.376
-27.967
-27.564
-27.168
-26.782
-26.407
-26.045
-25.698
-25.367
-25.053
-24.759
-24.485
-24.232
-24
-23.792
-23.606
-23.444
-23.306
-23.19
-23.097
-23.027
-22.978
-22.95
-22.942
-22.954
-22.985
-23.034
-23.1
-23.183
-23.282
-23.394
-23.52
-23.656
-23.803
-23.959
-24.122
-24.292
-24.466
-24.644
-24.826
-25.008
-25.19
-25.37
-25.544
-25.712
-25.872
-26.019
-26.152
-26.268
-26.366
-26.444
-26.499
-26.531
-26.535
-26.51
-26.454
-26.363
-26.234
-26.064
-25.849
-25.586
-25.273
-24.909
-24.492
-24.02
-23.491
-22.904
-22.259
-21.554
-20.789
-19.963
-19.075
-18.126
-17.119
-16.056
-14.942
-13.779
-12.575
-11.336
-10.07
-8.78
-7.474
-6.156
-4.832
-3.507
-2.185
-0.87
0.434
1.719
2.976
4.197
5.371
6.491
7.549
8.538
9.45
10.279
11.024
11.687
12.267
12.758
13.151
13.431
13.588
13.627
13.55
13.359
13.067
12.691
12.267
11.847
11.473
11.168
10.942
10.79
10.715
10.729
10.846
11.072
11.4
11.82
12.33
12.939
13.628
14.337
14.951
15.312
15.289
14.799
13.782
12.199
10.016
7.203
3.768
-0.207
-4.632
-9.436
-14.586
-20.089
-25.878
-31.763
-37.443
-42.539
-46.698
-49.652
-51.081
-50.564
-47.898
-43.114
-36.52
-28.85
-20.75
-12.511
-4.556
2.569
8.92
14.95
21.689
31.026
44.3
61.911
84.363
112.005
143.808
177.693
210.081
235.865
250.931
252.383
237.179
202.583
147.651
73.486
-16.097
-114.966
-217.493
-318.523
-412.209
-492.268
-553.345
-592.341
-609.053
-605.585
-584.402
-548.303
-501.124
-447.943
-394.157
-343.625
-298.297
-258.711
-224.856
-196.532
-173.063
-152.835
-133.712
-114.405
-94.58
-74.55
-55.01
-36.513
-19.487
-4.606
7.334
15.954
21.254
23.549
23.433
21.437
17.991
13.574
8.642
3.586
-1.215
-5.462
-8.975
-11.601
-13.242
-13.849
-13.38
-11.84
-9.298
-5.859
-1.672
3.101
8.318
13.828
19.488
25.141
30.608
35.737
40.426
44.607
48.247
51.331
53.844
55.798
57.236
58.22
58.819
59.096
59.104
58.901
58.555
58.141
57.739
57.414
57.208
57.155
57.279
57.602
58.139
58.898
59.872
61.054
62.442
64.035
65.836
67.843
70.049
72.444
75.019
77.765
80.675
83.743
86.959
90.313
93.796
97.399
101.115
104.933
108.838
112.814
116.842
120.906
124.985
129.061
133.111
137.116
141.054
144.907
148.656
152.28
155.761
159.08
162.219
165.161
167.888
170.386
172.639
174.633
176.355
177.795
178.943
179.788
180.324
180.545
180.445
180.022
179.273
178.199
176.799
175.078
173.039
170.689
168.033
165.083
161.846
158.335
154.563
150.543
146.29
141.819
137.147
132.291
127.268
122.097
116.796
111.384
105.882
100.308
94.683
89.025
83.356
77.693
72.055
66.462
60.93
55.477
50.12
44.875
39.755
34.775
29.949
25.287
20.801
16.501
12.394
8.488
4.789
1.302
-1.969
-5.022
-7.856
-10.47
-12.865
-15.043
-17.008
-18.762
-20.312
-21.662
-22.82
-23.793
-24.588
-25.215
-25.683
-26.001
-26.179
-26.226
-26.155
-25.974
-25.695
-25.328
-24.883
-24.37
-23.799
-23.181
-22.523
-21.836
-21.128
-20.407
-19.68
-18.956
-18.24
-17.539
-16.859
-16.205
-15.582
-14.993
-14.443
-13.934
-13.469
-13.049
-12.677
-12.352
-12.076
-11.847
-11.667
-11.533
-11.444
-11.398
-11.395
-11.431
-11.504
-11.612
-11.752
-11.921
-12.118
-12.338
-12.579
-12.839
-13.115
-13.404
-13.703
-14.01
-14.323
-14.639
-14.956
-15.272
-15.584
-15.891
-16.191
-16.483
-16.764
-17.035
-17.293
-17.538
-17.769
-17.986
-18.189
-18.378
-18.553
-18.714
-18.862
-18.997
-19.121
-19.233
-19.335
-19.428
-19.512
-19.588
-19.658
-19.722
-19.782
-19.837
-19.889
-19.94
-19.989
-20.037
-20.086
-20.137
-20.189
-20.244
-20.303
-20.367
-20.436
-20.511
-20.594
-20.684
-20.781
-20.888
-21.003
-21.127
-21.261
-21.404
-21.556
-21.719
-21.892
-22.075
-22.268
-22.473
-22.688
-22.915
-23.152
-23.4
-23.66
-23.931
-24.213
-24.507
-24.813
-25.131
-25.462
-25.806
-26.162
-26.53
-26.909
-27.299
-27.698
-28.107
-28.523
-28.946
-29.375
-29.809
-30.247
-30.687
-31.127
-31.565
-31.998
-32.425
-32.841
-33.243
-33.628
-33.993
-34.334
-34.649
-34.934
-35.185
-35.4
-35.574
-35.704
-35.785
-35.814
-35.785
-35.695
-35.539
-35.317
-35.024
-34.66
-34.223
-33.711
-33.124
-32.461
-31.722
-30.906
-30.015
-29.047
-28.007
-26.896
-25.719
-24.482
-23.189
-21.849
-20.47
-19.061
-17.629
-16.181
-14.726
-13.27
-11.819
-10.381
-8.958
-7.558
-6.189
-4.861
-3.585
-2.372
-1.229
-0.164
0.814
1.7
2.487
3.174
3.766
4.263
4.659
4.945
5.106
5.136
5.041
4.827
4.501
4.078
3.578
3.04
2.523
2.07
1.706
1.439
1.264
1.185
1.217
1.378
1.679
2.111
2.654
3.303
4.059
4.899
5.761
6.52
7.007
7.091
6.686
5.742
4.23
2.113
-0.636
-4.021
-7.978
-12.393
-17.175
-22.259
-27.609
-33.175
-38.79
-44.134
-48.834
-52.521
-54.875
-55.67
-54.605
-51.322
-45.729
-37.988
-28.588
-18.369
-7.941
2.366
12.058
20.719
28.441
35.713
43.724
54.135
67.921
85.477
107.21
132.94
161.273
189.495
213.531
229.083
232.79
221.98
194.044
146.918
80.579
-2.139
-96.122
-195.974
-296.628
-393.178
-480.193
-551.198
-601.372
-629.401
-636.48
-624.392
-595.277
-551.467
-496.238
-435.695
-375.848
-319.921
-269.359
-224.989
-187.256
-156.964
-134.66
-118.018
-103.746
-90.267
-76.967
-63.866
-51.353
-38.99
-25.848
-12.647
-1.038
8.108
14.356
17.907
19.487
19.281
17.054
13.169
8.466
3.675
-0.532
-3.831
-6.284
-7.827
-8.278
-7.575
-5.755
-2.93
0.7
4.964
9.775
15.028
20.591
26.329
32.059
37.587
42.761
47.481
51.678
55.324
58.402
60.893
62.804
64.178
65.076
65.564
65.702
65.539
65.125
64.531
63.839
63.138
62.499
61.967
61.578
61.358
61.327
61.508
61.908
62.521
63.342
64.369
65.605
67.054
68.719
70.593
72.666
74.929
77.374
79.995
82.786
85.737
88.84
92.085
95.465
98.973
102.599
106.327
110.141
114.025
117.957
121.921
125.895
129.858
133.788
137.664
141.465
145.172
148.763
152.219
155.519
158.644
161.575
164.295
166.785
169.028
171.01
172.717
174.134
175.251
176.056
176.541
176.697
176.519
176.001
175.14
173.936
172.387
170.495
168.265
165.701
162.811
159.602
156.085
152.27
148.173
143.806
139.184
134.325
129.246
123.965
118.5
112.873
107.103
101.211
95.219
89.148
83.02
76.857
70.68
64.512
58.373
52.284
46.264
40.335
34.514
28.819
23.267
17.874
12.655
7.623
2.791
-1.832
-6.234
-10.408
-14.347
-18.045
-21.5
-24.707
-27.667
-30.379
-32.845
-35.068
-37.052
-38.801
-40.323
-41.623
-42.712
-43.596
-44.287
-44.794
-45.128
-45.301
-45.323
-45.207
-44.965
-44.609
-44.151
-43.603
-42.976
-42.283
-41.533
-40.739
-39.91
-39.056
-38.187
-37.311
-36.437
-35.571
-34.722
-33.894
-33.095
-32.327
-31.596
-30.904
-30.255
-29.651
-29.092
-28.58
-28.115
-27.697
-27.325
-26.998
-26.714
-26.472
-26.269
-26.104
-25.973
-25.874
-25.804
-25.76
-25.74
-25.74
-25.757
-25.79
-25.835
-25.889
-25.95
-26.016
-26.084
-26.152
-26.218
-26.281
-26.339
-26.391
-26.436
-26.472
-26.499
-26.516
-26.524
-26.521
-26.508
-26.485
-26.451
-26.408
-26.356
-26.295
-26.226
-26.149
-26.066
-25.975
-25.878
-25.776
-25.668
-25.555
-25.437
-25.315
-25.188
-25.057
-24.921
-24.781
-24.637
-24.489
-24.335
-24.177
-24.013
-23.844
-23.669
-23.488
-23.3
-23.106
-22.904
-22.696
-22.48
-22.256
-22.025
-21.786
-21.539
-21.284
-21.021
-20.751
-20.475
-20.193
-19.905
-19.614
-19.32
-19.026
-18.731
-18.439
-18.149
-17.865
-17.588
-17.32
-17.062
-16.817
-16.587
-16.374
-16.181
-16.009
-15.861
-15.737
-15.639
-15.568
-15.526
-15.513
-15.53
-15.577
-15.654
-15.763
-15.901
-16.07
-16.267
-16.491
-16.739
-17.008
-17.297
-17.6
-17.913
-18.232
-18.553
-18.871
-19.183
-19.483
-19.765
-20.024
-20.256
-20.453
-20.611
-20.723
-20.781
-20.781
-20.717
-20.585
-20.382
-20.102
-19.743
-19.302
-18.776
-18.163
-17.463
-16.672
-15.79
-14.818
-13.758
-12.614
-11.388
-10.088
-8.719
-7.29
-5.811
-4.29
-2.736
-1.155
0.444
2.052
3.663
5.269
6.865
8.441
9.986
11.489
12.936
14.319
15.628
16.856
17.991
19.026
19.956
20.782
21.502
22.114
22.603
22.953
23.158
23.221
23.149
22.953
22.64
22.228
21.752
21.26
20.807
20.429
20.135
19.924
19.806
19.795
19.921
20.208
20.633
21.171
21.807
22.529
23.327
24.153
24.891
25.385
25.49
25.099
24.162
22.649
20.501
17.677
14.145
9.931
5.177
0.008
-5.502
-11.293
-17.332
-23.468
-29.392
-34.737
-39.13
-42.236
-43.819
-43.565
-41.068
-36.186
-29.011
-19.954
-9.851
0.661
11.222
21.293
30.458
38.795
46.773
55.567
66.811
81.481
100.048
123.01
150.216
180.317
210.573
236.793
254.686
260.865
252.515
226.853
181.609
116.509
34.223
-60.192
-161.367
-264.221
-363.914
-454.961
-530.758
-586.324
-619.822
-631.943
-624.392
-599.229
-558.314
-504.702
-444.134
-382.196
-322.926
-268.649
-220.287
-178.526
-144.725
-119.644
-101.714
-88.515
-77.557
-67.298
-57.581
-48.358
-38.93
-28.406
-16.81
-5.054
5.315
13.248
18.719
21.988
23.263
22.477
19.626
15.226
10.276
5.646
1.8
-1.068
-2.983
-3.876
-3.589
-2.115
0.414
3.805
7.852
12.413
17.421
22.769
28.32
33.91
39.319
44.382
48.993
53.075
56.601
59.557
61.92
63.695
64.922
65.654
65.959
65.898
65.515
64.862
64.007
63.032
62.034
61.092
60.255
59.564
59.046
58.722
58.616
58.739
59.084
59.649
60.433
61.439
62.674
64.143
65.839
67.753
69.875
72.197
74.711
77.412
80.288
83.331
86.53
89.878
93.367
96.986
100.719
104.549
108.455
112.419
116.42
120.435
124.44
128.413
132.331
136.172
139.913
143.534
147.011
150.324
153.451
156.373
159.072
161.527
163.723
165.642
167.271
168.595
169.605
170.288
170.636
170.641
170.299
169.605
168.557
167.155
165.4
163.295
160.844
158.055
154.936
151.496
147.749
143.707
139.385
134.799
129.967
124.905
119.634
114.173
108.542
102.763
96.856
90.845
84.75
78.595
72.402
66.193
59.989
53.813
47.685
41.626
35.655
29.792
24.055
18.46
13.024
7.761
2.686
-2.188
-6.852
-11.296
-15.51
-19.489
-23.226
-26.719
-29.964
-32.961
-35.709
-38.211
-40.469
-42.487
-44.27
-45.825
-47.157
-48.276
-49.189
-49.906
-50.437
-50.792
-50.982
-51.018
-50.911
-50.673
-50.315
-49.849
-49.287
-48.639
-47.916
-47.131
-46.292
-45.41
-44.495
-43.555
-42.599
-41.635
-40.669
-39.709
-38.759
-37.826
-36.913
-36.025
-35.165
-34.334
-33.536
-32.772
-32.043
-31.35
-30.692
-30.071
-29.485
-28.933
-28.415
-27.93
-27.476
-27.052
-26.657
-26.288
-25.944
-25.622
-25.322
-25.041
-24.778
-24.531
-24.297
-24.077
-23.868
-23.67
-23.481
-23.3
-23.127
-22.962
-22.804
-22.654
-22.51
-22.373
-22.244
-22.123
-22.009
-21.904
-21.808
-21.72
-21.642
-21.573
-21.514
-21.464
-21.425
-21.395
-21.374
-21.363
-21.362
-21.369
-21.385
-21.41
-21.443
-21.483
-21.53
-21.584
-21.643
-21.707
-21.776
-21.848
-21.923
-21.999
-22.075
-22.152
-22.226
-22.299
-22.368
-22.433
-22.493
-22.547
-22.595
-22.637
-22.672
-22.7
-22.722
-22.736
-22.744
-22.747
-22.743
-22.735
-22.724
-22.709
-22.693
-22.677
-22.662
-22.65
-22.641
-22.638
-22.641
-22.653
-22.674
-22.706
-22.75
-22.809
-22.884
-22.977
-23.088
-23.219
-23.37
-23.542
-23.736
-23.951
-24.189
-24.447
-24.727
-25.027
-25.348
-25.687
-26.043
-26.415
-26.8
-27.194
-27.596
-28.002
-28.407
-28.806
-29.197
-29.574
-29.934
-30.272
-30.584
-30.864
-31.109
-31.312
-31.469
-31.575
-31.623
-31.608
-31.525
-31.372
-31.144
-30.839
-30.454
-29.986
-29.434
-28.796
-28.071
-27.26
-26.359
-25.371
-24.295
-23.136
-21.897
-20.582
-19.196
-17.746
-16.242
-14.692
-13.103
-11.483
-9.841
-8.182
-6.515
-4.847
-3.182
-1.527
0.108
1.714
3.278
4.792
6.246
7.632
8.942
10.167
11.301
12.343
13.294
14.153
14.913
15.565
16.093
16.491
16.764
16.914
16.946
16.872
16.714
16.507
16.31
16.165
16.09
16.099
16.191
16.372
16.664
17.078
17.61
18.253
18.995
19.828
20.758
21.748
22.715
23.54
24.058
24.143
23.724
22.738
21.137
18.888
15.949
12.347
8.198
3.597
-1.382
-6.687
-12.313
-18.139
-23.899
-29.275
-33.892
-37.401
-39.571
-40.086
-38.519
-34.701
-28.69
-20.844
-11.968
-2.715
6.651
15.699
23.878
31.171
37.913
45.064
54.442
67.321
84.043
105.022
130.533
159.512
189.822
218.03
239.294
249.549
246.034
225.813
186.155
126.561
48.617
-43.871
-144.774
-248.258
-349.356
-442.087
-519.965
-578.369
-614.507
-628.057
-621.526
-597.535
-558.466
-508.303
-451.967
-394.045
-338.937
-289.139
-244.869
-206.485
-174.405
-148.177
-127.192
-110.058
-94.367
-79.014
-64.187
-49.888
-36.296
-23.458
-10.789
1.382
11.714
19.603
24.946
27.816
28.788
28.119
25.566
21.441
16.549
11.548
7.065
3.469
0.731
-1.078
-1.769
-1.305
0.263
2.82
6.155
10.103
14.582
19.498
24.741
30.182
35.641
40.925
45.878
50.392
54.401
57.872
60.783
63.119
64.893
66.15
66.961
67.392
67.501
67.332
66.934
66.371
65.725
65.083
64.512
64.059
63.755
63.627
63.696
63.981
64.488
65.209
66.133
67.26
68.588
70.122
71.862
73.801
75.929
78.235
80.712
83.354
86.154
89.102
92.191
95.41
98.753
102.213
105.78
109.438
113.173
116.966
120.8
124.657
128.516
132.356
136.156
139.897
143.558
147.12
150.564
153.87
157.017
159.99
162.768
165.336
167.676
169.773
171.612
173.179
174.463
175.453
176.137
176.507
176.556
176.278
175.667
174.723
173.441
171.824
169.872
167.59
164.982
162.056
158.82
155.284
151.46
147.359
142.998
138.39
133.553
128.502
123.257
117.835
112.257
106.542
100.71
94.783
88.782
82.728
76.641
70.544
64.457
58.401
52.395
46.46
40.614
34.876
29.262
23.79
18.474
13.33
8.37
3.605
-0.953
-5.296
-9.416
-13.306
-16.962
-20.38
-23.559
-26.496
-29.193
-31.652
-33.875
-35.866
-37.631
-39.175
-40.507
-41.633
-42.562
-43.304
-43.869
-44.267
-44.508
-44.605
-44.568
-44.409
-44.14
-43.772
-43.317
-42.785
-42.189
-41.538
-40.843
-40.114
-39.36
-38.59
-37.812
-37.034
-36.263
-35.504
-34.765
-34.049
-33.361
-32.705
-32.083
-31.499
-30.953
-30.447
-29.982
-29.558
-29.175
-28.832
-28.528
-28.262
-28.032
-27.836
-27.673
-27.54
-27.434
-27.353
-27.295
-27.256
-27.235
-27.229
-27.235
-27.251
-27.275
-27.305
-27.339
-27.376
-27.413
-27.45
-27.485
-27.518
-27.548
-27.575
-27.598
-27.618
-27.634
-27.648
-27.658
-27.667
-27.675
-27.682
-27.69
-27.699
-27.711
-27.726
-27.745
-27.77
-27.801
-27.839
-27.886
-27.941
-28.006
-28.082
-28.168
-28.265
-28.373
-28.493
-28.625
-28.768
-28.922
-29.087
-29.263
-29.449
-29.643
-29.845
-30.053
-30.268
-30.487
-30.709
-30.932
-31.157
-31.38
-31.602
-31.819
-32.032
-32.239
-32.438
-32.628
-32.808
-32.978
-33.136
-33.283
-33.417
-33.538
-33.647
-33.743
-33.826
-33.896
-33.954
-34.001
-34.036
-34.06
-34.076
-34.083
-34.084
-34.08
-34.073
-34.064
-34.055
-34.046
-34.04
-34.038
-34.04
-34.049
-34.065
-34.089
-34.123
-34.167
-34.223
-34.289
-34.365
-34.452
-34.547
-34.65
-34.758
-34.869
-34.981
-35.092
-35.2
-35.301
-35.393
-35.473
-35.537
-35.581
-35.6
-35.591
-35.548
-35.465
-35.337
-35.161
-34.932
-34.648
-34.304
-33.896
-33.423
-32.882
-32.269
-31.584
-30.824
-29.986
-29.072
-28.083
-27.019
-25.885
-24.684
-23.421
-22.104
-20.74
-19.334
-17.892
-16.422
-14.928
-13.418
-11.895
-10.364
-8.832
-7.307
-5.8
-4.321
-2.883
-1.494
-0.165
1.094
2.276
3.372
4.38
5.3
6.131
6.867
7.496
8.003
8.379
8.629
8.755
8.762
8.662
8.473
8.229
7.985
7.78
7.64
7.571
7.568
7.636
7.785
8.033
8.388
8.841
9.376
9.989
10.683
11.442
12.214
12.889
13.315
13.372
12.98
12.091
10.677
8.703
6.143
2.996
-0.678
-4.773
-9.194
-13.885
-18.817
-23.947
-29.128
-34.079
-38.459
-41.935
-44.213
-45.064
-44.185
-41.227
-36.086
-28.902
-20.123
-10.515
-0.656
9.129
18.368
26.657
34.083
41.148
49.003
59.247
72.858
90.255
111.864
137.565
166.07
194.811
219.902
237.193
243.353
235.666
211.486
168.758
107.451
30.199
-58.251
-152.691
-248.033
-339.263
-420.799
-486.528
-532.427
-557.544
-562.979
-550.779
-523.572
-484.254
-436.94
-387.32
-339.667
-296.182
-257.925
-224.912
-196.814
-173.417
-153.587
-135.049
-116.379
-97.078
-77.137
-57.33
-38.36
-20.585
-4.672
8.53
18.612
25.457
29.234
30.515
29.799
27.512
24.174
20.206
15.971
11.825
8.017
4.752
2.227
0.548
-0.214
-0.001
1.183
3.308
6.315
10.066
14.413
19.21
24.29
29.524
34.775
39.874
44.693
49.119
53.068
56.507
59.421
61.788
63.62
64.947
65.809
66.278
66.42
66.287
65.947
65.464
64.909
64.368
63.906
63.57
63.4
63.423
63.66
64.134
64.856
65.822
67.034
68.49
70.189
72.137
74.334
76.773
79.446
82.34
85.447
88.759
92.269
95.965
99.837
103.874
108.066
112.403
116.871
121.454
126.133
130.885
135.691
140.527
145.372
150.198
154.982
159.7
164.328
168.843
173.221
177.439
181.473
185.301
188.9
192.251
195.334
198.128
200.617
202.784
204.614
206.094
207.214
207.961
208.328
208.308
207.895
207.087
205.881
204.278
202.28
199.892
197.119
193.97
190.454
186.583
182.37
177.829
172.976
167.829
162.407
156.727
150.812
144.682
138.361
131.871
125.235
118.478
111.623
104.696
97.722
90.723
83.724
76.749
69.822
62.963
56.196
49.541
43.019
36.648
30.446
24.43
18.615
13.016
7.645
2.512
-2.371
-6.997
-11.359
-15.451
-19.271
-22.814
-26.081
-29.071
-31.788
-34.232
-36.41
-38.327
-39.99
-41.405
-42.583
-43.532
-44.262
-44.785
-45.112
-45.254
-45.224
-45.034
-44.698
-44.226
-43.633
-42.931
-42.131
-41.247
-40.291
-39.272
-38.204
-37.097
-35.961
-34.805
-33.64
-32.475
-31.316
-30.172
-29.05
-27.957
-26.897
-25.876
-24.899
-23.968
-23.088
-22.262
-21.49
-20.775
-20.118
-19.519
-18.979
-18.498
-18.074
-17.708
-17.398
-17.143
-16.942
-16.794
-16.695
-16.646
-16.643
-16.685
-16.77
-16.895
-17.058
-17.258
-17.491
-17.755
-18.047
-18.366
-18.707
-19.07
-19.452
-19.849
-20.26
-20.682
-21.113
-21.55
-21.992
-22.437
-22.882
-23.325
-23.766
-24.202
-24.631
-25.052
-25.464
-25.865
-26.254
-26.629
-26.989
-27.334
-27.661
-27.971
-28.262
-28.533
-28.785
-29.016
-29.226
-29.416
-29.586
-29.737
-29.87
-29.985
-30.084
-30.169
-30.24
-30.3
-30.35
-30.393
-30.431
-30.465
-30.497
-30.531
-30.568
-30.611
-30.662
-30.723
-30.795
-30.88
-30.98
-31.096
-31.231
-31.384
-31.557
-31.751
-31.968
-32.207
-32.469
-32.754
-33.06
-33.386
-33.731
-34.093
-34.467
-34.852
-35.243
-35.638
-36.032
-36.422
-36.802
-37.169
-37.517
-37.842
-38.137
-38.397
-38.616
-38.789
-38.909
-38.974
-38.979
-38.921
-38.795
-38.599
-38.331
-37.987
-37.567
-37.069
-36.49
-35.83
-35.089
-34.271
-33.377
-32.41
-31.376
-30.28
-29.131
-27.936
-26.703
-25.439
-24.15
-22.845
-21.531
-20.216
-18.904
-17.602
-16.321
-15.068
-13.857
-12.697
-11.596
-10.562
-9.604
-8.73
-7.945
-7.253
-6.65
-6.138
-5.725
-5.418
-5.231
-5.17
-5.229
-5.403
-5.689
-6.073
-6.533
-7.035
-7.521
-7.947
-8.294
-8.546
-8.701
-8.752
-8.672
-8.449
-8.085
-7.587
-6.968
-6.236
-5.384
-4.447
-3.504
-2.666
-2.096
-1.922
-2.213
-3.032
-4.428
-6.435
-9.092
-12.378
-16.175
-20.387
-24.936
-29.762
-34.861
-40.114
-45.271
-50.036
-54.023
-56.882
-58.367
-58.144
-55.823
-51.278
-44.582
-36.11
-26.656
-16.811
-6.913
2.523
11.137
19.032
26.679
35.224
46.201
60.486
78.46
100.496
126.384
154.839
183.318
207.939
224.701
230.426
222.49
198.356
155.991
95.243
18.595
-69.385
-163.734
-259.56
-351.999
-435.573
-504.101
-553.371
-582.165
-591.248
-582.365
-557.886
-520.501
-474.249
-424.835
-376.625
-331.994
-292.184
-257.373
-227.394
-202.131
-180.445
-160.057
-139.503
-118.24
-96.276
-74.375
-53.228
-33.231
-15.093
0.258
12.33
20.969
26.314
28.883
29.167
27.572
24.581
20.668
16.223
11.604
7.142
3.098
-0.3
-2.873
-4.517
-5.168
-4.794
-3.403
-1.05
2.16
6.085
10.576
15.497
20.715
26.095
31.486
36.706
41.603
46.071
50.042
53.481
56.372
58.7
60.48
61.757
62.596
63.065
63.227
63.129
62.829
62.393
61.894
61.417
61.025
60.762
60.662
60.752
61.052
61.58
62.341
63.326
64.528
65.942
67.568
69.408
71.459
73.713
76.159
78.785
81.582
84.543
87.657
90.914
94.301
97.809
101.426
105.145
108.952
112.831
116.764
120.732
124.715
128.693
132.645
136.549
140.382
144.124
147.754
151.251
154.597
157.771
160.753
163.525
166.07
168.37
170.411
172.176
173.653
174.829
175.692
176.235
176.448
176.324
175.859
175.048
173.891
172.386
170.536
168.342
165.81
162.946
159.759
156.258
152.454
148.36
143.99
139.359
134.485
129.383
124.074
118.575
112.906
107.089
101.144
95.093
88.958
82.759
76.52
70.261
64.006
57.774
51.588
45.466
39.43
33.496
27.685
22.012
16.493
11.144
5.977
1.006
-3.759
-8.308
-12.633
-16.727
-20.584
-24.2
-27.572
-30.7
-33.582
-36.22
-38.617
-40.776
-42.702
-44.401
-45.88
-47.146
-48.207
-49.074
-49.755
-50.262
-50.604
-50.792
-50.839
-50.756
-50.553
-50.243
-49.836
-49.344
-48.778
-48.147
-47.462
-46.732
-45.966
-45.173
-44.361
-43.537
-42.707
-41.877
-41.054
-40.241
-39.443
-38.664
-37.906
-37.172
-36.464
-35.783
-35.129
-34.503
-33.906
-33.336
-32.792
-32.275
-31.782
-31.313
-30.864
-30.435
-30.024
-29.628
-29.246
-28.876
-28.517
-28.166
-27.822
-27.484
-27.15
-26.821
-26.495
-26.171
-25.849
-25.529
-25.211
-24.896
-24.583
-24.272
-23.966
-23.663
-23.366
-23.074
-22.789
-22.51
-22.24
-21.98
-21.729
-21.489
-21.261
-21.045
-20.842
-20.654
-20.48
-20.322
-20.179
-20.052
-19.941
-19.846
-19.768
-19.705
-19.659
-19.627
-19.61
-19.608
-19.618
-19.64
-19.673
-19.717
-19.769
-19.828
-19.895
-19.967
-20.045
-20.127
-20.213
-20.302
-20.393
-20.487
-20.582
-20.679
-20.777
-20.877
-20.978
-21.081
-21.187
-21.295
-21.407
-21.522
-21.641
-21.765
-21.893
-22.026
-22.165
-22.309
-22.46
-22.616
-22.78
-22.952
-23.131
-23.319
-23.513
-23.714
-23.921
-24.131
-24.344
-24.558
-24.769
-24.976
-25.176
-25.368
-25.549
-25.715
-25.863
-25.99
-26.091
-26.164
-26.203
-26.204
-26.163
-26.075
-25.938
-25.749
-25.505
-25.203
-24.841
-24.416
-23.928
-23.373
-22.751
-22.06
-21.3
-20.471
-19.574
-18.614
-17.593
-16.516
-15.391
-14.223
-13.019
-11.785
-10.529
-9.254
-7.968
-6.676
-5.382
-4.092
-2.812
-1.551
-0.319
0.873
2.015
3.101
4.121
5.07
5.938
6.721
7.419
8.031
8.554
8.978
9.285
9.465
9.523
9.462
9.294
9.034
8.693
8.3
7.903
7.543
7.266
7.094
7.02
7.048
7.193
7.471
7.92
8.546
9.305
10.17
11.122
12.126
13.157
14.124
14.867
15.245
15.133
14.439
13.147
11.219
8.594
5.248
1.158
-3.624
-8.923
-14.62
-20.629
-26.848
-33.211
-39.505
-45.34
-50.36
-54.204
-56.54
-57.18
-55.825
-52.079
-45.861
-37.321
-26.926
-15.581
-3.932
7.693
18.754
28.807
37.909
46.461
55.622
67.045
81.654
99.792
121.799
147.415
175.228
202.55
225.348
239.423
241.526
229.111
199.746
151.494
84.411
1.361
-92.613
-192.199
-292.416
-388.487
-475.12
-545.949
-596.234
-624.671
-632.382
-621.103
-592.917
-550.07
-495.757
-435.989
-376.699
-321.098
-270.653
-226.204
-188.232
-157.577
-134.825
-117.712
-102.996
-89.122
-75.493
-62.13
-49.415
-36.909
-23.682
-10.439
1.171
10.284
16.468
19.92
21.363
20.988
18.564
14.459
9.521
4.486
0.035
-3.505
-6.189
-7.949
-8.6
-8.075
-6.41
-3.712
-0.181
4.016
8.792
14.04
19.627
25.413
31.213
36.826
42.098
46.925
51.238
55.007
58.214
60.841
62.893
64.414
65.463
66.106
66.405
66.404
66.158
65.737
65.223
64.71
64.267
63.943
63.771
63.778
63.984
64.411
65.064
65.937
67.022
68.318
69.826
71.551
73.493
75.644
77.995
80.533
83.249
86.138
89.19
92.396
95.745
99.227
102.833
106.557
110.386
114.304
118.296
122.342
126.423
130.52
134.611
138.674
142.688
146.63
150.482
154.222
157.832
161.289
164.576
167.674
170.564
173.231
175.656
177.825
179.722
181.336
182.654
183.666
184.363
184.737
184.781
184.491
183.865
182.899
181.595
179.954
177.979
175.675
173.049
170.108
166.864
163.326
159.507
155.422
151.085
146.513
141.723
136.732
131.559
126.222
120.742
115.138
109.431
103.642
97.791
91.9
85.988
80.078
74.189
68.341
62.553
56.843
51.231
45.731
40.362
35.137
30.07
25.175
20.463
15.945
11.63
7.525
3.637
-0.029
-3.469
-6.682
-9.665
-12.42
-14.947
-17.249
-19.33
-21.195
-22.848
-24.297
-25.549
-26.612
-27.495
-28.207
-28.759
-29.159
-29.42
-29.551
-29.564
-29.468
-29.276
-28.998
-28.643
-28.223
-27.747
-27.225
-26.666
-26.079
-25.471
-24.851
-24.225
-23.601
-22.982
-22.376
-21.787
-21.217
-20.672
-20.153
-19.663
-19.204
-18.776
-18.381
-18.019
-17.689
-17.391
-17.125
-16.888
-16.679
-16.498
-16.342
-16.208
-16.096
-16.004
-15.928
-15.868
-15.822
-15.786
-15.761
-15.743
-15.732
-15.725
-15.721
-15.719
-15.719
-15.718
-15.716
-15.712
-15.707
-15.698
-15.687
-15.674
-15.657
-15.637
-15.615
-15.59
-15.563
-15.534
-15.504
-15.474
-15.443
-15.413
-15.383
-15.355
-15.329
-15.304
-15.282
-15.262
-15.244
-15.229
-15.216
-15.206
-15.198
-15.193
-15.19
-15.19
-15.192
-15.197
-15.203
-15.211
-15.221
-15.233
-15.246
-15.261
-15.278
-15.296
-15.317
-15.34
-15.366
-15.396
-15.429
-15.465
-15.507
-15.553
-15.606
-15.665
-15.732
-15.808
-15.894
-15.992
-16.103
-16.229
-16.371
-16.53
-16.707
-16.903
-17.12
-17.358
-17.618
-17.902
-18.209
-18.541
-18.899
-19.282
-19.689
-20.122
-20.577
-21.054
-21.551
-22.066
-22.596
-23.139
-23.693
-24.255
-24.822
-25.391
-25.959
-26.522
-27.075
-27.614
-28.134
-28.629
-29.095
-29.525
-29.916
-30.264
-30.563
-30.81
-31.001
-31.131
-31.198
-31.197
-31.126
-30.98
-30.757
-30.456
-30.076
-29.619
-29.086
-28.48
-27.806
-27.068
-26.272
-25.423
-24.524
-23.581
-22.597
-21.576
-20.522
-19.438
-18.331
-17.206
-16.074
-14.944
-13.826
-12.728
-11.66
-10.628
-9.644
-8.714
-7.838
-7.023
-6.272
-5.596
-5.013
-4.535
-4.163
-3.899
-3.734
-3.659
-3.667
-3.733
-3.814
-3.871
-3.859
-3.752
-3.555
-3.263
-2.867
-2.355
-1.696
-0.895
0.005
0.98
2.012
3.068
4.131
5.115
5.866
6.249
6.127
5.4
4.034
1.978
-0.829
-4.414
-8.786
-13.869
-19.5
-25.564
-32.002
-38.755
-45.736
-52.711
-59.31
-65.166
-69.925
-73.306
-74.989
-74.533
-71.692
-66.472
-59.172
-50.495
-41.099
-31.285
-21.483
-12.283
-3.707
4.537
13.425
24.825
39.813
58.611
81.531
108.702
139.369
171.876
202.643
226.589
240.231
241.103
226.758
195.121
144.45
74.785
-10.257
-104.77
-203.986
-303.46
-398.521
-484.211
-554.048
-603.065
-630.347
-637.423
-625.831
-597.517
-554.643
-500.196
-440.354
-381.238
-325.956
-275.901
-231.889
-194.316
-164.058
-141.767
-125.101
-110.752
-97.132
-83.597
-70.186
-57.324
-44.564
-30.97
-17.253
-5.068
4.688
11.552
15.699
17.825
18.119
16.347
12.863
8.514
4.031
0.077
-3.011
-5.284
-6.68
-7.015
-6.225
-4.353
-1.5
2.144
6.415
11.236
16.504
22.089
27.858
33.63
39.208
44.444
49.233
53.506
57.235
60.406
62.998
65.019
66.511
67.531
68.145
68.412
68.377
68.092
67.624
67.057
66.482
65.971
65.572
65.32
65.241
65.359
65.695
66.257
67.041
68.04
69.254
70.685
72.339
74.219
76.318
78.625
81.129
83.823
86.7
89.751
92.966
96.336
99.85
103.499
107.275
111.168
115.16
119.235
123.373
127.555
131.761
135.97
140.158
144.302
148.381
152.374
156.259
160.015
163.62
167.054
170.296
173.328
176.13
178.686
180.977
182.988
184.705
186.115
187.208
187.972
188.399
188.482
188.215
187.596
186.622
185.292
183.607
181.572
179.19
176.468
173.415
170.039
166.353
162.369
158.101
153.564
148.776
143.754
138.515
133.081
127.469
121.703
115.802
109.788
103.684
97.513
91.295
85.054
78.813
72.591
66.411
60.294
54.259
48.326
42.513
36.838
31.317
25.964
20.795
15.823
11.057
6.51
2.189
-1.898
-5.745
-9.346
-12.7
-15.803
-18.656
-21.259
-23.614
-25.724
-27.595
-29.231
-30.639
-31.828
-32.805
-33.58
-34.164
-34.567
-34.799
-34.874
-34.802
-34.596
-34.267
-33.83
-33.294
-32.673
-31.979
-31.222
-30.414
-29.566
-28.688
-27.79
-26.881
-25.97
-25.065
-24.173
-23.302
-22.458
-21.646
-20.872
-20.139
-19.452
-18.812
-18.222
-17.684
-17.198
-16.765
-16.385
-16.057
-15.779
-15.55
-15.368
-15.23
-15.135
-15.079
-15.059
-15.073
-15.116
-15.186
-15.281
-15.396
-15.528
-15.676
-15.835
-16.004
-16.179
-16.358
-16.539
-16.72
-16.899
-17.073
-17.241
-17.403
-17.556
-17.7
-17.834
-17.957
-18.07
-18.172
-18.263
-18.343
-18.413
-18.473
-18.525
-18.568
-18.605
-18.635
-18.661
-18.683
-18.702
-18.718
-18.734
-18.75
-18.767
-18.786
-18.806
-18.83
-18.858
-18.889
-18.926
-18.968
-19.015
-19.069
-19.128
-19.194
-19.267
-19.347
-19.434
-19.528
-19.63
-19.74
-19.858
-19.984
-20.119
-20.262
-20.414
-20.575
-20.745
-20.923
-21.111
-21.308
-21.514
-21.73
-21.957
-22.195
-22.445
-22.706
-22.979
-23.263
-23.561
-23.87
-24.192
-24.526
-24.872
-25.231
-25.602
-25.985
-26.379
-26.784
-27.198
-27.618
-28.045
-28.474
-28.904
-29.331
-29.752
-30.166
-30.569
-30.958
-31.33
-31.682
-32.011
-32.312
-32.581
-32.815
-33.008
-33.156
-33.256
-33.304
-33.298
-33.235
-33.112
-32.928
-32.679
-32.366
-31.987
-31.541
-31.025
-30.44
-29.788
-29.069
-28.287
-27.446
-26.55
-25.605
-24.62
-23.602
-22.557
-21.492
-20.413
-19.327
-18.241
-17.16
-16.086
-15.027
-13.99
-12.984
-12.018
-11.102
-10.243
-9.446
-8.723
-8.078
-7.517
-7.044
-6.653
-6.346
-6.129
-6.011
-6.005
-6.119
-6.347
-6.683
-7.125
-7.659
-8.265
-8.906
-9.522
-10.067
-10.522
-10.87
-11.111
-11.239
-11.228
-11.068
-10.765
-10.327
-9.771
-9.107
-8.326
-7.464
-6.604
-5.86
-5.405
-5.374
-5.842
-6.878
-8.535
-10.849
-13.866
-17.564
-21.819
-26.53
-31.615
-37.011
-42.719
-48.618
-54.455
-59.923
-64.622
-68.188
-70.359
-70.784
-69.053
-65.022
-58.743
-50.593
-41.38
-31.71
-21.946
-12.625
-4.116
3.684
11.268
19.827
30.935
45.515
63.998
86.829
113.832
143.681
173.731
199.916
218.076
224.943
217.773
193.849
150.969
88.85
9.933
-80.996
-178.768
-278.555
-375.425
-463.78
-537.289
-591.137
-623.557
-635.337
-628.198
-604.078
-565.51
-516.196
-461.552
-406.948
-355.742
-309.359
-268.307
-232.975
-203.473
-179.437
-159.348
-140.742
-122.112
-103.237
-84.415
-66.077
-48.61
-31.996
-16.443
-3.117
7.235
14.545
18.919
20.884
21
19.383
16.175
12.034
7.524
3.11
-0.71
-3.802
-6.104
-7.425
-7.656
-6.8
-4.875
-1.987
1.69
6.045
10.954
16.284
21.918
27.705
33.479
39.061
44.295
49.077
53.342
57.054
60.193
62.747
64.729
66.189
67.195
67.817
68.117
68.144
67.952
67.613
67.205
66.813
66.504
66.321
66.299
66.466
66.842
67.448
68.288
69.355
70.641
72.143
73.861
75.799
77.956
80.322
82.887
85.64
88.574
91.681
94.952
98.377
101.945
105.646
109.471
113.411
117.454
121.584
125.784
130.035
134.316
138.61
142.894
147.145
151.342
155.465
159.491
163.401
167.174
170.79
174.229
177.473
180.502
183.299
185.848
188.133
190.139
191.854
193.266
194.363
195.138
195.582
195.688
195.452
194.87
193.942
192.666
191.045
189.081
186.78
184.147
181.191
177.921
174.349
170.486
166.347
161.946
157.3
152.425
147.34
142.062
136.611
131.008
125.272
119.425
113.487
107.479
101.424
95.341
89.253
83.18
77.141
71.156
65.245
59.426
53.715
48.131
42.688
37.401
32.284
27.349
22.608
18.071
13.746
9.642
5.764
2.117
-1.294
-4.469
-7.404
-10.102
-12.563
-14.79
-16.786
-18.556
-20.106
-21.441
-22.571
-23.501
-24.242
-24.801
-25.189
-25.415
-25.489
-25.421
-25.223
-24.904
-24.476
-23.947
-23.33
-22.633
-21.867
-21.041
-20.166
-19.249
-18.3
-17.327
-16.338
-15.341
-14.341
-13.346
-12.361
-11.391
-10.442
-9.517
-8.619
-7.753
-6.921
-6.125
-5.366
-4.647
-3.969
-3.332
-2.736
-2.183
-1.672
-1.202
-0.775
-0.388
-0.041
0.265
0.533
0.763
0.957
1.115
1.24
1.332
1.392
1.423
1.427
1.404
1.356
1.285
1.192
1.078
0.946
0.797
0.632
0.452
0.259
0.055
-0.16
-0.384
-0.616
-0.854
-1.098
-1.345
-1.596
-1.848
-2.102
-2.354
-2.605
-2.854
-3.098
-3.338
-3.572
-3.8
-4.022
-4.236
-4.444
-4.643
-4.835
-5.02
-5.198
-5.368
-5.532
-5.689
-5.84
-5.987
-6.129
-6.268
-6.406
-6.543
-6.682
-6.823
-6.968
-7.118
-7.276
-7.443
-7.621
-7.81
-8.014
-8.234
-8.471
-8.728
-9.006
-9.308
-9.633
-9.984
-10.361
-10.764
-11.195
-11.652
-12.137
-12.648
-13.185
-13.748
-14.337
-14.95
-15.585
-16.24
-16.913
-17.602
-18.302
-19.011
-19.724
-20.437
-21.146
-21.847
-22.536
-23.208
-23.859
-24.485
-25.08
-25.639
-26.158
-26.631
-27.053
-27.418
-27.722
-27.963
-28.138
-28.243
-28.277
-28.236
-28.121
-27.93
-27.662
-27.318
-26.896
-26.396
-25.822
-25.177
-24.464
-23.688
-22.855
-21.972
-21.048
-20.093
-19.111
-18.113
-17.103
-16.09
-15.082
-14.085
-13.102
-12.14
-11.209
-10.315
-9.471
-8.684
-7.961
-7.309
-6.735
-6.246
-5.847
-5.539
-5.318
-5.184
-5.144
-5.204
-5.379
-5.673
-6.079
-6.591
-7.205
-7.906
-8.672
-9.468
-10.233
-10.922
-11.517
-12.002
-12.376
-12.632
-12.745
-12.7
-12.506
-12.168
-11.702
-11.12
-10.412
-9.617
-8.817
-8.13
-7.725
-7.734
-8.228
-9.274
-10.924
-13.214
-16.187
-19.82
-23.99
-28.601
-33.574
-38.852
-44.434
-50.198
-55.89
-61.206
-65.748
-69.152
-71.163
-71.43
-69.553
-65.397
-59.037
-50.872
-41.729
-32.225
-22.728
-13.772
-5.737
1.49
8.438
16.346
26.832
40.867
58.891
81.352
108.099
137.787
167.701
193.708
211.538
217.815
209.748
184.599
140.163
76.266
-4.499
-97.183
-196.353
-296.934
-393.817
-481.268
-552.946
-604.171
-633.362
-641.535
-630.73
-603.173
-561.641
-510.031
-453.814
-398.307
-346.763
-300.452
-259.737
-224.894
-195.939
-172.462
-152.945
-134.955
-117.057
-99.106
-81.421
-64.432
-48.502
-33.555
-19.741
-8.157
0.51
6.231
9.163
9.867
8.932
6.488
2.66
-1.928
-6.709
-11.207
-14.96
-17.862
-19.891
-20.907
-20.813
-19.616
-17.357
-14.158
-10.207
-5.633
-0.559
4.88
10.572
16.374
22.11
27.598
32.695
37.314
41.403
44.944
47.916
50.306
52.136
53.464
54.359
54.89
55.118
55.084
54.843
54.466
54.031
53.623
53.305
53.115
53.087
53.247
53.618
54.218
55.054
56.116
57.398
58.9
60.624
62.577
64.756
67.155
69.764
72.575
75.579
78.773
82.146
85.688
89.39
93.241
97.233
101.358
105.601
109.947
114.378
118.874
123.415
127.981
132.547
137.091
141.588
146.016
150.35
154.57
158.651
162.571
166.307
169.839
173.145
176.205
179
181.511
183.721
185.616
187.18
188.403
189.271
189.775
189.908
189.664
189.039
188.029
186.634
184.855
182.696
180.161
177.259
173.996
170.385
166.438
162.169
157.594
152.731
147.598
142.214
136.601
130.779
124.772
118.603
112.295
105.872
99.359
92.78
86.16
79.524
72.895
66.298
59.754
53.287
46.917
40.666
34.553
28.596
22.813
17.219
11.829
6.656
1.711
-2.995
-7.455
-11.662
-15.61
-19.297
-22.719
-25.878
-28.773
-31.408
-33.787
-35.913
-37.795
-39.439
-40.855
-42.05
-43.037
-43.825
-44.427
-44.855
-45.12
-45.236
-45.215
-45.071
-44.816
-44.464
-44.026
-43.515
-42.942
-42.321
-41.66
-40.971
-40.264
-39.548
-38.831
-38.121
-37.426
-36.752
-36.104
-35.488
-34.907
-34.366
-33.867
-33.412
-33.003
-32.64
-32.324
-32.056
-31.833
-31.655
-31.52
-31.427
-31.373
-31.356
-31.373
-31.421
-31.498
-31.6
-31.725
-31.869
-32.029
-32.202
-32.387
-32.579
-32.777
-32.977
-33.177
-33.376
-33.57
-33.758
-33.938
-34.108
-34.267
-34.413
-34.544
-34.66
-34.759
-34.841
-34.904
-34.949
-34.974
-34.979
-34.963
-34.928
-34.871
-34.795
-34.698
-34.581
-34.445
-34.289
-34.114
-33.921
-33.709
-33.48
-33.235
-32.973
-32.696
-32.404
-32.099
-31.78
-31.45
-31.11
-30.76
-30.402
-30.038
-29.67
-29.298
-28.926
-28.556
-28.19
-27.83
-27.478
-27.136
-26.808
-26.495
-26.199
-25.923
-25.669
-25.439
-25.236
-25.06
-24.915
-24.8
-24.718
-24.669
-24.653
-24.672
-24.726
-24.814
-24.937
-25.094
-25.284
-25.506
-25.76
-26.043
-26.353
-26.686
-27.041
-27.412
-27.797
-28.189
-28.585
-28.979
-29.367
-29.744
-30.104
-30.443
-30.754
-31.031
-31.27
-31.464
-31.607
-31.694
-31.719
-31.68
-31.573
-31.395
-31.144
-30.818
-30.415
-29.934
-29.377
-28.742
-28.029
-27.24
-26.376
-25.442
-24.442
-23.381
-22.264
-21.1
-19.897
-18.665
-17.413
-16.15
-14.884
-13.624
-12.377
-11.153
-9.96
-8.804
-7.693
-6.637
-5.647
-4.732
-3.902
-3.164
-2.525
-1.989
-1.56
-1.241
-1.031
-0.927
-0.93
-1.043
-1.268
-1.619
-2.097
-2.701
-3.422
-4.247
-5.151
-6.101
-7.057
-7.974
-8.822
-9.578
-10.226
-10.766
-11.187
-11.488
-11.669
-11.709
-11.59
-11.309
-10.863
-10.274
-9.616
-8.976
-8.468
-8.224
-8.337
-8.886
-9.932
-11.491
-13.568
-16.12
-19.06
-22.337
-25.918
-29.769
-33.875
-38.14
-42.341
-46.228
-49.487
-51.758
-52.766
-52.169
-49.589
-44.935
-38.34
-30.212
-21.291
-12.124
-3.004
5.609
13.341
20.326
27.086
34.787
44.991
58.563
75.799
97.005
121.982
149.445
176.907
200.615
216.567
221.6
213.194
188.911
146.857
87.037
11.971
-73.847
-165.441
-257.923
-346.496
-425.801
-489.936
-535.015
-560.056
-565.991
-554.684
-528.597
-490.461
-444.249
-395.492
-348.346
-304.984
-266.516
-233.05
-204.348
-180.283
-159.783
-140.633
-121.447
-101.746
-81.51
-61.488
-42.349
-24.419
-8.346
5.028
15.297
22.341
26.328
27.825
27.327
25.255
22.129
18.371
14.346
10.419
6.84
3.821
1.556
0.156
-0.309
0.22
1.742
4.227
7.616
11.769
16.538
21.777
27.314
33.023
38.762
44.358
49.681
54.617
59.076
63.026
66.45
69.322
71.653
73.47
74.813
75.752
76.351
76.664
76.755
76.689
76.536
76.382
76.292
76.313
76.486
76.835
77.383
78.151
79.151
80.379
81.837
83.522
85.436
87.583
89.965
92.574
95.404
98.443
101.683
105.118
108.742
112.544
116.516
120.647
124.927
129.35
133.902
138.567
143.326
148.159
153.045
157.962
162.888
167.796
172.663
177.463
182.174
186.77
191.228
195.525
199.634
203.535
207.203
210.617
213.757
216.603
219.134
221.335
223.189
224.682
225.802
226.536
226.876
226.812
226.34
225.454
224.154
222.437
220.307
217.768
214.825
211.487
207.763
203.666
199.21
194.409
189.282
183.846
178.121
172.128
165.889
159.427
152.766
145.93
138.944
131.834
124.625
117.344
110.016
102.668
95.323
88.008
80.747
73.564
66.482
59.522
52.707
46.055
39.586
33.316
27.262
21.437
15.855
10.527
5.461
0.666
-3.852
-8.088
-12.04
-15.707
-19.087
-22.183
-24.999
-27.537
-29.805
-31.807
-33.554
-35.052
-36.311
-37.343
-38.157
-38.766
-39.181
-39.416
-39.482
-39.394
-39.163
-38.804
-38.329
-37.751
-37.083
-36.337
-35.525
-34.658
-33.747
-32.804
-31.836
-30.854
-29.866
-28.88
-27.903
-26.941
-26
-25.086
-24.203
-23.354
-22.543
-21.773
-21.045
-20.362
-19.725
-19.134
-18.59
-18.092
-17.642
-17.236
-16.876
-16.559
-16.284
-16.049
-15.852
-15.693
-15.567
-15.475
-15.413
-15.379
-15.372
-15.39
-15.43
-15.491
-15.571
-15.668
-15.782
-15.91
-16.052
-16.206
-16.371
-16.546
-16.731
-16.923
-17.124
-17.331
-17.545
-17.764
-17.989
-18.219
-18.454
-18.694
-18.939
-19.187
-19.441
-19.699
-19.961
-20.228
-20.501
-20.779
-21.062
-21.352
-21.649
-21.952
-22.263
-22.582
-22.91
-23.245
-23.59
-23.943
-24.306
-24.678
-25.06
-25.452
-25.855
-26.269
-26.694
-27.13
-27.577
-28.034
-28.5
-28.976
-29.461
-29.954
-30.453
-30.958
-31.469
-31.985
-32.502
-33.021
-33.538
-34.052
-34.559
-35.057
-35.543
-36.014
-36.465
-36.895
-37.301
-37.679
-38.027
-38.342
-38.619
-38.855
-39.048
-39.192
-39.285
-39.322
-39.3
-39.217
-39.072
-38.864
-38.591
-38.251
-37.846
-37.374
-36.837
-36.234
-35.565
-34.831
-34.035
-33.181
-32.272
-31.313
-30.311
-29.271
-28.203
-27.115
-26.014
-24.907
-23.801
-22.701
-21.615
-20.548
-19.504
-18.489
-17.51
-16.577
-15.697
-14.882
-14.138
-13.47
-12.885
-12.389
-11.985
-11.674
-11.452
-11.316
-11.27
-11.323
-11.489
-11.773
-12.169
-12.671
-13.274
-13.963
-14.717
-15.501
-16.252
-16.926
-17.497
-17.955
-18.301
-18.532
-18.631
-18.577
-18.366
-18.004
-17.506
-16.877
-16.109
-15.226
-14.295
-13.44
-12.836
-12.625
-12.893
-13.696
-15.076
-17.064
-19.695
-22.966
-26.777
-31.029
-35.642
-40.572
-45.828
-51.324
-56.847
-62.075
-66.595
-70.033
-72.112
-72.506
-70.834
-66.957
-60.933
-53.114
-44.275
-35.03
-25.757
-16.96
-8.977
-1.649
5.582
13.866
24.747
39.172
57.598
80.496
107.696
137.852
168.283
194.949
213.694
221.185
214.641
191.352
149.188
88.02
10.464
-78.647
-174.097
-270.806
-363.752
-447.37
-515.466
-563.889
-591.577
-599.548
-589.778
-564.811
-527.449
-481.711
-433.234
-386.275
-343.055
-304.694
-271.263
-242.49
-218.212
-197.316
-177.583
-157.633
-137.002
-115.696
-94.472
-74.014
-54.689
-37.197
-22.44
-10.874
-2.631
2.451
4.911
5.226
3.792
1.112
-2.339
-6.148
-9.929
-13.411
-16.387
-18.657
-20.085
-20.575
-20.062
-18.547
-16.058
-12.658
-8.466
-3.616
1.752
7.476
13.404
19.378
25.218
30.785
35.962
40.659
44.832
48.453
51.503
53.994
55.956
57.433
58.486
59.177
59.557
59.693
59.654
59.513
59.358
59.255
59.254
59.396
59.708
60.214
60.932
61.872
63.029
64.402
65.988
67.789
69.808
72.043
74.488
77.135
79.971
82.986
86.174
89.526
93.032
96.68
100.462
104.366
108.385
112.507
116.716
120.995
125.324
129.684
134.054
138.413
142.739
147.008
151.199
155.291
159.264
163.096
166.768
170.258
173.549
176.62
179.454
182.035
184.346
186.373
188.102
189.522
190.621
191.392
191.826
191.917
191.661
191.054
190.096
188.786
187.126
185.12
182.773
180.091
177.083
173.758
170.129
166.207
162.008
157.546
152.837
147.899
142.749
137.406
131.889
126.218
120.414
114.496
108.487
102.407
96.276
90.117
83.95
77.794
71.671
65.598
59.594
53.678
47.866
42.174
36.618
31.212
25.968
20.9
16.019
11.332
6.85
2.579
-1.475
-5.308
-8.916
-12.297
-15.45
-18.376
-21.076
-23.552
-25.809
-27.85
-29.682
-31.31
-32.742
-33.985
-35.048
-35.94
-36.669
-37.246
-37.68
-37.981
-38.16
-38.225
-38.187
-38.055
-37.841
-37.553
-37.2
-36.792
-36.338
-35.846
-35.323
-34.778
-34.216
-33.646
-33.072
-32.5
-31.936
-31.383
-30.845
-30.327
-29.83
-29.357
-28.91
-28.491
-28.099
-27.737
-27.403
-27.098
-26.822
-26.574
-26.352
-26.157
-25.987
-25.84
-25.715
-25.611
-25.527
-25.459
-25.407
-25.368
-25.342
-25.325
-25.317
-25.316
-25.32
-25.326
-25.335
-25.344
-25.351
-25.356
-25.356
-25.351
-25.34
-25.321
-25.294
-25.258
-25.212
-25.155
-25.087
-25.008
-24.918
-24.815
-24.701
-24.574
-24.435
-24.284
-24.12
-23.946
-23.759
-23.562
-23.355
-23.138
-22.912
-22.679
-22.439
-22.193
-21.942
-21.688
-21.432
-21.176
-20.92
-20.667
-20.418
-20.176
-19.941
-19.717
-19.505
-19.308
-19.126
-18.963
-18.819
-18.697
-18.599
-18.527
-18.482
-18.465
-18.48
-18.527
-18.607
-18.722
-18.872
-19.058
-19.279
-19.535
-19.825
-20.149
-20.506
-20.895
-21.313
-21.76
-22.233
-22.73
-23.247
-23.782
-24.33
-24.888
-25.45
-26.012
-26.568
-27.114
-27.644
-28.154
-28.639
-29.092
-29.509
-29.884
-30.21
-30.484
-30.698
-30.846
-30.924
-30.926
-30.849
-30.691
-30.449
-30.12
-29.705
-29.201
-28.609
-27.928
-27.161
-26.307
-25.367
-24.345
-23.246
-22.075
-20.839
-19.543
-18.197
-16.811
-15.396
-13.959
-12.51
-11.058
-9.611
-8.179
-6.769
-5.388
-4.043
-2.746
-1.507
-0.337
0.752
1.752
2.655
3.453
4.139
4.71
5.164
5.504
5.731
5.843
5.832
5.683
5.393
4.966
4.408
3.724
2.932
2.051
1.119
0.193
-0.68
-1.476
-2.182
-2.797
-3.316
-3.722
-3.994
-4.125
-4.119
-3.982
-3.712
-3.302
-2.772
-2.189
-1.675
-1.394
-1.477
-2.012
-3.054
-4.65
-6.833
-9.636
-13.05
-16.984
-21.343
-26.061
-31.108
-36.487
-42.113
-47.766
-53.115
-57.778
-61.401
-63.723
-64.438
-63.123
-59.601
-53.937
-46.474
-37.986
-29.125
-20.155
-11.473
-3.62
3.431
10.078
17.252
26.743
39.813
56.765
78.001
103.785
133.042
163.656
192.252
214.061
225.048
222.419
203.209
164.683
106.327
29.762
-61.252
-160.813
-263.047
-362.709
-453.615
-528.98
-584.266
-617.338
-628.141
-618.994
-592.869
-552.763
-503.306
-450.496
-398.828
-351.209
-309.352
-273.267
-242.615
-217.158
-195.461
-175.172
-154.825
-133.733
-111.808
-89.838
-68.53
-48.315
-29.995
-14.526
-2.404
6.211
11.479
13.934
14.07
12.306
9.143
5.077
0.517
-4.169
-8.65
-12.669
-15.997
-18.452
-19.929
-20.365
-19.734
-18.054
-15.389
-11.85
-7.581
-2.737
2.54
8.111
13.835
19.558
25.1
30.304
35.063
39.306
42.998
46.119
48.657
50.628
52.078
53.075
53.688
53.982
54.01
53.83
53.509
53.125
52.761
52.482
52.333
52.349
52.559
52.983
53.64
54.537
55.665
57.019
58.594
60.391
62.412
64.655
67.113
69.775
72.631
75.673
78.894
82.285
85.836
89.536
93.375
97.342
101.43
105.625
109.91
114.268
118.678
123.12
127.574
132.016
136.424
140.774
145.044
149.211
153.256
157.155
160.888
164.434
167.773
170.886
173.755
176.363
178.694
180.731
182.462
183.874
184.958
185.702
186.098
186.141
185.825
185.147
184.107
182.704
180.939
178.818
176.346
173.531
170.382
166.91
163.127
159.048
154.689
150.065
145.196
140.099
134.794
129.302
123.644
117.84
111.914
105.888
99.783
93.623
87.43
81.227
75.035
68.877
62.772
56.743
50.808
44.986
39.296
33.754
28.376
23.177
18.17
13.368
8.78
4.416
0.284
-3.61
-7.261
-10.667
-13.824
-16.733
-19.395
-21.812
-23.987
-25.925
-27.631
-29.112
-30.376
-31.431
-32.287
-32.952
-33.437
-33.754
-33.913
-33.926
-33.804
-33.558
-33.201
-32.745
-32.2
-31.577
-30.889
-30.145
-29.356
-28.532
-27.682
-26.815
-25.939
-25.061
-24.189
-23.329
-22.486
-21.666
-20.872
-20.108
-19.378
-18.683
-18.026
-17.407
-16.829
-16.29
-15.792
-15.333
-14.913
-14.531
-14.186
-13.877
-13.602
-13.359
-13.147
-12.963
-12.807
-12.676
-12.569
-12.482
-12.415
-12.366
-12.333
-12.314
-12.308
-12.313
-12.328
-12.351
-12.382
-12.42
-12.464
-12.512
-12.565
-12.622
-12.682
-12.745
-12.811
-12.88
-12.95
-13.023
-13.097
-13.172
-13.247
-13.324
-13.399
-13.474
-13.548
-13.619
-13.687
-13.751
-13.81
-13.864
-13.911
-13.951
-13.982
-14.004
-14.017
-14.019
-14.01
-13.989
-13.956
-13.91
-13.852
-13.78
-13.694
-13.594
-13.481
-13.354
-13.214
-13.061
-12.896
-12.719
-12.533
-12.337
-12.133
-11.923
-11.708
-11.49
-11.271
-11.053
-10.839
-10.629
-10.428
-10.238
-10.061
-9.9
-9.755
-9.63
-9.526
-9.443
-9.385
-9.35
-9.341
-9.358
-9.402
-9.473
-9.57
-9.693
-9.841
-10.011
-10.203
-10.413
-10.638
-10.874
-11.119
-11.368
-11.618
-11.865
-12.105
-12.332
-12.543
-12.731
-12.89
-13.016
-13.1
-13.138
-13.122
-13.048
-12.913
-12.71
-12.438
-12.091
-11.668
-11.166
-10.583
-9.917
-9.166
-8.329
-7.408
-6.405
-5.322
-4.164
-2.936
-1.645
-0.299
1.093
2.524
3.986
5.471
6.972
8.482
9.994
11.502
12.999
14.474
15.917
17.314
18.653
19.925
21.12
22.227
23.237
24.145
24.946
25.643
26.233
26.711
27.066
27.281
27.351
27.279
27.071
26.732
26.276
25.722
25.108
24.49
23.912
23.399
22.959
22.59
22.294
22.088
21.991
22.013
22.143
22.365
22.677
23.084
23.567
24.071
24.479
24.631
24.4
23.705
22.493
20.736
18.394
15.439
11.868
7.749
3.197
-1.692
-6.861
-12.283
-17.917
-23.604
-29.042
-33.869
-37.731
-40.32
-41.402
-40.664
-37.737
-32.517
-25.169
-16.187
-6.407
3.566
13.431
22.739
31.088
38.591
45.772
53.827
64.433
78.574
96.548
118.657
144.679
173.169
201.455
225.563
241.206
245.065
234.585
207.262
161.166
96.413
15.687
-76.134
-173.615
-271.758
-365.66
-449.827
-518.249
-566.596
-593.486
-600.002
-588.238
-560.418
-519.242
-468.471
-413.357
-358.988
-308.464
-263
-222.937
-188.543
-159.862
-136.557
-117.223
-99.543
-82.152
-64.897
-48.07
-32.062
-17.185
-3.321
9.438
20.045
27.829
32.789
35.096
35.306
33.999
31.315
27.369
22.809
18.231
14.065
10.733
8.31
6.772
6.253
6.847
8.518
11.207
14.781
19.035
23.851
29.115
34.673
40.401
46.132
51.665
56.852
61.59
65.803
69.467
72.569
75.09
77.041
78.464
79.416
79.968
80.183
80.111
79.811
79.348
78.801
78.26
77.796
77.455
77.275
77.282
77.498
77.943
78.628
79.545
80.692
82.066
83.668
85.505
87.577
89.876
92.394
95.119
98.043
101.158
104.457
107.929
111.562
115.345
119.27
123.328
127.504
131.783
136.147
140.573
145.043
149.536
154.027
158.494
162.912
167.26
171.513
175.651
179.65
183.49
187.147
190.601
193.833
196.823
199.552
202.003
204.161
206.009
207.536
208.73
209.58
210.078
210.215
209.988
209.392
208.426
207.089
205.383
203.311
200.88
198.096
194.968
191.506
187.723
183.632
179.249
174.589
169.671
164.512
159.132
153.55
147.789
141.868
135.811
129.639
123.375
117.041
110.661
104.256
97.85
91.464
85.119
78.835
72.634
66.533
60.552
54.707
49.015
43.489
38.145
32.994
28.047
23.314
18.802
14.52
10.47
6.659
3.088
-0.243
-3.332
-6.183
-8.797
-11.18
-13.335
-15.27
-16.991
-18.507
-19.827
-20.959
-21.915
-22.705
-23.34
-23.831
-24.191
-24.43
-24.56
-24.594
-24.542
-24.415
-24.225
-23.983
-23.698
-23.38
-23.039
-22.684
-22.322
-21.961
-21.608
-21.27
-20.951
-20.658
-20.394
-20.162
-19.967
-19.81
-19.692
-19.616
-19.581
-19.588
-19.636
-19.725
-19.852
-20.017
-20.217
-20.451
-20.716
-21.009
-21.329
-21.672
-22.036
-22.419
-22.818
-23.229
-23.652
-24.084
-24.522
-24.965
-25.41
-25.856
-26.301
-26.744
-27.183
-27.617
-28.046
-28.468
-28.883
-29.291
-29.691
-30.082
-30.466
-30.842
-31.211
-31.572
-31.927
-32.275
-32.617
-32.954
-33.285
-33.613
-33.935
-34.254
-34.568
-34.879
-35.185
-35.486
-35.783
-36.075
-36.361
-36.641
-36.914
-37.179
-37.436
-37.683
-37.92
-38.147
-38.362
-38.564
-38.753
-38.928
-39.088
-39.233
-39.362
-39.475
-39.571
-39.649
-39.71
-39.754
-39.779
-39.788
-39.779
-39.755
-39.715
-39.662
-39.596
-39.52
-39.434
-39.34
-39.241
-39.139
-39.037
-38.936
-38.84
-38.751
-38.674
-38.609
-38.561
-38.531
-38.522
-38.536
-38.574
-38.639
-38.731
-38.853
-39.005
-39.189
-39.406
-39.655
-39.936
-40.249
-40.593
-40.965
-41.364
-41.787
-42.23
-42.69
-43.163
-43.645
-44.133
-44.622
-45.107
-45.583
-46.043
-46.483
-46.895
-47.272
-47.609
-47.898
-48.133
-48.31
-48.425
-48.472
-48.448
-48.348
-48.171
-47.912
-47.57
-47.143
-46.627
-46.024
-45.334
-44.56
-43.704
-42.77
-41.764
-40.693
-39.564
-38.386
-37.166
-35.91
-34.627
-33.323
-32.007
-30.684
-29.362
-28.049
-26.754
-25.49
-24.267
-23.099
-21.992
-20.957
-20.003
-19.136
-18.363
-17.686
-17.102
-16.617
-16.236
-15.969
-15.832
-15.83
-15.959
-16.218
-16.6
-17.089
-17.659
-18.269
-18.869
-19.424
-19.919
-20.342
-20.696
-20.976
-21.164
-21.258
-21.254
-21.149
-20.946
-20.639
-20.228
-19.755
-19.309
-19.013
-19.016
-19.428
-20.316
-21.743
-23.742
-26.336
-29.539
-33.291
-37.495
-42.083
-46.995
-52.205
-57.708
-63.369
-68.934
-74.095
-78.468
-81.711
-83.571
-83.698
-81.719
-77.531
-71.274
-63.424
-54.808
-46.018
-37.357
-29.291
-22.189
-15.905
-9.853
-2.75
7.104
20.696
38.35
60.387
86.613
115.592
144.591
169.521
186.005
190.64
180.787
153.86
107.822
42.711
-38.788
-131.723
-230.54
-330.11
-425.394
-510.757
-580.039
-628.795
-655.599
-661.56
-648.853
-619.804
-577.24
-525.056
-468.64
-413.179
-361.823
-315.79
-275.397
-240.87
-212.197
-188.972
-169.727
-152.109
-134.744
-117.488
-100.648
-84.632
-69.77
-55.964
-43.32
-32.886
-25.322
-20.62
-18.593
-18.675
-20.281
-23.262
-27.497
-32.337
-37.181
-41.597
-45.159
-47.791
-49.514
-50.196
-49.742
-48.19
-45.601
-42.114
-37.936
-33.189
-27.989
-22.49
-16.82
-11.145
-5.668
-0.54
4.132
8.273
11.857
14.869
17.292
19.134
20.44
21.267
21.687
21.765
21.551
21.104
20.488
19.785
19.084
18.455
17.945
17.591
17.42
17.452
17.709
18.2
18.918
19.86
21.022
22.406
24.018
25.858
27.919
30.192
32.667
35.336
38.192
41.227
44.433
47.798
51.312
54.968
58.757
62.666
66.68
70.781
74.949
79.165
83.409
87.658
91.889
96.078
100.203
104.244
108.176
111.981
115.634
119.116
122.406
125.485
128.333
130.934
133.269
135.323
137.081
138.531
139.66
140.459
140.919
141.031
140.792
140.197
139.244
137.933
136.264
134.242
131.87
129.156
126.108
122.737
119.053
115.069
110.801
106.265
101.476
96.453
91.213
85.777
80.163
74.393
68.488
62.468
56.355
50.171
43.938
37.677
31.409
25.156
18.938
12.774
6.684
0.686
-5.202
-10.964
-16.585
-22.05
-27.345
-32.46
-37.384
-42.106
-46.62
-50.919
-54.996
-58.85
-62.476
-65.873
-69.042
-71.982
-74.697
-77.188
-79.46
-81.518
-83.367
-85.015
-86.469
-87.736
-88.825
-89.745
-90.506
-91.117
-91.588
-91.928
-92.149
-92.259
-92.27
-92.189
-92.028
-91.794
-91.497
-91.145
-90.747
-90.309
-89.838
-89.342
-88.827
-88.297
-87.759
-87.217
-86.674
-86.136
-85.605
-85.084
-84.576
-84.082
-83.605
-83.146
-82.705
-82.283
-81.881
-81.497
-81.133
-80.788
-80.46
-80.15
-79.856
-79.578
-79.314
-79.064
-78.826
-78.6
-78.386
-78.181
-77.987
-77.801
-77.624
-77.455
-77.293
-77.139
-76.992
-76.851
-76.716
-76.587
-76.463
-76.345
-76.231
-76.121
-76.015
-75.912
-75.813
-75.717
-75.623
-75.532
-75.444
-75.357
-75.272
-75.188
-75.106
-75.025
-74.944
-74.864
-74.783
-74.7
-74.616
-74.53
-74.439
-74.345
-74.245
-74.139
-74.025
-73.904
-73.774
-73.634
-73.483
-73.322
-73.15
-72.965
-72.769
-72.561
-72.34
-72.108
-71.865
-71.609
-71.344
-71.067
-70.78
-70.483
-70.177
-69.862
-69.54
-69.21
-68.874
-68.533
-68.188
-67.841
-67.494
-67.147
-66.802
-66.461
-66.125
-65.797
-65.478
-65.169
-64.873
-64.591
-64.324
-64.075
-63.844
-63.631
-63.437
-63.263
-63.107
-62.97
-62.851
-62.749
-62.663
-62.593
-62.538
-62.496
-62.464
-62.442
-62.426
-62.414
-62.403
-62.389
-62.367
-62.335
-62.288
-62.221
-62.132
-62.016
-61.867
-61.682
-61.455
-61.182
-60.857
-60.474
-60.029
-59.516
-58.932
-58.274
-57.54
-56.727
-55.833
-54.857
-53.8
-52.66
-51.438
-50.135
-48.749
-47.284
-45.743
-44.128
-42.446
-40.701
-38.9
-37.05
-35.161
-33.242
-31.299
-29.342
-27.377
-25.411
-23.454
-21.511
-19.587
-17.692
-15.833
-14.022
-12.27
-10.586
-8.977
-7.452
-6.019
-4.681
-3.442
-2.303
-1.26
-0.313
0.532
1.268
1.882
2.372
2.743
2.997
3.144
3.203
3.199
3.177
3.188
3.266
3.43
3.692
4.048
4.507
5.085
5.785
6.613
7.573
8.66
9.877
11.223
12.648
14.062
15.337
16.318
16.892
16.991
16.55
15.538
13.93
11.709
8.932
5.69
2.049
-1.929
-6.205
-10.768
-15.474
-20.053
-24.189
-27.48
-29.573
-30.224
-29.094
-25.82
-20.308
-12.686
-3.416
6.686
17.04
27.326
37.058
45.858
53.843
61.536
70.147
81.29
95.881
114.268
136.801
163.277
192.3
221.159
245.819
262.055
266.576
256.797
230.203
184.77
120.481
40.122
-51.32
-148.56
-246.637
-340.768
-425.631
-494.847
-543.66
-570.741
-577.183
-564.66
-535.203
-491.03
-435.343
-374.151
-313.381
-256.231
-204.152
-157.995
-118.26
-85.797
-61.162
-42.084
-25.319
-9.313
6.48
21.998
36.828
51.363
66.506
81.543
94.825
105.487
113.093
117.828
120.424
121.087
119.577
116.259
111.953
107.367
103.234
99.934
97.448
95.893
95.466
96.249
98.243
101.368
105.438
110.302
115.877
122.057
128.743
135.819
143.133
150.524
157.835
164.953
171.811
178.36
184.567
190.391
195.806
200.815
205.442
209.717
213.654
217.25
220.516
223.474
226.152
228.576
230.737
232.603
234.171
235.455
236.503
237.381
238.131
238.795
239.431
240.118
240.991
242.204
243.894
246.203
249.185
252.908
257.588
263.265
269.792
276.89
283.825
289.867
294.82
298.472
300.617
301.708
302.085
302.188
303.592
307.498
314.045
323.343
334.254
344.042
350.578
351.622
343.725
324.521
292.496
246.081
186.6
117.919
43.595
