87.891
78.251
67.851
57.084
46.258
35.655
25.575
16.284
8.135
1.521
-3.273
-6.009
-6.553
-4.744
-0.26
7.035
16.978
29.164
42.767
56.943
71.27
85.163
97.806
109.072
119.256
129.246
140.923
155.626
173.738
195.82
222.297
252.173
283.417
312.483
334.329
345.06
341.954
322.094
282.829
223.24
144.551
50.624
-52.614
-159.91
-266.547
-366.926
-454.575
-523.645
-570.594
-594.335
-595.671
-575.645
-535.382
-477.6
-407.342
-330.73
-252.756
-177.474
-108.241
-47.854
0.812
36.168
59.004
71.632
76.296
75.486
71.878
67.549
64.735
65.08
68.791
75.266
83.676
92.735
100.937
107.392
111.358
112.418
110.814
106.967
101.466
95.185
89.063
83.695
79.437
76.449
74.655
74.006
74.437
75.766
77.763
80.234
83.032
86.043
89.202
92.393
95.435
98.172
100.482
102.288
103.575
104.341
104.58
104.303
103.555
102.396
100.896
99.121
97.12
94.949
92.674
90.376
88.145
86.06
84.178
82.539
81.173
80.101
79.34
78.9
78.773
78.954
79.438
80.224
81.316
82.712
84.404
86.38
88.624
91.126
93.874
96.855
100.055
103.459
107.053
110.823
114.756
118.834
123.036
127.34
131.718
136.147
140.599
145.047
149.462
153.816
158.08
162.228
166.235
170.073
173.717
177.141
180.323
183.239
185.868
188.189
190.184
191.835
193.126
194.044
194.577
194.716
194.453
193.78
192.696
191.199
189.29
186.972
184.25
181.132
177.627
173.749
169.511
164.93
160.023
154.811
149.314
143.557
137.562
131.354
124.959
118.402
111.712
104.915
98.039
91.11
84.158
77.208
70.289
63.427
56.647
49.976
43.435
37.05
30.84
24.827
19.028
13.462
8.142
3.084
-1.701
-6.204
-10.416
-14.331
-17.946
-21.257
-24.266
-26.972
-29.38
-31.494
-33.321
-34.867
-36.141
-37.155
-37.918
-38.443
-38.742
-38.831
-38.722
-38.431
-37.974
-37.365
-36.621
-35.758
-34.791
-33.735
-32.606
-31.418
-30.186
-28.923
-27.642
-26.356
-25.075
-23.811
-22.573
-21.37
-20.209
-19.098
-18.042
-17.045
-16.114
-15.249
-14.456
-13.734
-13.086
-12.512
-12.011
-11.584
-11.229
-10.945
-10.729
-10.58
-10.494
-10.468
-10.5
-10.585
-10.722
-10.905
-11.131
-11.398
-11.701
-12.036
-12.402
-12.794
-13.21
-13.647
-14.103
-14.575
-15.063
-15.564
-16.077
-16.601
-17.136
-17.682
-18.237
-18.804
-19.381
-19.969
-20.568
-21.181
-21.806
-22.446
-23.102
-23.774
-24.465
-25.175
-25.907
-26.661
-27.44
-28.245
-29.078
-29.941
-30.834
-31.76
-32.72
-33.715
-34.749
-35.821
-36.933
-38.088
-39.285
-40.526
-41.812
-43.143
-44.519
-45.941
-47.408
-48.92
-50.477
-52.079
-53.724
-55.412
-57.142
-58.914
-60.724
-62.572
-64.456
-66.373
-68.321
-70.298
-72.301
-74.327
-76.373
-78.438
-80.517
-82.608
-84.706
-86.807
-88.908
-91.004
-93.089
-95.159
-97.208
-99.231
-101.223
-103.181
-105.099
-106.972
-108.796
-110.565
-112.275
-113.921
-115.499
-117.002
-118.425
-119.764
-121.016
-122.178
-123.247
-124.22
-125.095
-125.87
-126.543
-127.113
-127.578
-127.938
-128.189
-128.334
-128.374
-128.312
-128.149
-127.891
-127.541
-127.108
-126.598
-126.017
-125.37
-124.662
-123.899
-123.085
-122.227
-121.327
-120.389
-119.42
-118.426
-117.418
-116.406
-115.396
-114.394
-113.406
-112.442
-111.508
-110.608
-109.741
-108.907
-108.111
-107.368
-106.695
-106.103
-105.592
-105.158
-104.798
-104.506
-104.268
-104.054
-103.814
-103.498
-103.076
-102.542
-101.9
-101.148
-100.275
-99.258
-98.086
-96.783
-95.373
-93.872
-92.29
-90.645
-89.007
-87.509
-86.323
-85.613
-85.493
-86.02
-87.25
-89.238
-92.024
-95.624
-99.968
-104.922
-110.387
-116.309
-122.661
-129.361
-136.176
-142.738
-148.624
-153.429
-156.846
-158.544
-158.058
-155.152
-149.87
-142.535
-133.925
-124.764
-115.329
-106.038
-97.488
-89.595
-81.881
-73.296
-61.868
-46.29
-26.315
-1.547
28.234
61.78
96.744
129.266
154.038
166.973
165.33
146.226
107.009
46.935
-32.468
-127.08
-230.638
-337.547
-443.049
-541.547
-626.365
-691.814
-734.555
-753.576
-750.288
-726.387
-683.079
-623.251
-552.429
-476.685
-401.19
-330.286
-266.293
-210.99
-167.01
-135.463
-114.961
-103.124
-97.066
-93.66
-91.354
-89.107
-85.025
-78.078
-68.4
-56.593
-44.176
-33.099
-24.153
-17.606
-13.944
-13.125
-14.903
-18.999
-24.47
-30.082
-35.12
-39.159
-41.927
-43.478
-43.784
-42.746
-40.488
-37.218
-33.11
-28.358
-23.074
-17.296
-11.121
-4.688
1.826
8.191
14.245
19.898
25.092
29.809
34.026
37.717
40.9
43.63
45.968
47.98
49.712
51.194
52.477
53.629
54.729
55.871
57.12
58.512
60.078
61.838
63.807
66.002
68.42
71.044
73.864
76.872
80.066
83.451
87.021
90.764
94.667
98.718
102.906
107.224
111.661
116.207
120.851
125.585
130.399
135.286
140.235
145.232
150.259
155.3
160.335
165.347
170.315
175.217
180.032
184.74
189.323
193.759
198.031
202.118
206.002
209.665
213.09
216.262
219.163
221.78
224.098
226.106
227.793
229.147
230.162
230.828
231.141
231.096
230.69
229.922
228.792
227.302
225.455
223.256
220.713
217.835
214.631
211.115
207.298
203.198
198.83
194.212
189.361
184.298
179.042
173.613
168.033
162.323
156.505
150.599
144.629
138.616
132.581
126.546
120.532
114.557
108.643
102.808
97.069
91.444
85.949
80.598
75.406
70.386
65.549
60.904
56.461
52.227
48.207
44.404
40.822
37.461
34.321
31.399
28.694
26.199
23.911
21.822
19.926
18.215
16.68
15.312
14.101
13.038
12.113
11.314
10.633
10.059
9.581
9.19
8.876
8.629
8.441
8.303
8.205
8.141
8.103
8.083
8.077
8.077
8.081
8.084
8.083
8.076
8.062
8.041
8.012
7.976
7.935
7.89
7.845
7.801
7.761
7.73
7.709
7.703
7.716
7.75
7.808
7.895
8.012
8.163
8.349
8.575
8.841
9.149
9.502
9.9
10.345
10.837
11.378
11.966
12.602
13.285
14.013
14.783
15.595
16.444
17.327
18.241
19.181
20.144
21.124
22.117
23.119
24.123
25.125
26.12
27.104
28.072
29.02
29.943
30.838
31.701
32.529
33.319
34.069
34.775
35.436
36.049
36.613
37.126
37.587
37.996
38.351
38.653
38.903
39.102
39.25
39.349
39.402
39.41
39.378
39.306
39.2
39.062
38.897
38.707
38.498
38.271
38.032
37.783
37.527
37.268
37.007
36.748
36.492
36.24
35.996
35.76
35.534
35.318
35.114
34.922
34.741
34.572
34.414
34.267
34.129
34
33.878
33.762
33.65
33.54
33.429
33.316
33.198
33.072
32.934
32.782
32.614
32.427
32.219
31.99
31.737
31.461
31.161
30.839
30.494
30.127
29.739
29.331
28.905
28.462
28.006
27.54
27.065
26.587
26.109
25.637
25.172
24.719
24.281
23.861
23.463
23.091
22.747
22.435
22.157
21.919
21.724
21.576
21.475
21.422
21.419
21.463
21.555
21.69
21.865
22.073
22.313
22.581
22.872
23.184
23.512
23.851
24.202
24.562
24.924
25.283
25.63
25.958
26.262
26.539
26.779
26.979
27.132
27.236
27.298
27.316
27.283
27.193
27.027
26.777
26.446
26.038
25.552
24.999
24.399
23.783
23.216
22.74
22.376
22.14
22.031
22.053
22.231
22.57
23.067
23.719
24.513
25.443
26.521
27.708
28.917
30.027
30.856
31.259
31.152
30.455
29.105
27.055
24.269
20.783
16.707
12.123
7.08
1.593
-4.317
-10.494
-16.667
-22.494
-27.56
-31.521
-34.012
-34.545
-32.831
-28.823
-22.728
-15.185
-6.882
1.834
10.491
18.466
25.803
32.95
40.947
51.743
66.724
86.347
111.222
141.822
177.163
215.136
251.941
282.07
301.175
306.167
293.72
260.766
205.927
129.89
36.464
-67.831
-177.181
-286.388
-389.648
-480.658
-553.367
-603.492
-629.911
-634.362
-618.92
-585.783
-537.671
-478.469
-413.689
-348.613
-287.02
-230.713
-180.565
-137.343
-102.063
-75.16
-55.207
-39.909
-26.907
-14.924
-3.797
6.588
16.849
27.86
39.647
51.311
61.359
68.835
73.723
76.308
76.833
75.228
71.518
66.262
60.489
55.111
50.626
47.236
44.926
43.77
43.923
45.388
48.019
51.596
55.891
60.744
66.071
71.76
77.662
83.597
89.341
94.711
99.598
103.923
107.655
110.781
113.277
115.15
116.445
117.224
117.564
117.531
117.174
116.548
115.724
114.782
113.819
112.912
112.105
111.434
110.921
110.585
110.444
110.505
110.757
111.192
111.805
112.594
113.563
114.712
116.032
117.51
119.135
120.896
122.788
124.8
126.925
129.15
131.466
133.865
136.339
138.876
141.46
144.076
146.703
149.324
151.919
154.469
156.953
159.349
161.639
163.803
165.823
167.681
169.359
170.839
172.104
173.139
173.928
174.457
174.712
174.681
174.353
173.719
172.771
171.501
169.904
167.977
165.716
163.122
160.197
156.941
153.361
149.461
145.249
140.736
135.931
130.847
125.497
119.896
114.061
108.008
101.754
95.32
88.722
81.982
75.12
68.157
61.113
54.011
46.871
39.717
32.569
25.45
18.38
11.381
4.472
-2.327
-8.996
-15.519
-21.879
-28.059
-34.045
-39.824
-45.383
-50.712
-55.8
-60.64
-65.225
-69.549
-73.608
-77.399
-80.921
-84.173
-87.158
-89.876
-92.331
-94.529
-96.475
-98.175
-99.639
-100.874
-101.892
-102.701
-103.315
-103.745
-104.002
-104.101
-104.053
-103.872
-103.57
-103.161
-102.658
-102.072
-101.416
-100.702
-99.941
-99.144
-98.321
-97.483
-96.639
-95.798
-94.967
-94.155
-93.368
-92.614
-91.897
-91.222
-90.594
-90.016
-89.49
-89.019
-88.603
-88.243
-87.938
-87.687
-87.488
-87.338
-87.235
-87.176
-87.157
-87.174
-87.223
-87.3
-87.402
-87.523
-87.66
-87.808
-87.964
-88.123
-88.282
-88.437
-88.584
-88.72
-88.841
-88.943
-89.024
-89.08
-89.109
-89.109
-89.076
-89.01
-88.908
-88.772
-88.599
-88.39
-88.146
-87.868
-87.558
-87.217
-86.848
-86.453
-86.036
-85.598
-85.143
-84.674
-84.194
-83.707
-83.214
-82.72
-82.226
-81.737
-81.254
-80.781
-80.32
-79.873
-79.444
-79.034
-78.647
-78.284
-77.948
-77.64
-77.362
-77.116
-76.902
-76.721
-76.572
-76.456
-76.371
-76.317
-76.29
-76.29
-76.314
-76.359
-76.422
-76.5
-76.591
-76.69
-76.796
-76.903
-77.011
-77.114
-77.211
-77.298
-77.374
-77.435
-77.479
-77.503
-77.507
-77.487
-77.442
-77.371
-77.272
-77.143
-76.984
-76.794
-76.573
-76.322
-76.04
-75.73
-75.392
-75.03
-74.646
-74.242
-73.823
-73.39
-72.946
-72.496
-72.043
-71.589
-71.139
-70.694
-70.259
-69.835
-69.426
-69.032
-68.656
-68.297
-67.957
-67.635
-67.331
-67.044
-66.771
-66.511
-66.264
-66.026
-65.796
-65.571
-65.346
-65.119
-64.885
-64.638
-64.373
-64.083
-63.761
-63.401
-62.998
-62.545
-62.038
-61.47
-60.835
-60.13
-59.35
-58.49
-57.547
-56.516
-55.395
-54.184
-52.883
-51.492
-50.016
-48.457
-46.821
-45.115
-43.347
-41.524
-39.651
-37.735
-35.782
-33.801
-31.796
-29.774
-27.741
-25.707
-23.683
-21.684
-19.721
-17.806
-15.947
-14.156
-12.441
-10.812
-9.272
-7.82
-6.46
-5.199
-4.051
-3.038
-2.166
-1.432
-0.831
-0.359
-0.001
0.261
0.464
0.667
0.912
1.22
1.595
2.03
2.53
3.112
3.801
4.612
5.534
6.553
7.663
8.868
10.143
11.421
12.568
13.415
13.835
13.748
13.119
11.919
10.109
7.657
4.549
0.847
-3.332
-7.905
-12.816
-18.018
-23.453
-28.929
-34.092
-38.564
-41.979
-44.01
-44.459
-43.025
-39.316
-33.243
-24.94
-14.869
-3.921
7.27
18.373
28.81
38.121
46.422
54.078
62.221
72.753
86.784
104.95
127.993
155.577
186.002
216.558
243.056
260.625
265.472
254.213
223.4
171.317
98.655
8.494
-93.848
-202.273
-311.118
-414.603
-505.93
-578.756
-629.16
-655.847
-659.441
-641.713
-604.69
-550.618
-483.987
-410.955
-336.381
-263.996
-197.055
-137.473
-87.043
-48.074
-20.618
-2.553
7.857
12.781
14.871
15.389
15.649
17.777
22.489
29.363
38.048
47.303
55.482
62.091
66.789
68.971
68.733
66.389
62.278
57.34
52.646
48.721
45.895
44.377
44.101
45.069
47.292
50.563
54.622
59.261
64.301
69.614
75.134
80.727
86.197
91.377
96.13
100.371
104.076
107.238
109.845
111.903
113.451
114.545
115.253
115.646
115.776
115.7
115.484
115.211
114.976
114.859
114.921
115.203
115.735
116.535
117.622
119.003
120.668
122.609
124.821
127.299
130.045
133.054
136.316
139.814
143.531
147.45
151.557
155.835
160.269
164.84
169.531
174.326
179.212
184.169
189.174
194.204
199.23
204.227
209.168
214.023
218.763
223.36
227.787
232.016
236.022
239.781
243.267
246.457
249.328
251.861
254.034
255.832
257.237
258.234
258.812
258.961
258.672
257.94
256.758
255.126
253.043
250.51
247.531
244.112
240.26
235.985
231.299
226.216
220.752
214.923
208.749
202.251
195.451
188.372
181.039
173.477
165.711
157.769
149.677
141.464
133.156
124.782
116.368
107.942
99.532
91.162
82.859
74.647
66.55
58.59
50.789
43.168
35.745
28.539
21.567
14.842
8.379
2.19
-3.715
-9.326
-14.638
-19.645
-24.342
-28.728
-32.803
-36.567
-40.023
-43.177
-46.033
-48.599
-50.883
-52.896
-54.648
-56.151
-57.417
-58.459
-59.292
-59.928
-60.383
-60.671
-60.807
-60.805
-60.679
-60.446
-60.117
-59.709
-59.233
-58.703
-58.132
-57.531
-56.912
-56.286
-55.662
-55.051
-54.46
-53.899
-53.372
-52.888
-52.45
-52.063
-51.731
-51.454
-51.234
-51.073
-50.969
-50.921
-50.928
-50.987
-51.095
-51.25
-51.447
-51.683
-51.952
-52.251
-52.576
-52.921
-53.283
-53.656
-54.038
-54.422
-54.807
-55.187
-55.559
-55.92
-56.267
-56.595
-56.903
-57.187
-57.447
-57.679
-57.883
-58.058
-58.204
-58.321
-58.41
-58.471
-58.507
-58.519
-58.51
-58.482
-58.438
-58.381
-58.315
-58.244
-58.17
-58.098
-58.031
-57.973
-57.926
-57.893
-57.877
-57.881
-57.906
-57.954
-58.028
-58.128
-58.256
-58.413
-58.6
-58.817
-59.064
-59.341
-59.646
-59.98
-60.339
-60.724
-61.131
-61.559
-62.004
-62.463
-62.934
-63.413
-63.896
-64.379
-64.858
-65.328
-65.787
-66.23
-66.653
-67.052
-67.426
-67.771
-68.084
-68.363
-68.607
-68.813
-68.981
-69.11
-69.198
-69.247
-69.255
-69.224
-69.156
-69.051
-68.912
-68.74
-68.539
-68.31
-68.056
-67.781
-67.488
-67.181
-66.863
-66.538
-66.211
-65.885
-65.565
-65.255
-64.958
-64.676
-64.414
-64.173
-63.955
-63.762
-63.596
-63.456
-63.344
-63.26
-63.203
-63.172
-63.165
-63.179
-63.211
-63.259
-63.316
-63.379
-63.441
-63.498
-63.545
-63.576
-63.586
-63.568
-63.515
-63.422
-63.282
-63.089
-62.834
-62.511
-62.114
-61.637
-61.077
-60.43
-59.692
-58.861
-57.935
-56.912
-55.793
-54.578
-53.267
-51.859
-50.358
-48.769
-47.097
-45.348
-43.53
-41.65
-39.72
-37.752
-35.757
-33.744
-31.722
-29.703
-27.696
-25.711
-23.756
-21.84
-19.971
-18.162
-16.426
-14.776
-13.221
-11.769
-10.429
-9.208
-8.116
-7.154
-6.321
-5.616
-5.04
-4.604
-4.321
-4.197
-4.23
-4.408
-4.724
-5.166
-5.716
-6.339
-6.981
-7.584
-8.111
-8.547
-8.887
-9.12
-9.225
-9.168
-8.93
-8.525
-7.968
-7.271
-6.437
-5.474
-4.439
-3.454
-2.677
-2.264
-2.325
-2.913
-4.084
-5.898
-8.405
-11.637
-15.538
-19.978
-24.862
-30.139
-35.777
-41.708
-47.715
-53.447
-58.514
-62.531
-65.203
-66.215
-65.112
-61.636
-55.789
-47.832
-38.474
-28.431
-18.021
-7.711
1.841
10.64
19.077
28.103
39.636
55.038
74.715
99.269
129.147
163.305
199.569
234.172
261.781
278.163
280.305
264.944
228.988
171.244
92.868
-2.202
-107.719
-218.014
-328.148
-432.209
-523.097
-594.601
-642.928
-666.829
-667.648
-647.058
-606.32
-548.446
-479.161
-404.858
-330.994
-262.014
-200.19
-147.226
-105.625
-76.343
-57.859
-47.584
-42.462
-39.339
-36.714
-33.622
-28.286
-19.818
-8.476
4.978
18.929
31.429
41.657
49.313
53.89
55.413
54.153
50.439
45.196
39.594
34.337
29.861
26.464
24.146
22.942
22.948
24.065
26.117
28.964
32.447
36.463
40.975
45.881
51.043
56.299
61.435
66.281
70.732
74.718
78.209
81.187
83.632
85.552
86.994
88.016
88.686
89.055
89.164
89.069
88.839
88.561
88.334
88.232
88.303
88.586
89.104
89.88
90.933
92.267
93.872
95.737
97.859
100.237
102.873
105.765
108.901
112.268
115.85
119.634
123.61
127.765
132.085
136.555
141.161
145.889
150.728
155.66
160.664
165.717
170.795
175.872
180.924
185.923
190.839
195.647
200.319
204.829
209.152
213.263
217.137
220.75
224.079
227.105
229.806
232.164
234.161
235.781
237.01
237.838
238.252
238.246
237.812
236.945
235.645
233.91
231.743
229.148
226.131
222.701
218.868
214.647
210.052
205.099
199.809
194.201
188.297
182.122
175.7
169.057
162.218
155.212
148.066
140.807
133.465
126.066
118.64
111.213
103.812
96.465
89.196
82.031
74.992
68.103
61.384
54.855
48.534
42.437
36.58
30.976
25.635
20.569
15.784
11.287
7.081
3.169
-0.449
-3.775
-6.812
-9.564
-12.039
-14.243
-16.187
-17.88
-19.335
-20.563
-21.578
-22.393
-23.023
-23.482
-23.784
-23.944
-23.977
-23.897
-23.717
-23.451
-23.112
-22.712
-22.263
-21.776
-21.26
-20.726
-20.183
-19.637
-19.097
-18.568
-18.056
-17.565
-17.099
-16.66
-16.251
-15.872
-15.524
-15.205
-14.916
-14.654
-14.418
-14.203
-14.009
-13.831
-13.666
-13.512
-13.366
-13.224
-13.084
-12.945
-12.803
-12.658
-12.508
-12.354
-12.194
-12.028
-11.858
-11.684
-11.507
-11.328
-11.15
-10.974
-10.802
-10.637
-10.481
-10.337
-10.208
-10.098
-10.009
-9.944
-9.908
-9.903
-9.933
-10.001
-10.11
-10.262
-10.461
-10.708
-11.006
-11.354
-11.755
-12.207
-12.712
-13.268
-13.874
-14.528
-15.228
-15.971
-16.755
-17.576
-18.432
-19.318
-20.231
-21.167
-22.122
-23.092
-24.073
-25.062
-26.054
-27.046
-28.032
-29.011
-29.977
-30.927
-31.857
-32.764
-33.646
-34.498
-35.318
-36.103
-36.852
-37.563
-38.234
-38.864
-39.453
-39.999
-40.505
-40.968
-41.392
-41.775
-42.12
-42.429
-42.701
-42.939
-43.146
-43.321
-43.468
-43.588
-43.682
-43.753
-43.803
-43.833
-43.846
-43.843
-43.827
-43.799
-43.763
-43.72
-43.672
-43.621
-43.57
-43.519
-43.472
-43.43
-43.395
-43.369
-43.352
-43.348
-43.357
-43.38
-43.418
-43.471
-43.541
-43.627
-43.73
-43.851
-43.988
-44.142
-44.313
-44.501
-44.704
-44.922
-45.154
-45.397
-45.648
-45.907
-46.168
-46.428
-46.685
-46.934
-47.171
-47.393
-47.596
-47.774
-47.923
-48.038
-48.114
-48.145
-48.126
-48.049
-47.91
-47.703
-47.423
-47.067
-46.63
-46.108
-45.498
-44.796
-44
-43.107
-42.116
-41.025
-39.833
-38.543
-37.156
-35.677
-34.11
-32.462
-30.743
-28.961
-27.124
-25.242
-23.323
-21.375
-19.409
-17.431
-15.448
-13.469
-11.504
-9.566
-7.671
-5.833
-4.065
-2.38
-0.791
0.69
2.051
3.288
4.399
5.381
6.229
6.929
7.463
7.82
8.002
8.016
7.871
7.581
7.165
6.657
6.109
5.57
5.071
4.624
4.222
3.866
3.564
3.336
3.21
3.186
3.252
3.393
3.603
3.869
4.15
4.366
4.376
4.053
3.315
2.114
0.441
-1.724
-4.404
-7.617
-11.36
-15.578
-20.189
-25.1
-30.247
-35.545
-40.875
-46.078
-50.866
-54.927
-58.006
-59.83
-60.154
-58.783
-55.433
-49.795
-41.855
-31.838
-20.211
-7.756
4.953
17.531
29.33
39.781
48.85
57.032
65.643
76.417
90.336
107.851
129.467
155.105
183.528
212.09
236.483
252.198
255.92
244.961
216.784
169.412
102.494
18.488
-77.641
-180.62
-285.834
-388.719
-484.139
-565.939
-628.687
-670.02
-689.835
-688.492
-666.567
-624.981
-566.149
-495.225
-418.315
-339.846
-263.383
-192.444
-130.07
-79.329
-42.004
-17.173
-2.429
4.336
5.477
3.657
0.986
-0.201
1.856
7.352
15.665
25.974
36.949
47.067
55.447
61.298
64.14
64.186
61.809
57.579
52.449
47.419
43.112
39.93
38.036
37.353
37.865
39.524
42.148
45.514
49.414
53.695
58.279
63.124
68.137
73.159
77.988
82.463
86.497
90.046
93.102
95.657
97.696
99.246
100.373
101.146
101.634
101.891
101.953
101.87
101.713
101.559
101.5
101.608
101.924
102.483
103.306
104.408
105.803
107.489
109.447
111.662
114.125
116.829
119.772
122.946
126.332
129.913
133.671
137.587
141.647
145.832
150.123
154.504
158.956
163.464
168.013
172.584
177.155
181.704
186.208
190.642
194.982
199.202
203.278
207.186
210.902
214.403
217.67
220.682
223.419
225.863
227.997
229.806
231.275
232.392
233.145
233.525
233.523
233.135
232.353
231.176
229.602
227.631
225.264
222.506
219.362
215.838
211.943
207.686
203.081
198.14
192.878
187.313
181.46
175.34
168.974
162.381
155.584
148.605
141.468
134.196
126.813
119.343
111.811
104.239
96.652
89.075
81.53
74.04
66.628
59.315
52.121
45.067
38.172
31.452
24.926
18.607
12.511
6.65
1.035
-4.324
-9.419
-14.243
-18.792
-23.061
-27.05
-30.759
-34.188
-37.34
-40.22
-42.833
-45.186
-47.288
-49.147
-50.774
-52.18
-53.376
-54.375
-55.19
-55.835
-56.323
-56.669
-56.886
-56.988
-56.99
-56.905
-56.747
-56.529
-56.264
-55.963
-55.64
-55.304
-54.966
-54.635
-54.319
-54.027
-53.764
-53.537
-53.351
-53.208
-53.113
-53.067
-53.071
-53.126
-53.231
-53.385
-53.586
-53.831
-54.118
-54.443
-54.802
-55.191
-55.605
-56.041
-56.493
-56.957
-57.428
-57.901
-58.372
-58.836
-59.29
-59.728
-60.147
-60.545
-60.917
-61.261
-61.576
-61.858
-62.108
-62.323
-62.504
-62.65
-62.763
-62.843
-62.892
-62.911
-62.903
-62.87
-62.815
-62.742
-62.653
-62.551
-62.441
-62.326
-62.209
-62.094
-61.984
-61.882
-61.792
-61.716
-61.658
-61.619
-61.604
-61.614
-61.651
-61.717
-61.815
-61.945
-62.109
-62.309
-62.545
-62.817
-63.126
-63.472
-63.854
-64.271
-64.723
-65.208
-65.724
-66.269
-66.842
-67.439
-68.059
-68.699
-69.355
-70.025
-70.707
-71.396
-72.092
-72.789
-73.487
-74.181
-74.869
-75.548
-76.216
-76.869
-77.505
-78.121
-78.715
-79.282
-79.822
-80.331
-80.806
-81.246
-81.646
-82.007
-82.325
-82.598
-82.826
-83.008
-83.143
-83.23
-83.27
-83.263
-83.209
-83.109
-82.964
-82.776
-82.545
-82.274
-81.965
-81.619
-81.241
-80.831
-80.393
-79.929
-79.441
-78.933
-78.407
-77.867
-77.315
-76.754
-76.188
-75.619
-75.053
-74.491
-73.938
-73.395
-72.865
-72.35
-71.851
-71.37
-70.906
-70.46
-70.031
-69.619
-69.223
-68.843
-68.476
-68.12
-67.771
-67.428
-67.085
-66.739
-66.384
-66.016
-65.629
-65.22
-64.785
-64.32
-63.821
-63.283
-62.703
-62.078
-61.404
-60.676
-59.892
-59.045
-58.137
-57.165
-56.13
-55.031
-53.871
-52.652
-51.38
-50.06
-48.695
-47.289
-45.848
-44.373
-42.871
-41.346
-39.8
-38.239
-36.67
-35.102
-33.545
-32.011
-30.507
-29.04
-27.619
-26.251
-24.942
-23.695
-22.508
-21.383
-20.325
-19.347
-18.469
-17.699
-17.035
-16.473
-16.011
-15.639
-15.337
-15.073
-14.79
-14.445
-14.019
-13.506
-12.912
-12.237
-11.464
-10.574
-9.559
-8.428
-7.192
-5.855
-4.41
-2.881
-1.334
0.099
1.248
1.978
2.207
1.89
0.986
-0.54
-2.723
-5.561
-8.968
-12.843
-17.115
-21.755
-26.762
-32.058
-37.42
-42.499
-46.896
-50.243
-52.268
-52.671
-51.021
-47.111
-40.991
-32.992
-23.902
-14.438
-4.908
4.246
12.427
19.688
26.501
33.923
43.958
58.058
76.691
100.478
129.829
163.639
199.601
233.783
260.742
276.104
276.767
259.52
221.465
161.612
81.379
-14.818
-120.392
-229.324
-336.352
-435.865
-521.312
-586.774
-628.84
-647.048
-643.231
-619.778
-578.711
-522.375
-455.614
-384.534
-314.098
-248.099
-188.572
-136.367
-93.073
-60.584
-38.356
-24.171
-15.612
-9.803
-5.189
-1.495
2.367
7.994
15.8
25.392
35.698
44.792
51.771
56.747
59.592
60.144
58.474
54.758
49.726
44.626
40.226
36.836
34.636
33.598
33.755
35.215
37.895
41.548
45.952
50.915
56.309
62.07
68.09
74.203
80.204
85.902
91.171
95.937
100.168
103.855
106.978
109.537
111.57
113.128
114.277
115.083
115.591
115.85
115.929
115.905
115.876
115.924
116.103
116.453
117
117.764
118.764
120.01
121.494
123.209
125.152
127.323
129.727
132.365
135.229
138.306
141.583
145.049
148.692
152.503
156.468
160.575
164.811
169.164
173.623
178.174
182.797
187.47
192.17
196.872
201.553
206.185
210.741
215.193
219.515
223.68
227.664
231.441
234.984
238.271
241.276
243.977
246.353
248.383
250.047
251.329
252.213
252.686
252.736
252.354
251.533
250.266
248.55
246.386
243.775
240.719
237.224
233.299
228.955
224.204
219.061
213.542
207.668
201.458
194.936
188.124
181.048
173.733
166.207
158.497
150.631
142.639
134.549
126.391
118.194
109.987
101.799
93.658
85.591
77.623
69.781
62.087
54.565
47.236
40.119
33.233
26.593
20.214
14.11
8.29
2.763
-2.464
-7.385
-11.998
-16.302
-20.297
-23.985
-27.37
-30.457
-33.254
-35.769
-38.01
-39.988
-41.715
-43.202
-44.464
-45.512
-46.362
-47.026
-47.521
-47.859
-48.054
-48.122
-48.075
-47.928
-47.692
-47.381
-47.006
-46.577
-46.106
-45.602
-45.073
-44.527
-43.972
-43.412
-42.854
-42.301
-41.758
-41.228
-40.712
-40.213
-39.731
-39.267
-38.821
-38.392
-37.98
-37.584
-37.202
-36.834
-36.479
-36.135
-35.8
-35.474
-35.156
-34.844
-34.538
-34.237
-33.941
-33.649
-33.362
-33.08
-32.805
-32.536
-32.274
-32.023
-31.783
-31.555
-31.344
-31.149
-30.975
-30.824
-30.697
-30.598
-30.53
-30.494
-30.492
-30.527
-30.601
-30.715
-30.869
-31.066
-31.305
-31.587
-31.911
-32.278
-32.685
-33.133
-33.62
-34.143
-34.703
-35.295
-35.918
-36.569
-37.245
-37.943
-38.661
-39.393
-40.138
-40.892
-41.65
-42.409
-43.165
-43.915
-44.655
-45.381
-46.091
-46.781
-47.447
-48.088
-48.7
-49.282
-49.833
-50.349
-50.831
-51.277
-51.688
-52.061
-52.398
-52.698
-52.962
-53.19
-53.382
-53.54
-53.663
-53.754
-53.814
-53.843
-53.844
-53.817
-53.765
-53.688
-53.588
-53.467
-53.327
-53.169
-52.994
-52.805
-52.602
-52.387
-52.163
-51.929
-51.687
-51.438
-51.182
-50.919
-50.651
-50.378
-50.099
-49.816
-49.529
-49.238
-48.945
-48.649
-48.351
-48.051
-47.749
-47.445
-47.139
-46.832
-46.523
-46.212
-45.899
-45.585
-45.27
-44.953
-44.635
-44.314
-43.99
-43.663
-43.33
-42.992
-42.647
-42.294
-41.931
-41.56
-41.179
-40.789
-40.387
-39.974
-39.548
-39.107
-38.65
-38.173
-37.675
-37.152
-36.603
-36.025
-35.42
-34.783
-34.115
-33.415
-32.68
-31.911
-31.106
-30.265
-29.385
-28.468
-27.514
-26.524
-25.503
-24.451
-23.375
-22.278
-21.167
-20.046
-18.918
-17.786
-16.653
-15.521
-14.391
-13.264
-12.142
-11.028
-9.928
-8.849
-7.8
-6.787
-5.816
-4.891
-4.019
-3.204
-2.447
-1.745
-1.095
-0.499
0.034
0.486
0.851
1.129
1.328
1.455
1.521
1.541
1.547
1.589
1.716
1.963
2.339
2.833
3.444
4.176
5.045
6.076
7.254
8.548
9.943
11.43
12.991
14.587
16.11
17.385
18.259
18.613
18.376
17.529
16.021
13.807
10.864
7.198
2.915
-1.858
-7.051
-12.633
-18.564
-24.735
-30.872
-36.558
-41.419
-45.108
-47.36
-47.899
-46.291
-42.315
-36.038
-27.795
-18.363
-8.453
1.639
11.477
20.417
28.45
35.935
43.782
53.908
67.674
85.478
107.917
135.388
166.852
200.18
231.654
256.033
269.156
268.053
249.587
210.929
150.999
71.005
-24.868
-130.328
-239.643
-347.717
-449.061
-537.172
-605.96
-651.757
-673.806
-673.588
-653.176
-614.356
-559.28
-492.74
-421
-349.244
-281.5
-220.023
-165.836
-120.689
-86.621
-63.126
-47.89
-38.351
-31.503
-25.746
-20.817
-15.64
-8.597
0.735
11.92
23.821
34.41
42.686
48.735
52.426
53.566
52.187
48.416
42.918
36.982
31.486
26.814
23.218
20.706
19.312
19.179
20.274
22.378
25.293
28.837
32.867
37.346
42.22
47.369
52.651
57.87
62.83
67.412
71.549
75.208
78.368
81.005
83.115
84.737
85.942
86.803
87.381
87.718
87.852
87.839
87.754
87.683
87.713
87.901
88.285
88.895
89.757
90.891
92.311
94.014
95.984
98.211
100.691
103.425
106.411
109.641
113.102
116.78
120.658
124.726
128.968
133.371
137.918
142.594
147.384
152.273
157.246
162.287
167.372
172.479
177.584
182.662
187.686
192.63
197.465
202.164
206.701
211.05
215.186
219.083
222.716
226.064
229.103
231.813
234.175
236.17
237.781
238.995
239.799
240.181
240.133
239.646
238.714
237.336
235.507
233.23
230.506
227.34
223.737
219.708
215.262
210.411
205.172
199.56
193.594
187.294
180.681
173.779
166.612
159.205
151.585
143.778
135.811
127.712
119.51
111.232
102.905
94.558
86.216
77.907
69.657
61.49
53.43
45.5
37.723
30.119
22.708
15.509
8.537
1.808
-4.664
-10.868
-16.793
-22.43
-27.774
-32.82
-37.563
-42.004
-46.143
-49.981
-53.522
-56.773
-59.738
-62.427
-64.848
-67.011
-68.928
-70.609
-72.066
-73.312
-74.36
-75.223
-75.914
-76.446
-76.833
-77.088
-77.224
-77.254
-77.19
-77.044
-76.829
-76.555
-76.234
-75.874
-75.486
-75.078
-74.658
-74.233
-73.809
-73.391
-72.984
-72.592
-72.216
-71.86
-71.524
-71.209
-70.915
-70.641
-70.386
-70.149
-69.928
-69.723
-69.53
-69.348
-69.175
-69.009
-68.847
-68.689
-68.531
-68.372
-68.211
-68.045
-67.873
-67.693
-67.505
-67.307
-67.099
-66.879
-66.646
-66.402
-66.146
-65.878
-65.599
-65.31
-65.013
-64.709
-64.4
-64.088
-63.776
-63.466
-63.161
-62.863
-62.574
-62.298
-62.035
-61.789
-61.561
-61.353
-61.166
-61.002
-60.862
-60.746
-60.655
-60.589
-60.55
-60.536
-60.548
-60.586
-60.65
-60.739
-60.852
-60.989
-61.149
-61.331
-61.533
-61.753
-61.991
-62.244
-62.51
-62.787
-63.072
-63.363
-63.657
-63.952
-64.245
-64.534
-64.816
-65.09
-65.353
-65.604
-65.841
-66.063
-66.269
-66.459
-66.633
-66.789
-66.929
-67.051
-67.158
-67.248
-67.323
-67.383
-67.43
-67.465
-67.489
-67.504
-67.512
-67.514
-67.512
-67.509
-67.506
-67.505
-67.51
-67.523
-67.546
-67.582
-67.634
-67.705
-67.797
-67.912
-68.053
-68.22
-68.414
-68.636
-68.887
-69.167
-69.475
-69.809
-70.17
-70.555
-70.964
-71.394
-71.841
-72.302
-72.773
-73.251
-73.73
-74.206
-74.672
-75.124
-75.556
-75.964
-76.341
-76.682
-76.98
-77.228
-77.421
-77.551
-77.612
-77.595
-77.494
-77.304
-77.018
-76.633
-76.145
-75.549
-74.844
-74.026
-73.095
-72.05
-70.89
-69.615
-68.225
-66.724
-65.116
-63.406
-61.599
-59.704
-57.727
-55.68
-53.573
-51.416
-49.218
-46.988
-44.735
-42.468
-40.196
-37.927
-35.668
-33.432
-31.231
-29.077
-26.985
-24.966
-23.029
-21.184
-19.44
-17.806
-16.285
-14.873
-13.574
-12.392
-11.337
-10.426
-9.667
-9.054
-8.582
-8.245
-8.029
-7.911
-7.854
-7.799
-7.7
-7.534
-7.288
-6.966
-6.565
-6.067
-5.452
-4.711
-3.849
-2.875
-1.791
-0.587
0.712
2.043
3.283
4.268
4.87
5.012
4.648
3.741
2.266
0.195
-2.462
-5.612
-9.158
-13.028
-17.186
-21.631
-26.274
-30.898
-35.174
-38.725
-41.206
-42.369
-41.926
-39.482
-34.862
-28.124
-19.596
-10.018
-0.035
10.073
19.911
28.943
37.169
44.959
53.199
63.621
77.489
95.163
117.087
143.563
173.573
205.082
234.806
258.061
270.851
270.37
253.651
218.016
162.968
90.063
2.993
-92.427
-190.446
-285.914
-372.791
-444.566
-496.888
-527.709
-537.053
-527.226
-501.125
-461.668
-413.298
-361.751
-311.347
-264.869
-223.96
-188.651
-158.625
-133.689
-112.541
-92.918
-73.418
-53.392
-32.693
-12.057
7.852
26.668
43.633
57.833
68.82
76.44
80.86
82.646
82.291
80.225
77
73.084
68.876
64.758
60.985
57.758
55.28
53.673
53.023
53.396
54.795
57.187
60.514
64.639
69.413
74.679
80.256
85.999
91.76
97.365
102.682
107.599
112.026
115.93
119.292
122.091
124.335
126.054
127.287
128.105
128.577
128.762
128.729
128.552
128.303
128.071
127.925
127.913
128.074
128.435
129.017
129.84
130.917
132.243
133.818
135.642
137.711
140.031
142.6
145.408
148.445
151.698
155.153
158.801
162.633
166.634
170.791
175.09
179.517
184.06
188.7
193.419
198.19
202.991
207.794
212.574
217.304
221.954
226.496
230.903
235.148
239.205
243.049
246.654
249.994
253.047
255.789
258.199
260.256
261.943
263.241
264.135
264.612
264.66
264.271
263.436
262.149
260.407
258.209
255.556
252.451
248.899
244.907
240.485
235.647
230.405
224.776
218.778
212.431
205.756
198.776
191.514
183.996
176.246
168.291
160.158
151.875
143.469
134.969
126.402
117.797
109.182
100.584
92.031
83.549
75.163
66.899
58.78
50.829
43.066
35.513
28.188
21.108
14.288
7.742
1.483
-4.479
-10.136
-15.481
-20.51
-25.218
-29.605
-33.671
-37.417
-40.847
-43.964
-46.776
-49.288
-51.509
-53.448
-55.116
-56.524
-57.683
-58.607
-59.309
-59.802
-60.102
-60.221
-60.176
-59.98
-59.648
-59.195
-58.636
-57.984
-57.254
-56.459
-55.613
-54.726
-53.812
-52.881
-51.944
-51.008
-50.084
-49.179
-48.3
-47.453
-46.643
-45.876
-45.155
-44.485
-43.867
-43.305
-42.798
-42.349
-41.958
-41.624
-41.346
-41.124
-40.956
-40.84
-40.775
-40.757
-40.784
-40.854
-40.961
-41.105
-41.279
-41.483
-41.71
-41.959
-42.226
-42.508
-42.802
-43.106
-43.417
-43.733
-44.052
-44.373
-44.693
-45.012
-45.328
-45.64
-45.948
-46.25
-46.546
-46.837
-47.121
-47.399
-47.671
-47.935
-48.194
-48.445
-48.691
-48.931
-49.165
-49.395
-49.621
-49.843
-50.062
-50.279
-50.496
-50.711
-50.926
-51.141
-51.356
-51.571
-51.786
-52
-52.213
-52.426
-52.635
-52.842
-53.045
-53.243
-53.436
-53.621
-53.799
-53.969
-54.129
-54.28
-54.42
-54.551
-54.67
-54.779
-54.877
-54.964
-55.041
-55.108
-55.165
-55.213
-55.254
-55.287
-55.313
-55.335
-55.353
-55.368
-55.383
-55.398
-55.416
-55.438
-55.468
-55.506
-55.557
-55.622
-55.704
-55.805
-55.928
-56.075
-56.247
-56.446
-56.674
-56.93
-57.216
-57.532
-57.877
-58.253
-58.657
-59.088
-59.544
-60.022
-60.52
-61.033
-61.558
-62.089
-62.621
-63.149
-63.669
-64.176
-64.663
-65.125
-65.555
-65.947
-66.296
-66.592
-66.83
-67.001
-67.098
-67.113
-67.042
-66.878
-66.617
-66.253
-65.781
-65.198
-64.502
-63.689
-62.756
-61.703
-60.529
-59.234
-57.822
-56.296
-54.662
-52.928
-51.101
-49.192
-47.21
-45.164
-43.063
-40.916
-38.732
-36.518
-34.282
-32.033
-29.78
-27.534
-25.311
-23.124
-20.987
-18.913
-16.913
-14.999
-13.184
-11.476
-9.878
-8.396
-7.034
-5.805
-4.733
-3.829
-3.093
-2.52
-2.101
-1.821
-1.667
-1.609
-1.595
-1.577
-1.508
-1.357
-1.135
-0.836
-0.445
0.053
0.697
1.492
2.387
3.353
4.37
5.401
6.422
7.342
7.99
8.221
7.904
6.942
5.318
2.997
-0.081
-3.937
-8.581
-13.95
-19.846
-26.128
-32.703
-39.459
-46.323
-53.075
-59.316
-64.676
-68.788
-71.307
-72.017
-70.594
-66.62
-59.999
-50.886
-39.757
-27.539
-14.919
-2.258
9.873
21.012
31.213
40.914
51.317
64.131
80.359
100.39
124.59
152.707
183.296
213.596
239.471
256.574
261.441
251.314
223.584
176.23
109.401
26.046
-68.784
-169.531
-270.764
-367.229
-453.077
-521.854
-569.412
-594.799
-599.134
-584.642
-554.146
-510.687
-458.67
-404.136
-351.573
-303.323
-260.545
-223.284
-191.26
-164.314
-141.267
-119.763
-98.342
-76.53
-54.382
-32.7
-12.177
6.853
23.737
37.595
48.005
54.875
58.423
59.274
57.983
55.002
50.875
46.076
41.013
36.099
31.641
27.835
24.86
22.819
21.763
21.747
22.767
24.77
27.671
31.325
35.575
40.278
45.27
50.409
55.543
60.486
65.09
69.253
72.903
76.013
78.579
80.587
82.053
83.026
83.564
83.741
83.628
83.277
82.752
82.127
81.477
80.893
80.445
80.177
80.128
80.324
80.784
81.528
82.562
83.876
85.462
87.315
89.432
91.811
94.45
97.333
100.446
103.771
107.294
110.999
114.872
118.895
123.05
127.319
131.687
136.138
140.654
145.213
149.791
154.364
158.907
163.394
167.8
172.098
176.262
180.267
184.09
187.707
191.096
194.236
197.103
199.681
201.949
203.891
205.491
206.736
207.612
208.11
208.22
207.937
207.256
206.173
204.688
202.802
200.517
197.839
194.773
191.328
187.513
183.341
178.824
173.978
168.818
163.362
157.629
151.639
145.413
138.971
132.337
125.533
118.582
111.508
104.334
97.084
89.783
82.454
75.12
67.806
60.534
53.325
46.202
39.185
32.292
25.543
18.956
12.546
6.329
0.319
-5.473
-11.033
-16.354
-21.425
-26.24
-30.793
-35.08
-39.097
-42.843
-46.316
-49.518
-52.451
-55.116
-57.518
-59.662
-61.554
-63.201
-64.61
-65.79
-66.749
-67.499
-68.049
-68.41
-68.593
-68.61
-68.471
-68.19
-67.778
-67.247
-66.608
-65.873
-65.053
-64.161
-63.205
-62.197
-61.148
-60.065
-58.959
-57.839
-56.712
-55.588
-54.472
-53.373
-52.297
-51.249
-50.237
-49.264
-48.335
-47.455
-46.627
-45.854
-45.139
-44.483
-43.888
-43.356
-42.886
-42.479
-42.134
-41.851
-41.629
-41.466
-41.36
-41.309
-41.311
-41.365
-41.466
-41.612
-41.801
-42.03
-42.295
-42.594
-42.923
-43.278
-43.657
-44.055
-44.47
-44.896
-45.332
-45.772
-46.214
-46.653
-47.088
-47.513
-47.926
-48.325
-48.706
-49.067
-49.406
-49.721
-50.011
-50.274
-50.509
-50.716
-50.894
-51.042
-51.161
-51.251
-51.312
-51.343
-51.347
-51.323
-51.272
-51.195
-51.093
-50.967
-50.819
-50.649
-50.459
-50.252
-50.028
-49.789
-49.538
-49.276
-49.006
-48.729
-48.448
-48.165
-47.882
-47.601
-47.323
-47.05
-46.784
-46.526
-46.278
-46.04
-45.814
-45.601
-45.403
-45.219
-45.052
-44.902
-44.771
-44.659
-44.567
-44.497
-44.449
-44.426
-44.428
-44.457
-44.514
-44.601
-44.718
-44.867
-45.048
-45.262
-45.507
-45.785
-46.095
-46.436
-46.808
-47.209
-47.64
-48.097
-48.581
-49.089
-49.618
-50.166
-50.73
-51.307
-51.892
-52.483
-53.074
-53.662
-54.243
-54.812
-55.365
-55.896
-56.398
-56.867
-57.294
-57.674
-57.997
-58.257
-58.447
-58.561
-58.593
-58.537
-58.39
-58.147
-57.803
-57.356
-56.804
-56.143
-55.373
-54.492
-53.501
-52.402
-51.197
-49.892
-48.49
-46.997
-45.421
-43.77
-42.052
-40.275
-38.445
-36.571
-34.659
-32.719
-30.758
-28.784
-26.809
-24.842
-22.898
-20.99
-19.131
-17.333
-15.605
-13.955
-12.39
-10.916
-9.538
-8.254
-7.068
-5.987
-5.021
-4.186
-3.49
-2.932
-2.506
-2.204
-2.002
-1.875
-1.787
-1.698
-1.576
-1.407
-1.181
-0.906
-0.579
-0.19
0.275
0.839
1.525
2.348
3.309
4.404
5.585
6.756
7.815
8.627
9.088
9.135
8.721
7.821
6.433
4.566
2.261
-0.437
-3.507
-6.945
-10.748
-14.873
-19.15
-23.3
-27.014
-29.928
-31.741
-32.135
-30.682
-27.184
-21.703
-14.544
-6.389
2.125
10.725
18.98
26.276
32.662
38.604
45.162
54.352
67.59
85.322
108.185
136.677
169.833
205.561
240.08
267.902
284.632
287.156
272.191
236.762
179.688
101.918
7.462
-97.063
-205.636
-312.901
-413.027
-499.712
-567.198
-611.609
-632.099
-630.712
-609.869
-572.028
-520.181
-458.414
-392.077
-326.233
-264.52
-208.504
-158.892
-116.341
-81.635
-55.098
-35.414
-20.4
-7.824
3.497
13.74
23.036
31.99
41.508
51.703
61.763
70.303
76.422
80.119
81.689
81.347
79.014
74.707
68.986
62.889
57.307
52.703
49.255
46.928
45.787
45.978
47.485
50.134
53.703
57.969
62.783
68.082
73.759
79.663
85.611
91.37
96.77
101.715
106.137
110.013
113.333
116.08
118.274
119.976
121.253
122.176
122.812
123.203
123.408
123.499
123.559
123.685
123.952
124.402
125.071
125.983
127.154
128.599
130.32
132.301
134.533
137.007
139.72
142.673
145.86
149.268
152.881
156.684
160.662
164.801
169.089
173.509
178.045
182.681
187.404
192.199
197.049
201.931
206.825
211.703
216.543
221.319
226.006
230.575
235.002
239.262
243.33
247.184
250.8
254.155
257.229
260.002
262.453
264.566
266.324
267.711
268.714
269.322
269.525
269.314
268.683
267.628
266.145
264.234
261.897
259.137
255.96
252.372
248.384
244.005
239.251
234.135
228.674
222.887
216.792
210.412
203.768
196.883
189.782
182.489
175.029
167.429
159.715
151.912
144.048
136.15
128.242
120.352
112.505
104.725
97.036
89.462
82.024
74.744
67.641
60.733
54.039
47.572
41.348
35.38
29.677
24.249
19.104
14.248
9.684
5.416
1.443
-2.234
-5.618
-8.712
-11.523
-14.057
-16.321
-18.325
-20.079
-21.594
-22.883
-23.957
-24.831
-25.517
-26.029
-26.383
-26.591
-26.668
-26.629
-26.486
-26.254
-25.947
-25.576
-25.155
-24.696
-24.209
-23.705
-23.195
-22.687
-22.191
-21.713
-21.261
-20.842
-20.46
-20.12
-19.826
-19.581
-19.387
-19.245
-19.156
-19.12
-19.135
-19.202
-19.318
-19.481
-19.69
-19.941
-20.233
-20.562
-20.926
-21.322
-21.747
-22.198
-22.673
-23.169
-23.682
-24.212
-24.755
-25.308
-25.87
-26.438
-27.01
-27.585
-28.161
-28.736
-29.308
-29.877
-30.442
-31.001
-31.555
-32.103
-32.646
-33.185
-33.718
-34.248
-34.775
-35.299
-35.822
-36.344
-36.866
-37.387
-37.909
-38.431
-38.955
-39.478
-40.003
-40.528
-41.053
-41.579
-42.104
-42.628
-43.151
-43.672
-44.191
-44.707
-45.221
-45.731
-46.237
-46.739
-47.236
-47.728
-48.212
-48.689
-49.157
-49.614
-50.06
-50.492
-50.91
-51.311
-51.695
-52.06
-52.404
-52.728
-53.03
-53.309
-53.565
-53.798
-54.007
-54.193
-54.356
-54.497
-54.617
-54.716
-54.795
-54.855
-54.898
-54.924
-54.935
-54.931
-54.915
-54.888
-54.851
-54.806
-54.756
-54.704
-54.65
-54.598
-54.549
-54.507
-54.474
-54.453
-54.446
-54.455
-54.484
-54.534
-54.608
-54.707
-54.832
-54.984
-55.164
-55.37
-55.603
-55.862
-56.143
-56.447
-56.771
-57.114
-57.473
-57.846
-58.23
-58.621
-59.016
-59.411
-59.803
-60.185
-60.553
-60.903
-61.229
-61.529
-61.797
-62.03
-62.222
-62.369
-62.467
-62.514
-62.503
-62.431
-62.295
-62.092
-61.823
-61.486
-61.082
-60.615
-60.087
-59.504
-58.869
-58.188
-57.464
-56.701
-55.902
-55.072
-54.213
-53.329
-52.424
-51.505
-50.581
-49.661
-48.755
-47.87
-47.014
-46.193
-45.418
-44.693
-44.02
-43.401
-42.84
-42.348
-41.946
-41.646
-41.45
-41.357
-41.359
-41.447
-41.614
-41.832
-42.058
-42.251
-42.364
-42.375
-42.295
-42.118
-41.835
-41.43
-40.866
-40.148
-39.318
-38.399
-37.411
-36.384
-35.344
-34.387
-33.685
-33.382
-33.618
-34.488
-36.014
-38.248
-41.255
-45.064
-49.692
-55.059
-60.996
-67.399
-74.211
-81.358
-88.739
-96.085
-102.974
-109.022
-113.858
-117.181
-118.707
-117.987
-114.762
-109.069
-101.201
-91.884
-81.877
-71.527
-61.308
-51.926
-43.4
-35.349
-26.853
-15.975
-1.318
17.545
41.287
70.414
103.908
139.595
173.625
200.567
216.134
217.247
200.596
163.143
103.653
23.292
-73.626
-180.54
-291.471
-401.104
-503.705
-592.525
-661.273
-706.186
-726.585
-724.182
-701.328
-660.075
-602.82
-534.535
-461.59
-389.211
-321.39
-260.288
-206.798
-162.513
-129.331
-106.682
-92.259
-83.554
-77.614
-72.837
-68.952
-64.882
-59.043
-51.027
-41.248
-30.788
-21.586
-14.553
-9.563
-6.732
-6.206
-7.905
-11.649
-16.708
-21.829
-26.238
-29.622
-31.797
-32.792
-32.577
-31.041
-28.273
-24.523
-20.018
-14.956
-9.471
-3.629
2.463
8.638
14.699
20.458
25.792
30.631
34.945
38.727
41.963
44.652
46.833
48.563
49.907
50.935
51.695
52.238
52.633
52.956
53.304
53.759
54.372
55.182
56.213
57.482
59.008
60.798
62.843
65.134
67.667
70.438
73.449
76.698
80.176
83.867
87.755
91.825
96.066
100.464
105.005
109.674
114.455
119.337
124.306
129.347
134.439
139.56
144.687
149.794
154.857
159.852
164.749
169.524
174.15
178.603
182.859
186.896
190.688
194.214
197.452
200.382
202.987
205.247
207.147
208.673
209.812
210.555
210.892
210.817
210.324
209.41
208.075
206.319
204.146
201.559
198.565
195.173
191.393
187.24
182.726
177.868
172.684
167.193
161.417
155.377
149.095
142.597
135.906
129.047
122.046
114.929
107.721
100.449
93.139
85.814
78.501
71.224
64.006
56.87
49.837
42.929
36.164
29.561
23.138
16.91
10.892
5.097
-0.464
-5.781
-10.844
-15.649
-20.189
-24.46
-28.462
-32.193
-35.655
-38.85
-41.782
-44.456
-46.88
-49.061
-51.007
-52.728
-54.234
-55.535
-56.644
-57.572
-58.33
-58.931
-59.386
-59.708
-59.907
-59.997
-59.989
-59.892
-59.72
-59.481
-59.186
-58.844
-58.464
-58.054
-57.622
-57.175
-56.72
-56.261
-55.804
-55.354
-54.912
-54.483
-54.068
-53.668
-53.284
-52.915
-52.562
-52.222
-51.895
-51.579
-51.272
-50.972
-50.676
-50.382
-50.088
-49.792
-49.491
-49.183
-48.866
-48.539
-48.199
-47.846
-47.477
-47.091
-46.687
-46.265
-45.824
-45.363
-44.881
-44.38
-43.859
-43.319
-42.76
-42.184
-41.593
-40.987
-40.37
-39.743
-39.11
-38.473
-37.835
-37.2
-36.571
-35.95
-35.342
-34.749
-34.174
-33.62
-33.091
-32.588
-32.114
-31.672
-31.263
-30.889
-30.553
-30.256
-30
-29.786
-29.615
-29.488
-29.407
-29.371
-29.382
-29.439
-29.542
-29.691
-29.886
-30.125
-30.406
-30.729
-31.091
-31.491
-31.925
-32.39
-32.885
-33.405
-33.949
-34.512
-35.091
-35.684
-36.288
-36.899
-37.515
-38.133
-38.75
-39.363
-39.969
-40.565
-41.149
-41.719
-42.271
-42.804
-43.316
-43.804
-44.267
-44.704
-45.114
-45.495
-45.847
-46.17
-46.463
-46.727
-46.962
-47.17
-47.352
-47.509
-47.644
-47.758
-47.854
-47.933
-47.998
-48.051
-48.092
-48.125
-48.15
-48.169
-48.184
-48.196
-48.207
-48.218
-48.232
-48.249
-48.27
-48.294
-48.323
-48.356
-48.392
-48.431
-48.469
-48.506
-48.541
-48.571
-48.594
-48.606
-48.606
-48.587
-48.547
-48.481
-48.385
-48.251
-48.075
-47.853
-47.579
-47.25
-46.864
-46.416
-45.902
-45.321
-44.67
-43.948
-43.151
-42.277
-41.325
-40.294
-39.185
-38.001
-36.742
-35.413
-34.018
-32.563
-31.055
-29.5
-27.904
-26.271
-24.609
-22.922
-21.219
-19.502
-17.778
-16.054
-14.339
-12.646
-10.985
-9.364
-7.792
-6.276
-4.825
-3.449
-2.151
-0.93
0.213
1.273
2.239
3.092
3.824
4.437
4.936
5.327
5.616
5.82
5.97
6.115
6.308
6.583
6.951
7.409
7.966
8.635
9.444
10.41
11.515
12.739
14.069
15.497
17.012
18.558
20.014
21.215
22.005
22.269
21.95
21.006
19.379
17.026
13.923
10.123
5.752
0.916
-4.329
-9.962
-15.916
-21.99
-27.844
-33.056
-37.224
-40.041
-41.176
-40.198
-36.86
-31.166
-23.394
-14.261
-4.48
5.618
15.588
24.855
33.497
41.984
51.337
63.458
79.664
100.285
125.788
156.463
191.13
227.53
261.83
288.661
303.864
304.61
287.954
251.288
193.758
116.54
23.7
-78.285
-183.698
-287.542
-384.408
-468.485
-534.418
-578.635
-600.407
-601.618
-584.432
-551.006
-503.951
-446.957
-385.025
-322.914
-264.118
-210.256
-162.118
-120.488
-86.316
-60.038
-40.462
-25.496
-12.899
-1.481
8.949
18.564
27.987
38.133
49.14
60.187
69.844
77.187
82.18
85.079
86.091
85.091
82.051
77.483
72.38
67.627
63.701
60.781
58.841
57.946
58.246
59.744
62.294
65.679
69.682
74.156
79.04
84.244
89.64
95.062
100.299
105.182
109.612
113.523
116.891
119.705
121.949
123.633
124.809
125.542
125.907
125.97
125.778
125.386
124.863
124.291
123.768
123.372
123.15
123.143
123.376
123.871
124.649
125.718
127.069
128.693
130.588
132.749
135.181
137.88
140.836
144.035
147.461
151.099
154.939
158.965
163.163
167.515
172.005
176.616
181.335
186.141
191.012
195.923
200.848
205.759
210.63
215.431
220.132
224.706
229.122
233.355
237.377
241.164
244.688
247.928
250.859
253.461
255.716
257.603
259.108
260.216
260.914
261.193
261.044
260.461
259.441
257.981
256.082
253.748
250.983
247.794
244.192
240.186
235.791
231.022
225.897
220.434
214.655
208.581
202.236
195.645
188.834
181.829
174.657
167.345
159.92
152.41
144.843
137.245
129.644
122.065
114.535
107.079
99.721
92.483
85.387
78.455
71.704
65.153
58.817
52.712
46.849
41.24
35.894
30.819
26.021
21.504
17.272
13.325
9.662
6.282
3.182
0.355
-2.204
-4.503
-6.55
-8.356
-9.93
-11.284
-12.431
-13.381
-14.149
-14.748
-15.192
-15.494
-15.668
-15.729
-15.689
-15.562
-15.36
-15.097
-14.784
-14.431
-14.05
-13.65
-13.24
-12.829
-12.425
-12.034
-11.663
-11.318
-11.003
-10.722
-10.48
-10.278
-10.118
-10.003
-9.932
-9.906
-9.924
-9.987
-10.092
-10.238
-10.424
-10.646
-10.903
-11.191
-11.507
-11.849
-12.212
-12.594
-12.993
-13.404
-13.827
-14.257
-14.693
-15.134
-15.577
-16.02
-16.462
-16.901
-17.337
-17.769
-18.194
-18.614
-19.027
-19.433
-19.832
-20.224
-20.61
-20.989
-21.362
-21.73
-22.092
-22.451
-22.807
-23.16
-23.513
-23.866
-24.221
-24.578
-24.94
-25.307
-25.68
-26.059
-26.446
-26.841
-27.243
-27.654
-28.073
-28.5
-28.936
-29.38
-29.831
-30.291
-30.758
-31.232
-31.712
-32.198
-32.689
-33.185
-33.685
-34.189
-34.694
-35.201
-35.708
-36.214
-36.718
-37.219
-37.714
-38.202
-38.683
-39.153
-39.612
-40.059
-40.492
-40.91
-41.312
-41.698
-42.067
-42.417
-42.748
-43.06
-43.353
-43.625
-43.877
-44.109
-44.32
-44.511
-44.682
-44.833
-44.964
-45.076
-45.169
-45.243
-45.301
-45.342
-45.368
-45.38
-45.381
-45.372
-45.356
-45.334
-45.309
-45.281
-45.255
-45.23
-45.21
-45.195
-45.187
-45.187
-45.197
-45.219
-45.252
-45.299
-45.358
-45.431
-45.516
-45.613
-45.72
-45.837
-45.962
-46.092
-46.228
-46.366
-46.505
-46.643
-46.775
-46.899
-47.011
-47.106
-47.18
-47.227
-47.242
-47.219
-47.155
-47.044
-46.883
-46.666
-46.39
-46.051
-45.645
-45.169
-44.619
-43.993
-43.288
-42.503
-41.638
-40.694
-39.674
-38.581
-37.42
-36.195
-34.912
-33.575
-32.19
-30.761
-29.293
-27.789
-26.254
-24.692
-23.11
-21.517
-19.923
-18.339
-16.776
-15.244
-13.752
-12.308
-10.925
-9.607
-8.356
-7.175
-6.07
-5.054
-4.148
-3.363
-2.7
-2.157
-1.727
-1.398
-1.163
-0.996
-0.85
-0.687
-0.468
-0.174
0.182
0.599
1.093
1.678
2.392
3.239
4.176
5.18
6.238
7.321
8.402
9.396
10.14
10.49
10.334
9.587
8.236
6.25
3.56
0.134
-4.053
-8.955
-14.407
-20.296
-26.558
-33.103
-39.862
-46.625
-52.987
-58.573
-63.047
-66.076
-67.488
-66.998
-64.123
-58.714
-50.883
-41.032
-30.104
-18.835
-7.48
3.441
13.264
21.991
29.847
37.816
48.149
62.38
81.105
105.073
134.368
167.485
202.101
234.395
258.623
270.051
265.063
239.783
191.758
121.282
30.581
-75.811
-190.801
-307.702
-420.358
-521.253
-603.374
-662.412
-696.097
-704.166
-688.972
-653.125
-599.109
-531.956
-458.076
-382.46
-309.364
-242.464
-183.437
-133.844
-95.839
-69.192
-51.714
-41.615
-36.571
-33.879
-32.365
-30.8
-27.13
-20.758
-12.175
-1.798
9.036
18.613
26.408
32.039
34.848
34.937
32.622
28.222
22.743
17.334
12.579
8.884
6.508
5.394
5.581
7.114
9.808
13.429
17.783
22.685
28.042
33.796
39.827
45.965
52.001
57.738
63.054
67.878
72.17
75.914
79.086
81.689
83.769
85.386
86.607
87.491
88.076
88.41
88.562
88.612
88.657
88.775
89.016
89.419
90.012
90.813
91.842
93.104
94.591
96.292
98.204
100.326
102.664
105.216
107.974
110.927
114.063
117.371
120.843
124.471
128.243
132.149
136.178
140.321
144.568
148.908
153.324
157.797
162.306
166.83
171.347
175.833
180.264
184.614
188.859
192.975
196.94
200.728
204.317
207.684
210.806
213.663
216.234
218.499
220.441
222.043
223.289
224.167
224.665
224.772
224.479
223.78
222.67
221.147
219.209
216.857
214.095
210.927
207.359
203.403
199.067
194.366
189.312
183.923
178.218
172.215
165.935
159.4
152.633
145.658
138.5
131.185
123.737
116.183
108.55
100.863
93.151
85.437
77.749
70.111
62.547
55.081
47.734
40.53
33.486
26.623
19.957
13.506
7.283
1.303
-4.423
-9.884
-15.072
-19.98
-24.602
-28.935
-32.976
-36.726
-40.184
-43.355
-46.241
-48.848
-51.183
-53.254
-55.07
-56.641
-57.978
-59.093
-59.998
-60.707
-61.231
-61.586
-61.785
-61.841
-61.769
-61.58
-61.289
-60.909
-60.452
-59.93
-59.355
-58.739
-58.092
-57.424
-56.745
-56.064
-55.39
-54.729
-54.089
-53.475
-52.893
-52.348
-51.842
-51.38
-50.963
-50.592
-50.27
-49.995
-49.768
-49.587
-49.451
-49.357
-49.305
-49.29
-49.311
-49.364
-49.448
-49.559
-49.694
-49.851
-50.026
-50.218
-50.423
-50.639
-50.865
-51.097
-51.333
-51.572
-51.813
-52.054
-52.293
-52.53
-52.764
-52.994
-53.221
-53.444
-53.664
-53.882
-54.097
-54.312
-54.527
-54.744
-54.965
-55.192
-55.427
-55.671
-55.927
-56.196
-56.48
-56.782
-57.102
-57.443
-57.805
-58.19
-58.6
-59.034
-59.495
-59.981
-60.495
-61.036
-61.603
-62.197
-62.817
-63.463
-64.134
-64.829
-65.546
-66.285
-67.045
-67.823
-68.618
-69.428
-70.251
-71.085
-71.928
-72.777
-73.631
-74.486
-75.341
-76.194
-77.042
-77.883
-78.715
-79.536
-80.343
-81.135
-81.909
-82.665
-83.401
-84.115
-84.807
-85.477
-86.123
-86.746
-87.345
-87.921
-88.473
-89.001
-89.507
-89.991
-90.453
-90.895
-91.317
-91.72
-92.106
-92.476
-92.831
-93.171
-93.496
-93.809
-94.108
-94.396
-94.672
-94.938
-95.194
-95.442
-95.681
-95.913
-96.137
-96.354
-96.562
-96.76
-96.948
-97.123
-97.283
-97.426
-97.549
-97.651
-97.729
-97.78
-97.801
-97.788
-97.739
-97.648
-97.513
-97.33
-97.092
-96.798
-96.443
-96.026
-95.545
-94.996
-94.378
-93.688
-92.926
-92.09
-91.178
-90.188
-89.118
-87.97
-86.743
-85.44
-84.063
-82.617
-81.105
-79.536
-77.916
-76.252
-74.549
-72.815
-71.054
-69.272
-67.477
-65.673
-63.864
-62.056
-60.261
-58.487
-56.746
-55.047
-53.396
-51.802
-50.274
-48.822
-47.448
-46.154
-44.94
-43.812
-42.783
-41.871
-41.086
-40.43
-39.899
-39.487
-39.192
-38.998
-38.874
-38.771
-38.635
-38.43
-38.147
-37.787
-37.343
-36.803
-36.143
-35.35
-34.443
-33.448
-32.374
-31.226
-30.013
-28.789
-27.671
-26.823
-26.403
-26.524
-27.251
-28.63
-30.721
-33.567
-37.177
-41.487
-46.364
-51.688
-57.411
-63.523
-69.957
-76.519
-82.888
-88.654
-93.427
-96.904
-98.722
-98.417
-95.721
-90.622
-83.42
-74.858
-65.667
-56.214
-46.948
-38.441
-30.655
-23.088
-14.633
-3.288
12.48
33.21
59.456
91.622
128.566
167.912
205.842
236.891
256.368
260.951
247.116
211.599
153.633
74.804
-20.843
-126.665
-236.096
-343.311
-441.389
-522.883
-582.765
-618.56
-630.221
-620.423
-592.498
-549.792
-497.358
-441.567
-387.23
-337.477
-294.033
-256.814
-225.341
-199.207
-176.851
-155.79
-134.46
-112.153
-88.803
-65.251
-42.295
-20.454
-0.607
16.184
29.362
38.743
44.454
47.049
47.037
44.841
41.01
36.104
30.571
24.833
19.264
14.136
9.714
6.221
3.779
2.47
2.34
3.374
5.522
8.688
12.724
17.476
22.797
28.528
34.517
40.596
46.565
52.257
57.553
62.37
66.667
70.424
73.622
76.273
78.425
80.14
81.489
82.536
83.333
83.941
84.432
84.882
85.382
86
86.781
87.762
88.969
90.422
92.138
94.121
96.361
98.848
101.576
104.542
107.747
111.188
114.852
118.727
122.799
127.055
131.488
136.085
140.832
145.718
150.728
155.852
161.079
166.394
171.777
177.208
182.665
188.124
193.562
198.953
204.269
209.485
214.574
219.512
224.272
228.831
233.162
237.242
241.048
244.558
247.75
250.604
253.102
255.227
256.962
258.294
259.212
259.704
259.762
259.379
258.55
257.272
255.544
253.368
250.746
247.684
244.19
240.274
235.946
231.223
226.12
220.654
214.847
208.721
202.299
195.605
188.665
181.506
174.156
166.643
158.997
151.246
143.42
135.547
127.658
119.781
111.944
104.174
96.497
88.94
81.528
74.283
67.227
60.382
53.767
47.4
41.298
35.474
29.943
24.714
19.797
15.199
10.926
6.979
3.361
0.07
-2.896
-5.542
-7.874
-9.901
-11.631
-13.076
-14.247
-15.158
-15.822
-16.254
-16.469
-16.483
-16.311
-15.969
-15.473
-14.84
-14.084
-13.222
-12.269
-11.24
-10.15
-9.012
-7.84
-6.648
-5.446
-4.248
-3.064
-1.904
-0.777
0.309
1.347
2.329
3.252
4.11
4.902
5.623
6.273
6.852
7.359
7.795
8.161
8.46
8.692
8.862
8.97
9.021
9.016
8.96
8.855
8.704
8.51
8.277
8.007
7.702
7.367
7.004
6.615
6.204
5.773
5.325
4.862
4.388
3.904
3.412
2.915
2.415
1.912
1.408
0.904
0.402
-0.097
-0.594
-1.087
-1.575
-2.058
-2.535
-3.006
-3.468
-3.923
-4.368
-4.802
-5.225
-5.635
-6.03
-6.41
-6.772
-7.116
-7.439
-7.741
-8.02
-8.275
-8.505
-8.71
-8.889
-9.042
-9.169
-9.269
-9.344
-9.394
-9.419
-9.421
-9.4
-9.357
-9.296
-9.217
-9.122
-9.014
-8.895
-8.769
-8.637
-8.504
-8.371
-8.243
-8.123
-8.014
-7.921
-7.847
-7.795
-7.77
-7.777
-7.818
-7.897
-8.018
-8.182
-8.393
-8.652
-8.96
-9.319
-9.729
-10.191
-10.702
-11.264
-11.875
-12.532
-13.233
-13.974
-14.751
-15.56
-16.395
-17.25
-18.12
-18.996
-19.874
-20.745
-21.604
-22.443
-23.254
-24.03
-24.764
-25.446
-26.069
-26.625
-27.104
-27.5
-27.806
-28.017
-28.126
-28.131
-28.026
-27.808
-27.477
-27.029
-26.465
-25.783
-24.985
-24.071
-23.046
-21.916
-20.684
-19.36
-17.951
-16.467
-14.921
-13.324
-11.687
-10.02
-8.334
-6.639
-4.947
-3.266
-1.604
0.027
1.616
3.149
4.614
5.996
7.288
8.478
9.558
10.52
11.359
12.073
12.666
13.135
13.474
13.676
13.725
13.62
13.365
12.964
12.425
11.77
11.024
10.234
9.457
8.727
8.066
7.49
6.997
6.599
6.316
6.152
6.114
6.208
6.428
6.783
7.272
7.849
8.424
8.87
9.031
8.8
8.113
6.9
5.132
2.784
-0.167
-3.654
-7.574
-11.867
-16.462
-21.318
-26.424
-31.626
-36.647
-41.184
-44.846
-47.284
-48.274
-47.469
-44.51
-39.314
-32.001
-23.045
-13.287
-3.308
6.551
15.761
23.932
31.158
37.935
45.537
55.619
69.138
86.546
108.267
134.173
162.942
191.82
216.681
233.22
238.01
228.345
201.615
155.631
90.301
8.468
-84.829
-184.07
-284
-379.84
-466.17
-536.516
-586.187
-613.588
-619.591
-606.211
-575.781
-530.32
-473.044
-409.69
-345.748
-285.231
-230.341
-181.841
-140.321
-107.005
-82.566
-65.489
-53.375
-43.7
-34.948
-26.939
-19.571
-12.147
-3.69
5.899
15.775
24.485
31.036
35.399
37.855
38.615
37.564
34.684
30.488
25.895
21.742
18.465
16.191
14.888
14.61
15.467
17.442
20.374
24.035
28.221
32.8
37.683
42.776
47.937
52.987
57.765
62.146
66.046
69.427
72.27
74.566
76.323
77.571
78.352
78.732
78.779
78.547
78.098
77.495
76.81
76.135
75.548
75.106
74.853
74.819
75.023
75.485
76.216
77.211
78.469
79.985
81.758
83.79
86.081
88.621
91.403
94.409
97.628
101.048
104.657
108.443
112.392
116.489
120.722
125.077
129.541
134.093
138.71
143.369
148.045
152.713
157.347
161.919
166.403
170.772
175.001
179.065
182.941
186.605
190.032
193.201
196.092
198.683
200.957
202.896
204.484
205.707
206.553
207.011
207.073
206.731
205.979
204.815
203.237
201.245
198.842
196.033
192.825
189.225
185.246
180.9
176.202
171.168
165.817
160.169
154.244
148.064
141.652
135.032
128.228
121.265
114.167
106.962
99.674
92.33
84.954
77.574
70.213
62.898
55.651
48.498
41.46
34.559
27.816
21.252
14.883
8.729
2.804
-2.878
-8.305
-13.464
-18.349
-22.952
-27.267
-31.291
-35.023
-38.462
-41.61
-44.47
-47.047
-49.346
-51.375
-53.141
-54.654
-55.924
-56.962
-57.781
-58.392
-58.809
-59.045
-59.115
-59.031
-58.809
-58.464
-58.008
-57.459
-56.828
-56.131
-55.38
-54.59
-53.772
-52.937
-52.098
-51.263
-50.442
-49.643
-48.873
-48.138
-47.443
-46.794
-46.192
-45.641
-45.143
-44.699
-44.308
-43.97
-43.686
-43.452
-43.268
-43.131
-43.039
-42.989
-42.978
-43.002
-43.059
-43.145
-43.256
-43.388
-43.538
-43.702
-43.875
-44.055
-44.238
-44.421
-44.601
-44.775
-44.942
-45.099
-45.246
-45.381
-45.503
-45.613
-45.712
-45.798
-45.875
-45.942
-46.002
-46.056
-46.106
-46.155
-46.204
-46.255
-46.311
-46.372
-46.441
-46.519
-46.607
-46.708
-46.821
-46.948
-47.091
-47.25
-47.425
-47.618
-47.829
-48.058
-48.306
-48.571
-48.855
-49.156
-49.474
-49.808
-50.157
-50.52
-50.894
-51.278
-51.67
-52.066
-52.465
-52.864
-53.259
-53.648
-54.028
-54.397
-54.752
-55.092
-55.413
-55.715
-55.996
-56.255
-56.49
-56.702
-56.888
-57.05
-57.187
-57.299
-57.386
-57.448
-57.487
-57.503
-57.496
-57.468
-57.42
-57.351
-57.264
-57.161
-57.042
-56.909
-56.766
-56.615
-56.459
-56.3
-56.142
-55.988
-55.838
-55.697
-55.566
-55.447
-55.342
-55.251
-55.177
-55.119
-55.079
-55.057
-55.052
-55.063
-55.089
-55.127
-55.177
-55.234
-55.297
-55.362
-55.426
-55.486
-55.541
-55.586
-55.618
-55.634
-55.63
-55.6
-55.541
-55.446
-55.31
-55.128
-54.895
-54.606
-54.259
-53.849
-53.373
-52.828
-52.213
-51.524
-50.761
-49.922
-49.006
-48.013
-46.945
-45.805
-44.596
-43.324
-41.993
-40.611
-39.186
-37.726
-36.237
-34.725
-33.198
-31.662
-30.122
-28.586
-27.056
-25.54
-24.047
-22.585
-21.165
-19.798
-18.49
-17.249
-16.082
-14.996
-13.994
-13.078
-12.244
-11.496
-10.837
-10.277
-9.83
-9.502
-9.29
-9.193
-9.205
-9.309
-9.481
-9.679
-9.853
-9.97
-10.01
-9.96
-9.824
-9.594
-9.254
-8.806
-8.238
-7.539
-6.711
-5.744
-4.637
-3.439
-2.237
-1.156
-0.353
0.058
0.001
-0.599
-1.782
-3.581
-6.012
-9.008
-12.506
-16.462
-20.846
-25.666
-30.889
-36.347
-41.776
-46.848
-51.171
-54.432
-56.29
-56.272
-54.137
-49.874
-43.73
-36.386
-28.501
-20.397
-12.561
-5.626
0.428
6.041
12.271
21.113
34.033
51.608
74.607
103.626
137.767
174.895
211.168
241.055
260.043
264.811
251.78
217.61
160.817
82.31
-13.794
-120.867
-232.925
-344.658
-449.987
-541.94
-613.972
-661.914
-685.219
-685.93
-666.197
-627.978
-574.114
-509.659
-441.392
-375.134
-314.051
-259.373
-211.896
-172.842
-143.434
-122.92
-108.187
-95.826
-83.922
-71.954
-60.001
-47.713
-34.038
-18.718
-3.024
11.147
22.521
30.729
36.071
38.899
39.07
36.552
31.914
26.138
20.178
14.703
9.994
6.115
3.229
1.508
1.016
1.708
3.439
6.051
9.423
13.473
18.107
23.221
28.674
34.303
39.928
45.35
50.426
55.069
59.221
62.858
65.959
68.508
70.534
72.103
73.285
74.145
74.735
75.095
75.288
75.392
75.49
75.67
75.994
76.499
77.218
78.175
79.39
80.876
82.632
84.64
86.887
89.368
92.078
95.016
98.175
101.536
105.085
108.806
112.686
116.712
120.869
125.141
129.512
133.969
138.496
143.082
147.709
152.357
157.005
161.629
166.206
170.714
175.127
179.42
183.568
187.549
191.339
194.917
198.262
201.353
204.171
206.697
208.916
210.811
212.369
213.577
214.425
214.903
215.003
214.721
214.051
212.99
211.538
209.695
207.463
204.847
201.853
198.488
194.763
190.688
186.277
181.545
176.508
171.184
165.593
159.755
153.692
147.426
140.982
134.381
127.649
120.81
113.889
106.91
99.896
92.873
85.863
78.89
71.976
65.143
58.411
51.8
45.33
39.019
32.883
26.939
21.201
15.683
10.397
5.353
0.56
-3.975
-8.246
-12.249
-15.981
-19.441
-22.63
-25.55
-28.205
-30.6
-32.74
-34.633
-36.287
-37.712
-38.918
-39.915
-40.715
-41.329
-41.769
-42.048
-42.177
-42.17
-42.038
-41.794
-41.451
-41.02
-40.514
-39.945
-39.324
-38.661
-37.968
-37.253
-36.527
-35.798
-35.073
-34.359
-33.662
-32.989
-32.343
-31.729
-31.15
-30.608
-30.104
-29.64
-29.216
-28.832
-28.487
-28.18
-27.909
-27.674
-27.473
-27.302
-27.161
-27.048
-26.959
-26.894
-26.848
-26.82
-26.808
-26.808
-26.819
-26.839
-26.866
-26.897
-26.932
-26.969
-27.007
-27.045
-27.084
-27.121
-27.158
-27.195
-27.231
-27.269
-27.308
-27.349
-27.396
-27.447
-27.506
-27.574
-27.651
-27.74
-27.841
-27.956
-28.085
-28.23
-28.391
-28.569
-28.764
-28.976
-29.207
-29.455
-29.721
-30.004
-30.303
-30.618
-30.948
-31.291
-31.645
-32.01
-32.382
-32.762
-33.145
-33.531
-33.916
-34.299
-34.676
-35.045
-35.404
-35.75
-36.08
-36.393
-36.687
-36.96
-37.21
-37.436
-37.638
-37.815
-37.966
-38.09
-38.188
-38.26
-38.307
-38.329
-38.327
-38.303
-38.259
-38.198
-38.12
-38.029
-37.927
-37.817
-37.702
-37.584
-37.467
-37.354
-37.248
-37.152
-37.071
-37.008
-36.964
-36.943
-36.947
-36.977
-37.034
-37.121
-37.237
-37.383
-37.557
-37.761
-37.992
-38.251
-38.535
-38.842
-39.168
-39.511
-39.866
-40.229
-40.594
-40.957
-41.311
-41.651
-41.973
-42.269
-42.534
-42.762
-42.946
-43.08
-43.157
-43.17
-43.112
-42.977
-42.76
-42.456
-42.062
-41.574
-40.991
-40.309
-39.529
-38.65
-37.673
-36.599
-35.427
-34.16
-32.802
-31.358
-29.835
-28.238
-26.575
-24.856
-23.093
-21.297
-19.478
-17.645
-15.809
-13.979
-12.166
-10.38
-8.627
-6.916
-5.257
-3.661
-2.141
-0.708
0.63
1.867
2.99
3.996
4.875
5.627
6.257
6.765
7.148
7.4
7.509
7.469
7.287
6.971
6.523
5.962
5.306
4.595
3.894
3.252
2.698
2.254
1.924
1.719
1.664
1.772
2.043
2.479
3.071
3.816
4.73
5.781
6.893
7.953
8.784
9.243
9.243
8.697
7.547
5.752
3.274
0.15
-3.512
-7.632
-12.157
-17.065
-22.343
-27.84
-33.303
-38.406
-42.734
-45.948
-47.667
-47.38
-44.819
-39.96
-33.05
-24.777
-15.809
-6.459
2.788
11.313
19.151
26.703
35.144
46.582
62.238
82.434
107.576
137.831
172.42
209.564
245.345
274.191
292.151
296.305
283.82
252.317
199.858
126.511
36.116
-65.103
-171.79
-278.705
-380.414
-471.11
-543.907
-594.159
-621.149
-626.377
-611.897
-580.471
-535.198
-480.502
-422.882
-367.258
-316.068
-270.499
-230.628
-196.144
-166.892
-141.657
-117.879
-93.943
-69.312
-44.057
-19.126
4.63
26.742
46.431
62.723
75.124
83.499
88.039
89.359
88.038
84.589
79.597
73.56
66.895
60.003
53.252
46.986
41.503
37.009
33.628
31.441
30.487
30.772
32.243
34.77
38.191
42.323
46.998
52.094
57.474
62.979
68.422
73.603
78.379
82.671
86.432
89.633
92.258
94.306
95.818
96.872
97.547
97.914
98.034
97.954
97.736
97.455
97.189
97.017
96.998
97.169
97.557
98.188
99.078
100.238
101.663
103.336
105.246
107.387
109.756
112.351
115.164
118.181
121.39
124.777
128.331
132.039
135.888
139.863
143.95
148.136
152.408
156.752
161.153
165.591
170.045
174.495
178.917
183.287
187.583
191.779
195.85
199.774
203.528
207.089
210.434
213.543
216.393
218.964
221.237
223.194
224.816
226.088
226.995
227.526
227.669
227.414
226.753
225.682
224.197
222.297
219.981
217.252
214.114
210.575
206.642
202.327
197.642
192.601
187.222
181.521
175.519
169.237
162.697
155.923
148.94
141.773
134.448
126.993
119.435
111.801
104.119
96.418
88.725
81.067
73.471
65.963
58.567
51.308
44.207
37.288
30.568
24.068
17.804
11.791
6.043
0.572
-4.613
-9.502
-14.091
-18.374
-22.349
-26.015
-29.374
-32.428
-35.181
-37.639
-39.811
-41.704
-43.329
-44.698
-45.822
-46.716
-47.392
-47.866
-48.152
-48.266
-48.222
-48.037
-47.724
-47.3
-46.779
-46.175
-45.502
-44.773
-44.001
-43.198
-42.374
-41.54
-40.706
-39.88
-39.069
-38.282
-37.523
-36.797
-36.109
-35.462
-34.857
-34.298
-33.783
-33.313
-32.888
-32.505
-32.164
-31.86
-31.592
-31.357
-31.151
-30.97
-30.812
-30.673
-30.55
-30.438
-30.336
-30.239
-30.145
-30.052
-29.956
-29.855
-29.747
-29.631
-29.505
-29.368
-29.219
-29.058
-28.885
-28.699
-28.502
-28.293
-28.075
-27.849
-27.615
-27.378
-27.137
-26.897
-26.658
-26.425
-26.199
-25.983
-25.779
-25.591
-25.419
-25.266
-25.134
-25.026
-24.941
-24.883
-24.852
-24.849
-24.876
-24.933
-25.02
-25.139
-25.289
-25.471
-25.684
-25.928
-26.203
-26.507
-26.84
-27.201
-27.588
-27.999
-28.432
-28.886
-29.359
-29.847
-30.349
-30.863
-31.385
-31.915
-32.449
-32.984
-33.521
-34.055
-34.585
-35.11
-35.627
-36.136
-36.635
-37.123
-37.599
-38.062
-38.512
-38.947
-39.367
-39.773
-40.162
-40.536
-40.895
-41.238
-41.566
-41.881
-42.182
-42.471
-42.749
-43.017
-43.275
-43.525
-43.767
-44.003
-44.233
-44.458
-44.678
-44.894
-45.106
-45.315
-45.52
-45.72
-45.916
-46.105
-46.288
-46.46
-46.622
-46.771
-46.904
-47.019
-47.115
-47.187
-47.234
-47.254
-47.241
-47.194
-47.108
-46.98
-46.805
-46.581
-46.304
-45.972
-45.583
-45.135
-44.627
-44.059
-43.43
-42.74
-41.989
-41.179
-40.31
-39.386
-38.409
-37.381
-36.31
-35.199
-34.054
-32.883
-31.692
-30.49
-29.285
-28.086
-26.9
-25.735
-24.598
-23.497
-22.442
-21.439
-20.495
-19.615
-18.807
-18.077
-17.435
-16.886
-16.431
-16.073
-15.812
-15.651
-15.591
-15.633
-15.77
-15.998
-16.315
-16.725
-17.244
-17.874
-18.607
-19.425
-20.303
-21.216
-22.148
-23.071
-23.943
-24.728
-25.394
-25.922
-26.327
-26.614
-26.772
-26.77
-26.556
-26.109
-25.445
-24.615
-23.677
-22.697
-21.735
-20.879
-20.268
-20.022
-20.227
-20.927
-22.074
-23.597
-25.473
-27.709
-30.337
-33.384
-36.759
-40.259
-43.674
-46.765
-49.268
-50.938
-51.346
-49.949
-46.52
-41.129
-34.193
-26.522
-18.721
-10.964
-3.623
2.733
8.161
13.176
19.051
28.04
41.711
60.465
84.655
114.477
148.624
184.609
218.564
245.028
259.394
258.574
239.332
198.637
136.032
53.487
-44.953
-152.945
-264.437
-374.433
-476.354
-562.416
-627.286
-668.152
-684.295
-677.677
-650.277
-603.332
-541.151
-470.788
-398.256
-328.621
-265.366
-209.49
-162.517
-126.955
-102.512
-86.504
-76.042
-67.671
-59.295
-50.811
-41.389
-29.45
-14.781
1.896
19.217
34.883
47.667
57.561
64.341
67.772
67.95
65.065
59.839
53.56
47.099
40.968
35.568
31.045
27.554
25.282
24.23
24.269
25.283
27.149
29.77
33.099
37.045
41.502
46.336
51.377
56.448
61.345
65.916
70.071
73.747
76.909
79.538
81.622
83.187
84.305
85.04
85.446
85.579
85.478
85.205
84.845
84.478
84.192
84.05
84.089
84.343
84.836
85.586
86.605
87.89
89.421
91.189
93.187
95.41
97.861
100.529
103.4
106.46
109.696
113.095
116.646
120.336
124.151
128.075
132.098
136.206
140.387
144.626
148.904
153.201
157.496
161.767
165.992
170.147
174.209
178.153
181.959
185.603
189.065
192.324
195.36
198.152
200.683
202.934
204.889
206.531
207.844
208.817
209.435
209.69
209.57
209.068
208.178
206.896
205.219
203.147
200.681
197.824
194.58
190.957
186.964
182.611
177.912
172.879
167.53
161.881
155.952
149.763
143.336
136.692
129.856
122.852
115.703
108.436
101.076
93.648
86.18
78.697
71.226
63.793
56.424
49.142
41.973
34.939
28.064
21.367
14.87
8.59
2.544
-3.252
-8.785
-14.042
-19.014
-23.691
-28.067
-32.138
-35.9
-39.352
-42.496
-45.334
-47.87
-50.11
-52.062
-53.733
-55.134
-56.276
-57.171
-57.832
-58.273
-58.509
-58.556
-58.428
-58.143
-57.716
-57.163
-56.501
-55.746
-54.913
-54.017
-53.073
-52.094
-51.094
-50.086
-49.08
-48.088
-47.118
-46.181
-45.282
-44.429
-43.627
-42.881
-42.192
-41.564
-40.998
-40.494
-40.051
-39.669
-39.346
-39.08
-38.867
-38.704
-38.587
-38.511
-38.473
-38.468
-38.49
-38.536
-38.6
-38.677
-38.764
-38.857
-38.951
-39.044
-39.131
-39.21
-39.278
-39.334
-39.375
-39.4
-39.409
-39.402
-39.378
-39.339
-39.286
-39.22
-39.143
-39.057
-38.964
-38.867
-38.768
-38.669
-38.573
-38.483
-38.401
-38.329
-38.27
-38.226
-38.199
-38.19
-38.201
-38.233
-38.287
-38.363
-38.461
-38.582
-38.725
-38.89
-39.075
-39.28
-39.504
-39.745
-40.001
-40.269
-40.549
-40.837
-41.13
-41.427
-41.723
-42.018
-42.307
-42.589
-42.862
-43.123
-43.369
-43.6
-43.814
-44.008
-44.182
-44.335
-44.466
-44.575
-44.661
-44.725
-44.767
-44.787
-44.788
-44.77
-44.734
-44.683
-44.618
-44.541
-44.455
-44.361
-44.263
-44.162
-44.062
-43.965
-43.874
-43.792
-43.722
-43.665
-43.625
-43.605
-43.604
-43.627
-43.672
-43.743
-43.839
-43.963
-44.113
-44.29
-44.495
-44.727
-44.986
-45.272
-45.582
-45.915
-46.268
-46.64
-47.027
-47.425
-47.831
-48.241
-48.651
-49.057
-49.455
-49.841
-50.209
-50.555
-50.874
-51.161
-51.411
-51.618
-51.778
-51.884
-51.935
-51.926
-51.855
-51.719
-51.515
-51.241
-50.897
-50.48
-49.99
-49.425
-48.785
-48.069
-47.28
-46.42
-45.494
-44.505
-43.46
-42.365
-41.229
-40.061
-38.865
-37.651
-36.422
-35.188
-33.954
-32.726
-31.508
-30.308
-29.136
-28.003
-26.918
-25.891
-24.928
-24.037
-23.225
-22.5
-21.863
-21.313
-20.849
-20.475
-20.202
-20.046
-20.016
-20.108
-20.315
-20.628
-21.039
-21.53
-22.067
-22.598
-23.071
-23.449
-23.724
-23.901
-23.97
-23.918
-23.715
-23.341
-22.815
-22.166
-21.407
-20.549
-19.606
-18.629
-17.744
-17.117
-16.895
-17.187
-18.047
-19.508
-21.63
-24.46
-28.028
-32.304
-37.148
-42.43
-48.079
-54.035
-60.245
-66.553
-72.624
-78.063
-82.504
-85.61
-87.14
-86.791
-84.099
-78.868
-71.192
-61.461
-50.528
-39.119
-27.527
-16.252
-5.985
3.218
11.68
20.402
31.384
46.015
64.696
87.979
116.233
148.362
182.111
213.664
237.702
249.961
247.439
226.974
185.603
122.422
38.979
-60.541
-169.728
-282.72
-394.455
-498.899
-588.816
-658.115
-703.251
-723.137
-719.269
-693.448
-646.98
-583.016
-507.544
-427.076
-347.133
-272.317
-205.057
-147.228
-101.626
-69.404
-49.035
-37.958
-33.087
-31.064
-30.222
-29.417
-26.579
-20.6
-11.626
-0.292
11.794
22.594
31.304
37.638
41.07
41.664
39.687
35.465
30.018
24.585
19.853
16.223
13.925
12.885
13.116
14.68
17.415
21.083
25.475
30.395
35.725
41.398
47.293
53.24
59.032
64.475
69.443
73.866
77.715
80.982
83.653
85.732
87.264
88.309
88.939
89.222
89.204
88.939
88.501
87.974
87.459
87.039
86.768
86.688
86.828
87.207
87.846
88.754
89.925
91.352
93.032
94.966
97.158
99.61
102.312
105.252
108.418
111.797
115.379
119.154
123.109
127.23
131.506
135.923
140.471
145.134
149.893
154.726
159.61
164.52
169.433
174.322
179.159
183.918
188.573
193.097
197.465
201.653
205.633
209.382
212.876
216.092
219.008
221.604
223.86
225.759
227.285
228.425
229.166
229.499
229.415
228.908
227.975
226.613
224.823
222.607
219.969
216.916
213.457
209.603
205.366
200.76
195.803
190.511
184.904
179.004
172.833
166.413
159.769
152.925
145.907
138.742
131.456
124.076
116.63
109.144
101.645
94.16
86.715
79.335
72.043
64.863
57.816
50.924
44.206
37.68
31.361
25.266
19.407
13.796
8.444
3.358
-1.455
-5.99
-10.243
-14.213
-17.899
-21.303
-24.428
-27.277
-29.855
-32.17
-34.229
-36.04
-37.614
-38.962
-40.093
-41.022
-41.759
-42.318
-42.712
-42.954
-43.057
-43.034
-42.897
-42.659
-42.331
-41.926
-41.452
-40.922
-40.343
-39.726
-39.078
-38.407
-37.72
-37.023
-36.322
-35.621
-34.924
-34.236
-33.56
-32.897
-32.251
-31.623
-31.015
-30.427
-29.859
-29.313
-28.788
-28.282
-27.797
-27.33
-26.881
-26.449
-26.034
-25.635
-25.251
-24.882
-24.529
-24.191
-23.87
-23.564
-23.277
-23.008
-22.759
-22.531
-22.327
-22.147
-21.993
-21.868
-21.773
-21.709
-21.679
-21.683
-21.724
-21.8
-21.915
-22.068
-22.259
-22.49
-22.76
-23.07
-23.419
-23.807
-24.233
-24.697
-25.197
-25.731
-26.298
-26.895
-27.519
-28.168
-28.839
-29.528
-30.232
-30.947
-31.67
-32.396
-33.123
-33.846
-34.562
-35.266
-35.957
-36.629
-37.282
-37.912
-38.516
-39.094
-39.643
-40.162
-40.65
-41.105
-41.528
-41.917
-42.273
-42.594
-42.881
-43.134
-43.353
-43.541
-43.697
-43.824
-43.923
-43.996
-44.046
-44.074
-44.084
-44.077
-44.055
-44.022
-43.979
-43.929
-43.874
-43.816
-43.757
-43.697
-43.64
-43.585
-43.534
-43.487
-43.443
-43.403
-43.366
-43.332
-43.3
-43.269
-43.24
-43.212
-43.184
-43.156
-43.127
-43.094
-43.057
-43.014
-42.961
-42.898
-42.82
-42.724
-42.609
-42.471
-42.309
-42.119
-41.9
-41.649
-41.363
-41.04
-40.677
-40.273
-39.825
-39.331
-38.789
-38.199
-37.562
-36.879
-36.149
-35.374
-34.553
-33.689
-32.782
-31.833
-30.842
-29.81
-28.738
-27.631
-26.491
-25.323
-24.131
-22.921
-21.7
-20.477
-19.255
-18.041
-16.84
-15.657
-14.495
-13.359
-12.249
-11.17
-10.126
-9.123
-8.17
-7.273
-6.437
-5.665
-4.962
-4.331
-3.772
-3.283
-2.856
-2.489
-2.181
-1.941
-1.784
-1.713
-1.722
-1.805
-1.957
-2.16
-2.393
-2.617
-2.773
-2.818
-2.731
-2.503
-2.143
-1.652
-1.019
-0.228
0.727
1.838
3.088
4.469
5.981
7.591
9.232
10.772
12.034
12.883
13.23
13.019
12.22
10.801
8.733
6.019
2.72
-1.068
-5.257
-9.787
-14.621
-19.685
-24.809
-29.674
-33.89
-37.108
-39.008
-39.361
-37.892
-34.24
-28.272
-20.124
-10.214
0.712
12.01
23.373
34.327
44.207
52.909
60.703
68.467
77.95
90.365
106.095
125.693
149.605
176.945
205.731
232.491
252.313
261.265
256.55
235.246
194.69
133.958
54.394
-39.9
-142.837
-248.835
-352.869
-449.534
-532.691
-596.666
-638.214
-656.929
-654.066
-631.399
-590.874
-534.726
-467.257
-394.328
-320.458
-248.957
-182.798
-123.847
-73.867
-35.137
-7.747
10.28
20.533
25.049
26.404
25.884
24.869
25.576
28.819
34.31
41.802
50.112
57.648
63.938
68.607
70.994
71.148
69.326
65.84
61.637
57.765
54.722
52.824
52.253
52.921
54.816
57.92
61.991
66.751
71.982
77.501
83.203
89.033
94.867
100.52
105.828
110.661
114.945
118.656
121.791
124.339
126.31
127.747
128.715
129.284
129.525
129.487
129.222
128.792
128.271
127.747
127.293
126.967
126.807
126.842
127.091
127.574
128.297
129.254
130.438
131.846
133.475
135.329
137.407
139.702
142.202
144.896
147.773
150.822
154.034
157.395
160.894
164.518
168.256
172.097
176.027
180.027
184.079
188.161
192.252
196.33
200.371
204.35
208.245
212.031
215.686
219.189
222.515
225.645
228.555
231.225
233.637
235.771
237.61
239.138
240.339
241.2
241.71
241.86
241.642
241.047
240.073
238.716
236.977
234.855
232.354
229.478
226.234
222.63
218.675
214.382
209.764
204.834
199.608
194.104
188.34
182.335
176.11
169.685
163.082
156.323
149.432
142.432
135.346
128.2
121.016
113.818
106.63
99.476
92.378
85.357
78.434
71.63
64.963
58.451
52.11
45.956
40.002
34.26
28.742
23.458
18.415
13.62
9.08
4.797
0.776
-2.983
-6.48
-9.717
-12.695
-15.418
-17.893
-20.124
-22.12
-23.889
-25.441
-26.785
-27.934
-28.898
-29.69
-30.324
-30.81
-31.164
-31.397
-31.523
-31.555
-31.504
-31.382
-31.201
-30.971
-30.703
-30.407
-30.091
-29.764
-29.435
-29.11
-28.796
-28.5
-28.227
-27.982
-27.77
-27.593
-27.454
-27.356
-27.301
-27.288
-27.318
-27.391
-27.504
-27.657
-27.847
-28.07
-28.325
-28.608
-28.914
-29.241
-29.584
-29.941
-30.307
-30.68
-31.058
-31.437
-31.816
-32.192
-32.564
-32.93
-33.289
-33.64
-33.982
-34.314
-34.635
-34.946
-35.245
-35.534
-35.812
-36.079
-36.337
-36.587
-36.829
-37.066
-37.299
-37.531
-37.763
-38
-38.242
-38.494
-38.757
-39.036
-39.331
-39.647
-39.983
-40.343
-40.727
-41.137
-41.572
-42.033
-42.52
-43.034
-43.572
-44.136
-44.724
-45.336
-45.969
-46.624
-47.3
-47.994
-48.705
-49.433
-50.175
-50.931
-51.697
-52.472
-53.253
-54.039
-54.826
-55.612
-56.392
-57.166
-57.929
-58.678
-59.411
-60.126
-60.821
-61.495
-62.145
-62.772
-63.374
-63.951
-64.503
-65.03
-65.532
-66.01
-66.464
-66.896
-67.306
-67.696
-68.066
-68.417
-68.751
-69.067
-69.366
-69.649
-69.916
-70.169
-70.408
-70.634
-70.849
-71.054
-71.252
-71.442
-71.626
-71.805
-71.979
-72.149
-72.313
-72.47
-72.62
-72.762
-72.895
-73.017
-73.128
-73.223
-73.302
-73.363
-73.401
-73.414
-73.399
-73.351
-73.269
-73.149
-72.991
-72.793
-72.555
-72.275
-71.953
-71.589
-71.183
-70.735
-70.243
-69.706
-69.126
-68.504
-67.842
-67.143
-66.41
-65.646
-64.858
-64.052
-63.234
-62.408
-61.58
-60.752
-59.93
-59.119
-58.322
-57.541
-56.778
-56.041
-55.336
-54.672
-54.053
-53.483
-52.966
-52.507
-52.107
-51.768
-51.487
-51.256
-51.075
-50.947
-50.878
-50.881
-50.961
-51.114
-51.338
-51.626
-51.96
-52.315
-52.646
-52.897
-53.037
-53.046
-52.909
-52.632
-52.207
-51.619
-50.873
-49.964
-48.881
-47.629
-46.196
-44.585
-42.858
-41.115
-39.492
-38.16
-37.238
-36.807
-36.957
-37.728
-39.156
-41.253
-43.931
-47.112
-50.759
-54.844
-59.38
-64.326
-69.477
-74.527
-79.124
-82.852
-85.397
-86.409
-85.379
-82.09
-76.608
-69.271
-60.914
-52.257
-43.555
-35.236
-27.885
-21.353
-15.071
-7.827
2.582
17.627
37.683
63.237
94.524
130.22
167.787
203.082
230.443
245.401
244.904
225.825
185.344
122.755
39.806
-59.062
-167.197
-278.61
-388.243
-490.21
-577.555
-644.504
-687.798
-706.611
-702.603
-677.66
-633.095
-571.922
-499.87
-423.153
-346.993
-275.749
-211.697
-156.602
-113.151
-82.476
-63.114
-52.597
-47.966
-45.985
-45.05
-44.068
-41.049
-34.928
-25.852
-14.446
-2.274
8.694
17.677
24.392
28.326
29.531
28.255
24.801
20.142
15.455
11.388
8.326
6.486
5.8
6.284
7.997
10.784
14.419
18.706
23.458
28.564
33.958
39.527
45.116
50.535
55.605
60.214
64.295
67.823
70.795
73.199
75.038
76.358
77.213
77.673
77.805
77.655
77.279
76.747
76.138
75.549
75.06
74.724
74.578
74.652
74.964
75.533
76.369
77.467
78.819
80.423
82.279
84.39
86.757
89.371
92.22
95.29
98.568
102.046
105.712
109.553
113.557
117.711
122.001
126.418
130.946
135.565
140.255
144.993
149.754
154.516
159.253
163.939
168.546
173.051
177.428
181.653
185.702
189.551
193.175
196.554
199.666
202.49
205.008
207.201
209.053
210.55
211.678
212.427
212.787
212.75
212.309
211.46
210.202
208.535
206.459
203.978
201.097
197.826
194.172
190.148
185.766
181.041
175.991
170.633
164.987
159.074
152.915
146.534
139.953
133.199
126.296
119.269
112.144
104.949
97.708
90.447
83.193
75.971
68.805
61.719
54.736
47.878
41.166
34.621
28.26
22.101
16.16
10.45
4.985
-0.224
-5.168
-9.839
-14.231
-18.338
-22.159
-25.692
-28.938
-31.897
-34.575
-36.976
-39.105
-40.972
-42.584
-43.952
-45.087
-45.999
-46.702
-47.209
-47.532
-47.686
-47.685
-47.543
-47.274
-46.891
-46.408
-45.839
-45.196
-44.492
-43.738
-42.946
-42.126
-41.288
-40.441
-39.594
-38.754
-37.928
-37.122
-36.342
-35.593
-34.877
-34.199
-33.561
-32.964
-32.409
-31.897
-31.427
-30.998
-30.61
-30.26
-29.947
-29.668
-29.42
-29.201
-29.008
-28.838
-28.689
-28.558
-28.442
-28.338
-28.245
-28.161
-28.084
-28.013
-27.946
-27.883
-27.822
-27.764
-27.707
-27.652
-27.599
-27.547
-27.498
-27.452
-27.408
-27.369
-27.335
-27.306
-27.285
-27.271
-27.265
-27.27
-27.286
-27.313
-27.354
-27.408
-27.477
-27.561
-27.661
-27.778
-27.911
-28.06
-28.226
-28.409
-28.606
-28.818
-29.044
-29.282
-29.532
-29.791
-30.059
-30.334
-30.615
-30.899
-31.185
-31.472
-31.758
-32.04
-32.319
-32.591
-32.856
-33.113
-33.36
-33.597
-33.824
-34.038
-34.24
-34.43
-34.606
-34.769
-34.918
-35.053
-35.174
-35.282
-35.377
-35.459
-35.531
-35.592
-35.645
-35.688
-35.724
-35.754
-35.777
-35.795
-35.809
-35.819
-35.827
-35.834
-35.84
-35.847
-35.854
-35.862
-35.869
-35.877
-35.883
-35.885
-35.884
-35.874
-35.857
-35.828
-35.788
-35.733
-35.661
-35.57
-35.456
-35.316
-35.148
-34.947
-34.709
-34.43
-34.107
-33.737
-33.319
-32.85
-32.328
-31.752
-31.121
-30.433
-29.687
-28.884
-28.021
-27.098
-26.117
-25.081
-23.992
-22.855
-21.674
-20.457
-19.211
-17.944
-16.663
-15.375
-14.085
-12.801
-11.529
-10.274
-9.042
-7.838
-6.671
-5.551
-4.489
-3.496
-2.579
-1.745
-1.003
-0.359
0.184
0.624
0.967
1.212
1.354
1.385
1.288
1.058
0.703
0.228
-0.361
-1.048
-1.812
-2.613
-3.396
-4.118
-4.758
-5.309
-5.776
-6.154
-6.428
-6.574
-6.58
-6.45
-6.198
-5.824
-5.321
-4.713
-4.058
-3.482
-3.15
-3.185
-3.665
-4.633
-6.118
-8.159
-10.785
-14.006
-17.763
-21.955
-26.502
-31.352
-36.479
-41.83
-47.241
-52.378
-56.861
-60.341
-62.501
-63.134
-61.95
-58.539
-52.768
-44.787
-35.063
-24.448
-13.621
-2.852
7.409
16.523
24.457
31.586
38.979
48.659
62.058
79.624
101.864
129.122
160.241
192.811
223.051
245.693
256.237
251.611
228.62
184.218
117.995
32.128
-69.16
-179.403
-292.22
-402.392
-503.45
-587.644
-649.863
-687.655
-700.192
-689.356
-657.557
-606.336
-539.793
-464.918
-387.273
-311.371
-241.48
-179.454
-126.894
-86.547
-58.659
-40.784
-30.901
-26.474
-24.415
-23.533
-22.615
-19.392
-13.147
-4.413
6.37
17.755
27.876
36.204
42.351
45.613
46.09
44.075
39.863
34.48
29.098
24.303
20.505
17.961
16.607
16.481
17.631
19.869
22.965
26.723
30.965
35.602
40.585
45.806
51.111
56.301
61.191
65.668
69.664
73.153
76.121
78.551
80.45
81.866
82.861
83.506
83.86
83.962
83.861
83.625
83.33
83.073
82.93
82.951
83.173
83.621
84.312
85.263
86.479
87.947
89.654
91.595
93.763
96.162
98.788
101.628
104.67
107.896
111.294
114.852
118.559
122.401
126.365
130.436
134.604
138.859
143.184
147.564
151.977
156.402
160.816
165.199
169.527
173.774
177.917
181.933
185.799
189.494
192.997
196.286
199.34
202.142
204.672
206.914
208.851
210.469
211.754
212.694
213.278
213.498
213.344
212.811
211.892
210.586
208.891
206.806
204.335
201.481
198.249
194.648
190.688
186.381
181.739
176.778
171.515
165.968
160.157
154.104
147.828
141.354
134.705
127.904
120.976
113.946
106.838
99.676
92.486
85.292
78.119
70.99
63.928
56.957
50.098
43.374
36.804
30.409
24.206
18.213
12.446
6.919
1.644
-3.367
-8.105
-12.563
-16.734
-20.615
-24.203
-27.499
-30.503
-33.218
-35.649
-37.802
-39.684
-41.303
-42.668
-43.789
-44.677
-45.344
-45.801
-46.061
-46.136
-46.04
-45.787
-45.389
-44.861
-44.217
-43.47
-42.635
-41.724
-40.751
-39.728
-38.668
-37.582
-36.481
-35.376
-34.276
-33.19
-32.125
-31.087
-30.083
-29.117
-28.193
-27.313
-26.48
-25.694
-24.957
-24.269
-23.63
-23.038
-22.493
-21.993
-21.537
-21.123
-20.75
-20.414
-20.115
-19.848
-19.612
-19.403
-19.219
-19.057
-18.914
-18.787
-18.672
-18.567
-18.47
-18.377
-18.285
-18.194
-18.1
-18.003
-17.901
-17.793
-17.68
-17.561
-17.437
-17.309
-17.177
-17.042
-16.905
-16.768
-16.632
-16.497
-16.365
-16.237
-16.114
-15.997
-15.886
-15.784
-15.689
-15.605
-15.53
-15.467
-15.416
-15.377
-15.353
-15.342
-15.348
-15.37
-15.41
-15.468
-15.545
-15.642
-15.76
-15.898
-16.056
-16.235
-16.434
-16.653
-16.89
-17.145
-17.417
-17.706
-18.011
-18.331
-18.665
-19.013
-19.375
-19.749
-20.135
-20.532
-20.938
-21.355
-21.78
-22.213
-22.654
-23.102
-23.556
-24.015
-24.478
-24.943
-25.408
-25.872
-26.332
-26.786
-27.23
-27.663
-28.081
-28.482
-28.866
-29.229
-29.568
-29.882
-30.168
-30.422
-30.643
-30.827
-30.97
-31.07
-31.123
-31.127
-31.082
-30.984
-30.833
-30.626
-30.361
-30.038
-29.655
-29.211
-28.706
-28.137
-27.507
-26.818
-26.071
-25.271
-24.422
-23.53
-22.602
-21.644
-20.661
-19.659
-18.642
-17.615
-16.583
-15.549
-14.518
-13.494
-12.483
-11.496
-10.542
-9.627
-8.761
-7.948
-7.195
-6.51
-5.897
-5.353
-4.882
-4.485
-4.171
-3.958
-3.856
-3.864
-3.978
-4.188
-4.483
-4.854
-5.27
-5.686
-6.06
-6.348
-6.525
-6.6
-6.566
-6.411
-6.119
-5.654
-5.016
-4.244
-3.359
-2.376
-1.327
-0.237
0.803
1.626
2.089
2.058
1.433
0.189
-1.725
-4.375
-7.792
-11.992
-16.91
-22.389
-28.329
-34.675
-41.363
-48.295
-55.219
-61.728
-67.439
-71.982
-75.056
-76.362
-75.458
-72.078
-66.243
-58.231
-48.731
-38.458
-27.746
-17.06
-7.095
2.113
10.918
20.211
31.867
47.214
66.629
90.743
120.07
153.667
189.493
223.823
251.294
267.696
270.019
254.986
219.502
162.124
83.681
-11.828
-118.051
-229.21
-340.139
-445.188
-537.612
-610.877
-660.836
-686.456
-689.125
-670.891
-633.608
-579.521
-513.495
-442.035
-370.583
-303.275
-242.427
-189.052
-144.767
-111.497
-88.691
-73.914
-64.522
-57.522
-51.299
-45.62
-39.506
-31.419
-21.03
-8.876
3.864
15.169
24.045
30.595
34.683
36.112
34.973
31.448
26.227
20.605
15.421
11.032
7.696
5.432
4.28
4.388
5.715
8.041
11.182
14.955
19.227
23.967
29.082
34.429
39.845
45.112
50.058
54.585
58.625
62.148
65.142
67.585
69.485
70.894
71.873
72.494
72.817
72.877
72.729
72.441
72.094
71.787
71.593
71.558
71.718
72.095
72.709
73.579
74.708
76.084
77.697
79.539
81.607
83.906
86.43
89.168
92.106
95.229
98.523
101.979
105.585
109.327
113.191
117.164
121.235
125.393
129.623
133.907
138.224
142.553
146.872
151.159
155.39
159.539
163.584
167.5
171.265
174.857
178.255
181.436
184.379
187.066
189.477
191.594
193.4
194.881
196.021
196.808
197.232
197.283
196.952
196.234
195.123
193.618
191.716
189.419
186.73
183.652
180.192
176.36
172.165
167.619
162.737
157.535
152.029
146.239
140.185
133.889
127.373
120.661
113.777
106.745
99.592
92.344
85.027
77.668
70.292
62.927
55.597
48.33
41.149
34.078
27.142
20.361
13.758
7.353
1.164
-4.791
-10.496
-15.938
-21.103
-25.98
-30.561
-34.838
-38.805
-42.459
-45.797
-48.821
-51.531
-53.93
-56.025
-57.822
-59.328
-60.553
-61.509
-62.206
-62.658
-62.879
-62.884
-62.686
-62.303
-61.75
-61.042
-60.197
-59.23
-58.158
-56.996
-55.76
-54.465
-53.127
-51.758
-50.373
-48.984
-47.603
-46.241
-44.907
-43.612
-42.364
-41.169
-40.033
-38.962
-37.961
-37.031
-36.176
-35.395
-34.691
-34.061
-33.505
-33.021
-32.606
-32.257
-31.971
-31.743
-31.57
-31.448
-31.371
-31.334
-31.334
-31.365
-31.422
-31.502
-31.598
-31.708
-31.826
-31.949
-32.073
-32.195
-32.311
-32.42
-32.518
-32.605
-32.677
-32.735
-32.777
-32.803
-32.814
-32.81
-32.792
-32.761
-32.718
-32.666
-32.606
-32.54
-32.47
-32.398
-32.328
-32.26
-32.199
-32.145
-32.103
-32.074
-32.06
-32.065
-32.089
-32.135
-32.206
-32.302
-32.427
-32.581
-32.766
-32.984
-33.235
-33.522
-33.844
-34.201
-34.593
-35.019
-35.478
-35.97
-36.493
-37.045
-37.625
-38.231
-38.861
-39.512
-40.182
-40.867
-41.565
-42.272
-42.984
-43.698
-44.41
-45.114
-45.808
-46.487
-47.148
-47.787
-48.399
-48.98
-49.526
-50.03
-50.489
-50.898
-51.25
-51.543
-51.772
-51.936
-52.032
-52.058
-52.012
-51.894
-51.703
-51.439
-51.101
-50.69
-50.204
-49.648
-49.022
-48.33
-47.578
-46.768
-45.908
-45.003
-44.062
-43.091
-42.097
-41.086
-40.063
-39.033
-38.003
-36.979
-35.964
-34.966
-33.993
-33.052
-32.156
-31.312
-30.527
-29.806
-29.153
-28.571
-28.062
-27.625
-27.255
-26.952
-26.722
-26.57
-26.512
-26.553
-26.693
-26.925
-27.239
-27.612
-28.01
-28.401
-28.739
-28.995
-29.153
-29.206
-29.161
-29.019
-28.777
-28.427
-27.949
-27.322
-26.533
-25.583
-24.483
-23.296
-22.127
-21.088
-20.322
-19.939
-20.006
-20.581
-21.683
-23.308
-25.43
-27.996
-30.96
-34.301
-38.02
-42.107
-46.504
-51.02
-55.364
-59.22
-62.218
-64.061
-64.431
-62.916
-59.349
-53.821
-46.674
-38.592
-30.179
-21.675
-13.453
-6.07
0.505
6.696
13.451
22.585
35.366
52.142
73.413
99.546
129.551
161.355
191.526
215.187
228.219
227.723
210.621
174.025
117.181
41.584
-48.946
-148.514
-251.249
-352.116
-445.408
-524.342
-583.884
-621.404
-636.281
-630.2
-605.708
-564.755
-510.282
-447.801
-382.363
-317.958
-258.172
-204.645
-158.046
-119.984
-91.58
-71.541
-58.312
-50.046
-44.105
-39.355
-35.448
-31.172
-25.35
-17.92
-9.033
0.482
8.924
15.648
20.667
23.756
24.835
24.035
21.516
17.904
14.291
11.312
9.243
8.278
8.387
9.583
11.93
15.315
19.483
24.22
29.351
34.725
40.267
45.857
51.318
56.505
61.285
65.563
69.299
72.472
75.078
77.125
78.64
79.663
80.253
80.473
80.384
80.051
79.54
78.926
78.298
77.731
77.29
77.024
76.965
77.139
77.565
78.254
79.21
80.434
81.927
83.692
85.734
88.053
90.646
93.507
96.622
99.981
103.574
107.39
111.418
115.646
120.061
124.65
129.401
134.298
139.322
144.45
149.657
154.919
160.209
165.501
170.766
175.976
181.103
186.12
191.001
195.72
200.249
204.562
208.634
212.441
215.96
219.168
222.046
224.574
226.734
228.511
229.891
230.863
231.416
231.542
231.235
230.492
229.31
227.691
225.637
223.154
220.248
216.928
213.208
209.099
204.617
199.779
194.604
189.112
183.325
177.264
170.954
164.419
157.685
150.778
143.724
136.552
129.287
121.958
114.592
107.215
99.855
92.538
85.288
78.131
71.09
64.189
57.448
50.888
44.527
38.382
32.468
26.8
21.389
16.245
11.378
6.793
2.496
-1.51
-5.222
-8.642
-11.77
-14.61
-17.166
-19.445
-21.454
-23.202
-24.697
-25.95
-26.973
-27.778
-28.376
-28.783
-29.01
-29.072
-28.983
-28.757
-28.408
-27.95
-27.397
-26.761
-26.055
-25.291
-24.48
-23.632
-22.758
-21.866
-20.964
-20.061
-19.163
-18.276
-17.405
-16.555
-15.729
-14.931
-14.162
-13.424
-12.718
-12.045
-11.405
-10.798
-10.224
-9.68
-9.167
-8.683
-8.225
-7.793
-7.384
-6.997
-6.63
-6.28
-5.947
-5.629
-5.326
-5.036
-4.76
-4.496
-4.245
-4.008
-3.784
-3.575
-3.381
-3.203
-3.042
-2.901
-2.779
-2.68
-2.604
-2.552
-2.527
-2.529
-2.56
-2.62
-2.711
-2.832
-2.985
-3.17
-3.388
-3.638
-3.92
-4.235
-4.582
-4.96
-5.37
-5.809
-6.276
-6.771
-7.29
-7.832
-8.396
-8.978
-9.578
-10.193
-10.821
-11.46
-12.109
-12.764
-13.423
-14.085
-14.747
-15.407
-16.064
-16.716
-17.362
-18
-18.63
-19.251
-19.862
-20.463
-21.053
-21.629
-22.192
-22.74
-23.271
-23.784
-24.277
-24.75
-25.202
-25.632
-26.038
-26.42
-26.775
-27.102
-27.399
-27.663
-27.893
-28.085
-28.236
-28.343
-28.407
-28.424
-28.394
-28.315
-28.183
-27.999
-27.76
-27.466
-27.113
-26.701
-26.229
-25.696
-25.103
-24.453
-23.749
-22.994
-22.193
-21.351
-20.474
-19.566
-18.632
-17.674
-16.699
-15.709
-14.708
-13.7
-12.689
-11.684
-10.693
-9.726
-8.791
-7.896
-7.048
-6.253
-5.519
-4.852
-4.249
-3.713
-3.247
-2.861
-2.575
-2.397
-2.327
-2.363
-2.495
-2.709
-2.995
-3.325
-3.65
-3.93
-4.118
-4.193
-4.163
-4.022
-3.76
-3.359
-2.783
-2.031
-1.14
-0.134
0.971
2.142
3.351
4.503
5.427
5.977
6.017
5.446
4.242
2.359
-0.263
-3.653
-7.825
-12.714
-18.162
-24.064
-30.361
-36.981
-43.82
-50.619
-56.963
-62.449
-66.703
-69.417
-70.292
-68.906
-65.011
-58.635
-50.064
-39.982
-29.095
-17.738
-6.371
4.345
14.377
24.064
34.251
46.704
62.647
82.354
106.318
134.935
167.188
201.055
232.948
257.662
271.175
270.687
253.174
215.936
157.895
79.931
-14.1
-117.909
-225.951
-333.114
-433.791
-522.164
-592.629
-641.382
-667.629
-672.752
-658.419
-626.882
-580.824
-523.621
-460.332
-395.473
-332.12
-272.754
-219.024
-171.775
-132.214
-101.265
-77.845
-60.629
-48.253
-38.638
-30.741
-24.239
-18.062
-11.058
-3.104
5.723
14.749
22.414
28.13
31.965
33.711
33.289
30.825
26.465
20.892
15.274
10.303
6.312
3.511
1.878
1.455
2.336
4.418
7.453
11.21
15.493
20.179
25.213
30.49
35.844
41.069
45.973
50.432
54.381
57.787
60.642
62.927
64.653
65.869
66.641
67.045
67.149
67
66.649
66.166
65.631
65.142
64.78
64.6
64.64
64.929
65.484
66.325
67.458
68.871
70.553
72.497
74.7
77.162
79.88
82.842
86.033
89.437
93.038
96.823
100.779
104.889
109.138
113.508
117.985
122.557
127.205
131.908
136.642
141.384
146.107
150.787
155.396
159.908
164.295
168.532
172.594
176.459
180.102
183.502
186.635
189.484
192.028
194.251
196.136
197.668
198.835
199.626
200.032
200.045
199.66
198.872
197.679
196.082
194.082
191.684
188.893
185.716
182.164
178.248
173.982
169.381
164.462
159.242
153.741
147.98
141.982
135.767
129.361
122.785
116.064
109.223
102.286
95.278
88.222
81.143
74.064
67.009
60
53.059
46.208
39.467
32.855
26.391
20.093
13.975
8.054
2.342
-3.148
-8.407
-13.424
-18.192
-22.705
-26.959
-30.95
-34.677
-38.138
-41.337
-44.273
-46.953
-49.379
-51.558
-53.497
-55.203
-56.686
-57.953
-59.015
-59.882
-60.564
-61.073
-61.418
-61.613
-61.667
-61.593
-61.403
-61.107
-60.716
-60.243
-59.697
-59.088
-58.426
-57.721
-56.981
-56.214
-55.428
-54.63
-53.828
-53.025
-52.23
-51.445
-50.674
-49.923
-49.192
-48.485
-47.804
-47.148
-46.52
-45.919
-45.346
-44.801
-44.283
-43.79
-43.324
-42.881
-42.461
-42.062
-41.683
-41.321
-40.975
-40.642
-40.322
-40.013
-39.712
-39.419
-39.133
-38.851
-38.573
-38.297
-38.023
-37.749
-37.475
-37.2
-36.925
-36.648
-36.37
-36.092
-35.813
-35.536
-35.26
-34.988
-34.719
-34.456
-34.2
-33.952
-33.713
-33.485
-33.271
-33.071
-32.888
-32.722
-32.577
-32.454
-32.354
-32.279
-32.23
-32.209
-32.216
-32.252
-32.318
-32.415
-32.544
-32.706
-32.9
-33.127
-33.387
-33.68
-34.007
-34.365
-34.753
-35.171
-35.617
-36.088
-36.584
-37.101
-37.639
-38.193
-38.763
-39.345
-39.937
-40.534
-41.135
-41.733
-42.327
-42.911
-43.482
-44.036
-44.567
-45.074
-45.552
-45.998
-46.41
-46.783
-47.115
-47.402
-47.641
-47.829
-47.963
-48.041
-48.059
-48.016
-47.911
-47.745
-47.516
-47.224
-46.87
-46.454
-45.978
-45.442
-44.847
-44.195
-43.489
-42.732
-41.929
-41.085
-40.207
-39.302
-38.378
-37.443
-36.505
-35.571
-34.648
-33.74
-32.855
-31.996
-31.168
-30.374
-29.619
-28.908
-28.251
-27.654
-27.124
-26.664
-26.279
-25.972
-25.749
-25.609
-25.55
-25.57
-25.668
-25.851
-26.136
-26.527
-27.02
-27.608
-28.277
-29.013
-29.802
-30.613
-31.399
-32.119
-32.727
-33.2
-33.545
-33.756
-33.818
-33.714
-33.404
-32.886
-32.198
-31.361
-30.392
-29.321
-28.173
-27.041
-26.086
-25.445
-25.248
-25.587
-26.488
-28
-30.189
-33.091
-36.733
-41.058
-45.925
-51.239
-56.953
-63.011
-69.33
-75.676
-81.665
-86.925
-91.096
-93.883
-94.984
-93.958
-90.523
-84.689
-76.732
-67.358
-57.334
-47.056
-37.041
-27.994
-19.929
-12.399
-4.344
6.318
21.206
40.974
66.427
98.177
135.196
175.167
214.007
245.867
266.007
270.964
257.08
221.002
161.394
79.421
-20.65
-132.039
-248.697
-365.243
-475.435
-572.17
-648.993
-701.961
-729.994
-734.198
-715.848
-676.24
-618.161
-546.67
-468.175
-387.939
-310.106
-238.147
-174.932
-123.354
-85.214
-59.98
-45.306
-38.888
-38.16
-40.175
-42.757
-43.668
-41.101
-34.75
-25.24
-13.406
-0.69
11.101
20.947
28.022
31.785
32.484
30.521
26.435
21.221
15.966
11.349
7.831
5.619
4.632
4.868
6.306
8.773
12.067
15.992
20.388
25.173
30.277
35.586
40.932
46.099
50.914
55.274
59.119
62.427
65.19
67.391
69.05
70.228
70.982
71.376
71.466
71.29
70.908
70.393
69.831
69.318
68.935
68.729
68.743
69.003
69.527
70.332
71.421
72.782
74.405
76.287
78.424
80.821
83.473
86.368
89.491
92.828
96.364
100.087
103.982
108.033
112.226
116.545
120.976
125.505
130.116
134.786
139.495
144.216
148.926
153.598
158.207
162.725
167.125
171.383
175.473
179.371
183.055
186.501
189.687
192.594
195.202
197.494
199.454
201.067
202.32
203.202
203.704
203.818
203.538
202.86
201.783
200.306
198.432
196.164
193.509
190.473
187.067
183.302
179.192
174.753
170
164.952
159.63
154.054
148.248
142.234
136.037
129.68
123.19
116.591
109.909
103.17
96.398
89.62
82.859
76.139
69.485
62.919
56.462
50.135
43.958
37.949
32.127
26.505
21.1
15.924
10.989
6.305
1.879
-2.28
-6.169
-9.784
-13.123
-16.186
-18.975
-21.493
-23.745
-25.736
-27.475
-28.97
-30.231
-31.268
-32.092
-32.716
-33.153
-33.416
-33.517
-33.471
-33.292
-32.992
-32.586
-32.086
-31.505
-30.858
-30.154
-29.407
-28.628
-27.826
-27.013
-26.197
-25.387
-24.59
-23.814
-23.064
-22.345
-21.662
-21.018
-20.416
-19.856
-19.341
-18.87
-18.443
-18.059
-17.715
-17.411
-17.143
-16.908
-16.704
-16.528
-16.376
-16.245
-16.131
-16.032
-15.945
-15.867
-15.794
-15.725
-15.657
-15.588
-15.515
-15.438
-15.354
-15.262
-15.162
-15.052
-14.933
-14.804
-14.665
-14.517
-14.361
-14.197
-14.026
-13.85
-13.67
-13.488
-13.304
-13.122
-12.941
-12.764
-12.593
-12.428
-12.271
-12.122
-11.984
-11.855
-11.738
-11.631
-11.536
-11.452
-11.378
-11.315
-11.263
-11.221
-11.188
-11.164
-11.149
-11.143
-11.143
-11.151
-11.164
-11.183
-11.206
-11.233
-11.264
-11.299
-11.335
-11.375
-11.417
-11.462
-11.51
-11.561
-11.614
-11.67
-11.729
-11.791
-11.857
-11.926
-12.001
-12.081
-12.166
-12.259
-12.36
-12.467
-12.582
-12.703
-12.831
-12.965
-13.102
-13.241
-13.381
-13.521
-13.658
-13.792
-13.921
-14.041
-14.149
-14.244
-14.322
-14.38
-14.412
-14.416
-14.387
-14.323
-14.22
-14.077
-13.89
-13.657
-13.376
-13.043
-12.659
-12.221
-11.726
-11.172
-10.56
-9.891
-9.166
-8.388
-7.56
-6.686
-5.773
-4.828
-3.856
-2.862
-1.852
-0.83
0.199
1.229
2.258
3.282
4.295
5.288
6.252
7.178
8.058
8.887
9.658
10.363
10.997
11.557
12.047
12.465
12.809
13.068
13.223
13.269
13.208
13.048
12.797
12.465
12.068
11.639
11.231
10.893
10.657
10.53
10.506
10.59
10.796
11.148
11.667
12.331
13.111
13.994
14.966
16.009
17.068
18.019
18.694
18.949
18.679
17.83
16.373
14.249
11.413
7.84
3.56
-1.292
-6.595
-12.283
-18.301
-24.596
-31.013
-37.224
-42.84
-47.506
-50.889
-52.762
-52.827
-50.644
-46.034
-39.109
-30.266
-20.342
-10.033
0.4
10.495
19.601
27.682
35.065
42.732
52.617
66.02
83.249
104.742
130.784
160.257
190.98
219.295
240.088
249.33
244.246
221.933
179.754
116.998
35.206
-61.568
-167.216
-276.258
-383.852
-484.281
-570.994
-638.371
-683.207
-704.673
-703.837
-681.968
-640.331
-581.806
-511.506
-435.378
-358.173
-283.724
-215.187
-155.232
-106.64
-70.924
-47.304
-33.606
-27.749
-27.375
-29.882
-33.223
-35.184
-34.123
-29.792
-22.708
-13.609
-3.724
5.44
12.983
18.16
20.548
20.38
18.058
14.142
9.498
5.078
1.483
-0.932
-2.011
-1.844
-0.487
1.996
5.418
9.544
14.177
19.165
24.397
29.807
35.278
40.619
45.665
50.287
54.403
57.994
61.055
63.576
65.563
67.061
68.126
68.827
69.224
69.36
69.285
69.062
68.767
68.491
68.311
68.281
68.442
68.822
69.44
70.315
71.45
72.838
74.468
76.335
78.436
80.773
83.344
86.137
89.139
92.335
95.71
99.254
102.952
106.79
110.754
114.828
119.002
123.263
127.597
131.983
136.402
140.832
145.25
149.633
153.957
158.197
162.328
166.327
170.17
173.835
177.3
180.542
183.542
186.279
188.737
190.896
192.742
194.261
195.438
196.265
196.732
196.831
196.557
195.905
194.874
193.463
191.674
189.509
186.973
184.073
180.817
177.216
173.279
169.022
164.458
159.604
154.478
149.098
143.485
137.66
131.644
125.459
119.13
112.678
106.129
99.504
92.829
86.126
79.419
72.73
66.081
59.494
52.99
46.588
40.307
34.164
28.177
22.36
16.728
11.294
6.07
1.066
-3.709
-8.246
-12.541
-16.587
-20.382
-23.923
-27.211
-30.245
-33.028
-35.563
-37.856
-39.912
-41.738
-43.342
-44.732
-45.919
-46.912
-47.721
-48.359
-48.835
-49.161
-49.349
-49.409
-49.355
-49.196
-48.943
-48.609
-48.202
-47.733
-47.211
-46.647
-46.048
-45.422
-44.779
-44.124
-43.464
-42.806
-42.154
-41.514
-40.889
-40.282
-39.696
-39.134
-38.595
-38.082
-37.595
-37.132
-36.694
-36.28
-35.888
-35.516
-35.164
-34.83
-34.51
-34.205
-33.911
-33.627
-33.35
-33.08
-32.813
-32.549
-32.286
-32.022
-31.756
-31.486
-31.212
-30.931
-30.644
-30.348
-30.044
-29.731
-29.407
-29.074
-28.732
-28.379
-28.018
-27.648
-27.271
-26.888
-26.499
-26.105
-25.709
-25.31
-24.911
-24.513
-24.116
-23.721
-23.331
-22.946
-22.567
-22.196
-21.832
-21.478
-21.134
-20.801
-20.479
-20.17
-19.876
-19.596
-19.332
-19.086
-18.859
-18.653
-18.468
-18.305
-18.166
-18.052
-17.962
-17.898
-17.861
-17.851
-17.867
-17.912
-17.985
-18.086
-18.215
-18.372
-18.557
-18.768
-19.005
-19.267
-19.554
-19.864
-20.196
-20.55
-20.924
-21.317
-21.726
-22.15
-22.584
-23.027
-23.475
-23.923
-24.366
-24.801
-25.223
-25.628
-26.013
-26.373
-26.703
-26.999
-27.257
-27.473
-27.642
-27.759
-27.82
-27.82
-27.758
-27.631
-27.438
-27.177
-26.846
-26.444
-25.972
-25.428
-24.814
-24.127
-23.368
-22.539
-21.643
-20.684
-19.666
-18.594
-17.476
-16.321
-15.137
-13.934
-12.717
-11.495
-10.274
-9.061
-7.863
-6.684
-5.529
-4.404
-3.317
-2.278
-1.296
-0.377
0.474
1.254
1.955
2.572
3.104
3.557
3.932
4.228
4.434
4.535
4.525
4.408
4.192
3.887
3.5
3.051
2.573
2.12
1.75
1.499
1.377
1.386
1.535
1.84
2.334
3.03
3.91
4.95
6.134
7.455
8.897
10.397
11.823
13.007
13.782
14.035
13.705
12.738
11.067
8.641
5.427
1.484
-3.053
-8.081
-13.545
-19.418
-25.633
-31.975
-38.083
-43.551
-47.976
-51.052
-52.452
-51.705
-48.538
-42.95
-35.222
-26.12
-16.435
-6.538
3.07
11.728
19.479
26.795
34.76
45.478
60.503
80.382
105.78
137.12
173.221
211.661
248.331
277.511
294.623
296.415
279.494
240.75
179.097
95.943
-4.401
-115.255
-230.588
-345.208
-453.069
-546.969
-620.612
-670.195
-694.549
-695.159
-673.812
-631.812
-572.131
-500.479
-423.364
-346.384
-274.142
-209.072
-153.001
-108.572
-76.973
-56.869
-45.711
-40.426
-37.741
-35.982
-34.107
-30.249
-23.354
-13.564
-1.567
11.047
22.24
31.125
37.424
40.637
40.785
38.157
33.07
26.489
19.694
13.421
8.101
4.033
1.181
-0.427
-0.686
0.28
2.256
5.081
8.572
12.613
17.174
22.135
27.342
32.617
37.725
42.503
46.861
50.731
54.09
56.925
59.216
60.983
62.286
63.185
63.746
64.022
64.047
63.881
63.597
63.278
63.023
62.901
62.953
63.214
63.707
64.446
65.447
66.709
68.216
69.955
71.921
74.109
76.521
79.151
81.985
85.007
88.202
91.557
95.058
98.694
102.447
106.305
110.252
114.277
118.367
122.506
126.676
130.855
135.021
139.152
143.226
147.218
151.104
154.86
158.463
161.891
165.124
168.139
170.917
173.437
175.683
177.637
179.284
180.609
181.598
182.24
182.525
182.445
181.993
181.163
179.952
178.359
176.384
174.028
171.297
168.195
164.73
160.912
156.752
152.263
147.459
142.357
136.975
131.331
125.447
119.344
113.045
106.572
99.949
93.201
86.352
79.427
72.45
65.447
58.441
51.456
44.517
37.646
30.865
24.197
17.662
11.279
5.068
-0.955
-6.773
-12.371
-17.736
-22.856
-27.72
-32.32
-36.648
-40.698
-44.468
-47.953
-51.155
-54.073
-56.71
-59.071
-61.161
-62.986
-64.554
-65.875
-66.958
-67.814
-68.454
-68.891
-69.137
-69.203
-69.105
-68.853
-68.463
-67.947
-67.318
-66.59
-65.775
-64.885
-63.934
-62.933
-61.894
-60.826
-59.74
-58.646
-57.552
-56.467
-55.396
-54.348
-53.327
-52.338
-51.385
-50.47
-49.596
-48.765
-47.977
-47.232
-46.53
-45.871
-45.253
-44.675
-44.135
-43.632
-43.163
-42.728
-42.323
-41.947
-41.596
-41.27
-40.966
-40.682
-40.414
-40.162
-39.923
-39.695
-39.477
-39.266
-39.061
-38.862
-38.666
-38.473
-38.282
-38.094
-37.907
-37.722
-37.54
-37.36
-37.184
-37.013
-36.846
-36.684
-36.529
-36.379
-36.237
-36.102
-35.974
-35.853
-35.74
-35.633
-35.533
-35.439
-35.35
-35.267
-35.189
-35.115
-35.046
-34.98
-34.917
-34.856
-34.798
-34.741
-34.686
-34.63
-34.575
-34.518
-34.459
-34.398
-34.333
-34.265
-34.193
-34.117
-34.037
-33.954
-33.867
-33.778
-33.686
-33.593
-33.501
-33.41
-33.321
-33.237
-33.16
-33.09
-33.031
-32.983
-32.948
-32.926
-32.919
-32.928
-32.952
-32.994
-33.052
-33.128
-33.221
-33.331
-33.46
-33.607
-33.771
-33.95
-34.144
-34.35
-34.567
-34.792
-35.021
-35.25
-35.478
-35.7
-35.912
-36.111
-36.292
-36.449
-36.579
-36.676
-36.735
-36.75
-36.715
-36.626
-36.479
-36.272
-36
-35.663
-35.258
-34.783
-34.237
-33.62
-32.931
-32.169
-31.333
-30.425
-29.447
-28.403
-27.296
-26.131
-24.914
-23.653
-22.357
-21.034
-19.691
-18.333
-16.969
-15.606
-14.25
-12.907
-11.583
-10.284
-9.02
-7.803
-6.642
-5.545
-4.518
-3.567
-2.698
-1.919
-1.231
-0.63
-0.114
0.315
0.647
0.865
0.964
0.946
0.821
0.597
0.281
-0.107
-0.534
-0.947
-1.288
-1.522
-1.639
-1.636
-1.505
-1.229
-0.775
-0.126
0.699
1.681
2.808
4.07
5.455
6.898
8.269
9.4
10.126
10.331
9.956
8.943
7.228
4.762
1.512
-2.467
-7.043
-12.118
-17.636
-23.561
-29.819
-36.188
-42.305
-47.762
-52.157
-55.174
-56.483
-55.616
-52.301
-46.534
-38.572
-29.136
-18.971
-8.437
1.954
11.499
20.182
28.392
37.104
48.281
63.354
82.808
107.339
137.487
172.235
209.354
244.936
273.449
290.457
292.751
276.85
239.418
179.109
97.064
-2.635
-113.452
-229.422
-345.325
-454.924
-550.697
-626.036
-676.869
-701.814
-702.278
-680.033
-636.422
-574.627
-500.677
-421.349
-342.457
-268.74
-202.665
-146.081
-101.648
-70.419
-50.845
-40.2
-35.276
-32.745
-30.937
-28.779
-24.353
-16.641
-5.871
7.182
20.865
33.142
43.151
50.602
54.964
56.247
54.749
50.811
45.41
39.81
34.714
30.537
27.568
25.77
25.161
25.833
27.645
30.38
33.876
37.952
42.5
47.487
52.798
58.283
63.77
69.033
73.912
78.324
82.202
85.526
88.285
90.462
92.079
93.2
93.886
94.204
94.208
93.936
93.447
92.817
92.13
91.486
90.955
90.582
90.404
90.447
90.731
91.275
92.082
93.139
94.44
95.981
97.762
99.789
102.059
104.559
107.279
110.204
113.324
116.627
120.103
123.736
127.513
131.422
135.448
139.581
143.805
148.099
152.443
156.814
161.188
165.543
169.852
174.09
178.231
182.251
186.127
189.834
193.35
196.652
199.717
202.526
205.058
207.295
209.218
210.813
212.063
212.957
213.483
213.632
213.396
212.768
211.745
210.325
208.508
206.297
203.695
200.708
197.345
193.616
189.532
185.108
180.359
175.303
169.956
164.341
158.478
152.388
146.095
139.622
132.993
126.234
119.368
112.422
105.42
98.387
91.35
84.331
77.356
70.449
63.632
56.928
50.358
43.942
37.7
31.647
25.802
20.178
14.789
9.646
4.758
0.134
-4.219
-8.298
-12.098
-15.62
-18.861
-21.825
-24.515
-26.933
-29.087
-30.983
-32.628
-34.032
-35.204
-36.155
-36.896
-37.437
-37.793
-37.975
-37.997
-37.872
-37.613
-37.234
-36.749
-36.172
-35.515
-34.79
-34.012
-33.19
-32.338
-31.464
-30.579
-29.691
-28.81
-27.942
-27.096
-26.275
-25.487
-24.735
-24.024
-23.357
-22.737
-22.165
-21.644
-21.174
-20.756
-20.391
-20.079
-19.82
-19.612
-19.455
-19.347
-19.288
-19.275
-19.306
-19.379
-19.492
-19.642
-19.827
-20.044
-20.291
-20.567
-20.868
-21.193
-21.541
-21.908
-22.295
-22.7
-23.12
-23.556
-24.006
-24.47
-24.946
-25.433
-25.932
-26.44
-26.958
-27.485
-28.018
-28.559
-29.104
-29.653
-30.205
-30.759
-31.312
-31.864
-32.414
-32.961
-33.503
-34.04
-34.571
-35.093
-35.608
-36.112
-36.606
-37.088
-37.556
-38.011
-38.45
-38.873
-39.28
-39.669
-40.039
-40.392
-40.725
-41.038
-41.332
-41.606
-41.861
-42.095
-42.311
-42.509
-42.689
-42.855
-43.006
-43.146
-43.276
-43.399
-43.516
-43.629
-43.74
-43.851
-43.964
-44.08
-44.202
-44.332
-44.471
-44.62
-44.783
-44.959
-45.149
-45.354
-45.573
-45.807
-46.053
-46.312
-46.58
-46.857
-47.142
-47.431
-47.724
-48.019
-48.311
-48.599
-48.877
-49.143
-49.39
-49.615
-49.811
-49.973
-50.096
-50.175
-50.206
-50.185
-50.107
-49.969
-49.765
-49.493
-49.15
-48.732
-48.235
-47.659
-47.003
-46.269
-45.457
-44.572
-43.619
-42.602
-41.53
-40.408
-39.242
-38.037
-36.799
-35.534
-34.246
-32.939
-31.619
-30.294
-28.974
-27.671
-26.395
-25.159
-23.972
-22.845
-21.786
-20.806
-19.909
-19.096
-18.368
-17.733
-17.201
-16.792
-16.518
-16.376
-16.363
-16.469
-16.684
-16.995
-17.369
-17.756
-18.109
-18.395
-18.599
-18.732
-18.792
-18.769
-18.647
-18.397
-18.023
-17.556
-17.013
-16.398
-15.729
-15.035
-14.404
-13.996
-13.947
-14.36
-15.301
-16.783
-18.84
-21.515
-24.831
-28.785
-33.299
-38.233
-43.491
-49.019
-54.756
-60.631
-66.437
-71.806
-76.397
-79.882
-81.96
-82.42
-80.941
-77.132
-70.898
-62.408
-52.138
-40.926
-29.371
-17.784
-6.694
3.444
12.671
21.434
30.953
42.923
58.306
77.484
100.869
128.271
158.349
188.414
214.277
231.585
236.934
227.565
200.841
154.611
88.644
5.606
-89.526
-191.494
-295.153
-395.618
-487.613
-564.587
-621.589
-656.855
-670.594
-663.926
-638.857
-597.145
-541.373
-477.203
-409.922
-343.174
-280.227
-223.02
-172.48
-130.424
-98.276
-74.657
-57.899
-46.314
-37.395
-30.06
-24.033
-18.062
-10.894
-2.51
6.902
16.487
24.503
30.356
34.128
35.614
34.765
31.722
26.663
20.336
13.96
8.257
3.58
0.147
-2.057
-2.975
-2.504
-0.742
2.065
5.681
9.905
14.604
19.707
25.099
30.607
36.013
41.12
45.796
49.964
53.593
56.67
59.174
61.11
62.524
63.478
64.049
64.306
64.296
64.076
63.714
63.294
62.915
62.662
62.589
62.734
63.127
63.786
64.729
65.964
67.479
69.265
71.315
73.627
76.203
79.041
82.131
85.458
89.007
92.765
96.72
100.86
105.17
109.636
114.244
118.98
123.834
128.788
133.822
138.915
144.042
149.178
154.299
159.379
164.389
169.302
174.094
178.737
183.209
187.483
191.537
195.346
198.888
202.141
205.087
207.704
209.976
211.884
213.416
214.557
215.298
215.628
215.54
215.029
214.09
212.723
210.928
208.707
206.066
203.011
199.55
195.696
191.459
186.857
181.903
176.618
171.021
165.133
158.976
152.573
145.948
139.126
132.132
124.992
117.733
110.381
102.964
95.507
88.039
80.586
73.174
65.828
58.573
51.432
44.429
37.584
30.919
24.451
18.2
12.18
6.408
0.896
-4.344
-9.303
-13.972
-18.345
-22.417
-26.186
-29.65
-32.809
-35.666
-38.223
-40.486
-42.46
-44.153
-45.573
-46.731
-47.636
-48.302
-48.741
-48.965
-48.99
-48.83
-48.499
-48.011
-47.383
-46.628
-45.762
-44.799
-43.754
-42.641
-41.473
-40.264
-39.026
-37.772
-36.512
-35.259
-34.021
-32.807
-31.626
-30.485
-29.391
-28.349
-27.365
-26.442
-25.584
-24.793
-24.07
-23.416
-22.83
-22.312
-21.86
-21.472
-21.145
-20.876
-20.661
-20.496
-20.378
-20.302
-20.263
-20.257
-20.279
-20.323
-20.385
-20.459
-20.541
-20.626
-20.71
-20.787
-20.853
-20.905
-20.939
-20.952
-20.941
-20.902
-20.836
-20.738
-20.61
-20.449
-20.257
-20.032
-19.777
-19.492
-19.179
-18.84
-18.478
-18.095
-17.694
-17.28
-16.855
-16.423
-15.988
-15.553
-15.124
-14.704
-14.297
-13.909
-13.543
-13.203
-12.895
-12.622
-12.389
-12.199
-12.055
-11.961
-11.918
-11.929
-11.996
-12.119
-12.299
-12.536
-12.83
-13.179
-13.584
-14.041
-14.548
-15.101
-15.696
-16.331
-16.999
-17.694
-18.412
-19.146
-19.891
-20.64
-21.388
-22.127
-22.851
-23.554
-24.226
-24.862
-25.454
-25.993
-26.472
-26.885
-27.225
-27.489
-27.67
-27.765
-27.769
-27.68
-27.497
-27.218
-26.84
-26.364
-25.788
-25.115
-24.348
-23.492
-22.55
-21.528
-20.435
-19.279
-18.071
-16.817
-15.526
-14.206
-12.865
-11.512
-10.153
-8.793
-7.44
-6.104
-4.794
-3.523
-2.301
-1.137
-0.039
0.983
1.922
2.77
3.524
4.19
4.764
5.242
5.613
5.864
5.987
5.99
5.878
5.655
5.336
4.942
4.511
4.108
3.779
3.546
3.424
3.413
3.521
3.775
4.187
4.75
5.456
6.288
7.235
8.31
9.475
10.646
11.699
12.457
12.781
12.596
11.835
10.44
8.375
5.591
2.114
-1.925
-6.424
-11.3
-16.494
-22.01
-27.725
-33.368
-38.62
-43.059
-46.301
-48.082
-48.035
-45.731
-41.02
-33.972
-24.995
-14.961
-4.52
5.963
15.942
25.036
33.384
41.549
50.835
62.966
78.96
99.28
124.375
154.033
186.792
219.725
248.419
268.366
276.023
268.521
243.077
197.429
131.394
47.794
-48.127
-150.772
-254.874
-355.5
-447.092
-522.996
-578.245
-611.052
-622.174
-613.421
-586.937
-544.625
-489.602
-427.658
-364.385
-303.834
-248.334
-198.796
-155.917
-121.075
-95.022
-76.205
-62.246
-50.671
-39.963
-29.996
-20.728
-11.466
-1.337
9.657
20.636
30.06
36.902
41.161
43.111
42.988
40.751
36.403
30.473
23.982
17.822
12.481
8.172
4.876
2.666
1.709
2.013
3.445
5.81
8.891
12.542
16.691
21.231
26.024
30.902
35.645
40.081
44.104
47.637
50.653
53.141
55.08
56.477
57.377
57.839
57.937
57.736
57.283
56.635
55.861
55.044
54.284
53.661
53.222
53.009
53.045
53.351
53.949
54.845
56.032
57.5
59.246
61.267
63.567
66.145
68.99
72.087
75.42
78.976
82.744
86.71
90.86
95.179
99.651
104.262
109.001
113.85
118.788
123.792
128.838
133.9
138.952
143.968
148.919
153.778
158.517
163.111
167.533
171.76
175.765
179.525
183.017
186.22
189.112
191.676
193.893
195.747
197.224
198.313
199.003
199.286
199.154
198.604
197.633
196.24
194.427
192.198
189.557
186.512
183.072
179.251
175.06
170.516
165.636
160.438
154.943
149.173
143.151
136.899
130.444
123.809
117.021
110.105
103.089
95.998
88.858
81.697
74.539
67.41
60.335
53.337
46.44
39.664
33.031
26.561
20.272
14.18
8.302
2.652
-2.757
-7.915
-12.811
-17.439
-21.79
-25.863
-29.652
-33.158
-36.381
-39.322
-41.986
-44.377
-46.5
-48.364
-49.976
-51.347
-52.486
-53.404
-54.113
-54.626
-54.955
-55.112
-55.111
-54.965
-54.688
-54.291
-53.789
-53.194
-52.517
-51.771
-50.969
-50.12
-49.235
-48.325
-47.399
-46.466
-45.533
-44.609
-43.699
-42.81
-41.947
-41.114
-40.316
-39.554
-38.832
-38.152
-37.514
-36.92
-36.37
-35.863
-35.398
-34.975
-34.592
-34.247
-33.94
-33.668
-33.429
-33.221
-33.042
-32.89
-32.764
-32.661
-32.578
-32.515
-32.469
-32.438
-32.421
-32.416
-32.421
-32.437
-32.461
-32.492
-32.529
-32.573
-32.621
-32.673
-32.729
-32.789
-32.853
-32.919
-32.99
-33.064
-33.143
-33.227
-33.315
-33.41
-33.51
-33.617
-33.73
-33.852
-33.981
-34.119
-34.267
-34.424
-34.592
-34.77
-34.96
-35.162
-35.375
-35.601
-35.839
-36.09
-36.355
-36.632
-36.924
-37.23
-37.551
-37.887
-38.238
-38.606
-38.99
-39.389
-39.805
-40.236
-40.684
-41.146
-41.624
-42.117
-42.625
-43.147
-43.682
-44.229
-44.786
-45.352
-45.926
-46.505
-47.088
-47.672
-48.255
-48.836
-49.413
-49.983
-50.545
-51.094
-51.629
-52.146
-52.643
-53.115
-53.558
-53.969
-54.345
-54.681
-54.975
-55.223
-55.421
-55.567
-55.658
-55.69
-55.659
-55.563
-55.399
-55.163
-54.855
-54.473
-54.019
-53.491
-52.89
-52.218
-51.476
-50.666
-49.791
-48.851
-47.849
-46.789
-45.674
-44.51
-43.301
-42.054
-40.776
-39.474
-38.157
-36.835
-35.515
-34.206
-32.914
-31.647
-30.413
-29.216
-28.063
-26.958
-25.908
-24.92
-24
-23.156
-22.393
-21.715
-21.125
-20.624
-20.212
-19.888
-19.648
-19.487
-19.405
-19.403
-19.484
-19.657
-19.926
-20.285
-20.727
-21.235
-21.782
-22.334
-22.854
-23.302
-23.651
-23.882
-23.981
-23.946
-23.766
-23.439
-22.963
-22.316
-21.48
-20.448
-19.229
-17.856
-16.418
-15.017
-13.766
-12.796
-12.196
-12.043
-12.402
-13.298
-14.745
-16.706
-19.11
-21.923
-25.125
-28.688
-32.587
-36.716
-40.814
-44.602
-47.769
-49.945
-50.886
-50.283
-47.698
-42.993
-36.265
-27.884
-18.667
-9.297
-0.057
8.562
15.955
22.189
27.603
33.216
41.211
53.144
69.721
91.783
119.522
151.496
185.387
217.475
242.11
254.548
251.09
227.734
181.963
114.089
26.361
-76.675
-187.91
-300.745
-409.103
-505.369
-582.691
-636.931
-665.929
-670.011
-652.078
-614.765
-560.602
-494.924
-423.989
-352.921
-286.26
-226.643
-174.738
-131.899
-99.874
-77.954
-63.989
-55.569
-49.587
-44.353
-39.622
-34.394
-27.217
-17.772
-6.459
5.628
16.489
25.14
31.632
35.801
37.5
36.824
33.945
29.562
24.899
20.744
17.432
15.177
13.98
13.876
14.986
17.252
20.45
24.378
28.861
33.779
39.067
44.616
50.258
55.798
61.06
65.913
70.272
74.097
77.362
80.054
82.177
83.758
84.841
85.486
85.758
85.706
85.388
84.871
84.233
83.572
82.971
82.488
82.168
82.042
82.13
82.454
83.022
83.833
84.883
86.171
87.697
89.465
91.477
93.726
96.203
98.896
101.793
104.884
108.162
111.616
115.235
119.008
122.925
126.977
131.151
135.43
139.795
144.225
148.696
153.187
157.673
162.129
166.529
170.849
175.065
179.154
183.093
186.857
190.424
193.772
196.881
199.73
202.3
204.574
206.535
208.167
209.457
210.394
210.967
211.168
210.988
210.422
209.468
208.123
206.387
204.262
201.752
198.863
195.604
191.983
188.013
183.708
179.081
174.151
168.934
163.45
157.719
151.762
145.601
139.257
132.754
126.116
119.365
112.526
105.622
98.677
91.714
84.757
77.828
70.948
64.14
57.424
50.82
44.346
38.02
31.859
25.878
20.092
14.513
9.153
4.022
-0.873
-5.523
-9.924
-14.071
-17.963
-21.597
-24.976
-28.1
-30.973
-33.599
-35.982
-38.13
-40.049
-41.747
-43.233
-44.516
-45.605
-46.512
-47.245
-47.816
-48.235
-48.514
-48.664
-48.696
-48.619
-48.447
-48.188
-47.854
-47.455
-47
-46.499
-45.962
-45.396
-44.809
-44.21
-43.604
-42.999
-42.399
-41.81
-41.236
-40.68
-40.146
-39.637
-39.153
-38.699
-38.273
-37.879
-37.515
-37.183
-36.882
-36.613
-36.375
-36.168
-35.991
-35.844
-35.726
-35.635
-35.572
-35.534
-35.521
-35.532
-35.563
-35.615
-35.686
-35.773
-35.875
-35.99
-36.117
-36.254
-36.401
-36.554
-36.715
-36.88
-37.05
-37.224
-37.401
-37.58
-37.761
-37.944
-38.127
-38.31
-38.494
-38.677
-38.86
-39.041
-39.22
-39.395
-39.568
-39.736
-39.899
-40.056
-40.206
-40.349
-40.485
-40.614
-40.735
-40.847
-40.953
-41.05
-41.14
-41.223
-41.299
-41.367
-41.428
-41.483
-41.531
-41.573
-41.609
-41.639
-41.662
-41.681
-41.694
-41.701
-41.704
-41.701
-41.693
-41.682
-41.667
-41.65
-41.632
-41.615
-41.599
-41.586
-41.578
-41.576
-41.581
-41.593
-41.613
-41.643
-41.682
-41.732
-41.792
-41.863
-41.946
-42.04
-42.146
-42.262
-42.388
-42.524
-42.667
-42.818
-42.973
-43.13
-43.29
-43.449
-43.607
-43.763
-43.912
-44.054
-44.186
-44.303
-44.404
-44.483
-44.535
-44.558
-44.545
-44.496
-44.406
-44.272
-44.093
-43.864
-43.584
-43.252
-42.866
-42.424
-41.924
-41.365
-40.749
-40.078
-39.353
-38.577
-37.755
-36.891
-35.992
-35.066
-34.115
-33.146
-32.163
-31.171
-30.175
-29.179
-28.186
-27.199
-26.226
-25.274
-24.353
-23.471
-22.635
-21.849
-21.124
-20.464
-19.876
-19.362
-18.917
-18.542
-18.242
-18.028
-17.912
-17.9
-17.986
-18.163
-18.429
-18.769
-19.163
-19.574
-19.941
-20.217
-20.382
-20.421
-20.335
-20.114
-19.735
-19.182
-18.464
-17.588
-16.571
-15.424
-14.137
-12.745
-11.331
-10.018
-8.979
-8.357
-8.227
-8.659
-9.711
-11.428
-13.859
-16.987
-20.692
-24.87
-29.442
-34.353
-39.603
-45.077
-50.508
-55.568
-59.835
-62.919
-64.546
-64.349
-61.885
-56.996
-49.751
-40.553
-30.26
-19.506
-8.615
1.886
11.605
20.709
29.759
40.057
53.349
70.525
91.862
117.693
147.697
180.396
213.008
241.07
259.977
266.505
258.052
232.179
187.075
122.282
40.081
-54.365
-155.691
-259.288
-360.482
-454.556
-535.937
-599.075
-641.441
-663.317
-665.201
-648.073
-613.443
-562.872
-500.416
-431.968
-361.633
-292.382
-227.499
-169.101
-119.152
-80.227
-52.413
-33.648
-22.441
-16.855
-14.31
-13.564
-13.277
-11.244
-6.732
-0.104
8.364
17.451
25.529
32.116
36.856
39.112
38.94
36.586
32.33
27.142
22.13
17.849
14.66
12.764
12.087
12.651
14.484
17.386
21.102
25.414
30.131
35.162
40.466
45.942
51.427
56.719
61.645
66.107
70.058
73.487
76.38
78.72
80.523
81.848
82.765
83.344
83.644
83.698
83.557
83.286
82.963
82.681
82.512
82.5
82.68
83.076
83.706
84.588
85.726
87.105
88.716
90.555
92.619
94.914
97.435
100.17
103.109
106.237
109.543
113.015
116.643
120.411
124.308
128.321
132.438
136.648
140.936
145.284
149.671
154.077
158.478
162.851
167.174
171.42
175.565
179.586
183.459
187.163
190.675
193.972
197.035
199.842
202.376
204.619
206.552
208.161
209.431
210.351
210.909
211.097
210.906
210.33
209.366
208.011
206.263
204.126
201.6
198.692
195.407
191.756
187.749
183.399
178.72
173.728
168.44
162.876
157.056
151.001
144.734
138.276
131.652
124.885
118.001
111.024
103.979
96.891
89.785
82.686
75.619
68.607
61.673
54.84
48.129
41.562
35.157
28.934
22.91
17.1
11.519
6.18
1.094
-3.729
-8.282
-12.558
-16.554
-20.265
-23.692
-26.834
-29.693
-32.272
-34.577
-36.612
-38.384
-39.903
-41.177
-42.217
-43.032
-43.636
-44.039
-44.255
-44.296
-44.176
-43.909
-43.507
-42.985
-42.357
-41.635
-40.832
-39.963
-39.038
-38.07
-37.07
-36.049
-35.016
-33.98
-32.95
-31.933
-30.936
-29.965
-29.026
-28.122
-27.259
-26.44
-25.666
-24.941
-24.265
-23.641
-23.067
-22.545
-22.075
-21.655
-21.285
-20.964
-20.69
-20.461
-20.277
-20.134
-20.03
-19.963
-19.931
-19.931
-19.961
-20.019
-20.102
-20.209
-20.337
-20.484
-20.65
-20.832
-21.028
-21.237
-21.458
-21.69
-21.931
-22.18
-22.436
-22.698
-22.964
-23.234
-23.507
-23.781
-24.055
-24.328
-24.599
-24.867
-25.13
-25.387
-25.638
-25.881
-26.117
-26.343
-26.559
-26.766
-26.961
-27.144
-27.316
-27.475
-27.62
-27.752
-27.87
-27.974
-28.063
-28.138
-28.199
-28.245
-28.278
-28.298
-28.305
-28.299
-28.281
-28.253
-28.215
-28.167
-28.112
-28.05
-27.983
-27.912
-27.838
-27.763
-27.688
-27.615
-27.544
-27.476
-27.413
-27.355
-27.304
-27.259
-27.223
-27.195
-27.178
-27.17
-27.174
-27.188
-27.214
-27.25
-27.296
-27.352
-27.417
-27.49
-27.57
-27.657
-27.748
-27.844
-27.942
-28.042
-28.14
-28.234
-28.324
-28.405
-28.475
-28.532
-28.571
-28.591
-28.588
-28.561
-28.508
-28.424
-28.308
-28.156
-27.966
-27.736
-27.46
-27.137
-26.763
-26.337
-25.857
-25.322
-24.732
-24.085
-23.382
-22.623
-21.809
-20.941
-20.019
-19.044
-18.017
-16.942
-15.823
-14.664
-13.47
-12.246
-10.998
-9.736
-8.469
-7.201
-5.94
-4.692
-3.461
-2.256
-1.081
0.061
1.166
2.227
3.236
4.184
5.063
5.869
6.597
7.24
7.796
8.259
8.631
8.918
9.121
9.236
9.258
9.173
8.979
8.683
8.294
7.815
7.266
6.667
6.058
5.499
5.034
4.682
4.458
4.362
4.403
4.606
4.985
5.537
6.257
7.131
8.152
9.326
10.613
11.928
13.145
14.096
14.653
14.74
14.297
13.268
11.609
9.277
6.289
2.755
-1.229
-5.596
-10.299
-15.326
-20.56
-25.724
-30.481
-34.445
-37.252
-38.656
-38.333
-35.827
-30.95
-23.778
-14.684
-4.507
6.061
16.767
27.157
36.612
45.138
53.12
61.608
72.586
87.363
106.222
129.6
157.77
189.593
222.835
253.681
276.836
288.158
284.808
263.855
222.628
160.271
78.209
-19.299
-125.847
-235.58
-343.383
-443.722
-530.103
-596.65
-639.91
-659.263
-656.381
-633.533
-592.689
-536.276
-469.196
-397.569
-326.388
-259.45
-198.807
-145.35
-100.647
-66.491
-42.295
-25.848
-14.787
-6.396
0.748
6.835
12.83
20.235
29.403
39.915
50.736
60.007
66.861
71.456
73.717
73.503
70.918
66.135
59.851
53.362
47.484
42.568
38.846
36.304
34.977
35.007
36.337
38.734
41.993
45.913
50.35
55.262
60.555
66.082
71.661
77.055
82.095
86.687
90.774
94.34
97.366
99.828
101.744
103.173
104.184
104.848
105.224
105.343
105.261
105.048
104.788
104.582
104.499
104.581
104.86
105.357
106.089
107.074
108.312
109.785
111.481
113.394
115.521
117.865
120.422
123.177
126.118
129.229
132.497
135.914
139.465
143.138
146.92
150.799
154.764
158.805
162.908
167.054
171.226
175.401
179.559
183.68
187.739
191.713
195.58
199.318
202.905
206.323
209.55
212.566
215.351
217.888
220.159
222.147
223.835
225.209
226.255
226.961
227.316
227.312
226.939
226.191
225.064
223.554
221.661
219.384
216.727
213.692
210.286
206.517
202.395
197.932
193.139
188.033
182.628
176.942
170.995
164.804
158.391
151.776
144.98
138.028
130.94
123.742
116.456
109.106
101.717
94.312
86.915
79.55
72.24
65.006
57.871
50.855
43.979
37.261
30.718
24.367
18.223
12.299
6.607
1.157
-4.042
-8.983
-13.661
-18.071
-22.211
-26.08
-29.677
-33.005
-36.067
-38.867
-41.409
-43.702
-45.752
-47.569
-49.161
-50.539
-51.715
-52.699
-53.504
-54.143
-54.629
-54.973
-55.191
-55.294
-55.296
-55.21
-55.046
-54.818
-54.537
-54.213
-53.855
-53.474
-53.078
-52.675
-52.272
-51.876
-51.492
-51.127
-50.784
-50.467
-50.179
-49.922
-49.7
-49.511
-49.358
-49.24
-49.156
-49.106
-49.087
-49.099
-49.139
-49.204
-49.291
-49.398
-49.52
-49.656
-49.801
-49.953
-50.109
-50.266
-50.422
-50.573
-50.719
-50.857
-50.985
-51.102
-51.207
-51.299
-51.376
-51.438
-51.485
-51.517
-51.533
-51.534
-51.52
-51.491
-51.449
-51.395
-51.329
-51.253
-51.167
-51.075
-50.976
-50.874
-50.769
-50.664
-50.561
-50.461
-50.365
-50.275
-50.192
-50.118
-50.052
-49.996
-49.95
-49.915
-49.891
-49.879
-49.877
-49.887
-49.908
-49.941
-49.983
-50.037
-50.1
-50.173
-50.254
-50.344
-50.442
-50.546
-50.656
-50.771
-50.891
-51.013
-51.138
-51.263
-51.389
-51.513
-51.635
-51.755
-51.871
-51.984
-52.094
-52.2
-52.303
-52.403
-52.5
-52.595
-52.689
-52.782
-52.874
-52.967
-53.061
-53.156
-53.252
-53.349
-53.448
-53.549
-53.651
-53.755
-53.861
-53.967
-54.075
-54.184
-54.293
-54.402
-54.509
-54.615
-54.718
-54.815
-54.907
-54.99
-55.064
-55.124
-55.169
-55.196
-55.201
-55.179
-55.128
-55.043
-54.919
-54.752
-54.54
-54.278
-53.965
-53.598
-53.175
-52.696
-52.159
-51.566
-50.914
-50.204
-49.437
-48.614
-47.735
-46.802
-45.817
-44.784
-43.708
-42.592
-41.442
-40.263
-39.061
-37.842
-36.612
-35.379
-34.15
-32.934
-31.739
-30.577
-29.457
-28.393
-27.394
-26.472
-25.636
-24.895
-24.257
-23.726
-23.307
-23.001
-22.812
-22.743
-22.793
-22.966
-23.262
-23.685
-24.237
-24.919
-25.73
-26.663
-27.709
-28.859
-30.102
-31.425
-32.812
-34.246
-35.713
-37.203
-38.71
-40.221
-41.721
-43.188
-44.592
-45.909
-47.121
-48.21
-49.16
-49.962
-50.617
-51.142
-51.574
-51.949
-52.288
-52.589
-52.836
-53.012
-53.096
-53.065
-52.903
-52.568
-52.02
-51.237
-50.201
-48.883
-47.233
-45.16
-42.524
-39.202
-35.097
-30.149
-24.349
-17.692
-10.202
-1.945
6.991
16.462
26.316
36.456
46.787
57.196
67.547
77.625
87.129
95.806
103.427
109.777
114.713
118.087
119.776
119.753
118.041
114.75
110.016
103.911
96.496
