-86.649
-80.465
-74.381
-68.42
-62.604
-56.954
-51.49
-46.23
-41.19
-36.385
-31.828
-27.531
-23.504
-19.754
-16.287
-13.106
-10.214
-7.612
-5.296
-3.265
-1.512
-0.031
1.186
2.149
2.871
3.365
3.645
3.726
3.625
3.359
2.945
2.403
1.749
1.003
0.184
-0.691
-1.602
-2.531
-3.458
-4.365
-5.236
-6.052
-6.798
-7.459
-8.023
-8.478
-8.815
-9.023
-9.096
-9.027
-8.813
-8.449
-7.934
-7.264
-6.441
-5.469
-4.35
-3.091
-1.699
-0.18
1.452
3.187
5.013
6.918
8.89
10.919
12.992
15.097
17.224
19.363
21.503
23.629
25.728
27.785
29.786
31.723
33.582
35.353
37.03
38.605
40.076
41.447
42.714
43.872
44.911
45.82
46.594
47.24
47.759
48.157
48.454
48.672
48.859
49.069
49.334
49.676
50.108
50.627
51.244
51.978
52.824
53.784
54.858
56.037
57.328
58.73
60.192
61.629
62.909
63.874
64.416
64.465
63.946
62.832
61.093
58.709
55.759
52.347
48.54
44.415
40.003
35.319
30.508
25.827
21.594
18.204
16.011
15.263
16.265
19.331
24.528
31.696
40.345
49.706
59.124
68.231
76.778
84.509
91.673
98.949
107.231
117.776
131.58
148.915
169.543
192.974
217.295
239.46
256.572
265.244
262.296
245.553
213.185
163.973
99.389
22.963
-61.754
-150.151
-237.297
-318.618
-388.643
-442.373
-477.754
-494.776
-494.012
-477.436
-447.587
-407.539
-362.211
-316.342
-272.708
-232.959
-197.959
-167.688
-142.054
-120.389
-100.738
-81.464
-61.877
-41.751
-21.509
-1.813
16.948
34.157
48.886
60.582
69.06
74.404
77.077
77.568
76.271
73.684
70.317
66.58
62.847
59.386
56.384
54.026
52.451
51.756
52.008
53.213
55.34
58.331
62.076
66.447
71.307
76.493
81.851
87.23
92.463
97.422
102.004
106.126
109.748
112.847
115.408
117.447
118.998
120.103
120.823
121.223
121.358
121.297
121.113
120.88
120.686
120.598
120.665
120.929
121.418
122.154
123.158
124.436
125.985
127.802
129.886
132.233
134.846
137.719
140.842
144.203
147.785
151.572
155.552
159.708
164.025
168.484
173.068
177.759
182.541
187.393
192.292
197.211
202.124
207.002
211.817
216.541
221.144
225.598
229.873
233.945
237.787
241.376
244.687
247.698
250.387
252.736
254.725
256.339
257.564
258.385
258.792
258.778
258.335
257.46
256.151
254.407
252.23
249.625
246.599
243.16
239.32
235.089
230.485
225.522
220.22
214.599
208.679
202.484
196.036
189.36
182.482
175.426
168.219
160.885
153.45
145.941
138.383
130.801
123.22
115.665
108.158
100.724
93.383
86.159
79.069
72.135
65.372
58.799
52.43
46.278
40.357
34.676
29.245
24.071
19.16
14.518
10.147
6.048
2.222
-1.332
-4.617
-7.636
-10.393
-12.893
-15.144
-17.151
-18.922
-20.467
-21.793
-22.909
-23.827
-24.556
-25.106
-25.488
-25.714
-25.795
-25.741
-25.565
-25.278
-24.89
-24.413
-23.857
-23.233
-22.549
-21.817
-21.043
-20.238
-19.408
-18.562
-17.706
-16.846
-15.99
-15.143
-14.309
-13.495
-12.703
-11.938
-11.205
-10.506
-9.846
-9.226
-8.651
-8.121
-7.641
-7.21
-6.831
-6.505
-6.233
-6.014
-5.849
-5.738
-5.68
-5.676
-5.725
-5.827
-5.98
-6.184
-6.438
-6.742
-7.094
-7.493
-7.939
-8.43
-8.966
-9.545
-10.166
-10.829
-11.533
-12.275
-13.056
-13.872
-14.723
-15.606
-16.52
-17.462
-18.432
-19.428
-20.447
-21.49
-22.555
-23.641
-24.748
-25.873
-27.016
-28.175
-29.35
-30.539
-31.74
-32.953
-34.177
-35.41
-36.651
-37.898
-39.15
-40.405
-41.66
-42.912
-44.16
-45.398
-46.626
-47.838
-49.033
-50.209
-51.363
-52.492
-53.593
-54.665
-55.703
-56.705
-57.666
-58.583
-59.451
-60.266
-61.024
-61.723
-62.36
-62.932
-63.437
-63.872
-64.236
-64.526
-64.743
-64.883
-64.946
-64.931
-64.84
-64.675
-64.439
-64.136
-63.771
-63.352
-62.884
-62.375
-61.829
-61.253
-60.652
-60.03
-59.392
-58.739
-58.077
-57.412
-56.753
-56.11
-55.494
-54.913
-54.377
-53.893
-53.47
-53.115
-52.832
-52.619
-52.475
-52.406
-52.421
-52.539
-52.769
-53.108
-53.551
-54.087
-54.706
-55.393
-56.114
-56.818
-57.458
-57.997
-58.424
-58.75
-58.973
-59.087
-59.077
-58.916
-58.612
-58.202
-57.706
-57.135
-56.511
-55.873
-55.32
-55.019
-55.114
-55.713
-56.879
-58.623
-60.982
-63.993
-67.668
-72.003
-76.903
-82.213
-87.839
-93.713
-99.748
-105.865
-111.831
-117.257
-121.809
-125.163
-127.031
-127.249
-125.522
-121.506
-115.163
-106.687
-96.598
-85.755
-74.738
-63.833
-53.546
-44.313
-36.119
-28.609
-20.661
-10.695
2.156
18.168
37.565
60.099
84.477
108.249
127.776
139.13
139.203
125.659
96.325
49.49
-14.575
-93.141
-181.753
-275.375
-369.046
-458.105
-537.271
-600.696
-644.69
-668.36
-672.593
-659.374
-631.238
-590.938
-542.599
-491.803
-442.694
-397.531
-357.415
-322.423
-292.377
-267.102
-245.453
-225.248
-205.089
-184.507
-163.61
-143.163
-123.821
-105.957
-90.166
-77.266
-67.67
-61.443
-58.408
-58.007
-59.699
-63.066
-67.639
-72.977
-78.732
-84.544
-90.044
-94.984
-99.168
-102.438
-104.734
-105.996
-106.183
-105.321
-103.481
-100.778
-97.365
-93.383
-88.95
-84.185
-79.214
-74.192
-69.311
-64.714
-60.488
-56.692
-53.344
-50.461
-48.059
-46.116
-44.57
-43.353
-42.399
-41.647
-41.057
-40.572
-40.127
-39.647
-39.048
-38.269
-37.271
-36.02
-34.495
-32.677
-30.551
-28.119
-25.398
-22.399
-19.132
-15.602
-11.812
-7.772
-3.498
0.993
5.682
10.553
15.589
20.773
26.084
31.503
37.012
42.592
48.228
53.899
59.58
65.248
70.877
76.441
81.912
87.264
92.47
97.502
102.335
106.945
111.308
115.403
119.208
122.702
125.868
128.689
131.149
133.235
134.934
136.237
137.136
137.627
137.705
137.368
136.618
135.457
133.889
131.921
129.562
126.823
123.715
120.252
116.451
112.33
107.907
103.203
98.24
93.04
87.628
82.028
76.265
70.365
64.352
58.254
52.095
45.901
39.697
33.508
27.356
21.266
15.259
9.356
3.578
-2.058
-7.534
-12.835
-17.946
-22.854
-27.549
-32.02
-36.26
-40.262
-44.021
-47.534
-50.799
-53.817
-56.588
-59.115
-61.402
-63.454
-65.277
-66.879
-68.268
-69.453
-70.444
-71.251
-71.885
-72.359
-72.683
-72.87
-72.931
-72.879
-72.725
-72.48
-72.155
-71.762
-71.31
-70.809
-70.267
-69.694
-69.097
-68.482
-67.856
-67.224
-66.591
-65.961
-65.338
-64.723
-64.12
-63.529
-62.951
-62.388
-61.838
-61.303
-60.78
-60.269
-59.769
-59.277
-58.794
-58.315
-57.841
-57.368
-56.895
-56.42
-55.942
-55.459
-54.97
-54.473
-53.969
-53.456
-52.934
-52.403
-51.864
-51.317
-50.763
-50.204
-49.639
-49.072
-48.504
-47.936
-47.37
-46.809
-46.254
-45.707
-45.17
-44.644
-44.133
-43.636
-43.155
-42.691
-42.245
-41.819
-41.411
-41.024
-40.656
-40.309
-39.981
-39.673
-39.385
-39.115
-38.862
-38.625
-38.403
-38.195
-37.998
-37.812
-37.635
-37.466
-37.302
-37.144
-36.988
-36.835
-36.682
-36.528
-36.372
-36.212
-36.048
-35.879
-35.704
-35.523
-35.336
-35.144
-34.947
-34.745
-34.538
-34.327
-34.111
-33.891
-33.667
-33.438
-33.204
-32.966
-32.724
-32.479
-32.23
-31.978
-31.722
-31.461
-31.194
-30.92
-30.636
-30.339
-30.027
-29.698
-29.349
-28.979
-28.587
-28.169
-27.723
-27.247
-26.738
-26.195
-25.612
-24.987
-24.318
-23.603
-22.841
-22.031
-21.175
-20.274
-19.33
-18.347
-17.327
-16.272
-15.181
-14.058
-12.902
-11.715
-10.497
-9.249
-7.973
-6.678
-5.369
-4.057
-2.749
-1.451
-0.17
1.085
2.308
3.493
4.643
5.755
6.824
7.839
8.777
9.628
10.389
11.064
11.654
12.166
12.607
13.006
13.407
13.854
14.38
14.993
15.679
16.438
17.271
18.192
19.222
20.34
21.513
22.725
23.965
25.221
26.459
27.578
28.417
28.827
28.692
27.948
26.572
24.515
21.746
18.249
14.044
9.26
4.029
-1.568
-7.487
-13.701
-20.099
-26.422
-32.295
-37.336
-41.204
-43.634
-44.323
-42.882
-39.167
-33.273
-25.592
-16.92
-7.885
1.173
9.784
17.579
24.714
31.74
39.807
50.528
64.882
83.278
106.164
133.379
163.591
194.18
221.164
240.376
248.501
242.807
220.599
179.75
120.099
44.19
-43.226
-136.979
-232.017
-323.303
-405.198
-471.422
-517.726
-542.982
-548.151
-535.17
-506.621
-465.402
-415.722
-363.495
-313.209
-267.263
-226.922
-192.335
-163.25
-139.504
-119.879
-101.941
-84.142
-65.845
-46.914
-28.046
-9.858
7.335
22.848
35.789
45.722
52.537
56.432
57.996
57.727
56.072
53.558
50.635
47.693
45.036
42.85
41.303
40.54
40.657
41.719
43.751
46.718
50.574
55.233
60.555
66.395
72.574
78.91
85.258
91.459
97.388
102.957
108.069
112.665
116.72
120.218
123.162
125.581
127.503
128.97
130.051
130.807
131.309
131.635
131.858
132.056
132.297
132.632
133.1
133.736
134.559
135.591
136.844
138.318
140.019
141.951
144.113
146.511
149.142
152.002
155.082
158.373
161.864
165.545
169.41
173.449
177.65
182.004
186.497
191.12
195.858
200.693
205.606
210.573
215.571
220.577
225.565
230.51
235.386
240.165
244.824
249.337
253.681
257.831
261.762
265.452
268.879
272.022
274.861
277.379
279.557
281.38
282.835
283.911
284.598
284.887
284.773
284.252
283.32
281.979
280.23
278.078
275.528
272.588
269.269
265.583
261.543
257.167
252.469
247.47
242.189
236.647
230.865
224.867
218.676
212.315
205.809
199.183
192.461
185.668
178.828
171.967
165.108
158.275
151.491
144.778
138.156
131.646
125.267
119.037
112.971
107.086
101.394
95.908
90.638
85.594
80.783
76.21
71.881
67.798
63.963
60.377
57.038
53.944
51.091
48.475
46.091
43.931
41.988
40.255
38.721
37.378
36.216
35.223
34.389
33.703
33.154
32.729
32.418
32.21
32.093
32.057
32.092
32.187
32.333
32.522
32.745
32.994
33.261
33.541
33.827
34.113
34.394
34.666
34.924
35.165
35.387
35.585
35.759
35.905
36.023
36.111
36.169
36.196
36.191
36.156
36.089
35.992
35.865
35.71
35.527
35.317
35.082
34.822
34.538
34.232
33.904
33.556
33.187
32.799
32.393
31.97
31.529
31.071
30.598
30.11
29.606
29.088
28.557
28.012
27.455
26.886
26.306
25.716
25.117
24.51
23.895
23.273
22.645
22.011
21.373
20.73
20.084
19.435
18.784
18.131
17.477
16.823
16.168
15.515
14.862
14.21
13.559
12.909
12.261
11.614
10.968
10.323
9.679
9.036
8.392
7.748
7.101
6.452
5.798
5.139
4.473
3.799
3.116
2.423
1.718
1.002
0.271
-0.474
-1.234
-2.011
-2.807
-3.622
-4.456
-5.31
-6.184
-7.078
-7.991
-8.922
-9.871
-10.835
-11.814
-12.806
-13.811
-14.827
-15.851
-16.881
-17.916
-18.952
-19.985
-21.013
-22.03
-23.033
-24.018
-24.984
-25.926
-26.842
-27.729
-28.583
-29.403
-30.186
-30.928
-31.628
-32.28
-32.885
-33.44
-33.945
-34.402
-34.81
-35.171
-35.49
-35.77
-36.014
-36.224
-36.402
-36.549
-36.669
-36.761
-36.827
-36.867
-36.883
-36.882
-36.869
-36.851
-36.832
-36.818
-36.812
-36.821
-36.85
-36.899
-36.966
-37.049
-37.152
-37.285
-37.463
-37.693
-37.972
-38.295
-38.654
-39.044
-39.45
-39.845
-40.18
-40.409
-40.499
-40.445
-40.252
-39.917
-39.431
-38.77
-37.919
-36.908
-35.769
-34.519
-33.175
-31.75
-30.293
-28.922
-27.793
-27.053
-26.812
-27.122
-28.02
-29.567
-31.806
-34.77
-38.431
-42.642
-47.282
-52.276
-57.573
-63.146
-68.854
-74.392
-79.397
-83.5
-86.371
-87.785
-87.437
-84.918
-80.094
-73.073
-64.286
-54.6
-44.659
-34.77
-25.398
-16.914
-9.176
-1.667
6.803
17.946
32.777
51.665
74.963
102.397
132.478
162.441
188.196
205.45
210.874
201.89
176.017
131.336
67.925
-11.41
-101.697
-197.629
-294.293
-387.198
-471.304
-540.595
-590.665
-620.035
-629.548
-620.976
-596.317
-557.223
-506.425
-449.209
-390.726
-334.744
-283.428
-237.583
-197.856
-165.652
-141.846
-125.06
-113.02
-103.236
-94.127
-85.538
-77.391
-68.946
-59.254
-48.204
-36.639
-26.133
-17.772
-11.635
-7.522
-5.254
-4.944
-6.692
-10.046
-14.054
-17.897
-21.088
-23.42
-24.927
-25.532
-25.077
-23.562
-21.096
-17.849
-14.025
-9.751
-5.08
-0.106
5.071
10.317
15.444
20.313
24.822
28.891
32.497
35.627
38.258
40.398
42.078
43.34
44.254
44.885
45.273
45.471
45.536
45.539
45.571
45.704
45.985
46.452
47.129
48.035
49.192
50.611
52.285
54.211
56.385
58.804
61.472
64.389
67.546
70.931
74.531
78.333
82.326
86.502
90.845
95.344
99.984
104.752
109.636
114.621
119.686
124.81
129.968
135.137
140.293
145.409
150.459
155.415
160.251
164.944
169.467
173.796
177.908
181.779
185.387
188.71
191.728
194.423
196.777
198.773
200.396
201.636
202.48
202.919
202.945
202.554
201.74
200.503
198.843
196.763
194.266
191.36
188.054
184.359
180.288
175.857
171.081
165.98
160.573
154.882
148.929
142.739
136.335
129.741
122.985
116.092
109.089
102.001
94.857
87.681
80.502
73.344
66.233
59.193
52.25
45.424
38.74
32.217
25.875
19.732
13.805
8.11
2.66
-2.534
-7.461
-12.112
-16.482
-20.565
-24.359
-27.862
-31.074
-33.998
-36.637
-38.995
-41.08
-42.898
-44.458
-45.771
-46.845
-47.694
-48.328
-48.762
-49.007
-49.077
-48.986
-48.749
-48.378
-47.888
-47.293
-46.606
-45.841
-45.01
-44.125
-43.2
-42.244
-41.269
-40.284
-39.298
-38.321
-37.358
-36.418
-35.506
-34.628
-33.787
-32.988
-32.234
-31.526
-30.867
-30.257
-29.697
-29.186
-28.724
-28.311
-27.945
-27.625
-27.349
-27.115
-26.921
-26.765
-26.646
-26.56
-26.505
-26.48
-26.482
-26.51
-26.561
-26.633
-26.726
-26.836
-26.963
-27.105
-27.261
-27.428
-27.607
-27.795
-27.992
-28.197
-28.409
-28.627
-28.85
-29.079
-29.311
-29.546
-29.784
-30.024
-30.265
-30.506
-30.746
-30.985
-31.222
-31.455
-31.683
-31.905
-32.12
-32.326
-32.521
-32.705
-32.875
-33.031
-33.17
-33.292
-33.397
-33.484
-33.551
-33.599
-33.627
-33.636
-33.625
-33.596
-33.549
-33.485
-33.406
-33.314
-33.211
-33.099
-32.98
-32.856
-32.73
-32.605
-32.482
-32.365
-32.256
-32.159
-32.075
-32.01
-31.965
-31.945
-31.952
-31.99
-32.06
-32.166
-32.308
-32.49
-32.711
-32.972
-33.274
-33.617
-34.002
-34.429
-34.895
-35.4
-35.942
-36.518
-37.124
-37.757
-38.411
-39.083
-39.767
-40.46
-41.157
-41.856
-42.55
-43.236
-43.91
-44.568
-45.207
-45.82
-46.404
-46.953
-47.465
-47.939
-48.371
-48.761
-49.108
-49.412
-49.678
-49.906
-50.097
-50.253
-50.374
-50.462
-50.517
-50.542
-50.534
-50.496
-50.431
-50.345
-50.244
-50.137
-50.025
-49.915
-49.813
-49.724
-49.654
-49.604
-49.569
-49.55
-49.553
-49.588
-49.67
-49.806
-49.991
-50.224
-50.505
-50.821
-51.157
-51.48
-51.73
-51.87
-51.882
-51.755
-51.493
-51.094
-50.54
-49.824
-48.96
-47.96
-46.843
-45.622
-44.291
-42.889
-41.501
-40.246
-39.299
-38.798
-38.822
-39.442
-40.717
-42.684
-45.384
-48.791
-52.777
-57.247
-62.123
-67.348
-72.93
-78.752
-84.56
-90.048
-94.812
-98.479
-100.788
-101.375
-99.821
-95.996
-89.992
-82.225
-73.557
-64.607
-55.699
-47.339
-39.891
-33.191
-26.661
-19.011
-8.53
5.751
24.183
47.113
74.31
104.354
134.483
160.531
178.126
183.833
174.924
148.767
103.264
38.385
-43.15
-136.414
-235.913
-336.298
-432.361
-518.285
-587.646
-636.181
-662.762
-668.398
-655.246
-626.087
-583.988
-533.345
-480.156
-428.942
-382.104
-340.834
-305.206
-274.92
-249.737
-228.421
-208.583
-188.723
-168.334
-147.44
-126.804
-107.114
-88.731
-72.335
-58.831
-48.659
-41.917
-38.401
-37.501
-38.676
-41.484
-45.386
-49.905
-54.64
-59.185
-63.241
-66.617
-69.137
-70.695
-71.235
-70.703
-69.102
-66.486
-62.94
-58.609
-53.65
-48.213
-42.464
-36.554
-30.637
-24.902
-19.5
-14.535
-10.086
-6.182
-2.835
-0.062
2.149
3.842
5.073
5.913
6.43
6.678
6.723
6.637
6.5
6.399
6.406
6.567
6.921
7.495
8.311
9.39
10.739
12.352
14.225
16.356
18.743
21.391
24.297
27.453
30.845
34.462
38.29
42.321
46.543
50.941
55.501
60.209
65.052
70.015
75.083
80.234
85.445
90.691
95.948
101.19
106.39
111.52
116.552
121.461
126.219
130.804
135.189
139.351
143.266
146.912
150.269
153.317
156.039
158.417
160.437
162.086
163.352
164.226
164.702
164.772
164.433
163.684
162.525
160.959
158.99
156.624
153.87
150.739
147.244
143.399
139.219
134.724
129.933
124.866
119.546
113.996
108.239
102.299
96.202
89.972
83.636
77.218
70.744
64.238
57.726
51.231
44.777
38.387
32.084
25.888
19.819
13.898
8.141
2.567
-2.811
-7.976
-12.918
-17.624
-22.085
-26.293
-30.241
-33.925
-37.341
-40.488
-43.366
-45.975
-48.32
-50.404
-52.234
-53.815
-55.156
-56.266
-57.154
-57.83
-58.306
-58.593
-58.702
-58.646
-58.437
-58.088
-57.611
-57.018
-56.323
-55.537
-54.674
-53.744
-52.759
-51.73
-50.669
-49.585
-48.488
-47.387
-46.291
-45.206
-44.139
-43.098
-42.086
-41.109
-40.169
-39.269
-38.412
-37.597
-36.826
-36.098
-35.413
-34.768
-34.162
-33.593
-33.059
-32.555
-32.079
-31.628
-31.198
-30.784
-30.383
-29.991
-29.602
-29.213
-28.82
-28.418
-28.002
-27.569
-27.114
-26.634
-26.123
-25.58
-24.999
-24.378
-23.715
-23.007
-22.251
-21.448
-20.595
-19.693
-18.741
-17.739
-16.689
-15.591
-14.447
-13.258
-12.025
-10.752
-9.44
-8.091
-6.71
-5.298
-3.86
-2.399
-0.918
0.578
2.086
3.602
5.121
6.64
8.153
9.656
11.144
12.613
14.058
15.474
16.857
18.201
19.504
20.761
21.97
23.127
24.229
25.275
26.261
27.187
28.05
28.849
29.582
30.249
30.849
31.383
31.852
32.257
32.598
32.88
33.102
33.269
33.383
33.445
33.46
33.432
33.363
33.259
33.124
32.964
32.784
32.591
32.391
32.189
31.993
31.806
31.634
31.482
31.356
31.26
31.199
31.177
31.2
31.271
31.394
31.574
31.812
32.109
32.465
32.88
33.351
33.876
34.452
35.077
35.748
36.464
37.222
38.023
38.866
39.748
40.667
41.619
42.597
43.593
44.601
45.614
46.624
47.626
48.611
49.573
50.511
51.421
52.297
53.132
53.903
54.601
55.224
55.774
56.256
56.686
57.072
57.437
57.822
58.266
58.808
59.482
60.291
61.236
62.331
63.589
65.041
66.693
68.502
70.417
72.401
74.403
76.379
78.248
79.852
81.044
81.689
81.656
80.89
79.342
76.939
73.632
69.389
64.241
58.349
51.893
45
37.797
30.383
22.952
15.884
9.561
4.364
0.667
-1.273
-1.117
1.58
6.977
14.966
25.134
36.603
48.661
60.933
72.85
83.945
94.304
104.372
115.334
128.897
146.021
167.028
192.241
221.35
252.849
283.983
310.582
328.267
333.675
324.132
297.071
250.512
184.494
101.789
7.332
-93.479
-195.403
-293.318
-381.474
-453.422
-504.829
-534.493
-543.271
-533.099
-506.569
-466.558
-417.349
-364.939
-313.869
-266.607
-224.449
-187.533
-155.635
-128.598
-105.197
-83.059
-60.688
-37.539
-13.649
10.151
33.116
54.805
74.458
91.109
104.25
113.73
119.708
122.73
123.306
121.863
118.907
114.93
110.341
105.513
100.789
96.441
92.711
89.79
87.788
86.772
86.776
87.789
89.753
92.559
96.06
100.101
104.542
109.245
114.071
118.864
123.441
127.644
131.367
134.543
137.141
139.148
140.557
141.388
141.697
141.555
141.042
140.226
139.167
137.929
136.587
135.225
133.934
132.786
131.833
131.115
130.662
130.498
130.645
131.109
131.883
132.96
134.334
136.005
137.972
140.232
142.772
145.577
148.631
151.918
155.426
159.136
163.03
167.089
171.293
175.623
180.061
184.584
189.167
193.781
198.397
202.986
207.517
211.959
216.28
220.448
224.436
228.212
231.752
235.027
238.012
240.683
243.017
244.993
246.593
247.8
248.597
248.972
248.914
248.415
247.469
246.073
244.224
241.925
239.178
235.99
232.368
228.324
223.868
219.017
213.786
208.195
202.263
196.014
189.469
182.654
175.595
168.32
160.854
153.227
145.465
137.598
129.653
121.658
113.641
105.629
97.647
89.721
81.877
74.137
66.524
59.059
51.761
44.648
37.737
31.043
24.579
18.356
12.386
6.676
1.235
-3.934
-8.826
-13.439
-17.773
-21.828
-25.607
-29.113
-32.352
-35.329
-38.053
-40.53
-42.772
-44.786
-46.584
-48.177
-49.577
-50.794
-51.841
-52.73
-53.473
-54.081
-54.567
-54.942
-55.216
-55.401
-55.506
-55.542
-55.517
-55.441
-55.321
-55.167
-54.985
-54.782
-54.566
-54.341
-54.115
-53.891
-53.674
-53.47
-53.28
-53.109
-52.958
-52.831
-52.73
-52.656
-52.611
-52.595
-52.61
-52.657
-52.736
-52.848
-52.993
-53.173
-53.387
-53.636
-53.921
-54.244
-54.604
-55.002
-55.439
-55.916
-56.434
-56.992
-57.591
-58.231
-58.912
-59.633
-60.394
-61.194
-62.032
-62.907
-63.818
-64.763
-65.741
-66.75
-67.787
-68.852
-69.94
-71.051
-72.181
-73.327
-74.487
-75.656
-76.833
-78.013
-79.193
-80.37
-81.538
-82.695
-83.836
-84.957
-86.055
-87.124
-88.162
-89.166
-90.13
-91.054
-91.934
-92.768
-93.554
-94.29
-94.977
-95.612
-96.196
-96.727
-97.206
-97.633
-98.009
-98.335
-98.611
-98.84
-99.023
-99.162
-99.259
-99.317
-99.337
-99.322
-99.275
-99.196
-99.089
-98.956
-98.798
-98.62
-98.423
-98.21
-97.984
-97.748
-97.502
-97.249
-96.989
-96.724
-96.454
-96.177
-95.894
-95.603
-95.306
-95.001
-94.688
-94.365
-94.033
-93.689
-93.333
-92.962
-92.576
-92.172
-91.749
-91.305
-90.841
-90.356
-89.853
-89.332
-88.797
-88.249
-87.691
-87.124
-86.548
-85.965
-85.373
-84.773
-84.162
-83.54
-82.907
-82.266
-81.621
-80.977
-80.337
-79.707
-79.088
-78.483
-77.898
-77.335
-76.788
-76.258
-75.746
-75.258
-74.814
-74.42
-74.075
-73.775
-73.51
-73.268
-73.04
-72.798
-72.496
-72.096
-71.557
-70.858
-70.012
-69.017
-67.865
-66.546
-65.029
-63.318
-61.458
-59.475
-57.391
-55.242
-53.06
-50.942
-49.056
-47.547
-46.549
-46.158
-46.398
-47.319
-48.984
-51.425
-54.659
-58.62
-63.161
-68.181
-73.631
-79.448
-85.535
-91.646
-97.387
-102.387
-106.295
-108.83
-109.71
-108.52
-105.007
-99.194
-91.358
-82.171
-72.329
-62.157
-52.106
-42.832
-34.365
-26.358
-17.94
-7.299
6.867
24.952
47.573
75.217
106.942
140.724
172.977
198.54
213.358
214.552
198.943
163.56
107.131
30.585
-62.131
-164.769
-271.796
-378.335
-478.769
-566.575
-635.555
-681.737
-704.571
-705.928
-687.792
-651.959
-601.058
-539.885
-474.919
-411.763
-353.498
-301.387
-256.247
-219.299
-191.771
-172.966
-159.893
-149.252
-139.163
-129.043
-118.892
-108.295
-96.152
-82.182
-67.601
-54.249
-43.375
-35.336
-29.839
-26.578
-25.726
-27.318
-30.809
-35.223
-39.613
-43.398
-46.368
-48.507
-49.707
-49.814
-48.775
-46.672
-43.671
-39.935
-35.591
-30.712
-25.371
-19.697
-13.839
-7.975
-2.3
3.035
7.934
12.332
16.201
19.526
22.292
24.509
26.228
27.511
28.426
29.032
29.375
29.511
29.518
29.484
29.506
29.658
29.988
30.535
31.329
32.393
33.75
35.407
37.356
39.592
42.113
44.918
48.011
51.39
55.043
58.955
63.112
67.498
72.102
76.908
81.9
87.059
92.368
97.809
103.367
109.019
114.742
120.506
126.285
132.048
137.765
143.405
148.936
154.327
159.547
164.566
169.358
173.893
178.146
182.089
185.701
188.959
191.841
194.33
196.409
198.063
199.28
200.049
200.365
200.221
199.613
198.542
197.008
195.018
192.576
189.692
186.378
182.646
178.512
173.996
169.117
163.897
158.359
152.529
146.433
140.099
133.555
126.83
119.954
112.956
105.866
98.715
91.531
84.344
77.181
70.072
63.044
56.121
49.33
42.693
36.234
29.972
23.928
18.118
12.56
7.267
2.251
-2.475
-6.904
-11.029
-14.845
-18.347
-21.535
-24.409
-26.972
-29.225
-31.176
-32.83
-34.195
-35.28
-36.097
-36.655
-36.968
-37.048
-36.909
-36.566
-36.032
-35.323
-34.454
-33.44
-32.297
-31.039
-29.682
-28.24
-26.728
-25.159
-23.547
-21.906
-20.246
-18.579
-16.918
-15.271
-13.648
-12.057
-10.508
-9.007
-7.56
-6.173
-4.851
-3.599
-2.42
-1.316
-0.291
0.655
1.52
2.305
3.008
3.63
4.174
4.639
5.028
5.344
5.588
5.764
5.875
5.923
5.914
5.85
5.735
5.573
5.368
5.124
4.845
4.534
4.197
3.837
3.458
3.064
2.659
2.247
1.832
1.417
1.006
0.604
0.212
-0.164
-0.523
-0.862
-1.176
-1.465
-1.724
-1.953
-2.15
-2.313
-2.44
-2.53
-2.583
-2.598
-2.575
-2.514
-2.415
-2.28
-2.109
-1.904
-1.666
-1.397
-1.099
-0.774
-0.424
-0.053
0.337
0.743
1.161
1.588
2.021
2.456
2.889
3.316
3.734
4.141
4.532
4.905
5.257
5.584
5.885
6.156
6.396
6.603
6.774
6.909
7.007
7.069
7.095
7.085
7.042
6.967
6.863
6.733
6.578
6.402
6.208
5.999
5.78
5.556
5.331
5.11
4.898
4.702
4.527
4.378
4.259
4.175
4.13
4.128
4.173
4.269
4.418
4.624
4.889
5.218
5.612
6.072
6.597
7.186
7.838
8.548
9.312
10.125
10.981
11.875
12.803
13.761
14.745
15.75
16.773
17.809
18.856
19.908
20.954
21.987
22.999
23.982
24.932
25.841
26.702
27.51
28.264
28.964
29.61
30.193
30.695
31.108
31.427
31.657
31.806
31.884
31.9
31.88
31.869
31.914
32.068
32.359
32.784
33.349
34.063
34.941
36.016
37.285
38.708
40.261
41.925
43.677
45.487
47.26
48.828
50.024
50.689
50.713
50.049
48.636
46.406
43.332
39.411
34.723
29.422
23.593
17.261
10.504
3.458
-3.604
-10.25
-16.051
-20.663
-23.67
-24.613
-23.224
-19.413
-13.399
-5.808
2.764
11.949
21.243
30.064
38.404
46.662
55.967
68.251
84.662
105.52
131.223
161.992
197.084
234.676
270.859
300.14
318.622
323.54
312.203
282.21
231.529
160.141
71.821
-27.355
-132.3
-238.363
-340.977
-434.712
-512.486
-569.245
-603.689
-616.615
-609.445
-583.677
-540.425
-483.198
-418.757
-352.954
-290.001
-232.678
-182.061
-139.609
-107.734
-86.436
-73.109
-64.961
-58.858
-52.857
-46.834
-40.018
-30.87
-19.066
-5.202
9.532
23.029
34.146
42.936
49.236
52.859
53.91
52.494
49.205
45.221
41.323
37.909
35.291
33.518
32.648
32.833
34.05
36.143
38.985
42.423
46.332
50.67
55.351
60.274
65.333
70.369
75.211
79.728
83.827
87.463
90.619
93.273
95.413
97.052
98.232
99.024
99.495
99.692
99.658
99.444
99.115
98.755
98.451
98.267
98.247
98.422
98.817
99.456
100.36
101.535
102.972
104.662
106.602
108.791
111.233
113.922
116.846
119.991
123.34
126.88
130.601
134.487
138.521
142.689
146.972
151.355
155.824
160.361
164.941
169.543
174.139
178.706
183.216
187.644
191.959
196.136
200.147
203.967
207.571
210.936
214.036
216.851
219.359
221.541
223.378
224.854
225.953
226.662
226.97
226.868
226.349
225.405
224.034
222.234
220.004
217.348
214.27
210.776
206.874
202.574
197.888
192.832
187.421
181.671
175.603
169.237
162.595
155.702
148.579
141.254
133.751
126.095
118.314
110.435
102.483
94.484
86.466
78.454
70.473
62.549
54.706
46.967
39.353
31.887
24.588
17.476
10.568
3.879
-2.574
-8.78
-14.725
-20.4
-25.796
-30.905
-35.722
-40.244
-44.467
-48.391
-52.017
-55.347
-58.385
-61.135
-63.604
-65.8
-67.73
-69.403
-70.83
-72.021
-72.987
-73.742
-74.296
-74.663
-74.856
-74.887
-74.771
-74.519
-74.146
-73.664
-73.086
-72.423
-71.689
-70.894
-70.051
-69.17
-68.261
-67.336
-66.402
-65.47
-64.546
-63.639
-62.756
-61.903
-61.084
-60.307
-59.573
-58.888
-58.255
-57.675
-57.153
-56.688
-56.282
-55.935
-55.649
-55.422
-55.255
-55.146
-55.095
-55.1
-55.161
-55.275
-55.441
-55.657
-55.921
-56.231
-56.583
-56.976
-57.407
-57.872
-58.369
-58.894
-59.446
-60.019
-60.612
-61.222
-61.845
-62.478
-63.118
-63.763
-64.409
-65.054
-65.696
-66.332
-66.959
-67.577
-68.183
-68.774
-69.35
-69.909
-70.449
-70.968
-71.466
-71.941
-72.391
-72.817
-73.217
-73.591
-73.939
-74.261
-74.557
-74.828
-75.072
-75.293
-75.489
-75.662
-75.814
-75.944
-76.056
-76.15
-76.229
-76.293
-76.344
-76.383
-76.41
-76.427
-76.435
-76.434
-76.424
-76.406
-76.38
-76.348
-76.309
-76.264
-76.213
-76.154
-76.087
-76.011
-75.926
-75.829
-75.717
-75.591
-75.447
-75.285
-75.102
-74.897
-74.667
-74.41
-74.123
-73.803
-73.446
-73.05
-72.61
-72.124
-71.589
-71.006
-70.373
-69.688
-68.951
-68.163
-67.323
-66.431
-65.49
-64.496
-63.453
-62.361
-61.224
-60.045
-58.828
-57.579
-56.303
-55.008
-53.702
-52.391
-51.079
-49.773
-48.477
-47.196
-45.935
-44.697
-43.484
-42.304
-41.163
-40.071
-39.036
-38.064
-37.16
-36.33
-35.58
-34.912
-34.328
-33.822
-33.39
-33.035
-32.766
-32.596
-32.532
-32.567
-32.696
-32.917
-33.214
-33.568
-33.944
-34.28
-34.527
-34.662
-34.674
-34.564
-34.332
-33.964
-33.445
-32.776
-31.968
-31.036
-29.988
-28.814
-27.539
-26.232
-25.017
-24.075
-23.555
-23.546
-24.113
-25.306
-27.16
-29.708
-32.943
-36.754
-41.039
-45.716
-50.743
-56.133
-61.8
-67.53
-73
-77.79
-81.519
-83.902
-84.595
-83.196
-79.555
-73.738
-66.117
-57.495
-48.489
-39.454
-30.872
-23.079
-15.901
-8.755
-0.436
10.66
25.493
44.469
67.994
95.864
126.705
157.822
185.149
204.462
212.403
206.217
183.23
141.343
80.432
3.086
-85.9
-181.307
-278.054
-371.104
-454.843
-523.033
-571.463
-599.006
-606.606
-596.154
-570.141
-531.363
-483.916
-433.594
-384.805
-339.879
-300.006
-265.336
-235.657
-210.851
-189.786
-170.09
-150.237
-129.662
-108.331
-87.013
-66.405
-46.875
-29.116
-14.062
-2.196
6.321
11.619
14.248
14.713
13.437
10.932
7.634
3.898
0.069
-3.552
-6.719
-9.205
-10.857
-11.59
-11.337
-10.068
-7.79
-4.545
-0.455
4.328
9.649
15.36
21.341
27.472
33.605
39.571
45.22
50.448
55.196
59.44
63.155
66.323
68.954
71.088
72.791
74.135
75.18
75.975
76.576
77.045
77.456
77.891
78.412
79.061
79.872
80.867
82.069
83.498
85.161
87.049
89.155
91.476
94.01
96.76
99.724
102.89
106.248
109.785
113.49
117.356
121.372
125.525
129.802
134.191
138.679
143.256
147.906
152.609
157.346
162.093
166.828
171.526
176.162
180.71
185.144
189.439
193.57
197.512
201.243
204.737
207.971
210.925
213.578
215.91
217.902
219.537
220.8
221.677
222.158
222.231
221.889
221.125
219.934
218.314
216.265
213.788
210.888
207.568
203.839
199.71
195.194
190.305
185.06
179.476
173.574
167.375
160.904
154.183
147.239
140.097
132.784
125.328
117.756
110.098
102.38
94.632
86.881
79.154
71.479
63.882
56.387
49.02
41.804
34.76
27.909
21.272
14.864
8.704
2.805
-2.82
-8.159
-13.203
-17.945
-22.378
-26.5
-30.308
-33.802
-36.984
-39.856
-42.424
-44.694
-46.673
-48.37
-49.796
-50.961
-51.877
-52.557
-53.015
-53.263
-53.316
-53.188
-52.894
-52.448
-51.864
-51.156
-50.338
-49.423
-48.425
-47.355
-46.225
-45.048
-43.832
-42.589
-41.328
-40.056
-38.783
-37.514
-36.257
-35.015
-33.795
-32.6
-31.433
-30.297
-29.193
-28.123
-27.087
-26.086
-25.119
-24.187
-23.288
-22.422
-21.587
-20.782
-20.007
-19.259
-18.539
-17.844
-17.175
-16.53
-15.909
-15.313
-14.74
-14.191
-13.666
-13.166
-12.691
-12.242
-11.819
-11.422
-11.054
-10.715
-10.406
-10.129
-9.885
-9.675
-9.501
-9.365
-9.268
-9.21
-9.194
-9.22
-9.289
-9.401
-9.558
-9.76
-10.007
-10.299
-10.635
-11.015
-11.438
-11.9
-12.401
-12.938
-13.507
-14.107
-14.733
-15.382
-16.051
-16.736
-17.434
-18.141
-18.853
-19.564
-20.271
-20.969
-21.653
-22.317
-22.957
-23.568
-24.144
-24.683
-25.18
-25.629
-26.028
-26.372
-26.656
-26.877
-27.03
-27.112
-27.119
-27.047
-26.896
-26.665
-26.353
-25.958
-25.483
-24.926
-24.291
-23.577
-22.787
-21.922
-20.982
-19.973
-18.897
-17.761
-16.567
-15.323
-14.035
-12.711
-11.361
-9.989
-8.602
-7.206
-5.807
-4.411
-3.023
-1.644
-0.279
1.066
2.385
3.67
4.912
6.108
7.253
8.341
9.367
10.326
11.219
12.051
12.824
13.536
14.182
14.747
15.226
15.623
15.943
16.187
16.371
16.511
16.64
16.819
17.091
17.476
17.992
18.635
19.406
20.323
21.386
22.589
23.93
25.391
26.963
28.654
30.423
32.189
33.84
35.199
36.128
36.54
36.351
35.513
33.99
31.756
28.855
25.385
21.423
17.016
12.176
6.927
1.417
-4.107
-9.332
-13.866
-17.407
-19.602
-19.989
-18.352
-14.698
-9.291
-2.803
4.166
11.361
18.397
24.79
30.606
36.234
42.744
52
65.067
82.166
103.503
129.054
157.962
188.467
217.129
239.157
250.983
250.105
234.163
201.18
150.033
81.43
-1.165
-92.284
-186.865
-280.267
-367.511
-443.25
-502.473
-542.207
-562.11
-563.842
-549.712
-522.261
-484.827
-441.912
-398.103
-356.603
-319.166
-286.295
-257.755
-233.252
-211.987
-192.27
-172.577
-152.164
-130.832
-109.028
-87.537
-66.937
-47.932
-31.485
-18.161
-8.154
-1.448
2.345
3.688
2.951
0.631
-2.719
-6.718
-11.011
-15.277
-19.321
-22.889
-25.744
-27.766
-28.857
-28.966
-28.106
-26.293
-23.583
-20.105
-15.997
-11.401
-6.484
-1.374
3.791
8.839
13.642
18.087
22.084
25.601
28.619
31.12
33.118
34.646
35.745
36.486
36.932
37.137
37.167
37.087
36.97
36.902
36.95
37.162
37.577
38.223
39.118
40.283
41.727
43.442
45.426
47.673
50.18
52.948
55.972
59.241
62.741
66.455
70.366
74.464
78.732
83.155
87.716
92.398
97.185
102.062
107.011
112.01
117.035
122.06
127.059
132.008
136.878
141.641
146.27
150.738
155.02
159.092
162.93
166.509
169.808
172.805
175.482
177.819
179.801
181.413
182.641
183.475
183.907
183.929
183.538
182.729
181.504
179.861
177.807
175.345
172.483
169.231
165.598
161.599
157.249
152.565
147.565
142.268
136.697
130.874
124.824
118.57
112.138
105.555
98.846
92.037
85.157
78.231
71.286
64.349
57.444
50.596
43.831
37.171
30.637
24.252
18.034
12.003
6.174
0.565
-4.812
-9.943
-14.816
-19.423
-23.755
-27.806
-31.571
-35.046
-38.23
-41.124
-43.728
-46.046
-48.082
-49.843
-51.334
-52.566
-53.546
-54.287
-54.798
-55.093
-55.184
-55.084
-54.807
-54.367
-53.777
-53.051
-52.204
-51.248
-50.198
-49.065
-47.864
-46.605
-45.302
-43.965
-42.604
-41.231
-39.855
-38.485
-37.129
-35.795
-34.49
-33.221
-31.992
-30.808
-29.674
-28.592
-27.566
-26.597
-25.686
-24.834
-24.039
-23.303
-22.623
-21.997
-21.425
-20.903
-20.43
-20.003
-19.618
-19.274
-18.967
-18.695
-18.455
-18.244
-18.059
-17.898
-17.757
-17.635
-17.527
-17.433
-17.347
-17.269
-17.196
-17.125
-17.053
-16.979
-16.901
-16.816
-16.724
-16.622
-16.511
-16.387
-16.251
-16.103
-15.941
-15.767
-15.579
-15.379
-15.167
-14.943
-14.708
-14.463
-14.209
-13.946
-13.675
-13.397
-13.113
-12.825
-12.533
-12.24
-11.946
-11.655
-11.368
-11.087
-10.815
-10.552
-10.301
-10.065
-9.845
-9.643
-9.462
-9.303
-9.168
-9.06
-8.98
-8.929
-8.907
-8.914
-8.952
-9.018
-9.112
-9.233
-9.378
-9.546
-9.735
-9.944
-10.17
-10.411
-10.663
-10.922
-11.186
-11.449
-11.707
-11.954
-12.184
-12.392
-12.575
-12.726
-12.842
-12.917
-12.947
-12.926
-12.85
-12.716
-12.517
-12.249
-11.908
-11.492
-10.998
-10.427
-9.779
-9.056
-8.26
-7.394
-6.465
-5.473
-4.423
-3.317
-2.159
-0.95
0.306
1.606
2.947
4.321
5.72
7.133
8.553
9.97
11.378
12.768
14.13
15.456
16.747
17.997
19.203
20.352
21.422
22.402
23.289
24.084
24.793
25.423
25.981
26.493
27
27.547
28.18
28.922
29.763
30.708
31.767
32.954
34.302
35.8
37.401
39.079
40.809
42.565
44.32
45.977
47.368
48.339
48.744
48.486
47.536
45.834
43.322
39.972
35.772
30.829
25.315
19.348
12.994
6.308
-0.602
-7.472
-13.893
-19.453
-23.768
-26.537
-27.439
-26.057
-22.199
-15.939
-7.648
1.874
11.932
22.142
32.012
41.135
49.681
58.223
67.92
80.438
96.763
117.253
142.305
171.685
203.905
236.19
264.368
284.044
291.82
284.953
260.737
217.104
153.998
74.085
-17.69
-115.931
-215.44
-311.08
-397.12
-467.234
-517.157
-545.746
-553.986
-543.854
-517.967
-479.247
-431.931
-381.932
-333.731
-289.699
-251.046
-217.89
-189.952
-167.033
-147.904
-130.124
-112.135
-93.348
-73.715
-54.006
-34.924
-16.849
-0.496
13.199
23.761
31.041
35.185
36.752
36.243
34.079
30.765
26.728
22.308
17.832
13.58
9.78
6.648
4.33
2.901
2.424
2.921
4.381
6.758
9.933
13.756
18.074
22.745
27.655
32.695
37.728
42.592
47.151
51.305
55.002
58.223
60.947
63.159
64.87
66.122
66.98
67.516
67.789
67.849
67.749
67.547
67.316
67.134
67.062
67.139
67.398
67.861
68.548
69.479
70.659
72.081
73.736
75.619
77.727
80.063
82.62
85.388
88.353
91.499
94.816
98.292
101.913
105.665
109.533
113.501
117.557
121.686
125.873
130.096
134.334
138.565
142.765
146.91
150.977
154.938
158.771
162.45
165.953
169.259
172.345
175.19
177.775
180.081
182.091
183.788
185.159
186.19
186.87
187.19
187.143
186.724
185.927
184.752
183.197
181.264
178.958
176.283
173.247
169.857
166.124
162.062
157.683
153.004
148.041
142.813
137.339
131.641
125.739
119.655
113.414
107.037
100.55
93.974
87.336
80.658
73.964
67.278
60.623
54.021
47.494
41.063
34.748
28.568
22.541
16.684
11.013
5.543
0.286
-4.745
-9.541
-14.092
-18.39
-22.43
-26.206
-29.716
-32.957
-35.928
-38.631
-41.067
-43.239
-45.153
-46.813
-48.226
-49.399
-50.342
-51.062
-51.571
-51.878
-51.995
-51.933
-51.705
-51.323
-50.798
-50.145
-49.374
-48.499
-47.533
-46.486
-45.371
-44.2
-42.984
-41.732
-40.456
-39.165
-37.867
-36.572
-35.287
-34.021
-32.779
-31.568
-30.394
-29.262
-28.177
-27.142
-26.162
-25.239
-24.376
-23.574
-22.834
-22.158
-21.545
-20.996
-20.508
-20.083
-19.717
-19.409
-19.158
-18.959
-18.812
-18.713
-18.659
-18.648
-18.676
-18.742
-18.841
-18.972
-19.131
-19.316
-19.525
-19.754
-20.001
-20.263
-20.539
-20.824
-21.118
-21.418
-21.721
-22.026
-22.33
-22.633
-22.932
-23.226
-23.514
-23.795
-24.067
-24.331
-24.587
-24.834
-25.072
-25.302
-25.524
-25.74
-25.95
-26.155
-26.356
-26.552
-26.746
-26.938
-27.128
-27.318
-27.508
-27.7
-27.895
-28.094
-28.298
-28.509
-28.727
-28.954
-29.19
-29.437
-29.695
-29.966
-30.249
-30.547
-30.859
-31.188
-31.533
-31.894
-32.27
-32.662
-33.069
-33.488
-33.918
-34.358
-34.804
-35.257
-35.714
-36.174
-36.634
-37.094
-37.551
-38.003
-38.447
-38.88
-39.299
-39.7
-40.08
-40.435
-40.764
-41.064
-41.333
-41.569
-41.769
-41.931
-42.054
-42.135
-42.171
-42.16
-42.1
-41.992
-41.836
-41.633
-41.385
-41.095
-40.767
-40.406
-40.016
-39.599
-39.159
-38.698
-38.218
-37.72
-37.204
-36.671
-36.125
-35.57
-35.015
-34.465
-33.927
-33.407
-32.91
-32.442
-32.007
-31.606
-31.236
-30.897
-30.589
-30.323
-30.115
-29.973
-29.898
-29.886
-29.929
-30.02
-30.146
-30.275
-30.359
-30.352
-30.219
-29.95
-29.557
-29.039
-28.395
-27.611
-26.667
-25.58
-24.382
-23.09
-21.716
-20.275
-18.81
-17.426
-16.294
-15.566
-15.359
-15.743
-16.741
-18.403
-20.767
-23.855
-27.654
-32.048
-36.913
-42.172
-47.789
-53.731
-59.884
-65.978
-71.617
-76.435
-80.102
-82.374
-82.983
-81.518
-77.785
-71.838
-64.012
-55.06
-45.652
-36.078
-26.744
-18.214
-10.52
-3.344
4.147
13.691
26.583
43.226
64.124
89.624
118.708
149.298
178.049
200.204
211.718
209.783
191.371
153.688
96.151
20.261
-70.212
-169.239
-271.085
-370.849
-462.65
-540.092
-598.577
-635.33
-650.03
-645.119
-623.133
-586.336
-538.526
-484.46
-428.598
-375.238
-326.849
-283.659
-246.038
-214.455
-188.527
-167.705
-150.663
-135.037
-119.715
-104.869
-90.485
-76.724
-63.635
-50.651
-38.101
-27.328
-18.949
-13.081
-9.67
-8.163
-8.308
-10.337
-13.942
-18.322
-22.834
-26.871
-30.069
-32.455
-33.955
-34.381
-33.692
-31.939
-29.229
-25.764
-21.7
-17.116
-12.107
-6.785
-1.279
4.236
9.573
14.585
19.169
23.262
26.835
29.869
32.354
34.304
35.769
36.815
37.513
37.921
38.09
38.07
37.932
37.757
37.636
37.637
37.809
38.185
38.793
39.656
40.794
42.213
43.907
45.866
48.088
50.572
53.32
56.33
59.592
63.091
66.813
70.746
74.877
79.194
83.68
88.319
93.094
97.988
102.988
108.072
113.217
118.398
123.589
128.762
133.89
138.944
143.894
148.712
153.37
157.841
162.099
166.118
169.874
173.342
176.501
179.33
181.81
183.922
185.652
186.984
187.906
188.409
188.486
188.13
187.337
186.107
184.439
182.339
179.812
176.864
173.507
169.753
165.616
161.113
156.262
151.083
145.598
139.828
133.8
127.537
121.066
114.413
107.605
100.67
93.634
86.526
79.371
72.199
65.034
57.902
50.83
43.841
36.959
30.206
23.603
17.17
10.925
4.886
-0.933
-6.518
-11.856
-16.938
-21.755
-26.3
-30.568
-34.556
-38.262
-41.684
-44.826
-47.689
-50.278
-52.598
-54.656
-56.459
-58.015
-59.336
-60.429
-61.308
-61.982
-62.465
-62.767
-62.902
-62.882
-62.719
-62.428
-62.019
-61.506
-60.901
-60.215
-59.46
-58.647
-57.786
-56.886
-55.958
-55.008
-54.046
-53.078
-52.111
-51.151
-50.204
-49.274
-48.365
-47.481
-46.626
-45.801
-45.009
-44.251
-43.529
-42.843
-42.195
-41.584
-41.01
-40.473
-39.973
-39.509
-39.081
-38.686
-38.324
-37.994
-37.695
-37.424
-37.181
-36.965
-36.773
-36.605
-36.461
-36.337
-36.234
-36.15
-36.084
-36.035
-36.002
-35.982
-35.976
-35.982
-35.998
-36.023
-36.057
-36.096
-36.141
-36.189
-36.24
-36.291
-36.342
-36.39
-36.435
-36.474
-36.507
-36.532
-36.548
-36.555
-36.551
-36.536
-36.509
-36.468
-36.415
-36.347
-36.266
-36.169
-36.058
-35.931
-35.791
-35.636
-35.468
-35.287
-35.094
-34.892
-34.681
-34.464
-34.241
-34.015
-33.788
-33.562
-33.34
-33.123
-32.915
-32.718
-32.535
-32.368
-32.221
-32.096
-31.994
-31.918
-31.869
-31.849
-31.859
-31.901
-31.975
-32.082
-32.223
-32.398
-32.609
-32.854
-33.133
-33.445
-33.787
-34.159
-34.556
-34.978
-35.419
-35.877
-36.347
-36.828
-37.314
-37.803
-38.288
-38.765
-39.231
-39.678
-40.102
-40.498
-40.857
-41.177
-41.45
-41.675
-41.846
-41.96
-42.014
-42.003
-41.926
-41.779
-41.562
-41.27
-40.902
-40.458
-39.938
-39.343
-38.677
-37.941
-37.142
-36.284
-35.374
-34.418
-33.421
-32.389
-31.325
-30.235
-29.122
-27.991
-26.845
-25.689
-24.532
-23.384
-22.253
-21.147
-20.073
-19.037
-18.049
-17.114
-16.236
-15.412
-14.643
-13.932
-13.29
-12.735
-12.272
-11.898
-11.607
-11.391
-11.241
-11.142
-11.06
-10.948
-10.752
-10.439
-9.999
-9.438
-8.749
-7.921
-6.929
-5.755
-4.427
-2.974
-1.417
0.228
1.95
3.696
5.349
6.749
7.745
8.226
8.135
7.438
6.073
3.999
1.187
-2.335
-6.418
-10.929
-15.79
-20.939
-26.343
-31.856
-37.169
-41.911
-45.706
-48.214
-49.193
-48.321
-45.181
-39.634
-31.792
-22.095
-11.42
-0.429
10.528
20.939
30.394
39.011
47.311
56.521
68.369
83.89
103.49
127.552
155.83
186.871
217.903
244.764
263.085
269.398
260.919
234.992
189.575
124.711
43.22
-49.924
-149.324
-249.717
-345.946
-432.249
-502.223
-551.631
-579.416
-586.578
-575.085
-547.52
-506.74
-456.992
-404.285
-353.164
-306.024
-264.096
-227.525
-196.114
-169.784
-147.387
-126.49
-105.534
-83.945
-61.712
-39.657
-18.51
1.359
19.251
34.229
45.816
53.862
58.521
60.386
59.999
57.82
54.384
50.145
45.473
40.726
36.226
32.239
29.004
26.678
25.346
25.071
25.88
27.762
30.661
34.439
38.929
43.961
49.377
55.056
60.871
66.669
72.274
77.531
82.334
86.625
90.38
93.575
96.197
98.258
99.805
100.914
101.662
102.115
102.329
102.36
102.275
102.15
102.07
102.098
102.278
102.644
103.219
104.029
105.092
106.416
107.992
109.814
111.875
114.175
116.717
119.496
122.502
125.722
129.145
132.758
136.553
140.518
144.639
148.902
153.293
157.797
162.403
167.093
171.847
176.641
181.453
186.258
191.031
195.746
200.376
204.895
209.276
213.495
217.528
221.35
224.938
228.267
231.318
234.07
236.502
238.598
240.341
241.716
242.71
243.312
243.514
243.308
242.687
241.65
240.194
238.32
236.031
233.332
230.23
226.733
222.852
218.602
213.996
209.051
203.784
198.217
192.368
186.261
179.919
173.366
166.625
159.722
152.684
145.534
138.301
131.009
123.684
116.351
109.037
101.764
94.558
87.441
80.435
73.561
66.839
60.288
53.925
47.765
41.824
36.115
30.648
25.434
20.481
15.796
11.383
7.246
3.388
-0.192
-3.495
-6.523
-9.28
-11.771
-14.003
-15.983
-17.719
-19.221
-20.499
-21.564
-22.426
-23.098
-23.592
-23.921
-24.096
-24.132
-24.04
-23.833
-23.525
-23.127
-22.651
-22.11
-21.514
-20.875
-20.202
-19.506
-18.796
-18.079
-17.365
-16.661
-15.973
-15.307
-14.668
-14.062
-13.491
-12.959
-12.469
-12.023
-11.621
-11.266
-10.958
-10.697
-10.482
-10.313
-10.19
-10.111
-10.074
-10.079
-10.123
-10.205
-10.322
-10.473
-10.655
-10.866
-11.104
-11.366
-11.651
-11.956
-12.279
-12.619
-12.972
-13.337
-13.713
-14.096
-14.487
-14.883
-15.283
-15.685
-16.089
-16.493
-16.896
-17.298
-17.697
-18.092
-18.482
-18.867
-19.244
-19.614
-19.974
-20.325
-20.664
-20.992
-21.307
-21.608
-21.893
-22.163
-22.415
-22.649
-22.865
-23.061
-23.237
-23.391
-23.525
-23.636
-23.725
-23.792
-23.836
-23.856
-23.853
-23.826
-23.776
-23.702
-23.606
-23.486
-23.345
-23.184
-23.003
-22.804
-22.589
-22.358
-22.114
-21.859
-21.594
-21.322
-21.045
-20.766
-20.488
-20.213
-19.945
-19.684
-19.434
-19.197
-18.973
-18.766
-18.577
-18.406
-18.256
-18.127
-18.021
-17.939
-17.882
-17.849
-17.841
-17.858
-17.898
-17.96
-18.043
-18.144
-18.26
-18.388
-18.528
-18.674
-18.825
-18.977
-19.125
-19.265
-19.393
-19.503
-19.589
-19.646
-19.669
-19.653
-19.595
-19.49
-19.337
-19.131
-18.87
-18.552
-18.176
-17.739
-17.24
-16.676
-16.047
-15.355
-14.6
-13.786
-12.914
-11.989
-11.016
-10.004
-8.957
-7.882
-6.784
-5.669
-4.541
-3.408
-2.274
-1.142
-0.019
1.087
2.167
3.212
4.212
5.161
6.051
6.877
7.634
8.318
8.928
9.47
9.942
10.34
10.656
10.874
10.989
11.004
10.917
10.735
10.475
10.157
9.825
9.53
9.305
9.169
9.136
9.201
9.372
9.666
10.076
10.614
11.286
12.092
13.041
14.136
15.325
16.518
17.59
18.379
18.776
18.706
18.087
16.881
15.051
12.58
9.549
6.034
2.078
-2.287
-7.067
-12.227
-17.581
-22.846
-27.699
-31.754
-34.714
-36.262
-35.923
-33.474
-28.937
-22.574
-15.11
-7.205
0.875
8.703
15.692
21.918
27.816
34.396
43.632
56.867
74.497
97.1
125.03
157.245
191.626
224.436
250.43
265.467
266.61
250.779
215.194
158.731
82.479
-9.529
-111.143
-216.769
-321.481
-419.98
-505.996
-573.622
-619.246
-642.117
-643.717
-626.088
-591
-540.557
-479.3
-413.18
-347.153
-285.04
-228.925
-179.703
-138.895
-108.302
-87.439
-74.148
-66.037
-60.285
-55.371
-51.055
-46.372
-39.901
-31.293
-20.967
-9.962
-0.126
7.631
13.385
17.001
18.328
17.457
14.566
10.309
5.838
1.899
-1.19
-3.224
-4.194
-4.075
-2.765
-0.331
3.006
7.048
11.619
16.597
21.917
27.477
33.12
38.665
43.948
48.841
53.264
57.176
60.555
63.39
65.684
67.468
68.784
69.695
70.268
70.55
70.599
70.477
70.259
70.037
69.89
69.874
70.03
70.389
70.971
71.796
72.875
74.205
75.782
77.605
79.671
81.984
84.545
87.344
90.373
93.615
97.057
100.689
104.5
108.475
112.602
116.867
121.255
125.755
130.351
135.023
139.75
144.507
149.269
154.012
158.711
163.337
167.864
172.267
176.518
180.595
184.473
188.127
191.533
194.671
197.517
200.054
202.261
204.123
205.624
206.751
207.492
207.839
207.785
207.324
206.451
205.167
203.472
201.368
198.86
195.955
192.662
188.992
184.957
180.573
175.855
170.821
165.491
159.885
154.025
147.934
141.636
135.155
128.515
121.743
114.864
107.905
100.891
93.848
86.802
79.778
72.8
65.893
59.078
52.379
45.814
39.405
33.168
27.122
21.282
15.661
10.271
5.125
0.23
-4.406
-8.777
-12.878
-16.707
-20.264
-23.547
-26.56
-29.305
-31.787
-34.013
-35.988
-37.722
-39.223
-40.502
-41.57
-42.439
-43.121
-43.629
-43.975
-44.174
-44.239
-44.184
-44.021
-43.765
-43.427
-43.022
-42.56
-42.054
-41.514
-40.951
-40.375
-39.794
-39.217
-38.65
-38.101
-37.574
-37.076
-36.609
-36.179
-35.787
-35.436
-35.127
-34.861
-34.638
-34.456
-34.316
-34.216
-34.154
-34.127
-34.133
-34.168
-34.231
-34.316
-34.422
-34.544
-34.679
-34.824
-34.974
-35.127
-35.28
-35.43
-35.575
-35.712
-35.839
-35.956
-36.061
-36.153
-36.231
-36.296
-36.347
-36.384
-36.407
-36.419
-36.419
-36.408
-36.388
-36.361
-36.328
-36.29
-36.249
-36.208
-36.167
-36.129
-36.096
-36.068
-36.05
-36.041
-36.044
-36.061
-36.093
-36.142
-36.209
-36.294
-36.4
-36.526
-36.673
-36.841
-37.03
-37.241
-37.473
-37.724
-37.996
-38.286
-38.594
-38.919
-39.26
-39.616
-39.985
-40.366
-40.757
-41.158
-41.568
-41.984
-42.407
-42.834
-43.266
-43.7
-44.136
-44.572
-45.009
-45.446
-45.881
-46.314
-46.745
-47.172
-47.597
-48.018
-48.435
-48.849
-49.26
-49.669
-50.076
-50.481
-50.887
-51.292
-51.699
-52.107
-52.519
-52.934
-53.354
-53.779
-54.21
-54.649
-55.095
-55.55
-56.013
-56.484
-56.964
-57.451
-57.945
-58.444
-58.948
-59.454
-59.961
-60.468
-60.974
-61.477
-61.974
-62.464
-62.944
-63.411
-63.863
-64.296
-64.706
-65.089
-65.441
-65.761
-66.044
-66.287
-66.488
-66.643
-66.75
-66.805
-66.807
-66.752
-66.638
-66.462
-66.223
-65.922
-65.559
-65.135
-64.654
-64.118
-63.532
-62.9
-62.226
-61.513
-60.764
-59.981
-59.166
-58.321
-57.448
-56.55
-55.633
-54.702
-53.766
-52.833
-51.908
-50.996
-50.104
-49.239
-48.406
-47.602
-46.83
-46.092
-45.396
-44.762
-44.199
-43.708
-43.288
-42.929
-42.624
-42.364
-42.122
-41.855
-41.523
-41.083
-40.512
-39.822
-39.005
-38.055
-36.957
-35.681
-34.235
-32.661
-30.983
-29.221
-27.405
-25.565
-23.796
-22.264
-21.113
-20.476
-20.448
-21.057
-22.361
-24.421
-27.266
-30.905
-35.252
-40.147
-45.492
-51.233
-57.307
-63.608
-69.873
-75.697
-80.712
-84.567
-86.984
-87.677
-86.212
-82.359
-76.183
-68.012
-58.59
-48.637
-38.452
-28.44
-19.225
-10.816
-2.846
5.562
16.235
30.477
48.582
70.972
97.935
128.365
160.148
189.865
212.607
224.292
222.108
203.023
164.298
105.395
27.892
-64.393
-165.458
-269.372
-370.809
-463.476
-540.512
-597.244
-631.414
-642.916
-634.012
-607.672
-566.924
-516.44
-462.353
-409.312
-360.337
-317.277
-280.27
-249.028
-223.378
-201.927
-182.211
-162.695
-142.649
-121.869
-101.105
-81.034
-62.02
-44.864
-30.55
-19.556
-12.045
-7.834
-6.312
-6.957
-9.316
-12.811
-16.951
-21.322
-25.53
-29.319
-32.486
-34.827
-36.219
-36.579
-35.844
-34.023
-31.156
-27.316
-22.653
-17.331
-11.517
-5.405
0.856
7.116
13.197
18.966
24.307
29.129
33.398
37.095
40.2
42.722
44.695
46.159
47.191
47.866
48.244
48.401
48.411
48.349
48.306
48.352
48.535
48.899
49.472
50.275
51.332
52.657
54.247
56.104
58.229
60.619
63.28
66.212
69.404
72.849
76.531
80.44
84.566
88.899
93.426
98.132
103.004
108.028
113.189
118.471
123.851
129.306
134.81
140.336
145.857
151.345
156.771
162.104
167.317
172.38
177.268
181.952
186.405
190.601
194.515
198.123
201.403
204.334
206.897
209.073
210.849
212.21
213.146
213.65
213.712
213.329
212.5
211.223
209.502
207.342
204.749
201.733
198.304
194.478
190.269
185.695
180.776
175.531
169.983
164.157
158.077
151.768
145.257
138.571
131.738
124.785
117.74
110.632
103.489
96.337
89.204
82.115
75.098
68.175
61.37
54.706
48.202
41.879
35.755
29.845
24.164
18.725
13.54
8.618
3.967
-0.407
-4.499
-8.306
-11.828
-15.064
-18.017
-20.689
-23.084
-25.21
-27.072
-28.679
-30.041
-31.166
-32.065
-32.751
-33.235
-33.529
-33.646
-33.6
-33.402
-33.067
-32.607
-32.036
-31.365
-30.607
-29.774
-28.877
-27.927
-26.934
-25.906
-24.854
-23.785
-22.708
-21.628
-20.552
-19.486
-18.436
-17.405
-16.397
-15.417
-14.466
-13.548
-12.665
-11.818
-11.008
-10.236
-9.504
-8.81
-8.156
-7.54
-6.963
-6.423
-5.921
-5.453
-5.021
-4.623
-4.257
-3.923
-3.62
-3.347
-3.102
-2.886
-2.698
-2.537
-2.401
-2.292
-2.208
-2.148
-2.113
-2.1
-2.11
-2.142
-2.195
-2.268
-2.358
-2.467
-2.59
-2.728
-2.879
-3.041
-3.212
-3.392
-3.577
-3.766
-3.958
-4.152
-4.344
-4.534
-4.721
-4.902
-5.076
-5.242
-5.399
-5.544
-5.678
-5.798
-5.905
-5.996
-6.071
-6.13
-6.171
-6.196
-6.203
-6.193
-6.167
-6.126
-6.069
-5.998
-5.915
-5.821
-5.717
-5.605
-5.487
-5.364
-5.24
-5.115
-4.992
-4.872
-4.757
-4.649
-4.55
-4.459
-4.379
-4.312
-4.256
-4.215
-4.188
-4.176
-4.18
-4.2
-4.237
-4.289
-4.358
-4.443
-4.542
-4.657
-4.786
-4.929
-5.084
-5.251
-5.43
-5.618
-5.816
-6.02
-6.229
-6.443
-6.658
-6.875
-7.089
-7.302
-7.511
-7.714
-7.913
-8.104
-8.288
-8.462
-8.625
-8.777
-8.916
-9.04
-9.148
-9.239
-9.312
-9.367
-9.402
-9.417
-9.411
-9.381
-9.328
-9.248
-9.141
-9.003
-8.833
-8.628
-8.388
-8.111
-7.798
-7.447
-7.058
-6.63
-6.163
-5.657
-5.112
-4.525
-3.898
-3.23
-2.524
-1.781
-1.004
-0.196
0.638
1.492
2.363
3.246
4.138
5.036
5.938
6.841
7.744
8.643
9.537
10.421
11.286
12.126
12.934
13.702
14.427
15.104
15.724
16.284
16.787
17.231
17.615
17.933
18.166
18.306
18.354
18.314
18.194
18.006
17.756
17.473
17.199
16.981
16.867
16.88
17.017
17.283
17.69
18.256
19.016
19.963
21.05
22.253
23.549
24.917
26.332
27.699
28.852
29.638
29.906
29.557
28.556
26.84
24.341
21.017
16.849
11.937
6.447
0.493
-5.865
-12.582
-19.554
-26.514
-33.05
-38.736
-43.179
-46.068
-47.068
-45.742
-41.881
-35.542
-27.096
-17.363
-7.052
3.447
13.625
23.066
31.955
40.898
51.123
64.367
81.66
103.372
129.931
161.114
195.343
229.646
259.572
280.43
288.661
281.469
256.046
210.217
143.904
59.836
-36.738
-139.952
-244.467
-345.257
-436.621
-512.292
-567.702
-600.977
-612.868
-605.571
-581.396
-542.685
-493.053
-437.515
-380.814
-326.909
-277.916
-234.245
-196.362
-164.819
-139.439
-119.487
-103.46
-89.037
-75.082
-61.75
-49.033
-37.01
-25.653
-14.375
-3.49
5.64
12.401
16.763
18.828
19.197
18.192
15.53
11.514
6.989
2.54
-1.256
-4.045
-5.927
-6.855
-6.63
-5.245
-2.77
0.684
4.865
9.592
14.783
20.289
25.998
31.771
37.402
42.741
47.676
52.113
56.023
59.392
62.194
64.434
66.142
67.358
68.156
68.607
68.763
68.69
68.45
68.118
67.79
67.541
67.425
67.483
67.742
68.221
68.945
69.925
71.16
72.648
74.387
76.375
78.619
81.118
83.866
86.852
90.062
93.484
97.108
100.926
104.924
109.089
113.407
117.866
122.453
127.153
131.946
136.807
141.713
146.637
151.554
156.437
161.257
165.985
170.594
175.057
179.348
183.442
187.312
190.934
194.285
197.341
200.082
202.488
204.541
206.223
207.52
208.42
208.912
208.988
208.641
207.865
206.659
205.023
202.957
200.468
197.56
194.242
190.526
186.426
181.956
177.134
171.979
166.511
160.754
154.732
148.468
141.988
135.319
128.487
121.519
114.444
107.29
100.083
92.851
85.623
78.423
71.279
64.216
57.258
50.428
43.749
37.241
30.925
24.817
18.935
13.293
7.904
2.781
-2.068
-6.636
-10.915
-14.904
-18.599
-22
-25.109
-27.928
-30.463
-32.719
-34.704
-36.426
-37.894
-39.12
-40.114
-40.889
-41.457
-41.832
-42.028
-42.057
-41.936
-41.677
-41.295
-40.804
-40.217
-39.549
-38.812
-38.02
-37.183
-36.315
-35.424
-34.523
-33.619
-32.721
-31.837
-30.974
-30.137
-29.331
-28.561
-27.831
-27.142
-26.498
-25.899
-25.348
-24.844
-24.387
-23.977
-23.614
-23.296
-23.023
-22.792
-22.603
-22.453
-22.342
-22.266
-22.224
-22.214
-22.233
-22.281
-22.354
-22.452
-22.571
-22.711
-22.87
-23.046
-23.239
-23.448
-23.672
-23.91
-24.162
-24.427
-24.705
-24.996
-25.299
-25.615
-25.943
-26.282
-26.632
-26.993
-27.363
-27.742
-28.129
-28.523
-28.922
-29.324
-29.729
-30.135
-30.54
-30.943
-31.342
-31.735
-32.121
-32.498
-32.865
-33.219
-33.56
-33.886
-34.194
-34.484
-34.754
-35.002
-35.227
-35.427
-35.601
-35.748
-35.866
-35.956
-36.017
-36.048
-36.049
-36.02
-35.962
-35.877
-35.764
-35.625
-35.463
-35.279
-35.074
-34.851
-34.612
-34.36
-34.096
-33.824
-33.545
-33.262
-32.978
-32.696
-32.418
-32.147
-31.885
-31.636
-31.402
-31.185
-30.989
-30.815
-30.668
-30.548
-30.46
-30.405
-30.387
-30.406
-30.464
-30.564
-30.704
-30.886
-31.111
-31.378
-31.687
-32.036
-32.426
-32.856
-33.324
-33.829
-34.368
-34.94
-35.541
-36.17
-36.822
-37.493
-38.181
-38.881
-39.589
-40.302
-41.016
-41.726
-42.428
-43.117
-43.787
-44.434
-45.051
-45.631
-46.17
-46.661
-47.101
-47.485
-47.811
-48.074
-48.271
-48.401
-48.461
-48.451
-48.369
-48.212
-47.981
-47.675
-47.298
-46.852
-46.34
-45.766
-45.136
-44.456
-43.734
-42.976
-42.188
-41.374
-40.541
-39.693
-38.836
-37.974
-37.113
-36.26
-35.423
-34.615
-33.844
-33.12
-32.449
-31.838
-31.294
-30.821
-30.422
-30.092
-29.831
-29.642
-29.536
-29.526
-29.62
-29.815
-30.104
-30.484
-30.941
-31.457
-31.995
-32.5
-32.929
-33.259
-33.482
-33.601
-33.615
-33.506
-33.255
-32.856
-32.313
-31.637
-30.826
-29.872
-28.796
-27.665
-26.603
-25.775
-25.316
-25.307
-25.802
-26.848
-28.484
-30.751
-33.65
-37.092
-40.989
-45.276
-49.932
-54.967
-60.301
-65.709
-70.851
-75.338
-78.81
-81.006
-81.612
-80.18
-76.502
-70.617
-62.866
-54.042
-44.833
-35.52
-26.519
-18.421
-11.21
-4.452
2.879
12.777
26.711
45.154
68.688
97.736
131.204
166.784
200.718
227.661
243.079
243.786
226.363
187.636
126.826
45.578
-51.895
-159.053
-269.592
-378.13
-478.273
-562.671
-625.875
-664.941
-679.634
-672.307
-645.692
-601.985
-544.913
-480.566
-414.745
-352.165
-295.694
-246.038
-203.668
-169.8
-144.85
-127.126
-114.131
-103.101
-92.339
-81.773
-71.427
-60.704
-48.858
-35.947
-22.915
-11.38
-2.424
3.902
7.848
9.646
9.235
6.591
2.203
-2.972
-8.044
-12.474
-16.004
-18.603
-20.168
-20.532
-19.664
-17.66
-14.692
-10.955
-6.599
-1.71
3.621
9.284
15.151
21.046
26.781
32.205
37.214
41.75
45.79
49.304
52.274
54.709
56.653
58.179
59.361
60.253
60.899
61.349
61.669
61.942
62.258
62.683
63.257
64.012
64.972
66.159
67.594
69.282
71.214
73.379
75.774
78.397
81.253
84.339
87.642
91.149
94.846
98.723
102.771
106.979
111.332
115.82
120.427
125.144
129.958
134.856
139.817
144.821
149.847
154.871
159.871
164.821
169.696
174.471
179.121
183.621
187.949
192.082
195.994
199.664
203.07
206.192
209.011
211.507
213.663
215.465
216.899
217.955
218.621
218.89
218.756
218.212
217.258
215.893
214.116
211.933
209.347
206.365
202.998
199.257
195.154
190.706
185.927
180.838
175.458
169.808
163.911
157.79
151.47
144.975
138.331
131.566
124.705
117.775
110.803
103.816
96.839
89.899
83.02
76.226
69.54
62.984
56.579
50.345
44.3
38.461
32.844
27.462
22.328
17.452
12.844
8.511
4.456
0.686
-2.8
-6
-8.917
-11.552
-13.912
-16.002
-17.828
-19.401
-20.731
-21.827
-22.702
-23.37
-23.842
-24.134
-24.259
-24.232
-24.066
-23.777
-23.379
-22.886
-22.312
-21.67
-20.974
-20.235
-19.466
-18.678
-17.882
-17.086
-16.301
-15.533
-14.79
-14.078
-13.403
-12.769
-12.179
-11.638
-11.146
-10.705
-10.315
-9.977
-9.688
-9.448
-9.255
-9.105
-8.996
-8.925
-8.887
-8.88
-8.9
-8.942
-9.003
-9.08
-9.169
-9.265
-9.367
-9.47
-9.572
-9.67
-9.761
-9.845
-9.919
-9.981
-10.032
-10.07
-10.095
-10.107
-10.105
-10.091
-10.064
-10.026
-9.977
-9.918
-9.852
-9.779
-9.702
-9.622
-9.54
-9.459
-9.381
-9.307
-9.238
-9.176
-9.122
-9.078
-9.044
-9.022
-9.012
-9.016
-9.032
-9.062
-9.106
-9.163
-9.233
-9.316
-9.41
-9.514
-9.629
-9.752
-9.884
-10.023
-10.168
-10.319
-10.475
-10.636
-10.8
-10.966
-11.135
-11.304
-11.474
-11.644
-11.814
-11.983
-12.153
-12.323
-12.494
-12.666
-12.841
-13.018
-13.198
-13.381
-13.569
-13.763
-13.963
-14.171
-14.388
-14.615
-14.854
-15.106
-15.372
-15.653
-15.947
-16.256
-16.579
-16.914
-17.261
-17.618
-17.984
-18.359
-18.741
-19.129
-19.52
-19.912
-20.304
-20.69
-21.07
-21.437
-21.789
-22.12
-22.428
-22.71
-22.962
-23.181
-23.365
-23.51
-23.613
-23.67
-23.68
-23.638
-23.541
-23.387
-23.175
-22.906
-22.579
-22.196
-21.761
-21.278
-20.752
-20.186
-19.584
-18.949
-18.286
-17.595
-16.881
-16.144
-15.388
-14.616
-13.837
-13.059
-12.289
-11.536
-10.807
-10.109
-9.447
-8.828
-8.255
-7.724
-7.237
-6.798
-6.415
-6.108
-5.885
-5.746
-5.687
-5.702
-5.783
-5.915
-6.07
-6.198
-6.254
-6.205
-6.039
-5.768
-5.389
-4.898
-4.278
-3.507
-2.599
-1.582
-0.47
0.731
2.004
3.314
4.561
5.581
6.232
6.405
6.035
5.102
3.561
1.374
-1.475
-4.974
-9.011
-13.461
-18.251
-23.349
-28.721
-34.263
-39.716
-44.701
-48.867
-51.895
-53.546
-53.555
-51.511
-47.222
-40.758
-32.467
-23.122
-13.414
-3.649
5.759
14.236
21.775
28.748
36.07
45.599
58.746
75.989
97.881
124.771
155.611
188.265
219.282
243.744
257.401
257.215
240.008
202.922
145.403
69.116
-22.044
-122.011
-224.741
-324.838
-416.014
-491.447
-546.606
-579.418
-589.955
-580.689
-554.702
-515.054
-466.375
-414.603
-364.175
-317.94
-277.525
-242.84
-213.476
-189.147
-168.415
-148.974
-129.389
-108.985
-87.694
-66.316
-45.567
-25.899
-8.116
6.831
18.448
26.57
31.35
33.307
32.924
30.613
26.871
22.198
17.006
11.665
6.511
1.801
-2.23
-5.391
-7.566
-8.687
-8.718
-7.672
-5.606
-2.62
1.146
5.541
10.425
15.655
21.088
26.569
31.916
36.971
41.628
45.812
49.486
52.629
55.229
57.298
58.882
60.046
60.857
61.379
61.665
61.775
61.777
61.748
61.772
61.914
62.221
62.726
63.456
64.432
65.67
67.176
68.939
70.952
73.21
75.711
78.454
81.435
84.645
88.069
91.695
95.509
99.503
103.663
107.975
112.426
117
121.684
126.465
131.327
136.246
141.202
146.169
151.122
156.036
160.883
165.635
170.266
174.749
179.059
183.17
187.06
190.704
194.079
197.164
199.938
202.384
204.483
206.22
207.578
208.548
209.116
209.276
209.02
208.342
207.24
205.711
203.758
201.383
198.591
195.388
191.785
187.792
183.424
178.697
173.627
168.234
162.539
156.565
150.335
143.874
137.206
130.359
123.357
116.229
109.002
101.701
94.356
86.992
79.637
72.316
65.054
57.878
50.809
43.871
37.086
30.473
24.053
17.843
11.86
6.119
0.633
-4.585
-9.525
-14.179
-18.54
-22.605
-26.369
-29.831
-32.993
-35.856
-38.425
-40.705
-42.701
-44.424
-45.88
-47.082
-48.04
-48.767
-49.275
-49.578
-49.69
-49.625
-49.398
-49.023
-48.514
-47.886
-47.153
-46.33
-45.429
-44.466
-43.452
-42.4
-41.324
-40.233
-39.14
-38.053
-36.984
-35.939
-34.927
-33.954
-33.026
-32.149
-31.325
-30.559
-29.853
-29.208
-28.625
-28.104
-27.644
-27.244
-26.902
-26.616
-26.383
-26.2
-26.064
-25.971
-25.92
-25.905
-25.924
-25.973
-26.049
-26.148
-26.266
-26.401
-26.548
-26.705
-26.867
-27.033
-27.198
-27.361
-27.519
-27.669
-27.811
-27.942
-28.061
-28.168
-28.261
-28.341
-28.408
-28.461
-28.503
-28.533
-28.553
-28.566
-28.571
-28.572
-28.569
-28.565
-28.561
-28.559
-28.56
-28.565
-28.575
-28.593
-28.619
-28.655
-28.703
-28.764
-28.84
-28.932
-29.042
-29.172
-29.321
-29.491
-29.683
-29.897
-30.133
-30.392
-30.674
-30.978
-31.303
-31.651
-32.018
-32.403
-32.804
-33.219
-33.644
-34.077
-34.514
-34.952
-35.388
-35.818
-36.241
-36.653
-37.051
-37.433
-37.793
-38.13
-38.438
-38.713
-38.951
-39.147
-39.297
-39.396
-39.444
-39.437
-39.371
-39.245
-39.056
-38.802
-38.482
-38.095
-37.638
-37.112
-36.516
-35.854
-35.127
-34.34
-33.497
-32.603
-31.665
-30.692
-29.687
-28.657
-27.608
-26.543
-25.468
-24.388
-23.306
-22.225
-21.154
-20.099
-19.072
-18.081
-17.133
-16.236
-15.398
-14.623
-13.917
-13.282
-12.715
-12.217
-11.791
-11.447
-11.202
-11.062
-11.024
-11.084
-11.237
-11.47
-11.765
-12.086
-12.378
-12.6
-12.729
-12.757
-12.688
-12.521
-12.242
-11.835
-11.295
-10.629
-9.85
-8.96
-7.955
-6.859
-5.737
-4.71
-3.94
-3.558
-3.644
-4.25
-5.415
-7.171
-9.549
-12.545
-16.07
-20.032
-24.36
-29.02
-34.015
-39.266
-44.561
-49.581
-53.954
-57.338
-59.487
-60.108
-58.795
-55.364
-49.854
-42.576
-34.266
-25.57
-16.773
-8.275
-0.602
6.258
12.681
19.571
28.691
41.348
57.953
78.989
104.764
134.264
165.436
194.966
218.138
230.897
230.373
213.535
177.605
121.992
48.204
-40.133
-137.251
-237.398
-335.436
-425.292
-500.297
-555.953
-590.081
-602.537
-595.53
-571.887
-534.447
-487.663
-437.345
-387.873
-342.118
-301.794
-266.949
-237.287
-212.612
-191.542
-171.786
-151.9
-131.192
-109.546
-87.699
-66.322
-45.835
-27.037
-10.911
2.014
11.551
17.82
21.31
22.476
21.697
19.451
16.233
12.45
8.463
4.592
1.075
-1.869
-4.054
-5.37
-5.75
-5.156
-3.602
-1.139
2.145
6.121
10.646
15.588
20.809
26.169
31.521
36.687
41.52
45.917
49.809
53.163
55.965
58.205
59.898
61.094
61.855
62.25
62.346
62.196
61.864
61.421
60.949
60.536
60.254
60.152
60.272
60.644
61.294
62.243
63.501
65.061
66.918
69.072
71.52
74.267
77.308
80.633
84.229
88.08
92.172
96.492
101.025
105.751
110.654
115.713
120.91
126.229
131.645
137.135
142.669
148.219
153.753
159.242
164.654
169.954
175.111
180.094
184.873
189.417
193.699
197.691
201.365
204.697
207.664
210.246
212.421
214.173
215.487
216.349
216.749
216.68
216.135
215.111
213.608
211.628
209.175
206.255
202.879
199.056
194.801
190.131
185.062
179.616
173.814
167.679
161.237
154.515
147.54
140.341
132.947
125.388
117.693
109.894
102.02
94.101
86.166
78.245
70.366
62.557
54.843
47.251
39.804
32.525
25.435
18.554
11.9
5.489
-0.664
-6.546
-12.146
-17.455
-22.464
-27.168
-31.563
-35.646
-39.417
-42.876
-46.026
-48.87
-51.415
-53.667
-55.635
-57.326
-58.752
-59.923
-60.851
-61.549
-62.029
-62.305
-62.391
-62.301
-62.048
-61.647
-61.112
-60.456
-59.693
-58.836
-57.898
-56.891
-55.827
-54.717
-53.572
-52.402
-51.218
-50.027
-48.838
-47.659
-46.497
-45.358
-44.248
-43.171
-42.131
-41.132
-40.177
-39.268
-38.407
-37.594
-36.83
-36.116
-35.451
-34.834
-34.264
-33.741
-33.261
-32.824
-32.428
-32.069
-31.746
-31.457
-31.198
-30.968
-30.764
-30.582
-30.421
-30.278
-30.15
-30.034
-29.928
-29.829
-29.735
-29.644
-29.553
-29.462
-29.368
-29.269
-29.165
-29.054
-28.936
-28.809
-28.674
-28.529
-28.374
-28.21
-28.036
-27.853
-27.66
-27.46
-27.252
-27.038
-26.817
-26.593
-26.364
-26.133
-25.901
-25.67
-25.44
-25.214
-24.994
-24.782
-24.579
-24.387
-24.209
-24.047
-23.901
-23.773
-23.665
-23.577
-23.511
-23.467
-23.446
-23.449
-23.475
-23.526
-23.6
-23.699
-23.82
-23.963
-24.125
-24.307
-24.504
-24.716
-24.939
-25.172
-25.41
-25.654
-25.898
-26.141
-26.379
-26.607
-26.823
-27.022
-27.2
-27.351
-27.472
-27.558
-27.605
-27.612
-27.575
-27.492
-27.359
-27.175
-26.938
-26.646
-26.299
-25.894
-25.432
-24.912
-24.336
-23.708
-23.029
-22.304
-21.539
-20.739
-19.91
-19.057
-18.184
-17.297
-16.399
-15.494
-14.585
-13.677
-12.773
-11.879
-11.005
-10.158
-9.347
-8.577
-7.854
-7.184
-6.575
-6.029
-5.545
-5.124
-4.766
-4.479
-4.279
-4.174
-4.161
-4.235
-4.385
-4.599
-4.867
-5.16
-5.435
-5.646
-5.747
-5.714
-5.551
-5.249
-4.798
-4.178
-3.354
-2.334
-1.158
0.15
1.569
3.075
4.641
6.175
7.518
8.526
9.059
9.025
8.394
7.107
5.102
2.346
-1.179
-5.381
-10.102
-15.233
-20.713
-26.493
-32.47
-38.392
-43.872
-48.518
-51.971
-53.942
-54.127
-52.118
-47.727
-41.006
-32.294
-22.343
-11.806
-1.052
9.432
19.255
28.558
37.842
48.179
61.115
77.534
97.751
122.131
150.392
181.122
211.714
238.207
256.498
263.464
256.554
233.241
191.573
131.392
55.115
-32.675
-127.071
-223.335
-316.73
-401.886
-472.665
-524.752
-556.773
-569.313
-563.866
-542.577
-507.938
-463.824
-415.929
-368.67
-324.505
-284.855
-250.089
-220.181
-195.143
-173.887
-154.078
-134.206
-113.688
-92.451
-71.199
-50.577
-30.935
-13
2.228
14.211
22.771
28.029
30.51
30.696
28.973
25.829
21.758
17.166
12.417
7.834
3.655
0.103
-2.638
-4.461
-5.296
-5.113
-3.924
-1.786
1.202
4.898
9.152
13.828
18.785
23.889
28.991
33.919
38.526
42.712
46.409
49.585
52.225
54.318
55.88
56.957
57.615
57.922
57.943
57.73
57.344
56.851
56.329
55.86
55.508
55.319
55.328
55.562
56.042
56.784
57.797
59.071
60.6
62.38
64.408
66.685
69.209
71.968
74.949
78.138
81.522
85.09
88.829
92.723
96.757
100.915
105.182
109.545
113.984
118.479
123.006
127.541
132.058
136.534
140.941
145.252
149.442
153.486
157.359
161.039
164.503
167.729
170.696
173.384
175.775
177.851
179.598
181.001
182.047
182.726
183.03
182.952
182.487
181.632
180.386
178.749
176.727
174.322
171.542
168.396
164.895
161.052
156.881
152.399
147.622
142.571
137.265
131.727
125.977
120.04
113.938
107.696
101.337
94.886
88.368
81.807
75.228
68.654
62.109
55.617
49.2
42.879
36.676
30.609
24.697
18.959
13.409
8.063
2.934
-1.967
-6.628
-11.042
-15.201
-19.099
-22.733
-26.1
-29.2
-32.033
-34.601
-36.906
-38.954
-40.751
-42.302
-43.617
-44.702
-45.57
-46.229
-46.691
-46.968
-47.072
-47.015
-46.812
-46.474
-46.015
-45.449
-44.788
-44.046
-43.235
-42.367
-41.455
-40.509
-39.54
-38.559
-37.574
-36.595
-35.629
-34.683
-33.764
-32.877
-32.028
-31.221
-30.459
-29.745
-29.082
-28.471
-27.912
-27.406
-26.954
-26.553
-26.202
-25.901
-25.645
-25.434
-25.263
-25.13
-25.03
-24.96
-24.917
-24.896
-24.894
-24.906
-24.929
-24.959
-24.994
-25.029
-25.063
-25.093
-25.117
-25.132
-25.137
-25.131
-25.112
-25.079
-25.033
-24.972
-24.896
-24.806
-24.702
-24.584
-24.454
-24.312
-24.16
-24
-23.832
-23.66
-23.485
-23.309
-23.135
-22.965
-22.802
-22.65
-22.51
-22.386
-22.28
-22.194
-22.131
-22.091
-22.078
-22.093
-22.136
-22.21
-22.314
-22.45
-22.619
-22.82
-23.055
-23.323
-23.622
-23.953
-24.314
-24.704
-25.122
-25.566
-26.034
-26.525
-27.036
-27.565
-28.109
-28.665
-29.229
-29.797
-30.364
-30.928
-31.481
-32.02
-32.539
-33.036
-33.504
-33.941
-34.342
-34.702
-35.018
-35.285
-35.5
-35.659
-35.756
-35.788
-35.753
-35.648
-35.471
-35.222
-34.898
-34.499
-34.025
-33.475
-32.85
-32.151
-31.376
-30.527
-29.607
-28.619
-27.568
-26.459
-25.296
-24.087
-22.841
-21.567
-20.269
-18.956
-17.632
-16.305
-14.98
-13.663
-12.355
-11.062
-9.79
-8.547
-7.34
-6.178
-5.063
-4.002
-3.001
-2.064
-1.195
-0.394
0.344
1.019
1.625
2.155
2.595
2.941
3.199
3.375
3.47
3.498
3.481
3.455
3.478
3.592
3.814
4.155
4.617
5.209
5.954
6.862
7.922
9.124
10.455
11.906
13.481
15.14
16.793
18.314
19.538
20.331
20.622
20.346
19.434
17.843
15.528
12.514
8.925
4.852
0.362
-4.499
-9.731
-15.207
-20.658
-25.769
-30.15
-33.441
-35.402
-35.694
-33.873
-29.793
-23.525
-15.457
-6.48
2.753
11.929
20.533
28.2
35.138
41.82
49.427
59.869
74.298
93.286
117.471
146.401
178.255
210.301
238.401
257.776
264.756
256.04
228.219
179.66
111.083
25.442
-72.048
-175.527
-279.787
-379.156
-466.823
-536.591
-584.48
-609.433
-612.796
-596.593
-562.668
-513.61
-454.279
-391.058
-329.475
-272.731
-222.242
-178.852
-143.78
-118.304
-101.715
-91.016
-82.916
-75.444
-67.911
-60.236
-51.928
-41.841
-29.688
-16.697
-4.706
5.023
12.126
16.869
19.519
19.913
18.021
14.41
10.082
5.924
2.455
-0.154
-1.93
-2.78
-2.56
-1.247
1.051
4.161
7.913
12.187
16.931
22.046
27.393
32.809
38.096
43.102
47.723
51.878
55.525
58.645
61.222
63.26
64.789
65.847
66.492
66.782
66.762
66.487
66.022
65.444
64.848
64.31
63.883
63.608
63.513
63.622
63.955
64.523
65.325
66.358
67.622
69.119
70.853
72.825
75.029
77.455
80.091
82.923
85.943
89.141
92.506
96.025
99.685
103.475
107.385
111.401
115.504
119.675
123.89
128.126
132.361
136.568
140.721
144.794
148.76
152.595
156.275
159.774
163.07
166.138
168.956
171.505
173.763
175.713
177.338
178.623
179.554
180.121
180.313
180.123
179.547
178.578
177.216
175.461
173.315
170.781
167.865
164.574
160.918
156.909
152.56
147.887
142.906
137.637
132.099
126.316
120.309
114.102
107.72
101.188
94.531
87.776
80.949
74.074
67.18
60.289
53.429
46.623
39.895
33.268
26.762
20.397
14.194
8.17
2.342
-3.276
-8.669
-13.825
-18.732
-23.38
-27.762
-31.872
-35.704
-39.255
-42.525
-45.513
-48.222
-50.654
-52.816
-54.712
-56.352
-57.743
-58.895
-59.819
-60.527
-61.032
-61.345
-61.481
-61.453
-61.275
-60.96
-60.523
-59.975
-59.332
-58.605
-57.806
-56.948
-56.042
-55.1
-54.131
-53.147
-52.156
-51.169
-50.191
-49.232
-48.298
-47.394
-46.525
-45.696
-44.91
-44.17
-43.478
-42.835
-42.241
-41.697
-41.201
-40.753
-40.35
-39.99
-39.671
-39.389
-39.143
-38.929
-38.744
-38.585
-38.449
-38.335
-38.238
-38.156
-38.088
-38.029
-37.979
-37.934
-37.893
-37.853
-37.813
-37.77
-37.723
-37.671
-37.612
-37.546
-37.47
-37.385
-37.289
-37.182
-37.064
-36.935
-36.794
-36.641
-36.477
-36.302
-36.117
-35.921
-35.716
-35.5
-35.276
-35.041
-34.798
-34.545
-34.282
-34.01
-33.728
-33.436
-33.134
-32.822
-32.499
-32.166
-31.823
-31.47
-31.108
-30.738
-30.36
-29.974
-29.582
-29.185
-28.783
-28.377
-27.97
-27.563
-27.156
-26.751
-26.351
-25.956
-25.569
-25.191
-24.823
-24.466
-24.123
-23.794
-23.48
-23.184
-22.906
-22.647
-22.409
-22.193
-21.999
-21.828
-21.678
-21.549
-21.441
-21.352
-21.278
-21.219
-21.171
-21.133
-21.101
-21.072
-21.044
-21.011
-20.971
-20.918
-20.847
-20.754
-20.632
-20.476
-20.281
-20.042
-19.756
-19.419
-19.026
-18.576
-18.063
-17.486
-16.843
-16.13
-15.345
-14.486
-13.554
-12.549
-11.474
-10.332
-9.126
-7.861
-6.545
-5.185
-3.787
-2.356
-0.898
0.581
2.073
3.575
5.08
6.585
8.078
9.552
10.995
12.396
13.747
15.04
16.267
17.419
18.492
19.481
20.391
21.219
21.961
22.606
23.138
23.552
23.849
24.035
24.113
24.096
24.004
23.873
23.757
23.7
23.724
23.839
24.041
24.334
24.733
25.256
25.909
26.689
27.586
28.599
29.737
30.977
32.257
33.455
34.408
34.985
35.1
34.699
33.744
32.198
30.027
27.234
23.894
20.096
15.905
11.348
6.414
1.175
-4.167
-9.285
-13.788
-17.315
-19.606
-20.356
-19.15
-15.79
-10.313
-3.034
5.305
14.067
23.002
31.729
39.729
47.074
54.193
62.069
72.546
86.853
105.267
128.191
155.84
187.114
219.902
250.587
274.141
286.682
285.572
268.093
231.785
175.734
101.054
11.636
-86.62
-188.483
-289.431
-384.628
-468.31
-534.911
-580.955
-605.657
-610.281
-596.543
-565.879
-519.995
-462.978
-400.481
-337.294
-277.161
-222.275
-173.689
-133.066
-102.404
-81.417
-68.025
-59.854
-54.084
-49.126
-44.689
-39.782
-32.899
-23.649
-12.461
-0.422
10.521
19.372
26.176
30.766
32.934
32.737
30.296
26.236
21.768
17.672
14.278
11.822
10.304
9.755
10.315
11.947
14.447
17.646
21.376
25.518
30.05
34.89
39.908
44.96
49.847
54.417
58.585
62.291
65.514
68.244
70.463
72.183
73.449
74.319
74.858
75.123
75.148
74.985
74.699
74.367
74.084
73.921
73.923
74.125
74.554
75.227
76.166
77.376
78.848
80.574
82.548
84.769
87.239
89.955
92.905
96.075
99.448
103.01
106.747
110.646
114.689
118.861
123.143
127.522
131.981
136.502
141.064
145.643
150.214
154.75
159.227
163.617
167.893
172.028
175.996
179.773
183.334
186.659
189.722
192.505
194.987
197.151
198.979
200.456
201.57
202.307
202.66
202.618
202.178
201.335
200.086
198.432
196.374
193.915
191.062
187.822
184.204
180.22
175.881
171.204
166.205
160.902
155.313
149.459
143.364
137.049
130.537
123.853
117.02
110.064
103.009
95.88
88.701
81.497
74.291
67.107
59.969
52.898
45.916
39.044
32.3
25.703
19.271
13.02
6.964
1.117
-4.509
-9.902
-15.054
-19.957
-24.603
-28.988
-33.108
-36.961
-40.547
-43.865
-46.919
-49.711
-52.245
-54.527
-56.564
-58.363
-59.932
-61.279
-62.415
-63.348
-64.091
-64.654
-65.047
-65.282
-65.371
-65.324
-65.154
-64.871
-64.486
-64.011
-63.456
-62.832
-62.148
-61.414
-60.64
-59.834
-59.004
-58.159
-57.305
-56.449
-55.599
-54.758
-53.932
-53.126
-52.343
-51.587
-50.862
-50.168
-49.509
-48.886
-48.3
-47.753
-47.245
-46.776
-46.346
-45.956
-45.606
-45.294
-45.021
-44.786
-44.589
-44.428
-44.302
-44.212
-44.154
-44.129
-44.136
-44.172
-44.237
-44.329
-44.447
-44.589
-44.755
-44.943
-45.151
-45.379
-45.624
-45.886
-46.164
-46.456
-46.761
-47.077
-47.405
-47.741
-48.085
-48.435
-48.789
-49.147
-49.506
-49.865
-50.222
-50.576
-50.924
-51.266
-51.599
-51.923
-52.235
-52.534
-52.818
-53.087
-53.339
-53.574
-53.79
-53.986
-54.161
-54.316
-54.449
-54.559
-54.647
-54.711
-54.752
-54.768
-54.761
-54.729
-54.674
-54.596
-54.495
-54.373
-54.231
-54.07
-53.891
-53.694
-53.483
-53.258
-53.021
-52.774
-52.518
-52.255
-51.988
-51.719
-51.449
-51.179
-50.912
-50.647
-50.387
-50.132
-49.884
-49.642
-49.409
-49.184
-48.969
-48.764
-48.57
-48.386
-48.213
-48.048
-47.892
-47.742
-47.597
-47.454
-47.311
-47.166
-47.016
-46.86
-46.694
-46.516
-46.322
-46.109
-45.874
-45.611
-45.317
-44.988
-44.619
-44.208
-43.753
-43.252
-42.703
-42.103
-41.451
-40.747
-39.989
-39.177
-38.307
-37.381
-36.4
-35.364
-34.277
-33.141
-31.962
-30.745
-29.497
-28.226
-26.936
-25.634
-24.326
-23.016
-21.711
-20.415
-19.131
-17.864
-16.622
-15.413
-14.247
-13.133
-12.078
-11.088
-10.172
-9.334
-8.579
-7.909
-7.319
-6.808
-6.382
-6.048
-5.822
-5.71
-5.709
-5.813
-6.02
-6.315
-6.681
-7.08
-7.457
-7.77
-7.995
-8.121
-8.153
-8.088
-7.911
-7.607
-7.17
-6.606
-5.925
-5.13
-4.213
-3.195
-2.138
-1.163
-0.434
-0.083
-0.198
-0.836
-2.038
-3.839
-6.275
-9.34
-12.955
-17.032
-21.499
-26.327
-31.524
-37.018
-42.609
-47.985
-52.755
-56.559
-59.135
-60.165
-59.238
-56.152
-50.93
-43.879
-35.726
-27.11
-18.31
-9.738
-1.924
5.177
11.985
19.484
29.497
43.297
61.226
83.746
111.178
142.486
175.595
206.948
231.479
245.205
245.41
229.186
193.902
138.622
64.321
-25.198
-123.709
-225.822
-326.819
-421.253
-503.333
-567.634
-610.333
-630.898
-631.479
-614.028
-580.596
-534.147
-478.474
-419.006
-361.111
-307.602
-259.351
-217.134
-181.493
-152.866
-131.503
-115.397
-101.524
-88.449
-75.791
-63.478
-51.757
-40.275
-28.135
-15.944
-5.3
3.018
8.681
11.841
13.18
12.906
10.762
7.129
2.884
-1.309
-4.828
-7.371
-9.042
-9.783
-9.413
-7.9
-5.304
-1.748
2.549
7.424
12.802
18.555
24.547
30.618
36.558
42.208
47.455
52.212
56.439
60.114
63.222
65.768
67.783
69.31
70.412
71.154
71.587
71.777
71.789
71.702
71.614
71.601
71.719
72.012
72.509
73.233
74.206
75.439
76.928
78.672
80.671
82.925
85.437
88.208
91.231
94.497
97.991
101.701
105.618
109.729
114.024
118.488
123.108
127.871
132.764
137.773
142.875
148.051
153.274
158.521
163.764
168.977
174.132
179.201
184.155
188.969
193.616
198.071
202.308
206.303
210.032
213.472
216.604
219.406
221.862
223.953
225.666
226.988
227.909
228.419
228.512
228.184
227.43
226.252
224.65
222.629
220.194
217.352
214.115
210.494
206.504
202.161
197.482
192.488
187.199
181.638
175.827
169.791
163.555
157.144
150.583
143.9
137.119
130.267
123.37
116.454
109.543
102.662
95.835
89.084
82.432
75.899
69.504
63.266
57.201
51.327
45.656
40.201
34.973
29.983
25.238
20.743
16.504
12.524
8.803
5.342
2.138
-0.81
-3.509
-5.962
-8.177
-10.161
-11.922
-13.471
-14.816
-15.969
-16.939
-17.739
-18.379
-18.871
-19.226
-19.457
-19.573
-19.587
-19.51
-19.352
-19.123
-18.834
-18.494
-18.112
-17.696
-17.254
-16.795
-16.323
-15.846
-15.369
-14.896
-14.431
-13.978
-13.541
-13.12
-12.719
-12.338
-11.979
-11.642
-11.327
-11.035
-10.766
-10.519
-10.294
-10.09
-9.907
-9.745
-9.602
-9.478
-9.373
-9.286
-9.216
-9.163
-9.127
-9.106
-9.101
-9.112
-9.137
-9.177
-9.232
-9.302
-9.387
-9.488
-9.603
-9.735
-9.883
-10.047
-10.229
-10.429
-10.646
-10.881
-11.135
-11.408
-11.699
-12.008
-12.334
-12.679
-13.04
-13.417
-13.809
-14.214
-14.633
-15.062
-15.502
-15.95
-16.404
-16.863
-17.325
-17.788
-18.25
-18.71
-19.165
-19.614
-20.054
-20.485
-20.903
-21.306
-21.694
-22.064
-22.414
-22.743
-23.05
-23.334
-23.592
-23.826
-24.033
-24.214
-24.368
-24.496
-24.597
-24.672
-24.721
-24.746
-24.749
-24.73
-24.691
-24.635
-24.564
-24.481
-24.387
-24.285
-24.179
-24.071
-23.963
-23.859
-23.763
-23.677
-23.604
-23.549
-23.513
-23.501
-23.513
-23.552
-23.621
-23.72
-23.852
-24.018
-24.218
-24.452
-24.722
-25.028
-25.369
-25.744
-26.151
-26.589
-27.054
-27.545
-28.055
-28.581
-29.119
-29.664
-30.211
-30.754
-31.289
-31.809
-32.307
-32.779
-33.217
-33.614
-33.962
-34.255
-34.486
-34.651
-34.743
-34.758
-34.693
-34.543
-34.306
-33.979
-33.56
-33.048
-32.44
-31.736
-30.937
-30.045
-29.062
-27.993
-26.841
-25.613
-24.318
-22.963
-21.559
-20.112
-18.631
-17.124
-15.601
-14.07
-12.538
-11.012
-9.5
-8.013
-6.561
-5.156
-3.808
-2.523
-1.313
-0.186
0.853
1.797
2.644
3.396
4.05
4.6
5.039
5.352
5.536
5.595
5.526
5.338
5.05
4.685
4.291
3.921
3.602
3.361
3.217
3.169
3.237
3.431
3.734
4.159
4.711
5.382
6.185
7.105
8.069
8.994
9.749
10.175
10.179
9.672
8.565
6.827
4.423
1.363
-2.23
-6.28
-10.742
-15.556
-20.729
-26.171
-31.643
-36.884
-41.546
-45.236
-47.675
-48.493
-47.238
-43.778
-38.195
-30.871
-22.635
-14.086
-5.511
2.592
9.86
16.467
22.967
30.644
41.21
55.595
74.142
97.177
124.428
154.467
184.525
210.477
228.059
233.951
225.537
200.256
155.95
92.521
12.688
-78.86
-176.972
-276.812
-373.965
-462.923
-536.956
-591.376
-624.446
-636.366
-628.604
-602.704
-559.803
-503.526
-440.252
-375.488
-313.491
-257.118
-207.488
-166.116
-135.325
-115.058
-102.913
-96.271
-92.068
-88.384
-84.955
-80.871
-74.575
-65.692
-54.736
-42.81
-31.905
-23.059
-16.198
-11.474
-9.046
-8.799
-10.578
-13.748
-17.155
-20.089
-22.254
-23.446
-23.677
-22.927
-21.089
-18.232
-14.57
-10.283
-5.544
-0.47
4.874
10.378
15.893
21.253
26.305
30.938
35.083
38.699
41.773
44.299
46.283
47.752
48.749
49.326
49.547
49.463
49.129
48.609
47.977
47.32
46.716
46.222
45.881
45.722
45.77
46.044
46.559
47.317
48.318
49.566
51.064
52.817
54.828
57.095
59.609
62.359
65.334
68.524
71.92
75.511
79.284
83.227
87.326
91.57
95.944
100.429
105.004
109.645
114.328
119.03
123.723
128.383
132.981
137.492
141.89
146.15
150.248
154.158
157.857
161.32
164.527
167.456
170.087
172.402
174.383
176.016
177.288
178.187
178.705
178.834
178.569
177.905
176.843
175.382
173.526
171.278
168.645
165.636
162.262
158.534
154.467
150.076
145.379
140.393
135.139
129.638
123.911
117.981
111.871
105.605
99.208
92.705
86.12
79.479
72.808
66.131
59.473
52.859
46.311
39.852
33.504
27.288
21.223
15.328
9.619
4.112
-1.179
-6.24
-11.062
-15.633
-19.946
-23.994
-27.773
-31.278
-34.509
-37.464
-40.146
-42.555
-44.696
-46.574
-48.196
-49.569
-50.701
-51.602
-52.284
-52.757
-53.034
-53.128
-53.052
-52.82
-52.446
-51.945
-51.33
-50.616
-49.816
-48.945
-48.016
-47.041
-46.033
-45.004
-43.964
-42.924
-41.894
-40.883
-39.898
-38.948
-38.038
-37.175
-36.364
-35.609
-34.913
-34.28
-33.712
-33.209
-32.772
-32.402
-32.097
-31.857
-31.678
-31.559
-31.497
-31.487
-31.526
-31.611
-31.736
-31.897
-32.09
-32.311
-32.554
-32.815
-33.091
-33.376
-33.668
-33.963
-34.257
-34.548
-34.832
-35.107
-35.372
-35.623
-35.86
-36.081
-36.284
-36.47
-36.637
-36.784
-36.912
-37.021
-37.111
-37.183
-37.238
-37.277
-37.3
-37.311
-37.31
-37.299
-37.281
-37.257
-37.228
-37.198
-37.167
-37.138
-37.111
-37.089
-37.073
-37.062
-37.06
-37.065
-37.08
-37.103
-37.136
-37.179
-37.231
-37.292
-37.363
-37.442
-37.53
-37.626
-37.73
-37.84
-37.957
-38.079
-38.206
-38.336
-38.469
-38.602
-38.736
-38.867
-38.995
-39.12
-39.238
-39.35
-39.455
-39.552
-39.64
-39.719
-39.789
-39.849
-39.899
-39.94
-39.971
-39.993
-40.006
-40.012
-40.01
-40.003
-39.99
-39.973
-39.952
-39.927
-39.9
-39.871
-39.84
-39.808
-39.774
-39.741
-39.707
-39.675
-39.644
-39.615
-39.587
-39.56
-39.534
-39.507
-39.478
-39.445
-39.406
-39.358
-39.3
-39.229
-39.142
-39.038
-38.912
-38.762
-38.584
-38.374
-38.128
-37.842
-37.511
-37.13
-36.697
-36.21
-35.664
-35.058
-34.39
-33.656
-32.856
-31.989
-31.052
-30.044
-28.965
-27.813
-26.59
-25.299
-23.942
-22.523
-21.048
-19.522
-17.954
-16.349
-14.715
-13.056
-11.379
-9.689
-7.992
-6.292
-4.594
-2.905
-1.234
0.409
2.014
3.572
5.076
6.517
7.888
9.179
10.389
11.518
12.565
13.526
14.391
15.142
15.774
16.288
16.69
16.989
17.19
17.309
17.376
17.44
17.552
17.747
18.035
18.414
18.892
19.48
20.206
21.09
22.105
23.226
24.434
25.718
27.07
28.445
29.729
30.768
31.416
31.56
31.144
30.133
28.46
26.079
22.951
19.1
14.668
9.783
4.517
-1.077
-6.97
-13.023
-18.928
-24.316
-28.812
-32.075
-33.865
-33.853
-31.608
-26.972
-20.027
-11.187
-1.304
8.988
19.363
29.312
38.429
46.819
54.972
64.095
75.89
91.34
110.854
134.865
163.157
194.326
225.606
252.765
271.435
278.218
270.344
245.084
200.225
135.497
53.525
-40.672
-141.785
-244.816
-345.006
-436.936
-514.018
-571.198
-606.536
-620.593
-614.887
-591.314
-551.586
-498.657
-438.308
-376.239
-316.624
-261.921
-213.158
-171.096
-137.185
-112.228
-94.58
-81.693
-70.915
-60.589
-50.559
-40.797
-30.615
-19.127
-6.374
6.681
18.407
27.677
34.418
38.873
41.248
41.444
39.405
35.598
30.967
26.39
22.396
19.225
16.893
15.49
15.18
15.992
17.833
20.539
23.912
27.81
32.158
36.87
41.852
46.983
52.101
57.031
61.634
65.819
69.538
72.778
75.517
77.741
79.466
80.738
81.634
82.227
82.574
82.719
82.713
82.622
82.529
82.522
82.665
82.998
83.553
84.352
85.416
86.764
88.4
90.314
92.493
94.931
97.626
100.577
103.777
107.213
110.868
114.722
118.761
122.973
127.34
131.845
136.47
141.196
146.008
150.889
155.82
160.777
165.736
170.673
175.561
180.375
185.089
189.674
194.107
198.36
202.412
206.24
209.822
213.136
216.162
218.884
221.282
223.343
225.052
226.395
227.363
227.947
228.141
227.94
227.341
226.342
224.943
223.148
220.961
218.388
215.437
212.118
208.441
204.42
200.07
195.407
190.448
185.213
179.72
173.991
168.048
161.912
155.606
149.152
142.574
135.895
129.138
122.325
115.481
108.627
101.786
94.98
88.228
81.553
74.972
68.504
62.167
55.977
49.949
44.097
38.434
32.972
27.721
22.689
17.886
13.316
8.985
4.897
1.053
-2.544
-5.896
-9.003
-11.867
-14.492
-16.883
-19.044
-20.981
-22.701
-24.211
-25.52
-26.635
-27.567
-28.324
-28.916
-29.354
-29.647
-29.805
-29.839
-29.758
-29.573
-29.294
-28.93
-28.49
-27.983
-27.418
-26.803
-26.145
-25.452
-24.731
-23.988
-23.229
-22.458
-21.682
-20.903
-20.127
-19.357
-18.595
-17.844
-17.108
-16.387
-15.684
-14.999
-14.333
-13.688
-13.063
-12.459
-11.875
-11.311
-10.767
-10.242
-9.735
-9.246
-8.774
-8.319
-7.879
-7.455
-7.046
-6.65
-6.269
-5.902
-5.549
-5.21
-4.885
-4.575
-4.281
-4.003
-3.741
-3.497
-3.271
-3.064
-2.877
-2.711
-2.566
-2.444
-2.345
-2.27
-2.221
-2.198
-2.201
-2.233
-2.293
-2.382
-2.5
-2.649
-2.828
-3.038
-3.278
-3.549
-3.85
-4.18
-4.538
-4.924
-5.335
-5.771
-6.229
-6.707
-7.204
-7.717
-8.244
-8.782
-9.329
-9.882
-10.439
-10.998
-11.557
-12.111
-12.661
-13.202
-13.733
-14.252
-14.757
-15.246
-15.718
-16.17
-16.603
-17.015
-17.406
-17.774
-18.119
-18.442
-18.742
-19.02
-19.277
-19.514
-19.732
-19.934
-20.12
-20.294
-20.457
-20.611
-20.758
-20.9
-21.039
-21.176
-21.314
-21.454
-21.597
-21.745
-21.901
-22.064
-22.235
-22.416
-22.605
-22.802
-23.008
-23.221
-23.439
-23.661
-23.884
-24.108
-24.329
-24.545
-24.754
-24.952
-25.136
-25.301
-25.443
-25.557
-25.639
-25.684
-25.689
-25.65
-25.564
-25.43
-25.245
-25.007
-24.716
-24.369
-23.968
-23.511
-22.998
-22.43
-21.809
-21.139
-20.423
-19.665
-18.871
-18.046
-17.198
-16.335
-15.464
-14.591
-13.724
-12.869
-12.034
-11.226
-10.451
-9.715
-9.024
-8.385
-7.809
-7.302
-6.873
-6.525
-6.264
-6.094
-6.016
-6.032
-6.141
-6.337
-6.62
-6.989
-7.447
-8.007
-8.67
-9.432
-10.287
-11.221
-12.21
-13.225
-14.226
-15.167
-16.019
-16.756
-17.363
-17.842
-18.179
-18.377
-18.43
-18.314
-18.008
-17.505
-16.799
-15.916
-14.926
-13.918
-13.01
-12.34
-12.011
-12.116
-12.72
-13.853
-15.518
-17.665
-20.233
-23.194
-26.545
-30.301
-34.433
-38.815
-43.223
-47.386
-50.979
-53.691
-55.137
-54.84
-52.565
-48.317
-42.385
-35.452
-28.086
-20.524
-13.166
-6.539
-0.612
5.003
11.419
20.611
33.706
50.931
72.563
98.685
128.522
160.384
190.65
214.19
227.414
227.796
212.886
180.642
129.394
59.215
-26.297
-121.261
-220.91
-320.804
-416.302
-502.515
-573.096
-623.179
-651.875
-660.689
-651.073
-624.862
-584.109
-531.703
-473.677
-416.03
-361.805
-312.349
-268.491
-230.702
-199.929
-176.868
-159.262
-143.872
-129.146
-114.521
-100.096
-86.322
-72.797
-58.606
-44.449
-31.979
-22.094
-15.262
-11.322
-9.566
-9.776
-12.179
-16.418
-21.662
-27.202
-32.312
-36.597
-40.065
-42.61
-44.041
-44.29
-43.369
-41.355
-38.43
-34.747
-30.397
-25.503
-20.177
-14.546
-8.774
-3.04
2.465
7.597
12.267
16.423
20.046
23.116
25.62
27.581
29.062
30.132
30.862
31.309
31.515
31.539
31.462
31.366
31.342
31.454
31.741
32.24
32.975
33.97
35.243
36.797
38.619
40.703
43.045
45.645
48.507
51.624
54.984
58.572
62.376
66.383
70.579
74.952
79.484
84.16
88.961
93.874
98.882
103.964
109.098
114.259
119.42
124.554
129.633
134.63
139.513
144.256
148.829
153.208
157.365
161.276
164.917
168.263
171.294
173.99
176.332
178.302
179.886
181.071
181.844
182.198
182.126
181.623
180.685
179.314
177.511
175.28
172.629
169.565
166.1
162.247
158.021
153.441
148.524
143.292
137.767
131.972
125.933
119.675
113.225
106.61
99.857
92.993
86.048
79.047
72.018
64.988
57.984
51.032
44.156
37.381
30.729
24.223
17.882
11.727
5.776
0.044
-5.454
-10.704
-15.696
-20.418
-24.864
-29.027
-32.903
-36.489
-39.783
-42.786
-45.501
-47.93
-50.079
-51.954
-53.561
-54.91
-56.01
-56.871
-57.504
-57.92
-58.132
-58.152
-57.993
-57.668
-57.19
-56.573
-55.83
-54.974
-54.019
-52.977
-51.86
-50.682
-49.453
-48.185
-46.889
-45.574
-44.25
-42.926
-41.61
-40.31
-39.031
-37.782
-36.565
-35.387
-34.251
-33.16
-32.118
-31.127
-30.188
-29.302
-28.471
-27.694
-26.973
-26.306
-25.693
-25.134
-24.626
-24.17
-23.762
-23.402
-23.087
-22.816
-22.585
-22.393
-22.237
-22.115
-22.024
-21.961
-21.924
-21.91
-21.916
-21.94
-21.979
-22.031
-22.094
-22.166
-22.244
-22.328
-22.414
-22.502
-22.59
-22.675
-22.757
-22.834
-22.904
-22.967
-23.02
-23.063
-23.094
-23.112
-23.116
-23.105
-23.079
-23.035
-22.974
-22.896
-22.799
-22.685
-22.552
-22.402
-22.236
-22.052
-21.854
-21.64
-21.413
-21.173
-20.92
-20.657
-20.385
-20.103
-19.815
-19.521
-19.223
-18.923
-18.623
-18.324
-18.029
-17.738
-17.455
-17.181
-16.919
-16.67
-16.438
-16.225
-16.033
-15.865
-15.724
-15.611
-15.528
-15.477
-15.457
-15.471
-15.518
-15.599
-15.714
-15.863
-16.045
-16.262
-16.51
-16.791
-17.1
-17.438
-17.801
-18.188
-18.594
-19.016
-19.45
-19.894
-20.343
-20.793
-21.241
-21.682
-22.111
-22.522
-22.91
-23.269
-23.592
-23.872
-24.103
-24.281
-24.401
-24.458
-24.449
-24.371
-24.219
-23.993
-23.69
-23.308
-22.845
-22.301
-21.674
-20.966
-20.181
-19.32
-18.388
-17.388
-16.328
-15.215
-14.057
-12.858
-11.626
-10.365
-9.083
-7.787
-6.482
-5.172
-3.866
-2.573
-1.301
-0.062
1.132
2.276
3.359
4.375
5.318
6.184
6.969
7.677
8.307
8.854
9.309
9.658
9.894
10.021
10.039
9.956
9.79
9.564
9.32
9.11
8.968
8.912
8.956
9.095
9.338
9.695
10.165
10.759
11.487
12.349
13.358
14.512
15.764
17.028
18.178
19.061
19.566
19.614
19.132
18.09
16.459
14.238
11.506
8.331
4.762
0.822
-3.507
-8.184
-13.037
-17.809
-22.17
-25.745
-28.246
-29.327
-28.532
-25.658
-20.723
-14.023
-6.268
1.925
10.285
18.427
25.853
32.617
39.149
46.454
56.342
70.101
88.112
110.762
138.289
169.629
202.649
233.955
258.714
272.783
273.274
257.155
221.617
166.056
91.939
2.844
-95.38
-196.913
-296.618
-388.352
-465.428
-523.331
-559.795
-574.633
-570.049
-548.833
-513.79
-469.326
-421.134
-373.531
-329.355
-290.25
-256.272
-227.137
-202.636
-181.477
-161.464
-141.21
-120.102
-98.076
-75.885
-54.24
-33.596
-14.751
1.294
14.001
23.183
28.936
31.753
32.103
30.368
27.061
22.72
17.777
12.63
7.637
3.045
-0.902
-3.993
-6.116
-7.192
-7.177
-6.084
-3.957
-0.881
3.006
7.56
12.637
18.081
23.743
29.46
35.042
40.332
45.219
49.624
53.511
56.859
59.654
61.909
63.668
64.986
65.932
66.568
66.944
67.122
67.171
67.17
67.205
67.345
67.637
68.119
68.816
69.751
70.942
72.396
74.103
76.057
78.256
80.696
83.382
86.31
89.469
92.848
96.432
100.21
104.171
108.302
112.59
117.019
121.576
126.246
131.017
135.872
140.791
145.75
150.726
155.695
160.63
165.506
170.294
174.968
179.501
183.868
188.045
192.007
195.729
199.189
202.366
205.238
207.786
209.993
211.841
213.315
214.403
215.094
215.378
215.249
214.7
213.728
212.332
210.514
208.275
205.622
202.561
199.101
195.253
191.032
186.453
181.532
176.29
170.745
164.922
158.842
152.53
146.012
139.311
132.455
125.47
118.382
111.218
104.004
96.767
89.531
82.323
75.167
68.087
61.106
54.245
47.525
40.965
34.584
28.398
22.423
16.673
11.159
5.894
0.885
-3.859
-8.334
-12.535
-16.46
-20.109
-23.483
-26.584
-29.417
-31.988
-34.302
-36.368
-38.194
-39.791
-41.167
-42.334
-43.304
-44.087
-44.697
-45.145
-45.443
-45.603
-45.638
-45.56
-45.379
-45.108
-44.757
-44.337
-43.858
-43.33
-42.762
-42.164
-41.542
-40.906
-40.26
-39.612
-38.966
-38.327
-37.699
-37.085
-36.487
-35.906
-35.345
-34.803
-34.282
-33.78
-33.298
-32.836
-32.392
-31.966
-31.556
-31.162
-30.782
-30.417
-30.065
-29.725
-29.397
-29.081
-28.776
-28.481
-28.198
-27.924
-27.661
-27.408
-27.166
-26.933
-26.711
-26.5
-26.301
-26.114
-25.94
-25.782
-25.639
-25.513
-25.406
-25.32
-25.255
-25.214
-25.197
-25.205
-25.241
-25.305
-25.398
-25.521
-25.674
-25.858
-26.074
-26.321
-26.6
-26.909
-27.247
-27.615
-28.012
-28.436
-28.886
-29.363
-29.864
-30.39
-30.939
-31.509
-32.101
-32.711
-33.338
-33.98
-34.634
-35.3
-35.973
-36.652
-37.335
-38.019
-38.703
-39.384
-40.058
-40.724
-41.379
-42.018
-42.641
-43.242
-43.819
-44.369
-44.888
-45.375
-45.827
-46.242
-46.617
-46.95
-47.237
-47.477
-47.665
-47.8
-47.877
-47.894
-47.851
-47.745
-47.577
-47.346
-47.052
-46.694
-46.275
-45.796
-45.256
-44.657
-44
-43.287
-42.521
-41.707
-40.848
-39.951
-39.019
-38.061
-37.086
-36.1
-35.11
-34.123
-33.143
-32.176
-31.229
-30.306
-29.41
-28.545
-27.718
-26.936
-26.209
-25.543
-24.942
-24.413
-23.958
-23.582
-23.288
-23.072
-22.929
-22.857
-22.86
-22.943
-23.121
-23.396
-23.763
-24.221
-24.76
-25.363
-26.006
-26.642
-27.215
-27.692
-28.05
-28.277
-28.378
-28.345
-28.16
-27.833
-27.353
-26.715
-25.93
-24.986
-23.887
-22.689
-21.482
-20.402
-19.618
-19.242
-19.349
-20.019
-21.279
-23.156
-25.66
-28.698
-32.192
-36.089
-40.342
-44.954
-49.873
-54.917
-59.82
-64.236
-67.769
-70.109
-70.91
-69.77
-66.541
-61.272
-54.262
-46.205
-37.661
-28.987
-20.691
-13.129
-6.163
0.727
8.651
19.059
32.779
50.237
71.927
97.743
126.523
155.805
181.748
200.441
208.755
203.948
183.282
144.534
87.28
13.781
-71.473
-163.662
-257.983
-349.503
-432.656
-501.175
-550.667
-579.78
-589.253
-580.711
-556.461
-519.219
-473
-423.57
-375.4
-330.901
-291.376
-257.105
-227.948
-203.812
-183.59
-164.897
-146.186
-126.869
-106.825
-86.739
-67.254
-48.692
-31.757
-17.407
-6.136
1.89
6.8
9.158
9.449
8.079
5.581
2.405
-1.073
-4.482
-7.587
-10.2
-12.131
-13.266
-13.526
-12.842
-11.212
-8.66
-5.236
-1.07
3.694
8.911
14.406
20.044
25.689
31.172
36.369
41.176
45.51
49.343
52.66
55.443
57.702
59.469
60.783
61.715
62.334
62.697
62.874
62.937
62.961
63.033
63.223
63.579
64.143
64.941
65.993
67.324
68.942
70.845
73.033
75.503
78.253
81.287
84.6
88.184
92.024
96.106
100.413
104.934
109.654
114.556
119.624
124.84
130.185
135.644
141.197
146.818
152.482
158.159
163.821
169.441
174.987
180.428
185.736
190.88
195.833
200.568
205.058
209.278
213.202
216.807
220.072
222.975
225.499
227.624
229.337
230.623
231.473
231.877
231.829
231.325
230.362
228.941
227.064
224.738
221.968
218.765
215.139
211.106
206.682
201.885
196.734
191.25
185.458
179.38
173.043
166.472
159.695
152.737
145.627
138.394
131.064
123.667
116.23
108.781
101.347
93.955
86.631
79.401
72.288
65.315
58.504
51.875
45.447
39.238
33.263
27.535
22.068
16.87
11.952
7.319
2.976
-1.073
-4.826
-8.285
-11.45
-14.324
-16.913
-19.222
-21.258
-23.029
-24.545
-25.815
-26.851
-27.664
-28.266
-28.671
-28.891
-28.941
-28.832
-28.58
-28.198
-27.699
-27.097
-26.404
-25.633
-24.796
-23.905
-22.969
-22
-21.005
-19.995
-18.976
-17.956
-16.94
-15.936
-14.946
-13.976
-13.029
-12.107
-11.213
-10.348
-9.513
-8.709
-7.936
-7.193
-6.481
-5.797
-5.141
-4.512
-3.907
-3.326
-2.765
-2.225
-1.701
-1.194
-0.701
-0.221
0.248
0.707
1.157
1.598
2.03
2.456
2.874
3.285
3.688
4.083
4.471
4.849
5.218
5.576
5.923
6.257
6.577
6.882
7.171
7.443
7.696
7.93
8.144
8.335
8.504
8.649
8.768
8.862
8.928
8.965
8.974
8.953
8.903
8.821
8.709
8.565
8.39
8.182
7.942
7.668
7.361
7.019
6.643
6.232
5.787
5.307
4.793
4.244
3.661
3.043
2.391
1.703
0.981
0.225
-0.565
-1.387
-2.24
-3.122
-4.031
-4.965
-5.92
-6.895
-7.887
-8.893
-9.912
-10.939
-11.972
-13.006
-14.038
-15.064
-16.079
-17.076
-18.052
-19.001
-19.918
-20.798
-21.639
-22.435
-23.183
-23.877
-24.514
-25.09
-25.601
-26.044
-26.414
-26.71
-26.929
-27.073
-27.142
-27.139
-27.069
-26.934
-26.74
-26.49
-26.189
-25.841
-25.449
-25.017
-24.546
-24.039
-23.503
-22.944
-22.372
-21.798
-21.231
-20.681
-20.157
-19.669
-19.225
-18.831
-18.485
-18.192
-17.955
-17.784
-17.699
-17.711
-17.824
-18.035
-18.336
-18.716
-19.162
-19.648
-20.128
-20.56
-20.902
-21.131
-21.251
-21.269
-21.177
-20.966
-20.611
-20.099
-19.461
-18.729
-17.925
-17.078
-16.217
-15.417
-14.817
-14.568
-14.796
-15.592
-16.987
-18.996
-21.657
-24.997
-29.027
-33.721
-38.952
-44.57
-50.481
-56.586
-62.782
-68.932
-74.734
-79.81
-83.838
-86.505
-87.551
-86.815
-84.009
-78.798
-71.158
-61.287
-49.71
-37.323
-24.748
-12.302
-0.52
10.093
19.549
28.115
36.81
47.461
61.136
78.285
99.395
124.004
150.41
176.29
198.086
211.164
211.973
197.464
164.545
112.372
42.375
-42.669
-137.961
-237.35
-335.284
-425.644
-501.483
-558.355
-594.185
-608.4
-602.764
-580.241
-543.775
-497.829
-448.289
-399.376
-353.84
-313.487
-278.436
-248.402
-223.208
-201.502
-181.049
-160.513
-139.268
-117.228
-95.156
-73.719
-53.332
-34.787
-19.024
-6.544
2.481
8.191
11.083
11.625
10.218
7.356
3.539
-0.814
-5.336
-9.693
-13.633
-16.932
-19.405
-20.94
-21.473
-20.97
-19.446
-16.955
-13.595
-9.502
-4.823
0.302
5.732
11.324
16.927
22.365
27.488
32.193
36.411
40.108
43.269
45.884
47.969
49.57
50.751
51.58
52.121
52.427
52.558
52.583
52.579
52.629
52.8
53.137
53.677
54.447
55.466
56.754
58.315
60.143
62.228
64.568
67.159
70.003
73.094
76.421
79.97
83.726
87.676
91.806
96.104
100.552
105.135
109.834
114.636
119.524
124.48
129.483
134.507
139.529
144.522
149.461
154.32
159.069
163.683
168.137
172.405
176.464
180.291
183.863
187.159
190.159
192.845
195.199
197.207
198.853
200.127
201.018
201.518
201.622
201.324
200.624
199.52
198.014
196.112
193.818
191.141
188.09
184.676
180.914
176.818
172.406
167.695
162.704
157.455
151.97
146.271
140.381
134.324
128.125
121.806
115.393
108.91
102.381
95.829
89.278
82.751
76.271
69.858
63.533
57.316
51.225
45.277
39.489
33.874
28.448
23.22
18.203
13.406
8.836
4.499
0.401
-3.455
-7.068
-10.436
-13.56
-16.442
-19.086
-21.495
-23.676
-25.633
-27.375
-28.909
-30.243
-31.387
-32.35
-33.142
-33.775
-34.257
-34.6
-34.816
-34.914
-34.906
-34.801
-34.611
-34.346
-34.014
-33.626
-33.189
-32.714
-32.206
-31.675
-31.126
-30.567
-30.002
-29.437
-28.877
-28.325
-27.785
-27.26
-26.753
-26.265
-25.799
-25.355
-24.934
-24.538
-24.167
-23.82
-23.497
-23.198
-22.923
-22.67
-22.439
-22.229
-22.038
-21.867
-21.714
-21.579
-21.459
-21.356
-21.267
-21.193
-21.132
-21.084
-21.049
-21.026
-21.016
-21.018
-21.032
-21.058
-21.097
-21.149
-21.213
-21.291
-21.382
-21.486
-21.604
-21.735
-21.881
-22.04
-22.214
-22.402
-22.604
-22.82
-23.051
-23.295
-23.552
-23.823
-24.106
-24.401
-24.708
-25.026
-25.356
-25.696
-26.047
-26.408
-26.778
-27.158
-27.546
-27.943
-28.348
-28.76
-29.18
-29.606
-30.039
-30.48
-30.927
-31.382
-31.843
-32.311
-32.785
-33.266
-33.753
-34.245
-34.743
-35.246
-35.755
-36.269
-36.789
-37.314
-37.844
-38.377
-38.914
-39.452
-39.99
-40.526
-41.058
-41.582
-42.098
-42.603
-43.095
-43.571
-44.028
-44.463
-44.872
-45.252
-45.6
-45.911
-46.18
-46.404
-46.581
-46.707
-46.781
-46.801
-46.764
-46.668
-46.513
-46.298
-46.021
-45.681
-45.276
-44.807
-44.275
-43.682
-43.032
-42.327
-41.571
-40.772
-39.936
-39.07
-38.179
-37.269
-36.344
-35.411
-34.475
-33.54
-32.61
-31.69
-30.789
-29.916
-29.08
-28.288
-27.544
-26.856
-26.23
-25.673
-25.188
-24.771
-24.42
-24.139
-23.937
-23.828
-23.82
-23.911
-24.093
-24.361
-24.708
-25.119
-25.562
-25.983
-26.322
-26.544
-26.634
-26.589
-26.4
-26.049
-25.505
-24.76
-23.834
-22.751
-21.529
-20.167
-18.678
-17.124
-15.629
-14.37
-13.52
-13.197
-13.468
-14.397
-16.049
-18.48
-21.717
-25.682
-30.233
-35.26
-40.705
-46.557
-52.741
-59.038
-65.09
-70.45
-74.698
-77.516
-78.543
-77.337
-73.684
-67.611
-59.459
-50.044
-40.065
-29.908
-20.075
-10.926
-2.243
6.6
16.858
30.253
47.792
69.859
96.847
128.445
163.036
197.617
227.726
248.781
257.307
250.554
225.822
180.984
115.912
33.389
-61.361
-162.826
-265.934
-365.972
-457.645
-534.51
-591.67
-627.324
-642.143
-637.753
-616.086
-578.78
-528.644
-471.235
-412.016
-354.984
-302.486
-255.461
-214.638
-181.459
-156.751
-139.007
-125.82
-114.639
-103.89
-93.427
-83.211
-72.563
-60.606
-47.373
-33.84
-21.629
-11.864
-4.66
0.188
2.839
3.151
1.1
-2.812
-7.622
-12.427
-16.696
-20.186
-22.852
-24.577
-25.191
-24.658
-23.072
-20.598
-17.405
-13.615
-9.29
-4.499
0.646
6.006
11.41
16.668
21.635
26.211
30.334
33.97
37.101
39.712
41.813
43.452
44.693
45.6
46.226
46.609
46.802
46.871
46.899
46.977
47.171
47.526
48.074
48.841
49.848
51.114
52.641
54.42
56.439
58.695
61.184
63.909
66.865
70.041
73.421
76.989
80.733
84.641
88.7
92.894
97.207
101.625
106.133
110.718
115.364
120.048
124.749
129.444
134.106
138.714
143.24
147.658
151.942
156.068
160.011
163.748
167.258
170.517
173.506
176.205
178.596
180.664
182.393
183.769
184.781
185.419
185.675
185.543
185.018
184.098
182.781
181.07
178.967
176.479
173.612
170.376
166.781
162.84
158.569
153.985
149.104
143.947
138.535
132.892
127.039
121.002
114.806
108.475
102.036
95.515
88.936
82.326
75.71
69.112
62.557
56.069
49.67
43.382
37.226
31.221
25.386
19.738
14.293
9.064
4.066
-0.693
-5.2
-9.45
-13.434
-17.15
-20.593
-23.762
-26.658
-29.282
-31.637
-33.73
-35.566
-37.152
-38.497
-39.612
-40.506
-41.192
-41.68
-41.984
-42.116
-42.09
-41.918
-41.615
-41.193
-40.665
-40.046
-39.346
-38.579
-37.757
-36.889
-35.987
-35.061
-34.12
-33.172
-32.225
-31.287
-30.364
-29.462
-28.584
-27.736
-26.92
-26.14
-25.396
-24.689
-24.021
-23.39
-22.796
-22.237
-21.712
-21.218
-20.754
-20.316
-19.901
-19.506
-19.127
-18.762
-18.408
-18.059
-17.714
-17.37
-17.022
-16.67
-16.309
-15.938
-15.554
-15.156
-14.741
-14.308
-13.855
-13.381
-12.885
-12.366
-11.824
-11.258
-10.668
-10.054
-9.417
-8.757
-8.073
-7.368
-6.641
-5.894
-5.128
-4.345
-3.545
-2.732
-1.905
-1.068
-0.222
0.63
1.487
2.347
3.207
4.065
4.92
5.768
6.607
7.436
8.251
9.05
9.831
10.592
11.33
12.043
12.728
13.384
14.008
14.598
15.151
15.666
16.14
16.571
16.957
17.296
17.587
17.829
18.02
18.16
18.248
18.284
18.266
18.197
18.074
17.9
17.674
17.398
17.073
16.701
16.285
15.827
15.328
14.792
14.222
13.621
12.991
12.335
11.656
10.959
10.248
9.525
8.798
8.068
7.343
6.626
5.924
5.24
4.579
3.946
3.344
2.779
2.254
1.773
1.342
0.963
0.64
0.378
0.181
0.05
-0.013
-0.007
0.069
0.216
0.433
0.721
1.078
1.506
2.002
2.566
3.198
3.894
4.651
5.465
6.329
7.238
8.185
9.162
10.161
11.174
12.197
13.222
14.245
15.26
16.264
17.251
18.217
19.156
20.057
20.912
21.714
22.457
23.135
23.745
24.28
24.738
25.122
25.433
25.671
25.829
25.889
25.844
25.697
25.453
25.123
24.723
24.264
23.779
23.316
22.922
22.644
22.508
22.504
22.639
22.925
23.379
24.037
24.899
25.919
27.074
28.343
29.691
31.087
32.429
33.536
34.259
34.454
34.025
32.952
31.181
28.649
25.327
21.195
16.338
10.924
5.063
-1.186
-7.743
-14.498
-21.175
-27.338
-32.601
-36.603
-39.059
-39.704
-38.117
-34.053
-27.553
-18.904
-8.816
1.983
13.17
24.304
34.728
44.402
53.612
63.118
74.66
89.437
107.728
130.037
156.69
186.662
217.975
247.149
269.27
280.553
278.333
259.746
222.187
164.586
87.979
-3.749
-104.75
-209.745
-314.029
-412.511
-499.059
-567.771
-614.985
-639.817
-643.499
-627.862
-594.516
-545.42
-485.041
-419.343
-353.323
-290.87
-234.176
-184.235
-142.654
-111.318
-89.784
-75.87
-67.144
-60.791
-55.292
-50.409
-45.19
-38.172
-28.996
-18.112
-6.593
3.677
11.753
17.715
21.435
22.726
21.668
18.422
13.624
8.484
3.796
-0.096
-2.951
-4.754
-5.479
-4.998
-3.356
-0.768
2.585
6.524
10.918
15.729
20.871
26.207
31.585
36.803
41.697
46.174
50.172
53.663
56.637
59.077
60.992
62.431
63.457
64.141
64.541
64.697
64.661
64.499
64.29
64.128
64.084
64.203
64.52
65.059
65.84
66.883
68.193
69.762
71.579
73.642
75.947
78.497
81.291
84.317
87.561
91.008
94.646
98.464
102.449
106.586
110.86
115.256
119.759
124.355
129.028
133.756
138.515
143.282
148.031
152.737
157.376
161.918
166.339
170.612
174.713
178.62
182.308
185.754
188.938
191.839
194.439
196.719
198.664
200.259
201.492
202.35
202.826
202.912
202.603
201.894
200.785
199.276
197.37
195.071
192.387
189.326
185.899
182.119
178
173.558
168.811
163.779
158.481
152.94
147.178
141.219
135.086
128.804
122.399
115.893
109.314
102.684
96.029
89.374
82.74
76.153
69.634
63.205
56.887
50.7
44.66
38.787
33.096
27.6
22.313
17.247
12.41
7.812
3.459
-0.645
-4.495
-8.091
-11.432
-14.518
-17.353
-19.941
-22.287
-24.398
-26.28
-27.943
-29.395
-30.646
-31.706
-32.588
-33.301
-33.858
-34.271
-34.551
-34.712
-34.765
-34.723
-34.597
-34.398
-34.139
-33.829
-33.478
-33.096
-32.692
-32.274
-31.85
-31.427
-31.01
-30.606
-30.218
-29.851
-29.509
-29.192
-28.904
-28.646
-28.418
-28.222
-28.055
-27.919
-27.813
-27.735
-27.685
-27.66
-27.659
-27.68
-27.721
-27.781
-27.857
-27.948
-28.051
-28.166
-28.29
-28.422
-28.561
-28.706
-28.856
-29.01
-29.168
-29.33
-29.496
-29.666
-29.84
-30.02
-30.206
-30.399
-30.6
-30.811
-31.033
-31.267
-31.514
-31.775
-32.052
-32.345
-32.655
-32.984
-33.331
-33.697
-34.083
-34.489
-34.914
-35.359
-35.824
-36.308
-36.81
-37.329
-37.865
-38.416
-38.982
-39.561
-40.152
-40.753
-41.363
-41.98
-42.603
-43.229
-43.858
-44.486
-45.112
-45.734
-46.35
-46.959
-47.559
-48.149
-48.728
-49.294
-49.847
-50.386
-50.912
-51.423
-51.919
-52.401
-52.869
-53.322
-53.763
-54.191
-54.607
-55.012
-55.408
-55.795
-56.175
-56.548
-56.915
-57.277
-57.633
-57.985
-58.333
-58.677
-59.019
-59.358
-59.696
-60.032
-60.368
-60.703
-61.036
-61.366
-61.693
-62.015
-62.33
-62.635
-62.929
-63.211
-63.476
-63.725
-63.953
-64.158
-64.337
-64.485
-64.6
-64.678
-64.715
-64.707
-64.65
-64.544
-64.385
-64.173
-63.907
-63.584
-63.205
-62.768
-62.274
-61.723
-61.112
-60.442
-59.715
-58.932
-58.096
-57.211
-56.281
-55.31
-54.307
-53.277
-52.228
-51.164
-50.091
-49.013
-47.936
-46.867
-45.807
-44.761
-43.735
-42.735
-41.772
-40.853
-39.984
-39.169
-38.414
-37.723
-37.105
-36.558
-36.079
-35.665
-35.32
-35.054
-34.881
-34.81
-34.835
-34.95
-35.147
-35.42
-35.751
-36.108
-36.436
-36.678
-36.802
-36.798
-36.666
-36.399
-35.981
-35.384
-34.599
-33.647
-32.55
-31.327
-29.982
-28.531
-27.041
-25.644
-24.519
-23.833
-23.703
-24.191
-25.352
-27.245
-29.913
-33.375
-37.552
-42.31
-47.541
-53.186
-59.231
-65.589
-72.04
-78.231
-83.715
-88.078
-90.997
-92.118
-91.019
-87.511
-81.642
-73.77
-64.692
-55.094
-45.379
-36.069
-27.557
-19.658
-11.742
-2.568
9.542
25.591
45.993
71.225
101.113
134.152
167.422
196.521
216.918
225.133
218.3
193.558
148.622
83.268
0.295
-94.924
-196.768
-300.002
-399.44
-489.392
-563.103
-615.433
-644.948
-652.908
-641.204
-612.142
-568.216
-512.815
-452.189
-392.463
-336.899
-286.968
-243.423
-206.574
-177.165
-155.663
-139.695
-126.011
-113.002
-100.01
-87.069
-74.575
-62.132
-48.894
-35.592
-23.842
-14.496
-7.953
-4.015
-1.986
-1.639
-3.157
-6.146
-9.737
-13.263
-16.127
-18.036
-19.075
-19.186
-18.193
-16.061
-12.857
-8.698
-3.789
1.708
7.716
14.096
20.696
27.356
33.872
40.091
45.906
51.229
56.017
60.248
63.911
67.011
69.576
71.646
73.276
74.53
75.462
76.135
76.618
76.986
77.333
77.735
78.244
78.905
79.742
80.778
82.031
83.512
85.218
87.149
89.303
91.681
94.288
97.122
100.176
103.443
106.906
110.553
114.374
118.358
122.494
126.769
131.169
135.682
140.298
145.001
149.774
154.595
159.443
164.293
169.123
173.909
178.626
183.247
187.749
192.108
196.301
200.307
204.101
207.663
210.972
214.008
216.751
219.186
221.296
223.065
224.482
225.536
226.217
226.518
226.434
225.96
225.094
223.836
222.189
220.155
217.74
214.952
211.798
208.291
204.444
200.27
195.785
191.008
185.956
180.651
175.112
169.361
163.42
157.314
151.064
144.695
138.232
131.699
125.119
118.519
111.92
105.348
98.825
92.374
86.015
79.771
73.659
67.7
61.911
56.309
50.908
45.722
40.765
36.046
31.575
27.361
23.409
19.725
16.312
13.17
10.302
7.704
5.376
3.312
1.507
-0.044
-1.35
-2.419
-3.261
-3.886
-4.305
-4.531
-4.575
-4.451
-4.17
-3.748
-3.196
-2.529
-1.759
-0.9
0.035
1.033
2.083
3.172
4.288
5.421
6.561
7.698
8.823
9.929
11.007
12.051
13.056
14.016
14.928
15.787
16.592
17.34
18.031
18.662
19.236
19.751
20.211
20.615
20.966
21.267
21.519
21.726
21.892
22.018
22.108
22.165
22.193
22.194
22.172
22.13
22.071
21.997
21.91
21.814
21.709
21.599
21.484
21.365
21.244
21.121
20.997
20.871
20.743
20.613
20.48
20.344
20.202
20.055
19.899
19.734
19.558
19.369
19.166
18.947
18.71
18.454
18.177
17.878
17.557
17.211
16.841
16.445
16.023
15.576
15.102
14.602
14.077
13.526
12.951
12.352
11.731
11.089
10.427
9.747
9.05
8.339
7.616
6.882
6.139
5.39
4.637
3.882
3.128
2.376
1.629
0.888
0.157
-0.565
-1.274
-1.971
-2.653
-3.32
-3.971
-4.606
-5.225
-5.827
-6.412
-6.98
-7.531
-8.065
-8.584
-9.087
-9.575
-10.05
-10.512
-10.961
-11.399
-11.826
-12.242
-12.646
-13.04
-13.422
-13.793
-14.153
-14.5
-14.835
-15.158
-15.468
-15.765
-16.046
-16.311
-16.559
-16.786
-16.99
-17.17
-17.322
-17.443
-17.531
-17.585
-17.602
-17.58
-17.517
-17.41
-17.259
-17.06
-16.812
-16.516
-16.168
-15.77
-15.323
-14.83
-14.294
-13.721
-13.115
-12.48
-11.822
-11.148
-10.46
-9.763
-9.06
-8.354
-7.648
-6.948
-6.259
-5.59
-4.952
-4.351
-3.797
-3.301
-2.869
-2.509
-2.228
-2.028
-1.91
-1.881
-1.947
-2.126
-2.429
-2.857
-3.406
-4.069
-4.83
-5.675
-6.58
-7.503
-8.406
-9.253
-10.01
-10.668
-11.229
-11.682
-12.011
-12.194
-12.209
-12.073
-11.827
-11.504
-11.137
-10.77
-10.458
-10.32
-10.492
-11.092
-12.224
-13.945
-16.278
-19.265
-22.957
-27.382
-32.547
-38.376
-44.701
-51.393
-58.346
-65.443
-72.566
-79.462
-85.771
-91.153
-95.293
-97.904
-98.79
-97.654
-94.063
-87.872
-79.204
-68.476
-56.549
-44.128
-31.508
-19.21
-7.941
2.173
11.414
20.777
32.212
47.048
65.635
88.409
115.634
146.204
177.915
207.088
228.638
238.509
233.914
211.988
170.09
107.549
25.982
-70.579
-176.04
-284.861
-392.294
-492.69
-579.292
-646.447
-690.891
-711.622
-710.019
-687.719
-645.879
-587.433
-517.991
-443.672
-369.662
-300.257
-237.732
-183.88
-141.35
-111.233
-92.086
-81.451
-76.391
-73.792
-72.127
-70.356
-66.582
-59.785
-50.128
-38.262
-25.737
-14.491
-5.307
1.543
5.562
6.786
5.452
1.836
-3.138
-8.283
-12.924
-16.66
-19.243
-20.734
-21.115
-20.3
-18.417
-15.665
-12.213
-8.244
-3.866
0.886
5.919
11.107
16.291
21.26
25.869
30.04
33.727
36.924
39.618
41.794
43.475
44.72
45.593
46.166
46.49
46.601
46.558
46.428
46.297
46.259
46.381
46.706
47.268
48.089
49.189
50.587
52.283
54.265
56.523
59.051
61.847
64.913
68.242
71.818
75.626
79.649
83.869
88.274
92.845
97.564
102.413
107.374
112.428
117.561
122.75
127.971
133.201
138.411
143.574
148.663
153.651
158.507
163.204
167.716
172.016
176.079
179.881
183.399
186.61
189.494
192.031
194.204
195.996
197.393
198.382
198.954
199.099
198.812
198.087
196.923
195.317
193.274
190.796
187.89
184.563
180.826
176.69
172.17
167.281
162.042
156.472
150.59
144.42
137.984
131.308
124.415
117.333
110.087
102.704
95.211
87.637
80.008
72.352
64.695
57.064
49.486
41.985
34.586
27.313
20.188
13.233
6.469
-0.087
-6.415
-12.502
-18.332
-23.892
-29.172
-34.163
-38.857
-43.248
-47.332
-51.107
-54.572
-57.728
-60.576
-63.121
-65.367
-67.322
-68.994
-70.39
-71.522
-72.4
-73.037
-73.445
-73.638
-73.629
-73.434
-73.066
-72.542
-71.875
-71.082
-70.178
-69.177
-68.094
-66.943
-65.737
-64.49
-63.214
-61.92
-60.618
-59.319
-58.032
-56.765
-55.526
-54.321
-53.155
-52.035
-50.964
-49.945
-48.982
-48.076
-47.228
-46.438
-45.707
-45.033
-44.416
-43.854
-43.343
-42.882
-42.467
-42.094
-41.761
-41.462
-41.194
-40.953
-40.734
-40.534
-40.348
-40.174
-40.009
-39.848
-39.69
-39.533
-39.374
-39.212
-39.045
-38.872
-38.693
-38.508
-38.315
-38.116
-37.91
-37.698
-37.481
-37.259
-37.034
-36.806
-36.578
-36.35
-36.123
-35.9
-35.682
-35.471
-35.268
-35.076
-34.896
-34.73
-34.578
-34.443
-34.325
-34.224
-34.143
-34.08
-34.036
-34.011
-34.004
-34.015
-34.043
-34.087
-34.146
-34.217
-34.301
-34.394
-34.495
-34.604
-34.717
-34.835
-34.955
-35.077
-35.198
-35.319
-35.438
-35.555
-35.667
-35.775
-35.877
-35.974
-36.066
-36.151
-36.232
-36.308
-36.38
-36.448
-36.514
-36.578
-36.641
-36.703
-36.766
-36.831
-36.898
-36.97
-37.046
-37.13
-37.221
-37.321
-37.429
-37.545
-37.67
-37.803
-37.942
-38.085
-38.232
-38.379
-38.526
-38.67
-38.81
-38.94
-39.06
-39.164
-39.249
-39.31
-39.342
-39.34
-39.298
-39.212
-39.078
-38.892
-38.651
-38.351
-37.988
-37.56
-37.064
-36.499
-35.861
-35.149
-34.361
-33.499
-32.563
-31.556
-30.482
-29.343
-28.147
-26.9
-25.61
-24.282
-22.923
-21.539
-20.135
-18.718
-17.295
-15.869
-14.449
-13.044
-11.664
-10.32
-9.024
-7.784
-6.611
-5.511
-4.49
-3.555
-2.707
-1.943
-1.267
-0.685
-0.205
0.158
0.399
0.522
0.526
0.421
0.222
-0.044
-0.337
-0.606
-0.823
-0.967
-1.03
-1.014
-0.912
-0.71
-0.404
0.012
0.543
1.191
1.964
2.862
3.845
4.828
5.691
6.295
6.539
6.355
5.685
4.494
2.755
0.454
-2.354
-5.587
-9.182
-13.092
-17.298
-21.789
-26.44
-31
-35.166
-38.589
-40.949
-42.008
-41.439
-38.837
-34.049
-27.196
-18.703
-9.364
0.176
9.655
18.654
26.584
33.437
39.641
46.272
55.289
68.088
85.054
106.629
133.139
163.482
195.426
225.392
248.273
259.711
256.696
236.09
195.042
133.127
52.173
-43.775
-148.358
-255.249
-358.83
-452.507
-529.189
-584.24
-615.573
-623.31
-610.084
-579.184
-533.911
-479.247
-421.527
-365.464
-314.056
-269.011
-230.301
-197.54
-170.457
-147.575
-126.436
-105.516
-84.151
-62.268
-40.669
-20.057
-0.819
16.278
30.285
40.746
47.547
50.915
51.494
49.853
46.47
41.924
36.736
31.348
26.194
21.594
17.748
14.842
12.993
12.263
12.709
14.327
17.052
20.784
25.367
30.63
36.408
42.517
48.794
55.07
61.148
66.87
72.127
76.837
80.966
84.502
87.427
89.754
91.528
92.81
93.674
94.196
94.433
94.457
94.346
94.182
94.055
94.039
94.18
94.517
95.079
95.886
96.958
98.303
99.914
101.786
103.916
106.302
108.946
111.843
114.984
118.354
121.938
125.723
129.698
133.85
138.162
142.62
147.207
151.909
156.711
161.595
166.538
171.517
176.505
181.477
186.406
191.264
196.024
200.655
205.133
209.429
213.52
217.379
220.982
224.305
227.326
230.024
232.38
234.376
235.995
237.222
238.045
238.454
238.441
238
237.126
235.817
234.074
231.899
229.296
226.272
222.836
218.997
214.77
210.167
205.207
199.907
194.286
188.367
182.172
175.725
169.05
162.174
155.122
147.92
140.597
133.18
125.695
118.171
110.634
103.11
95.626
88.208
80.88
73.665
66.585
59.663
52.917
46.367
40.03
33.921
28.055
22.443
17.098
12.027
7.239
2.74
-1.466
-5.378
-8.993
-12.314
-15.342
-18.081
-20.537
-22.717
-24.629
-26.282
-27.686
-28.853
-29.796
-30.527
-31.06
-31.409
-31.588
-31.613
-31.498
-31.258
-30.908
-30.463
-29.936
-29.343
-28.696
-28.009
-27.294
-26.563
-25.828
-25.098
-24.384
-23.695
-23.039
-22.422
-21.852
-21.334
-20.873
-20.472
-20.135
-19.863
-19.658
-19.519
-19.448
-19.442
-19.501
-19.621
-19.8
-20.035
-20.322
-20.658
-21.037
-21.456
-21.91
-22.394
-22.904
-23.434
-23.98
-24.538
-25.103
-25.671
-26.237
-26.798
-27.351
-27.891
-28.416
-28.922
-29.408
-29.872
-30.31
-30.722
-31.106
-31.462
-31.789
-32.088
-32.357
-32.598
-32.811
-32.997
-33.157
-33.293
-33.406
-33.498
-33.57
-33.625
-33.665
-33.691
-33.706
-33.713
-33.712
-33.706
-33.696
-33.686
-33.675
-33.667
-33.662
-33.663
-33.671
-33.688
-33.715
-33.754
-33.806
-33.873
-33.954
-34.052
-34.167
-34.3
-34.452
-34.623
-34.814
-35.025
-35.257
-35.511
-35.786
-36.083
-36.402
-36.741
-37.101
-37.482
-37.882
-38.3
-38.738
-39.193
-39.666
-40.157
-40.665
-41.188
-41.725
-42.274
-42.835
-43.404
-43.979
-44.558
-45.138
-45.716
-46.291
-46.861
-47.422
-47.972
-48.507
-49.025
-49.522
-49.993
-50.436
-50.845
-51.217
-51.551
-51.844
-52.094
-52.299
-52.458
-52.568
-52.629
-52.639
-52.598
-52.502
-52.35
-52.143
-51.883
-51.57
-51.207
-50.798
-50.345
-49.856
-49.337
-48.791
-48.223
-47.637
-47.037
-46.426
-45.81
-45.188
-44.564
-43.945
-43.336
-42.746
-42.183
-41.653
-41.161
-40.712
-40.312
-39.965
-39.67
-39.424
-39.223
-39.073
-38.982
-38.966
-39.032
-39.176
-39.393
-39.682
-40.029
-40.417
-40.81
-41.147
-41.384
-41.496
-41.474
-41.322
-41.04
-40.615
-40.03
-39.288
-38.398
-37.378
-36.235
-34.959
-33.578
-32.163
-30.844
-29.801
-29.185
-29.086
-29.565
-30.673
-32.441
-34.902
-38.044
-41.758
-45.941
-50.51
-55.424
-60.691
-66.222
-71.794
-77.074
-81.639
-85.103
-87.183
-87.54
-85.778
-81.761
-75.568
-67.583
-58.615
-49.283
-39.928
-31.017
-22.892
-15.373
-7.883
0.746
12.095
27.094
46.082
69.416
96.875
127.052
157.269
183.531
201.653
208.337
200.939
176.872
134.125
72.69
-4.798
-93.554
-188.328
-284.044
-375.728
-457.838
-524.262
-570.958
-596.917
-603.169
-591.72
-565.145
-526.276
-479.204
-429.626
-381.823
-338.024
-299.36
-265.913
-237.419
-213.726
-193.707
-175.054
-156.326
-137.017
-117.091
-97.298
-78.308
-60.447
-44.385
-31.001
-20.722
-13.676
-9.694
-8.201
-8.703
-10.783
-13.921
-17.69
-21.725
-25.66
-29.254
-32.307
-34.627
-36.108
-36.677
-36.276
-34.907
-32.6
-29.412
-25.478
-20.942
-15.947
-10.659
-5.205
0.282
5.632
10.718
15.433
19.69
23.461
26.729
29.474
31.705
33.455
34.761
35.694
36.321
36.694
36.877
36.935
36.939
36.973
37.103
37.374
37.825
38.483
39.366
40.496
41.882
43.52
45.408
47.542
49.92
52.544
55.412
58.514
61.839
65.371
69.098
73.009
77.094
81.338
85.728
90.248
94.884
99.624
104.453
109.348
114.288
119.249
124.205
129.134
134.008
138.8
143.484
148.032
152.421
156.625
160.62
164.381
167.884
171.108
174.032
176.634
178.898
180.805
182.339
183.487
184.238
184.582
184.512
184.02
183.102
181.758
179.987
177.791
175.176
172.146
168.712
164.883
160.672
156.095
151.168
145.908
140.337
134.474
128.344
121.97
115.376
108.589
101.634
94.539
87.33
80.037
72.685
65.304
57.92
50.561
43.252
36.021
28.892
21.888
15.034
8.349
1.855
-4.429
-10.487
-16.302
-21.859
-27.148
-32.156
-36.874
-41.296
-45.415
-49.229
-52.734
-55.931
-58.821
-61.408
-63.694
-65.687
-67.394
-68.822
-69.983
-70.886
-71.543
-71.967
-72.17
-72.168
-71.973
-71.601
-71.066
-70.383
-69.567
-68.632
-67.592
-66.462
-65.255
-63.984
-62.661
-61.299
-59.908
-58.5
-57.085
-55.67
-54.265
-52.877
-51.513
-50.177
-48.876
-47.614
-46.394
-45.218
-44.089
-43.009
-41.977
-40.994
-40.059
-39.172
-38.331
-37.535
-36.78
-36.066
-35.389
-34.747
-34.138
-33.558
-33.004
-32.476
-31.968
-31.48
-31.009
-30.552
-30.108
-29.675
-29.251
-28.834
-28.425
-28.021
-27.621
-27.226
-26.836
-26.449
-26.066
-25.687
-25.314
-24.945
-24.584
-24.23
-23.885
-23.55
-23.228
-22.919
-22.625
-22.347
-22.088
-21.847
-21.628
-21.431
-21.259
-21.112
-20.992
-20.899
-20.836
-20.802
-20.797
-20.823
-20.878
-20.964
-21.079
-21.223
-21.395
-21.595
-21.822
-22.075
-22.351
-22.648
-22.965
-23.298
-23.644
-24
-24.36
-24.723
-25.083
-25.438
-25.782
-26.111
-26.422
-26.709
-26.968
-27.193
-27.378
-27.52
-27.611
-27.647
-27.625
-27.539
-27.388
-27.168
-26.875
-26.507
-26.062
-25.539
-24.934
-24.248
-23.478
-22.624
-21.69
-20.675
-19.584
-18.42
-17.187
-15.892
-14.542
-13.144
-11.704
-10.227
-8.72
-7.188
-5.638
-4.075
-2.505
-0.934
0.629
2.177
3.698
5.185
6.631
8.027
9.368
10.651
11.87
13.023
14.112
15.134
16.083
16.953
17.73
18.407
18.983
19.461
19.85
20.171
20.451
20.724
21.032
21.4
21.848
22.388
23.018
23.744
24.565
25.476
26.492
27.631
28.895
30.287
31.787
33.324
34.813
36.143
37.182
37.837
38.025
37.682
36.785
35.327
33.349
30.937
28.142
24.995
21.52
17.72
13.677
9.605
5.75
2.431
0.012
-1.227
-0.923
1.336
5.656
11.906
19.651
28.092
36.647
45.029
52.782
59.56
65.579
71.483
78.636
88.834
103.093
121.756
145.129
172.93
203.687
234.639
261.637
280.265
287.067
279.36
254.627
210.968
148.511
70.021
-19.637
-115.08
-211.099
-302.683
-384.287
-449.843
-495.394
-519.995
-524.699
-511.555
-483.168
-442.385
-393.323
-341.678
-291.718
-245.665
-204.632
-168.728
-137.744
-111.568
-89.106
-68.101
-47.142
-25.785
-4.075
17.236
37.489
56.365
73.224
87.178
97.788
104.946
108.839
110.068
109.161
106.552
102.773
98.302
93.551
88.943
84.787
81.285
78.621
76.908
76.211
76.598
78.075
80.597
84.086
88.405
93.402
98.932
104.83
110.943
117.113
123.147
128.889
134.232
139.097
143.452
147.282
150.568
153.32
155.581
157.403
158.856
160.005
160.902
161.612
162.207
162.767
163.38
164.119
165.028
166.147
167.502
169.112
170.995
173.158
175.592
178.289
181.245
184.456
187.924
191.645
195.606
199.791
204.186
208.775
213.544
218.48
223.565
228.782
234.116
239.548
245.066
250.65
256.277
261.921
267.558
273.159
278.699
284.148
289.477
294.658
299.663
304.467
309.044
313.37
317.42
321.172
324.604
327.695
330.427
332.783
334.747
336.305
337.446
338.16
338.441
338.282
337.681
336.635
335.147
333.22
330.859
328.072
324.869
321.261
317.262
312.889
308.161
303.096
297.715
292.043
286.103
279.92
273.519
266.927
260.17
253.276
246.27
239.182
232.037
224.862
217.684
210.528
203.42
196.384
189.443
182.619
175.934
169.407
163.056
156.898
150.95
145.224
139.733
134.488
129.498
124.768
120.306
116.113
112.192
108.543
105.164
102.053
99.205
96.613
94.273
92.174
90.31
88.669
87.242
86.017
84.983
84.126
83.435
82.896
82.498
82.225
82.067
82.01
82.041
82.149
82.32
82.545
82.812
83.11
83.43
83.763
84.1
84.435
84.759
85.067
85.355
85.617
85.85
86.051
86.217
86.346
86.438
86.492
86.507
86.484
86.423
86.326
86.194
86.028
85.832
85.605
85.352
85.073
84.771
84.449
84.108
83.751
83.38
82.998
82.605
82.205
81.798
81.387
80.972
80.554
80.135
79.714
79.293
78.871
78.448
78.025
77.6
77.174
76.746
76.315
75.88
75.441
74.995
74.543
74.081
73.61
73.128
72.634
72.127
71.605
71.068
70.514
69.943
69.353
68.743
68.112
67.458
66.782
66.082
65.357
64.607
63.831
63.029
62.2
61.344
60.461
59.55
58.61
57.642
56.644
55.618
54.563
53.481
52.373
51.238
50.079
48.897
47.692
46.467
45.222
43.959
42.679
41.385
40.078
38.762
37.438
36.11
34.781
33.455
32.135
30.824
29.525
28.242
26.977
25.734
24.516
23.328
22.174
21.057
19.982
18.953
17.975
17.05
16.181
15.368
14.614
13.92
13.287
12.714
12.201
11.749
11.357
11.024
10.748
10.528
10.358
10.234
10.151
10.104
10.084
10.083
10.092
10.106
10.116
10.116
10.101
10.063
9.997
9.899
9.763
9.579
9.34
9.035
8.654
8.193
7.642
6.997
6.253
5.409
4.465
3.426
2.293
1.063
-0.271
-1.72
-3.287
-4.966
-6.751
-8.633
-10.59
-12.595
-14.604
-16.562
-18.432
-20.195
-21.838
-23.363
-24.766
-26.028
-27.149
-28.119
-28.936
-29.605
-30.121
-30.488
-30.75
-30.995
-31.35
-31.968
-32.965
-34.412
-36.373
-38.879
-41.956
-45.616
-49.809
-54.444
-59.454
-64.778
-70.383
-76.253
-82.254
-88.134
-93.592
-98.249
-101.766
-103.887
-104.267
-102.554
-98.646
-92.659
-85.021
-76.486
-67.617
-58.767
-50.453
-43.083
-36.597
-30.512
-23.672
-14.569
-2.302
13.549
33.435
57.292
83.925
110.804
134.026
149.506
153.931
144.51
118.477
73.57
9.526
-71.146
-163.745
-263.102
-364.076
-461.49
-549.497
-621.596
-673.377
-703.614
-713.223
-704.115
-678.885
-640.49
-593.249
-543.19
-494.916
-450.871
-412.264
-379.211
-351.437
-328.738
-309.894
-292.456
-274.829
-256.408
-237.159
-217.876
-199.29
-181.801
-166.116
-153.166
-143.428
-137.058
-133.922
-133.464
-135.171
-138.609
-143.268
-148.718
-154.621
-160.643
-166.49
-171.917
-176.708
-180.717
-183.873
-186.12
-187.432
-187.819
-187.328
-186.083
-184.235
-181.94
-179.339
-176.547
-173.676
-170.869
-168.295
-166.098
-164.378
-163.187
-162.542
-162.463
-162.96
-164.017
-165.587
-167.594
-169.963
-172.625
-175.526
-178.605
-181.793
-185.009
-188.162
-191.18
-194.012
-196.616
-198.958
-201.007
-202.733
-204.121
-205.17
-205.878
-206.242
-206.254
-205.902
-205.182
-204.096
-202.65
-200.849
-198.699
-196.202
-193.364
-190.195
-186.704
-182.9
-178.792
-174.389
-169.704
-164.755
-159.559
-154.138
-148.515
-142.712
-136.754
-130.668
-124.48
-118.215
-111.9
-105.56
-99.221
-92.909
