-74.618
-73.416
-72.085
-70.628
-69.048
-67.349
-65.535
-63.612
-61.585
-59.46
-57.242
-54.939
-52.557
-50.103
-47.584
-45.007
-42.379
-39.706
-36.995
-34.253
-31.486
-28.7
-25.901
-23.092
-20.28
-17.469
-14.661
-11.861
-9.071
-6.293
-3.529
-0.778
1.957
4.679
7.387
10.083
12.769
15.448
18.123
20.796
23.473
26.156
28.85
31.56
34.289
37.042
39.823
42.637
45.487
48.376
51.307
54.283
57.306
60.376
63.495
66.662
69.877
73.137
76.44
79.782
83.16
86.568
89.999
93.447
96.904
100.361
103.808
107.234
110.629
113.98
117.274
120.499
123.639
126.682
129.611
132.413
135.071
137.572
139.899
142.038
143.975
145.695
147.185
148.431
149.421
150.145
150.591
150.75
150.613
150.174
149.425
148.363
146.983
145.283
143.263
140.923
138.266
135.294
132.012
128.428
124.548
120.382
115.94
111.235
106.278
101.085
95.671
90.052
84.245
78.268
72.141
65.881
59.51
53.046
46.511
39.925
33.308
26.681
20.063
13.475
6.935
0.462
-5.925
-12.21
-18.375
-24.406
-30.286
-36.004
-41.545
-46.899
-52.055
-57.004
-61.738
-66.251
-70.538
-74.593
-78.416
-82.003
-85.355
-88.473
-91.359
-94.015
-96.447
-98.659
-100.658
-102.449
-104.041
-105.442
-106.661
-107.707
-108.589
-109.318
-109.904
-110.357
-110.688
-110.907
-111.024
-111.05
-110.996
-110.871
-110.684
-110.446
-110.165
-109.849
-109.507
-109.145
-108.771
-108.392
-108.012
-107.638
-107.273
-106.922
-106.588
-106.275
-105.984
-105.717
-105.476
-105.261
-105.073
-104.912
-104.777
-104.669
-104.586
-104.527
-104.493
-104.481
-104.491
-104.523
-104.574
-104.643
-104.73
-104.833
-104.951
-105.083
-105.23
-105.389
-105.562
-105.749
-105.949
-106.163
-106.39
-106.631
-106.886
-107.156
-107.44
-107.741
-108.057
-108.39
-108.742
-109.114
-109.506
-109.92
-110.356
-110.813
-111.292
-111.792
-112.313
-112.852
-113.408
-113.978
-114.562
-115.158
-115.764
-116.376
-116.992
-117.608
-118.221
-118.826
-119.419
-119.993
-120.544
-121.067
-121.558
-122.015
-122.434
-122.811
-123.142
-123.426
-123.659
-123.839
-123.963
-124.026
-124.027
-123.964
-123.839
-123.652
-123.405
-123.101
-122.743
-122.34
-121.896
-121.417
-120.908
-120.372
-119.815
-119.24
-118.652
-118.052
-117.445
-116.839
-116.24
-115.659
-115.107
-114.589
-114.112
-113.683
-113.307
-112.986
-112.723
-112.508
-112.342
-112.227
-112.174
-112.2
-112.315
-112.513
-112.786
-113.13
-113.527
-113.953
-114.363
-114.688
-114.874
-114.892
-114.733
-114.403
-113.899
-113.207
-112.302
-111.178
-109.845
-108.318
-106.603
-104.697
-102.634
-100.5
-98.458
-96.72
-95.462
-94.793
-94.779
-95.475
-96.927
-99.18
-102.236
-105.995
-110.339
-115.182
-120.485
-126.245
-132.36
-138.554
-144.398
-149.405
-153.125
-155.232
-155.364
-153.011
-147.931
-140.174
-130.115
-118.66
-106.607
-94.282
-82.184
-70.999
-60.694
-50.824
-40.305
-26.966
-9.331
12.945
40.413
73.402
110.601
149.483
185.723
213.268
227.388
224.785
202.004
156.008
85.778
-7.163
-117.926
-239.257
-364.677
-488.356
-604.032
-704.681
-783.759
-837.456
-865.309
-868.866
-850.148
-811.311
-754.869
-685.577
-609.901
-532.826
-457.886
-387.985
-324.866
-270.258
-226.395
-193.298
-168.842
-151.299
-138.649
-128.535
-119.966
-111.863
-102.293
-90.618
-77.314
-62.768
-48.235
-35.416
-24.821
-16.758
-11.816
-9.875
-10.597
-13.688
-18.167
-22.777
-26.829
-29.846
-31.5
-31.841
-30.829
-28.374
-24.631
-19.816
-14.122
-7.757
-0.842
6.583
14.406
22.471
30.581
38.469
45.955
52.939
59.355
65.18
70.392
74.968
78.936
82.369
85.343
87.933
90.191
92.152
93.877
95.443
96.941
98.477
100.121
101.918
103.901
106.09
108.502
111.149
114.022
117.095
120.347
123.766
127.34
131.065
134.928
138.905
142.973
147.11
151.295
155.509
159.731
163.939
168.114
172.238
176.293
180.264
184.134
187.88
191.48
194.913
198.156
201.187
203.984
206.526
208.794
210.769
212.437
213.783
214.794
215.461
215.773
215.724
215.309
214.525
213.369
211.841
209.945
207.685
205.067
202.098
198.788
195.149
191.192
186.933
182.388
177.573
172.506
167.207
161.696
155.996
150.128
144.115
137.982
131.751
125.449
119.099
112.725
106.352
100.003
93.7
87.466
81.322
75.288
69.383
63.626
58.033
52.621
47.405
42.397
37.611
33.055
28.74
24.673
20.861
17.309
14.02
10.996
8.239
5.749
3.523
1.558
-0.149
-1.604
-2.813
-3.785
-4.526
-5.048
-5.359
-5.472
-5.397
-5.146
-4.731
-4.164
-3.459
-2.628
-1.683
-0.637
0.497
1.708
2.984
4.314
5.687
7.092
8.521
9.963
11.411
12.857
14.293
15.713
17.111
18.481
19.82
21.122
22.386
23.608
24.786
25.92
27.008
28.05
29.047
29.999
30.907
31.772
32.596
33.382
34.13
34.844
35.526
36.177
36.802
37.401
37.976
38.53
39.065
39.581
40.079
40.56
41.026
41.476
41.912
42.332
42.738
43.127
43.501
43.857
44.195
44.512
44.808
45.079
45.326
45.545
45.736
45.898
46.029
46.127
46.192
46.222
46.217
46.175
46.095
45.978
45.823
45.632
45.406
45.146
44.856
44.537
44.195
43.833
43.454
43.062
42.662
42.258
41.856
41.46
41.077
40.713
40.375
40.07
39.805
39.588
39.424
39.319
39.276
39.302
39.4
39.576
39.831
40.17
40.594
41.108
41.714
42.413
43.204
44.085
45.054
46.106
47.237
48.441
49.706
51.027
52.396
53.805
55.249
56.72
58.211
59.715
61.229
62.743
64.249
65.735
67.189
68.6
69.958
71.255
72.481
73.632
74.701
75.688
76.596
77.425
78.167
78.814
79.345
79.753
80.04
80.209
80.267
80.238
80.151
80.057
80.019
80.074
80.247
80.549
80.972
81.521
82.21
83.035
84.011
85.148
86.446
87.915
89.55
91.289
93.022
94.591
95.807
96.539
96.693
96.188
94.99
93.057
90.388
87.067
83.163
78.736
73.813
68.373
62.475
56.318
50.224
44.607
39.905
36.458
34.655
35.001
37.791
43.076
50.559
59.488
69.163
79.2
89.204
98.62
107.246
115.408
124.07
135.113
150.267
170.294
195.616
226.603
262.625
301.637
340.129
372.747
393.97
399.825
386.827
351.603
292.378
209.562
106.197
-11.673
-136.959
-263.617
-385.386
-495.241
-586.829
-655.101
-697.645
-714.938
-708.697
-680.567
-632.936
-569.847
-496.468
-418.526
-340.471
-265.44
-196.303
-135.642
-85.737
-47.581
-20.412
-2.201
8.909
14.794
17.779
19.739
22.583
27.715
35.285
44.733
55.365
66.067
75.412
82.579
86.931
88.115
86.446
82.374
76.481
69.723
63.13
57.369
52.871
49.82
48.149
47.849
48.888
51.096
54.254
58.143
62.586
67.476
72.737
78.245
83.812
89.199
94.214
98.741
102.724
106.147
108.994
111.246
112.925
114.096
114.833
115.211
115.289
115.104
114.716
114.199
113.642
113.147
112.792
112.621
112.67
112.96
113.504
114.316
115.389
116.698
118.225
119.956
121.879
123.991
126.278
128.718
131.287
133.962
136.721
139.544
142.41
145.295
148.18
151.045
153.871
156.645
159.345
161.951
164.439
166.786
168.97
170.968
172.758
174.317
175.626
176.667
177.423
177.881
178.025
177.845
177.331
176.474
175.269
173.71
171.794
169.522
166.892
163.91
160.579
156.907
152.902
148.572
143.932
138.993
133.771
128.282
122.542
116.572
110.39
104.017
97.475
90.787
83.974
77.061
70.07
63.027
55.953
48.874
41.811
34.786
27.822
20.939
14.158
7.497
0.976
-5.389
-11.58
-17.584
-23.384
-28.97
-34.328
-39.45
-44.325
-48.947
-53.31
-57.408
-61.239
-64.8
-68.091
-71.113
-73.867
-76.356
-78.586
-80.561
-82.288
-83.776
-85.031
-86.065
-86.886
-87.505
-87.934
-88.185
-88.269
-88.198
-87.986
-87.644
-87.186
-86.624
-85.971
-85.24
-84.442
-83.589
-82.693
-81.766
-80.816
-79.856
-78.894
-77.939
-77
-76.084
-75.198
-74.348
-73.54
-72.778
-72.067
-71.409
-70.808
-70.266
-69.783
-69.362
-69.001
-68.7
-68.46
-68.278
-68.154
-68.084
-68.067
-68.101
-68.181
-68.306
-68.471
-68.675
-68.912
-69.18
-69.475
-69.793
-70.131
-70.485
-70.852
-71.227
-71.608
-71.992
-72.375
-72.756
-73.131
-73.5
-73.86
-74.209
-74.548
-74.873
-75.186
-75.484
-75.768
-76.038
-76.293
-76.535
-76.763
-76.978
-77.183
-77.376
-77.56
-77.735
-77.901
-78.059
-78.21
-78.354
-78.493
-78.626
-78.755
-78.88
-79.003
-79.125
-79.245
-79.363
-79.48
-79.594
-79.704
-79.809
-79.907
-79.996
-80.074
-80.139
-80.189
-80.223
-80.237
-80.228
-80.194
-80.13
-80.033
-79.897
-79.719
-79.495
-79.22
-78.894
-78.513
-78.075
-77.579
-77.023
-76.404
-75.724
-74.979
-74.169
-73.291
-72.345
-71.333
-70.257
-69.119
-67.923
-66.673
-65.376
-64.039
-62.67
-61.273
-59.855
-58.42
-56.974
-55.521
-54.066
-52.611
-51.163
-49.727
-48.313
-46.932
-45.592
-44.301
-43.065
-41.891
-40.783
-39.745
-38.777
-37.871
-37.03
-36.257
-35.561
-34.962
-34.468
-34.076
-33.783
-33.58
-33.447
-33.353
-33.248
-33.065
-32.766
-32.327
-31.736
-31.005
-30.129
-29.097
-27.915
-26.571
-25.06
-23.389
-21.55
-19.549
-17.452
-15.369
-13.464
-11.936
-10.931
-10.543
-10.855
-11.904
-13.725
-16.32
-19.605
-23.493
-27.913
-32.825
-38.239
-44.1
-50.202
-56.222
-61.745
-66.302
-69.532
-71.026
-70.26
-66.974
-61.162
-53.12
-43.619
-33.367
-22.696
-12.092
-2.183
7.056
16.055
25.891
38.582
55.513
77.066
103.751
135.945
172.544
211.278
248.15
277.376
294.373
295.931
278.636
239.421
177.059
92.472
-10.169
-123.919
-242.677
-360.894
-472.389
-570.774
-649.939
-705.669
-737.127
-745.909
-733.747
-702.947
-656.279
-597.244
-531.276
-463.254
-396.413
-333.335
-275.712
-224.404
-180.806
-145.989
-118.784
-97.786
-81.505
-67.724
-55.487
-44.599
-34.016
-22.614
-10.308
2.805
15.926
27.311
36.282
42.881
46.933
48.401
47.401
44.047
39.014
33.567
28.563
24.465
21.568
19.884
19.475
20.477
22.851
26.39
30.869
36.072
41.842
48.123
54.834
61.835
68.94
75.911
82.548
88.734
94.403
99.529
104.085
108.049
111.432
114.285
116.692
118.735
120.476
121.955
123.223
124.347
125.416
126.532
127.768
129.17
130.766
132.576
134.614
136.895
139.413
142.145
145.067
148.161
151.414
154.821
158.366
162.027
165.778
169.592
173.448
177.327
181.208
185.067
188.885
192.641
196.317
199.899
203.367
206.699
209.873
212.867
215.657
218.224
220.546
222.601
224.37
225.838
226.988
227.807
228.285
228.41
228.173
227.569
226.593
225.243
223.516
221.414
218.94
216.099
212.898
209.346
205.451
201.226
196.683
191.837
186.705
181.302
175.648
169.761
163.663
157.374
150.917
144.316
137.592
130.77
123.872
116.924
109.949
102.97
96.009
89.087
82.227
75.449
68.772
62.215
55.796
49.53
43.433
37.52
31.803
26.294
21.004
15.94
11.112
6.525
2.185
-1.904
-5.741
-9.323
-12.65
-15.725
-18.548
-21.123
-23.455
-25.55
-27.413
-29.053
-30.477
-31.694
-32.713
-33.544
-34.198
-34.685
-35.016
-35.202
-35.255
-35.185
-35.004
-34.722
-34.352
-33.902
-33.384
-32.807
-32.181
-31.515
-30.818
-30.098
-29.362
-28.617
-27.87
-27.127
-26.393
-25.672
-24.97
-24.29
-23.634
-23.006
-22.408
-21.84
-21.305
-20.803
-20.334
-19.899
-19.497
-19.127
-18.789
-18.482
-18.205
-17.956
-17.734
-17.538
-17.365
-17.215
-17.085
-16.975
-16.883
-16.808
-16.749
-16.705
-16.676
-16.662
-16.661
-16.675
-16.703
-16.745
-16.802
-16.874
-16.963
-17.068
-17.193
-17.338
-17.504
-17.694
-17.909
-18.149
-18.418
-18.714
-19.04
-19.396
-19.784
-20.203
-20.656
-21.142
-21.662
-22.218
-22.808
-23.433
-24.092
-24.782
-25.503
-26.252
-27.028
-27.825
-28.642
-29.474
-30.319
-31.174
-32.033
-32.894
-33.75
-34.597
-35.427
-36.236
-37.016
-37.761
-38.465
-39.122
-39.728
-40.279
-40.771
-41.199
-41.561
-41.851
-42.069
-42.21
-42.271
-42.249
-42.142
-41.952
-41.679
-41.325
-40.893
-40.387
-39.812
-39.175
-38.483
-37.74
-36.953
-36.126
-35.262
-34.369
-33.45
-32.513
-31.562
-30.607
-29.658
-28.726
-27.824
-26.96
-26.14
-25.368
-24.649
-23.987
-23.381
-22.829
-22.331
-21.893
-21.525
-21.246
-21.068
-20.991
-21.007
-21.104
-21.257
-21.429
-21.582
-21.661
-21.631
-21.473
-21.183
-20.773
-20.249
-19.61
-18.846
-17.936
-16.863
-15.616
-14.202
-12.636
-10.991
-9.39
-7.973
-6.913
-6.345
-6.35
-6.987
-8.279
-10.223
-12.792
-15.926
-19.559
-23.643
-28.174
-33.138
-38.466
-43.939
-49.214
-53.911
-57.609
-59.974
-60.635
-59.124
-55.241
-49.063
-40.965
-31.711
-21.97
-12.012
-2.229
6.792
15.103
23.125
31.874
43.3
58.671
78.217
102.246
130.904
162.984
196.268
227.026
249.909
260.739
256.697
234.879
192.831
129.868
47.316
-50.774
-158.048
-268.729
-377.661
-479.151
-567.288
-637.027
-685.239
-711.312
-716.73
-703.509
-673.934
-630.994
-578.529
-520.739
-461.161
-402.635
-347.245
-296.05
-249.716
-208.757
-173.278
-143.131
-118.002
-96.798
-78.03
-61.134
-45.954
-32.291
-19.873
-8.003
3.836
15.17
24.842
32.229
37.249
40.127
41.194
40.341
37.487
33.122
28.209
23.65
20.006
17.484
16.049
15.779
16.808
19.139
22.637
27.056
32.152
37.764
43.816
50.239
56.91
63.652
70.228
76.441
82.174
87.363
91.987
96.025
99.456
102.293
104.591
106.436
107.913
109.09
110.012
110.727
111.303
111.827
112.4
113.098
113.968
115.044
116.345
117.89
119.696
121.759
124.06
126.577
129.294
132.2
135.29
138.552
141.964
145.502
149.142
152.862
156.644
160.467
164.308
168.145
171.959
175.73
179.442
183.075
186.604
190.006
193.257
196.331
199.207
201.86
204.267
206.405
208.256
209.801
211.024
211.911
212.448
212.622
212.426
211.85
210.89
209.541
207.802
205.671
203.152
200.25
196.97
193.32
189.309
184.948
180.252
175.235
169.913
164.304
158.426
152.3
145.947
139.391
132.654
125.759
118.733
111.598
104.381
97.106
89.799
82.483
75.182
67.92
60.72
53.603
46.59
39.702
32.957
26.374
19.969
13.758
7.755
1.973
-3.576
-8.883
-13.938
-18.735
-23.268
-27.532
-31.525
-35.245
-38.691
-41.866
-44.771
-47.411
-49.79
-51.914
-53.79
-55.426
-56.832
-58.015
-58.988
-59.76
-60.342
-60.747
-60.986
-61.072
-61.016
-60.831
-60.53
-60.124
-59.626
-59.047
-58.4
-57.695
-56.942
-56.153
-55.337
-54.502
-53.659
-52.814
-51.974
-51.148
-50.34
-49.555
-48.799
-48.076
-47.389
-46.74
-46.133
-45.569
-45.049
-44.575
-44.145
-43.761
-43.421
-43.125
-42.872
-42.66
-42.488
-42.353
-42.254
-42.188
-42.154
-42.149
-42.17
-42.215
-42.282
-42.367
-42.469
-42.586
-42.714
-42.854
-43.002
-43.157
-43.319
-43.486
-43.658
-43.834
-44.013
-44.194
-44.378
-44.565
-44.755
-44.948
-45.145
-45.347
-45.554
-45.768
-45.99
-46.219
-46.457
-46.704
-46.96
-47.227
-47.504
-47.792
-48.092
-48.405
-48.731
-49.07
-49.423
-49.789
-50.167
-50.557
-50.956
-51.363
-51.776
-52.191
-52.607
-53.021
-53.432
-53.836
-54.23
-54.61
-54.974
-55.316
-55.632
-55.917
-56.166
-56.374
-56.538
-56.653
-56.717
-56.728
-56.681
-56.576
-56.409
-56.179
-55.884
-55.521
-55.089
-54.585
-54.012
-53.37
-52.662
-51.891
-51.06
-50.176
-49.245
-48.275
-47.271
-46.238
-45.18
-44.103
-43.012
-41.911
-40.801
-39.69
-38.583
-37.489
-36.419
-35.381
-34.383
-33.432
-32.533
-31.69
-30.906
-30.181
-29.508
-28.888
-28.324
-27.823
-27.406
-27.078
-26.836
-26.678
-26.593
-26.559
-26.545
-26.503
-26.368
-26.103
-25.683
-25.095
-24.353
-23.452
-22.382
-21.147
-19.734
-18.134
-16.353
-14.384
-12.236
-9.97
-7.692
-5.559
-3.763
-2.441
-1.69
-1.592
-2.173
-3.466
-5.474
-8.119
-11.33
-15.041
-19.212
-23.852
-28.907
-34.188
-39.387
-44.099
-47.884
-50.404
-51.265
-49.979
-46.276
-40.106
-31.763
-21.984
-11.426
-0.467
10.485
20.893
30.519
39.59
49.087
60.864
76.426
96.422
121.111
150.66
184.756
221.837
258.493
289.506
309.868
315.919
304.782
273.851
220.786
145.011
49.185
-60.961
-178.995
-299.193
-416.178
-524.455
-617.416
-688.983
-736.31
-759.573
-760.118
-739.769
-700.518
-644.606
-576.716
-503.03
-428.037
-354.924
-286.484
-224.432
-170.517
-126.977
-93.846
-69.168
-51.43
-38.798
-29.041
-21.189
-14.151
-5.996
3.944
15.294
27.757
40.172
50.95
59.64
65.963
69.361
69.974
68.133
64.158
59.055
54.02
49.693
46.511
44.748
44.347
45.345
47.797
51.523
56.284
61.861
68.046
74.726
81.832
89.228
96.727
104.091
111.097
117.605
123.534
128.846
133.526
137.551
140.93
143.717
145.988
147.822
149.286
150.425
151.293
151.966
152.533
153.1
153.753
154.546
155.516
156.691
158.085
159.714
161.577
163.653
165.924
168.374
170.996
173.784
176.73
179.816
183.019
186.318
189.692
193.126
196.6
200.096
203.594
207.077
210.53
213.94
217.289
220.556
223.721
226.761
229.654
232.378
234.912
237.232
239.32
241.155
242.722
244.005
244.991
245.665
246.017
246.037
245.716
245.049
244.029
242.655
240.923
238.835
236.393
233.599
230.46
226.982
223.173
219.043
214.604
209.868
204.849
199.563
194.026
188.256
182.272
176.093
169.739
163.232
156.593
149.843
143.005
136.099
129.148
122.173
115.194
108.232
101.306
94.436
87.64
80.936
74.341
67.872
61.543
55.37
49.365
43.54
37.908
32.478
27.258
22.257
17.482
12.936
8.626
4.553
0.72
-2.873
-6.227
-9.342
-12.222
-14.871
-17.293
-19.493
-21.479
-23.256
-24.833
-26.218
-27.42
-28.448
-29.312
-30.022
-30.588
-31.02
-31.33
-31.527
-31.623
-31.628
-31.552
-31.407
-31.202
-30.946
-30.65
-30.323
-29.973
-29.608
-29.237
-28.866
-28.504
-28.154
-27.825
-27.52
-27.244
-27.002
-26.796
-26.63
-26.505
-26.424
-26.388
-26.397
-26.453
-26.555
-26.703
-26.895
-27.132
-27.411
-27.731
-28.089
-28.484
-28.912
-29.372
-29.861
-30.376
-30.915
-31.474
-32.052
-32.644
-33.249
-33.864
-34.487
-35.113
-35.742
-36.372
-36.999
-37.623
-38.242
-38.856
-39.462
-40.062
-40.654
-41.238
-41.814
-42.382
-42.942
-43.495
-44.043
-44.585
-45.124
-45.66
-46.196
-46.734
-47.275
-47.821
-48.373
-48.932
-49.5
-50.078
-50.668
-51.27
-51.886
-52.517
-53.164
-53.83
-54.514
-55.216
-55.935
-56.672
-57.425
-58.193
-58.972
-59.762
-60.559
-61.361
-62.166
-62.971
-63.773
-64.568
-65.352
-66.121
-66.869
-67.592
-68.284
-68.938
-69.55
-70.116
-70.633
-71.096
-71.503
-71.85
-72.134
-72.353
-72.505
-72.586
-72.593
-72.526
-72.383
-72.166
-71.876
-71.517
-71.091
-70.605
-70.066
-69.48
-68.854
-68.192
-67.5
-66.783
-66.047
-65.296
-64.532
-63.761
-62.991
-62.23
-61.489
-60.779
-60.109
-59.485
-58.917
-58.409
-57.969
-57.597
-57.287
-57.039
-56.858
-56.754
-56.747
-56.845
-57.043
-57.338
-57.722
-58.181
-58.689
-59.201
-59.648
-59.976
-60.156
-60.178
-60.047
-59.763
-59.312
-58.674
-57.846
-56.834
-55.657
-54.318
-52.813
-51.176
-49.49
-47.916
-46.666
-45.913
-45.773
-46.317
-47.596
-49.656
-52.534
-56.223
-60.625
-65.632
-71.153
-77.149
-83.624
-90.475
-97.441
-104.113
-109.987
-114.607
-117.634
-118.681
-117.243
-113.079
-106.228
-97.065
-86.463
-75.175
-63.516
-51.963
-41.16
-31.066
-21.224
-10.533
3.098
21.05
43.59
71.158
104.012
140.85
179.204
214.837
241.793
255.477
252.747
230.325
185.31
116.667
25.723
-82.883
-202.084
-325.642
-447.964
-563.024
-664.101
-744.741
-800.987
-832.172
-839.595
-824.978
-790.283
-737.815
-671.979
-599.084
-524.074
-450.482
-381.427
-318.864
-264.589
-220.932
-188.081
-163.993
-147.055
-135.333
-126.353
-119.04
-112.303
-104.182
-94.061
-82.411
-69.57
-56.763
-45.678
-36.792
-30.408
-27.091
-26.653
-28.74
-33.02
-38.469
-43.885
-48.622
-52.219
-54.394
-55.191
-54.557
-52.425
-48.966
-44.406
-38.961
-32.839
-26.159
-19.006
-11.52
-3.897
3.622
10.812
17.536
23.707
29.284
34.252
38.583
42.283
45.403
48.009
50.175
51.97
53.436
54.631
55.632
56.529
57.432
58.429
59.574
60.908
62.458
64.24
66.269
68.546
71.052
73.769
76.685
79.79
83.084
86.557
90.192
93.967
97.859
101.848
105.918
110.048
114.221
118.416
122.617
126.807
130.974
135.1
139.165
143.148
147.024
150.772
154.369
157.793
161.021
164.032
166.806
169.325
171.576
173.541
175.208
176.563
177.598
178.302
178.669
178.693
178.371
177.699
176.678
175.31
173.599
171.55
169.169
166.465
163.448
160.131
156.526
152.648
148.512
144.135
139.536
134.734
129.749
124.602
119.313
113.906
108.402
102.823
97.193
91.531
85.86
80.201
74.574
68.998
63.494
58.079
52.77
47.585
42.539
37.646
32.921
28.375
24.02
19.865
15.92
12.191
8.684
5.406
2.359
-0.454
-3.032
-5.374
-7.483
-9.36
-11.008
-12.432
-13.637
-14.63
-15.417
-16.006
-16.405
-16.624
-16.671
-16.556
-16.29
-15.882
-15.344
-14.685
-13.916
-13.048
-12.091
-11.055
-9.951
-8.789
-7.577
-6.325
-5.042
-3.736
-2.415
-1.086
0.243
1.567
2.879
4.174
5.447
6.694
7.91
9.093
10.239
11.346
12.411
13.434
14.413
15.346
16.234
17.076
17.872
18.622
19.327
19.987
20.602
21.174
21.703
22.19
22.637
23.044
23.412
23.743
24.036
24.294
24.517
24.705
24.859
24.981
25.071
25.129
25.157
25.155
25.123
25.063
24.973
24.856
24.709
24.535
24.332
24.1
23.841
23.553
23.237
22.893
22.521
22.121
21.693
21.237
20.753
20.241
19.7
19.131
18.534
17.911
17.262
16.588
15.89
15.17
14.428
13.665
12.883
12.083
11.266
10.434
9.588
8.731
7.866
6.995
6.122
5.25
4.383
3.525
2.679
1.847
1.033
0.242
-0.524
-1.259
-1.96
-2.621
-3.239
-3.806
-4.319
-4.772
-5.162
-5.487
-5.744
-5.93
-6.042
-6.079
-6.04
-5.922
-5.724
-5.445
-5.082
-4.636
-4.111
-3.507
-2.829
-2.081
-1.269
-0.401
0.515
1.474
2.469
3.494
4.545
5.617
6.703
7.802
8.908
10.013
11.108
12.181
13.222
14.222
15.174
16.069
16.9
17.662
18.355
18.982
19.544
20.036
20.447
20.758
20.961
21.058
21.056
20.96
20.786
20.558
20.319
20.136
20.061
20.122
20.329
20.672
21.152
21.782
22.578
23.548
24.683
25.964
27.387
28.958
30.644
32.369
33.982
35.277
36.092
36.316
35.882
34.747
32.867
30.201
26.756
22.622
17.907
12.71
7.065
0.958
-5.512
-12.106
-18.441
-24.035
-28.464
-31.418
-32.513
-31.267
-27.43
-21
-12.321
-2.204
8.635
19.867
31.03
41.524
51.347
60.898
71.211
84.245
101.366
122.91
149.309
180.876
216.448
253.744
288.814
315.965
330.727
330.031
310.61
269.546
205.743
120.181
17.034
-96.824
-215.435
-333.39
-444.637
-542.916
-622.194
-678.277
-710.314
-719.827
-708.437
-678.356
-632.275
-573.635
-507.858
-439.841
-372.85
-309.515
-251.576
-199.941
-156.042
-120.975
-93.566
-72.388
-55.933
-41.985
-29.594
-18.563
-7.848
3.676
16.084
29.254
42.368
53.687
62.542
68.984
72.843
74.08
72.814
69.172
63.838
58.079
52.749
48.308
45.049
42.987
42.182
42.773
44.719
47.813
51.829
56.552
61.827
67.597
73.779
80.231
86.767
93.145
99.166
104.712
109.717
114.157
118.008
121.247
123.888
125.986
127.628
128.898
129.859
130.556
131.042
131.388
131.686
132.044
132.539
133.218
134.118
135.257
136.655
138.33
140.277
142.476
144.906
147.55
150.399
153.448
156.683
160.084
163.626
167.283
171.033
174.859
178.739
182.649
186.57
190.479
194.359
198.193
201.961
205.638
209.203
212.628
215.89
218.965
221.829
224.458
226.829
228.923
230.721
232.207
233.364
234.18
234.641
234.738
234.463
233.808
232.769
231.343
229.53
227.331
224.749
221.79
218.461
214.769
210.726
206.343
201.634
196.614
191.299
185.708
179.859
173.773
167.472
160.977
154.311
147.499
140.563
133.529
126.42
119.262
112.077
104.89
97.722
90.598
83.537
76.562
69.693
62.948
56.345
49.903
43.637
37.562
31.691
26.036
20.609
15.419
10.474
5.782
1.348
-2.824
-6.731
-10.372
-13.745
-16.853
-19.698
-22.283
-24.613
-26.694
-28.532
-30.136
-31.513
-32.674
-33.629
-34.387
-34.961
-35.361
-35.6
-35.689
-35.641
-35.469
-35.184
-34.799
-34.326
-33.777
-33.164
-32.498
-31.789
-31.048
-30.286
-29.512
-28.734
-27.962
-27.202
-26.463
-25.75
-25.07
-24.428
-23.827
-23.273
-22.767
-22.313
-21.913
-21.567
-21.277
-21.042
-20.863
-20.739
-20.668
-20.649
-20.68
-20.759
-20.884
-21.051
-21.258
-21.502
-21.781
-22.091
-22.43
-22.794
-23.181
-23.587
-24.01
-24.448
-24.897
-25.356
-25.822
-26.294
-26.769
-27.247
-27.727
-28.209
-28.691
-29.175
-29.659
-30.145
-30.633
-31.124
-31.618
-32.118
-32.625
-33.141
-33.668
-34.208
-34.763
-35.336
-35.928
-36.541
-37.177
-37.836
-38.521
-39.233
-39.973
-40.742
-41.541
-42.371
-43.232
-44.125
-45.049
-46.003
-46.985
-47.994
-49.026
-50.078
-51.147
-52.229
-53.32
-54.417
-55.516
-56.612
-57.699
-58.771
-59.824
-60.851
-61.844
-62.796
-63.7
-64.55
-65.339
-66.063
-66.716
-67.295
-67.794
-68.209
-68.536
-68.772
-68.914
-68.956
-68.898
-68.737
-68.476
-68.114
-67.655
-67.102
-66.462
-65.74
-64.946
-64.084
-63.161
-62.183
-61.155
-60.083
-58.974
-57.83
-56.659
-55.468
-54.269
-53.074
-51.894
-50.741
-49.622
-48.547
-47.524
-46.56
-45.657
-44.813
-44.027
-43.307
-42.665
-42.12
-41.683
-41.35
-41.116
-40.977
-40.918
-40.914
-40.922
-40.877
-40.727
-40.444
-40.02
-39.464
-38.776
-37.942
-36.946
-35.779
-34.451
-32.979
-31.368
-29.615
-27.751
-25.852
-24.072
-22.614
-21.642
-21.262
-21.542
-22.521
-24.241
-26.744
-30.02
-33.981
-38.518
-43.532
-48.99
-54.903
-61.173
-67.56
-73.679
-79.05
-83.25
-85.975
-86.844
-85.387
-81.361
-74.769
-65.96
-55.747
-44.847
-33.594
-22.443
-11.983
-2.209
7.287
17.534
30.475
47.472
68.861
95.059
126.346
161.528
198.29
232.69
259.081
273.024
271.481
251.251
209.512
145.304
59.747
-42.923
-155.849
-273.077
-389.238
-498.365
-594.33
-671.348
-725.492
-756.078
-764.712
-753.085
-723.42
-678.391
-621.37
-557.543
-491.535
-426.417
-364.684
-307.987
-257.189
-213.67
-178.501
-150.629
-128.799
-111.629
-96.997
-83.998
-72.447
-61.343
-49.611
-37.139
-23.973
-10.867
0.495
9.456
16.06
20.15
21.716
20.873
17.73
12.94
7.743
2.985
-0.872
-3.537
-5.003
-5.214
-4.037
-1.509
2.164
6.757
12.052
17.886
24.2
30.909
37.87
44.898
51.752
58.236
64.23
69.67
74.532
78.79
82.422
85.442
87.904
89.89
91.485
92.753
93.736
94.487
95.075
95.591
96.139
96.795
97.603
98.599
99.801
101.228
102.896
104.802
106.925
109.245
111.746
114.418
117.258
120.253
123.382
126.623
129.951
133.347
136.795
140.274
143.764
147.247
150.703
154.116
157.472
160.753
163.939
167.007
169.936
172.704
175.29
177.674
179.833
181.749
183.404
184.784
185.875
186.663
187.138
187.289
187.11
186.595
185.739
184.539
182.995
181.108
178.88
176.317
173.425
170.211
166.684
162.855
158.736
154.34
149.683
144.779
139.645
134.3
128.763
123.053
117.19
111.195
105.09
98.895
92.633
86.325
79.992
73.654
67.332
61.045
54.812
48.652
42.582
36.618
30.777
25.073
19.52
14.13
8.916
3.888
-0.945
-5.574
-9.993
-14.195
-18.175
-21.929
-25.455
-28.752
-31.819
-34.656
-37.266
-39.651
-41.815
-43.762
-45.499
-47.03
-48.363
-49.506
-50.466
-51.252
-51.872
-52.337
-52.656
-52.838
-52.893
-52.831
-52.662
-52.396
-52.042
-51.61
-51.11
-50.549
-49.938
-49.284
-48.594
-47.878
-47.141
-46.391
-45.632
-44.872
-44.115
-43.365
-42.626
-41.903
-41.197
-40.512
-39.849
-39.209
-38.594
-38.004
-37.439
-36.899
-36.384
-35.892
-35.423
-34.976
-34.548
-34.138
-33.744
-33.365
-32.997
-32.64
-32.29
-31.948
-31.609
-31.273
-30.939
-30.604
-30.268
-29.93
-29.589
-29.243
-28.893
-28.538
-28.179
-27.815
-27.449
-27.08
-26.71
-26.34
-25.974
-25.611
-25.255
-24.908
-24.572
-24.25
-23.944
-23.657
-23.392
-23.152
-22.941
-22.761
-22.615
-22.507
-22.439
-22.412
-22.428
-22.489
-22.597
-22.752
-22.956
-23.208
-23.509
-23.86
-24.26
-24.708
-25.203
-25.742
-26.323
-26.942
-27.596
-28.279
-28.988
-29.717
-30.462
-31.217
-31.977
-32.737
-33.489
-34.228
-34.946
-35.636
-36.292
-36.904
-37.465
-37.969
-38.409
-38.782
-39.082
-39.304
-39.444
-39.5
-39.468
-39.345
-39.13
-38.82
-38.412
-37.909
-37.311
-36.622
-35.846
-34.987
-34.052
-33.051
-31.992
-30.883
-29.732
-28.545
-27.33
-26.095
-24.847
-23.591
-22.333
-21.084
-19.855
-18.659
-17.508
-16.412
-15.379
-14.418
-13.537
-12.742
-12.034
-11.408
-10.864
-10.407
-10.048
-9.804
-9.685
-9.685
-9.798
-10.018
-10.327
-10.701
-11.097
-11.443
-11.687
-11.799
-11.769
-11.6
-11.29
-10.821
-10.167
-9.323
-8.294
-7.096
-5.734
-4.204
-2.535
-0.812
0.808
2.118
2.95
3.197
2.796
1.696
-0.148
-2.783
-6.211
-10.332
-15.03
-20.219
-25.859
-31.946
-38.379
-44.888
-51.048
-56.383
-60.454
-62.945
-63.5
-61.619
-57.062
-49.872
-40.416
-29.576
-18.128
-6.382
5.184
15.904
25.806
35.317
45.487
58.423
75.54
97.138
123.704
155.513
191.272
228.531
263.085
289.053
301.881
298.429
275.42
229.984
161.128
70.275
-37.874
-156.319
-278.849
-399.882
-513.432
-612.775
-691.515
-745.828
-775.137
-780.81
-764.66
-728.692
-675.242
-608.776
-535.569
-460.522
-387.138
-318.417
-256.205
-202.243
-158.787
-126.002
-101.871
-84.776
-72.796
-63.511
-55.873
-48.811
-40.398
-29.998
-18.063
-4.923
8.219
19.68
28.964
35.769
39.52
40.385
38.716
34.827
29.724
24.602
20.104
16.683
14.624
13.879
14.494
16.535
19.835
24.174
29.345
35.147
41.466
48.226
55.288
62.467
69.523
76.236
82.467
88.131
93.19
97.629
101.425
104.582
107.153
109.205
110.814
112.048
112.951
113.58
114.015
114.345
114.682
115.116
115.703
116.485
117.489
118.732
120.231
121.987
123.98
126.194
128.617
131.238
134.058
137.066
140.244
143.571
147.023
150.579
154.221
157.931
161.688
165.471
169.264
173.049
176.813
180.539
184.204
187.786
191.262
194.607
197.8
200.816
203.632
206.227
208.58
210.673
212.491
214.018
215.24
216.144
216.721
216.96
216.856
216.403
215.596
214.434
212.916
211.046
208.827
206.264
203.363
200.133
196.585
192.73
188.581
184.152
179.459
174.518
169.347
163.966
158.394
152.652
146.76
140.74
134.616
128.408
122.138
115.829
109.5
103.174
96.869
90.607
84.405
78.282
72.255
66.34
60.555
54.912
49.426
44.108
38.971
34.024
29.277
24.737
20.412
16.306
12.425
8.771
5.347
2.155
-0.807
-3.539
-6.044
-8.325
-10.385
-12.231
-13.868
-15.302
-16.541
-17.593
-18.466
-19.168
-19.71
-20.101
-20.349
-20.465
-20.46
-20.341
-20.121
-19.808
-19.411
-18.941
-18.407
-17.817
-17.181
-16.506
-15.802
-15.074
-14.331
-13.58
-12.827
-12.079
-11.339
-10.614
-9.909
-9.226
-8.571
-7.946
-7.353
-6.796
-6.276
-5.795
-5.353
-4.951
-4.59
-4.27
-3.991
-3.752
-3.552
-3.392
-3.269
-3.183
-3.132
-3.116
-3.133
-3.18
-3.257
-3.362
-3.492
-3.647
-3.824
-4.022
-4.239
-4.473
-4.724
-4.988
-5.266
-5.555
-5.854
-6.161
-6.476
-6.796
-7.123
-7.454
-7.789
-8.127
-8.47
-8.816
-9.166
-9.52
-9.878
-10.241
-10.608
-10.982
-11.361
-11.748
-12.143
-12.548
-12.964
-13.392
-13.835
-14.293
-14.768
-15.26
-15.77
-16.299
-16.848
-17.417
-18.007
-18.62
-19.255
-19.914
-20.596
-21.302
-22.03
-22.781
-23.551
-24.34
-25.145
-25.963
-26.792
-27.627
-28.468
-29.31
-30.151
-30.987
-31.814
-32.627
-33.421
-34.191
-34.932
-35.636
-36.298
-36.913
-37.478
-37.988
-38.441
-38.832
-39.159
-39.419
-39.61
-39.729
-39.774
-39.743
-39.634
-39.448
-39.187
-38.853
-38.45
-37.982
-37.457
-36.881
-36.263
-35.607
-34.922
-34.213
-33.484
-32.742
-31.99
-31.235
-30.482
-29.741
-29.021
-28.335
-27.695
-27.109
-26.587
-26.134
-25.755
-25.454
-25.229
-25.075
-24.993
-24.984
-25.06
-25.238
-25.525
-25.92
-26.419
-27.01
-27.671
-28.372
-29.06
-29.675
-30.175
-30.533
-30.741
-30.812
-30.743
-30.53
-30.163
-29.619
-28.897
-27.996
-26.903
-25.628
-24.21
-22.738
-21.383
-20.333
-19.733
-19.691
-20.267
-21.49
-23.394
-25.987
-29.235
-33.076
-37.427
-42.228
-47.474
-53.15
-59.142
-65.188
-70.865
-75.71
-79.314
-81.351
-81.464
-79.196
-74.331
-66.961
-57.51
-46.81
-35.591
-24.153
-12.938
-2.619
6.812
15.794
25.388
37.695
54.14
75.023
100.831
131.876
166.904
203.513
237.546
263.093
275.562
271.79
248.468
202.728
133.579
42.415
-66.068
-184.851
-307.713
-429.044
-542.828
-642.362
-721.254
-775.678
-805.076
-810.791
-794.602
-758.508
-704.827
-637.999
-564.292
-488.599
-414.421
-344.793
-281.6
-226.612
-182.126
-148.339
-123.267
-105.317
-92.566
-82.581
-74.301
-66.65
-57.692
-46.778
-34.342
-20.703
-7.072
4.85
14.559
21.749
25.849
27.035
25.654
22.021
17.154
12.262
8.002
4.835
3.047
2.589
3.509
5.875
9.522
14.225
19.774
25.963
32.678
39.836
47.299
54.874
62.316
69.4
75.982
81.976
87.342
92.063
96.115
99.501
102.276
104.505
106.265
107.625
108.63
109.336
109.824
110.186
110.535
110.962
111.526
112.268
113.219
114.395
115.814
117.479
119.37
121.47
123.77
126.259
128.938
131.8
134.827
137.999
141.293
144.689
148.171
151.722
155.322
158.953
162.598
166.243
169.875
173.478
177.031
180.513
183.902
187.174
190.308
193.283
196.073
198.659
201.022
203.143
205.006
206.598
207.903
208.908
209.604
209.982
210.032
209.751
209.132
208.172
206.872
205.232
203.255
200.944
198.305
195.346
192.074
188.501
184.637
180.496
176.091
171.438
166.554
161.456
156.162
150.692
145.065
139.303
133.425
127.454
121.409
115.312
109.183
103.042
96.909
90.802
84.741
78.743
72.825
67.005
61.297
55.718
50.28
44.996
39.879
34.939
30.186
25.629
21.275
17.13
13.201
9.491
6.002
2.738
-0.302
-3.117
-5.71
-8.082
-10.238
-12.182
-13.918
-15.454
-16.796
-17.951
-18.927
-19.733
-20.377
-20.869
-21.218
-21.434
-21.526
-21.506
-21.382
-21.164
-20.864
-20.489
-20.05
-19.557
-19.018
-18.442
-17.837
-17.211
-16.572
-15.928
-15.284
-14.647
-14.023
-13.416
-12.831
-12.272
-11.744
-11.248
-10.787
-10.363
-9.979
-9.635
-9.332
-9.07
-8.849
-8.67
-8.532
-8.433
-8.372
-8.35
-8.363
-8.41
-8.49
-8.6
-8.739
-8.905
-9.096
-9.31
-9.544
-9.797
-10.066
-10.35
-10.647
-10.955
-11.272
-11.598
-11.931
-12.269
-12.611
-12.958
-13.307
-13.658
-14.01
-14.363
-14.717
-15.07
-15.424
-15.777
-16.13
-16.484
-16.839
-17.195
-17.554
-17.914
-18.277
-18.644
-19.014
-19.39
-19.77
-20.157
-20.551
-20.954
-21.366
-21.788
-22.221
-22.665
-23.12
-23.587
-24.065
-24.555
-25.056
-25.568
-26.091
-26.625
-27.169
-27.724
-28.287
-28.858
-29.435
-30.017
-30.601
-31.184
-31.764
-32.338
-32.903
-33.456
-33.995
-34.518
-35.021
-35.501
-35.954
-36.377
-36.764
-37.113
-37.418
-37.675
-37.88
-38.032
-38.128
-38.166
-38.143
-38.06
-37.914
-37.704
-37.431
-37.092
-36.687
-36.215
-35.679
-35.082
-34.426
-33.717
-32.958
-32.157
-31.322
-30.461
-29.58
-28.685
-27.782
-26.875
-25.97
-25.072
-24.183
-23.308
-22.455
-21.632
-20.849
-20.117
-19.441
-18.829
-18.288
-17.819
-17.427
-17.111
-16.863
-16.684
-16.576
-16.547
-16.615
-16.787
-17.059
-17.428
-17.882
-18.4
-18.952
-19.484
-19.934
-20.263
-20.444
-20.464
-20.336
-20.057
-19.617
-19.02
-18.254
-17.309
-16.193
-14.898
-13.432
-11.856
-10.275
-8.849
-7.769
-7.173
-7.159
-7.809
-9.151
-11.219
-14.016
-17.461
-21.483
-26.017
-31.023
-36.511
-42.424
-48.571
-54.643
-60.231
-64.897
-68.298
-70.038
-69.622
-66.777
-61.445
-53.92
-44.935
-35.139
-24.902
-14.626
-4.847
4.172
12.634
21.504
32.612
47.46
66.694
90.56
119.238
152.48
188.767
224.757
255.285
275.312
281.161
269.931
238.94
185.78
109.8
13.55
-97.297
-216.279
-337.653
-455.975
-565.642
-659.976
-732.772
-781.053
-804.926
-805.666
-785.056
-745.089
-688.008
-618.58
-543.164
-466.385
-391.556
-321.636
-258.44
-203.83
-160.186
-127.504
-103.712
-87.202
-76.002
-67.759
-61.442
-55.867
-48.99
-40.105
-29.58
-17.733
-5.79
4.621
13.039
19.189
22.513
23.102
21.24
17.231
12.073
6.983
2.614
-0.619
-2.464
-2.976
-2.123
0.162
3.706
8.245
13.544
19.384
25.637
32.254
39.125
46.065
52.849
59.258
65.154
70.474
75.196
79.298
82.755
85.572
87.801
89.522
90.823
91.773
92.418
92.813
93.031
93.163
93.318
93.582
94.008
94.635
95.487
96.583
97.943
99.567
101.439
103.539
105.856
108.38
111.112
114.041
117.149
120.415
123.814
127.329
130.943
134.637
138.391
142.186
146.005
149.831
153.651
157.446
161.196
164.877
168.466
171.938
175.273
178.445
181.432
184.209
186.759
189.061
191.099
192.856
194.318
195.47
196.301
196.801
196.96
196.773
196.233
195.336
194.083
192.473
190.509
188.194
185.533
182.533
179.203
175.553
171.596
167.342
162.808
158.008
152.96
147.683
142.194
136.515
130.666
124.668
118.544
112.315
106.003
99.631
93.22
86.791
80.365
73.964
67.608
61.315
55.105
48.996
43.006
37.149
31.443
25.901
20.536
15.36
10.384
5.618
1.07
-3.252
-7.343
-11.197
-14.811
-18.184
-21.314
-24.201
-26.847
-29.254
-31.427
-33.37
-35.089
-36.59
-37.881
-38.97
-39.865
-40.576
-41.114
-41.487
-41.707
-41.785
-41.731
-41.558
-41.275
-40.895
-40.429
-39.886
-39.279
-38.617
-37.911
-37.169
-36.402
-35.618
-34.825
-34.031
-33.243
-32.467
-31.709
-30.975
-30.269
-29.594
-28.956
-28.355
-27.795
-27.278
-26.804
-26.374
-25.988
-25.646
-25.348
-25.091
-24.876
-24.699
-24.559
-24.455
-24.383
-24.342
-24.328
-24.339
-24.372
-24.425
-24.494
-24.579
-24.675
-24.781
-24.895
-25.015
-25.139
-25.266
-25.394
-25.521
-25.647
-25.772
-25.894
-26.013
-26.13
-26.243
-26.356
-26.467
-26.578
-26.69
-26.804
-26.921
-27.044
-27.173
-27.311
-27.458
-27.618
-27.792
-27.983
-28.192
-28.423
-28.676
-28.953
-29.255
-29.584
-29.94
-30.325
-30.739
-31.181
-31.654
-32.156
-32.688
-33.25
-33.841
-34.459
-35.103
-35.77
-36.459
-37.165
-37.884
-38.614
-39.35
-40.089
-40.826
-41.559
-42.281
-42.987
-43.674
-44.334
-44.962
-45.552
-46.097
-46.591
-47.029
-47.406
-47.719
-47.965
-48.138
-48.237
-48.258
-48.2
-48.06
-47.836
-47.525
-47.126
-46.642
-46.073
-45.423
-44.695
-43.893
-43.025
-42.098
-41.121
-40.1
-39.04
-37.95
-36.833
-35.698
-34.549
-33.391
-32.231
-31.077
-29.939
-28.829
-27.759
-26.735
-25.767
-24.862
-24.026
-23.264
-22.577
-21.96
-21.413
-20.944
-20.56
-20.281
-20.115
-20.058
-20.107
-20.255
-20.478
-20.749
-21.018
-21.22
-21.316
-21.28
-21.098
-20.783
-20.332
-19.731
-18.984
-18.078
-17.007
-15.778
-14.387
-12.839
-11.195
-9.56
-8.086
-6.971
-6.356
-6.334
-6.988
-8.345
-10.428
-13.241
-16.702
-20.725
-25.243
-30.205
-35.609
-41.406
-47.396
-53.273
-58.642
-63.038
-66.107
-67.44
-66.515
-63.113
-57.246
-49.219
-39.805
-29.658
-19.071
-8.535
1.337
10.55
19.438
29.118
41.626
58.072
78.679
103.761
133.419
166.863
202.301
235.804
261.782
276.24
276.292
259.202
222.706
164.986
86.207
-9.739
-116.499
-228.531
-340.578
-447.389
-543.561
-622.616
-679.941
-714.386
-726.89
-719.171
-693.574
-652.457
-599.001
-538.392
-475.137
-412.533
-353.33
-298.716
-249.247
-205.859
-168.995
-138.092
-112.511
-90.935
-71.518
-53.758
-37.636
-22.87
-9.213
3.905
16.928
29.267
39.66
47.521
52.81
55.769
56.786
55.768
52.645
47.951
42.669
37.716
33.674
30.765
28.966
28.378
29.145
31.28
34.654
39.013
44.109
49.769
55.9
62.423
69.21
76.067
82.756
89.074
94.895
100.152
104.821
108.877
112.298
115.094
117.317
119.053
120.39
121.398
122.128
122.634
122.987
123.281
123.623
124.096
124.751
125.624
126.738
128.112
129.767
131.702
133.897
136.335
138.999
141.881
144.978
148.278
151.762
155.405
159.183
163.074
167.061
171.122
175.236
179.38
183.534
187.68
191.801
195.877
199.884
203.798
207.593
211.243
214.724
218.011
221.079
223.904
226.465
228.743
230.721
232.381
233.708
234.688
235.311
235.568
235.449
234.95
234.065
232.794
231.136
229.095
226.675
223.882
220.722
217.207
213.347
209.156
204.648
199.839
194.747
189.389
183.787
177.962
171.935
165.729
159.367
152.874
146.273
139.589
132.846
126.067
119.275
112.494
105.745
99.05
92.43
85.904
79.491
73.209
67.076
61.106
55.314
49.713
44.315
39.13
34.168
29.435
24.939
20.685
16.675
12.913
9.4
6.136
3.118
0.345
-2.187
-4.483
-6.55
-8.392
-10.019
-11.438
-12.658
-13.689
-14.54
-15.223
-15.747
-16.124
-16.365
-16.48
-16.481
-16.38
-16.186
-15.912
-15.567
-15.162
-14.705
-14.208
-13.677
-13.123
-12.552
-11.972
-11.39
-10.812
-10.243
-9.689
-9.155
-8.645
-8.161
-7.707
-7.285
-6.897
-6.546
-6.231
-5.955
-5.717
-5.518
-5.357
-5.235
-5.151
-5.103
-5.092
-5.115
-5.171
-5.26
-5.38
-5.529
-5.708
-5.914
-6.147
-6.406
-6.691
-7.001
-7.336
-7.694
-8.077
-8.483
-8.912
-9.366
-9.845
-10.349
-10.879
-11.435
-12.02
-12.631
-13.271
-13.939
-14.635
-15.359
-16.11
-16.89
-17.696
-18.53
-19.39
-20.276
-21.188
-22.124
-23.082
-24.061
-25.056
-26.067
-27.089
-28.12
-29.154
-30.188
-31.22
-32.244
-33.258
-34.256
-35.234
-36.185
-37.105
-37.987
-38.825
-39.613
-40.346
-41.019
-41.629
-42.173
-42.647
-43.049
-43.377
-43.628
-43.801
-43.895
-43.908
-43.84
-43.69
-43.462
-43.157
-42.781
-42.338
-41.832
-41.272
-40.666
-40.022
-39.347
-38.647
-37.929
-37.198
-36.462
-35.728
-35
-34.287
-33.596
-32.939
-32.328
-31.772
-31.28
-30.858
-30.509
-30.235
-30.04
-29.922
-29.875
-29.898
-29.995
-30.175
-30.452
-30.835
-31.32
-31.9
-32.558
-33.266
-33.987
-34.68
-35.29
-35.779
-36.128
-36.325
-36.382
-36.299
-36.07
-35.68
-35.106
-34.324
-33.325
-32.115
-30.709
-29.177
-27.645
-26.25
-25.164
-24.521
-24.402
-24.869
-25.945
-27.633
-29.914
-32.741
-36.057
-39.83
-44.049
-48.696
-53.705
-58.855
-63.8
-68.162
-71.507
-73.483
-73.73
-71.783
-67.437
-60.772
-52.146
-42.307
-31.938
-21.322
-10.903
-1.34
7.389
15.703
24.615
36.127
51.557
71.17
95.425
124.651
157.714
192.413
224.854
249.399
261.681
258.687
237.254
194.663
129.925
44.149
-58.404
-170.99
-287.659
-402.973
-511.058
-605.842
-681.52
-734.232
-763.271
-770.143
-756.591
-724.892
-677.729
-618.574
-552.651
-484.62
-417.666
-354.307
-296.236
-244.403
-200.154
-164.537
-136.515
-114.763
-97.887
-83.818
-71.566
-60.87
-50.7
-39.876
-28.272
-15.972
-3.684
6.917
15.179
21.184
24.744
25.792
24.475
20.917
15.803
10.439
5.632
1.788
-0.8
-2.151
-2.212
-0.841
1.887
5.735
10.482
15.908
21.86
28.301
35.127
42.179
49.265
56.122
62.568
68.504
73.865
78.63
82.78
86.291
89.189
91.546
93.438
94.945
96.13
97.028
97.698
98.217
98.675
99.18
99.806
100.597
101.588
102.799
104.247
105.949
107.898
110.069
112.446
115.014
117.765
120.696
123.796
127.042
130.414
133.888
137.444
141.066
144.732
148.421
152.115
155.794
159.443
163.045
166.583
170.035
173.378
176.59
179.647
182.528
185.211
187.672
189.892
191.852
193.536
194.929
196.017
196.787
197.229
197.334
197.095
196.507
195.566
194.269
192.617
190.611
188.257
185.558
182.522
179.157
175.474
171.484
167.2
162.638
157.813
152.741
147.441
141.932
136.235
130.369
124.358
118.221
111.983
105.665
99.29
92.881
86.458
80.044
73.659
67.323
61.057
54.878
48.805
42.855
37.044
31.387
25.898
20.59
15.475
10.563
5.864
1.385
-2.866
-6.884
-10.665
-14.204
-17.501
-20.555
-23.365
-25.934
-28.264
-30.36
-32.226
-33.868
-35.292
-36.507
-37.52
-38.34
-38.978
-39.442
-39.743
-39.891
-39.898
-39.775
-39.532
-39.181
-38.732
-38.197
-37.587
-36.912
-36.182
-35.408
-34.598
-33.762
-32.909
-32.046
-31.182
-30.324
-29.478
-28.65
-27.845
-27.069
-26.324
-25.616
-24.946
-24.318
-23.733
-23.191
-22.695
-22.244
-21.838
-21.476
-21.158
-20.882
-20.646
-20.449
-20.289
-20.163
-20.069
-20.005
-19.969
-19.957
-19.967
-19.997
-20.043
-20.104
-20.177
-20.26
-20.352
-20.449
-20.551
-20.657
-20.767
-20.878
-20.99
-21.104
-21.218
-21.333
-21.449
-21.567
-21.689
-21.814
-21.944
-22.082
-22.228
-22.385
-22.553
-22.735
-22.93
-23.142
-23.37
-23.616
-23.882
-24.168
-24.475
-24.805
-25.159
-25.537
-25.939
-26.364
-26.811
-27.28
-27.768
-28.273
-28.793
-29.324
-29.865
-30.412
-30.964
-31.515
-32.063
-32.602
-33.129
-33.638
-34.123
-34.58
-35
-35.381
-35.718
-36.007
-36.245
-36.429
-36.555
-36.621
-36.625
-36.564
-36.436
-36.239
-35.969
-35.629
-35.22
-34.743
-34.202
-33.601
-32.945
-32.241
-31.499
-30.723
-29.919
-29.094
-28.252
-27.399
-26.542
-25.683
-24.827
-23.981
-23.156
-22.362
-21.61
-20.907
-20.26
-19.677
-19.162
-18.723
-18.359
-18.063
-17.835
-17.677
-17.598
-17.62
-17.753
-17.991
-18.329
-18.761
-19.272
-19.837
-20.415
-20.933
-21.336
-21.594
-21.694
-21.644
-21.446
-21.084
-20.541
-19.804
-18.875
-17.77
-16.491
-15.032
-13.429
-11.761
-10.188
-8.929
-8.16
-7.997
-8.517
-9.764
-11.78
-14.596
-18.194
-22.492
-27.387
-32.816
-38.773
-45.227
-52.045
-58.958
-65.528
-71.268
-75.783
-78.648
-79.382
-77.669
-73.397
-66.78
-58.444
-49.053
-39.043
-28.847
-19.009
-9.766
-0.852
8.708
20.665
36.512
56.909
82.117
112.38
147.426
185.696
223.823
256.581
278.886
287.045
278.129
249.392
198.343
124.184
29.305
-80.644
-199.19
-320.619
-439.528
-550.376
-646.472
-721.461
-772.146
-798.474
-801.667
-783.443
-745.728
-690.674
-622.911
-548.762
-472.921
-398.784
-329.349
-266.459
-211.944
-168.142
-135.156
-110.982
-94.046
-82.409
-73.672
-66.772
-60.569
-53.074
-43.602
-32.546
-20.202
-7.768
3.079
11.839
18.204
21.584
22.128
20.17
16.018
10.684
5.388
0.783
-2.679
-4.714
-5.382
-4.648
-2.451
1.029
5.554
10.907
16.878
23.352
30.26
37.47
44.795
52
58.862
65.243
71.061
76.279
80.883
84.851
88.189
90.954
93.216
95.055
96.54
97.714
98.634
99.375
100.025
100.691
101.461
102.386
103.505
104.843
106.416
108.239
110.309
112.606
115.111
117.809
120.689
123.747
126.974
130.348
133.848
137.449
141.132
144.877
148.666
152.478
156.294
160.095
163.866
167.592
171.255
174.835
178.309
181.654
184.849
187.87
190.697
193.307
195.679
197.795
199.638
201.194
202.449
203.389
204.005
204.286
204.227
203.821
203.065
201.955
200.493
198.678
196.516
194.011
191.169
187.999
184.51
180.714
176.623
172.252
167.616
162.731
157.615
152.286
146.765
141.071
135.226
129.251
123.168
116.999
110.766
104.492
98.197
91.903
85.63
79.399
73.228
67.137
61.143
55.263
49.513
43.908
38.462
33.189
28.1
23.205
18.515
14.037
9.778
5.745
1.941
-1.629
-4.963
-8.06
-10.921
-13.545
-15.937
-18.099
-20.035
-21.751
-23.253
-24.548
-25.643
-26.548
-27.271
-27.822
-28.21
-28.446
-28.539
-28.502
-28.344
-28.077
-27.711
-27.256
-26.725
-26.126
-25.47
-24.767
-24.027
-23.258
-22.469
-21.668
-20.864
-20.062
-19.271
-18.495
-17.741
-17.014
-16.317
-15.654
-15.029
-14.444
-13.901
-13.402
-12.947
-12.538
-12.173
-11.854
-11.579
-11.347
-11.157
-11.006
-10.894
-10.818
-10.777
-10.767
-10.786
-10.832
-10.902
-10.995
-11.107
-11.236
-11.379
-11.535
-11.701
-11.874
-12.054
-12.238
-12.425
-12.615
-12.806
-12.998
-13.191
-13.385
-13.578
-13.773
-13.969
-14.166
-14.367
-14.571
-14.78
-14.997
-15.222
-15.457
-15.704
-15.965
-16.239
-16.529
-16.835
-17.159
-17.502
-17.864
-18.247
-18.65
-19.076
-19.525
-19.997
-20.491
-21.008
-21.545
-22.102
-22.676
-23.265
-23.865
-24.474
-25.089
-25.707
-26.326
-26.941
-27.547
-28.141
-28.718
-29.273
-29.799
-30.292
-30.745
-31.153
-31.511
-31.818
-32.07
-32.263
-32.394
-32.461
-32.461
-32.393
-32.255
-32.043
-31.757
-31.396
-30.962
-30.458
-29.886
-29.25
-28.557
-27.813
-27.028
-26.206
-25.354
-24.478
-23.584
-22.677
-21.762
-20.844
-19.927
-19.02
-18.131
-17.274
-16.457
-15.69
-14.98
-14.332
-13.754
-13.251
-12.822
-12.461
-12.167
-11.943
-11.801
-11.76
-11.827
-11.997
-12.263
-12.619
-13.047
-13.522
-14
-14.409
-14.697
-14.833
-14.808
-14.629
-14.294
-13.785
-13.079
-12.169
-11.063
-9.777
-8.318
-6.683
-4.906
-3.075
-1.352
0.049
0.956
1.26
0.899
-0.178
-2.016
-4.656
-8.1
-12.244
-16.97
-22.191
-27.863
-33.98
-40.435
-46.95
-53.091
-58.371
-62.344
-64.689
-65.047
-62.921
-58.076
-50.565
-40.761
-29.557
-17.734
-5.607
6.339
17.436
27.705
37.564
48.055
61.273
78.612
100.362
127.004
158.805
194.467
231.54
265.818
291.43
303.836
299.9
276.351
230.329
160.867
69.417
-39.282
-158.206
-281.125
-402.427
-516.098
-615.39
-693.907
-747.85
-776.668
-781.741
-764.896
-728.153
-673.864
-606.536
-532.461
-456.546
-382.312
-312.777
-249.812
-195.198
-151.223
-118.054
-93.683
-76.495
-64.546
-55.402
-47.997
-41.227
-33.128
-23.046
-11.413
1.447
14.318
25.503
34.505
41.016
44.454
44.988
42.964
38.704
33.233
27.764
22.953
19.26
16.97
16.035
16.501
18.433
21.661
25.956
31.106
36.904
43.238
50.031
57.143
64.385
71.515
78.306
84.616
90.36
95.498
100.012
103.879
107.102
109.735
111.846
113.512
114.801
115.756
116.436
116.916
117.288
117.664
118.133
118.749
119.555
120.577
121.831
123.334
125.086
127.066
129.256
131.644
134.219
136.98
139.917
143.012
146.243
149.587
153.023
156.534
160.101
163.705
167.327
170.948
174.554
178.131
181.663
185.128
188.505
191.77
194.9
197.873
200.667
203.259
205.625
207.749
209.611
211.196
212.489
213.475
214.143
214.483
214.484
214.141
213.448
212.4
210.995
209.234
207.119
204.652
201.839
198.686
195.201
191.394
187.276
182.861
178.16
173.191
167.969
162.512
156.839
150.97
144.925
138.726
132.393
125.951
119.42
112.824
106.184
99.522
92.859
86.216
79.613
73.07
66.605
60.238
53.984
47.861
41.884
36.067
30.423
24.964
19.702
14.645
9.804
5.184
0.792
-3.367
-7.289
-10.971
-14.413
-17.614
-20.575
-23.299
-25.789
-28.049
-30.084
-31.902
-33.508
-34.912
-36.12
-37.143
-37.99
-38.67
-39.194
-39.572
-39.815
-39.933
-39.938
-39.839
-39.648
-39.374
-39.027
-38.618
-38.156
-37.65
-37.109
-36.54
-35.953
-35.354
-34.75
-34.148
-33.553
-32.972
-32.407
-31.865
-31.348
-30.86
-30.402
-29.978
-29.587
-29.233
-28.914
-28.631
-28.384
-28.173
-27.997
-27.855
-27.745
-27.666
-27.618
-27.597
-27.603
-27.634
-27.687
-27.762
-27.856
-27.968
-28.096
-28.239
-28.396
-28.564
-28.743
-28.932
-29.128
-29.332
-29.542
-29.757
-29.978
-30.203
-30.433
-30.667
-30.906
-31.151
-31.402
-31.66
-31.924
-32.196
-32.477
-32.767
-33.068
-33.38
-33.705
-34.043
-34.397
-34.767
-35.155
-35.56
-35.984
-36.425
-36.886
-37.365
-37.864
-38.38
-38.916
-39.469
-40.041
-40.631
-41.239
-41.862
-42.499
-43.148
-43.808
-44.475
-45.146
-45.818
-46.487
-47.15
-47.804
-48.446
-49.073
-49.678
-50.259
-50.811
-51.329
-51.807
-52.24
-52.622
-52.948
-53.215
-53.421
-53.561
-53.634
-53.636
-53.565
-53.419
-53.197
-52.898
-52.518
-52.056
-51.513
-50.89
-50.19
-49.417
-48.573
-47.666
-46.701
-45.689
-44.633
-43.541
-42.417
-41.267
-40.096
-38.91
-37.711
-36.505
-35.299
-34.102
-32.927
-31.782
-30.676
-29.616
-28.609
-27.661
-26.776
-25.956
-25.194
-24.489
-23.846
-23.277
-22.8
-22.424
-22.144
-21.956
-21.853
-21.819
-21.831
-21.846
-21.794
-21.623
-21.305
-20.833
-20.213
-19.447
-18.517
-17.401
-16.096
-14.61
-12.962
-11.159
-9.199
-7.117
-5.001
-3.015
-1.372
-0.247
0.252
0.059
-0.878
-2.605
-5.167
-8.564
-12.694
-17.44
-22.713
-28.474
-34.717
-41.337
-48.055
-54.443
-60.011
-64.313
-67.024
-67.784
-66.086
-61.691
-54.649
-45.338
-34.654
-23.385
-11.846
-0.525
9.905
19.472
28.61
38.386
50.937
67.694
88.964
115.253
146.848
182.449
219.586
254.006
279.754
292.22
288.215
264.401
217.854
147.563
54.974
-55.133
-175.65
-300.259
-423.27
-538.572
-639.292
-718.918
-773.567
-802.664
-807.604
-790.248
-752.647
-697.196
-628.505
-553.008
-475.721
-400.247
-329.662
-265.864
-210.67
-166.419
-133.249
-109.075
-92.21
-80.636
-71.86
-64.785
-58.263
-50.269
-40.131
-28.306
-15.143
-1.905
9.68
19.103
26.038
29.877
30.777
29.087
25.133
19.956
14.782
10.263
6.858
4.85
4.186
4.908
7.077
10.515
14.989
20.285
26.196
32.611
39.454
46.589
53.826
60.925
67.66
73.892
79.537
84.557
88.936
92.653
95.714
98.173
100.1
101.576
102.669
103.424
103.899
104.173
104.339
104.508
104.772
105.186
105.793
106.621
107.689
109.013
110.595
112.416
114.46
116.714
119.17
121.826
124.676
127.7
130.877
134.186
137.606
141.12
144.709
148.355
152.037
155.738
159.443
163.137
166.804
170.421
173.967
177.417
180.749
183.939
186.965
189.803
192.43
194.826
196.974
198.857
200.46
201.767
202.765
203.445
203.795
203.809
203.48
202.805
201.779
200.403
198.678
196.607
194.195
191.448
188.374
184.982
181.284
177.292
173.021
168.484
163.699
158.684
153.457
148.037
142.446
136.703
130.831
124.851
118.786
112.657
106.486
100.293
94.1
87.927
81.793
75.719
69.721
63.818
58.026
52.362
46.839
41.472
36.273
31.254
26.425
21.796
17.373
13.164
9.175
5.41
1.871
-1.438
-4.517
-7.367
-9.989
-12.386
-14.561
-16.518
-18.264
-19.804
-21.145
-22.295
-23.262
-24.055
-24.683
-25.156
-25.483
-25.675
-25.741
-25.692
-25.538
-25.289
-24.956
-24.548
-24.075
-23.547
-22.972
-22.36
-21.718
-21.056
-20.38
-19.698
-19.016
-18.341
-17.678
-17.032
-16.409
-15.811
-15.244
-14.709
-14.209
-13.747
-13.324
-12.942
-12.6
-12.301
-12.043
-11.828
-11.653
-11.519
-11.425
-11.37
-11.351
-11.368
-11.419
-11.502
-11.617
-11.76
-11.931
-12.127
-12.347
-12.589
-12.851
-13.131
-13.427
-13.738
-14.062
-14.397
-14.743
-15.098
-15.461
-15.832
-16.209
-16.593
-16.983
-17.378
-17.778
-18.182
-18.591
-19.005
-19.424
-19.848
-20.278
-20.715
-21.159
-21.61
-22.069
-22.536
-23.01
-23.492
-23.982
-24.479
-24.984
-25.497
-26.017
-26.545
-27.081
-27.624
-28.174
-28.73
-29.29
-29.852
-30.415
-30.977
-31.533
-32.082
-32.623
-33.151
-33.666
-34.164
-34.641
-35.095
-35.521
-35.915
-36.274
-36.591
-36.863
-37.086
-37.255
-37.371
-37.43
-37.43
-37.368
-37.244
-37.057
-36.805
-36.486
-36.1
-35.645
-35.122
-34.533
-33.88
-33.168
-32.4
-31.581
-30.72
-29.825
-28.901
-27.955
-26.991
-26.014
-25.03
-24.045
-23.06
-22.08
-21.112
-20.166
-19.251
-18.379
-17.556
-16.788
-16.083
-15.445
-14.879
-14.384
-13.954
-13.587
-13.286
-13.061
-12.931
-12.904
-12.973
-13.133
-13.376
-13.687
-14.041
-14.394
-14.677
-14.836
-14.843
-14.688
-14.378
-13.912
-13.272
-12.436
-11.399
-10.169
-8.763
-7.189
-5.444
-3.562
-1.628
0.196
1.698
2.706
3.11
2.846
1.86
0.103
-2.469
-5.863
-9.976
-14.694
-19.929
-25.641
-31.825
-38.376
-45.022
-51.335
-56.833
-61.073
-63.731
-64.446
-62.712
-58.284
-51.2
-41.824
-31.037
-19.618
-7.888
3.659
14.34
24.166
33.552
43.545
56.265
73.142
94.496
120.855
152.535
188.276
225.645
260.411
286.621
299.661
296.318
273.219
227.396
157.763
65.677
-44.137
-164.588
-289.38
-412.823
-528.799
-630.434
-711.152
-766.975
-797.26
-803.355
-787.074
-750.451
-695.857
-627.842
-552.83
-475.859
-400.546
-330.002
-266.15
-210.793
-166.264
-132.751
-108.207
-90.985
-79.101
-70.043
-62.712
-55.994
-47.896
-37.753
-26.008
-12.981
0.094
11.469
20.625
27.24
30.722
31.243
29.157
24.778
19.14
13.478
8.462
4.561
2.07
0.936
1.206
2.95
5.996
10.115
15.094
20.722
26.885
33.503
40.438
47.497
54.436
61.025
67.123
72.642
77.543
81.81
85.418
88.373
90.729
92.554
93.929
94.921
95.577
95.955
96.135
96.211
96.296
96.482
96.827
97.374
98.151
99.176
100.465
102.021
103.823
105.855
108.104
110.561
113.225
116.088
119.13
122.331
125.666
129.115
132.66
136.282
139.962
143.679
147.416
151.156
154.886
158.589
162.242
165.823
169.308
172.674
175.897
178.955
181.822
184.477
186.9
189.071
190.976
192.597
193.919
194.93
195.619
195.975
195.992
195.663
194.984
193.951
192.565
190.828
188.741
186.311
183.544
180.447
177.03
173.306
169.287
164.986
160.42
155.606
150.56
145.303
139.854
134.234
128.464
122.566
116.563
110.477
104.33
98.145
91.942
85.744
79.571
73.443
67.38
61.401
55.523
49.763
44.139
38.664
33.354
28.22
23.274
18.527
13.988
9.665
5.564
1.691
-1.95
-5.356
-8.525
-11.457
-14.153
-16.614
-18.845
-20.848
-22.63
-24.196
-25.553
-26.709
-27.673
-28.453
-29.06
-29.503
-29.793
-29.941
-29.958
-29.855
-29.643
-29.334
-28.938
-28.467
-27.931
-27.342
-26.708
-26.041
-25.349
-24.642
-23.927
-23.214
-22.508
-21.817
-21.147
-20.504
-19.892
-19.316
-18.779
-18.284
-17.834
-17.43
-17.074
-16.766
-16.507
-16.297
-16.134
-16.017
-15.945
-15.916
-15.928
-15.979
-16.065
-16.184
-16.333
-16.509
-16.709
-16.93
-17.169
-17.422
-17.687
-17.959
-18.237
-18.518
-18.798
-19.076
-19.35
-19.617
-19.877
-20.128
-20.369
-20.6
-20.82
-21.028
-21.225
-21.411
-21.586
-21.751
-21.908
-22.056
-22.199
-22.337
-22.473
-22.608
-22.743
-22.879
-23.019
-23.163
-23.314
-23.471
-23.638
-23.814
-24.001
-24.201
-24.415
-24.643
-24.885
-25.141
-25.411
-25.693
-25.985
-26.286
-26.593
-26.904
-27.217
-27.53
-27.839
-28.142
-28.435
-28.715
-28.976
-29.214
-29.425
-29.602
-29.74
-29.837
-29.887
-29.889
-29.84
-29.735
-29.573
-29.353
-29.071
-28.727
-28.318
-27.843
-27.3
-26.693
-26.021
-25.289
-24.499
-23.657
-22.768
-21.842
-20.886
-19.906
-18.908
-17.899
-16.884
-15.869
-14.859
-13.858
-12.873
-11.911
-10.982
-10.097
-9.266
-8.497
-7.799
-7.177
-6.636
-6.181
-5.81
-5.519
-5.306
-5.177
-5.137
-5.206
-5.39
-5.684
-6.087
-6.588
-7.162
-7.782
-8.397
-8.943
-9.382
-9.687
-9.845
-9.865
-9.745
-9.472
-9.05
-8.463
-7.702
-6.771
-5.661
-4.379
-2.983
-1.572
-0.297
0.654
1.15
1.096
0.413
-0.924
-2.943
-5.647
-8.956
-12.8
-17.117
-21.866
-27.053
-32.626
-38.4
-44.077
-49.264
-53.531
-56.542
-57.913
-57.159
-54.028
-48.478
-40.798
-31.715
-21.864
-11.608
-1.353
8.372
17.333
25.741
34.559
45.602
60.315
79.328
102.882
131.127
163.804
199.414
234.661
264.499
284.006
289.56
278.337
247.753
195.538
121.232
27.366
-80.551
-195.999
-313.222
-426.75
-530.91
-619.54
-687.179
-731.044
-751.353
-749.917
-728.804
-690.556
-638.112
-575.435
-507.741
-439.293
-372.907
-310.76
-254.289
-204.346
-162.106
-128.334
-101.993
-81.817
-66.5
-54.199
-44.008
-35.624
-27.999
-19.896
-11.069
-1.569
7.947
16
22.045
26.236
28.444
28.535
26.597
22.787
17.804
12.885
8.771
5.778
4.103
3.724
4.678
7.065
10.78
15.532
21.058
27.133
33.605
40.433
47.517
54.676
61.689
68.343
74.499
80.094
85.106
89.512
93.289
96.442
99.017
101.095
102.762
104.088
105.122
105.913
106.528
107.053
107.589
108.218
108.991
109.944
111.097
112.469
114.078
115.923
117.987
120.251
122.702
125.33
128.133
131.101
134.215
137.456
140.799
144.225
147.719
151.262
154.833
158.416
161.99
165.541
169.055
172.514
175.896
179.18
182.343
185.362
188.215
190.88
193.332
195.552
197.52
199.218
200.63
201.742
202.539
203.008
203.14
202.926
202.358
201.431
200.141
198.487
196.468
194.088
191.351
188.262
184.827
181.058
176.963
172.556
167.851
162.862
157.606
152.101
146.367
140.424
134.292
127.995
121.554
114.993
108.336
101.605
94.825
88.019
81.21
74.419
67.67
60.983
54.38
47.879
41.5
35.261
29.178
23.268
17.545
12.022
6.711
1.623
-3.232
-7.847
-12.215
-16.331
-20.191
-23.792
-27.133
-30.215
-33.039
-35.608
-37.925
-39.996
-41.828
-43.427
-44.801
-45.959
-46.912
-47.669
-48.242
-48.641
-48.878
-48.965
-48.914
-48.738
-48.447
-48.055
-47.572
-47.011
-46.384
-45.7
-44.971
-44.206
-43.416
-42.609
-41.795
-40.98
-40.172
-39.379
-38.605
-37.856
-37.138
-36.453
-35.807
-35.201
-34.637
-34.118
-33.645
-33.218
-32.837
-32.501
-32.211
-31.964
-31.76
-31.598
-31.475
-31.39
-31.341
-31.327
-31.345
-31.394
-31.47
-31.573
-31.7
-31.848
-32.018
-32.207
-32.414
-32.638
-32.877
-33.132
-33.4
-33.681
-33.973
-34.276
-34.588
-34.908
-35.236
-35.571
-35.913
-36.26
-36.614
-36.973
-37.336
-37.702
-38.069
-38.436
-38.801
-39.162
-39.515
-39.859
-40.191
-40.508
-40.81
-41.092
-41.352
-41.586
-41.792
-41.963
-42.097
-42.189
-42.234
-42.227
-42.167
-42.05
-41.874
-41.639
-41.341
-40.98
-40.554
-40.062
-39.503
-38.878
-38.184
-37.424
-36.598
-35.712
-34.768
-33.772
-32.73
-31.648
-30.534
-29.398
-28.244
-27.08
-25.911
-24.743
-23.58
-22.43
-21.296
-20.187
-19.109
-18.074
-17.091
-16.173
-15.326
-14.556
-13.869
-13.264
-12.746
-12.313
-11.961
-11.687
-11.497
-11.396
-11.401
-11.523
-11.758
-12.098
-12.528
-13.018
-13.531
-14.026
-14.449
-14.763
-14.945
-14.99
-14.907
-14.703
-14.379
-13.919
-13.303
-12.506
-11.517
-10.341
-8.993
-7.54
-6.102
-4.814
-3.846
-3.339
-3.381
-4.028
-5.304
-7.206
-9.701
-12.75
-16.304
-20.322
-24.803
-29.74
-35.071
-40.601
-46.016
-50.93
-54.919
-57.63
-58.665
-57.563
-54.112
-48.363
-40.671
-31.737
-22.192
-12.326
-2.561
6.494
14.852
22.932
31.764
43.264
58.708
78.382
102.679
131.907
165.013
199.876
232.759
258.174
271.768
270.534
251.312
211.298
149.423
66.645
-33.154
-143.486
-258.413
-372.577
-479.987
-574.414
-650.326
-704.078
-734.753
-743.716
-732.915
-704.673
-662.065
-609.031
-550.094
-489.123
-429.162
-372.5
-320.319
-273.314
-232.037
-196.567
-166.603
-141.703
-120.688
-101.972
-84.974
-69.551
-55.505
-42.62
-30.277
-18.023
-6.398
3.422
10.828
15.751
18.434
19.237
18.069
14.877
10.186
4.968
0.131
-3.755
-6.478
-8.062
-8.412
-7.391
-4.989
-1.344
3.291
8.668
14.619
21.055
27.897
35.013
42.213
49.256
55.943
62.149
67.808
72.895
77.384
81.254
84.514
87.216
89.444
91.285
92.805
94.051
95.076
95.946
96.751
97.595
98.555
99.681
101.005
102.547
104.325
106.357
108.641
111.154
113.877
116.793
119.892
123.169
126.612
130.2
133.909
137.713
141.593
145.529
149.502
153.489
157.469
161.423
165.333
169.183
172.954
176.623
180.168
183.565
186.791
189.822
192.638
195.213
197.528
199.564
201.305
202.734
203.839
204.606
205.025
205.087
204.786
204.116
203.075
201.661
199.874
197.718
195.198
192.319
189.091
185.523
181.626
177.414
172.902
168.105
163.041
157.728
152.186
146.436
140.5
134.401
128.161
121.804
115.354
108.835
102.271
95.686
89.102
82.542
76.029
69.582
63.224
56.973
50.848
44.866
39.044
33.397
27.94
22.685
17.643
12.825
8.24
3.894
-0.205
-4.053
-7.646
-10.983
-14.063
-16.885
-19.452
-21.768
-23.835
-25.659
-27.246
-28.605
-29.742
-30.667
-31.389
-31.918
-32.266
-32.444
-32.463
-32.334
-32.07
-31.683
-31.185
-30.588
-29.904
-29.145
-28.322
-27.446
-26.529
-25.58
-24.609
-23.626
-22.64
-21.659
-20.691
-19.742
-18.819
-17.928
-17.074
-16.262
-15.495
-14.777
-14.111
-13.498
-12.941
-12.439
-11.993
-11.604
-11.271
-10.992
-10.767
-10.595
-10.473
-10.399
-10.372
-10.388
-10.445
-10.539
-10.669
-10.83
-11.021
-11.238
-11.479
-11.741
-12.021
-12.318
-12.63
-12.955
-13.291
-13.635
-13.988
-14.348
-14.713
-15.084
-15.459
-15.839
-16.224
-16.614
-17.01
-17.412
-17.821
-18.236
-18.657
-19.086
-19.522
-19.967
-20.42
-20.881
-21.353
-21.835
-22.329
-22.834
-23.35
-23.877
-24.413
-24.958
-25.511
-26.069
-26.629
-27.19
-27.748
-28.303
-28.852
-29.392
-29.919
-30.429
-30.919
-31.384
-31.82
-32.221
-32.582
-32.898
-33.166
-33.384
-33.549
-33.658
-33.707
-33.695
-33.621
-33.481
-33.275
-33
-32.654
-32.237
-31.751
-31.198
-30.582
-29.905
-29.173
-28.394
-27.575
-26.722
-25.841
-24.937
-24.016
-23.083
-22.143
-21.199
-20.257
-19.322
-18.406
-17.518
-16.67
-15.868
-15.121
-14.436
-13.818
-13.273
-12.8
-12.394
-12.053
-11.782
-11.591
-11.498
-11.511
-11.627
-11.837
-12.138
-12.512
-12.936
-13.365
-13.73
-13.978
-14.078
-14.023
-13.816
-13.457
-12.929
-12.21
-11.294
-10.19
-8.914
-7.475
-5.866
-4.121
-2.324
-0.635
0.736
1.62
1.907
1.534
0.448
-1.395
-4.04
-7.488
-11.635
-16.365
-21.588
-27.264
-33.389
-39.86
-46.406
-52.603
-57.97
-62.068
-64.58
-65.148
-63.276
-58.726
-51.544
-42.098
-31.274
-19.845
-8.126
3.41
14.106
23.996
33.509
43.696
56.652
73.782
95.387
121.941
153.7
189.362
226.459
260.797
286.531
299.131
295.476
272.326
226.861
158.145
67.662
-39.868
-157.469
-278.948
-398.753
-510.95
-608.896
-686.325
-739.541
-768.049
-773.264
-757.033
-721.375
-668.624
-603.197
-531.246
-457.554
-385.536
-318.115
-257.092
-204.166
-161.551
-129.414
-105.801
-89.15
-77.581
-68.715
-61.513
-54.916
-47.022
-37.186
-25.828
-13.249
-0.625
10.382
19.274
25.752
29.245
29.918
28.105
24.111
18.923
13.725
9.154
5.661
3.525
2.694
3.213
5.143
8.32
12.521
17.541
23.178
29.322
35.897
42.77
49.756
56.623
63.151
69.205
74.701
79.602
83.893
87.551
90.582
93.039
94.986
96.5
97.648
98.474
99.033
99.403
99.672
99.949
100.322
100.845
101.561
102.495
103.664
105.085
106.759
108.665
110.789
113.116
115.638
118.354
121.254
124.32
127.53
130.862
134.294
137.81
141.389
145.013
148.661
152.315
155.96
159.581
163.161
166.679
170.112
173.436
176.63
179.669
182.533
185.196
187.637
189.839
191.781
193.45
194.83
195.907
196.669
197.107
197.211
196.976
196.395
195.466
194.187
192.559
190.585
188.268
185.614
182.631
179.327
175.714
171.803
167.607
163.142
158.423
153.468
148.294
142.922
137.371
131.662
125.816
119.856
113.804
107.682
101.512
95.315
89.113
82.927
76.778
70.684
64.665
58.738
52.922
47.232
41.684
36.293
31.071
26.031
21.183
16.538
12.103
7.887
3.896
0.133
-3.396
-6.69
-9.747
-12.568
-15.152
-17.504
-19.625
-21.522
-23.198
-24.66
-25.915
-26.972
-27.839
-28.526
-29.041
-29.395
-29.598
-29.662
-29.597
-29.415
-29.126
-28.741
-28.272
-27.729
-27.123
-26.464
-25.763
-25.028
-24.27
-23.497
-22.717
-21.938
-21.168
-20.413
-19.678
-18.97
-18.293
-17.651
-17.049
-16.488
-15.972
-15.502
-15.079
-14.704
-14.378
-14.1
-13.869
-13.685
-13.546
-13.45
-13.396
-13.381
-13.404
-13.462
-13.553
-13.673
-13.821
-13.994
-14.188
-14.402
-14.633
-14.879
-15.137
-15.406
-15.684
-15.97
-16.263
-16.561
-16.865
-17.172
-17.483
-17.797
-18.115
-18.437
-18.763
-19.094
-19.432
-19.777
-20.131
-20.495
-20.871
-21.258
-21.659
-22.073
-22.501
-22.945
-23.404
-23.879
-24.371
-24.881
-25.409
-25.955
-26.517
-27.095
-27.688
-28.293
-28.908
-29.53
-30.156
-30.782
-31.407
-32.027
-32.638
-33.238
-33.821
-34.383
-34.921
-35.428
-35.899
-36.329
-36.711
-37.04
-37.313
-37.526
-37.676
-37.761
-37.776
-37.72
-37.59
-37.386
-37.106
-36.746
-36.307
-35.789
-35.194
-34.526
-33.789
-32.987
-32.128
-31.219
-30.271
-29.288
-28.279
-27.25
-26.206
-25.155
-24.101
-23.048
-22.002
-20.972
-19.966
-18.997
-18.076
-17.211
-16.409
-15.68
-15.03
-14.464
-13.982
-13.579
-13.255
-13.013
-12.864
-12.824
-12.902
-13.093
-13.389
-13.783
-14.258
-14.789
-15.328
-15.808
-16.172
-16.389
-16.449
-16.357
-16.11
-15.694
-15.089
-14.288
-13.298
-12.136
-10.805
-9.299
-7.648
-5.928
-4.291
-2.946
-2.058
-1.74
-2.063
-3.073
-4.816
-7.339
-10.633
-14.609
-19.161
-24.19
-29.664
-35.596
-41.892
-48.315
-54.482
-59.909
-64.165
-66.93
-67.807
-66.305
-62.16
-55.364
-46.256
-35.653
-24.288
-12.514
-0.823
10.146
20.374
30.269
40.893
54.259
71.787
93.864
120.99
153.556
190.433
229.295
266.071
294.867
311.037
311.342
292.332
250.896
185.77
97.885
-8.482
-126.236
-249.156
-371.564
-487.139
-589.334
-671.793
-730.111
-763.355
-773.072
-761.016
-729.562
-681.555
-620.621
-552.406
-482.003
-412.809
-347.54
-287.996
-235.107
-190.323
-154.758
-127.208
-106.187
-90.16
-76.868
-65.266
-55.097
-45.25
-34.507
-22.79
-10.235
2.339
13.154
21.525
27.517
30.944
31.743
30.07
26.075
20.49
14.659
9.413
5.176
2.231
0.562
0.223
1.354
3.879
7.557
12.158
17.46
23.307
29.651
36.387
43.352
50.347
57.108
63.452
69.278
74.523
79.17
83.199
86.588
89.364
91.596
93.364
94.748
95.811
96.588
97.14
97.544
97.892
98.293
98.82
99.519
100.423
101.554
102.928
104.562
106.448
108.564
110.892
113.418
116.133
119.035
122.111
125.34
128.699
132.166
135.72
139.343
143.014
146.712
150.416
154.109
157.772
161.391
164.946
168.416
171.779
175.011
178.09
180.993
183.699
186.184
188.428
190.414
192.124
193.544
194.66
195.458
195.929
196.065
195.857
195.301
194.393
193.132
191.516
189.55
187.237
184.582
181.593
178.278
174.649
170.718
166.498
162.004
157.253
152.261
147.046
141.63
136.03
130.27
124.369
118.35
112.235
106.047
99.808
93.54
87.265
81.004
74.776
68.603
62.503
56.496
50.597
44.825
39.194
33.719
28.414
23.292
18.363
13.637
9.123
4.828
0.759
-3.079
-6.683
-10.05
-13.178
-16.068
-18.721
-21.139
-23.324
-25.282
-27.017
-28.536
-29.845
-30.953
-31.867
-32.597
-33.152
-33.542
-33.778
-33.87
-33.828
-33.665
-33.391
-33.016
-32.553
-32.012
-31.403
-30.738
-30.026
-29.277
-28.5
-27.705
-26.9
-26.093
-25.291
-24.502
-23.732
-22.986
-22.27
-21.589
-20.946
-20.345
-19.79
-19.282
-18.823
-18.414
-18.056
-17.751
-17.496
-17.293
-17.139
-17.035
-16.978
-16.966
-16.997
-17.069
-17.179
-17.324
-17.502
-17.709
-17.943
-18.2
-18.479
-18.775
-19.086
-19.409
-19.742
-20.081
-20.425
-20.77
-21.114
-21.457
-21.795
-22.127
-22.453
-22.771
-23.081
-23.381
-23.673
-23.954
-24.225
-24.487
-24.739
-24.982
-25.217
-25.445
-25.666
-25.884
-26.098
-26.311
-26.523
-26.735
-26.949
-27.166
-27.387
-27.613
-27.844
-28.081
-28.326
-28.58
-28.844
-29.117
-29.4
-29.692
-29.993
-30.301
-30.616
-30.934
-31.254
-31.573
-31.889
-32.201
-32.505
-32.8
-33.082
-33.347
-33.592
-33.813
-34.005
-34.164
-34.283
-34.36
-34.39
-34.372
-34.303
-34.181
-34.002
-33.765
-33.47
-33.113
-32.696
-32.214
-31.667
-31.056
-30.384
-29.651
-28.864
-28.024
-27.139
-26.216
-25.264
-24.289
-23.296
-22.292
-21.283
-20.273
-19.268
-18.27
-17.285
-16.321
-15.385
-14.49
-13.645
-12.857
-12.135
-11.484
-10.91
-10.417
-10.006
-9.669
-9.405
-9.216
-9.113
-9.114
-9.224
-9.44
-9.753
-10.158
-10.636
-11.164
-11.697
-12.165
-12.514
-12.715
-12.757
-12.645
-12.375
-11.931
-11.289
-10.442
-9.399
-8.176
-6.779
-5.204
-3.481
-1.695
-0.002
1.389
2.308
2.649
2.346
1.346
-0.399
-2.936
-6.271
-10.305
-14.923
-20.039
-25.612
-31.638
-38.021
-44.49
-50.63
-55.963
-60.054
-62.585
-63.198
-61.389
-56.91
-49.792
-40.389
-29.572
-18.122
-6.367
5.198
15.885
25.706
35.08
45.051
57.747
74.627
96.052
122.587
154.582
190.793
228.784
264.327
291.454
305.503
303.209
281.139
236.262
167.458
76.068
-33.202
-153.256
-277.771
-401.044
-516.936
-618.545
-699.29
-755.2
-785.64
-792
-776.133
-740.085
-686.248
-619.177
-545.287
-469.601
-395.7
-326.616
-264.206
-210.219
-166.934
-134.501
-110.84
-94.277
-82.841
-74.071
-66.908
-60.272
-52.21
-42.089
-30.387
-17.452
-4.518
6.702
15.706
22.185
25.554
25.988
23.847
19.455
13.835
8.196
3.188
-0.725
-3.253
-4.441
-4.238
-2.577
0.377
4.402
9.294
14.847
20.949
27.518
34.413
41.445
48.371
54.966
61.088
66.652
71.616
75.965
79.674
82.745
85.231
87.199
88.723
89.874
90.694
91.244
91.601
91.859
92.131
92.507
93.044
93.785
94.757
95.977
97.462
99.213
101.21
103.436
105.878
108.528
111.382
114.433
117.661
121.044
124.558
128.18
131.894
135.679
139.514
143.379
147.255
151.126
154.978
158.792
162.546
166.217
169.781
173.213
176.49
179.589
182.484
185.153
187.577
189.737
191.616
193.199
194.472
195.421
196.036
196.308
196.23
195.797
195.004
193.851
192.337
190.465
188.24
185.667
182.754
179.509
175.945
172.073
167.908
163.465
158.759
153.81
148.636
143.257
137.695
131.97
126.106
120.125
114.049
107.904
101.711
95.492
89.271
83.067
76.904
70.8
64.775
58.848
53.037
47.358
41.828
36.46
31.268
26.265
21.462
16.867
12.489
8.336
4.413
0.724
-2.727
-5.939
-8.91
-11.641
-14.134
-16.393
-18.42
-20.222
-21.804
-23.174
-24.34
-25.31
-26.093
-26.7
-27.141
-27.427
-27.568
-27.576
-27.462
-27.239
-26.917
-26.508
-26.023
-25.472
-24.868
-24.22
-23.538
-22.832
-22.111
-21.383
-20.656
-19.939
-19.236
-18.556
-17.903
-17.282
-16.699
-16.155
-15.656
-15.203
-14.797
-14.441
-14.135
-13.879
-13.674
-13.517
-13.409
-13.347
-13.33
-13.355
-13.42
-13.523
-13.661
-13.83
-14.028
-14.252
-14.498
-14.763
-15.045
-15.34
-15.645
-15.957
-16.275
-16.595
-16.916
-17.234
-17.549
-17.859
-18.162
-18.456
-18.741
-19.016
-19.279
-19.531
-19.771
-20
-20.217
-20.423
-20.62
-20.808
-20.988
-21.162
-21.33
-21.494
-21.655
-21.815
-21.976
-22.139
-22.307
-22.48
-22.662
-22.854
-23.058
-23.275
-23.506
-23.752
-24.014
-24.292
-24.587
-24.9
-25.23
-25.578
-25.945
-26.331
-26.734
-27.153
-27.588
-28.037
-28.496
-28.965
-29.439
-29.915
-30.39
-30.861
-31.326
-31.78
-32.22
-32.643
-33.043
-33.416
-33.758
-34.063
-34.326
-34.542
-34.706
-34.815
-34.866
-34.856
-34.784
-34.646
-34.441
-34.168
-33.825
-33.411
-32.925
-32.366
-31.735
-31.036
-30.271
-29.443
-28.56
-27.626
-26.651
-25.644
-24.609
-23.555
-22.488
-21.414
-20.34
-19.27
-18.208
-17.16
-16.133
-15.137
-14.184
-13.284
-12.444
-11.673
-10.976
-10.362
-9.834
-9.393
-9.033
-8.751
-8.551
-8.445
-8.448
-8.568
-8.8
-9.137
-9.572
-10.086
-10.655
-11.232
-11.747
-12.146
-12.398
-12.494
-12.436
-12.224
-11.841
-11.267
-10.493
-9.528
-8.385
-7.069
-5.577
-3.941
-2.243
-0.642
0.653
1.472
1.701
1.27
0.131
-1.761
-4.444
-7.916
-12.083
-16.842
-22.102
-27.825
-34.011
-40.559
-47.214
-53.569
-59.134
-63.457
-66.203
-66.992
-65.333
-60.979
-53.964
-44.642
-33.855
-22.347
-10.447
1.352
12.388
22.667
32.618
43.297
56.744
74.34
96.4
123.425
155.765
192.215
230.381
266.096
293.466
307.885
306.152
284.896
241.084
173.534
83.456
-24.597
-143.604
-267.323
-390.119
-505.902
-607.853
-689.383
-746.421
-778.231
-786.084
-771.702
-737.069
-684.507
-618.448
-545.279
-470.017
-396.232
-327.06
-264.454
-210.192
-166.607
-133.894
-109.973
-93.19
-81.593
-72.686
-65.392
-58.631
-50.439
-40.198
-28.402
-15.409
-2.466
8.721
17.663
24.055
27.323
27.65
25.395
20.892
15.172
9.438
4.336
0.328
-2.3
-3.591
-3.485
-1.913
0.96
4.915
9.741
15.236
21.287
27.81
34.663
41.654
48.538
55.095
61.185
66.722
71.667
76.005
79.709
82.784
85.285
87.274
88.828
90.014
90.875
91.47
91.878
92.191
92.52
92.958
93.559
94.366
95.407
96.697
98.254
100.078
102.149
104.45
106.968
109.694
112.625
115.754
119.06
122.521
126.113
129.815
133.608
137.473
141.387
145.331
149.287
153.236
157.166
161.057
164.888
168.636
172.276
175.784
179.138
182.313
185.285
188.031
190.532
192.768
194.723
196.381
197.728
198.75
199.437
199.778
199.768
199.399
198.667
197.569
196.107
194.28
192.094
189.552
186.663
183.433
179.875
175.999
171.819
167.35
162.607
157.608
152.371
146.917
141.266
135.439
129.458
123.346
117.126
110.821
104.454
98.047
91.624
85.205
78.812
72.467
66.189
59.998
53.912
47.949
42.127
36.46
30.964
25.653
20.538
15.63
10.94
6.476
2.246
-1.746
-5.493
-8.993
-12.244
-15.244
-17.995
-20.499
-22.757
-24.775
-26.557
-28.11
-29.44
-30.557
-31.467
-32.182
-32.71
-33.063
-33.251
-33.285
-33.177
-32.938
-32.581
-32.118
-31.559
-30.918
-30.206
-29.434
-28.613
-27.753
-26.866
-25.961
-25.047
-24.133
-23.227
-22.336
-21.468
-20.629
-19.824
-19.058
-18.336
-17.66
-17.034
-16.46
-15.939
-15.473
-15.061
-14.704
-14.401
-14.151
-13.953
-13.804
-13.704
-13.648
-13.636
-13.662
-13.725
-13.821
-13.947
-14.099
-14.274
-14.469
-14.68
-14.904
-15.138
-15.38
-15.625
-15.873
-16.12
-16.364
-16.603
-16.836
-17.062
-17.28
-17.489
-17.689
-17.881
-18.064
-18.24
-18.409
-18.571
-18.729
-18.883
-19.035
-19.186
-19.34
-19.498
-19.662
-19.835
-20.019
-20.216
-20.427
-20.655
-20.9
-21.165
-21.449
-21.756
-22.085
-22.437
-22.814
-23.216
-23.643
-24.095
-24.57
-25.067
-25.584
-26.12
-26.67
-27.232
-27.802
-28.377
-28.954
-29.528
-30.097
-30.655
-31.198
-31.72
-32.216
-32.68
-33.106
-33.487
-33.819
-34.096
-34.316
-34.474
-34.569
-34.596
-34.554
-34.439
-34.251
-33.988
-33.648
-33.23
-32.733
-32.161
-31.516
-30.801
-30.021
-29.183
-28.292
-27.358
-26.39
-25.394
-24.376
-23.343
-22.301
-21.257
-20.217
-19.188
-18.175
-17.19
-16.241
-15.341
-14.503
-13.733
-13.037
-12.42
-11.884
-11.433
-11.066
-10.778
-10.568
-10.44
-10.404
-10.476
-10.667
-10.973
-11.385
-11.889
-12.457
-13.051
-13.628
-14.131
-14.522
-14.782
-14.902
-14.892
-14.756
-14.487
-14.074
-13.495
-12.729
-11.765
-10.606
-9.268
-7.821
-6.391
-5.119
-4.176
-3.7
-3.77
-4.447
-5.756
-7.702
-10.257
-13.363
-16.952
-20.982
-25.45
-30.347
-35.602
-40.995
-46.181
-50.779
-54.368
-56.614
-57.141
-55.472
-51.392
-44.969
-36.574
-26.973
-16.852
-6.498
3.669
13.022
21.588
29.787
38.645
50.167
65.684
85.484
109.985
139.461
172.74
207.573
240.093
264.744
277.193
274.483
253.486
211.43
147.358
62.436
-39.144
-150.658
-266.124
-380.261
-487.219
-580.657
-654.733
-705.516
-732.142
-736.515
-720.847
-687.381
-638.902
-579.416
-514.305
-448.641
-386.085
-328.291
-276.027
-230.069
-191.413
-160.504
-136.118
-116.194
-98.532
-82.036
-66.669
-52.396
-38.694
-24.751
-10.487
3.282
15.109
24.061
30.127
33.597
34.759
33.61
30.203
25.112
19.402
14.022
9.519
6.145
3.903
2.872
3.218
4.959
7.963
12.034
16.949
22.548
28.749
35.432
42.435
49.561
56.555
63.206
69.386
75.001
80.018
84.42
88.183
91.314
93.863
95.893
97.486
98.711
99.616
100.26
100.719
101.087
101.474
101.97
102.626
103.484
104.568
105.896
107.486
109.339
111.436
113.76
116.299
119.044
121.993
125.137
128.457
131.931
135.534
139.246
143.048
146.92
150.843
154.794
158.756
162.71
166.643
170.535
174.364
178.106
181.735
185.23
188.564
191.716
194.66
197.372
199.834
202.026
203.93
205.532
206.816
207.768
208.377
208.635
208.532
208.064
207.225
206.013
204.428
202.471
200.148
197.462
194.42
191.032
187.309
183.262
178.905
174.254
169.325
164.136
158.706
153.056
147.206
141.18
134.998
128.686
122.265
115.762
109.197
102.596
95.981
89.374
82.798
76.274
69.822
63.463
57.215
51.096
45.124
39.315
33.684
28.243
23.007
17.985
13.187
8.622
4.298
0.219
-3.609
-7.184
-10.503
-13.567
-16.375
-18.93
-21.236
-23.296
-25.116
-26.703
-28.064
-29.207
-30.141
-30.876
-31.422
-31.79
-31.99
-32.035
-31.936
-31.705
-31.353
-30.893
-30.337
-29.696
-28.982
-28.206
-27.38
-26.514
-25.618
-24.702
-23.776
-22.849
-21.927
-21.021
-20.135
-19.277
-18.454
-17.669
-16.927
-16.233
-15.59
-15
-14.466
-13.988
-13.569
-13.208
-12.905
-12.661
-12.474
-12.343
-12.267
-12.243
-12.27
-12.346
-12.468
-12.633
-12.839
-13.082
-13.36
-13.669
-14.008
-14.373
-14.761
-15.17
-15.597
-16.038
-16.493
-16.957
-17.429
-17.907
-18.389
-18.873
-19.357
-19.842
-20.325
-20.806
-21.285
-21.761
-22.234
-22.705
-23.171
-23.636
-24.097
-24.557
-25.015
-25.473
-25.931
-26.392
-26.855
-27.321
-27.791
-28.266
-28.745
-29.229
-29.718
-30.212
-30.711
-31.216
-31.727
-32.243
-32.766
-33.292
-33.822
-34.354
-34.886
-35.416
-35.942
-36.46
-36.967
-37.46
-37.936
-38.394
-38.829
-39.237
-39.616
-39.961
-40.267
-40.53
-40.746
-40.908
-41.013
-41.058
-41.04
-40.956
-40.806
-40.587
-40.297
-39.936
-39.503
-38.998
-38.42
-37.768
-37.043
-36.248
-35.388
-34.465
-33.485
-32.453
-31.379
-30.272
-29.139
-27.989
-26.829
-25.664
-24.501
-23.349
-22.213
-21.095
-20.004
-18.947
-17.934
-16.976
-16.083
-15.262
-14.519
-13.86
-13.29
-12.812
-12.426
-12.123
-11.906
-11.777
-11.745
-11.828
-12.033
-12.353
-12.784
-13.315
-13.922
-14.572
-15.211
-15.771
-16.21
-16.503
-16.635
-16.617
-16.441
-16.09
-15.567
-14.859
-13.958
-12.87
-11.587
-10.115
-8.523
-6.928
-5.496
-4.433
-3.881
-3.937
-4.682
-6.154
-8.386
-11.38
-15.047
-19.298
-24.064
-29.309
-35.041
-41.206
-47.581
-53.828
-59.518
-64.175
-67.433
-68.878
-67.98
-64.489
-58.425
-50.122
-40.398
-29.98
-19.188
-8.497
1.466
10.75
19.815
29.777
42.699
59.936
81.78
108.644
140.813
177.076
215.059
250.673
278.074
292.707
291.453
271.017
228.456
162.678
74.769
-30.966
-147.489
-268.601
-388.688
-501.527
-600.686
-680.063
-735.514
-766.234
-773.86
-760.237
-727.789
-679.422
-618.772
-551.304
-481.904
-413.81
-349.606
-291.011
-238.904
-194.648
-159.31
-131.756
-110.613
-94.469
-81.155
-69.649
-59.684
-50.156
-39.879
-28.766
-16.923
-5.122
4.954
12.678
18.122
21.106
21.606
19.794
15.869
10.605
5.266
0.622
-2.939
-5.185
-6.13
-5.72
-3.85
-0.616
3.731
8.947
14.822
21.212
28.036
35.165
42.404
49.508
56.255
62.5
68.156
73.185
77.574
81.301
84.372
86.837
88.761
90.223
91.297
92.032
92.485
92.731
92.862
92.986
93.197
93.551
94.093
94.848
95.836
97.073
98.563
100.288
102.233
104.387
106.74
109.293
112.039
114.959
118.035
121.243
124.562
127.978
131.47
135.02
138.609
142.218
145.833
149.439
153.02
156.554
160.019
163.391
166.647
169.765
172.722
175.493
178.057
180.393
182.484
184.313
185.864
187.122
188.073
188.708
189.015
188.988
188.62
187.906
186.843
185.431
183.672
181.569
179.126
176.35
173.248
169.831
166.111
162.099
157.811
153.26
148.465
143.443
138.214
132.796
127.211
121.48
115.625
109.668
103.632
97.539
91.41
85.268
79.133
73.026
66.967
60.976
55.072
49.272
43.593
38.052
32.663
27.44
22.396
17.542
12.889
8.445
4.218
0.216
-3.558
-7.098
-10.402
-13.468
-16.296
-18.887
-21.242
-23.365
-25.259
-26.93
-28.384
-29.627
-30.667
-31.512
-32.173
-32.657
-32.975
-33.137
-33.155
-33.038
-32.799
-32.448
-31.996
-31.455
-30.835
-30.147
-29.402
-28.61
-27.78
-26.922
-26.045
-25.157
-24.267
-23.381
-22.506
-21.65
-20.818
-20.015
-19.245
-18.514
-17.824
-17.179
-16.58
-16.031
-15.532
-15.085
-14.689
-14.344
-14.05
-13.806
-13.611
-13.463
-13.361
-13.301
-13.282
-13.302
-13.357
-13.445
-13.563
-13.709
-13.879
-14.071
-14.282
-14.509
-14.751
-15.005
-15.268
-15.539
-15.815
-16.095
-16.377
-16.659
-16.94
-17.218
-17.493
-17.763
-18.029
-18.289
-18.544
-18.794
-19.039
-19.281
-19.519
-19.754
-19.988
-20.221
-20.455
-20.691
-20.931
-21.176
-21.428
-21.689
-21.96
-22.244
-22.54
-22.85
-23.174
-23.513
-23.868
-24.238
-24.625
-25.028
-25.447
-25.883
-26.336
-26.804
-27.287
-27.782
-28.289
-28.804
-29.326
-29.85
-30.373
-30.892
-31.403
-31.905
-32.392
-32.861
-33.306
-33.725
-34.111
-34.459
-34.764
-35.019
-35.22
-35.363
-35.444
-35.461
-35.411
-35.291
-35.099
-34.833
-34.494
-34.079
-33.588
-33.018
-32.371
-31.648
-30.853
-29.989
-29.062
-28.076
-27.039
-25.96
-24.849
-23.711
-22.554
-21.383
-20.207
-19.032
-17.864
-16.706
-15.566
-14.452
-13.374
-12.344
-11.371
-10.464
-9.629
-8.874
-8.203
-7.62
-7.126
-6.713
-6.382
-6.138
-5.989
-5.952
-6.037
-6.236
-6.547
-6.96
-7.45
-7.988
-8.519
-8.976
-9.315
-9.513
-9.554
-9.448
-9.187
-8.757
-8.16
-7.383
-6.419
-5.272
-3.933
-2.407
-0.759
0.898
2.4
3.546
4.19
4.235
3.597
2.238
0.121
-2.757
-6.311
-10.453
-15.117
-20.265
-25.908
-31.995
-38.311
-44.529
-50.228
-54.93
-58.269
-59.826
-59.063
-55.721
-49.8
-41.613
-31.956
-21.549
-10.719
0.043
10.099
19.486
28.65
38.707
51.732
69.108
91.17
118.396
151.127
188.202
227.296
264.313
293.329
309.719
310.278
291.598
250.621
186.107
98.969
-6.559
-123.41
-245.381
-366.829
-481.483
-582.846
-664.633
-722.456
-755.354
-764.863
-752.724
-721.291
-673.401
-612.641
-544.591
-474.297
-405.136
-339.843
-280.253
-227.311
-182.471
-146.865
-119.313
-98.386
-82.603
-69.675
-58.518
-48.842
-39.5
-29.294
-18.155
-6.196
5.78
16.023
23.878
29.403
32.401
32.855
30.94
26.851
21.371
15.788
10.886
7.066
4.573
3.391
3.585
5.264
8.334
12.544
17.65
23.437
29.76
36.534
43.628
50.846
57.94
64.689
70.945
76.618
81.67
86.088
89.845
92.948
95.444
97.397
98.886
99.984
100.739
101.21
101.473
101.619
101.758
101.985
102.356
102.914
103.687
104.692
105.947
107.455
109.198
111.159
113.329
115.698
118.265
121.023
123.956
127.041
130.257
133.583
137.001
140.495
144.044
147.629
151.232
154.839
158.435
162.005
165.527
168.979
172.338
175.58
178.684
181.627
184.385
186.935
189.259
191.339
193.157
194.699
195.95
196.897
197.528
197.834
197.808
197.444
196.736
195.681
194.281
192.535
190.448
188.023
185.266
182.187
178.794
175.098
171.113
166.852
162.33
157.562
152.568
147.364
141.972
136.412
130.703
124.867
118.928
112.906
106.823
100.701
94.561
88.425
82.311
76.242
70.234
64.308
58.481
52.769
47.188
41.754
36.48
31.379
26.462
21.74
17.222
12.915
8.827
4.963
1.328
-2.075
-5.245
-8.18
-10.881
-13.349
-15.587
-17.599
-19.39
-20.964
-22.328
-23.491
-24.459
-25.241
-25.847
-26.285
-26.567
-26.703
-26.702
-26.577
-26.337
-25.995
-25.56
-25.043
-24.456
-23.809
-23.111
-22.373
-21.603
-20.813
-20.009
-19.2
-18.394
-17.598
-16.819
-16.064
-15.336
-14.643
-13.988
-13.375
-12.807
-12.287
-11.819
-11.402
-11.039
-10.73
-10.476
-10.276
-10.131
-10.038
-9.996
-10.004
-10.061
-10.163
-10.309
-10.495
-10.72
-10.981
-11.274
-11.596
-11.945
-12.318
-12.71
-13.12
-13.544
-13.979
-14.422
-14.871
-15.323
-15.775
-16.226
-16.673
-17.114
-17.548
-17.971
-18.384
-18.784
-19.17
-19.542
-19.898
-20.239
-20.565
-20.875
-21.17
-21.45
-21.717
-21.97
-22.21
-22.438
-22.656
-22.866
-23.068
-23.264
-23.457
-23.649
-23.842
-24.037
-24.237
-24.442
-24.655
-24.876
-25.107
-25.349
-25.604
-25.872
-26.155
-26.454
-26.77
-27.102
-27.45
-27.815
-28.194
-28.587
-28.992
-29.405
-29.825
-30.249
-30.676
-31.101
-31.524
-31.939
-32.344
-32.734
-33.106
-33.454
-33.773
-34.056
-34.3
-34.5
-34.652
-34.752
-34.799
-34.787
-34.716
-34.582
-34.383
-34.119
-33.786
-33.382
-32.907
-32.362
-31.749
-31.071
-30.331
-29.534
-28.686
-27.797
-26.872
-25.919
-24.944
-23.953
-22.95
-21.943
-20.935
-19.93
-18.934
-17.956
-17.003
-16.089
-15.224
-14.414
-13.67
-12.997
-12.4
-11.885
-11.45
-11.09
-10.804
-10.598
-10.479
-10.465
-10.564
-10.774
-11.091
-11.504
-11.992
-12.523
-13.046
-13.495
-13.829
-14.024
-14.063
-13.959
-13.708
-13.3
-12.739
-12.012
-11.107
-10.032
-8.775
-7.343
-5.795
-4.238
-2.828
-1.759
-1.169
-1.157
-1.805
-3.141
-5.199
-7.977
-11.395
-15.377
-19.858
-24.8
-30.215
-36.048
-42.106
-48.079
-53.556
-58.091
-61.338
-62.898
-62.267
-59.172
-53.563
-45.746
-36.481
-26.428
-15.959
-5.475
4.489
13.692
22.37
31.532
43.075
58.528
78.534
103.332
133.079
167.471
204.922
241.984
273.366
293.972
300.092
288.807
257.447
203.625
126.757
29.514
-82.298
-202.141
-324.206
-443.014
-552.93
-647.23
-719.729
-767.523
-790.808
-790.937
-769.764
-729.323
-671.911
-602.395
-527.17
-450.86
-376.754
-307.747
-245.596
-192.141
-149.719
-118.235
-95.557
-80.034
-69.67
-62.154
-56.483
-51.464
-45.058
-36.584
-26.437
-14.965
-3.407
6.647
14.76
20.652
23.764
24.181
22.19
18.106
12.925
7.843
3.49
0.273
-1.564
-2.075
-1.23
1.029
4.524
8.994
14.209
19.952
26.101
32.611
39.37
46.201
52.884
59.203
65.025
70.289
74.973
79.056
82.514
85.352
87.622
89.403
90.781
91.823
92.575
93.089
93.434
93.702
93.996
94.4
94.965
95.728
96.712
97.934
99.413
101.148
103.122
105.314
107.712
110.305
113.092
116.063
119.198
122.475
125.869
129.362
132.937
136.573
140.251
143.951
147.656
151.348
155.014
158.636
162.193
165.662
169.02
172.245
175.315
178.207
180.899
183.368
185.598
187.57
189.269
190.68
191.791
192.588
193.063
193.208
193.015
192.48
191.6
190.372
188.799
186.882
184.627
182.038
179.124
175.892
172.353
168.52
164.405
160.024
155.39
150.522
145.438
140.157
134.697
129.081
123.329
117.461
111.501
105.47
99.389
93.281
87.164
81.061
74.991
68.974
63.028
57.172
51.423
45.796
40.309
34.974
29.806
24.816
20.016
15.415
11.023
6.846
2.891
-0.836
-4.333
-7.595
-10.622
-13.414
-15.97
-18.294
-20.388
-22.256
-23.903
-25.335
-26.56
-27.583
-28.415
-29.062
-29.536
-29.844
-29.999
-30.01
-29.888
-29.644
-29.289
-28.834
-28.29
-27.668
-26.979
-26.233
-25.441
-24.612
-23.756
-22.882
-21.998
-21.112
-20.233
-19.367
-18.52
-17.699
-16.91
-16.155
-15.441
-14.77
-14.146
-13.571
-13.048
-12.576
-12.159
-11.796
-11.488
-11.233
-11.032
-10.884
-10.786
-10.737
-10.735
-10.778
-10.863
-10.988
-11.15
-11.345
-11.572
-11.827
-12.106
-12.408
-12.73
-13.067
-13.418
-13.78
-14.15
-14.525
-14.904
-15.285
-15.664
-16.042
-16.415
-16.783
-17.144
-17.496
-17.839
-18.172
-18.494
-18.804
-19.103
-19.389
-19.663
-19.925
-20.176
-20.416
-20.647
-20.87
-21.085
-21.294
-21.497
-21.697
-21.895
-22.091
-22.289
-22.49
-22.695
-22.908
-23.129
-23.36
-23.602
-23.857
-24.125
-24.407
-24.705
-25.018
-25.347
-25.693
-26.057
-26.439
-26.838
-27.256
-27.689
-28.138
-28.6
-29.074
-29.558
-30.046
-30.538
-31.029
-31.516
-31.997
-32.468
-32.925
-33.363
-33.779
-34.168
-34.523
-34.839
-35.112
-35.334
-35.503
-35.614
-35.664
-35.65
-35.57
-35.421
-35.2
-34.907
-34.54
-34.098
-33.578
-32.98
-32.306
-31.559
-30.742
-29.86
-28.916
-27.92
-26.879
-25.803
-24.697
-23.57
-22.427
-21.275
-20.121
-18.971
-17.829
-16.702
-15.599
-14.53
-13.507
-12.541
-11.64
-10.813
-10.067
-9.407
-8.836
-8.356
-7.96
-7.649
-7.426
-7.299
-7.287
-7.397
-7.625
-7.968
-8.415
-8.945
-9.526
-10.106
-10.622
-11.034
-11.315
-11.451
-11.45
-11.309
-11.014
-10.57
-9.959
-9.172
-8.212
-7.067
-5.744
-4.299
-2.835
-1.505
-0.498
0.049
0.04
-0.609
-1.924
-3.94
-6.661
-10.007
-13.91
-18.304
-23.15
-28.457
-34.174
-40.116
-45.98
-51.361
-55.821
-59.018
-60.558
-59.944
-56.897
-51.356
-43.606
-34.376
-24.325
-13.836
-3.317
6.687
15.923
24.617
33.751
45.188
60.474
80.294
104.927
134.577
168.97
206.55
243.908
275.785
297.06
303.984
293.606
263.213
210.353
134.35
37.782
-73.622
-193.342
-315.581
-434.889
-545.664
-641.155
-715.085
-764.431
-789.274
-790.928
-771.211
-732.11
-675.879
-607.283
-532.692
-456.766
-382.829
-313.784
-251.404
-197.493
-154.359
-122.026
-98.434
-81.971
-70.698
-62.272
-55.668
-49.742
-42.484
-33.21
-22.327
-10.163
2.067
12.709
21.286
27.49
30.722
31.113
28.994
24.686
19.209
13.776
9.025
5.399
3.172
2.283
2.767
4.68
7.837
11.998
16.949
22.484
28.496
34.919
41.623
48.423
55.088
61.394
67.206
72.446
77.079
81.09
84.46
87.199
89.363
91.027
92.271
93.164
93.751
94.087
94.249
94.326
94.427
94.64
95.019
95.605
96.426
97.498
98.838
100.447
102.304
104.391
106.697
109.211
111.931
114.848
117.942
121.193
124.578
128.075
131.668
135.338
139.063
142.824
146.602
150.38
154.144
157.876
161.553
165.152
168.649
172.021
175.244
178.294
181.147
183.782
186.178
188.317
190.181
191.756
193.026
193.978
194.602
194.889
194.83
194.421
193.657
192.536
191.058
189.225
187.041
184.51
181.641
178.44
174.92
171.091
166.968
162.565
157.898
152.984
147.843
142.493
136.956
131.253
125.405
119.435
113.365
107.219
101.019
94.788
88.547
82.317
76.121
69.978
63.907
57.929
52.06
46.318
40.719
35.278
30.009
24.924
20.034
15.35
10.881
6.635
2.617
-1.167
-4.714
-8.021
-11.087
-13.912
-16.497
-18.844
-20.958
-22.843
-24.505
-25.949
-27.184
-28.217
-29.058
-29.716
-30.201
-30.523
-30.694
-30.724
-30.625
-30.407
-30.084
-29.665
-29.162
-28.586
-27.948
-27.259
-26.529
-25.767
-24.983
-24.186
-23.384
-22.585
-21.796
-21.024
-20.275
-19.554
-18.866
-18.215
-17.605
-17.04
-16.521
-16.05
-15.629
-15.26
-14.941
-14.673
-14.455
-14.287
-14.167
-14.093
-14.064
-14.076
-14.129
-14.218
-14.343
-14.499
-14.684
-14.895
-15.128
-15.383
-15.654
-15.941
-16.239
-16.548
-16.865
-17.187
-17.513
-17.841
-18.17
-18.498
-18.823
-19.145
-19.462
-19.774
-20.08
-20.38
-20.674
-20.963
-21.246
-21.526
-21.802
-22.075
-22.346
-22.616
-22.887
-23.16
-23.436
-23.717
-24.004
-24.299
-24.605
-24.921
-25.251
-25.593
-25.949
-26.319
-26.704
-27.104
-27.519
-27.949
-28.393
-28.851
-29.325
-29.812
-30.312
-30.823
-31.343
-31.87
-32.403
-32.937
-33.468
-33.994
-34.511
-35.015
-35.503
-35.971
-36.415
-36.83
-37.211
-37.554
-37.854
-38.104
-38.3
-38.436
-38.509
-38.517
-38.458
-38.328
-38.127
-37.853
-37.506
-37.085
-36.591
-36.022
-35.377
-34.659
-33.871
-33.015
-32.097
-31.122
-30.094
-29.023
-27.92
-26.792
-25.647
-24.494
-23.339
-22.19
-21.056
-19.942
-18.853
-17.796
-16.78
-15.816
-14.916
-14.089
-13.341
-12.68
-12.111
-11.639
-11.267
-10.993
-10.809
-10.716
-10.716
-10.818
-11.039
-11.386
-11.85
-12.429
-13.11
-13.868
-14.674
-15.47
-16.188
-16.788
-17.243
-17.537
-17.677
-17.654
-17.445
-17.052
-16.463
-15.666
-14.668
-13.464
-12.06
-10.529
-8.992
-7.614
-6.6
-6.089
-6.168
-6.926
-8.397
-10.614
-13.591
-17.231
-21.439
-26.155
-31.333
-36.958
-42.969
-49.117
-55.034
-60.304
-64.446
-67.098
-67.89
-66.293
-62.075
-55.284
-46.247
-35.801
-24.695
-13.232
-1.896
8.639
18.416
27.847
37.96
50.818
67.739
88.98
115.016
146.097
180.994
217.36
251.101
276.494
289.131
285.938
263.709
219.639
152.696
64.205
-41.288
-156.994
-276.853
-395.385
-506.723
-604.276
-681.758
-735.386
-764.554
-770.559
-755.157
-720.314
-668.32
-603.543
-532.11
-458.821
-387.108
-319.912
-259.054
-206.236
-163.657
-131.486
-107.778
-90.971
-79.203
-70.127
-62.721
-55.95
-47.95
-38.101
-26.832
-14.448
-2.104
8.567
17.088
23.174
26.283
26.59
24.442
20.147
14.686
9.233
4.423
0.707
-1.636
-2.651
-2.292
-0.493
2.581
6.711
11.692
17.319
23.477
30.086
37.009
44.061
51.007
57.628
63.786
69.398
74.424
78.849
82.648
85.826
88.435
90.539
92.215
93.531
94.529
95.269
95.826
96.29
96.768
97.349
98.087
99.021
100.179
101.576
103.227
105.135
107.279
109.643
112.213
114.981
117.944
121.094
124.411
127.873
131.459
135.145
138.916
142.752
146.632
150.537
154.449
158.351
162.23
166.068
169.843
173.532
177.112
180.558
183.849
186.961
189.87
192.555
194.995
197.173
199.071
200.676
201.971
202.944
203.584
203.883
203.832
203.426
202.661
201.533
200.044
198.195
195.989
193.433
190.531
187.294
183.731
179.854
175.676
171.213
166.479
161.491
156.269
150.831
145.198
139.391
133.431
127.341
121.143
114.86
108.515
102.13
95.726
89.326
82.951
76.621
70.356
64.175
58.098
52.14
46.319
40.651
35.149
29.828
24.698
19.771
15.057
10.564
6.299
2.268
-1.525
-5.076
-8.383
-11.445
-14.263
-16.837
-19.172
-21.269
-23.134
-24.773
-26.191
-27.397
-28.398
-29.203
-29.821
-30.261
-30.535
-30.653
-30.624
-30.462
-30.175
-29.776
-29.276
-28.685
-28.015
-27.275
-26.477
-25.629
-24.743
-23.826
-22.888
-21.937
-20.98
-20.026
-19.08
-18.148
-17.236
-16.35
-15.493
-14.67
-13.884
-13.139
-12.436
-11.778
-11.166
-10.601
-10.086
-9.618
-9.2
-8.829
-8.506
-8.23
-7.999
-7.813
-7.67
-7.569
-7.509
-7.489
-7.506
-7.559
-7.648
-7.769
-7.923
-8.106
-8.319
-8.561
-8.829
-9.125
-9.446
-9.793
-10.165
-10.561
-10.98
-11.421
-11.883
-12.365
-12.866
-13.385
-13.921
-14.472
-15.038
-15.619
-16.211
-16.815
-17.428
-18.046
-18.669
-19.292
-19.913
-20.529
-21.135
-21.729
-22.308
-22.868
-23.407
-23.92
-24.403
-24.851
-25.261
-25.626
-25.942
-26.204
-26.407
-26.547
-26.622
-26.629
-26.566
-26.432
-26.225
-25.943
-25.586
-25.153
-24.645
-24.06
-23.4
-22.667
-21.867
-21.003
-20.082
-19.109
-18.093
-17.042
-15.965
-14.87
-13.764
-12.652
-11.542
-10.439
-9.351
-8.282
-7.241
-6.237
-5.28
-4.381
-3.552
-2.802
-2.136
-1.56
-1.076
-0.686
-0.391
-0.185
-0.067
-0.04
-0.112
-0.298
-0.607
-1.039
-1.582
-2.222
-2.93
-3.666
-4.391
-5.049
-5.602
-6.028
-6.318
-6.479
-6.52
-6.438
-6.22
-5.842
-5.279
-4.518
-3.561
-2.424
-1.168
0.087
1.208
2.03
2.412
2.264
1.529
0.184
-1.77
-4.299
-7.365
-10.919
-14.922
-19.372
-24.266
-29.543
-35.01
-40.356
-45.199
-49.116
-51.754
-52.713
-51.527
-47.98
-42.122
-34.309
-25.241
-15.551
-5.526
4.412
13.652
22.21
30.517
39.618
51.447
67.298
87.459
112.321
142.195
176.022
211.654
245.322
271.497
285.783
285.153
266.435
226.805
165.188
82.552
-17.196
-127.53
-242.475
-356.643
-464.028
-558.382
-634.152
-687.692
-718.103
-726.767
-715.654
-687.113
-644.229
-590.953
-531.833
-470.735
-410.681
-353.955
-301.727
-254.671
-213.335
-177.793
-147.72
-122.685
-101.534
-82.687
-65.574
-50.067
-35.966
-23.065
-10.762
1.402
12.905
22.576
29.814
34.556
37.045
37.645
36.275
32.885
27.995
22.576
17.533
13.437
10.504
8.712
8.153
8.966
11.158
14.593
19.019
24.186
29.924
36.143
42.763
49.651
56.618
63.425
69.872
75.836
81.25
86.091
90.334
93.957
96.973
99.433
101.422
103.028
104.319
105.343
106.154
106.82
107.431
108.091
108.878
109.84
111.013
112.415
114.066
115.982
118.161
120.584
123.229
126.081
129.129
132.368
135.787
139.363
143.074
146.894
150.801
154.778
158.804
162.855
166.912
170.953
174.96
178.918
182.805
186.599
190.275
193.809
197.177
200.355
203.32
206.046
208.514
210.702
212.594
214.172
215.423
216.332
216.888
217.081
216.904
216.351
215.417
214.101
212.402
210.322
207.867
205.043
201.855
198.315
194.433
190.222
185.696
180.872
175.767
170.399
164.788
158.956
152.924
146.716
140.354
133.864
127.268
120.593
113.862
107.099
100.329
93.574
86.858
80.201
73.626
67.153
60.8
54.586
48.528
42.643
36.945
31.447
26.162
21.101
16.272
11.685
7.346
3.261
-0.568
-4.136
-7.443
-10.489
-13.275
-15.805
-18.081
-20.109
-21.895
-23.446
-24.77
-25.877
-26.775
-27.475
-27.988
-28.326
-28.498
-28.519
-28.4
-28.152
-27.789
-27.323
-26.766
-26.13
-25.426
-24.667
-23.863
-23.026
-22.165
-21.29
-20.412
-19.538
-18.677
-17.836
-17.023
-16.243
-15.503
-14.808
-14.161
-13.566
-13.027
-12.546
-12.124
-11.764
-11.465
-11.228
-11.053
-10.939
-10.884
-10.888
-10.948
-11.063
-11.23
-11.447
-11.71
-12.018
-12.368
-12.755
-13.178
-13.633
-14.117
-14.625
-15.157
-15.708
-16.275
-16.856
-17.448
-18.049
-18.658
-19.272
-19.889
-20.509
-21.129
-21.748
-22.366
-22.983
-23.596
-24.207
-24.815
-25.422
-26.027
-26.631
-27.235
-27.838
-28.441
-29.044
-29.649
-30.254
-30.86
-31.468
-32.079
-32.691
-33.308
-33.928
-34.552
-35.178
-35.807
-36.437
-37.068
-37.696
-38.32
-38.938
-39.547
-40.145
-40.73
-41.3
-41.851
-42.381
-42.885
-43.361
-43.803
-44.207
-44.568
-44.881
-45.143
-45.35
-45.501
-45.592
-45.622
-45.588
-45.488
-45.322
-45.089
-44.786
-44.413
-43.968
-43.455
-42.874
-42.23
-41.526
-40.768
-39.962
-39.118
-38.242
-37.342
-36.424
-35.495
-34.56
-33.625
-32.696
-31.776
-30.873
-29.994
-29.15
-28.353
-27.613
-26.938
-26.338
-25.82
-25.387
-25.045
-24.792
-24.622
-24.538
-24.544
-24.65
-24.871
-25.213
-25.673
-26.246
-26.923
-27.679
-28.483
-29.281
-30.011
-30.633
-31.126
-31.476
-31.692
-31.768
-31.69
-31.458
-31.062
-30.498
-29.773
-28.878
-27.824
-26.666
-25.51
-24.517
-23.868
-23.695
-24.085
-25.109
-26.798
-29.185
-32.285
-36.034
-40.339
-45.118
-50.304
-55.87
-61.787
-67.902
-73.903
-79.399
-83.949
-87.164
-88.757
-88.363
-85.527
-80.064
-72.093
-62.083
-50.918
-39.328
-27.596
-16.19
-5.779
3.623
12.424
21.738
33.687
49.681
70.006
95.072
125.11
158.824
193.768
225.812
249.166
259.325
253.225
227.745
180.199
109.849
18.359
-89.539
-206.914
-327.585
-446.039
-556.377
-652.038
-726.989
-777.796
-804.126
-807.463
-789.708
-752.908
-699.463
-633.845
-562.115
-488.917
-417.526
-350.745
-290.311
-237.904
-195.692
-163.783
-140.248
-123.557
-111.891
-102.977
-95.824
-89.382
-81.759
-72.314
-61.446
-49.455
-37.496
-27.168
-18.931
-13.066
-10.126
-9.956
-12.225
-16.62
-22.155
-27.656
-32.495
-36.236
-38.607
-39.661
-39.356
-37.632
-34.664
-30.676
-25.88
-20.478
-14.581
-8.261
-1.653
5.062
11.651
17.897
23.664
28.874
33.49
37.498
40.876
43.632
45.821
47.512
48.783
49.702
50.314
50.674
50.859
50.957
51.075
51.3
51.685
52.271
53.085
54.141
55.456
57.032
58.847
60.884
63.132
65.579
68.225
71.058
74.06
77.211
80.486
83.865
87.33
90.862
94.441
98.047
101.661
105.267
108.851
112.395
115.876
119.273
122.56
125.716
128.717
131.541
134.164
136.564
138.722
140.621
142.244
143.577
144.605
145.318
145.704
145.755
145.466
144.83
143.846
142.51
140.825
138.794
136.421
133.711
130.672
127.314
123.648
119.686
115.442
110.931
106.17
101.175
95.967
90.564
84.987
79.257
73.396
67.426
61.37
55.249
49.087
42.904
36.722
30.562
24.444
18.388
12.412
6.534
0.771
-4.861
-10.346
-15.672
-20.824
-25.792
-30.565
-35.134
-39.491
-43.629
-47.543
-51.228
-54.681
-57.901
-60.885
-63.636
-66.153
-68.441
-70.502
-72.341
-73.964
-75.377
-76.587
-77.602
-78.43
-79.08
-79.562
-79.884
-80.057
-80.091
-79.995
-79.78
-79.457
-79.034
-78.523
-77.932
-77.271
-76.549
-75.775
-74.958
-74.104
-73.223
-72.321
-71.404
-70.48
-69.553
-68.628
-67.711
-66.806
-65.916
-65.043
-64.191
-63.362
-62.556
-61.776
-61.021
-60.293
-59.59
-58.914
-58.262
-57.635
-57.03
-56.447
-55.883
-55.337
-54.808
-54.292
-53.789
-53.296
-52.81
-52.33
-51.853
-51.377
-50.899
-50.416
-49.927
-49.428
-48.917
-48.391
-47.849
-47.288
-46.707
-46.102
-45.474
-44.819
-44.135
-43.422
-42.677
-41.899
-41.086
-40.237
-39.35
-38.425
-37.461
-36.457
-35.412
-34.326
-33.197
-32.024
-30.805
-29.541
-28.23
-26.872
-25.467
-24.013
-22.512
-20.963
-19.368
-17.727
-16.04
-14.307
-12.528
-10.704
-8.835
-6.921
-4.962
-2.958
-0.911
1.179
3.31
5.48
7.689
9.936
12.22
14.54
16.895
19.285
21.709
24.165
26.65
29.162
31.695
34.247
36.814
39.393
41.978
44.566
47.153
49.736
52.312
54.875
57.419
59.938
62.425
64.873
67.274
69.617
71.892
74.093
76.212
78.243
80.181
82.021
83.757
85.388
86.91
88.319
89.606
90.764
91.785
92.665
93.402
93.991
94.433
94.726
94.876
94.893
94.784
94.55
94.184
93.674
93.015
92.218
91.294
90.254
89.119
87.918
86.7
85.54
84.496
83.599
82.864
82.287
81.873
81.641
81.617
81.808
82.208
82.802
83.584
84.56
85.696
86.905
88.022
88.833
89.161
88.898
87.975
86.34
83.946
80.75
76.753
72.06
66.791
61.032
54.824
48.17
41.176
34.123
27.445
21.635
17.141
14.289
13.44
15.099
19.496
26.567
35.92
46.641
57.938
69.498
80.841
91.3
100.915
110.132
120.017
132.696
149.572
170.909
197.17
228.603
263.861
300.433
334.071
358.864
370.249
365.099
340.148
292.535
221.355
128.168
17.79
-102.685
-226.941
-349.32
-463.749
-563.395
-641.88
-695.489
-723.75
-728.132
-710.574
-673.163
-618.34
-550.762
-476.792
-401.344
-327.935
-259.542
-197.981
-145.028
-102.957
-71.837
-49.581
-34.509
-24.626
-17.5
-12.062
-7.161
-0.779
7.749
17.978
29.556
41.246
51.37
59.445
65.154
67.888
67.792
65.205
60.451
54.551
48.702
43.533
39.482
36.823
35.497
35.538
36.998
39.694
43.389
47.872
52.938
58.48
64.428
70.653
76.973
83.162
89.003
94.362
99.166
103.378
106.986
109.971
112.342
114.154
115.479
116.396
116.976
117.261
117.309
117.196
117.009
116.855
116.82
116.959
117.308
117.896
118.738
119.849
121.23
122.862
124.725
126.808
129.099
131.596
134.288
137.156
140.178
143.329
146.589
149.939
153.361
156.831
160.329
163.837
167.336
170.811
174.242
177.608
180.884
184.045
187.068
189.929
192.605
195.07
197.304
199.286
200.998
202.423
203.547
204.355
204.835
204.977
204.773
204.215
203.301
202.025
200.387
198.389
196.033
193.325
190.27
186.876
183.155
179.116
174.774
170.143
165.239
160.078
154.679
149.062
143.247
137.256
131.11
124.831
118.443
111.969
105.431
98.853
92.256
85.662
79.094
72.57
66.112
59.739
53.468
47.318
41.304
35.442
29.746
24.23
18.905
13.781
8.87
4.178
-0.288
-4.521
-8.518
-12.275
-15.79
-19.062
-22.092
-24.881
-27.433
-29.75
-31.838
-33.702
-35.349
-36.786
-38.021
-39.063
-39.92
-40.604
-41.122
-41.487
-41.707
-41.795
-41.76
-41.613
-41.366
-41.028
-40.611
-40.124
-39.577
-38.981
-38.344
-37.675
-36.983
-36.276
-35.561
-34.846
-34.137
-33.439
-32.76
-32.103
-31.472
-30.873
-30.307
-29.779
-29.29
-28.841
-28.435
-28.072
-27.752
-27.476
-27.243
-27.053
-26.904
-26.796
-26.726
-26.695
-26.698
-26.736
-26.805
-26.903
-27.028
-27.178
-27.351
-27.543
-27.754
-27.98
-28.22
-28.472
-28.733
-29.002
-29.278
-29.557
-29.84
-30.123
-30.407
-30.69
-30.97
-31.249
-31.524
-31.796
-32.066
-32.333
-32.597
-32.859
-33.118
-33.377
-33.635
-33.893
-34.152
-34.414
-34.68
-34.95
-35.227
-35.512
-35.805
-36.108
-36.421
-36.743
-37.077
-37.422
-37.779
-38.148
-38.528
-38.921
-39.327
-39.745
-40.175
-40.615
-41.065
-41.522
-41.985
-42.452
-42.918
-43.381
-43.839
-44.287
-44.724
-45.147
-45.55
-45.931
-46.284
-46.607
-46.893
-47.138
-47.336
-47.484
-47.577
-47.613
-47.591
-47.509
-47.363
-47.153
-46.878
-46.537
-46.13
-45.657
-45.114
-44.505
-43.831
-43.095
-42.302
-41.455
-40.561
-39.626
-38.661
-37.673
-36.669
-35.656
-34.64
-33.628
-32.629
-31.646
-30.684
-29.75
-28.851
-27.998
-27.201
-26.47
-25.81
-25.227
-24.726
-24.312
-23.987
-23.75
-23.592
-23.514
-23.519
-23.615
-23.821
-24.143
-24.572
-25.107
-25.735
-26.433
-27.17
-27.893
-28.532
-29.048
-29.417
-29.623
-29.674
-29.562
-29.264
-28.784
-28.109
-27.228
-26.149
-24.866
-23.387
-21.787
-20.19
-18.762
-17.71
-17.176
-17.246
-18.013
-19.512
-21.776
-24.821
-28.548
-32.863
-37.712
-43.048
-48.865
-55.1
-61.504
-67.702
-73.271
-77.723
-80.694
-81.803
-80.51
-76.585
-70.091
-61.377
-51.321
-40.695
-29.794
-19.104
-9.299
-0.299
8.365
17.803
30.192
46.917
68.239
94.635
126.343
162.036
199.231
233.662
259.393
271.85
267.884
244.217
198.005
128.307
36.62
-72.284
-191.35
-314.276
-435.411
-548.711
-647.413
-725.193
-778.345
-806.382
-810.765
-793.417
-756.418
-702.194
-635.304
-561.992
-487.091
-414.051
-345.794
-284.113
-230.734
-187.874
-155.636
-132.015
-115.41
-103.911
-95.145
-88.077
-81.616
-73.827
-64.074
-52.789
-40.292
-27.778
-16.9
-8.142
-1.806
1.531
2.031
0.037
-4.133
-9.474
-14.796
-19.459
-23.016
-25.185
-26.019
-25.477
-23.498
-20.255
-15.977
-10.871
-5.144
1.094
7.768
14.744
21.836
28.809
35.444
41.601
47.2
52.202
56.592
60.348
63.475
66.028
68.075
69.694
70.954
71.898
72.583
73.086
73.496
73.924
74.456
75.147
76.038
77.156
78.516
80.136
82.017
84.137
86.481
89.035
91.789
94.743
97.886
101.201
104.665
108.256
111.952
115.738
119.594
123.5
127.436
131.385
135.33
139.259
143.152
146.99
150.749
154.406
157.937
161.321
164.535
167.554
170.357
172.925
175.239
177.284
179.044
180.504
181.653
182.479
182.973
183.128
182.939
182.399
181.508
180.265
178.671
176.73
174.446
171.826
168.877
165.609
162.034
158.163
154.01
149.59
144.92
140.016
134.899
129.586
124.098
118.456
112.681
106.795
100.821
94.779
88.691
82.579
76.464
70.365
64.304
58.299
52.37
46.533
40.807
35.208
29.752
24.452
19.322
14.375
9.621
5.07
0.732
-3.386
-7.278
-10.938
-14.363
-17.548
-20.493
-23.198
-25.662
-27.887
-29.877
-31.635
-33.166
-34.476
-35.572
-36.461
-37.15
-37.65
-37.969
-38.117
-38.103
-37.94
-37.637
-37.206
-36.657
-36.003
-35.254
-34.421
-33.515
-32.548
-31.53
-30.471
-29.382
-28.271
-27.148
-26.023
-24.902
-23.795
-22.709
-21.649
-20.624
-19.638
-18.696
-17.803
-16.964
-16.181
-15.457
-14.795
-14.196
-13.662
-13.194
-12.791
-12.453
-12.18
-11.972
-11.826
-11.741
-11.715
-11.746
-11.831
-11.969
-12.156
-12.388
-12.664
-12.98
-13.333
-13.72
-14.138
-14.584
-15.053
-15.545
-16.054
-16.58
-17.117
-17.664
-18.218
-18.777
-19.338
-19.898
-20.457
-21.013
-21.564
-22.109
-22.647
-23.178
-23.7
-24.213
-24.717
-25.211
-25.696
-26.172
-26.639
-27.097
-27.549
-27.993
-28.432
-28.866
-29.294
-29.717
-30.136
-30.55
-30.959
-31.364
-31.766
-32.163
-32.556
-32.946
-33.331
-33.712
-34.086
-34.453
-34.811
-35.157
-35.489
-35.805
-36.1
-36.373
-36.62
-36.839
-37.026
-37.178
-37.291
-37.36
-37.381
-37.349
-37.258
-37.105
-36.884
-36.592
-36.227
-35.787
-35.271
-34.675
-34
-33.245
-32.409
-31.491
-30.493
-29.412
-28.252
-27.015
-25.706
-24.329
-22.89
-21.395
-19.854
-18.275
-16.668
-15.041
-13.401
-11.757
-10.114
-8.481
-6.865
-5.272
-3.712
-2.193
-0.727
0.673
1.997
3.234
4.379
5.427
6.375
7.221
7.964
8.61
9.16
9.611
9.953
10.17
10.253
10.204
10.031
9.751
9.39
8.99
8.593
8.255
8.016
7.899
7.913
8.051
8.31
8.696
9.222
9.912
10.792
11.875
13.158
14.628
16.211
17.784
19.203
20.294
20.919
20.991
20.449
19.268
17.453
15.03
12.058
8.598
4.682
0.32
-4.473
-9.629
-14.923
-19.999
-24.467
-27.88
-29.877
-30.081
-28.012
-23.471
-16.564
-7.685
2.366
12.882
23.589
34.048
43.602
52.321
60.69
69.809
81.783
97.976
118.628
144.177
174.921
209.617
245.909
279.743
305.294
318.048
314.941
292.757
248.732
182.006
93.9
-11.111
-125.996
-244.523
-361.065
-469.53
-563.655
-637.7
-687.976
-713.967
-717.498
-700.635
-665.914
-616.336
-555.641
-489.092
-421.317
-355.42
-293.73
-237.79
-188.418
-146.775
-113.775
-88.338
-69.105
-54.707
-43.129
-33.379
-25.177
-17.472
-9.062
0.198
10.218
20.308
28.878
35.33
39.763
41.983
41.914
39.703
35.523
30.096
24.654
19.928
16.267
13.899
12.802
13.02
14.65
17.584
21.565
26.355
31.748
37.609
43.873
50.423
57.076
63.611
69.812
75.545
80.732
85.336
89.344
92.739
95.523
97.749
99.484
100.806
101.785
102.469
102.912
103.184
103.371
103.574
103.881
104.344
105.003
105.883
107
108.37
109.996
111.858
113.942
116.234
118.726
121.414
124.292
127.341
130.541
133.871
137.308
140.838
144.441
148.097
151.788
155.494
159.2
162.89
166.547
170.149
173.672
177.093
180.388
183.533
186.505
189.279
191.833
194.146
196.2
197.978
199.463
200.639
201.494
202.015
202.194
202.021
201.491
200.598
199.339
197.714
195.725
193.375
190.669
187.613
184.216
180.488
176.441
172.09
167.448
162.532
157.361
151.954
146.33
140.512
134.522
128.383
122.118
115.751
109.308
102.811
96.285
89.753
83.238
76.763
70.349
64.02
57.793
51.69
45.729
39.927
34.301
28.866
23.636
18.623
13.838
9.292
4.993
0.947
-2.839
-6.363
-9.622
-12.613
-15.339
-17.8
-19.999
-21.941
-23.632
-25.078
-26.288
-27.269
-28.032
-28.587
-28.946
-29.12
-29.121
-28.962
-28.656
-28.217
-27.657
-26.99
-26.23
-25.389
-24.481
-23.518
-22.512
-21.476
-20.421
-19.357
-18.295
-17.245
-16.214
-15.212
-14.247
-13.324
-12.45
-11.631
-10.871
-10.173
-9.541
-8.977
-8.483
-8.06
-7.708
-7.428
-7.22
-7.081
-7.011
-7.008
-7.07
-7.195
-7.38
-7.622
-7.917
-8.264
-8.658
-9.097
-9.578
-10.097
-10.652
-11.241
-11.861
-12.51
-13.185
-13.884
-14.606
-15.349
-16.111
-16.892
-17.691
-18.506
-19.339
-20.189
-21.055
-21.938
-22.838
-23.754
-24.685
-25.633
-26.596
-27.574
-28.567
-29.574
-30.597
-31.634
-32.685
-33.748
-34.823
-35.908
-37.001
-38.099
-39.199
-40.298
-41.392
-42.478
-43.552
-44.612
-45.652
-46.669
-47.658
-48.615
-49.534
-50.41
-51.237
-52.008
-52.719
-53.364
-53.939
-54.442
-54.869
-55.217
-55.483
-55.666
-55.762
-55.771
-55.692
-55.522
-55.26
-54.91
-54.473
-53.953
-53.354
-52.681
-51.942
-51.146
-50.3
-49.412
-48.489
-47.539
-46.567
-45.582
-44.588
-43.59
-42.596
-41.615
-40.656
-39.731
-38.852
-38.026
-37.263
-36.569
-35.95
-35.41
-34.95
-34.563
-34.252
-34.018
-33.871
-33.828
-33.895
-34.07
-34.349
-34.722
-35.166
-35.652
-36.129
-36.535
-36.831
-36.989
-36.996
-36.86
-36.578
-36.138
-35.542
-34.777
-33.834
-32.716
-31.416
-29.941
-28.349
-26.738
-25.259
-24.099
-23.389
-23.225
-23.686
-24.798
-26.591
-29.068
-32.154
-35.777
-39.872
-44.395
-49.351
-54.687
-60.22
-65.655
-70.6
-74.628
-77.411
-78.574
-77.643
-74.365
-68.692
-60.898
-51.685
-41.682
-31.248
-20.773
-10.776
-1.468
7.362
16.624
28.064
43.071
62.203
85.657
113.533
145.479
180.001
213.886
242.216
260.292
264.723
252.895
222.462
171.295
98.906
7.705
-97.031
-209.102
-323.037
-433.802
-536.196
-624.146
-692.153
-737.214
-759.134
-759.727
-741.139
-705.523
-655.462
-595.034
-529.491
-463.553
-400.696
-342.512
-289.774
-243.365
-204.309
-173.024
-148.387
-128.395
-110.876
-94.798
-80.099
-66.675
-53.964
-41.052
-27.753
-14.855
-3.78
4.566
10.179
13.37
14.411
13.235
9.852
4.82
-0.795
-6.015
-10.293
-13.4
-15.34
-16.039
-15.331
-13.198
-9.787
-5.32
-0.03
5.918
12.447
19.45
26.772
34.217
41.534
48.512
55.025
60.991
66.373
71.155
75.313
78.855
81.833
84.319
86.393
88.124
89.559
90.753
91.781
92.735
93.721
94.825
96.096
97.574
99.279
101.23
103.44
105.909
108.616
111.541
114.67
117.992
121.502
125.19
129.035
133.014
137.101
141.275
145.516
149.804
154.117
158.433
162.733
166.999
171.215
175.362
179.417
183.357
187.155
190.789
194.236
197.47
200.469
203.21
205.674
207.842
209.699
211.229
212.419
213.257
213.733
213.838
213.567
212.916
211.88
210.46
208.656
206.474
203.918
200.994
197.712
194.082
190.116
185.828
181.233
176.348
171.191
165.78
160.137
154.282
148.238
142.028
135.674
129.201
122.633
115.994
109.307
102.597
95.886
89.196
82.55
75.968
69.471
63.078
56.808
50.678
44.705
38.904
33.29
27.874
22.669
17.685
12.931
8.414
4.14
0.116
-3.657
-7.174
-10.437
-13.443
-16.196
-18.698
-20.952
-22.963
-24.738
-26.283
-27.605
-28.713
-29.617
-30.325
-30.848
-31.196
-31.381
-31.414
-31.305
-31.067
-30.711
-30.248
-29.691
-29.049
-28.335
-27.559
-26.731
-25.861
-24.959
-24.034
-23.094
-22.148
-21.203
-20.266
-19.343
-18.441
-17.564
-16.716
-15.903
-15.126
-14.389
-13.695
-13.044
-12.438
-11.878
-11.365
-10.897
-10.475
-10.098
-9.765
-9.474
-9.224
-9.013
-8.839
-8.7
-8.594
-8.52
-8.474
-8.455
-8.46
-8.488
-8.537
-8.604
-8.688
-8.787
-8.9
-9.025
-9.161
-9.308
-9.465
-9.632
-9.809
-9.996
-10.193
-10.4
-10.618
-10.848
-11.09
-11.345
-11.616
-11.902
-12.205
-12.527
-12.87
-13.233
-13.619
-14.027
-14.458
-14.912
-15.39
-15.892
-16.418
-16.967
-17.54
-18.136
-18.755
-19.396
-20.056
-20.734
-21.427
-22.133
-22.848
-23.567
-24.286
-25.002
-25.711
-26.408
-27.088
-27.747
-28.38
-28.981
-29.544
-30.063
-30.532
-30.945
-31.295
-31.579
-31.792
-31.932
-31.995
-31.979
-31.881
-31.701
-31.436
-31.087
-30.651
-30.128
-29.519
-28.825
-28.051
-27.201
-26.279
-25.291
-24.246
-23.154
-22.025
-20.865
-19.685
-18.49
-17.29
-16.093
-14.905
-13.733
-12.583
-11.467
-10.394
-9.378
-8.43
-7.557
-6.767
-6.068
-5.464
-4.961
-4.557
-4.246
-4.029
-3.909
-3.897
-4.009
-4.253
-4.623
-5.115
-5.719
-6.411
-7.16
-7.913
-8.599
-9.179
-9.627
-9.924
-10.079
-10.082
-9.912
-9.571
-9.046
-8.325
-7.417
-6.312
-5.016
-3.599
-2.176
-0.911
-0.008
0.397
0.215
-0.641
-2.205
-4.509
-7.568
-11.284
-15.561
-20.34
-25.571
-31.249
-37.315
-43.531
-49.536
-54.915
-59.191
-62.004
-62.98
-61.593
-57.614
-51.093
-42.361
-32.265
-21.559
-10.546
0.294
10.308
19.563
28.508
38.218
50.793
67.584
88.843
115.014
146.341
181.557
218.281
252.396
278.103
290.925
287.805
265.564
221.462
154.597
66.265
-39.053
-154.365
-273.493
-390.85
-500.409
-595.929
-671.58
-723.555
-751.24
-756.363
-740.887
-707.262
-658.388
-597.921
-531.16
-462.814
-396.062
-333.336
-276.266
-225.723
-182.947
-148.924
-122.575
-102.537
-87.424
-75.161
-64.73
-55.846
-47.444
-38.322
-28.349
-17.613
-6.814
2.421
9.478
14.449
17.136
17.481
15.638
11.78
6.639
1.459
-3.017
-6.425
-8.529
-9.35
-8.841
-6.9
-3.633
0.705
5.873
11.661
17.93
24.611
31.581
38.653
45.599
52.202
58.322
63.88
68.836
73.178
76.884
79.96
82.455
84.436
85.982
87.164
88.032
88.64
89.061
89.384
89.714
90.139
90.713
91.479
92.461
93.678
95.145
96.866
98.823
101
103.385
105.971
108.756
111.732
114.882
118.186
121.621
125.168
128.81
132.53
136.306
140.12
143.954
147.793
151.621
155.422
159.173
162.852
166.434
169.897
173.217
176.37
179.332
182.08
184.596
186.858
188.852
190.56
191.967
193.06
193.827
194.258
194.345
194.082
193.462
192.484
191.146
189.45
187.398
184.994
182.246
179.16
175.747
172.018
167.985
163.663
159.067
154.214
149.122
143.811
138.3
132.61
126.764
120.783
114.69
108.507
102.259
95.965
89.65
83.334
77.038
70.784
64.591
58.479
52.465
46.568
40.804
35.188
29.735
24.458
19.369
14.479
9.797
5.332
1.091
-2.921
-6.699
-10.24
-13.543
-16.605
-19.429
-22.016
-24.369
-26.492
-28.39
-30.068
-31.535
-32.797
-33.863
-34.743
-35.445
-35.979
-36.357
-36.589
-36.685
-36.657
-36.516
-36.272
-35.938
-35.524
-35.04
-34.498
-33.906
-33.276
-32.615
-31.934
-31.241
-30.542
-29.846
-29.16
-28.489
-27.84
-27.216
-26.623
-26.065
-25.544
-25.063
-24.625
-24.23
-23.88
-23.575
-23.315
-23.099
-22.928
-22.799
-22.711
-22.662
-22.651
-22.675
-22.733
-22.82
-22.935
-23.075
-23.238
-23.419
-23.618
-23.83
-24.054
-24.287
-24.526
-24.77
-25.016
-25.263
-25.507
-25.748
-25.984
-26.214
-26.436
-26.65
-26.854
-27.05
-27.236
-27.412
-27.581
-27.741
-27.893
-28.039
-28.179
-28.314
-28.445
-28.574
-28.703
-28.832
-28.964
-29.1
-29.243
-29.395
-29.556
-29.727
-29.91
-30.106
-30.315
-30.539
-30.779
-31.034
-31.305
-31.594
-31.901
-32.226
-32.568
-32.926
-33.298
-33.684
-34.081
-34.486
-34.896
-35.308
-35.719
-36.127
-36.529
-36.921
-37.298
-37.657
-37.993
-38.301
-38.576
-38.812
-39.005
-39.148
-39.24
-39.277
-39.258
-39.178
-39.035
-38.828
-38.555
-38.216
-37.808
-37.329
-36.779
-36.159
-35.471
-34.719
-33.905
-33.035
-32.115
-31.153
-30.159
-29.139
-28.098
-27.045
-25.984
-24.922
-23.867
-22.82
-21.787
-20.776
-19.798
-18.863
-17.982
-17.163
-16.413
-15.738
-15.145
-14.638
-14.219
-13.88
-13.618
-13.436
-13.344
-13.36
-13.495
-13.744
-14.099
-14.554
-15.091
-15.686
-16.294
-16.841
-17.269
-17.546
-17.658
-17.611
-17.406
-17.028
-16.455
-15.676
-14.691
-13.514
-12.147
-10.582
-8.853
-7.043
-5.313
-3.884
-2.935
-2.585
-2.91
-3.953
-5.756
-8.347
-11.704
-15.742
-20.357
-25.484
-31.12
-37.236
-43.693
-50.218
-56.365
-61.638
-65.639
-67.939
-68.05
-65.666
-60.692
-53.363
-44.34
-34.298
-23.664
-12.871
-2.454
7.385
16.94
27.239
40.081
56.929
78.394
104.695
136.009
171.989
210.998
249.546
282.328
304.311
311.856
302.089
272.357
220.253
145.119
49.559
-60.645
-179.008
-299.784
-417.577
-526.876
-621.013
-693.825
-742.377
-766.813
-768.517
-749.368
-711.392
-656.853
-590.458
-518.4
-445.189
-374.039
-307.7
-247.822
-196.091
-154.665
-123.514
-100.648
-84.525
-73.295
-64.74
-57.907
-51.723
-44.302
-35.02
-24.28
-12.399
-0.527
9.771
18.051
24.029
27.146
27.546
25.561
21.508
16.364
11.285
6.888
3.595
1.674
1.069
1.811
3.95
7.309
11.66
16.796
22.516
28.712
35.316
42.199
49.183
56.041
62.56
68.608
74.108
79.027
83.35
87.06
90.164
92.717
94.79
96.461
97.797
98.841
99.649
100.293
100.863
101.46
102.172
103.048
104.128
105.437
106.992
108.806
110.881
113.195
115.732
118.478
121.422
124.562
127.886
131.377
135.011
138.766
142.62
146.556
150.553
154.59
158.647
162.705
166.746
170.756
174.715
178.6
182.388
186.056
189.578
192.933
196.096
199.044
201.754
204.206
206.384
208.27
209.849
211.108
212.033
212.614
212.844
212.715
212.222
211.362
210.134
208.538
206.578
204.257
201.583
198.563
195.206
191.524
187.53
183.238
178.664
173.824
168.736
163.421
157.898
152.188
146.314
140.297
134.161
127.928
121.623
115.267
108.883
102.493
96.119
89.782
83.503
77.3
71.193
65.199
59.335
53.618
48.062
42.681
37.487
32.492
27.705
23.135
18.79
14.676
10.797
7.158
3.76
0.606
-2.306
-4.976
-7.407
-9.602
-11.566
-13.305
-14.824
-16.131
-17.234
-18.141
-18.862
-19.406
-19.784
-20.005
-20.081
-20.022
-19.84
-19.545
-19.148
-18.661
-18.094
-17.458
-16.763
-16.019
-15.236
-14.424
-13.59
-12.744
-11.894
-11.046
-10.209
-9.388
-8.589
-7.817
-7.078
-6.376
-5.713
-5.094
-4.52
-3.995
-3.519
-3.094
-2.72
-2.399
-2.129
-1.91
-1.743
-1.624
-1.554
-1.531
-1.552
-1.616
-1.72
-1.863
-2.042
-2.254
-2.498
-2.769
-3.067
-3.387
-3.728
-4.087
-4.461
-4.848
-5.246
-5.652
-6.065
-6.482
-6.902
-7.322
-7.742
-8.159
-8.572
-8.979
-9.38
-9.774
-10.16
-10.537
-10.905
-11.265
-11.616
-11.958
-12.292
-12.618
-12.935
-13.246
-13.551
-13.85
-14.145
-14.437
-14.728
-15.019
-15.312
-15.607
-15.906
-16.211
-16.52
-16.837
-17.16
-17.492
-17.832
-18.181
-18.54
-18.909
-19.289
-19.679
-20.079
-20.488
-20.903
-21.325
-21.749
-22.173
-22.595
-23.012
-23.421
-23.82
-24.205
-24.573
-24.92
-25.242
-25.535
-25.793
-26.011
-26.183
-26.306
-26.373
-26.383
-26.332
-26.218
-26.037
-25.787
-25.467
-25.075
-24.61
-24.07
-23.454
-22.761
-21.995
-21.157
-20.251
-19.281
-18.254
-17.175
-16.056
-14.903
-13.725
-12.528
-11.32
-10.107
-8.896
-7.694
-6.505
-5.335
-4.196
-3.096
-2.049
-1.065
-0.153
0.677
1.418
2.065
2.613
3.061
3.415
3.675
3.834
3.887
3.814
3.609
3.274
2.812
2.234
1.561
0.825
0.076
-0.621
-1.226
-1.714
-2.067
-2.297
-2.396
-2.354
-2.174
-1.84
-1.341
-0.68
0.154
1.158
2.273
3.402
4.392
5.056
5.26
4.909
3.92
2.267
-0.083
-3.132
-6.8
-11.017
-15.718
-20.862
-26.458
-32.455
-38.668
-44.798
-50.446
-55.18
-58.661
-60.501
-60.21
-57.515
-52.355
-45.011
-36.201
-26.568
-16.484
-6.347
3.307
12.236
20.656
29.523
40.657
55.555
74.863
98.841
127.673
161.081
197.545
233.732
264.496
284.854
291.161
280.542
250.362
198.223
123.451
28.563
-80.841
-198.401
-318.46
-435.688
-544.606
-638.599
-711.514
-760.382
-785.277
-787.487
-768.788
-731.141
-676.768
-610.342
-538.091
-464.579
-393.042
-326.293
-266.043
-214.024
-172.454
-141.335
-118.651
-102.822
-91.965
-83.822
-77.413
-71.645
-64.586
-55.587
-45.052
-33.306
-21.532
-11.323
-3.132
2.748
5.747
5.998
3.83
-0.443
-5.826
-11.149
-15.791
-19.325
-21.484
-22.325
-21.814
-19.898
-16.757
-12.622
-7.703
-2.2
3.78
10.17
16.84
23.611
30.255
36.556
42.382
47.657
52.346
56.435
59.907
62.769
65.077
66.903
68.326
69.414
70.211
70.771
71.171
71.499
71.86
72.341
72.995
73.862
74.968
76.33
77.964
79.872
82.032
84.43
87.051
89.887
92.934
96.183
99.616
103.211
106.945
110.797
114.749
118.782
122.875
127.007
131.16
135.315
139.457
143.568
147.623
151.6
155.472
159.216
162.808
166.224
169.437
172.425
175.169
177.647
179.843
181.74
183.323
184.579
185.495
186.063
186.274
186.122
185.603
184.714
183.455
181.829
179.839
177.489
174.788
171.743
168.366
164.669
160.667
156.373
151.805
146.98
141.918
136.64
131.167
125.52
119.723
113.798
107.769
101.661
95.496
89.298
83.089
76.891
70.727
64.619
58.585
52.646
46.82
41.125
35.578
30.195
24.989
19.974
15.162
10.562
6.185
2.038
-1.872
-5.541
-8.964
-12.139
-15.065
-17.741
-20.17
-22.354
-24.296
-26.002
-27.478
-28.73
-29.767
-30.596
-31.227
-31.67
-31.936
-32.035
-31.978
-31.776
-31.443
-30.988
-30.424
-29.763
-29.017
-28.196
-27.312
-26.376
-25.399
-24.39
-23.359
-22.315
-21.268
-20.224
-19.191
-18.177
-17.186
-16.226
-15.3
-14.414
-13.57
-12.772
-12.023
-11.323
-10.676
-10.08
-9.537
-9.046
-8.608
-8.22
-7.882
-7.592
-7.349
-7.15
-6.992
-6.874
-6.793
-6.745
-6.729
-6.74
-6.776
-6.835
-6.912
-7.007
-7.115
-7.235
-7.363
-7.499
-7.638
-7.78
-7.923
-8.065
-8.205
-8.34
-8.472
-8.598
-8.718
-8.832
-8.939
-9.04
-9.134
-9.221
-9.301
-9.375
-9.444
-9.507
-9.566
-9.621
-9.674
-9.725
-9.777
-9.831
-9.887
-9.948
-10.014
-10.087
-10.168
-10.259
-10.361
-10.475
-10.604
-10.748
-10.909
-11.089
-11.287
-11.505
-11.743
-12
-12.278
-12.576
-12.893
-13.229
-13.584
-13.957
-14.348
-14.755
-15.177
-15.613
-16.059
-16.514
-16.973
-17.435
-17.895
-18.348
-18.791
-19.221
-19.634
-20.026
-20.392
-20.728
-21.029
-21.291
-21.508
-21.675
-21.785
-21.836
-21.821
-21.739
-21.586
-21.361
-21.061
-20.684
-20.229
-19.697
-19.085
-18.394
-17.624
-16.774
-15.849
-14.851
-13.785
-12.657
-11.473
-10.241
-8.972
-7.675
-6.358
-5.029
-3.696
-2.367
-1.049
0.25
1.527
2.773
3.978
5.133
6.225
7.242
8.176
9.019
9.761
10.399
10.927
11.344
11.657
11.866
11.965
11.949
11.8
11.512
11.089
10.536
9.862
9.092
8.256
7.404
6.604
5.898
5.314
4.871
4.56
4.385
4.363
4.49
4.782
5.249
5.884
6.696
7.684
8.792
9.923
10.932
11.625
11.867
11.562
10.63
9.044
6.779
3.831
0.278
-3.799
-8.332
-13.272
-18.617
-24.326
-30.208
-35.972
-41.24
-45.556
-48.573
-49.893
-49.006
-45.687
-39.937
-32.034
-22.716
-12.616
-2.025
8.566
18.548
27.913
36.975
46.805
59.375
75.777
96.248
121.134
150.579
183.844
219.204
252.843
279.281
294.578
295.873
280.414
245.886
190.421
114.067
20.532
-84.001
-194.139
-304.765
-410.721
-506.672
-586.207
-644.682
-680.846
-695.538
-690.357
-667.529
-629.327
-578.849
-521.198
-460.855
-401.121
-344.752
-292.972
-246.353
-205.817
-171.786
-143.662
-120.763
-101.752
-84.757
-69.236
-55.141
-42.184
-30.127
-18.441
-6.706
4.488
13.887
20.908
25.495
27.873
28.42
27.043
23.671
18.815
13.424
8.376
4.233
1.209
-0.722
-1.464
-0.875
1.054
4.198
8.312
13.155
18.56
24.434
30.699
37.231
43.846
50.316
56.449
62.124
67.277
71.886
75.922
79.364
82.219
84.533
86.385
87.857
89.015
89.907
90.583
91.112
91.579
92.089
92.717
93.514
94.512
95.731
97.191
98.91
100.889
103.108
105.551
108.203
111.056
114.108
117.348
120.755
124.309
127.984
131.76
135.619
139.542
143.507
147.493
151.48
155.451
159.391
163.278
167.09
170.804
174.394
177.836
181.105
184.179
187.031
189.638
191.981
194.04
195.798
197.239
198.346
199.107
199.51
199.546
199.207
198.486
197.38
195.887
194.005
191.739
189.092
186.07
182.68
178.93
174.834
170.403
165.651
160.595
155.251
149.637
143.774
137.682
131.383
124.9
118.257
111.476
104.582
97.6
90.554
83.468
76.365
69.269
62.202
55.187
48.245
41.396
34.661
28.057
21.604
15.317
9.212
3.303
-2.397
-7.876
-13.124
-18.133
-22.894
-27.401
-31.649
-35.635
-39.357
-42.813
-46.005
-48.933
-51.601
-54.013
-56.174
-58.091
-59.771
-61.223
-62.455
-63.477
-64.299
-64.933
-65.39
-65.682
-65.821
-65.821
-65.693
-65.451
-65.107
-64.676
-64.168
-63.598
-62.977
-62.318
-61.632
-60.932
-60.227
-59.529
-58.848
-58.193
-57.572
-56.995
-56.468
-55.999
-55.593
-55.255
-54.991
-54.804
-54.698
-54.674
-54.734
-54.879
-55.11
-55.425
-55.824
-56.304
-56.863
-57.498
-58.205
-58.978
-59.814
-60.707
-61.65
-62.637
-63.662
-64.716
-65.792
-66.882
-67.978
-69.071
-70.154
-71.217
-72.251
-73.248
-74.201
-75.099
-75.936
-76.703
-77.392
-77.997
-78.51
-78.926
-79.237
-79.439
-79.526
-79.495
-79.34
-79.059
-78.649
-78.108
-77.435
-76.629
-75.689
