-157.691
-155.477
-151.664
-146.267
-139.526
-132.099
-124.562
-117.109
-110.151
-104.281
-99.456
-95.26
-90.605
-83.439
-72.371
-57.015
-36.888
-11.716
17.4
48.276
77.114
98.583
108.457
103.833
81.824
39.895
-22.722
-104.675
-201.96
-308.283
-417.728
-525.138
-624.93
-710.984
-778.193
-823.401
-845.757
-847.045
-829.834
-796.484
-750.149
-695.256
-636.172
-576.878
-520.834
-469.399
-422.849
-381.789
-346.345
-316.021
-290.519
-268.715
-248.652
-229.708
-212.05
-195.584
-180.501
-166.723
-153.508
-141.06
-130.562
-122.482
-116.842
-113.498
-111.829
-111.546
-112.884
-115.512
-118.54
-121.279
-123.132
-123.763
-123.26
-121.597
-118.58
-114.185
-108.507
-101.693
-93.995
-85.603
-76.589
-67.077
-57.199
-47.121
-37.082
-27.275
-17.815
-8.782
-0.208
7.897
15.512
22.645
29.347
35.682
41.728
47.555
53.21
58.754
64.255
69.797
75.485
81.399
87.589
94.096
100.941
108.14
115.71
123.651
131.943
140.571
149.52
158.779
168.346
178.209
188.349
198.744
209.37
220.204
231.227
242.419
253.757
265.221
276.788
288.441
300.163
311.936
323.733
335.533
347.308
359.034
370.685
382.238
393.666
404.946
416.057
426.979
437.693
448.185
458.437
468.436
478.169
487.628
496.804
505.689
514.279
522.57
530.562
538.257
545.656
552.766
559.592
566.142
572.427
578.457
584.246
589.808
595.159
600.316
605.298
610.123
614.813
619.389
623.872
628.285
632.65
636.991
641.33
645.689
650.09
654.555
659.103
663.757
668.534
673.454
678.534
683.791
689.242
694.9
700.78
706.893
713.25
719.862
726.735
733.878
741.297
748.994
756.973
765.235
773.781
782.609
791.716
801.099
810.751
820.668
830.841
841.262
851.921
862.809
873.915
885.227
896.734
908.422
920.28
932.293
944.449
956.735
969.136
981.64
994.234
1006.903
1019.635
1032.419
1045.241
1058.089
1070.953
1083.82
1096.682
1109.529
1122.35
1135.138
1147.885
1160.585
1173.229
1185.813
1198.332
1210.78
1223.155
1235.452
1247.668
1259.802
1271.85
1283.813
1295.688
1307.475
1319.173
1330.782
1342.303
1353.734
1365.077
1376.331
1387.497
1398.575
1409.565
1420.468
1431.282
1442.009
1452.648
1463.199
1473.662
1484.037
1494.322
1504.516
1514.619
1524.628
1534.541
1544.357
1554.073
1563.687
1573.196
1582.6
1591.895
1601.078
1610.147
1619.099
1627.932
1636.643
1645.228
1653.684
1662.01
1670.203
1678.262
1686.186
1693.972
1701.622
1709.134
1716.509
1723.747
1730.848
1737.812
1744.639
1751.332
1757.891
1764.317
1770.614
1776.784
1782.831
1788.758
1794.57
1800.271
1805.863
1811.349
1816.733
1822.018
1827.207
1832.304
1837.312
1842.233
1847.072
1851.833
1856.518
1861.13
1865.669
1870.136
1874.53
1878.85
1883.091
1887.251
1891.323
1895.304
1899.193
1902.984
1906.676
1910.267
1913.752
1917.134
1920.408
1923.568
1926.607
1929.515
1932.284
1934.905
1937.371
1939.674
1941.805
1943.761
1945.537
1947.138
1948.561
1949.799
1950.839
1951.662
1952.257
1952.626
1952.772
1952.698
1952.416
1951.945
1951.323
1950.61
1949.848
1949.06
1948.251
1947.406
1946.522
1945.607
1944.672
1943.721
1942.734
1941.685
1940.562
1939.359
1938.047
1936.554
1934.743
1932.429
1929.47
1925.771
1921.279
1915.966
1909.797
1902.748
1894.828
1886.114
1876.734
1866.802
1856.39
1845.535
1834.304
1822.879
1811.595
1800.849
1791.02
1782.428
1775.321
1770.011
1766.868
1765.992
1767.214
1770.033
1773.619
1777.359
1780.944
1783.918
1785.858
1786.831
1787.287
1788.332
1791.569
1797.919
1807.64
1820.976
1837.646
1856.232
1874.157
1887.586
1892.375
1885.292
1863.843
1825.654
1768.972
1694.022
1603.542
1502.264
1395.381
1287.903
1184.69
1091.162
1013.273
954.929
917.093
898.814
898.231
912.932
940.262
976.281
1015.394
1053.38
1088.006
1118.082
1143.414
1164.121
1180.164
1192.484
1203.244
1213.769
1224.479
1235.337
1245.517
1254.293
1261.324
1265.942
1267.271
1264.893
1258.682
1248.818
1235.917
1220.528
1203.131
1184.311
1164.554
1144.289
1123.948
1103.845
1084.243
1065.389
1047.423
1030.443
1014.53
999.697
985.924
973.153
961.235
950.007
939.308
928.947
918.781
908.65
898.36
887.763
876.733
865.174
853.053
840.353
827.054
813.17
798.74
783.812
768.468
752.789
736.836
720.685
704.412
688.098
671.839
655.709
639.756
624.021
608.53
593.299
578.344
563.671
549.265
535.119
521.218
507.553
494.118
480.902
467.884
455.044
442.358
429.802
417.359
405.008
392.727
380.494
368.287
356.087
343.874
331.628
319.323
306.932
294.429
281.786
268.977
255.978
242.761
229.303
215.58
201.574
187.265
172.638
157.677
142.368
126.702
110.669
94.262
77.478
60.315
42.772
24.853
6.563
-12.09
-31.095
-50.442
-70.115
-90.1
-110.376
-130.925
-151.724
-172.75
-193.979
-215.383
-236.936
-258.607
-280.369
-302.19
-324.04
-345.888
-367.703
-389.455
-411.113
-432.648
-454.032
-475.237
-496.236
-517.003
-537.514
-557.746
-577.678
-597.289
-616.56
-635.475
-654.019
-672.177
-689.939
-707.294
-724.233
-740.75
-756.841
-772.501
-787.729
-802.525
-816.891
-830.83
-844.346
-857.445
-870.134
-882.422
-894.317
-905.831
-916.974
-927.758
-938.195
-948.298
-958.081
-967.556
-976.737
-985.638
-994.271
-1002.651
-1010.791
-1018.702
-1026.399
-1033.892
-1041.195
-1048.317
-1055.271
-1062.066
-1068.712
-1075.218
-1081.594
-1087.847
-1093.985
-1100.015
-1105.942
-1111.774
-1117.515
-1123.17
-1128.743
-1134.239
-1139.661
-1145.012
-1150.295
-1155.513
-1160.668
-1165.761
-1170.795
-1175.771
-1180.691
-1185.556
-1190.367
-1195.127
-1199.837
-1204.499
-1209.113
-1213.682
-1218.205
-1222.684
-1227.119
-1231.511
-1235.861
-1240.168
-1244.434
-1248.659
-1252.842
-1256.983
-1261.084
-1265.142
-1269.156
-1273.126
-1277.048
-1280.921
-1284.742
-1288.507
-1292.214
-1295.859
-1299.438
-1302.948
-1306.385
-1309.745
-1313.023
-1316.213
-1319.308
-1322.304
-1325.193
-1327.969
-1330.625
-1333.155
-1335.554
-1337.818
-1339.942
-1341.922
-1343.752
-1345.431
-1346.953
-1348.317
-1349.518
-1350.555
-1351.425
-1352.129
-1352.668
-1353.045
-1353.263
-1353.327
-1353.241
-1353.015
-1352.654
-1352.166
-1351.555
-1350.829
-1349.992
-1349.05
-1348.011
-1346.881
-1345.667
-1344.38
-1343.032
-1341.634
-1340.202
-1338.744
-1337.271
-1335.79
-1334.306
-1332.826
-1331.353
-1329.885
-1328.426
-1326.984
-1325.572
-1324.207
-1322.901
-1321.655
-1320.461
-1319.309
-1318.176
-1317.026
-1315.822
-1314.518
-1313.081
-1311.496
-1309.762
-1307.889
-1305.888
-1303.757
-1301.486
-1299.062
-1296.473
-1293.714
-1290.8
-1287.746
-1284.618
-1281.531
-1278.615
-1276.022
-1273.881
-1272.262
-1271.209
-1270.738
-1270.837
-1271.478
-1272.626
-1274.205
-1276.152
-1278.428
-1280.978
-1283.76
-1286.618
-1289.252
-1291.329
-1292.451
-1292.246
-1290.449
-1286.75
-1280.803
-1272.565
-1262.238
-1250.257
-1237.408
-1224.27
-1211.118
-1198.425
-1186.599
-1175.548
-1164.81
-1153.287
-1139.449
-1122.469
-1102.167
-1078.333
-1051.259
-1022.334
-994.083
-970.312
-955.092
-951.57
-962.151
-989.112
-1034.155
-1097.034
-1175.026
-1263.477
-1357.265
-1451.443
-1541.227
-1621.265
-1685.635
-1730.473
-1754.815
-1759.519
-1746.337
-1717.581
-1675.788
-1624.826
-1570.26
-1516.27
-1465.068
-1417.888
-1374.989
-1336.334
-1302.063
-1271.3
-1241.907
-1212.585
-1182.937
-1153.006
-1123.618
-1095.487
-1068.937
-1044.633
-1023.471
-1005.893
-992.045
-981.763
-974.438
-969.528
-966.558
-964.94
-964.18
-963.842
-963.482
-962.787
-961.5
-959.381
-956.294
-952.145
-946.853
-940.404
-932.814
-924.14
-914.527
-904.137
-893.132
-881.709
-870.02
-858.232
-846.553
-835.14
-824.123
-813.605
-803.622
-794.194
-785.346
-777.071
-769.334
-762.094
-755.273
-748.8
-742.619
-736.658
-730.843
-725.095
-719.317
-713.435
-707.401
-701.175
-694.733
-688.061
-681.143
-673.976
-666.577
-658.955
-651.125
-643.097
-634.877
-626.475
-617.913
-609.21
-600.391
-591.478
-582.49
-573.444
-564.363
-555.266
-546.173
-537.101
-528.065
-519.082
-510.176
-501.368
-492.682
-484.141
-475.765
-467.579
-459.603
-451.86
-444.366
-437.14
-430.196
-423.547
-417.206
-411.184
-405.49
-400.13
-395.11
-390.433
-386.102
-382.117
-378.475
-375.173
-372.203
-369.56
-367.233
-365.213
-363.487
-362.041
-360.86
-359.928
-359.228
-358.742
-358.451
-358.334
-358.371
-358.54
-358.82
-359.188
-359.623
-360.102
-360.604
-361.108
-361.594
-362.041
-362.431
-362.744
-362.965
-363.075
-363.06
-362.904
-362.594
-362.117
-361.461
-360.618
-359.577
-358.331
-356.875
-355.202
-353.31
-351.195
-348.857
-346.295
-343.509
-340.502
-337.276
-333.835
-330.185
-326.331
-322.279
-318.037
-313.612
-309.013
-304.248
-299.327
-294.258
-289.053
-283.719
-278.268
-272.709
-267.053
-261.309
-255.488
-249.6
-243.654
-237.66
-231.626
-225.563
-219.478
-213.378
-207.272
-201.165
-195.066
-188.979
-182.91
-176.865
-170.848
-164.864
-158.916
-153.008
-147.142
-141.323
-135.551
-129.829
-124.16
-118.545
-112.985
-107.483
-102.04
-96.656
-91.333
-86.072
-80.873
-75.736
-70.661
-65.649
-60.699
-55.811
-50.984
-46.22
-41.517
-36.876
-32.297
-27.78
-23.323
-18.929
-14.595
-10.321
-6.108
-1.955
2.138
6.172
10.147
14.064
17.923
21.725
25.472
29.166
32.81
36.405
39.955
43.462
46.93
50.361
53.759
57.126
60.465
63.78
67.073
70.349
73.612
76.865
80.112
83.358
86.609
89.867
93.138
96.424
99.73
103.06
106.416
109.804
113.227
116.689
120.194
123.745
127.347
131.001
134.71
138.473
142.29
146.16
150.083
154.057
158.08
162.149
166.262
170.416
174.61
178.84
183.1
187.384
191.686
195.999
200.315
204.626
208.919
213.186
217.418
221.609
225.751
229.837
233.859
237.811
241.691
245.491
249.204
252.822
256.334
259.733
263.014
266.172
269.201
272.102
274.87
277.509
280.027
282.427
284.705
286.858
288.869
290.734
292.462
294.057
295.532
296.91
298.22
299.513
300.851
302.276
303.81
305.467
307.238
309.126
311.145
313.292
315.577
318.007
320.573
323.277
326.114
329.02
331.89
334.574
336.882
338.677
339.869
340.378
340.178
339.245
337.579
335.263
332.381
328.995
325.15
320.847
316.131
311.203
306.359
301.979
298.507
296.282
295.691
297.234
301.107
307.274
315.414
324.754
334.657
344.852
354.886
364.194
372.818
381.11
390.172
401.982
417.571
437.094
460.764
488.567
519.665
552.285
582.64
605.427
616.936
614.542
595.829
558.874
502.119
425.888
333.983
232.436
126.505
21.158
-78.742
-168.234
-241.327
-293.819
-324.706
-334.869
-326.005
-300.399
-260.282
-208.627
-150.226
-89.223
-28.718
28.609
81.566
129.567
171.669
207.367
237.03
261.127
280.84
297.987
313.188
326.592
338.587
349.519
360.037
370.654
380.849
389.419
395.799
399.934
402.031
402.462
401.148
398.054
393.761
389.214
385.226
382.293
380.56
379.968
380.599
382.561
385.812
390.184
395.409
401.251
407.561
414.234
421.159
428.17
435.034
441.547
447.57
453.014
457.845
462.055
465.619
468.544
470.877
472.675
474.015
474.968
475.584
475.924
476.056
476.062
476.045
476.089
476.25
476.57
477.074
477.778
478.699
479.84
481.184
482.719
484.431
486.314
488.364
490.574
492.929
495.408
497.989
500.653
503.383
506.161
508.968
511.786
514.596
517.385
520.138
522.839
525.468
528.004
530.424
532.708
534.833
536.78
538.524
540.047
541.329
542.356
543.111
543.582
543.755
543.619
543.165
542.386
541.276
539.832
538.049
535.928
533.471
530.681
527.563
524.125
520.374
516.321
511.978
507.357
502.473
497.341
491.979
486.403
480.633
474.689
468.59
462.358
456.013
449.578
443.074
436.524
429.948
423.367
416.801
410.271
403.795
397.391
391.078
384.871
378.786
372.837
367.038
361.402
355.938
350.657
345.567
340.675
335.988
331.51
327.243
323.191
319.355
315.733
312.325
309.128
306.139
303.354
300.766
298.371
296.159
294.125
292.26
290.555
289
287.586
286.303
285.141
284.09
283.14
282.28
281.5
280.791
280.142
279.545
278.99
278.469
277.973
277.495
277.027
276.563
276.096
275.622
275.135
274.63
274.105
273.556
272.98
272.376
271.741
271.075
270.377
269.647
268.886
268.093
267.27
266.419
265.541
264.637
263.709
262.76
261.792
260.807
259.806
258.793
257.769
256.736
255.697
254.654
253.608
252.56
251.513
250.466
249.422
248.38
247.341
246.305
245.271
244.24
243.211
242.183
241.155
240.125
239.093
238.056
237.013
235.96
234.896
233.818
232.724
231.612
230.478
229.321
228.138
226.926
225.682
224.405
223.091
221.738
220.343
218.905
217.422
215.891
214.313
212.687
211.01
209.284
207.508
205.681
203.805
201.879
199.904
197.88
195.811
193.699
191.544
189.352
187.124
184.866
182.581
180.275
177.951
175.612
173.265
170.913
168.562
166.218
163.886
161.571
159.281
157.022
154.8
152.62
150.488
148.407
146.382
144.416
142.514
140.677
138.909
137.212
135.588
134.041
132.571
131.179
129.862
128.62
127.45
126.348
125.308
124.324
123.387
122.493
121.635
120.809
120.009
119.229
118.464
117.713
116.971
116.229
115.48
114.713
113.918
113.09
112.222
111.305
110.334
109.303
108.213
107.068
105.869
104.609
103.28
101.865
100.357
98.765
97.094
95.35
93.55
91.72
89.901
88.163
86.551
85.089
83.79
82.649
81.673
80.885
80.296
79.903
79.698
79.659
79.774
80.044
80.42
80.804
81.052
80.972
80.411
79.286
77.529
75.088
71.923
67.988
63.306
58.001
52.18
45.934
39.326
32.374
25.218
18.16
11.576
5.904
1.545
-1.231
-2.08
-0.535
3.597
10.251
19.047
29.116
39.737
50.625
61.299
71.129
80.097
88.539
97.448
108.769
123.76
142.639
165.76
193.317
224.104
255.881
284.835
305.604
314.064
307.432
282.842
237.811
171.625
85.631
-15.95
-126.585
-240.524
-352.56
-457.02
-548.01
-620.034
-669.511
-695.825
-700.516
-685.338
-652.535
-604.832
-545.725
-480.323
-413.201
-347.48
-285.572
-229.128
-179.083
-136.727
-103.074
-77.097
-57.415
-42.628
-30.737
-20.758
-12.408
-4.633
3.819
13.105
23.107
33.108
41.488
47.623
51.622
53.292
52.514
49.416
44.143
37.395
30.469
24.153
18.824
14.751
11.924
10.39
10.285
11.522
13.853
17.059
20.928
25.324
30.22
35.524
41.084
46.713
52.162
57.256
61.911
66.064
69.701
72.803
75.353
77.381
78.963
80.178
81.101
81.791
82.28
82.622
82.891
83.17
83.557
84.118
84.889
85.9
87.166
88.697
90.501
92.566
94.862
97.365
100.057
102.923
105.955
109.135
112.436
115.835
119.305
122.822
126.365
129.913
133.44
136.927
140.351
143.696
146.945
150.078
153.075
155.913
158.572
161.029
163.266
165.263
166.999
168.46
169.63
170.497
171.05
171.28
171.18
170.743
169.967
168.85
167.392
165.592
163.455
160.985
158.189
155.074
151.65
147.927
143.916
139.632
135.088
130.301
125.286
120.06
114.641
109.049
103.302
97.42
91.424
85.333
79.167
72.948
66.695
60.427
54.165
47.926
41.728
35.588
29.522
23.546
17.674
11.92
6.296
0.816
-4.51
-9.671
-14.657
-19.462
-24.076
-28.493
-32.707
-36.715
-40.511
-44.094
-47.46
-50.61
-53.543
-56.259
-58.761
-61.05
-63.129
-65.003
-66.676
-68.152
-69.438
-70.539
-71.462
-72.213
-72.799
-73.229
-73.508
-73.644
-73.647
-73.522
-73.28
-72.927
-72.473
-71.926
-71.293
-70.584
-69.806
-68.968
-68.078
-67.143
-66.171
-65.171
-64.149
-63.112
-62.067
-61.021
-59.979
-58.949
-57.934
-56.941
-55.975
-55.039
-54.139
-53.278
-52.46
-51.689
-50.968
-50.3
-49.687
-49.132
-48.637
-48.203
-47.832
-47.524
-47.28
-47.101
-46.986
-46.936
-46.948
-47.023
-47.159
-47.355
-47.607
-47.915
-48.274
-48.684
-49.139
-49.638
-50.176
-50.751
-51.358
-51.994
-52.656
-53.338
-54.037
-54.75
-55.471
-56.196
-56.922
-57.644
-58.359
-59.063
-59.752
-60.423
-61.073
-61.701
-62.302
-62.876
-63.419
-63.931
-64.41
-64.855
-65.267
-65.644
-65.989
-66.301
-66.584
-66.837
-67.065
-67.269
-67.451
-67.614
-67.762
-67.897
-68.023
-68.143
-68.26
-68.38
-68.505
-68.64
-68.789
-68.953
-69.138
-69.344
-69.574
-69.83
-70.112
-70.422
-70.759
-71.124
-71.518
-71.94
-72.39
-72.866
-73.364
-73.885
-74.423
-74.975
-75.537
-76.101
-76.665
-77.222
-77.768
-78.299
-78.81
-79.296
-79.75
-80.169
-80.548
-80.883
-81.166
-81.394
-81.562
-81.668
-81.712
-81.691
-81.608
-81.462
-81.259
-81.003
-80.697
-80.345
-79.948
-79.511
-79.037
-78.528
-77.988
-77.417
-76.82
-76.206
-75.585
-74.965
-74.356
-73.765
-73.199
-72.668
-72.181
-71.743
-71.352
-71.01
-70.721
-70.5
-70.365
-70.329
-70.392
-70.548
-70.793
-71.119
-71.509
-71.929
-72.326
-72.638
-72.826
-72.878
-72.798
-72.582
-72.222
-71.692
-70.977
-70.102
-69.095
-67.976
-66.759
-65.459
-64.138
-62.931
-62.02
-61.586
-61.764
-62.623
-64.213
-66.593
-69.806
-73.868
-78.723
-84.225
-90.242
-96.707
-103.59
-110.812
-118.16
-125.272
-131.695
-136.995
-140.839
-142.84
-142.522
-139.621
-134.118
-126.308
-116.928
-106.667
-95.851
-84.95
-74.575
-64.739
-55.112
-44.64
-31.38
-14.242
6.947
32.459
62.399
95.926
131.239
164.456
190.063
204.269
204.411
187.89
152.549
96.591
20.064
-73.151
-176.737
-285.556
-394.674
-499.176
-594.057
-672.64
-729.914
-764.762
-778.078
-771.083
-745.872
-704.237
-648.62
-584.844
-518.233
-452.202
-389.851
-332.939
-282.217
-239.473
-206.153
-180.877
-162.081
-148.165
-136.628
-126.538
-117.756
-109.114
-99.463
-88.759
-77.101
-65.318
-55.155
-47.215
-41.441
-38.02
-36.948
-38.12
-41.402
-46.098
-51.047
-55.482
-58.989
-61.332
-62.503
-62.443
-61.051
-58.389
-54.666
-50.119
-44.946
-39.287
-33.23
-26.869
-20.362
-13.918
-7.717
-1.904
3.423
8.233
12.508
16.224
19.385
22.024
24.188
25.956
27.4
28.569
29.522
30.323
31.046
31.793
32.646
33.657
34.865
36.292
37.952
39.858
42.013
44.4
47.005
49.811
52.807
55.986
59.339
62.847
66.487
70.234
74.066
77.964
81.91
85.884
89.866
93.838
97.784
101.69
105.539
109.312
112.987
116.542
119.956
123.209
126.28
129.148
131.794
134.202
136.356
138.244
139.854
141.173
142.193
142.907
143.308
143.392
143.157
142.602
141.727
140.535
139.031
137.22
135.109
132.708
130.026
127.073
123.863
120.408
116.724
112.824
108.724
104.442
99.996
95.402
90.681
85.849
80.927
75.933
70.887
65.806
60.709
55.613
50.535
45.491
40.496
35.565
30.713
25.951
21.293
16.75
12.332
8.048
3.908
-0.083
-3.916
-7.587
-11.09
-14.422
-17.58
-20.562
-23.365
-25.989
-28.435
-30.702
-32.793
-34.708
-36.452
-38.026
-39.435
-40.684
-41.776
-42.716
-43.511
-44.165
-44.684
-45.073
-45.34
-45.488
-45.526
-45.457
-45.289
-45.027
-44.676
-44.242
-43.73
-43.145
-42.493
-41.777
-41.004
-40.176
-39.3
-38.378
-37.416
-36.418
-35.389
-34.332
-33.252
-32.152
-31.037
-29.91
-28.775
-27.637
-26.497
-25.361
-24.23
-23.109
-22.001
-20.909
-19.837
-18.786
-17.761
-16.764
-15.799
-14.867
-13.973
-13.118
-12.306
-11.539
-10.819
-10.149
-9.532
-8.968
-8.46
-8.009
-7.616
-7.28
-7.004
-6.787
-6.628
-6.526
-6.482
-6.494
-6.56
-6.68
-6.85
-7.07
-7.336
-7.646
-7.998
-8.388
-8.815
-9.274
-9.764
-10.282
-10.823
-11.386
-11.966
-12.562
-13.168
-13.784
-14.404
-15.026
-15.649
-16.268
-16.882
-17.489
-18.087
-18.676
-19.253
-19.819
-20.373
-20.914
-21.442
-21.958
-22.462
-22.955
-23.438
-23.912
-24.379
-24.84
-25.297
-25.751
-26.202
-26.652
-27.101
-27.55
-28
-28.452
-28.905
-29.361
-29.82
-30.283
-30.749
-31.218
-31.689
-32.161
-32.633
-33.101
-33.564
-34.02
-34.464
-34.894
-35.307
-35.701
-36.072
-36.415
-36.727
-37.004
-37.24
-37.43
-37.569
-37.652
-37.675
-37.634
-37.527
-37.352
-37.108
-36.792
-36.404
-35.944
-35.411
-34.805
-34.127
-33.376
-32.555
-31.668
-30.717
-29.71
-28.65
-27.546
-26.404
-25.234
-24.045
-22.844
-21.639
-20.435
-19.24
-18.061
-16.904
-15.775
-14.681
-13.631
-12.635
-11.704
-10.848
-10.075
-9.388
-8.79
-8.285
-7.872
-7.55
-7.312
-7.157
-7.087
-7.108
-7.235
-7.474
-7.822
-8.269
-8.799
-9.384
-9.987
-10.567
-11.071
-11.463
-11.722
-11.84
-11.824
-11.677
-11.39
-10.952
-10.34
-9.532
-8.516
-7.298
-5.893
-4.369
-2.848
-1.462
-0.378
0.275
0.418
-0.008
-1.027
-2.64
-4.829
-7.544
-10.729
-14.354
-18.411
-22.883
-27.707
-32.673
-37.446
-41.661
-44.902
-46.83
-47.098
-45.254
-41.103
-34.732
-26.494
-17.133
-7.321
2.667
12.395
21.222
29.185
36.717
44.832
55.514
70.078
88.812
112.205
140.611
172.922
206.946
238.846
263.117
275.451
272.88
252.281
210.886
147.727
63.982
-36.133
-145.932
-259.41
-371.242
-475.657
-566.405
-637.765
-685.969
-710.249
-712.551
-695.172
-660.413
-611.074
-551.175
-486.029
-420.632
-358.63
-301.62
-250.334
-205.562
-168.236
-138.75
-115.874
-97.467
-81.269
-66.211
-52.233
-39.27
-26.804
-13.947
-0.579
12.453
23.711
32.25
38.031
41.363
42.506
41.36
37.932
32.74
26.789
21.081
16.192
12.368
9.651
8.121
7.938
9.151
11.638
15.194
19.613
24.73
30.457
36.725
43.401
50.326
57.294
64.062
70.47
76.421
81.85
86.734
91.047
94.765
97.914
100.562
102.78
104.64
106.195
107.475
108.534
109.445
110.291
111.166
112.132
113.223
114.465
115.875
117.466
119.247
121.206
123.317
125.56
127.919
130.384
132.95
135.603
138.323
141.088
143.88
146.679
149.473
152.244
154.976
157.653
160.263
162.793
165.234
167.574
169.797
171.888
173.831
175.61
177.212
178.621
179.822
180.803
181.553
182.062
182.322
182.328
182.071
181.549
180.758
179.696
178.363
176.76
174.887
172.747
170.346
167.688
164.779
161.627
158.24
154.627
150.797
146.763
142.535
138.127
133.55
128.819
123.949
118.955
113.853
108.658
103.386
98.054
92.68
87.278
81.866
76.458
71.069
65.716
60.411
55.169
50.002
44.924
39.946
35.08
30.336
25.725
21.256
16.938
12.777
8.782
4.959
1.313
-2.151
-5.43
-8.521
-11.421
-14.129
-16.645
-18.971
-21.107
-23.057
-24.823
-26.41
-27.823
-29.067
-30.148
-31.073
-31.849
-32.483
-32.984
-33.359
-33.616
-33.764
-33.812
-33.769
-33.642
-33.442
-33.175
-32.851
-32.478
-32.064
-31.616
-31.142
-30.649
-30.144
-29.632
-29.12
-28.612
-28.114
-27.628
-27.16
-26.711
-26.283
-25.879
-25.5
-25.146
-24.817
-24.514
-24.236
-23.981
-23.748
-23.537
-23.344
-23.167
-23.004
-22.853
-22.71
-22.573
-22.44
-22.307
-22.172
-22.033
-21.886
-21.73
-21.562
-21.38
-21.181
-20.966
-20.731
-20.477
-20.202
-19.907
-19.59
-19.253
-18.896
-18.52
-18.126
-17.715
-17.288
-16.847
-16.393
-15.929
-15.457
-14.978
-14.496
-14.011
-13.527
-13.046
-12.57
-12.101
-11.641
-11.191
-10.754
-10.33
-9.923
-9.533
-9.161
-8.809
-8.479
-8.17
-7.884
-7.622
-7.382
-7.165
-6.971
-6.799
-6.65
-6.523
-6.417
-6.332
-6.268
-6.225
-6.202
-6.198
-6.212
-6.244
-6.292
-6.356
-6.435
-6.529
-6.637
-6.759
-6.895
-7.046
-7.21
-7.387
-7.576
-7.777
-7.989
-8.211
-8.442
-8.679
-8.923
-9.174
-9.43
-9.691
-9.956
-10.224
-10.495
-10.765
-11.032
-11.295
-11.55
-11.795
-12.027
-12.244
-12.446
-12.631
-12.796
-12.941
-13.062
-13.16
-13.231
-13.273
-13.283
-13.26
-13.202
-13.111
-12.986
-12.828
-12.639
-12.422
-12.183
-11.923
-11.645
-11.352
-11.046
-10.726
-10.395
-10.052
-9.698
-9.334
-8.966
-8.597
-8.235
-7.886
-7.555
-7.248
-6.968
-6.716
-6.496
-6.303
-6.133
-5.986
-5.867
-5.783
-5.75
-5.775
-5.854
-5.987
-6.164
-6.367
-6.57
-6.727
-6.785
-6.711
-6.488
-6.109
-5.586
-4.917
-4.094
-3.121
-1.99
-0.705
0.726
2.305
4.021
5.818
7.596
9.207
10.48
11.291
11.557
11.208
10.214
8.54
6.17
3.155
-0.419
-4.477
-8.961
-13.843
-19.099
-24.589
-30.028
-35.055
-39.267
-42.3
-43.887
-43.684
-41.261
-36.441
-29.328
-20.343
-10.306
0.113
10.652
20.869
30.128
38.411
46.09
54.208
64.751
79.034
97.316
119.994
147.345
178.227
210.438
240.166
261.987
271.684
266.42
243.257
199.585
134.598
49.594
-51.218
-161.204
-274.442
-385.709
-489.309
-579.057
-649.305
-696.323
-719.324
-720.226
-701.277
-664.757
-613.509
-551.581
-484.346
-416.881
-352.891
-294.056
-241.205
-195.167
-156.902
-126.84
-103.726
-85.381
-69.525
-55.013
-41.717
-29.519
-17.821
-5.679
7.048
19.514
30.265
38.362
43.792
46.871
47.842
46.608
43.171
38.088
32.419
27.132
22.756
19.496
17.341
16.362
16.717
18.419
21.312
25.168
29.752
34.904
40.55
46.594
52.889
59.249
65.436
71.252
76.578
81.34
85.505
89.059
91.982
94.284
96.019
97.261
98.09
98.577
98.769
98.723
98.511
98.22
97.957
97.802
97.806
98.006
98.425
99.081
99.991
101.156
102.558
104.181
106.012
108.042
110.269
112.685
115.273
118.01
120.876
123.852
126.921
130.065
133.266
136.505
139.764
143.028
146.282
149.51
152.69
155.8
158.818
161.721
164.488
167.096
169.522
171.746
173.748
175.511
177.02
178.259
179.215
179.875
180.228
180.267
179.984
179.373
178.43
177.153
175.541
173.598
171.326
168.73
165.817
162.594
159.072
155.261
151.175
146.828
142.234
137.41
132.375
127.146
121.743
116.188
110.499
104.7
98.811
92.855
86.853
80.826
74.797
68.785
62.811
56.895
51.056
45.312
39.68
34.178
28.821
23.625
18.601
13.764
9.123
4.689
0.472
-3.523
-7.288
-10.819
-14.112
-17.164
-19.975
-22.545
-24.875
-26.968
-28.828
-30.459
-31.867
-33.059
-34.043
-34.827
-35.421
-35.834
-36.077
-36.16
-36.095
-35.894
-35.569
-35.131
-34.593
-33.968
-33.266
-32.5
-31.682
-30.823
-29.935
-29.027
-28.11
-27.194
-26.288
-25.399
-24.537
-23.709
-22.92
-22.178
-21.487
-20.852
-20.278
-19.767
-19.323
-18.948
-18.644
-18.41
-18.249
-18.16
-18.142
-18.194
-18.314
-18.502
-18.754
-19.068
-19.441
-19.869
-20.35
-20.879
-21.453
-22.067
-22.718
-23.401
-24.112
-24.847
-25.602
-26.373
-27.156
-27.947
-28.742
-29.537
-30.329
-31.115
-31.89
-32.651
-33.395
-34.119
-34.821
-35.496
-36.144
-36.762
-37.346
-37.897
-38.41
-38.886
-39.322
-39.718
-40.072
-40.384
-40.653
-40.879
-41.061
-41.202
-41.3
-41.358
-41.376
-41.355
-41.298
-41.204
-41.078
-40.919
-40.731
-40.516
-40.277
-40.017
-39.738
-39.446
-39.142
-38.831
-38.516
-38.2
-37.887
-37.581
-37.283
-36.999
-36.73
-36.481
-36.254
-36.053
-35.88
-35.739
-35.63
-35.556
-35.516
-35.513
-35.546
-35.615
-35.717
-35.853
-36.02
-36.218
-36.444
-36.697
-36.972
-37.268
-37.58
-37.904
-38.235
-38.567
-38.894
-39.211
-39.512
-39.793
-40.051
-40.279
-40.473
-40.63
-40.743
-40.811
-40.828
-40.79
-40.692
-40.532
-40.308
-40.019
-39.667
-39.25
-38.773
-38.238
-37.65
-37.016
-36.338
-35.62
-34.865
-34.077
-33.259
-32.415
-31.545
-30.656
-29.753
-28.845
-27.942
-27.052
-26.182
-25.341
-24.534
-23.766
-23.041
-22.361
-21.72
-21.122
-20.572
-20.082
-19.669
-19.343
-19.098
-18.934
-18.843
-18.806
-18.795
-18.762
-18.648
-18.418
-18.053
-17.546
-16.907
-16.135
-15.217
-14.156
-12.949
-11.599
-10.116
-8.504
-6.769
-4.974
-3.228
-1.687
-0.538
0.083
0.092
-0.582
-1.974
-4.113
-7.013
-10.612
-14.802
-19.5
-24.637
-30.174
-36.089
-42.217
-48.25
-53.816
-58.466
-61.801
-63.527
-63.259
-60.586
-55.386
-47.79
-38.284
-27.738
-16.786
-5.787
4.72
14.297
23.023
31.415
40.735
52.686
68.235
87.753
111.642
139.695
170.458
201.043
227.022
243.784
247.71
235.877
205.476
154.258
82.06
-8.221
-111.231
-221.288
-332.877
-440.76
-539.317
-621.727
-682.934
-721.246
-737.066
-731.716
-707.375
-665.948
-610.166
-545.849
-478.319
-411.184
-347.635
-289.476
-237.53
-193.582
-159.014
-132.436
-112.253
-96.828
-83.707
-71.98
-61.53
-51.245
-40.002
-27.81
-14.813
-1.865
9.248
17.898
24.155
27.847
28.968
27.635
23.958
18.607
12.817
7.415
2.851
-0.583
-2.874
-3.956
-3.69
-2.11
0.587
4.181
8.465
13.28
18.567
24.248
30.187
36.208
42.081
47.616
52.701
57.273
61.312
64.794
67.698
70.037
71.864
73.263
74.319
75.094
75.635
75.995
76.243
76.471
76.781
77.248
77.92
78.827
79.99
81.426
83.15
85.16
87.434
89.951
92.694
95.651
98.817
102.178
105.709
109.387
113.183
117.076
121.045
125.067
129.12
133.181
137.227
141.239
145.201
149.092
152.887
156.562
160.092
163.454
166.624
169.579
172.296
174.755
176.937
178.825
180.406
181.666
182.593
183.178
183.413
183.293
182.815
181.977
180.779
179.223
177.314
175.06
172.467
169.546
166.309
162.767
158.937
154.835
150.477
145.882
141.069
136.058
130.873
125.533
120.063
114.484
108.82
103.093
97.328
91.546
85.769
80.02
74.317
68.682
63.133
57.687
52.363
47.174
42.136
37.263
32.566
28.056
23.744
19.637
15.741
12.063
8.608
5.377
2.372
-0.406
-2.958
-5.286
-7.392
-9.282
-10.959
-12.431
-13.705
-14.787
-15.687
-16.413
-16.976
-17.385
-17.651
-17.784
-17.796
-17.697
-17.498
-17.211
-16.847
-16.415
-15.928
-15.394
-14.825
-14.23
-13.617
-12.997
-12.376
-11.762
-11.162
-10.583
-10.031
-9.509
-9.023
-8.577
-8.174
-7.816
-7.505
-7.243
-7.03
-6.867
-6.753
-6.687
-6.668
-6.695
-6.765
-6.875
-7.024
-7.209
-7.425
-7.669
-7.939
-8.229
-8.535
-8.855
-9.183
-9.515
-9.848
-10.178
-10.501
-10.813
-11.111
-11.392
-11.653
-11.891
-12.104
-12.29
-12.448
-12.575
-12.67
-12.733
-12.764
-12.762
-12.727
-12.661
-12.564
-12.436
-12.279
-12.095
-11.885
-11.65
-11.394
-11.119
-10.828
-10.523
-10.209
-9.888
-9.565
-9.242
-8.924
-8.614
-8.315
-8.031
-7.767
-7.524
-7.308
-7.121
-6.967
-6.848
-6.769
-6.732
-6.738
-6.789
-6.886
-7.032
-7.225
-7.469
-7.761
-8.103
-8.496
-8.937
-9.428
-9.967
-10.552
-11.18
-11.848
-12.554
-13.293
-14.061
-14.854
-15.667
-16.495
-17.335
-18.181
-19.028
-19.87
-20.703
-21.519
-22.312
-23.075
-23.802
-24.487
-25.122
-25.704
-26.23
-26.694
-27.094
-27.425
-27.685
-27.871
-27.981
-28.012
-27.961
-27.827
-27.611
-27.314
-26.938
-26.485
-25.961
-25.371
-24.721
-24.019
-23.269
-22.478
-21.651
-20.792
-19.906
-18.997
-18.07
-17.13
-16.185
-15.244
-14.319
-13.418
-12.552
-11.727
-10.948
-10.22
-9.546
-8.924
-8.351
-7.826
-7.351
-6.937
-6.598
-6.343
-6.168
-6.071
-6.039
-6.054
-6.089
-6.096
-6.025
-5.837
-5.508
-5.032
-4.422
-3.679
-2.804
-1.788
-0.611
0.728
2.224
3.883
5.694
7.619
9.577
11.418
12.975
14.114
14.735
14.785
14.24
13.077
11.293
8.921
6.011
2.637
-1.141
-5.307
-9.84
-14.642
-19.484
-24.002
-27.793
-30.484
-31.787
-31.374
-28.841
-24.02
-16.996
-8.143
1.794
12.201
22.819
33.219
42.792
51.504
59.646
68.2
79.077
93.338
111.146
132.823
158.491
187.382
217.842
246.178
267.115
277.02
273.302
253.505
215.724
158.372
81.687
-10.388
-111.768
-217.447
-322.577
-422.534
-512.652
-586.662
-640.03
-671.87
-683.057
-674.847
-649.276
-607.978
-553.277
-490.651
-425.075
-359.831
-297.888
-240.969
-189.93
-146.571
-112.389
-86.229
-66.667
-52.186
-40.425
-30.413
-21.942
-13.848
-4.871
5.14
16.146
27.4
37.147
44.731
50.224
53.411
54.222
52.754
49.076
43.845
38.333
33.329
29.23
26.312
24.548
23.984
24.761
26.809
29.899
33.819
38.359
43.378
48.846
54.677
60.732
66.835
72.745
78.292
83.386
87.969
92.026
95.54
98.489
100.898
102.833
104.369
105.579
106.52
107.225
107.746
108.153
108.53
108.976
109.559
110.321
111.291
112.488
113.927
115.621
117.563
119.729
122.1
124.662
127.404
130.324
133.407
136.632
139.977
143.42
146.939
150.517
154.132
157.764
161.393
165
168.568
172.082
175.524
178.872
182.105
185.2
188.135
190.89
193.442
195.771
197.855
199.679
201.225
202.479
203.429
204.061
204.365
204.333
203.957
203.233
202.156
200.725
198.938
196.799
194.309
191.475
188.303
184.799
180.975
176.842
172.411
167.697
162.714
157.479
152.009
146.322
140.439
134.378
128.162
121.811
115.347
108.793
102.171
95.504
88.813
82.121
75.449
68.819
62.25
55.764
49.38
43.115
36.989
31.018
25.218
19.604
14.189
8.986
4.007
-0.739
-5.243
-9.496
-13.494
-17.23
-20.701
-23.905
-26.841
-29.509
-31.91
-34.047
-35.925
-37.549
-38.924
-40.058
-40.96
-41.638
-42.103
-42.366
-42.437
-42.33
-42.057
-41.631
-41.065
-40.373
-39.569
-38.667
-37.68
-36.622
-35.506
-34.345
-33.151
-31.938
-30.716
-29.496
-28.29
-27.107
-25.957
-24.847
-23.787
-22.782
-21.839
-20.963
-20.159
-19.432
-18.783
-18.215
-17.73
-17.33
-17.013
-16.779
-16.627
-16.556
-16.562
-16.643
-16.795
-17.015
-17.297
-17.638
-18.033
-18.476
-18.965
-19.493
-20.056
-20.649
-21.268
-21.909
-22.566
-23.237
-23.916
-24.6
-25.287
-25.974
-26.657
-27.336
-28.008
-28.672
-29.327
-29.972
-30.606
-31.228
-31.838
-32.436
-33.022
-33.597
-34.161
-34.716
-35.263
-35.804
-36.34
-36.872
-37.401
-37.928
-38.453
-38.978
-39.502
-40.024
-40.546
-41.066
-41.584
-42.1
-42.615
-43.125
-43.63
-44.128
-44.615
-45.089
-45.545
-45.981
-46.393
-46.778
-47.134
-47.458
-47.75
-48.006
-48.224
-48.402
-48.538
-48.628
-48.672
-48.665
-48.607
-48.497
-48.336
-48.126
-47.867
-47.562
-47.216
-46.833
-46.418
-45.975
-45.506
-45.014
-44.501
-43.971
-43.427
-42.871
-42.307
-41.742
-41.182
-40.638
-40.118
-39.628
-39.173
-38.757
-38.383
-38.052
-37.766
-37.518
-37.309
-37.143
-37.028
-36.983
-37.018
-37.131
-37.317
-37.566
-37.853
-38.147
-38.408
-38.584
-38.639
-38.556
-38.327
-37.966
-37.485
-36.881
-36.154
-35.289
-34.271
-33.1
-31.782
-30.33
-28.811
-27.336
-26.04
-25.096
-24.636
-24.746
-25.489
-26.883
-28.923
-31.577
-34.774
-38.441
-42.524
-46.996
-51.842
-56.995
-62.259
-67.339
-71.867
-75.433
-77.702
-78.278
-76.734
-72.928
-66.937
-59.149
-50.298
-40.917
-31.318
-21.979
-13.253
-5.001
3.23
12.66
24.893
40.514
59.676
82.517
108.48
136.47
164.329
187.987
203.308
207.805
199.263
175.814
136.364
79.843
7.526
-76.001
-166.131
-259.207
-351.027
-437.579
-514.317
-575.41
-617.765
-641.712
-647.871
-637.254
-611.82
-573.542
-526.15
-475.476
-425.442
-377.86
-334.115
-294.605
-259.403
-228.881
-202.077
-176.693
-151.443
-125.926
-100.194
-75.137
-51.474
-29.513
-9.922
6.428
19.121
28.025
33.31
35.576
35.378
33.204
29.6
25.023
19.856
14.478
9.264
4.542
0.587
-2.421
-4.388
-5.245
-4.953
-3.508
-0.966
2.533
6.817
11.713
17.068
22.765
28.678
34.644
40.472
45.99
51.086
55.7
59.811
63.397
66.445
68.968
71.021
72.687
74.05
75.178
76.123
76.94
77.696
78.468
79.342
80.382
81.625
83.102
84.828
86.819
89.086
91.622
94.407
97.417
100.634
104.045
107.638
111.397
115.297
119.313
123.42
127.594
131.815
136.061
140.307
144.531
148.71
152.825
156.859
160.791
164.596
168.252
171.735
175.022
178.093
180.925
183.496
185.789
187.785
189.47
190.831
191.856
192.535
192.861
192.826
192.428
191.664
190.533
189.037
187.178
184.964
182.401
179.499
176.268
172.72
168.869
164.731
160.321
155.658
150.761
145.649
140.344
134.866
129.239
123.485
117.627
111.688
105.692
99.661
93.618
87.585
81.584
75.635
69.759
63.973
58.297
52.746
47.338
42.085
37.002
32.102
27.395
22.892
18.6
14.526
10.677
7.058
3.67
0.517
-2.401
-5.085
-7.537
-9.759
-11.755
-13.531
-15.091
-16.444
-17.597
-18.558
-19.336
-19.941
-20.383
-20.671
-20.817
-20.831
-20.724
-20.507
-20.19
-19.784
-19.299
-18.745
-18.131
-17.469
-16.766
-16.031
-15.273
-14.499
-13.717
-12.933
-12.154
-11.386
-10.632
-9.899
-9.188
-8.506
-7.853
-7.232
-6.646
-6.095
-5.582
-5.105
-4.667
-4.266
-3.901
-3.573
-3.281
-3.023
-2.799
-2.607
-2.448
-2.32
-2.222
-2.154
-2.115
-2.105
-2.122
-2.166
-2.237
-2.333
-2.456
-2.604
-2.778
-2.979
-3.206
-3.461
-3.742
-4.051
-4.388
-4.751
-5.142
-5.56
-6.004
-6.476
-6.974
-7.498
-8.049
-8.625
-9.226
-9.85
-10.494
-11.157
-11.836
-12.526
-13.225
-13.928
-14.631
-15.33
-16.022
-16.703
-17.367
-18.01
-18.626
-19.21
-19.757
-20.259
-20.711
-21.107
-21.443
-21.713
-21.916
-22.047
-22.103
-22.082
-21.982
-21.8
-21.536
-21.188
-20.754
-20.235
-19.632
-18.95
-18.191
-17.361
-16.465
-15.512
-14.51
-13.469
-12.397
-11.301
-10.189
-9.069
-7.949
-6.836
-5.735
-4.655
-3.606
-2.599
-1.646
-0.759
0.053
0.781
1.415
1.95
2.381
2.704
2.925
3.04
3.046
2.933
2.686
2.296
1.768
1.105
0.314
-0.582
-1.557
-2.564
-3.542
-4.452
-5.27
-5.979
-6.586
-7.086
-7.465
-7.727
-7.859
-7.851
-7.709
-7.425
-7.001
-6.488
-5.978
-5.604
-5.542
-5.917
-6.817
-8.317
-10.444
-13.218
-16.639
-20.629
-25.105
-30.003
-35.273
-40.912
-46.877
-52.988
-58.97
-64.473
-69.079
-72.472
-74.283
-74.031
-71.503
-66.708
-59.927
-51.877
-43.167
-34.061
-24.993
-16.507
-8.569
-0.85
7.677
18.884
33.797
52.594
75.505
102.515
132.76
164.526
194.241
216.896
228.998
228.068
211.75
178.145
125.766
54.867
-30.967
-126.099
-225.836
-325.654
-420.887
-506.525
-576.469
-626.545
-656.073
-666.23
-658.541
-635.124
-598.385
-552.002
-501.713
-451.919
-404.849
-361.728
-322.833
-288.14
-257.784
-230.869
-205.199
-179.4
-153.035
-126.183
-99.706
-74.365
-50.564
-29.024
-10.697
3.909
14.635
21.619
25.412
26.542
25.456
22.691
18.779
14.167
9.271
4.481
0.113
-3.561
-6.325
-8.052
-8.661
-8.108
-6.393
-3.57
0.25
4.913
10.251
16.113
22.343
28.783
35.259
41.566
47.527
53.024
57.979
62.355
66.133
69.302
71.877
73.91
75.474
76.645
77.492
78.073
78.45
78.7
78.905
79.159
79.533
80.072
80.814
81.782
82.994
84.462
86.187
88.15
90.336
92.732
95.329
98.121
101.096
104.235
107.517
110.92
114.425
118.013
121.666
125.362
129.082
132.807
136.518
140.202
143.839
147.406
150.882
154.243
157.466
160.529
163.41
166.086
168.538
170.745
172.692
174.363
175.745
176.825
177.591
178.036
178.151
177.932
177.374
176.476
175.236
173.657
171.742
169.497
166.929
164.045
160.857
157.375
153.612
149.583
145.302
140.787
136.055
131.123
126.013
120.742
115.332
109.803
104.176
98.473
92.715
86.922
81.114
75.311
69.532
63.797
58.122
52.525
47.023
41.63
36.361
31.231
26.251
21.433
16.787
12.323
8.05
3.973
0.099
-3.566
-7.019
-10.258
-13.28
-16.084
-18.671
-21.041
-23.197
-25.142
-26.879
-28.412
-29.746
-30.887
-31.842
-32.617
-33.219
-33.656
-33.935
-34.065
-34.053
-33.91
-33.643
-33.261
-32.773
-32.188
-31.514
-30.76
-29.935
-29.047
-28.104
-27.114
-26.085
-25.024
-23.937
-22.833
-21.716
-20.594
-19.471
-18.354
-17.248
-16.157
-15.086
-14.039
-13.02
-12.031
-11.077
-10.161
-9.283
-8.448
-7.656
-6.909
-6.209
-5.557
-4.955
-4.402
-3.899
-3.448
-3.047
-2.696
-2.396
-2.146
-1.945
-1.792
-1.688
-1.63
-1.618
-1.652
-1.731
-1.854
-2.019
-2.225
-2.471
-2.754
-3.075
-3.429
-3.817
-4.236
-4.685
-5.161
-5.665
-6.192
-6.742
-7.31
-7.895
-8.493
-9.101
-9.715
-10.332
-10.948
-11.559
-12.164
-12.758
-13.339
-13.903
-14.447
-14.966
-15.456
-15.914
-16.334
-16.711
-17.041
-17.321
-17.548
-17.72
-17.833
-17.884
-17.872
-17.795
-17.65
-17.436
-17.15
-16.791
-16.36
-15.856
-15.283
-14.643
-13.94
-13.179
-12.367
-11.512
-10.618
-9.69
-8.735
-7.755
-6.756
-5.742
-4.714
-3.676
-2.636
-1.602
-0.582
0.412
1.372
2.293
3.164
3.98
4.735
5.428
6.061
6.636
7.147
7.585
7.932
8.18
8.33
8.388
8.358
8.253
8.095
7.924
7.798
7.768
7.86
8.085
8.438
8.917
9.53
10.293
11.209
12.27
13.459
14.768
16.2
17.73
19.292
20.753
21.931
22.67
22.866
22.451
21.377
19.609
17.109
13.885
10.015
5.599
0.729
-4.554
-10.257
-16.307
-22.495
-28.491
-33.868
-38.22
-41.253
-42.589
-41.759
-38.534
-32.909
-25.199
-16.173
-6.485
3.548
13.453
22.648
31.118
39.2
47.99
59.492
74.905
94.557
118.815
147.823
180.793
215.907
249.27
275.336
290.072
290.557
274.044
238.263
181.461
103.855
9.313
-95.87
-206.234
-316.63
-421.928
-516.876
-595.162
-652.303
-687.201
-700.783
-694.697
-671.192
-632.503
-581.666
-523.725
-463.077
-402.966
-346.153
-293.861
-246.681
-205.595
-171.089
-142.628
-119.578
-100.601
-83.782
-68.548
-54.824
-42.276
-30.619
-19.263
-7.75
3.33
12.696
19.742
24.408
26.912
27.624
26.43
23.242
18.569
13.367
8.526
4.607
1.814
0.112
-0.411
0.381
2.492
5.785
10.003
14.898
20.297
26.105
32.246
38.596
44.972
51.152
56.945
62.235
66.96
71.101
74.633
77.536
79.82
81.535
82.761
83.584
84.07
84.271
84.239
84.039
83.759
83.499
83.336
83.317
83.476
83.834
84.41
85.223
86.276
87.552
89.036
90.715
92.585
94.643
96.882
99.285
101.833
104.504
107.282
110.153
113.1
116.104
119.148
122.215
125.29
128.36
131.407
134.411
137.35
140.202
142.946
145.559
148.02
150.307
152.399
154.278
155.926
157.328
158.47
159.338
159.918
160.203
160.182
159.848
159.196
158.221
156.922
155.298
153.351
151.084
148.502
145.611
142.42
138.937
135.174
131.144
126.861
122.338
117.593
112.644
107.508
102.206
96.758
91.184
85.505
79.742
73.918
68.053
62.167
56.283
50.418
44.594
38.83
33.143
27.551
22.072
16.72
11.511
6.46
1.579
-3.121
-7.629
-11.935
-16.032
-19.911
-23.569
-26.999
-30.2
-33.17
-35.907
-38.412
-40.688
-42.738
-44.565
-46.174
-47.572
-48.766
-49.763
-50.572
-51.201
-51.66
-51.959
-52.109
-52.12
-52.003
-51.77
-51.431
-50.997
-50.481
-49.892
-49.242
-48.542
-47.8
-47.028
-46.234
-45.428
-44.617
-43.81
-43.013
-42.233
-41.476
-40.746
-40.049
-39.387
-38.763
-38.181
-37.642
-37.147
-36.696
-36.291
-35.93
-35.613
-35.339
-35.105
-34.91
-34.752
-34.628
-34.535
-34.47
-34.429
-34.411
-34.41
-34.424
-34.449
-34.481
-34.518
-34.555
-34.591
-34.621
-34.645
-34.659
-34.662
-34.653
-34.63
-34.593
-34.54
-34.473
-34.39
-34.292
-34.179
-34.053
-33.915
-33.767
-33.61
-33.445
-33.275
-33.101
-32.924
-32.747
-32.571
-32.398
-32.23
-32.069
-31.917
-31.777
-31.649
-31.537
-31.441
-31.361
-31.3
-31.257
-31.232
-31.224
-31.232
-31.254
-31.291
-31.34
-31.399
-31.468
-31.542
-31.619
-31.696
-31.768
-31.833
-31.884
-31.918
-31.93
-31.917
-31.876
-31.805
-31.702
-31.562
-31.384
-31.166
-30.906
-30.602
-30.25
-29.848
-29.398
-28.898
-28.35
-27.756
-27.119
-26.443
-25.733
-24.996
-24.236
-23.458
-22.665
-21.862
-21.053
-20.242
-19.43
-18.622
-17.822
-17.04
-16.285
-15.565
-14.888
-14.258
-13.683
-13.166
-12.712
-12.321
-11.987
-11.708
-11.487
-11.334
-11.266
-11.291
-11.403
-11.597
-11.868
-12.2
-12.572
-12.942
-13.247
-13.436
-13.484
-13.381
-13.134
-12.743
-12.192
-11.461
-10.547
-9.459
-8.213
-6.816
-5.265
-3.591
-1.876
-0.268
1.034
1.869
2.134
1.768
0.721
-1.048
-3.582
-6.88
-10.845
-15.364
-20.355
-25.776
-31.626
-37.806
-44.059
-49.988
-55.138
-59.092
-61.555
-62.188
-60.523
-56.344
-49.696
-40.927
-30.876
-20.265
-9.372
1.36
11.328
20.567
29.467
39.001
51.112
67.06
87.052
111.471
140.515
172.964
206.561
237.445
260.208
270.713
266.186
243.73
200.792
136.553
52.272
-47.814
-157.1
-269.765
-380.682
-484.29
-574.525
-645.743
-694.175
-718.994
-722.038
-705.45
-671.381
-622.487
-562.662
-497.181
-431.063
-368.031
-309.782
-257.15
-211.009
-172.376
-141.71
-117.819
-98.562
-81.649
-65.965
-51.424
-37.936
-24.967
-11.617
2.251
15.792
27.552
36.568
42.796
46.544
48.074
47.289
44.189
39.291
33.608
28.149
23.493
19.887
17.369
16.015
15.985
17.323
19.904
23.517
27.949
33.03
38.671
44.8
51.286
57.967
64.639
71.064
77.081
82.597
87.553
91.927
95.7
98.853
101.416
103.462
105.071
106.318
107.263
107.944
108.417
108.763
109.07
109.435
109.926
110.582
111.433
112.5
113.801
115.348
117.133
119.135
121.334
123.719
126.281
129.017
131.914
134.951
138.107
141.361
144.695
148.092
151.532
154.996
158.465
161.92
165.345
168.726
172.043
175.275
178.401
181.398
184.244
186.918
189.398
191.662
193.692
195.47
196.979
198.206
199.138
199.763
200.071
200.054
199.706
199.022
197.999
196.635
194.932
192.891
190.517
187.816
184.796
181.464
177.833
173.914
169.722
165.271
160.578
155.661
150.539
145.231
139.759
134.143
128.405
122.569
116.656
110.689
104.69
98.682
92.685
86.721
80.81
74.971
69.223
63.584
58.069
52.695
47.477
42.428
37.56
32.886
28.413
24.151
20.108
16.288
12.697
9.338
6.212
3.32
0.662
-1.764
-3.963
-5.937
-7.694
-9.239
-10.579
-11.724
-12.682
-13.463
-14.077
-14.535
-14.847
-15.026
-15.081
-15.025
-14.869
-14.623
-14.3
-13.91
-13.464
-12.972
-12.444
-11.888
-11.315
-10.732
-10.146
-9.566
-8.997
-8.445
-7.915
-7.411
-6.938
-6.498
-6.092
-5.723
-5.392
-5.097
-4.84
-4.618
-4.431
-4.277
-4.153
-4.057
-3.985
-3.936
-3.905
-3.89
-3.886
-3.89
-3.9
-3.911
-3.921
-3.926
-3.923
-3.911
-3.887
-3.848
-3.793
-3.72
-3.627
-3.515
-3.382
-3.228
-3.053
-2.859
-2.646
-2.416
-2.171
-1.913
-1.644
-1.367
-1.085
-0.801
-0.517
-0.239
0.032
0.29
0.533
0.756
0.954
1.126
1.268
1.376
1.449
1.483
1.477
1.428
1.336
1.197
1.012
0.778
0.496
0.165
-0.213
-0.637
-1.106
-1.617
-2.167
-2.752
-3.369
-4.014
-4.684
-5.373
-6.079
-6.795
-7.516
-8.237
-8.952
-9.655
-10.338
-10.994
-11.617
-12.203
-12.745
-13.241
-13.685
-14.074
-14.403
-14.671
-14.874
-15.01
-15.076
-15.07
-14.992
-14.842
-14.624
-14.338
-13.99
-13.583
-13.124
-12.622
-12.084
-11.516
-10.924
-10.314
-9.692
-9.065
-8.437
-7.813
-7.198
-6.603
-6.034
-5.505
-5.024
-4.597
-4.234
-3.941
-3.721
-3.58
-3.519
-3.531
-3.618
-3.786
-4.042
-4.404
-4.88
-5.464
-6.153
-6.938
-7.797
-8.702
-9.603
-10.439
-11.172
-11.779
-12.248
-12.588
-12.794
-12.851
-12.759
-12.509
-12.091
-11.51
-10.761
-9.849
-8.835
-7.825
-6.972
-6.463
-6.433
-6.969
-8.148
-10.003
-12.568
-15.848
-19.765
-24.24
-29.21
-34.642
-40.544
-46.866
-53.408
-59.864
-65.84
-70.89
-74.673
-76.798
-76.765
-74.33
-69.491
-62.534
-54.198
-45.156
-35.717
-26.346
-17.654
-9.615
-1.819
6.774
18.113
33.51
53.303
77.97
107.869
141.939
178.02
212.266
239.102
254.155
254.373
236.509
197.657
136.623
54.264
-45.417
-155.753
-270.868
-385.41
-493.442
-588.836
-665.681
-719.886
-750.593
-759.272
-747.602
-717.821
-672.599
-615.319
-551.192
-484.901
-419.583
-357.755
-301.089
-250.462
-207.239
-172.479
-145.131
-123.908
-107.445
-93.662
-81.602
-71.038
-60.951
-50.23
-38.787
-26.701
-14.715
-4.498
3.299
8.733
11.637
11.979
9.916
5.585
-0.322
-6.52
-12.2
-16.937
-20.445
-22.734
-23.742
-23.327
-21.544
-18.614
-14.749
-10.159
-4.992
0.71
6.846
13.262
19.76
26.086
32.058
37.575
42.574
47.038
50.947
54.277
57.053
59.342
61.218
62.76
64.025
65.047
65.883
66.606
67.304
68.082
69.01
70.131
71.475
73.06
74.899
77.006
79.37
81.965
84.771
87.771
90.953
94.313
97.836
101.497
105.274
109.142
113.077
117.061
121.073
125.089
129.09
133.055
136.967
140.813
144.572
148.223
151.746
155.116
158.314
161.318
164.108
166.661
168.961
170.989
172.732
174.176
175.31
176.121
176.603
176.747
176.548
176.003
175.109
173.864
172.27
170.331
168.051
165.435
162.492
159.23
155.66
151.794
147.645
143.229
138.56
133.656
128.534
123.212
117.712
112.052
106.253
100.337
94.324
88.238
82.099
75.928
69.746
63.575
57.433
51.341
45.317
39.379
33.546
27.833
22.257
16.834
11.576
6.498
1.612
-3.072
-7.544
-11.794
-15.815
-19.602
-23.148
-26.449
-29.503
-32.309
-34.864
-37.171
-39.231
-41.046
-42.621
-43.961
-45.07
-45.957
-46.628
-47.091
-47.356
-47.431
-47.326
-47.051
-46.618
-46.036
-45.318
-44.475
-43.517
-42.457
-41.307
-40.077
-38.779
-37.423
-36.021
-34.584
-33.12
-31.64
-30.153
-28.668
-27.192
-25.734
-24.301
-22.899
-21.534
-20.212
-18.937
-17.714
-16.546
-15.436
-14.386
-13.399
-12.476
-11.619
-10.826
-10.099
-9.438
-8.84
-8.306
-7.834
-7.421
-7.066
-6.766
-6.519
-6.322
-6.172
-6.068
-6.004
-5.979
-5.99
-6.033
-6.105
-6.204
-6.325
-6.467
-6.626
-6.8
-6.986
-7.182
-7.386
-7.595
-7.808
-8.022
-8.236
-8.448
-8.657
-8.861
-9.06
-9.252
-9.437
-9.614
-9.783
-9.945
-10.1
-10.247
-10.387
-10.521
-10.648
-10.77
-10.887
-11
-11.111
-11.22
-11.33
-11.441
-11.556
-11.675
-11.8
-11.93
-12.068
-12.214
-12.369
-12.534
-12.71
-12.897
-13.096
-13.31
-13.537
-13.778
-14.033
-14.301
-14.581
-14.873
-15.175
-15.485
-15.8
-16.119
-16.441
-16.764
-17.085
-17.401
-17.71
-18.008
-18.292
-18.558
-18.801
-19.016
-19.201
-19.35
-19.463
-19.537
-19.569
-19.557
-19.499
-19.393
-19.239
-19.035
-18.778
-18.466
-18.1
-17.68
-17.208
-16.686
-16.117
-15.505
-14.854
-14.172
-13.464
-12.736
-11.991
-11.234
-10.47
-9.703
-8.936
-8.173
-7.417
-6.675
-5.954
-5.265
-4.615
-4.007
-3.449
-2.944
-2.496
-2.108
-1.778
-1.5
-1.275
-1.105
-1.001
-0.98
-1.049
-1.201
-1.437
-1.748
-2.114
-2.507
-2.882
-3.175
-3.354
-3.397
-3.292
-3.051
-2.665
-2.12
-1.42
-0.555
0.482
1.682
3.052
4.583
6.206
7.81
9.24
10.303
10.868
10.85
10.165
8.78
6.663
3.8
0.284
-3.8
-8.399
-13.47
-19.011
-24.97
-31.121
-37.127
-42.594
-47.069
-50.208
-51.648
-50.885
-47.704
-42.16
-34.579
-25.779
-16.484
-6.974
2.287
10.673
18.269
25.548
33.588
44.462
59.511
79.001
103.395
132.977
166.527
201.72
234.552
259.367
271.776
268.78
247.25
204.474
139.604
53.961
-48.063
-159.604
-274.557
-387.412
-492.228
-582.882
-653.792
-701.387
-725.182
-726.991
-708.882
-673.373
-623.427
-562.7
-496.306
-428.75
-363.066
-301.558
-245.751
-196.449
-154.802
-121.737
-96.245
-77.036
-62.769
-51.417
-41.96
-34.086
-26.725
-18.647
-9.659
0.2
10.27
18.959
25.651
30.426
33.074
33.5
31.828
28.198
23.31
18.391
14.167
10.981
9.054
8.356
8.918
10.836
13.998
18.14
23.023
28.44
34.261
40.435
46.853
53.343
59.694
65.7
71.231
76.217
80.625
84.446
87.665
90.288
92.369
93.981
95.2
96.098
96.724
97.127
97.375
97.55
97.75
98.055
98.518
99.174
100.046
101.151
102.502
104.102
105.93
107.972
110.213
112.643
115.258
118.051
121.004
124.095
127.303
130.609
133.996
137.447
140.941
144.46
147.985
151.501
154.994
158.446
161.835
165.141
168.34
171.41
174.33
177.078
179.632
181.97
184.076
185.932
187.524
188.836
189.857
190.574
190.978
191.062
190.82
190.246
189.338
188.094
186.516
184.607
182.37
179.813
176.941
173.764
170.293
166.539
162.518
158.242
153.729
148.994
144.058
138.938
133.655
128.23
122.682
117.034
111.308
105.525
99.705
93.87
88.041
82.237
76.477
70.781
65.166
59.649
54.246
48.973
43.845
38.874
34.073
29.452
25.023
20.792
16.769
12.959
9.367
5.996
2.85
-0.07
-2.765
-5.235
-7.483
-9.512
-11.326
-12.932
-14.336
-15.544
-16.564
-17.405
-18.076
-18.587
-18.947
-19.166
-19.255
-19.225
-19.087
-18.85
-18.527
-18.129
-17.665
-17.146
-16.582
-15.984
-15.361
-14.723
-14.077
-13.432
-12.797
-12.177
-11.581
-11.013
-10.479
-9.984
-9.531
-9.125
-8.768
-8.462
-8.208
-8.009
-7.864
-7.773
-7.736
-7.752
-7.821
-7.941
-8.109
-8.324
-8.583
-8.884
-9.223
-9.598
-10.004
-10.44
-10.9
-11.382
-11.883
-12.397
-12.923
-13.456
-13.993
-14.53
-15.064
-15.592
-16.112
-16.621
-17.117
-17.597
-18.061
-18.506
-18.93
-19.334
-19.716
-20.075
-20.411
-20.723
-21.013
-21.279
-21.523
-21.745
-21.948
-22.131
-22.296
-22.445
-22.579
-22.701
-22.811
-22.912
-23.007
-23.097
-23.186
-23.276
-23.37
-23.471
-23.58
-23.701
-23.834
-23.983
-24.148
-24.332
-24.535
-24.76
-25.007
-25.278
-25.574
-25.895
-26.242
-26.613
-27.008
-27.425
-27.864
-28.321
-28.794
-29.281
-29.778
-30.285
-30.797
-31.313
-31.827
-32.337
-32.838
-33.326
-33.795
-34.24
-34.656
-35.037
-35.379
-35.68
-35.935
-36.142
-36.296
-36.394
-36.434
-36.413
-36.329
-36.179
-35.96
-35.672
-35.316
-34.893
-34.406
-33.858
-33.253
-32.599
-31.901
-31.165
-30.395
-29.596
-28.772
-27.927
-27.066
-26.188
-25.3
-24.407
-23.518
-22.643
-21.791
-20.969
-20.185
-19.444
-18.753
-18.117
-17.535
-17.004
-16.522
-16.094
-15.732
-15.453
-15.266
-15.163
-15.14
-15.188
-15.294
-15.435
-15.569
-15.635
-15.586
-15.396
-15.059
-14.588
-13.98
-13.226
-12.307
-11.213
-9.959
-8.572
-7.059
-5.424
-3.699
-1.955
-0.337
0.962
1.792
2.05
1.679
0.644
-1.097
-3.581
-6.815
-10.735
-15.217
-20.156
-25.488
-31.182
-37.18
-43.296
-49.18
-54.408
-58.574
-61.326
-62.395
-61.437
-58.045
-52.094
-43.749
-33.527
-22.324
-10.808
0.658
11.535
21.349
30.175
38.536
47.698
59.449
74.841
94.289
118.231
146.469
177.491
208.315
234.421
251.079
254.558
241.869
210.164
157.184
82.865
-9.712
-115.008
-227.137
-340.389
-449.4
-548.456
-630.661
-691.01
-727.947
-742.035
-734.829
-708.71
-665.734
-608.774
-543.708
-475.85
-408.74
-345.434
-287.615
-236.032
-192.386
-158
-131.496
-111.289
-95.809
-82.746
-71.223
-61.124
-51.353
-40.757
-29.337
-17.26
-5.345
4.696
12.281
17.52
20.26
20.484
18.346
13.996
8.142
2.05
-3.497
-8.092
-11.465
-13.625
-14.511
-13.989
-12.125
-9.141
-5.254
-0.677
4.438
10.038
16.02
22.23
28.475
34.504
40.142
45.288
49.882
53.909
57.348
60.178
62.426
64.158
65.451
66.383
67.017
67.39
67.562
67.608
67.617
67.695
67.915
68.319
68.941
69.803
70.921
72.309
73.964
75.862
77.987
80.326
82.871
85.619
88.558
91.668
94.928
98.315
101.809
105.393
109.047
112.75
116.483
120.227
123.965
127.682
131.359
134.975
138.506
141.931
145.226
148.369
151.337
154.109
156.664
158.983
161.049
162.848
164.364
165.585
166.5
167.1
167.376
167.324
166.939
166.217
165.158
163.764
162.038
159.985
157.61
154.921
151.928
148.641
145.075
141.241
137.155
132.833
128.293
123.553
118.631
113.549
108.326
102.983
97.541
92.023
86.449
80.84
75.218
69.602
64.012
58.468
52.988
47.589
42.29
37.105
32.049
27.138
22.385
17.8
13.396
9.182
5.166
1.356
-2.242
-5.622
-8.781
-11.716
-14.426
-16.91
-19.17
-21.206
-23.021
-24.621
-26.009
-27.192
-28.175
-28.966
-29.573
-30.005
-30.271
-30.381
-30.343
-30.17
-29.87
-29.455
-28.935
-28.321
-27.624
-26.853
-26.02
-25.135
-24.207
-23.246
-22.26
-21.26
-20.253
-19.247
-18.249
-17.267
-16.305
-15.371
-14.469
-13.604
-12.779
-11.998
-11.264
-10.579
-9.944
-9.362
-8.831
-8.353
-7.927
-7.552
-7.227
-6.95
-6.718
-6.531
-6.385
-6.278
-6.206
-6.167
-6.158
-6.175
-6.215
-6.275
-6.351
-6.44
-6.538
-6.644
-6.753
-6.864
-6.974
-7.08
-7.181
-7.274
-7.359
-7.433
-7.495
-7.545
-7.582
-7.605
-7.615
-7.612
-7.596
-7.569
-7.532
-7.485
-7.432
-7.372
-7.309
-7.243
-7.177
-7.113
-7.052
-6.999
-6.954
-6.92
-6.901
-6.897
-6.912
-6.947
-7.003
-7.081
-7.183
-7.309
-7.46
-7.635
-7.836
-8.061
-8.311
-8.586
-8.883
-9.201
-9.539
-9.893
-10.261
-10.639
-11.025
-11.412
-11.799
-12.179
-12.551
-12.909
-13.25
-13.567
-13.857
-14.115
-14.334
-14.509
-14.635
-14.707
-14.72
-14.671
-14.557
-14.376
-14.126
-13.804
-13.412
-12.947
-12.41
-11.801
-11.12
-10.367
-9.546
-8.66
-7.714
-6.713
-5.661
-4.567
-3.439
-2.286
-1.116
0.063
1.245
2.421
3.585
4.729
5.847
6.935
7.985
8.99
9.94
10.826
11.64
12.377
13.031
13.599
14.078
14.466
14.765
14.982
15.117
15.169
15.133
14.994
14.747
14.396
13.949
13.42
12.838
12.234
11.655
11.154
10.762
10.509
10.404
10.442
10.631
10.966
11.45
12.109
12.96
14.007
15.25
16.656
18.14
19.598
20.889
21.849
22.359
22.317
21.657
20.357
18.418
15.897
12.87
9.374
5.423
1.019
-3.797
-8.882
-13.982
-18.789
-22.937
-26.058
-27.733
-27.446
-24.948
-20.246
-13.627
-5.79
2.666
11.468
20.162
28.146
35.406
42.294
49.907
60.24
74.424
92.69
115.362
142.592
173.688
206.981
238.736
263.619
277.785
278.455
262.974
229.045
174.768
100.177
8.897
-93.028
-200.24
-307.743
-410.539
-503.175
-579.208
-633.968
-666.063
-676.637
-667.741
-641.596
-600.498
-548.004
-489.37
-429.514
-372.335
-319.845
-272.41
-230.516
-194.802
-165.177
-140.922
-120.537
-101.715
-83.431
-65.994
-49.504
-34.114
-19.794
-5.922
7.194
18.175
26.385
31.784
34.512
35.226
34.257
31.328
26.737
21.337
15.826
10.9
6.98
4.028
2.108
1.426
2.032
3.89
6.9
10.82
15.457
20.709
26.457
32.602
39.016
45.5
51.842
57.864
63.445
68.524
73.074
77.068
80.482
83.328
85.65
87.53
89.046
90.259
91.216
91.965
92.571
93.123
93.717
94.421
95.281
96.326
97.576
99.049
100.762
102.711
104.879
107.246
109.799
112.528
115.43
118.494
121.701
125.03
128.456
131.963
135.535
139.153
142.798
146.452
150.095
153.713
157.293
160.816
164.262
167.61
170.837
173.922
176.843
179.578
182.107
184.407
186.461
188.252
189.764
190.983
191.895
192.487
192.75
192.676
192.256
191.487
190.362
188.882
187.045
184.854
182.313
179.425
176.199
172.641
168.762
164.574
160.09
155.324
150.291
145.009
139.497
133.773
127.858
121.772
115.538
109.178
102.714
96.17
89.568
82.931
76.281
69.64
63.031
56.474
49.991
43.6
37.321
31.173
25.172
19.337
13.681
8.218
2.963
-2.074
-6.882
-11.451
-15.775
-19.847
-23.662
-27.216
-30.508
-33.537
-36.303
-38.808
-41.055
-43.049
-44.795
-46.299
-47.569
-48.613
-49.44
-50.06
-50.483
-50.721
-50.785
-50.686
-50.438
-50.052
-49.542
-48.919
-48.197
-47.389
-46.506
-45.561
-44.567
-43.535
-42.475
-41.399
-40.317
-39.238
-38.171
-37.123
-36.102
-35.115
-34.168
-33.265
-32.411
-31.61
-30.864
-30.177
-29.55
-28.984
-28.48
-28.037
-27.655
-27.334
-27.072
-26.867
-26.717
-26.62
-26.574
-26.575
-26.619
-26.705
-26.828
-26.985
-27.171
-27.384
-27.619
-27.874
-28.144
-28.428
-28.721
-29.022
-29.328
-29.637
-29.949
-30.26
-30.571
-30.88
-31.185
-31.489
-31.789
-32.086
-32.381
-32.675
-32.968
-33.261
-33.555
-33.85
-34.147
-34.447
-34.75
-35.057
-35.369
-35.685
-36.008
-36.337
-36.673
-37.017
-37.369
-37.728
-38.094
-38.465
-38.841
-39.221
-39.601
-39.979
-40.353
-40.72
-41.078
-41.424
-41.754
-42.065
-42.352
-42.612
-42.838
-43.027
-43.173
-43.272
-43.319
-43.312
-43.247
-43.123
-42.938
-42.688
-42.373
-41.992
-41.543
-41.025
-40.44
-39.785
-39.063
-38.276
-37.428
-36.523
-35.566
-34.562
-33.519
-32.444
-31.345
-30.228
-29.1
-27.967
-26.834
-25.709
-24.6
-23.513
-22.454
-21.432
-20.458
-19.542
-18.693
-17.919
-17.222
-16.606
-16.071
-15.623
-15.259
-14.977
-14.776
-14.659
-14.631
-14.708
-14.899
-15.195
-15.586
-16.051
-16.557
-17.078
-17.584
-18.025
-18.376
-18.617
-18.736
-18.749
-18.658
-18.451
-18.122
-17.636
-16.962
-16.11
-15.092
-13.941
-12.753
-11.614
-10.628
-9.954
-9.695
-9.919
-10.686
-11.983
-13.783
-16.08
-18.81
-21.938
-25.458
-29.318
-33.489
-37.87
-42.21
-46.238
-49.626
-51.966
-52.947
-52.228
-49.407
-44.418
-37.44
-28.863
-19.453
-9.789
-0.158
8.92
17.033
24.337
31.373
39.384
50.054
64.273
82.329
104.557
130.681
159.297
187.737
211.87
227.363
230.845
219.614
191.116
143.39
76.441
-7.014
-102.112
-203.572
-306.219
-404.979
-494.197
-567.511
-620.646
-652.434
-663.664
-656.092
-632.102
-594.349
-546.9
-495.608
-444.917
-397.218
-353.812
-314.931
-280.504
-250.571
-224.101
-198.836
-173.364
-147.215
-120.48
-94.029
-68.632
-44.718
-23.037
-4.579
10.118
20.873
27.816
31.497
32.445
31.107
28.02
23.723
18.672
13.297
8.003
3.111
-1.101
-4.411
-6.687
-7.839
-7.811
-6.596
-4.24
-0.845
3.439
8.453
14.052
20.079
26.379
32.77
39.037
44.999
50.532
55.554
60.024
63.92
67.224
69.95
72.148
73.886
75.239
76.272
77.037
77.597
78.024
78.403
78.83
79.377
80.092
81.01
82.155
83.545
85.191
87.093
89.23
91.584
94.142
96.892
99.829
102.941
106.207
109.605
113.113
116.708
120.373
124.089
127.833
131.586
135.328
139.043
142.717
146.331
149.864
153.296
156.603
159.764
162.757
165.562
168.156
170.519
172.633
174.483
176.054
177.333
178.306
178.964
179.298
179.302
178.968
178.295
177.278
175.919
174.218
172.179
169.808
167.112
164.097
160.774
157.155
153.252
149.079
144.652
139.986
135.099
130.008
124.734
119.295
113.712
108.005
102.196
96.307
90.358
84.372
78.368
72.368
66.391
60.457
54.585
48.794
43.101
37.522
32.074
26.773
21.631
16.662
11.878
7.289
2.904
-1.268
-5.22
-8.946
-12.442
-15.705
-18.731
-21.52
-24.071
-26.386
-28.466
-30.315
-31.935
-33.333
-34.513
-35.482
-36.248
-36.817
-37.2
-37.403
-37.438
-37.313
-37.04
-36.627
-36.088
-35.431
-34.668
-33.81
-32.867
-31.852
-30.773
-29.642
-28.467
-27.26
-26.028
-24.782
-23.528
-22.274
-21.029
-19.799
-18.59
-17.408
-16.259
-15.147
-14.077
-13.052
-12.077
-11.153
-10.283
-9.469
-8.712
-8.014
-7.374
-6.794
-6.272
-5.809
-5.403
-5.054
-4.759
-4.517
-4.326
-4.183
-4.086
-4.032
-4.019
-4.045
-4.107
-4.202
-4.328
-4.483
-4.664
-4.87
-5.097
-5.344
-5.608
-5.888
-6.181
-6.487
-6.804
-7.131
-7.467
-7.812
-8.163
-8.521
-8.884
-9.25
-9.62
-9.992
-10.365
-10.739
-11.114
-11.489
-11.865
-12.241
-12.617
-12.992
-13.365
-13.736
-14.103
-14.465
-14.819
-15.165
-15.501
-15.825
-16.136
-16.433
-16.714
-16.976
-17.218
-17.436
-17.627
-17.787
-17.914
-18.003
-18.052
-18.06
-18.023
-17.943
-17.815
-17.64
-17.416
-17.143
-16.819
-16.445
-16.017
-15.537
-15.005
-14.425
-13.798
-13.127
-12.418
-11.676
-10.909
-10.122
-9.322
-8.513
-7.699
-6.886
-6.078
-5.278
-4.488
-3.714
-2.962
-2.241
-1.561
-0.929
-0.353
0.161
0.606
0.979
1.278
1.505
1.664
1.756
1.775
1.713
1.556
1.297
0.941
0.49
-0.044
-0.641
-1.27
-1.881
-2.414
-2.836
-3.123
-3.268
-3.277
-3.148
-2.868
-2.438
-1.852
-1.109
-0.215
0.836
2.036
3.325
4.599
5.705
6.466
6.756
6.493
5.607
4.067
1.846
-1.067
-4.607
-8.678
-13.2
-18.111
-23.384
-28.999
-34.801
-40.487
-45.681
-49.959
-52.946
-54.374
-53.895
-51.074
-45.762
-38.089
-28.53
-17.966
-7.089
3.838
14.392
23.98
32.602
40.655
49.208
60.256
75.146
94.132
117.527
145.494
176.728
208.807
237.915
258.703
266.753
259.163
232.981
185.576
116.741
28.512
-74.775
-186.42
-299.979
-410.029
-510.449
-594.591
-657.917
-697.966
-714.333
-709.402
-686.097
-646.95
-595.656
-537.132
-475.547
-414.684
-357.734
-305.645
-258.806
-217.958
-183.217
-154.206
-130.463
-110.597
-92.732
-76.325
-61.302
-47.436
-34.559
-22.106
-9.642
2.251
12.326
19.935
24.979
27.642
28.256
26.775
23.169
17.976
12.191
6.705
2.082
-1.43
-3.83
-5.023
-4.861
-3.34
-0.6
3.141
7.663
12.813
18.522
24.695
31.184
37.802
44.306
50.496
56.248
61.481
66.158
70.257
73.759
76.674
79.055
80.975
82.508
83.721
84.658
85.371
85.93
86.423
86.954
87.602
88.416
89.433
90.676
92.159
93.899
95.893
98.12
100.561
103.203
106.034
109.049
112.239
115.585
119.062
122.648
126.322
130.065
133.859
137.682
141.514
145.336
149.131
152.885
156.579
160.192
163.702
167.085
170.318
173.38
176.249
178.901
181.318
183.481
185.373
186.979
188.287
189.284
189.959
190.303
190.31
189.976
189.295
188.267
186.891
185.171
183.11
180.715
177.992
174.951
171.602
167.958
164.033
159.843
155.402
150.73
145.844
140.765
135.514
130.112
124.581
118.944
113.222
107.439
101.618
95.78
89.948
84.143
78.384
72.693
67.087
61.586
56.207
50.965
45.875
40.953
36.211
31.66
27.31
23.171
19.25
15.554
12.087
8.854
5.857
3.096
0.572
-1.717
-3.774
-5.602
-7.207
-8.593
-9.77
-10.743
-11.522
-12.115
-12.534
-12.788
-12.888
-12.845
-12.671
-12.377
-11.975
-11.477
-10.895
-10.241
-9.526
-8.76
-7.956
-7.124
-6.274
-5.416
-4.559
-3.712
-2.882
-2.078
-1.306
-0.572
0.118
0.76
1.349
1.882
2.356
2.769
3.119
3.406
3.629
3.788
3.883
3.917
3.889
3.803
3.661
3.464
3.217
2.921
2.581
2.199
1.779
1.325
0.841
0.331
-0.201
-0.752
-1.318
-1.895
-2.48
-3.069
-3.659
-4.249
-4.835
-5.416
-5.99
-6.554
-7.108
-7.65
-8.18
-8.697
-9.202
-9.693
-10.171
-10.638
-11.093
-11.539
-11.976
-12.404
-12.825
-13.239
-13.648
-14.053
-14.456
-14.857
-15.258
-15.661
-16.067
-16.479
-16.896
-17.32
-17.751
-18.189
-18.635
-19.087
-19.544
-20.004
-20.468
-20.932
-21.397
-21.859
-22.317
-22.768
-23.209
-23.636
-24.046
-24.433
-24.794
-25.124
-25.421
-25.68
-25.901
-26.079
-26.213
-26.301
-26.339
-26.328
-26.264
-26.146
-25.971
-25.737
-25.447
-25.102
-24.702
-24.25
-23.751
-23.209
-22.632
-22.025
-21.393
-20.741
-20.074
-19.396
-18.713
-18.029
-17.346
-16.669
-16.006
-15.363
-14.752
-14.18
-13.652
-13.177
-12.759
-12.401
-12.108
-11.879
-11.707
-11.592
-11.538
-11.551
-11.648
-11.836
-12.109
-12.466
-12.897
-13.382
-13.894
-14.385
-14.794
-15.082
-15.226
-15.208
-15.04
-14.717
-14.226
-13.572
-12.744
-11.734
-10.549
-9.186
-7.645
-5.986
-4.308
-2.754
-1.515
-0.724
-0.477
-0.857
-1.898
-3.628
-6.057
-9.106
-12.694
-16.76
-21.26
-26.196
-31.528
-37.065
-42.516
-47.509
-51.599
-54.452
-55.675
-54.754
-51.469
-45.829
-38.128
-29.125
-19.465
-9.424
0.529
9.805
18.422
26.719
35.792
47.649
63.388
83.223
107.445
136.119
168.445
202.638
234.849
259.656
273.187
272.683
255.553
219.606
163.081
86.169
-7.361
-111.349
-220.382
-329.485
-433.712
-527.657
-604.924
-660.884
-694.165
-705.893
-698.049
-672.758
-632.21
-579.897
-521.068
-460.632
-402.476
-348.662
-299.635
-255.954
-218.353
-186.79
-160.533
-138.115
-117.293
-97.066
-77.773
-59.543
-42.533
-26.752
-11.647
2.461
14.214
22.994
28.796
31.786
32.639
31.724
28.812
24.225
18.825
13.317
8.396
4.495
1.593
-0.241
-0.796
-0.018
2.056
5.329
9.552
14.524
20.129
26.231
32.717
39.451
46.225
52.821
59.059
64.813
70.021
74.658
78.694
82.109
84.914
87.156
88.921
90.291
91.333
92.099
92.644
93.037
93.373
93.748
94.235
94.88
95.714
96.754
98.021
99.531
101.279
103.248
105.418
107.774
110.306
113.01
115.874
118.877
121.996
125.208
128.494
131.836
135.217
138.615
142.011
145.387
148.727
152.016
155.237
158.369
161.389
164.276
167.008
169.564
171.923
174.063
175.965
177.613
178.99
180.085
180.884
181.377
181.554
181.409
180.936
180.132
178.995
177.523
175.718
173.585
171.128
168.354
165.271
161.888
158.218
154.271
150.064
145.61
140.925
136.027
130.935
125.666
120.243
114.685
109.013
103.249
97.414
91.531
85.62
79.702
73.798
67.927
62.108
56.359
50.697
45.139
39.699
34.393
29.232
24.231
19.399
14.748
10.285
6.018
1.953
-1.903
-5.547
-8.977
-12.189
-15.185
-17.963
-20.526
-22.876
-25.016
-26.952
-28.689
-30.234
-31.593
-32.774
-33.786
-34.638
-35.339
-35.898
-36.326
-36.631
-36.825
-36.917
-36.916
-36.834
-36.68
-36.463
-36.193
-35.878
-35.529
-35.152
-34.757
-34.35
-33.94
-33.532
-33.133
-32.748
-32.383
-32.043
-31.731
-31.451
-31.206
-30.998
-30.829
-30.701
-30.614
-30.569
-30.566
-30.604
-30.682
-30.801
-30.958
-31.152
-31.382
-31.645
-31.94
-32.265
-32.616
-32.992
-33.39
-33.808
-34.243
-34.691
-35.152
-35.622
-36.098
-36.578
-37.061
-37.542
-38.021
-38.494
-38.961
-39.419
-39.867
-40.303
-40.728
-41.139
-41.537
-41.921
-42.292
-42.648
-42.991
-43.32
-43.636
-43.938
-44.229
-44.508
-44.777
-45.037
-45.289
-45.535
-45.777
-46.015
-46.251
-46.485
-46.719
-46.955
-47.192
-47.433
-47.679
-47.931
-48.191
-48.459
-48.737
-49.024
-49.321
-49.627
-49.943
-50.266
-50.595
-50.93
-51.267
-51.605
-51.944
-52.28
-52.611
-52.936
-53.25
-53.55
-53.832
-54.092
-54.325
-54.527
-54.694
-54.823
-54.911
-54.955
-54.954
-54.905
-54.806
-54.655
-54.451
-54.191
-53.874
-53.498
-53.062
-52.57
-52.021
-51.419
-50.767
-50.069
-49.33
-48.557
-47.756
-46.932
-46.09
-45.233
-44.366
-43.494
-42.623
-41.756
-40.899
-40.06
-39.246
-38.468
-37.735
-37.052
-36.424
-35.854
-35.343
-34.894
-34.505
-34.17
-33.89
-33.668
-33.512
-33.437
-33.453
-33.556
-33.74
-33.992
-34.285
-34.588
-34.86
-35.054
-35.134
-35.086
-34.899
-34.585
-34.147
-33.577
-32.866
-31.993
-30.937
-29.687
-28.249
-26.638
-24.924
-23.228
-21.684
-20.454
-19.67
-19.407
-19.728
-20.657
-22.192
-24.314
-26.97
-30.105
-33.691
-37.722
-42.185
-47.017
-52.002
-56.804
-61.054
-64.333
-66.304
-66.615
-64.813
-60.718
-54.44
-46.36
-37.246
-27.762
-18.153
-8.818
-0.362
7.299
14.639
22.712
33.518
48.322
67.296
90.8
119.053
150.835
183.907
214.442
236.972
247.314
242.675
220.144
177.248
113.279
29.539
-69.738
-177.965
-289.34
-398.625
-500.174
-588.192
-657.334
-704.152
-728.138
-730.911
-714.32
-680.687
-632.762
-573.997
-509.343
-443.18
-378.51
-317.691
-262.324
-213.296
-171.832
-138.904
-113.551
-94.514
-80.461
-69.375
-60.228
-52.686
-45.666
-37.938
-29.306
-19.812
-10.118
-1.793
4.56
9.025
11.401
11.593
9.727
5.951
0.966
-4.01
-8.256
-11.434
-13.325
-13.96
-13.304
-11.265
-7.955
-3.64
1.441
7.078
13.141
19.573
26.264
33.041
39.689
46.003
51.851
57.162
61.902
66.061
69.62
72.587
75.013
76.969
78.532
79.771
80.734
81.47
82.045
82.542
83.053
83.659
84.411
85.343
86.477
87.829
89.411
91.223
93.248
95.468
97.869
100.441
103.181
106.078
109.117
112.277
115.536
118.877
122.282
125.735
129.217
132.71
136.197
139.663
143.095
146.476
149.786
153.006
156.112
159.085
161.904
164.549
166.998
169.234
171.238
172.996
174.493
175.718
176.657
177.3
177.639
177.668
177.38
176.772
175.842
174.588
173.012
171.118
168.909
166.392
163.573
160.461
157.067
153.401
149.478
145.311
140.914
136.304
131.498
126.513
121.369
116.084
110.677
105.169
99.58
93.929
88.237
82.523
76.806
71.104
65.435
59.818
54.269
48.805
43.44
38.19
33.068
28.089
23.263
18.602
14.115
9.813
5.703
1.792
-1.914
-5.41
-8.692
-11.756
-14.602
-17.227
-19.631
-21.817
-23.785
-25.538
-27.081
-28.417
-29.551
-30.49
-31.24
-31.807
-32.2
-32.427
-32.496
-32.415
-32.195
-31.844
-31.373
-30.79
-30.106
-29.331
-28.474
-27.545
-26.554
-25.51
-24.422
-23.3
-22.151
-20.984
-19.809
-18.631
-17.459
-16.3
-15.16
-14.046
-12.963
-11.916
-10.91
-9.95
-9.04
-8.181
-7.378
-6.632
-5.946
-5.319
-4.753
-4.248
-3.803
-3.419
-3.093
-2.823
-2.609
-2.448
-2.338
-2.275
-2.257
-2.282
-2.345
-2.445
-2.577
-2.739
-2.926
-3.137
-3.368
-3.615
-3.876
-4.147
-4.425
-4.707
-4.992
-5.276
-5.557
-5.833
-6.104
-6.367
-6.621
-6.867
-7.104
-7.332
-7.552
-7.763
-7.968
-8.167
-8.362
-8.556
-8.749
-8.946
-9.147
-9.355
-9.571
-9.799
-10.039
-10.293
-10.563
-10.85
-11.156
-11.481
-11.827
-12.194
-12.584
-12.997
-13.432
-13.889
-14.367
-14.865
-15.38
-15.91
-16.452
-17.003
-17.56
-18.119
-18.676
-19.227
-19.768
-20.292
-20.795
-21.27
-21.711
-22.112
-22.466
-22.768
-23.014
-23.198
-23.318
-23.37
-23.351
-23.257
-23.088
-22.841
-22.516
-22.111
-21.624
-21.058
-20.414
-19.697
-18.908
-18.053
-17.139
-16.172
-15.161
-14.116
-13.042
-11.947
-10.839
-9.725
-8.611
-7.507
-6.417
-5.349
-4.314
-3.321
-2.382
-1.506
-0.701
0.026
0.67
1.229
1.7
2.082
2.381
2.593
2.717
2.746
2.668
2.475
2.172
1.768
1.278
0.73
0.162
-0.386
-0.864
-1.241
-1.494
-1.609
-1.59
-1.428
-1.122
-0.671
-0.05
0.759
1.759
2.945
4.286
5.696
7.064
8.266
9.148
9.603
9.546
8.911
7.678
5.836
3.426
0.525
-2.81
-6.549
-10.655
-15.101
-19.782
-24.438
-28.757
-32.399
-34.963
-36.15
-35.607
-32.879
-27.801
-20.487
-11.332
-1.136
9.428
20.097
30.407
39.708
48.006
55.687
63.814
74.404
88.751
107.118
129.921
157.428
188.504
220.944
250.926
273.03
283.036
278.068
255.177
211.779
147.1
62.512
-37.738
-147.029
-259.389
-369.547
-471.798
-559.99
-628.609
-674.112
-695.839
-695.781
-676.275
-639.649
-588.765
-527.675
-461.593
-395.407
-332.681
-274.951
-222.933
-177.409
-139.282
-108.936
-85.205
-65.997
-49.094
-33.463
-19.044
-5.756
6.927
19.925
33.414
46.578
57.993
66.725
72.733
76.327
77.764
76.924
73.792
68.871
63.168
57.691
53.017
49.386
46.83
45.421
45.315
46.557
49.022
52.497
56.771
61.679
67.139
73.091
79.411
85.943
92.484
98.798
104.726
110.178
115.098
119.465
123.26
126.467
129.116
131.285
133.052
134.493
135.664
136.6
137.356
138.01
138.649
139.37
140.237
141.29
142.559
144.062
145.818
147.835
150.107
152.609
155.32
158.227
161.32
164.594
168.036
171.624
175.336
179.151
183.048
187.01
191.019
195.053
199.092
203.12
207.119
211.076
214.973
218.789
222.503
226.094
229.542
232.825
235.925
238.82
241.492
243.924
246.101
248.01
249.639
250.976
252.011
252.737
253.148
253.239
253.006
252.448
251.565
250.358
248.832
246.991
244.84
242.388
239.643
236.616
233.318
229.762
225.961
221.929
217.683
213.239
208.613
203.823
198.887
193.823
188.649
183.384
178.047
172.656
167.229
161.783
156.336
150.903
145.502
140.148
134.855
129.638
124.51
119.482
114.568
109.777
105.119
100.603
96.236
92.025
87.977
84.095
80.383
76.845
73.483
70.296
67.286
64.452
61.792
59.305
56.986
54.833
52.841
51.006
49.322
47.784
46.384
45.117
43.976
42.953
42.041
41.232
40.519
39.894
39.349
38.876
38.469
38.119
37.819
37.563
37.343
37.154
36.988
36.84
36.704
36.575
36.448
36.319
36.182
36.035
35.872
35.691
35.489
35.262
35.008
34.724
34.408
34.058
33.672
33.249
32.787
32.286
31.745
31.162
30.538
29.873
29.165
28.414
27.622
26.787
25.91
24.992
24.031
23.03
21.988
20.906
19.784
18.624
17.425
16.189
14.916
13.608
12.266
10.89
9.482
8.044
6.577
5.083
3.564
2.022
0.459
-1.122
-2.72
-4.332
-5.957
-7.591
-9.232
-10.88
-12.53
-14.181
-15.83
-17.475
-19.113
-20.743
-22.362
-23.967
-25.558
-27.132
-28.688
-30.224
-31.738
-33.228
-34.692
-36.13
-37.538
-38.916
-40.262
-41.575
-42.854
-44.099
-45.308
-46.481
-47.619
-48.719
-49.781
-50.805
-51.789
-52.733
-53.635
-54.494
-55.309
-56.079
-56.803
-57.481
-58.112
-58.695
-59.228
-59.712
-60.143
-60.52
-60.841
-61.105
-61.31
-61.457
-61.544
-61.574
-61.547
-61.462
-61.322
-61.127
-60.88
-60.58
-60.229
-59.828
-59.381
-58.89
-58.36
-57.795
-57.2
-56.582
-55.947
-55.305
-54.662
-54.024
-53.397
-52.787
-52.198
-51.635
-51.103
-50.605
-50.146
-49.731
-49.368
-49.066
-48.829
-48.663
-48.571
-48.556
-48.615
-48.751
-48.959
-49.233
-49.57
-49.971
-50.441
-50.991
-51.626
-52.34
-53.125
-53.963
-54.826
-55.674
-56.464
-57.147
-57.689
-58.067
-58.268
-58.294
-58.138
-57.803
-57.289
-56.575
-55.643
-54.489
-53.121
-51.57
-49.929
-48.313
-46.853
-45.706
-44.985
-44.779
-45.159
-46.155
-47.773
-49.97
-52.667
-55.808
-59.369
-63.324
-67.646
-72.229
-76.804
-81.05
-84.62
-87.11
-88.218
-87.587
-84.757
-79.573
-72.178
-63.008
-52.887
-42.491
-32.05
-21.992
-12.956
-4.906
2.588
10.616
21.22
35.668
54.14
76.965
104.331
134.993
166.654
195.45
215.958
224.011
216.81
191.481
145.572
78.458
-8.251
-110.104
-220.622
-333.998
-445.048
-548.226
-637.384
-706.913
-753.686
-777.46
-779.61
-761.971
-726.499
-675.429
-613.086
-545.262
-476.338
-409.491
-347.497
-292.04
-244.833
-208.088
-181.815
-164.075
-153.313
-147.546
-144.43
-142.879
-141.661
-138.774
-133.523
-126.245
-117.26
-107.754
-99.261
-92.253
-87.051
-84.208
-83.668
-85.157
-88.365
-92.423
-96.278
-99.388
-101.43
-102.192
-101.734
-100.063
-97.154
-93.185
-88.414
-83.042
-77.249
-71.173
-64.866
-58.449
-52.112
-46.008
-40.286
-35.047
-30.318
-26.111
-22.445
-19.315
-16.695
-14.547
-12.801
-11.388
-10.261
-9.363
-8.634
-8.003
-7.375
-6.673
-5.839
-4.831
-3.623
-2.2
-0.545
1.347
3.464
5.798
8.339
11.077
14.011
17.135
20.435
23.893
27.487
31.199
35.012
38.91
42.875
46.889
50.935
54.999
59.067
63.124
67.15
71.123
75.021
78.822
82.506
86.049
89.43
92.627
95.621
98.394
100.931
103.217
105.236
106.977
108.427
109.578
110.421
110.951
111.161
111.05
110.614
109.857
108.779
107.385
105.681
103.672
101.368
98.778
95.914
92.787
89.413
85.804
81.977
77.95
73.74
69.367
64.848
60.205
55.457
50.626
45.731
40.792
35.831
30.865
25.915
21
16.138
11.346
6.641
2.041
-2.44
-6.787
-10.986
-15.025
-18.893
-22.579
-26.073
-29.367
-32.455
-35.329
-37.986
-40.421
-42.632
-44.617
-46.376
-47.909
-49.219
-50.308
-51.179
-51.839
-52.292
-52.545
-52.606
-52.483
-52.184
-51.719
-51.098
-50.331
-49.429
-48.403
-47.264
-46.025
-44.695
-43.288
-41.815
-40.286
-38.714
-37.108
-35.481
-33.841
-32.2
-30.567
-28.95
-27.359
-25.802
-24.286
-22.818
-21.405
-20.052
-18.765
-17.548
-16.406
-15.34
-14.354
-13.449
-12.627
-11.887
-11.229
-10.653
-10.157
-9.739
-9.396
-9.124
-8.921
-8.783
-8.705
-8.682
-8.711
-8.784
-8.899
-9.048
-9.228
-9.432
-9.655
-9.893
-10.139
-10.389
-10.637
-10.879
-11.11
-11.325
-11.521
-11.694
-11.84
-11.957
-12.042
-12.092
-12.107
-12.084
-12.025
-11.927
-11.792
-11.62
-11.412
-11.17
-10.897
-10.595
-10.266
-9.914
-9.543
-9.157
-8.759
-8.353
-7.944
-7.535
-7.131
-6.737
-6.356
-5.994
-5.655
-5.343
-5.062
-4.817
-4.612
-4.448
-4.328
-4.256
-4.233
-4.26
-4.338
-4.469
-4.651
-4.886
-5.172
-5.508
-5.891
-6.319
-6.788
-7.294
-7.832
-8.398
-8.985
-9.588
-10.2
-10.817
-11.433
-12.04
-12.634
-13.206
-13.75
-14.258
-14.723
-15.137
-15.494
-15.786
-16.008
-16.156
-16.225
-16.213
-16.116
-15.93
-15.656
-15.291
-14.835
-14.287
-13.646
-12.916
-12.1
-11.201
-10.226
-9.182
-8.074
-6.913
-5.709
-4.472
-3.21
-1.932
-0.647
0.639
1.916
3.177
4.415
5.621
6.784
7.895
8.94
9.908
10.791
11.583
12.279
12.877
13.373
13.769
14.069
14.276
14.385
14.39
14.276
14.036
13.674
13.201
12.63
11.991
11.321
10.66
10.061
9.562
9.184
8.936
8.812
8.81
8.938
9.212
9.653
10.285
11.118
12.147
13.357
14.683
16.007
17.199
18.097
18.572
18.551
17.973
16.816
15.078
12.774
9.952
6.666
2.947
-1.195
-5.741
-10.631
-15.655
-20.483
-24.759
-28.074
-30.095
-30.483
-28.789
-24.816
-18.635
-10.58
-1.372
8.334
18.268
28.002
36.902
44.993
52.666
60.888
71.593
86.055
104.544
127.535
155.343
186.894
220.097
251.221
274.883
286.911
284.427
264.401
224.174
162.732
81.085
-16.739
-124.29
-235.829
-346.248
-449.998
-541.035
-613.627
-663.852
-690.745
-695.986
-681.581
-649.589
-602.55
-544.262
-480.005
-414.826
-352.474
-294.71
-242.416
-196.493
-158.006
-127.436
-103.564
-84.253
-67.211
-51.307
-36.465
-22.61
-9.228
4.526
18.74
32.557
44.509
53.624
59.856
63.5
64.823
63.758
60.323
55.035
48.905
42.936
37.708
33.485
30.318
28.291
27.576
28.227
30.134
33.105
36.937
41.466
46.604
52.273
58.341
64.648
70.986
77.113
82.866
88.148
92.894
97.084
100.695
103.705
106.14
108.07
109.569
110.714
111.563
112.153
112.542
112.809
113.045
113.349
113.791
114.409
115.234
116.287
117.584
119.135
120.935
122.957
125.183
127.598
130.192
132.962
135.893
138.962
142.147
145.426
148.777
152.183
155.625
159.08
162.529
165.954
169.34
172.672
175.931
179.098
182.151
185.069
187.83
190.414
192.8
194.968
196.9
198.578
199.989
201.119
201.956
202.491
202.713
202.617
202.197
201.449
200.372
198.963
197.225
195.16
192.774
190.072
187.062
183.753
180.154
176.279
172.141
167.753
163.13
158.29
153.249
148.025
142.639
137.109
131.455
125.698
119.858
113.957
108.014
102.051
96.086
90.14
84.23
78.375
72.593
66.9
61.311
55.841
50.505
45.317
40.287
35.428
30.749
26.26
21.968
17.88
14.003
10.34
6.894
3.669
0.665
-2.117
-4.679
-7.022
-9.149
-11.065
-12.774
-14.282
-15.595
-16.72
-17.665
-18.437
-19.047
-19.502
-19.811
-19.985
-20.032
-19.962
-19.785
-19.511
-19.149
-18.709
-18.2
-17.632
-17.014
-16.354
-15.661
-14.943
-14.208
-13.461
-12.712
-11.964
-11.225
-10.5
-9.792
-9.107
-8.447
-7.816
-7.217
-6.651
-6.12
-5.625
-5.168
-4.748
-4.366
-4.022
-3.716
-3.447
-3.214
-3.017
-2.855
-2.725
-2.628
-2.562
-2.525
-2.516
-2.533
-2.575
-2.64
-2.727
-2.834
-2.959
-3.102
-3.26
-3.432
-3.618
-3.817
-4.027
-4.248
-4.479
-4.722
-4.975
-5.239
-5.513
-5.798
-6.094
-6.401
-6.72
-7.05
-7.391
-7.745
-8.111
-8.49
-8.882
-9.287
-9.705
-10.136
-10.579
-11.034
-11.5
-11.977
-12.465
-12.962
-13.469
-13.985
-14.51
-15.043
-15.582
-16.126
-16.674
-17.222
-17.769
-18.312
-18.848
-19.373
-19.886
-20.384
-20.864
-21.323
-21.758
-22.165
-22.542
-22.884
-23.189
-23.452
-23.669
-23.838
-23.955
-24.021
-24.034
-23.992
-23.894
-23.74
-23.529
-23.261
-22.935
-22.549
-22.105
-21.602
-21.044
-20.433
-19.772
-19.066
-18.321
-17.544
-16.742
-15.921
-15.087
-14.245
-13.399
-12.555
-11.717
-10.887
-10.069
-9.268
-8.494
-7.755
-7.059
-6.414
-5.824
-5.295
-4.832
-4.438
-4.112
-3.847
-3.643
-3.5
-3.43
-3.447
-3.561
-3.765
-4.053
-4.419
-4.846
-5.311
-5.772
-6.164
-6.437
-6.565
-6.539
-6.366
-6.046
-5.566
-4.907
-4.067
-3.054
-1.888
-0.577
0.877
2.442
4.034
5.504
6.653
7.323
7.415
6.87
5.644
3.705
1.019
-2.408
-6.471
-11.059
-16.081
-21.489
-27.269
-33.319
-39.383
-45.077
-49.958
-53.626
-55.797
-56.151
-54.258
-49.927
-43.211
-34.447
-24.434
-13.864
-3.03
7.626
17.523
26.672
35.408
44.605
56.019
70.804
89.176
111.493
137.948
167.423
197.817
225.616
245.904
254.841
249.839
228.164
187.376
126.767
47.63
-46.152
-148.468
-253.759
-357.205
-453.25
-535.856
-599.933
-642.179
-662.014
-661.514
-643.039
-608.785
-562.2
-507.789
-450.282
-394.219
-342.38
-295.392
-253.557
-217.324
-186.36
-160.019
-137.226
-115.927
-94.99
-74.627
-55.129
-36.81
-20.106
-4.918
8.756
19.926
28.045
33.22
35.624
35.834
34.449
31.603
27.444
22.646
17.823
13.453
9.99
7.522
6.047
5.705
6.592
8.678
11.894
16.091
21.058
26.665
32.791
39.285
46.008
52.778
59.381
65.647
71.46
76.747
81.475
85.629
89.193
92.178
94.63
96.618
98.218
99.495
100.503
101.301
101.957
102.555
103.189
103.929
104.82
105.896
107.178
108.681
110.42
112.393
114.585
116.978
119.561
122.324
125.262
128.365
131.613
134.987
138.464
142.025
145.653
149.329
153.035
156.75
160.456
164.136
167.777
171.358
174.86
178.259
181.533
184.659
187.617
190.384
192.937
195.257
197.325
199.124
200.64
201.858
202.766
203.352
203.607
203.525
203.099
202.325
201.2
199.725
197.9
195.73
193.218
190.373
187.201
183.712
179.919
175.834
171.471
166.845
161.974
156.874
151.565
146.067
140.399
134.584
128.641
122.594
116.464
110.274
104.046
97.8
91.558
85.34
79.168
73.058
67.032
61.105
55.294
49.616
44.086
38.717
33.522
28.512
23.698
19.089
14.692
10.515
6.563
2.84
-0.65
-3.906
-6.927
-9.714
-12.266
-14.588
-16.683
-18.555
-20.21
-21.653
-22.893
-23.937
-24.793
-25.471
-25.979
-26.329
-26.531
-26.594
-26.531
-26.351
-26.066
-25.687
-25.225
-24.69
-24.093
-23.445
-22.756
-22.034
-21.291
-20.534
-19.773
-19.015
-18.268
-17.54
-16.837
-16.164
-15.529
-14.936
-14.39
-13.896
-13.456
-13.074
-12.752
-12.493
-12.299
-12.169
-12.105
-12.106
-12.173
-12.305
-12.5
-12.757
-13.075
-13.452
-13.885
-14.374
-14.915
-15.506
-16.145
-16.829
-17.555
-18.32
-19.123
-19.961
-20.83
-21.729
-22.655
-23.606
-24.579
-25.573
-26.584
-27.609
-28.646
-29.693
-30.747
-31.806
-32.868
-33.93
-34.991
-36.051
-37.106
-38.155
-39.197
-40.229
-41.25
-42.257
-43.249
-44.222
-45.175
-46.105
-47.01
-47.889
-48.74
-49.56
-50.347
-51.098
-51.81
-52.482
-53.109
-53.687
-54.215
-54.69
-55.11
-55.475
-55.784
-56.035
-56.229
-56.364
-56.441
-56.46
-56.42
-56.322
-56.164
-55.95
-55.682
-55.363
-54.997
-54.589
-54.143
-53.668
-53.17
-52.654
-52.125
-51.589
-51.049
-50.51
-49.976
-49.448
-48.932
-48.434
-47.962
-47.524
-47.13
-46.783
-46.49
-46.257
-46.086
-45.98
-45.938
-45.951
-46.022
-46.153
-46.353
-46.635
-47.004
-47.454
-47.981
-48.575
-49.213
-49.869
-50.495
-51.032
-51.444
-51.712
-51.825
-51.792
-51.61
-51.263
-50.75
-50.067
-49.213
-48.198
-47.025
-45.701
-44.281
-42.869
-41.607
-40.673
-40.193
-40.246
-40.899
-42.185
-44.127
-46.742
-49.975
-53.728
-57.923
-62.491
-67.393
-72.604
-77.972
-83.207
-87.963
-91.814
-94.383
-95.393
-94.476
-91.25
-85.608
-77.676
-67.906
-57.12
-45.918
-34.648
-23.841
-13.918
-4.804
3.984
13.633
25.736
41.182
60.302
83.442
110.391
139.791
168.935
193.688
209.707
213.542
202.439
173.784
125.512
57.58
-27.283
-124.219
-227.823
-332.636
-433.521
-524.882
-600.388
-655.937
-690.216
-703.402
-697.009
-673.626
-635.643
-586.662
-532.096
-475.478
-419.363
-366.563
-318.155
-274.312
-235.814
-202.289
-172.318
-146.142
-123.328
-102.193
-82.598
-64.71
-48.208
-33.576
-21.063
-9.638
0.693
8.879
14.769
18.297
19.535
19.234
17.661
14.502
10.079
5.218
0.562
-3.24
-5.854
-7.388
-7.788
-6.878
-4.644
-1.17
3.36
8.665
14.545
20.901
27.633
34.627
41.712
48.658
55.273
61.436
67.078
72.176
76.702
80.635
83.983
86.789
89.131
91.092
92.738
94.119
95.289
96.31
97.262
98.244
99.326
100.556
101.964
103.568
105.384
107.427
109.695
112.168
114.827
117.656
120.646
123.79
127.077
130.486
133.997
137.584
141.229
144.914
148.621
152.329
156.021
159.678
163.285
166.828
170.291
173.654
176.896
179.996
182.934
185.691
188.247
190.58
192.674
194.511
196.079
197.364
198.354
199.039
199.41
199.46
199.183
198.576
197.637
196.364
194.759
192.825
190.568
187.995
185.112
181.929
178.457
174.709
170.697
166.437
161.944
157.234
152.325
147.235
141.984
136.591
131.077
125.46
119.763
114.006
108.209
102.393
96.577
90.781
85.022
79.319
73.69
68.151
62.716
57.402
52.222
47.189
42.315
37.611
33.085
28.747
24.604
20.662
16.926
13.399
10.084
6.984
4.098
1.427
-1.031
-3.278
-5.318
-7.154
-8.792
-10.237
-11.496
-12.575
-13.482
-14.225
-14.813
-15.253
-15.556
-15.73
-15.785
-15.73
-15.576
-15.331
-15.006
-14.61
-14.152
-13.641
-13.087
-12.498
-11.882
-11.246
-10.599
-9.946
-9.295
-8.65
-8.019
-7.405
-6.814
-6.249
-5.715
-5.213
-4.748
-4.322
-3.936
-3.591
-3.289
-3.031
-2.818
-2.648
-2.524
-2.443
-2.406
-2.412
-2.46
-2.547
-2.673
-2.836
-3.034
-3.264
-3.525
-3.814
-4.13
-4.471
-4.834
-5.219
-5.623
-6.044
-6.482
-6.935
-7.401
-7.879
-8.368
-8.868
-9.376
-9.894
-10.42
-10.954
-11.497
-12.047
-12.604
-13.168
-13.738
-14.313
-14.892
-15.477
-16.065
-16.657
-17.253
-17.853
-18.457
-19.066
-19.679
-20.296
-20.916
-21.538
-22.162
-22.787
-23.409
-24.028
-24.643
-25.252
-25.853
-26.446
-27.028
-27.596
-28.148
-28.682
-29.194
-29.681
-30.139
-30.565
-30.958
-31.316
-31.638
-31.924
-32.172
-32.381
-32.551
-32.683
-32.775
-32.826
-32.835
-32.802
-32.73
-32.619
-32.473
-32.294
-32.085
-31.853
-31.604
-31.344
-31.078
-30.809
-30.543
-30.282
-30.032
-29.795
-29.573
-29.368
-29.187
-29.035
-28.922
-28.852
-28.83
-28.86
-28.945
-29.087
-29.286
-29.539
-29.838
-30.18
-30.569
-31.01
-31.519
-32.101
-32.75
-33.462
-34.228
-35.026
-35.827
-36.582
-37.226
-37.723
-38.049
-38.191
-38.158
-37.942
-37.527
-36.917
-36.103
-35.079
-33.853
-32.423
-30.795
-29.039
-27.266
-25.634
-24.335
-23.503
-23.222
-23.578
-24.606
-26.34
-28.794
-31.88
-35.507
-39.622
-44.179
-49.171
-54.544
-60.076
-65.429
-70.214
-73.985
-76.406
-77.125
-75.65
-71.765
-65.512
-57.195
-47.602
-37.437
-26.982
-16.688
-7.163
1.654
10.174
19.38
31.222
46.949
66.79
91.156
120.264
152.929
186.946
218.508
242.23
253.971
250.907
230.091
188.994
126.781
44.628
-53.332
-160.625
-271.55
-380.953
-483.258
-572.684
-643.786
-692.965
-719.575
-725.143
-711.399
-680.54
-635.184
-578.662
-515.911
-451.348
-387.992
-328.213
-273.621
-225.103
-183.907
-151.028
-125.482
-106.007
-91.287
-79.309
-69.073
-60.284
-51.904
-42.785
-32.801
-22.023
-11.126
-1.683
5.704
11.103
14.313
15.278
14.143
11.061
6.724
2.316
-1.455
-4.241
-5.817
-6.202
-5.351
-3.162
0.267
4.698
9.906
15.691
21.924
28.538
35.416
42.381
49.215
55.711
61.736
67.211
72.101
76.392
80.062
83.113
85.592
87.561
89.091
90.25
91.082
91.641
91.996
92.231
92.447
92.729
93.131
93.692
94.44
95.391
96.562
97.957
99.561
101.36
103.345
105.51
107.853
110.37
113.045
115.861
118.798
121.838
124.967
128.168
131.424
134.72
138.037
141.364
144.688
147.993
151.261
154.471
157.6
160.628
163.534
166.296
168.89
171.298
173.498
175.475
177.212
178.693
179.905
180.834
181.471
181.804
181.827
181.533
180.918
179.978
178.711
177.121
175.208
172.976
170.431
167.58
164.432
160.997
157.287
153.315
149.094
144.64
139.97
135.101
130.053
124.844
119.494
114.025
108.457
102.813
97.112
91.376
85.626
79.883
74.165
68.492
62.884
57.358
51.931
46.619
41.439
36.404
31.528
26.824
22.302
17.973
13.846
9.928
6.227
2.747
-0.507
-3.532
-6.327
-8.891
-11.224
-13.329
-15.207
-16.863
-18.301
-19.528
-20.55
-21.374
-22.009
-22.463
-22.746
-22.867
-22.836
-22.665
-22.362
-21.939
-21.407
-20.777
-20.059
-19.263
-18.401
-17.482
-16.517
-15.515
-14.485
-13.438
-12.38
-11.321
-10.268
-9.228
-8.207
-7.212
-6.247
-5.318
-4.428
-3.582
-2.783
-2.032
-1.333
-0.686
-0.092
0.447
0.932
1.362
1.739
2.064
2.336
2.559
2.732
2.858
2.939
2.976
2.972
2.929
2.848
2.733
2.586
2.409
2.204
1.975
1.722
1.448
1.155
0.843
0.515
0.172
-0.186
-0.558
-0.944
-1.342
-1.752
-2.175
-2.61
-3.058
-3.519
-3.994
-4.484
-4.989
-5.51
-6.048
-6.603
-7.175
-7.764
-8.372
-8.997
-9.641
-10.303
-10.983
-11.682
-12.4
-13.137
-13.893
-14.666
-15.455
-16.258
-17.074
-17.899
-18.732
-19.568
-20.404
-21.239
-22.068
-22.887
-23.694
-24.482
-25.249
-25.988
-26.695
-27.363
-27.987
-28.562
-29.084
-29.548
-29.952
-30.293
-30.567
-30.772
-30.905
-30.965
-30.95
-30.857
-30.684
-30.431
-30.098
-29.687
-29.201
-28.643
-28.017
-27.328
-26.586
-25.795
-24.963
-24.095
-23.197
-22.274
-21.334
-20.38
-19.417
-18.45
-17.489
-16.541
-15.618
-14.729
-13.882
-13.083
-12.339
-11.657
-11.039
-10.486
-9.992
-9.56
-9.194
-8.902
-8.705
-8.608
-8.608
-8.705
-8.89
-9.143
-9.435
-9.717
-9.927
-10.027
-9.996
-9.817
-9.502
-9.045
-8.43
-7.664
-6.736
-5.635
-4.367
-2.927
-1.322
0.385
2.081
3.609
4.778
5.447
5.525
4.93
3.628
1.593
-1.179
-4.602
-8.595
-13.102
-18.081
-23.532
-29.404
-35.484
-41.444
-46.879
-51.319
-54.406
-55.756
-54.868
-51.525
-45.769
-37.924
-28.776
-19.018
-8.934
1.023
10.256
18.848
27.27
36.595
48.803
65.155
85.867
111.329
141.786
176.036
211.793
245.131
270.489
283.571
281.466
261.135
219.901
156.862
73.18
-26.954
-136.832
-250.537
-362.733
-467.627
-559.245
-631.995
-682.172
-709.133
-714.501
-700.105
-668.274
-621.781
-564.084
-500.262
-434.828
-370.815
-310.615
-255.849
-207.374
-166.413
-133.92
-108.824
-89.802
-75.513
-63.926
-54.036
-45.551
-37.412
-28.471
-18.629
-8
2.711
11.937
19.093
24.259
27.233
27.944
26.531
23.166
18.555
13.88
9.841
6.773
4.893
4.185
4.697
6.529
9.579
13.604
18.375
23.697
29.446
35.56
41.927
48.373
54.682
60.656
66.169
71.148
75.562
79.4
82.644
85.301
87.422
89.071
90.322
91.243
91.88
92.286
92.531
92.697
92.884
93.179
93.633
94.285
95.162
96.281
97.657
99.293
101.172
103.28
105.605
108.138
110.878
113.815
116.934
120.213
123.63
127.165
130.799
134.513
138.286
142.099
145.931
149.765
153.587
157.376
161.111
164.769
168.324
171.754
175.034
178.141
181.05
183.738
186.186
188.374
190.285
191.904
193.214
194.203
194.86
195.176
195.142
194.753
194.005
192.895
191.424
189.593
187.408
184.874
181.998
178.789
175.259
171.421
167.288
162.875
158.201
153.281
148.137
142.787
137.254
131.558
125.722
119.768
113.721
107.602
101.434
95.241
89.044
82.864
76.722
70.64
64.636
58.728
52.935
47.272
41.756
36.402
31.221
26.226
21.428
16.835
12.456
8.297
4.364
0.66
-2.812
-6.051
-9.056
-11.828
-14.37
-16.685
-18.776
-20.65
-22.312
-23.77
-25.03
-26.102
-26.994
-27.715
-28.275
-28.686
-28.955
-29.096
-29.117
-29.03
-28.845
-28.573
-28.225
-27.809
-27.336
-26.816
-26.257
-25.667
-25.056
-24.429
-23.795
-23.16
-22.529
-21.908
-21.302
-20.715
-20.151
-19.613
-19.104
-18.626
-18.181
-17.77
-17.394
-17.055
-16.752
-16.485
-16.254
-16.058
-15.896
-15.768
-15.671
-15.605
-15.567
-15.556
-15.571
-15.608
-15.667
-15.745
-15.841
-15.953
-16.078
-16.215
-16.363
-16.519
-16.683
-16.853
-17.028
-17.207
-17.388
-17.572
-17.757
-17.943
-18.128
-18.312
-18.495
-18.675
-18.853
-19.029
-19.201
-19.371
-19.538
-19.703
-19.867
-20.028
-20.189
-20.35
-20.51
-20.672
-20.836
-21.002
-21.172
-21.348
-21.53
-21.72
-21.92
-22.131
-22.353
-22.588
-22.836
-23.098
-23.376
-23.668
-23.977
-24.303
-24.646
-25.007
-25.388
-25.788
-26.207
-26.645
-27.1
-27.571
-28.058
-28.557
-29.067
-29.586
-30.111
-30.64
-31.172
-31.702
-32.229
-32.747
-33.254
-33.745
-34.215
-34.66
-35.073
-35.452
-35.791
-36.089
-36.343
-36.549
-36.704
-36.806
-36.853
-36.843
-36.774
-36.642
-36.446
-36.186
-35.863
-35.477
-35.032
-34.53
-33.976
-33.377
-32.739
-32.068
-31.367
-30.643
-29.899
-29.141
-28.372
-27.595
-26.815
-26.037
-25.271
-24.526
-23.814
-23.14
-22.511
-21.935
-21.417
-20.962
-20.57
-20.236
-19.959
-19.743
-19.597
-19.539
-19.579
-19.71
-19.928
-20.228
-20.594
-21.003
-21.414
-21.764
-22
-22.097
-22.045
-21.85
-21.512
-21.016
-20.343
-19.489
-18.461
-17.276
-15.942
-14.455
-12.847
-11.198
-9.653
-8.411
-7.631
-7.412
-7.816
-8.887
-10.664
-13.185
-16.447
-20.355
-24.798
-29.69
-34.988
-40.682
-46.677
-52.723
-58.434
-63.364
-67.106
-69.364
-69.809
-67.997
-63.714
-56.993
-48.158
-37.998
-27.213
-16.108
-5.136
5.095
14.581
23.668
33.262
45.196
60.711
80.073
103.727
131.965
163.698
196.813
227.624
250.875
262.492
259.655
239.389
199.081
137.787
56.56
-40.566
-147.195
-257.711
-366.984
-469.429
-559.229
-630.821
-680.459
-707.412
-713.145
-699.337
-668.179
-622.287
-564.994
-501.348
-435.924
-371.859
-311.615
-256.86
-208.5
-167.82
-135.857
-111.576
-93.601
-80.503
-70.169
-61.535
-54.271
-47.282
-39.345
-30.31
-20.28
-9.971
-1.005
5.994
11.091
14.068
14.83
13.499
10.225
5.705
1.137
-2.772
-5.687
-7.391
-7.91
-7.2
-5.164
-1.907
2.323
7.299
12.823
18.772
25.086
31.659
38.321
44.862
51.085
56.863
62.123
66.835
70.984
74.554
77.549
80.015
82.016
83.623
84.903
85.9
86.664
87.26
87.767
88.281
88.883
89.621
90.532
91.639
92.956
94.497
96.264
98.239
100.406
102.754
105.274
107.963
110.814
113.809
116.931
120.157
123.47
126.854
130.29
133.762
137.252
140.742
144.218
147.667
151.072
154.415
157.675
160.829
163.858
166.741
169.456
171.983
174.302
176.395
178.246
179.841
181.167
182.209
182.958
183.404
183.539
183.356
182.851
182.02
180.861
179.373
177.56
175.424
172.97
170.204
167.133
163.768
160.12
156.2
152.021
147.599
142.948
138.087
133.032
127.803
122.418
116.898
111.263
105.534
99.731
93.875
87.986
82.084
76.189
70.32
64.495
58.733
53.05
47.464
41.99
36.643
31.439
26.389
21.506
16.8
12.283
7.961
3.844
-0.064
-3.756
-7.23
-10.482
-13.511
-16.316
-18.9
-21.263
-23.409
-25.343
-27.069
-28.594
-29.923
-31.066
-32.03
-32.823
-33.455
-33.935
-34.273
-34.48
-34.566
-34.54
-34.415
-34.2
-33.906
-33.544
-33.123
-32.654
-32.146
-31.608
-31.049
-30.477
-29.901
-29.326
-28.76
-28.208
-27.676
-27.169
-26.69
-26.243
-25.83
-25.453
-25.115
-24.816
-24.556
-24.337
-24.156
-24.014
-23.91
-23.842
-23.809
-23.808
-23.838
-23.895
-23.978
-24.083
-24.208
-24.349
-24.505
-24.67
-24.844
-25.022
-25.202
-25.382
-25.559
-25.729
-25.893
-26.046
-26.188
-26.316
-26.43
-26.528
-26.61
-26.675
-26.723
-26.754
-26.767
-26.763
-26.742
-26.705
-26.651
-26.581
-26.497
-26.398
-26.285
-26.16
-26.024
-25.878
-25.723
-25.561
-25.394
-25.223
-25.051
-24.878
-24.707
-24.538
-24.376
-24.22
-24.074
-23.939
-23.817
-23.711
-23.623
-23.553
-23.503
-23.474
-23.468
-23.484
-23.523
-23.586
-23.674
-23.786
-23.923
-24.085
-24.272
-24.485
-24.721
-24.981
-25.262
-25.562
-25.881
-26.214
-26.559
-26.912
-27.271
-27.633
-27.994
-28.35
-28.696
-29.03
-29.344
-29.634
-29.895
-30.12
-30.304
-30.442
-30.531
-30.566
-30.544
-30.464
-30.321
-30.113
-29.839
-29.498
-29.086
-28.604
-28.05
-27.423
-26.728
-25.965
-25.137
-24.25
-23.308
-22.318
-21.287
-20.224
-19.135
-18.026
-16.903
-15.774
-14.644
-13.52
-12.408
-11.315
-10.25
-9.223
-8.245
-7.326
-6.473
-5.693
-4.991
-4.37
-3.834
-3.381
-3.009
-2.719
-2.514
-2.401
-2.395
-2.502
-2.721
-3.045
-3.458
-3.934
-4.436
-4.924
-5.347
-5.677
-5.888
-5.968
-5.921
-5.741
-5.43
-4.985
-4.386
-3.611
-2.655
-1.525
-0.248
1.089
2.376
3.486
4.264
4.597
4.399
3.601
2.182
0.135
-2.499
-5.637
-9.224
-13.227
-17.613
-22.354
-27.347
-32.332
-36.994
-40.988
-43.906
-45.44
-45.231
-42.816
-38.027
-30.978
-22.066
-12.094
-1.733
8.76
18.93
28.131
36.376
44.064
52.264
62.988
77.519
96.1
119.127
146.86
178.15
210.771
240.89
263.091
273.154
268.224
245.359
201.962
137.259
52.631
-47.674
-157.03
-269.464
-379.719
-482.099
-570.441
-639.223
-684.898
-706.81
-706.971
-687.73
-651.42
-600.899
-540.211
-474.587
-408.945
-346.859
-289.853
-238.634
-193.97
-156.767
-127.431
-104.77
-86.635
-70.774
-56.129
-42.615
-30.147
-18.172
-5.73
7.35
20.22
31.436
40.042
45.979
49.553
50.999
50.17
47.043
42.124
36.416
30.927
26.227
22.544
19.907
18.388
18.142
19.212
21.47
24.707
28.715
33.337
38.498
44.141
50.146
56.361
62.589
68.595
74.226
79.394
84.04
88.148
91.699
94.674
97.105
99.065
100.632
101.877
102.855
103.599
104.163
104.621
105.06
105.574
106.227
107.057
108.093
109.354
110.855
112.607
114.601
116.812
119.22
121.81
124.573
127.503
130.587
133.802
137.126
140.537
144.016
147.544
151.101
154.667
158.221
161.746
165.225
168.644
171.985
175.227
178.351
181.335
184.158
186.8
189.243
191.465
193.45
195.181
196.644
197.828
198.72
199.31
199.591
199.557
199.201
198.522
197.518
196.187
194.532
192.558
190.267
187.668
184.768
181.576
178.103
174.361
170.364
166.126
161.662
156.988
152.122
147.082
141.887
136.555
131.106
125.56
119.937
114.258
108.541
102.808
97.076
91.365
85.691
80.074
74.528
69.071
63.718
58.482
53.376
48.414
43.608
38.966
34.498
30.213
26.118
22.218
18.52
15.025
11.738
8.661
5.793
3.135
0.686
-1.557
-3.596
-5.436
-7.081
-8.536
-9.808
-10.903
-11.829
-12.593
-13.204
-13.67
-14.001
-14.204
-14.29
-14.268
-14.148
-13.938
-13.649
-13.289
-12.868
-12.395
-11.878
-11.325
-10.744
-10.144
-9.53
-8.911
-8.292
-7.68
-7.08
-6.498
-5.937
-5.403
-4.899
-4.429
-3.994
-3.599
-3.245
-2.934
-2.666
-2.443
-2.266
-2.133
-2.045
-2
-1.998
-2.038
-2.118
-2.236
-2.39
-2.578
-2.799
-3.05
-3.328
-3.632
-3.959
-4.306
-4.671
-5.052
-5.447
-5.853
-6.268
-6.69
-7.118
-7.549
-7.981
-8.413
-8.843
-9.269
-9.69
-10.106
-10.515
-10.916
-11.31
-11.697
-12.076
-12.449
-12.816
-13.178
-13.537
-13.892
-14.245
-14.598
-14.953
-15.31
-15.672
-16.041
-16.419
-16.807
-17.209
-17.624
-18.055
-18.502
-18.968
-19.452
-19.956
-20.481
-21.028
-21.597
-22.189
-22.805
-23.445
-24.108
-24.792
-25.496
-26.218
-26.955
-27.704
-28.461
-29.222
-29.985
-30.745
-31.499
-32.242
-32.969
-33.676
-34.356
-35.005
-35.616
-36.183
-36.7
-37.163
-37.568
-37.91
-38.186
-38.393
-38.529
-38.59
-38.575
-38.482
-38.308
-38.051
-37.712
-37.29
-36.789
-36.211
-35.56
-34.841
-34.062
-33.231
-32.356
-31.445
-30.505
-29.542
-28.564
-27.578
-26.589
-25.602
-24.625
-23.668
-22.74
-21.853
-21.018
-20.244
-19.538
-18.909
-18.361
-17.898
-17.519
-17.221
-17.005
-16.875
-16.841
-16.918
-17.111
-17.416
-17.831
-18.345
-18.936
-19.576
-20.214
-20.794
-21.278
-21.644
-21.881
-21.994
-21.978
-21.818
-21.514
-21.056
-20.441
-19.672
-18.743
-17.663
-16.483
-15.303
-14.267
-13.544
-13.256
-13.484
-14.295
-15.719
-17.787
-20.512
-23.837
-27.675
-31.949
-36.599
-41.594
-46.909
-52.401
-57.783
-62.696
-66.738
-69.548
-70.861
-70.339
-67.559
-62.354
-54.834
-45.429
-34.957
-24.094
-13.106
-2.439
7.27
15.993
24.091
32.585
43.435
57.942
76.355
99.065
126.346
157.061
189.025
218.477
240.051
249.563
244.202
221.062
177.562
112.939
28.517
-71.531
-180.618
-292.845
-403.02
-505.483
-594.101
-663.34
-709.576
-732.069
-732.76
-713.926
-677.86
-627.416
-566.629
-500.764
-434.763
-372.224
-314.75
-263.109
-218.086
-180.586
-150.989
-128.082
-109.767
-93.859
-79.282
-65.945
-53.756
-42.156
-30.251
-17.911
-5.949
4.231
11.73
16.551
19.013
19.368
17.541
13.555
7.965
1.82
-3.923
-8.736
-12.405
-14.93
-16.235
-16.16
-14.686
-11.961
-8.206
-3.648
1.554
7.325
13.566
20.126
26.816
33.391
39.648
45.465
50.762
55.502
59.668
63.235
66.211
68.646
70.611
72.182
73.427
74.39
75.125
75.701
76.206
76.743
77.392
78.2
79.203
80.421
81.869
83.561
85.495
87.65
90.006
92.549
95.268
98.158
101.209
104.401
107.713
111.121
114.604
118.146
121.729
125.333
128.939
132.529
136.088
139.604
143.058
146.431
149.702
152.847
155.847
158.681
161.326
163.762
165.969
167.93
169.628
171.049
172.181
173.01
173.527
173.722
173.588
173.121
172.315
171.169
169.681
167.853
165.688
163.191
160.367
157.223
153.768
150.014
145.971
141.653
137.074
132.25
127.197
121.935
116.481
110.855
105.078
99.171
93.154
87.051
80.882
74.669
68.433
62.196
55.977
49.796
43.674
37.628
31.676
25.835
20.122
14.552
9.14
3.897
-1.162
-6.028
-10.69
-15.139
-19.368
-23.371
-27.142
-30.677
-33.973
-37.03
-39.846
-42.424
-44.764
-46.87
-48.746
-50.399
-51.833
-53.056
-54.076
-54.901
-55.541
-56.006
-56.305
-56.45
-56.452
-56.32
-56.068
-55.705
-55.244
-54.696
-54.072
-53.383
-52.641
-51.855
-51.036
-50.194
-49.338
-48.478
-47.622
-46.778
-45.953
-45.154
-44.388
-43.659
-42.973
-42.333
-41.744
-41.209
-40.729
-40.307
-39.944
-39.64
-39.396
-39.21
-39.083
-39.013
-38.997
-39.036
-39.125
-39.263
-39.447
-39.673
-39.94
-40.242
-40.577
-40.942
-41.332
-41.745
-42.176
-42.623
-43.082
-43.55
-44.023
-44.5
-44.976
-45.449
-45.917
-46.377
-46.829
-47.269
-47.697
-48.111
-48.512
-48.898
-49.27
-49.627
-49.968
-50.295
-50.607
-50.905
-51.19
-51.463
-51.725
-51.977
-52.221
-52.459
-52.691
-52.918
-53.141
-53.361
-53.579
-53.797
-54.013
-54.23
-54.448
-54.667
-54.888
-55.112
-55.337
-55.564
-55.792
-56.018
-56.241
-56.46
-56.671
-56.872
-57.061
-57.234
-57.39
-57.525
-57.636
-57.719
-57.77
-57.785
-57.759
-57.688
-57.566
-57.39
-57.156
-56.862
-56.506
-56.086
-55.599
-55.045
-54.422
-53.73
-52.967
-52.132
-51.226
-50.248
-49.202
-48.089
-46.914
-45.681
-44.395
-43.062
-41.692
-40.291
-38.866
-37.422
-35.967
-34.505
-33.043
-31.587
-30.141
-28.712
-27.309
-25.941
-24.617
-23.349
-22.144
-21.005
-19.938
-18.945
-18.027
-17.185
-16.412
-15.708
-15.077
-14.525
-14.069
-13.716
-13.464
-13.306
-13.23
-13.208
-13.206
-13.182
-13.082
-12.869
-12.523
-12.033
-11.409
-10.652
-9.758
-8.719
-7.517
-6.131
-4.555
-2.792
-0.858
1.175
3.19
5.045
6.568
7.627
8.136
8.028
7.284
5.904
3.916
1.388
-1.619
-5.064
-8.924
-13.188
-17.779
-22.483
-26.981
-30.883
-33.757
-35.247
-34.966
-32.492
-27.683
-20.64
-11.758
-1.791
8.676
19.294
29.563
39.095
48.036
56.931
66.955
79.681
95.942
116.037
140.31
168.489
199.176
229.682
255.885
273.517
279.257
270.367
244.162
198.547
133.328
51.058
-43.418
-144.899
-248.303
-348.539
-439.884
-515.84
-571.861
-606.531
-620.524
-615.435
-593.502
-557.319
-510.892
-460.109
-409.544
-361.71
-318.014
-278.81
-244.105
-213.985
-187.442
-162.183
-136.75
-110.641
-83.9
-57.356
-31.764
-7.55
14.508
33.36
48.428
59.512
66.729
70.624
71.722
70.462
67.393
63.081
58.004
52.599
47.274
42.337
38.068
34.699
32.37
31.174
31.17
32.363
34.707
38.107
42.415
47.469
53.118
59.197
65.542
71.974
78.277
84.271
89.832
94.875
99.358
103.26
106.562
109.277
111.456
113.163
114.473
115.455
116.163
116.662
117.029
117.35
117.722
118.22
118.891
119.775
120.895
122.27
123.913
125.825
127.986
130.382
132.999
135.829
138.865
142.097
145.505
149.067
152.761
156.564
160.461
164.43
168.45
172.502
176.565
180.622
184.659
188.655
192.589
196.436
200.173
203.775
207.218
210.48
213.536
216.362
218.939
221.248
223.272
224.995
226.403
227.481
228.218
228.606
228.636
228.303
227.601
226.528
225.083
223.269
221.089
218.547
215.65
212.405
208.824
204.918
200.698
196.181
191.38
186.312
180.997
175.453
169.701
163.761
157.654
151.405
145.034
138.566
132.023
125.427
118.801
112.166
105.545
98.958
92.426
85.968
79.604
73.35
67.225
61.244
55.423
49.775
44.313
39.048
33.991
29.151
24.535
20.152
16.005
12.1
8.439
5.024
1.856
-1.066
-3.743
-6.18
-8.379
-10.346
-12.086
-13.608
-14.917
-16.022
-16.934
-17.66
-18.211
-18.597
-18.829
-18.919
-18.877
-18.714
-18.441
-18.071
-17.613
-17.078
-16.478
-15.821
-15.118
-14.379
-13.612
-12.827
-12.03
-11.231
-10.435
-9.651
-8.883
-8.138
-7.419
-6.733
-6.082
-5.469
-4.897
-4.369
-3.885
-3.447
-3.055
-2.709
-2.41
-2.156
-1.946
-1.779
-1.654
-1.567
-1.518
-1.503
-1.521
-1.569
-1.645
-1.746
-1.871
-2.017
-2.182
-2.365
-2.564
-2.777
-3.002
-3.238
-3.483
-3.737
-3.999
-4.267
-4.542
-4.824
-5.112
-5.408
-5.711
-6.021
-6.339
-6.665
-6.998
-7.341
-7.693
-8.055
-8.429
-8.815
-9.215
-9.629
-10.059
-10.503
-10.964
-11.438
-11.928
-12.429
-12.943
-13.465
-13.995
-14.532
-15.073
-15.617
-16.161
-16.704
-17.24
-17.767
-18.28
-18.775
-19.248
-19.693
-20.105
-20.483
-20.823
-21.121
-21.376
-21.584
-21.741
-21.846
-21.895
-21.887
-21.816
-21.681
-21.482
-21.218
-20.89
-20.501
-20.054
-19.553
-19.004
-18.412
-17.783
-17.12
-16.428
-15.71
-14.97
-14.211
-13.435
-12.65
-11.861
-11.078
-10.312
-9.572
-8.868
-8.209
-7.601
-7.047
-6.554
-6.119
-5.742
-5.422
-5.164
-4.978
-4.884
-4.89
-4.997
-5.204
-5.502
-5.872
-6.289
-6.705
-7.071
-7.346
-7.507
-7.55
-7.487
-7.325
-7.065
-6.704
-6.226
-5.632
-4.929
-4.109
-3.184
-2.19
-1.207
-0.385
0.109
0.141
-0.385
-1.525
-3.298
-5.722
-8.795
-12.472
-16.685
-21.348
-26.385
-31.783
-37.519
-43.489
-49.466
-55.089
-59.958
-63.717
-66.093
-66.755
-65.299
-61.561
-55.611
-47.83
-38.957
-29.586
-19.972
-10.5
-1.717
6.34
13.932
21.993
32.318
45.899
62.896
83.51
107.746
134.849
163.213
189.398
208.555
217.285
213.195
194.069
158.125
103.934
31.851
-54.528
-149.62
-248.569
-346.902
-440.232
-523.765
-591.785
-640.245
-668.037
-676.215
-666.639
-641.256
-602.01
-552.076
-496.19
-438.802
-383.541
-332.299
-285.436
-243.501
-207.218
-176.632
-151.242
-129.743
-109.965
-90.96
-73.026
-56.237
-40.716
-26.373
-12.524
0.592
11.672
20.091
25.787
28.883
30.009
29.467
26.98
22.814
17.785
12.579
7.885
4.115
1.236
-0.698
-1.492
-1.098
0.453
3.067
6.512
10.607
15.257
20.358
25.82
31.528
37.297
42.919
48.224
53.098
57.485
61.367
64.719
67.525
69.797
71.587
72.977
74.047
74.857
75.454
75.883
76.21
76.521
76.908
77.44
78.159
79.094
80.262
81.681
83.364
85.307
87.489
89.887
92.485
95.272
98.24
101.376
104.658
108.061
111.561
115.138
118.771
122.441
126.126
129.804
133.456
137.063
140.611
144.081
147.449
150.695
153.796
156.731
159.478
162.017
164.326
166.388
168.185
169.703
170.928
171.849
172.456
172.74
172.693
172.312
171.593
170.535
169.135
167.398
165.325
162.924
160.199
157.16
153.815
150.175
146.253
142.063
137.62
132.938
128.035
122.93
117.64
112.185
106.586
100.862
95.034
89.124
83.153
77.141
71.109
65.077
59.065
53.091
47.174
41.332
35.581
29.937
24.416
19.031
13.797
8.726
3.83
-0.883
-5.401
-9.717
-13.824
-17.716
-21.388
-24.837
-28.061
-31.058
-33.827
-36.371
-38.69
-40.788
-42.668
-44.336
-45.797
-47.058
-48.125
-49.008
-49.714
-50.252
-50.632
-50.862
-50.954
-50.916
-50.76
-50.495
-50.133
-49.683
-49.156
-48.562
-47.911
-47.213
-46.477
-45.713
-44.928
-44.132
-43.331
-42.532
-41.742
-40.967
-40.212
-39.482
-38.782
-38.114
-37.481
-36.887
-36.332
-35.818
-35.346
-34.916
-34.526
-34.178
-33.869
-33.599
-33.365
-33.166
-33
-32.864
-32.756
-32.673
-32.611
-32.569
-32.542
-32.528
-32.524
-32.527
-32.535
-32.545
-32.556
-32.565
-32.57
-32.57
-32.564
-32.55
-32.527
-32.495
-32.453
-32.402
-32.342
-32.274
-32.199
-32.117
-32.03
-31.941
-31.85
-31.759
-31.669
-31.583
-31.503
-31.431
-31.369
-31.318
-31.283
-31.265
-31.266
-31.288
-31.333
-31.403
-31.498
-31.62
-31.769
-31.946
-32.152
-32.386
-32.648
-32.94
-33.26
-33.608
-33.983
-34.382
-34.804
-35.245
-35.704
-36.177
-36.659
-37.147
-37.638
-38.128
-38.614
-39.091
-39.556
-40.004
-40.431
-40.831
-41.201
-41.534
-41.826
-42.073
-42.27
-42.415
-42.507
-42.542
-42.517
-42.432
-42.285
-42.075
-41.801
-41.462
-41.057
-40.586
-40.052
-39.458
-38.807
-38.104
-37.354
-36.566
-35.747
-34.904
-34.042
-33.168
-32.287
-31.405
-30.526
-29.654
-28.792
-27.946
-27.124
-26.335
-25.588
-24.889
-24.243
-23.656
-23.134
-22.683
-22.303
-21.991
-21.744
-21.563
-21.458
-21.446
-21.533
-21.716
-21.985
-22.329
-22.74
-23.195
-23.656
-24.065
-24.361
-24.502
-24.476
-24.286
-23.924
-23.378
-22.618
-21.628
-20.43
-19.052
-17.51
-15.817
-13.992
-12.1
-10.286
-8.738
-7.636
-7.113
-7.24
-8.062
-9.646
-12.045
-15.278
-19.291
-23.944
-29.11
-34.737
-40.803
-47.228
-53.791
-60.116
-65.737
-70.226
-73.251
-74.443
-73.339
-69.665
-63.405
-54.856
-44.756
-33.833
-22.441
-11.03
-0.198
10.078
20.215
31.201
44.891
62.548
84.423
110.87
142.127
176.984
213.18
246.874
272.605
286.206
284.868
265.612
225.811
164.538
82.842
-15.223
-123.095
-235.096
-346.108
-450.47
-542.36
-616.181
-668.106
-697.395
-705.503
-694.071
-665.273
-621.692
-566.568
-504.888
-441.123
-378.28
-318.845
-264.481
-216.045
-174.87
-142.013
-116.488
-97.094
-82.527
-70.692
-60.583
-51.915
-43.625
-34.599
-24.718
-14.026
-3.23
6.068
13.249
18.35
21.186
21.736
20.145
16.571
11.715
6.758
2.421
-0.926
-3.064
-4.016
-3.733
-2.114
0.75
4.63
9.298
14.557
20.275
26.381
32.76
39.237
45.592
51.623
57.2
62.244
66.724
70.631
73.945
76.671
78.858
80.563
81.86
82.816
83.476
83.891
84.131
84.276
84.427
84.669
85.054
85.621
86.394
87.39
88.623
90.099
91.799
93.709
95.82
98.123
100.617
103.294
106.14
109.134
112.255
115.484
118.803
122.196
125.644
129.127
132.628
136.133
139.627
143.095
146.517
149.872
153.137
156.291
159.314
162.184
164.879
167.379
169.665
171.722
173.533
175.085
176.363
177.356
178.053
178.445
178.526
178.29
177.731
176.848
175.641
174.11
172.259
170.092
167.616
164.838
161.768
158.417
154.796
150.918
146.798
142.452
137.895
133.146
128.222
123.142
117.926
112.592
107.162
101.655
96.091
90.491
84.872
79.255
73.658
68.099
62.597
57.167
51.827
46.592
41.477
36.496
31.661
26.985
22.478
18.149
14.008
10.061
6.315
2.775
-0.555
-3.672
-6.574
-9.261
-11.732
-13.99
-16.036
-17.873
-19.505
-20.938
-22.176
-23.226
-24.094
-24.788
-25.317
-25.687
-25.908
-25.989
-25.94
-25.769
-25.486
-25.102
-24.625
-24.066
-23.433
-22.737
-21.987
-21.19
-20.357
-19.493
-18.608
-17.709
-16.802
-15.893
-14.989
-14.096
-13.217
-12.358
-11.523
-10.715
-9.937
-9.192
-8.483
-7.811
-7.177
-6.582
-6.027
-5.513
-5.039
-4.604
-4.208
-3.85
-3.528
-3.242
-2.989
-2.768
-2.576
-2.412
-2.274
-2.159
-2.066
-1.992
-1.936
-1.895
-1.868
-1.853
-1.848
-1.851
-1.862
-1.879
-1.9
-1.925
-1.952
-1.98
-2.009
-2.037
-2.065
-2.093
-2.12
-2.146
-2.172
-2.199
-2.228
-2.258
-2.292
-2.329
-2.372
-2.421
-2.478
-2.545
-2.622
-2.713
-2.819
-2.94
-3.08
-3.238
-3.416
-3.615
-3.835
-4.078
-4.344
-4.633
-4.946
-5.284
-5.646
-6.034
-6.446
-6.882
-7.34
-7.819
-8.317
-8.831
-9.359
-9.897
-10.443
-10.994
-11.546
-12.096
-12.641
-13.175
-13.695
-14.196
-14.673
-15.12
-15.532
-15.904
-16.231
-16.51
-16.739
-16.914
-17.032
-17.091
-17.089
-17.024
-16.896
-16.701
-16.439
-16.11
-15.714
-15.254
-14.732
-14.154
-13.522
-12.843
-12.126
-11.378
-10.605
-9.813
-9.007
-8.195
-7.382
-6.572
-5.77
-4.981
-4.215
-3.478
-2.783
-2.139
-1.551
-1.029
-0.578
-0.202
0.094
0.311
0.455
0.527
0.522
0.435
0.248
-0.044
-0.437
-0.928
-1.508
-2.154
-2.839
-3.514
-4.116
-4.606
-4.958
-5.155
-5.207
-5.11
-4.85
-4.431
-3.841
-3.071
-2.126
-1
0.305
1.734
3.191
4.532
5.571
6.169
6.235
5.681
4.482
2.609
0.058
-3.097
-6.775
-10.915
-15.471
-20.446
-25.8
-31.35
-36.81
-41.811
-45.91
-48.769
-49.993
-49.074
-45.79
-40.15
-32.439
-23.389
-13.625
-3.411
6.788
16.381
25.388
34.148
43.746
56.157
72.448
92.796
117.484
146.602
179.367
214.052
246.867
272.4
286.826
287.427
271.606
237.204
182.428
107.325
15.546
-86.858
-194.663
-302.91
-406.648
-500.756
-578.933
-636.581
-672.418
-687.168
-682.349
-660.114
-622.629
-572.882
-515.848
-455.917
-396.393
-340.072
-288.185
-241.319
-200.392
-165.823
-137.125
-113.693
-94.208
-76.817
-60.957
-46.556
-33.335
-21.052
-9.15
2.79
14.18
23.765
30.916
35.551
37.862
38.182
36.446
32.621
27.238
21.284
15.655
10.917
7.307
4.825
3.564
3.665
5.132
7.824
11.512
15.971
21.043
26.653
32.71
39.069
45.543
51.892
57.92
63.501
68.56
73.057
76.973
80.289
83.016
85.206
86.933
88.274
89.293
90.036
90.555
90.918
91.213
91.539
91.974
92.567
93.353
94.352
95.581
97.055
98.771
100.71
102.852
105.185
107.697
110.386
113.242
116.246
119.377
122.614
125.937
129.33
132.777
136.258
139.756
143.252
146.732
150.184
153.59
156.93
160.185
163.332
166.35
169.219
171.919
174.426
176.723
178.791
180.615
182.181
183.474
184.482
185.194
185.602
185.698
185.476
184.931
184.06
182.863
181.339
179.49
177.322
174.837
172.043
168.947
165.559
161.89
157.953
153.76
149.325
144.665
139.796
134.737
129.505
124.12
118.601
112.969
107.245
101.449
95.601
89.723
83.833
77.951
72.097
66.289
60.545
54.882
49.316
43.864
38.539
33.356
28.328
23.467
18.784
14.288
9.989
5.894
2.01
-1.659
-5.107
-8.333
-11.333
-14.109
-16.659
-18.985
-21.091
-22.98
-24.657
-26.127
-27.396
-28.473
-29.364
-30.079
-30.627
-31.017
-31.259
-31.363
-31.34
-31.2
-30.953
-30.611
-30.184
-29.682
-29.116
-28.495
-27.831
-27.132
-26.407
-25.666
-24.916
-24.166
-23.423
-22.693
-21.982
-21.298
-20.643
-20.023
-19.442
-18.903
-18.408
-17.96
-17.56
-17.209
-16.907
-16.654
-16.45
-16.294
-16.185
-16.121
-16.101
-16.122
-16.182
-16.279
-16.411
-16.574
-16.766
-16.984
-17.225
-17.486
-17.764
-18.056
-18.361
-18.674
-18.993
-19.317
-19.642
-19.966
-20.288
-20.605
-20.916
-21.218
-21.511
-21.794
-22.065
-22.324
-22.571
-22.804
-23.023
-23.229
-23.422
-23.6
-23.765
-23.916
-24.054
-24.178
-24.29
-24.39
-24.479
-24.557
-24.626
-24.687
-24.74
-24.786
-24.827
-24.862
-24.895
-24.925
-24.954
-24.982
-25.013
-25.046
-25.084
-25.129
-25.18
-25.239
-25.306
-25.383
-25.47
-25.567
-25.675
-25.794
-25.925
-26.068
-26.224
-26.393
-26.575
-26.769
-26.974
-27.19
-27.415
-27.648
-27.886
-28.126
-28.368
-28.61
-28.849
-29.083
-29.311
-29.528
-29.733
-29.921
-30.09
-30.234
-30.351
-30.435
-30.485
-30.497
-30.471
-30.405
-30.296
-30.142
-29.944
-29.701
-29.411
-29.073
-28.687
-28.251
-27.769
-27.242
-26.673
-26.067
-25.426
-24.759
-24.071
-23.371
-22.664
-21.954
-21.248
-20.549
-19.863
-19.194
-18.544
-17.918
-17.322
-16.763
-16.252
-15.795
-15.399
-15.069
-14.812
-14.628
-14.521
-14.491
-14.528
-14.633
-14.807
-15.056
-15.394
-15.829
-16.354
-16.965
-17.653
-18.396
-19.165
-19.913
-20.576
-21.114
-21.502
-21.723
-21.786
-21.687
-21.413
-20.967
-20.339
-19.519
-18.516
-17.321
-15.938
-14.421
-12.867
-11.421
-10.267
-9.541
-9.336
-9.735
-10.772
-12.477
-14.857
-17.839
-21.345
-25.314
-29.706
-34.523
-39.726
-45.132
-50.456
-55.332
-59.324
-62.098
-63.265
-62.323
-59.046
-53.424
-45.733
-36.69
-26.908
-16.666
-6.427
3.217
12.252
20.986
30.463
42.611
58.506
78.376
102.563
131.234
163.675
198.211
231.11
257
272.068
273.553
258.745
225.344
171.428
96.906
5.438
-96.863
-204.929
-313.858
-418.711
-514.409
-594.266
-653.222
-690.042
-705.523
-700.773
-677.771
-638.262
-584.691
-522.843
-458.044
-393.709
-332.869
-277.27
-227.685
-185.867
-153.202
-128.26
-109.41
-95.034
-82.739
-71.666
-61.727
-51.853
-40.956
-29.066
-16.36
-3.69
7.217
15.755
21.995
25.769
27.063
25.992
22.669
17.747
12.41
7.45
3.298
0.235
-1.724
-2.51
-1.992
-0.204
2.668
6.415
10.841
15.794
21.215
27.027
33.096
39.252
45.27
50.968
56.233
61.004
65.259
68.972
72.121
74.714
76.799
78.452
79.751
80.757
81.508
82.057
82.468
82.828
83.239
83.771
84.471
85.371
86.488
87.841
89.447
91.304
93.392
95.692
98.192
100.882
103.759
106.813
110.022
113.365
116.818
120.362
123.978
127.648
131.352
135.069
138.781
142.472
146.129
149.732
153.261
156.696
160.013
163.192
166.212
169.052
171.691
174.11
176.291
178.219
179.881
181.262
182.351
183.138
183.613
183.77
183.603
183.108
182.281
181.124
179.636
177.822
175.685
173.232
170.47
167.408
164.056
160.427
156.534
152.39
148.011
143.414
138.615
133.633
128.486
123.194
117.775
112.25
106.639
100.962
95.238
89.486
83.726
77.976
72.255
66.58
60.968
55.435
49.997
44.67
39.466
34.4
29.483
24.727
20.141
15.734
11.515
7.489
3.663
0.04
-3.377
-6.584
-9.582
-12.37
-14.948
-17.32
-19.488
-21.455
-23.226
-24.806
-26.2
-27.416
-28.46
-29.339
-30.061
-30.635
-31.068
-31.371
-31.551
-31.619
-31.584
-31.455
-31.241
-30.953
-30.599
-30.188
-29.729
-29.231
-28.701
-28.147
-27.577
-26.997
-26.414
-25.833
-25.26
-24.7
-24.157
-23.636
-23.139
-22.671
-22.234
-21.831
-21.465
-21.136
-20.847
-20.599
-20.393
-20.229
-20.109
-20.031
-19.995
-20.002
-20.05
-20.139
-20.266
-20.432
-20.633
-20.869
-21.137
-21.437
-21.765
-22.12
-22.5
-22.903
-23.327
-23.771
-24.231
-24.707
-25.196
-25.697
-26.207
-26.724
-27.247
-27.772
-28.299
-28.825
-29.348
-29.865
-30.375
-30.876
-31.365
-31.841
-32.301
-32.745
-33.171
-33.576
-33.96
-34.322
-34.661
-34.976
-35.267
-35.534
-35.778
-35.997
-36.193
-36.366
-36.517
-36.646
-36.755
-36.845
-36.916
-36.972
-37.013
-37.042
-37.06
-37.072
-37.078
-37.081
-37.083
-37.086
-37.093
-37.105
-37.126
-37.158
-37.202
-37.26
-37.336
-37.431
-37.545
-37.679
-37.834
-38.01
-38.206
-38.42
-38.652
-38.898
-39.158
-39.429
-39.709
-39.995
-40.285
-40.574
-40.86
-41.137
-41.401
-41.647
-41.869
-42.063
-42.223
-42.346
-42.429
-42.468
-42.459
-42.4
-42.287
-42.117
-41.89
-41.601
-41.248
-40.831
-40.349
-39.804
-39.199
-38.536
-37.819
-37.055
-36.251
-35.415
-34.551
-33.666
-32.765
-31.855
-30.942
-30.029
-29.122
-28.226
-27.352
-26.507
-25.703
-24.949
-24.253
-23.623
-23.065
-22.584
-22.183
-21.861
-21.615
-21.445
-21.356
-21.357
-21.463
-21.679
-22
-22.422
-22.935
-23.518
-24.141
-24.755
-25.303
-25.749
-26.074
-26.266
-26.331
-26.263
-26.046
-25.677
-25.147
-24.453
-23.598
-22.576
-21.393
-20.104
-18.811
-17.659
-16.817
-16.405
-16.501
-17.17
-18.445
-20.352
-22.908
-26.054
-29.698
-33.767
-38.202
-42.979
-48.079
-53.354
-58.504
-63.166
-66.927
-69.423
-70.398
-69.509
-66.331
-60.716
-52.798
-43.042
-32.32
-21.32
-10.302
0.311
9.923
18.531
26.539
35.017
45.954
60.703
79.531
102.768
130.61
161.779
193.861
223.054
244.033
252.385
245.199
219.5
172.608
104.272
16.512
-86.358
-197.666
-310.974
-420.846
-521.127
-605.115
-668.214
-707.934
-723.859
-718.369
-694.398
-654.51
-602.45
-543.194
-480.996
-419.713
-362.562
-310.506
-263.941
-223.59
-189.553
-161.432
-138.694
-119.865
-103.026
-87.599
-73.48
-60.428
-48.244
-36.322
-24.235
-12.599
-2.669
4.891
9.974
12.767
13.581
12.333
8.985
4.071
-1.421
-6.6
-10.915
-14.136
-16.269
-17.221
-16.853
-15.164
-12.3
-8.484
-3.935
1.2
6.856
12.948
19.334
25.832
32.207
38.263
43.881
48.983
53.533
57.511
60.898
63.704
65.984
67.809
69.254
70.381
71.233
71.861
72.331
72.728
73.154
73.686
74.371
75.247
76.336
77.653
79.215
81.02
83.047
85.279
87.702
90.307
93.09
96.042
99.146
102.381
105.725
109.159
112.666
116.23
119.83
123.449
127.07
130.676
134.256
137.792
141.266
144.656
147.941
151.1
154.112
156.957
159.613
162.061
164.282
166.262
167.985
169.438
170.609
171.486
172.059
172.323
172.27
171.895
171.195
170.169
168.817
167.14
165.143
162.831
160.209
157.285
154.069
150.573
146.808
142.787
138.525
134.037
129.341
124.454
119.394
114.18
108.832
103.37
97.815
92.186
86.506
80.793
75.067
69.348
63.654
58.005
52.419
46.911
41.5
36.2
31.027
25.995
21.118
16.406
11.872
7.524
3.372
-0.577
-4.315
-7.839
-11.143
-14.225
-17.083
-19.715
-22.122
-24.305
-26.267
-28.011
-29.54
-30.861
-31.979
-32.9
-33.632
-34.183
-34.561
-34.774
-34.833
-34.746
-34.522
-34.173
-33.708
-33.137
-32.471
-31.719
-30.892
-29.999
-29.05
-28.054
-27.02
-25.956
-24.871
-23.772
-22.665
-21.56
-20.46
-19.374
-18.305
-17.259
-16.24
-15.252
-14.299
-13.384
-12.509
-11.676
-10.887
-10.144
-9.446
-8.796
-8.194
-7.638
-7.129
-6.667
-6.25
-5.877
-5.547
-5.257
-5.007
-4.795
-4.618
-4.474
-4.362
-4.28
-4.225
-4.196
-4.19
-4.205
-4.239
-4.29
-4.356
-4.435
-4.524
-4.623
-4.729
-4.84
-4.956
-5.074
-5.193
-5.312
-5.429
-5.543
-5.652
-5.755
-5.852
-5.941
-6.022
-6.095
-6.159
-6.215
-6.262
-6.301
-6.331
-6.354
-6.37
-6.378
-6.38
-6.377
-6.368
-6.356
-6.342
-6.326
-6.311
-6.297
-6.285
-6.275
-6.269
-6.267
-6.269
-6.276
-6.287
-6.304
-6.327
-6.356
-6.392
-6.434
-6.482
-6.535
-6.592
-6.65
-6.709
-6.766
-6.817
-6.86
-6.892
-6.911
-6.913
-6.896
-6.856
-6.788
-6.689
-6.555
-6.381
-6.161
-5.892
-5.569
-5.189
-4.749
-4.249
-3.685
-3.056
-2.361
-1.599
-0.771
0.125
1.09
2.123
3.224
4.39
5.617
6.902
8.239
9.624
11.048
12.502
13.979
15.471
16.972
18.475
19.972
21.457
22.924
24.369
25.785
27.163
28.496
29.771
30.981
32.121
33.184
34.165
35.062
35.871
36.594
37.238
37.805
38.29
38.686
38.979
39.163
39.246
39.229
39.124
38.953
38.744
38.548
38.426
38.417
38.543
38.82
39.241
39.816
40.564
41.483
42.584
43.877
45.354
47.023
48.877
50.849
52.827
54.658
56.153
57.18
57.656
57.495
56.66
55.117
52.85
49.948
46.501
42.558
38.163
33.317
28.074
22.661
17.419
12.735
9.056
6.718
6.071
7.621
11.581
17.899
26.257
35.837
45.924
56.253
66.375
75.675
84.232
92.48
101.44
113.123
128.791
148.64
173.068
202.274
235.036
269.091
300.549
323.953
335.142
331.32
309.564
267.302
203.678
119.922
20.241
-88.773
-201.275
-312.125
-415.753
-506.069
-577.4
-625.946
-650.837
-653.894
-637.265
-603.099
-554.043
-493.998
-428.274
-361.949
-298.798
-240.547
-188.047
-142.193
-104.03
-74.042
-51.002
-32.699
-16.775
-2.063
11.56
24.211
36.47
49.286
62.795
76.12
87.768
96.74
102.977
106.776
108.38
107.66
104.607
99.739
94.076
88.636
83.995
80.39
77.855
76.465
76.381
77.646
80.134
83.634
87.937
92.877
98.375
104.363
110.716
117.278
123.847
130.186
136.14
141.618
146.559
150.946
154.756
157.971
160.619
162.772
164.508
165.9
167.004
167.856
168.512
169.047
169.55
170.116
170.812
171.676
172.736
174.015
175.527
177.285
179.283
181.496
183.906
186.5
189.27
192.211
195.312
198.55
201.906
205.358
208.887
212.478
216.112
219.768
223.43
227.08
230.703
234.285
237.81
241.258
244.608
247.841
250.936
253.872
256.631
259.192
261.536
263.648
265.512
267.115
268.445
269.488
270.237
270.683
270.819
270.641
270.144
269.327
268.189
266.732
264.96
262.876
260.486
257.797
254.818
251.559
248.032
244.248
240.22
235.964
231.495
226.829
221.983
216.975
211.823
206.547
201.164
195.695
190.16
184.576
178.964
173.341
167.728
162.14
156.597
151.114
145.708
140.394
135.187
130.101
125.149
120.343
115.694
111.212
106.906
102.785
98.855
95.122
91.591
88.266
85.15
82.245
79.551
77.068
74.796
72.731
70.87
69.211
67.747
66.473
65.384
64.472
63.728
63.147
62.717
62.431
62.279
62.251
62.338
62.528
62.812
63.18
63.622
64.127
64.685
65.287
65.923
66.583
67.26
67.943
68.625
69.298
69.954
70.587
71.19
71.758
72.284
72.763
73.192
73.565
73.881
74.135
74.326
74.452
74.511
74.503
74.426
74.282
74.071
73.793
73.45
73.044
72.576
72.049
71.466
70.829
70.141
69.405
68.625
67.803
66.944
66.049
65.124
64.171
63.194
62.195
61.179
60.149
59.108
58.058
57.003
55.945
54.886
53.829
52.774
51.724
50.681
49.645
48.618
47.6
46.592
45.594
44.606
43.628
42.658
41.697
40.742
39.792
38.847
37.905
36.966
36.028
35.09
34.15
33.207
32.261
31.308
30.348
29.379
28.4
27.411
26.411
25.401
24.379
23.348
22.308
21.26
20.207
19.148
18.086
17.022
15.958
14.897
13.841
12.794
11.759
10.74
9.743
8.772
7.83
6.92
6.046
5.21
4.414
3.662
2.956
2.297
1.688
1.13
0.626
0.178
-0.215
-0.554
-0.84
-1.076
-1.267
-1.415
-1.53
-1.617
-1.683
-1.731
-1.769
-1.799
-1.828
-1.86
-1.897
-1.946
-2.012
-2.104
-2.234
-2.411
-2.642
-2.935
-3.297
-3.734
-4.25
-4.847
-5.52
-6.267
-7.093
-8.008
-9.029
-10.166
-11.412
-12.761
-14.209
-15.738
-17.324
-18.926
-20.477
-21.925
-23.245
-24.426
-25.472
-26.385
-27.148
-27.743
-28.163
-28.418
-28.525
-28.49
-28.314
-28.028
-27.714
-27.523
-27.653
-28.264
-29.454
-31.283
-33.796
-37.026
-41.008
-45.735
-51.104
-56.997
-63.327
-70.045
-77.136
-84.498
-91.869
-98.856
-105.013
-109.93
-113.322
-114.864
-114.111
-110.868
-105.186
-97.407
-88.346
-78.702
-68.757
-58.943
-49.848
-41.462
-33.454
-24.953
-14.18
0.007
17.769
39.41
65.066
93.585
122.848
149.318
168.038
175.18
168.203
144.434
101.499
38.694
-42.719
-138.864
-243.65
-351.573
-457.859
-557.013
-643.026
-710.716
-756.66
-780.179
-783.205
-767.964
-736.545
-692.274
-639.609
-583.368
-528.188
-476.944
-430.358
-388.797
-352.777
-322.05
-296.005
-273.529
-252.528
-231.84
-211.706
-192.475
-174.521
-158.331
-143.838
-131.092
-121.133
-114.538
-111.237
-111.073
-113.446
-117.734
-123.8
-131.475
-140.09
-149.033
-157.739
-165.675
-172.698
-178.736
-183.624
-187.244
-189.571
-190.634
-190.56
-189.535
-187.695
-185.167
-182.07
-178.528
-174.695
-170.752
-166.898
-163.266
-159.919
-156.908
-154.243
-151.934
-149.993
-148.393
-147.069
-145.985
-145.107
-144.415
-143.919
-143.603
-143.442
-143.434
-143.578
-143.91
-144.476
-145.261
-146.248
-147.445
-148.85
-150.489
-152.341
-154.249
-156.021
-157.465
-158.348
-158.507
