68.268
70.322
72.288
74.148
75.884
77.481
78.92
80.188
81.269
82.152
82.822
83.27
83.486
83.461
83.189
82.663
81.879
80.835
79.529
77.962
76.134
74.05
71.713
69.129
66.306
63.253
59.978
56.494
52.812
48.946
44.909
40.718
36.388
31.935
27.377
22.732
18.017
13.252
8.453
3.641
-1.167
-5.951
-10.695
-15.38
-19.989
-24.506
-28.914
-33.198
-37.345
-41.34
-45.172
-48.828
-52.299
-55.575
-58.649
-61.514
-64.163
-66.594
-68.802
-70.786
-72.546
-74.081
-75.394
-76.487
-77.364
-78.03
-78.491
-78.753
-78.824
-78.712
-78.425
-77.974
-77.368
-76.617
-75.733
-74.725
-73.606
-72.386
-71.077
-69.689
-68.234
-66.723
-65.167
-63.575
-61.957
-60.324
-58.685
-57.047
-55.42
-53.811
-52.227
-50.674
-49.159
-47.687
-46.261
-44.886
-43.566
-42.303
-41.1
-39.958
-38.88
-37.865
-36.915
-36.031
-35.211
-34.456
-33.765
-33.136
-32.569
-32.062
-31.613
-31.221
-30.885
-30.602
-30.371
-30.191
-30.059
-29.973
-29.931
-29.929
-29.967
-30.042
-30.151
-30.292
-30.464
-30.664
-30.891
-31.143
-31.42
-31.717
-32.034
-32.367
-32.715
-33.075
-33.444
-33.818
-34.195
-34.573
-34.949
-35.32
-35.684
-36.037
-36.376
-36.697
-36.998
-37.273
-37.519
-37.731
-37.906
-38.042
-38.137
-38.19
-38.199
-38.161
-38.077
-37.946
-37.766
-37.538
-37.259
-36.929
-36.549
-36.122
-35.649
-35.135
-34.582
-33.997
-33.386
-32.756
-32.113
-31.462
-30.808
-30.156
-29.509
-28.872
-28.248
-27.64
-27.053
-26.497
-25.979
-25.508
-25.091
-24.731
-24.435
-24.205
-24.045
-23.954
-23.923
-23.95
-24.037
-24.192
-24.429
-24.756
-25.166
-25.65
-26.203
-26.807
-27.437
-28.051
-28.583
-28.98
-29.214
-29.276
-29.17
-28.894
-28.432
-27.763
-26.882
-25.798
-24.525
-23.072
-21.435
-19.648
-17.791
-16.018
-14.529
-13.487
-12.996
-13.119
-13.904
-15.393
-17.627
-20.605
-24.229
-28.389
-33.001
-38.027
-43.466
-49.219
-55.029
-60.495
-65.155
-68.591
-70.506
-70.565
-68.31
-63.536
-56.305
-46.983
-36.426
-25.358
-14.06
-2.96
7.362
16.969
26.278
36.276
48.899
65.396
85.935
110.836
140.225
172.79
206.205
236.605
258.595
268.07
262.318
238.538
194.367
129.223
44.539
-55.37
-163.92
-275.384
-384.646
-486.195
-574.359
-643.913
-691.497
-716.649
-721.013
-706.389
-674.989
-629.435
-573.034
-510.59
-446.372
-383.306
-323.684
-269.078
-220.38
-178.841
-145.48
-119.404
-99.421
-84.257
-71.952
-61.524
-52.673
-44.363
-35.418
-25.673
-15.188
-4.633
4.43
11.399
16.348
19.079
19.525
17.824
14.136
9.163
4.1
-0.338
-3.803
-6.072
-7.164
-7.032
-5.572
-2.883
0.794
5.235
10.241
15.686
21.507
27.587
33.75
39.772
45.446
50.64
55.276
59.322
62.765
65.585
67.789
69.427
70.564
71.277
71.633
71.681
71.474
71.084
70.599
70.122
69.74
69.511
69.475
69.659
70.083
70.764
71.707
72.895
74.315
75.957
77.813
79.885
82.164
84.637
87.284
90.085
93.02
96.073
99.228
102.465
105.766
109.114
112.492
115.888
119.284
122.659
125.99
129.254
132.428
135.488
138.412
141.174
143.754
146.13
148.284
150.199
151.858
153.247
154.351
155.16
155.662
155.85
155.717
155.257
154.467
153.346
151.895
150.116
148.013
145.592
142.859
139.824
136.498
132.892
129.02
124.896
120.535
115.956
111.176
106.214
101.09
95.823
90.436
84.949
79.384
73.761
68.102
62.426
56.755
51.106
45.501
39.956
34.489
29.117
23.856
18.72
13.723
8.879
4.198
-0.309
-4.632
-8.763
-12.696
-16.425
-19.944
-23.25
-26.342
-29.217
-31.875
-34.318
-36.547
-38.565
-40.376
-41.985
-43.398
-44.62
-45.658
-46.521
-47.217
-47.753
-48.138
-48.383
-48.496
-48.487
-48.366
-48.142
-47.824
-47.424
-46.949
-46.409
-45.814
-45.171
-44.49
-43.778
-43.043
-42.292
-41.533
-40.771
-40.014
-39.266
-38.532
-37.818
-37.129
-36.466
-35.835
-35.239
-34.679
-34.159
-33.68
-33.243
-32.849
-32.5
-32.195
-31.935
-31.719
-31.547
-31.418
-31.332
-31.288
-31.284
-31.318
-31.39
-31.497
-31.638
-31.811
-32.014
-32.245
-32.502
-32.783
-33.086
-33.409
-33.752
-34.111
-34.484
-34.87
-35.267
-35.672
-36.084
-36.5
-36.92
-37.341
-37.761
-38.181
-38.597
-39.01
-39.416
-39.815
-40.205
-40.584
-40.95
-41.304
-41.642
-41.964
-42.27
-42.558
-42.828
-43.079
-43.309
-43.518
-43.705
-43.867
-44.003
-44.112
-44.192
-44.24
-44.257
-44.241
-44.192
-44.109
-43.99
-43.834
-43.639
-43.406
-43.13
-42.812
-42.448
-42.038
-41.582
-41.081
-40.535
-39.945
-39.311
-38.635
-37.918
-37.161
-36.367
-35.533
-34.662
-33.757
-32.822
-31.859
-30.875
-29.873
-28.861
-27.847
-26.838
-25.841
-24.862
-23.904
-22.974
-22.075
-21.211
-20.383
-19.595
-18.852
-18.161
-17.531
-16.969
-16.479
-16.067
-15.736
-15.489
-15.328
-15.251
-15.249
-15.318
-15.459
-15.68
-15.995
-16.412
-16.922
-17.517
-18.189
-18.919
-19.681
-20.432
-21.101
-21.636
-22.007
-22.204
-22.233
-22.093
-21.767
-21.237
-20.495
-19.551
-18.423
-17.118
-15.635
-14.008
-12.322
-10.732
-9.445
-8.626
-8.381
-8.772
-9.844
-11.637
-14.189
-17.496
-21.457
-25.958
-30.911
-36.271
-42.035
-48.099
-54.201
-59.934
-64.831
-68.469
-70.545
-70.724
-68.548
-63.813
-56.576
-47.198
-36.526
-25.289
-13.783
-2.451
8.108
17.933
27.422
37.541
50.199
66.651
87.096
111.896
141.232
173.842
207.434
238.164
260.637
270.717
265.632
242.498
198.858
134.047
49.449
-50.633
-159.59
-271.636
-381.572
-483.787
-572.492
-642.363
-689.982
-714.871
-718.695
-703.307
-670.988
-624.444
-567.088
-503.804
-438.906
-375.33
-315.359
-260.537
-211.725
-170.126
-136.696
-110.502
-90.349
-74.975
-62.441
-51.781
-42.71
-34.206
-25.12
-15.291
-4.757
5.844
14.98
22.072
27.206
30.196
30.99
29.729
26.567
22.191
17.785
14.058
11.352
9.889
9.643
10.652
13.011
16.616
21.217
26.582
32.505
38.85
45.551
52.492
59.494
66.34
72.823
78.81
84.226
89.036
93.227
96.781
99.703
102.042
103.865
105.247
106.258
106.946
107.364
107.582
107.684
107.771
107.928
108.207
108.649
109.28
110.118
111.182
112.476
113.985
115.698
117.605
119.7
121.986
124.456
127.099
129.896
132.831
135.888
139.052
142.311
145.648
149.048
152.497
155.98
159.489
163.007
166.517
169.998
173.429
176.789
180.059
183.216
186.239
189.106
191.799
194.299
196.592
198.66
200.489
202.064
203.373
204.406
205.153
205.605
205.756
205.6
205.135
204.359
203.272
201.874
200.17
198.162
195.858
193.264
190.389
187.243
183.838
180.186
176.3
172.197
167.892
163.402
158.744
153.936
148.999
143.95
138.81
133.596
128.329
123.027
117.709
112.393
107.098
101.841
96.638
91.506
86.461
81.517
76.688
71.987
67.426
63.015
58.765
54.685
50.781
47.061
43.529
40.191
37.049
34.106
31.362
28.817
26.47
24.317
22.357
20.583
18.992
17.576
16.329
15.243
14.311
13.523
12.871
12.344
11.934
11.629
11.42
11.297
11.249
11.266
11.339
11.457
11.612
11.793
11.993
12.203
12.415
12.622
12.817
12.993
13.145
13.268
13.358
13.41
13.421
13.389
13.312
13.189
13.019
12.802
12.538
12.229
11.876
11.481
11.045
10.573
10.066
9.528
8.962
8.372
7.761
7.134
6.494
5.845
5.19
4.533
3.878
3.227
2.585
1.953
1.335
0.734
0.151
-0.411
-0.951
-1.468
-1.96
-2.427
-2.869
-3.285
-3.678
-4.048
-4.396
-4.723
-5.032
-5.324
-5.601
-5.866
-6.121
-6.37
-6.615
-6.86
-7.107
-7.36
-7.621
-7.893
-8.179
-8.479
-8.797
-9.134
-9.492
-9.872
-10.277
-10.707
-11.163
-11.647
-12.157
-12.693
-13.255
-13.84
-14.448
-15.074
-15.717
-16.371
-17.035
-17.704
-18.375
-19.044
-19.706
-20.355
-20.987
-21.596
-22.177
-22.722
-23.227
-23.685
-24.092
-24.444
-24.737
-24.969
-25.135
-25.234
-25.263
-25.22
-25.103
-24.912
-24.642
-24.296
-23.875
-23.381
-22.817
-22.187
-21.496
-20.751
-19.96
-19.131
-18.271
-17.386
-16.483
-15.569
-14.65
-13.734
-12.822
-11.923
-11.045
-10.197
-9.391
-8.634
-7.934
-7.297
-6.731
-6.238
-5.822
-5.485
-5.218
-5.023
-4.903
-4.867
-4.931
-5.101
-5.372
-5.74
-6.196
-6.716
-7.272
-7.816
-8.287
-8.645
-8.868
-8.94
-8.873
-8.661
-8.289
-7.759
-7.057
-6.175
-5.123
-3.898
-2.509
-1.022
0.455
1.77
2.728
3.191
3.067
2.274
0.787
-1.416
-4.343
-7.915
-12.053
-16.707
-21.822
-27.388
-33.353
-39.507
-45.537
-51.052
-55.582
-58.768
-60.22
-59.434
-56.213
-50.6
-42.906
-33.903
-24.229
-14.152
-4.16
5.128
13.721
21.945
30.875
42.502
57.843
77.018
100.315
127.811
158.716
191.294
221.676
244.392
255.641
252.709
233.012
194.461
135.324
55.759
-40.279
-146.479
-257.602
-368.614
-474.506
-570.185
-649.205
-706.811
-742.067
-756.03
-749.698
-724.835
-683.344
-627.783
-563.495
-495.488
-426.672
-359.514
-296.509
-239.301
-189.726
-149.45
-117.691
-93.155
-75.157
-62.265
-52.703
-45.443
-39.175
-32.25
-24.335
-15.504
-5.775
3.889
12.259
18.874
23.346
25.21
24.613
21.802
17.094
11.447
5.923
1.133
-2.503
-4.764
-5.684
-5.233
-3.393
-0.356
3.621
8.311
13.517
19.138
25.114
31.324
37.577
43.639
49.314
54.489
59.102
63.134
66.563
69.37
71.578
73.256
74.481
75.33
75.863
76.118
76.151
76.036
75.859
75.722
75.704
75.852
76.203
76.779
77.599
78.677
80.009
81.572
83.35
85.332
87.509
89.882
92.44
95.166
98.041
101.045
104.161
107.372
110.664
114.016
117.414
120.841
124.285
127.735
131.174
134.587
137.953
141.253
144.467
147.576
150.561
153.4
156.075
158.57
160.868
162.957
164.821
166.448
167.827
168.949
169.803
170.384
170.685
170.701
170.428
169.866
169.015
167.875
166.449
164.741
162.755
160.5
157.981
155.208
152.191
148.94
145.468
141.787
137.91
133.853
129.631
125.259
120.754
116.132
111.411
106.608
101.739
96.822
91.873
86.909
81.945
76.999
72.086
67.219
62.415
57.687
53.049
48.512
44.089
39.79
35.625
31.604
27.735
24.026
20.481
17.108
13.91
10.891
8.053
5.4
2.93
0.644
-1.459
-3.381
-5.125
-6.695
-8.095
-9.33
-10.406
-11.329
-12.106
-12.744
-13.252
-13.638
-13.909
-14.076
-14.146
-14.129
-14.033
-13.869
-13.644
-13.368
-13.049
-12.696
-12.316
-11.917
-11.507
-11.093
-10.68
-10.277
-9.887
-9.518
-9.172
-8.855
-8.571
-8.323
-8.114
-7.946
-7.821
-7.741
-7.707
-7.719
-7.777
-7.881
-8.03
-8.224
-8.459
-8.736
-9.051
-9.403
-9.789
-10.207
-10.653
-11.126
-11.621
-12.137
-12.669
-13.215
-13.772
-14.337
-14.907
-15.479
-16.052
-16.622
-17.188
-17.747
-18.298
-18.838
-19.366
-19.881
-20.38
-20.863
-21.33
-21.779
-22.21
-22.624
-23.02
-23.398
-23.759
-24.102
-24.428
-24.737
-25.028
-25.304
-25.563
-25.807
-26.037
-26.253
-26.458
-26.65
-26.831
-27
-27.158
-27.305
-27.439
-27.56
-27.667
-27.759
-27.835
-27.895
-27.938
-27.962
-27.967
-27.949
-27.908
-27.841
-27.745
-27.617
-27.453
-27.252
-27.011
-26.73
-26.408
-26.043
-25.634
-25.18
-24.681
-24.136
-23.546
-22.907
-22.22
-21.486
-20.707
-19.885
-19.024
-18.128
-17.2
-16.25
-15.284
-14.306
-13.322
-12.337
-11.354
-10.379
-9.415
-8.464
-7.531
-6.621
-5.742
-4.904
-4.116
-3.383
-2.712
-2.109
-1.578
-1.123
-0.743
-0.432
-0.188
-0.015
0.079
0.076
-0.03
-0.235
-0.531
-0.913
-1.366
-1.866
-2.375
-2.827
-3.174
-3.39
-3.467
-3.411
-3.221
-2.884
-2.379
-1.699
-0.854
0.141
1.276
2.554
3.945
5.37
6.682
7.687
8.227
8.203
7.554
6.233
4.2
1.411
-2.138
-6.356
-11.137
-16.397
-22.095
-28.223
-34.689
-41.246
-47.506
-53.025
-57.395
-60.319
-61.461
-60.364
-56.796
-50.78
-42.636
-33.159
-23.062
-12.651
-2.387
7.103
15.819
24.118
32.946
44.222
59.252
78.328
101.921
130.332
162.442
196.096
227.484
251.152
262.886
259.77
238.739
197.137
133.963
50.245
-49.885
-159.879
-274.015
-387.043
-493.268
-586.768
-661.764
-714.327
-743.64
-751.078
-738.233
-707.259
-660.721
-601.972
-536.227
-468.205
-401.169
-337.737
-279.689
-228.029
-184.161
-149.182
-122.045
-101.379
-85.738
-72.977
-62.053
-52.668
-43.749
-34.08
-23.528
-12.179
-0.756
9.045
16.562
21.873
24.779
25.201
23.278
19.133
13.454
7.556
2.242
-2.083
-5.134
-6.929
-7.418
-6.461
-4.138
-0.695
3.644
8.657
14.193
20.215
26.62
33.251
39.915
46.354
52.388
57.92
62.885
67.262
71.029
74.162
76.687
78.675
80.201
81.344
82.161
82.688
82.982
83.116
83.178
83.271
83.465
83.801
84.313
85.02
85.939
87.083
88.448
90.01
91.752
93.663
95.737
97.971
100.356
102.874
105.507
108.237
111.046
113.923
116.851
119.813
122.796
125.786
128.771
131.74
134.68
137.574
140.404
143.152
145.799
148.33
150.724
152.964
155.034
156.917
158.601
160.073
161.322
162.335
163.105
163.623
163.882
163.876
163.602
163.055
162.234
161.14
159.774
158.137
156.234
154.069
151.649
148.98
146.072
142.933
139.575
136.008
132.246
128.302
124.19
119.926
115.524
111.001
106.374
101.658
96.873
92.033
87.156
82.259
77.357
72.466
67.603
62.782
58.018
53.324
48.716
44.205
39.803
35.522
31.373
27.365
23.507
19.808
16.273
12.91
9.724
6.718
3.896
1.261
-1.187
-3.447
-5.52
-7.407
-9.112
-10.636
-11.985
-13.164
-14.177
-15.033
-15.736
-16.296
-16.719
-17.016
-17.193
-17.261
-17.228
-17.104
-16.899
-16.623
-16.284
-15.893
-15.459
-14.991
-14.499
-13.99
-13.473
-12.957
-12.448
-11.954
-11.482
-11.037
-10.625
-10.251
-9.919
-9.634
-9.399
-9.216
-9.088
-9.015
-9
-9.042
-9.142
-9.298
-9.51
-9.775
-10.093
-10.46
-10.874
-11.332
-11.829
-12.363
-12.929
-13.524
-14.142
-14.779
-15.432
-16.095
-16.765
-17.438
-18.109
-18.775
-19.432
-20.076
-20.704
-21.313
-21.899
-22.461
-22.996
-23.502
-23.978
-24.424
-24.837
-25.219
-25.567
-25.883
-26.166
-26.416
-26.634
-26.82
-26.977
-27.104
-27.205
-27.281
-27.335
-27.368
-27.384
-27.382
-27.367
-27.338
-27.298
-27.248
-27.188
-27.121
-27.046
-26.966
-26.882
-26.795
-26.704
-26.61
-26.512
-26.409
-26.299
-26.181
-26.052
-25.912
-25.758
-25.59
-25.407
-25.21
-24.996
-24.764
-24.514
-24.245
-23.955
-23.643
-23.306
-22.944
-22.557
-22.148
-21.715
-21.263
-20.793
-20.309
-19.815
-19.317
-18.816
-18.316
-17.817
-17.323
-16.834
-16.355
-15.885
-15.427
-14.986
-14.569
-14.183
-13.835
-13.528
-13.266
-13.048
-12.875
-12.746
-12.66
-12.61
-12.593
-12.613
-12.677
-12.802
-12.996
-13.256
-13.576
-13.942
-14.328
-14.701
-15.024
-15.246
-15.336
-15.277
-15.064
-14.711
-14.225
-13.601
-12.829
-11.891
-10.768
-9.455
-7.964
-6.315
-4.58
-2.886
-1.371
-0.203
0.482
0.604
0.102
-1.047
-2.847
-5.281
-8.305
-11.866
-15.935
-20.499
-25.534
-30.975
-36.606
-42.093
-47.069
-51.113
-53.876
-55.006
-54.054
-50.815
-45.362
-38.025
-29.505
-20.454
-11.156
-2.058
6.172
13.525
20.379
27.684
37.349
50.654
67.885
89.566
116.124
146.572
178.873
209.322
232.475
244.078
241.138
220.454
179.198
116.21
32.388
-68.232
-179.11
-294.424
-408.78
-516.292
-610.831
-686.479
-739.229
-768.24
-774.92
-760.963
-728.653
-680.71
-620.668
-553.849
-485.019
-417.436
-353.65
-295.365
-243.516
-199.419
-164.078
-136.386
-114.94
-98.308
-84.415
-72.269
-61.613
-51.419
-40.505
-28.774
-16.34
-3.927
6.8
15.196
21.349
25.066
26.263
25.084
21.654
16.657
11.386
6.633
2.791
0.142
-1.331
-1.581
-0.469
1.927
5.368
9.636
14.514
19.856
25.628
31.732
38.015
44.287
50.291
55.849
60.867
65.282
69.077
72.234
74.733
76.601
77.915
78.754
79.197
79.309
79.126
78.709
78.136
77.498
76.904
76.431
76.124
76.021
76.146
76.519
77.158
78.062
79.207
80.581
82.173
83.977
85.993
88.214
90.621
93.196
95.92
98.775
101.748
104.822
107.977
111.199
114.469
117.776
121.106
124.442
127.766
131.057
134.294
137.455
140.521
143.469
146.278
148.929
151.402
153.682
155.752
157.599
159.207
160.566
161.665
162.495
163.047
163.316
163.296
162.984
162.379
161.48
160.289
158.809
157.043
154.998
152.68
150.098
147.261
144.181
140.869
137.338
133.602
129.677
125.579
121.323
116.927
112.409
107.787
103.08
98.304
93.478
88.62
83.748
78.878
74.027
69.212
64.448
59.75
55.133
50.61
46.196
41.901
37.737
33.714
29.843
26.13
22.585
19.213
16.02
13.01
10.186
7.551
5.105
2.85
0.783
-1.096
-2.791
-4.306
-5.644
-6.811
-7.813
-8.657
-9.35
-9.899
-10.313
-10.599
-10.767
-10.826
-10.785
-10.653
-10.44
-10.154
-9.806
-9.404
-8.957
-8.473
-7.962
-7.431
-6.888
-6.34
-5.794
-5.257
-4.734
-4.231
-3.753
-3.304
-2.887
-2.506
-2.163
-1.86
-1.6
-1.383
-1.211
-1.083
-1
-0.962
-0.967
-1.014
-1.103
-1.23
-1.396
-1.597
-1.832
-2.098
-2.393
-2.715
-3.061
-3.43
-3.819
-4.227
-4.65
-5.087
-5.536
-5.995
-6.463
-6.937
-7.418
-7.904
-8.395
-8.891
-9.39
-9.892
-10.397
-10.904
-11.413
-11.923
-12.433
-12.944
-13.455
-13.967
-14.478
-14.989
-15.501
-16.011
-16.519
-17.025
-17.526
-18.022
-18.51
-18.989
-19.456
-19.91
-20.349
-20.771
-21.174
-21.556
-21.914
-22.246
-22.546
-22.812
-23.04
-23.225
-23.364
-23.455
-23.495
-23.482
-23.416
-23.294
-23.115
-22.878
-22.583
-22.229
-21.814
-21.34
-20.806
-20.214
-19.568
-18.872
-18.13
-17.347
-16.53
-15.686
-14.823
-13.946
-13.06
-12.171
-11.282
-10.4
-9.527
-8.67
-7.833
-7.026
-6.255
-5.533
-4.868
-4.267
-3.736
-3.278
-2.895
-2.589
-2.358
-2.197
-2.106
-2.089
-2.154
-2.315
-2.578
-2.942
-3.395
-3.924
-4.502
-5.092
-5.655
-6.144
-6.522
-6.775
-6.897
-6.899
-6.789
-6.563
-6.205
-5.701
-5.037
-4.206
-3.222
-2.099
-0.901
0.256
1.242
1.899
2.097
1.756
0.833
-0.699
-2.834
-5.555
-8.844
-12.63
-16.858
-21.496
-26.495
-31.825
-37.334
-42.724
-47.65
-51.701
-54.485
-55.715
-55.058
-52.139
-46.894
-39.505
-30.406
-20.409
-10.117
0.156
9.881
18.619
26.476
33.974
42.345
53.26
67.648
85.817
108.136
134.409
163.219
191.787
215.802
230.706
232.951
219.741
188.425
136.938
65.282
-23.745
-125.009
-232.777
-341.558
-446.15
-540.96
-619.724
-678.02
-714.199
-728.584
-722.833
-699.235
-660.062
-608.53
-549.555
-487.425
-425.517
-366.716
-312.315
-262.976
-219.686
-182.904
-152.148
-126.834
-105.649
-86.727
-69.497
-53.881
-39.563
-26.272
-13.446
-0.65
11.522
21.79
29.558
34.775
37.667
38.614
37.524
34.329
29.559
24.199
19.154
14.997
11.946
9.973
9.178
9.708
11.574
14.647
18.673
23.406
28.675
34.39
40.472
46.794
53.167
59.355
65.16
70.459
75.189
79.327
82.848
85.731
87.988
89.67
90.863
91.654
92.112
92.29
92.24
92.032
91.76
91.528
91.419
91.482
91.754
92.258
93.015
94.045
95.348
96.907
98.705
100.73
102.972
105.433
108.101
110.96
113.989
117.164
120.469
123.888
127.402
130.994
134.643
138.333
142.049
145.776
149.498
153.194
156.842
160.419
163.903
167.273
170.506
173.578
176.47
179.161
181.634
183.872
185.859
187.581
189.024
190.177
191.03
191.574
191.802
191.707
191.287
190.539
189.463
188.06
186.333
184.286
181.924
179.256
176.29
173.036
169.505
165.71
161.665
157.385
152.887
148.187
143.304
138.255
133.06
127.739
122.311
116.798
111.217
105.589
99.935
94.272
88.62
82.998
77.423
71.914
66.486
61.156
55.94
50.851
45.904
41.11
36.482
32.029
27.761
23.686
19.812
16.144
12.687
9.444
6.418
3.611
1.022
-1.349
-3.505
-5.448
-7.182
-8.712
-10.045
-11.186
-12.142
-12.923
-13.536
-13.991
-14.296
-14.462
-14.5
-14.418
-14.229
-13.942
-13.569
-13.119
-12.605
-12.035
-11.421
-10.772
-10.097
-9.406
-8.707
-8.008
-7.317
-6.64
-5.986
-5.359
-4.766
-4.211
-3.7
-3.236
-2.823
-2.464
-2.161
-1.916
-1.731
-1.605
-1.54
-1.536
-1.594
-1.712
-1.889
-2.125
-2.418
-2.766
-3.166
-3.616
-4.112
-4.652
-5.234
-5.852
-6.506
-7.191
-7.904
-8.643
-9.404
-10.184
-10.977
-11.782
-12.592
-13.406
-14.218
-15.025
-15.822
-16.605
-17.372
-18.118
-18.841
-19.536
-20.199
-20.826
-21.412
-21.955
-22.448
-22.89
-23.277
-23.607
-23.878
-24.09
-24.242
-24.333
-24.362
-24.329
-24.235
-24.079
-23.863
-23.586
-23.251
-22.861
-22.421
-21.934
-21.407
-20.844
-20.252
-19.639
-19.013
-18.378
-17.741
-17.105
-16.476
-15.86
-15.264
-14.691
-14.147
-13.64
-13.177
-12.768
-12.42
-12.136
-11.92
-11.771
-11.69
-11.679
-11.736
-11.855
-12.036
-12.282
-12.597
-12.998
-13.492
-14.068
-14.716
-15.415
-16.127
-16.83
-17.487
-18.052
-18.498
-18.809
-18.975
-19.013
-18.927
-18.704
-18.34
-17.804
-17.067
-16.144
-15.052
-13.834
-12.597
-11.44
-10.477
-9.874
-9.737
-10.134
-11.128
-12.704
-14.833
-17.502
-20.64
-24.206
-28.195
-32.547
-37.22
-42.094
-46.891
-51.32
-55.035
-57.61
-58.727
-58.035
-55.132
-49.966
-42.746
-33.897
-24.22
-14.317
-4.476
4.772
12.975
20.261
27.154
34.89
45.161
58.842
76.162
97.41
122.318
149.464
176.174
198.323
211.526
212.382
198.216
166.496
115.307
44.779
-42.238
-140.761
-245.32
-350.556
-451.225
-541.493
-614.905
-667.213
-697.34
-706.197
-695.671
-668.286
-626.838
-575.571
-520.535
-466.284
-415.236
-368.679
-326.84
-289.651
-257.219
-228.551
-201.329
-174.112
-146.433
-118.401
-90.969
-64.951
-40.756
-19.105
-0.947
13.226
23.249
29.283
31.958
31.872
29.552
25.6
20.534
14.789
8.806
2.994
-2.296
-6.762
-10.206
-12.517
-13.605
-13.423
-11.961
-9.271
-5.496
-0.819
4.57
10.5
16.825
23.397
30.026
36.494
42.61
48.244
53.324
57.821
61.705
64.955
67.585
69.645
71.219
72.395
73.244
73.824
74.197
74.437
74.634
74.885
75.262
75.811
76.568
77.552
78.785
80.282
82.04
84.04
86.264
88.696
91.326
94.15
97.154
100.319
103.622
107.042
110.558
114.157
117.818
121.523
125.253
128.989
132.718
136.425
140.093
143.702
147.23
150.656
153.959
157.117
160.11
162.915
165.512
167.885
170.017
171.892
173.498
174.821
175.85
176.575
176.99
177.088
176.863
176.313
175.436
174.232
172.704
170.856
168.692
166.218
163.443
160.377
157.029
153.413
149.542
145.428
141.089
136.541
131.801
126.889
121.822
116.619
111.302
105.89
100.404
94.863
89.287
83.696
78.109
72.543
67.018
61.551
56.157
50.853
45.654
40.574
35.627
30.824
26.177
21.695
17.389
13.266
9.332
5.594
2.057
-1.277
-4.405
-7.325
-10.036
-12.54
-14.839
-16.934
-18.83
-20.532
-22.043
-23.371
-24.523
-25.505
-26.325
-26.991
-27.513
-27.898
-28.156
-28.296
-28.328
-28.26
-28.103
-27.865
-27.556
-27.184
-26.759
-26.287
-25.779
-25.24
-24.679
-24.103
-23.517
-22.93
-22.345
-21.768
-21.205
-20.66
-20.136
-19.637
-19.165
-18.724
-18.315
-17.94
-17.6
-17.296
-17.03
-16.801
-16.61
-16.457
-16.342
-16.263
-16.22
-16.213
-16.239
-16.299
-16.39
-16.513
-16.667
-16.85
-17.062
-17.301
-17.567
-17.857
-18.171
-18.506
-18.861
-19.236
-19.627
-20.034
-20.456
-20.89
-21.336
-21.793
-22.258
-22.729
-23.204
-23.681
-24.156
-24.628
-25.093
-25.548
-25.992
-26.421
-26.833
-27.226
-27.597
-27.942
-28.259
-28.543
-28.79
-28.997
-29.159
-29.273
-29.336
-29.346
-29.301
-29.201
-29.044
-28.828
-28.554
-28.219
-27.825
-27.371
-26.855
-26.281
-25.649
-24.965
-24.231
-23.454
-22.638
-21.791
-20.919
-20.032
-19.133
-18.229
-17.325
-16.425
-15.534
-14.657
-13.799
-12.965
-12.162
-11.398
-10.685
-10.031
-9.442
-8.922
-8.475
-8.102
-7.806
-7.585
-7.433
-7.349
-7.336
-7.402
-7.562
-7.823
-8.184
-8.633
-9.157
-9.728
-10.31
-10.865
-11.341
-11.702
-11.93
-12.016
-11.975
-11.814
-11.532
-11.117
-10.548
-9.806
-8.881
-7.783
-6.525
-5.172
-3.84
-2.658
-1.791
-1.375
-1.496
-2.208
-3.53
-5.455
-7.95
-10.976
-14.481
-18.429
-22.813
-27.624
-32.804
-38.17
-43.423
-48.205
-52.103
-54.775
-55.831
-54.813
-51.532
-46.054
-38.742
-30.304
-21.332
-12.088
-3.001
5.33
12.898
20.056
27.91
38.441
52.732
70.975
93.46
120.334
150.859
183.335
213.976
237.325
249.562
247.952
229.866
193.162
136.039
58.577
-35.358
-139.523
-248.719
-357.913
-462.151
-556.435
-634.169
-690.51
-724.447
-736.875
-729.092
-703.258
-661.193
-605.394
-541.589
-474.945
-408.763
-346.039
-288.478
-236.847
-192.923
-158.136
-131.206
-110.671
-95.031
-81.951
-70.536
-60.649
-51.163
-40.898
-29.776
-17.871
-5.962
4.231
12.091
17.703
20.896
21.646
20.079
16.303
11
5.431
0.391
-3.71
-6.603
-8.31
-8.781
-7.884
-5.686
-2.41
1.722
6.499
11.77
17.49
23.568
29.854
36.159
42.239
47.915
53.091
57.71
61.754
65.207
68.047
70.301
72.036
73.328
74.256
74.877
75.227
75.362
75.355
75.293
75.28
75.388
75.66
76.131
76.822
77.75
78.932
80.364
82.024
83.897
85.97
88.236
90.696
93.339
96.146
99.099
102.177
105.362
108.639
111.991
115.397
118.842
122.308
125.781
129.248
132.693
136.095
139.435
142.693
145.846
148.875
151.759
154.477
157.01
159.34
161.451
163.328
164.957
166.325
167.421
168.236
168.762
168.991
168.918
168.54
167.854
166.861
165.563
163.961
162.059
159.865
157.385
154.628
151.605
148.326
144.804
141.052
137.085
132.92
128.572
124.059
119.399
114.61
109.711
104.723
99.664
94.553
89.409
84.252
79.098
73.967
68.875
63.838
58.874
53.996
49.22
44.56
40.027
35.633
31.389
27.305
23.388
19.646
16.086
12.712
9.528
6.537
3.741
1.141
-1.263
-3.474
-5.493
-7.323
-8.97
-10.438
-11.733
-12.861
-13.83
-14.647
-15.321
-15.859
-16.27
-16.564
-16.75
-16.837
-16.833
-16.749
-16.594
-16.376
-16.104
-15.786
-15.43
-15.044
-14.634
-14.209
-13.773
-13.333
-12.895
-12.462
-12.04
-11.633
-11.243
-10.873
-10.526
-10.204
-9.907
-9.638
-9.395
-9.18
-8.994
-8.834
-8.703
-8.598
-8.52
-8.467
-8.438
-8.433
-8.451
-8.489
-8.548
-8.626
-8.723
-8.837
-8.97
-9.12
-9.287
-9.471
-9.671
-9.887
-10.118
-10.364
-10.625
-10.901
-11.192
-11.497
-11.817
-12.153
-12.504
-12.87
-13.251
-13.645
-14.052
-14.47
-14.898
-15.332
-15.771
-16.212
-16.654
-17.093
-17.529
-17.956
-18.372
-18.774
-19.157
-19.516
-19.846
-20.143
-20.401
-20.616
-20.785
-20.904
-20.972
-20.985
-20.939
-20.833
-20.664
-20.431
-20.132
-19.763
-19.324
-18.816
-18.24
-17.598
-16.893
-16.129
-15.312
-14.45
-13.55
-12.616
-11.654
-10.671
-9.67
-8.658
-7.639
-6.617
-5.598
-4.59
-3.603
-2.648
-1.734
-0.869
-0.063
0.679
1.352
1.952
2.478
2.936
3.323
3.634
3.86
3.983
3.997
3.906
3.712
3.424
3.063
2.658
2.257
1.917
1.675
1.549
1.549
1.664
1.9
2.268
2.767
3.405
4.181
5.09
6.133
7.301
8.537
9.735
10.743
11.385
11.535
11.111
10.047
8.311
5.873
2.722
-1.079
-5.437
-10.27
-15.515
-21.141
-27.116
-33.284
-39.342
-44.914
-49.579
-52.964
-54.795
-54.725
-52.328
-47.448
-40.216
-31.091
-20.924
-10.404
0.207
10.464
19.733
27.997
35.639
43.704
54.159
68.286
86.292
108.509
135.155
165.011
195.797
223.704
243.346
250.543
242.521
216.435
169.829
102.17
15.037
-87.208
-197.856
-310.9
-421.067
-522.638
-609.537
-676.453
-720.056
-739.834
-737.868
-716.549
-678.248
-625.886
-563.555
-496.422
-429.281
-365.647
-307.081
-254.337
-208.274
-169.862
-139.478
-115.982
-97.325
-81.289
-66.833
-53.864
-42.228
-31.308
-20.132
-8.465
2.899
12.53
19.558
24
26.207
26.476
24.67
20.748
15.253
9.234
3.674
-0.885
-4.253
-6.466
-7.448
-7.041
-5.225
-2.146
1.942
6.785
12.205
18.113
24.428
31.016
37.688
44.204
50.361
56.036
61.162
65.718
69.678
73.016
75.736
77.885
79.544
80.799
81.716
82.344
82.734
82.952
83.087
83.244
83.5
83.902
84.483
85.261
86.254
87.481
88.94
90.613
92.48
94.529
96.749
99.141
101.693
104.387
107.204
110.121
113.121
116.19
119.312
122.468
125.645
128.824
131.995
135.146
138.262
141.326
144.319
147.221
150.013
152.677
155.194
157.544
159.71
161.676
163.427
164.951
166.236
167.27
168.042
168.545
168.772
168.717
168.376
167.745
166.823
165.612
164.112
162.327
160.263
157.923
155.316
152.449
149.334
145.979
142.398
138.603
134.608
130.427
126.078
121.575
116.937
112.18
107.323
102.383
97.379
92.329
87.251
82.161
77.078
72.018
66.998
62.033
57.139
52.329
47.619
43.021
38.548
34.21
30.019
25.984
22.113
18.414
14.894
11.558
8.41
5.455
2.695
0.131
-2.236
-4.406
-6.382
-8.166
-9.761
-11.171
-12.401
-13.456
-14.344
-15.071
-15.644
-16.072
-16.362
-16.524
-16.566
-16.497
-16.328
-16.067
-15.723
-15.307
-14.827
-14.293
-13.713
-13.096
-12.451
-11.785
-11.106
-10.422
-9.739
-9.064
-8.403
-7.761
-7.144
-6.556
-6.001
-5.483
-5.004
-4.567
-4.175
-3.83
-3.532
-3.282
-3.083
-2.933
-2.834
-2.785
-2.785
-2.834
-2.931
-3.074
-3.263
-3.496
-3.772
-4.091
-4.45
-4.848
-5.286
-5.761
-6.271
-6.815
-7.392
-8
-8.637
-9.302
-9.993
-10.709
-11.448
-12.21
-12.994
-13.797
-14.618
-15.454
-16.303
-17.162
-18.03
-18.901
-19.775
-20.646
-21.514
-22.374
-23.225
-24.063
-24.885
-25.686
-26.462
-27.209
-27.922
-28.595
-29.223
-29.803
-30.329
-30.801
-31.213
-31.564
-31.851
-32.071
-32.221
-32.301
-32.307
-32.238
-32.091
-31.869
-31.57
-31.199
-30.758
-30.251
-29.683
-29.062
-28.393
-27.682
-26.936
-26.157
-25.352
-24.525
-23.679
-22.817
-21.948
-21.077
-20.214
-19.37
-18.556
-17.782
-17.056
-16.383
-15.77
-15.219
-14.73
-14.3
-13.929
-13.621
-13.386
-13.241
-13.195
-13.247
-13.395
-13.629
-13.932
-14.275
-14.611
-14.887
-15.066
-15.122
-15.049
-14.862
-14.56
-14.142
-13.601
-12.919
-12.092
-11.125
-10.006
-8.746
-7.382
-5.994
-4.738
-3.789
-3.278
-3.306
-3.932
-5.178
-7.073
-9.626
-12.802
-16.548
-20.788
-25.462
-30.563
-36.072
-41.883
-47.762
-53.329
-58.161
-61.885
-64.198
-64.764
-63.174
-59.22
-52.971
-44.788
-35.392
-25.435
-15.203
-5.122
4.171
12.638
20.636
29.086
39.845
54.196
72.43
95.032
122.401
153.533
186.392
217.312
240.915
253.003
250.656
230.758
190.557
128.949
46.832
-51.804
-160.478
-273.488
-385.579
-491.01
-583.808
-658.164
-710.106
-738.793
-745.62
-732.225
-700.828
-654.078
-595.386
-529.979
-462.574
-396.389
-333.983
-277.076
-226.593
-183.849
-149.877
-123.59
-103.619
-88.558
-76.292
-65.792
-56.771
-48.163
-38.801
-28.584
-17.613
-6.605
2.81
10.02
15.105
17.868
18.263
16.448
12.592
7.425
2.176
-2.42
-5.998
-8.319
-9.398
-9.178
-7.551
-4.614
-0.609
4.232
9.706
15.68
22.085
28.8
35.64
42.375
48.793
54.753
60.174
65.017
69.268
72.903
75.924
78.38
80.334
81.861
83.028
83.882
84.476
84.881
85.183
85.485
85.874
86.404
87.113
88.028
89.163
90.534
92.142
93.968
95.995
98.212
100.608
103.183
105.927
108.824
111.853
114.993
118.223
121.529
124.892
128.293
131.716
135.144
138.562
141.96
145.321
148.627
151.857
154.991
158.008
160.888
163.611
166.155
168.501
170.632
172.533
174.189
175.589
176.718
177.568
178.128
178.392
178.353
178.007
177.351
176.384
175.105
173.518
171.626
169.434
166.948
164.177
161.129
157.817
154.25
150.443
146.41
142.165
137.725
133.108
128.331
123.412
118.37
113.226
107.998
102.706
97.371
92.01
86.643
81.287
75.961
70.682
65.467
60.331
55.29
50.357
45.547
40.872
36.344
31.973
27.769
23.74
19.893
16.236
12.772
9.507
6.444
3.584
0.928
-1.524
-3.773
-5.82
-7.671
-9.328
-10.796
-12.081
-13.19
-14.129
-14.907
-15.53
-16.008
-16.35
-16.564
-16.659
-16.646
-16.533
-16.331
-16.048
-15.693
-15.277
-14.807
-14.293
-13.743
-13.164
-12.565
-11.953
-11.335
-10.717
-10.106
-9.506
-8.922
-8.36
-7.822
-7.313
-6.835
-6.392
-5.984
-5.614
-5.284
-4.993
-4.743
-4.533
-4.363
-4.233
-4.142
-4.089
-4.074
-4.095
-4.15
-4.24
-4.362
-4.516
-4.7
-4.913
-5.154
-5.42
-5.711
-6.026
-6.364
-6.724
-7.104
-7.505
-7.925
-8.365
-8.825
-9.302
-9.798
-10.31
-10.838
-11.382
-11.942
-12.515
-13.103
-13.705
-14.32
-14.948
-15.588
-16.239
-16.9
-17.568
-18.243
-18.922
-19.601
-20.279
-20.952
-21.619
-22.277
-22.924
-23.556
-24.171
-24.766
-25.336
-25.878
-26.388
-26.861
-27.293
-27.679
-28.018
-28.307
-28.543
-28.725
-28.851
-28.918
-28.925
-28.872
-28.757
-28.577
-28.333
-28.024
-27.653
-27.223
-26.737
-26.199
-25.615
-24.991
-24.336
-23.655
-22.952
-22.233
-21.503
-20.764
-20.023
-19.281
-18.541
-17.811
-17.099
-16.413
-15.763
-15.156
-14.597
-14.092
-13.647
-13.266
-12.947
-12.686
-12.481
-12.335
-12.259
-12.268
-12.37
-12.56
-12.832
-13.178
-13.582
-14.022
-14.454
-14.817
-15.06
-15.157
-15.1
-14.896
-14.546
-14.039
-13.356
-12.491
-11.452
-10.259
-8.916
-7.42
-5.803
-4.139
-2.575
-1.306
-0.489
-0.227
-0.587
-1.609
-3.335
-5.81
-9.023
-12.893
-17.322
-22.217
-27.551
-33.335
-39.48
-45.757
-51.805
-57.172
-61.456
-64.36
-65.52
-64.478
-60.998
-55.08
-47.05
-37.678
-27.643
-17.265
-6.99
2.596
11.488
20.064
29.308
41.096
56.727
76.528
100.931
130.254
163.411
198.242
230.984
256.192
269.6
268.262
249.043
209.146
147.49
64.999
-34.348
-143.981
-258.153
-371.622
-478.554
-572.922
-648.922
-702.545
-732.952
-741.577
-730.04
-700.539
-655.722
-598.96
-535.426
-469.767
-405.1
-343.933
-287.938
-237.989
-195.426
-161.271
-134.462
-113.706
-97.638
-84.206
-72.462
-62.178
-52.344
-41.859
-30.636
-18.76
-6.961
3.128
10.876
16.349
19.383
19.945
18.186
14.243
8.798
3.111
-2.031
-6.218
-9.178
-10.928
-11.415
-10.506
-8.267
-4.922
-0.688
4.225
9.667
15.596
21.909
28.453
35.034
41.4
47.372
52.854
57.782
62.14
65.907
69.062
71.631
73.681
75.287
76.524
77.451
78.102
78.533
78.818
79.043
79.312
79.696
80.237
80.968
81.909
83.077
84.486
86.13
87.987
90.039
92.274
94.685
97.269
100.015
102.905
105.918
109.034
112.235
115.505
118.827
122.181
125.551
128.921
132.277
135.606
138.892
142.117
145.261
148.305
151.228
154.012
156.637
159.083
161.332
163.368
165.177
166.746
168.061
169.111
169.888
170.383
170.589
170.501
170.115
169.429
168.441
167.153
165.568
163.689
161.521
159.071
156.347
153.357
150.114
146.627
142.911
138.978
134.844
130.524
126.035
121.395
116.62
111.731
106.744
101.68
96.558
91.396
86.213
81.026
75.855
70.717
65.628
60.605
55.663
50.818
46.083
41.473
37
32.675
28.509
24.511
20.69
17.054
13.609
10.361
7.313
4.468
1.83
-0.602
-2.828
-4.849
-6.667
-8.286
-9.71
-10.944
-11.995
-12.869
-13.574
-14.119
-14.512
-14.762
-14.88
-14.875
-14.758
-14.539
-14.229
-13.839
-13.379
-12.86
-12.292
-11.685
-11.049
-10.394
-9.728
-9.061
-8.399
-7.751
-7.124
-6.524
-5.957
-5.427
-4.939
-4.496
-4.103
-3.761
-3.471
-3.236
-3.056
-2.931
-2.86
-2.842
-2.875
-2.958
-3.087
-3.261
-3.476
-3.729
-4.017
-4.335
-4.682
-5.054
-5.446
-5.856
-6.279
-6.713
-7.154
-7.6
-8.047
-8.495
-8.939
-9.38
-9.816
-10.246
-10.669
-11.084
-11.491
-11.888
-12.277
-12.657
-13.028
-13.391
-13.748
-14.098
-14.445
-14.788
-15.129
-15.468
-15.807
-16.146
-16.486
-16.826
-17.165
-17.504
-17.842
-18.179
-18.514
-18.848
-19.178
-19.503
-19.822
-20.13
-20.427
-20.707
-20.967
-21.204
-21.414
-21.595
-21.744
-21.86
-21.94
-21.98
-21.979
-21.935
-21.845
-21.706
-21.517
-21.275
-20.981
-20.635
-20.238
-19.793
-19.302
-18.77
-18.202
-17.605
-16.982
-16.338
-15.675
-14.997
-14.31
-13.616
-12.917
-12.218
-11.525
-10.846
-10.19
-9.567
-8.981
-8.44
-7.951
-7.516
-7.141
-6.826
-6.566
-6.36
-6.216
-6.141
-6.153
-6.261
-6.461
-6.751
-7.123
-7.557
-8.026
-8.486
-8.875
-9.155
-9.307
-9.317
-9.199
-8.95
-8.559
-8.031
-7.355
-6.527
-5.555
-4.437
-3.179
-1.841
-0.524
0.624
1.417
1.72
1.445
0.512
-1.103
-3.423
-6.453
-10.11
-14.309
-18.985
-24.09
-29.619
-35.524
-41.61
-47.582
-53.068
-57.627
-60.927
-62.583
-62.099
-59.267
-54.101
-46.893
-38.383
-29.197
-19.614
-10.098
-1.234
6.977
14.843
23.411
34.603
49.457
68.178
91.06
118.191
148.844
181.324
211.916
235.395
248.034
247.146
230.202
195.039
139.884
64.903
-26.226
-127.511
-233.665
-339.796
-441.036
-532.063
-606.589
-660.091
-691.266
-701.246
-692.032
-665.772
-624.675
-572.212
-513.554
-453.504
-395.855
-342.595
-294.115
-250.927
-213.717
-182.429
-156.357
-134.076
-113.393
-93.343
-74.27
-56.307
-39.61
-24.171
-9.416
4.361
15.838
24.413
30.08
33.001
33.842
32.95
30.09
25.567
20.224
14.754
9.846
5.924
2.962
1.027
0.322
0.896
2.715
5.679
9.545
14.117
19.285
24.924
30.931
37.179
43.468
49.586
55.359
60.665
65.448
69.684
73.347
76.421
78.918
80.89
82.424
83.602
84.491
85.142
85.607
85.957
86.281
86.676
87.214
87.94
88.884
90.066
91.505
93.217
95.199
97.432
99.895
102.574
105.458
108.542
111.812
115.248
118.825
122.52
126.311
130.182
134.111
138.077
142.059
146.037
149.993
153.911
157.772
161.554
165.232
168.784
172.186
175.417
178.452
181.27
183.849
186.171
188.219
189.978
191.433
192.572
193.383
193.858
193.99
193.772
193.202
192.276
190.995
189.361
187.378
185.052
182.39
179.4
176.092
172.478
168.572
164.388
159.941
155.248
150.327
145.198
139.88
134.393
128.759
122.999
117.135
111.189
105.183
99.138
93.077
87.019
80.984
74.994
69.066
63.218
57.468
51.832
46.325
40.963
35.757
30.721
25.864
21.198
16.73
12.468
8.418
4.585
0.973
-2.415
-5.578
-8.515
-11.227
-13.715
-15.983
-18.034
-19.872
-21.504
-22.935
-24.173
-25.225
-26.099
-26.804
-27.35
-27.745
-28
-28.124
-28.127
-28.021
-27.814
-27.516
-27.138
-26.689
-26.179
-25.618
-25.012
-24.373
-23.707
-23.022
-22.326
-21.625
-20.926
-20.235
-19.558
-18.899
-18.263
-17.655
-17.078
-16.535
-16.029
-15.563
-15.138
-14.756
-14.418
-14.124
-13.875
-13.671
-13.512
-13.397
-13.327
-13.3
-13.316
-13.375
-13.474
-13.613
-13.791
-14.005
-14.256
-14.541
-14.86
-15.211
-15.594
-16.007
-16.45
-16.92
-17.418
-17.941
-18.488
-19.056
-19.645
-20.253
-20.878
-21.518
-22.172
-22.839
-23.517
-24.204
-24.898
-25.598
-26.3
-27.002
-27.701
-28.394
-29.077
-29.748
-30.402
-31.037
-31.651
-32.24
-32.801
-33.329
-33.821
-34.273
-34.681
-35.039
-35.343
-35.59
-35.776
-35.9
-35.959
-35.954
-35.881
-35.74
-35.53
-35.251
-34.903
-34.485
-33.997
-33.439
-32.815
-32.129
-31.383
-30.583
-29.734
-28.844
-27.92
-26.971
-26.003
-25.022
-24.033
-23.042
-22.054
-21.076
-20.112
-19.169
-18.254
-17.376
-16.547
-15.777
-15.073
-14.44
-13.882
-13.401
-12.999
-12.677
-12.429
-12.254
-12.155
-12.139
-12.223
-12.416
-12.716
-13.114
-13.599
-14.143
-14.714
-15.272
-15.766
-16.16
-16.434
-16.579
-16.607
-16.524
-16.329
-16.015
-15.564
-14.958
-14.189
-13.264
-12.195
-11.047
-9.933
-8.975
-8.334
-8.138
-8.467
-9.381
-10.898
-13.01
-15.684
-18.858
-22.462
-26.454
-30.82
-35.542
-40.555
-45.659
-50.549
-54.891
-58.301
-60.471
-61.046
-59.574
-55.888
-50.078
-42.527
-33.979
-25.03
-15.902
-6.968
1.229
8.713
15.813
23.559
33.855
47.691
65.156
86.375
111.243
138.893
167.646
194.003
213.081
221.533
217.022
197.382
160.946
106.401
34.217
-51.877
-146.307
-244.391
-341.598
-433.317
-514.608
-579.543
-624.267
-648.379
-653.24
-640.595
-612.777
-572.357
-523.162
-470.948
-420.028
-372.52
-329.512
-291.138
-257.241
-227.875
-202.121
-177.785
-153.526
-128.938
-104.087
-79.855
-57.001
-35.877
-17.134
-1.605
10.322
18.546
23.251
25.044
24.477
22.029
18.281
13.707
8.722
3.75
-0.891
-4.921
-8.089
-10.256
-11.333
-11.25
-10.001
-7.605
-4.125
0.288
5.47
11.258
17.463
23.938
30.521
37.008
43.236
49.069
54.4
59.189
63.416
67.053
70.109
72.617
74.624
76.21
77.448
78.394
79.119
79.693
80.197
80.726
81.353
82.127
83.088
84.258
85.655
87.295
89.18
91.295
93.63
96.172
98.908
101.837
104.946
108.218
111.632
115.165
118.798
122.513
126.294
130.121
133.976
137.839
141.695
145.529
149.324
153.058
156.709
160.252
163.664
166.925
170.011
172.898
175.565
177.993
180.163
182.059
183.667
184.97
185.957
186.615
186.937
186.913
186.539
185.809
184.721
183.274
181.471
179.313
176.807
173.958
170.775
167.267
163.447
159.327
154.922
150.247
145.319
140.158
134.783
129.214
123.472
117.58
111.559
105.433
99.225
92.957
86.651
80.331
74.017
67.732
61.496
55.329
49.25
43.278
37.43
31.724
26.174
20.796
15.602
10.604
5.813
1.239
-3.111
-7.229
-11.11
-14.751
-18.147
-21.299
-24.205
-26.867
-29.287
-31.468
-33.415
-35.133
-36.629
-37.91
-38.985
-39.862
-40.55
-41.059
-41.4
-41.584
-41.621
-41.523
-41.301
-40.967
-40.531
-40.005
-39.401
-38.728
-37.999
-37.222
-36.408
-35.566
-34.706
-33.835
-32.962
-32.093
-31.235
-30.394
-29.576
-28.786
-28.026
-27.302
-26.616
-25.971
-25.368
-24.809
-24.294
-23.825
-23.401
-23.022
-22.687
-22.395
-22.146
-21.936
-21.766
-21.632
-21.534
-21.469
-21.435
-21.43
-21.451
-21.496
-21.563
-21.65
-21.755
-21.876
-22.011
-22.159
-22.319
-22.49
-22.671
-22.861
-23.061
-23.268
-23.484
-23.708
-23.94
-24.18
-24.43
-24.689
-24.958
-25.239
-25.532
-25.837
-26.156
-26.487
-26.831
-27.189
-27.561
-27.946
-28.344
-28.755
-29.18
-29.618
-30.07
-30.533
-31.007
-31.49
-31.981
-32.477
-32.976
-33.475
-33.97
-34.458
-34.937
-35.404
-35.856
-36.288
-36.698
-37.081
-37.432
-37.747
-38.022
-38.251
-38.429
-38.554
-38.622
-38.631
-38.579
-38.464
-38.285
-38.039
-37.728
-37.349
-36.902
-36.386
-35.801
-35.15
-34.435
-33.66
-32.83
-31.948
-31.023
-30.063
-29.075
-28.067
-27.043
-26.011
-24.976
-23.945
-22.923
-21.911
-20.918
-19.95
-19.016
-18.127
-17.293
-16.518
-15.811
-15.179
-14.625
-14.153
-13.762
-13.447
-13.206
-13.043
-12.964
-12.986
-13.117
-13.349
-13.68
-14.101
-14.59
-15.117
-15.634
-16.078
-16.407
-16.598
-16.633
-16.523
-16.265
-15.844
-15.266
-14.522
-13.602
-12.515
-11.255
-9.824
-8.281
-6.724
-5.298
-4.19
-3.537
-3.428
-3.947
-5.122
-6.975
-9.508
-12.634
-16.269
-20.346
-24.82
-29.691
-34.913
-40.296
-45.547
-50.296
-54.105
-56.642
-57.519
-56.234
-52.579
-46.585
-38.567
-29.293
-19.399
-9.151
1.004
10.508
19.395
28.022
37.485
49.756
65.882
86.016
110.374
138.924
170.812
204.266
235.517
259.329
272.034
271.012
253.852
218.589
163.637
89.319
-0.561
-100.109
-204.21
-307.921
-406.459
-494.606
-566.111
-616.916
-646.176
-654.936
-645.1
-619.153
-579.388
-529.593
-475.372
-420.699
-368.507
-320.771
-277.715
-239.398
-206.371
-177.832
-152.21
-128.987
-106.869
-85.001
-64.102
-44.497
-26.273
-10.153
3.672
15.538
24.695
30.754
34.158
35.035
33.883
31.454
27.864
23.201
18.159
13.236
8.825
5.408
3.028
1.665
1.481
2.529
4.757
8.1
12.362
17.32
22.846
28.778
34.969
41.273
47.471
53.389
58.897
63.888
68.327
72.198
75.47
78.153
80.28
81.894
83.075
83.899
84.417
84.704
84.829
84.869
84.926
85.079
85.379
85.87
86.576
87.513
88.7
90.14
91.821
93.734
95.866
98.206
100.755
103.501
106.429
109.519
112.749
116.098
119.549
123.086
126.69
130.342
134.024
137.72
141.416
145.095
148.737
152.319
155.818
159.21
162.474
165.587
168.526
171.268
173.795
176.087
178.128
179.904
181.398
182.598
183.492
184.071
184.326
184.252
183.844
183.097
182.012
180.59
178.833
176.747
174.336
171.609
168.575
165.244
161.629
157.743
153.601
149.219
144.614
139.804
134.809
129.649
124.344
118.915
113.383
107.772
102.101
96.392
90.666
84.943
79.244
73.588
67.994
62.479
57.062
51.758
46.583
41.552
36.678
31.974
27.449
23.114
18.979
15.049
11.332
7.833
4.555
1.5
-1.328
-3.932
-6.31
-8.466
-10.402
-12.122
-13.633
-14.939
-16.048
-16.967
-17.704
-18.269
-18.671
-18.919
-19.024
-18.996
-18.846
-18.584
-18.222
-17.77
-17.238
-16.639
-15.981
-15.275
-14.53
-13.757
-12.964
-12.159
-11.351
-10.548
-9.755
-8.981
-8.23
-7.509
-6.822
-6.173
-5.566
-5.003
-4.488
-4.023
-3.608
-3.245
-2.934
-2.674
-2.467
-2.31
-2.203
-2.143
-2.13
-2.16
-2.233
-2.344
-2.493
-2.675
-2.889
-3.132
-3.4
-3.692
-4.003
-4.332
-4.675
-5.029
-5.393
-5.765
-6.14
-6.519
-6.899
-7.278
-7.656
-8.031
-8.403
-8.769
-9.131
-9.486
-9.835
-10.179
-10.516
-10.848
-11.175
-11.497
-11.817
-12.134
-12.45
-12.763
-13.076
-13.388
-13.7
-14.013
-14.328
-14.643
-14.961
-15.283
-15.608
-15.938
-16.271
-16.608
-16.947
-17.289
-17.631
-17.972
-18.31
-18.643
-18.969
-19.287
-19.596
-19.893
-20.174
-20.439
-20.682
-20.902
-21.094
-21.254
-21.379
-21.465
-21.51
-21.513
-21.472
-21.385
-21.252
-21.07
-20.84
-20.56
-20.231
-19.849
-19.416
-18.931
-18.398
-17.82
-17.198
-16.539
-15.847
-15.13
-14.396
-13.65
-12.897
-12.142
-11.391
-10.649
-9.919
-9.204
-8.508
-7.838
-7.202
-6.609
-6.068
-5.586
-5.168
-4.819
-4.545
-4.348
-4.228
-4.177
-4.193
-4.279
-4.444
-4.704
-5.067
-5.525
-6.073
-6.702
-7.396
-8.128
-8.856
-9.511
-10.04
-10.414
-10.625
-10.679
-10.573
-10.294
-9.819
-9.143
-8.277
-7.235
-6.027
-4.648
-3.134
-1.569
-0.11
1.037
1.706
1.792
1.236
-0.009
-1.979
-4.71
-8.197
-12.333
-17.004
-22.12
-27.639
-33.557
-39.772
-46.015
-51.877
-56.883
-60.608
-62.751
-62.975
-60.825
-56.104
-48.885
-39.552
-28.976
-17.892
-6.581
4.532
14.875
24.512
33.874
43.954
56.675
73.273
93.898
118.833
148.18
180.607
213.757
243.763
265.264
274.185
267.848
243.51
198.854
133.354
48.518
-51.303
-159.543
-270.477
-378.999
-479.63
-566.726
-635.12
-681.542
-705.586
-708.916
-693.365
-661.173
-614.984
-558.119
-495.379
-431.025
-367.975
-308.52
-254.235
-206.011
-165.099
-132.529
-107.402
-88.49
-74.486
-63.406
-54.236
-46.65
-39.571
-31.762
-23.026
-13.433
-3.661
4.72
11.104
15.566
17.899
18.002
15.996
12.042
6.849
1.622
-2.924
-6.452
-8.747
-9.827
-9.651
-8.118
-5.331
-1.54
3.028
8.177
13.788
19.806
26.122
32.563
38.911
44.961
50.581
55.7
60.282
64.315
67.78
70.68
73.065
75.001
76.56
77.807
78.787
79.546
80.151
80.683
81.239
81.901
82.72
83.731
84.959
86.416
88.117
90.062
92.231
94.606
97.174
99.924
102.851
105.948
109.195
112.572
116.057
119.628
123.27
126.963
130.687
134.425
138.159
141.872
145.552
149.181
152.74
156.208
159.561
162.78
165.842
168.727
171.413
173.879
176.108
178.083
179.79
181.215
182.345
183.169
183.678
183.865
183.724
183.25
182.441
181.296
179.816
178.005
175.865
173.405
170.63
167.55
164.175
160.518
156.592
152.41
147.989
143.345
138.497
133.462
128.261
122.913
117.44
111.863
106.202
100.481
94.72
88.941
83.163
77.408
71.694
66.042
60.469
54.992
49.629
44.394
39.304
34.37
29.606
25.022
20.63
16.437
12.451
8.68
5.127
1.797
-1.307
-4.184
-6.832
-9.254
-11.451
-13.426
-15.183
-16.727
-18.064
-19.202
-20.148
-20.91
-21.498
-21.922
-22.191
-22.316
-22.309
-22.179
-21.938
-21.598
-21.168
-20.661
-20.087
-19.456
-18.779
-18.065
-17.324
-16.564
-15.795
-15.024
-14.259
-13.506
-12.773
-12.063
-11.383
-10.737
-10.129
-9.562
-9.039
-8.562
-8.132
-7.751
-7.418
-7.133
-6.897
-6.708
-6.565
-6.466
-6.409
-6.392
-6.411
-6.466
-6.552
-6.667
-6.808
-6.972
-7.157
-7.358
-7.574
-7.801
-8.038
-8.28
-8.527
-8.775
-9.023
-9.269
-9.51
-9.746
-9.976
-10.197
-10.41
-10.613
-10.806
-10.989
-11.162
-11.324
-11.476
-11.618
-11.751
-11.875
-11.991
-12.101
-12.205
-12.306
-12.404
-12.501
-12.599
-12.698
-12.801
-12.908
-13.022
-13.145
-13.277
-13.42
-13.577
-13.75
-13.939
-14.146
-14.373
-14.619
-14.886
-15.174
-15.483
-15.815
-16.169
-16.546
-16.944
-17.366
-17.809
-18.274
-18.758
-19.261
-19.78
-20.313
-20.857
-21.41
-21.967
-22.526
-23.083
-23.637
-24.183
-24.718
-25.237
-25.737
-26.213
-26.66
-27.073
-27.447
-27.777
-28.058
-28.288
-28.464
-28.583
-28.642
-28.64
-28.573
-28.442
-28.245
-27.979
-27.645
-27.241
-26.769
-26.232
-25.633
-24.975
-24.264
-23.507
-22.711
-21.884
-21.032
-20.163
-19.282
-18.394
-17.505
-16.621
-15.744
-14.882
-14.043
-13.235
-12.47
-11.758
-11.104
-10.52
-10.011
-9.58
-9.231
-8.963
-8.772
-8.658
-8.625
-8.681
-8.842
-9.112
-9.487
-9.964
-10.532
-11.168
-11.843
-12.506
-13.097
-13.58
-13.93
-14.139
-14.211
-14.141
-13.916
-13.536
-12.993
-12.284
-11.413
-10.375
-9.179
-7.876
-6.57
-5.409
-4.568
-4.172
-4.305
-5.035
-6.392
-8.407
-11.093
-14.39
-18.204
-22.456
-27.082
-32.055
-37.352
-42.826
-48.182
-53.049
-57.007
-59.684
-60.815
-60.053
-56.97
-51.406
-43.488
-33.676
-22.833
-11.65
-0.383
10.536
20.499
29.522
38.013
47.043
58.615
74.021
93.455
117.22
145.472
176.923
209.229
238.516
259.368
267.61
260.516
235.315
189.607
122.893
36.786
-64.337
-173.8
-285.667
-394.805
-495.666
-582.279
-649.397
-693.724
-714.749
-714.545
-695.467
-659.797
-610.338
-551.036
-486.939
-422.768
-361.979
-306.068
-255.752
-211.82
-175.189
-146.286
-124.007
-106.335
-91.106
-77.264
-64.7
-53.288
-42.441
-31.215
-19.414
-7.824
2.154
9.615
14.543
17.236
17.932
16.526
13.007
7.908
2.26
-2.993
-7.337
-10.571
-12.713
-13.697
-13.372
-11.728
-8.916
-5.161
-0.688
4.344
9.867
15.789
21.968
28.225
34.326
40.08
45.372
50.13
54.322
57.937
60.956
63.387
65.283
66.716
67.763
68.491
68.947
69.182
69.267
69.286
69.342
69.512
69.846
70.38
71.134
72.128
73.375
74.878
76.618
78.579
80.749
83.118
85.685
88.441
91.368
94.446
97.654
100.972
104.384
107.873
111.419
115.004
118.61
122.22
125.822
129.396
132.923
136.381
139.747
142.997
146.112
149.068
151.843
154.416
156.768
158.881
160.741
162.331
163.638
164.65
165.357
165.749
165.819
165.562
164.973
164.05
162.793
161.204
159.285
157.042
154.48
151.607
148.433
144.969
141.227
137.221
132.965
128.477
123.772
118.87
113.79
108.551
103.174
97.679
92.09
86.425
80.708
74.959
69.197
63.445
57.722
52.046
46.438
40.914
35.491
30.187
25.017
19.995
15.134
10.447
5.945
1.637
-2.467
-6.36
-10.035
-13.488
-16.714
-19.712
-22.478
-25.014
-27.319
-29.396
-31.249
-32.88
-34.297
-35.503
-36.507
-37.317
-37.939
-38.384
-38.661
-38.78
-38.751
-38.584
-38.291
-37.882
-37.368
-36.762
-36.072
-35.311
-34.488
-33.615
-32.7
-31.755
-30.787
-29.806
-28.82
-27.837
-26.864
-25.908
-24.975
-24.071
-23.202
-22.37
-21.582
-20.839
-20.144
-19.501
-18.91
-18.373
-17.891
-17.465
-17.093
-16.777
-16.515
-16.306
-16.15
-16.044
-15.986
-15.976
-16.01
-16.088
-16.206
-16.363
-16.556
-16.782
-17.041
-17.329
-17.645
-17.985
-18.349
-18.734
-19.138
-19.559
-19.996
-20.446
-20.907
-21.379
-21.86
-22.347
-22.841
-23.339
-23.84
-24.343
-24.846
-25.349
-25.851
-26.35
-26.845
-27.335
-27.82
-28.299
-28.771
-29.235
-29.69
-30.135
-30.57
-30.994
-31.406
-31.805
-32.191
-32.563
-32.92
-33.263
-33.59
-33.902
-34.2
-34.482
-34.75
-35.003
-35.242
-35.467
-35.679
-35.879
-36.066
-36.243
-36.411
-36.57
-36.723
-36.869
-37.012
-37.15
-37.286
-37.419
-37.551
-37.682
-37.814
-37.946
-38.079
-38.215
-38.353
-38.496
-38.642
-38.791
-38.942
-39.095
-39.249
-39.402
-39.551
-39.695
-39.831
-39.958
-40.074
-40.176
-40.261
-40.326
-40.369
-40.384
-40.37
-40.32
-40.23
-40.097
-39.917
-39.688
-39.407
-39.074
-38.685
-38.239
-37.736
-37.174
-36.552
-35.87
-35.125
-34.319
-33.453
-32.531
-31.554
-30.527
-29.455
-28.344
-27.202
-26.037
-24.855
-23.662
-22.462
-21.262
-20.067
-18.883
-17.711
-16.558
-15.431
-14.338
-13.29
-12.296
-11.362
-10.494
-9.7
-8.982
-8.344
-7.787
-7.302
-6.889
-6.553
-6.3
-6.146
-6.099
-6.152
-6.303
-6.542
-6.847
-7.19
-7.524
-7.786
-7.936
-7.951
-7.817
-7.543
-7.127
-6.556
-5.834
-4.951
-3.898
-2.683
-1.303
0.24
1.889
3.545
5.063
6.257
6.991
7.174
6.726
5.619
3.83
1.354
-1.732
-5.346
-9.425
-13.924
-18.843
-24.141
-29.63
-35.024
-39.952
-43.976
-46.76
-47.916
-46.948
-43.643
-38.014
-30.354
-21.397
-11.77
-1.749
8.206
17.516
26.194
34.572
43.72
55.585
71.229
90.858
114.755
143.003
174.84
208.546
240.382
265.043
278.743
278.764
262.543
227.95
173.267
98.646
7.759
-93.41
-199.651
-306.026
-407.617
-499.34
-575.05
-630.342
-664.062
-677.001
-670.704
-647.33
-609.034
-558.775
-501.463
-441.411
-381.854
-325.553
-273.746
-227.041
-186.412
-152.352
-124.375
-101.861
-83.463
-67.273
-52.704
-39.656
-27.79
-16.798
-6.06
4.885
15.441
24.335
30.953
35.225
37.363
37.716
36.155
32.589
27.527
21.926
16.677
12.336
9.104
6.95
5.964
6.285
7.917
10.73
14.47
18.898
23.851
29.247
35.015
41.038
47.136
53.087
58.704
63.869
68.522
72.642
76.203
79.185
81.597
83.487
84.936
86.025
86.818
87.363
87.706
87.913
88.067
88.267
88.588
89.074
89.759
90.66
91.797
93.187
94.828
96.703
98.793
101.086
103.571
106.247
109.104
112.122
115.282
118.56
121.939
125.403
128.934
132.512
136.121
139.741
143.358
146.958
150.525
154.036
157.472
160.811
164.03
167.109
170.026
172.76
175.29
177.599
179.668
181.485
183.033
184.299
185.271
185.94
186.297
186.335
186.049
185.434
184.489
183.213
181.609
179.68
177.429
174.864
171.992
168.822
165.365
161.634
157.64
153.399
148.926
144.239
139.354
134.291
129.069
123.708
118.228
112.65
106.995
101.284
95.537
89.775
84.018
78.285
72.595
66.968
61.42
55.97
50.632
45.424
40.359
35.451
30.711
26.152
21.783
17.614
13.652
9.904
6.375
3.069
-0.011
-2.862
-5.485
-7.88
-10.049
-11.994
-13.72
-15.232
-16.534
-17.635
-18.541
-19.26
-19.802
-20.176
-20.392
-20.459
-20.39
-20.193
-19.882
-19.467
-18.958
-18.369
-17.708
-16.988
-16.219
-15.412
-14.575
-13.72
-12.855
-11.988
-11.128
-10.282
-9.458
-8.662
-7.899
-7.174
-6.493
-5.859
-5.276
-4.746
-4.271
-3.853
-3.493
-3.191
-2.947
-2.762
-2.634
-2.561
-2.542
-2.576
-2.659
-2.789
-2.963
-3.179
-3.433
-3.722
-4.043
-4.392
-4.767
-5.163
-5.577
-6.007
-6.45
-6.901
-7.359
-7.821
-8.285
-8.747
-9.206
-9.66
-10.107
-10.546
-10.975
-11.393
-11.799
-12.192
-12.571
-12.935
-13.286
-13.621
-13.941
-14.247
-14.538
-14.814
-15.077
-15.326
-15.562
-15.785
-15.997
-16.199
-16.391
-16.573
-16.748
-16.917
-17.079
-17.237
-17.39
-17.541
-17.689
-17.836
-17.983
-18.13
-18.279
-18.43
-18.585
-18.744
-18.908
-19.079
-19.257
-19.442
-19.636
-19.839
-20.052
-20.276
-20.511
-20.758
-21.018
-21.292
-21.581
-21.884
-22.203
-22.535
-22.882
-23.243
-23.617
-24.005
-24.404
-24.816
-25.238
-25.672
-26.115
-26.566
-27.024
-27.487
-27.953
-28.42
-28.885
-29.345
-29.797
-30.237
-30.665
-31.077
-31.471
-31.842
-32.189
-32.508
-32.794
-33.045
-33.255
-33.421
-33.538
-33.604
-33.618
-33.577
-33.48
-33.325
-33.112
-32.841
-32.51
-32.12
-31.671
-31.161
-30.592
-29.966
-29.288
-28.559
-27.785
-26.971
-26.124
-25.253
-24.364
-23.464
-22.558
-21.652
-20.751
-19.862
-18.987
-18.13
-17.296
-16.492
-15.725
-15.006
-14.343
-13.74
-13.205
-12.741
-12.353
-12.042
-11.808
-11.643
-11.545
-11.519
-11.569
-11.712
-11.955
-12.289
-12.712
-13.213
-13.77
-14.352
-14.912
-15.385
-15.731
-15.926
-15.955
-15.828
-15.543
-15.086
-14.463
-13.662
-12.676
-11.515
-10.173
-8.656
-7.023
-5.38
-3.874
-2.697
-1.987
-1.836
-2.326
-3.485
-5.337
-7.885
-11.045
-14.729
-18.874
-23.434
-28.411
-33.759
-39.28
-44.672
-49.558
-53.488
-56.13
-57.093
-55.87
-52.259
-46.289
-38.281
-29.016
-19.138
-8.91
1.219
10.684
19.523
28.084
37.468
49.66
65.696
85.722
109.944
138.339
170.069
203.341
234.342
257.775
269.926
268.189
250.166
213.861
157.652
81.841
-9.788
-111.196
-217.097
-322.662
-423.142
-513.356
-587.14
-640.084
-670.935
-680.835
-671.785
-645.896
-605.3
-553.39
-495.244
-435.616
-378.324
-325.385
-277.2
-234.317
-197.459
-166.613
-141.144
-119.631
-99.807
-80.655
-62.478
-45.358
-29.423
-14.621
-0.305
13.241
24.651
33.295
39.14
42.323
43.504
43.01
40.562
36.452
31.53
26.488
22.018
18.536
15.999
14.466
14.137
15.059
17.192
20.432
24.532
29.297
34.623
40.391
46.502
52.832
59.184
65.348
71.154
76.482
81.277
85.515
89.17
92.226
94.693
96.622
98.097
99.198
99.99
100.522
100.844
101.024
101.15
101.32
101.604
102.048
102.684
103.532
104.615
105.949
107.535
109.356
111.395
113.64
116.084
118.725
121.553
124.551
127.699
130.976
134.364
137.85
141.416
145.044
148.717
152.416
156.127
159.838
163.531
167.186
170.782
174.297
177.711
181.003
184.151
187.133
189.929
192.522
194.894
197.03
198.916
200.537
201.882
202.941
203.704
204.166
204.319
204.159
203.684
202.894
201.789
200.373
198.65
196.624
194.303
191.695
188.811
185.662
182.259
178.618
174.752
170.677
166.411
161.971
157.376
152.643
147.794
142.846
137.821
132.737
127.615
122.474
117.331
112.207
107.119
102.083
97.118
92.24
87.462
82.801
78.27
73.88
69.645
65.575
61.679
57.966
54.443
51.116
47.992
45.073
42.364
39.866
37.58
35.507
33.644
31.99
30.542
29.296
28.247
27.39
26.719
26.226
25.905
25.748
25.746
25.891
26.174
26.585
27.115
27.754
28.493
29.322
30.231
31.21
32.249
33.34
34.473
35.639
36.829
38.034
39.246
40.457
41.66
42.847
44.01
45.145
46.244
47.301
48.311
49.269
50.169
51.008
51.781
52.484
53.114
53.668
54.143
54.536
54.846
55.07
55.206
55.254
55.212
55.08
54.858
54.544
54.14
53.645
53.061
52.389
51.629
50.783
49.853
48.841
47.749
46.579
45.335
44.02
42.636
41.187
39.678
38.111
36.491
34.823
33.11
31.358
29.572
27.756
25.915
24.055
22.18
20.297
18.41
16.523
14.644
12.775
10.923
9.091
7.283
5.505
3.759
2.05
0.381
-1.246
-2.827
-4.361
-5.844
-7.276
-8.655
-9.98
-11.252
-12.47
-13.635
-14.748
-15.81
-16.823
-17.79
-18.712
-19.592
-20.433
-21.239
-22.013
-22.76
-23.483
-24.187
-24.877
-25.556
-26.229
-26.901
-27.573
-28.251
-28.938
-29.637
-30.352
-31.084
-31.838
-32.615
-33.418
-34.249
-35.109
-35.997
-36.915
-37.861
-38.834
-39.833
-40.854
-41.896
-42.956
-44.03
-45.115
-46.209
-47.305
-48.4
-49.487
-50.562
-51.617
-52.647
-53.644
-54.603
-55.518
-56.386
-57.201
-57.961
-58.661
-59.298
-59.869
-60.372
-60.803
-61.161
-61.444
-61.65
-61.78
-61.838
-61.825
-61.744
-61.601
-61.401
-61.153
-60.862
-60.535
-60.177
-59.796
-59.395
-58.982
-58.562
-58.14
-57.725
-57.323
-56.945
-56.603
-56.305
-56.061
-55.875
-55.752
-55.695
-55.707
-55.787
-55.929
-56.134
-56.405
-56.75
-57.184
-57.715
-58.34
-59.051
-59.834
-60.664
-61.505
-62.316
-63.043
-63.648
-64.112
-64.423
-64.591
-64.617
-64.491
-64.206
-63.742
-63.079
-62.213
-61.148
-59.897
-58.528
-57.155
-55.916
-54.98
-54.477
-54.484
-55.064
-56.234
-57.997
-60.333
-63.179
-66.471
-70.163
-74.228
-78.651
-83.361
-88.153
-92.71
-96.65
-99.552
-101.073
-100.844
-98.46
-93.779
-86.896
-78.189
-68.393
-58.098
-47.65
-37.552
-28.195
-19.413
-10.661
-0.781
11.798
27.875
47.709
71.639
99.361
129.486
159.426
185.054
202.093
207.497
198.732
173.352
129.581
67.011
-12.212
-103.247
-200.99
-300.992
-398.595
-488.799
-565.967
-625.008
-663.745
-682.783
-683.392
-667.11
-636.136
-593.421
-543.693
-492.29
-442.585
-396.188
-353.998
-316.364
-283.435
-255.065
-229.822
-205.599
-181.293
-156.66
-131.979
-108.021
-85.356
-64.363
-45.772
-30.421
-18.708
-10.687
-6.08
-4.281
-4.755
-7.041
-10.601
-14.962
-19.704
-24.415
-28.779
-32.532
-35.446
-37.384
-38.25
-37.973
-36.539
-33.973
-30.348
-25.819
-20.551
-14.704
-8.455
-1.95
4.648
11.135
17.352
23.163
28.471
33.236
37.432
41.035
44.051
46.517
48.479
50.019
51.21
52.108
52.783
53.307
53.761
54.24
54.819
55.546
56.462
57.591
58.951
60.56
62.421
64.519
66.846
69.387
72.134
75.084
78.226
81.543
85.018
88.626
92.35
96.175
100.083
104.056
108.078
112.129
116.196
120.264
124.318
128.335
132.294
136.173
139.948
143.597
147.097
150.426
153.56
156.48
159.168
161.606
163.778
165.669
167.264
168.553
169.523
170.166
170.476
170.444
170.068
169.345
168.275
166.86
165.103
163.009
160.582
157.832
154.768
151.4
147.742
143.806
139.607
135.162
130.489
125.606
120.533
115.29
109.898
104.378
98.752
93.043
87.271
81.459
75.627
69.796
63.988
58.222
52.517
46.893
41.366
35.956
30.677
25.544
20.572
15.774
11.161
6.744
2.532
-1.468
-5.247
-8.801
-12.125
-15.217
-18.074
-20.696
-23.084
-25.24
-27.167
-28.869
-30.351
-31.619
-32.68
-33.542
-34.213
-34.703
-35.02
-35.175
-35.178
-35.041
-34.773
-34.386
-33.892
-33.3
-32.624
-31.873
-31.057
-30.188
-29.276
-28.329
-27.358
-26.37
-25.375
-24.38
-23.392
-22.418
-21.464
-20.535
-19.636
-18.772
-17.947
-17.162
-16.423
-15.729
-15.084
-14.489
-13.944
-13.449
-13.005
-12.612
-12.268
-11.972
-11.723
-11.52
-11.36
-11.242
-11.163
-11.122
-11.117
-11.144
-11.202
-11.288
-11.401
-11.537
-11.694
-11.872
-12.066
-12.277
-12.502
-12.739
-12.987
-13.245
-13.511
-13.784
-14.063
-14.346
-14.633
-14.922
-15.213
-15.504
-15.796
-16.088
-16.379
-16.67
-16.96
-17.25
-17.538
-17.826
-18.113
-18.399
-18.685
-18.971
-19.258
-19.546
-19.837
-20.13
-20.426
-20.726
-21.03
-21.337
-21.648
-21.962
-22.279
-22.599
-22.922
-23.248
-23.577
-23.909
-24.243
-24.579
-24.916
-25.252
-25.586
-25.917
-26.242
-26.56
-26.868
-27.164
-27.447
-27.714
-27.963
-28.193
-28.399
-28.579
-28.729
-28.845
-28.923
-28.959
-28.951
-28.895
-28.789
-28.632
-28.423
-28.16
-27.842
-27.468
-27.039
-26.553
-26.009
-25.409
-24.751
-24.04
-23.277
-22.467
-21.613
-20.722
-19.8
-18.853
-17.89
-16.915
-15.935
-14.955
-13.978
-13.01
-12.056
-11.12
-10.209
-9.329
-8.49
-7.7
-6.971
-6.308
-5.717
-5.202
-4.764
-4.405
-4.126
-3.92
-3.785
-3.726
-3.747
-3.863
-4.084
-4.407
-4.825
-5.323
-5.874
-6.443
-6.992
-7.471
-7.842
-8.084
-8.188
-8.164
-8.021
-7.759
-7.369
-6.831
-6.127
-5.243
-4.186
-2.97
-1.656
-0.352
0.817
1.693
2.141
2.073
1.43
0.19
-1.638
-4.015
-6.894
-10.222
-13.956
-18.089
-22.613
-27.469
-32.473
-37.337
-41.712
-45.196
-47.465
-48.133
-46.741
-43.109
-37.315
-29.741
-21.123
-12.048
-2.749
6.389
14.832
22.62
30.127
38.458
49.558
64.456
83.256
106.074
132.811
162.554
193.531
222.105
243.171
253.197
249.742
230.546
193.852
138.312
64.367
-24.201
-121.607
-223.03
-323.842
-419.31
-504.408
-573.065
-621.263
-648.525
-656.163
-645.816
-619.734
-580.419
-531.661
-479.328
-427.841
-379.376
-335.126
-295.339
-259.961
-229.164
-202.06
-176.375
-150.704
-124.6
-98.134
-72.215
-47.627
-24.734
-4.219
13.013
26.506
36.113
41.996
44.768
44.999
43.189
39.911
35.648
30.806
25.786
20.958
16.642
13.113
10.551
9.052
8.692
9.507
11.496
14.606
18.696
23.587
29.101
35.068
41.356
47.825
54.304
60.592
66.515
71.953
76.844
81.162
84.883
87.99
90.498
92.458
93.949
95.055
95.847
96.379
96.713
96.918
97.079
97.286
97.608
98.089
98.764
99.653
100.776
102.149
103.773
105.63
107.704
109.983
112.457
115.122
117.967
120.973
124.121
127.387
130.756
134.21
137.733
141.304
144.905
148.519
152.128
155.719
159.274
162.772
166.191
169.509
172.704
175.755
178.641
181.338
183.826
186.087
188.104
189.861
191.344
192.54
193.436
194.023
194.292
194.238
193.854
193.137
192.086
190.702
188.986
186.943
184.579
181.898
178.912
175.629
172.061
168.221
164.124
159.785
155.219
150.445
145.482
140.349
135.066
129.653
124.132
118.523
112.849
107.13
101.387
95.641
89.913
84.221
78.584
73.022
67.552
62.189
56.951
51.851
46.904
42.123
37.518
33.1
28.879
24.861
21.055
17.464
14.094
10.948
8.027
5.332
2.863
0.617
-1.408
-3.215
-4.81
-6.198
-7.386
-8.381
-9.191
-9.826
-10.293
-10.603
-10.766
-10.793
-10.693
-10.478
-10.159
-9.747
-9.251
-8.684
-8.056
-7.376
-6.655
-5.902
-5.127
-4.337
-3.543
-2.75
-1.967
-1.2
-0.455
0.261
0.945
1.591
2.195
2.755
3.267
3.729
4.139
4.496
4.799
5.047
5.241
5.38
5.466
5.499
5.481
5.414
5.299
5.138
4.933
4.688
4.403
4.083
3.729
3.344
2.931
2.492
2.031
1.549
1.05
0.536
0.009
-0.527
-1.072
-1.622
-2.175
-2.729
-3.283
-3.833
-4.38
-4.92
-5.453
-5.977
-6.49
-6.992
-7.48
-7.954
-8.414
-8.857
-9.284
-9.694
-10.086
-10.46
-10.817
-11.156
-11.478
-11.784
-12.072
-12.345
-12.603
-12.846
-13.076
-13.293
-13.5
-13.698
-13.889
-14.074
-14.256
-14.435
-14.613
-14.791
-14.971
-15.154
-15.343
-15.537
-15.738
-15.949
-16.17
-16.403
-16.648
-16.907
-17.179
-17.465
-17.763
-18.074
-18.395
-18.725
-19.063
-19.406
-19.754
-20.105
-20.456
-20.804
-21.146
-21.478
-21.798
-22.1
-22.38
-22.632
-22.852
-23.037
-23.185
-23.292
-23.356
-23.372
-23.34
-23.256
-23.12
-22.928
-22.678
-22.368
-21.998
-21.57
-21.084
-20.543
-19.951
-19.312
-18.632
-17.92
-17.179
-16.414
-15.632
-14.836
-14.032
-13.224
-12.414
-11.607
-10.811
-10.033
-9.283
-8.574
-7.91
-7.301
-6.752
-6.269
-5.859
-5.52
-5.249
-5.043
-4.908
-4.853
-4.895
-5.044
-5.293
-5.637
-6.07
-6.576
-7.133
-7.699
-8.211
-8.616
-8.889
-9.02
-9.015
-8.874
-8.582
-8.116
-7.473
-6.661
-5.695
-4.585
-3.328
-1.955
-0.545
0.757
1.754
2.289
2.264
1.621
0.315
-1.691
-4.435
-7.917
-12.042
-16.696
-21.794
-27.29
-33.173
-39.349
-45.565
-51.434
-56.514
-60.398
-62.796
-63.384
-61.708
-57.56
-50.979
-42.291
-32.302
-21.722
-10.846
-0.128
9.828
19.038
27.856
37.204
48.957
64.348
83.627
107.198
135.269
166.707
199.36
229.509
251.926
262.536
258.56
237.147
195.771
133.589
51.819
-45.555
-152.233
-262.384
-370.92
-472.316
-560.463
-630.087
-677.791
-702.572
-706.09
-690.765
-658.82
-613.246
-558.373
-498.665
-438.276
-380.857
-327.948
-279.965
-237.64
-201.232
-170.331
-144.622
-122.92
-103.175
-84.679
-67.572
-51.738
-37.359
-24.368
-12.052
-0.659
8.58
15.158
19.053
20.411
19.873
17.755
13.846
8.508
2.666
-2.966
-7.77
-11.389
-13.902
-15.272
-15.294
-13.942
-11.309
-7.544
-2.907
2.406
8.308
14.664
21.325
28.114
34.776
41.11
46.99
52.326
57.082
61.238
64.769
67.68
70.016
71.841
73.23
74.254
74.962
75.415
75.682
75.852
76.029
76.294
76.699
77.283
78.069
79.073
80.312
81.787
83.482
85.381
87.472
89.749
92.209
94.846
97.642
100.58
103.637
106.796
110.043
113.36
116.73
120.137
123.565
126.999
130.43
133.84
137.212
140.525
143.758
146.89
149.9
152.769
155.473
157.994
160.313
162.414
164.281
165.901
167.259
168.344
169.145
169.653
169.861
169.762
169.35
168.624
167.581
166.222
164.551
162.568
160.281
157.695
154.818
151.661
148.234
144.55
140.621
136.462
132.089
127.52
122.771
117.862
112.81
107.637
102.361
97.003
91.583
86.121
80.635
75.146
69.672
64.232
58.843
53.522
48.286
43.15
38.13
33.24
28.491
23.897
19.468
15.213
11.141
7.26
3.575
0.092
-3.185
-6.255
-9.115
-11.765
-14.206
-16.439
-18.468
-20.296
-21.928
-23.37
-24.627
-25.708
-26.619
-27.369
-27.966
-28.42
-28.739
-28.934
-29.014
-28.99
-28.87
-28.665
-28.384
-28.038
-27.635
-27.185
-26.695
-26.175
-25.632
-25.073
-24.506
-23.936
-23.37
-22.813
-22.269
-21.742
-21.237
-20.756
-20.302
-19.877
-19.483
-19.12
-18.789
-18.491
-18.225
-17.991
-17.788
-17.615
-17.47
-17.352
-17.259
-17.189
-17.14
-17.11
-17.096
-17.097
-17.11
-17.133
-17.165
-17.202
-17.244
-17.288
-17.332
-17.376
-17.419
-17.458
-17.494
-17.525
-17.551
-17.572
-17.588
-17.598
-17.602
-17.6
-17.593
-17.581
-17.564
-17.543
-17.52
-17.494
-17.468
-17.442
-17.419
-17.398
-17.381
-17.37
-17.365
-17.369
-17.382
-17.405
-17.441
-17.491
-17.556
-17.637
-17.736
-17.854
-17.991
-18.148
-18.324
-18.521
-18.738
-18.975
-19.232
-19.508
-19.805
-20.121
-20.457
-20.81
-21.179
-21.563
-21.96
-22.368
-22.783
-23.203
-23.624
-24.043
-24.458
-24.866
-25.263
-25.646
-26.012
-26.356
-26.673
-26.96
-27.212
-27.423
-27.59
-27.708
-27.774
-27.786
-27.743
-27.64
-27.477
-27.252
-26.964
-26.611
-26.193
-25.707
-25.155
-24.538
-23.858
-23.119
-22.325
-21.48
-20.592
-19.668
-18.716
-17.742
-16.753
-15.752
-14.747
-13.744
-12.746
-11.758
-10.784
-9.833
-8.913
-8.036
-7.209
-6.441
-5.737
-5.106
-4.55
-4.075
-3.679
-3.358
-3.111
-2.942
-2.858
-2.878
-3.007
-3.24
-3.575
-4.002
-4.499
-5.037
-5.571
-6.035
-6.393
-6.619
-6.699
-6.644
-6.451
-6.106
-5.611
-4.956
-4.133
-3.149
-2
-0.69
0.725
2.145
3.424
4.376
4.867
4.806
4.115
2.765
0.73
-1.997
-5.342
-9.226
-13.585
-18.376
-23.6
-29.213
-35.027
-40.75
-46.007
-50.359
-53.47
-54.953
-54.311
-51.318
-45.975
-38.564
-29.812
-20.337
-10.417
-0.51
8.796
17.493
25.894
35.053
46.911
62.546
82.167
106.089
134.449
166.494
200.522
232.778
257.87
271.992
272.416
256.488
221.982
167.054
91.67
-0.47
-103.239
-211.588
-320.652
-425.551
-521.286
-601.246
-660.426
-697.611
-713.565
-709.346
-686.877
-647.831
-594.58
-532.843
-467.879
-403.094
-341.567
-285.104
-234.528
-191.657
-157.93
-131.981
-112.254
-97.163
-84.287
-72.744
-62.436
-52.274
-41.17
-29.13
-16.29
-3.484
7.536
16.15
22.421
26.182
27.435
26.299
22.878
17.824
12.343
7.247
2.983
-0.159
-2.165
-2.968
-2.431
-0.585
2.379
6.25
10.819
15.93
21.52
27.506
33.751
40.078
46.257
52.097
57.483
62.351
66.676
70.432
73.594
76.17
78.209
79.787
80.987
81.867
82.47
82.848
83.07
83.224
83.414
83.714
84.171
84.818
85.676
86.764
88.1
89.683
91.495
93.518
95.74
98.152
100.753
103.534
106.475
109.556
112.755
116.052
119.434
122.882
126.378
129.903
133.441
136.977
140.499
143.99
147.429
150.797
154.071
157.232
160.258
163.128
165.821
168.317
170.6
172.651
174.458
176.006
177.281
178.273
178.973
179.371
179.463
179.241
178.703
177.847
176.673
175.182
173.38
171.268
168.855
166.146
163.151
159.882
156.348
152.563
148.541
144.296
139.845
135.206
130.395
125.432
120.335
115.123
109.818
104.438
99.004
93.534
88.048
82.566
77.105
71.683
66.318
61.027
55.825
50.727
45.749
40.903
36.201
31.656
27.278
23.075
19.056
15.229
11.6
8.172
4.95
1.937
-0.866
-3.458
-5.84
-8.013
-9.981
-11.746
-13.314
-14.69
-15.879
-16.889
-17.727
-18.401
-18.92
-19.292
-19.527
-19.633
-19.621
-19.501
-19.282
-18.974
-18.587
-18.131
-17.614
-17.047
-16.437
-15.793
-15.124
-14.437
-13.739
-13.038
-12.339
-11.648
-10.971
-10.312
-9.676
-9.067
-8.487
-7.94
-7.428
-6.952
-6.513
-6.114
-5.753
-5.432
-5.15
-4.907
-4.701
-4.532
-4.398
-4.298
-4.23
-4.192
-4.181
-4.198
-4.238
-4.3
-4.383
-4.484
-4.601
-4.732
-4.876
-5.031
-5.196
-5.368
-5.546
-5.729
-5.917
-6.107
-6.299
-6.493
-6.688
-6.882
-7.076
-7.269
-7.46
-7.65
-7.838
-8.025
-8.21
-8.393
-8.576
-8.759
-8.942
-9.126
-9.312
-9.5
-9.691
-9.885
-10.084
-10.287
-10.497
-10.713
-10.937
-11.17
-11.413
-11.667
-11.931
-12.206
-12.492
-12.789
-13.099
-13.419
-13.752
-14.096
-14.452
-14.82
-15.2
-15.592
-15.993
-16.404
-16.823
-17.247
-17.675
-18.104
-18.531
-18.954
-19.37
-19.778
-20.175
-20.556
-20.92
-21.262
-21.579
-21.867
-22.121
-22.336
-22.508
-22.635
-22.714
-22.742
-22.718
-22.639
-22.504
-22.311
-22.059
-21.748
-21.374
-20.938
-20.438
-19.878
-19.259
-18.584
-17.856
-17.082
-16.266
-15.417
-14.542
-13.647
-12.737
-11.818
-10.896
-9.975
-9.061
-8.157
-7.268
-6.402
-5.567
-4.774
-4.032
-3.345
-2.722
-2.168
-1.686
-1.282
-0.956
-0.699
-0.513
-0.403
-0.376
-0.45
-0.631
-0.915
-1.297
-1.769
-2.308
-2.885
-3.452
-3.946
-4.327
-4.574
-4.671
-4.631
-4.45
-4.114
-3.627
-2.977
-2.158
-1.177
-0.031
1.273
2.676
4.07
5.304
6.187
6.582
6.399
5.558
4.033
1.799
-1.146
-4.719
-8.837
-13.435
-18.469
-23.939
-29.796
-35.839
-41.763
-47.181
-51.641
-54.804
-56.274
-55.548
-52.412
-46.89
-39.294
-30.391
-20.817
-10.838
-0.907
8.395
17.088
25.508
34.738
46.748
62.573
82.344
106.29
134.448
165.975
199.099
230.005
253.295
265.25
263.253
244.81
207.891
150.801
73.676
-19.648
-123.017
-231.36
-339.807
-443.563
-537.739
-615.827
-672.996
-708.155
-722.102
-716.005
-691.863
-651.362
-596.894
-534.119
-468.194
-402.459
-339.954
-282.453
-230.799
-186.828
-152.006
-125.057
-104.5
-88.827
-75.701
-64.22
-54.238
-44.627
-34.219
-22.973
-10.999
0.914
11.053
18.815
24.293
27.32
27.882
26.122
22.169
16.711
11.002
5.829
1.6
-1.414
-3.224
-3.779
-2.944
-0.785
2.476
6.621
11.435
16.765
22.558
28.713
35.077
41.46
47.615
53.368
58.619
63.31
67.424
70.942
73.842
76.15
77.931
79.259
80.214
80.854
81.218
81.364
81.366
81.312
81.306
81.419
81.694
82.167
82.856
83.78
84.954
86.374
88.02
89.876
91.931
94.177
96.615
99.232
102.012
104.934
107.977
111.124
114.36
117.666
121.022
124.412
127.819
131.227
134.623
137.991
141.309
144.557
147.713
150.757
153.668
156.423
159.003
161.387
163.558
165.499
167.196
168.635
169.802
170.687
171.281
171.575
171.563
171.24
170.603
169.649
168.38
166.797
164.904
162.704
160.206
157.415
154.342
150.998
147.395
143.545
139.463
135.164
130.665
125.984
121.137
116.144
111.024
105.796
100.481
95.098
89.668
84.209
78.74
73.281
67.849
62.461
57.136
51.888
46.733
41.687
36.762
31.972
27.328
22.842
18.522
14.379
10.419
6.649
3.074
-0.3
-3.472
-6.438
-9.199
-11.753
-14.101
-16.247
-18.192
-19.941
-21.499
-22.871
-24.064
-25.085
-25.941
-26.641
-27.193
-27.606
-27.889
-28.051
-28.103
-28.054
-27.913
-27.691
-27.395
-27.037
-26.625
-26.169
-25.676
-25.155
-24.614
-24.061
-23.502
-22.945
-22.396
-21.86
-21.343
-20.849
-20.383
-19.948
-19.547
-19.184
-18.86
-18.577
-18.336
-18.138
-17.983
-17.871
-17.801
-17.773
-17.786
-17.838
-17.928
-18.053
-18.211
-18.401
-18.62
-18.865
-19.135
-19.426
-19.736
-20.062
-20.402
-20.753
-21.113
-21.479
-21.85
-22.223
-22.596
-22.967
-23.335
-23.698
-24.054
-24.403
-24.743
-25.073
-25.392
-25.7
-25.997
-26.282
-26.556
-26.818
-27.069
-27.31
-27.542
-27.766
-27.982
-28.192
-28.397
-28.598
-28.797
-28.995
-29.195
-29.397
-29.605
-29.819
-30.042
-30.274
-30.518
-30.773
-31.04
-31.322
-31.618
-31.928
-32.254
-32.596
-32.954
-33.328
-33.718
-34.124
-34.544
-34.977
-35.421
-35.874
-36.334
-36.797
-37.261
-37.723
-38.179
-38.627
-39.064
-39.484
-39.885
-40.262
-40.609
-40.922
-41.196
-41.424
-41.603
-41.729
-41.8
-41.812
-41.764
-41.654
-41.48
-41.24
-40.934
-40.562
-40.122
-39.613
-39.036
-38.395
-37.692
-36.931
-36.117
-35.255
-34.353
-33.418
-32.458
-31.481
-30.491
-29.495
-28.499
-27.509
-26.531
-25.572
-24.636
-23.733
-22.873
-22.066
-21.322
-20.649
-20.05
-19.529
-19.089
-18.73
-18.451
-18.247
-18.115
-18.06
-18.089
-18.217
-18.452
-18.79
-19.223
-19.737
-20.304
-20.886
-21.444
-21.924
-22.29
-22.523
-22.613
-22.57
-22.397
-22.086
-21.625
-20.992
-20.166
-19.136
-17.908
-16.497
-14.977
-13.472
-12.119
-11.087
-10.509
-10.465
-11.015
-12.183
-13.97
-16.353
-19.279
-22.688
-26.549
-30.852
-35.58
-40.664
-45.883
-50.889
-55.306
-58.705
-60.743
-61.066
-59.216
-55.003
-48.527
-40.162
-30.678
-20.752
-10.649
-0.792
8.193
16.359
24.151
32.591
43.668
58.655
77.761
101.394
129.806
161.815
195.188
226.063
248.959
259.65
255.285
232.884
189.841
125.309
40.549
-60.185
-170.23
-283.648
-395.198
-499.219
-589.579
-660.636
-708.657
-732.861
-735.141
-717.718
-682.82
-633.176
-572.723
-506.737
-440.22
-376.87
-318.385
-265.613
-219.428
-180.857
-150.39
-126.851
-108.116
-91.909
-77.078
-63.493
-51.026
-39.081
-26.726
-13.81
-1.174
9.714
17.902
23.37
26.422
27.314
25.969
22.397
17.163
11.341
5.906
1.394
-1.974
-4.204
-5.219
-4.855
-3.093
-0.082
3.955
8.788
14.252
20.273
26.743
33.508
40.377
47.101
53.475
59.377
64.724
69.481
73.63
77.147
80.039
82.355
84.165
85.547
86.569
87.279
87.732
88.001
88.176
88.363
88.645
89.073
89.684
90.501
91.541
92.822
94.343
96.087
98.037
100.181
102.512
105.026
107.718
110.569
113.56
116.671
119.882
123.18
126.548
129.969
133.427
136.905
140.389
143.869
147.33
150.751
154.113
157.396
160.577
163.638
166.558
169.314
171.888
174.261
176.417
178.341
180.019
181.437
182.584
183.449
184.024
184.301
184.274
183.937
183.289
182.327
181.053
179.468
177.575
175.378
172.884
170.101
167.036
163.701
160.107
156.266
152.192
147.9
143.407
138.729
133.884
128.89
123.767
118.533
113.209
107.815
102.368
96.89
91.399
85.913
80.452
75.032
69.672
64.389
59.197
54.113
49.151
44.325
39.648
35.131
30.784
26.619
22.643
18.864
15.289
11.922
8.769
5.832
3.112
0.612
-1.67
-3.736
-5.587
-7.228
-8.663
-9.897
-10.938
-11.792
-12.467
-12.971
-13.315
-13.506
-13.556
-13.474
-13.271
-12.957
-12.544
-12.042
-11.462
-10.815
-10.111
-9.36
-8.573
-7.759
-6.928
-6.088
-5.248
-4.416
-3.599
-2.804
-2.038
-1.306
-0.613
0.037
0.64
1.192
1.692
2.138
2.528
2.862
3.139
3.36
3.526
3.638
3.698
3.708
3.669
3.586
3.46
3.294
3.092
2.857
2.591
2.298
1.982
1.645
1.291
0.924
0.545
0.159
-0.232
-0.626
-1.02
-1.413
-1.802
-2.187
-2.566
-2.938
-3.303
-3.659
-4.008
-4.347
-4.679
-5.003
-5.321
-5.633
-5.94
-6.245
-6.548
-6.85
-7.152
-7.456
-7.761
-8.069
-8.381
-8.697
-9.018
-9.345
-9.678
-10.019
-10.368
-10.724
-11.087
-11.456
-11.831
-12.21
-12.591
-12.971
-13.35
-13.724
-14.092
-14.452
-14.801
-15.136
-15.454
-15.752
-16.024
-16.267
-16.477
-16.649
-16.779
-16.865
-16.905
-16.896
-16.838
-16.729
-16.568
-16.353
-16.086
-15.764
-15.388
-14.957
-14.472
-13.935
-13.351
-12.723
-12.055
-11.352
-10.621
-9.87
-9.105
-8.334
-7.561
-6.791
-6.029
-5.281
-4.553
-3.849
-3.173
-2.535
-1.942
-1.405
-0.932
-0.529
-0.2
0.053
0.229
0.325
0.345
0.296
0.177
-0.012
-0.28
-0.641
-1.102
-1.66
-2.306
-3.025
-3.789
-4.563
-5.306
-5.965
-6.506
-6.911
-7.169
-7.292
-7.283
-7.135
-6.839
-6.374
-5.719
-4.866
-3.823
-2.606
-1.29
0.002
1.135
1.94
2.288
2.101
1.317
-0.082
-2.091
-4.686
-7.808
-11.397
-15.42
-19.864
-24.708
-29.882
-35.164
-40.216
-44.669
-48.102
-50.184
-50.568
-48.807
-44.735
-38.463
-30.377
-21.246
-11.733
-2.089
7.283
15.788
23.492
30.833
38.818
49.37
63.691
81.949
104.456
131.375
161.519
192.689
221.205
241.876
250.676
244.934
221.874
179.078
115.908
33.775
-63.249
-168.813
-277.119
-383.152
-481.205
-565.139
-629.839
-672.072
-691.369
-689.91
-670.18
-634.496
-586.421
-530.58
-471.76
-414.478
-361.467
-313.317
-270.302
-232.849
-200.605
-172.893
-148.636
-125.822
-103.379
-81.586
-60.781
-41.317
-23.655
-7.725
6.459
17.906
26.074
31.086
33.136
32.818
30.75
27.087
22
16.189
10.305
4.854
0.315
-3.207
-5.695
-6.999
-7.009
-5.745
-3.269
0.275
4.674
9.795
15.522
21.696
28.171
34.754
41.207
47.347
53.047
58.224
62.842
66.881
70.319
73.164
75.468
77.297
78.729
79.832
80.656
81.263
81.724
82.128
82.577
83.145
83.882
84.824
85.993
87.405
89.076
91.004
93.169
95.553
98.143
100.927
103.902
107.056
110.371
113.824
117.392
121.055
124.797
128.599
132.441
136.304
140.169
144.021
147.847
151.629
155.347
158.978
162.5
165.892
169.132
172.197
175.066
177.718
180.135
182.298
184.195
185.809
187.128
188.141
188.836
189.206
189.244
188.945
188.305
187.321
185.994
184.325
182.317
179.976
177.306
174.315
171.013
167.411
163.52
159.354
154.927
150.254
145.352
140.241
134.937
129.462
123.834
118.075
112.206
106.249
100.224
94.153
88.056
81.953
75.865
69.811
63.81
57.881
52.04
46.304
40.691
35.214
29.889
24.728
19.743
14.946
10.347
5.953
1.774
-2.185
-5.917
-9.42
-12.69
-15.726
-18.526
-21.092
-23.426
-25.53
-27.409
-29.067
-30.51
-31.745
-32.78
-33.622
-34.28
-34.763
-35.081
-35.244
-35.262
-35.147
-34.908
-34.556
-34.103
-33.559
-32.935
-32.242
-31.49
-30.69
-29.852
-28.984
-28.098
-27.201
-26.302
-25.41
-24.531
-23.672
-22.839
-22.039
-21.276
-20.556
-19.882
-19.259
-18.689
-18.175
-17.721
-17.326
-16.993
-16.723
-16.516
-16.372
-16.291
-16.273
-16.318
-16.425
-16.592
-16.82
-17.107
-17.451
-17.848
-18.298
-18.798
-19.343
-19.933
-20.564
-21.233
-21.937
-22.673
-23.439
-24.231
-25.045
-25.878
-26.726
-27.585
-28.449
-29.316
-30.179
-31.035
-31.878
-32.705
-33.511
-34.293
-35.045
-35.762
-36.44
-37.072
-37.654
-38.179
-38.643
-39.04
-39.367
-39.62
-39.798
-39.898
-39.918
-39.856
-39.711
-39.482
-39.168
-38.769
-38.284
-37.714
-37.062
-36.332
-35.527
-34.654
-33.718
-32.727
-31.689
-30.613
-29.505
-28.373
-27.223
-26.062
-24.895
-23.731
-22.574
-21.433
-20.317
-19.237
-18.203
-17.229
-16.322
-15.489
-14.736
-14.065
-13.479
-12.982
-12.567
-12.236
-11.992
-11.843
-11.806
-11.891
-12.096
-12.411
-12.823
-13.305
-13.821
-14.333
-14.789
-15.152
-15.403
-15.533
-15.554
-15.474
-15.293
-14.998
-14.57
-13.988
-13.242
-12.342
-11.301
-10.183
-9.101
-8.18
-7.58
-7.433
-7.821
-8.799
-10.378
-12.547
-15.265
-18.485
-22.151
-26.216
-30.668
-35.485
-40.601
-45.829
-50.873
-55.385
-58.966
-61.291
-61.986
-60.613
-57.002
-51.226
-43.648
-34.96
-25.731
-16.21
-6.798
1.95
10.017
17.713
26.036
36.798
50.966
68.659
90.047
115.132
143.139
172.446
199.608
219.729
229.379
226.128
207.666
172.118
118.006
45.63
-41.409
-137.489
-237.857
-337.9
-432.853
-517.618
-586.09
-634.198
-661.387
-668.928
-658.471
-632.285
-592.913
-544.172
-491.903
-440.515
-392.194
-348.107
-308.472
-273.207
-242.448
-215.304
-189.538
-163.767
-137.557
-110.995
-85.005
-60.382
-37.51
-17.071
0.046
13.392
22.826
28.508
31.046
31.011
28.908
25.315
20.716
15.522
10.139
4.946
0.275
-3.591
-6.468
-8.252
-8.866
-8.271
-6.462
-3.491
0.5
5.337
10.836
16.829
23.18
29.747
36.354
42.796
48.894
54.526
59.625
64.165
68.119
71.47
74.23
76.448
78.205
79.583
80.651
81.464
82.082
82.574
83.024
83.523
84.138
84.911
85.876
87.052
88.456
90.103
91.991
94.102
96.416
98.92
101.604
104.463
107.483
110.644
113.927
117.308
120.769
124.294
127.866
131.464
135.07
138.666
142.237
145.769
149.243
152.641
155.94
159.12
162.159
165.037
167.734
170.226
172.497
174.528
176.304
177.811
179.035
179.965
180.589
180.9
180.89
180.554
179.888
178.889
177.557
175.892
173.899
171.582
168.947
166.001
162.753
159.214
155.396
151.312
146.977
142.405
137.613
132.619
127.443
122.102
116.618
111.01
105.299
99.507
93.655
87.764
81.854
75.945
70.057
64.21
58.423
52.713
47.098
41.595
36.219
30.985
25.906
20.997
16.267
11.727
7.388
3.256
-0.66
-4.356
-7.827
-11.068
-14.079
-16.858
-19.404
-21.72
-23.808
-25.671
-27.313
-28.74
-29.959
-30.976
-31.798
-32.436
-32.897
-33.191
-33.329
-33.321
-33.177
-32.909
-32.527
-32.043
-31.467
-30.812
-30.087
-29.304
-28.472
-27.602
-26.704
-25.787
-24.859
-23.93
-23.007
-22.098
-21.209
-20.346
-19.516
-18.724
-17.973
-17.268
-16.613
-16.01
-15.462
-14.97
-14.535
-14.159
-13.842
-13.582
-13.38
-13.235
-13.145
-13.108
-13.123
-13.187
-13.299
-13.457
-13.657
-13.898
-14.177
-14.491
-14.838
-15.215
-15.62
-16.051
-16.505
-16.98
-17.475
-17.988
-18.517
-19.061
-19.617
-20.184
-20.76
-21.344
-21.933
-22.527
-23.124
-23.723
-24.323
-24.923
-25.522
-26.12
-26.714
-27.303
-27.886
-28.46
-29.025
-29.577
-30.114
-30.634
-31.136
-31.617
-32.075
-32.508
-32.914
-33.289
-33.63
-33.934
-34.197
-34.415
-34.585
-34.704
-34.771
-34.783
-34.741
-34.641
-34.483
-34.267
-33.991
-33.657
-33.263
-32.808
-32.293
-31.72
-31.091
-30.411
-29.682
-28.91
-28.1
-27.262
-26.4
-25.522
-24.633
-23.737
-22.839
-21.946
-21.061
-20.186
-19.327
-18.49
-17.684
-16.917
-16.198
-15.533
-14.928
-14.388
-13.916
-13.516
-13.187
-12.921
-12.718
-12.581
-12.516
-12.538
-12.655
-12.861
-13.153
-13.521
-13.945
-14.398
-14.834
-15.191
-15.432
-15.532
-15.477
-15.276
-14.928
-14.419
-13.754
-12.922
-11.917
-10.746
-9.404
-7.894
-6.273
-4.638
-3.132
-1.94
-1.197
-0.995
-1.419
-2.501
-4.268
-6.729
-9.81
-13.432
-17.535
-22.077
-27.062
-32.449
-38.055
-43.593
-48.696
-52.929
-55.957
-57.388
-56.716
-53.72
-48.409
-41.072
-32.447
-23.154
-13.459
-3.815
5.197
13.592
21.699
30.603
42.272
57.772
77.292
101.1
129.268
161.026
194.661
226.419
250.95
264.453
264.214
247.659
212.647
157.426
82.086
-9.731
-112.023
-219.582
-327.459
-430.686
-524.115
-601.49
-658.266
-693.178
-706.95
-701.062
-677.645
-638.872
-587.745
-529.273
-467.888
-406.924
-349.219
-296.073
-248.133
-206.386
-171.319
-142.412
-119.007
-99.726
-82.647
-67.179
-53.232
-40.479
-28.629
-17.086
-5.407
5.797
15.24
22.312
26.947
29.37
29.942
28.545
25.1
20.134
14.618
9.457
5.222
2.119
0.121
-0.673
-0.125
1.774
4.892
8.972
13.771
19.122
24.937
31.142
37.612
44.161
50.559
56.609
62.189
67.235
71.723
75.624
78.916
81.606
83.743
85.407
86.682
87.633
88.306
88.75
89.031
89.237
89.468
89.801
90.283
90.947
91.813
92.9
94.226
95.789
97.572
99.557
101.729
104.081
106.612
109.31
112.159
115.138
118.225
121.403
124.656
127.969
131.322
134.699
138.083
141.46
144.819
148.143
151.412
154.608
157.71
160.696
163.548
166.245
168.766
171.092
173.207
175.094
176.74
178.131
179.255
180.101
180.66
180.924
180.888
180.546
179.895
178.933
177.662
176.083
174.2
172.018
169.542
166.78
163.741
160.437
156.878
153.077
149.047
144.805
140.367
135.748
130.969
126.045
120.998
115.845
110.608
105.305
99.957
94.583
89.201
83.831
78.49
73.197
67.969
62.821
57.77
52.831
48.016
43.341
38.815
34.452
30.259
26.248
22.424
18.796
15.369
12.148
9.135
6.334
3.745
1.369
-0.795
-2.75
-4.498
-6.044
-7.392
-8.549
-9.52
-10.314
-10.938
-11.401
-11.711
-11.878
-11.912
-11.822
-11.619
-11.313
-10.914
-10.432
-9.877
-9.26
-8.589
-7.874
-7.125
-6.349
-5.556
-4.754
-3.949
-3.15
-2.362
-1.592
-0.845
-0.125
0.562
1.213
1.826
2.396
2.923
3.404
3.838
4.225
4.564
4.856
5.1
5.299
5.453
5.564
5.633
5.662
5.654
5.609
5.53
5.419
5.277
5.107
4.909
4.687
4.442
4.175
3.888
3.583
3.26
2.921
2.566
2.196
1.811
1.411
0.996
0.567
0.124
-0.332
-0.802
-1.284
-1.78
-2.289
-2.811
-3.346
-3.895
-4.457
-5.033
-5.621
-6.22
-6.83
-7.448
-8.072
-8.7
-9.33
-9.959
-10.585
-11.206
-11.819
-12.422
-13.011
-13.582
-14.132
-14.656
-15.149
-15.607
-16.025
-16.398
-16.724
-17
-17.225
-17.394
-17.507
-17.561
-17.554
-17.486
-17.356
-17.16
-16.899
-16.574
-16.187
-15.741
-15.24
-14.689
-14.093
-13.461
-12.8
-12.116
-11.415
-10.702
-9.983
-9.263
-8.546
-7.836
-7.139
-6.464
-5.818
-5.215
-4.663
-4.171
-3.749
-3.4
-3.128
-2.937
-2.824
-2.785
-2.818
-2.927
-3.119
-3.411
-3.81
-4.312
-4.915
-5.606
-6.365
-7.163
-7.948
-8.665
-9.273
-9.744
-10.072
-10.268
-10.329
-10.252
-10.029
-9.64
-9.082
-8.357
-7.454
-6.379
-5.173
-3.919
-2.777
-1.925
-1.501
-1.607
-2.3
-3.606
-5.555
-8.154
-11.367
-15.133
-19.374
-24.026
-29.084
-34.532
-40.262
-46.027
-51.432
-56.043
-59.474
-61.427
-61.566
-59.475
-54.963
-48.117
-39.331
-29.385
-18.956
-8.319
2.114
11.73
20.539
28.934
37.866
49.236
64.316
83.33
106.676
134.62
165.995
198.613
228.719
250.935
261.107
256.444
234.01
191.226
127.258
43.312
-56.459
-165.493
-277.992
-388.85
-492.522
-582.982
-654.631
-703.705
-729.36
-733.408
-717.956
-685.128
-637.535
-578.998
-514.733
-449.72
-387.657
-330.27
-278.424
-233.006
-195.068
-165.123
-141.995
-123.581
-107.61
-92.915
-79.368
-66.85
-54.774
-42.242
-29.132
-16.284
-5.17
3.25
8.95
12.219
13.305
12.141
8.746
3.676
-2.006
-7.341
-11.803
-15.166
-17.434
-18.529
-18.281
-16.671
-13.838
-9.994
-5.361
-0.096
5.727
12.001
18.572
25.247
31.78
37.968
43.689
48.86
53.445
57.427
60.78
63.511
65.668
67.317
68.533
69.385
69.917
70.186
70.266
70.247
70.238
70.322
70.553
70.968
71.594
72.448
73.548
74.895
76.473
78.266
80.263
82.456
84.844
87.421
90.168
93.067
96.094
99.232
102.463
105.772
109.139
112.547
115.977
119.415
122.849
126.262
129.634
132.945
136.17
139.289
142.28
145.122
147.792
150.269
152.534
154.57
156.363
157.897
159.158
160.135
160.816
161.195
161.262
161.014
160.445
159.554
158.339
156.804
154.951
152.785
150.312
147.539
144.478
141.137
137.531
133.672
129.574
125.254
120.729
116.016
111.134
106.103
100.942
95.672
90.314
84.888
79.415
73.915
68.408
62.913
57.45
52.037
46.692
41.431
36.271
31.227
26.313
21.544
16.931
12.485
8.218
4.136
0.25
-3.436
-6.915
-10.183
-13.237
-16.075
-18.697
-21.101
-23.29
-25.266
-27.033
-28.594
-29.955
-31.122
-32.101
-32.901
-33.528
-33.992
-34.301
-34.465
-34.494
-34.398
-34.186
-33.868
-33.456
-32.958
-32.386
-31.748
-31.054
-30.314
-29.536
-28.729
-27.901
-27.06
-26.214
-25.368
-24.529
-23.702
-22.893
-22.107
-21.347
-20.616
-19.919
-19.257
-18.633
-18.048
-17.502
-16.998
-16.535
-16.112
-15.73
-15.387
-15.082
-14.815
-14.584
-14.386
-14.221
-14.086
-13.98
-13.899
-13.844
-13.81
-13.795
-13.799
-13.819
-13.853
-13.9
-13.959
-14.028
-14.107
-14.194
-14.289
-14.391
-14.501
-14.617
-14.739
-14.868
-15.004
-15.148
-15.299
-15.459
-15.629
-15.81
-16.001
-16.203
-16.417
-16.643
-16.882
-17.132
-17.395
-17.671
-17.96
-18.261
-18.577
-18.905
-19.245
-19.596
-19.957
-20.327
-20.703
-21.082
-21.463
-21.842
-22.217
-22.586
-22.945
-23.291
-23.622
-23.933
-24.221
-24.481
-24.709
-24.901
-25.051
-25.156
-25.214
-25.222
-25.178
-25.081
-24.928
-24.718
-24.451
-24.127
-23.744
-23.302
-22.8
-22.24
-21.624
-20.955
-20.237
-19.474
-18.672
-17.838
-16.979
-16.103
-15.216
-14.323
-13.431
-12.545
-11.67
-10.812
-9.974
-9.163
-8.385
-7.648
-6.963
-6.337
-5.775
-5.283
-4.864
-4.52
-4.254
-4.063
-3.941
-3.891
-3.913
-4.014
-4.208
-4.501
-4.889
-5.366
-5.917
-6.513
-7.121
-7.693
-8.179
-8.547
-8.772
-8.844
-8.766
-8.533
-8.147
-7.612
-6.908
-6.022
-4.955
-3.713
-2.326
-0.886
0.492
1.67
2.478
2.801
2.543
1.634
0.048
-2.223
-5.136
-8.598
-12.544
-16.934
-21.725
-26.891
-32.324
-37.756
-42.879
-47.306
-50.605
-52.439
-52.405
-50.065
-45.292
-38.217
-29.288
-19.338
-8.997
1.393
11.284
20.225
28.374
36.31
45.366
57.327
73.102
92.97
117.28
145.78
176.999
208.108
234.589
251.664
255.898
244.554
215.055
165.504
95.589
7.753
-92.685
-199.856
-308.609
-413.87
-510.457
-592.651
-655.244
-695.747
-714.482
-712.934
-692.947
-656.675
-606.558
-546.632
-482.119
-417.349
-355.425
-298.112
-246.333
-201.055
-163.47
-133.873
-111.014
-92.938
-77.494
-63.618
-51.202
-40.047
-29.477
-18.548
-7.061
4.181
13.743
20.774
25.3
27.659
28.138
26.584
22.945
17.759
12.049
6.781
2.487
-0.658
-2.693
-3.542
-3.052
-1.202
1.867
5.898
10.64
15.919
21.645
27.743
34.087
40.494
46.734
52.614
58.015
62.879
67.184
70.912
74.036
76.564
78.544
80.057
81.188
82.006
82.562
82.904
83.101
83.24
83.423
83.727
84.197
84.867
85.754
86.878
88.256
89.888
91.756
93.842
96.132
98.617
101.295
104.155
107.179
110.345
113.632
117.019
120.493
124.035
127.626
131.248
134.884
138.519
142.138
145.726
149.26
152.721
156.087
159.334
162.444
165.394
168.163
170.73
173.078
175.19
177.052
178.648
179.967
180.996
181.725
182.147
182.255
182.043
181.508
180.647
179.462
177.954
176.127
173.984
171.533
168.78
165.735
162.409
158.813
154.961
150.866
146.544
142.012
137.287
132.388
127.334
122.142
116.835
111.432
105.953
100.418
94.848
89.261
83.678
78.118
72.598
67.137
61.751
56.457
51.271
46.208
41.281
36.503
31.887
27.442
23.179
19.107
15.232
11.562
8.101
4.855
1.825
-0.987
-3.578
-5.951
-8.106
-10.046
-11.775
-13.296
-14.615
-15.738
-16.672
-17.425
-18.004
-18.418
-18.677
-18.789
-18.766
-18.616
-18.351
-17.98
-17.515
-16.965
-16.341
-15.654
-14.913
-14.128
-13.309
-12.465
-11.604
-10.736
-9.867
-9.006
-8.159
-7.333
-6.533
-5.764
-5.033
-4.342
-3.695
-3.095
-2.546
-2.048
-1.603
-1.213
-0.878
-0.599
-0.374
-0.203
-0.085
-0.019
-0.002
-0.034
-0.111
-0.232
-0.394
-0.594
-0.831
-1.1
-1.399
-1.726
-2.077
-2.45
-2.842
-3.251
-3.673
-4.107
-4.55
-5
-5.456
-5.915
-6.378
-6.841
-7.305
-7.768
-8.229
-8.688
-9.143
-9.596
-10.045
-10.492
-10.935
-11.377
-11.817
-12.257
-12.696
-13.135
-13.574
-14.014
-14.455
-14.898
-15.342
-15.789
-16.239
-16.691
-17.148
-17.608
-18.072
-18.538
-19.007
-19.477
-19.946
-20.413
-20.876
-21.332
-21.779
-22.216
-22.641
-23.051
-23.444
-23.816
-24.165
-24.486
-24.778
-25.034
-25.251
-25.425
-25.553
-25.634
-25.665
-25.645
-25.571
-25.442
-25.256
-25.015
-24.715
-24.357
-23.939
-23.461
-22.926
-22.337
-21.696
-21.008
-20.277
-19.509
-18.713
-17.895
-17.061
-16.217
-15.367
-14.518
-13.674
-12.84
-12.019
-11.216
-10.439
-9.694
-8.992
-8.341
-7.746
-7.212
-6.746
-6.35
-6.027
-5.778
-5.594
-5.475
-5.425
-5.451
-5.567
-5.781
-6.086
-6.477
-6.947
-7.472
-8.026
-8.562
-9.019
-9.359
-9.56
-9.606
-9.507
-9.261
-8.851
-8.28
-7.537
-6.615
-5.519
-4.247
-2.802
-1.242
0.333
1.777
2.906
3.585
3.725
3.244
2.11
0.293
-2.213
-5.336
-9
-13.146
-17.737
-22.776
-28.223
-33.886
-39.476
-44.619
-48.878
-51.916
-53.342
-52.646
-49.61
-44.241
-36.837
-28.144
-18.789
-9.043
0.63
9.632
17.974
25.993
34.787
46.363
61.807
81.307
105.171
133.513
165.543
199.513
231.569
256.201
269.571
268.94
251.66
215.544
158.767
81.359
-12.845
-117.578
-227.654
-338.079
-443.898
-540.064
-619.903
-678.427
-714.482
-728.891
-722.86
-698.448
-657.419
-602.241
-538.676
-471.979
-405.548
-342.465
-284.516
-232.536
-188.348
-153.405
-126.407
-105.869
-90.266
-77.219
-65.81
-55.892
-46.334
-35.98
-24.789
-12.846
-0.94
9.186
16.916
22.333
25.266
25.713
23.821
19.707
14.061
8.154
2.786
-1.62
-4.783
-6.721
-7.378
-6.616
-4.501
-1.255
2.899
7.742
13.117
18.97
25.198
31.646
38.12
44.371
50.22
55.565
60.345
64.544
68.138
71.108
73.476
75.308
76.679
77.667
78.333
78.715
78.871
78.877
78.82
78.806
78.908
79.168
79.622
80.29
81.19
82.338
83.731
85.347
87.172
89.194
91.408
93.812
96.396
99.143
102.034
105.047
108.166
111.376
114.66
117.998
121.374
124.772
128.178
131.578
134.956
138.292
141.566
144.757
147.843
150.804
153.62
156.268
158.728
160.984
163.018
164.816
166.363
167.646
168.653
169.374
169.801
169.927
169.747
169.255
168.449
167.33
165.899
164.158
162.111
159.763
157.122
154.196
150.996
147.533
143.818
139.866
135.692
131.31
126.739
121.996
117.098
112.066
106.917
101.672
96.351
90.974
85.559
80.126
74.694
69.282
63.906
58.585
53.335
48.172
43.111
38.166
33.352
28.679
24.16
19.805
15.624
11.623
7.812
4.195
0.778
-2.435
-5.443
-8.243
-10.834
-13.218
-15.396
-17.37
-19.145
-20.724
-22.114
-23.319
-24.347
-25.206
-25.902
-26.445
-26.844
-27.108
-27.246
-27.267
-27.183
-27.002
-26.733
-26.388
-25.975
-25.503
-24.983
-24.421
-23.828
-23.211
-22.577
-21.935
-21.29
-20.648
-20.017
-19.401
-18.804
-18.23
-17.685
-17.169
-16.687
-16.24
-15.83
-15.458
-15.125
-14.831
-14.576
-14.359
-14.181
-14.039
-13.933
-13.86
-13.82
-13.809
-13.828
-13.872
-13.941
-14.032
-14.143
-14.273
-14.418
-14.578
-14.749
-14.93
-15.12
-15.318
-15.521
-15.728
-15.94
-16.155
-16.372
-16.592
-16.815
-17.039
-17.266
-17.495
-17.726
-17.961
-18.199
-18.442
-18.69
-18.946
-19.209
-19.481
-19.764
-20.057
-20.361
-20.677
-21.006
-21.347
-21.702
-22.07
-22.452
-22.848
-23.258
-23.684
-24.123
-24.575
-25.039
-25.513
-25.995
-26.484
-26.976
-27.468
-27.958
-28.444
-28.923
-29.392
-29.848
-30.288
-30.707
-31.102
-31.469
-31.803
-32.098
-32.351
-32.558
-32.717
-32.825
-32.879
-32.878
-32.82
-32.703
-32.526
-32.288
-31.988
-31.623
-31.194
-30.703
-30.151
-29.542
-28.879
-28.166
-27.411
-26.62
-25.801
-24.959
-24.1
-23.229
-22.35
-21.47
-20.592
-19.719
-18.856
-18.01
-17.19
-16.405
-15.664
-14.973
-14.339
-13.769
-13.264
-12.83
-12.466
-12.164
-11.926
-11.755
-11.658
-11.653
-11.746
-11.932
-12.21
-12.57
-12.991
-13.445
-13.885
-14.249
-14.497
-14.605
-14.56
-14.373
-14.042
-13.555
-12.917
-12.118
-11.152
-10.026
-8.737
-7.288
-5.738
-4.189
-2.785
-1.719
-1.128
-1.104
-1.731
-3.037
-5.048
-7.768
-11.118
-15.016
-19.398
-24.219
-29.478
-35.131
-40.989
-46.761
-52.074
-56.48
-59.638
-61.153
-60.516
-57.512
-52.149
-44.716
-35.957
-26.498
-16.618
-6.793
2.385
10.922
19.139
28.114
39.818
55.32
74.837
98.681
126.962
158.939
192.907
225.089
250.093
264.072
264.242
247.945
212.965
157.494
81.624
-10.944
-114.108
-222.549
-331.203
-434.996
-528.688
-605.966
-662.288
-696.459
-709.319
-702.481
-678.188
-638.707
-587.114
-528.45
-467.143
-406.481
-349.226
-296.593
-249.162
-207.868
-173.164
-144.525
-121.302
-102.136
-85.135
-69.734
-55.86
-43.197
-31.461
-20.043
-8.49
2.603
11.963
18.987
23.61
26.06
26.695
25.394
22.07
17.242
11.873
6.86
2.771
-0.192
-2.058
-2.733
-2.08
-0.092
3.099
7.239
12.083
17.465
23.299
29.514
35.985
42.531
48.923
54.967
60.544
65.59
70.082
73.993
77.301
80.014
82.181
83.882
85.201
86.202
86.932
87.439
87.788
88.066
88.373
88.784
89.346
90.091
91.038
92.208
93.617
95.264
97.132
99.202
101.46
103.899
106.516
109.302
112.239
115.305
118.48
121.746
125.088
128.489
131.93
135.394
138.864
142.325
145.766
149.168
152.514
155.782
158.952
162.001
164.911
167.66
170.226
172.591
174.737
176.648
178.309
179.707
180.829
181.662
182.199
182.431
182.352
181.956
181.239
180.201
178.841
177.161
175.165
172.857
170.243
167.331
164.13
160.651
156.907
152.909
148.673
144.214
139.55
134.697
129.675
124.503
119.2
113.787
108.284
102.712
97.092
91.444
85.787
80.142
74.527
68.961
63.461
58.046
52.73
47.531
42.462
37.537
32.769
28.17
23.749
19.517
15.482
11.65
8.027
4.617
1.425
-1.548
-4.301
-6.835
-9.15
-11.249
-13.137
-14.817
-16.295
-17.578
-18.673
-19.587
-20.331
-20.912
-21.34
-21.625
-21.778
-21.809
-21.728
-21.546
-21.274
-20.922
-20.5
-20.019
-19.489
-18.919
-18.319
-17.697
-17.061
-16.419
-15.779
-15.146
-14.527
-13.928
-13.353
-12.806
-12.291
-11.812
-11.37
-10.967
-10.605
-10.284
-10.005
-9.767
-9.571
-9.415
-9.299
-9.22
-9.178
-9.17
-9.194
-9.249
-9.332
-9.441
-9.573
-9.726
-9.899
-10.088
-10.293
-10.512
-10.743
-10.985
-11.237
-11.499
-11.769
-12.048
-12.335
-12.629
-12.931
-13.242
-13.561
-13.891
-14.231
-14.583
-14.947
-15.326
-15.718
-16.124
-16.546
-16.983
-17.436
-17.905
-18.391
-18.892
-19.411
-19.946
-20.498
-21.065
-21.646
-22.239
-22.843
-23.455
-24.072
-24.69
-25.306
-25.918
-26.521
-27.112
-27.687
-28.243
-28.774
-29.275
-29.742
-30.17
-30.552
-30.884
-31.16
-31.378
-31.535
-31.628
-31.655
-31.614
-31.504
-31.323
-31.07
-30.746
-30.349
-29.878
-29.336
-28.725
-28.048
-27.31
-26.516
-25.671
-24.783
-23.862
-22.914
-21.948
-20.971
-19.988
-19.007
-18.034
-17.077
-16.14
-15.232
-14.361
-13.537
-12.771
-12.072
-11.449
-10.905
-10.445
-10.071
-9.786
-9.588
-9.472
-9.437
-9.486
-9.626
-9.873
-10.234
-10.703
-11.272
-11.928
-12.643
-13.382
-14.103
-14.749
-15.285
-15.69
-15.953
-16.083
-16.081
-15.937
-15.642
-15.177
-14.522
-13.674
-12.637
-11.427
-10.113
-8.813
-7.666
-6.843
-6.473
-6.635
-7.39
-8.754
-10.729
-13.293
-16.381
-19.929
-23.893
-28.244
-32.963
-37.976
-43.075
-47.938
-52.183
-55.385
-57.195
-57.246
-55.132
-50.716
-44.095
-35.645
-26.097
-16.035
-5.801
4.101
13.272
21.873
30.431
40.081
52.367
68.043
87.331
110.55
137.389
166.469
195.242
219.632
235.412
239.607
229.75
203.455
158.998
95.974
16.5
-74.637
-172.395
-272.352
-369.87
-459.997
-537.139
-596.212
-635.03
-654.138
-654.732
-638.352
-607.189
-564.179
-514.039
-462.063
-411.601
-364.278
-321.014
-282.198
-248.039
-218.421
-191.948
-166.588
-141.283
-115.855
-90.65
-66.405
-43.652
-22.749
-4.383
10.609
21.824
29.232
33.135
34.151
32.84
29.666
25.165
19.855
14.19
8.632
3.554
-0.802
-4.235
-6.609
-7.848
-7.879
-6.68
-4.297
-0.826
3.583
8.762
14.555
20.795
27.315
33.931
40.422
46.606
52.358
57.595
62.278
66.388
69.904
72.833
75.224
77.14
78.656
79.842
80.751
81.45
82.015
82.534
83.105
83.803
84.676
85.76
87.08
88.652
90.491
92.595
94.946
97.527
100.326
103.331
106.538
109.935
113.502
117.216
121.053
124.993
129.017
133.104
137.234
141.384
145.536
149.671
153.775
157.827
161.806
165.687
169.445
173.058
176.501
179.751
182.784
185.577
188.11
190.365
192.326
193.977
195.304
196.295
196.938
197.226
197.151
196.708
195.893
194.705
193.145
191.214
188.918
186.263
183.256
179.907
176.227
172.23
167.93
163.343
158.485
153.376
148.035
142.483
136.742
130.834
124.782
118.609
112.341
106
99.611
93.196
86.779
80.382
74.027
67.735
61.527
55.422
49.438
43.593
37.904
32.387
27.054
21.92
16.996
12.291
7.816
3.576
-0.42
-4.17
-7.668
-10.914
-13.906
-16.646
-19.133
-21.373
-23.369
-25.126
-26.652
-27.952
-29.037
-29.914
-30.594
-31.087
-31.403
-31.555
-31.553
-31.41
-31.137
-30.747
-30.25
-29.66
-28.987
-28.244
-27.441
-26.589
-25.699
-24.78
-23.842
-22.895
-21.945
-21.002
-20.072
-19.161
-18.277
-17.423
-16.606
-15.829
-15.096
-14.41
-13.772
-13.186
-12.652
-12.17
-11.741
-11.364
-11.04
-10.766
-10.542
-10.367
-10.239
-10.156
-10.117
-10.12
-10.164
-10.245
-10.363
-10.514
-10.699
-10.913
-11.157
-11.429
-11.728
-12.051
-12.4
-12.771
-13.165
-13.58
-14.014
-14.466
-14.935
-15.42
-15.919
-16.432
-16.958
-17.497
-18.047
-18.608
-19.178
-19.756
-20.34
-20.929
-21.519
-22.109
-22.696
-23.276
-23.848
-24.407
-24.953
-25.481
-25.989
-26.473
-26.928
-27.35
-27.735
-28.077
-28.373
-28.617
-28.806
-28.939
-29.013
-29.026
-28.977
-28.864
-28.687
-28.444
-28.135
-27.759
-27.316
-26.806
-26.232
-25.598
-24.907
-24.163
-23.373
-22.543
-21.682
-20.799
-19.898
-18.988
-18.073
-17.159
-16.253
-15.36
-14.487
-13.64
-12.828
-12.059
-11.347
-10.7
-10.127
-9.633
-9.221
-8.893
-8.653
-8.499
-8.426
-8.433
-8.522
-8.702
-8.988
-9.388
-9.899
-10.514
-11.219
-11.986
-12.78
-13.56
-14.274
-14.884
-15.373
-15.729
-15.962
-16.075
-16.063
-15.917
-15.617
-15.144
-14.487
-13.648
-12.642
-11.534
-10.441
-9.492
-8.846
-8.63
-8.922
-9.781
-11.232
-13.276
-15.883
-18.994
-22.542
-26.485
-30.817
-35.526
-40.541
-45.657
-50.551
-54.875
-58.242
-60.344
-60.828
-59.249
-55.412
-49.391
-41.556
-32.637
-23.272
-13.718
-4.346
4.283
12.201
19.803
28.038
38.746
53.127
71.389
93.803
120.489
150.286
181.107
209.482
230.468
240.216
236.129
215.471
175.879
116.68
39.126
-52.95
-153.623
-257.61
-360.094
-455.522
-537.875
-601.918
-644.573
-665.602
-666.861
-650.412
-618.646
-574.951
-524.045
-471.213
-420.299
-373.267
-330.784
-292.988
-259.859
-231.069
-205.325
-180.629
-155.8
-130.548
-105.177
-80.499
-57.171
-35.635
-16.594
-0.867
11.159
19.426
24.182
26.013
25.451
22.981
19.175
14.526
9.47
4.433
-0.263
-4.334
-7.531
-9.714
-10.792
-10.697
-9.421
-6.991
-3.47
0.987
6.211
12.037
18.276
24.777
31.37
37.849
44.048
49.828
55.083
59.774
63.878
67.369
70.258
72.578
74.378
75.74
76.741
77.438
77.904
78.213
78.444
78.697
79.047
79.541
80.222
81.113
82.231
83.594
85.205
87.049
89.116
91.394
93.871
96.544
99.403
102.43
105.604
108.905
112.311
115.807
119.378
123.003
126.666
130.347
134.033
137.709
141.359
144.96
148.492
151.931
155.254
158.441
161.468
164.313
166.955
169.373
171.551
173.473
175.124
176.489
177.555
178.312
178.751
178.863
178.644
178.089
177.195
175.961
174.39
172.484
170.249
167.69
164.815
161.633
158.156
154.396
150.366
146.082
141.56
136.817
131.872
126.745
121.455
116.025
110.474
104.826
99.102
93.323
87.512
81.69
75.876
70.093
64.359
58.694
53.116
47.642
42.29
37.074
32.01
27.11
22.388
17.855
13.52
9.392
5.479
1.787
-1.679
-4.915
-7.919
-10.688
-13.224
-15.527
-17.599
-19.444
-21.067
-22.472
-23.666
-24.657
-25.452
-26.06
-26.491
-26.754
-26.859
-26.818
-26.64
-26.338
-25.922
-25.404
-24.794
-24.104
-23.344
-22.526
-21.66
-20.756
-19.823
-18.87
-17.907
-16.941
-15.98
-15.032
-14.102
-13.198
-12.325
-11.487
-10.69
-9.936
-9.229
-8.571
-7.964
-7.411
-6.911
-6.465
-6.074
-5.737
-5.453
-5.221
-5.041
-4.91
-4.827
-4.789
-4.794
-4.84
-4.925
-5.046
-5.201
-5.387
-5.603
-5.847
-6.116
-6.409
-6.724
-7.059
-7.413
-7.782
-8.168
-8.567
-8.979
-9.403
-9.839
-10.287
-10.745
-11.214
-11.693
-12.182
-12.68
-13.186
-13.701
-14.224
-14.755
-15.293
-15.838
-16.391
-16.952
-17.519
-18.092
-18.669
-19.25
-19.832
-20.412
-20.99
-21.56
-22.122
-22.672
-23.209
-23.73
-24.232
-24.712
-25.167
-25.593
-25.986
-26.343
-26.659
-26.929
-27.15
-27.319
-27.434
-27.494
-27.496
-27.439
-27.32
-27.138
-26.894
-26.585
-26.209
-25.767
-25.26
-24.69
-24.059
-23.373
-22.636
-21.853
-21.035
-20.188
-19.318
-18.433
-17.537
-16.637
-15.737
-14.843
-13.958
-13.086
-12.235
-11.414
-10.632
-9.9
-9.226
-8.614
-8.072
-7.606
-7.22
-6.914
-6.682
-6.524
-6.442
-6.448
-6.558
-6.778
-7.105
-7.531
-8.047
-8.637
-9.277
-9.92
-10.503
-10.971
-11.297
-11.471
-11.499
-11.381
-11.102
-10.644
-9.999
-9.176
-8.193
-7.054
-5.756
-4.332
-2.858
-1.484
-0.41
0.208
0.264
-0.304
-1.536
-3.469
-6.141
-9.539
-13.573
-18.134
-23.126
-28.514
-34.305
-40.403
-46.571
-52.435
-57.534
-61.461
-63.924
-64.563
-62.925
-58.793
-52.189
-43.459
-33.406
-22.723
-11.722
-0.84
9.359
18.898
28.163
38.137
50.669
66.997
87.385
112.164
141.513
174.272
208.219
239.611
263.186
274.811
271.698
250.978
210.064
148.113
66.335
-31.328
-138.507
-249.34
-358.753
-461.129
-550.319
-621.043
-669.863
-695.805
-700.572
-686.558
-655.986
-611.85
-558.41
-500.1
-441.018
-384.682
-332.606
-285.186
-243.101
-206.662
-175.503
-149.309
-126.968
-106.498
-87.204
-69.264
-52.601
-37.384
-23.581
-10.516
1.567
11.415
18.528
22.889
24.628
24.401
22.552
18.882
13.771
8.15
2.712
-1.923
-5.394
-7.787
-9.067
-9.031
-7.657
-5.031
-1.291
3.305
8.565
14.402
20.671
27.225
33.883
40.388
46.543
52.223
57.336
61.851
65.753
69.019
71.656
73.715
75.254
76.353
77.083
77.493
77.647
77.617
77.49
77.375
77.356
77.484
77.803
78.335
79.098
80.112
81.378
82.881
84.606
86.543
88.684
91.029
93.571
96.293
99.175
102.197
105.34
108.587
111.921
115.324
118.778
122.266
125.771
129.283
132.783
136.251
139.667
143.006
146.248
149.371
152.352
155.168
157.799
160.224
162.428
164.392
166.103
167.546
168.708
169.578
170.146
170.405
170.349
169.972
169.271
168.245
166.895
165.225
163.237
160.938
158.334
155.435
152.251
148.794
145.077
141.115
136.922
132.515
127.913
123.134
118.197
113.121
107.928
102.637
97.271
91.849
86.391
80.919
75.451
70.006
64.605
59.263
53.999
48.83
43.77
38.835
34.04
29.395
24.914
20.607
16.482
12.549
8.813
5.282
1.959
-1.152
-4.049
-6.731
-9.198
-11.45
-13.492
-15.325
-16.954
-18.384
-19.622
-20.674
-21.548
-22.251
-22.794
-23.184
-23.431
-23.545
-23.537
-23.415
-23.192
-22.876
-22.479
-22.011
-21.482
-20.901
-20.278
-19.622
-18.942
-18.245
-17.54
-16.834
-16.133
-15.443
-14.77
-14.119
-13.495
-12.901
-12.34
-11.815
-11.329
-10.882
-10.477
-10.112
-9.79
-9.51
-9.271
-9.072
-8.912
-8.791
-8.706
-8.655
-8.637
-8.649
-8.688
-8.753
-8.841
-8.949
-9.076
-9.219
-9.376
-9.546
-9.728
-9.92
-10.121
-10.33
-10.545
-10.767
-10.995
-11.228
-11.467
-11.712
-11.964
-12.223
-12.49
-12.766
-13.051
-13.347
-13.653
-13.97
-14.298
-14.638
-14.99
-15.355
-15.733
-16.124
-16.529
-16.949
-17.381
-17.827
-18.284
-18.751
-19.227
-19.709
-20.194
-20.68
-21.163
-21.641
-22.112
-22.571
-23.016
-23.443
-23.847
-24.225
-24.57
-24.879
-25.146
-25.367
-25.537
-25.654
-25.716
-25.721
-25.665
-25.547
-25.366
-25.121
-24.811
-24.435
-23.992
-23.482
-22.908
-22.273
-21.58
-20.834
-20.04
-19.205
-18.339
-17.449
-16.542
-15.624
-14.702
-13.782
-12.871
-11.975
-11.096
-10.242
-9.421
-8.641
-7.913
-7.248
-6.65
-6.128
-5.687
-5.332
-5.065
-4.887
-4.79
-4.775
-4.843
-5.002
-5.268
-5.647
-6.133
-6.721
-7.401
-8.15
-8.938
-9.717
-10.423
-11.014
-11.465
-11.76
-11.908
-11.905
-11.735
-11.402
-10.894
-10.199
-9.327
-8.27
-7.033
-5.671
-4.288
-3.028
-2.081
-1.584
-1.628
-2.297
-3.617
-5.616
-8.296
-11.58
-15.384
-19.646
-24.322
-29.413
-34.876
-40.516
-46.038
-51.062
-55.141
-57.939
-59.059
-57.995
-54.534
-48.697
-40.794
-31.587
-21.709
-11.421
-1.176
8.449
17.477
26.251
35.856
48.272
64.547
84.818
109.3
138.012
170.123
203.874
235.487
259.599
272.436
271.35
253.848
217.879
161.781
85.726
-6.593
-109.161
-216.777
-324.531
-427.517
-520.648
-597.73
-654.285
-689.083
-702.849
-697.066
-673.844
-635.322
-584.486
-526.322
-465.232
-404.538
-347.082
-294.165
-246.444
-204.925
-170.098
-141.449
-118.329
-99.368
-82.644
-67.569
-54.048
-41.743
-30.361
-19.296
-8.1
2.625
11.607
18.243
22.471
24.519
24.748
23.04
19.317
14.1
8.356
2.987
-1.442
-4.726
-6.895
-7.854
-7.466
-5.726
-2.769
1.149
5.783
10.966
16.609
22.642
28.939
35.319
41.554
47.45
52.887
57.804
62.177
65.98
69.193
71.824
73.922
75.569
76.849
77.826
78.547
79.062
79.434
79.75
80.109
80.587
81.228
82.065
83.116
84.4
85.933
87.713
89.721
91.938
94.348
96.944
99.722
102.669
105.768
108.997
112.333
115.756
119.252
122.801
126.384
129.983
133.579
137.159
140.707
144.207
147.639
150.981
154.213
157.313
160.261
163.036
165.617
167.985
170.122
172.014
173.645
175.003
176.075
176.851
177.321
177.479
177.32
176.838
176.031
174.898
173.44
171.662
169.566
167.158
164.446
161.438
158.144
154.576
150.746
146.669
142.36
137.834
133.11
128.205
123.138
117.928
112.594
107.158
101.639
96.059
90.436
84.791
79.144
73.513
67.918
62.375
56.904
51.519
46.238
41.074
36.043
31.158
26.43
21.872
17.492
13.3
9.304
5.51
1.925
-1.448
-4.605
-7.544
-10.264
-12.766
-15.05
-17.119
-18.975
-20.624
-22.069
-23.317
-24.375
-25.249
-25.948
-26.48
-26.853
-27.078
-27.163
-27.119
-26.955
-26.682
-26.309
-25.847
-25.307
-24.697
-24.028
-23.31
-22.551
-21.761
-20.949
-20.122
-19.288
-18.455
-17.63
-16.818
-16.025
-15.258
-14.519
-13.814
-13.146
-12.518
-11.933
-11.392
-10.897
-10.45
-10.051
-9.7
-9.396
-9.141
-8.931
-8.768
-8.648
-8.57
-8.534
-8.536
-8.575
-8.648
-8.754
-8.89
-9.053
-9.242
-9.453
-9.684
-9.933
-10.197
-10.474
-10.763
-11.06
-11.366
-11.677
-11.994
-12.314
-12.637
-12.961
-13.287
-13.612
-13.938
-14.263
-14.587
-14.911
-15.235
-15.56
-15.886
-16.213
-16.543
-16.876
-17.211
-17.549
-17.89
-18.234
-18.581
-18.932
-19.287
-19.645
-20.008
-20.377
-20.749
-21.125
-21.504
-21.885
-22.267
-22.647
-23.024
-23.395
-23.759
-24.113
-24.457
-24.788
-25.104
-25.401
-25.677
-25.928
-26.151
-26.341
-26.494
-26.606
-26.674
-26.696
-26.671
-26.596
-26.471
-26.294
-26.063
-25.78
-25.442
-25.049
-24.6
-24.096
-23.537
-22.927
-22.27
-21.568
-20.827
-20.054
-19.255
-18.439
-17.61
-16.774
-15.937
-15.103
-14.277
-13.462
-12.663
-11.885
-11.135
-10.422
-9.757
-9.148
-8.603
-8.129
-7.73
-7.409
-7.167
-7.002
-6.907
-6.882
-6.927
-7.051
-7.269
-7.587
-8.001
-8.508
-9.094
-9.74
-10.415
-11.069
-11.646
-12.105
-12.42
-12.585
-12.611
-12.496
-12.237
-11.824
-11.238
-10.476
-9.54
-8.418
-7.118
-5.68
-4.19
-2.808
-1.716
-1.05
-0.915
-1.37
-2.44
-4.155
-6.521
-9.502
-13.036
-17.045
-21.471
-26.309
-31.546
-37.074
-42.644
-47.858
-52.275
-55.504
-57.241
-57.145
-54.801
-50.026
-42.927
-33.923
-23.814
-13.283
-2.596
7.844
17.439
26.225
34.637
43.673
55.268
70.695
90.139
113.95
142.344
174.083
206.909
237.004
258.926
268.49
262.907
239.264
195.091
129.722
44.517
-56.23
-165.879
-278.61
-389.171
-491.882
-580.92
-650.935
-698.488
-723.103
-726.438
-710.351
-677.163
-629.638
-571.245
-506.93
-441.064
-376.619
-315.91
-260.509
-211.287
-169.45
-135.955
-109.85
-89.895
-74.794
-62.592
-52.315
-43.668
-35.616
-26.978
-17.585
-7.503
2.6
11.176
17.641
22.085
24.325
24.286
22.11
17.966
12.571
7.137
2.386
-1.334
-3.799
-5.026
-4.97
-3.528
-0.805
2.949
7.503
12.654
18.277
24.31
30.639
37.082
43.416
49.429
54.984
60.006
64.457
68.326
71.59
74.257
76.376
78.017
79.254
80.157
80.771
81.147
81.355
81.477
81.617
81.859
82.255
82.844
83.651
84.692
85.982
87.521
89.292
91.276
93.461
95.837
98.401
101.146
104.054
107.105
110.278
113.552
116.913
120.341
123.82
127.329
130.853
134.377
137.888
141.371
144.804
148.169
151.443
154.604
157.633
160.508
163.207
165.711
168.001
170.061
171.876
173.432
174.717
175.717
176.424
176.828
176.924
176.706
176.169
175.31
174.131
172.631
170.814
168.683
166.244
163.505
160.473
157.159
153.574
149.73
145.641
141.322
136.789
132.059
127.15
122.079
116.867
111.532
106.095
100.576
94.995
89.372
83.726
78.077
72.444
66.845
61.299
55.822
50.433
45.145
39.977
34.941
30.051
25.321
20.761
16.382
12.194
8.205
4.422
0.853
-2.499
-5.629
-8.535
-11.215
-13.668
-15.895
-17.899
-19.68
-21.244
-22.596
-23.74
-24.683
-25.433
-25.997
-26.384
-26.603
-26.664
-26.576
-26.35
-25.996
-25.527
-24.951
-24.282
-23.529
-22.704
-21.817
-20.881
-19.904
-18.898
-17.871
-16.835
-15.797
-14.767
-13.752
-12.76
-11.798
-10.872
-9.99
-9.154
-8.371
-7.644
-6.977
-6.371
-5.831
-5.356
-4.949
-4.61
-4.338
-4.134
-3.997
-3.924
-3.915
-3.966
-4.076
-4.242
-4.461
-4.73
-5.045
-5.403
-5.8
-6.233
-6.698
-7.191
-7.709
-8.247
-8.802
-9.37
-9.949
-10.534
-11.124
-11.715
-12.306
-12.893
-13.476
-14.051
-14.618
-15.175
-15.721
-16.255
-16.777
-17.285
-17.781
-18.265
-18.737
-19.199
-19.65
-20.092
-20.524
-20.949
-21.365
-21.775
-22.18
-22.579
-22.975
-23.369
-23.761
-24.153
-24.546
-24.939
-25.333
-25.727
-26.122
-26.515
-26.906
-27.292
-27.674
-28.049
-28.417
-28.776
-29.124
-29.458
-29.776
-30.075
-30.351
-30.6
-30.818
-31
-31.144
-31.246
-31.304
-31.316
-31.281
-31.195
-31.058
-30.868
-30.623
-30.322
-29.963
-29.545
-29.07
-28.538
-27.952
-27.316
-26.634
-25.91
-25.153
-24.369
-23.563
-22.74
-21.905
-21.062
-20.216
-19.37
-18.527
-17.694
-16.877
-16.084
-15.327
-14.615
-13.956
-13.359
-12.828
-12.367
-11.978
-11.661
-11.409
-11.222
-11.103
-11.06
-11.11
-11.259
-11.506
-11.847
-12.27
-12.757
-13.279
-13.786
-14.224
-14.552
-14.745
-14.797
-14.719
-14.509
-14.166
-13.681
-13.036
-12.226
-11.257
-10.115
-8.808
-7.375
-5.898
-4.532
-3.456
-2.802
-2.671
-3.121
-4.175
-5.863
-8.192
-11.128
-14.608
-18.556
-22.91
-27.663
-32.802
-38.219
-43.672
-48.773
-53.093
-56.253
-57.958
-57.877
-55.594
-50.919
-43.939
-35.04
-24.994
-14.467
-3.728
6.817
16.562
25.518
34.081
43.197
54.757
70.027
89.226
112.744
140.842
172.365
205.143
235.45
257.952
268.529
264.419
242.722
200.894
138.112
55.566
-42.636
-150.003
-260.799
-369.975
-472.054
-561.087
-631.54
-679.701
-704.737
-708.428
-692.864
-660.15
-612.873
-554.827
-491.17
-426.805
-365.374
-308.588
-257.292
-212.356
-174.801
-145.098
-122.086
-103.716
-87.772
-73.121
-59.657
-47.27
-35.401
-23.192
-10.524
1.799
12.351
20.21
25.371
28.126
28.736
27.155
23.407
18.04
12.099
6.524
1.839
-1.73
-4.182
-5.442
-5.342
-3.864
-1.15
2.59
7.134
12.321
18.072
24.279
30.788
37.411
43.904
50.066
55.777
60.954
65.561
69.58
72.987
75.788
78.031
79.782
81.117
82.103
82.787
83.224
83.486
83.662
83.857
84.153
84.599
85.233
86.078
87.151
88.468
90.031
91.822
93.825
96.028
98.424
101.01
103.779
106.714
109.794
112.999
116.309
119.71
123.184
126.714
130.282
133.871
137.467
141.057
144.627
148.155
151.622
155.004
158.282
161.433
164.437
167.271
169.915
172.351
174.56
176.529
178.242
179.686
180.847
181.714
182.28
182.536
182.476
182.094
181.389
180.358
179.002
177.325
175.328
173.017
170.398
167.481
164.274
160.789
157.037
153.033
148.79
144.324
139.654
134.796
129.769
124.592
119.284
113.867
108.361
102.785
97.16
91.505
85.841
80.186
74.56
68.981
63.466
58.033
52.697
47.475
42.38
37.426
32.626
27.991
23.532
19.259
15.178
11.298
7.625
4.163
0.916
-2.114
-4.924
-7.515
-9.888
-12.044
-13.987
-15.72
-17.248
-18.577
-19.713
-20.663
-21.436
-22.039
-22.481
-22.772
-22.921
-22.937
-22.832
-22.614
-22.295
-21.884
-21.391
-20.826
-20.199
-19.519
-18.796
-18.038
-17.253
-16.45
-15.635
-14.818
-14.003
-13.197
-12.406
-11.635
-10.889
-10.171
-9.486
-8.836
-8.224
-7.652
-7.123
-6.637
-6.195
-5.799
-5.448
-5.142
-4.882
-4.665
-4.493
-4.363
-4.274
-4.226
-4.218
-4.247
-4.314
-4.416
-4.553
-4.724
-4.928
-5.163
-5.43
-5.726
-6.051
-6.404
-6.785
-7.194
-7.629
-8.091
-8.579
-9.093
-9.632
-10.196
-10.785
-11.395
-12.028
-12.682
-13.356
-14.048
-14.758
-15.484
-16.226
-16.981
-17.747
-18.524
-19.307
-20.094
-20.882
-21.668
-22.447
-23.217
-23.972
-24.709
-25.425
-26.116
-26.777
-27.404
-27.992
-28.536
-29.032
-29.473
-29.856
-30.176
-30.429
-30.613
-30.724
-30.762
-30.725
-30.612
-30.422
-30.155
-29.811
-29.39
-28.894
-28.323
-27.679
-26.968
-26.193
-25.36
-24.476
-23.546
-22.579
-21.585
-20.572
-19.546
-18.516
-17.488
-16.469
-15.467
-14.49
-13.544
-12.635
-11.773
-10.966
-10.227
-9.563
-8.981
-8.484
-8.074
-7.753
-7.524
-7.386
-7.333
-7.364
-7.479
-7.684
-7.997
-8.426
-8.963
-9.597
-10.307
-11.058
-11.826
-12.575
-13.255
-13.834
-14.29
-14.612
-14.819
-14.915
-14.895
-14.746
-14.43
-13.911
-13.197
-12.298
-11.252
-10.153
-9.087
-8.171
-7.565
-7.387
-7.714
-8.602
-10.034
-11.964
-14.359
-17.172
-20.38
-24.003
-28.023
-32.379
-36.929
-41.419
-45.555
-49.006
-51.414
-52.364
-51.398
-48.3
-43.144
-36.295
-28.42
-20.06
-11.44
-2.923
4.954
12.197
19.18
26.953
37.39
51.513
69.395
91.139
116.689
145.185
174.97
202.603
223.171
233.255
230.494
212.656
177.972
125.08
54.297
-30.831
-124.772
-222.9
-320.725
-413.619
-496.652
-563.887
-611.346
-638.481
-646.505
-636.97
-612.044
-574.163
-527.021
-476.323
-426.381
-379.339
-336.37
-297.72
-263.347
-233.416
-207.063
-182.083
-157.108
-131.698
-105.925
-80.679
-56.72
-34.413
-14.428
2.346
15.455
24.749
30.377
32.931
32.965
30.964
27.49
23.019
17.951
12.687
7.593
2.988
-0.851
-3.745
-5.59
-6.309
-5.857
-4.231
-1.475
2.275
6.853
12.082
17.8
23.877
30.176
36.524
42.725
48.603
54.042
58.975
63.379
67.226
70.498
73.209
75.404
77.162
78.563
79.674
80.548
81.245
81.832
82.393
83.017
83.772
84.7
85.834
87.194
88.797
90.659
92.777
95.134
97.712
100.496
103.477
106.648
109.998
113.505
117.148
120.904
124.754
128.68
132.664
136.684
140.72
144.753
148.767
152.746
156.671
160.52
164.272
167.901
171.386
174.705
177.835
180.752
183.437
185.869
188.032
189.909
191.486
192.748
193.684
194.283
194.538
194.442
193.988
193.174
191.999
190.462
188.568
186.319
183.722
180.784
177.514
173.922
170.021
165.824
161.347
156.605
151.615
146.397
140.969
135.353
129.569
123.64
117.586
111.433
105.201
98.914
92.593
86.262
79.941
73.651
67.414
61.25
55.176
49.211
43.373
37.678
32.141
26.776
21.597
16.614
11.838
7.278
2.942
-1.163
-5.031
-8.66
-12.045
-15.186
-18.081
-20.732
-23.141
-25.311
-27.246
-28.952
-30.435
-31.701
-32.759
-33.617
-34.285
-34.771
-35.087
-35.243
-35.25
-35.119
-34.862
-34.489
-34.013
-33.443
-32.792
-32.07
-31.288
-30.455
-29.583
-28.68
-27.755
-26.818
-25.876
-24.937
-24.009
-23.097
-22.208
-21.347
-20.518
-19.727
-18.978
-18.273
-17.615
-17.008
-16.453
-15.952
-15.506
-15.115
-14.781
-14.502
-14.278
-14.11
-13.995
-13.934
-13.926
-13.968
-14.061
-14.203
-14.391
-14.623
-14.898
-15.213
-15.565
-15.952
-16.373
-16.823
-17.302
-17.806
-18.334
-18.883
-19.45
-20.033
-20.627
-21.23
-21.838
-22.447
-23.054
-23.654
-24.244
-24.82
-25.38
-25.919
-26.434
-26.921
-27.375
-27.792
-28.167
-28.496
-28.774
-28.997
-29.162
-29.268
-29.313
-29.296
-29.215
-29.069
-28.858
-28.581
-28.239
-27.831
-27.357
-26.819
-26.22
-25.562
-24.852
-24.093
-23.292
-22.455
-21.592
-20.71
-19.816
-18.915
-18.016
-17.122
-16.24
-15.378
-14.539
-13.73
-12.96
-12.237
-11.572
-10.974
-10.449
-10.003
-9.639
-9.358
-9.162
-9.05
-9.016
-9.057
-9.179
-9.387
-9.696
-10.114
-10.637
-11.257
-11.961
-12.718
-13.496
-14.249
-14.923
-15.482
-15.904
-16.178
-16.314
-16.313
-16.168
-15.871
-15.403
-14.743
-13.887
-12.836
-11.608
-10.276
-8.962
-7.809
-6.991
-6.641
-6.844
-7.666
-9.124
-11.219
-13.922
-17.162
-20.876
-25.022
-29.579
-34.532
-39.803
-45.173
-50.314
-54.827
-58.276
-60.305
-60.524
-58.509
-54.125
-47.482
-38.991
-29.43
-19.402
-9.253
0.524
9.541
17.955
26.325
35.834
48.087
63.933
83.636
107.501
135.208
165.299
195.041
220.288
236.726
241.02
230.476
202.483
155.036
88.066
4.223
-91.589
-194.104
-298.208
-398.83
-490.289
-566.152
-621.974
-656.427
-670.229
-665.007
-643.005
-606.781
-560.31
-509.453
-458.734
-410.623
-366.512
-326.756
-291.387
-260.549
-233.282
-207.325
-181.254
-154.596
-127.413
-100.557
-74.787
-50.51
-28.488
-9.754
5.125
15.958
22.87
26.423
27.159
25.531
22.097
17.431
12.014
6.296
0.693
-4.475
-8.921
-12.415
-14.817
-16.034
-16.011
-14.744
-12.282
-8.733
-4.251
0.995
6.845
13.133
19.69
26.331
32.837
39.022
44.759
49.961
54.586
58.61
62.015
64.811
67.05
68.8
70.136
71.126
71.826
72.301
72.626
72.888
73.182
73.583
74.137
74.88
75.838
77.027
78.46
80.137
82.038
84.147
86.451
88.941
91.611
94.45
97.439
100.557
103.782
107.095
110.479
113.916
117.387
120.873
124.356
127.821
131.255
134.641
137.959
141.188
144.306
147.291
150.124
152.783
155.246
157.495
159.511
161.278
162.784
164.013
164.954
165.596
165.929
165.948
165.646
165.018
164.063
162.778
161.166
159.229
156.971
154.399
151.518
148.339
144.872
141.128
137.121
132.864
128.373
123.664
118.755
113.664
108.411
103.014
97.495
91.874
86.171
80.408
74.605
68.784
62.962
57.161
51.399
45.695
40.066
34.529
29.1
23.795
18.628
13.613
8.761
4.084
-0.408
-4.707
-8.804
-12.693
-16.368
-19.826
-23.063
-26.078
-28.869
-31.438
-33.785
-35.913
-37.826
-39.529
-41.027
-42.326
-43.433
-44.357
-45.105
-45.687
-46.112
-46.389
-46.529
-46.541
-46.437
-46.227
-45.921
-45.529
-45.063
-44.532
-43.946
-43.315
-42.648
-41.954
-41.241
-40.518
-39.791
-39.069
-38.357
-37.662
-36.989
-36.343
-35.728
-35.149
-34.607
-34.107
-33.649
-33.236
-32.868
-32.547
-32.273
-32.046
-31.866
-31.732
-31.644
-31.601
-31.601
-31.643
-31.725
-31.845
-32.003
-32.195
-32.421
-32.68
-32.969
-33.288
-33.633
-34.005
-34.399
-34.816
-35.252
-35.706
-36.178
-36.664
-37.163
-37.675
-38.198
-38.732
-39.274
-39.823
-40.378
-40.936
-41.495
-42.053
-42.607
-43.155
-43.693
-44.221
-44.735
-45.233
-45.713
-46.171
-46.604
-47.009
-47.381
-47.718
-48.014
-48.265
-48.469
-48.622
-48.724
-48.772
-48.763
-48.697
-48.573
-48.389
-48.145
-47.839
-47.471
-47.04
-46.548
-45.997
-45.39
-44.732
-44.027
-43.28
-42.501
-41.696
-40.871
-40.033
-39.186
-38.336
-37.488
-36.646
-35.814
-34.997
-34.204
-33.442
-32.723
-32.056
-31.446
-30.902
-30.431
-30.036
-29.72
-29.484
-29.32
-29.23
-29.219
-29.294
-29.47
-29.753
-30.137
-30.617
-31.185
-31.818
-32.488
-33.145
-33.73
-34.204
-34.545
-34.741
-34.8
-34.716
-34.475
-34.074
-33.508
-32.775
-31.885
-30.838
-29.639
-28.34
-27.043
-25.894
-25.073
-24.709
-24.887
-25.674
-27.104
-29.208
-32.005
-35.441
-39.417
-43.85
-48.669
-53.837
-59.336
-65.017
-70.593
-75.704
-79.908
-82.818
-84.146
-83.516
-80.528
-75.053
-67.215
-57.491
-46.74
-35.605
-24.431
-13.75
-3.989
4.982
13.724
23.54
36.185
52.605
73.09
97.974
126.986
158.617
190.018
216.689
233.862
238.11
226.744
197.236
147.75
78.05
-9.395
-109.272
-215.719
-323.661
-428.132
-524.051
-605.812
-668.278
-708.967
-728.19
-727.395
-708.344
-673.097
-623.995
-564.968
-501.195
-436.999
-375.495
-318.485
-266.924
-221.808
-184.375
-154.95
-132.283
-114.409
-99.155
-85.421
-73.086
-61.939
-51.291
-40.199
-28.474
-16.925
-7
0.437
5.404
8.231
9.199
8.152
5.036
0.382
-4.791
-9.528
-13.304
-15.947
-17.496
-17.877
-16.935
-14.651
-11.163
-6.725
-1.584
4.087
10.198
16.674
23.391
30.168
36.777
43.027
48.804
54.047
58.738
62.857
66.379
69.31
71.695
73.615
75.153
76.377
77.336
78.08
78.676
79.211
79.787
80.481
81.339
82.394
83.665
85.172
86.933
88.949
91.203
93.678
96.362
99.246
102.33
105.603
109.049
112.645
116.371
120.208
124.142
128.154
132.225
136.338
140.475
144.621
148.763
152.883
156.961
160.975
164.903
168.722
172.412
175.95
179.314
182.484
185.44
188.166
190.645
192.862
194.804
196.457
197.812
198.859
199.59
199.999
200.081
199.834
199.257
198.35
197.118
195.563
193.691
191.509
189.025
186.251
183.197
179.877
176.304
172.494
168.465
164.233
159.817
155.238
150.514
145.667
140.72
135.692
130.606
125.483
120.345
115.213
110.109
105.052
100.063
95.161
90.365
85.695
81.166
76.796
72.601
68.594
64.791
61.202
57.84
54.715
51.835
49.208
46.84
44.735
42.897
41.329
40.03
38.999
38.235
37.732
37.487
37.492
37.74
38.221
38.924
39.839
40.952
42.249
43.716
45.338
47.097
48.977
50.961
53.028
55.162
57.343
59.551
61.767
63.971
66.145
