-184.804
-183.907
-183.662
-183.996
-184.834
-186.119
-187.821
-189.955
-192.479
-195.199
-197.809
-199.918
-201.084
-200.966
-199.169
-195.185
-188.773
-179.936
-168.974
-156.643
-143.628
-130.241
-116.946
-104.345
-92.414
-80.746
-68.313
-53.187
-34.092
-10.731
17.285
50.215
86.962
125.337
161.532
190.073
206.619
208.167
191.587
154.073
94.548
13.999
-83.669
-191.976
-304.98
-417.33
-523.059
-615.914
-690.331
-742.641
-771.89
-779.441
-767.255
-737.658
-693.721
-639.388
-579.194
-517.037
-455.997
-398.385
-345.39
-297.7
-255.863
-219.961
-189.688
-164.58
-143.423
-124.584
-107.445
-91.843
-77.558
-64.357
-51.607
-38.848
-26.625
-16.131
-7.99
-2.281
1.23
2.89
2.594
0.28
-3.541
-7.907
-11.922
-15.028
-17.022
-17.937
-17.683
-16.129
-13.271
-9.25
-4.321
1.267
7.347
13.83
20.637
27.64
34.653
41.444
47.819
53.659
58.9
63.519
67.49
70.793
73.437
75.474
76.985
78.056
78.754
79.127
79.226
79.12
78.897
78.66
78.486
78.424
78.509
78.764
79.21
79.868
80.739
81.808
83.06
84.485
86.078
87.839
89.762
91.831
94.03
96.339
98.745
101.234
103.794
106.408
109.062
111.741
114.434
117.13
119.816
122.473
125.084
127.628
130.087
132.441
134.671
136.757
138.68
140.422
141.969
143.306
144.418
145.293
145.919
146.285
146.383
146.206
145.746
144.999
143.962
142.634
141.015
139.106
136.911
134.434
131.679
128.656
125.373
121.839
118.066
114.066
109.853
105.442
100.85
96.094
91.19
86.159
81.018
75.789
70.49
65.143
59.767
54.383
49.009
43.666
38.373
33.15
28.013
22.982
18.074
13.304
8.689
4.244
-0.018
-4.084
-7.942
-11.581
-14.993
-18.168
-21.099
-23.781
-26.208
-28.379
-30.29
-31.941
-33.332
-34.466
-35.345
-35.975
-36.359
-36.506
-36.422
-36.117
-35.599
-34.878
-33.967
-32.876
-31.618
-30.205
-28.65
-26.967
-25.17
-23.272
-21.288
-19.23
-17.114
-14.953
-12.76
-10.549
-8.331
-6.121
-3.928
-1.765
0.358
2.43
4.444
6.389
8.26
10.048
11.748
13.355
14.865
16.273
17.578
18.778
19.871
20.857
21.738
22.513
23.185
23.756
24.229
24.609
24.898
25.102
25.226
25.276
25.256
25.173
25.034
24.844
24.611
24.341
24.042
23.719
23.379
23.028
22.674
22.321
21.976
21.644
21.331
21.04
20.777
20.546
20.349
20.19
20.072
19.997
19.967
19.983
20.045
20.155
20.313
20.519
20.771
21.069
21.411
21.795
22.218
22.679
23.173
23.697
24.248
24.822
25.413
26.019
26.635
27.255
27.877
28.495
29.104
29.7
30.279
30.836
31.367
31.869
32.339
32.775
33.173
33.532
33.85
34.126
34.358
34.547
34.691
34.79
34.845
34.858
34.83
34.764
34.663
34.529
34.368
34.185
33.983
33.769
33.547
33.323
33.102
32.891
32.696
32.524
32.381
32.275
32.213
32.201
32.245
32.35
32.521
32.76
33.071
33.458
33.921
34.462
35.082
35.782
36.561
37.42
38.357
39.367
40.446
41.589
42.789
44.04
45.331
46.651
47.99
49.34
50.69
52.03
53.353
54.649
55.909
57.125
58.288
59.387
60.411
61.347
62.187
62.919
63.537
64.036
64.414
64.666
64.795
64.803
64.691
64.457
64.096
63.595
62.949
62.162
61.243
60.21
59.09
57.923
56.751
55.625
54.58
53.643
52.831
52.144
51.592
51.179
50.909
50.808
50.897
51.185
51.667
52.319
53.058
53.777
54.352
54.632
54.507
53.888
52.707
50.935
48.562
45.621
42.188
38.316
34.037
29.379
24.368
19.103
13.842
8.893
4.601
1.369
-0.496
-0.63
1.437
5.885
12.611
21.221
30.915
41.015
51.257
61.174
70.112
78.078
85.474
93.395
103.903
118.33
136.939
160.135
188.17
219.864
252.961
283.547
306.03
316.072
310.724
286.967
242.223
175.723
88.804
-14.226
-126.639
-242.469
-356.323
-462.372
-554.621
-627.536
-677.55
-704.124
-708.917
-693.812
-661.162
-613.787
-555.229
-490.575
-424.313
-359.453
-298.332
-242.54
-192.947
-150.78
-117.011
-90.638
-70.397
-55.004
-42.496
-31.912
-22.984
-14.678
-5.826
3.715
13.88
24.003
32.52
38.854
43.108
45.11
44.817
42.391
38.009
32.406
26.813
21.969
18.239
15.857
14.807
15.139
16.96
20.162
24.492
29.708
35.596
42.012
48.881
56.07
63.382
70.579
77.433
83.796
89.579
94.738
99.25
103.086
106.246
108.774
110.732
112.192
113.222
113.865
114.172
114.214
114.076
113.861
113.655
113.513
113.473
113.561
113.794
114.188
114.748
115.455
116.298
117.268
118.358
119.574
120.911
122.359
123.904
125.531
127.228
128.985
130.795
132.645
134.527
136.432
138.354
140.29
142.231
144.166
146.082
147.964
149.797
151.568
153.262
154.862
156.352
157.72
158.953
160.038
160.966
161.723
162.301
162.688
162.877
162.86
162.631
162.181
161.508
160.607
159.475
158.113
156.518
154.692
152.636
150.353
147.847
145.124
142.189
139.05
135.714
132.192
128.493
124.63
120.615
116.459
112.178
107.786
103.297
98.726
94.09
89.403
84.68
79.938
75.191
70.456
65.747
61.08
56.469
51.929
47.474
43.116
38.869
34.745
30.754
26.907
23.214
19.683
16.323
13.14
10.141
7.329
4.71
2.285
0.058
-1.973
-3.806
-5.444
-6.888
-8.143
-9.211
-10.099
-10.813
-11.358
-11.743
-11.976
-12.065
-12.019
-11.849
-11.563
-11.174
-10.69
-10.123
-9.484
-8.782
-8.029
-7.234
-6.409
-5.562
-4.704
-3.844
-2.99
-2.15
-1.333
-0.545
0.206
0.914
1.575
2.183
2.733
3.223
3.649
4.009
4.302
4.526
4.68
4.766
4.783
4.733
4.618
4.44
4.202
3.906
3.555
3.154
2.706
2.215
1.684
1.118
0.52
-0.105
-0.753
-1.421
-2.105
-2.801
-3.507
-4.218
-4.932
-5.646
-6.358
-7.066
-7.767
-8.461
-9.147
-9.822
-10.489
-11.145
-11.792
-12.431
-13.062
-13.686
-14.306
-14.923
-15.54
-16.158
-16.781
-17.412
-18.053
-18.709
-19.381
-20.074
-20.79
-21.532
-22.303
-23.106
-23.943
-24.817
-25.731
-26.687
-27.686
-28.73
-29.821
-30.958
-32.143
-33.374
-34.652
-35.974
-37.339
-38.744
-40.188
-41.667
-43.177
-44.716
-46.279
-47.861
-49.456
-51.058
-52.661
-54.258
-55.841
-57.404
-58.937
-60.435
-61.89
-63.295
-64.642
-65.925
-67.135
-68.266
-69.311
-70.262
-71.113
-71.856
-72.488
-73.004
-73.4
-73.675
-73.826
-73.853
-73.755
-73.534
-73.191
-72.728
-72.146
-71.45
-70.643
-69.733
-68.726
-67.631
-66.458
-65.215
-63.917
-62.575
-61.203
-59.812
-58.414
-57.018
-55.638
-54.281
-52.959
-51.68
-50.453
-49.29
-48.203
-47.204
-46.304
-45.512
-44.835
-44.278
-43.846
-43.541
-43.362
-43.304
-43.367
-43.553
-43.864
-44.315
-44.908
-45.639
-46.498
-47.469
-48.521
-49.616
-50.706
-51.737
-52.675
-53.488
-54.162
-54.695
-55.077
-55.307
-55.386
-55.291
-55.004
-54.521
-53.841
-52.992
-52.058
-51.144
-50.38
-49.926
-49.89
-50.367
-51.429
-53.097
-55.381
-58.235
-61.565
-65.311
-69.435
-73.896
-78.678
-83.67
-88.615
-93.222
-97.126
-99.913
-101.267
-100.795
-98.064
-92.96
-85.609
-76.452
-66.304
-55.768
-45.174
-35.042
-25.791
-17.289
-9.01
0.305
12.344
27.998
47.562
71.333
99.022
129.198
159.095
184.53
201.082
205.3
194.474
165.997
117.847
50.022
-34.76
-131.624
-235.099
-339.833
-440.826
-532.354
-608.043
-663.69
-697.753
-710.68
-704.326
-681.144
-643.448
-595.202
-541.967
-487.748
-435.722
-388.051
-345.093
-307.025
-274.425
-246.458
-221.525
-199.054
-177.691
-156.538
-136.253
-117.121
-99.221
-83.296
-69.61
-57.884
-48.896
-43.052
-39.907
-39.33
-40.825
-43.625
-47.584
-52.593
-57.945
-63.137
-67.784
-71.406
-73.949
-75.432
-75.68
-74.639
-72.36
-68.907
-64.475
-59.293
-53.493
-47.25
-40.719
-34.053
-27.475
-21.159
-15.235
-9.812
-4.929
-0.606
3.126
6.272
8.864
10.94
12.577
13.852
14.819
15.552
16.124
16.612
17.12
17.725
18.48
19.428
20.595
21.996
23.651
25.567
27.731
30.137
32.776
35.64
38.729
42.035
45.545
49.242
53.105
57.115
61.258
65.521
69.885
74.334
78.854
83.428
88.045
92.69
97.341
101.978
106.577
111.116
115.571
119.919
124.137
128.2
132.087
135.777
139.253
142.496
145.488
148.211
150.65
152.793
154.626
156.138
157.319
158.162
158.66
158.809
158.608
158.054
157.15
155.895
154.296
152.357
150.086
147.492
144.583
141.373
137.874
134.101
130.071
125.8
121.306
116.609
111.729
106.686
101.501
96.195
90.79
85.307
79.768
74.193
68.606
63.026
57.475
51.972
46.537
41.19
35.948
30.828
25.848
21.023
16.366
11.893
7.614
3.541
-0.316
-3.949
-7.35
-10.513
-13.433
-16.108
-18.534
-20.712
-22.642
-24.326
-25.766
-26.967
-27.934
-28.673
-29.191
-29.498
-29.601
-29.51
-29.235
-28.788
-28.18
-27.423
-26.528
-25.508
-24.375
-23.142
-21.821
-20.425
-18.965
-17.454
-15.904
-14.325
-12.729
-11.126
-9.526
-7.938
-6.372
-4.835
-3.336
-1.881
-0.476
0.873
2.161
3.384
4.539
5.622
6.633
7.569
8.431
9.217
9.928
10.565
11.129
11.621
12.043
12.398
12.688
12.916
13.085
13.198
13.259
13.27
13.236
13.159
13.042
12.889
12.703
12.488
12.247
11.983
11.7
11.402
11.091
10.77
10.442
10.109
9.773
9.437
9.102
8.77
8.443
8.123
7.812
7.512
7.225
6.952
6.696
6.458
6.24
6.043
5.868
5.716
5.59
5.491
5.422
5.384
5.38
5.411
5.48
5.587
5.732
5.915
6.136
6.393
6.687
7.017
7.381
7.779
8.21
8.674
9.167
9.687
10.23
10.794
11.372
11.961
12.554
13.143
13.722
14.286
14.831
15.35
15.841
16.298
16.719
17.1
17.436
17.724
17.955
18.123
18.223
18.25
18.201
18.074
17.87
17.588
17.232
16.808
16.317
15.759
15.131
14.421
13.624
12.746
11.794
10.782
9.739
8.699
7.706
6.807
6.034
5.412
4.953
4.655
4.522
4.554
4.744
5.112
5.672
6.423
7.36
8.45
9.607
10.724
11.668
12.282
12.452
12.083
11.1
9.481
7.214
4.341
0.952
-2.896
-7.164
-11.811
-16.818
-22.073
-27.323
-32.28
-36.585
-39.829
-41.699
-41.803
-39.711
-35.301
-28.69
-20.299
-10.925
-1.154
8.695
18.103
26.665
34.502
42.115
50.712
61.927
76.614
95.043
117.5
143.664
172.112
200.173
223.786
238.711
241.664
230.003
201.197
153.299
86.288
2.831
-92.282
-193.891
-296.947
-396.462
-486.809
-561.612
-616.507
-650.208
-663.413
-657.727
-635.382
-598.909
-552.275
-501.326
-450.557
-402.432
-358.331
-318.556
-283.094
-252.062
-224.485
-198.101
-171.486
-144.136
-116.091
-88.245
-61.396
-35.995
-12.836
7.068
23.165
35.247
43.428
48.232
50.159
49.659
47.282
43.551
38.913
33.765
28.472
23.403
18.89
15.186
12.47
10.833
10.325
10.982
12.778
15.619
19.37
23.861
28.931
34.454
40.293
46.298
52.293
58.058
63.43
68.315
72.648
76.403
79.568
82.132
84.127
85.629
86.716
87.465
87.944
88.201
88.297
88.311
88.324
88.428
88.692
89.157
89.86
90.822
92.061
93.591
95.405
97.483
99.807
102.365
105.146
108.146
111.351
114.739
118.291
121.984
125.799
129.715
133.713
137.769
141.862
145.973
150.082
154.173
158.224
162.211
166.112
169.9
173.552
177.042
180.346
183.44
186.3
188.907
191.24
193.281
195.015
196.427
197.502
198.23
198.601
198.606
198.241
197.499
196.38
194.882
193.008
190.761
188.146
185.169
181.841
178.171
174.173
169.858
165.243
160.344
155.179
149.768
144.13
138.288
132.263
126.079
119.759
113.328
106.81
100.229
93.611
86.978
80.356
73.766
67.233
60.778
54.423
48.189
42.095
36.161
30.404
24.841
19.487
14.357
9.463
4.818
0.431
-3.688
-7.533
-11.096
-14.374
-17.362
-20.058
-22.463
-24.577
-26.401
-27.941
-29.199
-30.183
-30.899
-31.355
-31.561
-31.527
-31.263
-30.78
-30.092
-29.21
-28.148
-26.92
-25.539
-24.018
-22.373
-20.616
-18.763
-16.826
-14.818
-12.754
-10.646
-8.505
-6.345
-4.177
-2.011
0.142
2.272
4.37
6.428
8.437
10.391
12.282
14.106
15.857
17.531
19.123
20.632
22.053
23.387
24.631
25.785
26.848
27.822
28.706
29.502
30.211
30.836
31.378
31.84
32.224
32.534
32.77
32.937
33.036
33.071
33.044
32.957
32.813
32.615
32.366
32.067
31.722
31.333
30.903
30.432
29.924
29.38
28.801
28.191
27.551
26.882
26.189
25.472
24.735
23.978
23.205
22.417
21.616
20.805
19.985
19.159
18.329
17.498
16.67
15.848
15.035
14.237
13.456
12.698
11.966
11.265
10.597
9.967
9.38
8.839
8.349
7.916
7.543
7.236
6.998
6.833
6.745
6.733
6.799
6.944
7.168
7.47
7.851
8.308
8.841
9.448
10.127
10.876
11.688
12.559
13.482
14.449
15.452
16.483
17.529
18.581
19.628
20.663
21.677
22.661
23.607
24.507
25.353
26.137
26.85
27.48
28.016
28.447
28.765
28.967
29.048
29.006
28.842
28.557
28.158
27.648
27.025
26.284
25.413
24.405
23.265
22.007
20.645
19.211
17.744
16.289
14.9
13.618
12.467
11.46
10.592
9.863
9.286
8.874
8.651
8.645
8.866
9.312
9.97
10.771
11.596
12.31
12.749
12.78
12.325
11.323
9.752
7.611
4.921
1.734
-1.889
-5.918
-10.34
-15.139
-20.249
-25.454
-30.413
-34.756
-38.059
-39.987
-40.193
-38.223
-33.898
-27.319
-18.856
-9.28
0.731
10.914
20.855
29.945
38.253
46.212
54.83
66.068
81.163
100.307
123.842
151.923
183.334
215.845
245.664
267.45
277.058
271.707
248.582
205.272
141.109
57.507
-41.4
-149.218
-260.014
-368.64
-469.571
-556.777
-625.206
-671.742
-695.607
-698.576
-683.172
-651.668
-607.067
-553.692
-495.844
-437.465
-382.043
-330.972
-284.562
-243.508
-208.03
-177.694
-152.252
-130.574
-110.646
-91.855
-74.385
-58.148
-43.367
-29.958
-17.174
-5.251
4.599
11.866
16.491
18.616
18.874
17.531
14.343
9.613
4.192
-1.182
-5.859
-9.473
-12.071
-13.623
-13.942
-12.978
-10.806
-7.563
-3.491
1.213
6.454
12.136
18.141
24.328
30.495
36.412
41.924
46.934
51.385
55.261
58.541
61.21
63.292
64.856
65.98
66.74
67.197
67.395
67.388
67.249
67.066
66.934
66.922
67.071
67.412
67.967
68.753
69.784
71.058
72.553
74.252
76.146
78.227
80.492
82.931
85.526
88.256
91.104
94.05
97.081
100.178
103.322
106.498
109.687
112.877
116.054
119.201
122.3
125.331
128.273
131.107
133.813
136.372
138.763
140.969
142.973
144.761
146.32
147.637
148.701
149.502
150.033
150.287
150.258
149.943
149.339
148.445
147.263
145.795
144.045
142.018
139.719
137.157
134.341
131.281
127.988
124.474
120.752
116.836
112.742
108.484
104.078
99.542
94.892
90.146
85.32
80.433
75.502
70.542
65.571
60.604
55.658
50.747
45.885
41.087
36.365
31.732
27.199
22.779
18.479
14.311
10.282
6.399
2.669
-0.903
-4.311
-7.552
-10.624
-13.524
-16.251
-18.804
-21.185
-23.395
-25.436
-27.311
-29.024
-30.577
-31.978
-33.23
-34.34
-35.313
-36.157
-36.877
-37.482
-37.977
-38.371
-38.671
-38.885
-39.019
-39.08
-39.077
-39.015
-38.903
-38.745
-38.549
-38.32
-38.065
-37.787
-37.492
-37.184
-36.867
-36.545
-36.222
-35.899
-35.58
-35.267
-34.962
-34.665
-34.38
-34.105
-33.842
-33.591
-33.352
-33.124
-32.909
-32.705
-32.511
-32.328
-32.154
-31.989
-31.832
-31.683
-31.541
-31.405
-31.274
-31.15
-31.03
-30.917
-30.809
-30.708
-30.614
-30.529
-30.453
-30.389
-30.337
-30.3
-30.278
-30.274
-30.29
-30.327
-30.389
-30.478
-30.595
-30.744
-30.926
-31.145
-31.402
-31.698
-32.034
-32.413
-32.836
-33.303
-33.814
-34.371
-34.974
-35.622
-36.315
-37.053
-37.832
-38.651
-39.506
-40.395
-41.311
-42.251
-43.209
-44.18
-45.159
-46.14
-47.117
-48.083
-49.031
-49.954
-50.845
-51.697
-52.499
-53.246
-53.927
-54.536
-55.067
-55.513
-55.868
-56.128
-56.285
-56.337
-56.278
-56.106
-55.816
-55.406
-54.873
-54.218
-53.442
-52.548
-51.541
-50.426
-49.211
-47.904
-46.515
-45.052
-43.522
-41.935
-40.299
-38.62
-36.907
-35.168
-33.413
-31.652
-29.902
-28.175
-26.486
-24.846
-23.267
-21.76
-20.338
-19.007
-17.77
-16.633
-15.601
-14.684
-13.908
-13.282
-12.805
-12.478
-12.288
-12.219
-12.261
-12.378
-12.516
-12.629
-12.661
-12.584
-12.405
-12.114
-11.699
-11.143
-10.405
-9.482
-8.421
-7.245
-5.975
-4.647
-3.289
-2.004
-0.976
-0.363
-0.32
-0.956
-2.301
-4.408
-7.34
-11.127
-15.782
-21.229
-27.286
-33.823
-40.774
-48.064
-55.58
-63.044
-70.007
-76.03
-80.705
-83.711
-84.698
-83.181
-78.888
-71.836
-62.356
-51.23
-39.197
-26.598
-13.915
-1.819
9.638
20.733
32.467
46.844
65.002
87.116
113.469
144.129
178.179
213.767
246.919
271.972
285.046
283.413
264.422
225.949
166.262
85.513
-12.228
-120.472
-233.973
-347.677
-456.568
-555.546
-637.798
-698.24
-735.755
-751.198
-745.737
-721.418
-679.967
-623.841
-558.97
-490.777
-422.77
-358.136
-298.71
-245.343
-199.95
-164.062
-136.313
-115.126
-98.864
-85.027
-72.72
-61.836
-51.233
-39.745
-27.336
-14.124
-0.978
10.282
19.008
25.268
28.892
29.876
28.332
24.371
18.68
12.528
6.775
1.892
-1.821
-4.348
-5.622
-5.499
-4.015
-1.37
2.211
6.511
11.367
16.715
22.473
28.497
34.6
40.541
46.118
51.211
55.754
59.722
63.089
65.832
67.96
69.528
70.619
71.319
71.692
71.783
71.648
71.36
71.012
70.716
70.552
70.568
70.803
71.278
72.014
73.032
74.331
75.892
77.697
79.732
81.992
84.474
87.169
90.057
93.117
96.326
99.666
103.121
106.672
110.3
113.986
117.712
121.462
125.224
128.979
132.706
136.383
139.988
143.497
146.889
150.141
153.229
156.132
158.831
161.308
163.546
165.53
167.246
168.68
169.821
170.661
171.19
171.404
171.295
170.861
170.102
169.018
167.612
165.886
163.845
161.496
158.847
155.909
152.691
149.205
145.466
141.487
137.284
132.874
128.276
123.506
118.584
113.53
108.363
103.104
97.773
92.39
86.973
81.543
76.118
70.717
65.357
60.057
54.832
49.698
44.671
39.765
34.993
30.368
25.901
21.601
17.479
13.542
9.798
6.252
2.909
-0.227
-3.154
-5.869
-8.374
-10.668
-12.754
-14.635
-16.314
-17.797
-19.088
-20.195
-21.125
-21.885
-22.485
-22.932
-23.237
-23.41
-23.459
-23.397
-23.232
-22.976
-22.639
-22.232
-21.764
-21.247
-20.69
-20.102
-19.494
-18.873
-18.248
-17.627
-17.018
-16.427
-15.86
-15.324
-14.823
-14.362
-13.944
-13.573
-13.25
-12.979
-12.76
-12.594
-12.48
-12.419
-12.408
-12.447
-12.534
-12.665
-12.84
-13.053
-13.302
-13.584
-13.894
-14.229
-14.584
-14.955
-15.339
-15.73
-16.126
-16.521
-16.913
-17.298
-17.673
-18.034
-18.38
-18.707
-19.013
-19.296
-19.555
-19.788
-19.995
-20.175
-20.329
-20.456
-20.558
-20.636
-20.691
-20.725
-20.74
-20.739
-20.723
-20.695
-20.659
-20.616
-20.571
-20.526
-20.485
-20.451
-20.428
-20.419
-20.426
-20.452
-20.498
-20.567
-20.66
-20.779
-20.924
-21.097
-21.299
-21.529
-21.789
-22.076
-22.391
-22.73
-23.092
-23.474
-23.873
-24.283
-24.701
-25.122
-25.541
-25.955
-26.359
-26.747
-27.114
-27.454
-27.761
-28.029
-28.252
-28.423
-28.535
-28.584
-28.565
-28.474
-28.31
-28.069
-27.748
-27.346
-26.861
-26.294
-25.642
-24.906
-24.086
-23.183
-22.202
-21.148
-20.025
-18.84
-17.602
-16.32
-15.006
-13.667
-12.313
-10.953
-9.593
-8.244
-6.912
-5.605
-4.328
-3.093
-1.91
-0.793
0.247
1.201
2.06
2.816
3.463
3.995
4.412
4.719
4.917
5.003
4.967
4.792
4.471
4.011
3.42
2.704
1.882
0.981
0.043
-0.861
-1.677
-2.376
-2.945
-3.388
-3.7
-3.864
-3.854
-3.664
-3.298
-2.769
-2.082
-1.232
-0.248
0.789
1.728
2.368
2.549
2.167
1.164
-0.505
-2.878
-5.992
-9.843
-14.33
-19.34
-24.787
-30.626
-36.851
-43.361
-49.894
-56.048
-61.36
-65.408
-67.889
-68.464
-66.674
-62.31
-55.426
-46.378
-36.002
-25.023
-13.738
-2.602
7.769
17.4
26.678
36.564
48.973
65.171
85.374
109.987
139.26
171.99
205.933
237.251
260.513
271.534
267.477
245.354
202.562
138.284
53.773
-46.717
-156.538
-269.838
-381.324
-485.242
-575.628
-646.927
-695.505
-720.761
-724.339
-708.101
-674.393
-626.007
-566.452
-500.815
-433.637
-368.015
-306.338
-250.214
-200.514
-158.465
-125.06
-99.286
-79.82
-65.286
-53.629
-43.818
-35.541
-27.721
-19.134
-9.617
0.748
11.264
20.322
27.299
32.271
35.023
35.459
33.708
29.921
24.807
19.583
14.969
11.305
8.812
7.464
7.303
8.429
10.735
13.971
17.907
22.344
27.159
32.298
37.655
43.058
48.294
53.16
57.529
61.332
64.54
67.144
69.132
70.513
71.342
71.692
71.643
71.266
70.613
69.739
68.717
67.636
66.6
65.697
64.985
64.507
64.291
64.359
64.729
65.408
66.382
67.637
69.166
70.962
73.026
75.352
77.925
80.729
83.741
86.945
90.325
93.864
97.543
101.343
105.248
109.24
113.305
117.426
121.581
125.745
129.895
134.005
138.051
142.008
145.85
149.553
153.094
156.451
159.605
162.537
165.227
167.66
169.819
171.691
173.265
174.528
175.472
176.089
176.373
176.322
175.933
175.205
174.14
172.74
171.01
168.955
166.584
163.906
160.93
157.669
154.136
150.347
146.316
142.062
137.601
132.952
128.136
123.172
118.081
112.882
107.596
102.243
96.845
91.42
85.99
80.572
75.187
69.853
64.588
59.409
54.333
49.375
44.549
39.87
35.35
31.002
26.835
22.859
19.083
15.514
12.159
9.021
6.104
3.411
0.942
-1.302
-3.322
-5.122
-6.705
-8.075
-9.238
-10.2
-10.968
-11.551
-11.956
-12.195
-12.275
-12.207
-12.002
-11.671
-11.225
-10.675
-10.033
-9.309
-8.515
-7.662
-6.761
-5.823
-4.858
-3.877
-2.888
-1.901
-0.925
0.033
0.963
1.861
2.718
3.53
4.291
4.997
5.644
6.228
6.748
7.2
7.585
7.9
8.146
8.322
8.429
8.469
8.443
8.352
8.2
7.988
7.719
7.397
7.025
6.605
6.143
5.641
5.103
4.533
3.935
3.312
2.67
2.011
1.339
0.658
-0.029
-0.718
-1.406
-2.089
-2.766
-3.432
-4.087
-4.726
-5.347
-5.949
-6.529
-7.086
-7.617
-8.12
-8.596
-9.043
-9.459
-9.844
-10.199
-10.523
-10.815
-11.077
-11.307
-11.508
-11.678
-11.819
-11.933
-12.02
-12.081
-12.119
-12.135
-12.131
-12.109
-12.069
-12.014
-11.945
-11.863
-11.77
-11.668
-11.559
-11.444
-11.325
-11.205
-11.086
-10.969
-10.854
-10.744
-10.639
-10.539
-10.445
-10.356
-10.273
-10.194
-10.121
-10.052
-9.988
-9.928
-9.869
-9.81
-9.751
-9.687
-9.618
-9.538
-9.447
-9.343
-9.224
-9.089
-8.939
-8.77
-8.584
-8.378
-8.153
-7.909
-7.642
-7.353
-7.042
-6.71
-6.358
-5.989
-5.606
-5.211
-4.81
-4.411
-4.017
-3.632
-3.261
-2.908
-2.576
-2.269
-1.99
-1.738
-1.518
-1.334
-1.193
-1.101
-1.064
-1.086
-1.17
-1.321
-1.539
-1.825
-2.176
-2.583
-3.045
-3.563
-4.143
-4.8
-5.538
-6.352
-7.238
-8.188
-9.177
-10.177
-11.139
-11.999
-12.719
-13.277
-13.656
-13.865
-13.897
-13.738
-13.391
-12.846
-12.095
-11.143
-9.984
-8.625
-7.133
-5.618
-4.238
-3.185
-2.599
-2.574
-3.198
-4.506
-6.533
-9.285
-12.681
-16.644
-21.121
-26.072
-31.502
-37.362
-43.442
-49.417
-54.882
-59.374
-62.532
-63.971
-63.183
-59.945
-54.297
-46.56
-37.524
-27.886
-17.931
-8.127
0.918
9.281
17.432
26.462
38.388
54.499
75.033
100.409
130.9
165.317
201.367
235.067
260.754
274.045
271.956
251.363
209.514
145.442
60.276
-41.739
-153.775
-269.797
-384.352
-491.515
-585.191
-659.658
-711.099
-738.837
-744.517
-730.009
-697.699
-650.421
-591.69
-526.671
-459.965
-394.671
-333.24
-277.329
-227.806
-185.922
-152.664
-126.975
-107.536
-92.985
-81.237
-71.264
-62.763
-54.658
-45.775
-35.99
-25.393
-14.702
-5.526
1.53
6.543
9.313
9.778
8.079
4.387
-0.567
-5.565
-9.879
-13.154
-15.166
-15.933
-15.402
-13.47
-10.241
-5.968
-0.887
4.794
10.945
17.494
24.323
31.246
38.035
44.48
50.446
55.851
60.66
64.856
68.416
71.344
73.688
75.51
76.886
77.882
78.544
78.925
79.095
79.14
79.162
79.247
79.45
79.811
80.357
81.105
82.074
83.268
84.672
86.272
88.061
90.032
92.187
94.523
97.026
99.681
102.47
105.377
108.39
111.497
114.683
117.933
121.234
124.575
127.948
131.338
134.731
138.107
141.447
144.731
147.941
151.057
154.057
156.922
159.633
162.175
164.531
166.686
168.625
170.335
171.805
173.022
173.977
174.661
175.068
175.19
175.024
174.567
173.817
172.775
171.442
169.819
167.912
165.726
163.268
160.545
157.567
154.344
150.888
147.213
143.332
139.26
135.013
130.607
126.06
121.39
116.613
111.748
106.813
101.825
96.802
91.763
86.723
81.701
76.713
71.775
66.903
62.112
57.417
52.83
48.365
44.033
39.845
35.812
31.943
28.244
24.724
21.389
18.242
15.288
12.529
9.967
7.601
5.432
3.457
1.673
0.077
-1.336
-2.571
-3.634
-4.532
-5.273
-5.864
-6.313
-6.631
-6.824
-6.904
-6.879
-6.76
-6.555
-6.275
-5.929
-5.526
-5.075
-4.587
-4.068
-3.528
-2.974
-2.414
-1.855
-1.302
-0.763
-0.242
0.256
0.726
1.166
1.572
1.94
2.27
2.56
2.808
3.014
3.177
3.298
3.378
3.416
3.414
3.373
3.295
3.182
3.035
2.856
2.647
2.41
2.148
1.861
1.552
1.224
0.877
0.514
0.136
-0.255
-0.659
-1.074
-1.499
-1.934
-2.377
-2.829
-3.29
-3.758
-4.235
-4.719
-5.212
-5.714
-6.225
-6.745
-7.276
-7.818
-8.371
-8.936
-9.513
-10.104
-10.707
-11.325
-11.956
-12.602
-13.262
-13.936
-14.625
-15.33
-16.049
-16.783
-17.533
-18.297
-19.075
-19.867
-20.672
-21.489
-22.318
-23.158
-24.008
-24.867
-25.736
-26.612
-27.494
-28.381
-29.271
-30.162
-31.053
-31.941
-32.824
-33.701
-34.57
-35.429
-36.277
-37.112
-37.932
-38.734
-39.516
-40.274
-41.008
-41.713
-42.386
-43.024
-43.623
-44.181
-44.696
-45.165
-45.585
-45.951
-46.263
-46.515
-46.706
-46.83
-46.885
-46.868
-46.777
-46.612
-46.371
-46.056
-45.665
-45.199
-44.659
-44.046
-43.362
-42.606
-41.78
-40.887
-39.93
-38.913
-37.842
-36.723
-35.56
-34.363
-33.143
-31.907
-30.662
-29.416
-28.176
-26.948
-25.741
-24.559
-23.406
-22.289
-21.214
-20.192
-19.232
-18.342
-17.527
-16.792
-16.143
-15.582
-15.11
-14.727
-14.422
-14.197
-14.052
-13.997
-14.046
-14.204
-14.464
-14.823
-15.268
-15.778
-16.322
-16.848
-17.292
-17.616
-17.796
-17.817
-17.686
-17.396
-16.926
-16.278
-15.442
-14.408
-13.184
-11.766
-10.164
-8.446
-6.732
-5.179
-3.986
-3.286
-3.165
-3.708
-4.95
-6.923
-9.64
-13.012
-16.948
-21.394
-26.304
-31.671
-37.434
-43.363
-49.105
-54.261
-58.371
-61.085
-62.044
-60.751
-56.99
-50.817
-42.556
-33.018
-22.926
-12.571
-2.42
6.895
15.428
23.602
32.43
43.897
59.274
78.788
102.869
131.767
164.288
198.173
229.508
252.78
263.729
259.436
236.849
193.322
127.99
42.106
-60.029
-171.701
-286.957
-400.385
-506.138
-598.16
-670.835
-720.507
-746.588
-750.748
-734.902
-701.451
-653.244
-593.847
-528.383
-461.401
-395.99
-334.526
-278.604
-229.088
-187.188
-153.883
-128.161
-108.709
-94.168
-82.502
-72.692
-64.433
-56.66
-48.154
-38.75
-28.518
-18.143
-9.225
-2.375
2.494
5.181
5.604
3.9
0.229
-4.693
-9.639
-13.88
-17.066
-18.975
-19.631
-18.991
-16.957
-13.636
-9.287
-4.146
1.58
7.76
14.331
21.178
28.121
34.938
41.415
47.418
52.87
57.733
61.995
65.633
68.653
71.103
73.05
74.57
75.732
76.58
77.167
77.56
77.844
78.119
78.47
78.948
79.592
80.428
81.47
82.736
84.228
85.929
87.823
89.901
92.154
94.581
97.178
99.929
102.816
105.821
108.927
112.121
115.388
118.713
122.08
125.475
128.887
132.305
135.717
139.105
142.451
145.735
148.939
152.043
155.029
157.876
160.566
163.081
165.406
167.527
169.431
171.103
172.532
173.707
174.62
175.263
175.628
175.71
175.505
175.01
174.225
173.15
171.786
170.137
168.206
165.999
163.523
160.786
157.796
154.564
151.101
147.42
143.534
139.456
135.204
130.79
126.233
121.549
116.756
111.87
106.908
101.888
96.826
91.74
86.647
81.563
76.504
71.485
66.522
61.631
56.824
52.115
47.517
43.041
38.699
34.501
30.455
26.571
22.856
19.316
15.957
12.783
9.799
7.006
4.406
2
-0.213
-2.234
-4.065
-5.709
-7.17
-8.453
-9.563
-10.505
-11.287
-11.916
-12.4
-12.746
-12.962
-13.059
-13.045
-12.929
-12.721
-12.429
-12.064
-11.634
-11.15
-10.619
-10.051
-9.454
-8.837
-8.208
-7.574
-6.942
-6.32
-5.713
-5.128
-4.57
-4.044
-3.555
-3.106
-2.701
-2.343
-2.035
-1.778
-1.575
-1.426
-1.331
-1.292
-1.308
-1.377
-1.5
-1.674
-1.897
-2.169
-2.486
-2.846
-3.245
-3.682
-4.153
-4.654
-5.182
-5.734
-6.306
-6.894
-7.496
-8.108
-8.726
-9.347
-9.967
-10.584
-11.194
-11.793
-12.38
-12.951
-13.504
-14.036
-14.546
-15.03
-15.488
-15.918
-16.318
-16.687
-17.025
-17.33
-17.601
-17.84
-18.045
-18.218
-18.359
-18.468
-18.548
-18.6
-18.624
-18.624
-18.6
-18.555
-18.491
-18.41
-18.314
-18.206
-18.089
-17.965
-17.837
-17.707
-17.579
-17.454
-17.334
-17.221
-17.116
-17.022
-16.94
-16.871
-16.816
-16.776
-16.753
-16.747
-16.758
-16.787
-16.832
-16.893
-16.968
-17.055
-17.152
-17.257
-17.366
-17.477
-17.586
-17.693
-17.792
-17.881
-17.955
-18.012
-18.045
-18.051
-18.026
-17.965
-17.863
-17.72
-17.533
-17.3
-17.021
-16.694
-16.318
-15.894
-15.421
-14.9
-14.331
-13.714
-13.05
-12.345
-11.601
-10.824
-10.018
-9.19
-8.348
-7.5
-6.655
-5.82
-5
-4.203
-3.435
-2.701
-2.009
-1.363
-0.77
-0.236
0.23
0.619
0.922
1.135
1.254
1.278
1.206
1.038
0.778
0.434
0.008
-0.5
-1.095
-1.789
-2.588
-3.485
-4.47
-5.527
-6.628
-7.736
-8.807
-9.786
-10.635
-11.331
-11.862
-12.235
-12.449
-12.492
-12.358
-12.025
-11.472
-10.693
-9.69
-8.479
-7.132
-5.767
-4.525
-3.576
-3.053
-3.039
-3.603
-4.765
-6.53
-8.876
-11.737
-15.054
-18.79
-22.926
-27.453
-32.295
-37.24
-41.967
-46.088
-49.175
-50.877
-50.81
-48.552
-43.968
-37.166
-28.551
-18.892
-8.786
1.421
11.227
20.239
28.611
36.898
46.288
58.384
74.037
93.529
117.201
144.767
174.802
204.595
229.997
246.693
251.337
241.195
213.585
166.426
99.559
15.573
-80.651
-183.857
-288.91
-390.68
-483.392
-560.494
-617.418
-652.743
-667.133
-662.194
-640.189
-603.739
-556.908
-505.676
-454.673
-406.451
-362.453
-323.055
-288.273
-258.212
-231.846
-206.837
-181.698
-155.911
-129.507
-103.322
-78.111
-54.287
-32.628
-14.189
0.454
11.106
17.891
21.375
22.096
20.508
17.168
12.647
7.421
1.936
-3.403
-8.28
-12.417
-15.586
-17.65
-18.52
-18.144
-16.522
-13.705
-9.802
-4.97
0.621
6.812
13.436
20.323
27.288
34.111
40.606
46.645
52.14
57.045
61.335
64.99
68.019
70.471
72.412
73.917
75.054
75.875
76.445
76.84
77.146
77.46
77.855
78.379
79.073
79.962
81.065
82.399
83.967
85.752
87.743
89.931
92.309
94.877
97.629
100.549
103.622
106.83
110.157
113.593
117.122
120.729
124.4
128.119
131.875
135.657
139.452
143.239
147
150.714
154.361
157.919
161.367
164.683
167.845
170.833
173.63
176.217
178.577
180.695
182.555
184.143
185.446
186.453
187.155
187.541
187.605
187.341
186.745
185.815
184.549
182.949
181.017
178.756
176.172
173.272
170.064
166.559
162.767
158.702
154.379
149.812
145.019
140.016
134.824
129.461
123.948
118.305
112.554
106.714
100.808
94.857
88.881
82.902
76.94
71.015
65.148
59.357
53.662
48.08
42.627
37.321
32.176
27.205
22.422
17.839
13.464
9.309
5.38
1.684
-1.773
-4.989
-7.961
-10.688
-13.17
-15.408
-17.406
-19.169
-20.7
-22.006
-23.095
-23.975
-24.655
-25.144
-25.453
-25.593
-25.575
-25.412
-25.114
-24.695
-24.167
-23.542
-22.834
-22.053
-21.212
-20.323
-19.397
-18.445
-17.477
-16.503
-15.533
-14.574
-13.637
-12.726
-11.851
-11.015
-10.225
-9.485
-8.799
-8.17
-7.6
-7.091
-6.644
-6.259
-5.938
-5.678
-5.48
-5.341
-5.261
-5.236
-5.263
-5.342
-5.467
-5.636
-5.846
-6.094
-6.376
-6.69
-7.032
-7.399
-7.79
-8.2
-8.628
-9.071
-9.526
-9.991
-10.466
-10.948
-11.436
-11.929
-12.427
-12.929
-13.435
-13.943
-14.454
-14.966
-15.478
-15.991
-16.505
-17.017
-17.529
-18.041
-18.551
-19.06
-19.568
-20.073
-20.574
-21.071
-21.561
-22.042
-22.512
-22.969
-23.41
-23.832
-24.234
-24.613
-24.966
-25.291
-25.583
-25.839
-26.056
-26.229
-26.354
-26.428
-26.446
-26.407
-26.309
-26.152
-25.934
-25.654
-25.313
-24.911
-24.448
-23.925
-23.343
-22.701
-22.003
-21.254
-20.456
-19.616
-18.74
-17.834
-16.906
-15.966
-15.022
-14.082
-13.153
-12.241
-11.353
-10.495
-9.676
-8.9
-8.174
-7.505
-6.904
-6.379
-5.941
-5.593
-5.341
-5.188
-5.133
-5.178
-5.32
-5.552
-5.871
-6.279
-6.781
-7.389
-8.109
-8.935
-9.858
-10.863
-11.92
-12.995
-14.042
-15.006
-15.851
-16.552
-17.097
-17.492
-17.735
-17.817
-17.731
-17.454
-16.966
-16.26
-15.335
-14.207
-12.948
-11.673
-10.523
-9.67
-9.243
-9.329
-9.998
-11.273
-13.158
-15.63
-18.621
-22.071
-25.943
-30.22
-34.897
-39.899
-45.012
-49.91
-54.202
-57.459
-59.328
-59.423
-57.309
-52.85
-46.16
-37.656
-28.132
-18.197
-8.179
1.439
10.275
18.511
26.734
36.16
48.453
64.486
84.499
108.764
136.928
167.461
197.572
223.062
239.53
243.601
232.603
203.956
155.702
87.852
3.123
-93.538
-196.798
-301.5
-402.582
-494.37
-570.448
-626.417
-660.983
-674.871
-669.73
-647.822
-611.7
-565.341
-514.614
-464.028
-416.045
-372.066
-332.445
-297.212
-266.514
-239.388
-213.56
-187.607
-161.058
-133.967
-107.182
-81.46
-57.204
-35.174
-16.404
-1.455
9.487
16.555
20.315
21.311
19.997
16.932
12.685
7.735
2.525
-2.541
-7.151
-11.024
-13.938
-15.758
-16.396
-15.805
-13.987
-10.999
-6.951
-2.004
3.67
9.907
16.541
23.402
30.308
37.043
43.428
49.336
54.684
59.43
63.554
67.04
69.9
72.187
73.972
75.33
76.334
77.041
77.518
77.843
78.103
78.394
78.789
79.339
80.08
81.041
82.238
83.689
85.395
87.341
89.512
91.9
94.495
97.296
100.293
103.469
106.806
110.282
113.88
117.585
121.38
125.245
129.163
133.115
137.087
141.063
145.025
148.953
152.824
156.613
160.298
163.857
167.264
170.498
173.534
176.352
178.935
181.263
183.321
185.092
186.563
187.721
188.557
189.059
189.223
189.04
188.508
187.626
186.392
184.81
182.882
180.614
178.013
175.088
171.849
168.309
164.481
160.379
156.02
151.422
146.603
141.583
136.383
131.024
125.527
119.916
114.213
108.441
102.621
96.776
90.928
85.099
79.309
73.578
67.926
62.372
56.933
51.627
46.469
41.475
36.656
32.026
27.596
23.376
19.373
15.595
12.048
8.736
5.662
2.828
0.233
-2.122
-4.239
-6.123
-7.778
-9.209
-10.423
-11.428
-12.231
-12.842
-13.271
-13.528
-13.624
-13.57
-13.378
-13.06
-12.628
-12.093
-11.469
-10.766
-9.997
-9.173
-8.306
-7.406
-6.484
-5.55
-4.613
-3.682
-2.766
-1.872
-1.007
-0.178
0.61
1.351
2.043
2.68
3.26
3.782
4.243
4.642
4.979
5.254
5.469
5.624
5.721
5.762
5.751
5.689
5.581
5.429
5.238
5.012
4.754
4.469
4.161
3.834
3.492
3.14
2.781
2.421
2.061
1.706
1.359
1.024
0.702
0.396
0.109
-0.159
-0.404
-0.627
-0.826
-1.001
-1.151
-1.275
-1.376
-1.452
-1.506
-1.538
-1.551
-1.545
-1.524
-1.491
-1.446
-1.394
-1.336
-1.277
-1.218
-1.164
-1.118
-1.083
-1.063
-1.061
-1.081
-1.126
-1.199
-1.302
-1.437
-1.606
-1.81
-2.052
-2.333
-2.652
-3.011
-3.411
-3.852
-4.333
-4.854
-5.411
-6.004
-6.63
-7.286
-7.968
-8.671
-9.392
-10.126
-10.87
-11.619
-12.367
-13.11
-13.841
-14.556
-15.246
-15.907
-16.531
-17.112
-17.643
-18.12
-18.539
-18.897
-19.189
-19.413
-19.566
-19.647
-19.653
-19.584
-19.437
-19.211
-18.907
-18.53
-18.08
-17.564
-16.986
-16.352
-15.672
-14.955
-14.208
-13.439
-12.654
-11.86
-11.066
-10.276
-9.497
-8.734
-7.996
-7.294
-6.64
-6.043
-5.514
-5.058
-4.685
-4.399
-4.206
-4.106
-4.093
-4.166
-4.327
-4.587
-4.961
-5.456
-6.066
-6.782
-7.6
-8.5
-9.459
-10.432
-11.352
-12.163
-12.838
-13.364
-13.742
-13.97
-14.028
-13.893
-13.559
-13.033
-12.327
-11.447
-10.384
-9.17
-7.883
-6.673
-5.741
-5.249
-5.301
-5.958
-7.271
-9.282
-12.032
-15.523
-19.65
-24.299
-29.387
-34.874
-40.762
-46.954
-53.191
-59.068
-64.122
-67.932
-70.196
-70.576
-68.598
-64.047
-56.986
-47.788
-37.335
-26.386
-15.233
-4.324
5.739
15.025
23.981
33.647
46.051
62.531
83.318
108.792
139.126
172.982
207.928
239.93
263.399
274.025
268.946
245.215
200.268
133.449
46.281
-56.751
-168.772
-283.691
-396.217
-500.655
-590.85
-661.293
-708.453
-731.717
-733.191
-715.265
-680.263
-631.007
-571.492
-506.908
-442.135
-380.762
-324.355
-273.645
-229.427
-192.634
-163.698
-141.466
-123.872
-108.687
-94.8
-82.101
-70.471
-59.334
-47.77
-35.613
-23.668
-13.366
-5.636
-0.5
2.337
3.121
1.764
-1.732
-6.825
-12.475
-17.733
-22.079
-25.304
-27.42
-28.358
-27.964
-26.228
-23.3
-19.402
-14.759
-9.534
-3.8
2.342
8.745
15.223
21.541
27.501
32.987
37.921
42.27
46.02
49.15
51.667
53.623
55.086
56.133
56.834
57.235
57.391
57.373
57.27
57.187
57.204
57.373
57.729
58.299
59.101
60.152
61.455
62.994
64.756
66.729
68.908
71.291
73.873
76.638
79.567
82.64
85.84
89.152
92.561
96.048
99.598
103.193
106.818
110.463
114.11
117.739
121.33
124.859
128.305
131.646
134.86
137.924
140.817
143.519
146.012
148.279
150.305
152.074
153.572
154.788
155.71
156.331
156.642
156.638
156.313
155.667
154.697
153.405
151.794
149.866
147.628
145.086
142.25
139.128
135.733
132.076
128.171
124.033
119.679
115.125
110.388
105.488
100.443
95.273
89.997
84.636
79.208
73.734
68.232
62.721
57.22
51.746
46.318
40.951
35.662
30.466
25.377
20.409
15.574
10.884
6.349
1.98
-2.217
-6.232
-10.061
-13.697
-17.137
-20.377
-23.415
-26.25
-28.883
-31.314
-33.545
-35.58
-37.421
-39.074
-40.543
-41.835
-42.955
-43.912
-44.712
-45.364
-45.874
-46.252
-46.506
-46.645
-46.676
-46.609
-46.452
-46.213
-45.901
-45.523
-45.086
-44.599
-44.068
-43.5
-42.902
-42.278
-41.635
-40.979
-40.312
-39.641
-38.969
-38.3
-37.635
-36.98
-36.335
-35.702
-35.083
-34.48
-33.893
-33.323
-32.769
-32.233
-31.714
-31.212
-30.727
-30.257
-29.803
-29.364
-28.938
-28.526
-28.127
-27.739
-27.362
-26.995
-26.639
-26.291
-25.952
-25.621
-25.298
-24.981
-24.672
-24.368
-24.071
-23.779
-23.493
-23.213
-22.938
-22.668
-22.404
-22.146
-21.894
-21.649
-21.41
-21.177
-20.952
-20.734
-20.523
-20.321
-20.128
-19.944
-19.77
-19.607
-19.455
-19.316
-19.188
-19.074
-18.973
-18.887
-18.815
-18.758
-18.717
-18.694
-18.688
-18.701
-18.733
-18.785
-18.857
-18.948
-19.059
-19.19
-19.341
-19.511
-19.699
-19.906
-20.132
-20.375
-20.634
-20.908
-21.195
-21.493
-21.799
-22.112
-22.426
-22.739
-23.048
-23.349
-23.639
-23.916
-24.175
-24.412
-24.623
-24.805
-24.952
-25.06
-25.123
-25.136
-25.096
-24.999
-24.842
-24.623
-24.34
-23.991
-23.574
-23.088
-22.534
-21.91
-21.215
-20.45
-19.616
-18.718
-17.759
-16.743
-15.678
-14.57
-13.428
-12.262
-11.079
-9.887
-8.694
-7.506
-6.33
-5.174
-4.042
-2.939
-1.874
-0.859
0.097
0.982
1.787
2.507
3.132
3.656
4.075
4.389
4.603
4.719
4.734
4.638
4.417
4.066
3.589
2.996
2.295
1.502
0.645
-0.232
-1.062
-1.792
-2.393
-2.851
-3.167
-3.338
-3.347
-3.17
-2.798
-2.235
-1.493
-0.573
0.53
1.789
3.131
4.411
5.436
6.05
6.148
5.666
4.561
2.794
0.327
-2.836
-6.609
-10.894
-15.61
-20.717
-26.222
-32.035
-37.922
-43.51
-48.338
-51.986
-54.143
-54.454
-52.465
-47.957
-40.964
-31.828
-21.352
-10.24
1.197
12.495
23.054
32.899
42.456
52.745
65.702
82.631
103.809
129.671
160.516
195.174
231.381
265.224
291.116
304.709
303.038
282.99
241.823
178.584
94.379
-6.59
-117.549
-232.555
-346.239
-452.755
-546.086
-620.541
-672.286
-700.622
-707.148
-693.654
-662.448
-616.276
-558.565
-494.451
-428.537
-363.926
-303.091
-247.706
-198.664
-157.245
-124.46
-99.247
-80.275
-66.171
-54.841
-45.257
-37.117
-29.347
-20.783
-11.317
-1.054
9.28
18.078
24.739
29.34
31.684
31.715
29.578
25.447
20.05
14.595
9.801
6.022
3.481
2.164
2.125
3.468
6.093
9.753
14.214
19.275
24.804
30.729
36.932
43.229
49.396
55.227
60.59
65.407
69.642
73.283
76.308
78.722
80.575
81.929
82.858
83.43
83.694
83.702
83.526
83.253
82.984
82.806
82.774
82.927
83.294
83.89
84.734
85.829
87.16
88.714
90.481
92.456
94.637
97.021
99.593
102.335
105.228
108.255
111.402
114.653
117.991
121.401
124.866
128.374
131.914
135.469
139.022
142.552
146.039
149.46
152.795
156.024
159.122
162.07
164.85
167.442
169.831
172.001
173.938
175.628
177.06
178.222
179.106
179.703
180.008
180.015
179.721
179.125
178.226
177.027
175.53
173.739
171.66
169.3
166.667
163.771
160.622
157.233
153.616
149.786
145.758
141.547
137.171
132.645
127.989
123.221
118.357
113.416
108.417
103.376
98.312
93.241
88.18
83.146
78.154
73.221
68.36
63.586
58.911
54.35
49.912
45.61
41.452
37.449
33.608
29.936
26.44
23.126
19.996
17.056
14.307
11.751
9.387
7.216
5.237
3.445
1.839
0.414
-0.834
-1.912
-2.824
-3.579
-4.182
-4.643
-4.968
-5.166
-5.247
-5.218
-5.089
-4.869
-4.567
-4.193
-3.756
-3.265
-2.728
-2.156
-1.555
-0.935
-0.303
0.332
0.964
1.586
2.19
2.771
3.324
3.843
4.324
4.763
5.157
5.501
5.795
6.036
6.223
6.356
6.433
6.455
6.423
6.338
6.201
6.014
5.779
5.499
5.176
4.813
4.414
3.982
3.52
3.032
2.522
1.994
1.451
0.899
0.339
-0.223
-0.784
-1.341
-1.889
-2.427
-2.95
-3.455
-3.941
-4.404
-4.842
-5.254
-5.638
-5.993
-6.317
-6.611
-6.874
-7.106
-7.307
-7.478
-7.619
-7.731
-7.816
-7.875
-7.91
-7.922
-7.915
-7.89
-7.85
-7.798
-7.737
-7.67
-7.598
-7.526
-7.456
-7.391
-7.334
-7.288
-7.255
-7.239
-7.242
-7.267
-7.316
-7.391
-7.492
-7.622
-7.781
-7.969
-8.187
-8.436
-8.714
-9.022
-9.36
-9.726
-10.119
-10.538
-10.979
-11.441
-11.919
-12.411
-12.913
-13.419
-13.926
-14.43
-14.926
-15.412
-15.881
-16.329
-16.752
-17.144
-17.5
-17.815
-18.082
-18.298
-18.456
-18.553
-18.588
-18.558
-18.459
-18.291
-18.053
-17.742
-17.36
-16.906
-16.379
-15.779
-15.108
-14.371
-13.57
-12.712
-11.801
-10.846
-9.856
-8.84
-7.806
-6.762
-5.715
-4.672
-3.64
-2.626
-1.634
-0.67
0.258
1.14
1.964
2.72
3.4
3.997
4.504
4.915
5.226
5.438
5.556
5.582
5.514
5.343
5.053
4.637
4.103
3.457
2.708
1.874
0.979
0.067
-0.793
-1.549
-2.171
-2.647
-2.982
-3.17
-3.196
-3.034
-2.678
-2.133
-1.415
-0.528
0.533
1.737
3.007
4.192
5.095
5.556
5.475
4.791
3.458
1.437
-1.314
-4.795
-8.91
-13.549
-18.627
-24.103
-29.972
-36.138
-42.347
-48.203
-53.251
-57.079
-59.386
-59.84
-57.981
-53.594
-46.721
-37.709
-27.384
-16.472
-5.276
5.751
15.991
25.46
34.548
44.222
56.417
72.428
92.512
117.094
146.439
179.361
213.615
245.339
269.058
280.54
276.895
255.099
212.518
148.282
63.594
-37.3
-147.744
-261.892
-374.445
-479.653
-571.552
-644.521
-694.844
-721.879
-727.225
-712.699
-680.611
-633.705
-575.452
-510.975
-444.861
-380.228
-319.489
-264.264
-215.427
-174.216
-141.629
-116.621
-97.843
-83.91
-72.762
-63.379
-55.464
-47.956
-39.654
-30.422
-20.355
-10.157
-1.43
5.216
9.863
12.308
12.475
10.504
6.559
1.353
-3.9
-8.481
-12.044
-14.364
-15.462
-15.293
-13.757
-10.96
-7.15
-2.561
2.608
8.224
14.224
20.492
26.848
33.071
38.953
44.36
49.214
53.479
57.141
60.18
62.599
64.447
65.788
66.697
67.241
67.466
67.425
67.187
66.837
66.476
66.189
66.031
66.04
66.243
66.659
67.305
68.184
69.283
70.587
72.088
73.781
75.666
77.74
79.99
82.398
84.948
87.623
90.412
93.301
96.275
99.319
102.421
105.568
108.751
111.958
115.171
118.372
121.543
124.662
127.713
130.674
133.527
136.25
138.827
141.242
143.479
145.524
147.362
148.98
150.368
151.513
152.408
153.043
153.413
153.51
153.331
152.874
152.137
151.121
149.826
148.255
146.412
144.302
141.932
139.309
136.442
133.34
130.015
126.479
122.745
118.826
114.736
110.491
106.107
101.6
96.986
92.282
87.504
82.668
77.792
72.89
67.981
63.078
58.199
53.358
48.571
43.851
39.212
34.668
30.231
25.913
21.725
17.676
13.777
10.036
6.46
3.055
-0.171
-3.215
-6.072
-8.739
-11.215
-13.499
-15.59
-17.489
-19.198
-20.719
-22.055
-23.211
-24.191
-25.001
-25.646
-26.133
-26.468
-26.66
-26.717
-26.645
-26.454
-26.153
-25.75
-25.254
-24.674
-24.02
-23.299
-22.521
-21.694
-20.826
-19.927
-19.002
-18.061
-17.111
-16.158
-15.208
-14.269
-13.346
-12.444
-11.569
-10.724
-9.914
-9.142
-8.412
-7.726
-7.087
-6.496
-5.956
-5.467
-5.031
-4.647
-4.315
-4.036
-3.81
-3.634
-3.508
-3.432
-3.402
-3.419
-3.48
-3.583
-3.726
-3.907
-4.125
-4.376
-4.658
-4.969
-5.307
-5.669
-6.052
-6.455
-6.873
-7.306
-7.751
-8.205
-8.666
-9.131
-9.599
-10.067
-10.533
-10.995
-11.451
-11.9
-12.339
-12.768
-13.185
-13.588
-13.978
-14.352
-14.71
-15.051
-15.374
-15.68
-15.967
-16.236
-16.487
-16.72
-16.936
-17.136
-17.321
-17.492
-17.65
-17.797
-17.933
-18.06
-18.18
-18.295
-18.407
-18.518
-18.631
-18.747
-18.869
-18.999
-19.138
-19.289
-19.452
-19.63
-19.824
-20.034
-20.263
-20.51
-20.778
-21.067
-21.377
-21.708
-22.06
-22.432
-22.821
-23.227
-23.647
-24.077
-24.515
-24.957
-25.401
-25.844
-26.281
-26.708
-27.122
-27.517
-27.89
-28.233
-28.543
-28.813
-29.037
-29.212
-29.334
-29.399
-29.405
-29.347
-29.223
-29.032
-28.771
-28.438
-28.032
-27.552
-26.996
-26.367
-25.667
-24.901
-24.071
-23.186
-22.251
-21.277
-20.271
-19.24
-18.191
-17.131
-16.069
-15.009
-13.958
-12.921
-11.905
-10.921
-9.982
-9.096
-8.276
-7.528
-6.861
-6.285
-5.806
-5.429
-5.15
-4.969
-4.889
-4.92
-5.079
-5.374
-5.803
-6.357
-7.028
-7.804
-8.665
-9.574
-10.473
-11.302
-12.018
-12.608
-13.069
-13.395
-13.571
-13.571
-13.374
-12.998
-12.465
-11.79
-10.981
-10.052
-9.061
-8.132
-7.444
-7.166
-7.42
-8.278
-9.784
-11.991
-14.946
-18.67
-23.116
-28.153
-33.655
-39.559
-45.839
-52.416
-59.098
-65.539
-71.292
-75.955
-79.215
-80.72
-80.038
-76.874
-71.158
-63.148
-53.52
-42.961
-31.893
-20.723
-9.995
0.049
9.624
19.615
31.733
47.417
67.275
91.541
120.373
153.418
189.144
224.282
253.85
273.136
278.72
267.939
238.4
187.922
116.03
25.231
-79.106
-190.724
-304.072
-414.055
-515.419
-602.007
-668.34
-711.51
-731.413
-730.011
-709.612
-672.488
-621.341
-560.356
-494.802
-429.398
-367.603
-310.919
-260.029
-215.739
-178.992
-150.15
-128.056
-110.64
-95.677
-82.109
-69.839
-58.732
-48.189
-37.231
-25.633
-14.183
-4.294
3.121
8.045
10.784
11.581
10.313
6.959
2.048
-3.383
-8.377
-12.409
-15.285
-17.023
-17.564
-16.765
-14.62
-11.291
-7.013
-2.022
3.519
9.537
15.938
22.581
29.284
35.815
41.979
47.661
52.788
57.326
61.264
64.581
67.288
69.435
71.097
72.35
73.262
73.881
74.257
74.46
74.575
74.702
74.918
75.272
75.799
76.521
77.457
78.624
80.022
81.637
83.453
85.461
87.653
90.029
92.583
95.3
98.163
101.154
104.257
107.46
110.748
114.105
117.517
120.968
124.446
127.94
131.435
134.913
138.354
141.738
145.045
148.256
151.348
154.302
157.097
159.716
162.141
164.356
166.348
168.101
169.603
170.842
171.808
172.493
172.889
172.989
172.79
172.289
171.485
170.377
168.968
167.26
165.258
162.968
160.397
157.554
154.45
151.095
147.502
143.686
139.66
135.441
131.046
126.493
121.798
116.982
112.064
107.063
101.997
96.887
91.75
86.607
81.475
76.372
71.316
66.325
61.413
56.598
51.894
47.315
42.874
38.584
34.455
30.498
26.721
23.133
19.74
16.548
13.562
10.784
8.218
5.863
3.72
1.787
0.061
-1.46
-2.782
-3.909
-4.85
-5.61
-6.197
-6.622
-6.892
-7.017
-7.009
-6.876
-6.63
-6.283
-5.844
-5.325
-4.738
-4.092
-3.398
-2.667
-1.908
-1.132
-0.347
0.437
1.214
1.974
2.711
3.418
4.09
4.721
5.306
5.841
6.323
6.749
7.117
7.426
7.674
7.862
7.99
8.058
8.067
8.021
7.919
7.766
7.564
7.315
7.024
6.693
6.325
5.926
5.497
5.044
4.569
4.076
3.568
3.049
2.522
1.989
1.454
0.92
0.389
-0.137
-0.656
-1.164
-1.662
-2.146
-2.616
-3.071
-3.511
-3.933
-4.339
-4.728
-5.099
-5.454
-5.792
-6.114
-6.421
-6.712
-6.99
-7.256
-7.51
-7.753
-7.988
-8.216
-8.437
-8.654
-8.867
-9.077
-9.286
-9.495
-9.705
-9.918
-10.135
-10.356
-10.585
-10.822
-11.067
-11.322
-11.587
-11.862
-12.148
-12.445
-12.752
-13.069
-13.397
-13.736
-14.084
-14.442
-14.809
-15.183
-15.562
-15.944
-16.328
-16.711
-17.089
-17.46
-17.82
-18.169
-18.502
-18.818
-19.112
-19.383
-19.627
-19.839
-20.016
-20.153
-20.246
-20.29
-20.282
-20.221
-20.103
-19.928
-19.694
-19.399
-19.042
-18.624
-18.143
-17.599
-16.993
-16.323
-15.592
-14.804
-13.962
-13.072
-12.139
-11.169
-10.172
-9.155
-8.126
-7.091
-6.055
-5.026
-4.008
-3.007
-2.026
-1.074
-0.157
0.715
1.53
2.279
2.952
3.542
4.043
4.452
4.765
4.985
5.116
5.16
5.114
4.969
4.71
4.332
3.837
3.229
2.521
1.733
0.894
0.054
-0.73
-1.419
-1.985
-2.422
-2.737
-2.929
-2.994
-2.922
-2.694
-2.308
-1.766
-1.055
-0.184
0.811
1.847
2.769
3.406
3.625
3.328
2.46
0.994
-1.095
-3.812
-7.114
-10.936
-15.197
-19.834
-24.837
-30.186
-35.771
-41.352
-46.548
-50.937
-54.151
-55.901
-55.858
-53.618
-49.001
-42.113
-33.365
-23.538
-13.3
-2.922
7.2
16.482
24.942
32.985
41.563
52.53
67.118
85.525
108.065
134.9
164.836
195.707
223.918
244.383
253.152
247.563
224.844
182.614
120.266
39.218
-56.444
-160.541
-267.507
-372.262
-469.099
-551.858
-615.271
-656.387
-675.091
-673.396
-653.628
-618.414
-571.394
-517.563
-462.288
-409.395
-360.855
-317.278
-278.768
-245.304
-216.413
-190.654
-166.018
-141.318
-116.317
-91.412
-67.369
-44.782
-24.089
-5.96
8.804
19.818
27.093
30.939
31.975
30.773
27.803
23.596
18.664
13.449
8.391
3.85
0.056
-2.803
-4.6
-5.274
-4.768
-3.073
-0.253
3.591
8.302
13.707
19.651
25.963
32.477
39.014
45.362
51.34
56.829
61.747
66.057
69.743
72.789
75.204
77.041
78.367
79.258
79.788
80.013
80.004
79.837
79.602
79.397
79.298
79.355
79.61
80.09
80.815
81.806
83.065
84.58
86.34
88.338
90.568
93.03
95.716
98.613
101.702
104.965
108.386
111.95
115.643
119.445
123.339
127.309
131.337
135.412
139.515
143.623
147.713
151.762
155.745
159.637
163.414
167.049
170.519
173.8
176.871
179.711
182.303
184.626
186.665
188.402
189.825
190.922
191.681
192.093
192.15
191.848
191.183
190.153
188.759
187.002
184.886
182.418
179.604
176.454
172.978
169.189
165.102
160.731
156.094
151.209
146.096
140.774
135.266
129.594
123.78
117.847
111.817
105.714
99.56
93.378
87.189
81.017
74.882
68.804
62.805
56.902
51.116
45.462
39.958
34.619
29.458
24.488
19.721
15.168
10.836
6.734
2.868
-0.759
-4.141
-7.278
-10.168
-12.814
-15.216
-17.378
-19.305
-21.002
-22.476
-23.735
-24.786
-25.639
-26.303
-26.789
-27.108
-27.271
-27.289
-27.174
-26.938
-26.594
-26.153
-25.627
-25.028
-24.367
-23.656
-22.905
-22.126
-21.327
-20.519
-19.71
-18.908
-18.122
-17.359
-16.624
-15.924
-15.264
-14.647
-14.077
-13.558
-13.092
-12.679
-12.322
-12.021
-11.776
-11.587
-11.452
-11.37
-11.341
-11.36
-11.427
-11.538
-11.691
-11.883
-12.111
-12.372
-12.662
-12.978
-13.317
-13.677
-14.054
-14.444
-14.846
-15.256
-15.672
-16.092
-16.513
-16.934
-17.353
-17.769
-18.182
-18.591
-18.994
-19.393
-19.787
-20.175
-20.559
-20.938
-21.314
-21.687
-22.058
-22.429
-22.801
-23.175
-23.553
-23.936
-24.325
-24.72
-25.123
-25.533
-25.952
-26.38
-26.817
-27.265
-27.722
-28.19
-28.668
-29.155
-29.65
-30.15
-30.655
-31.162
-31.667
-32.167
-32.66
-33.142
-33.611
-34.063
-34.496
-34.904
-35.284
-35.631
-35.942
-36.211
-36.433
-36.603
-36.717
-36.772
-36.766
-36.697
-36.561
-36.358
-36.086
-35.745
-35.333
-34.85
-34.296
-33.671
-32.977
-32.217
-31.395
-30.517
-29.588
-28.615
-27.608
-26.576
-25.526
-24.466
-23.402
-22.343
-21.295
-20.265
-19.257
-18.278
-17.336
-16.441
-15.605
-14.838
-14.148
-13.543
-13.029
-12.612
-12.299
-12.088
-11.974
-11.956
-12.037
-12.226
-12.539
-12.98
-13.543
-14.221
-15.007
-15.881
-16.819
-17.776
-18.688
-19.503
-20.193
-20.745
-21.162
-21.44
-21.563
-21.509
-21.27
-20.85
-20.26
-19.506
-18.582
-17.519
-16.391
-15.341
-14.562
-14.209
-14.383
-15.147
-16.544
-18.609
-21.377
-24.842
-28.919
-33.509
-38.527
-43.933
-49.727
-55.816
-61.964
-67.8
-72.872
-76.763
-79.172
-79.756
-78.07
-73.911
-67.323
-58.642
-48.662
-38.072
-27.169
-16.401
-6.35
3.015
12.089
21.837
34.104
50.097
70.036
94.273
123.008
155.096
188.343
219.005
241.835
252.721
248.897
227.532
186.09
123.747
41.734
-55.97
-163.016
-273.519
-382.368
-484.014
-572.377
-642.236
-690.248
-715.461
-719.552
-704.951
-673.895
-629.372
-575.671
-517.195
-458.01
-401.673
-349.696
-302.467
-260.701
-224.66
-193.918
-168.157
-146.209
-126.035
-106.977
-89.213
-72.658
-57.522
-43.753
-30.648
-18.479
-8.492
-1.197
3.364
5.339
5.374
3.745
0.219
-4.877
-10.668
-16.409
-21.445
-25.406
-28.338
-30.198
-30.786
-30.048
-28.052
-24.934
-20.938
-16.259
-10.992
-5.235
0.888
7.233
13.59
19.725
25.48
30.756
35.494
39.675
43.277
46.281
48.712
50.639
52.137
53.282
54.134
54.737
55.144
55.43
55.684
56.001
56.452
57.078
57.909
58.967
60.269
61.829
63.643
65.688
67.947
70.409
73.066
75.915
78.945
82.136
85.47
88.925
92.482
96.127
99.841
103.605
107.4
111.21
115.02
118.816
122.581
126.296
129.94
133.491
136.929
140.234
143.383
146.357
149.136
151.702
154.04
156.134
157.973
159.542
160.831
161.832
162.537
162.939
163.033
162.816
162.286
161.444
160.293
158.834
157.073
155.015
152.669
150.044
147.15
143.998
140.602
136.975
133.132
129.09
124.865
120.474
115.937
111.271
106.496
101.631
96.697
91.711
86.694
81.664
76.638
71.635
66.673
61.767
56.934
52.189
47.547
43.021
38.624
34.369
30.265
26.323
22.551
18.957
15.548
12.33
9.306
6.481
3.857
1.435
-0.786
-2.805
-4.624
-6.248
-7.679
-8.922
-9.983
-10.869
-11.585
-12.141
-12.542
-12.8
-12.921
-12.915
-12.792
-12.562
-12.234
-11.817
-11.323
-10.76
-10.138
-9.467
-8.756
-8.013
-7.248
-6.468
-5.682
-4.897
-4.121
-3.359
-2.619
-1.905
-1.222
-0.576
0.031
0.594
1.11
1.578
1.996
2.362
2.675
2.935
3.142
3.297
3.399
3.45
3.452
3.406
3.315
3.179
3.003
2.788
2.538
2.254
1.941
1.601
1.237
0.852
0.45
0.034
-0.393
-0.828
-1.268
-1.709
-2.15
-2.587
-3.018
-3.441
-3.853
-4.253
-4.638
-5.007
-5.358
-5.69
-6.001
-6.29
-6.557
-6.8
-7.02
-7.216
-7.387
-7.536
-7.661
-7.764
-7.845
-7.905
-7.945
-7.967
-7.971
-7.959
-7.933
-7.896
-7.848
-7.793
-7.733
-7.67
-7.604
-7.539
-7.476
-7.416
-7.361
-7.313
-7.273
-7.242
-7.221
-7.214
-7.219
-7.239
-7.273
-7.322
-7.384
-7.459
-7.547
-7.646
-7.752
-7.864
-7.981
-8.1
-8.22
-8.337
-8.447
-8.548
-8.636
-8.707
-8.756
-8.778
-8.77
-8.726
-8.645
-8.523
-8.358
-8.148
-7.89
-7.582
-7.223
-6.813
-6.349
-5.83
-5.255
-4.626
-3.943
-3.21
-2.431
-1.608
-0.748
0.141
1.051
1.976
2.912
3.851
4.787
5.715
6.628
7.524
8.399
9.246
10.055
10.817
11.523
12.167
12.743
13.243
13.661
13.992
14.234
14.394
14.473
14.467
14.369
14.162
13.839
13.405
12.869
12.231
11.512
10.731
9.93
9.181
8.535
8.019
7.653
7.435
7.368
7.479
7.775
8.255
8.916
9.742
10.719
11.861
13.121
14.407
15.585
16.45
16.839
16.659
15.82
14.268
11.965
8.871
5.026
0.547
-4.471
-9.962
-15.894
-22.24
-28.826
-35.358
-41.461
-46.672
-50.618
-52.902
-53.003
-50.655
-45.837
-38.788
-30.203
-20.758
-10.771
-0.737
8.707
17.582
26.243
35.784
48.217
64.65
85.291
110.464
140.296
173.977
209.728
243.652
270.175
285.378
286.46
270.717
235.899
180.166
103.58
9.893
-94.673
-204.735
-315.185
-420.894
-516.561
-595.749
-653.79
-689.407
-703.396
-697.357
-673.535
-634.201
-582.466
-523.467
-461.722
-400.607
-342.976
-290.09
-242.552
-201.316
-166.825
-138.512
-115.699
-97.001
-80.474
-65.528
-52.079
-39.8
-28.417
-17.339
-6.112
4.67
13.722
20.437
24.748
26.88
27.202
25.598
21.983
16.871
11.229
5.955
1.62
-1.57
-3.646
-4.515
-4.043
-2.227
0.795
4.764
9.428
14.616
20.234
26.207
32.411
38.662
44.734
50.437
55.649
60.309
64.393
67.875
70.734
72.979
74.658
75.854
76.651
77.116
77.298
77.25
77.036
76.745
76.476
76.307
76.283
76.439
76.796
77.373
78.191
79.25
80.535
82.031
83.726
85.615
87.698
89.967
92.406
94.997
97.721
100.562
103.508
106.543
109.652
112.82
116.03
119.27
122.53
125.795
129.045
132.261
135.424
138.513
141.509
144.391
147.137
149.73
152.151
154.384
156.414
158.225
159.806
161.142
162.223
163.04
163.585
163.851
163.832
163.524
162.927
162.039
160.862
159.397
157.649
155.623
153.324
150.762
147.945
144.883
141.587
138.071
134.347
130.432
126.34
122.087
117.691
113.169
108.538
103.818
99.025
94.178
89.295
84.393
79.489
74.601
69.745
64.937
60.192
55.524
50.949
46.479
42.126
37.902
33.818
29.882
26.105
22.492
19.052
15.79
12.71
9.817
7.113
4.599
2.277
0.145
-1.797
-3.551
-5.122
-6.512
-7.726
-8.769
-9.649
-10.371
-10.942
-11.369
-11.662
-11.827
-11.875
-11.812
-11.648
-11.392
-11.052
-10.638
-10.158
-9.621
-9.034
-8.407
-7.746
-7.06
-6.355
-5.639
-4.918
-4.198
-3.485
-2.785
-2.101
-1.439
-0.802
-0.195
0.381
0.922
1.426
1.89
2.315
2.697
3.038
3.335
3.589
3.8
3.969
4.095
4.18
4.225
4.231
4.199
4.13
4.027
3.89
3.722
3.523
3.296
3.043
2.765
2.464
2.142
1.801
1.442
1.068
0.68
0.28
-0.13
-0.55
-0.977
-1.41
-1.848
-2.289
-2.731
-3.174
-3.615
-4.055
-4.491
-4.923
-5.35
-5.771
-6.186
-6.594
-6.996
-7.389
-7.775
-8.153
-8.522
-8.883
-9.236
-9.582
-9.92
-10.251
-10.577
-10.898
-11.213
-11.524
-11.831
-12.134
-12.434
-12.73
-13.023
-13.313
-13.601
-13.888
-14.173
-14.457
-14.739
-15.02
-15.299
-15.575
-15.847
-16.113
-16.372
-16.622
-16.86
-17.087
-17.3
-17.497
-17.676
-17.834
-17.969
-18.078
-18.157
-18.203
-18.211
-18.179
-18.105
-17.986
-17.822
-17.611
-17.351
-17.043
-16.686
-16.279
-15.823
-15.317
-14.761
-14.156
-13.505
-12.811
-12.078
-11.31
-10.513
-9.693
-8.86
-8.019
-7.178
-6.342
-5.518
-4.711
-3.928
-3.172
-2.448
-1.76
-1.117
-0.526
0.004
0.463
0.849
1.155
1.376
1.51
1.554
1.51
1.387
1.184
0.9
0.528
0.053
-0.529
-1.21
-1.987
-2.847
-3.768
-4.721
-5.655
-6.509
-7.246
-7.84
-8.277
-8.563
-8.69
-8.64
-8.412
-7.994
-7.373
-6.555
-5.534
-4.316
-2.965
-1.587
-0.334
0.608
1.104
1.067
0.417
-0.879
-2.853
-5.517
-8.797
-12.62
-16.935
-21.704
-26.928
-32.559
-38.392
-44.107
-49.309
-53.545
-56.463
-57.69
-56.734
-53.373
-47.641
-39.841
-30.738
-21.017
-10.968
-1.057
8.099
16.554
24.752
33.742
45.497
61.299
81.397
106.229
136.097
169.862
205.305
238.521
263.92
277.171
275.303
255.203
214.124
151.035
66.957
-33.981
-145.084
-260.449
-374.708
-482.028
-576.384
-652.004
-704.98
-734.533
-742.146
-729.537
-698.968
-653.133
-595.462
-531.149
-464.837
-399.676
-338.188
-282.069
-232.245
-190.029
-156.421
-130.332
-110.411
-95.272
-82.854
-72.171
-62.958
-54.181
-44.694
-34.407
-23.435
-12.496
-3.216
3.787
8.604
11.053
11.062
8.78
4.346
-1.553
-7.647
-13.159
-17.699
-20.993
-23.051
-23.82
-23.165
-21.164
-18.055
-14.06
-9.393
-4.203
1.47
7.525
13.803
20.115
26.212
31.917
37.139
41.815
45.926
49.45
52.368
54.707
56.534
57.927
58.961
59.695
60.164
60.428
60.559
60.645
60.788
61.059
61.499
62.142
63.008
64.114
65.474
67.083
68.919
70.967
73.214
75.653
78.284
81.095
84.068
87.184
90.424
93.77
97.207
100.719
104.287
107.894
111.525
115.165
118.802
122.421
126.001
129.523
132.966
136.31
139.534
142.618
145.54
148.282
150.826
153.156
155.256
157.114
158.715
160.048
161.104
161.873
162.349
162.525
162.396
161.961
161.218
160.168
158.812
157.154
155.197
152.95
150.419
147.612
144.541
141.217
137.651
133.858
129.853
125.651
121.268
116.723
112.032
107.215
102.291
97.278
92.195
87.061
81.896
76.717
71.543
66.391
61.28
56.224
51.241
46.347
41.555
36.881
32.336
27.933
23.684
19.598
15.684
11.952
8.407
5.057
1.906
-1.042
-3.785
-6.32
-8.648
-10.768
-12.682
-14.393
-15.904
-17.22
-18.346
-19.288
-20.053
-20.649
-21.082
-21.363
-21.5
-21.502
-21.379
-21.14
-20.797
-20.358
-19.834
-19.235
-18.57
-17.85
-17.085
-16.282
-15.452
-14.603
-13.743
-12.88
-12.022
-11.174
-10.344
-9.537
-8.759
-8.014
-7.306
-6.64
-6.017
-5.441
-4.913
-4.435
-4.008
-3.632
-3.307
-3.033
-2.809
-2.634
-2.507
-2.425
-2.387
-2.391
-2.434
-2.514
-2.628
-2.774
-2.948
-3.148
-3.371
-3.614
-3.875
-4.15
-4.437
-4.734
-5.038
-5.347
-5.658
-5.971
-6.282
-6.59
-6.894
-7.192
-7.484
-7.768
-8.044
-8.311
-8.57
-8.819
-9.059
-9.29
-9.511
-9.724
-9.929
-10.125
-10.314
-10.497
-10.674
-10.847
-11.016
-11.184
-11.352
-11.52
-11.691
-11.865
-12.044
-12.229
-12.421
-12.623
-12.835
-13.059
-13.297
-13.55
-13.819
-14.105
-14.407
-14.727
-15.064
-15.419
-15.792
-16.182
-16.588
-17.012
-17.452
-17.909
-18.38
-18.865
-19.363
-19.87
-20.385
-20.906
-21.428
-21.949
-22.466
-22.975
-23.475
-23.961
-24.43
-24.879
-25.303
-25.699
-26.062
-26.388
-26.672
-26.909
-27.096
-27.23
-27.31
-27.335
-27.301
-27.208
-27.056
-26.843
-26.57
-26.237
-25.842
-25.386
-24.87
-24.299
-23.676
-23.004
-22.289
-21.538
-20.759
-19.96
-19.148
-18.329
-17.509
-16.695
-15.892
-15.105
-14.339
-13.597
-12.887
-12.217
-11.598
-11.038
-10.543
-10.12
-9.772
-9.505
-9.32
-9.217
-9.189
-9.231
-9.346
-9.542
-9.832
-10.224
-10.71
-11.281
-11.931
-12.641
-13.388
-14.128
-14.794
-15.335
-15.722
-15.944
-16.003
-15.898
-15.61
-15.117
-14.411
-13.502
-12.402
-11.118
-9.646
-8.016
-6.31
-4.68
-3.324
-2.406
-2.029
-2.256
-3.139
-4.721
-7.046
-10.117
-13.835
-18.091
-22.804
-27.935
-33.485
-39.359
-45.297
-50.9
-55.706
-59.299
-61.378
-61.605
-59.511
-54.886
-47.786
-38.578
-28.13
-17.19
-6.057
4.817
14.822
24.013
32.817
42.256
54.333
70.376
90.63
115.505
145.207
178.45
212.854
244.423
267.602
278.098
273.024
249.39
204.586
137.887
50.752
-52.369
-164.616
-279.898
-392.884
-497.822
-588.491
-659.313
-706.686
-729.965
-731.246
-712.92
-677.333
-627.351
-567.01
-501.548
-435.893
-373.657
-316.407
-264.885
-219.885
-182.332
-152.65
-129.683
-111.35
-95.431
-80.827
-67.435
-55.148
-43.4
-31.278
-18.624
-6.253
4.399
12.4
17.73
20.689
21.529
20.166
16.608
11.408
5.62
0.204
-4.31
-7.706
-9.992
-11.094
-10.852
-9.251
-6.438
-2.632
1.938
7.114
12.823
18.963
25.383
31.894
38.251
44.253
49.779
54.748
59.124
62.892
66.028
68.539
70.477
71.91
72.916
73.563
73.897
73.974
73.866
73.663
73.473
73.378
73.431
73.67
74.12
74.8
75.729
76.91
78.325
79.959
81.804
83.852
86.104
88.555
91.188
93.987
96.93
100.003
103.191
106.479
109.852
113.293
116.787
120.322
123.887
127.467
131.044
134.598
138.107
141.552
144.912
148.165
151.289
154.265
157.073
159.696
162.117
164.322
166.294
168.021
169.49
170.69
171.612
172.248
172.59
172.633
172.373
171.809
170.939
169.764
168.286
166.508
164.436
162.075
159.434
156.521
153.346
149.921
146.259
142.374
138.281
133.995
129.533
124.913
120.153
115.271
110.286
105.216
100.081
94.898
89.686
84.464
79.248
74.058
68.909
63.818
58.802
53.876
49.053
44.349
39.775
35.344
31.066
26.953
23.011
19.251
15.677
12.297
9.115
6.134
3.356
0.783
-1.586
-3.751
-5.715
-7.481
-9.053
-10.436
-11.636
-12.66
-13.514
-14.208
-14.748
-15.145
-15.407
-15.544
-15.566
-15.482
-15.303
-15.039
-14.699
-14.293
-13.831
-13.322
-12.776
-12.202
-11.606
-10.999
-10.386
-9.776
-9.174
-8.586
-8.017
-7.473
-6.958
-6.474
-6.024
-5.612
-5.238
-4.904
-4.611
-4.359
-4.147
-3.975
-3.841
-3.746
-3.686
-3.661
-3.668
-3.704
-3.769
-3.859
-3.972
-4.105
-4.257
-4.424
-4.604
-4.794
-4.993
-5.199
-5.409
-5.621
-5.835
-6.048
-6.259
-6.467
-6.671
-6.871
-7.066
-7.255
-7.438
-7.615
-7.786
-7.952
-8.113
-8.269
-8.42
-8.568
-8.713
-8.855
-8.995
-9.132
-9.269
-9.404
-9.538
-9.672
-9.807
-9.942
-10.079
-10.218
-10.359
-10.503
-10.65
-10.8
-10.954
-11.111
-11.272
-11.437
-11.606
-11.78
-11.96
-12.145
-12.336
-12.532
-12.733
-12.939
-13.149
-13.363
-13.581
-13.802
-14.026
-14.253
-14.483
-14.716
-14.951
-15.189
-15.427
-15.665
-15.903
-16.138
-16.368
-16.592
-16.807
-17.012
-17.206
-17.387
-17.552
-17.7
-17.828
-17.934
-18.014
-18.065
-18.084
-18.067
-18.011
-17.914
-17.775
-17.593
-17.367
-17.094
-16.776
-16.411
-15.999
-15.54
-15.031
-14.473
-13.867
-13.216
-12.521
-11.787
-11.018
-10.22
-9.399
-8.564
-7.721
-6.874
-6.03
-5.193
-4.368
-3.56
-2.772
-2.007
-1.272
-0.576
0.072
0.662
1.188
1.644
2.023
2.321
2.534
2.662
2.713
2.687
2.584
2.393
2.098
1.692
1.182
0.572
-0.13
-0.908
-1.739
-2.58
-3.366
-4.045
-4.588
-4.986
-5.243
-5.356
-5.31
-5.084
-4.67
-4.078
-3.321
-2.407
-1.33
-0.12
1.145
2.317
3.198
3.628
3.506
2.768
1.367
-0.738
-3.59
-7.188
-11.437
-16.226
-21.47
-27.127
-33.193
-39.572
-46.013
-52.124
-57.449
-61.575
-64.198
-64.977
-63.446
-59.381
-52.818
-44.095
-34.037
-23.371
-12.405
-1.604
8.404
17.638
26.492
35.945
47.961
63.866
83.948
108.675
138.343
171.772
206.705
239.242
263.832
276.16
273.264
252.028
209.742
145.503
60.508
-40.961
-152.157
-267.135
-380.505
-486.413
-578.797
-651.98
-702.22
-728.879
-733.607
-718.274
-685.237
-637.302
-578.003
-512.494
-445.369
-379.748
-318.036
-261.849
-212.056
-169.893
-136.341
-110.37
-90.667
-75.879
-63.956
-53.892
-45.397
-37.418
-28.77
-19.317
-9.126
1.116
9.805
16.336
20.793
22.981
22.842
20.528
16.205
10.595
4.927
-0.06
-4.006
-6.674
-8.084
-8.187
-6.876
-4.255
-0.574
3.931
9.054
14.66
20.683
27.002
33.434
39.75
45.736
51.252
56.219
60.597
64.372
67.522
70.049
72.003
73.45
74.466
75.12
75.459
75.536
75.423
75.206
74.987
74.854
74.862
75.049
75.442
76.059
76.916
78.016
79.344
80.883
82.625
84.562
86.694
89.016
91.514
94.169
96.964
99.88
102.905
106.024
109.221
112.48
115.787
119.131
122.5
125.88
129.254
132.603
135.905
139.141
142.29
145.333
148.247
151.013
153.611
156.026
158.242
160.243
162.014
163.544
164.818
165.829
166.565
167.019
167.185
167.056
166.629
165.903
164.878
163.553
161.931
160.015
157.811
155.326
152.567
149.543
146.264
142.742
138.99
135.022
130.852
126.497
121.974
117.299
112.49
107.566
102.545
97.445
92.285
87.082
81.856
76.623
71.402
66.21
61.063
55.977
50.968
46.052
41.242
36.552
31.994
27.581
23.321
19.227
15.305
11.565
8.012
4.653
1.491
-1.468
-4.224
-6.775
-9.121
-11.262
-13.2
-14.938
-16.48
-17.83
-18.994
-19.977
-20.786
-21.428
-21.911
-22.244
-22.434
-22.49
-22.423
-22.24
-21.952
-21.567
-21.096
-20.548
-19.932
-19.257
-18.533
-17.767
-16.969
-16.147
-15.308
-14.46
-13.61
-12.764
-11.928
-11.109
-10.31
-9.538
-8.795
-8.087
-7.415
-6.783
-6.194
-5.649
-5.149
-4.697
-4.292
-3.935
-3.627
-3.367
-3.156
-2.991
-2.874
-2.802
-2.775
-2.791
-2.849
-2.947
-3.084
-3.257
-3.466
-3.707
-3.98
-4.281
-4.61
-4.964
-5.341
-5.738
-6.155
-6.588
-7.037
-7.498
-7.971
-8.453
-8.942
-9.438
-9.938
-10.442
-10.946
-11.451
-11.955
-12.456
-12.953
-13.444
-13.93
-14.408
-14.878
-15.339
-15.791
-16.234
-16.668
-17.092
-17.507
-17.913
-18.31
-18.7
-19.082
-19.458
-19.828
-20.195
-20.558
-20.921
-21.283
-21.648
-22.016
-22.388
-22.765
-23.148
-23.537
-23.935
-24.341
-24.757
-25.182
-25.618
-26.066
-26.526
-26.997
-27.48
-27.972
-28.474
-28.983
-29.498
-30.015
-30.531
-31.045
-31.552
-32.051
-32.538
-33.008
-33.458
-33.883
-34.278
-34.638
-34.958
-35.231
-35.454
-35.621
-35.73
-35.778
-35.761
-35.678
-35.526
-35.303
-35.008
-34.64
-34.198
-33.678
-33.083
-32.413
-31.671
-30.86
-29.984
-29.048
-28.059
-27.026
-25.957
-24.857
-23.735
-22.597
-21.449
-20.299
-19.154
-18.017
-16.896
-15.798
-14.735
-13.717
-12.754
-11.852
-11.019
-10.26
-9.58
-8.984
-8.469
-8.03
-7.668
-7.387
-7.195
-7.109
-7.136
-7.27
-7.51
-7.845
-8.255
-8.712
-9.166
-9.554
-9.838
-9.997
-10.013
-9.896
-9.636
-9.214
-8.632
-7.88
-6.946
-5.839
-4.552
-3.092
-1.524
0.039
1.443
2.496
3.068
3.072
2.425
1.091
-0.963
-3.753
-7.189
-11.184
-15.683
-20.642
-26.054
-31.863
-37.845
-43.659
-48.913
-53.157
-56.045
-57.218
-56.174
-52.689
-46.807
-38.837
-29.574
-19.732
-9.601
0.351
9.487
17.857
25.878
34.569
45.929
61.252
80.796
105.018
134.203
167.2
201.778
234.031
258.411
270.627
267.721
246.591
204.531
140.571
55.854
-45.383
-156.449
-271.412
-384.871
-490.98
-583.666
-657.203
-707.803
-734.786
-739.752
-724.553
-691.554
-643.555
-584.092
-518.351
-450.961
-385.069
-323.115
-266.736
-216.809
-174.581
-141.049
-115.169
-95.605
-80.983
-69.23
-59.319
-50.954
-43.065
-34.452
-24.976
-14.716
-4.369
4.445
11.109
15.705
18.031
18.022
15.825
11.605
6.089
0.515
-4.378
-8.231
-10.807
-12.126
-12.137
-10.734
-8.019
-4.244
0.358
5.582
11.295
17.432
23.877
30.443
36.906
43.048
48.731
53.875
58.443
62.419
65.781
68.533
70.722
72.415
73.688
74.61
75.227
75.593
75.776
75.865
75.961
76.153
76.493
77.021
77.763
78.736
79.956
81.424
83.124
85.04
87.161
89.478
91.991
94.693
97.57
100.601
103.767
107.05
110.436
113.908
117.449
121.043
124.675
128.331
132.002
135.671
139.32
142.93
146.479
149.947
153.314
156.558
159.658
162.593
165.347
167.9
170.239
172.349
174.214
175.822
177.162
178.224
179
179.481
179.662
179.538
179.107
178.367
177.319
175.966
174.309
172.353
170.104
167.571
164.762
161.686
158.354
154.78
150.976
146.959
142.742
138.343
133.778
129.067
124.226
119.275
114.232
109.116
103.946
98.739
93.514
88.29
83.083
77.912
72.791
67.739
62.77
57.898
53.14
48.506
44.009
39.662
35.473
31.453
27.611
23.952
20.484
17.212
14.139
11.27
8.605
6.146
3.892
1.842
-0.006
-1.655
-3.11
-4.376
-5.457
-6.361
-7.094
-7.665
-8.081
-8.351
-8.484
-8.489
-8.376
-8.156
-7.837
-7.43
-6.944
-6.39
-5.778
-5.116
-4.415
-3.683
-2.93
-2.163
-1.39
-0.62
0.141
0.886
1.609
2.304
2.967
3.593
4.178
4.718
5.211
5.653
6.044
6.382
6.665
6.894
7.069
7.189
7.256
7.271
7.235
7.15
7.018
6.84
6.621
6.362
6.065
5.734
5.372
4.981
4.564
4.124
3.664
3.186
2.693
2.188
1.673
1.15
0.622
0.09
-0.443
-0.975
-1.506
-2.034
-2.557
-3.075
-3.587
-4.093
-4.593
-5.086
-5.572
-6.052
-6.526
-6.994
-7.456
-7.914
-8.369
-8.821
-9.272
-9.724
-10.176
-10.63
-11.087
-11.547
-12.01
-12.476
-12.947
-13.421
-13.9
-14.382
-14.869
-15.359
-15.854
-16.35
-16.848
-17.346
-17.841
-18.331
-18.815
-19.288
-19.747
-20.191
-20.616
-21.02
-21.398
-21.749
-22.067
-22.349
-22.59
-22.787
-22.933
-23.025
-23.06
-23.033
-22.943
-22.789
-22.569
-22.283
-21.928
-21.506
-21.017
-20.46
-19.836
-19.146
-18.392
-17.578
-16.707
-15.785
-14.819
-13.815
-12.78
-11.725
-10.659
-9.59
-8.524
-7.47
-6.433
-5.421
-4.441
-3.5
-2.603
-1.761
-0.984
-0.282
0.334
0.857
1.281
1.603
1.822
1.936
1.945
1.858
1.675
1.394
1.01
0.507
-0.122
-0.871
-1.732
-2.69
-3.715
-4.77
-5.815
-6.795
-7.673
-8.427
-9.046
-9.538
-9.903
-10.134
-10.218
-10.132
-9.853
-9.368
-8.684
-7.812
-6.822
-5.829
-4.965
-4.394
-4.246
-4.599
-5.516
-7.019
-9.106
-11.76
-14.928
-18.554
-22.606
-27.073
-31.932
-37.122
-42.431
-47.53
-52.061
-55.609
-57.837
-58.397
-56.836
-52.961
-46.858
-38.868
-29.719
-20.069
-10.183
-0.495
8.358
16.402
24.031
32.215
42.881
57.27
75.62
98.366
125.79
156.83
189.406
219.822
242.764
254.071
250.877
230.207
189.432
127.587
45.779
-52.052
-159.583
-270.899
-380.781
-483.549
-572.957
-643.587
-691.95
-717.009
-720.402
-704.583
-671.849
-625.28
-569.344
-508.632
-447.381
-389.29
-335.893
-287.567
-245.022
-208.474
-177.433
-151.522
-129.486
-109.228
-90.083
-72.238
-55.613
-40.441
-26.661
-13.566
-1.426
8.523
15.766
20.26
22.165
22.132
20.442
16.868
11.732
5.909
0.159
-4.852
-8.75
-11.573
-13.286
-13.695
-12.748
-10.522
-7.161
-2.912
2.019
7.535
13.535
19.893
26.463
33.035
39.371
45.306
50.741
55.614
59.905
63.592
66.657
69.125
71.066
72.56
73.686
74.506
75.064
75.415
75.634
75.813
76.047
76.406
76.933
77.658
78.602
79.786
81.222
82.906
84.818
86.941
89.263
91.778
94.484
97.369
100.416
103.606
106.918
110.336
113.844
117.427
121.064
124.74
128.436
132.14
135.838
139.512
143.142
146.709
150.19
153.564
156.81
159.906
162.83
165.562
168.084
170.379
172.431
174.224
175.746
176.983
177.925
178.563
178.889
178.895
178.579
177.935
176.963
175.664
174.039
172.092
169.826
167.25
164.37
161.197
157.74
154.013
150.028
145.799
141.343
136.677
131.818
126.784
121.595
116.271
110.831
105.297
99.688
94.025
88.328
82.617
76.911
71.231
65.593
60.017
54.52
49.118
43.828
38.665
33.642
28.774
24.071
19.545
15.207
11.064
7.124
3.394
-0.12
-3.415
-6.487
-9.335
-11.958
-14.356
-16.532
-18.488
-20.227
-21.754
-23.076
-24.198
-25.128
-25.873
-26.442
-26.844
-27.089
-27.186
-27.147
-26.98
-26.698
-26.311
-25.829
-25.264
-24.627
-23.926
-23.174
-22.38
-21.554
-20.704
-19.841
-18.972
-18.106
-17.25
-16.412
-15.598
-14.813
-14.064
-13.355
-12.69
-12.074
-11.509
-10.998
-10.544
-10.147
-9.809
-9.531
-9.312
-9.152
-9.051
-9.007
-9.018
-9.084
-9.202
-9.369
-9.584
-9.844
-10.146
-10.487
-10.865
-11.275
-11.716
-12.184
-12.676
-13.19
-13.722
-14.269
-14.829
-15.399
-15.977
-16.56
-17.146
-17.733
-18.318
-18.899
-19.474
-20.042
-20.602
-21.151
-21.69
-22.217
-22.733
-23.236
-23.726
-24.203
-24.668
-25.119
-25.558
-25.984
-26.399
-26.803
-27.196
-27.581
-27.957
-28.326
-28.689
-29.046
-29.396
-29.742
-30.082
-30.418
-30.749
-31.076
-31.4
-31.719
-32.036
-32.349
-32.659
-32.964
-33.264
-33.557
-33.843
-34.118
-34.38
-34.627
-34.856
-35.066
-35.255
-35.42
-35.557
-35.664
-35.738
-35.775
-35.771
-35.722
-35.624
-35.472
-35.265
-35
-34.677
-34.292
-33.846
-33.337
-32.765
-32.13
-31.431
-30.668
-29.84
-28.95
-27.999
-26.992
-25.932
-24.824
-23.675
-22.491
-21.283
-20.058
-18.822
-17.584
-16.348
-15.123
-13.913
-12.726
-11.565
-10.436
-9.348
-8.309
-7.331
-6.423
-5.59
-4.84
-4.179
-3.611
-3.14
-2.765
-2.48
-2.284
-2.181
-2.178
-2.291
-2.527
-2.879
-3.343
-3.91
-4.557
-5.255
-5.955
-6.593
-7.128
-7.537
-7.803
-7.936
-7.931
-7.772
-7.462
-6.989
-6.344
-5.533
-4.55
-3.397
-2.133
-0.86
0.275
1.081
1.423
1.209
0.355
-1.167
-3.386
-6.306
-9.846
-13.925
-18.479
-23.468
-28.894
-34.715
-40.734
-46.653
-52.092
-56.6
-59.833
-61.39
-60.756
-57.706
-52.254
-44.709
-35.838
-26.29
-16.346
-6.479
2.71
11.237
19.455
28.489
40.383
56.248
76.287
100.805
129.903
162.768
197.593
230.443
255.731
269.548
269.1
251.711
215.181
157.682
79.305
-16.009
-121.886
-233.034
-344.361
-450.846
-547.38
-627.227
-685.404
-720.82
-734.38
-727.384
-701.978
-659.989
-603.947
-539.699
-472.551
-405.903
-342.798
-284.976
-233.227
-189.352
-154.788
-128.187
-108.001
-92.683
-79.864
-68.641
-58.88
-49.444
-39.155
-27.977
-16.026
-4.104
6.052
13.836
19.341
22.395
22.975
21.223
17.265
11.793
6.075
0.901
-3.316
-6.305
-8.08
-8.59
-7.703
-5.486
-2.167
2.032
6.898
12.273
18.107
24.3
30.699
37.113
43.294
49.064
54.324
59.014
63.115
66.608
69.471
71.729
73.446
74.699
75.565
76.105
76.354
76.372
76.233
76.024
75.851
75.787
75.876
76.153
76.64
77.357
78.32
79.529
80.962
82.607
84.455
86.5
88.743
91.177
93.785
96.549
99.451
102.474
105.606
108.83
112.129
115.487
118.89
122.323
125.775
129.231
132.67
136.075
139.424
142.696
145.871
148.928
151.847
154.606
157.188
159.576
161.754
163.706
165.418
166.878
168.075
168.997
169.636
169.986
170.039
169.792
169.241
168.387
167.23
165.771
164.013
161.962
159.624
157.007
154.12
150.972
147.576
143.943
140.089
136.028
131.775
127.346
122.76
118.034
113.187
108.236
103.201
98.1
92.952
87.774
82.586
77.405
72.248
67.132
62.074
57.089
52.192
47.398
42.721
38.172
33.764
29.508
25.412
21.487
17.739
14.176
10.803
7.625
4.645
1.866
-0.711
-3.086
-5.259
-7.233
-9.009
-10.591
-11.984
-13.193
-14.224
-15.083
-15.778
-16.316
-16.705
-16.955
-17.074
-17.071
-16.955
-16.737
-16.426
-16.03
-15.561
-15.027
-14.438
-13.802
-13.128
-12.426
-11.702
-10.966
-10.224
-9.483
-8.75
-8.03
-7.33
-6.654
-6.007
-5.392
-4.814
-4.275
-3.777
-3.324
-2.916
-2.554
-2.239
-1.971
-1.751
-1.576
-1.448
-1.363
-1.322
-1.321
-1.359
-1.435
-1.545
-1.687
-1.858
-2.057
-2.28
-2.525
-2.788
-3.068
-3.36
-3.664
-3.976
-4.295
-4.617
-4.941
-5.265
-5.587
-5.906
-6.219
-6.526
-6.825
-7.115
-7.395
-7.665
-7.924
-8.171
-8.407
-8.632
-8.846
-9.05
-9.245
-9.432
-9.611
-9.783
-9.949
-10.112
-10.272
-10.432
-10.592
-10.754
-10.922
-11.096
-11.278
-11.47
-11.673
-11.888
-12.116
-12.358
-12.615
-12.888
-13.177
-13.482
-13.806
-14.148
-14.508
-14.885
-15.28
-15.689
-16.113
-16.548
-16.993
-17.444
-17.899
-18.354
-18.809
-19.258
-19.7
-20.13
-20.544
-20.937
-21.306
-21.645
-21.949
-22.212
-22.429
-22.598
-22.716
-22.779
-22.785
-22.732
-22.616
-22.438
-22.195
-21.886
-21.509
-21.062
-20.547
-19.966
-19.321
-18.616
-17.854
-17.043
-16.188
-15.3
-14.383
-13.443
-12.488
-11.522
-10.551
-9.582
-8.616
-7.661
-6.723
-5.811
-4.938
-4.113
-3.345
-2.639
-2.003
-1.444
-0.965
-0.567
-0.245
0.004
0.174
0.257
0.236
0.104
-0.134
-0.473
-0.904
-1.414
-1.977
-2.554
-3.077
-3.498
-3.786
-3.934
-3.944
-3.814
-3.528
-3.065
-2.417
-1.592
-0.603
0.543
1.851
3.291
4.787
6.19
7.305
7.974
8.095
7.606
6.46
4.616
2.03
-1.3
-5.281
-9.804
-14.786
-20.186
-26
-32.133
-38.335
-44.216
-49.325
-53.252
-55.695
-56.317
-54.655
-50.484
-43.836
-35.042
-24.917
-14.183
-3.145
7.731
17.819
27.123
36.02
45.467
57.406
73.146
92.97
117.345
146.569
179.49
213.898
245.936
270.099
282.12
279.056
257.804
215.669
151.699
67.021
-34.143
-145.127
-260.076
-373.643
-480.015
-573.16
-647.35
-698.764
-726.702
-732.717
-718.588
-686.609
-639.516
-580.814
-515.695
-448.816
-383.355
-321.757
-265.652
-215.938
-173.872
-140.439
-114.578
-94.913
-80.022
-67.862
-57.444
-48.498
-40.001
-30.761
-20.642
-9.744
1.226
10.63
17.828
22.905
25.67
26.029
24.114
20.05
14.51
8.772
3.618
-0.57
-3.517
-5.243
-5.704
-4.769
-2.52
0.802
4.977
9.792
15.103
20.876
27.014
33.365
39.743
45.896
51.651
56.915
61.625
65.763
69.309
72.242
74.589
76.42
77.81
78.836
79.557
80.004
80.236
80.325
80.357
80.433
80.625
80.972
81.509
82.257
83.231
84.446
85.898
87.565
89.429
91.481
93.713
96.124
98.704
101.435
104.299
107.276
110.35
113.506
116.729
120
123.303
126.624
129.949
133.266
136.559
139.81
143
146.108
149.116
152.003
154.749
157.335
159.742
161.954
163.955
165.73
167.268
168.555
169.581
170.337
170.816
171.01
170.914
170.526
169.842
168.862
167.588
166.021
164.165
162.025
159.606
156.917
153.967
150.765
147.322
143.65
139.763
135.674
131.399
126.954
122.354
117.616
112.759
107.799
102.756
97.645
92.486
87.294
82.088
76.885
71.699
66.548
61.447
56.409
51.45
46.583
41.82
37.174
32.656
28.276
24.044
19.968
16.056
12.316
8.752
5.371
2.176
-0.83
-3.643
-6.264
-8.691
-10.925
-12.968
-14.821
-16.487
-17.971
-19.276
-20.408
-21.373
-22.176
-22.823
-23.323
-23.681
-23.907
-24.006
-23.988
-23.861
-23.632
-23.311
-22.905
-22.423
-21.873
-21.264
-20.602
-19.896
-19.154
-18.383
-17.591
-16.783
-15.967
-15.148
-14.333
-13.527
-12.736
-11.963
-11.213
-10.491
-9.798
-9.14
-8.517
-7.934
-7.39
-6.889
-6.431
-6.017
-5.648
-5.324
-5.045
-4.811
-4.62
-4.473
-4.368
-4.303
-4.278
-4.29
-4.338
-4.419
-4.532
-4.675
-4.844
-5.039
-5.255
-5.492
-5.746
-6.015
-6.298
-6.591
-6.893
-7.202
-7.516
-7.832
-8.149
-8.466
-8.78
-9.09
-9.396
-9.696
-9.99
-10.277
-10.558
-10.832
-11.098
-11.359
-11.614
-11.863
-12.108
-12.349
-12.589
-12.828
-13.068
-13.311
-13.56
-13.815
-14.079
-14.353
-14.638
-14.936
-15.247
-15.574
-15.917
-16.276
-16.653
-17.049
-17.464
-17.898
-18.352
-18.825
-19.315
-19.821
-20.342
-20.875
-21.418
-21.966
-22.518
-23.07
-23.62
-24.163
-24.696
-25.214
-25.713
-26.187
-26.632
-27.041
-27.408
-27.728
-27.997
-28.211
-28.367
-28.461
-28.491
-28.453
-28.346
-28.169
-27.92
-27.597
-27.199
-26.725
-26.179
-25.562
-24.878
-24.132
-23.328
-22.474
-21.579
-20.649
-19.693
-18.715
-17.724
-16.726
-15.727
-14.734
-13.75
-12.784
-11.844
-10.938
-10.08
-9.278
-8.539
-7.871
-7.281
-6.772
-6.349
-6.012
-5.756
-5.581
-5.491
-5.494
-5.606
-5.834
-6.171
-6.615
-7.155
-7.771
-8.434
-9.096
-9.695
-10.193
-10.567
-10.802
-10.906
-10.871
-10.681
-10.335
-9.823
-9.134
-8.272
-7.227
-6.002
-4.655
-3.288
-2.051
-1.125
-0.643
-0.693
-1.355
-2.667
-4.666
-7.361
-10.676
-14.535
-18.88
-23.679
-28.946
-34.637
-40.557
-46.404
-51.792
-56.283
-59.541
-61.174
-60.677
-57.802
-52.547
-45.201
-36.508
-27.142
-17.405
-7.754
1.202
9.498
17.56
26.448
38.134
53.945
74.209
99.386
129.822
164.439
201.05
235.785
263.046
278.45
278.954
261.319
222.638
161.704
79.361
-20.394
-130.904
-246.313
-361.272
-469.842
-565.863
-643.346
-698.124
-729.281
-738.239
-726.633
-696.696
-651.104
-593.275
-528.538
-461.699
-395.982
-333.977
-277.403
-227.154
-184.608
-150.826
-124.669
-104.744
-89.606
-77.114
-66.27
-56.825
-47.723
-37.805
-26.998
-15.419
-3.834
6.071
13.646
18.952
21.809
22.16
20.15
15.924
10.175
4.183
-1.256
-5.736
-8.985
-11.017
-11.779
-11.14
-9.169
-6.097
-2.143
2.482
7.63
13.259
19.269
25.507
31.781
37.841
43.51
48.691
53.324
57.393
60.877
63.755
66.054
67.84
69.19
70.179
70.867
71.288
71.5
71.575
71.6
71.68
71.885
72.257
72.829
73.623
74.655
75.939
77.471
79.229
81.197
83.362
85.718
88.264
90.989
93.874
96.9
100.048
103.299
106.639
110.05
113.514
117.014
120.535
124.062
127.582
131.081
134.538
137.935
141.251
144.465
147.558
150.51
153.299
155.908
158.319
160.515
162.484
164.21
165.681
166.886
167.815
168.46
168.813
168.87
168.624
168.074
167.219
166.059
164.596
162.833
160.775
158.426
155.796
152.893
149.726
146.306
142.645
138.757
134.655
130.356
125.875
121.229
116.434
111.51
106.474
101.346
96.142
90.883
85.585
80.266
74.946
69.64
64.367
59.142
53.982
48.901
43.916
39.039
34.284
29.664
25.19
20.872
16.721
12.745
8.952
5.349
1.941
-1.267
-4.272
-7.07
-9.661
-12.043
-14.219
-16.188
-17.954
-19.521
-20.892
-22.074
-23.07
-23.889
-24.537
-25.022
-25.353
-25.537
-25.584
-25.504
-25.305
-24.998
-24.593
-24.098
-23.525
-22.884
-22.183
-21.432
-20.642
-19.82
-18.976
-18.118
-17.254
-16.392
-15.539
-14.701
-13.885
-13.096
-12.34
-11.62
-10.941
-10.306
-9.718
-9.18
-8.693
-8.259
-7.879
-7.553
-7.282
-7.064
-6.899
-6.786
-6.723
-6.708
-6.74
-6.816
-6.933
-7.089
-7.281
-7.506
-7.761
-8.043
-8.348
-8.673
-9.016
-9.373
-9.741
-10.118
-10.501
-10.886
-11.273
-11.658
-12.04
-12.416
-12.785
-13.144
-13.493
-13.831
-14.156
-14.468
-14.766
-15.05
-15.321
-15.579
-15.823
-16.056
-16.276
-16.486
-16.687
-16.878
-17.063
-17.242
-17.416
-17.589
-17.762
-17.936
-18.114
-18.295
-18.483
-18.676
-18.877
-19.087
-19.306
-19.534
-19.772
-20.021
-20.282
-20.553
-20.836
-21.128
-21.428
-21.736
-22.048
-22.364
-22.678
-22.989
-23.294
-23.59
-23.874
-24.142
-24.391
-24.617
-24.816
-24.984
-25.115
-25.205
-25.248
-25.241
-25.179
-25.059
-24.879
-24.637
-24.331
-23.959
-23.52
-23.013
-22.439
-21.797
-21.085
-20.306
-19.461
-18.555
-17.592
-16.576
-15.513
-14.413
-13.283
-12.134
-10.971
-9.804
-8.639
-7.482
-6.343
-5.225
-4.135
-3.079
-2.068
-1.11
-0.217
0.6
1.334
1.977
2.522
2.966
3.303
3.535
3.668
3.701
3.63
3.447
3.139
2.701
2.14
1.461
0.674
-0.198
-1.124
-2.055
-2.929
-3.706
-4.364
-4.889
-5.286
-5.546
-5.654
-5.603
-5.389
-5.006
-4.463
-3.756
-2.887
-1.91
-0.927
-0.084
0.442
0.521
0.072
-0.976
-2.66
-5.007
-8.037
-11.694
-15.876
-20.502
-25.506
-30.851
-36.522
-42.363
-48.078
-53.308
-57.61
-60.596
-61.979
-61.375
-58.382
-52.879
-44.996
-35.216
-24.406
-13.2
-1.949
8.816
18.668
27.702
36.454
46.19
58.616
74.701
94.777
119.189
147.712
178.857
209.728
235.938
252.84
256.801
244.971
214.618
163.608
91.936
2.449
-99.63
-208.45
-318.431
-424.293
-520.317
-600.128
-659.213
-695.882
-710.528
-704.906
-681.384
-642.331
-591.061
-532.582
-471.273
-410.556
-353.283
-300.693
-253.382
-212.248
-177.67
-149.096
-125.864
-106.622
-89.497
-73.916
-59.805
-46.862
-34.83
-23.16
-11.433
-0.24
9.165
16.196
20.806
23.222
23.815
22.488
19.169
14.378
9.068
4.122
0.096
-2.805
-4.61
-5.226
-4.515
-2.475
0.761
4.939
9.813
15.215
21.049
27.239
33.658
40.124
46.41
52.325
57.749
62.619
66.913
70.604
73.672
76.126
78.014
79.419
80.424
81.098
81.489
81.65
81.648
81.572
81.522
81.576
81.784
82.178
82.781
83.615
84.699
86.034
87.607
89.401
91.406
93.615
96.03
98.642
101.436
104.392
107.49
110.715
114.052
117.486
120.999
124.575
128.197
131.85
135.522
139.197
142.853
146.47
150.025
153.496
156.862
160.099
163.185
166.097
168.817
171.325
173.604
175.638
177.41
178.906
180.114
181.023
181.621
181.902
181.857
181.483
180.776
179.734
178.36
176.653
174.618
172.259
169.584
166.601
163.32
159.752
155.909
151.806
147.458
142.883
138.097
133.12
127.97
122.668
117.235
111.692
106.06
100.359
94.611
88.836
83.056
77.291
71.56
65.882
60.277
54.762
49.355
44.071
38.927
33.935
29.109
24.461
20.003
15.743
11.689
7.85
4.23
0.835
-2.333
-5.271
-7.98
-10.459
-12.71
-14.737
-16.542
-18.132
-19.513
-20.691
-21.673
-22.469
-23.088
-23.539
-23.832
-23.978
-23.988
-23.873
-23.645
-23.314
-22.892
-22.39
-21.819
-21.19
-20.514
-19.801
-19.059
-18.299
-17.529
-16.757
-15.99
-15.236
-14.501
-13.791
-13.11
-12.463
-11.854
-11.285
-10.76
-10.279
-9.845
-9.458
-9.119
-8.827
-8.582
-8.383
-8.228
-8.115
-8.044
-8.011
-8.015
-8.051
-8.119
-8.215
-8.336
-8.48
-8.644
-8.826
-9.025
-9.237
-9.461
-9.696
-9.94
-10.192
-10.45
-10.714
-10.983
-11.257
-11.536
-11.82
-12.109
-12.404
-12.705
-13.013
-13.329
-13.652
-13.983
-14.322
-14.67
-15.027
-15.394
-15.771
-16.158
-16.556
-16.965
-17.384
-17.813
-18.251
-18.696
-19.146
-19.599
-20.053
-20.503
-20.948
-21.384
-21.809
-22.22
-22.612
-22.982
-23.326
-23.639
-23.917
-24.154
-24.346
-24.487
-24.575
-24.606
-24.577
-24.486
-24.331
-24.11
-23.822
-23.466
-23.041
-22.546
-21.981
-21.345
-20.642
-19.874
-19.045
-18.16
-17.225
-16.246
-15.234
-14.197
-13.142
-12.077
-11.009
-9.944
-8.89
-7.853
-6.837
-5.85
-4.901
-4
-3.158
-2.385
-1.688
-1.078
-0.559
-0.137
0.184
0.406
0.533
0.564
0.495
0.319
0.021
-0.403
-0.946
-1.606
-2.372
-3.222
-4.127
-5.038
-5.894
-6.657
-7.303
-7.818
-8.207
-8.462
-8.566
-8.518
-8.313
-7.947
-7.427
-6.75
-5.92
-4.989
-4.054
-3.257
-2.771
-2.723
-3.196
-4.261
-5.956
-8.31
-11.337
-14.979
-19.134
-23.72
-28.669
-33.939
-39.513
-45.238
-50.831
-55.948
-60.165
-63.106
-64.493
-63.947
-61.066
-55.729
-48.054
-38.507
-27.929
-16.933
-5.869
4.742
14.496
23.476
32.176
41.807
53.999
69.667
89.127
112.672
139.999
169.656
198.896
223.58
239.384
242.922
231.484
202.481
153.898
85.734
0.737
-96.183
-199.711
-304.673
-405.966
-497.827
-573.731
-629.22
-662.986
-675.76
-669.224
-645.687
-607.784
-559.627
-507.219
-455.186
-406.062
-361.251
-321.09
-285.582
-254.821
-227.78
-202.126
-176.374
-150.015
-123.103
-96.493
-70.951
-46.894
-25.085
-6.555
8.135
18.802
25.583
29.046
29.742
28.129
24.764
20.21
14.938
9.387
3.967
-1.003
-5.24
-8.522
-10.714
-11.731
-11.52
-10.083
-7.474
-3.805
0.766
6.069
11.946
18.238
24.779
31.389
37.85
43.98
49.653
54.786
59.339
63.288
66.618
69.342
71.512
73.2
74.482
75.427
76.092
76.539
76.846
77.098
77.391
77.798
78.366
79.134
80.125
81.359
82.85
84.598
86.585
88.795
91.217
93.842
96.665
99.678
102.861
106.195
109.659
113.234
116.904
120.653
124.46
128.307
132.177
136.053
139.924
143.77
147.572
151.308
154.955
158.491
161.894
165.143
168.215
171.088
173.743
176.163
178.333
180.236
181.858
183.188
184.213
184.925
185.316
185.379
185.11
184.505
183.563
182.286
180.676
178.736
176.471
173.889
170.999
167.809
164.333
160.581
156.569
152.312
147.826
143.128
138.237
133.172
127.952
122.598
117.131
111.572
105.94
100.258
94.544
88.82
83.104
77.416
71.775
66.197
60.702
55.305
50.021
44.866
39.854
34.996
30.306
25.792
21.466
17.335
13.406
9.685
6.178
2.887
-0.184
-3.034
-5.664
-8.074
-10.266
-12.242
-14.008
-15.568
-16.928
-18.094
-19.073
-19.874
-20.504
-20.972
-21.288
-21.461
-21.502
-21.419
-21.224
-20.926
-20.536
-20.064
-19.52
-18.914
-18.256
-17.554
-16.818
-16.057
-15.279
-14.492
-13.703
-12.918
-12.146
-11.39
-10.657
-9.951
-9.277
-8.638
-8.037
-7.477
-6.96
-6.488
-6.061
-5.681
-5.348
-5.062
-4.822
-4.628
-4.479
-4.373
-4.309
-4.285
-4.299
-4.35
-4.434
-4.55
-4.695
-4.867
-5.064
-5.284
-5.524
-5.782
-6.056
-6.343
-6.642
-6.952
-7.269
-7.594
-7.924
-8.259
-8.598
-8.94
-9.285
-9.634
-9.984
-10.338
-10.693
-11.052
-11.413
-11.779
-12.148
-12.523
-12.905
-13.293
-13.691
-14.098
-14.515
-14.943
-15.383
-15.834
-16.298
-16.775
-17.265
-17.769
-18.286
-18.817
-19.362
-19.919
-20.489
-21.07
-21.659
-22.255
-22.855
-23.457
-24.056
-24.649
-25.234
-25.808
-26.368
-26.909
-27.427
-27.919
-28.38
-28.806
-29.191
-29.529
-29.817
-30.048
-30.219
-30.329
-30.373
-30.349
-30.255
-30.088
-29.847
-29.531
-29.139
-28.668
-28.118
-27.492
-26.791
-26.018
-25.179
-24.279
-23.323
-22.322
-21.283
-20.215
-19.123
-18.016
-16.898
-15.778
-14.662
-13.553
-12.458
-11.385
-10.344
-9.348
-8.406
-7.527
-6.72
-5.991
-5.349
-4.798
-4.339
-3.968
-3.685
-3.494
-3.404
-3.432
-3.584
-3.857
-4.244
-4.737
-5.321
-5.972
-6.647
-7.281
-7.824
-8.244
-8.532
-8.691
-8.719
-8.599
-8.312
-7.85
-7.218
-6.432
-5.493
-4.393
-3.16
-1.863
-0.645
0.302
0.824
0.82
0.222
-1.01
-2.921
-5.554
-8.899
-12.872
-17.373
-22.311
-27.658
-33.43
-39.537
-45.754
-51.719
-56.978
-61.13
-63.877
-64.852
-63.594
-59.866
-53.674
-45.356
-35.697
-25.387
-14.742
-4.199
5.663
14.862
23.81
33.525
45.911
62.284
82.956
108.325
138.673
172.841
208.579
242.047
267.746
281.372
279.991
260.503
220.149
157.952
74.962
-24.75
-134.538
-248.596
-361.685
-467.998
-561.541
-636.626
-689.374
-719.045
-727.17
-715.445
-686.096
-641.79
-585.872
-523.435
-459.033
-395.699
-335.886
-281.233
-232.589
-191.27
-158.309
-132.664
-113.08
-98.242
-86.083
-75.63
-66.626
-58.022
-48.714
-38.615
-27.806
-17.007
-7.815
-0.827
4.013
6.532
6.717
4.731
0.751
-4.499
-9.831
-14.518
-18.189
-20.619
-21.826
-21.755
-20.305
-17.563
-13.762
-9.13
-3.867
1.892
8.07
14.544
21.131
27.602
33.746
39.429
44.567
49.124
53.089
56.438
59.178
61.354
63.027
64.27
65.15
65.714
66.015
66.125
66.127
66.127
66.21
66.432
66.832
67.438
68.267
69.335
70.646
72.184
73.936
75.891
78.044
80.394
82.936
85.656
88.534
91.552
94.691
97.936
101.274
104.685
108.153
111.664
115.203
118.76
122.319
125.861
129.368
132.817
136.187
139.46
142.612
145.623
148.472
151.141
153.612
155.869
157.898
159.683
161.213
162.475
163.459
164.156
164.56
164.663
164.461
163.952
163.133
162.007
160.574
158.837
156.801
154.472
151.859
148.968
145.811
142.399
138.744
134.859
130.759
126.461
121.98
117.333
112.538
107.614
102.579
97.452
92.25
86.994
81.7
76.387
71.073
65.776
60.511
55.296
50.147
45.078
40.106
35.244
30.504
25.9
21.443
17.142
13.009
9.051
5.275
1.69
-1.7
-4.89
-7.877
-10.658
-13.232
-15.597
-17.756
-19.71
-21.46
-23.011
-24.367
-25.532
-26.513
-27.315
-27.946
-28.412
-28.723
-28.885
-28.909
-28.802
-28.574
-28.234
-27.792
-27.258
-26.641
-25.95
-25.196
-24.386
-23.531
-22.639
-21.72
-20.78
-19.829
-18.874
-17.921
-16.978
-16.051
-15.146
-14.268
-13.422
-12.611
-11.841
-11.113
-10.431
-9.798
-9.214
-8.681
-8.2
-7.772
-7.396
-7.071
-6.799
-6.576
-6.403
-6.276
-6.196
-6.159
-6.163
-6.205
-6.284
-6.396
-6.538
-6.708
-6.902
-7.119
-7.354
-7.605
-7.87
-8.145
-8.428
-8.716
-9.006
-9.298
-9.587
-9.873
-10.154
-10.429
-10.696
-10.954
-11.205
-11.445
-11.677
-11.898
-12.11
-12.314
-12.508
-12.695
-12.875
-13.049
-13.219
-13.386
-13.552
-13.719
-13.887
-14.057
-14.232
-14.412
-14.598
-14.793
-14.995
-15.208
-15.431
-15.667
-15.916
-16.178
-16.454
-16.742
-17.044
-17.356
-17.679
-18.009
-18.344
-18.681
-19.019
-19.355
-19.686
-20.008
-20.318
-20.613
-20.888
-21.14
-21.362
-21.551
-21.701
-21.808
-21.869
-21.881
-21.842
-21.749
-21.599
-21.391
-21.123
-20.794
-20.403
-19.946
-19.425
-18.839
-18.192
-17.485
-16.722
-15.908
-15.049
-14.154
-13.231
-12.286
-11.326
-10.358
-9.388
-8.424
-7.471
-6.533
-5.615
-4.726
-3.873
-3.068
-2.321
-1.638
-1.025
-0.493
-0.046
0.309
0.572
0.75
0.841
0.843
0.747
0.537
0.203
-0.246
-0.806
-1.473
-2.227
-3.046
-3.887
-4.678
-5.367
-5.929
-6.342
-6.61
-6.726
-6.666
-6.422
-5.991
-5.375
-4.589
-3.64
-2.52
-1.274
0.004
1.176
2.041
2.441
2.284
1.484
-0.008
-2.234
-5.229
-8.95
-13.289
-18.15
-23.47
-29.225
-35.376
-41.756
-48.062
-53.901
-58.829
-62.489
-64.503
-64.39
-61.85
-56.814
-49.527
-40.66
-30.892
-20.615
-10.229
-0.277
9.059
18.045
27.645
39.672
55.558
75.859
100.78
130.426
164.368
200.995
236.917
267.014
286.542
292.104
281.035
250.966
199.762
126.955
35.194
-69.965
-182.424
-296.802
-408.068
-511.104
-599.676
-668.037
-713.523
-736.311
-737.663
-719.282
-683.002
-630.885
-567.352
-498.273
-427.916
-359.341
-295.244
-237.281
-187.149
-147.013
-116.916
-94.987
-79.768
-69.469
-61.902
-56.096
-50.97
-44.639
-36.441
-26.727
-15.77
-4.686
4.983
12.784
18.428
21.354
21.68
19.71
15.729
10.685
5.709
1.402
-1.825
-3.716
-4.334
-3.652
-1.622
1.579
5.72
10.596
16.01
21.857
28.076
34.546
41.095
47.509
53.58
59.181
64.24
68.723
72.616
75.903
78.589
80.728
82.388
83.646
84.565
85.186
85.561
85.76
85.866
85.978
86.177
86.513
87.022
87.732
88.657
89.815
91.206
92.814
94.624
96.626
98.811
101.181
103.728
106.436
109.289
112.267
115.353
118.535
121.796
125.12
128.491
131.893
135.313
138.741
142.159
145.55
148.893
152.167
155.351
158.426
161.37
164.162
166.78
169.207
171.425
173.42
175.175
176.676
177.911
178.867
179.536
179.909
179.979
179.739
179.187
178.319
177.136
175.639
173.83
171.713
169.292
166.576
163.573
160.292
156.745
152.944
148.903
144.636
140.159
135.49
130.646
125.645
120.507
115.25
109.895
104.462
98.97
93.438
87.886
82.333
76.798
71.3
65.854
60.48
55.193
50.008
44.941
40.006
35.216
30.582
26.115
21.825
17.722
13.812
10.102
6.597
3.303
0.221
-2.646
-5.298
-7.734
-9.957
-11.968
-13.771
-15.37
-16.772
-17.981
-19.004
-19.85
-20.526
-21.04
-21.402
-21.621
-21.707
-21.671
-21.521
-21.268
-20.923
-20.497
-19.998
-19.437
-18.824
-18.169
-17.48
-16.766
-16.036
-15.298
-14.559
-13.827
-13.108
-12.407
-11.731
-11.084
-10.47
-9.894
-9.358
-8.866
-8.419
-8.019
-7.667
-7.365
-7.111
-6.907
-6.75
-6.642
-6.579
-6.561
-6.586
-6.651
-6.754
-6.893
-7.065
-7.267
-7.496
-7.749
-8.023
-8.315
-8.622
-8.941
-9.27
-9.605
-9.944
-10.284
-10.623
-10.959
-11.289
-11.612
-11.926
-12.229
-12.52
-12.799
-13.063
-13.313
-13.548
-13.767
-13.97
-14.157
-14.328
-14.483
-14.623
-14.749
-14.86
-14.96
-15.048
-15.128
-15.199
-15.264
-15.324
-15.382
-15.439
-15.496
-15.556
-15.622
-15.694
-15.775
-15.867
-15.973
-16.093
-16.23
-16.384
-16.556
-16.747
-16.957
-17.187
-17.437
-17.707
-17.998
-18.309
-18.64
-18.99
-19.357
-19.741
-20.138
-20.547
-20.964
-21.385
-21.808
-22.227
-22.641
-23.044
-23.434
-23.806
-24.155
-24.477
-24.766
-25.018
-25.228
-25.389
-25.496
-25.544
-25.531
-25.454
-25.309
-25.096
-24.81
-24.453
-24.021
-23.516
-22.937
-22.281
-21.551
-20.746
-19.872
-18.932
-17.931
-16.874
-15.769
-14.625
-13.451
-12.256
-11.046
-9.83
-8.614
-7.406
-6.213
-5.039
-3.89
-2.777
-1.709
-0.697
0.248
1.116
1.902
2.598
3.198
3.698
4.096
4.4
4.611
4.726
4.735
4.623
4.384
4.023
3.548
2.965
2.293
1.556
0.796
0.081
-0.536
-1.028
-1.383
-1.602
-1.683
-1.606
-1.349
-0.904
-0.277
0.519
1.48
2.611
3.883
5.218
6.465
7.43
7.954
7.934
7.311
6.035
4.061
1.35
-2.099
-6.191
-10.815
-15.891
-21.381
-27.281
-33.496
-39.768
-45.696
-50.828
-54.751
-57.166
-57.739
-55.998
-51.723
-44.962
-36.072
-25.89
-15.143
-4.115
6.754
16.849
26.199
35.2
44.833
57.065
73.187
93.429
118.197
147.698
180.697
214.906
246.405
269.728
280.684
276.411
253.93
210.642
145.657
60.306
-41.03
-151.863
-266.464
-379.678
-485.981
-579.146
-653.189
-704.505
-732.514
-738.401
-723.773
-690.438
-640.509
-578.141
-509.255
-438.493
-369.213
-304.332
-245.67
-194.941
-154.349
-124.074
-102.2
-87.169
-77.11
-69.684
-63.857
-58.565
-51.932
-43.323
-33.157
-21.749
-10.258
-0.288
7.688
13.376
16.219
16.365
14.138
9.837
4.42
-0.977
-5.746
-9.464
-11.864
-12.998
-12.826
-11.289
-8.554
-4.839
-0.344
4.736
10.296
16.264
22.513
28.868
35.108
41.026
46.491
51.429
55.801
59.595
62.789
65.387
67.441
69.015
70.182
71.007
71.531
71.808
71.91
71.923
71.948
72.069
72.337
72.791
73.456
74.348
75.484
76.864
78.473
80.295
82.319
84.538
86.951
89.552
92.325
95.251
98.31
101.484
104.76
108.122
111.552
115.034
118.552
122.094
125.648
129.198
132.726
136.212
139.634
142.973
146.207
149.315
152.276
155.07
157.678
160.084
162.271
164.225
165.932
167.379
168.554
169.448
170.053
170.36
170.364
170.061
169.448
168.525
167.291
165.749
163.901
161.753
159.309
156.579
153.57
150.293
146.758
142.978
138.967
134.739
130.309
125.695
120.914
115.982
110.919
105.743
100.473
95.128
89.726
84.284
78.823
73.359
67.911
62.495
57.129
51.828
46.608
41.484
36.471
31.581
26.827
22.222
17.775
13.496
9.395
5.479
1.756
-1.769
-5.091
-8.206
-11.112
-13.806
-16.289
-18.561
-20.622
-22.477
-24.128
-25.579
-26.835
-27.902
-28.787
-29.496
-30.037
-30.418
-30.648
-30.735
-30.688
-30.518
-30.233
-29.843
-29.357
-28.787
-28.14
-27.427
-26.658
-25.841
-24.985
-24.1
-23.193
-22.273
-21.348
-20.424
-19.509
-18.609
-17.73
-16.878
-16.056
-15.27
-14.524
-13.819
-13.161
-12.55
-11.988
-11.477
-11.018
-10.612
-10.258
-9.956
-9.706
-9.507
-9.357
-9.255
-9.2
-9.189
-9.22
-9.292
-9.402
-9.547
-9.725
-9.933
-10.168
-10.428
-10.71
-11.01
-11.327
-11.658
-11.999
-12.35
-12.706
-13.067
-13.43
-13.793
-14.155
-14.513
-14.865
-15.212
-15.55
-15.88
-16.2
-16.51
-16.809
-17.097
-17.374
-17.64
-17.896
-18.142
-18.377
-18.603
-18.821
-19.03
-19.233
-19.429
-19.621
-19.81
-19.997
-20.184
-20.372
-20.561
-20.752
-20.946
-21.144
-21.347
-21.554
-21.767
-21.986
-22.21
-22.442
-22.681
-22.926
-23.177
-23.433
-23.692
-23.954
-24.215
-24.474
-24.727
-24.972
-25.207
-25.43
-25.638
-25.827
-25.994
-26.136
-26.249
-26.328
-26.37
-26.368
-26.321
-26.225
-26.077
-25.877
-25.623
-25.313
-24.946
-24.521
-24.039
-23.5
-22.902
-22.245
-21.531
-20.761
-19.941
-19.073
-18.161
-17.212
-16.232
-15.232
-14.218
-13.197
-12.177
-11.163
-10.162
-9.181
-8.226
-7.3
-6.408
-5.56
-4.764
-4.03
-3.366
-2.778
-2.271
-1.851
-1.519
-1.278
-1.127
-1.057
-1.068
-1.162
-1.347
-1.639
-2.043
-2.55
-3.159
-3.857
-4.621
-5.422
-6.208
-6.914
-7.503
-7.949
-8.238
-8.377
-8.355
-8.153
-7.771
-7.198
-6.423
-5.453
-4.284
-2.921
-1.434
0.061
1.408
2.411
2.938
2.905
2.225
0.866
-1.205
-4.003
-7.437
-11.417
-15.89
-20.812
-26.174
-31.92
-37.817
-43.516
-48.617
-52.661
-55.301
-56.179
-54.791
-50.923
-44.631
-36.241
-26.568
-16.335
-5.826
4.494
13.992
22.731
31.137
40.237
52.038
67.819
87.799
112.4
141.864
174.981
209.481
241.428
265.264
276.709
272.84
250.599
207.336
142.188
56.401
-45.72
-157.432
-272.761
-386.29
-492.148
-584.259
-656.985
-706.648
-732.645
-736.662
-720.625
-686.945
-638.5
-578.897
-513.285
-446.231
-380.826
-319.413
-263.563
-214.12
-172.26
-138.913
-113.041
-93.321
-78.416
-66.342
-56.121
-47.477
-39.381
-30.658
-21.172
-11.01
-0.85
7.744
14.188
18.581
20.739
20.598
18.31
14.053
8.547
3.014
-1.82
-5.603
-8.106
-9.347
-9.277
-7.796
-5.01
-1.169
3.491
8.764
14.518
20.688
27.154
33.731
40.193
46.324
51.988
57.103
61.633
65.563
68.871
71.561
73.683
75.306
76.505
77.35
77.889
78.174
78.277
78.284
78.298
78.405
78.66
79.102
79.757
80.642
81.773
83.153
84.764
86.591
88.622
90.851
93.275
95.889
98.676
101.619
104.696
107.891
111.188
114.573
118.026
121.533
125.077
128.645
132.226
135.803
139.359
142.872
146.321
149.685
152.942
156.071
159.049
161.857
164.474
166.883
169.068
171.013
172.704
174.128
175.271
176.125
176.681
176.929
176.866
176.484
175.783
174.761
173.418
171.757
169.78
167.492
164.899
162.01
158.834
155.38
151.661
147.69
143.481
139.05
134.414
129.59
124.596
119.452
114.176
108.789
103.311
97.762
92.16
86.527
80.882
75.244
69.631
64.061
58.553
53.124
47.789
42.565
37.466
32.506
27.698
23.054
18.584
14.299
10.208
6.317
2.634
-0.836
-4.089
-7.121
-9.932
-12.521
-14.887
-17.033
-18.962
-20.677
-22.183
-23.486
-24.593
-25.51
-26.245
-26.807
-27.205
-27.448
-27.547
-27.512
-27.352
-27.079
-26.702
-26.234
-25.683
-25.062
-24.379
-23.645
-22.871
-22.065
-21.236
-20.394
-19.546
-18.701
-17.866
-17.047
-16.252
-15.484
-14.75
-14.054
-13.399
-12.789
-12.226
-11.712
-11.249
-10.837
-10.476
-10.167
-9.909
-9.701
-9.541
-9.429
-9.361
-9.336
-9.352
-9.404
-9.492
-9.612
-9.761
-9.935
-10.133
-10.351
-10.586
-10.835
-11.096
-11.365
-11.64
-11.918
-12.197
-12.475
-12.749
-13.018
-13.281
-13.537
-13.784
-14.023
-14.253
-14.473
-14.685
-14.887
-15.082
-15.268
-15.449
-15.623
-15.794
-15.962
-16.129
-16.298
-16.468
-16.643
-16.823
-17.009
-17.203
-17.405
-17.617
-17.839
-18.073
-18.318
-18.577
-18.849
-19.136
-19.436
-19.749
-20.075
-20.412
-20.757
-21.111
-21.468
-21.828
-22.186
-22.542
-22.891
-23.232
-23.559
-23.869
-24.159
-24.422
-24.654
-24.851
-25.006
-25.115
-25.175
-25.183
-25.137
-25.033
-24.871
-24.647
-24.361
-24.013
-23.599
-23.121
-22.577
-21.968
-21.296
-20.564
-19.776
-18.937
-18.052
-17.129
-16.175
-15.198
-14.206
-13.206
-12.202
-11.202
-10.212
-9.239
-8.288
-7.366
-6.482
-5.645
-4.868
-4.161
-3.532
-2.986
-2.527
-2.158
-1.881
-1.696
-1.598
-1.584
-1.659
-1.83
-2.112
-2.513
-3.032
-3.66
-4.383
-5.173
-5.994
-6.806
-7.556
-8.207
-8.738
-9.137
-9.414
-9.571
-9.601
-9.495
-9.231
-8.786
-8.149
-7.326
-6.33
-5.23
-4.142
-3.198
-2.56
-2.356
-2.667
-3.556
-5.043
-7.127
-9.781
-12.947
-16.565
-20.601
-25.041
-29.862
-34.995
-40.23
-45.237
-49.663
-53.1
-55.213
-55.655
-53.973
-49.975
-43.759
-35.686
-26.499
-16.856
-7.022
2.586
11.348
19.301
26.859
35.003
45.651
60.045
78.403
101.097
128.339
158.988
190.925
220.517
242.576
253.063
249.212
228.118
187.272
125.879
45.191
-50.771
-155.8
-264.268
-371.011
-470.213
-555.568
-621.575
-665.037
-685.691
-685.482
-666.693
-631.941
-584.868
-530.513
-474.408
-420.552
-371.033
-326.533
-287.204
-253.049
-223.629
-197.509
-172.601
-147.649
-122.379
-97.162
-72.771
-49.817
-28.744
-10.241
4.84
16.083
23.48
27.33
28.26
26.854
23.591
19.024
13.69
8.05
2.564
-2.392
-6.58
-9.797
-11.904
-12.831
-12.511
-10.932
-8.15
-4.264
0.57
6.178
12.4
19.06
25.982
32.983
39.839
46.365
52.435
57.96
62.899
67.233
70.94
74.028
76.544
78.551
80.127
81.34
82.248
82.916
83.425
83.86
84.321
84.883
85.596
86.497
87.611
88.957
90.55
92.391
94.465
96.756
99.255
101.954
104.85
107.934
111.189
114.597
118.135
121.786
125.536
129.367
133.262
137.202
141.172
145.155
149.141
153.113
157.048
160.928
164.728
168.427
172.003
175.433
178.694
181.764
184.623
187.253
189.637
191.759
193.604
195.156
196.405
197.339
197.949
198.226
198.164
197.759
197.006
195.906
194.46
192.668
190.535
188.065
185.267
182.148
178.718
174.99
170.974
166.687
162.142
157.358
152.351
147.141
141.747
136.19
130.49
124.668
118.747
112.746
106.689
100.595
94.485
88.381
82.302
76.268
70.298
64.41
58.623
52.953
47.415
42.026
36.799
31.746
26.879
22.209
17.746
13.497
9.469
5.669
2.099
-1.235
-4.334
-7.195
-9.821
-12.212
-14.372
-16.305
-18.015
-19.51
-20.795
-21.879
-22.77
-23.477
-24.01
-24.379
-24.594
-24.667
-24.607
-24.428
-24.139
-23.753
-23.28
-22.733
-22.121
-21.455
-20.746
-20.003
-19.237
-18.455
-17.667
-16.88
-16.103
-15.341
-14.601
-13.888
-13.208
-12.564
-11.96
-11.399
-10.884
-10.415
-9.996
-9.625
-9.304
-9.032
-8.809
-8.634
-8.505
-8.421
-8.38
-8.379
-8.416
-8.489
-8.595
-8.731
-8.896
-9.086
-9.299
-9.534
-9.787
-10.058
-10.344
-10.644
-10.956
-11.279
-11.612
-11.953
-12.304
-12.663
-13.03
-13.405
-13.79
-14.184
-14.588
-15.002
-15.425
-15.858
-16.302
-16.756
-17.222
-17.698
-18.186
-18.686
-19.198
-19.722
-20.257
-20.803
-21.358
-21.921
-22.489
-23.06
-23.631
-24.199
-24.761
-25.314
-25.855
-26.38
-26.887
-27.369
-27.822
-28.242
-28.623
-28.959
-29.245
-29.476
-29.649
-29.759
-29.806
-29.785
-29.695
-29.533
-29.299
-28.991
-28.608
-28.149
-27.613
-27.003
-26.319
-25.567
-24.749
-23.871
-22.94
-21.963
-20.948
-19.906
-18.844
-17.768
-16.687
-15.607
-14.536
-13.483
-12.452
-11.453
-10.495
-9.589
-8.747
-7.981
-7.299
-6.707
-6.21
-5.812
-5.515
-5.319
-5.219
-5.214
-5.309
-5.51
-5.834
-6.288
-6.869
-7.571
-8.377
-9.261
-10.185
-11.11
-11.981
-12.761
-13.43
-13.974
-14.402
-14.715
-14.904
-14.958
-14.853
-14.565
-14.084
-13.411
-12.561
-11.6
-10.645
-9.827
-9.309
-9.221
-9.638
-10.623
-12.196
-14.354
-17.074
-20.303
-23.98
-28.072
-32.567
-37.444
-42.64
-47.94
-53.011
-57.493
-60.97
-63.107
-63.557
-61.87
-57.863
-51.631
-43.532
-34.308
-24.618
-14.72
-5.025
3.855
11.972
19.745
28.161
39.145
53.917
72.677
95.79
123.46
154.555
186.931
216.884
239.155
249.644
245.578
224.123
182.804
120.828
39.452
-57.338
-163.257
-272.444
-379.783
-479.747
-566.28
-634.225
-680.334
-703.718
-706.08
-689.897
-657.456
-611.795
-557.256
-498.228
-438.736
-382.299
-330.371
-283.309
-241.788
-206.011
-175.528
-150.026
-128.364
-108.569
-89.99
-72.785
-56.858
-42.4
-29.352
-17.015
-5.624
3.632
10.279
14.299
15.844
15.543
13.703
10.116
5.138
-0.334
-5.606
-10.074
-13.397
-15.653
-16.807
-16.667
-15.209
-12.526
-8.766
-4.183
1.029
6.787
12.959
19.402
25.942
32.334
38.38
43.958
48.982
53.417
57.249
60.453
63.036
65.047
66.548
67.617
68.324
68.72
68.865
68.83
68.701
68.585
68.56
68.681
68.987
69.503
70.246
71.235
72.472
73.942
75.632
77.53
79.631
81.934
84.432
87.11
89.95
92.932
96.038
99.254
102.565
105.952
109.4
112.893
116.415
119.958
123.503
127.032
130.525
133.96
137.314
140.568
143.699
146.685
149.505
152.139
154.57
156.782
158.76
160.487
161.95
163.139
164.042
164.649
164.955
164.951
164.633
163.999
163.047
161.778
160.195
158.299
156.097
153.595
150.8
147.724
144.375
140.767
136.912
132.826
128.523
124.021
119.337
114.49
109.498
104.382
99.16
93.853
88.481
83.062
77.618
72.166
66.726
61.316
55.954
50.658
45.444
40.329
35.328
30.455
25.723
21.146
16.734
12.499
8.448
4.592
0.936
-2.512
-5.75
-8.771
-11.575
-14.16
-16.526
-18.673
-20.604
-22.322
-23.83
-25.135
-26.241
-27.155
-27.884
-28.437
-28.822
-29.048
-29.124
-29.059
-28.865
-28.552
-28.129
-27.608
-26.998
-26.311
-25.556
-24.744
-23.885
-22.988
-22.063
-21.118
-20.163
-19.204
-18.251
-17.31
-16.388
-15.49
-14.622
-13.789
-12.995
-12.244
-11.539
-10.882
-10.275
-9.72
-9.217
-8.768
-8.372
-8.029
-7.739
-7.499
-7.31
-7.168
-7.072
-7.02
-7.009
-7.037
-7.102
-7.201
-7.331
-7.489
-7.673
-7.88
-8.106
-8.349
-8.607
-8.876
-9.155
-9.442
-9.734
-10.03
-10.328
-10.628
-10.929
-11.229
-11.527
-11.824
-12.119
-12.411
-12.702
-12.99
-13.277
-13.564
-13.851
-14.139
-14.429
-14.721
-15.016
-15.315
-15.617
-15.924
-16.235
-16.552
-16.874
-17.201
-17.536
-17.877
-18.226
-18.58
-18.94
-19.305
-19.672
-20.04
-20.407
-20.77
-21.126
-21.472
-21.808
-22.129
-22.434
-22.717
-22.975
-23.206
-23.404
-23.565
-23.683
-23.755
-23.776
-23.744
-23.656
-23.51
-23.304
-23.036
-22.704
-22.309
-21.849
-21.323
-20.73
-20.069
-19.342
-18.552
-17.701
-16.794
-15.836
-14.833
-13.794
-12.727
-11.638
-10.536
-9.426
-8.314
-7.208
-6.113
-5.033
-3.974
-2.945
-1.953
-1.012
-0.131
0.682
1.419
2.075
2.643
3.118
3.5
3.796
4.007
4.129
4.154
4.065
3.855
3.529
3.095
2.559
1.937
1.254
0.552
-0.103
-0.658
-1.084
-1.37
-1.52
-1.529
-1.381
-1.052
-0.536
0.161
1.024
2.049
3.242
4.574
5.967
7.272
8.293
8.868
8.897
8.317
7.079
5.142
2.464
-0.956
-5.019
-9.615
-14.658
-20.108
-25.965
-32.133
-38.358
-44.242
-49.328
-53.198
-55.549
-56.041
-54.205
-49.822
-42.94
-33.915
-23.6
-12.734
-1.615
9.302
19.41
28.753
37.751
47.419
59.749
76.07
96.63
121.837
151.906
185.569
220.498
252.734
276.706
288.124
284.089
261.588
218.046
152.698
66.868
-35.083
-146.394
-261.153
-374.027
-479.252
-570.876
-643.347
-693.034
-719.366
-723.997
-708.769
-675.995
-628.43
-569.552
-504.459
-437.703
-372.387
-310.926
-254.963
-205.405
-163.524
-130.334
-104.82
-85.661
-71.481
-60.216
-50.833
-43.016
-35.679
-27.602
-18.627
-8.831
1.09
9.526
15.866
20.195
22.311
22.138
19.817
15.513
9.949
4.359
-0.524
-4.348
-6.883
-8.152
-8.108
-6.651
-3.887
-0.074
4.552
9.782
15.484
21.595
27.996
34.506
40.902
46.971
52.576
57.64
62.127
66.02
69.3
71.97
74.079
75.694
76.89
77.737
78.28
78.572
78.682
78.694
78.709
78.812
79.054
79.475
80.1
80.945
82.025
83.343
84.882
86.626
88.565
90.691
93.003
95.494
98.15
100.952
103.881
106.919
110.053
113.267
116.545
119.871
123.23
126.609
129.998
133.382
136.743
140.062
143.318
146.492
149.563
152.512
155.317
157.959
160.421
162.685
164.737
166.563
168.15
169.483
170.554
171.352
171.87
172.1
172.038
171.678
171.019
170.061
168.804
167.25
165.403
163.267
160.849
158.157
155.199
151.986
148.529
144.84
140.933
136.823
132.524
128.054
123.428
118.665
113.782
108.798
103.731
98.598
93.419
88.21
82.99
77.775
72.583
67.43
62.332
57.304
52.361
47.516
42.785
38.177
33.705
29.38
25.211
21.207
17.375
13.723
10.255
6.976
3.891
1.002
-1.689
-4.182
-6.478
-8.577
-10.482
-12.197
-13.724
-15.069
-16.237
-17.235
-18.069
-18.746
-19.273
-19.66
-19.915
-20.046
-20.061
-19.972
-19.785
-19.511
-19.159
-18.738
-18.256
-17.723
-17.146
-16.535
-15.896
-15.238
-14.567
-13.891
-13.216
-12.548
-11.892
-11.253
-10.637
-10.046
-9.484
-8.956
-8.462
-8.005
-7.588
-7.21
-6.874
-6.579
-6.326
-6.113
-5.94
-5.807
-5.711
-5.652
-5.628
-5.636
-5.675
-5.743
-5.837
-5.956
-6.097
-6.257
-6.434
-6.627
-6.832
-7.048
-7.273
-7.505
-7.742
-7.983
-8.226
-8.47
-8.713
-8.955
-9.193
-9.429
-9.66
-9.887
-10.11
-10.328
-10.541
-10.752
-10.96
-11.166
-11.371
-11.576
-11.782
-11.99
-12.202
-12.419
-12.643
-12.874
-13.116
-13.369
-13.636
-13.917
-14.214
-14.527
-14.858
-15.206
-15.573
-15.959
-16.364
-16.788
-17.23
-17.692
-18.174
-18.673
-19.189
-19.721
-20.266
-20.823
-21.388
-21.957
-22.528
-23.097
-23.661
-24.216
-24.758
-25.285
-25.79
-26.271
-26.722
-27.138
-27.515
-27.846
-28.127
-28.352
-28.519
-28.625
-28.667
-28.644
-28.552
-28.391
-28.16
-27.857
-27.483
-27.035
-26.514
-25.921
-25.26
-24.534
-23.747
-22.905
-22.014
-21.084
-20.124
-19.14
-18.14
-17.132
-16.12
-15.113
-14.117
-13.136
-12.176
-11.245
-10.353
-9.512
-8.731
-8.019
-7.382
-6.827
-6.361
-5.986
-5.704
-5.508
-5.396
-5.372
-5.443
-5.626
-5.927
-6.34
-6.858
-7.474
-8.171
-8.924
-9.691
-10.407
-11.018
-11.496
-11.829
-12.02
-12.066
-11.948
-11.642
-11.142
-10.454
-9.59
-8.555
-7.344
-5.984
-4.553
-3.197
-2.112
-1.455
-1.329
-1.794
-2.9
-4.69
-7.206
-10.451
-14.33
-18.735
-23.584
-28.839
-34.501
-40.476
-46.513
-52.222
-57.148
-60.88
-63.117
-63.52
-61.622
-57.203
-50.308
-41.291
-30.994
-20.152
-9.063
1.816
11.869
21.132
30.028
39.569
51.756
67.929
88.354
113.461
143.508
177.263
212.407
244.986
269.404
281.332
277.834
255.842
212.704
147.589
61.781
-40.371
-152.076
-267.367
-380.858
-486.717
-578.91
-651.805
-701.72
-728.061
-732.503
-716.932
-683.713
-635.65
-576.275
-510.739
-443.629
-378.061
-316.443
-260.393
-210.784
-168.861
-135.618
-110.017
-90.723
-76.36
-64.86
-55.199
-47.074
-39.41
-30.99
-21.67
-11.529
-1.266
7.506
14.171
18.814
21.229
21.339
19.288
15.239
9.915
4.547
-0.133
-3.771
-6.138
-7.255
-7.077
-5.502
-2.636
1.266
5.968
11.266
17.025
23.184
29.624
36.164
42.581
48.661
54.27
59.329
63.802
67.676
70.929
73.566
75.638
77.212
78.363
79.161
79.654
79.894
79.952
79.915
79.884
79.944
80.151
80.544
81.148
81.981
83.06
84.386
85.944
87.718
89.699
91.877
94.253
96.82
99.563
102.462
105.499
108.655
111.915
115.264
118.683
122.157
125.669
129.206
132.756
136.303
139.828
143.312
146.731
150.065
153.293
156.394
159.345
162.126
164.718
167.104
169.267
171.193
172.868
174.277
175.41
176.257
176.809
177.059
177.002
176.633
175.95
174.953
173.643
172.023
170.095
167.865
165.34
162.529
159.441
156.087
152.478
148.628
144.552
140.264
135.782
131.122
126.302
121.34
116.256
111.068
105.796
100.459
95.075
89.663
84.242
78.83
73.444
68.102
62.82
57.613
52.498
47.489
42.599
37.842
33.228
28.769
24.475
20.355
16.416
12.666
9.11
5.753
2.598
-0.351
-3.093
-5.628
-7.956
-10.079
-11.999
-13.719
-15.245
-16.58
-17.73
-18.703
-19.506
-20.145
-20.629
-20.966
-21.167
-21.239
-21.192
-21.036
-20.781
-20.436
-20.011
-19.516
-18.961
-18.355
-17.706
-17.024
-16.318
-15.596
-14.865
-14.134
-13.408
-12.696
-12.002
-11.333
-10.694
-10.09
-9.523
-8.999
-8.52
-8.089
-7.707
-7.377
-7.099
-6.874
-6.702
-6.584
-6.518
-6.503
-6.54
-6.625
-6.758
-6.936
-7.157
-7.418
-7.717
-8.052
-8.419
-8.816
-9.24
-9.688
-10.158
-10.646
-11.149
-11.666
-12.193
-12.728
-13.268
-13.811
-14.356
-14.9
-15.441
-15.979
-16.511
-17.036
-17.554
-18.064
-18.564
-19.054
-19.533
-20.002
-20.46
-20.908
-21.345
-21.773
-22.192
-22.604
-23.008
-23.407
-23.8
-24.19
-24.577
-24.963
-25.349
-25.736
-26.126
-26.52
-26.92
-27.327
-27.743
-28.167
-28.601
-29.045
-29.5
-29.965
-30.441
-30.927
-31.424
-31.93
-32.446
-32.972
-33.505
-34.045
-34.59
-35.137
-35.685
-36.23
-36.768
-37.296
-37.811
-38.309
-38.787
-39.241
-39.667
-40.062
-40.421
-40.74
-41.013
-41.238
-41.407
-41.516
-41.561
-41.539
-41.448
-41.285
-41.05
-40.739
-40.352
-39.889
-39.35
-38.733
-38.039
-37.267
-36.42
-35.502
-34.515
-33.466
-32.36
-31.204
-30.007
-28.78
-27.53
-26.264
-24.99
-23.715
-22.446
-21.191
-19.952
-18.738
-17.555
-16.415
-15.329
-14.307
-13.359
-12.492
-11.713
-11.029
-10.444
-9.959
-9.567
-9.269
-9.066
-8.967
-8.99
-9.142
-9.416
-9.806
-10.305
-10.897
-11.557
-12.244
-12.89
-13.443
-13.873
-14.169
-14.333
-14.363
-14.24
-13.943
-13.465
-12.811
-11.996
-11.025
-9.891
-8.624
-7.298
-6.061
-5.108
-4.598
-4.633
-5.275
-6.572
-8.567
-11.301
-14.776
-18.898
-23.554
-28.662
-34.18
-40.105
-46.344
-52.647
-58.623
-63.82
-67.827
-70.341
-71.022
-69.403
-65.258
-58.62
-49.828
-39.704
-28.977
-17.953
-7.095
2.97
12.255
21.154
30.65
42.71
58.664
78.799
103.579
133.3
166.795
201.819
234.464
259.176
271.644
268.905
247.846
205.755
141.682
56.782
-44.685
-155.986
-271.21
-384.976
-491.444
-584.556
-658.571
-709.664
-737.149
-742.622
-727.902
-695.327
-647.671
-588.442
-522.85
-455.566
-389.772
-327.945
-271.748
-222.068
-180.172
-147.074
-121.714
-102.73
-88.709
-77.532
-68.146
-60.241
-52.73
-44.399
-35.102
-24.919
-14.557
-5.658
1.149
5.939
8.5
8.759
6.856
2.944
-2.256
-7.511
-12.086
-15.626
-17.899
-18.93
-18.674
-17.028
-14.098
-10.139
-5.386
-0.045
5.751
11.937
18.398
24.953
31.38
37.469
43.084
48.147
52.622
56.495
59.745
62.376
64.438
65.995
67.124
67.893
68.35
68.547
68.555
68.459
68.36
68.345
68.467
68.766
69.268
69.991
70.951
72.153
73.58
75.218
77.058
79.092
81.321
83.739
86.333
89.083
91.971
94.981
98.097
101.306
104.591
107.935
111.324
114.745
118.188
121.636
125.073
128.477
131.829
135.106
138.29
141.358
144.289
147.063
149.66
152.064
154.259
156.23
157.962
159.441
160.656
161.597
162.254
162.621
162.691
162.459
161.922
161.08
159.933
158.481
156.73
154.681
152.343
149.722
146.827
143.669
140.257
136.605
132.727
128.636
124.35
119.884
115.256
110.484
105.585
100.58
95.486
90.322
85.107
79.859
74.597
69.339
64.102
58.904
53.76
48.687
43.7
38.814
34.043
29.399
24.895
20.54
16.347
12.323
8.476
4.815
1.345
-1.93
-5.005
-7.877
-10.545
-13.009
-15.268
-17.324
-19.179
-20.837
-22.302
-23.578
-24.672
-25.59
-26.339
-26.926
-27.36
-27.649
-27.801
-27.827
-27.735
-27.535
-27.236
-26.848
-26.38
-25.843
-25.245
-24.595
-23.902
-23.176
-22.424
-21.654
-20.874
-20.091
-19.312
-18.543
-17.79
-17.058
-16.351
-15.675
-15.033
-14.428
-13.863
-13.34
-12.861
-12.428
-12.041
-11.701
-11.408
-11.162
-10.961
-10.806
-10.696
-10.627
-10.6
-10.613
-10.662
-10.747
-10.864
-11.012
-11.187
-11.388
-11.612
-11.855
-12.117
-12.394
-12.684
-12.984
-13.292
-13.606
-13.924
-14.244
-14.563
-14.879
-15.192
-15.5
-15.8
-16.093
-16.377
-16.651
-16.914
-17.166
-17.405
-17.632
-17.847
-18.048
-18.236
-18.411
-18.573
-18.723
-18.862
-18.99
-19.108
-19.217
-19.318
-19.413
-19.501
-19.584
-19.665
-19.743
-19.821
-19.9
-19.982
-20.068
-20.161
-20.261
-20.369
-20.487
-20.614
-20.752
-20.902
-21.063
-21.236
-21.421
-21.619
-21.83
-22.054
-22.289
-22.536
-22.792
-23.057
-23.328
-23.602
-23.878
-24.151
-24.42
-24.681
-24.932
-25.17
-25.39
-25.59
-25.766
-25.912
-26.025
-26.099
-26.129
-26.112
-26.043
-25.921
-25.742
-25.506
-25.208
-24.849
-24.426
-23.94
-23.389
-22.772
-22.09
-21.342
-20.532
-19.661
-18.735
-17.757
-16.732
-15.669
-14.575
-13.458
-12.325
-11.181
-10.035
-8.891
-7.758
-6.639
-5.54
-4.466
-3.425
-2.426
-1.48
-0.596
0.222
0.965
1.628
2.208
2.701
3.108
3.436
3.685
3.85
3.926
3.895
3.754
3.507
3.158
2.718
2.21
1.662
1.124
0.658
0.301
0.079
0.004
0.071
0.286
0.667
1.213
1.937
2.851
3.948
5.234
6.705
8.295
9.897
11.359
12.494
13.17
13.298
12.802
11.65
9.814
7.287
4.147
0.47
-3.69
-8.293
-13.338
-18.773
-24.391
-29.872
-34.82
-38.781
-41.405
-42.322
-41.049
-37.372
-31.33
-23.232
-13.839
-3.826
6.521
16.746
26.248
35.083
43.694
53.111
65.266
81.398
101.732
126.679
156.52
190.128
225.306
258.218
283.392
296.595
294.94
275.401
235.294
173.637
91.47
-7.133
-115.584
-228.067
-339.316
-443.611
-535.049
-608.007
-658.694
-686.377
-692.566
-678.995
-647.927
-602.037
-544.68
-480.916
-415.282
-350.853
-290.111
-234.737
-185.627
-144.074
-111.102
-85.676
-66.489
-52.185
-40.669
-30.905
-22.581
-14.618
-5.844
3.853
14.379
25.015
34.154
41.189
46.189
48.949
49.406
47.7
43.998
39.022
33.976
29.577
26.176
23.998
23.028
23.319
24.978
27.906
31.859
36.606
41.949
47.758
53.968
60.461
67.059
73.536
79.687
85.381
90.541
95.131
99.136
102.536
105.335
107.58
109.335
110.671
111.657
112.337
112.765
113.01
113.158
113.31
113.552
113.939
114.509
115.289
116.296
117.548
119.048
120.779
122.729
124.887
127.246
129.807
132.563
135.501
138.601
141.845
145.214
148.695
152.271
155.926
159.642
163.405
167.2
171.016
174.837
178.645
182.42
186.138
189.779
193.322
196.744
200.022
203.136
206.065
208.791
211.298
213.569
215.587
217.34
218.814
219.998
220.883
221.46
221.721
221.661
221.277
220.567
219.53
218.168
216.482
214.477
212.159
209.534
206.613
203.404
199.918
196.168
192.168
187.933
183.48
178.824
173.986
168.982
163.833
158.559
153.18
147.715
142.185
136.61
131.01
125.404
119.811
114.251
108.742
103.301
97.946
92.692
87.557
82.554
77.697
72.999
68.471
64.125
59.969
56.013
52.264
48.729
45.411
42.315
39.443
36.797
34.378
32.183
30.211
28.459
26.921
25.594
24.471
23.545
22.807
22.251
21.865
21.642
21.571
21.642
21.843
22.164
22.595
23.123
23.739
24.43
25.185
25.995
26.849
27.736
28.647
29.573
30.504
31.432
32.35
33.249
34.125
34.969
35.777
36.544
37.266
37.938
38.559
39.126
39.637
40.091
40.488
40.827
41.109
41.335
41.505
41.62
41.684
41.697
41.662
41.581
41.457
41.294
41.093
40.857
40.59
40.294
39.972
39.627
39.259
38.873
38.47
38.051
37.619
37.176
36.724
36.262
35.793
35.318
34.836
34.348
33.853
33.353
32.847
32.334
31.815
31.291
30.761
30.225
29.684
29.138
28.587
28.03
27.469
26.903
26.332
25.758
25.183
24.607
24.032
23.462
22.897
22.342
21.798
21.27
20.759
20.267
19.799
19.357
18.945
18.567
18.227
17.93
17.681
17.483
17.342
17.259
17.238
17.281
17.388
17.561
17.802
18.11
18.487
18.932
19.445
20.026
20.674
21.384
22.152
22.973
23.842
24.752
25.694
26.66
27.64
28.628
29.615
30.595
31.561
32.507
33.425
34.31
35.153
35.947
36.681
37.343
37.923
38.412
38.805
39.097
39.286
39.369
39.346
39.222
38.999
38.673
38.241
37.687
37.003
36.192
35.264
34.233
33.129
31.986
30.845
29.755
28.757
27.871
27.11
26.466
25.931
25.509
25.21
25.058
25.073
25.27
25.644
26.183
26.829
27.476
28.005
28.26
28.112
27.474
26.29
24.541
22.236
19.412
16.112
12.39
8.284
3.803
-1.041
-6.192
-11.47
-16.593
-21.222
-24.962
-27.494
-28.438
-27.346
-24.039
-18.588
-11.358
-3.054
5.749
14.81
23.729
31.951
39.481
46.661
54.554
65.06
79.198
97.113
118.993
144.844
173.865
204.391
232.86
254.205
264.884
262.382
244.306
208.722
154.102
80.714
-7.765
-105.567
-207.833
-309.845
-406.727
-493.281
-563.276
-612.539
-640.51
-648.52
-638.276
-612.129
-572.716
-523.959
-471.831
-420.851
-373.247
-330.194
-291.892
-258.219
-229.252
-204.026
-180.216
-156.369
-132.011
-107.205
-82.861
-59.771
-38.323
-19.213
-3.348
8.817
17.14
21.787
23.367
22.452
19.539
15.199
9.908
4.065
-1.936
-7.734
-13.016
-17.509
-21.035
-23.499
-24.827
-24.984
-23.971
-21.84
-18.733
-14.822
-10.288
-5.293
0.031
5.549
11.092
16.465
21.495
26.066
30.115
33.617
36.548
38.892
40.663
41.911
42.714
43.156
43.305
43.216
42.947
42.567
42.157
41.807
41.582
41.525
41.669
42.034
42.637
43.494
44.603
45.948
47.51
49.277
51.239
53.39
55.719
58.205
60.829
63.569
66.405
69.323
72.302
75.323
78.365
81.41
84.442
87.444
90.398
93.282
96.073
98.749
101.286
103.661
105.853
107.836
109.591
111.096
112.335
113.291
113.949
114.295
114.317
114.004
113.347
112.339
110.974
109.248
107.157
104.701
101.882
98.705
95.173
91.293
87.073
82.525
77.661
72.495
67.039
61.311
55.326
49.102
42.659
36.018
29.197
22.221
15.11
7.888
0.579
-6.795
-14.212
-21.653
-29.097
-36.525
-43.918
-51.257
-58.526
-65.709
-72.79
-79.752
-86.583
-93.268
-99.797
-106.162
-112.355
-118.37
-124.202
-129.849
-135.311
-140.589
-145.682
-150.59
-155.313
-159.852
-164.21
-168.387
-172.383
-176.202
-179.85
-183.332
-186.658
-189.835
-192.868
-195.765
-198.53
-201.166
-203.678
-206.064
-208.319
-210.443
-212.441
-214.32
-216.098
-217.781
-219.368
-220.858
-222.242
-223.502
-224.609
-225.518
-226.166
-226.518
-226.55
-226.25
-225.627
-224.678
-223.392
-221.777
-219.825
-217.534
-214.91
-211.952
-208.668
-205.122
-201.429
-197.746
-194.268
-191.141
-188.467
-186.338
