334.146
322.473
295.647
251.427
189.847
113.429
25.938
-68.054
-162.786
-252.324
-330.469
-391.47
-432.267
-452.273
-452.458
-435.025
-403.036
-360.334
-312.046
-263.195
-216.997
-175.248
-138.544
-106.672
-79.38
-55.859
-34.268
-13.032
8.57
30.719
52.844
74.144
94.128
112.139
127.296
139.102
147.362
152.136
153.893
153.152
150.377
146.152
140.999
135.338
129.591
124.075
119.042
114.739
111.315
108.872
107.497
107.216
108.021
109.877
112.665
116.239
120.447
125.097
130.027
135.073
140.033
144.751
149.1
152.976
156.338
159.167
161.437
163.152
164.345
165.055
165.354
165.313
164.989
164.457
163.796
163.091
162.443
161.932
161.61
161.52
161.69
162.137
162.881
163.924
165.256
166.866
168.744
170.88
173.27
175.904
178.762
181.822
185.056
188.442
191.959
195.585
199.296
203.069
206.881
210.71
214.537
218.34
222.091
225.763
229.324
232.747
236.003
239.064
241.899
244.481
246.785
248.788
250.469
251.808
252.785
253.385
253.592
253.395
252.782
251.747
250.283
248.386
246.055
243.293
240.104
236.493
232.47
228.044
223.229
218.039
212.491
206.603
200.396
193.89
187.111
180.081
172.829
165.38
157.762
150.004
142.134
134.181
126.175
118.142
110.111
102.11
94.164
86.299
78.541
70.912
63.436
56.133
49.024
42.126
35.457
29.031
22.863
16.965
11.346
6.016
0.981
-3.752
-8.181
-12.303
-16.117
-19.626
-22.83
-25.736
-28.348
-30.674
-32.72
-34.498
-36.016
-37.285
-38.318
-39.126
-39.724
-40.123
-40.339
-40.385
-40.275
-40.024
-39.646
-39.155
-38.564
-37.888
-37.139
-36.331
-35.475
-34.585
-33.672
-32.746
-31.819
-30.901
-30.001
-29.128
-28.29
-27.494
-26.745
-26.051
-25.415
-24.842
-24.337
-23.902
-23.539
-23.251
-23.039
-22.904
-22.846
-22.863
-22.955
-23.119
-23.355
-23.658
-24.027
-24.459
-24.95
-25.497
-26.096
-26.744
-27.434
-28.163
-28.924
-29.711
-30.519
-31.34
-32.167
-32.995
-33.816
-34.626
-35.418
-36.186
-36.924
-37.626
-38.285
-38.895
-39.45
-39.943
-40.369
-40.723
-41.001
-41.201
-41.32
-41.356
-41.308
-41.173
-40.952
-40.645
-40.251
-39.77
-39.203
-38.554
-37.826
-37.024
-36.155
-35.227
-34.247
-33.227
-32.177
-31.106
-30.023
-28.937
-27.856
-26.787
-25.74
-24.718
-23.731
-22.786
-21.896
-21.071
-20.323
-19.661
-19.091
-18.623
-18.262
-18.013
-17.876
-17.846
-17.921
-18.104
-18.404
-18.836
-19.404
-20.102
-20.92
-21.85
-22.874
-23.964
-25.074
-26.133
-27.084
-27.894
-28.548
-29.046
-29.383
-29.539
-29.492
-29.237
-28.778
-28.131
-27.301
-26.275
-25.083
-23.799
-22.566
-21.589
-21.033
-21.003
-21.571
-22.784
-24.682
-27.308
-30.647
-34.595
-39.041
-43.881
-49.078
-54.656
-60.515
-66.417
-72.002
-76.773
-80.306
-82.294
-82.333
-79.984
-75.072
-67.632
-58.078
-47.278
-35.89
-24.313
-13.057
-2.44
7.7
17.941
29.542
44.127
62.638
85.437
112.787
144.289
178.353
212.01
240.894
260.521
267.367
258.627
231.591
184.147
116.266
30.729
-67.399
-172.599
-279.641
-383.427
-478.127
-557.194
-616.139
-653.585
-670.353
-668.22
-649.424
-616.507
-573.424
-525.958
-478.638
-433.929
-393.117
-356.489
-323.976
-295.596
-270.399
-246.135
-221.324
-195.479
-168.596
-141.479
-114.98
-89.613
-66.203
-45.863
-29.182
-16.37
-7.386
-1.741
1.044
1.367
-0.201
-3.094
-6.889
-11.199
-15.697
-20.085
-24.01
-27.178
-29.415
-30.607
-30.7
-29.672
-27.514
-24.285
-20.119
-15.18
-9.638
-3.643
2.681
9.197
15.738
22.107
28.129
33.689
38.72
43.194
47.089
50.394
53.121
55.326
57.084
58.473
59.56
60.395
61.036
61.548
62.014
62.522
63.14
63.912
64.872
66.042
67.439
69.08
70.962
73.068
75.38
77.885
80.572
83.438
86.469
89.647
92.949
96.354
99.842
103.397
106.999
110.626
114.259
117.878
121.467
125.01
128.489
131.882
135.166
138.32
141.321
144.148
146.778
149.19
151.364
153.282
154.927
156.286
157.346
158.093
158.52
158.617
158.379
157.802
156.882
155.62
154.015
152.073
149.797
147.196
144.276
141.047
137.522
133.713
129.634
125.302
120.731
115.941
110.95
105.777
100.444
94.971
89.38
83.692
77.93
72.116
66.272
60.42
54.58
48.772
43.016
37.332
31.736
26.246
20.878
15.646
10.564
5.645
0.9
-3.66
-8.027
-12.193
-16.152
-19.898
-23.427
-26.736
-29.823
-32.688
-35.332
-37.755
-39.96
-41.951
-43.732
-45.309
-46.687
-47.873
-48.875
-49.7
-50.358
-50.856
-51.204
-51.411
-51.486
-51.439
-51.28
-51.018
-50.661
-50.22
-49.702
-49.116
-48.47
-47.772
-47.029
-46.249
-45.438
-44.602
-43.748
-42.88
-42.004
-41.123
-40.243
-39.366
-38.495
-37.634
-36.785
-35.95
-35.131
-34.329
-33.547
-32.785
-32.044
-31.325
-30.628
-29.953
-29.301
-28.672
-28.065
-27.482
-26.922
-26.385
-25.873
-25.385
-24.922
-24.483
-24.069
-23.679
-23.313
-22.971
-22.652
-22.357
-22.085
-21.837
-21.612
-21.412
-21.235
-21.08
-20.947
-20.835
-20.742
-20.666
-20.606
-20.558
-20.52
-20.491
-20.469
-20.452
-20.436
-20.419
-20.397
-20.369
-20.329
-20.274
-20.199
-20.1
-19.974
-19.817
-19.629
-19.407
-19.15
-18.856
-18.524
-18.153
-17.743
-17.292
-16.799
-16.264
-15.688
-15.073
-14.422
-13.738
-13.027
-12.294
-11.547
-10.795
-10.043
-9.297
-8.564
-7.849
-7.157
-6.494
-5.861
-5.263
-4.706
-4.197
-3.748
-3.367
-3.06
-2.834
-2.695
-2.647
-2.695
-2.839
-3.068
-3.379
-3.774
-4.258
-4.849
-5.556
-6.371
-7.287
-8.3
-9.389
-10.53
-11.677
-12.756
-13.708
-14.496
-15.103
-15.533
-15.785
-15.844
-15.692
-15.32
-14.731
-13.939
-12.947
-11.745
-10.364
-8.884
-7.457
-6.3
-5.591
-5.447
-5.947
-7.139
-9.062
-11.745
-15.167
-19.234
-23.84
-28.916
-34.45
-40.418
-46.686
-52.992
-58.908
-63.951
-67.737
-69.854
-69.831
-67.371
-62.385
-55.087
-46.104
-36.093
-25.454
-14.596
-4.021
6.119
16.122
26.95
40.305
57.518
79.087
105.139
135.726
170.378
207.477
243.704
274.067
293.927
300.012
289.818
261.107
211.861
141.633
52.837
-49.223
-158.441
-269.514
-377.606
-477.778
-564.194
-631.491
-676.73
-699.73
-702.248
-686.325
-653.969
-607.529
-550.841
-488.961
-426.459
-366.749
-311.42
-261.241
-217.098
-180.045
-150.539
-127.506
-109.001
-92.869
-78.046
-64.447
-51.954
-40.015
-27.751
-14.993
-2.515
8.281
16.481
22.058
25.29
26.428
25.407
22.234
17.439
12.046
6.984
2.776
-0.358
-2.418
-3.335
-2.947
-1.235
1.663
5.543
10.188
15.444
21.239
27.471
33.991
40.616
47.109
53.274
58.995
64.191
68.83
72.898
76.373
79.263
81.615
83.496
84.981
86.136
87.007
87.65
88.137
88.557
89.017
89.599
90.353
91.32
92.522
93.977
95.702
97.699
99.949
102.437
105.15
108.08
111.224
114.573
118.107
121.806
125.643
129.598
133.652
137.784
141.972
146.196
150.434
154.667
158.881
163.054
167.163
171.183
175.088
178.853
182.453
185.864
189.059
192.014
194.709
197.124
199.241
201.043
202.515
203.643
204.416
204.823
204.859
204.515
203.789
202.679
201.185
199.31
197.059
194.438
191.455
188.12
184.447
180.447
176.138
171.535
166.656
161.52
156.15
150.566
144.79
138.848
132.761
126.555
120.255
113.886
107.471
101.036
94.603
88.196
81.837
75.548
69.351
63.263
57.305
51.495
45.848
40.38
35.104
30.034
25.181
20.553
16.159
12.006
8.1
4.443
1.038
-2.113
-5.01
-7.657
-10.054
-12.207
-14.121
-15.802
-17.257
-18.495
-19.524
-20.355
-20.997
-21.462
-21.762
-21.906
-21.909
-21.782
-21.536
-21.185
-20.74
-20.213
-19.616
-18.961
-18.257
-17.516
-16.748
-15.963
-15.168
-14.374
-13.586
-12.813
-12.061
-11.335
-10.641
-9.983
-9.365
-8.79
-8.262
-7.782
-7.352
-6.974
-6.648
-6.374
-6.151
-5.981
-5.86
-5.789
-5.767
-5.79
-5.859
-5.97
-6.123
-6.317
-6.548
-6.815
-7.116
-7.45
-7.815
-8.209
-8.631
-9.079
-9.553
-10.051
-10.574
-11.12
-11.688
-12.278
-12.889
-13.518
-14.167
-14.833
-15.516
-16.214
-16.927
-17.653
-18.392
-19.144
-19.905
-20.675
-21.451
-22.231
-23.012
-23.793
-24.567
-25.333
-26.086
-26.823
-27.54
-28.235
-28.903
-29.539
-30.14
-30.7
-31.216
-31.683
-32.094
-32.446
-32.734
-32.956
-33.11
-33.193
-33.204
-33.14
-33.002
-32.79
-32.502
-32.14
-31.703
-31.191
-30.608
-29.957
-29.244
-28.473
-27.65
-26.783
-25.884
-24.962
-24.024
-23.08
-22.136
-21.202
-20.285
-19.392
-18.529
-17.699
-16.914
-16.181
-15.512
-14.916
-14.4
-13.969
-13.633
-13.396
-13.263
-13.236
-13.306
-13.471
-13.734
-14.102
-14.59
-15.204
-15.934
-16.772
-17.713
-18.736
-19.814
-20.904
-21.928
-22.831
-23.583
-24.161
-24.565
-24.787
-24.8
-24.592
-24.162
-23.511
-22.654
-21.602
-20.344
-18.927
-17.446
-16.041
-14.923
-14.258
-14.143
-14.667
-15.884
-17.83
-20.545
-23.987
-28.035
-32.593
-37.591
-42.999
-48.789
-54.781
-60.671
-66.072
-70.504
-73.593
-74.939
-74.02
-70.576
-64.6
-56.354
-46.562
-35.93
-24.782
-13.619
-3.072
6.909
16.712
27.463
41.214
59.072
81.211
107.911
139.222
174.228
211.042
245.643
272.366
287.294
287.66
270.85
234.758
177.66
99.751
4.949
-100.425
-210.96
-321.555
-427.186
-522.705
-601.763
-659.808
-695.679
-710.219
-705.096
-682.575
-644.869
-595.003
-537.98
-478.175
-418.881
-362.881
-311.35
-264.844
-224.273
-190.054
-161.727
-138.699
-119.628
-102.637
-87.135
-73.029
-60.023
-47.85
-35.905
-23.751
-11.982
-1.875
5.909
11.267
14.378
15.55
14.69
11.742
7.226
2.122
-2.678
-6.617
-9.469
-11.244
-11.855
-11.167
-9.178
-6.031
-1.956
2.825
8.16
13.983
20.209
26.701
33.28
39.714
45.81
51.453
56.567
61.12
65.094
68.474
71.271
73.539
75.352
76.787
77.908
78.761
79.397
79.884
80.308
80.773
81.355
82.105
83.059
84.241
85.67
87.36
89.313
91.509
93.931
96.568
99.409
102.452
105.688
109.097
112.66
116.353
120.156
124.051
128.019
132.039
136.092
140.156
144.216
148.255
152.254
156.191
160.042
163.783
167.39
170.84
174.109
177.172
180.008
182.596
184.917
186.954
188.693
190.117
191.214
191.974
192.386
192.445
192.144
191.479
190.448
189.053
187.295
185.178
182.709
179.893
176.742
173.266
169.476
165.389
161.017
156.379
151.492
146.375
141.049
135.535
129.854
124.029
118.083
112.039
105.92
99.75
93.551
87.346
81.156
75.003
68.908
62.891
56.97
51.165
45.491
39.966
34.605
29.421
24.427
19.633
15.051
10.689
6.554
2.652
-1.012
-4.435
-7.613
-10.548
-13.238
-15.685
-17.893
-19.865
-21.606
-23.122
-24.421
-25.509
-26.396
-27.091
-27.604
-27.944
-28.123
-28.151
-28.041
-27.804
-27.451
-26.994
-26.445
-25.815
-25.115
-24.357
-23.55
-22.706
-21.834
-20.944
-20.043
-19.142
-18.246
-17.365
-16.504
-15.668
-14.865
-14.097
-13.369
-12.685
-12.047
-11.458
-10.918
-10.43
-9.994
-9.61
-9.277
-8.996
-8.763
-8.579
-8.44
-8.345
-8.292
-8.278
-8.3
-8.355
-8.441
-8.554
-8.692
-8.852
-9.031
-9.227
-9.435
-9.655
-9.883
-10.117
-10.356
-10.598
-10.842
-11.087
-11.331
-11.575
-11.818
-12.059
-12.298
-12.537
-12.774
-13.011
-13.248
-13.487
-13.729
-13.975
-14.228
-14.487
-14.754
-15.03
-15.316
-15.614
-15.923
-16.246
-16.582
-16.933
-17.298
-17.68
-18.078
-18.492
-18.922
-19.366
-19.823
-20.291
-20.768
-21.251
-21.738
-22.224
-22.708
-23.187
-23.656
-24.114
-24.554
-24.974
-25.369
-25.733
-26.062
-26.35
-26.592
-26.783
-26.922
-27.004
-27.028
-26.989
-26.887
-26.72
-26.485
-26.183
-25.812
-25.37
-24.858
-24.277
-23.631
-22.923
-22.158
-21.34
-20.477
-19.58
-18.655
-17.71
-16.752
-15.789
-14.826
-13.871
-12.931
-12.008
-11.11
-10.246
-9.425
-8.66
-7.959
-7.331
-6.784
-6.325
-5.958
-5.689
-5.517
-5.436
-5.446
-5.551
-5.756
-6.079
-6.526
-7.092
-7.774
-8.56
-9.43
-10.352
-11.277
-12.138
-12.893
-13.516
-13.985
-14.31
-14.484
-14.492
-14.338
-14.011
-13.499
-12.809
-11.932
-10.869
-9.676
-8.451
-7.341
-6.535
-6.17
-6.342
-7.139
-8.593
-10.731
-13.555
-16.979
-20.916
-25.299
-30.083
-35.27
-40.816
-46.527
-52.106
-57.174
-61.282
-64.091
-65.195
-64.066
-60.478
-54.449
-46.309
-36.866
-26.788
-16.355
-6.039
3.577
12.531
21.196
30.741
43.265
59.911
80.878
106.41
136.478
170.153
205.55
238.71
264.095
277.817
277.11
259.366
222.478
164.811
86.701
-7.839
-112.525
-222.058
-331.355
-435.18
-527.94
-602.96
-655.762
-685.735
-694.369
-683.54
-655.759
-613.841
-561.96
-506.471
-452.211
-401.566
-355.765
-315.005
-279.148
-248.26
-221.314
-195.827
-170.233
-144.021
-117.246
-90.868
-65.732
-42.259
-21.202
-3.549
10.2
19.885
25.673
28.203
28.075
25.812
22.024
17.224
11.837
6.279
0.928
-3.887
-7.879
-10.856
-12.714
-13.371
-12.788
-10.963
-7.947
-3.886
1.038
6.635
12.727
19.171
25.823
32.502
39.001
45.141
50.796
55.899
60.423
64.341
67.635
70.317
72.438
74.078
75.324
76.247
76.907
77.365
77.697
77.987
78.331
78.799
79.438
80.28
81.349
82.664
84.241
86.079
88.163
90.475
93.002
95.735
98.67
101.795
105.09
108.533
112.104
115.782
119.551
123.393
127.287
131.213
135.153
139.091
143.011
146.895
150.721
154.466
158.107
161.621
164.986
168.179
171.177
173.959
176.505
178.798
180.822
182.563
184.005
185.136
185.947
186.429
186.574
186.378
185.835
184.944
183.706
182.123
180.199
177.939
175.349
172.439
169.219
165.7
161.896
157.821
153.491
148.922
144.133
139.143
133.972
128.64
123.168
117.578
111.892
106.131
100.317
94.472
88.616
82.769
76.952
71.185
65.486
59.873
54.362
48.971
43.715
38.608
33.663
28.892
24.306
19.915
15.727
11.749
7.987
4.447
1.131
-1.959
-4.82
-7.454
-9.862
-12.046
-14.009
-15.758
-17.295
-18.629
-19.766
-20.713
-21.48
-22.076
-22.509
-22.789
-22.927
-22.933
-22.818
-22.593
-22.267
-21.852
-21.359
-20.798
-20.179
-19.513
-18.808
-18.075
-17.322
-16.558
-15.79
-15.026
-14.272
-13.536
-12.822
-12.135
-11.48
-10.86
-10.28
-9.741
-9.245
-8.795
-8.391
-8.035
-7.725
-7.462
-7.246
-7.075
-6.949
-6.865
-6.823
-6.819
-6.853
-6.923
-7.024
-7.156
-7.316
-7.5
-7.707
-7.933
-8.177
-8.436
-8.708
-8.991
-9.284
-9.585
-9.894
-10.209
-10.528
-10.853
-11.181
-11.514
-11.851
-12.191
-12.537
-12.887
-13.244
-13.609
-13.981
-14.362
-14.752
-15.152
-15.562
-15.982
-16.414
-16.857
-17.311
-17.777
-18.255
-18.745
-19.248
-19.763
-20.289
-20.824
-21.368
-21.917
-22.47
-23.023
-23.573
-24.118
-24.653
-25.177
-25.686
-26.175
-26.641
-27.079
-27.484
-27.851
-28.176
-28.451
-28.674
-28.839
-28.944
-28.986
-28.964
-28.874
-28.715
-28.486
-28.186
-27.814
-27.37
-26.852
-26.261
-25.601
-24.875
-24.086
-23.241
-22.344
-21.404
-20.432
-19.435
-18.421
-17.398
-16.373
-15.354
-14.348
-13.361
-12.399
-11.469
-10.58
-9.743
-8.969
-8.269
-7.649
-7.118
-6.683
-6.346
-6.113
-5.984
-5.951
-6.015
-6.181
-6.454
-6.852
-7.38
-8.033
-8.805
-9.686
-10.65
-11.667
-12.686
-13.64
-14.489
-15.206
-15.777
-16.208
-16.49
-16.607
-16.558
-16.328
-15.909
-15.301
-14.498
-13.502
-12.376
-11.225
-10.205
-9.503
-9.257
-9.553
-10.469
-12.037
-14.291
-17.234
-20.787
-24.866
-29.406
-34.371
-39.769
-45.548
-51.501
-57.31
-62.572
-66.837
-69.767
-70.976
-69.969
-66.51
-60.61
-52.575
-43.165
-33.058
-22.554
-12.096
-2.265
6.979
16.049
25.963
38.63
55.307
76.256
101.849
132.319
166.516
202.235
235.675
261.391
275.148
274.063
255.093
215.554
154.461
72.803
-25.428
-133.711
-246.382
-358.328
-463.874
-557.171
-632.586
-686.228
-717.317
-727.271
-717.606
-690.381
-648.064
-593.818
-532.668
-469.148
-406.31
-346.675
-291.928
-242.965
-201.199
-167.736
-141.54
-121.349
-105.768
-92.657
-81.08
-70.827
-60.882
-50.164
-38.576
-26.184
-13.749
-2.951
5.548
11.777
15.561
16.872
15.818
12.501
7.562
2.212
-2.728
-6.813
-9.758
-11.555
-12.146
-11.396
-9.341
-6.178
-2.122
2.622
7.9
13.66
19.822
26.25
32.766
39.14
45.183
50.782
55.875
60.437
64.445
67.877
70.743
73.096
75.014
76.577
77.848
78.865
79.681
80.363
80.997
81.687
82.506
83.5
84.7
86.127
87.798
89.731
91.922
94.351
97
99.852
102.899
106.138
109.556
113.133
116.847
120.673
124.592
128.587
132.639
136.726
140.829
144.929
149.01
153.056
157.05
160.969
164.792
168.494
172.054
175.45
178.66
181.66
184.43
186.952
189.208
191.183
192.863
194.235
195.286
196.007
196.391
196.432
196.123
195.463
194.451
193.086
191.373
189.316
186.919
184.191
181.139
177.774
174.108
170.155
165.927
161.441
156.714
151.763
146.607
141.266
135.76
130.11
124.337
118.463
112.51
106.498
100.45
94.386
88.326
82.292
76.301
70.374
64.527
58.778
53.144
47.639
42.28
37.078
32.047
27.198
22.54
18.083
13.836
9.804
5.993
2.408
-0.948
-4.073
-6.966
-9.628
-12.059
-14.263
-16.242
-18.001
-19.546
-20.883
-22.019
-22.961
-23.718
-24.299
-24.714
-24.971
-25.082
-25.056
-24.905
-24.639
-24.269
-23.805
-23.259
-22.64
-21.959
-21.227
-20.452
-19.645
-18.814
-17.968
-17.115
-16.263
-15.419
-14.59
-13.781
-13
-12.249
-11.535
-10.861
-10.231
-9.646
-9.111
-8.625
-8.192
-7.811
-7.483
-7.208
-6.986
-6.816
-6.697
-6.628
-6.608
-6.633
-6.703
-6.816
-6.968
-7.158
-7.384
-7.644
-7.934
-8.255
-8.603
-8.976
-9.374
-9.793
-10.233
-10.692
-11.168
-11.66
-12.168
-12.691
-13.228
-13.777
-14.34
-14.915
-15.501
-16.097
-16.703
-17.318
-17.94
-18.57
-19.205
-19.847
-20.493
-21.144
-21.798
-22.454
-23.11
-23.766
-24.418
-25.065
-25.703
-26.331
-26.944
-27.54
-28.115
-28.666
-29.191
-29.685
-30.145
-30.566
-30.943
-31.273
-31.551
-31.771
-31.93
-32.025
-32.052
-32.01
-31.898
-31.714
-31.457
-31.126
-30.722
-30.245
-29.695
-29.074
-28.381
-27.62
-26.795
-25.912
-24.975
-23.991
-22.967
-21.91
-20.833
-19.742
-18.646
-17.552
-16.468
-15.401
-14.361
-13.354
-12.388
-11.47
-10.61
-9.818
-9.105
-8.481
-7.951
-7.52
-7.19
-6.963
-6.843
-6.828
-6.911
-7.092
-7.371
-7.754
-8.258
-8.893
-9.647
-10.511
-11.461
-12.462
-13.486
-14.497
-15.44
-16.283
-17.001
-17.582
-18.043
-18.388
-18.606
-18.687
-18.587
-18.269
-17.739
-17.006
-16.107
-15.138
-14.187
-13.371
-12.857
-12.76
-13.159
-14.11
-15.593
-17.561
-19.977
-22.789
-25.975
-29.554
-33.508
-37.776
-42.211
-46.549
-50.49
-53.693
-55.793
-56.365
-54.942
-51.311
-45.557
-38.071
-29.553
-20.568
-11.354
-2.284
6.091
13.785
21.197
29.437
40.457
55.322
74.117
96.948
123.753
153.648
184.904
213.932
235.645
246.495
244.024
225.932
190.396
136.008
63.132
-24.517
-121.18
-222.012
-322.32
-417.294
-501.836
-569.838
-617.259
-643.617
-650.269
-638.951
-612.037
-572.159
-523.186
-471.001
-420.012
-372.37
-329.238
-290.808
-256.943
-227.72
-202.199
-178.101
-154.043
-129.602
-104.812
-80.548
-57.564
-36.202
-17.15
-1.299
10.925
19.392
24.289
26.248
25.823
23.501
19.874
15.426
10.587
5.795
1.352
-2.478
-5.45
-7.434
-8.335
-8.075
-6.648
-4.074
-0.412
4.184
9.551
15.526
21.915
28.567
35.319
41.964
48.346
54.332
59.82
64.772
69.169
72.983
76.224
78.928
81.137
82.93
84.382
85.547
86.498
87.308
88.057
88.841
89.733
90.784
92.032
93.501
95.206
97.165
99.378
101.832
104.513
107.41
110.509
113.805
117.287
120.934
124.724
128.632
132.636
136.716
140.852
145.023
149.207
153.383
157.533
161.639
165.682
169.639
173.484
177.193
180.739
184.1
187.252
190.168
192.826
195.205
197.287
199.055
200.493
201.586
202.322
202.69
202.681
202.29
201.511
200.341
198.78
196.829
194.492
191.776
188.688
185.237
181.435
177.294
172.829
168.057
162.994
157.66
152.075
146.259
140.236
134.029
127.661
121.157
114.541
107.839
101.076
94.277
87.464
80.663
73.896
67.186
60.553
54.019
47.603
41.324
35.198
29.242
23.47
17.896
12.533
7.389
2.475
-2.202
-6.636
-10.82
-14.752
-18.43
-21.852
-25.018
-27.929
-30.589
-33.002
-35.17
-37.101
-38.802
-40.278
-41.539
-42.593
-43.45
-44.12
-44.612
-44.939
-45.109
-45.136
-45.028
-44.798
-44.456
-44.013
-43.48
-42.866
-42.182
-41.438
-40.642
-39.804
-38.931
-38.033
-37.115
-36.186
-35.252
-34.319
-33.392
-32.477
-31.579
-30.702
-29.851
-29.029
-28.241
-27.488
-26.775
-26.102
-25.473
-24.888
-24.349
-23.857
-23.413
-23.018
-22.673
-22.378
-22.134
-21.94
-21.796
-21.702
-21.656
-21.659
-21.707
-21.801
-21.939
-22.12
-22.342
-22.603
-22.901
-23.236
-23.603
-24.001
-24.424
-24.87
-25.334
-25.813
-26.3
-26.791
-27.281
-27.766
-28.241
-28.702
-29.142
-29.557
-29.941
-30.288
-30.593
-30.848
-31.05
-31.191
-31.269
-31.28
-31.221
-31.09
-30.885
-30.603
-30.245
-29.808
-29.293
-28.698
-28.026
-27.276
-26.452
-25.559
-24.603
-23.589
-22.526
-21.421
-20.285
-19.128
-17.958
-16.784
-15.615
-14.457
-13.318
-12.208
-11.133
-10.102
-9.125
-8.213
-7.377
-6.631
-5.981
-5.436
-5
-4.675
-4.465
-4.37
-4.385
-4.509
-4.745
-5.098
-5.582
-6.206
-6.965
-7.849
-8.843
-9.916
-11.031
-12.148
-13.213
-14.185
-15.042
-15.77
-16.377
-16.867
-17.235
-17.469
-17.544
-17.439
-17.139
-16.651
-15.983
-15.196
-14.4
-13.714
-13.298
-13.28
-13.744
-14.744
-16.299
-18.398
-21.003
-24.066
-27.533
-31.36
-35.538
-40.056
-44.854
-49.746
-54.44
-58.588
-61.792
-63.734
-64.041
-62.266
-58.241
-52.052
-44.083
-35.068
-25.593
-15.893
-6.354
2.494
10.686
18.585
27.262
38.627
53.68
72.51
95.226
121.723
151.085
181.564
209.577
230.094
239.642
235.826
216.429
179.736
124.457
51.058
-36.712
-133.128
-233.408
-332.975
-427.164
-511.029
-578.638
-626.082
-652.921
-660.488
-650.454
-625.062
-586.794
-539.38
-488.539
-438.569
-391.583
-348.707
-310.139
-275.801
-245.836
-219.369
-194.207
-169
-143.331
-117.293
-91.799
-67.631
-45.166
-25.08
-8.248
4.888
14.186
19.807
22.347
22.367
20.361
16.898
12.454
7.431
2.23
-2.78
-7.274
-10.976
-13.702
-15.354
-15.852
-15.157
-13.264
-10.222
-6.165
-1.267
4.294
10.354
16.779
23.428
30.128
36.677
42.9
48.675
53.938
58.662
62.821
66.398
69.403
71.884
73.919
75.59
76.961
78.088
79.03
79.854
80.643
81.488
82.454
83.587
84.916
86.461
88.241
90.268
92.541
95.041
97.749
100.651
103.735
106.996
110.419
113.985
117.671
121.452
125.309
129.224
133.177
137.146
141.111
145.052
148.952
152.795
156.561
160.229
163.777
167.179
170.415
173.463
176.3
178.903
181.253
183.331
185.12
186.607
187.777
188.618
189.118
189.271
189.069
188.506
187.58
186.289
184.634
182.617
180.244
177.52
174.455
171.056
167.337
163.309
158.989
154.391
149.532
144.431
139.108
133.582
127.876
122.012
116.011
109.897
103.693
97.424
91.112
84.779
78.45
72.145
65.887
59.695
53.59
47.591
41.716
35.981
30.403
24.997
19.776
14.752
9.936
5.338
0.965
-3.175
-7.078
-10.738
-14.154
-17.324
-20.248
-22.927
-25.362
-27.559
-29.52
-31.252
-32.762
-34.056
-35.143
-36.031
-36.731
-37.252
-37.605
-37.801
-37.85
-37.764
-37.555
-37.233
-36.811
-36.299
-35.708
-35.049
-34.333
-33.57
-32.768
-31.938
-31.088
-30.225
-29.357
-28.491
-27.634
-26.791
-25.967
-25.167
-24.395
-23.654
-22.947
-22.277
-21.645
-21.052
-20.499
-19.986
-19.515
-19.083
-18.692
-18.34
-18.026
-17.751
-17.511
-17.307
-17.136
-16.997
-16.889
-16.809
-16.757
-16.731
-16.73
-16.753
-16.799
-16.868
-16.959
-17.07
-17.201
-17.35
-17.518
-17.702
-17.903
-18.12
-18.352
-18.598
-18.859
-19.134
-19.424
-19.725
-20.038
-20.361
-20.692
-21.029
-21.37
-21.712
-22.052
-22.388
-22.719
-23.04
-23.351
-23.647
-23.925
-24.182
-24.413
-24.616
-24.783
-24.912
-24.998
-25.038
-25.031
-24.972
-24.861
-24.695
-24.473
-24.193
-23.854
-23.456
-22.995
-22.473
-21.888
-21.245
-20.545
-19.792
-18.992
-18.15
-17.274
-16.372
-15.452
-14.519
-13.579
-12.638
-11.703
-10.777
-9.864
-8.969
-8.099
-7.264
-6.474
-5.739
-5.067
-4.465
-3.942
-3.504
-3.154
-2.894
-2.718
-2.625
-2.618
-2.705
-2.9
-3.212
-3.636
-4.165
-4.793
-5.503
-6.27
-7.051
-7.779
-8.401
-8.883
-9.213
-9.392
-9.418
-9.281
-8.964
-8.463
-7.785
-6.947
-5.953
-4.8
-3.512
-2.162
-0.889
0.114
0.685
0.713
0.126
-1.128
-3.085
-5.778
-9.195
-13.243
-17.811
-22.804
-28.177
-33.935
-39.991
-46.117
-51.959
-57.071
-61.035
-63.551
-64.24
-62.621
-58.485
-51.853
-43.072
-32.956
-22.166
-10.987
0.128
10.617
20.477
30.024
40.318
53.299
70.028
90.667
115.418
144.261
176.327
209.787
240.817
264.1
275.886
273.563
254.721
217.355
159.886
82.664
-10.469
-113.391
-220.789
-327.823
-429.72
-521.282
-596.33
-650.444
-682.391
-693.339
-685.276
-660.299
-620.521
-569.327
-511.817
-452.741
-395.892
-343.28
-295.311
-252.533
-215.687
-184.76
-159.096
-137.294
-117.134
-97.626
-79.101
-61.666
-45.461
-30.461
-16.062
-2.549
8.739
17.187
22.78
25.672
26.526
25.689
22.909
18.486
13.268
7.946
3.207
-0.528
-3.292
-5.023
-5.52
-4.735
-2.706
0.464
4.531
9.296
14.651
20.47
26.648
33.058
39.5
45.762
51.671
57.107
62.012
66.362
70.131
73.301
75.884
77.931
79.525
80.747
81.663
82.324
82.78
83.101
83.378
83.707
84.159
84.782
85.606
86.652
87.941
89.489
91.296
93.343
95.614
98.094
100.775
103.653
106.719
109.951
113.328
116.828
120.431
124.12
127.878
131.682
135.514
139.353
143.184
146.991
150.756
154.455
158.067
161.567
164.933
168.143
171.172
173.999
176.6
178.959
181.056
182.876
184.404
185.626
186.53
187.107
187.349
187.248
186.801
186.003
184.855
183.357
181.513
179.327
176.805
173.955
170.786
167.31
163.54
159.488
155.171
150.604
145.806
140.794
135.59
130.214
124.687
119.03
113.266
107.418
101.507
95.556
89.587
83.621
77.679
71.78
65.945
60.191
54.537
48.999
43.593
38.333
33.233
28.306
23.562
19.012
14.664
10.526
6.604
2.904
-0.572
-3.82
-6.839
-9.628
-12.188
-14.522
-16.632
-18.523
-20.199
-21.668
-22.935
-24.009
-24.898
-25.611
-26.157
-26.546
-26.788
-26.893
-26.871
-26.734
-26.49
-26.151
-25.727
-25.227
-24.661
-24.039
-23.369
-22.661
-21.922
-21.16
-20.382
-19.596
-18.808
-18.024
-17.249
-16.489
-15.748
-15.031
-14.34
-13.679
-13.05
-12.456
-11.897
-11.375
-10.89
-10.443
-10.034
-9.663
-9.33
-9.033
-8.774
-8.551
-8.363
-8.209
-8.09
-8.003
-7.948
-7.925
-7.933
-7.971
-8.039
-8.136
-8.263
-8.419
-8.604
-8.816
-9.055
-9.32
-9.609
-9.923
-10.26
-10.619
-10.999
-11.4
-11.822
-12.263
-12.722
-13.197
-13.687
-14.189
-14.702
-15.223
-15.748
-16.274
-16.798
-17.318
-17.829
-18.33
-18.816
-19.282
-19.726
-20.141
-20.524
-20.868
-21.169
-21.422
-21.624
-21.77
-21.86
-21.891
-21.86
-21.765
-21.607
-21.383
-21.094
-20.738
-20.313
-19.821
-19.263
-18.644
-17.965
-17.233
-16.451
-15.628
-14.772
-13.891
-12.993
-12.083
-11.168
-10.255
-9.351
-8.46
-7.586
-6.738
-5.921
-5.146
-4.424
-3.765
-3.174
-2.661
-2.23
-1.886
-1.632
-1.468
-1.386
-1.388
-1.476
-1.658
-1.95
-2.359
-2.88
-3.511
-4.24
-5.044
-5.895
-6.739
-7.512
-8.173
-8.697
-9.069
-9.295
-9.371
-9.281
-9.028
-8.602
-7.992
-7.204
-6.228
-5.069
-3.788
-2.492
-1.339
-0.518
-0.17
-0.387
-1.251
-2.799
-5.064
-8.047
-11.667
-15.836
-20.49
-25.592
-31.152
-37.117
-43.283
-49.333
-54.862
-59.42
-62.664
-64.199
-63.52
-60.387
-54.807
-47.088
-37.991
-28.19
-17.978
-7.794
1.783
10.796
19.664
29.415
41.964
58.56
79.451
104.995
135.423
169.591
205.303
238.766
264.532
278.381
277.45
258.707
219.451
158.662
77.274
-20.766
-128.947
-241.625
-353.703
-459.505
-553.157
-628.96
-682.93
-714.212
-724.193
-714.357
-686.761
-643.885
-588.897
-526.892
-462.497
-398.829
-338.495
-283.25
-234.013
-192.224
-159.022
-133.336
-113.871
-99.216
-87.142
-76.65
-67.487
-58.572
-48.803
-38.094
-26.513
-14.832
-4.728
3.163
8.868
12.202
13.159
11.865
8.464
3.653
-1.403
-5.933
-9.523
-11.931
-13.153
-13.128
-11.753
-9.092
-5.357
-0.784
4.424
10.125
16.228
22.631
29.165
35.615
41.791
47.544
52.774
57.446
61.54
65.029
67.919
70.243
72.047
73.412
74.412
75.096
75.526
75.769
75.904
76.034
76.246
76.597
77.127
77.864
78.823
80.023
81.468
83.146
85.045
87.154
89.462
91.969
94.667
97.54
100.57
103.734
107.013
110.39
113.85
117.375
120.948
124.551
128.169
131.791
135.4
138.975
142.496
145.941
149.286
152.51
155.592
158.509
161.238
163.762
166.062
168.122
169.926
171.46
172.71
173.665
174.314
174.649
174.663
174.351
173.708
172.732
171.425
169.788
167.823
165.537
162.934
160.023
156.813
153.315
149.541
145.504
141.219
136.701
131.968
127.038
121.929
116.661
111.253
105.727
100.102
94.4
88.64
82.844
77.03
71.22
65.432
59.685
53.998
48.387
42.871
37.464
32.183
27.041
22.052
17.228
12.579
8.117
3.849
-0.217
-4.073
-7.715
-11.139
-14.341
-17.318
-20.072
-22.601
-24.908
-26.995
-28.865
-30.522
-31.973
-33.223
-34.278
-35.147
-35.838
-36.359
-36.719
-36.927
-36.995
-36.932
-36.748
-36.454
-36.06
-35.577
-35.015
-34.384
-33.694
-32.954
-32.174
-31.363
-30.528
-29.679
-28.822
-27.965
-27.115
-26.276
-25.456
-24.658
-23.888
-23.149
-22.444
-21.777
-21.15
-20.564
-20.022
-19.525
-19.072
-18.665
-18.302
-17.985
-17.71
-17.478
-17.287
-17.135
-17.02
-16.94
-16.893
-16.878
-16.892
-16.933
-17
-17.09
-17.203
-17.337
-17.489
-17.66
-17.846
-18.048
-18.265
-18.495
-18.738
-18.995
-19.264
-19.545
-19.839
-20.144
-20.461
-20.787
-21.124
-21.47
-21.826
-22.19
-22.562
-22.943
-23.332
-23.728
-24.133
-24.543
-24.959
-25.38
-25.802
-26.225
-26.646
-27.063
-27.472
-27.872
-28.259
-28.631
-28.985
-29.318
-29.626
-29.904
-30.149
-30.355
-30.519
-30.636
-30.701
-30.713
-30.67
-30.569
-30.409
-30.19
-29.909
-29.567
-29.163
-28.697
-28.168
-27.577
-26.925
-26.215
-25.45
-24.635
-23.774
-22.874
-21.941
-20.984
-20.012
-19.03
-18.045
-17.063
-16.09
-15.134
-14.199
-13.293
-12.421
-11.591
-10.814
-10.099
-9.457
-8.894
-8.413
-8.018
-7.711
-7.492
-7.359
-7.307
-7.333
-7.44
-7.635
-7.933
-8.34
-8.854
-9.466
-10.16
-10.909
-11.675
-12.418
-13.085
-13.639
-14.059
-14.338
-14.481
-14.491
-14.361
-14.078
-13.619
-12.962
-12.096
-11.025
-9.764
-8.385
-7.014
-5.786
-4.87
-4.4
-4.456
-5.099
-6.352
-8.216
-10.666
-13.649
-17.105
-21.006
-25.342
-30.1
-35.211
-40.456
-45.487
-49.924
-53.338
-55.384
-55.705
-53.845
-49.624
-43.152
-34.821
-25.411
-15.601
-5.647
4.038
12.846
20.853
28.533
36.94
48.071
63.197
82.503
106.348
134.944
167.05
200.381
231.058
253.577
263.706
258.604
235.326
191.383
126.1
40.877
-59.945
-169.677
-282.408
-392.807
-495.148
-583.571
-652.764
-699.373
-723.003
-725.396
-708.513
-674.755
-626.952
-568.61
-504.628
-439.296
-375.512
-315.512
-260.803
-212.21
-170.887
-137.764
-111.914
-92.135
-77.161
-65.067
-54.882
-46.311
-38.327
-29.748
-20.385
-10.278
-0.076
8.687
15.422
20.213
22.872
23.321
21.688
18.125
13.331
8.501
4.35
1.218
-0.679
-1.366
-0.804
1.105
4.255
8.395
13.291
18.744
24.626
30.878
37.391
43.988
50.453
56.579
62.233
67.343
71.876
75.82
79.157
81.895
84.084
85.792
87.098
88.069
88.751
89.197
89.476
89.669
89.877
90.185
90.645
91.295
92.16
93.258
94.603
96.198
98.026
100.07
102.319
104.763
107.4
110.223
113.215
116.355
119.623
122.999
126.467
130.009
133.607
137.241
140.894
144.551
148.198
151.818
155.391
158.894
162.305
165.602
168.763
171.767
174.589
177.21
179.611
181.773
183.681
185.321
186.677
187.738
188.493
188.933
189.051
188.841
188.299
187.422
186.21
184.664
182.788
180.586
178.064
175.23
172.092
168.664
164.955
160.98
156.752
152.289
147.607
142.724
137.658
132.43
127.059
121.566
115.972
110.298
104.565
98.793
93.004
87.215
81.449
75.723
70.055
64.464
58.966
53.577
48.314
43.189
38.216
33.407
28.774
24.326
20.071
16.019
12.174
8.542
5.127
1.933
-1.04
-3.789
-6.317
-8.624
-10.713
-12.588
-14.253
-15.714
-16.977
-18.049
-18.937
-19.651
-20.198
-20.588
-20.83
-20.935
-20.913
-20.774
-20.528
-20.186
-19.758
-19.255
-18.687
-18.063
-17.394
-16.689
-15.957
-15.206
-14.445
-13.681
-12.922
-12.173
-11.442
-10.735
-10.055
-9.407
-8.797
-8.226
-7.697
-7.214
-6.778
-6.39
-6.051
-5.762
-5.522
-5.332
-5.189
-5.094
-5.044
-5.039
-5.075
-5.152
-5.267
-5.417
-5.601
-5.814
-6.055
-6.322
-6.61
-6.918
-7.243
-7.583
-7.936
-8.299
-8.67
-9.049
-9.434
-9.823
-10.215
-10.609
-11.004
-11.4
-11.795
-12.19
-12.585
-12.98
-13.374
-13.77
-14.167
-14.565
-14.965
-15.367
-15.772
-16.179
-16.589
-17.002
-17.42
-17.841
-18.266
-18.697
-19.132
-19.573
-20.017
-20.464
-20.914
-21.364
-21.813
-22.257
-22.695
-23.125
-23.544
-23.951
-24.342
-24.714
-25.065
-25.391
-25.687
-25.952
-26.179
-26.364
-26.504
-26.596
-26.637
-26.626
-26.56
-26.438
-26.257
-26.019
-25.72
-25.362
-24.943
-24.461
-23.919
-23.317
-22.659
-21.949
-21.19
-20.389
-19.55
-18.685
-17.799
-16.899
-15.991
-15.082
-14.176
-13.281
-12.4
-11.539
-10.701
-9.897
-9.132
-8.418
-7.764
-7.174
-6.655
-6.213
-5.85
-5.57
-5.373
-5.25
-5.203
-5.235
-5.352
-5.571
-5.897
-6.325
-6.851
-7.465
-8.145
-8.863
-9.57
-10.205
-10.73
-11.122
-11.368
-11.474
-11.436
-11.236
-10.876
-10.345
-9.634
-8.748
-7.679
-6.434
-5.072
-3.699
-2.462
-1.547
-1.085
-1.162
-1.856
-3.204
-5.242
-7.977
-11.334
-15.232
-19.61
-24.436
-29.72
-35.411
-41.311
-47.112
-52.426
-56.822
-59.972
-61.5
-60.914
-57.977
-52.691
-45.345
-36.682
-27.369
-17.709
-8.145
0.742
8.978
16.965
25.713
37.121
52.466
72.069
96.36
125.632
158.811
193.735
226.636
252.136
266.01
265.34
247.048
208.324
148.058
67.188
-30.343
-138.034
-250.142
-361.598
-466.758
-559.485
-633.961
-686.126
-714.987
-722.284
-709.974
-680.087
-635.15
-578.862
-516.53
-453.24
-392.675
-336.601
-285.864
-241.275
-203.948
-174.414
-151.402
-132.768
-116.181
-100.416
-85.45
-71.274
-57.374
-42.958
-27.954
-13.217
-0.283
9.84
17.094
21.736
24.05
23.995
21.547
17.21
11.965
6.752
2.179
-1.451
-4.097
-5.652
-5.944
-4.932
-2.697
0.592
4.726
9.541
14.942
20.832
27.096
33.591
40.118
46.461
52.447
57.96
62.939
67.358
71.191
74.416
77.049
79.14
80.774
82.03
82.969
83.636
84.084
84.386
84.632
84.922
85.324
85.884
86.632
87.589
88.777
90.212
91.89
93.795
95.908
98.217
100.712
103.393
106.247
109.255
112.397
115.65
118.998
122.424
125.913
129.444
132.999
136.562
140.116
143.648
147.142
150.575
153.928
157.178
160.303
163.283
166.096
168.721
171.136
173.326
175.272
176.96
178.376
179.506
180.34
180.867
181.081
180.975
180.543
179.784
178.694
177.276
175.532
173.466
171.081
168.386
165.389
162.098
158.527
154.686
150.591
146.254
141.694
136.927
131.971
126.845
121.57
116.164
110.649
105.045
99.375
93.657
87.914
82.164
76.428
70.725
65.074
59.492
53.997
48.605
43.332
38.192
33.199
28.366
23.704
19.223
14.932
10.841
6.955
3.28
-0.178
-3.416
-6.433
-9.227
-11.797
-14.146
-16.275
-18.187
-19.887
-21.38
-22.671
-23.768
-24.679
-25.411
-25.972
-26.373
-26.623
-26.732
-26.709
-26.567
-26.314
-25.962
-25.521
-25.001
-24.414
-23.769
-23.076
-22.344
-21.583
-20.802
-20.008
-19.211
-18.416
-17.632
-16.864
-16.119
-15.401
-14.715
-14.065
-13.455
-12.889
-12.368
-11.894
-11.469
-11.094
-10.77
-10.497
-10.273
-10.1
-9.974
-9.896
-9.863
-9.874
-9.926
-10.018
-10.146
-10.309
-10.503
-10.726
-10.975
-11.248
-11.542
-11.854
-12.182
-12.524
-12.878
-13.241
-13.613
-13.991
-14.375
-14.764
-15.156
-15.55
-15.946
-16.343
-16.74
-17.139
-17.537
-17.937
-18.338
-18.741
-19.146
-19.554
-19.965
-20.379
-20.796
-21.218
-21.643
-22.072
-22.506
-22.945
-23.389
-23.838
-24.292
-24.75
-25.212
-25.677
-26.141
-26.605
-27.065
-27.518
-27.962
-28.394
-28.811
-29.211
-29.591
-29.947
-30.275
-30.573
-30.835
-31.058
-31.237
-31.367
-31.444
-31.465
-31.428
-31.331
-31.171
-30.947
-30.657
-30.301
-29.877
-29.385
-28.825
-28.195
-27.497
-26.734
-25.908
-25.024
-24.087
-23.102
-22.076
-21.021
-19.943
-18.849
-17.746
-16.642
-15.543
-14.456
-13.386
-12.339
-11.32
-10.338
-9.403
-8.525
-7.714
-6.976
-6.318
-5.746
-5.264
-4.877
-4.583
-4.377
-4.258
-4.23
-4.3
-4.484
-4.789
-5.209
-5.739
-6.368
-7.076
-7.832
-8.589
-9.283
-9.875
-10.342
-10.668
-10.862
-10.919
-10.824
-10.577
-10.167
-9.584
-8.835
-7.915
-6.826
-5.628
-4.423
-3.355
-2.611
-2.324
-2.582
-3.462
-4.993
-7.2
-10.088
-13.577
-17.585
-22.051
-26.932
-32.229
-37.896
-43.736
-49.45
-54.664
-58.938
-61.94
-63.285
-62.475
-59.303
-53.788
-46.243
-37.421
-27.949
-18.095
-8.316
0.807
9.281
17.434
26.345
37.976
53.385
72.747
96.34
124.261
155.736
189.044
220.404
244.435
257.372
256.533
239.332
203.62
147.616
71.387
-21.26
-124.128
-232.08
-340.179
-443.511
-537.07
-614.3
-670.334
-704.124
-716.629
-709.142
-683.792
-642.435
-587.568
-524.924
-459.703
-395.192
-334.324
-278.738
-229.122
-187.164
-154.226
-128.932
-109.766
-95.213
-82.924
-72.066
-62.551
-53.287
-43.189
-32.238
-20.538
-8.881
1.078
8.787
14.328
17.546
18.463
17.201
13.906
9.26
4.39
0.041
-3.383
-5.653
-6.76
-6.646
-5.216
-2.533
1.2
5.75
10.92
16.565
22.592
28.903
35.337
41.682
47.757
53.413
58.553
63.142
67.165
70.596
73.442
75.736
77.525
78.89
79.907
80.624
81.103
81.412
81.628
81.854
82.174
82.644
83.306
84.186
85.298
86.661
88.279
90.138
92.227
94.533
97.044
99.759
102.668
105.755
109.001
112.381
115.874
119.463
123.131
126.858
130.626
134.415
138.21
141.995
145.755
149.466
153.107
156.653
160.081
163.369
166.494
169.431
172.159
174.658
176.91
178.897
180.604
182.016
183.121
183.906
184.362
184.482
184.259
183.69
182.77
181.5
179.881
177.918
175.615
172.978
170.016
166.738
163.156
159.284
155.134
150.723
146.067
141.184
136.094
130.817
125.374
119.786
114.074
108.262
102.373
96.427
90.448
84.457
78.474
72.522
66.62
60.787
55.042
49.404
43.887
38.51
33.285
28.228
23.349
18.66
14.172
9.892
5.829
1.988
-1.626
-5.01
-8.16
-11.076
-13.758
-16.207
-18.426
-20.419
-22.189
-23.743
-25.087
-26.228
-27.175
-27.937
-28.522
-28.94
-29.202
-29.319
-29.3
-29.156
-28.899
-28.539
-28.087
-27.554
-26.951
-26.287
-25.572
-24.816
-24.028
-23.217
-22.39
-21.557
-20.724
-19.898
-19.085
-18.292
-17.523
-16.784
-16.078
-15.409
-14.78
-14.194
-13.653
-13.158
-12.71
-12.311
-11.961
-11.661
-11.41
-11.208
-11.055
-10.951
-10.895
-10.885
-10.922
-11.003
-11.128
-11.296
-11.506
-11.756
-12.047
-12.376
-12.743
-13.145
-13.583
-14.053
-14.553
-15.083
-15.639
-16.22
-16.823
-17.448
-18.091
-18.75
-19.423
-20.109
-20.803
-21.503
-22.206
-22.907
-23.604
-24.292
-24.966
-25.622
-26.256
-26.864
-27.442
-27.985
-28.488
-28.946
-29.354
-29.707
-29.999
-30.225
-30.38
-30.462
-30.466
-30.392
-30.237
-30.001
-29.683
-29.282
-28.798
-28.233
-27.588
-26.863
-26.061
-25.185
-24.24
-23.233
-22.169
-21.055
-19.899
-18.711
-17.502
-16.281
-15.056
-13.837
-12.632
-11.449
-10.297
-9.187
-8.124
-7.118
-6.178
-5.314
-4.54
-3.865
-3.294
-2.832
-2.482
-2.246
-2.126
-2.123
-2.228
-2.441
-2.763
-3.198
-3.764
-4.469
-5.303
-6.254
-7.299
-8.4
-9.533
-10.658
-11.721
-12.692
-13.544
-14.265
-14.872
-15.369
-15.744
-15.986
-16.052
-15.905
-15.553
-15.005
-14.297
-13.528
-12.785
-12.185
-11.893
-12.023
-12.654
-13.836
-15.552
-17.752
-20.401
-23.448
-26.868
-30.681
-34.867
-39.359
-44.013
-48.561
-52.708
-56.114
-58.418
-59.2
-58.003
-54.62
-49.134
-41.928
-33.684
-24.953
-15.968
-7.103
1.096
8.624
15.853
23.848
34.496
48.812
66.876
88.797
114.531
143.248
173.291
201.17
221.933
232.124
229.331
211.278
176.143
122.494
50.646
-35.774
-131.124
-230.647
-329.702
-423.52
-507.039
-574.198
-620.982
-646.897
-653.275
-641.831
-614.928
-575.191
-526.46
-474.553
-423.83
-376.414
-333.444
-295.102
-261.241
-231.921
-206.213
-181.877
-157.555
-132.843
-107.788
-83.263
-60.026
-38.422
-19.135
-3.042
9.44
18.182
23.372
25.631
25.508
23.484
20.147
15.974
11.392
6.836
2.609
-1.022
-3.815
-5.637
-6.394
-6.01
-4.476
-1.813
1.921
6.575
11.987
17.996
24.409
31.077
37.836
44.479
50.849
56.813
62.266
67.171
71.509
75.251
78.408
81.014
83.114
84.785
86.101
87.118
87.908
88.544
89.106
89.693
90.379
91.214
92.24
93.481
94.956
96.682
98.663
100.884
103.336
106.008
108.889
111.976
115.258
118.717
122.334
126.084
129.947
133.905
137.94
142.031
146.158
150.302
154.444
158.57
162.66
166.692
170.64
174.481
178.188
181.74
185.11
188.275
191.209
193.892
196.304
198.427
200.244
201.739
202.897
203.707
204.157
204.239
203.947
203.274
202.218
200.778
198.956
196.756
194.182
191.241
187.943
184.298
180.319
176.019
171.415
166.523
161.361
155.95
150.31
144.464
138.434
132.244
125.917
119.479
112.953
106.365
99.739
93.098
86.465
79.865
73.319
66.849
60.475
54.217
48.094
42.122
36.32
30.7
25.278
20.065
15.072
10.309
5.784
1.504
-2.527
-6.304
-9.825
-13.088
-16.094
-18.844
-21.341
-23.588
-25.591
-27.355
-28.887
-30.195
-31.287
-32.173
-32.863
-33.367
-33.695
-33.86
-33.872
-33.744
-33.486
-33.111
-32.631
-32.056
-31.399
-30.671
-29.882
-29.043
-28.165
-27.256
-26.326
-25.384
-24.437
-23.494
-22.561
-21.645
-20.752
-19.888
-19.058
-18.268
-17.52
-16.82
-16.17
-15.574
-15.034
-14.551
-14.127
-13.763
-13.461
-13.22
-13.042
-12.927
-12.873
-12.88
-12.947
-13.072
-13.254
-13.491
-13.779
-14.117
-14.502
-14.932
-15.403
-15.913
-16.459
-17.037
-17.643
-18.274
-18.926
-19.593
-20.272
-20.957
-21.644
-22.326
-22.998
-23.655
-24.293
-24.906
-25.488
-26.033
-26.537
-26.992
-27.394
-27.735
-28.013
-28.221
-28.357
-28.417
-28.4
-28.303
-28.126
-27.867
-27.527
-27.105
-26.603
-26.021
-25.361
-24.627
-23.82
-22.948
-22.015
-21.029
-19.996
-18.923
-17.821
-16.7
-15.57
-14.438
-13.313
-12.204
-11.12
-10.072
-9.069
-8.118
-7.227
-6.406
-5.665
-5.016
-4.466
-4.019
-3.678
-3.444
-3.319
-3.306
-3.406
-3.612
-3.923
-4.337
-4.861
-5.513
-6.293
-7.192
-8.191
-9.258
-10.37
-11.504
-12.625
-13.689
-14.666
-15.528
-16.269
-16.901
-17.417
-17.813
-18.064
-18.115
-17.95
-17.582
-17.042
-16.403
-15.742
-15.128
-14.682
-14.543
-14.811
-15.569
-16.842
-18.591
-20.795
-23.401
-26.373
-29.726
-33.433
-37.46
-41.698
-45.929
-49.901
-53.327
-55.854
-57.129
-56.764
-54.336
-49.744
-43.175
-35.038
-26.08
-16.859
-7.637
1.106
8.959
16.064
22.98
30.942
41.649
55.99
74.141
96.306
122.13
150.159
177.77
200.937
215.387
217.833
205.737
176.723
129.004
62.697
-19.526
-112.939
-212.388
-312.864
-409.461
-496.71
-568.477
-620.643
-652.069
-663.493
-656.579
-633.584
-597.046
-550.895
-500.811
-451.11
-404.13
-361.158
-322.464
-288.032
-257.959
-231.278
-205.812
-180.203
-154.005
-127.317
-100.996
-75.787
-52.096
-30.647
-12.401
2.12
12.744
19.608
23.26
24.229
22.961
19.988
15.848
10.992
5.848
0.816
-3.786
-7.685
-10.664
-12.593
-13.388
-12.996
-11.414
-8.693
-4.939
-0.305
5.046
10.965
17.296
23.879
30.535
37.052
43.251
49.008
54.241
58.912
62.996
66.479
69.371
71.723
73.603
75.085
76.235
77.105
77.759
78.268
78.716
79.196
79.78
80.514
81.434
82.562
83.915
85.506
87.334
89.38
91.627
94.063
96.676
99.463
102.411
105.502
108.716
112.03
115.425
118.885
122.391
125.924
129.465
132.996
136.503
139.97
143.382
146.718
149.958
153.079
156.061
158.883
161.524
163.964
166.182
168.163
169.89
171.35
172.529
173.417
174.002
174.278
174.237
173.874
173.187
172.173
170.831
169.165
167.177
164.873
162.259
159.344
156.137
152.649
148.892
144.882
140.632
136.158
131.478
126.61
121.572
116.384
111.066
105.64
100.124
94.542
88.913
83.258
77.598
71.952
66.34
60.779
55.288
49.883
44.582
39.398
34.348
29.443
24.697
20.121
15.726
11.519
7.509
3.703
0.106
-3.278
-6.445
-9.394
-12.124
-14.634
-16.927
-19.004
-20.87
-22.527
-23.982
-25.241
-26.31
-27.197
-27.91
-28.457
-28.847
-29.09
-29.195
-29.171
-29.029
-28.778
-28.428
-27.99
-27.472
-26.885
-26.238
-25.54
-24.8
-24.027
-23.228
-22.411
-21.584
-20.753
-19.925
-19.105
-18.299
-17.511
-16.747
-16.01
-15.304
-14.632
-13.995
-13.397
-12.838
-12.32
-11.844
-11.412
-11.022
-10.677
-10.375
-10.118
-9.905
-9.735
-9.609
-9.525
-9.482
-9.481
-9.52
-9.598
-9.715
-9.87
-10.063
-10.292
-10.557
-10.858
-11.192
-11.559
-11.957
-12.386
-12.844
-13.329
-13.841
-14.377
-14.937
-15.52
-16.125
-16.748
-17.389
-18.044
-18.71
-19.386
-20.066
-20.746
-21.424
-22.094
-22.754
-23.399
-24.026
-24.631
-25.208
-25.754
-26.263
-26.73
-27.15
-27.517
-27.827
-28.075
-28.259
-28.376
-28.423
-28.398
-28.299
-28.125
-27.875
-27.548
-27.144
-26.66
-26.098
-25.46
-24.75
-23.972
-23.13
-22.231
-21.282
-20.293
-19.273
-18.229
-17.169
-16.1
-15.028
-13.962
-12.907
-11.868
-10.853
-9.869
-8.927
-8.038
-7.213
-6.459
-5.785
-5.197
-4.7
-4.298
-3.992
-3.775
-3.648
-3.615
-3.682
-3.866
-4.176
-4.605
-5.149
-5.798
-6.529
-7.311
-8.095
-8.814
-9.427
-9.907
-10.236
-10.426
-10.471
-10.357
-10.086
-9.647
-9.029
-8.239
-7.272
-6.129
-4.87
-3.596
-2.456
-1.644
-1.298
-1.511
-2.365
-3.887
-6.099
-9.003
-12.516
-16.553
-21.047
-25.952
-31.268
-36.951
-42.803
-48.524
-53.73
-57.964
-60.884
-62.092
-61.077
-57.632
-51.781
-43.841
-34.589
-24.668
-14.35
-4.098
5.51
14.509
23.249
32.84
45.287
61.651
82.091
106.841
135.915
168.466
202.693
234.746
259.196
272.215
271.096
253.311
216.808
159.949
82.992
-10.242
-113.611
-221.798
-329.796
-432.645
-525.25
-601.466
-656.929
-690.568
-703.274
-696.684
-673.028
-634.516
-584.155
-526.883
-467.001
-407.702
-351.687
-300.129
-253.594
-213.016
-178.851
-150.598
-127.651
-108.696
-91.881
-76.663
-62.971
-50.492
-38.946
-27.724
-16.367
-5.449
3.787
10.751
15.38
17.899
18.662
17.547
14.468
9.925
4.861
0.152
-3.648
-6.343
-7.966
-8.431
-7.606
-5.489
-2.212
1.971
6.822
12.173
17.938
24.046
30.377
36.753
42.955
48.794
54.155
58.979
63.245
66.931
70.019
72.519
74.48
75.985
77.117
77.942
78.509
78.868
79.084
79.245
79.45
79.773
80.263
80.953
81.863
83.013
84.42
86.085
87.99
90.119
92.458
94.999
97.739
100.668
103.768
107.017
110.392
113.874
117.447
121.092
124.789
128.517
132.258
135.995
139.713
143.392
147.011
150.546
153.975
157.273
160.418
163.387
166.157
168.706
171.016
173.068
174.846
176.336
177.524
178.397
178.947
179.164
179.043
178.579
177.768
176.61
175.106
173.26
171.075
168.559
165.719
162.565
159.108
155.362
151.34
147.057
142.531
137.779
132.82
127.675
122.365
116.909
111.332
105.653
99.897
94.085
88.24
82.383
76.535
70.717
64.949
59.251
53.64
48.135
42.751
37.505
32.411
27.483
22.732
18.17
13.806
9.649
5.706
1.984
-1.514
-4.784
-7.823
-10.631
-13.207
-15.554
-17.674
-19.569
-21.246
-22.71
-23.966
-25.023
-25.889
-26.572
-27.081
-27.427
-27.62
-27.669
-27.586
-27.382
-27.067
-26.653
-26.15
-25.569
-24.921
-24.217
-23.465
-22.676
-21.859
-21.023
-20.175
-19.325
-18.478
-17.643
-16.824
-16.029
-15.26
-14.525
-13.825
-13.164
-12.546
-11.972
-11.444
-10.963
-10.531
-10.147
-9.813
-9.527
-9.288
-9.097
-8.951
-8.849
-8.79
-8.77
-8.79
-8.846
-8.937
-9.06
-9.215
-9.398
-9.609
-9.846
-10.107
-10.39
-10.695
-11.02
-11.365
-11.727
-12.108
-12.505
-12.92
-13.351
-13.798
-14.262
-14.741
-15.235
-15.744
-16.267
-16.803
-17.352
-17.912
-18.483
-19.065
-19.656
-20.256
-20.863
-21.477
-22.094
-22.713
-23.331
-23.946
-24.554
-25.152
-25.736
-26.302
-26.847
-27.367
-27.859
-28.318
-28.739
-29.119
-29.451
-29.731
-29.953
-30.113
-30.207
-30.232
-30.185
-30.064
-29.867
-29.593
-29.242
-28.813
-28.305
-27.721
-27.059
-26.32
-25.507
-24.625
-23.677
-22.669
-21.607
-20.497
-19.35
-18.175
-16.981
-15.776
-14.568
-13.366
-12.178
-11.011
-9.873
-8.77
-7.71
-6.7
-5.752
-4.877
-4.081
-3.374
-2.761
-2.246
-1.833
-1.525
-1.32
-1.211
-1.198
-1.282
-1.47
-1.777
-2.208
-2.759
-3.423
-4.183
-5.012
-5.874
-6.719
-7.494
-8.163
-8.694
-9.075
-9.31
-9.39
-9.321
-9.096
-8.689
-8.078
-7.258
-6.228
-5.019
-3.718
-2.431
-1.303
-0.502
-0.152
-0.358
-1.187
-2.66
-4.774
-7.467
-10.663
-14.32
-18.425
-22.973
-27.921
-33.123
-38.314
-43.172
-47.314
-50.36
-51.873
-51.326
-48.459
-43.284
-36.1
-27.627
-18.475
-8.92
0.585
9.44
17.641
25.561
34.317
45.934
61.548
81.346
105.591
134.367
166.886
201.4
234.1
259.533
273.799
274.115
257.841
222.791
167.197
91.171
-1.562
-104.894
-213.512
-322.346
-426.329
-520.248
-597.798
-654.453
-689.035
-702.365
-696.022
-672.235
-633.239
-582.081
-523.798
-462.803
-402.375
-345.29
-292.782
-245.451
-204.265
-169.698
-141.229
-118.211
-99.29
-82.563
-67.462
-53.906
-41.566
-30.152
-19.052
-7.813
2.965
12.012
18.725
23.046
25.2
25.551
23.979
20.4
15.335
9.745
4.529
0.252
-2.883
-4.905
-5.722
-5.198
-3.325
-0.239
3.803
8.556
13.85
19.596
25.72
32.099
38.551
44.849
50.804
56.294
61.26
65.679
69.524
72.775
75.442
77.572
79.248
80.554
81.555
82.299
82.838
83.236
83.579
83.966
84.473
85.144
86.013
87.098
88.416
89.986
91.804
93.854
96.116
98.576
101.224
104.058
107.065
110.228
113.525
116.931
120.429
124.002
127.632
131.299
134.984
138.668
142.337
145.976
149.567
153.09
156.522
159.842
163.028
166.059
168.913
171.569
174.007
176.209
178.16
179.843
181.247
182.358
183.165
183.659
183.833
183.682
183.201
182.387
181.24
179.762
177.955
175.825
173.377
170.619
167.56
164.212
160.586
156.696
152.557
148.183
143.593
138.804
133.835
128.706
123.437
118.047
112.559
106.993
101.37
95.711
90.037
84.366
78.719
73.115
67.572
62.107
56.738
51.479
46.345
41.352
36.511
31.835
27.333
23.017
18.893
14.97
11.253
7.747
4.455
1.381
-1.475
-4.111
-6.531
-8.734
-10.724
-12.506
-14.084
-15.464
-16.652
-17.656
-18.484
-19.143
-19.644
-19.995
-20.206
-20.286
-20.247
-20.098
-19.849
-19.511
-19.093
-18.607
-18.06
-17.465
-16.828
-16.16
-15.469
-14.764
-14.051
-13.338
-12.632
-11.939
-11.264
-10.614
-9.992
-9.402
-8.847
-8.332
-7.857
-7.425
-7.038
-6.695
-6.399
-6.148
-5.942
-5.782
-5.665
-5.591
-5.557
-5.563
-5.607
-5.686
-5.797
-5.94
-6.111
-6.309
-6.53
-6.773
-7.035
-7.314
-7.607
-7.912
-8.227
-8.551
-8.88
-9.214
-9.552
-9.892
-10.234
-10.577
-10.92
-11.263
-11.605
-11.947
-12.289
-12.63
-12.971
-13.312
-13.655
-14
-14.349
-14.701
-15.059
-15.421
-15.79
-16.164
-16.545
-16.933
-17.327
-17.729
-18.138
-18.554
-18.979
-19.411
-19.851
-20.296
-20.747
-21.201
-21.658
-22.114
-22.566
-23.013
-23.45
-23.877
-24.29
-24.686
-25.063
-25.416
-25.742
-26.036
-26.296
-26.515
-26.689
-26.815
-26.889
-26.907
-26.869
-26.773
-26.616
-26.396
-26.115
-25.77
-25.361
-24.888
-24.35
-23.747
-23.083
-22.36
-21.581
-20.753
-19.879
-18.967
-18.027
-17.066
-16.091
-15.109
-14.126
-13.149
-12.184
-11.235
-10.308
-9.408
-8.544
-7.726
-6.963
-6.266
-5.641
-5.096
-4.637
-4.267
-3.989
-3.802
-3.7
-3.682
-3.753
-3.919
-4.195
-4.584
-5.082
-5.683
-6.376
-7.139
-7.942
-8.734
-9.457
-10.073
-10.56
-10.907
-11.121
-11.193
-11.108
-10.864
-10.454
-9.873
-9.128
-8.212
-7.133
-5.944
-4.746
-3.692
-2.949
-2.641
-2.848
-3.635
-5.038
-7.091
-9.81
-13.137
-16.983
-21.267
-25.933
-30.956
-36.31
-41.847
-47.267
-52.195
-56.221
-58.978
-60.204
-59.558
-56.604
-51.179
-43.416
-33.782
-23.143
-12.198
-1.196
9.437
19.072
27.716
35.782
44.351
55.46
70.432
89.484
112.942
140.966
172.259
204.44
233.575
254.219
262.166
254.624
228.774
182.185
114.318
26.927
-75.438
-186.193
-299.426
-410.028
-512.555
-600.703
-668.823
-713.737
-735.046
-734.437
-714.1
-675.867
-621.945
-557.051
-487.13
-417.009
-350.413
-289.392
-234.879
-188.568
-152.433
-126.04
-107.332
-94.01
-83.326
-73.91
-65.627
-57.523
-48.125
-37.021
-24.554
-11.769
-0.585
8.095
14.405
18.282
19.633
18.527
15.096
10.007
4.538
-0.434
-4.502
-7.412
-9.165
-9.724
-8.939
-6.838
-3.627
0.479
5.272
10.59
16.375
22.542
28.955
35.436
41.756
47.726
53.232
58.214
62.653
66.526
69.809
72.506
74.665
76.361
77.675
78.669
79.384
79.872
80.201
80.458
80.748
81.145
81.694
82.429
83.368
84.531
85.936
87.581
89.45
91.526
93.795
96.251
98.892
101.709
104.683
107.793
111.017
114.337
117.738
121.202
124.71
128.245
131.79
135.328
138.848
142.333
145.761
149.113
152.367
155.5
158.492
161.323
163.969
166.41
168.63
170.611
172.338
173.796
174.973
175.856
176.435
176.702
176.65
176.274
175.568
174.532
173.165
171.47
169.449
167.107
164.45
161.486
158.224
154.675
150.852
146.767
142.435
137.872
133.094
128.12
122.969
117.659
112.21
106.643
100.978
95.237
89.44
83.607
77.758
71.913
66.091
60.312
54.592
48.951
43.403
37.966
32.655
27.482
22.463
17.607
12.927
8.431
4.129
0.027
-3.867
-7.55
-11.018
-14.267
-17.297
-20.107
-22.697
-25.071
-27.231
-29.18
-30.925
-32.469
-33.821
-34.987
-35.976
-36.795
-37.453
-37.961
-38.326
-38.561
-38.674
-38.676
-38.577
-38.388
-38.118
-37.779
-37.379
-36.93
-36.438
-35.915
-35.368
-34.805
-34.234
-33.662
-33.096
-32.541
-32.002
-31.485
-30.994
-30.533
-30.104
-29.71
-29.352
-29.034
-28.754
-28.513
-28.313
-28.151
-28.027
-27.941
-27.89
-27.872
-27.887
-27.93
-28
-28.095
-28.21
-28.343
-28.493
-28.654
-28.825
-29.004
-29.187
-29.371
-29.555
-29.737
-29.913
-30.083
-30.244
-30.395
-30.535
-30.663
-30.778
-30.879
-30.967
-31.043
-31.105
-31.156
-31.196
-31.227
-31.248
-31.261
-31.269
-31.272
-31.273
-31.274
-31.277
-31.285
-31.3
-31.324
-31.359
-31.406
-31.468
-31.546
-31.641
-31.754
-31.887
-32.04
-32.214
-32.41
-32.628
-32.868
-33.131
-33.414
-33.716
-34.036
-34.371
-34.718
-35.075
-35.437
-35.802
-36.166
-36.526
-36.878
-37.218
-37.541
-37.841
-38.114
-38.353
-38.553
-38.708
-38.812
-38.863
-38.855
-38.786
-38.654
-38.456
-38.189
-37.852
-37.444
-36.963
-36.409
-35.78
-35.077
-34.304
-33.463
-32.557
-31.593
-30.576
-29.513
-28.413
-27.285
-26.136
-24.972
-23.801
-22.63
-21.464
-20.312
-19.18
-18.075
-17.007
-15.986
-15.025
-14.134
-13.322
-12.594
-11.955
-11.408
-10.955
-10.596
-10.326
-10.143
-10.052
-10.061
-10.184
-10.43
-10.795
-11.273
-11.847
-12.492
-13.169
-13.839
-14.449
-14.961
-15.356
-15.623
-15.77
-15.798
-15.699
-15.462
-15.062
-14.477
-13.695
-12.719
-11.563
-10.294
-9.031
-7.906
-7.083
-6.691
-6.809
-7.495
-8.775
-10.648
-13.095
-16.064
-19.499
-23.366
-27.655
-32.35
-37.386
-42.548
-47.503
-51.884
-55.275
-57.34
-57.731
-55.992
-51.925
-45.613
-37.405
-28.039
-18.18
-8.094
1.794
10.851
19.112
26.991
35.474
46.52
61.403
80.363
103.844
132.146
164.152
197.713
229.054
252.745
264.587
261.714
241.108
200.109
137.751
55.126
-43.671
-152.106
-264.362
-375.283
-479.276
-570.248
-642.482
-692.109
-718.219
-722.575
-707.278
-674.459
-626.726
-567.937
-503.388
-438.137
-375.936
-318.515
-266.716
-221.417
-183.661
-153.93
-130.999
-112.694
-96.684
-81.817
-67.997
-55.131
-42.671
-29.714
-16.145
-2.83
8.748
17.6
23.671
27.256
28.609
27.63
24.321
19.201
13.283
7.577
2.657
-1.225
-4.031
-5.679
-6.006
-4.962
-2.665
0.683
4.879
9.758
15.236
21.242
27.644
34.286
40.963
47.437
53.55
59.208
64.349
68.954
73.002
76.471
79.389
81.825
83.856
85.556
86.982
88.171
89.179
90.085
90.977
91.953
93.079
94.396
95.932
97.707
99.738
102.037
104.595
107.389
110.399
113.611
117.017
120.612
124.38
128.301
132.351
136.508
140.752
145.063
149.422
153.807
158.198
162.575
166.922
171.223
175.459
179.607
183.644
187.548
191.296
194.865
198.233
201.378
204.279
206.917
209.277
211.342
213.099
214.535
215.64
216.404
216.82
216.883
216.589
215.934
214.92
213.548
211.821
209.744
207.323
204.567
201.484
198.087
194.388
190.401
186.141
181.624
176.868
171.891
166.713
161.354
155.835
150.177
144.402
138.532
132.589
126.595
120.57
114.535
108.512
102.52
96.577
90.703
84.914
79.228
73.66
68.225
62.937
57.809
52.852
48.076
43.492
39.107
34.928
30.962
27.212
23.683
20.376
17.293
14.433
11.796
9.379
7.179
5.191
3.411
1.831
0.446
-0.753
-1.773
-2.624
-3.315
-3.855
-4.255
-4.524
-4.672
-4.71
-4.648
-4.497
-4.267
-3.967
-3.608
-3.2
-2.752
-2.272
-1.77
-1.253
-0.73
-0.209
0.305
0.805
1.285
1.739
2.163
2.553
2.906
3.217
3.485
3.707
3.883
4.012
4.092
4.124
4.108
4.044
3.934
3.779
3.579
3.336
3.052
2.729
2.369
1.974
1.546
1.088
0.602
0.09
-0.446
-1.004
-1.581
-2.176
-2.787
-3.412
-4.051
-4.7
-5.359
-6.027
-6.702
-7.384
-8.071
-8.765
-9.464
-10.168
-10.878
-11.594
-12.314
-13.038
-13.767
-14.499
-15.235
-15.974
-16.716
-17.46
-18.205
-18.953
-19.702
-20.45
-21.197
-21.942
-22.682
-23.415
-24.139
-24.851
-25.548
-26.227
-26.886
-27.522
-28.133
-28.714
-29.264
-29.777
-30.251
-30.681
-31.063
-31.392
-31.664
-31.876
-32.026
-32.111
-32.13
-32.081
-31.962
-31.773
-31.514
-31.184
-30.783
-30.309
-29.765
-29.153
-28.475
-27.737
-26.943
-26.098
-25.211
-24.291
-23.346
-22.383
-21.409
-20.432
-19.457
-18.493
-17.543
-16.614
-15.711
-14.844
-14.021
-13.255
-12.554
-11.926
-11.38
-10.921
-10.554
-10.284
-10.108
-10.024
-10.03
-10.131
-10.336
-10.658
-11.102
-11.661
-12.332
-13.103
-13.954
-14.853
-15.754
-16.594
-17.337
-17.961
-18.45
-18.812
-19.039
-19.114
-19.036
-18.8
-18.403
-17.855
-17.153
-16.301
-15.356
-14.415
-13.621
-13.146
-13.115
-13.605
-14.686
-16.39
-18.744
-21.761
-25.381
-29.499
-34.035
-38.919
-44.112
-49.591
-55.199
-60.651
-65.601
-69.629
-72.369
-73.549
-72.805
-69.753
-64.28
-56.52
-46.949
-36.404
-25.493
-14.554
-4.083
5.512
14.304
22.776
32.113
43.92
59.102
77.945
100.702
127.081
155.652
183.73
207.288
222.057
224.696
212.573
183.183
134.627
67.013
-16.903
-112.263
-213.753
-316.226
-414.636
-503.32
-576.008
-628.495
-659.637
-670.294
-662.248
-637.86
-599.793
-552.095
-500.591
-449.74
-401.936
-358.454
-319.562
-285.211
-255.481
-229.409
-204.717
-179.957
-154.642
-128.817
-103.345
-78.992
-56.154
-35.545
-18.125
-4.399
5.462
11.588
14.567
14.959
13.25
10.017
5.765
0.905
-4.154
-9.037
-13.435
-17.072
-19.757
-21.388
-21.876
-21.173
-19.271
-16.211
-12.124
-7.177
-1.55
4.59
11.102
17.844
24.642
31.293
37.623
43.511
48.889
53.73
58.007
61.697
64.81
67.391
69.515
71.259
72.693
73.869
74.848
75.701
76.511
77.37
78.346
79.483
80.814
82.359
84.137
86.162
88.434
90.936
93.651
96.565
99.669
102.959
106.423
110.04
113.788
117.645
121.591
125.609
129.68
133.783
137.898
142.006
146.091
150.137
154.127
158.037
161.847
165.531
169.068
172.435
175.61
178.57
181.293
183.76
185.953
187.858
189.459
190.742
191.695
192.307
192.571
192.479
192.026
191.208
190.025
188.476
186.565
184.296
181.675
178.709
175.409
171.784
167.848
163.614
159.099
154.316
149.286
144.026
138.557
132.899
127.074
121.104
115.011
108.818
102.549
96.225
89.87
83.505
77.152
70.832
64.567
58.375
52.276
46.289
40.429
34.715
29.161
23.78
18.587
13.591
8.803
4.233
-0.113
-4.227
-8.106
-11.744
-15.14
-18.292
-21.199
-23.864
-26.287
-28.473
-30.426
-32.15
-33.652
-34.939
-36.019
-36.899
-37.589
-38.098
-38.437
-38.614
-38.641
-38.528
-38.287
-37.927
-37.461
-36.898
-36.249
-35.525
-34.735
-33.889
-32.997
-32.067
-31.108
-30.129
-29.137
-28.139
-27.142
-26.152
-25.176
-24.219
-23.286
-22.381
-21.508
-20.671
-19.873
-19.117
-18.406
-17.742
-17.126
-16.562
-16.049
-15.59
-15.185
-14.835
-14.54
-14.3
-14.115
-13.987
-13.914
-13.896
-13.935
-14.028
-14.176
-14.378
-14.633
-14.939
-15.296
-15.701
-16.153
-16.65
-17.19
-17.771
-18.39
-19.045
-19.734
-20.453
-21.199
-21.967
-22.753
-23.554
-24.364
-25.178
-25.99
-26.796
-27.59
-28.366
-29.12
-29.845
-30.535
-31.184
-31.785
-32.332
-32.818
-33.237
-33.585
-33.855
-34.046
-34.152
-34.172
-34.103
-33.944
-33.694
-33.351
-32.918
-32.393
-31.778
-31.076
-30.289
-29.422
-28.482
-27.474
-26.406
-25.285
-24.121
-22.925
-21.707
-20.476
-19.239
-18.006
-16.788
-15.595
-14.436
-13.32
-12.257
-11.255
-10.328
-9.488
-8.743
-8.099
-7.56
-7.129
-6.809
-6.604
-6.514
-6.535
-6.666
-6.905
-7.261
-7.751
-8.379
-9.135
-10
-10.943
-11.94
-12.97
-13.995
-14.972
-15.87
-16.659
-17.335
-17.912
-18.383
-18.742
-18.965
-18.996
-18.818
-18.44
-17.893
-17.248
-16.579
-15.957
-15.499
-15.345
-15.596
-16.335
-17.585
-19.304
-21.471
-24.03
-26.948
-30.24
-33.885
-37.845
-42.015
-46.177
-50.077
-53.427
-55.874
-57.061
-56.599
-54.065
-49.356
-42.669
-34.421
-25.362
-16.049
-6.733
2.126
10.112
17.372
24.482
32.689
43.708
58.441
77.041
99.68
125.998
154.518
182.605
206.229
221.062
223.791
211.884
182.98
135.352
69.195
-12.783
-105.824
-204.709
-304.401
-399.981
-485.992
-556.409
-607.236
-637.425
-647.806
-640.092
-616.566
-579.78
-533.644
-483.791
-434.496
-388.034
-345.646
-307.596
-273.856
-244.545
-218.742
-194.245
-169.668
-144.553
-118.961
-93.744
-69.649
-47.05
-26.641
-9.358
4.308
14.187
20.409
23.553
24.163
22.712
19.761
15.796
11.22
6.436
1.807
-2.362
-5.803
-8.33
-9.839
-10.244
-9.494
-7.583
-4.551
-0.522
4.337
9.856
15.871
22.248
28.847
35.499
42.006
48.196
53.952
59.206
63.933
68.103
71.696
74.721
77.222
79.271
80.946
82.312
83.422
84.335
85.12
85.858
86.641
87.536
88.586
89.825
91.272
92.945
94.86
97.016
99.394
101.978
104.754
107.712
110.848
114.149
117.595
121.164
124.832
128.579
132.389
136.241
140.115
143.989
147.846
151.668
155.439
159.143
162.756
166.256
169.621
172.827
175.854
178.68
181.281
183.638
185.732
187.548
189.07
190.287
191.184
191.752
191.982
191.868
191.406
190.591
189.422
187.899
186.027
183.808
181.251
178.362
175.15
171.627
167.806
163.701
159.327
154.701
149.84
144.763
139.49
134.043
128.442
122.71
116.869
110.94
104.949
98.916
92.865
86.816
80.791
74.81
68.893
63.059
57.326
51.711
46.23
40.899
35.73
30.737
25.932
21.324
16.923
12.735
8.769
5.028
1.517
-1.762
-4.808
-7.62
-10.2
-12.549
-14.672
-16.572
-18.256
-19.729
-20.998
-22.072
-22.959
-23.668
-24.209
-24.592
-24.827
-24.925
-24.896
-24.752
-24.502
-24.159
-23.732
-23.232
-22.67
-22.055
-21.397
-20.705
-19.989
-19.256
-18.514
-17.771
-17.033
-16.306
-15.596
-14.908
-14.247
-13.615
-13.017
-12.455
-11.93
-11.446
-11.001
-10.598
-10.236
-9.915
-9.636
-9.396
-9.195
-9.032
-8.905
-8.813
-8.753
-8.723
-8.722
-8.747
-8.797
-8.869
-8.961
-9.071
-9.199
-9.342
-9.5
-9.671
-9.854
-10.048
-10.252
-10.467
-10.691
-10.924
-11.168
-11.422
-11.687
-11.965
-12.255
-12.558
-12.876
-13.208
-13.554
-13.917
-14.295
-14.689
-15.099
-15.526
-15.97
-16.431
-16.91
-17.406
-17.917
-18.442
-18.98
-19.529
-20.086
-20.647
-21.21
-21.772
-22.33
-22.881
-23.42
-23.944
-24.45
-24.932
-25.385
-25.804
-26.185
-26.52
-26.805
-27.036
-27.209
-27.32
-27.368
-27.349
-27.261
-27.102
-26.87
-26.565
-26.185
-25.729
-25.196
-24.59
-23.912
-23.166
-22.357
-21.49
-20.573
-19.615
-18.625
-17.609
-16.575
-15.531
-14.482
-13.436
-12.4
-11.378
-10.376
-9.405
-8.473
-7.594
-6.777
-6.03
-5.364
-4.784
-4.296
-3.906
-3.614
-3.414
-3.306
-3.295
-3.387
-3.601
-3.944
-4.41
-4.997
-5.694
-6.48
-7.324
-8.177
-8.972
-9.668
-10.238
-10.663
-10.954
-11.105
-11.102
-10.948
-10.632
-10.143
-9.487
-8.657
-7.653
-6.532
-5.393
-4.382
-3.691
-3.459
-3.778
-4.732
-6.348
-8.651
-11.642
-15.236
-19.348
-23.911
-28.878
-34.249
-39.982
-45.883
-51.655
-56.916
-61.21
-64.196
-65.473
-64.526
-61.142
-55.337
-47.42
-38.163
-28.209
-17.829
-7.488
2.237
11.381
20.29
30.08
42.757
59.389
80.15
105.285
134.81
167.886
202.716
235.443
260.626
274.417
274.088
257.086
221.336
165.176
88.835
-3.884
-106.837
-214.703
-322.472
-425.176
-517.714
-593.929
-649.43
-683.13
-695.92
-689.432
-665.889
-627.499
-577.26
-520.102
-460.339
-401.166
-345.279
-293.853
-247.452
-207.01
-172.984
-144.876
-122.068
-103.246
-86.559
-71.46
-57.882
-45.516
-34.081
-22.976
-11.752
-0.989
8.067
14.822
19.215
21.469
21.942
20.514
17.102
12.213
6.793
1.722
-2.445
-5.507
-7.493
-8.313
-7.83
-6.037
-3.064
0.841
5.44
10.568
16.14
22.085
28.281
34.551
40.671
46.452
51.778
56.588
60.86
64.569
67.695
70.247
72.271
73.848
75.06
75.97
76.627
77.078
77.388
77.643
77.942
78.36
78.943
79.725
80.723
81.957
83.445
85.184
87.159
89.35
91.744
94.332
97.112
100.073
103.196
106.461
109.844
113.326
116.89
120.52
124.193
127.892
131.598
135.294
138.967
142.599
146.168
149.653
153.031
156.279
159.377
162.302
165.031
167.545
169.825
171.854
173.617
175.099
176.288
177.171
177.739
177.984
177.9
177.482
176.726
175.632
174.2
172.434
170.337
167.916
165.177
162.13
158.785
155.154
151.252
147.091
142.689
138.061
133.227
128.205
123.015
117.677
112.213
106.643
100.989
95.273
89.516
83.74
77.964
72.209
66.494
60.839
55.262
49.78
44.409
39.166
34.064
29.118
24.339
19.74
15.33
11.117
7.11
3.316
-0.262
-3.619
-6.752
-9.659
-12.341
-14.798
-17.032
-19.046
-20.845
-22.432
-23.814
-24.997
-25.99
-26.8
-27.437
-27.908
-28.225
-28.397
-28.434
-28.347
-28.146
-27.843
-27.448
-26.971
-26.422
-25.813
-25.152
-24.449
-23.714
-22.956
-22.181
-21.399
-20.616
-19.839
-19.075
-18.328
-17.603
-16.906
-16.24
-15.607
-15.012
-14.456
-13.94
-13.467
-13.036
-12.648
-12.302
-11.998
-11.736
-11.513
-11.329
-11.181
-11.069
-10.989
-10.941
-10.921
-10.928
-10.959
-11.012
-11.085
-11.175
-11.28
-11.399
-11.53
-11.672
-11.822
-11.981
-12.147
-12.32
-12.499
-12.684
-12.876
-13.073
-13.276
-13.486
-13.704
-13.929
-14.164
-14.409
-14.665
-14.934
-15.217
-15.514
-15.826
-16.154
-16.497
-16.857
-17.234
-17.628
-18.04
-18.468
-18.914
-19.378
-19.858
-20.353
-20.862
-21.381
-21.911
-22.446
-22.984
-23.522
-24.055
-24.582
-25.098
-25.599
-26.083
-26.543
-26.976
-27.377
-27.74
-28.061
-28.334
-28.554
-28.718
-28.821
-28.863
-28.841
-28.751
-28.593
-28.366
-28.069
-27.702
-27.263
-26.752
-26.17
-25.52
-24.806
-24.031
-23.202
-22.323
-21.402
-20.45
-19.476
-18.485
-17.487
-16.488
-15.495
-14.515
-13.556
-12.621
-11.717
-10.854
-10.041
-9.289
-8.608
-8.003
-7.483
-7.055
-6.72
-6.483
-6.344
-6.295
-6.335
-6.469
-6.702
-7.05
-7.517
-8.099
-8.79
-9.581
-10.447
-11.36
-12.267
-13.107
-13.837
-14.434
-14.88
-15.18
-15.327
-15.303
-15.109
-14.733
-14.163
-13.402
-12.439
-11.277
-9.974
-8.634
-7.404
-6.472
-5.969
-5.988
-6.607
-7.865
-9.799
-12.416
-15.638
-19.387
-23.601
-28.249
-33.346
-38.842
-44.541
-50.134
-55.228
-59.384
-62.266
-63.487
-62.548
-59.208
-53.472
-45.64
-36.466
-26.62
-16.391
-6.22
3.319
12.272
21.065
30.733
43.207
59.758
80.656
106.28
136.873
171.287
207.319
241.155
267.322
281.567
280.995
262.547
223.515
162.891
81.633
-16.283
-124.326
-236.837
-348.705
-454.249
-547.614
-623.141
-676.906
-708.11
-718.164
-708.575
-681.402
-639.114
-584.877
-523.739
-460.265
-397.525
-338.057
-283.555
-234.913
-193.54
-160.534
-134.838
-115.162
-100.09
-87.462
-76.329
-66.472
-56.868
-46.433
-35.071
-22.855
-10.547
0.173
8.644
14.894
18.745
20.162
19.249
16.103
11.358
6.215
1.484
-2.398
-5.152
-6.775
-7.211
-6.331
-4.176
-0.948
3.136
7.867
13.092
18.758
24.785
31.04
37.351
43.494
49.284
54.612
59.419
63.683
67.381
70.493
73.032
75.049
76.625
77.842
78.76
79.422
79.879
80.199
80.468
80.786
81.226
81.833
82.64
83.666
84.932
86.453
88.23
90.242
92.474
94.91
97.543
100.37
103.379
106.552
109.866
113.299
116.832
120.449
124.129
127.854
131.603
135.357
139.101
142.818
146.49
150.095
153.612
157.015
160.284
163.396
166.329
169.06
171.568
173.835
175.843
177.578
179.025
180.17
181.002
181.511
181.69
181.533
181.035
180.194
179.007
177.478
175.61
173.408
170.876
168.025
164.863
161.401
157.653
153.632
149.354
144.836
140.094
135.148
130.018
124.725
119.289
113.731
108.073
102.339
96.549
90.726
84.89
79.063
73.264
67.515
61.833
56.238
50.747
45.375
40.139
35.053
30.131
25.384
20.824
16.46
12.301
8.355
4.626
1.121
-2.159
-5.209
-8.03
-10.621
-12.984
-15.122
-17.037
-18.734
-20.22
-21.499
-22.581
-23.471
-24.18
-24.715
-25.088
-25.307
-25.383
-25.327
-25.149
-24.86
-24.472
-23.994
-23.438
-22.814
-22.133
-21.404
-20.637
-19.841
-19.025
-18.198
-17.368
-16.541
-15.724
-14.925
-14.148
-13.398
-12.68
-11.999
-11.356
-10.756
-10.2
-9.689
-9.226
-8.81
-8.442
-8.122
-7.85
-7.624
-7.444
-7.308
-7.214
-7.16
-7.145
-7.165
-7.22
-7.305
-7.42
-7.561
-7.726
-7.913
-8.118
-8.341
-8.578
-8.828
-9.088
-9.356
-9.63
-9.909
-10.192
-10.477
-10.763
-11.05
-11.337
-11.625
-11.912
-12.199
-12.486
-12.772
-13.059
-13.345
-13.633
-13.923
-14.215
-14.511
-14.812
-15.118
-15.431
-15.751
-16.079
-16.415
-16.758
-17.111
-17.472
-17.842
-18.221
-18.61
-19.009
-19.417
-19.835
-20.261
-20.694
-21.132
-21.573
-22.016
-22.456
-22.892
-23.321
-23.741
-24.148
-24.54
-24.914
-25.266
-25.594
-25.891
-26.155
-26.38
-26.561
-26.695
-26.778
-26.806
-26.779
-26.693
-26.548
-26.342
-26.073
-25.74
-25.344
-24.882
-24.354
-23.76
-23.101
-22.382
-21.605
-20.774
-19.896
-18.977
-18.025
-17.048
-16.052
-15.045
-14.032
-13.018
-12.011
-11.013
-10.031
-9.072
-8.142
-7.253
-6.414
-5.637
-4.93
-4.3
-3.753
-3.292
-2.921
-2.636
-2.434
-2.312
-2.274
-2.328
-2.49
-2.765
-3.152
-3.646
-4.236
-4.901
-5.612
-6.318
-6.964
-7.508
-7.924
-8.205
-8.359
-8.384
-8.276
-8.024
-7.609
-7.028
-6.281
-5.356
-4.258
-3.026
-1.742
-0.568
0.317
0.778
0.712
0.059
-1.206
-3.115
-5.675
-8.848
-12.568
-16.755
-21.349
-26.345
-31.735
-37.41
-43.12
-48.464
-52.999
-56.336
-58.174
-58.174
-55.912
-51.205
-44.166
-35.224
-25.21
-14.819
-4.31
5.928
15.309
23.9
32.162
41.125
52.768
68.378
88.123
112.308
141.083
173.126
206.086
236.075
257.637
266.597
260.236
235.748
190.732
124.623
38.926
-61.993
-171.459
-283.592
-393.28
-495.025
-582.903
-651.582
-697.634
-720.46
-722.024
-704.562
-670.266
-621.818
-563.067
-499.086
-434.641
-373.254
-316.523
-265.241
-220.259
-182.566
-152.629
-129.329
-110.649
-94.419
-79.559
-65.963
-53.513
-41.636
-29.428
-16.741
-4.385
6.227
14.188
19.487
22.428
23.261
21.912
18.396
13.269
7.574
2.26
-2.149
-5.441
-7.62
-8.61
-8.251
-6.526
-3.579
0.371
5.1
10.447
16.339
22.672
29.294
36.016
42.595
48.83
54.602
59.829
64.478
68.532
71.968
74.792
77.056
78.827
80.185
81.195
81.905
82.369
82.661
82.868
83.096
83.428
83.912
84.587
85.476
86.595
87.962
89.577
91.421
93.478
95.735
98.184
100.823
103.642
106.624
109.749
112.994
116.34
119.771
123.27
126.819
130.398
133.99
137.581
141.157
144.702
148.196
151.617
154.943
158.152
161.224
164.137
166.868
169.397
171.706
173.779
175.6
177.155
178.431
179.417
180.103
180.48
180.544
180.288
179.709
178.805
177.577
176.027
174.159
171.978
169.489
166.702
163.625
160.271
156.65
152.777
148.666
144.333
139.794
135.068
130.172
125.127
119.951
114.664
109.287
103.841
98.345
92.82
87.284
81.756
76.255
70.799
65.405
60.089
54.867
49.753
44.762
39.906
35.198
30.647
26.265
22.059
18.038
14.207
10.573
7.14
3.911
0.888
-1.927
-4.534
-6.933
-9.128
-11.119
-12.912
-14.51
-15.919
-17.145
-18.194
-19.073
-19.791
-20.354
-20.772
-21.054
-21.207
-21.241
-21.166
-20.99
-20.723
-20.374
-19.951
-19.464
-18.921
-18.33
-17.7
-17.038
-16.351
-15.647
-14.933
-14.214
-13.496
-12.786
-12.087
-11.406
-10.745
-10.108
-9.5
-8.922
-8.377
-7.866
-7.392
-6.956
-6.557
-6.198
-5.877
-5.596
-5.353
-5.148
-4.98
-4.848
-4.751
-4.687
-4.655
-4.654
-4.681
-4.737
-4.817
-4.922
-5.049
-5.198
-5.365
-5.549
-5.75
-5.964
-6.191
-6.43
-6.678
-6.934
-7.198
-7.469
-7.746
-8.029
-8.317
-8.611
-8.909
-9.212
-9.52
-9.833
-10.151
-10.475
-10.805
-11.142
-11.488
-11.842
-12.207
-12.582
-12.968
-13.365
-13.774
-14.195
-14.629
-15.075
-15.534
-16.005
-16.49
-16.988
-17.5
-18.024
-18.559
-19.105
-19.659
-20.221
-20.786
-21.352
-21.917
-22.476
-23.029
-23.57
-24.098
-24.608
-25.097
-25.56
-25.993
-26.39
-26.747
-27.058
-27.318
-27.524
-27.672
-27.759
-27.782
-27.74
-27.628
-27.447
-27.194
-26.868
-26.468
-25.992
-25.439
-24.812
-24.114
-23.346
-22.514
-21.623
-20.679
-19.692
-18.668
-17.616
-16.542
-15.452
-14.354
-13.254
-12.157
-11.068
-9.996
-8.948
-7.936
-6.97
-6.062
-5.218
-4.449
-3.761
-3.158
-2.644
-2.22
-1.881
-1.628
-1.466
-1.405
-1.46
-1.636
-1.928
-2.335
-2.844
-3.435
-4.077
-4.721
-5.308
-5.802
-6.18
-6.433
-6.566
-6.573
-6.439
-6.163
-5.735
-5.152
-4.419
-3.531
-2.496
-1.369
-0.253
0.703
1.327
1.495
1.127
0.154
-1.451
-3.718
-6.661
-10.22
-14.303
-18.829
-23.735
-28.988
-34.561
-40.301
-45.91
-51.017
-55.206
-58.106
-59.452
-58.904
-56.041
-50.707
-43.024
-33.442
-22.806
-11.802
-0.697
10.066
19.873
28.715
36.961
45.639
56.69
71.375
89.903
112.595
139.626
169.76
200.728
228.741
248.493
255.881
248.189
222.651
176.876
110.328
24.564
-76.112
-185.125
-296.614
-405.466
-506.152
-592.719
-659.909
-704.39
-725.6
-725.542
-706.503
-670.727
-620.985
-561.194
-496.394
-431.324
-369.469
-312.368
-260.787
-215.559
-177.643
-147.502
-124.057
-105.302
-89.074
-74.312
-60.906
-48.726
-37.179
-25.318
-12.941
-0.833
9.591
17.424
22.65
25.572
26.44
25.153
21.707
16.641
11.007
5.765
1.44
-1.759
-3.845
-4.75
-4.316
-2.53
0.457
4.418
9.123
14.41
20.208
26.422
32.905
39.472
45.882
51.935
57.513
62.54
66.983
70.826
74.049
76.661
78.714
80.281
81.442
82.263
82.792
83.083
83.205
83.248
83.315
83.487
83.813
84.331
85.063
86.027
87.24
88.701
90.392
92.297
94.403
96.701
99.188
101.856
104.688
107.662
110.759
113.958
117.245
120.601
124.009
127.451
130.909
134.369
137.818
141.239
144.613
147.918
151.134
154.237
157.209
160.027
162.67
165.117
167.351
169.355
171.114
172.614
173.841
174.785
175.434
175.781
175.82
175.545
174.952
174.039
172.806
171.256
169.391
167.215
164.735
161.958
158.893
155.55
151.943
148.082
143.982
139.658
135.126
130.404
125.51
120.461
115.278
109.979
104.586
99.117
93.593
88.034
82.458
76.886
71.335
65.823
60.369
54.988
49.697
44.511
39.445
34.512
29.724
25.094
20.632
16.347
12.247
8.341
4.635
1.134
-2.159
-5.239
-8.105
-10.755
-13.19
-15.411
-17.421
-19.222
-20.818
-22.214
-23.416
-24.431
-25.266
-25.928
-26.425
-26.766
-26.961
-27.018
-26.948
-26.759
-26.463
-26.068
-25.586
-25.025
-24.396
-23.708
-22.971
-22.194
-21.386
-20.555
-19.71
-18.859
-18.01
-17.169
-16.343
-15.538
-14.761
-14.015
-13.306
-12.638
-12.013
-11.435
-10.907
-10.43
-10.005
-9.634
-9.316
-9.053
-8.844
-8.688
-8.584
-8.531
-8.526
-8.569
-8.658
-8.789
-8.961
-9.171
-9.417
-9.696
-10.004
-10.34
-10.7
-11.081
-11.48
-11.895
-12.321
-12.757
-13.2
-13.647
-14.097
-14.547
-14.996
-15.442
-15.885
-16.322
-16.753
-17.177
-17.593
-18.001
-18.402
-18.794
-19.179
-19.557
-19.929
-20.295
-20.656
-21.013
-21.366
-21.716
-22.062
-22.407
-22.749
-23.091
-23.433
-23.776
-24.121
-24.469
-24.82
-25.173
-25.529
-25.887
-26.246
-26.605
-26.961
-27.314
-27.66
-27.999
-28.328
-28.645
-28.948
-29.233
-29.497
-29.737
-29.949
-30.128
-30.271
-30.372
-30.43
-30.44
-30.403
-30.315
-30.173
-29.977
-29.725
-29.416
-29.049
-28.622
-28.133
-27.584
-26.974
-26.308
-25.586
-24.814
-23.996
-23.138
-22.249
-21.335
-20.403
-19.458
-18.506
-17.554
-16.607
-15.67
-14.747
-13.843
-12.967
-12.127
-11.333
-10.595
-9.919
-9.313
-8.782
-8.33
-7.963
-7.679
-7.473
-7.344
-7.298
-7.34
-7.489
-7.751
-8.12
-8.594
-9.163
-9.806
-10.494
-11.181
-11.803
-12.323
-12.717
-12.968
-13.087
-13.069
-12.901
-12.586
-12.113
-11.473
-10.675
-9.715
-8.597
-7.378
-6.158
-5.08
-4.329
-4.037
-4.294
-5.179
-6.72
-8.94
-11.842
-15.346
-19.368
-23.842
-28.722
-34
-39.63
-45.421
-51.082
-56.246
-60.482
-63.457
-64.792
-63.991
-60.842
-55.364
-47.85
-39.035
-29.549
-19.67
-9.861
-0.704
7.797
15.955
24.799
36.239
51.315
70.217
93.222
120.381
150.919
183.158
213.439
236.606
249.005
247.978
231.02
196.043
141.352
67.141
-22.911
-123.001
-228.057
-333.124
-433.344
-523.375
-596.829
-649.505
-680.413
-690.481
-681.524
-655.963
-616.072
-565.704
-510.558
-454.719
-401.239
-352.155
-307.733
-268.09
-233.818
-204.097
-177.321
-152.909
-129.5
-106.254
-83.93
-62.879
-43.23
-25.715
-10.546
2.585
12.897
19.972
24.232
25.815
25.24
23.242
19.931
15.366
10.209
5.025
0.27
-3.539
-6.308
-8.056
-8.618
-7.908
-5.959
-2.825
1.308
6.201
11.713
17.706
24.054
30.636
37.266
43.726
49.841
55.489
60.604
65.164
69.141
72.514
75.296
77.535
79.313
80.716
81.808
82.646
83.286
83.793
84.255
84.768
85.401
86.201
87.2
88.417
89.873
91.584
93.549
95.749
98.168
100.79
103.607
106.615
109.801
113.146
116.629
120.227
123.922
127.696
131.531
135.406
139.303
143.203
147.089
150.948
154.76
158.504
162.159
165.701
169.108
172.359
175.43
178.3
180.947
183.353
185.501
187.374
188.959
190.241
191.208
191.851
192.161
192.13
191.755
191.03
189.955
188.529
186.756
184.64
182.185
179.399
176.29
172.868
169.147
165.137
160.855
156.315
151.535
146.532
141.326
135.937
130.385
124.691
118.876
112.964
106.976
100.933
94.858
88.771
82.693
76.645
70.647
64.718
58.876
53.139
47.523
42.045
36.719
31.559
26.577
21.784
17.19
12.805
8.636
4.689
0.969
-2.52
-5.774
-8.794
-11.578
-14.128
-16.446
-18.534
-20.399
-22.044
-23.477
-24.703
-25.732
-26.571
-27.229
-27.716
-28.041
-28.216
-28.25
-28.154
-27.939
-27.616
-27.196
-26.69
-26.109
-25.463
-24.761
-24.015
-23.233
-22.424
-21.598
-20.762
-19.925
-19.093
-18.274
-17.474
-16.698
-15.951
-15.238
-14.563
-13.929
-13.339
-12.794
-12.298
-11.851
-11.456
-11.111
-10.819
-10.579
-10.392
-10.257
-10.174
-10.141
-10.158
-10.223
-10.336
-10.495
-10.699
-10.947
-11.237
-11.569
-11.94
-12.348
-12.792
-13.27
-13.778
-14.315
-14.878
-15.465
-16.073
-16.701
-17.346
-18.005
-18.677
-19.358
-20.047
-20.739
-21.431
-22.119
-22.801
-23.471
-24.126
-24.761
-25.372
-25.956
-26.509
-27.025
-27.501
-27.932
-28.312
-28.636
-28.9
-29.099
-29.228
-29.284
-29.265
-29.169
-28.994
-28.74
-28.407
-27.992
-27.499
-26.926
-26.276
-25.549
-24.747
-23.874
-22.936
-21.937
-20.883
-19.782
-18.641
-17.47
-16.278
-15.077
-13.872
-12.674
-11.49
-10.328
-9.198
-8.109
-7.067
-6.081
-5.16
-4.315
-3.557
-2.897
-2.338
-1.885
-1.541
-1.307
-1.187
-1.179
-1.276
-1.478
-1.784
-2.2
-2.743
-3.419
-4.218
-5.129
-6.128
-7.181
-8.26
-9.328
-10.332
-11.242
-12.032
-12.691
-13.234
-13.662
-13.965
-14.131
-14.119
-13.894
-13.462
-12.835
-12.049
-11.203
-10.383
-9.707
-9.334
-9.378
-9.916
-11
-12.613
-14.712
-17.264
-20.217
-23.55
-27.279
-31.384
-35.801
-40.383
-44.863
-48.945
-52.295
-54.555
-55.317
-54.126
-50.778
-45.352
-38.226
-30.078
-21.457
-12.595
-3.859
4.213
11.619
18.726
26.581
37.05
51.135
68.903
90.446
115.685
143.764
173.02
199.998
219.802
229.035
225.342
206.516
170.816
116.892
45.096
-40.978
-135.771
-234.623
-333.001
-426.242
-509.396
-576.514
-623.637
-650.253
-657.621
-647.354
-621.698
-583.167
-535.496
-484.403
-434.195
-386.984
-343.939
-305.301
-270.99
-241.132
-214.858
-189.974
-165.15
-139.995
-114.555
-89.691
-66.146
-44.257
-24.698
-8.35
4.359
13.297
18.639
21.003
20.937
18.921
15.549
11.308
6.633
1.97
-2.372
-6.122
-9.034
-10.971
-11.837
-11.551
-10.104
-7.512
-3.83
0.791
6.19
12.205
18.64
25.342
32.143
38.832
45.248
51.259
56.757
61.704
66.082
69.861
73.051
75.688
77.814
79.506
80.838
81.865
82.662
83.301
83.863
84.45
85.135
85.97
86.996
88.238
89.713
91.437
93.415
95.631
98.074
100.733
103.597
106.662
109.916
113.342
116.919
120.622
124.43
128.326
132.29
136.302
140.341
144.389
148.428
152.443
156.415
160.322
164.141
167.846
171.415
174.823
178.048
181.065
183.851
186.387
188.652
190.632
192.309
193.668
194.698
195.385
195.722
195.701
195.315
194.56
193.434
191.938
190.074
187.846
185.26
182.323
179.044
175.434
171.507
167.275
162.755
157.963
152.917
147.636
142.141
136.453
130.594
124.587
118.455
112.222
105.91
99.544
93.147
86.741
80.348
73.991
67.691
61.467
55.34
49.327
43.446
37.715
32.148
26.758
21.56
16.565
11.781
7.22
2.887
-1.211
-5.068
-8.682
-12.05
-15.172
-18.047
-20.677
-23.065
-25.214
-27.13
-28.819
-30.286
-31.54
-32.589
-33.443
-34.109
-34.6
-34.925
-35.096
-35.123
-35.018
-34.792
-34.456
-34.022
-33.501
-32.904
-32.24
-31.522
-30.757
-29.956
-29.128
-28.281
-27.423
-26.561
-25.703
-24.855
-24.022
-23.209
-22.422
-21.663
-20.938
-20.249
-19.598
-18.988
-18.421
-17.897
-17.418
-16.984
-16.594
-16.248
-15.946
-15.687
-15.469
-15.293
-15.155
-15.056
-14.994
-14.968
-14.976
-15.017
-15.089
-15.192
-15.324
-15.484
-15.67
-15.883
-16.122
-16.386
-16.674
-16.986
-17.322
-17.679
-18.057
-18.454
-18.87
-19.304
-19.753
-20.218
-20.696
-21.188
-21.691
-22.205
-22.727
-23.256
-23.79
-24.325
-24.86
-25.391
-25.913
-26.425
-26.923
-27.403
-27.862
-28.297
-28.704
-29.079
-29.416
-29.711
-29.959
-30.155
-30.295
-30.373
-30.388
-30.338
-30.219
-30.032
-29.774
-29.446
-29.046
-28.575
-28.032
-27.419
-26.735
-25.981
-25.163
-24.284
-23.35
-22.364
-21.336
-20.271
-19.181
-18.073
-16.955
-15.834
-14.717
-13.611
-12.523
-11.461
-10.43
-9.438
-8.495
-7.609
-6.793
-6.057
-5.407
-4.849
-4.386
-4.022
-3.757
-3.591
-3.518
-3.536
-3.648
-3.863
-4.194
-4.649
-5.223
-5.909
-6.692
-7.543
-8.426
-9.294
-10.094
-10.785
-11.348
-11.77
-12.059
-12.216
-12.233
-12.102
-11.802
-11.312
-10.624
-9.738
-8.672
-7.499
-6.34
-5.342
-4.679
-4.487
-4.848
-5.831
-7.45
-9.704
-12.561
-15.945
-19.791
-24.057
-28.723
-33.778
-39.144
-44.597
-49.801
-54.352
-57.804
-59.798
-59.944
-57.808
-53.259
-46.428
-37.754
-28.056
-17.964
-7.811
1.923
10.851
19.168
27.485
37.041
49.534
65.87
86.287
111.046
139.8
170.989
201.763
227.878
244.855
249.234
238.312
209.487
160.789
92.288
6.805
-90.609
-194.466
-299.448
-400.379
-491.502
-566.364
-620.63
-653.122
-664.709
-657.232
-633.147
-595.173
-547.417
-495.804
-444.828
-396.892
-353.307
-314.311
-279.824
-249.888
-223.466
-198.27
-172.881
-146.839
-120.226
-93.914
-68.674
-44.923
-23.415
-5.151
9.337
19.88
26.621
30.127
30.936
29.5
26.365
22.077
17.098
11.857
6.753
2.099
-1.832
-4.821
-6.742
-7.512
-7.084
-5.461
-2.696
1.101
5.776
11.162
17.108
23.455
30.042
36.69
43.187
49.351
55.06
60.23
64.822
68.813
72.188
74.96
77.179
78.916
80.244
81.232
81.933
82.409
82.735
82.996
83.284
83.671
84.205
84.923
85.848
86.999
88.388
90.017
91.866
93.921
96.169
98.601
101.212
103.993
106.925
109.988
113.162
116.427
119.769
123.17
126.611
130.074
133.541
136.997
140.43
143.822
147.153
150.403
153.55
156.573
159.451
162.163
164.687
167.004
169.097
170.948
172.543
173.87
174.914
175.667
176.117
176.259
176.086
175.594
174.78
173.643
172.183
170.405
168.311
165.907
163.201
160.2
156.916
153.359
149.543
145.481
141.188
136.681
131.976
127.092
122.048
116.862
111.555
106.148
100.659
95.111
89.524
83.917
78.309
72.72
67.169
61.673
56.249
50.913
45.682
40.57
35.59
30.755
26.078
21.569
17.237
13.09
9.137
5.383
1.833
-1.509
-4.639
-7.557
-10.262
-12.754
-15.034
-17.106
-18.972
-20.638
-22.107
-23.387
-24.483
-25.403
-26.155
-26.748
-27.189
-27.489
-27.656
-27.699
-27.629
-27.455
-27.187
-26.835
-26.407
-25.913
-25.363
-24.765
-24.128
-23.46
-22.769
-22.062
-21.346
-20.628
-19.913
-19.206
-18.514
-17.84
-17.188
-16.562
-15.964
-15.398
-14.864
-14.366
-13.904
-13.478
-13.089
-12.738
-12.423
-12.145
-11.903
-11.695
-11.521
-11.379
-11.268
-11.187
-11.134
-11.106
-11.104
-11.123
-11.164
-11.224
-11.302
-11.396
-11.506
-11.63
-11.766
-11.916
-12.078
-12.252
-12.437
-12.634
-12.841
-13.06
-13.29
-13.532
-13.787
-14.054
-14.336
-14.633
-14.945
-15.274
-15.618
-15.98
-16.358
-16.752
-17.164
-17.592
-18.037
-18.497
-18.974
-19.467
-19.976
-20.499
-21.034
-21.58
-22.135
-22.696
-23.261
-23.826
-24.386
-24.94
-25.484
-26.014
-26.528
-27.02
-27.486
-27.922
-28.324
-28.685
-29.002
-29.268
-29.479
-29.632
-29.724
-29.752
-29.715
-29.61
-29.436
-29.191
-28.876
-28.49
-28.032
-27.501
-26.898
-26.226
-25.49
-24.692
-23.839
-22.936
-21.99
-21.012
-20.009
-18.99
-17.961
-16.928
-15.9
-14.883
-13.883
-12.906
-11.957
-11.045
-10.18
-9.373
-8.633
-7.965
-7.378
-6.878
-6.466
-6.148
-5.923
-5.783
-5.729
-5.765
-5.897
-6.143
-6.507
-6.983
-7.567
-8.247
-9
-9.795
-10.58
-11.29
-11.884
-12.338
-12.638
-12.79
-12.787
-12.611
-12.263
-11.732
-11.008
-10.095
-8.985
-7.683
-6.253
-4.806
-3.5
-2.525
-2.017
-2.064
-2.746
-4.095
-6.144
-8.893
-12.257
-16.149
-20.506
-25.294
-30.526
-36.147
-41.946
-47.597
-52.694
-56.784
-59.53
-60.543
-59.324
-55.65
-49.549
-41.36
-31.88
-21.797
-11.396
-1.103
8.525
17.567
26.476
36.322
49.056
65.919
87.113
112.926
143.494
177.564
212.838
245.451
269.95
282.158
279.291
258.456
217.139
154.55
71.871
-26.791
-134.884
-246.707
-357.159
-460.631
-551.363
-623.923
-674.65
-702.899
-710.183
-698.161
-668.99
-625.233
-570.108
-508.51
-444.828
-382.016
-322.5
-267.936
-219.211
-177.682
-144.441
-118.547
-98.814
-83.948
-71.888
-61.631
-52.884
-44.571
-35.545
-25.669
-14.993
-4.232
5.011
12.121
17.142
19.891
20.339
18.627
14.923
9.942
4.875
0.448
-2.971
-5.167
-6.162
-5.906
-4.3
-1.432
2.461
7.151
12.44
18.197
24.351
30.785
37.321
43.735
49.82
55.445
60.529
65.041
68.97
72.297
75.027
77.208
78.9
80.178
81.11
81.739
82.119
82.32
82.423
82.53
82.728
83.068
83.59
84.32
85.274
86.467
87.903
89.565
91.438
93.511
95.778
98.236
100.878
103.689
106.65
109.739
112.937
116.229
119.597
123.022
126.488
129.977
133.473
136.965
140.436
143.867
147.236
150.522
153.702
156.757
159.664
162.401
164.949
167.287
169.4
171.271
172.886
174.231
175.293
176.062
176.529
176.686
176.527
176.048
175.245
174.117
172.666
170.895
168.807
166.407
163.703
160.703
157.418
153.859
150.038
145.969
141.668
137.15
132.432
127.534
122.472
117.268
111.94
106.509
100.995
95.419
89.802
84.162
78.519
72.893
67.303
61.767
56.302
50.925
45.652
40.499
35.48
30.608
25.895
21.353
16.992
12.82
8.846
5.077
1.517
-1.828
-4.955
-7.862
-10.548
-13.014
-15.259
-17.288
-19.102
-20.706
-22.106
-23.307
-24.316
-25.141
-25.79
-26.272
-26.595
-26.77
-26.807
-26.716
-26.508
-26.193
-25.783
-25.287
-24.716
-24.081
-23.392
-22.659
-21.891
-21.098
-20.289
-19.471
-18.653
-17.842
-17.046
-16.269
-15.519
-14.799
-14.115
-13.47
-12.869
-12.313
-11.805
-11.347
-10.94
-10.584
-10.279
-10.026
-9.822
-9.667
-9.559
-9.497
-9.477
-9.497
-9.556
-9.649
-9.774
-9.929
-10.11
-10.314
-10.537
-10.778
-11.034
-11.301
-11.577
-11.86
-12.148
-12.44
-12.733
-13.028
-13.322
-13.614
-13.905
-14.192
-14.478
-14.76
-15.039
-15.317
-15.594
-15.871
-16.149
-16.43
-16.715
-17.006
-17.303
-17.608
-17.923
-18.247
-18.582
-18.93
-19.29
-19.665
-20.055
-20.461
-20.883
-21.319
-21.77
-22.235
-22.71
-23.195
-23.686
-24.181
-24.677
-25.17
-25.659
-26.141
-26.61
-27.065
-27.499
-27.91
-28.291
-28.638
-28.944
-29.206
-29.417
-29.575
-29.676
-29.717
-29.695
-29.607
-29.452
-29.226
-28.929
-28.559
-28.114
-27.594
-27
-26.335
-25.603
-24.806
-23.951
-23.045
-22.096
-21.113
-20.103
-19.073
-18.029
-16.978
-15.927
-14.881
-13.845
-12.825
-11.833
-10.875
-9.966
-9.114
-8.329
-7.619
-6.991
-6.451
-6.001
-5.642
-5.369
-5.184
-5.091
-5.098
-5.22
-5.463
-5.822
-6.293
-6.867
-7.52
-8.222
-8.924
-9.568
-10.116
-10.544
-10.843
-11.016
-11.057
-10.952
-10.7
-10.288
-9.715
-8.983
-8.085
-7.029
-5.865
-4.691
-3.652
-2.917
-2.608
-2.806
-3.578
-4.955
-6.966
-9.629
-12.886
-16.652
-20.851
-25.422
-30.339
-35.582
-41.012
-46.343
-51.214
-55.214
-57.978
-59.238
-58.649
-55.783
-50.47
-42.824
-33.293
-22.722
-11.807
-0.817
9.805
19.434
28.074
36.142
44.732
55.893
70.993
90.301
114.193
142.9
175.18
208.708
239.56
262.161
272.174
266.697
242.769
197.877
131.402
44.842
-57.408
-168.568
-282.656
-394.316
-497.76
-587.058
-656.854
-703.778
-727.437
-729.624
-712.316
-677.926
-629.326
-570.084
-505.214
-439.129
-374.77
-314.383
-259.486
-210.903
-169.801
-137.117
-111.849
-92.694
-78.34
-66.832
-57.194
-49.135
-41.599
-33.368
-24.267
-14.378
-4.378
4.178
10.702
15.29
17.743
17.965
16.082
12.26
7.212
2.148
-2.213
-5.536
-7.604
-8.438
-7.996
-6.181
-3.104
0.979
5.834
11.26
17.131
23.39
29.926
36.56
43.075
49.262
54.988
60.179
64.801
68.839
72.277
75.118
77.415
79.237
80.658
81.748
82.551
83.118
83.517
83.831
84.158
84.583
85.156
85.915
86.886
88.083
89.522
91.204
93.11
95.224
97.533
100.028
102.706
105.559
108.569
111.718
114.983
118.344
121.787
125.294
128.845
132.423
136.009
139.591
143.154
146.681
150.154
153.55
156.848
160.027
163.065
165.942
168.634
171.122
173.388
175.414
177.188
178.693
179.917
180.848
181.477
181.795
181.797
181.477
180.832
179.86
178.561
176.937
174.993
172.733
170.163
167.292
164.128
160.683
156.969
152.999
148.787
144.349
139.701
134.862
129.848
124.68
119.377
113.958
108.445
102.857
97.214
91.537
85.846
80.159
74.495
68.872
63.309
57.821
52.426
47.137
41.971
36.939
32.055
27.331
22.775
18.399
14.209
10.214
6.42
2.832
-0.546
-3.711
-6.661
-9.394
-11.912
-14.215
-16.305
-18.186
-19.86
-21.334
-22.613
-23.703
-24.611
-25.345
-25.912
-26.322
-26.583
-26.705
-26.697
-26.569
-26.33
-25.991
-25.561
-25.049
-24.466
-23.82
-23.121
-22.377
-21.598
-20.792
-19.967
-19.13
-18.289
-17.451
-16.623
-15.809
-15.017
-14.25
-13.514
-12.812
-12.148
-11.525
-10.945
-10.411
-9.924
-9.484
-9.094
-8.751
-8.458
-8.212
-8.013
-7.861
-7.753
-7.688
-7.665
-7.682
-7.737
-7.828
-7.952
-8.108
-8.293
-8.504
-8.74
-8.997
-9.273
-9.566
-9.874
-10.194
-10.525
-10.865
-11.212
-11.566
-11.924
-12.285
-12.649
-13.014
-13.38
-13.747
-14.115
-14.484
-14.854
-15.226
-15.6
-15.977
-16.357
-16.739
-17.123
-17.511
-17.901
-18.295
-18.691
-19.091
-19.494
-19.901
-20.313
-20.727
-21.145
-21.565
-21.987
-22.408
-22.828
-23.244
-23.654
-24.055
-24.447
-24.826
-25.191
-25.538
-25.864
-26.166
-26.439
-26.68
-26.884
-27.046
-27.163
-27.231
-27.248
-27.213
-27.123
-26.978
-26.774
-26.513
-26.194
-25.816
-25.378
-24.88
-24.322
-23.706
-23.036
-22.315
-21.546
-20.735
-19.888
-19.014
-18.121
-17.213
-16.298
-15.382
-14.47
-13.57
-12.686
-11.822
-10.985
-10.181
-9.42
-8.713
-8.068
-7.491
-6.987
-6.563
-6.22
-5.964
-5.791
-5.695
-5.675
-5.734
-5.88
-6.131
-6.489
-6.95
-7.511
-8.161
-8.879
-9.636
-10.381
-11.051
-11.608
-12.029
-12.297
-12.422
-12.393
-12.191
-11.818
-11.264
-10.517
-9.587
-8.464
-7.156
-5.73
-4.298
-3.015
-2.074
-1.606
-1.695
-2.426
-3.833
-5.95
-8.793
-12.269
-16.287
-20.792
-25.741
-31.127
-36.896
-42.818
-48.549
-53.695
-57.803
-60.534
-61.53
-60.287
-56.585
-50.474
-42.27
-32.791
-22.761
-12.464
-2.365
6.908
15.418
23.594
32.468
44.06
59.665
79.531
104.102
133.629
166.922
201.703
234.022
258.341
270.385
267.234
245.846
203.516
139.311
54.462
-46.749
-157.579
-272.005
-384.716
-489.967
-581.499
-653.548
-702.276
-726.857
-729.249
-711.751
-676.66
-626.782
-566.116
-500.016
-433.575
-370.542
-312.593
-260.537
-215.195
-177.544
-148.051
-125.499
-107.712
-92.371
-78.293
-65.334
-53.372
-41.813
-29.718
-16.946
-4.349
6.587
14.884
20.505
23.743
24.838
23.7
20.332
15.29
9.643
4.36
-0.026
-3.299
-5.466
-6.452
-6.09
-4.363
-1.419
2.526
7.245
12.581
18.463
24.789
31.409
38.135
44.722
50.972
56.763
62.016
66.694
70.783
74.257
77.123
79.431
81.246
82.646
83.698
84.447
84.949
85.277
85.517
85.778
86.141
86.656
87.361
88.278
89.425
90.818
92.457
94.326
96.406
98.687
101.159
103.82
106.663
109.669
112.818
116.087
119.457
122.913
126.436
130.007
133.609
137.223
140.836
144.434
148.001
151.515
154.957
158.304
161.532
164.623
167.553
170.301
172.846
175.169
177.255
179.086
180.65
181.933
182.922
183.608
183.983
184.039
183.771
183.176
182.25
180.995
179.412
177.504
175.277
172.736
169.889
166.746
163.318
159.616
155.655
151.448
147.011
142.362
137.518
132.497
127.32
122.005
116.572
111.044
105.44
99.781
94.087
88.378
82.674
76.993
71.354
65.775
60.273
54.865
49.565
44.389
39.351
34.462
29.736
25.181
20.808
16.625
12.639
8.857
5.283
1.921
-1.227
-4.157
-6.871
-9.369
-11.652
-13.723
-15.586
-17.245
-18.705
-19.973
-21.056
-21.961
-22.695
-23.268
-23.689
-23.966
-24.11
-24.129
-24.035
-23.835
-23.542
-23.164
-22.711
-22.193
-21.62
-20.999
-20.341
-19.653
-18.943
-18.22
-17.49
-16.761
-16.039
-15.329
-14.637
-13.967
-13.325
-12.714
-12.136
-11.595
-11.094
-10.633
-10.214
-9.839
-9.507
-9.22
-8.976
-8.774
-8.616
-8.498
-8.42
-8.381
-8.379
-8.411
-8.478
-8.575
-8.703
-8.858
-9.039
-9.243
-9.47
-9.716
-9.98
-10.26
-10.553
-10.86
-11.178
-11.505
-11.842
-12.186
-12.538
-12.897
-13.262
-13.633
-14.009
-14.391
-14.779
-15.173
-15.573
-15.979
-16.394
-16.816
-17.248
-17.688
-18.139
-18.599
-19.069
-19.548
-20.037
-20.535
-21.042
-21.557
-22.08
-22.611
-23.149
-23.694
-24.244
-24.797
-25.352
-25.906
-26.457
-27.002
-27.538
-28.061
-28.568
-29.056
-29.523
-29.964
-30.376
-30.755
-31.095
-31.394
-31.645
-31.844
-31.986
-32.067
-32.085
-32.036
-31.92
-31.734
-31.478
-31.15
-30.751
-30.28
-29.738
-29.124
-28.439
-27.684
-26.864
-25.983
-25.044
-24.056
-23.022
-21.953
-20.857
-19.743
-18.619
-17.492
-16.37
-15.258
-14.165
-13.098
-12.062
-11.065
-10.116
-9.226
-8.406
-7.667
-7.017
-6.46
-6
-5.641
-5.382
-5.225
-5.161
-5.19
-5.316
-5.544
-5.891
-6.364
-6.96
-7.669
-8.476
-9.353
-10.261
-11.159
-11.993
-12.724
-13.332
-13.806
-14.156
-14.382
-14.476
-14.426
-14.209
-13.8
-13.188
-12.379
-11.385
-10.277
-9.177
-8.221
-7.576
-7.375
-7.696
-8.597
-10.1
-12.203
-14.883
-18.084
-21.747
-25.839
-30.348
-35.256
-40.496
-45.847
-50.967
-55.481
-58.965
-61.076
-61.465
-59.673
-55.513
-49.082
-40.747
-31.268
-21.316
-11.155
-1.207
7.896
16.201
24.142
32.729
43.932
59.021
78.214
101.925
130.438
162.606
196.235
227.511
250.984
262.441
259.027
237.75
195.96
132.748
49.293
-50.239
-159.245
-271.822
-382.758
-486.401
-576.613
-647.715
-695.92
-720.39
-722.983
-705.91
-671.405
-622.204
-562.25
-496.841
-431.002
-368.436
-310.844
-259.05
-213.887
-176.339
-146.856
-124.218
-106.28
-90.765
-76.51
-63.383
-51.268
-39.582
-27.414
-14.641
-2.107
8.731
16.921
22.441
25.584
26.596
25.397
21.998
16.956
11.324
6.06
1.686
-1.582
-3.749
-4.742
-4.395
-2.692
0.221
4.13
8.811
14.109
19.95
26.233
32.807
39.485
46.024
52.224
57.966
63.167
67.794
71.83
75.251
78.064
80.317
82.077
83.421
84.415
85.106
85.546
85.81
85.984
86.176
86.468
86.91
87.541
88.383
89.455
90.774
92.341
94.139
96.151
98.368
100.779
103.385
106.178
109.14
112.251
115.491
118.839
122.281
125.799
129.375
132.991
136.629
140.275
143.916
147.536
151.114
154.629
158.059
161.38
164.572
167.613
170.479
173.15
175.605
177.828
179.802
181.512
182.942
184.08
184.915
185.437
185.638
185.511
185.051
184.254
183.121
181.651
179.846
177.711
175.251
172.472
169.384
165.997
162.322
158.372
154.161
149.704
145.019
140.123
135.035
129.773
124.36
118.814
113.157
107.411
101.597
95.736
89.848
83.955
78.077
72.233
66.443
60.725
55.097
49.575
44.175
38.914
33.803
28.857
24.086
19.501
15.111
10.925
6.948
3.188
-0.353
-3.671
-6.763
-9.63
-12.272
-14.69
-16.886
-18.866
-20.633
-22.193
-23.553
-24.72
-25.702
-26.507
-27.146
-27.627
-27.96
-28.157
-28.227
-28.182
-28.032
-27.788
-27.46
-27.059
-26.596
-26.079
-25.519
-24.925
-24.305
-23.668
-23.021
-22.372
-21.727
-21.092
-20.474
-19.876
-19.304
-18.761
-18.25
-17.775
-17.338
-16.94
-16.582
-16.266
-15.992
-15.759
-15.568
-15.417
-15.305
-15.231
-15.194
-15.192
-15.223
-15.285
-15.377
-15.495
-15.638
-15.805
-15.992
-16.199
-16.423
-16.664
-16.921
-17.191
-17.474
-17.77
-18.079
-18.398
-18.728
-19.069
-19.421
-19.784
-20.158
-20.543
-20.941
-21.352
-21.776
-22.213
-22.665
-23.132
-23.612
-24.106
-24.615
-25.137
-25.672
-26.221
-26.782
-27.354
-27.938
-28.532
-29.133
-29.74
-30.351
-30.961
-31.57
-32.173
-32.766
-33.345
-33.907
-34.448
-34.965
-35.453
-35.908
-36.325
-36.699
-37.024
-37.296
-37.51
-37.661
-37.745
-37.759
-37.701
-37.569
-37.362
-37.078
-36.717
-36.279
-35.763
-35.171
-34.503
-33.761
-32.948
-32.069
-31.128
-30.131
-29.086
-27.999
-26.88
-25.738
-24.584
-23.424
-22.267
-21.121
-19.993
-18.892
-17.828
-16.805
-15.834
-14.922
-14.08
-13.321
-12.653
-12.084
-11.617
-11.254
-10.999
-10.854
-10.818
-10.885
-11.053
-11.323
-11.7
-12.201
-12.835
-13.591
-14.459
-15.417
-16.428
-17.467
-18.496
-19.464
-20.337
-21.089
-21.709
-22.213
-22.604
-22.872
-23.004
-22.958
-22.695
-22.221
-21.544
-20.697
-19.774
-18.86
-18.067
-17.562
-17.46
-17.842
-18.763
-20.21
-22.14
-24.522
-27.312
-30.488
-34.072
-38.048
-42.358
-46.864
-51.308
-55.397
-58.794
-61.13
-61.983
-60.874
-57.579
-52.161
-44.99
-36.745
-27.987
-18.955
-10.038
-1.808
5.734
12.978
21.037
31.889
46.646
65.44
88.446
115.677
146.292
178.578
208.91
232.082
244.421
243.35
226.41
191.612
137.405
64.033
-24.813
-123.282
-226.443
-329.501
-427.493
-515.137
-586.1
-636.116
-664.573
-672.781
-662.432
-635.881
-595.776
-546.069
-492.809
-440.579
-391.651
-347.237
-307.557
-272.503
-242.17
-215.594
-190.416
-165.164
-139.353
-113.042
-87.155
-62.496
-39.464
-18.774
-1.365
12.285
22.019
27.993
30.818
31.068
29.243
25.925
21.605
16.692
11.595
6.682
2.275
-1.346
-3.994
-5.569
-5.99
-5.217
-3.249
-0.132
3.995
8.958
14.576
20.682
27.138
33.806
40.51
47.048
53.243
58.973
64.172
68.815
72.874
76.334
79.204
81.536
83.406
84.899
86.084
87.017
87.758
88.379
88.964
89.607
90.378
91.321
92.47
93.847
95.472
97.36
99.51
101.906
104.531
107.37
110.416
113.662
117.097
120.7
124.449
128.322
132.299
136.363
140.493
144.668
148.868
153.073
157.265
161.429
165.544
169.588
173.536
177.364
181.049
184.566
187.892
191.001
193.872
196.484
198.819
200.858
202.586
203.988
205.05
205.762
206.113
206.097
205.707
204.939
203.79
202.263
200.358
198.08
195.434
192.428
189.072
185.377
181.355
177.02
172.389
167.478
162.306
156.892
151.258
145.425
139.415
133.252
126.959
120.561
114.082
107.545
100.975
94.395
87.827
81.294
74.818
68.421
62.121
55.938
49.891
43.997
38.272
32.73
27.385
22.249
17.332
12.645
8.195
3.988
0.031
-3.673
-7.122
-10.315
-13.251
-15.933
-18.362
-20.543
-22.481
-24.182
-25.653
-26.902
-27.938
-28.769
-29.407
-29.861
-30.143
-30.264
-30.236
-30.071
-29.78
-29.376
-28.871
-28.276
-27.604
-26.864
-26.07
-25.231
-24.358
-23.461
-22.548
-21.63
-20.714
-19.808
-18.92
-18.055
-17.219
-16.418
-15.657
-14.94
-14.271
-13.653
-13.089
-12.581
-12.131
-11.74
-11.409
-11.139
-10.93
-10.781
-10.692
-10.663
-10.692
-10.779
-10.922
-11.121
-11.372
-11.674
-12.024
-12.419
-12.857
-13.335
-13.85
-14.399
-14.979
-15.586
-16.219
-16.874
-17.548
-18.237
-18.938
-19.645
-20.356
-21.066
-21.77
-22.463
-23.142
-23.801
-24.436
-25.044
-25.619
-26.158
-26.654
-27.102
-27.498
-27.837
-28.113
-28.323
-28.461
-28.527
-28.517
-28.432
-28.268
-28.026
-27.705
-27.305
-26.827
-26.271
-25.639
-24.932
-24.152
-23.306
-22.397
-21.433
-20.418
-19.36
-18.269
-17.156
-16.028
-14.895
-13.764
-12.642
-11.538
-10.462
-9.421
-8.422
-7.473
-6.584
-5.764
-5.027
-4.382
-3.833
-3.385
-3.04
-2.8
-2.669
-2.645
-2.722
-2.899
-3.177
-3.561
-4.071
-4.712
-5.476
-6.352
-7.319
-8.341
-9.393
-10.435
-11.416
-12.303
-13.072
-13.711
-14.235
-14.644
-14.931
-15.083
-15.062
-14.833
-14.402
-13.778
-13.001
-12.168
-11.368
-10.719
-10.381
-10.463
-11.049
-12.194
-13.888
-16.093
-18.763
-21.836
-25.288
-29.135
-33.355
-37.881
-42.552
-47.086
-51.192
-54.541
-56.786
-57.528
-56.29
-52.859
-47.32
-40.06
-31.806
-23.144
-14.297
-5.628
2.308
9.525
16.39
23.968
34.237
48.263
66.115
87.886
113.442
141.847
171.373
198.451
218.076
226.815
222.298
202.332
165.273
109.852
36.559
-50.82
-146.649
-246.235
-345.014
-438.349
-521.294
-587.886
-634.234
-659.93
-666.295
-655.001
-628.32
-588.751
-540.094
-488.133
-437.214
-389.484
-346.043
-307.046
-272.392
-242.188
-215.543
-190.251
-164.935
-139.159
-113.027
-87.461
-63.251
-40.784
-20.711
-3.886
9.267
18.628
24.349
27.011
27.174
25.324
22.02
17.732
12.847
7.753
2.827
-1.598
-5.24
-7.913
-9.523
-9.998
-9.3
-7.425
-4.42
-0.42
4.404
9.877
15.839
22.164
28.715
35.325
41.789
47.929
53.624
58.808
63.456
67.544
71.053
73.995
76.419
78.407
80.039
81.383
82.493
83.426
84.251
85.051
85.916
86.913
88.086
89.465
91.07
92.919
95.025
97.385
99.979
102.787
105.794
108.988
112.362
115.901
119.584
123.386
127.285
131.258
135.289
139.354
143.433
147.504
151.547
155.545
159.479
163.332
167.079
170.697
174.163
177.454
180.547
183.419
186.048
188.413
190.497
192.282
193.753
194.898
195.703
196.158
196.256
195.99
195.356
194.35
192.972
191.223
189.107
186.628
183.795
180.616
177.1
173.259
169.109
164.663
159.938
154.952
149.724
144.273
138.622
132.791
126.805
120.685
114.456
108.142
101.766
95.353
88.926
82.508
76.121
69.788
63.528
57.362
51.309
45.388
39.614
34.005
28.574
23.335
18.3
13.479
8.882
4.517
0.389
-3.495
-7.133
-10.521
-13.66
-16.548
-19.187
-21.581
-23.734
-25.649
-27.334
-28.795
-30.041
-31.081
-31.922
-32.577
-33.056
-33.368
-33.527
-33.543
-33.429
-33.196
-32.856
-32.421
-31.902
-31.311
-30.659
-29.956
-29.213
-28.44
-27.645
-26.838
-26.026
-25.217
-24.418
-23.636
-22.876
-22.143
-21.442
-20.775
-20.148
-19.561
-19.018
-18.519
-18.066
-17.659
-17.299
-16.985
-16.717
-16.494
-16.314
-16.177
-16.08
-16.022
-15.999
-16.012
-16.056
-16.132
-16.235
-16.365
-16.521
-16.699
-16.9
-17.121
-17.361
-17.618
-17.892
-18.182
-18.487
-18.808
-19.143
-19.494
-19.859
-20.24
-20.637
-21.048
-21.474
-21.914
-22.368
-22.835
-23.316
-23.81
-24.315
-24.833
-25.362
-25.902
-26.45
-27.007
-27.568
-28.133
-28.698
-29.261
-29.817
-30.364
-30.899
-31.417
-31.916
-32.393
-32.843
-33.262
-33.644
-33.986
-34.281
-34.525
-34.713
-34.838
-34.899
-34.892
-34.815
-34.666
-34.443
-34.146
-33.773
-33.324
-32.798
-32.197
-31.52
-30.768
-29.945
-29.055
-28.104
-27.097
-26.042
-24.946
-23.819
-22.672
-21.511
-20.344
-19.179
-18.022
-16.881
-15.763
-14.675
-13.625
-12.623
-11.678
-10.803
-10.011
-9.308
-8.702
-8.195
-7.791
-7.493
-7.299
-7.204
-7.206
-7.309
-7.519
-7.851
-8.314
-8.903
-9.61
-10.42
-11.304
-12.225
-13.14
-13.994
-14.748
-15.382
-15.882
-16.255
-16.504
-16.622
-16.599
-16.412
-16.041
-15.47
-14.702
-13.747
-12.671
-11.591
-10.636
-9.968
-9.718
-9.964
-10.769
-12.16
-14.141
-16.679
-19.715
-23.182
-27.036
-31.275
-35.891
-40.817
-45.842
-50.64
-54.851
-58.081
-60.014
-60.285
-58.429
-54.244
-47.81
-39.515
-30.129
-20.317
-10.344
-0.589
8.372
16.59
24.501
33.13
44.427
59.67
79.09
102.968
131.416
163.2
196.098
226.445
249.04
259.833
256.096
234.981
194.042
132.621
52.089
-43.497
-147.913
-255.61
-361.556
-459.975
-544.631
-610.157
-653.448
-674.351
-674.88
-657.256
-624.01
-578.698
-526.228
-472.037
-420.048
-372.242
-329.245
-291.149
-257.894
-229.095
-203.388
-178.712
-153.856
-128.527
-103.049
-78.258
-54.827
-33.215
-14.143
1.562
13.51
21.653
26.25
27.906
27.16
24.51
20.534
15.73
10.536
5.378
0.582
-3.571
-6.83
-9.057
-10.162
-10.078
-8.804
-6.365
-2.829
1.645
6.886
12.728
18.98
25.49
32.091
38.575
44.776
50.554
55.803
60.485
64.577
68.055
70.928
73.231
75.014
76.361
77.347
78.03
78.484
78.781
79.001
79.243
79.58
80.062
80.729
81.604
82.703
84.045
85.631
87.447
89.481
91.72
94.153
96.775
99.576
102.537
105.638
108.856
112.172
115.57
119.032
122.54
126.076
129.623
133.164
136.688
140.177
143.611
146.969
150.228
153.368
156.367
159.206
161.861
164.313
166.544
168.539
170.283
171.761
172.962
173.873
174.486
174.793
174.788
174.466
173.824
172.86
171.575
169.972
168.055
165.829
163.302
160.48
157.374
153.996
150.357
146.472
142.354
138.02
133.487
128.771
123.893
118.87
113.723
108.471
103.134
97.732
92.286
86.815
81.337
75.872
70.438
65.053
59.732
54.494
49.352
44.321
39.416
34.648
30.031
25.573
21.284
17.174
13.248
9.514
5.977
2.641
-0.492
-3.419
-6.139
-8.653
-10.962
-13.069
-14.976
-16.687
-18.207
-19.543
-20.7
-21.686
-22.507
-23.172
-23.69
-24.069
-24.317
-24.445
-24.462
-24.377
-24.2
-23.939
-23.604
-23.205
-22.75
-22.247
-21.705
-21.131
-20.533
-19.918
-19.293
-18.663
-18.035
-17.414
-16.805
-16.211
-15.636
-15.085
-14.558
-14.06
-13.59
-13.152
-12.745
-12.37
-12.028
-11.717
-11.439
-11.192
-10.975
-10.787
-10.627
-10.493
-10.383
-10.297
-10.231
-10.186
-10.159
-10.149
-10.155
-10.177
-10.212
-10.261
-10.323
-10.396
-10.482
-10.578
-10.686
-10.805
-10.936
-11.079
-11.235
-11.405
-11.59
-11.791
-12.007
-12.24
-12.491
-12.76
-13.047
-13.353
-13.679
-14.024
-14.39
-14.777
-15.184
-15.612
-16.06
-16.526
-17.008
-17.506
-18.016
-18.536
-19.061
-19.588
-20.115
-20.638
-21.153
-21.656
-22.143
-22.61
-23.051
-23.462
-23.837
-24.169
-24.455
-24.689
-24.868
-24.989
-25.048
-25.042
-24.969
-24.827
-24.614
-24.33
-23.972
-23.54
-23.031
-22.45
-21.797
-21.077
-20.292
-19.449
-18.554
-17.616
-16.645
-15.647
-14.63
-13.602
-12.569
-11.54
-10.522
-9.517
-8.533
-7.579
-6.662
-5.796
-4.99
-4.249
-3.583
-2.999
-2.505
-2.105
-1.803
-1.591
-1.47
-1.443
-1.517
-1.71
-2.028
-2.465
-3.012
-3.667
-4.41
-5.218
-6.052
-6.838
-7.523
-8.078
-8.482
-8.737
-8.835
-8.751
-8.472
-7.999
-7.332
-6.49
-5.484
-4.302
-2.989
-1.632
-0.363
0.615
1.142
1.124
0.475
-0.855
-2.907
-5.721
-9.265
-13.425
-18.104
-23.23
-28.764
-34.678
-40.806
-46.864
-52.485
-57.209
-60.669
-62.478
-62.134
-59.375
-54.165
-46.725
-37.712
-27.786
-17.28
-6.69
3.336
12.801
22.075
32.224
45.215
62.167
83.255
108.771
138.858
172.684
208.49
242.504
269.148
284.479
285.952
271.052
237.741
184.448
110.935
20.492
-80.7
-187.375
-295.013
-398.89
-494.414
-575.92
-638.105
-678.868
-698.85
-699.298
-681.823
-648.349
-600.985
-543.734
-481.825
-419.453
-359.652
-304.17
-253.905
-209.817
-173.106
-144.075
-121.508
-103.512
-87.986
-73.876
-61.095
-49.478
-38.397
-26.962
-15.006
-3.306
6.734
14.233
19.189
21.896
22.601
21.205
17.7
12.617
6.982
1.741
-2.582
-5.782
-7.867
-8.77
-8.336
-6.55
-3.555
0.423
5.155
10.482
16.328
22.6
29.155
35.809
42.325
48.508
54.239
59.443
64.087
68.157
71.631
74.515
76.861
78.738
80.222
81.381
82.259
82.907
83.396
83.811
84.254
84.802
85.504
86.394
87.495
88.821
90.388
92.196
94.226
96.461
98.887
101.496
104.285
107.244
110.355
113.598
116.949
120.39
123.905
127.475
131.08
134.704
138.326
141.933
145.511
149.042
152.505
155.881
159.146
162.279
165.259
168.064
170.672
173.063
175.221
177.127
178.767
180.128
181.196
181.961
182.413
182.544
182.35
181.824
180.965
179.77
178.243
176.384
174.2
171.696
168.879
165.758
162.344
158.65
154.688
150.474
146.022
141.35
136.475
131.417
126.194
120.827
115.336
109.741
104.065
98.328
92.552
86.755
80.959
75.183
69.446
63.767
58.163
52.651
47.246
41.965
36.82
31.826
26.993
22.333
17.855
13.567
9.478
5.592
1.915
-1.55
-4.8
-7.833
-10.648
-13.247
-15.632
-17.804
-19.767
-21.527
-23.087
-24.455
-25.636
-26.639
-27.471
-28.141
-28.658
-29.031
-29.269
-29.382
-29.38
-29.272
-29.069
-28.781
-28.416
-27.985
-27.496
-26.959
-26.382
-25.773
-25.139
-24.489
-23.83
-23.167
-22.506
-21.855
-21.217
-20.597
-20
-19.428
-18.887
-18.377
-17.901
-17.462
-17.061
-16.698
-16.375
-16.091
-15.847
-15.641
-15.474
-15.344
-15.25
-15.19
-15.163
-15.167
-15.2
-15.26
-15.345
-15.453
-15.583
-15.732
-15.898
-16.08
-16.275
-16.481
-16.698
-16.922
-17.153
-17.389
-17.629
-17.872
-18.117
-18.364
-18.612
-18.86
-19.107
-19.355
-19.602
-19.849
-20.095
-20.343
-20.591
-20.842
-21.096
-21.354
-21.616
-21.884
-22.157
-22.437
-22.723
-23.016
-23.316
-23.623
-23.939
-24.262
-24.593
-24.934
-25.281
-25.636
-25.997
-26.362
-26.73
-27.099
-27.466
-27.828
-28.183
-28.529
-28.862
-29.181
-29.481
-29.76
-30.012
-30.235
-30.423
-30.573
-30.678
-30.735
-30.74
-30.692
-30.588
-30.425
-30.203
-29.919
-29.573
-29.164
-28.691
-28.154
-27.552
-26.885
-26.156
-25.369
-24.525
-23.632
-22.692
-21.714
-20.707
-19.679
-18.636
-17.586
-16.535
-15.49
-14.459
-13.446
-12.456
-11.496
-10.573
-9.698
-8.881
-8.131
-7.455
-6.858
-6.346
-5.923
-5.593
-5.354
-5.199
-5.127
-5.143
-5.254
-5.477
-5.816
-6.267
-6.824
-7.479
-8.206
-8.977
-9.74
-10.429
-11.007
-11.447
-11.735
-11.878
-11.864
-11.675
-11.313
-10.765
-10.021
-9.088
-7.961
-6.646
-5.211
-3.772
-2.486
-1.546
-1.084
-1.184
-1.929
-3.351
-5.481
-8.334
-11.813
-15.825
-20.315
-25.236
-30.578
-36.285
-42.12
-47.734
-52.728
-56.648
-59.152
-59.889
-58.36
-54.355
-47.93
-39.407
-29.607
-19.255
-8.632
1.809
11.45
20.361
28.967
38.271
50.255
66.173
86.229
110.813
140.111
172.886
206.849
238.105
261.222
272.025
267.706
245.361
202.441
138.164
53.853
-46.229
-155.459
-267.939
-378.499
-481.576
-571.112
-641.573
-689.324
-713.609
-716.343
-699.764
-666.076
-617.976
-559.344
-495.338
-430.832
-369.431
-312.763
-261.615
-216.817
-179.341
-149.641
-126.572
-108.095
-92.017
-77.231
-63.638
-51.131
-39.157
-26.841
-14.05
-1.587
9.131
17.184
22.559
25.547
26.402
25.066
21.56
16.428
10.713
5.358
0.885
-2.482
-4.744
-5.827
-5.567
-3.947
-1.108
2.738
7.37
12.628
18.438
24.694
31.245
37.902
44.423
50.608
56.337
61.529
66.147
70.176
73.593
76.403
78.656
80.419
81.767
82.77
83.473
83.931
84.217
84.42
84.646
84.976
85.462
86.14
87.033
88.159
89.534
91.159
93.015
95.086
97.36
99.827
102.487
105.329
108.337
111.49
114.764
118.141
121.604
125.136
128.718
132.33
135.955
139.578
143.186
146.762
150.285
153.734
157.085
160.318
163.41
166.34
169.084
171.623
173.937
176.01
177.827
179.372
180.633
181.598
182.256
182.6
182.622
182.318
181.684
180.717
179.418
177.789
175.834
173.556
170.962
168.061
164.861
161.374
157.612
153.589
149.318
144.816
140.1
135.188
130.099
124.852
119.467
113.964
108.366
102.692
96.964
91.202
85.425
79.655
73.909
68.206
62.565
57.003
51.536
46.179
40.948
35.857
30.917
26.142
21.541
17.125
12.903
8.88
5.065
1.462
-1.924
-5.092
-8.038
-10.762
-13.264
-15.547
-17.613
-19.464
-21.107
-22.545
-23.786
-24.837
-25.705
-26.398
-26.925
-27.296
-27.519
-27.605
-27.564
-27.405
-27.139
-26.776
-26.326
-25.8
-25.207
-24.557
-23.86
-23.124
-22.359
-21.574
-20.776
-19.974
-19.175
-18.385
-17.612
-16.86
-16.135
-15.442
-14.786
-14.169
-13.594
-13.064
-12.581
-12.145
-11.759
-11.421
-11.133
-10.892
-10.7
-10.554
-10.454
-10.396
-10.381
-10.404
-10.465
-10.56
-10.688
-10.846
-11.031
-11.241
-11.473
-11.725
-11.994
-12.277
-12.572
-12.876
-13.187
-13.503
-13.821
-14.141
-14.461
-14.778
-15.094
-15.406
-15.715
-16.02
-16.32
-16.617
-16.91
-17.199
-17.486
-17.772
-18.057
-18.343
-18.631
-18.922
-19.218
-19.52
-19.828
-20.143
-20.466
-20.798
-21.138
-21.489
-21.85
-22.222
-22.606
-23.003
-23.412
-23.832
-24.264
-24.706
-25.156
-25.614
-26.075
-26.539
-27.003
-27.463
-27.919
-28.366
-28.802
-29.223
-29.625
-30.005
-30.356
-30.675
-30.956
-31.195
-31.387
-31.531
-31.622
-31.66
-31.64
-31.562
-31.423
-31.223
-30.96
-30.633
-30.24
-29.782
-29.259
-28.675
-28.032
-27.333
-26.583
-25.789
-24.96
-24.101
-23.219
-22.322
-21.413
-20.5
-19.588
-18.681
-17.784
-16.904
-16.048
-15.225
-14.447
-13.724
-13.062
-12.47
-11.954
-11.519
-11.167
-10.897
-10.704
-10.589
-10.556
-10.613
-10.775
-11.045
-11.421
-11.899
-12.469
-13.109
-13.789
-14.461
-15.066
-15.568
-15.945
-16.186
-16.297
-16.271
-16.097
-15.772
-15.289
-14.643
-13.841
-12.874
-11.752
-10.525
-9.294
-8.207
-7.433
-7.096
-7.279
-8.052
-9.445
-11.491
-14.205
-17.529
-21.376
-25.666
-30.338
-35.364
-40.721
-46.264
-51.703
-56.672
-60.757
-63.591
-64.904
-64.351
-61.503
-56.191
-48.534
-38.974
-28.359
-17.381
-6.307
4.419
14.174
22.957
31.166
39.865
51.054
66.053
85.105
108.569
136.657
168.132
200.675
230.413
251.9
260.902
254.604
230.134
184.987
118.557
32.388
-69.157
-179.37
-292.261
-402.608
-504.762
-592.632
-660.827
-705.932
-727.377
-727.224
-707.83
-671.506
-621.098
-560.612
-495.211
-429.721
-367.659
-310.559
-259.159
-214.256
-176.782
-147.16
-124.242
-105.969
-90.157
-75.737
-62.609
-50.656
-39.291
-27.572
-15.323
-3.349
6.933
14.613
19.681
22.444
23.149
21.697
18.087
12.869
7.092
1.717
-2.731
-6.044
-8.232
-9.223
-8.861
-7.13
-4.183
-0.244
4.457
9.762
15.6
21.875
28.441
35.112
41.647
47.847
53.593
58.807
63.457
67.524
70.989
73.857
76.182
78.033
79.488
80.614
81.456
82.067
82.515
82.889
83.29
83.798
84.462
85.316
86.383
87.678
89.217
90.999
93.003
95.212
97.613
100.195
102.955
105.883
108.962
112.17
115.484
118.885
122.358
125.885
129.446
133.024
136.602
140.164
143.698
147.187
150.613
153.954
157.189
160.296
163.257
166.049
168.651
171.044
173.212
175.136
176.805
178.204
179.32
180.145
180.667
180.881
180.78
180.36
179.619
178.555
177.169
175.463
173.443
171.113
168.479
165.55
162.336
158.847
155.097
151.097
146.864
142.411
137.757
132.918
127.913
122.761
117.481
112.093
106.617
101.074
95.484
89.866
84.24
78.623
73.036
67.496
62.02
56.623
51.323
46.134
41.069
36.143
31.366
26.75
22.306
18.041
13.964
10.083
6.401
2.925
-0.342
-3.398
-6.241
-8.871
-11.288
-13.494
-15.492
-17.285
-18.879
-20.278
-21.488
-22.517
-23.372
-24.061
-24.592
-24.974
-25.216
-25.328
-25.319
-25.198
-24.977
-24.663
-24.267
-23.798
-23.266
-22.679
-22.047
-21.378
-20.681
-19.963
-19.231
-18.494
-17.757
-17.027
-16.31
-15.61
-14.933
-14.284
-13.664
-13.079
-12.53
-12.019
-11.549
-11.12
-10.733
-10.388
-10.086
-9.826
-9.608
-9.43
-9.292
-9.192
-9.128
-9.099
-9.103
-9.137
-9.201
-9.291
-9.405
-9.542
-9.7
-9.875
-10.067
-10.274
-10.492
-10.721
-10.959
-11.203
-11.452
-11.706
-11.962
-12.22
-12.479
-12.74
-13.001
-13.262
-13.524
-13.787
-14.05
-14.315
-14.581
-14.85
-15.122
-15.398
-15.68
-15.968
-16.264
-16.569
-16.883
-17.208
-17.543
-17.889
-18.246
-18.615
-18.995
-19.387
-19.791
-20.206
-20.634
-21.072
-21.52
-21.977
-22.441
-22.91
-23.382
-23.853
-24.321
-24.782
-25.232
-25.67
-26.092
-26.494
-26.873
-27.223
-27.541
-27.821
-28.058
-28.247
-28.384
-28.463
-28.481
-28.435
-28.323
-28.143
-27.893
-27.571
-27.178
-26.711
-26.171
-25.558
-24.87
-24.11
-23.28
-22.384
-21.427
-20.415
-19.352
-18.247
-17.11
-15.948
-14.769
-13.581
-12.389
-11.202
-10.026
-8.869
-7.737
-6.636
-5.577
-4.571
-3.628
-2.759
-1.973
-1.275
-0.67
-0.159
0.253
0.569
0.793
0.926
0.965
0.903
0.725
0.424
0.001
-0.534
-1.168
-1.872
-2.612
-3.345
-4.021
-4.601
-5.066
-5.403
-5.619
-5.717
-5.688
-5.522
-5.195
-4.684
-3.979
-3.082
-2.006
-0.818
0.365
1.413
2.164
2.492
2.318
1.581
0.257
-1.652
-4.124
-7.101
-10.525
-14.364
-18.606
-23.236
-28.19
-33.253
-38.096
-42.359
-45.628
-47.576
-47.855
-46.009
-41.857
-35.497
-27.302
-18.039
-8.373
1.442
10.999
19.701
27.622
35.21
43.495
54.451
69.334
88.353
111.854
140.012
171.618
204.439
234.734
257.199
267.712
263.533
241.815
200.086
137.67
55.945
-41.008
-146.773
-255.528
-362.259
-461.246
-546.329
-612.322
-655.896
-676.525
-676.371
-657.865
-623.259
-576.046
-520.802
-462.356
-405.292
-352.391
-304.275
-261.248
-223.763
-191.509
-163.834
-139.618
-116.809
-94.302
-72.339
-51.253
-31.396
-13.227
3.307
18.156
30.304
39.189
44.914
47.665
48.028
46.614
43.588
39.125
33.925
28.634
23.747
19.735
16.705
14.674
13.795
14.178
15.805
18.615
22.469
27.16
32.555
38.536
44.938
51.613
58.368
64.969
71.236
77.043
82.308
86.993
91.08
94.549
97.407
99.702
101.501
102.879
103.906
104.633
105.123
105.452
105.708
105.994
106.388
106.942
107.692
108.663
109.873
111.34
113.062
115.025
117.211
119.61
122.212
125.016
128.011
131.18
134.501
137.952
141.514
145.169
148.899
152.684
156.504
160.342
164.181
168.006
171.801
175.543
179.211
182.779
186.226
189.53
192.666
195.611
198.343
200.844
203.094
205.077
206.778
208.183
209.277
210.051
210.495
210.602
210.364
209.778
208.84
207.551
205.911
203.924
201.594
198.927
195.932
192.617
188.994
185.076
180.876
176.409
171.692
166.742
161.578
156.22
150.687
145.001
139.182
133.254
127.237
121.155
115.027
108.877
102.723
96.588
90.492
84.452
78.488
72.619
66.86
61.228
55.738
50.405
45.24
40.257
35.465
30.874
26.492
22.327
18.384
14.667
11.18
7.925
4.903
2.115
-0.442
-2.771
-4.873
-6.754
-8.42
-9.876
-11.13
-12.189
-13.062
-13.757
-14.284
-14.653
-14.872
-14.954
-14.907
-14.742
-14.471
-14.102
-13.647
-13.116
-12.518
-11.863
-11.161
-10.42
-9.65
-8.857
-8.05
-7.236
-6.422
-5.615
-4.82
-4.043
-3.289
-2.561
-1.865
-1.202
-0.576
0.011
0.556
1.058
1.517
1.93
2.297
2.617
2.89
3.117
3.296
3.429
3.516
3.557
3.554
3.505
3.413
3.276
3.097
2.875
2.611
2.306
1.962
1.579
1.16
0.706
0.218
-0.302
-0.851
-1.43
-2.035
-2.665
-3.318
-3.991
-4.683
-5.39
-6.109
-6.836
-7.57
-8.305
-9.038
-9.764
-10.48
-11.183
-11.868
-12.53
-13.164
-13.765
-14.327
-14.844
-15.312
-15.725
-16.077
-16.364
-16.584
-16.735
-16.813
-16.818
-16.747
-16.601
-16.377
-16.077
-15.701
-15.25
-14.724
-14.128
-13.464
-12.739
-11.959
-11.128
-10.252
-9.342
-8.405
-7.451
-6.487
-5.52
-4.556
-3.605
-2.677
-1.781
-0.924
-0.114
0.639
1.322
1.923
2.434
2.852
3.174
3.397
3.521
3.539
3.455
3.275
2.998
2.625
2.145
1.539
0.804
-0.048
-1.002
-2.028
-3.101
-4.203
-5.296
-6.331
-7.284
-8.13
-8.869
-9.525
-10.083
-10.526
-10.829
-10.934
-10.818
-10.492
-9.971
-9.31
-8.593
-7.899
-7.357
-7.128
-7.301
-7.952
-9.104
-10.707
-12.764
-15.247
-18.124
-21.407
-25.097
-29.168
-33.554
-38.083
-42.477
-46.424
-49.553
-51.471
-51.796
-50.11
-46.288
-40.498
-33.109
-24.823
-16.189
-7.482
0.845
8.409
15.394
22.416
30.683
41.846
56.783
75.675
98.776
125.751
155.148
184.318
209.175
225.412
229.736
219.55
192.366
146.305
81.34
0.023
-92.889
-192.27
-293.16
-390.641
-479.239
-552.772
-606.967
-640.553
-654.197
-649.443
-628.446
-593.684
-549.002
-500.071
-451.26
-404.948
-362.5
-324.278
-290.318
-260.758
-234.65
-209.79
-184.788
-159.183
-133.031
-107.149
-82.268
-58.785
-37.445
-19.258
-4.781
5.794
12.588
16.145
16.985
15.542
12.354
7.974
2.868
-2.53
-7.82
-12.696
-16.886
-20.165
-22.397
-23.491
-23.392
-22.096
-19.649
-16.151
-11.75
-6.606
-0.871
5.293
11.725
18.246
24.645
30.743
36.42
41.591
46.215
50.271
53.74
56.635
59.004
60.912
62.433
63.633
64.565
65.293
65.89
66.441
67.038
67.756
68.638
69.722
71.031
72.581
74.386
76.443
78.733
81.241
83.953
86.859
89.952
93.221
96.645
100.204
103.873
107.631
111.461
115.342
119.252
123.172
127.08
130.96
134.794
138.565
142.25
145.824
149.263
152.543
155.643
158.537
161.202
163.616
165.76
167.616
169.167
170.399
171.298
171.851
172.05
171.884
171.349
170.439
169.151
167.484
165.439
163.019
160.228
157.075
153.566
149.711
145.523
141.016
136.203
131.101
125.728
120.103
114.245
108.177
101.919
95.496
88.929
82.243
75.463
68.612
61.713
54.791
47.868
40.967
34.109
27.315
20.606
14.001
7.519
1.176
-5.009
-11.022
-16.849
-22.478
-27.895
-33.093
-38.06
-42.79
-47.277
-51.516
-55.503
-59.236
-62.715
-65.939
-68.912
-71.635
-74.113
-76.351
-78.356
-80.135
-81.696
-83.047
-84.197
-85.158
-85.939
-86.55
-87.002
-87.308
-87.477
-87.522
-87.454
-87.284
-87.023
-86.684
-86.276
-85.809
-85.295
-84.743
-84.162
-83.561
-82.949
-82.333
-81.721
-81.12
-80.535
-79.973
-79.439
-78.936
-78.469
-78.04
-77.653
-77.31
-77.012
-76.76
-76.557
-76.402
-76.296
-76.24
-76.233
-76.275
-76.366
-76.506
-76.692
-76.924
-77.202
-77.523
-77.888
-78.293
-78.74
-79.226
-79.75
-80.312
-80.908
-81.539
-82.201
-82.893
-83.613
-84.359
-85.131
-85.925
-86.74
-87.576
-88.43
-89.301
-90.186
-91.083
-91.989
-92.902
-93.818
-94.733
-95.644
-96.547
-97.438
-98.314
-99.171
-100.006
-100.815
-101.593
-102.337
-103.04
-103.697
-104.305
-104.858
-105.351
-105.782
-106.147
-106.444
-106.673
-106.83
-106.913
-106.924
-106.859
-106.72
-106.505
-106.215
-105.849
-105.413
-104.908
-104.339
-103.713
-103.035
-102.313
-101.555
-100.771
-99.967
-99.15
-98.328
-97.507
-96.693
-95.893
-95.114
-94.363
-93.649
-92.981
-92.373
-91.834
-91.374
-90.999
-90.713
-90.52
-90.422
-90.42
-90.509
-90.689
-90.962
-91.336
-91.823
-92.435
-93.168
-94.013
-94.957
-95.97
-97.017
-98.058
-99.044
-99.934
-100.706
-101.351
-101.876
-102.288
-102.587
-102.761
-102.788
-102.646
-102.324
-101.826
-101.164
-100.398
-99.635
-98.997
-98.64
-98.695
-99.245
-100.347
-102.017
-104.244
-106.987
-110.2
-113.828
-117.828
-122.191
-126.905
-131.908
-137.017
-141.944
-146.343
-149.819
-152.052
-152.668
-151.221
-147.544
-141.714
-134.102
-125.424
-116.246
-106.799
-97.462
-88.761
-80.668
-72.836
-64.221
-52.956
-38.072
-19.484
2.921
29.054
58.035
88.169
115.947
136.425
146.188
142.869
124.254
88.615
34.625
-37.316
-123.56
-218.485
-317.394
-415.774
-508.994
-592.134
-659.286
-706.521
-733.35
-741.054
-731.249
-706.138
-668.186
-621.096
-570.548
-520.832
-474.067
-431.389
-393.016
-358.875
-329.1
-302.814
-277.831
-252.799
-227.296
-201.406
-176.025
-151.926
-129.486
-109.383
-92.492
-79.258
-69.822
-64.028
-61.288
-61.051
-62.828
-66.058
-70.269
-75.063
-80.044
-84.849
-89.158
-92.698
-95.286
-96.823
-97.23
-96.469
-94.533
-91.468
-87.409
-82.522
-76.982
-70.951
-64.56
-57.946
-51.279
-44.757
-38.553
-32.787
-27.522
-22.783
-18.598
-14.982
-11.925
-9.379
-7.267
-5.511
-4.043
-2.81
-1.756
-0.812
0.103
1.08
2.184
3.458
4.935
6.633
8.571
10.763
13.206
15.883
18.775
21.869
25.153
28.623
32.265
36.06
39.985
44.017
48.137
52.329
56.572
60.846
65.13
69.407
73.658
77.87
82.024
86.097
90.069
93.916
97.616
101.149
104.492
107.623
110.521
113.17
115.553
117.654
119.461
120.961
122.142
122.997
123.517
123.699
123.538
123.031
122.179
120.984
119.45
117.583
115.389
112.876
110.056
106.94
103.542
99.875
95.957
91.804
87.435
82.868
78.125
73.227
68.195
63.05
57.817
52.518
47.175
41.811
36.449
31.109
25.814
20.583
15.437
10.393
5.472
0.688
-3.94
-8.399
-12.674
-16.752
-20.623
-24.276
-27.702
-30.894
-33.845
-36.551
-39.007
-41.213
-43.165
-44.865
-46.315
-47.516
-48.473
-49.191
-49.676
-49.934
-49.973
-49.802
-49.431
-48.868
-48.125
-47.212
-46.141
-44.922
-43.568
-42.089
-40.499
-38.807
-37.025
-35.165
-33.238
-31.254
-29.223
-27.155
-25.059
-22.945
-20.82
-18.691
-16.567
-14.453
-12.355
-10.279
-8.228
-6.207
-4.219
-2.266
-0.35
1.526
3.363
5.159
6.915
8.631
10.309
11.948
13.55
15.117
16.65
18.151
19.622
21.065
22.482
23.875
25.246
26.598
27.933
29.254
30.561
31.858
33.146
34.427
35.704
36.978
38.25
39.522
40.795
42.071
43.351
44.636
45.925
47.22
48.522
49.832
51.148
52.473
53.807
55.151
56.507
57.876
59.26
60.661
62.079
63.517
64.978
66.463
67.972
69.508
71.07
72.662
74.284
75.937
77.622
79.339
81.089
82.873
84.692
86.545
88.433
90.354
92.309
94.298
96.322
98.379
100.47
102.593
104.748
106.934
109.152
111.398
113.67
115.965
118.28
120.612
122.959
125.316
127.683
130.058
132.444
134.845
137.263
139.699
142.153
144.629
147.128
149.65
152.191
154.746
157.315
159.901
162.509
165.142
167.797
170.473
173.169
175.885
178.627
181.39
184.168
186.96
189.772
192.625
195.55
198.57
201.687
204.898
208.195
211.568
215.01
218.489
221.952
225.345
228.613
231.721
234.639
237.319
239.698
241.697
243.235
244.266
244.786
244.813
244.368
243.497
242.248
240.698
238.988
237.27
235.725
234.558
233.972
234.13
235.216
237.492
241.007
245.604
250.919
256.261
260.958
264.58
266.769
267.17
266.062
264.116
262.216
261.979
264.766
271.261
281.751
295.636
310.8
324.461
333.592
