-24.254
-23.033
-21.548
-19.806
-17.813
-15.579
-13.115
-10.433
-7.546
-4.468
-1.215
2.195
5.745
9.416
13.187
17.036
20.943
24.885
28.838
32.778
36.683
40.527
44.287
47.939
51.46
54.826
58.016
61.008
63.782
66.318
68.6
70.612
72.337
73.764
74.882
75.68
76.152
76.292
76.096
75.563
74.693
73.488
71.954
70.096
67.924
65.447
62.677
59.629
56.317
52.76
48.975
44.983
40.804
36.461
31.975
27.371
22.673
17.904
13.088
8.252
3.417
-1.392
-6.151
-10.839
-15.434
-19.916
-24.263
-28.46
-32.486
-36.329
-39.971
-43.401
-46.607
-49.579
-52.308
-54.788
-57.014
-58.983
-60.692
-62.142
-63.334
-64.272
-64.958
-65.4
-65.605
-65.579
-65.334
-64.878
-64.224
-63.382
-62.366
-61.187
-59.86
-58.397
-56.813
-55.119
-53.331
-51.46
-49.52
-47.523
-45.481
-43.407
-41.31
-39.202
-37.093
-34.991
-32.905
-30.843
-28.811
-26.815
-24.86
-22.951
-21.091
-19.282
-17.526
-15.825
-14.177
-12.584
-11.044
-9.555
-8.116
-6.725
-5.379
-4.075
-2.809
-1.58
-0.384
0.783
1.922
3.037
4.13
5.205
6.263
7.306
8.337
9.357
10.367
11.369
12.364
13.351
14.332
15.306
16.273
17.232
18.181
19.121
20.049
20.963
21.862
22.745
23.609
24.452
25.272
26.068
26.837
27.579
28.291
28.973
29.624
30.243
30.83
31.384
31.906
32.396
32.854
33.283
33.681
34.052
34.395
34.714
35.008
35.28
35.532
35.765
35.981
36.182
36.369
36.544
36.709
36.864
37.011
37.15
37.281
37.406
37.524
37.633
37.734
37.826
37.906
37.973
38.025
38.059
38.075
38.068
38.038
37.98
37.892
37.771
37.614
37.417
37.179
36.896
36.565
36.184
35.751
35.264
34.723
34.124
33.469
32.757
31.987
31.162
30.281
29.347
28.362
27.329
26.252
25.135
23.983
22.8
21.591
20.361
19.115
17.859
16.595
15.328
14.061
12.799
11.546
10.307
9.085
7.884
6.709
5.567
4.46
3.394
2.369
1.388
0.453
-0.433
-1.27
-2.058
-2.799
-3.494
-4.14
-4.735
-5.278
-5.77
-6.214
-6.616
-6.978
-7.295
-7.565
-7.784
-7.947
-8.046
-8.065
-7.978
-7.764
-7.409
-6.905
-6.251
-5.445
-4.482
-3.363
-2.093
-0.686
0.835
2.449
4.131
5.844
7.537
9.148
10.591
11.782
12.648
13.119
13.148
12.702
11.754
10.277
8.272
5.746
2.711
-0.77
-4.666
-8.977
-13.604
-18.371
-23.01
-27.116
-30.323
-32.398
-33.03
-31.857
-28.801
-23.988
-17.856
-11.263
-4.973
0.442
4.271
5.729
5.005
3.164
1.438
1.615
3.737
5.926
8.271
12.377
21.809
42.134
75.11
118.346
167.189
215.467
258.785
293.644
315.718
318.711
295.368
242.83
163.893
66.651
-38.092
-144.346
-252.225
-363.183
-476.739
-586.059
-677.076
-737.149
-760.978
-750.19
-714.049
-663.081
-601.99
-534.231
-462.19
-387.187
-314.554
-247.831
-187.289
-133.931
-86.726
-45.628
-12.975
10.601
25.012
30.855
30.472
25.859
18.739
11.002
3.881
-1.682
-4.849
-5.099
-2.298
3.315
11.002
19.676
28.315
36.008
42.133
46.295
48.31
48.298
46.666
44.045
41.149
38.69
37.143
36.791
37.795
40.135
43.689
48.24
53.482
59.06
64.709
70.25
75.536
80.48
85.015
89.094
92.716
95.914
98.716
101.14
103.211
104.953
106.403
107.613
108.632
109.506
110.289
111.031
111.786
112.611
113.548
114.625
115.865
117.281
118.878
120.662
122.629
124.768
127.071
129.527
132.128
134.866
137.73
140.708
143.787
146.954
150.196
153.5
156.855
160.245
163.659
167.082
170.501
173.902
177.271
180.59
183.842
187.009
190.071
193.01
195.806
198.441
200.896
203.153
205.197
207.012
208.584
209.9
210.947
211.714
212.192
212.373
212.25
211.816
211.068
210.003
208.618
206.915
204.895
202.561
199.918
196.972
193.731
190.206
186.406
182.344
178.035
173.493
168.736
163.781
158.647
153.353
147.92
142.37
136.722
131.0
125.224
119.415
113.594
107.781
101.997
96.259
90.586
84.997
79.507
74.132
68.888
63.788
58.844
54.069
49.473
45.064
40.85
36.837
33.031
29.434
26.049
22.876
19.915
17.164
14.619
12.275
10.128
8.17
6.394
4.79
3.351
2.065
0.925
-0.081
-0.963
-1.73
-2.392
-2.958
-3.438
-3.841
-4.175
-4.448
-4.667
-4.841
-4.975
-5.076
-5.149
-5.199
-5.23
-5.246
-5.25
-5.245
-5.233
-5.214
-5.191
-5.163
-5.13
-5.091
-5.045
-4.991
-4.926
-4.849
-4.757
-4.648
-4.521
-4.373
-4.202
-4.008
-3.79
-3.547
-3.278
-2.984
-2.665
-2.323
-1.958
-1.571
-1.165
-0.742
-0.303
0.15
0.613
1.084
1.562
2.043
2.525
3.007
3.485
3.957
4.421
4.875
5.317
5.745
6.156
6.551
6.926
7.282
7.618
7.933
8.227
8.501
8.755
8.991
9.211
9.415
9.607
9.788
9.961
10.129
10.294
10.459
10.628
10.801
10.981
11.171
11.372
11.585
11.812
12.053
12.309
12.58
12.866
13.166
13.48
13.806
14.143
14.491
14.846
15.206
15.571
15.937
16.302
16.664
17.02
17.367
17.703
18.026
18.332
18.619
18.886
19.129
19.349
19.542
19.71
19.851
19.968
20.06
20.129
20.178
20.209
20.226
20.231
20.229
20.225
20.223
20.229
20.249
20.288
20.354
20.451
20.588
20.769
21.002
21.292
21.644
22.063
22.555
23.124
23.774
24.508
25.33
26.239
27.238
28.327
29.505
30.769
32.116
33.54
35.033
36.591
38.204
39.865
41.563
43.29
45.036
46.793
48.552
50.303
52.035
53.735
55.392
56.993
58.526
59.98
61.343
62.606
63.762
64.81
65.743
66.559
67.253
67.812
68.23
68.502
68.628
68.608
68.453
68.17
67.779
67.305
66.769
66.189
65.581
64.948
64.297
63.632
62.952
62.275
61.618
60.98
60.365
59.761
59.131
58.446
57.663
56.713
55.55
54.119
52.362
50.244
47.727
44.779
41.403
37.554
33.156
28.199
22.732
16.908
11.036
5.414
0.294
-3.995
-7.109
-8.798
-8.946
-7.801
-5.98
-4.191
-3.084
-3.195
-4.975
-8.75
-14.561
-21.868
-29.499
-35.857
-39.301
-38.532
-32.225
-19.122
1.576
30.222
65.716
105.282
146.29
186.295
223.946
259.983
293.264
319.99
333.957
325.492
287.829
220.883
129.582
24.097
-86.278
-198.632
-312.94
-429.754
-545.58
-649.894
-729.954
-775.011
-781.969
-755.094
-701.945
-632.998
-555.567
-475.063
-398.288
-327.831
-265.35
-211.414
-162.523
-117.639
-77.419
-42.897
-16.759
0.518
10.247
14.219
14.867
13.585
11.208
8.58
5.79
2.808
-0.193
-3.186
-5.741
-7.202
-7.463
-6.61
-4.472
-0.925
4.097
10.468
17.457
24.229
30.413
35.869
40.522
44.425
47.593
50.185
52.74
55.742
59.394
63.757
68.714
74.047
79.596
85.161
90.442
95.234
99.443
103.022
106.024
108.529
110.588
112.271
113.66
114.806
115.753
116.548
117.226
117.842
118.466
119.148
119.93
120.844
121.908
123.138
124.547
126.131
127.879
129.788
131.855
134.082
136.472
139.019
141.715
144.545
147.498
150.557
153.709
156.935
160.22
163.548
166.904
170.273
173.641
176.99
180.299
183.547
186.712
189.771
192.7
195.477
198.078
200.483
202.669
204.617
206.31
207.728
208.856
209.678
210.18
210.351
210.178
209.654
208.772
207.526
205.915
203.936
201.591
198.884
195.819
192.403
188.645
184.556
180.146
175.431
170.426
165.146
159.61
153.838
147.851
141.67
135.317
128.817
122.194
115.472
108.676
101.831
94.962
88.092
81.248
74.451
67.726
61.095
54.579
48.199
41.976
35.928
30.07
24.417
18.982
13.776
8.815
4.106
-0.347
-4.536
-8.448
-12.071
-15.398
-18.427
-21.172
-23.638
-25.816
-27.72
-29.387
-30.848
-32.138
-33.27
-34.217
-34.981
-35.616
-36.093
-36.284
-36.17
-35.812
-35.205
-34.52
-33.486
-31.217
-27.919
-24.436
-22.14
-23.61
-28.711
-34.88
-39.568
-39.145
-33.38
-25.727
-18.858
-15.654
-16.634
-19.23
-21.866
-23.467
-23.707
-23.64
-23.744
-23.986
-24.403
-24.835
-25.242
-25.762
-26.436
-27.236
-28.161
-29.213
-30.381
-31.652
-33.009
-34.419
-35.869
-37.364
-38.9
-40.468
-42.062
-43.673
-45.296
-46.926
-48.558
-50.181
-51.791
-53.379
-54.939
-56.465
-57.953
-59.398
-60.793
-62.137
-63.424
-64.651
-65.817
-66.92
-67.957
-68.928
-69.832
-70.67
-71.441
-72.148
-72.792
-73.373
-73.895
-74.359
-74.769
-75.125
-75.433
-75.694
-75.913
-76.092
-76.237
-76.351
-76.439
-76.505
-76.556
-76.596
-76.63
-76.664
-76.702
-76.749
-76.812
-76.893
-76.997
-77.13
-77.293
-77.492
-77.728
-78.006
-78.326
-78.691
-79.102
-79.56
-80.065
-80.617
-81.217
-81.863
-82.556
-83.293
-84.074
-84.896
-85.758
-86.656
-87.586
-88.543
-89.524
-90.523
-91.534
-92.55
-93.565
-94.571
-95.563
-96.533
-97.473
-98.376
-99.234
-100.039
-100.784
-101.464
-102.072
-102.603
-103.051
-103.408
-103.672
-103.837
-103.901
-103.861
-103.713
-103.456
-103.089
-102.612
-102.031
-101.35
-100.57
-99.693
-98.722
-97.663
-96.528
-95.332
-94.087
-92.807
-91.502
-90.187
-88.879
-87.594
-86.344
-85.133
-83.96
-82.832
-81.757
-80.753
-79.839
-79.024
-78.311
-77.68
-77.105
-76.579
-76.106
-75.702
-75.38
-75.127
-74.907
-74.766
-74.812
-75.103
-75.618
-76.193
-76.596
-76.769
-76.851
-76.898
-76.772
-76.436
-76.025
-75.942
-76.91
-78.825
-80.644
-82.256
-84.042
-87.144
-94.08
-103.874
-113.342
-120.185
-120.291
-113.378
-102.621
-88.727
-75.248
-65.834
-61.168
-64.041
-74.004
-86.828
-99.938
-110.219
-116.669
-121.448
-125.516
-129.382
-132.839
-134.653
-134.627
-133.048
-130.268
-127.034
-123.87
-121.077
-119.052
-118.137
-118.444
-119.958
-122.294
-124.107
-123.515
-119.193
-110.503
-98.223
-84.207
-68.768
-50.815
-27.992
2.602
41.103
85.035
130.3
171.589
203.931
222.351
220.673
193.496
138.602
58.441
-38.401
-141.805
-244.488
-343.699
-442.205
-541.56
-638.599
-724.919
-787.682
-818.404
-815.821
-785.69
-739.048
-683.647
-622.074
-553.524
-476.018
-392.251
-309.904
-237.443
-180.966
-141.18
-113.5
-92.603
-75.064
-59.962
-48.77
-42.097
-38.725
-36.637
-33.417
-27.96
-20.52
-11.711
-2.361
6.587
14.097
19.103
21.215
21.173
20.003
18.197
14.62
7.25
-4.364
-17.899
-27.879
-28.478
-17.111
4.096
28.822
50.688
66.136
75.344
81.382
86.632
91.939
96.982
100.719
103.198
105.064
106.672
108.423
110.431
112.63
115.245
118.287
121.381
124.312
126.99
129.367
131.571
133.649
135.485
137.123
138.746
140.47
142.403
144.589
146.969
149.534
152.323
155.328
158.526
161.894
165.392
169.008
172.754
176.627
180.621
184.721
188.905
193.156
197.459
201.796
206.148
210.495
214.813
219.08
223.274
227.368
231.339
235.16
238.803
242.243
245.45
248.402
251.076
253.453
255.513
257.24
258.616
259.626
260.259
260.504
260.351
259.793
258.825
257.443
255.648
253.439
250.822
247.801
244.385
240.581
236.403
231.863
226.978
221.764
216.239
210.423
204.338
198.005
191.448
184.692
177.759
170.677
163.469
156.162
148.781
141.351
133.897
126.444
119.015
111.633
104.321
97.1
89.992
83.015
76.189
69.53
63.056
56.782
50.72
44.884
39.285
33.932
28.833
23.995
19.423
15.122
11.094
7.341
3.863
0.659
-2.273
-4.936
-7.336
-9.477
-11.365
-13.007
-14.412
-15.588
-16.544
-17.29
-17.836
-18.192
-18.37
-18.38
-18.235
-17.946
-17.524
-16.982
-16.331
-15.584
-14.752
-13.847
-12.88
-11.862
-10.804
-9.718
-8.612
-7.498
-6.384
-5.279
-4.191
-3.13
-2.102
-1.113
-0.171
0.719
1.553
2.324
3.031
3.668
4.233
4.724
5.14
5.478
5.738
5.92
6.025
6.052
6.003
5.881
5.686
5.423
5.094
4.702
4.252
3.749
3.195
2.597
1.959
1.286
0.584
-0.142
-0.888
-1.648
-2.417
-3.191
-3.964
-4.732
-5.492
-6.24
-6.97
-7.682
-8.37
-9.033
-9.668
-10.273
-10.845
-11.383
-11.884
-12.35
-12.777
-13.167
-13.52
-13.835
-14.113
-14.357
-14.567
-14.746
-14.896
-15.018
-15.116
-15.193
-15.253
-15.299
-15.333
-15.358
-15.377
-15.396
-15.413
-15.427
-15.436
-15.437
-15.436
-15.444
-15.454
-15.46
-15.481
-15.528
-15.613
-15.752
-15.932
-16.128
-16.354
-16.636
-16.905
-17.082
-17.213
-17.291
-17.3
-17.408
-17.154
-16.09
-14.852
-13.63
-13.594
-16.145
-19.727
-23.304
-25.333
-23.696
-20.265
-16.623
-13.859
-13.77
-15.071
-16.46
-17.649
-17.846
-17.512
-17.243
-16.925
-16.637
-16.341
-15.92
-15.454
-15.009
-14.57
-14.135
-13.718
-13.322
-12.949
-12.601
-12.273
-11.956
-11.659
-11.393
-11.156
-10.953
-10.785
-10.655
-10.569
-10.533
-10.547
-10.614
-10.734
-10.904
-11.125
-11.392
-11.697
-12.033
-12.395
-12.78
-13.197
-13.647
-14.13
-14.64
-15.168
-15.704
-16.237
-16.75
-17.218
-17.618
-17.929
-18.14
-18.253
-18.272
-18.2
-18.03
-17.735
-17.305
-16.744
-16.067
-15.299
-14.467
-13.597
-12.737
-11.958
-11.339
-10.962
-10.891
-11.172
-11.842
-12.92
-14.464
-16.576
-19.283
-22.525
-26.142
-29.855
-33.412
-36.638
-39.278
-40.989
-41.547
-40.893
-39.307
-37.435
-35.92
-35.237
-35.797
-37.99
-42.041
-47.885
-54.874
-61.696
-66.865
-69.057
-67.047
-59.591
-45.619
-24.312
3.859
36.834
72.455
108.515
144.388
181.015
216.988
248.941
270.122
270.571
244.622
191.008
114.155
24.991
-68.475
-161.784
-254.396
-351.187
-452.995
-555.02
-648.428
-719.642
-759.007
-764.678
-740.101
-693.626
-633.747
-565.484
-492.641
-419.309
-349.277
-286.128
-231.805
-184.89
-143.35
-106.271
-73.939
-48.128
-29.96
-19.05
-13.997
-12.771
-13.803
-16.054
-18.819
-21.877
-24.967
-27.65
-29.419
-29.712
-28.284
-25.251
-20.829
-15.205
-8.534
-1.146
6.272
12.983
18.561
22.85
25.909
27.918
29.017
29.504
29.945
30.828
32.409
34.795
37.911
41.6
45.733
50.085
54.313
58.181
61.565
64.415
66.78
68.709
70.226
71.395
72.303
73.014
73.584
74.051
74.428
74.754
75.088
75.489
76.026
76.746
77.68
78.852
80.281
81.979
83.95
86.19
88.687
91.433
94.422
97.647
101.1
104.766
108.627
112.66
116.841
121.146
125.551
130.032
134.563
139.122
143.682
148.22
152.711
157.131
161.452
165.646
169.685
173.543
177.192
180.607
183.763
186.638
189.211
191.461
193.371
194.926
196.111
196.915
197.327
197.341
196.951
196.154
194.949
193.339
191.325
188.916
186.118
182.94
179.396
175.497
171.26
166.7
161.836
156.687
151.273
145.615
139.736
133.66
127.409
121.009
114.483
107.856
101.153
94.398
87.616
80.829
74.061
67.334
60.669
54.087
47.608
41.248
35.027
28.96
23.061
17.344
11.822
6.506
1.404
-3.473
-8.119
-12.528
-16.694
-20.614
-24.284
-27.704
-30.873
-33.792
-36.461
-38.884
-41.064
-43.006
-44.715
-46.197
-47.459
-48.508
-49.353
-50.001
-50.462
-50.746
-50.861
-50.819
-50.628
-50.299
-49.843
-49.27
-48.589
-47.811
-46.945
-46.003
-44.993
-43.925
-42.809
-41.654
-40.469
-39.263
-38.046
-36.824
-35.606
-34.4
-33.213
-32.051
-30.92
-29.827
-28.776
-27.772
-26.819
-25.921
-25.08
-24.3
-23.582
-22.927
-22.337
-21.813
-21.353
-20.959
-20.629
-20.362
-20.157
-20.013
-19.927
-19.897
-19.92
-19.993
-20.113
-20.277
-20.48
-20.718
-20.987
-21.284
-21.604
-21.943
-22.296
-22.661
-23.034
-23.411
-23.789
-24.166
-24.538
-24.904
-25.262
-25.609
-25.945
-26.269
-26.581
-26.88
-27.166
-27.439
-27.7
-27.949
-28.187
-28.415
-28.634
-28.844
-29.049
-29.249
-29.445
-29.641
-29.837
-30.036
-30.24
-30.449
-30.665
-30.889
-31.121
-31.362
-31.611
-31.867
-32.131
-32.4
-32.673
-32.948
-33.223
-33.495
-33.76
-34.016
-34.257
-34.481
-34.682
-34.857
-35.002
-35.112
-35.184
-35.213
-35.196
-35.13
-35.011
-34.836
-34.601
-34.304
-33.944
-33.518
-33.025
-32.464
-31.837
-31.146
-30.394
-29.585
-28.723
-27.813
-26.861
-25.872
-24.854
-23.81
-22.747
-21.669
-20.585
-19.501
-18.426
-17.371
-16.342
-15.349
-14.399
-13.5
-12.656
-11.873
-11.149
-10.487
-9.888
-9.356
-8.901
-8.531
-8.248
-8.05
-7.935
-7.891
-7.908
-7.968
-8.044
-8.116
-8.166
-8.177
-8.148
-8.073
-7.947
-7.768
-7.518
-7.179
-6.75
-6.233
-5.643
-5.02
-4.395
-3.816
-3.352
-3.059
-2.999
-3.239
-3.821
-4.784
-6.162
-7.954
-10.208
-13.0
-16.319
-20.089
-24.146
-28.196
-32.001
-35.387
-38.079
-39.788
-40.352
-39.723
-38.144
-36.146
-34.188
-32.609
-31.727
-31.75
-32.693
-34.479
-36.686
-38.455
-38.868
-36.596
-30.05
-18.209
-0.796
20.746
43.84
66.489
87.807
109.983
136.06
167.965
206.347
245.929
278.666
295.154
284.535
243.155
173.352
82.862
-15.429
-113.087
-207.072
-298.971
-392.698
-487.063
-575.195
-645.947
-688.815
-700.174
-682.928
-645.404
-597.137
-543.891
-488.233
-430.45
-370.189
-308.873
-249.178
-194.12
-146.354
-107.143
-76.718
-54.433
-39.043
-29.488
-24.524
-22.647
-22.5
-22.689
-21.983
-19.935
-16.583
-12.081
-6.887
-1.531
3.532
7.695
10.401
11.549
11.33
10.087
8.328
6.484
4.883
3.894
3.837
4.853
6.957
10.059
13.983
18.572
23.693
29.195
34.929
40.756
46.538
52.146
57.459
62.385
66.863
70.855
74.348
77.343
79.858
81.937
83.638
85.022
86.145
87.063
87.823
88.486
89.118
89.786
90.558
91.484
92.599
93.933
95.506
97.327
99.404
101.731
104.293
107.079
110.082
113.294
116.708
120.313
124.09
128.025
132.097
136.289
140.582
144.956
149.389
153.862
158.353
162.842
167.31
171.732
176.085
180.343
184.48
188.47
192.289
195.911
199.312
202.468
205.359
207.966
210.27
212.255
213.907
215.213
216.161
216.744
216.953
216.785
216.236
215.305
213.995
212.308
210.251
207.83
205.056
201.941
198.496
194.738
190.683
186.349
181.755
176.921
171.869
166.621
161.2
155.628
149.929
144.126
138.243
132.303
126.327
120.338
114.356
108.402
102.494
96.651
90.889
85.225
79.674
74.248
68.96
63.821
58.841
54.026
49.384
44.92
40.637
36.539
32.625
28.896
25.35
21.984
18.796
15.78
12.931
10.242
7.708
5.32
3.071
0.954
-1.04
-2.92
-4.692
-6.366
-7.949
-9.449
-10.873
-12.229
-13.523
-14.761
-15.949
-17.093
-18.196
-19.265
-20.301
-21.307
-22.287
-23.24
-24.169
-25.072
-25.949
-26.799
-27.621
-28.411
-29.167
-29.885
-30.562
-31.194
-31.777
-32.308
-32.782
-33.195
-33.544
-33.825
-34.035
-34.172
-34.233
-34.216
-34.12
-33.943
-33.685
-33.345
-32.924
-32.423
-31.842
-31.185
-30.453
-29.649
-28.778
-27.842
-26.849
-25.802
-24.709
-23.576
-22.41
-21.219
-20.011
-18.794
-17.578
-16.371
-15.181
-14.017
-12.889
-11.803
-10.768
-9.791
-8.879
-8.039
-7.277
-6.597
-6.004
-5.501
-5.093
-4.78
-4.566
-4.45
-4.433
-4.515
-4.694
-4.968
-5.335
-5.79
-6.329
-6.947
-7.636
-8.39
-9.202
-10.062
-10.961
-11.89
-12.84
-13.801
-14.762
-15.713
-16.644
-17.546
-18.408
-19.221
-19.976
-20.664
-21.279
-21.813
-22.26
-22.617
-22.878
-23.039
-23.1
-23.057
-22.91
-22.659
-22.304
-21.848
-21.293
-20.643
-19.904
-19.082
-18.185
-17.221
-16.202
-15.136
-14.035
-12.911
-11.774
-10.635
-9.504
-8.391
-7.306
-6.257
-5.255
-4.31
-3.432
-2.632
-1.917
-1.295
-0.769
-0.344
-0.023
0.2
0.326
0.36
0.304
0.149
-0.107
-0.459
-0.904
-1.432
-2.027
-2.674
-3.35
-4.021
-4.654
-5.218
-5.692
-6.076
-6.371
-6.575
-6.678
-6.653
-6.488
-6.192
-5.777
-5.251
-4.634
-3.953
-3.265
-2.676
-2.282
-2.154
-2.351
-2.891
-3.787
-5.068
-6.769
-8.9
-11.459
-14.433
-17.735
-21.276
-24.916
-28.384
-31.399
-33.699
-34.97
-34.931
-33.542
-30.887
-27.226
-23.161
-19.117
-15.296
-12.164
-10.173
-9.394
-9.853
-10.725
-10.042
-6.43
1.13
12.224
24.31
35.44
44.53
53.965
69.499
95.429
134.241
182.098
228.865
264.753
279.206
265.895
225.123
158.467
72.162
-27.167
-136.203
-250.268
-365.973
-477.325
-573.376
-644.805
-684.964
-693.166
-675.66
-639.251
-589.545
-530.539
-464.78
-396.893
-332.472
-275.593
-227.781
-186.955
-150.442
-117.073
-87.657
-64.659
-49.203
-40.694
-37.494
-37.11
-37.857
-38.911
-39.32
-38.496
-36.363
-32.988
-28.702
-23.927
-18.828
-13.479
-8.373
-4.133
-0.947
1.304
2.893
4.156
5.184
5.85
6.374
7.234
8.685
10.833
13.655
16.968
20.724
25.027
29.793
34.792
39.831
44.696
49.241
53.456
57.297
60.698
63.648
66.158
68.252
70.003
71.47
72.688
73.698
74.537
75.241
75.869
76.48
77.132
77.888
78.79
79.867
81.148
82.649
84.385
86.362
88.573
91.003
93.644
96.49
99.536
102.776
106.193
109.767
113.478
117.307
121.239
125.26
129.349
133.487
137.656
141.836
146.013
150.169
154.28
158.319
162.257
166.071
169.739
173.243
176.568
179.689
182.571
185.183
187.488
189.465
191.117
192.432
193.395
193.995
194.204
194.03
193.534
192.694
191.416
189.621
187.198
184.158
180.695
176.887
172.683
168.198
163.633
159.22
155.333
151.992
148.79
145.518
142.141
138.476
134.35
129.483
123.359
115.957
107.811
99.251
90.484
81.744
73.13
64.891
57.515
51.079
45.246
39.801
34.567
29.428
24.445
19.556
14.552
9.411
4.276
-0.748
-5.541
-10.054
-14.344
-18.418
-22.231
-25.776
-29.063
-32.104
-34.928
-37.541
-39.923
-42.064
-43.958
-45.608
-47.028
-48.229
-49.217
-50.001
-50.59
-50.994
-51.222
-51.287
-51.201
-50.974
-50.619
-50.147
-49.57
-48.903
-48.158
-47.346
-46.476
-45.557
-44.597
-43.606
-42.593
-41.567
-40.536
-39.507
-38.489
-37.488
-36.511
-35.565
-34.654
-33.782
-32.954
-32.173
-31.442
-30.763
-30.139
-29.57
-29.056
-28.597
-28.193
-27.844
-27.548
-27.303
-27.109
-26.962
-26.862
-26.806
-26.792
-26.817
-26.88
-26.976
-27.105
-27.262
-27.446
-27.653
-27.88
-28.125
-28.383
-28.653
-28.93
-29.212
-29.496
-29.779
-30.059
-30.333
-30.599
-30.855
-31.101
-31.335
-31.556
-31.764
-31.958
-32.139
-32.306
-32.459
-32.6
-32.73
-32.848
-32.956
-33.055
-33.147
-33.232
-33.312
-33.388
-33.461
-33.534
-33.609
-33.686
-33.767
-33.856
-33.953
-34.06
-34.18
-34.314
-34.462
-34.627
-34.807
-35.005
-35.22
-35.453
-35.702
-35.968
-36.248
-36.542
-36.848
-37.164
-37.487
-37.814
-38.142
-38.467
-38.787
-39.098
-39.396
-39.677
-39.937
-40.174
-40.384
-40.562
-40.706
-40.812
-40.875
-40.894
-40.866
-40.788
-40.659
-40.478
-40.244
-39.961
-39.627
-39.246
-38.818
-38.347
-37.834
-37.285
-36.7
-36.083
-35.436
-34.765
-34.075
-33.374
-32.665
-31.955
-31.25
-30.558
-29.885
-29.24
-28.625
-28.041
-27.492
-26.981
-26.514
-26.098
-25.736
-25.423
-25.156
-24.933
-24.748
-24.59
-24.443
-24.28
-24.076
-23.814
-23.482
-23.075
-22.581
-21.991
-21.298
-20.498
-19.597
-18.606
-17.536
-16.402
-15.23
-14.059
-12.943
-11.954
-11.168
-10.65
-10.464
-10.656
-11.259
-12.301
-13.812
-15.802
-18.277
-21.232
-24.617
-28.397
-32.57
-37.048
-41.665
-46.15
-50.089
-53.128
-55.045
-55.559
-54.353
-51.341
-46.593
-40.588
-34.215
-28.116
-22.8
-18.933
-17.085
-17.51
-19.614
-21.555
-21.333
-17.843
-11.742
-4.688
3.465
14.547
32.191
60.208
98.403
143.859
192.292
237.881
275.145
298.392
299.586
272.125
214.896
131.279
30.656
-76.679
-186.909
-298.694
-411.454
-522.405
-620.75
-694.538
-737.041
-746.872
-731.034
-699.664
-658.555
-610.822
-556.602
-494.612
-426.883
-357.168
-289.435
-227.961
-175.339
-132.535
-99.96
-76.969
-62.169
-54.096
-50.958
-50.792
-51.883
-52.645
-51.762
-48.716
-43.6
-36.808
-29.045
-21.087
-13.618
-7.369
-2.949
-0.541
-0.005
-0.973
-2.921
-5.339
-7.762
-9.752
-10.945
-11.162
-10.382
-8.677
-6.184
-3.041
0.626
4.685
8.994
13.452
17.981
22.487
26.885
31.08
34.955
38.442
41.507
44.128
46.312
48.085
49.476
50.535
51.326
51.903
52.317
52.62
52.85
53.059
53.302
53.63
54.101
54.756
55.621
56.718
58.057
59.641
61.467
63.527
65.802
68.279
70.946
73.79
76.803
79.969
83.273
86.696
90.22
93.824
97.491
101.202
104.937
108.677
112.404
116.1
119.749
123.331
126.828
130.219
133.484
136.603
139.558
142.328
144.897
147.246
149.36
151.226
152.83
154.162
155.212
155.972
156.436
156.597
156.454
156.003
155.246
154.183
152.816
151.151
149.192
146.948
144.425
141.635
138.588
135.295
131.77
128.027
124.08
119.944
115.637
111.175
106.574
101.853
97.029
92.122
87.148
82.127
77.076
72.013
66.954
61.918
56.919
51.973
47.095
42.297
37.595
32.998
28.52
24.169
19.956
15.889
11.975
8.221
4.632
1.213
-2.033
-5.104
-7.996
-10.711
-13.247
-15.605
-17.788
-19.798
-21.637
-23.311
-24.823
-26.179
-27.385
-28.446
-29.37
-30.163
-30.832
-31.386
-31.83
-32.173
-32.422
-32.584
-32.666
-32.676
-32.619
-32.504
-32.336
-32.12
-31.864
-31.573
-31.252
-30.905
-30.539
-30.156
-29.762
-29.36
-28.954
-28.548
-28.144
-27.745
-27.355
-26.975
-26.608
-26.255
-25.918
-25.599
-25.298
-25.017
-24.756
-24.515
-24.297
-24.1
-23.925
-23.773
-23.644
-23.537
-23.454
-23.393
-23.356
-23.341
-23.349
-23.379
-23.431
-23.505
-23.6
-23.715
-23.85
-24.003
-24.173
-24.36
-24.561
-24.774
-24.999
-25.233
-25.475
-25.722
-25.973
-26.225
-26.478
-26.729
-26.977
-27.22
-27.456
-27.684
-27.903
-28.111
-28.308
-28.494
-28.666
-28.826
-28.972
-29.104
-29.223
-29.327
-29.418
-29.495
-29.559
-29.611
-29.65
-29.679
-29.699
-29.71
-29.715
-29.714
-29.71
-29.704
-29.698
-29.692
-29.689
-29.69
-29.696
-29.708
-29.727
-29.752
-29.785
-29.824
-29.869
-29.917
-29.967
-30.016
-30.062
-30.1
-30.128
-30.142
-30.139
-30.115
-30.065
-29.987
-29.875
-29.725
-29.534
-29.296
-29.007
-28.662
-28.257
-27.787
-27.251
-26.643
-25.961
-25.202
-24.363
-23.443
-22.439
-21.352
-20.179
-18.921
-17.581
-16.159
-14.661
-13.09
-11.453
-9.757
-8.011
-6.224
-4.403
-2.557
-0.697
1.166
3.022
4.863
6.683
8.473
10.223
11.923
13.572
15.172
16.727
18.234
19.681
21.052
22.341
23.541
24.618
25.525
26.227
26.698
26.946
27.01
26.9
26.671
26.511
26.557
26.82
27.29
27.859
28.839
31.048
34.812
39.597
43.056
41.946
34.656
22.018
9.058
2.219
5.133
18.284
36.151
50.894
57.857
54.671
44.395
33.043
24.02
19.644
19.309
19.914
19.93
18.397
15.122
11.199
7.119
3.049
-0.731
-4.175
-7.023
-8.782
-9.209
-8.341
-6.465
-4.15
-1.95
-0.196
0.804
0.668
-0.847
-3.675
-7.312
-10.72
-12.289
-10.399
-3.813
8.28
24.799
43.541
62.707
81.313
101.722
127.559
161.228
203.365
248.629
288.28
312.5
309.943
274.986
208.839
117.331
12.241
-96.324
-204.912
-312.861
-421.439
-528.598
-624.448
-697.071
-737.035
-741.061
-714.349
-665.328
-601.244
-527.434
-446.758
-362.925
-282.332
-210.188
-150.251
-103.165
-65.318
-34.321
-8.847
11.542
24.994
31.24
31.75
28.442
24.347
21.796
21.411
23.19
26.838
32.039
38.694
46.434
54.275
60.986
65.933
69.034
70.463
70.493
69.218
66.791
63.778
61.004
59.022
58.07
58.187
59.288
61.407
64.574
68.613
73.198
78.054
82.98
87.846
92.58
97.044
101.107
104.711
107.846
110.531
112.792
114.644
116.104
117.217
118.039
118.626
119.037
119.323
119.539
119.751
120.022
120.42
120.995
121.782
122.807
124.087
125.632
127.442
129.51
131.822
134.365
137.125
140.091
143.248
146.582
150.073
153.703
157.45
161.293
165.212
169.186
173.192
177.209
181.217
185.193
189.118
192.969
196.722
200.353
203.836
207.147
210.262
213.156
215.806
218.191
220.29
222.085
223.559
224.698
225.488
225.917
225.977
225.66
224.96
223.873
222.398
220.534
218.285
215.655
212.649
209.275
205.544
201.468
197.06
192.335
187.31
182.002
176.432
170.619
164.585
158.353
151.946
145.388
138.703
131.915
125.05
118.132
111.184
104.231
97.296
90.4
83.567
76.816
70.167
63.639
57.25
51.016
44.952
39.072
33.389
27.914
22.656
17.625
12.825
8.264
3.945
-0.13
-3.959
-7.542
-10.881
-13.978
-16.836
-19.46
-21.855
-24.028
-25.986
-27.736
-29.287
-30.648
-31.829
-32.838
-33.686
-34.384
-34.941
-35.367
-35.674
-35.871
-35.968
-35.975
-35.902
-35.756
-35.548
-35.285
-34.973
-34.621
-34.235
-33.82
-33.382
-32.925
-32.453
-31.97
-31.48
-30.984
-30.486
-29.987
-29.49
-28.996
-28.507
-28.024
-27.548
-27.08
-26.621
-26.172
-25.734
-25.306
-24.89
-24.485
-24.093
-23.713
-23.345
-22.991
-22.65
-22.323
-22.011
-21.715
-21.436
-21.175
-20.935
-20.717
-20.522
-20.354
-20.214
-20.105
-20.029
-19.988
-19.984
-20.019
-20.095
-20.214
-20.375
-20.58
-20.83
-21.124
-21.463
-21.846
-22.273
-22.742
-23.254
-23.806
-24.398
-25.027
-25.693
-26.394
-27.128
-27.892
-28.684
-29.502
-30.343
-31.203
-32.08
-32.969
-33.867
-34.77
-35.673
-36.574
-37.467
-38.35
-39.217
-40.065
-40.891
-41.693
-42.467
-43.211
-43.924
-44.603
-45.249
-45.859
-46.434
-46.972
-47.475
-47.942
-48.373
-48.769
-49.131
-49.459
-49.755
-50.02
-50.254
-50.46
-50.639
-50.792
-50.922
-51.03
-51.119
-51.19
-51.247
-51.29
-51.323
-51.347
-51.364
-51.376
-51.383
-51.385
-51.383
-51.376
-51.364
-51.346
-51.32
-51.286
-51.24
-51.18
-51.105
-51.012
-50.898
-50.759
-50.592
-50.395
-50.164
-49.896
-49.588
-49.235
-48.837
-48.39
-47.891
-47.339
-46.729
-46.061
-45.333
-44.542
-43.689
-42.774
-41.795
-40.755
-39.656
-38.504
-37.301
-36.054
-34.766
-33.445
-32.096
-30.727
-29.344
-27.951
-26.554
-25.16
-23.777
-22.414
-21.077
-19.776
-18.519
-17.314
-16.168
-15.089
-14.079
-13.139
-12.272
-11.479
-10.766
-10.141
-9.608
-9.168
-8.822
-8.566
-8.396
-8.297
-8.251
-8.229
-8.21
-8.176
-8.113
-8.014
-7.869
-7.666
-7.401
-7.065
-6.652
-6.158
-5.586
-4.942
-4.254
-3.569
-2.941
-2.447
-2.153
-2.11
-2.38
-3.015
-4.065
-5.585
-7.6
-10.11
-13.134
-16.705
-20.808
-25.386
-30.262
-35.139
-39.753
-43.87
-47.243
-49.6
-50.702
-50.416
-48.913
-46.66
-44.124
-41.637
-39.519
-38.152
-37.932
-39.23
-41.326
-42.395
-41.024
-36.005
-28.069
-19.89
-11.726
-2.628
10.346
33.266
68.109
114.09
168.883
224.756
274.806
312.604
329.342
319.717
281.614
216.16
131.269
36.722
-60.903
-158.092
-256.497
-359.323
-464.644
-565.666
-650.83
-708.3
-732.575
-725.128
-694.292
-649.982
-598.284
-541.66
-478.591
-408.726
-336.316
-266.952
-207.555
-161.781
-127.738
-102.827
-83.451
-67.458
-55.748
-48.298
-44.46
-43.057
-41.737
-38.957
-34.393
-28.22
-21.027
-13.504
-6.179
0.463
5.852
9.515
11.368
11.62
10.659
9.014
7.176
5.532
4.463
4.298
5.181
7.14
10.113
13.949
18.499
23.628
29.18
34.999
40.968
46.968
52.873
58.566
63.919
68.836
73.265
77.177
80.561
83.423
85.786
87.693
89.208
90.395
91.31
92.01
92.546
92.977
93.371
93.796
94.319
94.99
95.846
96.915
98.219
99.771
101.577
103.632
105.927
108.452
111.203
114.172
117.355
120.739
124.311
128.055
131.953
135.988
140.141
144.392
148.721
153.106
157.527
161.962
166.389
170.785
175.123
179.377
183.519
187.519
191.352
194.988
198.4
201.563
204.452
207.043
209.316
211.251
212.829
214.034
214.853
215.273
215.284
214.879
214.052
212.8
211.124
209.025
206.507
203.577
200.244
196.518
192.413
187.944
183.128
177.983
172.529
166.788
160.784
154.54
148.081
141.434
134.626
127.682
120.632
113.501
106.318
99.108
91.897
84.711
77.574
70.509
63.539
56.685
49.966
43.402
37.008
30.802
24.795
19.001
13.431
8.094
2.996
-1.855
-6.455
-10.802
-14.893
-18.729
-22.31
-25.639
-28.721
-31.559
-34.16
-36.53
-38.678
-40.612
-42.341
-43.876
-45.225
-46.4
-47.411
-48.269
-48.985
-49.569
-50.033
-50.386
-50.639
-50.8
-50.881
-50.889
-50.833
-50.721
-50.561
-50.358
-50.121
-49.854
-49.564
-49.255
-48.931
-48.598
-48.257
-47.913
-47.569
-47.225
-46.885
-46.549
-46.219
-45.895
-45.579
-45.27
-44.969
-44.675
-44.389
-44.111
-43.84
-43.576
-43.319
-43.068
-42.823
-42.584
-42.351
-42.123
-41.901
-41.685
-41.474
-41.269
-41.071
-40.878
-40.692
-40.513
-40.341
-40.176
-40.019
-39.869
-39.728
-39.595
-39.47
-39.355
-39.249
-39.152
-39.065
-38.987
-38.919
-38.86
-38.811
-38.771
-38.74
-38.718
-38.705
-38.701
-38.706
-38.718
-38.739
-38.767
-38.802
-38.844
-38.893
-38.947
-39.007
-39.071
-39.14
-39.213
-39.289
-39.368
-39.45
-39.534
-39.619
-39.706
-39.794
-39.883
-39.973
-40.064
-40.155
-40.248
-40.342
-40.437
-40.533
-40.632
-40.732
-40.834
-40.939
-41.045
-41.152
-41.262
-41.373
-41.486
-41.6
-41.714
-41.829
-41.945
-42.062
-42.178
-42.293
-42.408
-42.522
-42.635
-42.745
-42.853
-42.958
-43.058
-43.153
-43.241
-43.32
-43.388
-43.443
-43.482
-43.504
-43.506
-43.485
-43.439
-43.364
-43.259
-43.12
-42.946
-42.733
-42.478
-42.18
-41.836
-41.444
-41.002
-40.507
-39.958
-39.352
-38.689
-37.966
-37.182
-36.336
-35.426
-34.453
-33.417
-32.318
-31.159
-29.94
-28.666
-27.34
-25.97
-24.558
-23.113
-21.639
-20.143
-18.632
-17.113
-15.593
-14.078
-12.575
-11.093
-9.641
-8.23
-6.866
-5.559
-4.316
-3.147
-2.062
-1.07
-0.172
0.627
1.32
1.898
2.35
2.669
2.859
2.923
2.865
2.693
2.416
2.052
1.631
1.18
0.723
0.275
-0.158
-0.564
-0.921
-1.208
-1.404
-1.503
-1.523
-1.472
-1.353
-1.185
-0.999
-0.855
-0.843
-1.033
-1.481
-2.238
-3.348
-4.865
-6.844
-9.328
-12.347
-15.909
-19.996
-24.604
-29.713
-35.274
-41.242
-47.464
-53.705
-59.726
-65.201
-69.821
-73.383
-75.594
-76.093
-74.782
-71.686
-67.023
-61.444
-55.384
-48.972
-42.699
-37.198
-32.754
-29.584
-26.884
-22.568
-15.371
-5.037
7.372
19.81
31.431
43.473
59.931
84.721
119.842
164.622
213.1
257.964
291.692
306.079
296.042
258.239
193.002
106.258
5.964
-99.067
-203.632
-308.023
-413.255
-518.351
-617.305
-698.344
-750.547
-769.277
-756.671
-720.922
-671.711
-613.637
-546.769
-470.847
-386.352
-298.846
-218.817
-153.664
-107.13
-77.786
-58.468
-43.899
-31.529
-20.88
-13.755
-10.133
-8.194
-5.941
-1.514
5.449
14.249
24.139
34.128
43.336
50.991
56.274
58.916
59.126
57.286
53.948
49.672
44.951
40.349
36.437
33.524
31.722
31.027
31.305
32.453
34.403
37.033
40.183
43.714
47.501
51.436
55.46
59.494
63.412
67.076
70.438
73.508
76.209
78.537
80.521
82.021
83.514
85.485
87.374
89.055
89.446
87.241
83.989
80.746
79.063
81.046
84.935
89.226
92.884
94.179
94.36
94.689
95.442
97.375
100.021
102.787
105.769
108.877
112.139
115.654
119.326
123.073
126.894
130.772
134.679
138.597
142.509
146.396
150.249
154.059
157.803
161.453
164.99
168.389
171.626
174.679
177.525
180.141
182.504
184.598
186.404
187.906
189.089
189.942
190.451
190.608
190.403
189.832
188.889
187.571
185.877
183.808
181.367
178.559
175.389
171.867
168.003
163.807
159.294
154.478
149.377
144.009
138.393
132.55
126.503
120.275
113.89
107.374
100.752
94.049
87.293
80.509
73.722
66.959
60.243
53.6
47.053
40.625
34.338
28.213
22.27
16.527
11.001
5.709
0.664
-4.12
-8.633
-12.865
-16.808
-20.456
-23.803
-26.848
-29.588
-32.023
-34.157
-35.993
-37.535
-38.792
-39.77
-40.479
-40.93
-41.134
-41.103
-40.85
-40.389
-39.735
-38.902
-37.905
-36.759
-35.48
-34.083
-32.584
-30.998
-29.339
-27.621
-25.859
-24.065
-22.252
-20.433
-18.618
-16.819
-15.045
-13.306
-11.609
-9.964
-8.376
-6.851
-5.395
-4.013
-2.706
-1.48
-0.336
0.725
1.7
2.589
3.392
4.108
4.738
5.284
5.745
6.125
6.423
6.642
6.784
6.85
6.844
6.766
6.619
6.406
6.127
5.787
5.386
4.929
4.416
3.851
3.236
2.575
1.87
1.123
0.338
-0.483
-1.336
-2.218
-3.126
-4.055
-5.004
-5.967
-6.94
-7.921
-8.903
-9.884
-10.859
-11.822
-12.77
-13.698
-14.601
-15.474
-16.314
-17.114
-17.87
-18.579
-19.236
-19.837
-20.379
-20.859
-21.274
-21.622
-21.902
-22.112
-22.252
-22.321
-22.32
-22.249
-22.11
-21.904
-21.634
-21.302
-20.911
-20.466
-19.969
-19.426
-18.842
-18.221
-17.568
-16.89
-16.193
-15.482
-14.765
-14.047
-13.335
-12.636
-11.957
-11.303
-10.682
-10.1
-9.561
-9.071
-8.634
-8.254
-7.934
-7.678
-7.487
-7.362
-7.304
-7.314
-7.391
-7.534
-7.741
-8.01
-8.339
-8.723
-9.16
-9.644
-10.17
-10.733
-11.327
-11.948
-12.587
-13.24
-13.898
-14.556
-15.206
-15.84
-16.451
-17.031
-17.573
-18.071
-18.516
-18.902
-19.224
-19.477
-19.655
-19.755
-19.774
-19.708
-19.557
-19.319
-18.994
-18.581
-18.083
-17.501
-16.839
-16.098
-15.285
-14.405
-13.467
-12.476
-11.44
-10.367
-9.266
-8.145
-7.014
-5.879
-4.748
-3.628
-2.527
-1.456
-0.422
0.563
1.492
2.356
3.146
3.857
4.484
5.024
5.478
5.847
6.13
6.327
6.431
6.437
6.347
6.164
5.892
5.545
5.135
4.681
4.209
3.74
3.293
2.887
2.524
2.211
1.95
1.745
1.612
1.57
1.618
1.756
1.969
2.221
2.484
2.716
2.85
2.83
2.594
2.072
1.223
0.005
-1.62
-3.659
-6.164
-9.208
-12.789
-16.841
-21.215
-25.635
-29.865
-33.707
-36.887
-39.116
-40.195
-40.032
-38.846
-37.148
-35.44
-34.18
-33.703
-34.202
-35.923
-39.017
-43.019
-47.065
-49.672
-48.781
-43.549
-33.722
-19.606
-2.759
17.027
40.834
69.358
104.157
144.253
186.88
229.155
265.708
290.878
298.088
280.055
233.711
160.848
68.949
-31.635
-133.401
-233.992
-336.335
-442.287
-548.469
-645.271
-718.108
-757.286
-761.454
-736.551
-693.847
-641.825
-583.621
-519.224
-448.586
-373.736
-299.336
-230.995
-171.032
-120.244
-78.298
-43.633
-16.718
2.22
13.678
17.976
16.909
12.409
5.985
-0.755
-6.796
-11.436
-13.937
-13.799
-10.884
-5.362
2.131
10.674
19.37
27.371
34.054
38.994
41.969
43.016
42.445
40.78
38.659
36.785
35.636
35.499
36.537
38.726
41.941
46.004
50.634
55.458
60.206
64.689
68.754
72.365
75.505
78.143
80.304
82.04
83.387
84.393
85.105
85.546
85.759
85.793
85.695
85.529
85.359
85.241
85.238
85.396
85.747
86.321
87.139
88.21
89.543
91.136
92.982
95.075
97.411
99.979
102.774
105.781
108.984
112.369
115.918
119.616
123.444
127.387
131.424
135.539
139.711
143.922
148.154
152.385
156.593
160.754
164.845
168.841
172.719
176.455
180.023
183.402
186.57
189.504
192.186
194.596
196.718
198.535
200.031
201.195
202.013
202.476
202.577
202.307
201.663
200.641
199.241
197.464
195.311
192.789
189.902
186.658
183.069
179.144
174.896
170.34
165.492
160.367
154.985
149.365
143.527
137.491
131.279
124.915
118.42
111.817
105.129
98.379
91.591
84.786
77.989
71.219
64.5
57.852
51.295
44.848
38.529
32.355
26.342
20.504
14.855
9.405
4.166
-0.854
-5.647
-10.207
-14.529
-18.61
-22.449
-26.044
-29.397
-32.51
-35.387
-38.031
-40.449
-42.647
-44.634
-46.418
-48.009
-49.416
-50.652
-51.727
-52.653
-53.444
-54.111
-54.666
-55.122
-55.492
-55.786
-56.016
-56.194
-56.329
-56.431
-56.508
-56.57
-56.623
-56.673
-56.728
-56.791
-56.867
-56.958
-57.068
-57.198
-57.348
-57.52
-57.712
-57.924
-58.152
-58.395
-58.649
-58.91
-59.174
-59.436
-59.691
-59.934
-60.158
-60.358
-60.528
-60.663
-60.758
-60.806
-60.805
-60.75
-60.636
-60.462
-60.223
-59.919
-59.548
-59.109
-58.602
-58.028
-57.387
-56.681
-55.913
-55.084
-54.198
-53.259
-52.269
-51.233
-50.156
-49.042
-47.897
-46.726
-45.534
-44.328
-43.113
-41.895
-40.68
-39.474
-38.283
-37.111
-35.964
-34.846
-33.761
-32.714
-31.707
-30.742
-29.823
-28.951
-28.126
-27.351
-26.624
-25.945
-25.314
-24.73
-24.192
-23.697
-23.245
-22.833
-22.46
-22.123
-21.822
-21.552
-21.314
-21.103
-20.918
-20.757
-20.618
-20.499
-20.397
-20.312
-20.242
-20.186
-20.143
-20.113
-20.096
-20.091
-20.099
-20.121
-20.157
-20.207
-20.274
-20.359
-20.462
-20.585
-20.73
-20.898
-21.089
-21.305
-21.545
-21.81
-22.097
-22.407
-22.737
-23.086
-23.452
-23.832
-24.222
-24.621
-25.024
-25.429
-25.829
-26.221
-26.6
-26.96
-27.295
-27.599
-27.868
-28.093
-28.271
-28.395
-28.46
-28.461
-28.393
-28.251
-28.032
-27.731
-27.345
-26.873
-26.313
-25.664
-24.929
-24.109
-23.209
-22.233
-21.188
-20.08
-18.916
-17.705
-16.454
-15.171
-13.866
-12.545
-11.219
-9.896
-8.586
-7.301
-6.052
-4.851
-3.709
-2.639
-1.648
-0.746
0.06
0.768
1.374
1.878
2.275
2.559
2.723
2.77
2.699
2.517
2.233
1.862
1.424
0.947
0.459
-0.018
-0.46
-0.857
-1.209
-1.517
-1.773
-1.961
-2.063
-2.077
-2.014
-1.893
-1.725
-1.523
-1.345
-1.275
-1.405
-1.815
-2.542
-3.59
-4.987
-6.774
-8.901
-11.324
-14.088
-17.185
-20.617
-24.482
-28.24
-31.304
-33.956
-36.029
-38.346
-41.876
-44.787
-46.041
-44.295
-37.896
-29.354
-20.734
-13.432
-9.786
-9.203
-10.57
-13.425
-16.221
-17.837
-17.777
-15.027
-8.134
4.227
23.135
48.463
78.184
109.882
141.654
173.313
205.924
238.155
266.348
282.872
277.172
243.754
181.59
95.75
-1.849
-103.001
-203.062
-300.773
-400.576
-502.837
-602.514
-691.716
-758.056
-792.609
-794.229
-766.011
-716.212
-652.93
-578.703
-496.078
-407.15
-315.853
-231.886
-162.176
-110.081
-75.411
-51.737
-34.16
-20.861
-11.318
-7.185
-8.47
-12.726
-17.073
-19.184
-18.363
-14.949
-9.55
-2.878
4.667
12.176
18.206
22.103
23.806
23.495
21.716
18.858
15.023
10.763
6.972
4.157
2.583
2.323
3.169
5.058
8.084
12.109
16.823
21.98
27.347
32.756
38.155
43.415
48.344
52.834
56.832
60.317
63.317
65.852
67.922
69.559
70.819
71.754
72.433
72.916
73.253
73.506
73.743
74.03
74.438
75.021
75.814
76.842
78.12
79.652
81.442
83.483
85.762
88.268
90.991
93.92
97.047
100.363
103.852
107.498
111.286
115.196
119.214
123.322
127.504
131.741
136.016
140.311
144.61
148.891
153.135
157.317
161.414
165.401
169.255
172.953
176.469
179.781
182.868
185.71
188.287
190.582
192.579
194.262
195.619
196.637
197.306
197.617
197.563
197.139
196.342
195.171
193.625
191.708
189.424
186.779
183.782
180.443
176.774
172.788
168.501
163.929
159.091
154.006
148.694
143.177
137.477
131.618
125.623
119.516
113.32
107.059
100.757
94.437
88.122
81.833
75.592
69.42
63.337
57.362
51.513
45.807
40.26
34.887
29.7
24.713
19.935
15.376
11.043
6.943
3.08
-0.542
-3.922
-7.058
-9.951
-12.603
-15.016
-17.196
-19.146
-20.874
-22.385
-23.687
-24.788
-25.698
-26.424
-26.977
-27.365
-27.598
-27.687
-27.642
-27.472
-27.187
-26.797
-26.313
-25.744
-25.098
-24.385
-23.614
-22.792
-21.929
-21.03
-20.102
-19.154
-18.189
-17.215
-16.236
-15.258
-14.283
-13.317
-12.364
-11.425
-10.504
-9.604
-8.727
-7.875
-7.049
-6.253
-5.487
-4.752
-4.051
-3.384
-2.752
-2.155
-1.595
-1.072
-0.585
-0.137
0.275
0.648
0.985
1.284
1.546
1.771
1.961
2.115
2.234
2.319
2.371
2.391
2.379
2.336
2.264
2.162
2.033
1.877
1.696
1.49
1.26
1.009
0.737
0.444
0.134
-0.194
-0.538
-0.898
-1.272
-1.66
-2.061
-2.473
-2.897
-3.331
-3.776
-4.23
-4.694
-5.168
-5.652
-6.146
-6.65
-7.164
-7.689
-8.226
-8.774
-9.333
-9.904
-10.487
-11.082
-11.69
-12.31
-12.942
-13.587
-14.244
-14.912
-15.591
-16.281
-16.98
-17.687
-18.402
-19.122
-19.845
-20.572
-21.299
-22.024
-22.747
-23.463
-24.17
-24.866
-25.547
-26.21
-26.85
-27.465
-28.05
-28.602
-29.117
-29.591
-30.021
-30.403
-30.734
-31.01
-31.228
-31.385
-31.477
-31.502
-31.458
-31.34
-31.149
-30.881
-30.537
-30.115
-29.615
-29.037
-28.382
-27.65
-26.842
-25.96
-25.006
-23.983
-22.895
-21.746
-20.541
-19.286
-17.99
-16.66
-15.302
-13.925
-12.538
-11.148
-9.763
-8.391
-7.037
-5.709
-4.413
-3.159
-1.954
-0.805
0.279
1.29
2.219
3.063
3.814
4.473
5.04
5.514
5.896
6.185
6.376
6.469
6.464
6.365
6.176
5.907
5.574
5.199
4.806
4.418
4.052
3.723
3.441
3.215
3.048
2.936
2.888
2.908
2.998
3.158
3.377
3.622
3.859
4.043
4.113
4.021
3.713
3.132
2.228
0.956
-0.714
-2.794
-5.293
-8.244
-11.687
-15.609
-19.931
-24.467
-28.971
-33.202
-36.938
-39.942
-41.939
-42.733
-42.27
-40.758
-38.683
-36.558
-34.837
-33.854
-33.841
-35.059
-37.686
-41.345
-45.222
-47.896
-47.373
-42.821
-34.045
-21.469
-6.809
10.075
30.41
55.223
86.529
123.63
163.613
203.151
236.41
257.521
260.22
238.105
188.895
114.655
22.765
-77.077
-178.188
-278.092
-379.518
-484.973
-591.229
-690.003
-767.956
-812.9
-820.951
-794.079
-739.702
-669.064
-589.976
-509.533
-435.064
-368.847
-312.363
-265.138
-222.764
-184.036
-149.506
-120.02
-98.325
-84.851
-77.82
-75.159
-74.143
-72.781
-70.102
-65.714
-59.787
-52.699
-44.964
-37.217
-30.042
-24.061
-19.833
-17.523
-16.974
-17.823
-19.529
-21.555
-23.47
-24.867
-25.381
-24.841
-23.207
-20.529
-16.958
-12.648
-7.735
-2.377
3.266
9.08
14.946
20.738
26.341
31.621
36.478
40.859
44.735
48.094
50.944
53.306
55.226
56.77
58.004
58.986
59.774
60.419
60.982
61.53
62.133
62.861
63.766
64.884
66.244
67.865
69.759
71.932
74.376
77.077
80.025
83.21
86.627
90.266
94.115
98.159
102.379
106.758
111.277
115.917
120.657
125.479
130.361
135.284
140.228
145.173
150.098
154.978
159.79
164.508
169.105
173.558
177.841
181.928
185.798
189.426
192.794
195.881
198.67
201.144
203.288
205.09
206.536
207.618
208.328
208.658
208.605
208.166
207.342
206.132
204.541
202.574
200.236
197.538
194.487
191.097
187.381
183.351
179.025
174.419
169.552
164.442
159.11
153.576
147.864
141.993
135.988
129.87
123.663
117.387
111.067
104.723
98.377
92.051
85.765
79.539
73.391
67.341
61.406
55.601
49.942
44.444
39.12
33.98
29.038
24.301
19.778
15.478
11.405
7.566
3.963
0.6
-2.524
-5.406
-8.05
-10.457
-12.63
-14.574
-16.294
-17.797
-19.09
-20.179
-21.075
-21.786
-22.321
-22.691
-22.906
-22.977
-22.914
-22.728
-22.431
-22.032
-21.543
-20.973
-20.335
-19.636
-18.887
-18.099
-17.278
-16.435
-15.578
-14.715
-13.853
-12.999
-12.159
-11.339
-10.544
-9.778
-9.046
-8.351
-7.695
-7.081
-6.51
-5.984
-5.502
-5.065
-4.673
-4.325
-4.019
-3.754
-3.529
-3.341
-3.189
-3.07
-2.983
-2.925
-2.895
-2.889
-2.906
-2.945
-3.001
-3.075
-3.163
-3.264
-3.376
-3.497
-3.627
-3.764
-3.907
-4.056
-4.21
-4.369
-4.533
-4.701
-4.875
-5.055
-5.242
-5.435
-5.638
-5.85
-6.073
-6.309
-6.559
-6.824
-7.105
-7.402
-7.717
-8.049
-8.399
-8.766
-9.151
-9.552
-9.971
-10.404
-10.852
-11.314
-11.786
-12.266
-12.753
-13.244
-13.734
-14.22
-14.698
-15.164
-15.614
-16.044
-16.45
-16.825
-17.166
-17.467
-17.723
-17.93
-18.081
-18.171
-18.195
-18.15
-18.031
-17.835
-17.559
-17.201
-16.759
-16.231
-15.618
-14.919
-14.133
-13.261
-12.305
-11.267
-10.15
-8.958
-7.698
-6.374
-4.996
-3.57
-2.107
-0.614
0.901
2.428
3.959
5.487
7.004
8.502
9.975
11.412
12.804
14.143
15.421
16.633
17.773
18.837
19.82
20.72
21.543
22.288
22.951
23.526
23.999
24.363
24.621
24.771
24.813
24.752
24.589
24.338
24.03
23.685
23.323
22.946
22.546
22.128
21.71
21.31
20.949
20.632
20.338
20.068
19.825
19.602
19.389
19.129
18.719
18.08
17.136
15.836
14.177
12.105
9.53
6.436
2.851
-1.104
-5.178
-9.185
-13.032
-16.56
-19.581
-21.96
-23.579
-24.596
-25.48
-26.708
-28.637
-31.484
-35.436
-40.628
-47.124
-54.723
-62.17
-67.404
-68.843
-65.189
-56.957
-46.944
-36.156
-24.836
-11.225
10.323
42.137
84.411
135.21
186.609
231.499
262.555
270.84
251.894
204.012
129.651
37.264
-65.111
-172.266
-281.419
-391.22
-497.328
-589.993
-658.084
-694.877
-699.912
-680.186
-645.855
-603.231
-555.532
-502.939
-444.259
-381.377
-317.504
-256.031
-200.703
-153.528
-115.03
-85.346
-63.542
-48.111
-37.93
-31.635
-27.705
-24.917
-22.03
-17.964
-12.433
-5.67
2.026
10.095
17.934
25.1
31.018
35.164
37.432
37.999
37.203
35.552
33.528
31.501
29.849
28.907
28.827
29.655
31.341
33.753
36.76
40.247
44.085
48.144
52.333
56.555
60.703
64.676
68.356
71.653
74.524
76.942
78.902
80.412
81.5
82.21
82.61
82.761
82.721
82.542
82.27
81.961
81.677
81.483
81.444
81.61
82.015
82.686
83.642
84.894
86.445
88.289
90.408
92.791
95.428
98.31
101.426
104.762
108.3
112.02
115.902
119.924
124.065
128.301
132.608
136.965
141.346
145.731
150.095
154.415
158.665
162.819
166.848
170.727
174.428
177.926
181.196
184.212
186.953
189.398
191.528
193.324
194.771
195.855
196.562
196.881
196.805
196.326
195.439
194.142
192.434
190.316
187.793
184.868
181.551
177.85
173.777
169.344
164.567
159.46
154.042
148.332
142.35
136.118
129.657
122.991
116.143
109.138
102.001
94.757
87.43
80.047
72.632
65.21
57.804
50.44
43.14
35.926
28.822
21.847
15.022
8.365
1.895
-4.372
-10.42
-16.237
-21.808
-27.124
-32.174
-36.95
-41.445
-45.653
-49.572
-53.199
-56.531
-59.571
-62.32
-64.781
-66.958
-68.857
-70.485
-71.849
-72.959
-73.825
-74.457
-74.867
-75.067
-75.07
-74.89
-74.539
-74.033
-73.385
-72.609
-71.72
-70.731
-69.656
-68.51
-67.304
-66.052
-64.766
-63.457
-62.137
-60.815
-59.501
-58.204
-56.932
-55.692
-54.491
-53.334
-52.225
-51.169
-50.17
-49.228
-48.346
-47.525
-46.764
-46.062
-45.419
-44.831
-44.297
-43.814
-43.378
-42.987
-42.635
-42.32
-42.038
-41.785
-41.556
-41.349
-41.159
-40.983
-40.818
-40.66
-40.509
-40.361
-40.214
-40.067
-39.919
-39.77
-39.617
-39.46
-39.299
-39.135
-38.967
-38.796
-38.622
-38.447
-38.272
-38.098
-37.926
-37.758
-37.595
-37.438
-37.287
-37.142
-37.005
-36.875
-36.75
-36.63
-36.515
-36.402
-36.292
-36.18
-36.064
-35.942
-35.809
-35.663
-35.498
-35.311
-35.096
-34.849
-34.567
-34.246
-33.882
-33.472
-33.012
-32.499
-31.932
-31.307
-30.622
-29.876
-29.067
-28.196
-27.263
-26.27
-25.219
-24.114
-22.959
-21.762
-20.53
-19.267
-17.982
-16.682
-15.373
-14.064
-12.762
-11.471
-10.198
-8.954
-7.748
-6.591
-5.493
-4.46
-3.499
-2.616
-1.817
-1.104
-0.475
0.076
0.549
0.941
1.243
1.445
1.541
1.534
1.43
1.23
0.944
0.585
0.176
-0.246
-0.657
-1.057
-1.446
-1.836
-2.229
-2.608
-2.957
-3.269
-3.531
-3.742
-3.901
-3.996
-4.044
-4.084
-4.172
-4.401
-4.842
-5.522
-6.469
-7.697
-9.208
-11.054
-13.288
-15.871
-18.723
-21.696
-24.562
-27.16
-29.355
-30.909
-31.536
-31.076
-29.603
-27.485
-25.355
-23.747
-22.933
-23.21
-24.919
-28.092
-32.494
-37.509
-41.847
-44.36
-43.959
-38.832
-28.119
-11.991
8.564
30.04
50.319
70.237
91.211
117.358
150.896
187.865
221.993
243.283
240.238
207.764
146.772
63.014
-32.501
-131.105
-230.787
-331.055
-431.506
-528.694
-611.669
-669.273
-696.079
-692.38
-666.016
-627.115
-581.524
-531.954
-478.184
-419.047
-356.201
-292.587
-231.475
-176.251
-128.62
-89.168
-58.101
-34.691
-17.872
-6.729
0.009
3.728
5.62
6.945
8.807
11.613
15.335
19.809
24.609
29.253
33.357
36.416
37.923
37.774
36.173
33.455
30.119
26.643
23.374
20.68
18.907
18.207
18.605
20.044
22.362
25.405
29.052
33.147
37.551
42.156
46.832
51.459
55.929
60.117
63.939
67.35
70.313
72.82
74.89
76.548
77.844
78.847
79.611
80.196
80.653
81.028
81.38
81.77
82.258
82.906
83.76
84.847
86.193
87.811
89.705
91.874
94.306
96.981
99.886
103.008
106.334
109.852
113.547
117.399
121.389
125.495
129.695
133.97
138.296
142.652
147.016
151.365
155.679
159.937
164.116
168.191
172.137
175.928
179.539
182.946
186.123
189.049
191.699
194.055
196.097
197.809
199.176
200.185
200.823
201.082
200.954
200.434
199.518
198.205
196.496
194.394
191.903
189.031
185.786
182.179
178.223
173.932
169.322
164.412
159.22
153.768
148.076
142.168
136.068
129.801
123.393
116.868
110.254
103.576
96.861
90.134
83.42
76.744
70.129
63.598
57.172
50.872
44.716
38.723
32.909
27.29
21.878
16.687
11.727
7.007
2.535
-1.682
-5.641
-9.337
-12.771
-15.94
-18.847
-21.495
-23.889
-26.033
-27.934
-29.602
-31.044
-32.272
-33.297
-34.129
-34.782
-35.269
-35.603
-35.797
-35.865
-35.821
-35.676
-35.446
-35.141
-34.775
-34.359
-33.904
-33.422
-32.922
-32.414
-31.906
-31.407
-30.925
-30.465
-30.034
-29.637
-29.278
-28.961
-28.687
-28.459
-28.278
-28.144
-28.056
-28.012
-28.011
-28.05
-28.125
-28.233
-28.369
-28.529
-28.708
-28.902
-29.104
-29.312
-29.519
-29.721
-29.915
-30.095
-30.258
-30.4
-30.519
-30.612
-30.676
-30.709
-30.711
-30.679
-30.614
-30.514
-30.381
-30.215
-30.017
-29.789
-29.532
-29.249
-28.944
-28.619
-28.278
-27.925
-27.564
-27.2
-26.837
-26.478
-26.129
-25.794
-25.477
-25.181
-24.911
-24.669
-24.459
-24.284
-24.145
-24.044
-23.98
-23.956
-23.97
-24.021
-24.108
-24.229
-24.381
-24.561
-24.768
-24.998
-25.246
-25.508
-25.78
-26.058
-26.336
-26.608
-26.87
-27.114
-27.337
-27.534
-27.7
-27.83
-27.92
-27.967
-27.966
-27.915
-27.811
-27.653
-27.437
-27.164
-26.834
-26.447
-26.007
-25.516
-24.978
-24.4
-23.788
-23.149
-22.49
-21.817
-21.137
-20.458
-19.785
-19.126
-18.484
-17.865
-17.275
-16.724
-16.22
-15.77
-15.378
-15.049
-14.788
-14.598
-14.481
-14.429
-14.439
-14.506
-14.633
-14.829
-15.097
-15.436
-15.842
-16.306
-16.818
-17.367
-17.932
-18.478
-18.971
-19.381
-19.7
-19.936
-20.096
-20.175
-20.162
-20.04
-19.806
-19.48
-19.066
-18.568
-18.005
-17.403
-16.84
-16.424
-16.242
-16.366
-16.842
-17.687
-18.926
-20.596
-22.695
-25.222
-28.19
-31.54
-35.196
-39.039
-42.822
-46.283
-49.185
-51.219
-52.023
-51.414
-49.409
-46.263
-42.576
-38.883
-35.585
-33.221
-32.426
-33.693
-36.584
-39.667
-41.287
-39.803
-35.626
-31.056
-26.381
-21.181
-12.685
5.543
35.77
77.899
129.934
183.751
232.33
268.418
282.799
269.876
226.425
154.538
62.036
-41.944
-149.603
-259.027
-370.648
-482.858
-590.41
-681.386
-743.89
-772.534
-768.404
-739.835
-697.001
-645.839
-589.101
-526.808
-458.468
-386.334
-313.865
-245.037
-183.799
-132.355
-91.645
-61.615
-41.125
-28.853
-23.669
-24.105
-28.349
-34.402
-40.165
-44.221
-46.079
-45.689
-43.018
-38.06
-31.168
-23.157
-15.243
-8.522
-3.435
0.042
1.976
2.335
1.226
-0.999
-3.661
-5.944
-7.397
-7.905
-7.428
-5.928
-3.404
0.084
4.295
8.851
13.482
18.019
22.331
26.323
29.902
32.99
35.571
37.681
39.355
40.627
41.537
42.118
42.416
42.49
42.397
42.193
41.943
41.713
41.568
41.578
41.795
42.257
42.996
44.031
45.377
47.039
49.014
51.291
53.863
56.722
59.858
63.259
66.91
70.794
74.892
79.183
83.647
88.262
93.006
97.856
102.788
107.779
112.806
117.845
122.87
127.854
132.77
137.589
142.283
146.823
151.182
155.332
159.247
162.903
166.277
169.348
172.097
174.504
176.556
178.237
179.536
180.443
180.949
181.05
180.742
180.025
178.899
177.369
175.439
173.119
170.418
167.349
163.925
160.163
156.08
151.695
147.028
142.101
136.938
131.562
125.997
120.269
114.404
108.427
102.365
96.242
90.086
83.92
77.768
71.655
65.603
59.634
53.769
48.028
42.43
36.991
31.727
26.652
21.78
17.122
12.686
8.481
4.514
0.788
-2.693
-5.926
-8.913
-11.655
-14.153
-16.412
-18.438
-20.235
-21.813
-23.178
-24.34
-25.309
-26.096
-26.71
-27.163
-27.468
-27.635
-27.677
-27.605
-27.432
-27.169
-26.828
-26.42
-25.956
-25.446
-24.899
-24.324
-23.731
-23.126
-22.516
-21.908
-21.306
-20.716
-20.141
-19.585
-19.05
-18.537
-18.048
-17.583
-17.142
-16.724
-16.329
-15.956
-15.602
-15.265
-14.944
-14.636
-14.338
-14.049
-13.764
-13.482
-13.201
-12.917
-12.628
-12.334
-12.031
-11.719
-11.397
-11.063
-10.718
-10.362
-9.995
-9.618
-9.232
-8.839
-8.441
-8.042
-7.643
-7.248
-6.86
-6.484
-6.122
-5.778
-5.458
-5.164
-4.901
-4.672
-4.481
-4.331
-4.227
-4.172
-4.167
-4.215
-4.317
-4.476
-4.69
-4.962
-5.29
-5.671
-6.106
-6.592
-7.125
-7.704
-8.323
-8.979
-9.666
-10.379
-11.112
-11.859
-12.612
-13.364
-14.108
-14.836
-15.54
-16.214
-16.847
-17.432
-17.963
-18.429
-18.826
-19.145
-19.38
-19.524
-19.573
-19.522
-19.368
-19.11
-18.745
-18.273
-17.698
-17.023
-16.249
-15.382
-14.427
-13.389
-12.276
-11.093
-9.848
-8.546
-7.197
-5.811
-4.399
-2.971
-1.539
-0.113
1.293
2.667
3.995
5.268
6.48
7.622
8.686
9.658
10.524
11.278
11.916
12.44
12.848
13.146
13.34
13.45
13.509
13.541
13.565
13.591
13.623
13.672
13.755
13.888
14.085
14.341
14.642
14.986
15.366
15.76
16.128
16.399
16.478
16.296
15.803
14.958
13.735
12.09
9.964
7.322
4.138
0.418
-3.807
-8.549
-13.825
-19.557
-25.588
-31.651
-37.371
-42.455
-46.683
-49.785
-51.492
-51.65
-50.219
-47.436
-43.806
-39.8
-35.804
-32.146
-29.079
-26.783
-25.341
-24.483
-23.54
-21.315
-16.211
-6.993
6.914
24.415
43.438
62.521
81.498
102.966
129.893
163.631
203.334
244.074
279.74
303.589
307.979
287.673
239.546
164.812
69.931
-37.705
-151.423
-267.583
-384.944
-499.786
-604.772
-689.603
-744.325
-765.145
-755.235
-722.595
-676.674
-623.371
-564.832
-501.343
-432.875
-361.697
-291.527
-225.997
-168.254
-119.755
-80.772
-51.032
-29.431
-14.707
-5.687
-1.148
-0.036
-1.356
-3.999
-6.968
-9.769
-12.072
-13.526
-13.878
-12.797
-10.125
-6.091
-1.158
4.349
10.073
15.514
20.338
24.181
26.786
28.242
28.81
28.75
28.455
28.422
28.958
30.325
32.68
35.943
40.003
44.718
49.818
54.993
60.014
64.687
68.909
72.685
76.008
78.886
81.373
83.522
85.395
87.056
88.543
89.887
91.124
92.299
93.466
94.687
96.017
97.51
99.204
101.124
103.291
105.717
108.401
111.344
114.534
117.957
121.599
125.45
129.493
133.715
138.094
142.608
147.231
151.94
156.709
161.514
166.332
171.137
175.904
180.609
185.229
189.739
194.115
198.332
202.365
206.187
209.775
213.106
216.159
218.911
221.344
223.441
225.184
226.563
227.563
228.176
228.393
228.209
227.618
226.619
225.213
223.4
221.185
218.573
215.573
212.193
208.446
204.344
199.902
195.138
190.067
184.711
179.087
173.219
167.127
160.835
154.366
147.743
140.991
134.133
127.193
120.196
113.165
106.123
99.093
92.097
85.156
78.292
71.523
64.87
58.351
51.982
45.782
39.764
33.944
28.333
22.946
17.79
12.877
8.213
3.805
-0.341
-4.222
-7.837
-11.183
-14.261
-17.073
-19.621
-21.909
-23.943
-25.727
-27.269
-28.576
-29.657
-30.52
-31.175
-31.632
-31.901
-31.995
-31.924
-31.701
-31.337
-30.846
-30.239
-29.53
-28.732
-27.856
-26.916
-25.924
-24.89
-23.828
-22.747
-21.657
-20.569
-19.49
-18.43
-17.394
-16.39
-15.424
-14.498
-13.619
-12.788
-12.009
-11.283
-10.611
-9.994
-9.432
-8.925
-8.471
-8.069
-7.717
-7.412
-7.152
-6.932
-6.75
-6.601
-6.481
-6.386
-6.311
-6.253
-6.206
-6.167
-6.131
-6.095
-6.055
-6.008
-5.952
-5.884
-5.803
-5.709
-5.601
-5.479
-5.344
-5.199
-5.043
-4.88
-4.712
-4.542
-4.372
-4.206
-4.047
-3.899
-3.765
-3.65
-3.557
-3.49
-3.453
-3.45
-3.484
-3.56
-3.679
-3.846
-4.062
-4.33
-4.651
-5.027
-5.459
-5.947
-6.49
-7.086
-7.733
-8.428
-9.168
-9.947
-10.759
-11.599
-12.46
-13.335
-14.217
-15.098
-15.97
-16.827
-17.659
-18.46
-19.219
-19.93
-20.584
-21.174
-21.691
-22.129
-22.48
-22.737
-22.897
-22.952
-22.899
-22.734
-22.454
-22.055
-21.536
-20.896
-20.137
-19.26
-18.267
-17.162
-15.953
-14.645
-13.249
-11.774
-10.23
-8.628
-6.979
-5.295
-3.587
-1.866
-0.141
1.576
3.275
4.945
6.574
8.151
9.663
11.099
12.448
13.702
14.854
15.897
16.831
17.654
18.365
18.964
19.443
19.796
20.023
20.126
20.111
19.988
19.775
19.489
19.159
18.813
18.474
18.163
17.891
17.659
17.462
17.304
17.197
17.156
17.182
17.265
17.39
17.534
17.668
17.753
17.722
17.497
17.02
16.23
15.085
13.567
11.66
9.347
6.607
3.411
-0.275
-4.403
-8.847
-13.428
-17.88
-21.93
-25.326
-27.769
-28.925
-28.599
-26.867
-24.068
-20.819
-17.749
-15.261
-13.679
-13.394
-14.739
-17.685
-21.603
-25.362
-27.211
-25.32
-18.987
-7.724
8.122
26.662
47.797
72.027
99.717
132.861
170.777
210.628
249.062
279.733
295.895
290.348
256.197
192.101
102.288
-4.036
-115.441
-225.557
-334.048
-442.463
-550.845
-652.971
-735.423
-786.048
-799.746
-778.445
-732.369
-672.478
-603.441
-528.163
-447.303
-362.605
-281.761
-210.916
-153.868
-111.426
-78.609
-51.968
-30.0
-11.961
0.191
6.2
7.839
6.729
5.142
4.844
6.097
8.655
12.174
16.138
20.054
23.694
26.747
28.496
28.699
27.613
25.537
22.993
20.479
18.126
16.084
14.851
14.716
15.737
17.936
21.103
25.014
29.63
34.879
40.536
46.394
52.25
57.881
63.176
68.062
72.449
76.285
79.554
82.25
84.406
86.08
87.324
88.192
88.741
89.022
89.09
89.017
88.878
88.748
88.702
88.793
89.059
89.527
90.218
91.145
92.313
93.721
95.364
97.239
99.341
101.666
104.202
106.923
109.798
112.793
115.869
118.999
122.161
125.345
128.55
131.78
135.043
138.336
141.644
144.951
148.243
151.51
154.747
157.962
161.176
164.415
167.715
171.096
174.558
178.074
181.592
185.042
188.34
191.419
194.229
196.726
198.873
200.631
201.959
202.805
203.109
202.796
201.778
199.988
197.388
193.977
189.792
184.9
179.397
173.367
166.878
159.994
152.763
145.235
137.458
129.485
121.374
113.203
105.065
97.045
89.209
81.598
74.221
67.066
60.096
53.283
46.605
40.049
33.617
27.315
21.155
15.148
9.312
3.648
-1.855
-7.207
-12.416
-17.48
-22.384
-27.106
-31.611
-35.872
-39.862
-43.563
-46.963
-50.06
-52.855
-55.355
-57.576
-59.526
-61.212
-62.643
-63.821
-64.757
-65.463
-65.952
-66.242
-66.351
-66.296
-66.097
-65.769
-65.33
-64.792
-64.168
-63.468
-62.702
-61.881
-61.015
-60.118
-59.199
-58.27
-57.341
-56.424
-55.528
-54.66
-53.828
-53.039
-52.296
-51.606
-50.971
-50.395
-49.881
-49.429
-49.041
-48.719
-48.461
-48.267
-48.137
-48.068
-48.059
-48.106
-48.207
-48.359
-48.558
-48.801
-49.084
-49.403
-49.755
-50.136
-50.543
-50.971
-51.417
-51.876
-52.344
-52.818
-53.293
-53.766
-54.233
-54.692
-55.139
-55.573
-55.99
-56.39
-56.769
-57.126
-57.46
-57.77
-58.055
-58.314
-58.547
-58.754
-58.935
-59.091
-59.223
-59.331
-59.416
-59.481
-59.527
-59.555
-59.568
-59.568
-59.557
-59.538
-59.513
-59.485
-59.457
-59.432
-59.411
-59.4
-59.399
-59.412
-59.441
-59.49
-59.561
-59.656
-59.778
-59.929
-60.11
-60.324
-60.572
-60.855
-61.174
-61.528
-61.92
-62.349
-62.813
-63.312
-63.844
-64.408
-65.0
-65.619
-66.259
-66.918
-67.59
-68.272
-68.958
-69.642
-70.321
-70.986
-71.634
-72.257
-72.849
-73.404
-73.914
-74.373
-74.776
-75.114
-75.383
-75.575
-75.685
-75.708
-75.638
-75.472
-75.206
-74.835
-74.356
-73.767
-73.067
-72.256
-71.335
-70.304
-69.167
-67.928
-66.594
-65.171
-63.666
-62.086
-60.44
-58.738
-56.988
-55.201
-53.384
-51.549
-49.705
-47.865
-46.042
-44.248
-42.494
-40.792
-39.156
-37.599
-36.131
-34.763
-33.499
-32.346
-31.312
-30.405
-29.637
-29.01
-28.523
-28.173
-27.958
-27.87
-27.897
-28.022
-28.212
-28.445
-28.7
-28.961
-29.223
-29.47
-29.686
-29.863
-29.992
-30.074
-30.115
-30.122
-30.103
-30.084
-30.098
-30.195
-30.445
-30.909
-31.637
-32.684
-34.083
-35.863
-38.048
-40.655
-43.684
-47.133
-51.006
-55.269
-59.889
-64.848
-70.026
-75.251
-80.287
-84.775
-88.362
-90.817
-91.866
-91.19
-88.761
-84.699
-79.329
-73.42
-67.619
-62.298
-57.969
-55.213
-54.199
-54.76
-56.328
-57.183
-55.39
-50.155
-40.782
-27.267
-11.216
7.394
29.447
55.205
86.208
121.98
159.19
193.487
219.3
231.078
223.864
195.029
143.316
68.917
-24.56
-134.22
-256.5
-384.981
-512.226
-626.923
-716.447
-772.505
-793.049
-783.474
-753.95
-713.9
-668.297
-618.078
-561.825
-498.552
-430.312
-360.601
-293.277
-232.006
-178.635
-133.858
-98.022
-70.547
-50.53
-37.229
-29.358
-25.396
-24.08
-24.162
-24.581
-24.875
-24.749
-23.872
-22.406
-20.697
-18.976
-17.485
-16.313
-15.356
-14.651
-14.408
-14.531
-14.774
-14.965
-14.972
-14.849
-14.702
-14.393
-13.586
-12.106
-9.927
-7.091
-3.693
0.283
4.854
9.854
14.988
19.984
24.638
28.852
32.615
35.891
38.65
40.912
42.734
44.197
45.387
46.358
47.142
47.776
48.304
48.786
49.292
49.884
50.625
51.558
52.713
54.11
55.764
57.677
59.846
62.26
64.9
67.751
70.805
74.051
77.48
81.076
84.819
88.688
92.661
96.718
100.838
105.003
109.189
113.376
117.543
121.672
125.742
129.732
133.618
137.377
140.983
144.414
147.647
150.66
153.431
155.94
158.17
160.102
161.723
163.019
163.978
164.589
164.845
164.74
164.268
163.427
162.217
160.638
158.695
156.391
153.734
150.734
147.402
143.749
139.792
135.547
131.031
126.265
121.269
116.066
110.679
105.131
99.449
93.656
87.78
81.845
75.877
69.903
63.947
58.034
52.188
46.433
40.791
35.284
29.932
24.755
19.771
14.997
10.449
6.142
2.088
-1.701
-5.215
-8.447
-11.39
-14.038
-16.39
-18.444
-20.201
-21.663
-22.833
-23.717
-24.321
-24.653
-24.723
-24.541
-24.116
-23.462
-22.591
-21.514
-20.247
-18.803
-17.196
-15.44
-13.55
-11.54
-9.425
-7.218
-4.934
-2.586
-0.188
2.248
4.709
7.183
9.66
12.129
14.58
17.005
19.396
21.747
24.05
26.302
28.497
30.634
32.708
34.718
36.663
38.543
40.356
42.104
43.786
45.404
46.959
48.453
49.888
51.265
52.586
53.855
55.073
56.243
57.366
58.447
59.486
60.488
61.452
62.383
63.283
64.152
64.993
65.808
66.596
67.361
68.101
68.817
69.51
70.18
70.825
71.446
72.042
72.612
73.156
73.674
74.164
74.626
75.06
75.464
75.84
76.185
76.501
76.786
77.041
77.265
77.459
77.623
77.756
77.859
77.933
77.977
77.991
77.977
77.934
77.863
77.764
77.639
77.488
77.311
77.11
76.885
76.637
76.366
76.074
75.761
75.427
75.073
74.698
74.303
73.887
73.451
72.994
72.516
72.016
71.494
70.949
70.38
69.787
69.168
68.524
67.852
67.153
66.426
65.671
64.886
64.072
63.229
62.357
61.456
60.527
59.569
58.584
57.573
56.538
55.481
54.403
53.307
52.198
51.077
49.948
48.815
47.682
46.552
45.431
44.322
43.231
42.162
41.12
40.11
39.137
38.206
37.322
36.49
35.714
34.999
34.347
33.762
33.247
32.804
32.435
32.142
31.926
31.785
31.72
31.73
31.811
31.961
32.174
32.444
32.764
33.127
33.527
33.953
34.399
34.856
35.317
35.774
36.22
36.647
37.047
37.409
37.724
37.982
38.174
38.294
38.334
38.289
38.155
37.933
37.623
37.226
36.74
36.156
35.469
34.683
33.8
32.828
31.781
30.671
29.517
28.345
27.18
26.044
24.955
23.917
22.932
22.001
21.134
20.354
19.677
19.1
18.616
18.21
17.854
17.528
17.193
16.78
16.233
15.493
14.498
13.221
11.634
9.712
7.452
4.808
1.728
-1.745
-5.523
-9.445
-13.248
-16.725
-19.717
-21.973
-23.235
-23.366
-22.318
-20.323
-17.893
-15.487
-13.414
-11.859
-11.027
-11.113
-12.233
-14.207
-15.88
-15.345
-11.078
-2.038
10.762
24.183
36.338
46.252
56.609
74.225
103.497
147.113
202.324
258.556
305.295
331.081
326.892
292.33
230.107
147.548
55.573
-39.777
-134.998
-229.689
-327.946
-430.096
-531.795
-625.67
-699.553
-743.139
-753.587
-733.478
-690.681
-635.354
-572.198
-501.252
-422.792
-337.21
-250.002
-172.109
-110.566
-68.421
-43.758
-28.771
-18.11
-9.618
-2.858
0.501
0.604
-0.583
-1.121
0.662
5.058
11.396
18.909
26.612
33.636
39.237
42.716
43.888
42.984
40.427
36.785
32.622
28.452
24.765
21.985
20.317
19.78
20.3
21.728
23.924
26.761
30.097
33.777
37.688
41.74
45.826
49.846
53.687
57.216
60.353
63.056
65.295
67.075
68.419
69.356
69.938
70.232
70.294
70.183
69.951
69.645
69.322
69.045
68.873
68.87
69.083
69.541
70.267
71.274
72.565
74.137
75.98
78.077
80.413
82.976
85.755
88.739
91.914
95.263
98.767
102.407
106.163
110.015
113.945
117.932
121.957
126.001
130.045
134.07
138.058
141.985
145.83
149.569
153.18
156.641
159.928
163.022
165.901
168.546
170.941
173.069
174.917
176.471
177.72
178.654
179.263
179.542
179.486
179.09
178.352
177.272
175.851
174.091
171.996
169.571
166.825
163.764
160.398
156.739
152.798
148.59
144.127
139.427
134.505
129.379
124.067
118.587
112.96
107.204
101.34
95.388
89.367
83.298
77.199
71.09
64.99
58.916
52.888
46.921
41.033
35.239
29.556
23.998
18.578
13.31
8.206
3.277
-1.466
-6.015
-10.359
-14.494
-18.411
-22.105
-25.573
-28.812
-31.82
-34.596
-37.141
-39.456
-41.544
-43.408
-45.052
-46.482
-47.705
-48.725
-49.552
-50.193
-50.656
-50.95
-51.084
-51.069
-50.913
-50.628
-50.223
-49.709
-49.097
-48.397
-47.62
-46.777
-45.878
-44.933
-43.954
-42.949
-41.928
-40.901
-39.875
-38.86
-37.862
-36.89
-35.948
-35.044
-34.182
-33.368
-32.604
-31.895
-31.244
-30.652
-30.122
-29.655
-29.252
-28.914
-28.64
-28.431
-28.285
-28.202
-28.181
-28.219
-28.315
-28.467
-28.671
-28.926
-29.229
-29.576
-29.965
-30.391
-30.853
-31.347
-31.869
-32.417
-32.987
-33.577
-34.184
-34.805
-35.439
-36.082
-36.734
-37.392
-38.055
-38.72
-39.388
-40.056
-40.723
-41.388
-42.05
-42.709
-43.362
-44.011
-44.653
-45.289
-45.917
-46.539
-47.153
-47.761
-48.361
-48.954
-49.542
-50.123
-50.699
-51.27
-51.836
-52.399
-52.96
-53.517
-54.074
-54.629
-55.184
-55.74
-56.296
-56.854
-57.413
-57.975
-58.541
-59.11
-59.684
-60.264
-60.849
-61.442
-62.043
-62.652
-63.27
-63.898
-64.534
-65.18
-65.834
-66.495
-67.163
-67.835
-68.51
-69.187
-69.862
-70.534
-71.2
-71.856
-72.499
-73.127
-73.734
-74.318
-74.873
-75.395
-75.882
-76.327
-76.727
-77.076
-77.37
-77.605
-77.775
-77.877
-77.904
-77.853
-77.719
-77.499
-77.189
-76.788
-76.293
-75.704
-75.021
-74.247
-73.384
-72.435
-71.403
-70.292
-69.107
-67.854
-66.539
-65.166
-63.74
-62.27
-60.765
-59.234
-57.687
-56.133
-54.582
-53.044
-51.531
-50.056
-48.627
-47.251
-45.936
-44.693
-43.533
-42.472
-41.521
-40.679
-39.947
-39.324
-38.805
-38.386
-38.049
-37.767
-37.517
-37.277
-37.036
-36.789
-36.522
-36.217
-35.856
-35.421
-34.914
-34.349
-33.731
-33.074
-32.406
-31.764
-31.214
-30.84
-30.711
-30.892
-31.444
-32.413
-33.855
-35.812
-38.313
-41.389
-45.032
-49.223
-53.944
-59.121
-64.681
-70.579
-76.648
-82.662
-88.372
-93.41
-97.459
-100.329
-101.702
-101.234
-98.836
-94.537
-88.631
-81.753
-74.408
-67.02
-60.267
-54.912
-50.789
-46.981
-42.495
-35.77
-27.35
-19.947
-13.799
-8.244
-0.297
17.118
46.815
88.603
140.928
196.228
247.193
286.716
304.64
294.16
252.706
182.249
92.329
-5.66
-104.106
-199.862
-295.616
-394.418
-493.758
-586.014
-658.902
-702.032
-712.6
-694.089
-655.637
-607.025
-553.812
-498.559
-441.519
-382.301
-322.453
-264.82
-212.309
-167.395
-131.116
-103.13
-82.315
-67.278
-56.787
-49.401
-43.693
-38.368
-32.184
-24.615
-15.796
-6.02
4.259
14.383
23.761
31.73
37.565
41.056
42.349
41.694
39.544
36.373
32.592
28.721
25.307
22.645
20.877
20.046
20.059
20.861
22.406
24.586
27.279
30.374
33.775
37.416
41.241
45.16
49.074
52.871
56.437
59.707
62.646
65.234
67.486
69.42
71.065
72.471
73.697
74.799
75.83
76.837
77.858
78.942
80.142
81.509
83.1
84.952
87.085
89.516
92.247
95.276
98.597
102.193
106.041
110.119
114.408
118.888
123.546
128.358
133.302
138.351
143.48
148.66
153.869
159.08
164.268
169.407
174.474
179.444
184.295
189.006
193.549
197.902
202.039
205.937
209.573
212.926
215.974
218.698
221.082
223.11
224.77
226.049
226.937
227.427
227.512
227.187
226.45
225.301
223.74
221.769
219.393
216.618
213.453
209.905
205.986
201.709
197.088
192.138
186.876
181.32
175.489
169.404
163.084
156.553
149.833
142.947
135.918
128.771
121.53
114.219
106.863
99.486
92.11
84.758
77.452
70.216
63.072
56.039
49.133
42.38
35.8
29.413
23.24
17.29
11.57
6.098
0.892
-4.056
-8.749
-13.191
-17.391
-21.334
-24.994
-28.384
-31.53
-34.371
-36.836
-38.975
-40.789
-42.273
-43.597
-44.335
-44.075
-43.433
-42.605
-42.714
-45.101
-48.31
-51.375
-52.852
-50.751
-46.86
-42.697
-39.306
-38.404
-38.789
-39.24
-39.497
-38.82
-37.658
-36.583
-35.499
-34.487
-33.517
-32.485
-31.471
-30.54
-29.679
-28.886
-28.173
-27.539
-26.983
-26.502
-26.085
-25.718
-25.405
-25.148
-24.943
-24.786
-24.673
-24.598
-24.56
-24.554
-24.574
-24.615
-24.671
-24.737
-24.807
-24.878
-24.943
-24.997
-25.038
-25.059
-25.058
-25.032
-24.977
-24.891
-24.771
-24.617
-24.426
-24.199
-23.934
-23.631
-23.292
-22.918
-22.508
-22.065
-21.59
-21.087
-20.561
-20.015
-19.452
-18.873
-18.283
-17.689
-17.093
-16.491
-15.88
-15.258
-14.626
-14.003
-13.394
-12.791
-12.204
-11.669
-11.209
-10.853
-10.608
-10.44
-10.341
-10.351
-10.434
-10.452
-10.371
-10.236
-10.031
-9.904
-9.585
-8.186
-5.872
-3.466
-2.285
-4.85
-11.071
-18.399
-24.316
-25.245
-20.861
-14.56
-8.972
-6.908
-8.931
-12.499
-16.026
-18.455
-19.431
-19.98
-20.581
-21.19
-21.842
-22.377
-22.745
-23.082
-23.427
-23.751
-24.055
-24.34
-24.6
-24.825
-25.002
-25.108
-25.136
-25.101
-25.007
-24.857
-24.655
-24.404
-24.108
-23.775
-23.407
-23.007
-22.578
-22.126
-21.656
-21.175
-20.691
-20.209
-19.738
-19.284
-18.851
-18.443
-18.062
-17.708
-17.386
-17.099
-16.858
-16.673
-16.546
-16.481
-16.48
-16.536
-16.641
-16.78
-16.932
-17.078
-17.203
-17.291
-17.34
-17.343
-17.296
-17.202
-17.046
-16.812
-16.505
-16.124
-15.685
-15.228
-14.785
-14.406
-14.161
-14.102
-14.29
-14.796
-15.669
-16.963
-18.713
-20.913
-23.602
-26.86
-30.698
-35.065
-39.784
-44.545
-49.094
-53.239
-56.7
-59.138
-60.267
-59.976
-58.557
-56.571
-54.536
-52.91
-52.159
-52.839
-55.491
-59.785
-64.31
-67.618
-68.647
-67.883
-66.651
-64.24
-57.791
-42.709
-15.338
24.303
72.661
124.281
175.499
223.687
266.169
299.276
315.339
307.078
271.158
208.591
127.086
36.328
-57.408
-151.326
-247.665
-349.31
-453.658
-553.366
-636.272
-690.906
-713.375
-706.025
-676.698
-633.891
-581.639
-522.172
-457.256
-390.351
-327.517
-273.202
-228.546
-191.312
-157.582
-125.254
-94.734
-67.978
-46.562
-30.593
-19.092
-10.522
-4.064
0.622
3.963
6.036
7.016
7.353
7.473
7.841
9.03
11.299
14.552
18.713
23.688
29.159
34.68
39.837
44.175
47.456
49.754
51.179
51.875
52.176
52.516
53.226
54.603
56.792
59.729
63.335
67.487
71.957
76.477
80.827
84.823
88.368
91.463
94.111
96.334
98.182
99.708
100.973
102.03
102.92
103.671
104.318
104.9
105.464
106.066
106.76
107.597
108.617
109.849
111.313
113.02
114.975
117.182
119.635
122.322
125.236
128.366
131.703
135.237
138.953
142.831
146.85
150.988
155.224
159.537
163.905
168.304
172.713
177.108
181.466
185.768
189.989
194.104
198.089
201.919
205.569
209.017
212.239
215.213
217.917
220.332
222.44
224.226
225.673
226.771
227.506
227.87
227.856
227.458
226.673
225.499
223.937
221.989
219.66
216.956
213.886
210.461
206.691
202.591
198.175
193.46
188.464
183.205
177.703
171.979
166.054
159.951
153.691
147.299
140.799
134.212
127.564
120.878
114.176
107.482
100.817
94.203
87.661
81.211
74.872
68.663
62.601
56.701
50.979
45.449
40.121
35.008
30.119
25.461
21.042
16.866
12.938
9.259
5.832
2.657
-0.268
-2.944
-5.375
-7.566
-9.522
-11.249
-12.755
-14.048
-15.136
-16.03
-16.739
-17.275
-17.647
-17.869
-17.951
-17.907
-17.749
-17.489
-17.14
-16.714
-16.224
-15.68
-15.095
-14.48
-13.844
-13.199
-12.552
-11.914
-11.292
-10.695
-10.128
-9.6
-9.115
-8.679
-8.296
-7.97
-7.705
-7.502
-7.366
-7.296
-7.293
-7.359
-7.492
-7.692
-7.958
-8.287
-8.676
-9.123
-9.624
-10.176
-10.773
-11.412
-12.089
-12.798
-13.535
-14.297
-15.078
-15.873
-16.68
-17.493
-18.308
-19.122
-19.931
-20.732
-21.52
-22.294
-23.05
-23.786
-24.5
-25.189
-25.851
-26.486
-27.09
-27.664
-28.206
-28.717
-29.196
-29.645
-30.062
-30.451
-30.812
-31.148
-31.459
-31.748
-32.017
-32.268
-32.503
-32.725
-32.935
-33.137
-33.331
-33.52
-33.707
-33.892
-34.079
-34.269
-34.463
-34.663
-34.87
-35.086
-35.312
-35.549
-35.799
-36.063
-36.341
-36.635
-36.945
-37.271
-37.613
-37.97
-38.342
-38.727
-39.123
-39.531
-39.947
-40.369
-40.797
-41.227
-41.658
-42.086
-42.51
-42.926
-43.33
-43.721
-44.094
-44.446
-44.775
-45.078
-45.35
-45.59
-45.794
-45.958
-46.08
-46.156
-46.182
-46.155
-46.071
-45.927
-45.72
-45.449
-45.109
-44.701
-44.223
-43.674
-43.055
-42.364
-41.602
-40.771
-39.872
-38.907
-37.878
-36.789
-35.643
-34.446
-33.204
-31.924
-30.613
-29.277
-27.925
-26.564
-25.201
-23.844
-22.5
-21.173
-19.871
-18.6
-17.368
-16.185
-15.058
-13.995
-13.004
-12.089
-11.255
-10.507
-9.846
-9.267
-8.77
-8.352
-8.015
-7.77
-7.62
-7.562
-7.593
-7.702
-7.88
-8.115
-8.391
-8.681
-8.963
-9.215
-9.426
-9.597
-9.73
-9.824
-9.871
-9.839
-9.718
-9.511
-9.228
-8.892
-8.522
-8.134
-7.768
-7.488
-7.362
-7.461
-7.837
-8.516
-9.524
-10.866
-12.59
-14.786
-17.46
-20.555
-23.924
-27.318
-30.539
-33.455
-35.838
-37.413
-37.994
-37.451
-36.003
-34.187
-32.432
-31.149
-30.635
-30.975
-32.375
-35.078
-38.752
-42.605
-45.371
-45.152
-40.625
-31.475
-18.624
-3.835
11.434
27.198
46.561
73.013
108.839
154.203
203.426
248.602
281.803
294.193
280.863
240.763
175.678
92.917
1.0
-94.565
-191.376
-291.95
-398.761
-508.353
-611.944
-695.633
-747.167
-762.524
-744.689
-703.462
-650.281
-591.393
-529.199
-463.008
-390.312
-313.383
-238.314
-171.409
-119.558
-84.435
-62.314
-49.183
-40.313
-33.427
-29.074
-26.798
-25.795
-24.721
-21.784
-16.599
-9.608
-1.363
7.172
15.196
22.046
26.923
29.539
30.073
28.886
26.531
23.568
20.475
17.746
15.861
15.066
15.421
16.881
19.294
22.529
26.468
30.962
35.845
40.978
46.248
51.541
56.756
61.77
66.447
70.693
74.452
77.696
80.426
82.653
84.405
85.723
86.669
87.301
87.673
87.842
87.853
87.764
87.636
87.531
87.513
87.629
87.91
88.38
89.052
89.932
91.021
92.312
93.792
95.449
97.277
99.267
101.414
103.709
106.137
108.686
111.341
114.086
116.909
119.795
122.728
125.695
128.681
131.672
134.653
137.611
140.526
143.38
146.154
148.83
151.388
153.809
156.075
158.167
160.07
161.768
163.245
164.489
165.487
166.228
166.7
166.895
166.806
166.424
165.746
164.767
163.486
161.9
160.011
157.821
155.333
152.552
149.487
146.143
142.531
138.662
134.547
130.2
125.635
120.868
115.915
110.792
105.519
100.113
94.594
88.981
83.293
77.551
71.774
65.982
60.194
54.429
48.707
43.046
37.463
31.976
26.602
21.357
16.254
11.309
6.533
1.938
-2.465
-6.667
-10.662
-14.442
-18.003
-21.342
-24.456
-27.344
-30.007
-32.446
-34.665
-36.667
-38.457
-40.043
-41.43
-42.627
-43.642
-44.486
-45.167
-45.697
-46.087
-46.347
-46.49
-46.527
-46.469
-46.33
-46.119
-45.849
-45.53
-45.172
-44.787
-44.382
-43.966
-43.548
-43.134
-42.729
-42.341
-41.971
-41.626
-41.306
-41.013
-40.75
-40.517
-40.312
-40.137
-39.988
-39.865
-39.764
-39.684
-39.621
-39.572
-39.533
-39.501
-39.471
-39.441
-39.405
-39.362
-39.305
-39.234
-39.143
-39.031
-38.894
-38.731
-38.54
-38.32
-38.07
-37.791
-37.482
-37.146
-36.783
-36.395
-35.986
-35.558
-35.114
-34.658
-34.194
-33.725
-33.255
-32.789
-32.331
-31.884
-31.453
-31.041
-30.653
-30.29
-29.958
-29.657
-29.392
-29.164
-28.974
-28.826
-28.72
-28.656
-28.635
-28.656
-28.72
-28.826
-28.971
-29.154
-29.372
-29.624
-29.905
-30.214
-30.546
-30.897
-31.264
-31.644
-32.03
-32.421
-32.811
-33.197
-33.575
-33.941
-34.293
-34.627
-34.94
-35.23
-35.495
-35.733
-35.942
-36.121
-36.269
-36.385
-36.468
-36.518
-36.536
-36.521
-36.475
-36.398
-36.29
-36.154
-35.989
-35.797
-35.579
-35.336
-35.068
-34.777
-34.464
-34.129
-33.774
-33.399
-33.006
-32.595
-32.166
-31.72
-31.256
-30.773
-30.273
-29.752
-29.212
-28.651
-28.069
-27.464
-26.837
-26.187
-25.513
-24.815
-24.093
-23.346
-22.575
-21.78
-20.962
-20.123
-19.265
-18.39
-17.503
-16.61
-15.714
-14.821
-13.938
-13.068
-12.219
-11.395
-10.601
-9.841
-9.119
-8.441
-7.811
-7.237
-6.724
-6.281
-5.912
-5.621
-5.412
-5.288
-5.249
-5.291
-5.413
-5.61
-5.882
-6.237
-6.679
-7.203
-7.806
-8.48
-9.21
-9.983
-10.78
-11.574
-12.339
-13.056
-13.708
-14.294
-14.816
-15.274
-15.662
-15.958
-16.149
-16.239
-16.235
-16.152
-16.02
-15.861
-15.72
-15.672
-15.771
-16.075
-16.638
-17.483
-18.639
-20.13
-21.964
-24.187
-26.859
-29.958
-33.408
-37.051
-40.61
-43.835
-46.512
-48.346
-49.023
-48.354
-46.3
-43.143
-39.474
-35.904
-32.934
-30.954
-30.354
-31.504
-34.462
-38.687
-43.188
-46.209
-46.148
-42.43
-33.89
-20.47
-2.473
21.454
50.434
83.908
121.795
161.021
200.561
238.803
270.851
292.175
294.781
270.276
216.673
136.933
39.568
-64.446
-169.606
-276.074
-385.175
-496.058
-601.142
-686.502
-740.336
-758.161
-743.436
-706.159
-656.778
-600.309
-538.01
-470.824
-399.238
-327.027
-259.645
-199.01
-146.796
-103.27
-66.989
-38.587
-17.91
-3.999
3.704
7.048
7.611
6.401
4.828
3.542
2.725
2.83
3.864
5.705
8.65
12.609
17.052
21.722
26.304
30.305
33.691
36.472
38.335
39.273
39.528
39.239
38.798
38.748
39.283
40.521
42.657
45.667
49.463
53.992
58.987
64.084
69.054
73.698
77.871
81.561
84.739
87.379
89.518
91.218
92.538
93.549
94.301
94.816
95.136
95.306
95.384
95.442
95.549
95.77
96.154
96.737
97.548
98.609
99.932
101.522
103.377
105.484
107.838
110.436
113.275
116.348
119.643
123.143
126.833
130.695
134.711
138.866
143.14
147.515
151.97
156.488
161.049
165.633
170.218
174.781
179.296
183.736
188.077
192.291
196.355
200.24
203.922
207.377
210.582
213.516
216.158
218.489
220.491
222.147
223.444
224.369
224.91
225.059
224.808
224.153
223.091
221.621
219.745
217.465
214.788
211.722
208.275
204.46
200.289
195.78
190.947
185.81
180.39
174.707
168.784
162.645
156.315
149.818
143.181
136.43
129.59
122.689
115.751
108.804
101.872
94.979
88.151
81.411
74.78
68.28
61.932
55.754
49.763
43.975
38.406
33.068
27.972
23.127
18.543
14.225
10.178
6.405
2.908
-0.314
-3.262
-5.94
-8.352
-10.504
-12.402
-14.055
-15.472
-16.662
-17.636
-18.406
-18.983
-19.379
-19.608
-19.681
-19.612
-19.413
-19.097
-18.677
-18.166
-17.574
-16.915
-16.198
-15.435
-14.635
-13.809
-12.964
-12.11
-11.253
-10.401
-9.56
-8.734
-7.929
-7.149
-6.396
-5.675
-4.986
-4.332
-3.714
-3.133
-2.589
-2.082
-1.612
-1.178
-0.78
-0.417
-0.088
0.209
0.474
0.709
0.915
1.093
1.243
1.368
1.469
1.545
1.599
1.631
1.642
1.633
1.604
1.556
1.49
1.406
1.304
1.185
1.049
0.895
0.725
0.537
0.332
0.111
-0.126
-0.38
-0.649
-0.934
-1.234
-1.548
-1.877
-2.218
-2.572
-2.938
-3.314
-3.699
-4.093
-4.494
-4.901
-5.313
-5.729
-6.148
-6.57
-6.993
-7.417
-7.84
-8.263
-8.684
-9.103
-9.519
-9.931
-10.34
-10.743
-11.142
-11.535
-11.923
-12.306
-12.683
-13.055
-13.422
-13.783
-14.139
-14.491
-14.838
-15.182
-15.522
-15.859
-16.195
-16.529
-16.863
-17.196
-17.53
-17.864
-18.199
-18.534
-18.869
-19.204
-19.538
-19.872
-20.205
-20.537
-20.867
-21.193
-21.516
-21.835
-22.147
-22.451
-22.746
-23.029
-23.299
-23.555
-23.794
-24.014
-24.213
-24.39
-24.542
-24.668
-24.763
-24.827
-24.856
-24.849
-24.802
-24.715
-24.585
-24.411
-24.192
-23.928
-23.618
-23.262
-22.86
-22.412
-21.918
-21.38
-20.799
-20.176
-19.515
-18.817
-18.088
-17.333
-16.558
-15.768
-14.969
-14.166
-13.367
-12.577
-11.802
-11.046
-10.315
-9.614
-8.952
-8.333
-7.766
-7.255
-6.809
-6.434
-6.136
-5.92
-5.787
-5.734
-5.763
-5.875
-6.07
-6.354
-6.727
-7.187
-7.734
-8.363
-9.066
-9.832
-10.637
-11.45
-12.247
-13.008
-13.714
-14.356
-14.92
-15.392
-15.767
-16.037
-16.196
-16.244
-16.18
-16.009
-15.755
-15.46
-15.185
-15.013
-15.021
-15.276
-15.841
-16.768
-18.117
-19.944
-22.286
-25.156
-28.546
-32.462
-36.94
-41.963
-47.411
-53.055
-58.55
-63.562
-67.855
-71.14
-73.036
-73.304
-71.901
-69.082
-65.484
-61.638
-57.901
-54.798
-52.925
-52.688
-53.697
-54.508
-53.421
-49.559
-43.867
-37.9
-31.605
-22.412
-5.501
22.872
62.935
110.986
160.672
207.418
248.162
280.016
299.676
299.903
273.327
217.656
135.967
37.46
-67.23
-172.77
-279.476
-389.392
-501.694
-608.872
-696.965
-753.267
-772.223
-756.249
-715.37
-660.971
-600.213
-536.493
-470.029
-400.231
-328.872
-259.226
-195.113
-140.217
-96.164
-63.058
-40.091
-25.592
-18.267
-16.961
-20.028
-25.631
-31.915
-37.19
-40.404
-41.272
-39.608
-35.208
-28.301
-19.52
-9.791
-0.296
7.944
14.533
19.306
22.035
22.805
21.927
19.846
17.332
15.172
13.748
13.273
13.942
15.75
18.633
22.488
26.998
31.819
36.733
41.559
46.147
50.409
54.255
57.623
60.516
62.962
64.976
66.588
67.822
68.708
69.294
69.629
69.764
69.752
69.648
69.515
69.414
69.411
69.557
69.888
70.433
71.215
72.248
73.539
75.088
76.887
78.928
81.206
83.714
86.443
89.383
92.52
95.84
99.328
102.968
106.744
110.638
114.633
118.71
122.851
127.037
131.249
135.465
139.663
143.82
147.911
151.91
155.794
159.536
163.112
166.499
169.672
172.61
175.293
177.702
179.817
181.623
183.104
184.247
185.038
185.468
185.529
185.212
184.513
183.428
181.956
180.097
177.855
175.233
172.238
168.878
165.164
161.108
156.724
152.027
147.034
141.764
136.236
130.472
124.493
118.323
111.985
105.504
98.905
92.211
85.448
78.642
71.817
64.997
58.208
51.472
44.813
38.254
31.817
25.522
19.389
13.438
7.685
2.146
-3.163
-8.229
-13.04
-17.587
-21.86
-25.854
-29.562
-32.982
-36.11
-38.947
-41.494
-43.754
-45.73
-47.427
-48.854
-50.016
-50.924
-51.588
-52.017
-52.225
-52.222
-52.023
-51.641
-51.089
-50.382
-49.535
-48.562
-47.478
-46.297
-45.034
-43.702
-42.316
-40.888
-39.432
-37.958
-36.479
-35.006
-33.547
-32.113
-30.711
-29.349
-28.034
-26.77
-25.564
-24.419
-23.338
-22.325
-21.38
-20.506
-19.702
-18.968
-18.305
-17.71
-17.183
-16.72
-16.32
-15.98
-15.698
-15.469
-15.292
-15.161
-15.075
-15.029
-15.02
-15.044
-15.098
-15.178
-15.282
-15.406
-15.548
-15.704
-15.873
-16.052
-16.239
-16.433
-16.632
-16.833
-17.037
-17.243
-17.448
-17.654
-17.858
-18.062
-18.264
-18.465
-18.664
-18.861
-19.056
-19.248
-19.438
-19.624
-19.808
-19.987
-20.163
-20.334
-20.501
-20.663
-20.82
-20.971
-21.117
-21.258
-21.393
-21.522
-21.645
-21.763
-21.875
-21.982
-22.085
-22.183
-22.278
-22.369
-22.457
-22.543
-22.627
-22.71
-22.792
-22.875
-22.958
-23.043
-23.132
-23.226
-23.325
-23.431
-23.545
-23.668
-23.802
-23.947
-24.104
-24.273
-24.456
-24.654
-24.868
-25.096
-25.337
-25.591
-25.861
-26.139
-26.42
-26.698
-26.966
-27.225
-27.48
-27.72
-27.936
-28.139
-28.338
-28.538
-28.748
-28.954
-29.126
-29.275
-29.418
-29.491
-29.414
-29.228
-28.926
-28.491
-28.08
-27.261
-25.616
-23.738
-21.809
-20.922
-22.388
-24.758
-27.066
-27.876
-25.215
-20.838
-16.233
-12.425
-11.101
-11.071
-11.126
-11.008
-9.982
-8.49
-7.093
-5.693
-4.369
-3.093
-1.763
-0.462
0.741
1.857
2.883
3.806
4.621
5.329
5.932
6.442
6.871
7.214
7.46
7.6
7.627
7.541
7.344
7.041
6.639
6.147
5.583
4.971
4.339
3.706
3.086
2.482
1.895
1.333
0.815
0.372
0.021
-0.24
-0.424
-0.546
-0.62
-0.661
-0.701
-0.813
-1.086
-1.595
-2.408
-3.57
-5.099
-7.054
-9.538
-12.606
-16.242
-20.313
-24.55
-28.73
-32.711
-36.298
-39.236
-41.297
-42.332
-42.554
-42.536
-42.785
-43.713
-45.617
-48.659
-53.038
-58.834
-65.491
-71.902
-76.835
-78.987
-77.465
-71.547
-60.172
-42.493
-18.201
11.866
45.587
80.846
115.865
150.154
184.188
216.41
243.641
259.822
256.318
228.144
174.141
98.485
10.776
-81.943
-176.351
-273.309
-376.317
-483.889
-588.362
-676.939
-736.466
-761.169
-753.48
-722.455
-678.668
-627.113
-568.246
-501.089
-425.97
-348.943
-278.139
-219.09
-173.846
-139.207
-110.744
-86.233
-65.117
-48.806
-38.321
-32.85
-30.768
-30.001
-28.758
-26.185
-22.259
-17.387
-11.963
-6.336
-0.734
4.732
9.518
12.945
14.846
15.38
14.836
13.631
11.993
9.913
7.739
6.038
5.094
5.06
5.944
7.573
9.903
13.015
16.79
20.982
25.406
29.846
34.163
38.308
42.162
45.606
48.593
51.103
53.152
54.79
56.05
56.959
57.572
57.938
58.11
58.15
58.105
58.033
57.994
58.048
58.258
58.671
59.321
60.232
61.42
62.89
64.644
66.676
68.97
71.518
74.311
77.338
80.587
84.048
87.703
91.537
95.531
99.666
103.925
108.287
112.735
117.247
121.807
126.392
130.986
135.567
140.112
144.598
149.0
153.294
157.457
161.464
165.292
168.918
172.322
175.483
178.384
181.009
183.34
185.364
187.069
188.442
189.475
190.16
190.491
190.462
190.073
189.321
188.207
186.735
184.909
182.735
180.221
177.375
174.21
170.738
166.972
162.928
158.624
154.077
149.305
144.33
139.172
133.852
128.392
122.815
117.142
111.397
105.601
99.775
93.942
88.123
82.338
76.607
70.948
65.381
59.923
54.59
49.397
44.358
39.487
34.796
30.294
25.992
21.896
18.015
14.353
10.915
7.702
4.717
1.96
-0.571
-2.877
-4.963
-6.833
-8.492
-9.946
-11.203
-12.271
-13.158
-13.872
-14.424
-14.823
-15.078
-15.2
-15.198
-15.084
-14.866
-14.554
-14.159
-13.688
-13.151
-12.556
-11.911
-11.225
-10.503
-9.752
-8.979
-8.189
-7.387
-6.577
-5.764
-4.951
-4.14
-3.335
-2.538
-1.749
-0.97
-0.203
0.553
1.297
2.029
2.749
3.457
4.154
4.84
5.516
6.181
6.837
7.484
8.121
8.75
9.369
9.98
10.581
11.172
11.753
12.323
12.881
13.426
13.957
14.472
14.972
15.454
15.918
16.361
16.783
17.183
17.56
17.911
18.237
18.537
18.81
19.055
19.272
19.461
19.622
19.756
19.861
19.94
19.992
20.019
20.021
20.0
19.956
19.891
19.806
19.703
19.583
19.448
19.3
19.139
18.969
18.789
18.602
18.408
18.21
18.007
17.8
17.591
17.38
17.167
16.953
16.736
16.517
16.295
16.069
15.838
15.601
15.355
15.1
14.834
14.554
14.259
13.948
13.618
13.267
12.895
12.499
12.078
11.63
11.155
10.652
10.119
9.557
8.965
8.344
7.694
7.016
6.313
5.586
4.837
4.068
3.283
2.484
1.674
0.859
0.041
-0.775
-1.584
-2.381
-3.161
-3.918
-4.647
-5.342
-5.999
-6.612
-7.176
-7.687
-8.142
-8.535
-8.863
-9.123
-9.311
-9.427
-9.467
-9.432
-9.321
-9.134
-8.873
-8.541
-8.142
-7.682
-7.165
-6.596
-5.981
-5.327
-4.641
-3.927
-3.191
-2.44
-1.679
-0.917
-0.162
0.578
1.294
1.976
2.616
3.209
3.747
4.227
4.649
5.011
5.312
5.549
5.711
5.794
5.797
5.72
5.567
5.348
5.077
4.775
4.471
4.187
3.946
3.763
3.643
3.592
3.612
3.704
3.883
4.165
4.546
5.017
5.566
6.155
6.743
7.278
7.67
7.843
7.732
7.273
6.422
5.145
3.403
1.177
-1.551
-4.814
-8.635
-12.975
-17.72
-22.668
-27.535
-32.037
-35.918
-38.907
-40.683
-41.038
-40.01
-37.855
-35.09
-32.275
-29.679
-27.462
-26.033
-25.726
-26.503
-27.993
-28.863
-27.19
-21.914
-12.644
-0.106
14.149
29.425
46.102
66.65
93.857
128.951
171.653
217.227
258.56
288.468
298.169
281.56
236.995
166.335
77.439
-19.772
-118.568
-216.051
-314.517
-416.659
-519.857
-616.099
-692.273
-736.921
-746.443
-724.17
-679.93
-624.704
-564.894
-503.41
-440.447
-375.301
-309.554
-246.432
-189.28
-140.947
-102.631
-73.917
-53.537
-39.953
-31.749
-27.242
-24.784
-22.876
-20.099
-15.844
-10.217
-3.487
3.865
11.135
17.701
22.872
25.913
26.653
25.29
22.154
17.776
12.684
7.335
2.266
-2.013
-5.253
-7.357
-8.353
-8.372
-7.512
-5.865
-3.569
-0.775
2.379
5.775
9.319
12.917
16.458
19.82
22.883
25.563
27.825
29.653
31.06
32.074
32.727
33.069
33.166
33.076
32.859
32.573
32.263
31.985
31.8
31.764
31.937
32.364
33.07
34.071
35.377
36.988
38.9
41.105
43.583
46.319
49.302
52.518
55.958
59.608
63.45
67.465
71.633
75.935
80.35
84.861
89.445
94.083
98.755
103.441
108.121
112.774
117.376
121.904
126.334
130.641
134.802
138.792
142.589
146.17
149.515
152.603
155.417
157.94
160.156
162.05
163.611
164.825
165.685
166.181
166.307
166.058
165.431
164.426
163.041
161.281
159.149
156.652
153.797
150.594
147.055
143.193
139.023
134.561
129.824
124.832
119.604
114.162
108.527
102.723
96.774
90.703
84.534
78.293
72.003
65.688
59.373
53.081
46.835
40.656
34.568
28.589
22.741
17.041
11.507
6.156
1.001
-3.942
-8.664
-13.153
-17.4
-21.399
-25.144
-28.632
-31.861
-34.829
-37.538
-39.991
-42.192
-44.145
-45.858
-47.339
-48.597
-49.642
-50.484
-51.137
-51.611
-51.921
-52.078
-52.097
-51.99
-51.771
-51.453
-51.049
-50.572
-50.033
-49.444
-48.817
-48.161
-47.486
-46.801
-46.113
-45.43
-44.756
-44.098
-43.459
-42.843
-42.251
-41.686
-41.148
-40.637
-40.151
-39.69
-39.251
-38.831
-38.427
-38.035
-37.652
-37.273
-36.895
-36.512
-36.12
-35.716
-35.295
-34.855
-34.391
-33.901
-33.383
-32.835
-32.255
-31.642
-30.997
-30.32
-29.611
-28.873
-28.106
-27.315
-26.501
-25.669
-24.822
-23.966
-23.104
-22.242
-21.386
-20.54
-19.711
-18.904
-18.125
-17.379
-16.673
-16.011
-15.399
-14.841
-14.343
-13.907
-13.539
-13.241
-13.015
-12.865
-12.79
-12.792
-12.871
-13.026
-13.257
-13.562
-13.938
-14.383
-14.894
-15.467
-16.096
-16.779
-17.507
-18.277
-19.081
-19.912
-20.764
-21.629
-22.499
-23.369
-24.23
-25.075
-25.898
-26.69
-27.446
-28.157
-28.818
-29.421
-29.962
-30.435
-30.834
-31.154
-31.394
-31.55
-31.619
-31.599
-31.49
-31.29
-30.999
-30.618
-30.147
-29.589
-28.946
-28.22
-27.418
-26.544
-25.606
-24.612
-23.568
-22.485
-21.37
-20.233
-19.082
-17.924
-16.768
-15.618
-14.483
-13.369
-12.286
-11.241
-10.243
-9.298
-8.413
-7.592
-6.84
-6.16
-5.55
-5.01
-4.537
-4.132
-3.801
-3.553
-3.395
-3.327
-3.345
-3.443
-3.613
-3.845
-4.122
-4.417
-4.705
-4.963
-5.179
-5.352
-5.482
-5.563
-5.575
-5.492
-5.299
-5.002
-4.622
-4.173
-3.673
-3.143
-2.618
-2.185
-1.941
-1.965
-2.326
-3.063
-4.192
-5.773
-7.899
-10.605
-13.859
-17.522
-21.339
-25.125
-28.764
-32.066
-34.799
-36.765
-37.812
-38.115
-38.151
-38.273
-38.773
-39.9
-41.716
-44.258
-47.642
-51.517
-54.987
-57.219
-56.854
-52.307
-43.234
-29.485
-11.545
8.53
30.278
54.172
80.766
112.189
148.847
188.905
228.744
262.189
281.553
278.804
249.514
193.227
115.064
25.855
-66.601
-157.594
-246.784
-339.281
-434.867
-528.386
-610.764
-669.116
-697.447
-696.17
-670.009
-627.389
-572.815
-508.829
-438.643
-365.84
-296.61
-236.109
-185.835
-144.377
-108.816
-77.477
-50.722
-30.182
-16.775
-9.757
-7.186
-6.547
-5.946
-4.283
-1.183
3.137
8.357
14.038
19.606
24.551
28.331
30.424
30.692
29.311
26.638
23.197
19.505
15.965
12.964
10.858
9.819
9.89
11.026
13.078
15.899
19.358
23.307
27.596
32.111
36.732
41.331
45.794
49.996
53.841
57.278
60.277
62.825
64.932
66.627
67.955
68.977
69.759
70.367
70.861
71.3
71.742
72.239
72.854
73.665
74.707
75.98
77.485
79.211
81.163
83.381
85.864
88.552
91.479
94.788
98.495
102.544
106.942
111.495
116.523
122.957
130.519
138.333
144.883
147.417
146.226
143.991
143.433
148.421
158.978
171.44
182.983
190.497
193.575
194.922
196.137
198.363
201.859
205.485
208.748
211.658
214.164
216.42
218.446
220.077
221.263
222.018
222.332
222.191
221.6
220.563
219.096
217.226
214.966
212.31
209.263
205.838
202.047
197.903
193.422
188.617
183.507
178.112
172.455
166.557
160.441
154.13
147.648
141.019
134.267
127.416
120.49
113.512
106.505
99.492
92.495
85.534
78.63
71.803
65.072
58.455
51.967
45.625
39.443
33.435
27.613
21.987
16.567
11.363
6.381
1.627
-2.893
-7.178
-11.224
-15.031
-18.599
-21.929
-25.023
-27.886
-30.52
-32.931
-35.124
-37.105
-38.882
-40.461
-41.85
-43.057
-44.09
-44.96
-45.673
-46.239
-46.667
-46.966
-47.144
-47.212
-47.176
-47.047
-46.832
-46.539
-46.177
-45.752
-45.273
-44.746
-44.178
-43.574
-42.94
-42.282
-41.604
-40.911
-40.207
-39.496
-38.782
-38.067
-37.354
-36.646
-35.945
-35.254
-34.572
-33.902
-33.246
-32.603
-31.974
-31.361
-30.763
-30.181
-29.615
-29.065
-28.532
-28.016
-27.517
-27.034
-26.569
-26.121
-25.69
-25.277
-24.882
-24.506
-24.149
-23.813
-23.496
-23.201
-22.928
-22.678
-22.451
-22.249
-22.072
-21.92
-21.796
-21.699
-21.631
-21.591
-21.582
-21.604
-21.658
-21.744
-21.864
-22.016
-22.201
-22.418
-22.669
-22.951
-23.265
-23.609
-23.981
-24.38
-24.805
-25.253
-25.722
-26.208
-26.709
-27.22
-27.739
-28.261
-28.78
-29.294
-29.798
-30.286
-30.756
-31.203
-31.621
-32.007
-32.355
-32.662
-32.923
-33.133
-33.289
-33.385
-33.418
-33.386
-33.287
-33.118
-32.878
-32.565
-32.179
-31.721
-31.192
-30.591
-29.92
-29.182
-28.379
-27.517
-26.6
-25.634
-24.626
-23.585
-22.52
-21.438
-20.349
-19.262
-18.183
-17.122
-16.084
-15.076
-14.103
-13.172
-12.29
-11.467
-10.709
-10.023
-9.413
-8.883
-8.436
-8.074
-7.796
-7.594
-7.467
-7.41
-7.43
-7.535
-7.731
-8.014
-8.38
-8.819
-9.324
-9.888
-10.49
-11.098
-11.682
-12.215
-12.693
-13.125
-13.511
-13.84
-14.093
-14.243
-14.285
-14.235
-14.104
-13.893
-13.61
-13.268
-12.916
-12.648
-12.557
-12.72
-13.188
-13.976
-15.105
-16.643
-18.68
-21.248
-24.272
-27.573
-30.915
-34.111
-37.044
-39.545
-41.297
-42.063
-41.841
-40.898
-39.823
-39.215
-39.364
-40.49
-42.959
-46.919
-52.161
-58.084
-63.416
-66.687
-66.932
-63.332
-54.861
-40.806
-20.841
5.03
35.327
67.478
99.507
129.251
155.658
179.678
200.448
215.468
219.546
204.116
163.888
98.827
14.777
-77.726
-170.511
-260.807
-350.711
-442.288
-533.221
-615.404
-676.201
-707.637
-708.929
-684.837
-645.435
-597.555
-542.965
-483.139
-418.852
-353.038
-291.657
-237.935
-192.201
-153.749
-120.18
-90.947
-67.542
-50.338
-39.41
-33.688
-30.746
-28.994
-27.338
-24.849
-21.424
-17.174
-12.18
-6.882
-1.776
2.785
6.357
8.533
9.277
8.797
7.419
5.628
3.836
2.324
1.393
1.305
2.172
3.998
6.699
10.105
14.061
18.441
23.103
27.925
32.789
37.563
42.125
46.363
50.191
53.564
56.456
58.853
60.761
62.202
63.222
63.886
64.257
64.394
64.35
64.175
63.927
63.672
63.478
63.412
63.526
63.855
64.429
65.272
66.398
67.815
69.521
71.504
73.756
76.273
79.049
82.082
85.36
88.871
92.601
96.535
100.656
104.95
109.397
113.981
118.683
123.484
128.365
133.308
138.292
143.292
148.283
153.24
158.136
162.943
167.635
172.184
176.563
180.747
184.712
188.433
191.889
195.056
197.917
200.451
202.641
204.472
205.931
207.004
207.683
207.958
207.825
207.278
206.316
204.939
203.148
200.947
198.342
195.341
191.953
188.19
184.066
179.595
174.794
169.683
164.28
158.608
152.689
146.546
140.204
133.687
127.022
120.235
113.35
106.395
99.396
92.378
85.367
78.388
71.464
64.62
57.878
51.258
44.783
38.471
32.341
26.409
20.69
15.199
9.949
4.951
0.213
-4.255
-8.447
-12.359
-15.988
-19.332
-22.39
-25.165
-27.659
-29.877
-31.824
-33.508
-34.936
-36.118
-37.063
-37.783
-38.289
-38.594
-38.709
-38.648
-38.424
-38.051
-37.541
-36.908
-36.165
-35.326
-34.402
-33.407
-32.353
-31.251
-30.113
-28.949
-27.77
-26.586
-25.404
-24.234
-23.084
-21.959
-20.868
-19.815
-18.805
-17.842
-16.931
-16.073
-15.271
-14.526
-13.84
-13.212
-12.643
-12.133
-11.679
-11.282
-10.94
-10.651
-10.414
-10.226
-10.086
-9.992
-9.942
-9.934
-9.965
-10.033
-10.137
-10.274
-10.442
-10.639
-10.864
-11.115
-11.389
-11.685
-12.002
-12.338
-12.692
-13.063
-13.449
-13.85
-14.266
-14.695
-15.137
-15.593
-16.061
-16.543
-17.038
-17.546
-18.067
-18.602
-19.15
-19.711
-20.284
-20.869
-21.466
-22.073
-22.691
-23.317
-23.951
-24.593
-25.239
-25.889
-26.541
-27.192
-27.84
-28.483
-29.118
-29.741
-30.351
-30.944
-31.518
-32.068
-32.592
-33.086
-33.546
-33.968
-34.349
-34.685
-34.97
-35.201
-35.375
-35.488
-35.537
-35.519
-35.431
-35.273
-35.041
-34.734
-34.352
-33.895
-33.361
-32.753
-32.071
-31.318
-30.497
-29.613
-28.669
-27.673
-26.632
-25.551
-24.439
-23.303
-22.15
-20.987
-19.823
-18.662
-17.512
-16.38
-15.273
-14.202
-13.174
-12.199
-11.285
-10.438
-9.663
-8.965
-8.349
-7.811
-7.351
-6.967
-6.662
-6.444
-6.317
-6.28
-6.329
-6.456
-6.647
-6.889
-7.163
-7.441
-7.697
-7.908
-8.058
-8.143
-8.164
-8.122
-8.008
-7.798
-7.48
-7.056
-6.539
-5.945
-5.307
-4.651
-4.023
-3.505
-3.166
-3.071
-3.284
-3.831
-4.741
-6.035
-7.729
-9.873
-12.512
-15.616
-19.095
-22.787
-26.444
-29.84
-32.754
-34.883
-35.924
-35.676
-34.083
-31.371
-28.018
-24.507
-21.274
-18.669
-16.95
-16.411
-17.246
-19.065
-21.108
-21.985
-19.705
-13.48
-3.122
10.887
26.673
44.345
65.203
90.4
122.144
159.773
200.41
240.812
274.845
296.149
297.755
272.384
218.135
138.223
40.631
-64.009
-169.551
-274.931
-381.564
-490.635
-597.148
-690.033
-757.123
-788.826
-783.517
-747.579
-691.037
-624.346
-553.868
-481.89
-409.091
-335.776
-264.154
-197.766
-139.766
-92.532
-56.865
-31.938
-16.105
-7.462
-4.095
-4.313
-6.701
-9.765
-12.007
-12.556
-11.284
-8.454
-4.575
-0.018
5.086
10.301
14.829
18.001
19.608
19.813
18.982
17.378
15.03
12.129
9.187
6.801
5.351
4.957
5.56
7.087
9.592
13.071
17.332
22.079
27.036
32.008
36.888
41.597
46.0
49.986
53.506
56.557
59.18
61.412
63.274
64.79
66.002
66.962
67.729
68.363
68.914
69.436
69.988
70.627
71.412
72.387
73.581
75.015
76.698
78.632
80.819
83.251
85.916
88.803
91.901
95.198
98.685
102.349
106.176
110.151
114.256
118.474
122.79
127.187
131.648
136.155
140.692
145.24
149.782
154.299
158.769
163.17
167.479
171.673
175.729
179.624
183.335
186.841
190.121
193.155
195.926
198.415
200.606
202.485
204.038
205.253
206.119
206.626
206.768
206.537
205.93
204.943
203.577
201.831
199.709
197.215
194.356
191.14
187.577
183.679
179.46
174.934
170.119
165.033
159.694
154.123
148.342
142.373
136.239
129.962
123.567
117.077
110.516
103.906
97.271
90.634
84.015
77.438
70.922
64.487
58.153
51.937
45.857
39.928
34.165
28.582
23.191
18.001
13.022
8.262
3.726
-0.58
-4.653
-8.492
-12.095
-15.465
-18.603
-21.511
-24.196
-26.662
-28.916
-30.964
-32.815
-34.476
-35.957
-37.265
-38.411
-39.403
-40.25
-40.961
-41.545
-42.01
-42.367
-42.621
-42.782
-42.857
-42.853
-42.776
-42.633
-42.43
-42.171
-41.861
-41.504
-41.105
-40.667
-40.192
-39.683
-39.142
-38.572
-37.974
-37.349
-36.697
-36.021
-35.32
-34.595
-33.847
-33.077
-32.286
-31.475
-30.644
-29.797
-28.933
-28.055
-27.165
-26.266
-25.358
-24.446
-23.531
-22.617
-21.706
-20.802
-19.909
-19.028
-18.164
-17.32
-16.498
-15.702
-14.933
-14.196
-13.491
-12.822
-12.191
-11.599
-11.049
-10.542
-10.078
-9.661
-9.289
-8.963
-8.685
-8.452
-8.267
-8.127
-8.032
-7.983
-7.977
-8.013
-8.091
-8.209
-8.364
-8.557
-8.784
-9.044
-9.335
-9.656
-10.005
-10.381
-10.783
-11.208
-11.657
-12.128
-12.62
-13.133
-13.664
-14.213
-14.78
-15.362
-15.96
-16.572
-17.197
-17.833
-18.478
-19.132
-19.791
-20.453
-21.114
-21.772
-22.423
-23.064
-23.691
-24.3
-24.887
-25.449
-25.981
-26.479
-26.939
-27.354
-27.721
-28.035
-28.289
-28.48
-28.601
-28.649
-28.619
-28.507
-28.309
-28.022
-27.642
-27.167
-26.595
-25.925
-25.156
-24.29
-23.327
-22.269
-21.122
-19.89
-18.581
-17.202
-15.76
-14.265
-12.726
-11.153
-9.555
-7.941
-6.32
-4.701
-3.095
-1.511
0.039
1.542
2.989
4.367
5.667
6.879
7.995
9.011
9.924
10.733
11.435
12.027
12.5
12.847
13.068
13.163
13.135
12.996
12.755
12.432
12.053
11.636
11.202
10.764
10.326
9.893
9.468
9.05
8.658
8.31
8.01
7.76
7.553
7.36
7.156
6.906
6.549
6.041
5.335
4.377
3.142
1.598
-0.28
-2.487
-5.067
-8.099
-11.597
-15.527
-19.752
-23.987
-27.966
-31.465
-34.177
-35.78
-36.033
-34.802
-32.333
-29.245
-26.221
-23.918
-22.889
-23.579
-26.369
-31.419
-38.248
-45.715
-52.324
-56.458
-56.684
-51.643
-40.001
-20.555
6.781
40.451
78.299
117.785
157.448
198.003
239.221
278.257
309.31
322.3
307.535
261.371
186.327
91.26
-12.367
-118.028
-224.961
-334.792
-448.153
-559.692
-657.052
-727.201
-762.615
-763.05
-736.529
-694.697
-644.576
-589.095
-527.525
-456.62
-378.52
-299.31
-225.715
-165.59
-121.356
-90.191
-69.068
-53.591
-41.502
-33.689
-29.525
-28.003
-27.751
-26.231
-22.373
-16.411
-8.711
-0.072
8.548
16.474
22.942
27.166
28.992
28.658
26.531
23.178
19.157
14.947
11.094
8.099
6.194
5.444
5.801
7.122
9.302
12.239
15.795
19.819
24.176
28.753
33.455
38.186
42.835
47.283
51.408
55.131
58.414
61.243
63.631
65.603
67.189
68.438
69.41
70.163
70.754
71.236
71.656
72.067
72.527
73.09
73.817
74.746
75.903
77.304
78.955
80.857
83.006
85.393
87.998
90.81
93.814
97.0
100.357
103.873
107.531
111.312
115.198
119.17
123.21
127.299
131.419
135.551
139.676
143.774
147.829
151.821
155.727
159.526
163.194
166.709
170.049
173.192
176.116
178.802
181.231
183.385
185.25
186.809
188.05
188.961
189.532
189.754
189.62
189.124
188.263
187.034
185.438
183.475
181.149
178.466
175.431
172.055
168.346
164.317
159.983
155.357
150.456
145.3
139.906
134.296
128.491
122.514
116.388
110.137
103.785
97.356
90.874
84.365
77.851
71.356
64.903
58.514
52.212
46.016
39.946
34.022
28.26
22.678
17.291
12.112
7.153
2.426
-2.059
-6.296
-10.277
-13.998
-17.455
-20.647
-23.574
-26.239
-28.643
-30.791
-32.69
-34.347
-35.771
-36.971
-37.957
-38.741
-39.335
-39.753
-40.006
-40.108
-40.074
-39.916
-39.648
-39.285
-38.839
-38.323
-37.751
-37.134
-36.485
-35.813
-35.131
-34.448
-33.774
-33.116
-32.483
-31.882
-31.319
-30.799
-30.326
-29.905
-29.538
-29.227
-28.974
-28.777
-28.638
-28.555
-28.527
-28.551
-28.625
-28.745
-28.908
-29.111
-29.35
-29.62
-29.917
-30.239
-30.579
-30.934
-31.301
-31.675
-32.052
-32.43
-32.803
-33.17
-33.527
-33.872
-34.201
-34.512
-34.803
-35.072
-35.317
-35.537
-35.731
-35.898
-36.038
-36.15
-36.235
-36.292
-36.324
-36.33
-36.312
-36.271
-36.208
-36.126
-36.026
-35.911
-35.782
-35.641
-35.491
-35.335
-35.175
-35.012
-34.851
-34.693
-34.54
-34.395
-34.261
-34.14
-34.034
-33.947
-33.879
-33.835
-33.815
-33.822
-33.858
-33.924
-34.021
-34.15
-34.313
-34.509
-34.738
-35.001
-35.296
-35.624
-35.983
-36.372
-36.788
-37.229
-37.692
-38.175
-38.673
-39.182
-39.698
-40.216
-40.732
-41.242
-41.74
-42.222
-42.682
-43.115
-43.514
-43.876
-44.194
-44.462
-44.674
-44.826
-44.914
-44.932
-44.878
-44.748
-44.539
-44.248
-43.875
-43.418
-42.875
-42.246
-41.531
-40.731
-39.848
-38.886
-37.849
-36.742
-35.573
-34.348
-33.077
-31.766
-30.425
-29.059
-27.677
-26.286
-24.892
-23.5
-22.118
-20.754
-19.415
-18.111
-16.847
-15.629
-14.461
-13.347
-12.29
-11.29
-10.345
-9.451
-8.612
-7.831
-7.121
-6.491
-5.94
-5.466
-5.068
-4.739
-4.475
-4.263
-4.074
-3.883
-3.668
-3.416
-3.129
-2.811
-2.449
-2.023
-1.509
-0.896
-0.202
0.556
1.372
2.239
3.146
4.051
4.852
5.451
5.763
5.71
5.266
4.385
2.954
0.917
-1.725
-4.881
-8.299
-11.738
-15.059
-18.06
-20.483
-22.141
-22.861
-22.738
-22.279
-21.957
-22.197
-23.471
-26.126
-30.419
-36.495
-43.97
-51.819
-58.869
-63.785
-65.24
-62.005
-52.685
-36.18
-11.892
19.564
56.186
95.828
136.245
175.997
215.088
252.462
284.959
307.118
310.322
286.839
234.134
155.264
59.035
-44.267
-148.949
-254.428
-362.418
-472.862
-579.278
-668.895
-729.465
-754.374
-745.234
-712.123
-665.661
-611.913
-552.83
-485.78
-410.218
-331.078
-254.712
-188.909
-137.65
-98.954
-70.187
-47.607
-29.29
-16.581
-9.766
-8.616
-12.027
-17.154
-21.942
-25.483
-27.162
-27.05
-25.345
-21.822
-16.551
-10.173
-3.399
3.09
8.607
12.958
16.169
18.038
18.561
18.018
16.751
15.286
14.258
13.952
14.481
16.011
18.534
21.964
26.203
30.987
35.966
40.902
45.616
49.943
53.827
57.225
60.091
62.446
64.331
65.785
66.86
67.602
68.043
68.223
68.194
68.002
67.713
67.392
67.102
66.906
66.852
66.977
67.31
67.872
68.68
69.738
71.047
72.601
74.395
76.429
78.697
81.195
83.912
86.835
89.952
93.25
96.714
100.332
104.086
107.962
111.942
116.01
120.149
124.341
128.566
132.802
137.027
141.216
145.346
149.394
153.333
157.141
160.792
164.265
167.538
170.59
173.4
175.951
178.225
180.206
181.879
183.232
184.252
184.93
185.258
185.229
184.839
184.085
182.965
181.482
179.637
177.437
174.886
171.995
168.773
165.232
161.386
157.25
152.841
148.176
143.274
138.156
132.843
127.356
121.718
115.952
110.08
104.127
98.114
92.065
86.004
79.951
73.929
67.96
62.064
56.261
50.57
45.01
39.597
34.347
29.276
24.396
19.72
15.258
11.02
7.013
3.243
-0.284
-3.566
-6.601
-9.388
-11.929
-14.226
-16.283
-18.106
-19.7
-21.073
-22.234
-23.191
-23.955
-24.536
-24.946
-25.196
-25.3
-25.268
-25.114
-24.851
-24.491
-24.047
-23.532
-22.958
-22.337
-21.681
-21.001
-20.308
-19.611
-18.92
-18.243
-17.59
-16.966
-16.378
-15.833
-15.334
-14.885
-14.491
-14.152
-13.871
-13.648
-13.484
-13.377
-13.326
-13.33
-13.386
-13.491
-13.642
-13.835
-14.066
-14.332
-14.628
-14.949
-15.292
-15.651
-16.022
-16.402
-16.785
-17.167
-17.545
-17.916
-18.276
-18.621
-18.95
-19.26
-19.55
-19.817
-20.061
-20.281
-20.476
-20.648
-20.797
-20.924
-21.03
-21.118
-21.188
-21.245
-21.29
-21.326
-21.356
-21.383
-21.411
-21.442
-21.48
-21.527
-21.587
-21.662
-21.753
-21.864
-21.996
-22.15
-22.326
-22.527
-22.752
-23.001
-23.275
-23.571
-23.889
-24.228
-24.584
-24.955
-25.337
-25.727
-26.121
-26.514
-26.901
-27.278
-27.639
-27.98
-28.294
-28.576
-28.821
-29.024
-29.177
-29.276
-29.315
-29.289
-29.194
-29.027
-28.786
-28.467
-28.069
-27.59
-27.031
-26.391
-25.671
-24.872
-23.996
-23.045
-22.023
-20.936
-19.788
-18.587
-17.339
-16.054
-14.743
-13.414
-12.077
-10.741
-9.415
-8.109
-6.83
-5.584
-4.378
-3.221
-2.121
-1.088
-0.128
0.753
1.551
2.263
2.886
3.42
3.869
4.242
4.543
4.771
4.921
4.985
4.959
4.849
4.66
4.397
4.065
3.675
3.249
2.825
2.431
2.08
1.769
1.49
1.247
1.059
0.946
0.926
0.999
1.155
1.393
1.724
2.143
2.623
3.1
3.463
3.622
3.52
3.121
2.421
1.365
-0.144
-2.145
-4.602
-7.375
-10.223
-12.949
-15.438
-17.504
-18.871
-19.316
-18.697
-17.205
-15.419
-13.929
-13.222
-13.713
-15.764
-19.638
-25.418
-32.622
-40.105
-46.496
-50.431
-50.66
-45.991
-35.328
-17.709
6.833
36.795
70.235
104.99
139.75
174.979
210.335
243.3
268.804
277.878
261.834
216.588
143.32
50.342
-51.444
-154.56
-256.057
-358.843
-465.999
-574.598
-675.558
-753.871
-796.774
-800.87
-770.643
-717.458
-652.277
-579.788
-502.07
-420.257
-337.566
-260.646
-195.002
-142.733
-102.134
-69.786
-43.188
-21.619
-6.37
1.859
4.009
1.647
-2.795
-7.162
-10.704
-13.172
-14.326
-14.251
-12.99
-10.3
-6.412
-1.988
2.655
7.202
11.152
14.47
17.147
18.85
19.615
19.747
19.412
19.011
19.082
19.794
21.266
23.702
27.058
31.22
36.106
41.416
46.791
52.014
56.888
61.274
65.157
68.509
71.311
73.61
75.466
76.935
78.085
78.96
79.586
80.01
80.28
80.456
80.613
80.815
81.127
81.599
82.262
83.145
84.268
85.64
87.266
89.142
91.258
93.608
96.191
98.999
102.028
105.264
108.691
112.291
116.049
119.946
123.966
128.092
132.305
136.587
140.92
145.285
149.665
154.037
158.38
162.669
166.879
170.985
174.965
178.792
182.443
185.895
189.124
192.111
194.835
197.278
199.423
201.254
202.757
203.92
204.732
205.183
205.268
204.981
204.319
203.281
201.868
200.083
197.93
195.415
192.548
189.338
185.797
181.938
177.775
173.324
168.604
163.633
158.43
153.016
147.413
141.642
135.727
129.689
123.553
117.341
111.075
104.777
98.471
92.176
85.914
79.705
73.569
67.522
61.583
55.768
50.093
44.57
39.213
34.033
29.041
24.246
19.655
15.274
11.111
7.167
3.446
-0.051
-3.323
-6.371
-9.198
-11.806
-14.2
-16.384
-18.364
-20.147
-21.739
-23.148
-24.383
-25.451
-26.362
-27.124
-27.747
-28.24
-28.611
-28.872
-29.029
-29.093
-29.072
-28.975
-28.81
-28.585
-28.309
-27.989
-27.632
-27.245
-26.834
-26.407
-25.967
-25.521
-25.074
-24.629
-24.191
-23.764
-23.35
-22.952
-22.573
-22.216
-21.881
-21.571
-21.286
-21.028
-20.798
-20.595
-20.421
-20.276
-20.16
-20.073
-20.014
-19.984
-19.982
-20.007
-20.059
-20.135
-20.236
-20.36
-20.505
-20.669
-20.851
-21.048
-21.26
-21.483
-21.716
-21.957
-22.203
-22.452
-22.701
-22.947
-23.188
-23.421
-23.642
-23.85
-24.041
-24.213
-24.363
-24.49
-24.589
-24.659
-24.698
-24.703
-24.671
-24.601
-24.49
-24.338
-24.142
-23.903
-23.618
-23.289
-22.915
-22.497
-22.036
-21.533
-20.988
-20.405
-19.786
-19.133
-18.449
-17.739
-17.007
-16.259
-15.503
-14.744
-13.99
-13.247
-12.523
-11.824
-11.157
-10.528
-9.94
-9.398
-8.908
-8.475
-8.105
-7.805
-7.58
-7.435
-7.374
-7.401
-7.516
-7.721
-8.01
-8.381
-8.833
-9.363
-9.978
-10.68
-11.465
-12.326
-13.258
-14.243
-15.267
-16.308
-17.335
-18.325
-19.253
-20.101
-20.858
-21.516
-22.067
-22.507
-22.819
-22.986
-23.012
-22.904
-22.684
-22.395
-22.072
-21.766
-21.552
-21.498
-21.679
-22.176
-23.046
-24.338
-26.103
-28.347
-31.113
-34.47
-38.38
-42.754
-47.443
-52.167
-56.712
-60.935
-64.581
-67.358
-69.106
-69.707
-69.255
-68.158
-66.695
-65.029
-63.347
-61.837
-60.717
-60.224
-60.394
-60.396
-58.797
-54.411
-46.208
-34.561
-22.041
-10.497
-0.484
9.228
24.323
50.163
88.856
140.172
197.746
252.14
294.271
314.17
304.405
261.946
188.827
92.232
-17.633
-131.914
-247.473
-363.957
-481.145
-595.331
-695.518
-769.603
-809.281
-812.653
-786.185
-738.559
-676.224
-603.866
-523.947
-440.41
-360.459
-289.63
-231.331
-185.484
-147.748
-115.477
-87.724
-64.698
-48.619
-39.851
-37.048
-38.506
-41.516
-44.091
-45.516
-45.26
-43.23
-39.547
-34.015
-26.729
-18.383
-9.786
-1.656
5.257
10.661
14.523
16.587
16.856
15.707
13.582
11.088
8.929
7.429
6.737
7.086
8.515
10.963
14.346
18.382
22.728
27.188
31.617
35.882
39.918
43.624
46.911
49.782
52.262
54.382
56.175
57.656
58.842
59.782
60.53
61.144
61.682
62.187
62.707
63.294
64.0
64.884
65.989
67.34
68.957
70.849
73.019
75.472
78.202
81.191
84.424
87.888
91.564
95.442
99.506
103.736
108.114
112.617
117.222
121.911
126.66
131.446
136.248
141.042
145.806
150.518
155.157
159.698
164.118
168.392
172.497
176.407
180.102
183.558
186.754
189.67
192.29
194.597
196.576
198.215
199.503
200.43
200.987
201.17
200.973
200.395
199.432
198.088
196.364
194.265
191.797
188.969
185.788
182.268
178.419
174.258
169.798
165.056
160.05
154.8
149.324
143.644
137.781
131.757
125.595
119.318
112.948
106.509
100.022
93.511
86.997
80.503
74.048
67.654
61.341
55.127
49.03
43.068
37.257
31.612
26.146
20.874
15.805
10.95
6.318
1.916
-2.25
-6.175
-9.856
-13.291
-16.48
-19.423
-22.123
-24.583
-26.808
-28.803
-30.575
-32.132
-33.482
-34.633
-35.597
-36.382
-37.001
-37.465
-37.784
-37.971
-38.038
-37.997
-37.859
-37.637
-37.342
-36.985
-36.577
-36.13
-35.652
-35.153
-34.642
-34.128
-33.617
-33.117
-32.634
-32.172
-31.737
-31.332
-30.961
-30.626
-30.329
-30.071
-29.853
-29.676
-29.538
-29.439
-29.377
-29.352
-29.361
-29.403
-29.473
-29.571
-29.694
-29.838
-30.001
-30.18
-30.372
-30.575
-30.786
-31.002
-31.22
-31.439
-31.656
-31.87
-32.078
-32.281
-32.476
-32.662
-32.839
-33.005
-33.16
-33.302
-33.431
-33.545
-33.645
-33.729
-33.797
-33.848
-33.881
-33.895
-33.89
-33.865
-33.817
-33.746
-33.65
-33.527
-33.375
-33.193
-32.979
-32.731
-32.447
-32.127
-31.768
-31.369
-30.927
-30.443
-29.913
-29.338
-28.717
-28.05
-27.337
-26.578
-25.777
-24.937
-24.063
-23.157
-22.223
-21.267
-20.293
-19.307
-18.312
-17.311
-16.31
-15.312
-14.326
-13.36
-12.42
-11.515
-10.651
-9.836
-9.077
-8.38
-7.748
-7.181
-6.679
-6.248
-5.892
-5.621
-5.443
-5.358
-5.366
-5.465
-5.644
-5.894
-6.196
-6.525
-6.863
-7.193
-7.506
-7.799
-8.065
-8.297
-8.488
-8.628
-8.704
-8.713
-8.655
-8.543
-8.414
-8.306
-8.268
-8.361
-8.632
-9.133
-9.93
-11.074
-12.613
-14.589
-17.011
-19.915
-23.375
-27.396
-31.907
-36.759
-41.672
-46.415
-50.859
-54.787
-57.948
-60.214
-61.507
-61.955
-62.019
-61.995
-61.97
-62.157
-62.606
-63.173
-63.932
-64.694
-64.756
-63.792
-61.029
-54.968
-45.094
-31.014
-13.551
4.194
20.82
36.014
51.569
72.836
101.975
139.132
182.289
223.682
256.866
274.826
268.651
234.914
173.069
86.622
-15.138
-124.967
-239.665
-357.493
-476.429
-590.116
-685.238
-748.556
-774.367
-764.3
-728.686
-679.406
-620.949
-555.254
-482.166
-403.148
-326.943
-260.823
-208.869
-171.368
-142.125
-116.788
-93.825
-73.04
-57.06
-46.558
-40.001
-35.792
-31.636
-26.111
-19.238
-11.32
-2.854
5.505
13.231
19.875
24.913
27.92
28.873
27.994
25.654
22.381
18.676
14.982
11.748
9.354
7.991
7.711
8.48
10.186
12.722
15.983
19.837
24.138
28.762
33.605
38.55
43.488
48.294
52.828
56.994
60.738
64.028
66.864
69.262
71.247
72.864
74.177
75.243
76.119
76.861
77.513
78.133
78.783
79.525
80.425
81.529
82.87
84.47
86.342
88.489
90.911
93.598
96.532
99.699
103.086
106.682
110.478
114.459
118.61
122.91
127.339
131.879
136.508
141.207
145.955
150.731
155.514
160.284
165.021
169.704
174.31
178.812
183.187
187.408
191.451
195.292
198.906
202.27
205.362
208.162
210.651
212.813
214.631
216.089
217.177
217.881
218.193
218.104
217.61
216.705
215.387
213.657
211.517
208.97
206.022
202.682
198.96
194.867
190.417
185.626
180.511
175.09
169.384
163.414
157.203
150.774
144.152
137.363
130.432
123.386
116.251
109.053
101.82
94.577
87.349
80.164
73.044
66.015
59.1
52.321
45.7
39.257
33.01
26.977
21.175
15.617
10.317
5.285
0.531
-3.938
-8.117
-11.999
-15.585
-18.871
-21.86
-24.554
-26.957
-29.073
-30.91
-32.474
-33.776
-34.825
-35.631
-36.207
-36.564
-36.716
-36.676
-36.459
-36.078
-35.548
-34.883
-34.099
-33.211
-32.231
-31.176
-30.057
-28.889
-27.684
-26.454
-25.21
-23.962
-22.721
-21.494
-20.289
-19.115
-17.977
-16.881
-15.832
-14.834
-13.891
-13.007
-12.182
-11.421
-10.723
-10.09
-9.523
-9.021
-8.584
-8.213
-7.905
-7.659
-7.475
-7.349
-7.281
-7.267
-7.306
-7.395
-7.53
-7.71
-7.931
-8.191
-8.487
-8.817
-9.178
-9.567
-9.982
-10.42
-10.879
-11.356
-11.848
-12.352
-12.864
-13.381
-13.898
-14.414
-14.922
-15.42
-15.903
-16.367
-16.808
-17.222
-17.603
-17.947
-18.251
-18.508
-18.716
-18.87
-18.966
-19.002
-18.973
-18.879
-18.716
-18.483
-18.179
-17.801
-17.351
-16.827
-16.231
-15.564
-14.827
-14.025
-13.16
-12.239
-11.268
-10.254
-9.203
-8.125
-7.028
-5.92
-4.811
-3.707
-2.617
-1.549
-0.511
0.487
1.436
2.326
3.146
3.886
4.538
5.094
5.55
5.899
6.144
6.282
6.315
6.242
6.056
5.753
5.332
4.795
4.147
3.4
2.567
1.668
0.729
-0.224
-1.17
-2.088
-2.969
-3.813
-4.621
-5.389
-6.101
-6.74
-7.302
-7.792
-8.22
-8.606
-8.975
-9.366
-9.847
-10.494
-11.364
-12.511
-13.972
-15.761
-17.897
-20.397
-23.265
-26.517
-30.182
-34.213
-38.505
-42.899
-47.113
-50.873
-53.967
-56.115
-57.002
-56.488
-54.603
-51.631
-48.274
-45.135
-42.501
-40.793
-40.473
-41.778
-44.835
-48.7
-51.088
-50.261
-45.003
-35.93
-25.646
-15.113
-4.416
9.307
31.784
65.84
112.705
169.007
225.216
271.391
296.7
292.231
255.645
190.213
103.605
6.165
-94.089
-195.222
-297.519
-400.479
-500.567
-587.399
-649.675
-681.544
-682.816
-660.66
-625.08
-582.196
-535.169
-484.249
-428.411
-369.333
-309.883
-253.129
-202.321
-159.017
-123.559
-95.989
-75.406
-60.542
-50.407
-43.736
-39.208
-35.811
-32.492
-28.331
-23.088
-16.911
-10.037
-2.975
3.76
9.801
14.662
17.914
19.487
19.55
18.422
16.587
14.498
12.505
10.961
10.17
10.273
11.307
13.222
15.889
19.179
22.979
27.159
31.589
36.175
40.817
45.409
49.844
54.005
57.8
61.182
64.125
66.62
68.677
70.319
71.593
72.56
73.285
73.821
74.221
74.531
74.803
75.102
75.489
76.029
76.772
77.751
78.993
80.518
82.338
84.456
86.867
89.556
92.512
95.726
99.19
102.894
106.827
110.969
115.304
119.81
124.466
129.252
134.144
139.12
144.154
149.224
154.306
159.376
164.408
169.375
174.247
178.995
183.591
188.004
192.206
196.168
199.864
203.267
206.353
209.101
211.489
213.498
215.111
216.312
217.089
217.429
217.325
216.771
215.762
214.297
212.377
210.006
207.188
203.933
200.25
196.152
191.653
186.77
181.522
175.928
170.011
163.795
157.304
150.565
143.604
136.451
129.133
121.68
114.123
106.49
98.81
91.114
83.43
75.786
68.21
60.727
53.363
46.143
39.088
32.22
25.559
19.123
12.927
6.988
1.318
-4.072
-9.172
-13.976
-18.476
-22.668
-26.551
-30.124
-33.388
-36.345
-39.001
-41.36
-43.429
-45.218
-46.736
-47.994
-49.003
-49.776
-50.327
-50.669
-50.818
-50.788
-50.594
-50.25
-49.772
-49.175
-48.473
-47.68
-46.809
-45.875
-44.889
-43.864
-42.811
-41.742
-40.665
-39.591
-38.528
-37.484
-36.466
-35.48
-34.531
-33.625
-32.766
-31.957
-31.2
-30.499
-29.853
-29.263
-28.731
-28.254
-27.832
-27.464
-27.148
-26.881
-26.662
-26.488
-26.358
-26.267
-26.214
-26.197
-26.212
-26.257
-26.329
-26.425
-26.543
-26.68
-26.833
-27.002
-27.182
-27.372
-27.57
-27.773
-27.978
-28.184
-28.387
-28.584
-28.773
-28.95
-29.114
-29.262
-29.391
-29.499
-29.585
-29.645
-29.678
-29.681
-29.651
-29.586
-29.484
-29.342
-29.158
-28.929
-28.653
-28.33
-27.958
-27.535
-27.062
-26.536
-25.959
-25.329
-24.647
-23.914
-23.131
-22.302
-21.429
-20.515
-19.568
-18.592
-17.595
-16.584
-15.563
-14.543
-13.529
-12.529
-11.551
-10.598
-9.679
-8.802
-7.974
-7.205
-6.501
-5.872
-5.326
-4.872
-4.518
-4.269
-4.129
-4.098
-4.179
-4.372
-4.681
-5.111
-5.661
-6.33
-7.113
-8.006
-8.997
-10.072
-11.209
-12.376
-13.547
-14.698
-15.812
-16.876
-17.876
-18.805
-19.659
-20.43
-21.112
-21.705
-22.21
-22.637
-23.014
-23.363
-23.73
-24.184
-24.787
-25.612
-26.717
-28.132
-29.889
-32.009
-34.503
-37.384
-40.664
-44.308
-48.291
-52.615
-57.194
-61.906
-66.552
-70.788
-74.322
-76.954
-78.414
-78.398
-76.829
-73.761
-69.51
-64.739
-59.848
-55.076
-50.969
-48.093
-46.684
-46.312
-45.578
-42.809
-37.467
-30.675
-23.857
-17.092
-8.331
6.423
30.091
62.586
100.585
139.203
175.269
205.721
227.969
237.702
226.344
188.804
124.704
39.238
-55.935
-151.934
-245.618
-338.215
-432.087
-525.386
-610.106
-674.306
-709.986
-715.277
-694.404
-656.872
-609.648
-556.456
-498.99
-436.655
-370.801
-304.449
-241.052
-184.465
-137.024
-99.588
-72.042
-53.191
-41.629
-36.038
-34.632
-35.583
-37.178
-37.765
-36.531
-33.455
-28.775
-22.954
-16.68
-10.588
-5.396
-1.888
-0.353
-0.659
-2.489
-5.323
-8.621
-11.965
-14.919
-17.044
-18.134
-18.131
-17.067
-15.099
-12.373
-9.009
-5.161
-0.984
3.41
7.907
12.387
16.744
20.846
24.595
27.939
30.845
33.301
35.313
36.9
38.105
38.992
39.621
40.048
40.328
40.505
40.639
40.795
41.04
41.443
42.055
42.91
44.035
45.448
47.159
49.171
51.475
54.053
56.892
59.981
63.311
66.871
70.646
74.618
78.767
83.072
87.512
92.067
96.715
101.431
106.196
110.986
115.78
120.556
125.291
129.96
134.534
138.988
143.294
147.425
151.356
155.059
158.512
161.69
164.575
167.147
169.387
171.282
172.817
173.979
174.76
175.15
175.144
174.737
173.928
172.716
171.104
169.094
166.693
163.907
160.746
157.222
153.345
149.132
144.598
139.759
134.635
129.246
123.614
117.759
111.706
105.477
99.097
92.59
85.981
79.293
72.55
65.777
58.995
52.227
45.495
38.819
32.22
25.716
19.326
13.065
6.952
0.999
-4.778
-10.367
-15.757
-20.937
-25.897
-30.63
-35.129
-39.388
-43.403
-47.17
-50.689
-53.958
-56.977
-59.749
-62.276
-64.562
-66.611
-68.428
-70.02
-71.394
-72.557
-73.518
-74.284
-74.864
-75.268
-75.504
-75.583
-75.513
-75.305
-74.968
-74.511
-73.944
-73.278
-72.521
-71.682
-70.772
-69.799
-68.772
-67.7
-66.59
-65.452
-64.292
-63.118
-61.937
-60.755
-59.58
-58.416
-57.27
-56.146
-55.05
-53.986
-52.958
-51.969
-51.023
-50.123
-49.271
-48.47
-47.722
-47.029
-46.393
-45.815
-45.296
-44.838
-44.441
-44.106
-43.833
-43.622
-43.473
-43.387
-43.362
-43.398
-43.495
-43.652
-43.867
-44.14
-44.468
-44.849
-45.282
-45.764
-46.291
-46.861
-47.47
-48.116
-48.793
-49.499
-50.228
-50.977
-51.741
-52.515
-53.293
-54.07
-54.84
-55.597
-56.335
-57.048
-57.731
-58.376
-58.979
-59.533
-60.032
-60.47
-60.841
-61.14
-61.36
-61.495
-61.541
-61.493
-61.346
-61.099
-60.747
-60.29
-59.726
-59.054
-58.274
-57.389
-56.4
-55.309
-54.12
-52.838
-51.469
-50.019
-48.497
-46.911
-45.273
-43.594
-41.884
-40.155
-38.421
-36.692
-34.981
-33.299
-31.657
-30.065
-28.536
-27.079
-25.71
-24.441
-23.285
-22.251
-21.349
-20.586
-19.971
-19.506
-19.191
-19.022
-18.998
-19.118
-19.39
-19.819
-20.397
-21.12
-21.975
-22.947
-24.02
-25.174
-26.375
-27.593
-28.801
-29.976
-31.12
-32.236
-33.317
-34.353
-35.313
-36.178
-36.949
-37.634
-38.232
-38.76
-39.226
-39.661
-40.139
-40.714
-41.437
-42.352
-43.463
-44.771
-46.29
-48.029
-50.029
-52.353
-54.978
-57.804
-60.687
-63.384
-65.677
-67.392
-68.256
-67.934
-66.218
-63.141
-59.033
-54.54
-50.284
-46.598
-43.77
-42.222
-42.257
-43.823
-46.36
-48.656
-49.339
-47.583
-42.691
-33.675
-19.626
0.185
25.452
54.278
84.593
114.679
144.381
174.91
205.372
233.024
251.571
251.456
227.091
176.583
103.457
17.94
-72.334
-162.819
-252.248
-345.026
-442.573
-540.882
-632.086
-702.86
-741.8
-745.674
-718.013
-668.68
-609.311
-545.42
-477.224
-403.881
-324.706
-244.442
-172.749
-116.132
-77.709
-55.595
-42.415
-33.072
-25.157
-18.021
-13.509
-11.838
-11.517
-11.06
-8.986
-4.994
0.248
6.008
11.521
16.158
19.407
20.818
20.313
18.181
14.88
10.971
6.963
3.285
0.362
-1.519
-2.273
-1.84
-0.299
2.179
5.595
9.386
12.965
16.767
20.838
26.139
33.855
42.404
50.679
57.132
59.718
60.159
59.938
60.085
62.311
65.45
68.341
70.77
72.051
72.673
73.245
73.722
74.242
74.832
75.445
76.203
77.194
78.425
79.904
81.644
83.646
85.896
88.379
91.072
93.956
97.028
100.287
103.719
107.313
111.052
114.922
118.91
123.002
127.184
131.439
135.755
140.115
144.506
148.912
153.319
157.705
162.053
166.34
170.547
174.654
178.639
182.485
186.17
189.679
192.995
196.103
198.987
201.636
204.036
206.176
208.047
209.64
210.947
211.962
212.68
213.098
213.212
213.023
212.529
211.732
210.635
209.241
207.555
205.584
203.334
200.813
198.03
194.996
191.721
188.217
184.495
180.569
176.451
172.154
167.692
163.077
158.321
153.438
148.441
143.342
138.152
132.884
127.549
122.158
116.724
111.256
105.765
100.262
94.758
89.262
83.784
78.335
72.924
67.561
62.256
57.018
51.858
46.783
41.804
36.929
32.168
27.529
23.021
18.653
14.434
10.373
6.479
2.76
-0.775
-4.117
-7.257
-10.187
-12.898
-15.383
-17.633
-19.641
