249.56
300.463
347.859
382.649
393.202
371.787
318.662
239.297
144.882
47.255
-48.129
-141.12
-233.901
-327.577
-417.749
-495.078
-550.81
-580.594
-585.289
-570.489
-542.047
-502.817
-454.709
-399.474
-340.469
-283.241
-231.94
-188.065
-150.358
-116.311
-84.692
-56.158
-32.588
-15.187
-3.871
2.459
5.363
5.893
4.721
2.449
-0.547
-4.011
-7.702
-11.449
-14.867
-17.51
-19.211
-19.996
-19.982
-19.194
-17.602
-15.278
-12.565
-9.972
-7.797
-6.109
-4.857
-3.966
-3.389
-3.044
-2.676
-1.911
-0.536
1.491
4.119
7.203
10.609
14.219
17.835
21.23
24.268
26.882
29.064
30.866
32.322
33.459
34.33
34.991
35.491
35.875
36.173
36.415
36.644
36.91
37.267
37.758
38.413
39.252
40.289
41.534
42.991
44.658
46.529
48.601
50.869
53.332
55.987
58.828
61.844
65.024
68.355
71.82
75.406
79.098
82.882
86.741
90.661
94.626
98.619
102.623
106.617
110.58
114.489
118.321
122.054
125.665
129.131
132.429
135.538
138.439
141.111
143.535
145.695
147.573
149.155
150.427
151.377
151.993
152.268
152.192
151.762
150.972
149.822
148.311
146.44
144.213
141.635
138.714
135.458
131.878
127.985
123.794
119.32
114.58
109.592
104.376
98.952
93.343
87.57
81.656
75.625
69.5
63.305
57.064
50.799
44.533
38.29
32.091
25.957
19.909
13.966
8.147
2.469
-3.051
-8.399
-13.562
-18.525
-23.28
-27.816
-32.125
-36.201
-40.039
-43.635
-46.988
-50.096
-52.962
-55.589
-57.979
-60.138
-62.073
-63.792
-65.302
-66.614
-67.738
-68.685
-69.465
-70.091
-70.575
-70.929
-71.166
-71.297
-71.334
-71.29
-71.176
-71.003
-70.782
-70.522
-70.235
-69.927
-69.609
-69.288
-68.97
-68.662
-68.369
-68.097
-67.848
-67.626
-67.433
-67.27
-67.138
-67.037
-66.966
-66.924
-66.908
-66.916
-66.946
-66.993
-67.054
-67.126
-67.204
-67.285
-67.363
-67.435
-67.496
-67.543
-67.572
-67.579
-67.561
-67.513
-67.435
-67.322
-67.172
-66.983
-66.753
-66.482
-66.167
-65.808
-65.405
-64.958
-64.467
-63.932
-63.356
-62.738
-62.082
-61.388
-60.658
-59.895
-59.102
-58.28
-57.433
-56.562
-55.672
-54.763
-53.84
-52.904
-51.959
-51.006
-50.047
-49.086
-48.124
-47.162
-46.203
-45.249
-44.3
-43.358
-42.425
-41.501
-40.586
-39.683
-38.79
-37.909
-37.039
-36.18
-35.333
-34.497
-33.671
-32.855
-32.049
-31.253
-30.465
-29.685
-28.913
-28.147
-27.388
-26.635
-25.887
-25.145
-24.408
-23.676
-22.949
-22.228
-21.512
-20.803
-20.099
-19.403
-18.715
-18.035
-17.364
-16.703
-16.053
-15.416
-14.793
-14.185
-13.593
-13.019
-12.465
-11.931
-11.42
-10.932
-10.469
-10.032
-9.622
-9.239
-8.885
-8.56
-8.265
-7.999
-7.762
-7.554
-7.372
-7.217
-7.085
-6.975
-6.884
-6.809
-6.748
-6.698
-6.656
-6.616
-6.577
-6.534
-6.482
-6.418
-6.335
-6.229
-6.096
-5.93
-5.727
-5.482
-5.19
-4.846
-4.448
-3.99
-3.47
-2.884
-2.228
-1.501
-0.701
0.172
1.119
2.14
3.233
4.393
5.617
6.899
8.234
9.617
11.039
12.494
13.975
15.474
16.985
18.501
20.014
21.514
22.991
24.435
25.837
27.187
28.475
29.69
30.825
31.874
32.834
33.701
34.47
35.134
35.684
36.111
36.414
36.591
36.642
36.572
36.39
36.112
35.762
35.359
34.917
34.45
33.962
33.461
32.957
32.456
31.967
31.499
31.056
30.64
30.246
29.848
29.416
28.906
28.258
27.424
26.356
24.998
23.308
21.248
18.78
15.888
12.551
8.724
4.409
-0.357
-5.481
-10.76
-15.981
-20.941
-25.375
-29.014
-31.661
-33.16
-33.546
-33.129
-32.23
-31.235
-30.574
-30.522
-31.352
-33.352
-36.445
-40.133
-43.391
-44.56
-42.219
-35.678
-25.455
-12.785
1.753
18.609
40.283
69.28
106.306
150.309
196.707
239.838
273.67
291.264
287.275
257.542
201.773
125.091
35.272
-58.873
-152.224
-245.059
-338.874
-433.512
-523.805
-599.121
-649.496
-669.782
-660.964
-629.58
-582.895
-526.38
-463.732
-398.266
-334.619
-276.712
-227.2
-186.222
-150.774
-119.115
-91.008
-67.01
-49.041
-37.42
-30.733
-27.398
-25.61
-24.024
-21.974
-19.14
-15.438
-10.998
-6.199
-1.318
3.584
8.232
12.284
15.509
17.63
18.657
18.887
18.5
17.564
16.269
14.838
13.541
12.754
12.661
13.261
14.571
16.6
19.299
22.598
26.356
30.346
34.384
38.352
42.132
45.628
48.772
51.514
53.837
55.767
57.338
58.578
59.527
60.224
60.71
61.039
61.258
61.413
61.561
61.754
62.048
62.501
63.156
64.042
65.184
66.599
68.292
70.269
72.525
75.052
77.842
80.889
84.183
87.716
91.477
95.45
99.622
103.973
108.488
113.147
117.932
122.823
127.801
132.844
137.932
143.044
148.157
153.247
158.289
163.255
168.119
172.855
177.436
181.836
186.028
189.988
193.693
197.12
200.249
203.06
205.535
207.656
209.409
210.78
211.758
212.333
212.497
212.244
211.571
210.476
208.958
207.022
204.67
201.909
198.748
195.198
191.269
186.978
182.339
177.37
172.09
166.519
160.681
154.597
148.292
141.791
135.121
128.306
121.374
114.35
107.263
100.138
93.001
85.878
78.794
71.775
64.843
58.023
51.334
44.799
38.436
32.264
26.299
20.556
15.049
9.789
4.787
0.052
-4.41
-8.594
-12.496
-16.114
-19.449
-22.502
-25.277
-27.777
-30.01
-31.983
-33.705
-35.184
-36.434
-37.464
-38.288
-38.919
-39.37
-39.656
-39.79
-39.788
-39.664
-39.432
-39.107
-38.702
-38.232
-37.709
-37.146
-36.556
-35.949
-35.336
-34.728
-34.133
-33.559
-33.014
-32.505
-32.036
-31.613
-31.24
-30.919
-30.652
-30.441
-30.285
-30.186
-30.141
-30.15
-30.209
-30.317
-30.471
-30.667
-30.902
-31.172
-31.472
-31.8
-32.15
-32.519
-32.903
-33.299
-33.702
-34.109
-34.517
-34.924
-35.325
-35.72
-36.105
-36.479
-36.841
-37.188
-37.521
-37.838
-38.139
-38.423
-38.692
-38.944
-39.181
-39.402
-39.609
-39.802
-39.983
-40.151
-40.309
-40.455
-40.593
-40.72
-40.839
-40.95
-41.052
-41.146
-41.23
-41.305
-41.37
-41.423
-41.464
-41.491
-41.503
-41.499
-41.476
-41.433
-41.368
-41.28
-41.166
-41.025
-40.856
-40.656
-40.425
-40.16
-39.862
-39.529
-39.161
-38.757
-38.317
-37.841
-37.33
-36.785
-36.206
-35.596
-34.957
-34.29
-33.6
-32.888
-32.159
-31.417
-30.666
-29.91
-29.156
-28.408
-27.671
-26.951
-26.254
-25.586
-24.952
-24.358
-23.809
-23.311
-22.868
-22.486
-22.169
-21.921
-21.747
-21.649
-21.63
-21.694
-21.841
-22.073
-22.392
-22.796
-23.286
-23.86
-24.516
-25.253
-26.066
-26.953
-27.907
-28.923
-29.996
-31.118
-32.281
-33.478
-34.699
-35.936
-37.18
-38.421
-39.649
-40.856
-42.03
-43.163
-44.244
-45.265
-46.215
-47.087
-47.871
-48.56
-49.146
-49.623
-49.983
-50.222
-50.335
-50.318
-50.168
-49.882
-49.459
-48.899
-48.203
-47.373
-46.413
-45.326
-44.118
-42.797
-41.373
-39.855
-38.253
-36.58
-34.845
-33.063
-31.246
-29.405
-27.553
-25.7
-23.86
-22.044
-20.268
-18.543
-16.882
-15.296
-13.797
-12.395
-11.099
-9.916
-8.848
-7.898
-7.071
-6.371
-5.807
-5.384
-5.102
-4.959
-4.951
-5.067
-5.297
-5.62
-6.011
-6.444
-6.904
-7.372
-7.843
-8.308
-8.752
-9.165
-9.53
-9.831
-10.064
-10.229
-10.326
-10.378
-10.419
-10.488
-10.65
-10.955
-11.443
-12.162
-13.145
-14.424
-16.04
-18.012
-20.361
-23.144
-26.371
-30.003
-33.955
-38.018
-41.946
-45.531
-48.492
-50.516
-51.405
-51.033
-49.455
-47.045
-44.236
-41.449
-39.187
-37.905
-37.898
-39.352
-42.103
-45.445
-48.428
-49.954
-48.823
-43.855
-33.91
-18.017
4.524
33.292
66.478
101.967
137.398
171.333
204.389
236.361
264.711
284.308
286.276
262.397
210.173
132.941
39.799
-58.2
-154.897
-249.52
-343.48
-437.313
-526.139
-599.322
-647.16
-665.248
-655.202
-624.904
-582.46
-531.731
-474.907
-413.117
-348.755
-287.022
-232.07
-185.427
-145.937
-111.1
-79.542
-51.567
-28.717
-11.891
-0.634
6.086
9.607
10.86
10.306
8.413
5.521
1.791
-2.623
-7.434
-12.081
-15.93
-18.612
-20.06
-20.304
-19.305
-17.032
-13.61
-9.536
-5.487
-1.885
1.122
3.537
5.417
6.81
7.807
8.718
9.969
11.807
14.304
17.397
20.928
24.755
28.74
32.697
36.417
39.772
42.712
45.248
47.442
49.349
51.016
52.498
53.857
55.143
56.396
57.657
58.963
60.357
61.892
63.61
65.539
67.701
70.107
72.763
75.671
78.826
82.215
85.831
89.667
93.719
97.98
102.44
107.083
111.895
116.856
121.949
127.153
132.449
137.817
143.237
148.69
154.157
159.618
165.052
170.435
175.743
180.95
186.032
190.964
195.72
200.277
204.612
208.701
212.523
216.06
219.29
222.197
224.764
226.974
228.815
230.274
231.34
232.005
232.261
232.104
231.53
230.539
229.13
227.307
225.074
222.438
219.405
215.988
212.196
208.043
203.544
198.715
193.572
188.136
182.425
176.46
170.262
163.855
157.261
150.503
143.604
136.588
129.48
122.301
115.076
107.828
100.579
93.352
86.168
79.048
72.012
65.079
58.266
51.591
45.07
38.716
32.543
26.563
20.787
15.224
9.882
4.767
-0.115
-4.759
-9.163
-13.326
-17.246
-20.924
-24.362
-27.563
-30.531
-33.269
-35.783
-38.08
-40.166
-42.048
-43.735
-45.234
-46.555
-47.705
-48.696
-49.535
-50.233
-50.799
-51.242
-51.571
-51.796
-51.926
-51.969
-51.933
-51.826
-51.656
-51.43
-51.155
-50.838
-50.484
-50.099
-49.688
-49.257
-48.81
-48.35
-47.883
-47.41
-46.936
-46.462
-45.992
-45.527
-45.07
-44.621
-44.183
-43.755
-43.34
-42.937
-42.547
-42.17
-41.806
-41.454
-41.116
-40.79
-40.477
-40.175
-39.886
-39.607
-39.339
-39.082
-38.835
-38.598
-38.37
-38.152
-37.941
-37.74
-37.546
-37.36
-37.182
-37.011
-36.847
-36.689
-36.538
-36.393
-36.255
-36.122
-35.996
-35.876
-35.762
-35.655
-35.554
-35.462
-35.378
-35.303
-35.238
-35.183
-35.14
-35.109
-35.092
-35.09
-35.103
-35.133
-35.18
-35.246
-35.332
-35.439
-35.567
-35.717
-35.891
-36.089
-36.311
-36.559
-36.833
-37.134
-37.461
-37.816
-38.199
-38.609
-39.048
-39.514
-40.008
-40.529
-41.076
-41.649
-42.247
-42.867
-43.51
-44.173
-44.855
-45.553
-46.266
-46.993
-47.73
-48.476
-49.229
-49.986
-50.746
-51.505
-52.263
-53.016
-53.763
-54.502
-55.231
-55.947
-56.65
-57.337
-58.006
-58.656
-59.286
-59.892
-60.475
-61.032
-61.562
-62.063
-62.534
-62.974
-63.381
-63.756
-64.096
-64.401
-64.67
-64.902
-65.095
-65.248
-65.36
-65.429
-65.455
-65.436
-65.37
-65.257
-65.095
-64.883
-64.619
-64.301
-63.928
-63.497
-63.007
-62.456
-61.843
-61.164
-60.419
-59.607
-58.727
-57.779
-56.76
-55.671
-54.511
-53.281
-51.981
-50.611
-49.174
-47.67
-46.102
-44.474
-42.791
-41.057
-39.279
-37.461
-35.609
-33.733
-31.838
-29.933
-28.024
-26.115
-24.213
-22.326
-20.46
-18.624
-16.822
-15.059
-13.344
-11.682
-10.081
-8.547
-7.081
-5.678
-4.337
-3.057
-1.84
-0.695
0.377
1.376
2.304
3.161
3.946
4.663
5.325
5.954
6.574
7.201
7.846
8.502
9.157
9.808
10.459
11.129
11.846
12.61
13.4
14.211
15.049
15.894
16.706
17.361
17.662
17.49
16.819
15.657
14.05
12.055
9.693
7.13
4.716
2.687
1.174
0.212
-0.347
-0.592
-0.465
-0.106
0.111
-0.088
-1.003
-2.811
-5.386
-8.739
-13.01
-18.105
-23.746
-29.603
-35.179
-39.513
-41.35
-39.597
-33.078
-22.213
-9.089
5.823
22.595
43.052
71.69
109.445
154.907
205.319
254.061
296.342
328.226
343.702
338.514
308.787
252.811
174.604
80.692
-22.058
-128.458
-236.433
-344.212
-447.355
-538.111
-606.936
-646.556
-654.99
-635.374
-595.357
-543.44
-486.643
-430.905
-378.519
-329.62
-283.555
-238.1
-193.164
-150.426
-111.733
-79.793
-55.461
-37.794
-25.719
-17.653
-12.515
-9.726
-8.525
-8.254
-8.362
-8.433
-8.172
-7.241
-5.277
-2.172
1.945
6.841
12.123
17.493
22.692
27.25
30.762
33.097
34.284
34.507
34.098
33.309
32.406
31.819
31.864
32.685
34.339
36.731
39.706
43.161
46.941
50.817
54.623
58.228
61.53
64.515
67.183
69.522
71.562
73.34
74.887
76.25
77.472
78.587
79.633
80.654
81.683
82.768
83.954
85.284
86.804
88.549
90.542
92.802
95.338
98.153
101.251
104.623
108.256
112.137
116.254
120.591
125.136
129.873
134.779
139.836
145.019
150.306
155.675
161.1
166.557
172.02
177.464
182.864
188.196
193.433
198.55
203.518
208.311
212.902
217.266
221.378
225.211
228.743
231.952
234.819
237.324
239.451
241.186
242.515
243.427
243.911
243.962
243.573
242.742
241.465
239.745
237.582
234.983
231.954
228.504
224.642
220.382
215.739
210.727
205.364
199.67
193.665
187.37
180.808
174.002
166.977
159.758
152.371
144.841
137.194
129.457
121.655
113.813
105.958
98.113
90.303
82.55
74.879
67.31
59.864
52.562
45.421
38.46
31.695
25.14
18.809
12.714
6.866
1.273
-4.056
-9.116
-13.902
-18.411
-22.64
-26.591
-30.262
-33.658
-36.78
-39.634
-42.225
-44.559
-46.644
-48.488
-50.099
-51.487
-52.661
-53.632
-54.41
-55.006
-55.432
-55.698
-55.816
-55.797
-55.653
-55.393
-55.03
-54.574
-54.034
-53.421
-52.745
-52.013
-51.235
-50.419
-49.573
-48.702
-47.815
-46.916
-46.013
-45.108
-44.208
-43.315
-42.435
-41.569
-40.721
-39.894
-39.089
-38.308
-37.552
-36.824
-36.123
-35.45
-34.805
-34.19
-33.603
-33.045
-32.515
-32.014
-31.539
-31.092
-30.671
-30.277
-29.907
-29.562
-29.24
-28.942
-28.665
-28.41
-28.176
-27.961
-27.765
-27.587
-27.426
-27.28
-27.15
-27.033
-26.929
-26.837
-26.755
-26.683
-26.62
-26.565
-26.516
-26.473
-26.436
-26.403
-26.373
-26.347
-26.322
-26.299
-26.277
-26.255
-26.232
-26.209
-26.183
-26.156
-26.126
-26.093
-26.057
-26.017
-25.974
-25.926
-25.876
-25.822
-25.765
-25.706
-25.646
-25.584
-25.522
-25.461
-25.401
-25.344
-25.291
-25.242
-25.199
-25.163
-25.135
-25.116
-25.108
-25.111
-25.126
-25.155
-25.2
-25.261
-25.339
-25.437
-25.556
-25.696
-25.861
-26.051
-26.268
-26.513
-26.787
-27.092
-27.43
-27.8
-28.205
-28.644
-29.118
-29.628
-30.174
-30.756
-31.374
-32.028
-32.718
-33.443
-34.202
-34.995
-35.821
-36.678
-37.564
-38.478
-39.419
-40.383
-41.369
-42.373
-43.392
-44.423
-45.461
-46.501
-47.539
-48.57
-49.588
-50.587
-51.561
-52.506
-53.413
-54.278
-55.093
-55.853
-56.552
-57.183
-57.739
-58.215
-58.605
-58.903
-59.104
-59.202
-59.192
-59.07
-58.832
-58.475
-57.994
-57.389
-56.656
-55.794
-54.804
-53.686
-52.441
-51.074
-49.585
-47.982
-46.271
-44.459
-42.555
-40.568
-38.508
-36.385
-34.212
-31.997
-29.753
-27.489
-25.217
-22.95
-20.702
-18.485
-16.313
-14.198
-12.154
-10.195
-8.332
-6.573
-4.924
-3.39
-1.98
-0.702
0.43
1.41
2.235
2.902
3.411
3.763
3.966
4.034
3.993
3.862
3.652
3.368
3.008
2.577
2.094
1.58
1.05
0.509
-0.044
-0.612
-1.175
-1.73
-2.337
-3.065
-3.995
-5.201
-6.667
-8.365
-10.352
-12.692
-15.355
-18.33
-21.553
-24.947
-28.641
-32.749
-37.19
-41.812
-46.492
-51.076
-55.488
-59.651
-63.233
-65.96
-67.815
-68.946
-69.58
-69.909
-70.082
-70.31
-70.906
-72.067
-73.77
-75.711
-77.382
-78.278
-77.381
-73.195
-64.511
-50.584
-32.225
-11.291
10.868
33.78
59.336
89.884
126.511
169.215
213.713
253.112
279.665
283.785
259.42
206.402
129.332
37.939
-57.789
-153.144
-248.376
-345.4
-444.258
-539.056
-617.889
-670.037
-690.791
-681.814
-651.739
-609.536
-558.806
-501.415
-437.449
-368.232
-300.348
-239.288
-188.358
-148.42
-115.723
-87.507
-62.87
-41.673
-25.592
-15.098
-9.254
-6.809
-5.948
-5.491
-4.952
-4.053
-2.766
-0.93
1.706
5.081
9.002
13.258
17.498
21.531
25.252
28.35
30.604
32.045
32.758
32.935
32.882
32.782
32.84
33.417
34.745
36.905
39.913
43.646
47.948
52.718
57.779
62.894
67.871
72.553
76.847
80.749
84.254
87.356
90.081
92.46
94.537
96.367
97.992
99.444
100.759
101.976
103.143
104.319
105.56
106.922
108.448
110.163
112.091
114.247
116.635
119.26
122.114
125.184
128.463
131.946
135.635
139.526
143.608
147.858
152.252
156.756
161.342
165.98
170.634
175.272
179.873
184.423
188.922
193.373
197.768
202.087
206.3
210.376
214.301
218.066
221.662
225.098
228.376
231.507
234.523
237.438
240.241
242.906
245.369
247.559
249.425
250.93
252.05
252.771
253.061
252.888
252.233
251.059
249.332
247.01
244.024
240.324
235.907
230.793
225.047
218.76
211.998
204.818
197.279
189.421
181.299
172.964
164.454
155.811
147.09
138.357
129.703
121.207
112.915
104.85
97.009
89.363
81.901
74.621
67.51
60.572
53.809
47.226
40.844
34.683
28.753
23.051
17.561
12.268
7.17
2.275
-2.404
-6.842
-11.024
-14.938
-18.568
-21.907
-24.954
-27.712
-30.194
-32.419
-34.4
-36.148
-37.672
-38.979
-40.081
-40.992
-41.726
-42.299
-42.728
-43.027
-43.215
-43.31
-43.324
-43.271
-43.16
-43.001
-42.801
-42.569
-42.312
-42.038
-41.755
-41.468
-41.184
-40.91
-40.649
-40.406
-40.183
-39.981
-39.802
-39.645
-39.509
-39.394
-39.298
-39.217
-39.151
-39.096
-39.049
-39.008
-38.969
-38.929
-38.886
-38.836
-38.776
-38.705
-38.619
-38.517
-38.398
-38.26
-38.103
-37.926
-37.731
-37.516
-37.284
-37.034
-36.769
-36.489
-36.197
-35.895
-35.585
-35.271
-34.955
-34.641
-34.333
-34.035
-33.751
-33.485
-33.241
-33.024
-32.836
-32.682
-32.565
-32.488
-32.455
-32.468
-32.529
-32.64
-32.802
-33.017
-33.284
-33.604
-33.976
-34.399
-34.873
-35.394
-35.961
-36.572
-37.223
-37.911
-38.632
-39.383
-40.159
-40.956
-41.768
-42.591
-43.419
-44.247
-45.069
-45.878
-46.67
-47.438
-48.177
-48.88
-49.543
-50.16
-50.727
-51.238
-51.689
-52.077
-52.397
-52.649
-52.827
-52.932
-52.962
-52.915
-52.792
-52.593
-52.32
-51.972
-51.553
-51.064
-50.509
-49.892
-49.214
-48.482
-47.7
-46.873
-46.006
-45.106
-44.178
-43.23
-42.267
-41.297
-40.327
-39.363
-38.412
-37.482
-36.577
-35.706
-34.874
-34.085
-33.346
-32.661
-32.034
-31.467
-30.965
-30.527
-30.156
-29.852
-29.614
-29.443
-29.336
-29.292
-29.308
-29.381
-29.507
-29.682
-29.901
-30.158
-30.448
-30.764
-31.1
-31.449
-31.804
-32.156
-32.5
-32.827
-33.131
-33.405
-33.642
-33.836
-33.981
-34.071
-34.104
-34.075
-33.981
-33.822
-33.595
-33.304
-32.95
-32.536
-32.064
-31.54
-30.967
-30.352
-29.7
-29.015
-28.305
-27.574
-26.833
-26.089
-25.35
-24.625
-23.924
-23.255
-22.627
-22.049
-21.526
-21.06
-20.655
-20.317
-20.049
-19.859
-19.751
-19.725
-19.78
-19.913
-20.12
-20.389
-20.706
-21.045
-21.391
-21.73
-22.052
-22.353
-22.621
-22.845
-23.017
-23.131
-23.179
-23.159
-23.068
-22.905
-22.689
-22.452
-22.234
-22.091
-22.061
-22.171
-22.452
-22.937
-23.661
-24.664
-25.97
-27.573
-29.49
-31.762
-34.394
-37.36
-40.535
-43.669
-46.519
-48.883
-50.539
-51.235
-50.782
-49.054
-46.144
-42.498
-38.6
-34.845
-31.694
-29.62
-28.99
-30.107
-32.567
-35.039
-36.286
-35.467
-32.699
-28.68
-22.958
-13.47
3.25
29.752
65.784
108.221
151.988
193.493
231.401
265.015
292.153
306.867
300.772
267.106
205.215
120.828
23.576
-77.475
-178.863
-280.486
-382.547
-482.026
-569.988
-636.271
-672.729
-677.026
-653.943
-610.649
-555.892
-496.803
-436.855
-379.036
-323.888
-270.553
-219.745
-171.913
-128.713
-92.915
-65.492
-46.352
-34.373
-27.525
-24.381
-23.75
-24.461
-25.643
-26.457
-26.408
-25.396
-23.255
-19.883
-15.454
-10.234
-4.594
0.988
6.259
11.091
15.185
18.344
20.601
22.05
22.919
23.538
24.104
24.819
26.019
27.924
30.611
34.092
38.245
42.895
47.927
53.173
58.401
63.432
68.115
72.353
76.136
79.465
82.336
84.771
86.801
88.466
89.819
90.904
91.758
92.421
92.937
93.355
93.735
94.134
94.605
95.192
95.924
96.826
97.915
99.203
100.698
102.4
104.304
106.406
108.704
111.192
113.868
116.724
119.748
122.926
126.245
129.693
133.254
136.916
140.662
144.475
148.34
152.239
156.155
160.069
163.959
167.803
171.579
175.263
178.832
182.263
185.533
188.62
191.502
194.16
196.574
198.725
200.598
202.176
203.445
204.392
205.007
205.28
205.203
204.77
203.977
202.821
201.302
199.42
197.179
194.583
191.64
188.356
184.742
180.81
176.573
172.045
167.242
162.182
156.884
151.366
145.65
139.757
133.709
127.529
121.239
114.863
108.422
101.941
95.442
88.947
82.477
76.055
69.7
63.433
57.273
51.237
45.343
39.606
34.041
28.663
23.482
18.511
13.759
9.233
4.942
0.891
-2.918
-6.48
-9.795
-12.862
-15.684
-18.264
-20.605
-22.712
-24.593
-26.253
-27.703
-28.95
-30.005
-30.878
-31.581
-32.125
-32.521
-32.782
-32.921
-32.949
-32.878
-32.722
-32.492
-32.2
-31.858
-31.476
-31.066
-30.637
-30.199
-29.761
-29.332
-28.919
-28.529
-28.169
-27.843
-27.557
-27.315
-27.119
-26.973
-26.877
-26.834
-26.843
-26.903
-27.015
-27.177
-27.386
-27.639
-27.935
-28.269
-28.638
-29.038
-29.464
-29.914
-30.381
-30.862
-31.352
-31.848
-32.343
-32.835
-33.319
-33.791
-34.248
-34.686
-35.103
-35.495
-35.86
-36.197
-36.503
-36.776
-37.017
-37.223
-37.394
-37.531
-37.633
-37.701
-37.735
-37.737
-37.707
-37.649
-37.562
-37.449
-37.313
-37.154
-36.977
-36.782
-36.573
-36.352
-36.121
-35.882
-35.639
-35.393
-35.147
-34.902
-34.661
-34.425
-34.196
-33.975
-33.763
-33.563
-33.374
-33.198
-33.035
-32.887
-32.755
-32.638
-32.538
-32.455
-32.389
-32.341
-32.311
-32.299
-32.305
-32.33
-32.373
-32.434
-32.514
-32.613
-32.729
-32.865
-33.018
-33.19
-33.379
-33.586
-33.809
-34.049
-34.306
-34.579
-34.867
-35.17
-35.488
-35.82
-36.164
-36.52
-36.885
-37.259
-37.638
-38.02
-38.402
-38.782
-39.156
-39.522
-39.876
-40.213
-40.532
-40.827
-41.094
-41.33
-41.53
-41.689
-41.804
-41.869
-41.881
-41.836
-41.729
-41.558
-41.32
-41.011
-40.629
-40.17
-39.634
-39.018
-38.322
-37.544
-36.685
-35.746
-34.729
-33.638
-32.477
-31.252
-29.968
-28.631
-27.248
-25.826
-24.373
-22.894
-21.396
-19.885
-18.37
-16.858
-15.359
-13.882
-12.433
-11.022
-9.658
-8.345
-7.092
-5.901
-4.774
-3.713
-2.723
-1.808
-0.978
-0.239
0.408
0.963
1.426
1.804
2.101
2.332
2.516
2.668
2.805
2.938
3.074
3.22
3.384
3.573
3.805
4.093
4.437
4.83
5.262
5.706
6.147
6.562
6.895
7.09
7.083
6.811
6.232
5.308
3.998
2.249
0.023
-2.679
-5.783
-9.146
-12.609
-16.035
-19.266
-22.108
-24.39
-26.016
-26.991
-27.505
-27.803
-28.063
-28.557
-29.567
-31.152
-33.362
-36.154
-39.171
-42.084
-44.057
-43.435
-38.95
-29.773
-16.783
-2.846
10.487
22.835
36.839
58.155
89.75
132.321
182.569
232.348
273.626
298.322
299.57
274.245
222.967
150.587
64.994
-25.639
-116.805
-208.053
-300.438
-394.493
-485.777
-565.749
-625.951
-659.258
-664.394
-644.43
-603.278
-547.492
-482.405
-413.537
-348.522
-291.255
-243.773
-205.6
-172.29
-141.854
-114.155
-89.843
-71.486
-59.727
-53.262
-50.434
-48.81
-46.521
-42.791
-37.428
-30.621
-22.683
-13.96
-4.788
4.264
12.317
18.729
23.318
26.1
27.307
27.261
26.13
24.29
22.396
20.935
20.182
20.283
21.182
22.826
25.276
28.467
32.203
36.324
40.668
45.133
49.7
54.295
58.8
63.115
67.141
70.822
74.147
77.101
79.675
81.884
83.752
85.321
86.654
87.803
88.817
89.743
90.618
91.492
92.418
93.448
94.637
96.027
97.643
99.508
101.635
104.029
106.694
109.625
112.805
116.223
119.87
123.736
127.81
132.083
136.536
141.152
145.912
150.794
155.779
160.844
165.967
171.125
176.292
181.446
186.563
191.618
196.584
201.432
206.135
210.664
214.991
219.089
222.93
226.488
229.74
232.661
235.231
237.429
239.239
240.643
241.627
242.179
242.289
241.949
241.153
239.897
238.179
236.001
233.367
230.28
226.75
222.786
218.4
213.608
208.424
202.868
196.96
190.72
184.173
177.342
170.253
162.933
155.41
147.711
139.866
131.904
123.854
115.744
107.603
99.46
91.342
83.276
75.288
67.403
59.646
52.039
44.604
37.361
30.328
23.523
16.96
10.655
4.618
-1.139
-6.609
-11.784
-16.659
-21.232
-25.499
-29.461
-33.119
-36.476
-39.535
-42.303
-44.787
-46.993
-48.931
-50.61
-52.041
-53.235
-54.203
-54.958
-55.512
-55.878
-56.068
-56.095
-55.973
-55.713
-55.328
-54.83
-54.232
-53.543
-52.776
-51.941
-51.048
-50.105
-49.122
-48.107
-47.068
-46.012
-44.945
-43.874
-42.803
-41.738
-40.684
-39.643
-38.621
-37.619
-36.641
-35.689
-34.765
-33.87
-33.007
-32.177
-31.38
-30.619
-29.892
-29.203
-28.549
-27.934
-27.356
-26.816
-26.315
-25.852
-25.428
-25.043
-24.697
-24.39
-24.121
-23.892
-23.701
-23.549
-23.434
-23.356
-23.315
-23.309
-23.337
-23.399
-23.494
-23.619
-23.774
-23.957
-24.166
-24.4
-24.657
-24.934
-25.23
-25.542
-25.869
-26.208
-26.557
-26.914
-27.277
-27.644
-28.012
-28.382
-28.749
-29.113
-29.473
-29.826
-30.173
-30.511
-30.84
-31.159
-31.469
-31.768
-32.057
-32.338
-32.608
-32.868
-33.119
-33.359
-33.591
-33.816
-34.033
-34.242
-34.446
-34.648
-34.853
-35.063
-35.276
-35.487
-35.699
-35.919
-36.132
-36.33
-36.506
-36.647
-36.761
-36.866
-36.95
-36.993
-37.041
-37.149
-37.28
-37.435
-37.622
-37.718
-38.046
-38.923
-39.892
-40.812
-40.844
-38.985
-36.342
-33.65
-32.008
-32.926
-35.065
-37.292
-38.83
-38.396
-36.909
-35.298
-33.775
-32.908
-32.374
-31.753
-31.131
-30.458
-29.768
-29.152
-28.558
-27.942
-27.325
-26.714
-26.109
-25.518
-24.949
-24.41
-23.912
-23.472
-23.088
-22.759
-22.488
-22.27
-22.105
-21.996
-21.945
-21.96
-22.047
-22.208
-22.442
-22.747
-23.117
-23.542
-24.008
-24.487
-24.959
-25.407
-25.816
-26.183
-26.504
-26.765
-26.956
-27.059
-27.056
-26.946
-26.735
-26.433
-26.063
-25.657
-25.255
-24.931
-24.765
-24.829
-25.197
-25.921
-27.042
-28.621
-30.728
-33.406
-36.665
-40.441
-44.58
-48.914
-53.273
-57.426
-61.109
-64.083
-66.178
-67.398
-67.974
-68.213
-68.442
-69.065
-70.47
-72.872
-76.385
-80.861
-85.768
-90.466
-93.717
-93.656
-88.783
-77.901
-61.448
-41.65
-19.869
2.97
28.139
59.287
98.044
144.869
197.002
247.027
286.691
306.539
298.509
259.902
193.458
106.878
10.305
-88.398
-186.508
-284.351
-382.536
-478.181
-563.355
-629.001
-667.947
-678.69
-664.807
-631.247
-584.357
-528.668
-468.165
-408.749
-353.819
-305.468
-263.776
-225.108
-187.682
-151.377
-117.247
-88.269
-65.479
-48.364
-35.969
-26.661
-19.663
-14.718
-11.253
-8.851
-7.328
-6.424
-6.026
-5.871
-5.318
-3.988
-1.875
0.892
4.229
8.105
12.518
17.263
21.787
25.711
28.955
31.569
33.687
35.433
36.884
38.245
39.918
42.156
45.024
48.509
52.48
56.783
61.311
65.881
70.238
74.226
77.768
80.827
83.447
85.671
87.517
89.036
90.295
91.342
92.227
92.986
93.641
94.231
94.808
95.426
96.145
97.01
98.051
99.296
100.764
102.463
104.402
106.58
108.985
111.614
114.464
117.533
120.826
124.337
128.054
131.96
136.032
140.241
144.555
148.939
153.353
157.767
162.155
166.504
170.805
175.052
179.237
183.345
187.35
191.229
194.962
198.532
201.93
205.159
208.238
211.19
214.043
216.808
219.477
222.026
224.416
226.6
228.515
230.111
231.356
232.226
232.709
232.786
232.425
231.569
230.154
228.112
225.376
221.909
217.697
212.747
207.084
200.758
193.853
186.441
178.578
170.296
161.607
152.545
143.177
133.603
123.928
114.25
104.669
95.258
86.087
77.21
68.665
60.466
52.589
45.026
37.785
30.908
24.457
18.463
12.914
7.765
2.973
-1.491
-5.655
-9.54
-13.175
-16.589
-19.795
-22.784
-25.531
-28.025
-30.274
-32.316
-34.201
-35.954
-37.57
-39.023
-40.297
-41.389
-42.3
-43.03
-43.57
-43.912
-44.066
-44.057
-43.913
-43.656
-43.292
-42.818
-42.227
-41.526
-40.734
-39.879
-38.982
-38.059
-37.124
-36.195
-35.292
-34.434
-33.627
-32.871
-32.164
-31.508
-30.909
-30.376
-29.913
-29.521
-29.2
-28.945
-28.756
-28.63
-28.562
-28.546
-28.574
-28.641
-28.743
-28.877
-29.039
-29.227
-29.434
-29.656
-29.889
-30.127
-30.366
-30.601
-30.826
-31.037
-31.231
-31.404
-31.553
-31.676
-31.771
-31.835
-31.869
-31.87
-31.838
-31.774
-31.678
-31.551
-31.396
-31.214
-31.009
-30.783
-30.541
-30.285
-30.021
-29.754
-29.487
-29.227
-28.977
-28.743
-28.531
-28.345
-28.19
-28.07
-27.991
-27.957
-27.972
-28.041
-28.166
-28.352
-28.601
-28.915
-29.297
-29.747
-30.267
-30.856
-31.516
-32.245
-33.042
-33.906
-34.834
-35.825
-36.874
-37.979
-39.136
-40.34
-41.586
-42.868
-44.182
-45.522
-46.882
-48.254
-49.634
-51.014
-52.39
-53.753
-55.098
-56.419
-57.709
-58.963
-60.174
-61.338
-62.447
-63.498
-64.486
-65.406
-66.254
-67.028
-67.723
-68.338
-68.87
-69.317
-69.677
-69.95
-70.135
-70.231
-70.238
-70.158
-69.991
-69.739
-69.402
-68.984
-68.488
-67.916
-67.27
-66.556
-65.774
-64.931
-64.029
-63.075
-62.072
-61.026
-59.942
-58.828
-57.691
-56.538
-55.375
-54.209
-53.046
-51.893
-50.758
-49.645
-48.56
-47.506
-46.488
-45.512
-44.584
-43.71
-42.893
-42.137
-41.443
-40.816
-40.259
-39.77
-39.348
-38.989
-38.69
-38.448
-38.268
-38.148
-38.084
-38.07
-38.097
-38.153
-38.227
-38.301
-38.351
-38.359
-38.307
-38.184
-37.979
-37.689
-37.31
-36.844
-36.293
-35.652
-34.909
-34.062
-33.119
-32.112
-31.092
-30.095
-29.144
-28.29
-27.625
-27.249
-27.27
-27.727
-28.556
-29.726
-31.298
-33.282
-35.584
-38.045
-40.356
-42.277
-43.813
-44.924
-45.404
-45.106
-43.998
-42.171
-40.053
-38.119
-36.49
-35.329
-34.941
-35.516
-37.132
-39.638
-42.473
-44.89
-46.241
-45.815
-42.459
-34.679
-21.753
-3.597
19.008
43.598
69.116
95.9
124.035
155.49
190.809
227.537
262.82
290.477
302.465
292.424
255.224
191.211
107.123
12.023
-84.624
-177.598
-267.612
-356.722
-445.015
-528.018
-595.862
-638.96
-653.215
-640.011
-606.213
-559.805
-505.099
-444.608
-380.082
-314.113
-251.335
-195.685
-148.974
-110.384
-77.789
-49.921
-26.606
-8.847
2.572
8.235
9.615
8.666
7.075
5.857
5.5
6.215
8.194
11.486
15.916
21.144
26.632
31.83
36.351
39.899
42.332
43.648
43.957
43.481
42.549
41.527
40.757
40.578
41.196
42.709
45.142
48.419
52.407
56.946
61.843
66.862
71.811
76.536
80.9
84.836
88.306
91.283
93.771
95.797
97.386
98.572
99.404
99.917
100.154
100.166
99.996
99.702
99.345
98.982
98.674
98.467
98.394
98.483
98.752
99.214
99.877
100.743
101.806
103.063
104.512
106.15
107.975
109.98
112.155
114.49
116.973
119.592
122.337
125.194
128.148
131.187
134.296
137.459
140.661
143.884
147.108
150.311
153.472
156.569
159.577
162.475
165.24
167.847
170.277
172.508
174.521
176.297
177.817
179.067
180.03
180.693
181.044
181.073
180.77
180.129
179.145
177.814
176.135
174.107
171.734
169.02
165.971
162.594
158.899
154.898
150.605
146.034
141.201
136.124
130.822
125.315
119.625
113.773
107.782
101.675
95.475
89.206
82.891
76.554
70.217
63.902
57.632
51.427
45.309
39.296
33.408
27.662
22.074
16.66
11.433
6.408
1.594
-2.997
-7.357
-11.48
-15.358
-18.988
-22.367
-25.492
-28.365
-30.985
-33.355
-35.479
-37.36
-39.006
-40.421
-41.615
-42.595
-43.37
-43.95
-44.344
-44.564
-44.619
-44.522
-44.282
-43.911
-43.42
-42.821
-42.123
-41.338
-40.477
-39.55
-38.566
-37.536
-36.468
-35.372
-34.255
-33.126
-31.992
-30.86
-29.737
-28.629
-27.541
-26.479
-25.448
-24.451
-23.493
-22.576
-21.705
-20.88
-20.105
-19.381
-18.709
-18.092
-17.529
-17.021
-16.57
-16.174
-15.834
-15.55
-15.321
-15.146
-15.024
-14.955
-14.936
-14.967
-15.047
-15.173
-15.343
-15.557
-15.811
-16.103
-16.431
-16.793
-17.185
-17.604
-18.048
-18.514
-18.998
-19.498
-20.011
-20.532
-21.06
-21.591
-22.122
-22.649
-23.17
-23.682
-24.183
-24.669
-25.138
-25.588
-26.017
-26.424
-26.806
-27.163
-27.493
-27.795
-28.069
-28.315
-28.532
-28.72
-28.881
-29.014
-29.122
-29.206
-29.267
-29.307
-29.329
-29.335
-29.327
-29.308
-29.281
-29.249
-29.214
-29.18
-29.15
-29.127
-29.114
-29.112
-29.125
-29.155
-29.204
-29.273
-29.364
-29.477
-29.614
-29.774
-29.959
-30.167
-30.397
-30.649
-30.922
-31.212
-31.517
-31.835
-32.161
-32.492
-32.824
-33.153
-33.475
-33.785
-34.077
-34.348
-34.593
-34.805
-34.981
-35.114
-35.2
-35.235
-35.214
-35.133
-34.988
-34.777
-34.497
-34.147
-33.725
-33.23
-32.662
-32.022
-31.31
-30.529
-29.681
-28.77
-27.8
-26.776
-25.705
-24.595
-23.455
-22.293
-21.118
-19.938
-18.765
-17.608
-16.475
-15.374
-14.313
-13.302
-12.35
-11.466
-10.659
-9.937
-9.307
-8.776
-8.349
-8.029
-7.818
-7.713
-7.711
-7.812
-8.018
-8.332
-8.757
-9.286
-9.916
-10.636
-11.434
-12.297
-13.203
-14.123
-15.031
-15.908
-16.735
-17.503
-18.2
-18.811
-19.32
-19.706
-19.949
-20.042
-19.986
-19.787
-19.466
-19.053
-18.585
-18.123
-17.729
-17.463
-17.385
-17.541
-17.974
-18.724
-19.835
-21.371
-23.358
-25.769
-28.519
-31.448
-34.368
-37.11
-39.463
-41.15
-41.971
-41.826
-40.735
-38.955
-36.784
-34.495
-32.409
-30.813
-29.921
-29.864
-30.57
-31.745
-32.46
-31.206
-26.812
-18.184
-5.771
8.158
22.976
38.715
57.21
83.263
118.35
161.801
211.323
260.087
302.419
332.472
342.751
328.735
287.526
220.564
134.746
38.056
-62.498
-164.087
-267.219
-372.109
-475.286
-568.08
-640.047
-682.395
-692.583
-674.488
-634.321
-579.537
-515.552
-445.839
-375.238
-308.092
-247.613
-195.914
-151.991
-113.511
-79.463
-49.805
-25.634
-8.618
0.986
4.192
2.772
-1.121
-5.927
-10.542
-14.319
-16.883
-17.637
-16.335
-13.191
-8.513
-2.848
3.11
8.948
14.247
18.393
21.16
22.62
22.895
22.344
21.396
20.319
19.477
19.359
20.204
22.09
25.021
28.82
33.298
38.328
43.687
49.102
54.375
59.342
63.908
68.071
71.824
75.156
78.09
80.657
82.895
84.86
86.591
88.122
89.493
90.746
91.933
93.115
94.349
95.691
97.184
98.856
100.731
102.826
105.15
107.708
110.498
113.51
116.737
120.173
123.81
127.642
131.658
135.841
140.176
144.646
149.234
153.924
158.699
163.54
168.428
173.343
178.267
183.181
188.061
192.885
197.628
202.265
206.77
211.119
215.285
219.244
222.971
226.442
229.637
232.534
235.113
237.357
239.248
240.771
241.914
242.664
243.012
242.951
242.473
241.576
240.258
238.519
236.362
233.791
230.813
227.437
223.673
219.533
215.033
210.188
205.016
199.536
193.769
187.737
181.463
174.971
168.288
161.437
154.447
147.342
140.15
132.897
125.609
118.313
111.033
103.795
96.622
89.537
82.563
75.721
69.03
62.509
56.175
50.043
44.128
38.443
32.998
27.802
22.863
18.188
13.779
9.641
5.775
2.179
-1.148
-4.21
-7.011
-9.558
-11.857
-13.918
-15.75
-17.364
-18.77
-19.98
-21.008
-21.865
-22.564
-23.12
-23.546
-23.855
-24.061
-24.177
-24.215
-24.188
-24.109
-23.989
-23.84
-23.67
-23.491
-23.31
-23.137
-22.979
-22.842
-22.733
-22.656
-22.616
-22.616
-22.659
-22.748
-22.883
-23.065
-23.295
-23.572
-23.894
-24.261
-24.669
-25.117
-25.6
-26.118
-26.665
-27.238
-27.833
-28.447
-29.075
-29.714
-30.359
-31.007
-31.654
-32.296
-32.929
-33.552
-34.159
-34.749
-35.32
-35.868
-36.393
-36.891
-37.362
-37.805
-38.217
-38.599
-38.949
-39.268
-39.556
-39.811
-40.036
-40.23
-40.395
-40.531
-40.64
-40.722
-40.781
-40.816
-40.83
-40.826
-40.804
-40.768
-40.719
-40.659
-40.592
-40.518
-40.442
-40.363
-40.286
-40.211
-40.142
-40.079
-40.026
-39.984
-39.954
-39.94
-39.943
-39.964
-40.005
-40.068
-40.155
-40.267
-40.405
-40.571
-40.766
-40.99
-41.245
-41.531
-41.848
-42.197
-42.578
-42.99
-43.434
-43.908
-44.411
-44.944
-45.504
-46.091
-46.703
-47.339
-47.997
-48.676
-49.373
-50.087
-50.814
-51.554
-52.303
-53.059
-53.818
-54.578
-55.336
-56.087
-56.83
-57.558
-58.27
-58.959
-59.623
-60.257
-60.855
-61.415
-61.932
-62.402
-62.821
-63.185
-63.491
-63.736
-63.916
-64.028
-64.069
-64.037
-63.928
-63.741
-63.472
-63.122
-62.686
-62.166
-61.56
-60.868
-60.09
-59.226
-58.278
-57.246
-56.133
-54.943
-53.678
-52.342
-50.941
-49.482
-47.972
-46.419
-44.83
-43.214
-41.58
-39.937
-38.292
-36.654
-35.027
-33.42
-31.84
-30.294
-28.792
-27.34
-25.947
-24.62
-23.368
-22.196
-21.109
-20.11
-19.199
-18.377
-17.643
-17.001
-16.457
-16.013
-15.668
-15.42
-15.261
-15.18
-15.165
-15.195
-15.244
-15.293
-15.323
-15.317
-15.269
-15.168
-15.01
-14.792
-14.501
-14.125
-13.664
-13.124
-12.518
-11.884
-11.252
-10.661
-10.168
-9.817
-9.657
-9.745
-10.119
-10.818
-11.874
-13.293
-15.101
-17.366
-20.071
-23.152
-26.485
-29.821
-32.951
-35.721
-37.903
-39.253
-39.642
-39.006
-37.47
-35.443
-33.279
-31.277
-29.751
-28.865
-28.717
-29.369
-30.618
-31.981
-32.537
-30.858
-25.803
-16.529
-3.57
10.828
25.488
39.836
55.339
76.413
104.874
140.643
181.542
221.231
254.667
276.895
281.838
265.476
224.455
159.372
75.766
-19.035
-117.689
-217.414
-318.623
-421.141
-521.909
-611.991
-679.599
-715.457
-716.087
-684.497
-629.27
-560.99
-488.181
-418.396
-356.274
-302.404
-256.475
-215.709
-176.804
-139.542
-104.687
-74.147
-50.38
-33.474
-22.373
-15.831
-12.022
-9.862
-8.852
-8.325
-7.945
-7.493
-6.527
-4.7
-1.949
1.671
5.956
10.475
14.924
19.051
22.422
24.702
25.809
25.781
24.821
23.295
21.491
19.709
18.384
17.826
18.176
19.496
21.697
24.608
28.094
31.971
35.981
39.938
43.693
47.117
50.177
52.859
55.146
57.063
58.647
59.927
60.946
61.75
62.374
62.863
63.264
63.621
63.989
64.42
64.968
65.688
66.622
67.797
69.235
70.947
72.94
75.217
77.775
80.6
83.683
87.014
90.581
94.376
98.385
102.59
106.973
111.515
116.197
120.999
125.902
130.884
135.923
140.998
146.086
151.165
156.213
161.204
166.111
170.908
175.569
180.066
184.374
188.467
192.319
195.906
199.207
202.2
204.867
207.188
209.149
210.733
211.927
212.722
213.106
213.073
212.617
211.733
210.422
208.682
206.517
203.932
200.932
197.527
193.727
189.545
184.996
180.095
174.861
169.313
163.472
157.361
151.002
144.421
137.643
130.695
123.602
116.393
109.093
101.729
94.329
86.919
79.525
72.172
64.885
57.688
50.603
43.654
36.86
30.242
23.817
17.604
11.617
5.87
0.376
-4.854
-9.812
-14.49
-18.882
-22.985
-26.795
-30.313
-33.539
-36.476
-39.128
-41.5
-43.6
-45.434
-47.013
-48.346
-49.443
-50.318
-50.982
-51.447
-51.727
-51.837
-51.788
-51.595
-51.273
-50.834
-50.292
-49.661
-48.954
-48.184
-47.362
-46.5
-45.609
-44.701
-43.783
-42.866
-41.958
-41.066
-40.196
-39.356
-38.548
-37.779
-37.051
-36.367
-35.729
-35.139
-34.596
-34.102
-33.655
-33.255
-32.901
-32.59
-32.322
-32.093
-31.901
-31.743
-31.618
-31.522
-31.452
-31.406
-31.38
-31.372
-31.379
-31.398
-31.427
-31.464
-31.506
-31.551
-31.598
-31.645
-31.691
-31.734
-31.774
-31.811
-31.843
-31.87
-31.894
-31.913
-31.928
-31.94
-31.949
-31.956
-31.963
-31.968
-31.975
-31.982
-31.992
-32.004
-32.02
-32.039
-32.062
-32.09
-32.122
-32.16
-32.202
-32.249
-32.3
-32.355
-32.414
-32.476
-32.54
-32.605
-32.671
-32.736
-32.799
-32.859
-32.913
-32.962
-33.002
-33.032
-33.051
-33.056
-33.046
-33.02
-32.974
-32.909
-32.822
-32.712
-32.579
-32.42
-32.236
-32.027
-31.791
-31.53
-31.243
-30.931
-30.596
-30.237
-29.856
-29.456
-29.036
-28.601
-28.151
-27.689
-27.217
-26.74
-26.259
-25.778
-25.3
-24.828
-24.366
-23.918
-23.486
-23.075
-22.688
-22.329
-22.0
-21.705
-21.447
-21.228
-21.051
-20.916
-20.825
-20.779
-20.777
-20.819
-20.905
-21.032
-21.2
-21.405
-21.646
-21.92
-22.221
-22.548
-22.895
-23.258
-23.631
-24.01
-24.387
-24.758
-25.117
-25.456
-25.771
-26.053
-26.297
-26.498
-26.647
-26.74
-26.771
-26.734
-26.624
-26.439
-26.174
-25.828
-25.399
-24.887
-24.294
-23.621
-22.873
-22.051
-21.161
-20.207
-19.196
-18.133
-17.023
-15.873
-14.69
-13.482
-12.259
-11.031
-9.807
-8.596
-7.408
-6.254
-5.144
-4.086
-3.083
-2.141
-1.269
-0.473
0.233
0.844
1.357
1.772
2.089
2.31
2.442
2.501
2.51
2.485
2.44
2.381
2.31
2.235
2.169
2.125
2.116
2.141
2.196
2.283
2.402
2.537
2.653
2.696
2.601
2.325
1.843
1.126
0.143
-1.152
-2.807
-4.859
-7.318
-10.198
-13.532
-17.331
-21.557
-26.089
-30.697
-35.131
-39.169
-42.585
-45.136
-46.647
-47.025
-46.337
-44.884
-42.997
-40.989
-39.254
-38.138
-37.827
-38.43
-39.809
-41.492
-43.017
-43.393
-41.016
-34.637
-23.214
-7.252
10.969
30.103
49.391
70.271
96.553
129.912
170.544
215.732
258.641
291.894
307.302
297.405
258.867
193.402
107.289
9.669
-91.527
-193.543
-296.489
-400.58
-502.579
-593.068
-661.17
-698.55
-703.346
-680.853
-638.54
-583.943
-522.026
-455.324
-387.59
-322.699
-263.82
-213.312
-170.591
-133.552
-101.201
-73.26
-50.462
-34.217
-24.576
-20.495
-20.418
-22.392
-24.951
-27.123
-28.286
-28.063
-26.127
-22.463
-17.316
-11.036
-4.203
2.552
8.745
13.876
17.596
19.903
20.944
20.952
20.324
19.456
18.722
18.575
19.333
21.099
23.893
27.627
32.13
37.247
42.793
48.503
54.174
59.655
64.81
69.586
73.96
77.901
81.415
84.528
87.262
89.652
91.745
93.574
95.179
96.607
97.899
99.11
100.297
101.513
102.816
104.249
105.842
107.618
109.594
111.779
114.181
116.796
119.614
122.629
125.834
129.222
132.787
136.518
140.4
144.42
148.561
152.809
157.147
161.56
166.029
170.537
175.067
179.599
184.117
188.601
193.029
197.379
201.627
205.751
209.728
213.535
217.149
220.548
223.712
226.62
229.255
231.598
233.633
235.346
236.722
237.749
238.418
238.718
238.643
238.187
237.346
236.119
234.505
232.507
230.128
227.373
224.25
220.769
216.94
212.775
208.288
203.495
198.411
193.056
187.448
181.607
175.554
169.31
162.897
156.338
149.655
142.871
136.01
129.093
122.143
115.183
108.234
101.317
94.454
87.664
80.967
74.382
67.924
61.612
55.459
49.479
43.686
38.091
32.703
27.532
22.584
17.866
13.382
9.135
5.129
1.362
-2.164
-5.451
-8.502
-11.32
-13.91
-16.277
-18.427
-20.366
-22.104
-23.646
-25.004
-26.184
-27.198
-28.054
-28.763
-29.335
-29.781
-30.111
-30.335
-30.462
-30.504
-30.469
-30.367
-30.206
-29.996
-29.743
-29.456
-29.141
-28.804
-28.453
-28.092
-27.726
-27.36
-26.997
-26.643
-26.3
-25.97
-25.656
-25.361
-25.086
-24.832
-24.6
-24.391
-24.206
-24.043
-23.903
-23.786
-23.69
-23.615
-23.56
-23.524
-23.506
-23.504
-23.518
-23.546
-23.588
-23.643
-23.71
-23.789
-23.879
-23.98
-24.092
-24.214
-24.348
-24.492
-24.648
-24.815
-24.994
-25.186
-25.391
-25.609
-25.841
-26.088
-26.351
-26.631
-26.929
-27.245
-27.582
-27.939
-28.319
-28.723
-29.152
-29.607
-30.088
-30.599
-31.138
-31.706
-32.305
-32.935
-33.595
-34.286
-35.007
-35.758
-36.538
-37.346
-38.181
-39.042
-39.927
-40.836
-41.767
-42.717
-43.685
-44.67
-45.669
-46.679
-47.7
-48.727
-49.759
-50.794
-51.827
-52.857
-53.881
-54.895
-55.897
-56.884
-57.853
-58.802
-59.728
-60.629
-61.502
-62.347
-63.161
-63.942
-64.691
-65.405
-66.084
-66.727
-67.335
-67.906
-68.441
-68.941
-69.404
-69.831
-70.223
-70.58
-70.902
-71.19
-71.444
-71.665
-71.854
-72.011
-72.137
-72.233
-72.299
-72.336
-72.344
-72.323
-72.273
-72.194
-72.085
-71.945
-71.773
-71.567
-71.327
-71.05
-70.733
-70.376
-69.975
-69.527
-69.03
-68.48
-67.874
-67.21
-66.485
-65.696
-64.839
-63.914
-62.918
-61.849
-60.707
-59.491
-58.198
-56.829
-55.384
-53.864
-52.27
-50.604
-48.868
-47.066
-45.202
-43.283
-41.316
-39.307
-37.263
-35.192
-33.104
-31.006
-28.908
-26.816
-24.74
-22.688
-20.671
-18.699
-16.784
-14.934
-13.161
-11.474
-9.883
-8.393
-7.012
-5.74
-4.581
-3.538
-2.617
-1.826
-1.171
-0.652
-0.271
-0.026
0.091
0.089
-0.017
-0.202
-0.447
-0.738
-1.06
-1.406
-1.768
-2.134
-2.496
-2.841
-3.158
-3.438
-3.676
-3.875
-4.059
-4.256
-4.508
-4.869
-5.383
-6.099
-7.075
-8.356
-9.989
-12.017
-14.452
-17.316
-20.657
-24.478
-28.735
-33.332
-38.052
-42.666
-47.004
-50.839
-53.918
-56.084
-57.222
-57.368
-56.858
-56.057
-55.246
-54.733
-54.804
-55.616
-57.285
-59.791
-62.305
-63.387
-61.851
-56.514
-47.258
-35.875
-23.475
-10.286
4.269
23.809
51.595
88.615
134.875
186.107
235.097
274.068
293.658
286.672
250.653
188.163
106.759
15.861
-77.617
-171.755
-267.635
-366.185
-464.2
-552.857
-621.616
-661.992
-671.49
-653.552
-614.639
-562.606
-503.723
-443.07
-384.72
-330.3
-280.078
-232.812
-187.437
-144.701
-106.305
-74.808
-51.537
-35.88
-26.612
-21.842
-19.883
-19.623
-19.92
-19.785
-18.61
-16.159
-12.38
-7.343
-1.283
5.387
12.065
18.04
22.73
25.944
27.707
28.048
27.144
25.305
22.898
20.449
18.485
17.253
16.867
17.421
18.885
21.196
24.271
27.889
31.81
35.886
39.979
43.976
47.802
51.347
54.533
57.344
59.776
61.839
63.556
64.941
66.019
66.841
67.453
67.906
68.254
68.54
68.816
69.141
69.57
70.164
70.967
72.01
73.318
74.908
76.784
78.953
81.413
84.157
87.187
90.499
94.083
97.927
102.012
106.307
110.787
115.422
120.175
125.016
129.923
134.881
139.888
144.946
150.043
155.162
160.273
165.342
170.353
175.293
180.149
184.923
189.614
194.225
198.78
203.287
207.726
212.064
216.233
220.153
223.767
227.032
229.915
232.396
234.437
235.999
237.056
237.566
237.489
236.777
235.356
233.171
230.216
226.505
222.099
217.085
211.524
205.47
198.977
192.087
184.849
177.315
169.52
161.508
153.334
145.063
136.787
128.588
120.511
112.583
104.802
97.144
89.603
82.178
74.861
67.66
60.582
53.635
46.846
40.238
33.826
27.611
21.585
15.735
10.065
4.589
-0.676
-5.699
-10.46
-14.943
-19.127
-23.001
-26.56
-29.8
-32.733
-35.372
-37.727
-39.806
-41.614
-43.155
-44.44
-45.48
-46.287
-46.877
-47.265
-47.467
-47.5
-47.382
-47.127
-46.749
-46.261
-45.672
-44.992
-44.234
-43.408
-42.525
-41.596
-40.631
-39.642
-38.639
-37.631
-36.627
-35.635
-34.661
-33.711
-32.791
-31.904
-31.056
-30.249
-29.485
-28.769
-28.101
-27.483
-26.915
-26.399
-25.934
-25.519
-25.155
-24.839
-24.57
-24.348
-24.169
-24.031
-23.934
-23.874
-23.848
-23.855
-23.891
-23.954
-24.04
-24.146
-24.268
-24.404
-24.551
-24.704
-24.862
-25.022
-25.181
-25.337
-25.487
-25.63
-25.764
-25.887
-25.997
-26.092
-26.172
-26.235
-26.281
-26.309
-26.317
-26.307
-26.278
-26.231
-26.165
-26.081
-25.981
-25.866
-25.737
-25.596
-25.445
-25.286
-25.121
-24.952
-24.783
-24.616
-24.454
-24.298
-24.153
-24.019
-23.9
-23.798
-23.715
-23.654
-23.614
-23.6
-23.612
-23.651
-23.718
-23.815
-23.943
-24.101
-24.289
-24.509
-24.758
-25.037
-25.343
-25.676
-26.032
-26.41
-26.808
-27.221
-27.646
-28.081
-28.519
-28.958
-29.392
-29.817
-30.227
-30.616
-30.98
-31.314
-31.612
-31.869
-32.081
-32.243
-32.35
-32.399
-32.386
-32.306
-32.157
-31.935
-31.638
-31.263
-30.808
-30.272
-29.654
-28.955
-28.174
-27.314
-26.376
-25.362
-24.276
-23.121
-21.901
-20.622
-19.291
-17.913
-16.495
-15.048
-13.579
-12.1
-10.621
-9.153
-7.706
-6.292
-4.92
-3.603
-2.347
-1.162
-0.057
0.961
1.883
2.699
3.402
3.985
4.44
4.763
4.949
4.997
4.906
4.681
4.324
3.84
3.23
2.491
1.625
0.637
-0.467
-1.675
-2.975
-4.35
-5.78
-7.236
-8.695
-10.134
-11.533
-12.884
-14.176
-15.4
-16.549
-17.6
-18.533
-19.343
-20.028
-20.594
-21.063
-21.451
-21.786
-22.12
-22.504
-22.994
-23.642
-24.482
-25.55
-26.863
-28.44
-30.337
-32.578
-35.147
-37.983
-40.92
-43.762
-46.362
-48.522
-49.993
-50.6
-50.176
-48.698
-46.481
-43.907
-41.349
-39.229
-37.895
-37.615
-38.689
-41.255
-44.485
-46.966
-47.494
-44.707
-38.727
-31.162
-21.914
-10.445
4.986
28.479
61.026
101.796
148.927
197.014
241.797
278.435
300.029
301.037
276.23
224.68
151.793
65.487
-25.515
-116.493
-208.524
-303.429
-400.632
-494.394
-573.584
-628.06
-652.83
-649.056
-623.147
-581.931
-530.465
-472.177
-410.271
-349.512
-294.018
-246.278
-205.958
-169.629
-135.182
-102.368
-72.404
-47.95
-29.864
-17.321
-9.21
-4.08
-1.079
0.14
0.083
-0.834
-2.396
-4.421
-6.65
-8.592
-9.746
-9.873
-8.997
-7.261
-4.683
-1.229
3.005
7.613
12.06
16.032
19.458
22.418
25.005
27.274
29.316
31.385
33.832
36.853
40.484
44.64
49.155
53.875
58.656
63.323
67.684
71.622
75.091
78.093
80.68
82.904
84.809
86.446
87.872
89.133
90.269
91.321
92.33
93.346
94.426
95.614
96.944
98.442
100.126
102.007
104.092
106.38
108.863
111.538
114.403
117.457
120.699
124.123
127.72
131.479
135.386
139.428
143.59
147.858
152.215
156.645
161.133
165.663
170.216
174.776
179.319
183.825
188.268
192.625
196.872
200.985
204.938
208.709
212.275
215.613
218.703
221.523
224.055
226.28
228.181
229.742
230.949
231.789
232.25
232.323
232.001
231.277
230.147
228.609
226.663
224.311
221.556
218.405
214.866
210.948
206.664
202.027
197.053
191.758
186.161
180.283
174.143
167.766
161.174
154.391
147.442
140.352
133.146
125.85
118.49
111.09
103.677
96.274
88.906
81.596
74.368
67.243
60.243
53.387
46.696
40.186
33.873
27.774
21.9
16.263
10.875
5.742
0.871
-3.732
-8.064
-12.123
-15.91
-19.426
-22.673
-25.657
-28.382
-30.856
-33.087
-35.083
-36.856
-38.414
-39.77
-40.936
-41.922
-42.743
-43.41
-43.936
-44.335
-44.62
-44.802
-44.896
-44.912
-44.864
-44.764
-44.621
-44.446
-44.249
-44.039
-43.826
-43.616
-43.418
-43.237
-43.076
-42.943
-42.842
-42.773
-42.735
-42.728
-42.748
-42.798
-42.886
-43.005
-43.147
-43.325
-43.546
-43.815
-44.142
-44.515
-44.912
-45.341
-45.818
-46.29
-46.695
-47.066
-47.397
-47.674
-48.023
-48.095
-47.551
-46.87
-46.198
-46.42
-48.596
-51.55
-54.5
-56.278
-55.284
-52.935
-50.43
-48.594
-48.787
-50.037
-51.361
-52.541
-52.977
-53.02
-53.118
-53.188
-53.287
-53.387
-53.399
-53.381
-53.384
-53.393
-53.404
-53.424
-53.453
-53.488
-53.527
-53.563
-53.586
-53.6
-53.609
-53.613
-53.611
-53.604
-53.592
-53.575
-53.555
-53.532
-53.505
-53.473
-53.438
-53.399
-53.356
-53.31
-53.261
-53.209
-53.155
-53.1
-53.043
-52.985
-52.928
-52.872
-52.818
-52.767
-52.718
-52.674
-52.634
-52.599
-52.569
-52.544
-52.525
-52.511
-52.503
-52.499
-52.5
-52.505
-52.512
-52.521
-52.53
-52.538
-52.543
-52.542
-52.534
-52.516
-52.486
-52.442
-52.38
-52.298
-52.193
-52.063
-51.904
-51.713
-51.488
-51.224
-50.92
-50.573
-50.18
-49.739
-49.247
-48.704
-48.107
-47.456
-46.751
-45.991
-45.176
-44.307
-43.384
-42.411
-41.389
-40.32
-39.207
-38.056
-36.871
-35.66
-34.427
-33.181
-31.927
-30.675
-29.43
-28.2
-26.993
-25.813
-24.666
-23.559
-22.5
-21.494
-20.551
-19.674
-18.871
-18.146
-17.505
-16.949
-16.48
-16.094
-15.79
-15.567
-15.427
-15.376
-15.416
-15.546
-15.761
-16.056
-16.422
-16.846
-17.313
-17.795
-18.272
-18.726
-19.144
-19.52
-19.847
-20.113
-20.308
-20.414
-20.417
-20.312
-20.104
-19.801
-19.428
-19.019
-18.615
-18.278
-18.07
-18.048
-18.274
-18.793
-19.652
-20.895
-22.563
-24.722
-27.404
-30.584
-34.181
-38.022
-41.902
-45.624
-48.958
-51.611
-53.378
-54.159
-53.997
-53.197
-52.132
-51.157
-50.669
-51.01
-52.418
-54.997
-58.595
-62.763
-66.427
-67.974
-66.05
-59.354
-48.023
-33.981
-17.864
-0.004
20.69
48.185
83.659
126.518
175.233
223.801
266.154
295.966
304.417
285.686
238.284
165.143
75.296
-21.056
-118.169
-214.685
-312.487
-413.385
-513.019
-601.745
-668.893
-705.458
-709.737
-686.661
-643.099
-587.01
-523.863
-456.733
-389.757
-326.52
-269.752
-221.423
-180.647
-145.317
-114.51
-87.864
-65.866
-49.554
-38.642
-32.107
-28.802
-27.217
-26.266
-25.366
-24.359
-23.447
-22.795
-22.378
-21.903
-21.044
-19.793
-18.296
-16.519
-14.295
-11.474
-8.013
-4.239
-0.64
2.585
5.441
7.93
10.073
11.877
13.373
14.83
16.637
18.981
21.894
25.333
29.161
33.267
37.552
41.819
45.844
49.496
52.712
55.497
57.908
59.985
61.76
63.291
64.638
65.858
66.999
68.098
69.187
70.312
71.527
72.886
74.436
76.207
78.223
80.497
83.036
85.845
88.921
92.255
95.841
99.673
103.745
108.05
112.577
117.313
122.241
127.342
132.594
137.978
143.473
149.056
154.708
160.405
166.124
171.844
177.54
183.184
188.75
194.21
199.534
204.695
209.664
214.414
218.917
223.148
227.082
230.696
233.968
236.878
239.407
241.536
243.251
244.538
245.385
245.782
245.722
245.2
244.213
242.76
240.843
238.466
235.635
232.359
228.648
224.514
219.973
215.04
209.734
204.075
198.084
191.786
185.205
178.366
171.296
164.024
156.577
148.986
141.277
133.482
125.629
117.746
109.863
102.008
94.207
86.489
78.878
71.399
64.076
56.931
49.984
43.253
36.757
30.511
24.53
18.824
13.405
8.281
3.459
-1.056
-5.261
-9.155
-12.739
-16.015
-18.987
-21.661
-24.043
-26.142
-27.968
-29.531
-30.844
-31.918
-32.768
-33.407
-33.849
-34.111
-34.206
-34.15
-33.958
-33.646
-33.227
-32.717
-32.128
-31.475
-30.771
-30.026
-29.253
-28.462
-27.663
-26.864
-26.074
-25.3
-24.547
-23.821
-23.125
-22.464
-21.838
-21.251
-20.702
-20.193
-19.721
-19.285
-18.885
-18.518
-18.18
-17.87
-17.584
-17.319
-17.07
-16.836
-16.611
-16.394
-16.18
-15.968
-15.754
-15.535
-15.311
-15.079
-14.837
-14.585
-14.322
-14.047
-13.761
-13.464
-13.156
-12.84
-12.516
-12.187
-11.854
-11.519
-11.186
-10.856
-10.533
-10.219
-9.918
-9.631
-9.362
-9.113
-8.888
-8.687
-8.514
-8.369
-8.255
-8.173
-8.122
-8.105
-8.121
-8.17
-8.252
-8.365
-8.509
-8.683
-8.884
-9.112
-9.363
-9.635
-9.927
-10.235
-10.557
-10.89
-11.231
-11.579
-11.929
-12.28
-12.628
-12.972
-13.308
-13.636
-13.952
-14.256
-14.545
-14.819
-15.077
-15.318
-15.543
-15.751
-15.942
-16.116
-16.274
-16.418
-16.547
-16.663
-16.767
-16.86
-16.944
-17.021
-17.09
-17.155
-17.214
-17.271
-17.324
-17.374
-17.422
-17.466
-17.508
-17.545
-17.578
-17.605
-17.626
-17.639
-17.641
-17.631
-17.606
-17.563
-17.5
-17.412
-17.297
-17.15
-16.97
-16.752
-16.495
-16.194
-15.847
-15.451
-15.004
-14.505
-13.95
-13.339
-12.672
-11.947
-11.165
-10.328
-9.44
-8.503
-7.523
-6.503
-5.449
-4.368
-3.264
-2.143
-1.01
0.13
1.272
2.408
3.534
4.64
5.72
6.767
7.772
8.731
9.638
10.488
11.279
12.012
12.686
13.3
13.85
14.326
14.723
15.039
15.275
15.433
15.52
15.54
15.503
15.429
15.333
15.232
15.137
15.05
14.97
14.898
14.844
14.828
14.863
14.944
15.06
15.193
15.33
15.46
15.56
15.575
15.439
15.089
14.47
13.542
12.283
10.66
8.601
6.066
3.069
-0.303
-3.87
-7.435
-10.855
-13.959
-16.518
-18.349
-19.349
-19.574
-19.339
-19.032
-19.015
-19.669
-21.318
-24.177
-28.345
-33.667
-39.701
-45.401
-49.204
-49.799
-45.885
-37.493
-26.257
-12.59
3.287
22.425
48.32
81.715
121.919
167.231
212.165
251.987
281.145
291.996
279.101
238.822
172.36
86.599
-9.928
-109.705
-209.891
-310.929
-413.021
-512.872
-601.409
-668.137
-705.407
-711.464
-691.601
-653.228
-602.229
-542.603
-476.065
-405.385
-336.125
-272.924
-219.041
-175.133
-138.185
-106.11
-78.177
-54.426
-36.421
-24.576
-17.999
-15.336
-14.637
-14.533
-14.394
-13.922
-13.151
-11.939
-9.902
-6.967
-3.319
0.774
4.973
9.086
13.089
16.768
19.684
21.645
22.695
22.974
22.763
22.283
21.632
21.068
21.005
21.684
23.199
25.539
28.539
32.061
36.014
40.211
44.407
48.408
52.056
55.27
58.058
60.422
62.366
63.919
65.118
66.012
66.658
67.102
67.379
67.532
67.602
67.64
67.704
67.848
68.129
68.587
69.249
70.137
71.265
72.64
74.269
76.148
78.267
80.62
83.2
85.999
89.011
92.226
95.628
99.202
102.93
106.795
110.781
114.87
119.043
123.281
127.563
131.87
136.181
140.476
144.729
148.917
153.013
156.994
160.833
164.507
167.99
171.257
174.288
177.059
179.55
181.744
183.621
185.165
186.363
187.2
187.665
187.75
187.445
186.746
185.649
184.152
182.256
179.963
177.277
174.207
170.761
166.948
162.783
158.28
153.455
148.326
142.912
137.234
131.315
125.178
118.846
112.345
105.701
98.938
92.084
85.165
78.207
71.235
64.275
57.353
50.492
43.716
37.048
30.51
24.122
17.904
11.873
6.046
0.438
-4.937
-10.068
-14.946
-19.561
-23.907
-27.98
-31.776
-35.295
-38.535
-41.5
-44.193
-46.618
-48.781
-50.691
-52.354
-53.782
-54.984
-55.972
-56.757
-57.354
-57.774
-58.031
-58.139
-58.113
-57.966
-57.711
-57.364
-56.937
-56.444
-55.898
-55.309
-54.691
-54.054
-53.408
-52.762
-52.124
-51.503
-50.905
-50.337
-49.802
-49.305
-48.851
-48.441
-48.077
-47.762
-47.495
-47.276
-47.106
-46.983
-46.905
-46.871
-46.878
-46.925
-47.006
-47.12
-47.264
-47.432
-47.622
-47.829
-48.051
-48.282
-48.52
-48.76
-49.0
-49.235
-49.464
-49.682
-49.889
-50.081
-50.257
-50.415
-50.553
-50.672
-50.769
-50.843
-50.895
-50.924
-50.93
-50.911
-50.87
-50.805
-50.717
-50.606
-50.473
-50.319
-50.144
-49.95
-49.736
-49.505
-49.258
-48.996
-48.719
-48.431
-48.131
-47.822
-47.504
-47.179
-46.847
-46.51
-46.167
-45.819
-45.466
-45.108
-44.745
-44.377
-44.003
-43.623
-43.237
-42.844
-42.443
-42.035
-41.617
-41.191
-40.753
-40.304
-39.843
-39.367
-38.876
-38.37
-37.846
-37.303
-36.74
-36.154
-35.545
-34.91
-34.248
-33.558
-32.839
-32.091
-31.313
-30.508
-29.675
-28.818
-27.94
-27.044
-26.133
-25.21
-24.28
-23.347
-22.417
-21.495
-20.585
-19.692
-18.822
-17.979
-17.172
-16.406
-15.685
-15.014
-14.398
-13.844
-13.359
-12.948
-12.609
-12.343
-12.147
-12.024
-11.982
-12.021
-12.136
-12.322
-12.574
-12.888
-13.257
-13.669
-14.1
-14.531
-14.939
-15.315
-15.663
-15.987
-16.296
-16.59
-16.855
-17.084
-17.274
-17.425
-17.55
-17.661
-17.754
-17.877
-18.119
-18.591
-19.455
-20.795
-22.588
-24.812
-27.431
-30.369
-33.572
-36.852
-39.884
-42.521
-44.771
-46.693
-48.422
-50.01
-51.389
-52.656
-54.04
-55.601
-57.282
-58.907
-60.229
-61.21
-61.978
-62.606
-63.099
-63.525
-63.981
-64.625
-65.631
-66.389
-65.611
-62.293
-55.384
-45.251
-33.814
-21.24
-7.028
10.799
36.562
71.2
113.58
161.18
207.807
248.808
279.284
292.592
284.071
249.339
188.067
106.053
11.041
-88.269
-186.979
-285.956
-386.486
-487.621
-583.227
-661.1
-710.08
-725.56
-710.215
-673.492
-626.123
-573.238
-514.934
-449.936
-377.423
-301.757
-231.753
-173.705
-130.962
-102.312
-81.843
-65.482
-51.327
-39.187
-31.086
-27.475
-27.233
-28.969
-30.809
-31.948
-32.569
-32.693
-32.309
-31.355
-29.638
-27.261
-24.535
-21.51
-18.064
-14.225
-10.154
-6.124
-2.537
0.467
3.007
5.121
6.833
8.248
9.51
10.886
12.748
15.259
18.398
22.121
26.302
30.801
35.495
40.172
44.599
48.65
52.273
55.464
58.274
60.738
62.881
64.762
66.445
67.983
69.426
70.809
72.165
73.544
75.0
76.593
78.373
80.371
82.609
85.105
87.866
90.898
94.2
97.762
101.577
105.64
109.943
114.479
119.239
124.207
129.365
134.693
140.17
145.776
151.489
157.286
163.147
169.048
174.966
180.879
186.761
192.585
198.323
203.946
209.425
214.731
219.836
224.71
229.327
233.661
237.686
241.38
244.72
247.685
250.258
252.42
254.158
255.457
256.307
256.698
256.625
256.082
255.068
253.583
251.63
249.212
246.338
243.016
239.258
235.077
230.489
225.511
220.163
214.465
208.439
202.11
195.503
188.644
181.56
174.28
166.832
159.245
151.548
143.769
135.938
128.082
120.229
112.408
104.642
96.959
89.382
81.935
74.64
67.517
60.585
53.862
47.365
41.107
35.101
29.359
23.889
18.7
13.796
9.182
4.861
0.832
-2.904
-6.352
-9.514
-12.396
-15.005
-17.349
-19.437
-21.279
-22.887
-24.271
-25.443
-26.417
-27.206
-27.821
-28.277
-28.587
-28.765
-28.822
-28.773
-28.629
-28.403
-28.106
-27.749
-27.344
-26.899
-26.425
-25.93
-25.421
-24.906
-24.391
-23.882
-23.384
-22.901
-22.436
-21.992
-21.571
-21.175
-20.804
-20.459
-20.14
-19.846
-19.578
-19.333
-19.111
-18.91
-18.729
-18.566
-18.421
-18.291
-18.176
-18.074
-17.983
-17.903
-17.833
-17.773
-17.721
-17.677
-17.641
-17.614
-17.594
-17.583
-17.581
-17.589
-17.608
-17.638
-17.68
-17.737
-17.807
-17.893
-17.995
-18.113
-18.248
-18.399
-18.568
-18.753
-18.953
-19.169
-19.399
-19.641
-19.895
-20.157
-20.425
-20.697
-20.97
-21.24
-21.505
-21.76
-22.001
-22.226
-22.43
-22.608
-22.756
-22.87
-22.946
-22.978
-22.963
-22.898
-22.777
-22.598
-22.359
-22.058
-21.693
-21.265
-20.773
-20.219
-19.606
-18.937
-18.214
-17.44
-16.622
-15.762
-14.868
-13.942
-12.992
-12.023
-11.043
-10.062
-9.088
-8.128
-7.191
-6.286
-5.423
-4.611
-3.859
-3.172
-2.556
-2.016
-1.564
-1.212
-0.965
-0.821
-0.776
-0.828
-0.97
-1.196
-1.491
-1.83
-2.192
-2.56
-2.926
-3.291
-3.649
-3.985
-4.282
-4.521
-4.7
-4.837
-4.944
-5.027
-5.102
-5.194
-5.352
-5.655
-6.161
-6.905
-7.911
-9.189
-10.757
-12.657
-14.925
-17.586
-20.653
-24.107
-27.925
-32.118
-36.682
-41.551
-46.589
-51.558
-56.172
-60.193
-63.429
-65.661
-66.653
-66.23
-64.33
-61.157
-57.174
-52.931
-48.898
-45.438
-42.972
-41.866
-42.323
-44.241
-46.579
-47.567
-45.743
-39.883
-30.165
-18.324
-5.051
9.36
26.57
50.576
83.256
124.947
172.789
219.679
258.061
279.882
278.159
249.297
193.832
117.015
26.836
-68.557
-164.879
-262.865
-364.027
-467.658
-567.785
-652.463
-710.694
-737.471
-734.143
-708.872
-670.241
-621.649
-564.688
-499.325
-427.245
-355.682
-290.774
-236.314
-193.241
-157.436
-125.835
-97.644
-73.064
-54.285
-42.305
-36.307
-34.869
-35.968
-38.116
-40.499
-42.623
-44.183
-44.654
-43.551
-40.785
-36.522
-31.13
-25.099
-18.772
-12.457
-6.683
-1.98
1.423
3.534
4.553
4.811
4.569
4.058
3.675
3.86
4.863
6.782
9.565
13.044
17.081
21.546
26.227
30.878
35.313
39.391
43.057
46.322
49.193
51.684
53.828
55.667
57.252
58.638
59.868
60.977
62.005
62.994
63.995
65.061
66.245
67.599
69.162
70.958
73.01
75.327
77.917
80.782
83.919
87.315
90.959
94.842
98.952
103.279
107.808
112.52
117.393
122.407
127.539
132.769
138.073
143.428
148.809
154.191
159.549
164.859
170.094
175.227
180.23
185.073
189.727
194.167
198.363
202.288
205.917
209.226
212.191
214.793
217.011
218.829
220.23
221.202
221.732
221.811
221.433
220.592
219.286
217.515
215.28
212.588
209.443
205.856
201.838
197.402
192.564
187.342
181.755
175.824
169.573
163.025
156.207
149.145
141.867
134.403
126.782
119.034
111.19
103.279
95.332
87.377
79.446
71.565
63.763
56.067
48.503
41.094
33.865
26.836
20.029
13.462
7.151
1.113
-4.641
-10.099
-15.251
-20.089
-24.609
-28.807
-32.68
-36.23
-39.458
-42.367
-44.964
-47.256
-49.25
-50.958
-52.389
-53.557
-54.476
-55.158
-55.619
-55.875
-55.941
-55.833
-55.568
-55.162
-54.631
-53.992
-53.259
-52.449
-51.575
-50.652
-49.692
-48.709
-47.714
-46.718
-45.73
-44.76
-43.814
-42.901
-42.025
-41.192
-40.405
-39.667
-38.98
-38.344
-37.76
-37.228
-36.745
-36.311
-35.921
-35.575
-35.267
-34.995
-34.754
-34.541
-34.351
-34.181
-34.025
-33.881
-33.745
-33.613
-33.483
-33.35
-33.214
-33.073
-32.923
-32.765
-32.598
-32.421
-32.235
-32.039
-31.835
-31.623
-31.406
-31.185
-30.962
-30.74
-30.521
-30.306
-30.099
-29.903
-29.718
-29.547
-29.392
-29.254
-29.134
-29.034
-28.954
-28.895
-28.857
-28.839
-28.841
-28.861
-28.897
-28.947
-29.008
-29.078
-29.152
-29.227
-29.299
-29.364
-29.416
-29.453
-29.468
-29.459
-29.419
-29.344
-29.229
-29.071
-28.867
-28.612
-28.305
-27.943
-27.525
-27.053
-26.527
-25.948
-25.319
-24.641
-23.918
-23.154
-22.351
-21.514
-20.645
-19.749
-18.832
-17.902
-16.965
-16.028
-15.099
-14.185
-13.295
-12.438
-11.617
-10.836
-10.099
-9.409
-8.775
-8.205
-7.706
-7.279
-6.926
-6.647
-6.44
-6.297
-6.205
-6.141
-6.086
-6.025
-5.952
-5.862
-5.747
-5.597
-5.402
-5.151
-4.849
-4.5
-4.103
-3.662
-3.198
-2.747
-2.369
-2.136
-2.101
-2.305
-2.794
-3.62
-4.838
-6.506
-8.665
-11.331
-14.52
-18.273
-22.601
-27.464
-32.739
-38.186
-43.542
-48.567
-52.994
-56.533
-58.967
-60.145
-60.101
-59.163
-57.685
-56.029
-54.667
-53.978
-54.19
-55.488
-57.75
-60.381
-62.718
-63.597
-61.346
-54.657
-42.672
-25.772
-5.37
17.232
41.55
68.943
100.902
137.986
179.366
220.805
256.848
280.948
285.318
264.45
215.562
140.935
47.774
-55.372
-161.209
-267.389
-373.915
-479.767
-580.672
-666.909
-728.032
-757.069
-752.674
-719.246
-664.28
-596.031
-521.14
-446.057
-376.356
-314.52
-261.725
-216.215
-174.464
-135.509
-99.698
-68.716
-45.224
-29.668
-20.977
-17.522
-17.012
-17.948
-19.488
-20.802
-21.433
-20.996
-19.135
-15.898
-11.57
-6.485
-1.122
3.969
8.374
11.687
13.613
14.195
13.64
12.201
10.26
8.206
6.381
5.204
4.98
5.793
7.64
10.424
13.962
18.108
22.691
27.452
32.19
36.757
41.015
44.918
48.453
51.587
54.328
56.713
58.764
60.53
62.068
63.414
64.617
65.728
66.79
67.862
69.003
70.269
71.717
73.389
75.313
77.513
80.002
82.785
85.864
89.232
92.871
96.771
100.919
105.301
109.906
114.716
119.712
124.872
130.176
135.6
141.125
146.726
152.38
158.063
163.75
169.419
175.045
180.603
186.064
191.401
196.586
201.589
206.384
210.943
215.239
219.246
222.94
226.298
229.3
231.927
234.161
235.986
237.387
238.354
238.876
238.945
238.557
237.706
236.392
234.616
232.381
229.693
226.558
222.987
218.992
214.586
209.785
204.607
199.073
193.202
187.019
180.546
173.811
166.838
159.656
152.293
144.778
137.138
129.404
121.603
113.765
105.918
98.089
90.304
82.591
74.974
67.478
60.125
52.936
45.933
39.134
32.557
26.217
20.129
14.304
8.754
3.488
-1.488
-6.166
-10.545
-14.621
-18.394
-21.866
-25.039
-27.918
-30.508
-32.816
-34.852
-36.623
-38.142
-39.417
-40.463
-41.29
-41.913
-42.345
-42.599
-42.688
-42.628
-42.432
-42.112
-41.683
-41.158
-40.549
-39.869
-39.128
-38.339
-37.512
-36.656
-35.781
-34.896
-34.009
-33.126
-32.254
-31.4
-30.567
-29.761
-28.986
-28.244
-27.538
-26.87
-26.242
-25.654
-25.106
-24.6
-24.135
-23.71
-23.324
-22.977
-22.669
-22.397
-22.161
-21.96
-21.792
-21.657
-21.554
-21.481
-21.438
-21.425
-21.441
-21.484
-21.556
-21.655
-21.781
-21.934
-22.112
-22.317
-22.547
-22.802
-23.082
-23.385
-23.71
-24.058
-24.427
-24.817
-25.225
-25.65
-26.091
-26.546
-27.012
-27.487
-27.967
-28.45
-28.933
-29.413
-29.885
-30.346
-30.792
-31.219
-31.622
-31.999
-32.343
-32.651
-32.917
-33.138
-33.309
-33.426
-33.486
-33.484
-33.417
-33.283
-33.08
-32.806
-32.458
-32.036
-31.539
-30.968
-30.323
-29.607
-28.82
-27.967
-27.051
-26.079
-25.056
-23.989
-22.884
-21.748
-20.588
-19.414
-18.231
-17.047
-15.868
-14.702
-13.559
-12.448
-11.377
-10.356
-9.393
-8.497
-7.675
-6.936
-6.284
-5.719
-5.244
-4.86
-4.574
-4.39
-4.312
-4.336
-4.46
-4.679
-4.986
-5.371
-5.815
-6.292
-6.781
-7.264
-7.732
-8.178
-8.592
-8.96
-9.27
-9.513
-9.687
-9.795
-9.835
-9.804
-9.722
-9.618
-9.544
-9.561
-9.716
-10.043
-10.584
-11.381
-12.483
-13.937
-15.779
-18.019
-20.665
-23.748
-27.269
-31.196
-35.433
-39.775
-43.996
-47.898
-51.268
-53.873
-55.54
-56.116
-55.58
-54.203
-52.298
-50.172
-48.175
-46.618
-45.768
-45.911
-47.196
-48.977
-49.983
-49.016
-44.817
-37.321
-28.255
-18.64
-8.639
2.788
20.041
46.844
84.22
131.644
183.494
231.907
270.12
290.38
287.584
259.959
207.443
134.319
46.737
-50.149
-152.404
-258.607
-367.384
-473.799
-569.742
-645.489
-692.815
-709.8
-699.503
-667.255
-620.321
-563.49
-500.774
-437.811
-377.68
-322.921
-274.4
-229.293
-186.648
-146.906
-111.224
-82.466
-61.582
-47.656
-39.4
-34.986
-33.04
-32.74
-33.304
-34.147
-34.906
-35.406
-35.455
-34.651
-32.836
-30.122
-26.69
-22.872
-18.896
-14.777
-10.741
-7.259
-4.55
-2.643
-1.467
-0.76
-0.327
-0.08
0.24
1.024
2.496
4.738
7.725
11.297
15.328
19.71
24.258
28.73
32.93
36.747
40.137
43.123
45.726
47.96
49.855
51.465
52.848
54.056
55.133
56.112
57.029
57.935
58.887
59.947
61.173
62.609
64.282
66.217
68.426
70.919
73.701
76.776
80.141
83.795
87.728
91.935
96.403
101.112
106.032
111.121
116.334
121.638
127.004
132.413
137.856
143.32
148.794
154.271
159.735
165.167
170.555
175.875
181.11
186.255
191.317
196.321
201.304
206.274
211.223
216.134
220.958
225.646
230.137
234.349
238.217
241.689
244.71
247.249
249.274
250.732
251.568
251.707
251.057
249.568
247.208
243.962
239.855
234.93
229.247
222.911
216.013
208.624
200.816
192.637
184.133
175.372
166.422
157.362
148.292
139.287
130.41
121.722
113.251
105.012
97.0
89.18
81.518
74.006
66.637
59.421
52.375
45.502
38.809
32.306
25.985
19.846
13.889
8.109
2.511
-2.89
-8.072
-13.004
-17.653
-22.003
-26.041
-29.764
-33.173
-36.27
-39.064
-41.569
-43.795
-45.752
-47.451
-48.898
-50.104
-51.082
-51.848
-52.421
-52.819
-53.06
-53.16
-53.134
-52.996
-52.76
-52.436
-52.033
-51.56
-51.026
-50.442
-49.816
-49.159
-48.479
-47.785
-47.085
-46.386
-45.695
-45.016
-44.354
-43.712
-43.094
-42.502
-41.939
-41.405
-40.903
-40.434
-39.997
-39.594
-39.226
-38.892
-38.592
-38.326
-38.093
-37.894
-37.728
-37.593
-37.491
-37.419
-37.379
-37.369
-37.389
-37.439
-37.517
-37.624
-37.758
-37.918
-38.103
-38.311
-38.541
-38.791
-39.059
-39.343
-39.64
-39.949
-40.266
-40.59
-40.917
-41.244
-41.567
-41.883
-42.187
-42.477
-42.747
-42.992
-43.209
-43.392
-43.537
-43.64
-43.695
-43.7
-43.649
-43.539
-43.367
-43.13
-42.825
-42.45
-42.003
-41.483
-40.89
-40.224
-39.487
-38.681
-37.81
-36.879
-35.893
-34.859
-33.782
-32.669
-31.529
-30.37
-29.198
-28.02
-26.843
-25.678
-24.532
-23.418
-22.346
-21.324
-20.362
-19.471
-18.659
-17.934
-17.3
-16.759
-16.313
-15.968
-15.727
-15.602
-15.596
-15.71
-15.942
-16.289
-16.741
-17.289
-17.917
-18.598
-19.313
-20.048
-20.79
-21.536
-22.274
-22.994
-23.686
-24.334
-24.928
-25.461
-25.929
-26.34
-26.714
-27.079
-27.47
-27.933
-28.509
-29.243
-30.183
-31.371
-32.846
-34.637
-36.77
-39.292
-42.231
-45.575
-49.251
-53.1
-56.927
-60.571
-63.851
-66.522
-68.413
-69.421
-69.555
-69.071
-68.279
-67.4
-66.723
-66.587
-67.134
-68.394
-70.262
-72.283
-73.909
-74.741
-73.72
-69.237
-60.181
-45.626
-26.52
-5.927
14.041
32.089
49.974
72.608
103.295
143.697
190.76
235.91
269.653
281.581
264.579
217.97
145.641
56.084
-41.87
-142.821
-244.557
-346.87
-447.468
-539.979
-615.519
-665.84
-687.669
-683.5
-659.115
-620.373
-570.681
-511.892
-446.383
-378.972
-316.347
-263.387
-221.773
-189.262
-161.229
-135.033
-110.249
-88.07
-70.497
-57.804
-49.006
-42.806
-37.819
-33.352
-29.169
-25.236
-21.748
-18.774
-16.236
-14.028
-11.92
-9.789
-7.692
-5.611
-3.475
-1.316
0.745
2.592
4.053
5.067
5.739
6.162
6.429
6.726
7.298
8.328
9.974
12.291
15.197
18.605
22.403
26.416
30.444
34.316
37.881
41.059
43.845
46.237
48.257
49.946
51.349
52.52
53.515
54.383
55.163
55.899
56.635
57.422
58.318
59.377
60.653
62.187
64.005
66.129
68.57
71.334
74.423
77.833
81.551
85.569
89.876
94.461
99.312
104.415
109.749
115.29
121.017
126.905
132.929
139.066
145.286
151.564
157.87
164.176
170.455
176.675
182.804
188.809
194.658
200.316
205.753
210.935
215.832
220.413
224.651
228.518
231.99
235.045
237.661
239.819
241.504
242.7
243.397
243.584
243.255
242.406
241.035
239.142
236.732
233.81
230.386
226.47
222.076
217.221
211.923
206.202
200.082
193.587
186.743
179.579
172.123
164.406
156.459
148.316
140.008
131.569
123.033
114.431
105.798
97.165
88.563
80.024
71.578
63.253
55.077
47.076
39.276
31.699
24.367
17.3
10.516
4.032
-2.139
-7.985
-13.494
-18.66
-23.475
-27.936
-32.041
-35.79
-39.184
-42.227
-44.925
-47.284
-49.313
-51.023
-52.423
-53.528
-54.35
-54.903
-55.204
-55.267
-55.11
-54.748
-54.199
-53.48
-52.609
-51.603
-50.477
-49.251
-47.939
-46.558
-45.124
-43.651
-42.153
-40.645
-39.138
-37.646
-36.178
-34.746
-33.359
-32.024
-30.749
-29.541
-28.406
-27.347
-26.37
-25.477
-24.67
-23.951
-23.32
-22.778
-22.324
-21.956
-21.674
-21.474
-21.355
-21.314
-21.346
-21.45
-21.62
-21.854
-22.147
-22.495
-22.893
-23.338
-23.824
-24.348
-24.905
-25.492
-26.103
-26.736
-27.386
-28.051
-28.725
-29.406
-30.091
-30.776
-31.459
-32.135
-32.803
-33.461
-34.105
-34.734
-35.345
-35.937
-36.508
-37.056
-37.579
-38.074
-38.539
-38.974
-39.375
-39.74
-40.069
-40.36
-40.61
-40.818
-40.984
-41.105
-41.18
-41.206
-41.183
-41.109
-40.983
-40.803
-40.568
-40.278
-39.932
-39.531
-39.075
-38.563
-37.997
-37.377
-36.704
-35.978
-35.202
-34.378
-33.507
-32.593
-31.639
-30.651
-29.635
-28.596
-27.541
-26.475
-25.406
-24.339
-23.28
-22.235
-21.207
-20.202
-19.224
-18.281
-17.379
-16.523
-15.718
-14.971
-14.285
-13.663
-13.107
-12.617
-12.19
-11.825
-11.522
-11.282
-11.114
-11.02
-11.002
-11.056
-11.178
-11.361
-11.596
-11.866
-12.147
-12.419
-12.664
-12.866
-13.019
-13.116
-13.149
-13.11
-12.98
-12.741
-12.393
-11.945
-11.409
-10.81
-10.168
-9.515
-8.919
-8.457
-8.205
-8.238
-8.612
-9.363
-10.543
-12.216
-14.414
-17.132
-20.291
-23.726
-27.271
-30.781
-34.079
-36.946
-39.204
-40.736
-41.555
-41.891
-42.012
-42.153
-42.584
-43.55
-45.201
-47.589
-50.601
-53.895
-56.558
-57.175
-54.537
-47.451
-36.294
-23.257
-9.209
5.484
22.476
46.644
79.952
122.33
171.584
220.441
262.703
292.352
302.61
290.291
253.342
193.106
115.244
26.011
-68.743
-166.732
-268.149
-372.435
-475.691
-568.377
-639.462
-680.802
-690.232
-672.981
-636.775
-587.882
-530.582
-466.635
-398.687
-332.251
-271.945
-221.073
-180.328
-146.545
-117.489
-92.349
-71.075
-55.245
-45.304
-40.256
-38.671
-38.606
-38.724
-38.402
-37.388
-35.699
-33.156
-29.571
-25.052
-19.812
-14.174
-8.56
-3.206
1.679
5.733
8.705
10.582
11.462
11.572
11.235
10.686
10.185
10.128
10.797
12.312
14.709
17.897
21.723
26.08
30.815
35.681
40.491
45.098
49.377
53.297
56.848
60.006
62.783
65.215
67.33
69.173
70.794
72.224
73.507
74.687
75.808
76.924
78.089
79.355
80.774
82.386
84.218
86.294
88.626
91.223
94.088
97.217
100.599
104.227
108.091
112.18
116.485
120.992
125.683
130.54
135.544
140.676
145.914
151.239
156.627
162.056
167.502
172.943
178.354
183.711
188.986
194.153
199.184
204.049
208.724
213.179
217.389
221.328
224.973
228.299
231.288
233.919
236.176
238.042
239.503
240.549
241.169
241.357
241.106
240.414
239.279
237.704
235.692
233.248
230.382
227.102
223.421
219.353
214.915
210.124
205.0
199.563
193.837
187.845
181.611
175.162
168.523
161.723
154.788
147.747
140.626
133.453
126.255
119.059
111.89
104.772
97.731
90.789
83.968
77.288
70.769
64.429
58.284
52.349
46.637
41.16
35.926
30.946
26.224
21.765
17.574
13.65
9.995
6.605
3.48
0.612
-2.002
-4.37
-6.5
-8.402
-10.086
-11.561
-12.84
-13.935
-14.858
-15.622
-16.239
-16.723
-17.085
-17.34
-17.5
-17.576
-17.581
-17.526
-17.422
-17.279
-17.107
-16.915
-16.71
-16.5
-16.291
-16.09
-15.9
-15.727
-15.573
-15.442
-15.334
-15.252
-15.197
-15.167
-15.162
-15.182
-15.225
-15.289
-15.373
-15.472
-15.586
-15.711
-15.845
-15.985
-16.128
-16.272
-16.413
-16.549
-16.679
-16.799
-16.909
-17.007
-17.091
-17.161
-17.216
-17.257
-17.284
-17.298
-17.299
-17.289
-17.269
-17.242
-17.21
-17.175
-17.141
-17.109
-17.082
-17.065
-17.059
-17.068
-17.094
-17.141
-17.211
-17.307
-17.43
-17.583
-17.767
-17.984
-18.235
-18.521
-18.843
-19.199
-19.59
-20.014
-20.471
-20.957
-21.471
-22.009
-22.57
-23.148
-23.741
-24.344
-24.953
-25.562
-26.168
-26.764
-27.346
-27.908
-28.444
-28.948
-29.416
-29.842
-30.22
-30.547
-30.816
-31.025
-31.169
-31.245
-31.249
-31.18
-31.034
-30.811
-30.511
-30.134
-29.682
-29.155
-28.559
-27.897
-27.174
-26.398
-25.572
-24.705
-23.803
-22.874
-21.926
-20.965
-19.998
-19.034
-18.081
-17.149
-16.248
-15.386
-14.572
-13.814
-13.122
-12.502
-11.959
-11.494
-11.111
-10.812
-10.602
-10.489
-10.475
-10.56
-10.741
-11.016
-11.378
-11.814
-12.308
-12.836
-13.376
-13.914
-14.439
-14.948
-15.431
-15.88
-16.282
-16.625
-16.905
-17.12
-17.267
-17.349
-17.381
-17.395
-17.443
-17.586
-17.875
-18.347
-19.035
-19.974
-21.204
-22.763
-24.69
-27.002
-29.719
-32.884
-36.504
-40.535
-44.866
-49.275
-53.491
-57.27
-60.349
-62.447
-63.405
-63.142
-61.726
-59.534
-57.015
-54.623
-52.867
-52.115
-52.568
-54.386
-57.455
-61.167
-64.337
-65.257
-62.394
-54.861
-43.14
-28.484
-11.089
9.63
35.304
67.721
106.099
147.972
190.483
229.861
262.07
282.211
282.766
256.532
201.106
119.657
21.209
-82.838
-185.89
-287.271
-388.917
-491.774
-590.887
-674.416
-730.513
-753.177
-743.164
-708.996
-660.661
-602.785
-538.001
-466.843
-390.673
-316.327
-249.656
-194.274
-151.213
-116.571
-87.407
-62.804
-42.736
-29.027
-22.138
-20.796
-23.271
-27.358
-31.605
-35.38
-38.308
-40.192
-40.675
-39.483
-36.768
-32.866
-28.167
-23.082
-17.826
-12.619
-7.918
-4.117
-1.332
0.502
1.605
2.246
2.603
2.864
3.376
4.494
6.402
9.12
12.54
16.493
20.829
25.403
30.002
34.369
38.34
41.835
44.838
47.386
49.51
51.225
52.572
53.616
54.416
55.025
55.489
55.838
56.119
56.392
56.719
57.166
57.783
58.602
59.648
60.943
62.497
64.321
66.416
68.776
71.395
74.27
77.397
80.77
84.381
88.216
92.259
96.49
100.892
105.447
110.136
114.937
119.832
124.798
129.812
134.855
139.9
144.921
149.891
154.78
159.56
164.201
168.675
172.953
177.007
180.811
184.338
187.565
190.468
193.027
195.221
197.033
198.447
199.448
200.024
200.166
199.867
199.123
197.929
196.286
194.197
191.666
188.699
185.307
181.5
177.292
172.699
167.737
162.428
156.792
150.852
144.631
138.157
131.455
124.554
117.481
110.266
102.937
95.525
88.057
80.563
73.071
65.609
58.204
50.883
43.669
36.588
29.661
22.909
16.353
10.01
3.896
-1.974
-7.587
-12.932
-18.001
-22.785
-27.28
-31.481
-35.386
-38.996
-42.311
-45.335
-48.072
-50.529
-52.713
-54.633
-56.298
-57.719
-58.909
-59.879
-60.644
-61.217
-61.611
-61.842
-61.924
-61.871
-61.697
-61.417
-61.045
-60.592
-60.073
-59.5
-58.883
-58.235
-57.565
-56.882
-56.196
-55.514
-54.843
-54.191
-53.561
-52.959
-52.388
-51.853
-51.355
-50.896
-50.477
-50.098
-49.76
-49.461
-49.2
-48.976
-48.786
-48.628
-48.499
-48.396
-48.317
-48.258
-48.216
-48.189
-48.174
-48.166
-48.165
-48.168
-48.171
-48.174
-48.173
-48.167
-48.155
-48.135
-48.106
-48.066
-48.017
-47.955
-47.882
-47.797
-47.7
-47.591
-47.47
-47.337
-47.194
-47.04
-46.877
-46.706
-46.527
-46.342
-46.153
-45.96
-45.764
-45.567
-45.371
-45.175
-44.982
-44.792
-44.607
-44.427
-44.254
-44.088
-43.932
-43.785
-43.649
-43.525
-43.414
-43.317
-43.234
-43.168
-43.119
-43.088
-43.077
-43.085
-43.115
-43.167
-43.241
-43.34
-43.462
-43.608
-43.779
-43.974
-44.193
-44.435
-44.7
-44.987
-45.295
-45.624
-45.971
-46.335
-46.714
-47.106
-47.509
-47.918
-48.332
-48.747
-49.159
-49.564
-49.958
-50.338
-50.698
-51.035
-51.344
-51.62
-51.858
-52.055
-52.204
-52.302
-52.343
-52.324
-52.24
-52.088
-51.866
-51.57
-51.198
-50.749
-50.222
-49.616
-48.931
-48.168
-47.327
-46.411
-45.421
-44.363
-43.239
-42.057
-40.823
-39.545
-38.231
-36.888
-35.527
-34.155
-32.782
-31.415
-30.062
-28.73
-27.429
-26.165
-24.949
-23.789
-22.695
-21.674
-20.732
-19.874
-19.107
-18.431
-17.845
-17.347
-16.936
-16.613
-16.385
-16.255
-16.223
-16.284
-16.432
-16.656
-16.945
-17.284
-17.648
-18.016
-18.365
-18.678
-18.952
-19.182
-19.366
-19.495
-19.543
-19.495
-19.349
-19.114
-18.806
-18.443
-18.041
-17.631
-17.27
-17.018
-16.939
-17.087
-17.497
-18.201
-19.21
-20.561
-22.326
-24.514
-27.085
-29.927
-32.82
-35.546
-37.953
-39.82
-40.869
-40.931
-39.897
-37.865
-35.291
-32.679
-30.448
-29.0
-28.685
-29.715
-32.259
-36.271
-40.641
-43.564
-43.563
-39.186
-30.657
-20.117
-8.014
5.801
22.92
48.009
82.661
126.294
177.091
228.156
272.693
304.125
313.95
297.526
253.912
185.541
100.623
8.073
-86.324
-179.879
-273.987
-370.522
-467.687
-559.222
-635.475
-687.391
-709.388
-701.765
-669.554
-618.552
-554.992
-483.515
-407.618
-332.591
-263.348
-203.504
-155.253
-117.137
-86.065
-60.402
-39.248
-23.153
-13.679
-10.361
-11.558
-15.448
-19.704
-22.864
-24.467
-24.078
-21.505
-17.032
-11.029
-3.963
3.461
10.632
17.125
22.461
26.319
28.745
29.926
30.132
29.789
29.276
28.931
29.185
30.336
32.476
35.617
39.658
44.417
49.737
55.434
61.247
66.975
72.467
77.59
82.294
86.557
90.351
93.684
96.584
99.072
101.186
102.972
104.464
105.706
106.748
107.633
108.419
109.164
109.925
110.758
111.708
112.806
114.078
115.541
117.208
119.086
121.177
123.474
125.973
128.671
131.563
134.647
137.914
141.353
144.953
148.702
152.587
156.597
160.716
164.93
169.225
173.584
177.991
182.43
186.88
191.323
195.734
200.091
204.371
208.549
212.601
216.503
220.231
223.762
227.073
230.142
232.95
235.477
237.703
239.612
241.188
242.415
243.282
243.776
243.887
243.609
242.935
241.861
240.385
238.506
236.226
233.549
230.48
227.028
223.202
219.014
214.477
209.606
204.418
198.932
193.168
187.148
180.893
174.428
167.777
160.965
154.018
146.961
139.822
132.625
125.397
118.165
110.953
103.786
96.69
89.687
82.8
76.051
69.46
63.047
56.829
50.824
45.045
39.507
34.222
29.2
24.45
19.977
15.788
11.886
8.272
4.946
1.906
-0.851
-3.33
-5.537
-7.48
-9.168
-10.612
-11.822
-12.81
-13.589
-14.173
-14.576
-14.811
-14.894
-14.839
-14.661
-14.375
-13.996
-13.537
-13.013
-12.437
-11.823
-11.183
-10.528
-9.871
-9.221
-8.589
-7.984
-7.412
-6.883
-6.402
-5.975
-5.606
-5.298
-5.056
-4.88
-4.771
-4.731
-4.759
-4.853
-5.013
-5.236
-5.519
-5.859
-6.254
-6.699
-7.19
-7.724
-8.296
-8.903
-9.54
-10.203
-10.887
-11.59
-12.307
-13.034
-13.768
-14.505
-15.241
-15.974
-16.699
-17.416
-18.12
-18.81
-19.483
-20.137
-20.772
-21.384
-21.974
-22.54
-23.082
-23.598
-24.09
-24.555
-24.996
-25.411
-25.801
-26.166
-26.507
-26.824
-27.117
-27.386
-27.633
-27.856
-28.057
-28.237
-28.394
-28.531
-28.647
-28.743
-28.82
-28.88
-28.921
-28.947
-28.958
-28.954
-28.938
-28.911
-28.874
-28.828
-28.775
-28.716
-28.653
-28.587
-28.519
-28.45
-28.382
-28.316
-28.253
-28.194
-28.14
-28.091
-28.049
-28.015
-27.988
-27.971
-27.962
-27.962
-27.972
-27.99
-28.016
-28.048
-28.086
-28.127
-28.17
-28.213
-28.254
-28.289
-28.317
-28.333
-28.335
-28.319
-28.281
-28.218
-28.126
-28.001
-27.841
-27.641
-27.398
-27.108
-26.77
-26.38
-25.937
-25.437
-24.878
-24.259
-23.58
-22.84
-22.038
-21.176
-20.256
-19.279
-18.251
-17.176
-16.059
-14.905
-13.719
-12.509
-11.28
-10.041
-8.796
-7.551
-6.315
-5.095
-3.9
-2.74
-1.622
-0.555
0.453
1.396
2.265
3.057
3.77
4.402
4.949
5.406
5.764
6.018
6.168
6.216
6.165
6.024
5.8
5.512
5.181
4.829
4.47
4.114
3.766
3.432
3.122
2.851
2.633
2.474
2.378
2.343
2.361
2.412
2.462
2.46
2.344
2.068
1.584
0.848
-0.179
-1.547
-3.294
-5.454
-8.063
-11.165
-14.77
-18.851
-23.311
-27.975
-32.653
-37.155
-41.246
-44.673
-47.245
-48.859
-49.54
-49.499
-48.975
-48.156
-47.336
-46.819
-46.734
-47.21
-48.241
-49.501
-50.708
-51.085
-49.107
-43.679
-33.927
-20.379
-5.526
9.609
24.793
41.717
65.145
96.654
135.943
180.945
224.666
261.23
284.355
285.968
261.591
209.006
130.703
34.983
-69.112
-174.464
-278.768
-382.648
-485.822
-583.9
-667.011
-724.999
-750.951
-744.456
-711.303
-658.567
-593.857
-522.356
-447.998
-376.301
-310.434
-252.744
-203.909
-161.036
-122.99
-89.824
-62.023
-41.74
-29.352
-23.627
-23.104
-25.498
-29.098
-33.077
-36.708
-39.64
-41.675
-42.416
-41.64
-39.508
-36.307
-32.386
-28.121
-23.695
-19.256
-15.188
-11.85
-9.349
-7.632
-6.507
-5.726
-5.132
-4.575
-3.747
-2.311
-0.089
2.939
6.674
10.95
15.618
20.54
25.51
30.273
34.661
38.591
42.042
45.048
47.639
49.828
51.656
53.186
54.475
55.578
56.537
57.384
58.162
58.93
59.748
60.678
61.767
63.045
64.536
66.258
68.222
70.435
72.898
75.603
78.546
81.724
85.132
88.766
92.62
96.68
100.931
105.359
109.945
114.676
119.534
124.501
129.56
134.692
139.878
145.098
150.331
155.553
160.74
165.864
170.9
175.821
180.602
185.215
189.635
193.837
197.797
201.492
204.9
208.001
210.774
213.202
215.267
216.955
218.252
219.145
219.626
219.687
219.322
218.527
217.3
215.643
213.558
211.049
208.124
204.792
201.063
196.951
192.468
187.633
182.463
176.977
171.196
165.142
158.839
152.31
145.58
138.675
131.62
124.442
117.166
109.818
102.426
95.014
87.608
80.232
72.912
65.67
58.529
51.511
44.636
37.923
31.39
25.052
18.925
13.022
7.356
1.935
-3.231
-8.135
-12.772
-17.137
-21.228
-25.045
-28.587
-31.858
-34.859
-37.596
-40.074
-42.3
-44.281
-46.027
-47.546
-48.85
-49.947
-50.851
-51.573
-52.124
-52.518
-52.765
-52.88
-52.874
-52.758
-52.546
-52.248
-51.875
-51.438
-50.947
-50.412
-49.842
-49.246
-48.63
-48.003
-47.372
-46.742
-46.118
-45.507
-44.913
-44.338
-43.787
-43.262
-42.766
-42.3
-41.866
-41.465
-41.097
-40.762
-40.46
-40.192
-39.955
-39.75
-39.575
-39.431
-39.314
-39.226
-39.164
-39.129
-39.118
-39.132
-39.17
-39.23
-39.313
-39.418
-39.545
-39.694
-39.864
-40.055
-40.267
-40.5
-40.753
-41.027
-41.321
-41.634
-41.965
-42.315
-42.682
-43.066
-43.466
-43.881
-44.31
-44.75
-45.201
-45.661
-46.128
-46.599
-47.071
-47.541
-48.007
-48.464
-48.91
-49.34
-49.751
-50.14
-50.502
-50.834
-51.131
-51.388
-51.603
-51.771
-51.887
-51.949
-51.952
-51.894
-51.771
-51.581
-51.322
-50.993
-50.593
-50.12
-49.573
-48.954
-48.264
-47.503
-46.674
-45.78
-44.824
-43.812
-42.752
-41.648
-40.509
-39.341
-38.151
-36.949
-35.742
-34.538
-33.341
-32.16
-31.003
-29.877
-28.791
-27.754
-26.773
-25.856
-25.012
-24.248
-23.567
-22.971
-22.461
-22.037
-21.698
-21.446
-21.283
-21.211
-21.227
-21.328
-21.509
-21.759
-22.066
-22.411
-22.769
-23.125
-23.462
-23.765
-24.029
-24.241
-24.401
-24.508
-24.555
-24.535
-24.449
-24.292
-24.074
-23.826
-23.57
-23.338
-23.177
-23.114
-23.194
-23.468
-23.974
-24.753
-25.831
-27.208
-28.912
-30.996
-33.469
-36.302
-39.391
-42.519
-45.498
-48.157
-50.263
-51.573
-51.886
-51.084
-49.266
-46.781
-44.026
-41.414
-39.41
-38.421
-38.729
-40.503
-43.598
-47.468
-51.427
-54.268
-54.265
-49.993
-40.246
-25.303
-7.153
12.731
33.247
55.524
82.876
116.824
157.632
202.028
242.805
272.847
284.053
270.207
229.361
162.508
75.301
-24.569
-130.933
-239.699
-349.363
-458.605
-562.326
-651.87
-717.644
-751.678
-752.642
-725.128
-675.52
-611.738
-539.561
-462.918
-387.339
-317.153
-255.137
-202.761
-158.117
-118.564
-83.231
-52.189
-26.74
-8.504
2.577
7.602
8.243
6.543
3.86
1.041
-1.37
-3.117
-3.763
-2.89
-0.479
3.256
7.941
13.054
18.255
23.324
27.828
31.353
33.773
35.119
35.599
35.554
35.224
34.811
34.672
35.173
36.506
38.729
41.754
45.41
49.56
54.055
58.678
63.178
67.352
71.087
74.353
77.162
79.531
81.475
83.025
84.24
85.185
85.914
86.473
86.897
87.222
87.507
87.814
88.206
88.743
89.47
90.415
91.605
93.058
94.781
96.779
99.047
101.575
104.363
107.414
110.724
114.283
118.073
122.064
126.229
130.544
134.977
139.495
144.069
148.676
153.308
157.969
162.653
167.345
172.019
176.634
181.163
185.592
189.911
194.112
198.192
202.137
205.954
209.671
213.285
216.778
220.103
223.175
225.937
228.353
230.394
232.049
233.297
234.098
234.426
234.259
233.569
232.334
230.506
228.014
224.827
220.95
216.426
211.343
205.768
199.742
193.312
186.513
179.39
171.998
164.377
156.553
148.566
140.465
132.318
124.221
116.237
108.397
100.711
93.153
85.715
78.405
71.228
64.184
57.28
50.518
43.916
37.507
31.309
25.332
19.572
14.009
8.638
3.467
-1.49
-6.207
-10.666
-14.859
-18.773
-22.394
-25.715
-28.735
-31.459
-33.905
-36.087
-38.011
-39.687
-41.117
-42.309
-43.277
-44.033
-44.591
-44.964
-45.167
-45.216
-45.128
-44.919
-44.601
-44.187
-43.686
-43.106
-42.458
-41.751
-40.996
-40.199
-39.37
-38.517
-37.649
-36.773
-35.895
-35.022
-34.158
-33.308
-32.476
-31.665
-30.877
-30.116
-29.384
-28.682
-28.012
-27.375
-26.773
-26.207
-25.676
-25.182
-24.725
-24.305
-23.922
-23.576
-23.268
-22.997
-22.763
-22.569
-22.413
-22.296
-22.221
-22.187
-22.195
-22.246
-22.339
-22.477
-22.659
-22.886
-23.157
-23.473
-23.834
-24.239
-24.689
-25.183
-25.718
-26.294
-26.909
-27.559
-28.243
-28.957
-29.697
-30.459
-31.24
-32.034
-32.839
-33.647
-34.455
-35.257
-36.046
-36.818
-37.566
-38.283
-38.963
-39.599
-40.185
-40.715
-41.183
-41.582
-41.906
-42.15
-42.309
-42.378
-42.354
-42.232
-42.009
-41.684
-41.256
-40.725
-40.091
-39.356
-38.523
-37.597
-36.584
-35.489
-34.319
-33.08
-31.78
-30.427
-29.031
-27.598
-26.137
-24.656
-23.167
-21.682
-20.21
-18.764
-17.355
-15.992
-14.688
-13.453
-12.294
-11.215
-10.221
-9.319
-8.515
-7.822
-7.243
-6.779
-6.429
-6.19
-6.057
-6.02
-6.063
-6.161
-6.294
-6.451
-6.624
-6.815
-7.013
-7.208
-7.387
-7.537
-7.657
-7.752
-7.817
-7.852
-7.873
-7.915
-8.028
-8.277
-8.7
-9.317
-10.154
-11.24
-12.616
-14.328
-16.411
-18.878
-21.743
-25.043
-28.788
-32.937
-37.364
-41.839
-46.11
-49.965
-53.202
-55.6
-57.009
-57.374
-56.781
-55.549
-54.034
-52.553
-51.429
-50.919
-51.203
-52.379
-54.296
-56.597
-58.42
-58.317
-55.128
-47.852
-36.606
-23.352
-9.248
5.495
21.844
43.589
73.385
111.448
156.79
204.638
248.598
282.046
296.654
285.574
245.285
176.994
87.438
-13.937
-118.905
-223.98
-329.593
-437.021
-543.898
-641.822
-719.342
-765.784
-777.035
-756.344
-710.716
-649.328
-578.961
-503.873
-428.892
-357.719
-293.237
-237.632
-190.196
-149.138
-113.777
-83.845
-60.021
-43.465
-33.824
-29.829
-29.737
-31.343
-33.098
-34.142
-33.996
-32.592
-29.94
-26.058
-21.185
-15.735
-10.236
-5.222
-1.064
1.998
3.883
4.608
4.315
3.264
1.8
0.3
-0.883
-1.412
-1.073
0.243
2.561
5.799
9.815
14.442
19.483
24.692
29.871
34.859
39.511
43.761
47.575
50.93
53.835
56.324
58.425
60.181
61.646
62.86
63.872
64.735
65.497
66.219
66.965
67.793
68.768
69.934
71.325
72.965
74.871
77.05
79.507
82.238
85.232
88.48
91.973
95.704
99.663
103.838
108.213
112.77
117.491
122.358
127.353
132.455
137.644
142.899
148.2
153.524
158.85
164.155
169.413
174.597
179.679
184.632
189.429
194.042
198.444
202.607
206.508
210.121
213.424
216.397
219.018
221.269
223.133
224.595
225.641
226.26
226.442
226.18
225.468
224.302
222.683
220.612
218.091
215.127
211.729
207.906
203.672
199.04
194.027
188.651
182.934
176.896
170.561
163.955
157.103
150.032
142.771
135.347
127.791
120.13
112.395
104.614
96.817
89.032
81.287
73.61
66.028
58.566
51.249
44.102
37.145
30.401
23.888
17.623
11.624
5.903
0.474
-4.655
-9.473
-13.975
-18.156
-22.014
-25.548
-28.759
-31.65
-34.226
-36.493
-38.459
-40.134
-41.527
-42.651
-43.518
-44.143
-44.539
-44.721
-44.706
-44.51
-44.148
-43.638
-42.996
-42.239
-41.383
-40.445
-39.439
-38.382
-37.287
-36.169
-35.041
-33.915
-32.802
-31.713
-30.658
-29.644
-28.68
-27.772
-26.924
-26.142
-25.429
-24.786
-24.216
-23.719
-23.295
-22.943
-22.661
-22.447
-22.298
-22.211
-22.182
-22.206
-22.281
-22.4
-22.559
-22.754
-22.978
-23.228
-23.498
-23.783
-24.079
-24.381
-24.685
-24.988
-25.287
-25.577
-25.856
-26.122
-26.373
-26.607
-26.825
-27.024
-27.205
-27.369
-27.515
-27.646
-27.761
-27.864
-27.955
-28.036
-28.111
-28.181
-28.248
-28.315
-28.384
-28.458
-28.54
-28.631
-28.735
-28.852
-28.986
-29.137
-29.307
-29.497
-29.708
-29.94
-30.193
-30.467
-30.761
-31.074
-31.406
-31.754
-32.117
-32.493
-32.879
-33.272
-33.668
-34.064
-34.457
-34.843
-35.218
-35.578
-35.919
-36.237
-36.528
-36.788
-37.014
-37.203
-37.35
-37.452
-37.507
-37.514
-37.47
-37.375
-37.227
-37.029
-36.781
-36.487
-36.148
-35.769
-35.352
-34.901
-34.42
-33.914
-33.386
-32.839
-32.278
-31.71
-31.141
-30.578
-30.027
-29.494
-28.987
-28.51
-28.07
-27.671
-27.312
-26.994
-26.721
-26.497
-26.332
-26.23
-26.19
-26.21
-26.286
-26.412
-26.577
-26.765
-26.952
-27.116
-27.244
-27.325
-27.358
-27.336
-27.249
-27.085
-26.831
-26.482
-26.04
-25.507
-24.894
-24.224
-23.534
-22.881
-22.334
-21.944
-21.765
-21.841
-22.218
-22.945
-24.067
-25.618
-27.638
-30.166
-33.218
-36.768
-40.729
-44.928
-49.172
-53.254
-56.925
-59.912
-62.001
-63.06
-63.084
-62.253
-60.806
-58.946
-56.996
-55.314
-54.085
-53.486
-53.548
-53.975
-54.468
-54.286
-51.977
-46.369
-36.462
-22.485
-6.434
10.8
28.84
49.01
75.291
108.818
149.304
194.834
239.067
276.794
301.984
306.599
285.796
236.492
159.976
63.613
-44.576
-157.858
-272.432
-387.339
-499.856
-603.353
-688.573
-745.748
-769.272
-760.058
-722.671
-664.778
-594.607
-518.179
-442.192
-371.936
-309.489
-255.938
-209.33
-166.548
-127.138
-91.652
-61.642
-39.195
-24.194
-15.21
-10.682
-8.656
-7.78
-7.375
-6.926
-6.31
-5.601
-4.785
-3.648
-2.03
0.002
2.278
4.577
6.854
9.244
11.783
14.248
16.345
17.953
19.134
20.057
20.837
21.514
22.16
22.997
24.343
26.374
29.092
32.414
36.208
40.338
44.691
49.081
53.252
57.045
60.385
63.247
65.671
67.697
69.342
70.657
71.717
72.581
73.308
73.948
74.53
75.105
75.731
76.467
77.377
78.506
79.885
81.537
83.479
85.716
88.254
91.089
94.209
97.606
101.272
105.199
109.378
113.796
118.438
123.283
128.312
133.501
138.83
144.278
149.82
155.434
161.095
166.778
172.458
178.11
183.703
189.207
194.593
199.829
204.884
209.729
214.334
218.67
222.71
226.427
229.798
232.799
235.408
237.606
239.376
240.701
241.568
241.965
241.884
241.318
240.262
238.715
236.677
234.15
231.142
227.659
223.712
219.313
214.479
209.226
203.574
197.544
191.159
184.444
177.426
170.131
162.59
154.832
146.887
138.787
130.563
122.248
113.872
105.466
97.063
88.691
80.381
72.162
64.062
56.106
48.322
40.732
33.359
26.224
19.347
12.744
6.431
0.421
-5.274
-10.644
-15.683
-20.385
-24.746
-28.766
-32.444
-35.783
-38.787
-41.463
-43.817
-45.859
-47.598
-49.048
-50.219
-51.127
-51.785
-52.209
-52.414
-52.418
-52.236
-51.886
-51.384
-50.748
-49.994
-49.138
-48.198
-47.188
-46.124
-45.019
-43.889
-42.745
-41.599
-40.464
-39.348
-38.262
-37.213
-36.208
-35.255
-34.357
-33.519
-32.745
-32.036
-31.395
-30.821
-30.316
-29.877
-29.505
-29.196
-28.949
-28.76
-28.626
-28.543
-28.507
-28.515
-28.561
-28.641
-28.751
-28.885
-29.04
-29.21
-29.391
-29.58
-29.772
-29.963
-30.151
-30.331
-30.503
-30.662
-30.808
-30.938
-31.052
-31.148
-31.227
-31.287
-31.33
-31.355
-31.363
-31.356
-31.335
-31.3
-31.254
-31.198
-31.133
-31.062
-30.987
-30.91
-30.832
-30.755
-30.682
-30.613
-30.552
-30.499
-30.455
-30.423
-30.402
-30.393
-30.397
-30.413
-30.441
-30.48
-30.529
-30.587
-30.653
-30.723
-30.797
-30.872
-30.945
-31.013
-31.074
-31.124
-31.159
-31.175
-31.17
-31.14
-31.08
-30.988
-30.86
-30.693
-30.484
-30.23
-29.928
-29.576
-29.172
-28.714
-28.201
-27.634
-27.012
-26.336
-25.607
-24.831
-24.01
-23.149
-22.251
-21.321
-20.366
-19.39
-18.399
-17.398
-16.391
-15.385
-14.387
-13.406
-12.449
-11.524
-10.637
-9.796
-9.01
-8.285
-7.624
-7.028
-6.498
-6.039
-5.653
-5.35
-5.13
-4.991
-4.931
-4.946
-5.029
-5.171
-5.353
-5.549
-5.74
-5.911
-6.053
-6.164
-6.232
-6.245
-6.194
-6.068
-5.869
-5.601
-5.263
-4.856
-4.399
-3.927
-3.493
-3.16
-2.974
-2.967
-3.179
-3.649
-4.429
-5.569
-7.103
-9.048
-11.417
-14.24
-17.526
-21.236
-25.256
-29.382
-33.388
-37.062
-40.192
-42.536
-43.903
-44.182
-43.394
-41.766
-39.586
-37.166
-34.855
-32.984
-31.841
-31.632
-32.334
-33.736
-35.101
-35.063
-32.417
-25.987
-15.59
-2.907
10.962
25.657
41.818
62.993
91.931
129.15
174.099
222.236
266.853
300.617
314.314
300.411
255.496
181.729
86.831
-19.064
-127.55
-235.741
-344.001
-452.542
-558.255
-652.085
-722.773
-761.468
-765.133
-737.127
-685.326
-619.253
-546.471
-473.327
-404.223
-340.479
-282.777
-230.099
-180.831
-135.542
-95.299
-61.81
-36.955
-20.565
-11.559
-8.369
-8.707
-10.96
-14.03
-16.781
-18.67
-19.311
-18.097
-14.932
-10.143
-4.09
2.668
9.464
15.936
21.716
26.233
29.31
31.073
31.678
31.499
30.955
30.286
29.833
30.072
31.229
33.366
36.475
40.367
44.857
49.825
55.053
60.269
65.274
69.902
74.06
77.751
80.969
83.709
85.998
87.874
89.381
90.582
91.524
92.243
92.787
93.2
93.538
93.867
94.247
94.741
95.395
96.242
97.309
98.616
100.171
101.984
104.052
106.367
108.921
111.711
114.728
117.968
121.421
125.071
128.903
132.902
137.049
141.329
145.723
150.214
154.78
159.403
164.062
168.737
173.406
178.045
182.628
187.129
191.521
195.78
199.879
203.791
207.492
210.957
214.163
217.089
219.715
222.021
223.99
225.606
226.855
227.724
228.202
228.281
227.954
227.216
226.064
224.499
222.521
220.134
217.344
214.16
210.591
206.649
202.348
197.703
192.733
187.454
181.889
176.058
169.984
163.692
157.205
150.55
143.751
136.835
129.828
122.756
115.644
108.519
101.405
94.326
87.306
80.369
73.536
66.827
60.263
53.862
47.642
41.616
35.801
30.208
24.848
19.731
14.864
10.254
5.905
1.819
-2.002
-5.557
-8.85
-11.882
-14.659
-17.186
-19.469
-21.518
-23.34
-24.945
-26.344
-27.548
-28.567
-29.414
-30.101
-30.64
-31.044
-31.324
-31.494
-31.564
-31.548
-31.455
-31.298
-31.087
-30.832
-30.542
-30.225
-29.891
-29.546
-29.197
-28.851
-28.512
-28.185
-27.875
-27.585
-27.318
-27.076
-26.861
-26.673
-26.515
-26.385
-26.284
-26.213
-26.169
-26.153
-26.163
-26.198
-26.258
-26.34
-26.445
-26.57
-26.715
-26.879
-27.06
-27.259
-27.474
-27.705
-27.951
-28.214
-28.492
-28.787
-29.099
-29.428
-29.776
-30.142
-30.529
-30.937
-31.367
-31.821
-32.3
-32.804
-33.337
-33.897
-34.487
-35.108
-35.761
-36.445
-37.162
-37.911
-38.694
-39.509
-40.356
-41.236
-42.146
-43.087
-44.057
-45.054
-46.077
-47.125
-48.193
-49.281
-50.385
-51.503
-52.63
-53.765
-54.903
-56.041
-57.175
-58.301
-59.415
-60.513
-61.59
-62.641
-63.662
-64.649
-65.596
-66.499
-67.354
-68.158
-68.905
-69.592
-70.216
-70.773
-71.26
-71.673
-72.009
-72.265
-72.44
-72.53
-72.534
-72.452
-72.281
-72.022
-71.675
-71.241
-70.719
-70.112
-69.42
-68.648
-67.797
-66.871
-65.875
-64.813
-63.692
-62.52
-61.304
-60.051
-58.769
-57.467
-56.153
-54.834
-53.519
-52.214
-50.924
-49.659
-48.424
-47.229
-46.081
-44.987
-43.956
-42.992
-42.102
-41.29
-40.558
-39.904
-39.328
-38.829
-38.407
-38.067
-37.811
-37.636
-37.539
-37.514
-37.55
-37.636
-37.752
-37.876
-37.987
-38.069
-38.107
-38.095
-38.026
-37.897
-37.705
-37.438
-37.083
-36.641
-36.114
-35.513
-34.868
-34.205
-33.563
-33.0
-32.564
-32.305
-32.278
-32.518
-33.062
-33.943
-35.167
-36.763
-38.789
-41.239
-44.077
-47.206
-50.403
-53.445
-56.15
-58.253
-59.477
-59.65
-58.637
-56.501
-53.641
-50.528
-47.601
-45.316
-44.088
-44.206
-45.912
-49.273
-53.325
-56.41
-57.178
-54.171
-47.446
-38.777
-28.19
-15.212
1.862
27.232
61.778
104.452
153.125
201.869
245.851
279.563
295.307
287.154
250.365
185.135
97.881
-2.349
-106.636
-210.91
-315.454
-421.349
-526.67
-623.188
-699.484
-745.832
-758.411
-741.134
-701.912
-648.465
-586.313
-517.952
-445.815
-374.242
-307.087
-247.739
-197.515
-154.331
-116.929
-85.068
-58.96
-40.299
-29.501
-25.318
-26.067
-29.532
-33.979
-38.379
-42.067
-44.596
-45.412
-44.145
-40.842
-35.781
-29.441
-22.393
-15.036
-7.725
-1.03
4.535
8.766
11.663
13.427
14.391
14.808
14.928
15.166
15.972
17.597
20.136
23.525
27.589
32.183
37.16
42.286
47.294
51.969
56.187
59.909
63.154
65.943
68.288
70.22
71.794
73.069
74.099
74.929
75.592
76.127
76.586
77.031
77.526
78.132
78.896
79.85
81.023
82.433
84.094
86.017
88.202
90.644
93.339
96.283
99.474
102.906
106.571
110.455
114.543
118.819
123.265
127.866
132.604
137.46
142.416
147.45
152.543
157.673
162.818
167.953
173.052
178.086
183.03
187.856
192.537
197.045
201.355
205.442
209.279
212.846
216.12
219.08
221.706
223.982
225.89
227.418
228.551
229.279
229.593
229.487
228.955
227.995
226.606
224.789
222.548
219.889
216.819
213.348
209.486
205.248
200.648
195.704
190.433
184.856
178.993
172.868
166.502
159.921
153.15
146.213
139.136
131.945
124.665
117.323
109.944
102.552
95.173
87.831
80.549
73.349
66.255
59.286
52.461
45.8
39.32
33.037
26.964
21.116
15.503
10.135
5.022
0.17
-4.415
-8.731
-12.774
-16.543
-20.04
-23.266
-26.225
-28.921
-31.359
-33.548
-35.493
-37.204
-38.69
-39.961
-41.027
-41.9
-42.59
-43.109
-43.469
-43.682
-43.759
-43.713
-43.555
-43.296
-42.948
-42.522
-42.028
-41.476
-40.875
-40.235
-39.564
-38.87
-38.159
-37.439
-36.715
-35.993
-35.277
-34.571
-33.879
-33.202
-32.545
-31.907
-31.291
-30.697
-30.125
-29.577
-29.051
-28.547
-28.065
-27.604
-27.163
-26.742
-26.338
-25.952
-25.582
-25.228
-24.888
-24.563
-24.252
-23.955
-23.671
-23.401
-23.145
-22.903
-22.677
-22.466
-22.271
-22.095
-21.938
-21.801
-21.687
-21.596
-21.532
-21.495
-21.488
-21.511
-21.568
-21.66
-21.787
-21.952
-22.155
-22.398
-22.68
-23.004
-23.367
-23.771
-24.215
-24.696
-25.213
-25.765
-26.348
-26.96
-27.596
-28.253
-28.926
-29.612
-30.305
-31.001
-31.694
-32.378
-33.047
-33.697
-34.319
-34.909
-35.46
-35.965
-36.418
-36.814
-37.147
-37.41
-37.6
-37.71
-37.737
-37.676
-37.525
-37.279
-36.936
-36.496
-35.957
-35.321
-34.588
-33.761
-32.844
-31.841
-30.76
-29.605
-28.385
-27.107
-25.778
-24.408
-23.005
-21.577
-20.131
-18.678
-17.227
-15.791
-14.379
-13.002
-11.671
-10.395
-9.183
-8.046
-6.99
-6.017
-5.132
-4.339
-3.647
-3.066
-2.601
-2.254
-2.024
-1.906
-1.894
-1.977
-2.138
-2.354
-2.603
-2.869
-3.14
-3.413
-3.679
-3.928
-4.142
-4.307
-4.413
-4.457
-4.438
-4.362
-4.251
-4.134
-4.062
-4.095
-4.278
-4.659
-5.279
-6.176
-7.395
-8.974
-10.94
-13.328
-16.181
-19.505
-23.267
-27.368
-31.629
-35.862
-39.891
-43.491
-46.419
-48.5
-49.642
-49.882
-49.444
-48.561
-47.375
-46.144
-45.129
-44.403
-44.071
-44.119
-44.194
-44.034
-42.956
-39.522
-32.697
-21.759
-7.459
7.591
21.961
35.227
49.872
71.178
101.785
142.465
189.847
235.779
272.972
293.585
291.229
263.742
210.948
136.743
47.969
-49.233
-150.204
-252.797
-356.141
-457.289
-549.839
-625.612
-676.597
-698.214
-691.395
-659.674
-608.778
-545.55
-475.339
-404.67
-339.538
-282.548
-234.864
-194.426
-157.454
-122.832
-90.813
-62.913
-41.556
-27.054
-18.297
-13.919
-12.005
-11.288
-11.224
-11.274
-11.156
-10.722
-9.641
-7.61
-4.64
-0.865
3.533
8.177
12.81
17.266
21.148
24.141
26.21
27.382
27.812
27.818
27.604
27.412
27.647
28.583
30.328
32.926
36.264
40.183
44.575
49.253
53.967
58.524
62.765
66.599
70.026
73.045
75.658
77.895
79.794
81.398
82.764
83.936
84.946
85.833
86.636
87.404
88.199
89.077
90.099
91.308
92.734
94.403
96.332
98.53
101.004
103.752
106.759
110.017
113.521
117.267
121.257
125.484
129.924
134.555
139.347
144.271
149.303
154.411
159.558
164.715
169.858
174.976
180.071
185.132
190.138
195.059
199.851
204.485
208.947
213.225
217.311
221.206
224.899
228.397
231.722
234.869
237.816
240.526
242.928
244.974
246.636
247.896
248.755
249.212
249.239
248.807
247.883
246.421
244.395
241.762
238.465
234.488
229.839
224.548
218.692
212.331
205.503
198.242
190.559
182.462
173.992
165.211
156.191
147.024
137.784
128.551
119.421
110.461
101.719
93.231
84.989
76.991
69.259
61.818
54.722
48.031
41.773
35.942
30.511
25.443
20.714
16.301
12.172
8.298
4.656
1.236
-1.948
-4.882
-7.571
-10.032
-12.306
-14.443
-16.468
-18.381
-20.167
-21.808
-23.302
-24.65
-25.849
-26.891
-27.774
-28.507
-29.114
-29.624
-30.051
-30.403
-30.674
-30.858
-30.958
-30.993
-30.984
-30.953
-30.914
-30.881
-30.866
-30.89
-30.964
-31.094
-31.276
-31.505
-31.78
-32.103
-32.48
-32.911
-33.396
-33.931
-34.511
-35.131
-35.787
-36.474
-37.185
-37.91
-38.644
-39.383
-40.124
-40.865
-41.604
-42.335
-43.056
-43.765
-44.458
-45.134
-45.788
-46.419
-47.025
-47.603
-48.154
-48.678
-49.175
-49.643
-50.085
-50.501
-50.893
-51.261
-51.607
-51.933
-52.24
-52.53
-52.805
-53.066
-53.316
-53.554
-53.783
-54.003
-54.215
-54.42
-54.618
-54.809
-54.992
-55.166
-55.331
-55.485
-55.626
-55.753
-55.863
-55.954
-56.025
-56.073
-56.097
-56.093
-56.059
-55.994
-55.895
-55.759
-55.585
-55.371
-55.116
-54.818
-54.478
-54.096
-53.672
-53.208
-52.708
-52.174
-51.611
-51.022
-50.412
-49.785
-49.148
-48.504
-47.856
-47.211
-46.573
-45.948
-45.343
-44.765
-44.22
-43.714
-43.254
-42.844
-42.489
-42.193
-41.953
-41.77
-41.646
-41.583
-41.589
-41.669
-41.822
-42.048
-42.342
-42.697
-43.103
-43.543
-43.993
-44.433
-44.848
-45.224
-45.557
-45.844
-46.074
-46.241
-46.332
-46.335
-46.247
-46.073
-45.817
-45.507
-45.179
-44.877
-44.668
-44.61
-44.75
-45.147
-45.841
-46.87
-48.28
-50.09
-52.33
-55.056
-58.27
-61.92
-65.907
-70.02
-74.016
-77.687
-80.763
-82.947
-84.067
-84.032
-82.93
-81.132
-79.051
-77.091
-75.703
-75.221
-75.856
-77.717
-80.599
-83.927
-86.546
-86.737
-82.996
-74.073
-60.328
-43.755
-25.559
-6.742
14.045
40.707
75.168
118.182
167.083
214.369
251.71
269.911
261.22
222.946
157.628
72.246
-23.781
-122.732
-221.787
-320.611
-419.186
-514.509
-598.347
-661.781
-697.923
-705.181
-687.803
-651.307
-601.662
-543.376
-479.633
-415.403
-355.371
-302.658
-258.671
-221.372
-187.635
-156.058
-126.486
-100.248
-79.186
-63.553
-52.704
-45.681
-41.066
-37.987
-36.023
-34.688
-33.765
-33.064
-32.133
-30.556
-28.196
-25.042
-21.213
-17.054
-12.784
-8.57
-4.809
-1.817
0.34
1.641
2.221
2.373
2.292
2.206
2.504
3.434
5.1
7.549
10.681
14.352
18.462
22.831
27.219
31.446
35.365
38.895
42.037
44.794
47.167
49.195
50.92
52.393
53.677
54.817
55.848
56.813
57.753
58.72
59.772
60.962
62.344
63.957
65.829
67.981
70.429
73.178
76.231
79.583
83.22
87.132
91.311
95.742
100.415
105.314
110.417
115.702
121.148
126.73
132.424
138.207
144.051
149.931
155.82
161.69
167.516
173.269
178.919
184.435
189.786
194.942
199.873
204.55
208.945
213.028
216.776
220.165
223.172
225.777
227.963
229.713
231.013
231.853
232.222
232.114
231.526
230.454
228.899
226.865
224.356
221.382
217.951
214.077
209.774
205.059
199.95
194.469
188.636
182.477
176.017
169.282
162.3
155.099
147.71
140.163
132.487
124.713
116.872
108.994
101.108
93.243
85.428
77.69
70.054
62.547
55.191
48.011
41.025
34.255
27.718
21.429
15.404
9.655
4.193
-0.973
-5.836
-10.39
-14.631
-18.558
-22.17
-25.468
-28.456
-31.138
-33.52
-35.61
-37.415
-38.947
-40.215
-41.232
-42.011
-42.564
-42.905
-43.049
-43.011
-42.805
-42.446
-41.949
-41.328
-40.599
-39.776
-38.872
-37.901
-36.876
-35.809
-34.711
-33.595
-32.471
-31.348
-30.235
-29.141
-28.073
-27.037
-26.04
-25.087
-24.182
-23.328
-22.528
-21.785
-21.099
-20.472
-19.903
-19.393
-18.939
-18.542
-18.199
-17.908
-17.666
-17.471
-17.321
-17.213
-17.144
-17.11
-17.11
-17.141
-17.199
-17.281
-17.387
-17.512
-17.655
-17.814
-17.987
-18.171
-18.367
-18.572
-18.785
-19.007
-19.235
-19.471
-19.713
-19.962
-20.218
-20.481
-20.752
-21.032
-21.321
-21.619
-21.929
-22.25
-22.582
-22.926
-23.283
-23.651
-24.03
-24.419
-24.817
-25.224
-25.638
-26.057
-26.479
-26.903
-27.325
-27.744
-28.157
-28.561
-28.952
-29.326
-29.679
-30.01
-30.312
-30.583
-30.817
-31.011
-31.16
-31.261
-31.31
-31.303
-31.235
-31.104
-30.908
-30.643
-30.309
-29.904
-29.428
-28.882
-28.269
-27.592
-26.853
-26.058
-25.209
-24.311
-23.372
-22.395
-21.385
-20.348
-19.29
-18.217
-17.138
-16.062
-14.996
-13.948
-12.927
-11.942
-11.0
-10.108
-9.268
-8.484
-7.761
-7.106
-6.528
-6.034
-5.623
-5.297
-5.054
-4.891
-4.8
-4.766
-4.764
-4.778
-4.791
-4.798
-4.794
-4.77
-4.713
-4.612
-4.454
-4.239
-3.971
-3.646
-3.266
-2.846
-2.423
-2.05
-1.793
-1.698
-1.797
-2.127
-2.726
-3.641
-4.924
-6.617
-8.733
-11.283
-14.306
-17.8
-21.732
-25.994
-30.347
-34.525
-38.306
-41.453
-43.722
-44.961
-45.041
-43.98
-42.13
-39.88
-37.586
-35.647
-34.384
-34.007
-34.74
-36.638
-38.839
-39.911
-38.632
-33.726
-25.363
-15.188
-3.361
10.836
29.397
55.921
91.194
133.389
179.478
225.299
267.662
303.235
326.749
330.553
307.18
254.077
175.039
79.908
-19.838
-117.88
-213.993
-310.709
-409.117
-504.293
-584.926
-639.853
-663.564
-657.256
-628.946
-587.781
-538.567
-483.749
-424.277
-361.928
-301.37
-246.715
-199.744
-159.637
-124.135
-91.901
-63.145
-39.295
-21.197
-8.439
-0.058
5.192
8.202
9.445
9.414
8.489
6.865
4.703
2.271
0.095
-1.293
-1.63
-0.919
0.693
3.166
6.494
10.52
14.804
18.776
22.103
24.717
26.696
28.14
29.13
29.792
30.426
31.429
33.021
35.248
38.049
41.27
44.778
48.446
52.073
55.442
58.425
60.966
63.072
64.805
66.208
67.318
68.198
68.909
69.505
70.035
70.534
71.037
71.589
72.243
73.054
74.068
75.314
76.815
78.586
80.635
82.966
85.578
88.461
91.609
95.018
98.681
102.59
106.737
111.105
115.678
120.435
125.356
130.42
135.605
140.888
146.247
151.659
157.098
162.541
167.963
173.334
178.627
183.811
188.858
193.737
198.419
202.877
207.082
211.007
214.629
217.924
220.869
223.443
225.629
227.409
228.768
229.694
230.175
230.204
229.774
228.883
227.527
225.71
223.435
220.707
217.536
213.933
209.91
205.483
200.67
195.489
189.962
184.112
177.964
171.542
164.875
157.99
150.917
143.686
136.326
128.868
121.343
113.78
106.208
98.659
91.159
83.738
76.421
69.234
62.202
55.347
48.692
42.255
36.055
30.108
24.428
19.028
13.919
9.108
4.602
0.407
-3.476
-7.045
-10.302
-13.249
-15.891
-18.234
-20.287
-22.057
-23.557
-24.797
-25.79
-26.549
-27.09
-27.428
-27.577
-27.553
-27.373
-27.053
-26.608
-26.055
-25.409
-24.684
-23.897
-23.06
-22.186
-21.288
-20.378
-19.466
-18.563
-17.677
-16.816
-15.987
-15.197
-14.451
-13.752
-13.105
-12.512
-11.975
-11.495
-11.071
-10.704
-10.393
-10.136
-9.93
-9.775
-9.666
-9.602
-9.578
-9.592
-9.64
-9.718
-9.825
-9.956
-10.109
-10.281
-10.469
-10.673
-10.89
-11.119
-11.358
-11.607
-11.866
-12.134
-12.412
-12.7
-12.998
-13.308
-13.631
-13.968
-14.32
-14.69
-15.078
-15.487
-15.917
-16.371
-16.85
-17.356
-17.889
-18.45
-19.041
-19.663
-20.314
-20.996
-21.708
-22.449
-23.218
-24.013
-24.831
-25.671
-26.528
-27.398
-28.279
-29.167
-30.056
-30.943
-31.822
-32.688
-33.537
-34.363
-35.162
-35.926
-36.651
-37.332
-37.963
-38.539
-39.056
-39.508
-39.891
-40.201
-40.434
-40.588
-40.659
-40.645
-40.543
-40.353
-40.075
-39.709
-39.256
-38.719
-38.1
-37.406
-36.641
-35.812
-34.926
-33.988
-33.007
-31.99
-30.946
-29.88
-28.8
-27.714
-26.629
-25.556
-24.505
-23.483
-22.5
-21.564
-20.684
-19.87
-19.126
-18.454
-17.857
-17.338
-16.905
-16.565
-16.322
-16.176
-16.125
-16.168
-16.3
-16.511
-16.784
-17.093
-17.418
-17.743
-18.057
-18.358
-18.632
-18.87
-19.057
-19.183
-19.25
-19.261
-19.212
-19.106
-18.961
-18.813
-18.718
-18.742
-18.936
-19.335
-19.98
-20.913
-22.183
-23.842
-25.934
-28.469
-31.459
-34.941
-38.915
-43.349
-48.13
-53.018
-57.743
-62.076
-65.769
-68.573
-70.318
-70.854
-70.203
-68.725
-66.825
-64.89
-63.341
-62.508
-62.65
-64.059
-66.823
-70.021
-72.113
-71.738
-67.442
-59.516
-50.016
-39.326
-27.208
-11.564
12.815
47.851
93.09
146.057
199.524
247.606
284.586
303.55
299.97
269.547
211.766
131.936
37.584
-62.409
-162.923
-264.302
-367.909
-473.841
-576.816
-665.684
-728.741
-757.907
-751.882
-716.199
-660.172
-592.812
-520.877
-449.316
-381.088
-318.691
-263.888
-216.626
-176.133
-140.819
-109.798
-83.418
-62.289
-47.362
-38.525
-34.654
-34.307
-35.747
-37.818
-39.906
-41.621
-42.777
-43.024
-41.988
-39.647
-36.19
-31.887
-27.123
-22.163
-17.201
-12.673
-9.009
-6.355
-4.693
-3.86
-3.575
-3.635
-3.844
-3.839
-3.237
-1.836
0.428
3.477
7.157
11.345
15.9
20.608
25.223
29.545
33.469
36.964
40.044
42.726
45.023
46.962
48.599
49.996
51.202
52.257
53.195
54.05
54.875
55.73
56.672
57.759
59.033
60.52
62.246
64.229
66.476
68.989
71.765
74.796
78.083
81.626
85.421
89.452
93.697
98.133
102.737
107.484
112.344
117.285
122.28
127.313
132.378
137.476
142.593
147.707
152.783
157.784
162.687
167.48
172.155
176.695
181.084
185.31
189.379
193.307
197.087
200.683
204.029
207.06
209.734
212.028
213.93
215.429
216.496
217.101
217.219
216.84
215.95
214.524
212.516
209.872
206.575
202.654
198.178
193.215
187.808
181.992
175.793
169.252
162.416
155.329
148.024
140.525
132.866
125.1
117.302
109.552
101.9
94.361
86.923
79.579
72.337
65.212
58.217
51.356
44.632
38.058
31.662
25.473
19.507
13.769
8.246
2.929
-2.183
-7.075
-11.727
-16.12
-20.248
-24.102
-27.677
-30.962
-33.951
-36.652
-39.078
-41.246
-43.168
-44.851
-46.303
-47.532
-48.549
-49.371
-50.012
-50.487
-50.811
-50.999
-51.068
-51.037
-50.921
-50.733
-50.484
-50.185
-49.846
-49.478
-49.093
-48.7
-48.306
-47.921
-47.554
-47.212
-46.903
-46.631
-46.402
-46.218
-46.083
-46.0
-45.969
-45.991
-46.067
-46.195
-46.375
-46.604
-46.882
-47.205
-47.569
-47.973
-48.412
-48.883
-49.38
-49.901
-50.441
-50.995
-51.559
-52.129
-52.702
-53.273
-53.838
-54.395
-54.939
-55.468
-55.979
-56.468
-56.932
-57.37
-57.778
-58.156
-58.502
-58.813
-59.091
-59.333
-59.54
-59.712
-59.849
-59.951
-60.019
-60.053
-60.056
-60.028
-59.971
-59.887
-59.778
-59.646
-59.494
-59.325
-59.14
-58.942
-58.735
-58.52
-58.3
-58.078
-57.856
-57.636
-57.421
-57.214
-57.015
-56.827
-56.652
-56.491
-56.345
-56.216
-56.103
-56.007
-55.927
-55.863
-55.815
-55.781
-55.761
-55.752
-55.754
-55.763
-55.779
-55.797
-55.816
-55.831
-55.839
-55.836
-55.818
-55.781
-55.72
-55.632
-55.513
-55.358
-55.165
-54.929
-54.647
-54.316
-53.932
-53.494
-52.999
-52.447
-51.836
-51.166
-50.437
-49.653
-48.815
-47.928
-46.995
-46.02
-45.007
-43.962
-42.89
-41.796
-40.683
-39.556
-38.422
-37.287
-36.16
-35.047
-33.954
-32.89
-31.862
-30.876
-29.937
-29.049
-28.211
-27.425
-26.693
-26.02
-25.414
-24.879
-24.415
-24.022
-23.698
-23.437
-23.232
-23.068
-22.924
-22.782
-22.631
-22.462
-22.272
-22.054
-21.799
-21.501
-21.151
-20.741
-20.265
-19.724
-19.125
-18.489
-17.846
-17.233
-16.701
-16.295
-16.066
-16.07
-16.351
-16.959
-17.931
-19.302
-21.12
-23.411
-26.166
-29.328
-32.762
-36.285
-39.713
-42.834
-45.388
-47.19
-48.126
-48.177
-47.534
-46.496
-45.394
-44.617
-44.546
-45.441
-47.441
-50.534
-54.493
-58.386
-60.645
-59.91
-54.84
-45.699
-34.584
-22.042
-7.802
10.261
36.892
73.419
118.589
169.269
218.864
262.717
296.393
313.985
310.595
280.708
222.742
141.219
43.91
-59.126
-161.771
-263.41
-364.892
-466.854
-564.399
-647.113
-705.036
-730.882
-724.31
-691.433
-639.3
-575.173
-504.108
-429.305
-355.648
-287.645
-228.593
-180.517
-141.86
-109.658
-82.371
-59.136
-40.484
-27.845
-20.958
-18.456
-18.64
-19.46
-19.754
-19.263
-17.915
-15.658
-12.342
-7.986
-2.902
2.463
7.684
12.53
16.932
20.694
23.428
24.98
25.46
25.106
24.272
23.222
22.095
21.142
20.767
21.209
22.553
24.782
27.73
31.258
35.282
39.634
44.085
48.457
52.604
56.421
59.898
63.022
65.776
68.184
70.28
72.099
73.692
75.108
76.384
77.566
78.7
79.83
81.009
82.288
83.718
85.348
87.215
89.344
91.754
94.453
97.446
100.733
104.307
108.155
112.263
116.62
121.211
126.026
131.047
136.254
141.627
147.144
152.782
158.52
164.333
170.198
176.089
181.981
187.848
193.665
199.407
205.044
210.547
215.888
221.037
225.967
230.649
235.056
239.163
242.944
246.376
249.438
252.112
254.379
256.222
257.629
258.586
259.084
259.116
258.676
257.76
256.367
254.499
252.159
249.354
246.09
242.379
238.233
233.667
228.697
223.342
217.622
211.559
205.176
198.499
191.554
184.367
176.966
169.382
161.642
153.777
145.816
137.788
129.724
121.652
113.6
105.597
97.669
89.843
82.145
74.597
67.223
60.045
53.082
46.353
39.874
33.661
27.727
22.084
16.742
11.707
6.988
2.587
-1.492
-5.248
-8.683
-11.799
-14.6
-17.092
-19.281
-21.177
-22.788
-24.126
-25.202
-26.028
-26.617
-26.984
-27.142
-27.107
-26.894
-26.518
-25.994
-25.339
-24.567
-23.694
-22.735
-21.704
-20.614
-19.481
-18.316
-17.133
-15.942
-14.755
-13.582
-12.433
-11.316
-10.239
-9.209
-8.232
-7.314
-6.459
-5.671
-4.952
-4.307
-3.735
-3.238
-2.817
-2.472
-2.201
-2.004
-1.879
-1.824
-1.836
-1.912
-2.05
-2.245
-2.494
-2.794
-3.14
-3.529
-3.955
-4.417
-4.908
-5.425
-5.963
-6.52
-7.09
-7.671
-8.257
-8.847
-9.436
-10.022
-10.602
-11.172
-11.731
-12.276
-12.805
-13.315
-13.806
-14.275
-14.722
-15.146
-15.545
-15.92
-16.27
-16.595
-16.897
-17.174
-17.43
-17.663
-17.877
-18.071
-18.248
-18.411
-18.56
-18.698
-18.829
-18.954
-19.076
-19.198
-19.323
-19.453
-19.591
-19.74
-19.903
-20.081
-20.278
-20.496
-20.736
-21.003
-21.296
-21.617
-21.968
-22.35
-22.762
-23.206
-23.679
-24.182
-24.713
-25.271
-25.854
-26.46
-27.085
-27.727
-28.383
-29.049
-29.721
-30.393
-31.062
-31.721
-32.367
-32.993
-33.594
-34.165
-34.7
-35.194
-35.642
-36.039
-36.38
-36.66
-36.876
-37.022
-37.097
-37.097
-37.021
-36.867
-36.635
-36.326
-35.941
-35.486
-34.961
-34.371
-33.72
-33.015
-32.259
-31.459
-30.619
-29.743
-28.838
-27.913
-26.975
-26.032
-25.092
-24.164
-23.257
-22.379
-21.538
-20.738
-19.981
-19.272
-18.616
-18.016
-17.484
-17.025
-16.639
-16.33
-16.096
-15.933
-15.832
-15.78
-15.752
-15.733
-15.709
-15.668
-15.605
-15.513
-15.379
-15.198
-14.966
-14.673
-14.32
-13.907
-13.443
-12.956
-12.483
-12.069
-11.776
-11.648
-11.732
-12.088
-12.764
-13.808
-15.27
-17.164
-19.516
-22.384
-25.779
-29.675
-33.989
-38.51
-43.01
-47.3
-51.11
-54.144
-56.19
-57.052
-56.715
-55.482
-53.676
-51.646
-49.879
-48.792
-48.669
-49.767
-52.091
-55.099
-58.043
-60.053
-59.625
-55.347
-46.501
-32.05
-12.022
12.418
41.197
73.242
107.466
144.198
182.178
220.029
255.466
282.483
293.732
281.445
240.012
170.738
80.383
-21.385
-125.696
-229.639
-333.598
-437.698
-538.663
-626.682
-690.639
-723.047
-722.566
-695.506
-650.359
-593.505
-529.219
-459.178
-385.962
-315.222
-251.667
-198.601
-156.624
-122.303
-93.204
-68.389
-47.743
-32.887
-24.155
-20.329
-19.852
-20.733
-21.685
-22.226
-22.139
-21.349
-19.616
-16.737
-12.829
-8.187
-3.149
1.967
6.981
11.72
15.806
18.857
20.778
21.677
21.781
21.37
20.65
19.81
19.199
19.216
20.073
21.838
24.449
27.752
31.625
35.954
40.541
45.15
49.594
53.731
57.499
60.9
63.934
66.606
68.942
70.976
72.751
74.321
75.724
76.997
78.174
79.292
80.4
81.552
82.801
84.202
85.795
87.605
89.65
91.942
94.487
97.29
100.344
103.633
107.145
110.872
114.812
118.965
123.318
127.849
132.526
137.325
142.219
147.185
152.193
157.206
162.197
167.147
172.052
176.912
181.714
186.432
191.03
195.471
199.731
203.803
207.679
211.347
214.791
218.006
221.001
223.797
226.394
228.76
230.833
232.555
233.889
234.817
235.334
235.432
235.089
234.28
232.985
231.198
228.912
226.106
222.738
218.759
214.157
208.965
203.256
197.101
190.548
183.633
176.387
168.851
161.076
153.109
144.981
136.719
128.357
119.948
111.568
103.294
95.177
87.23
79.439
71.797
64.309
56.988
49.847
42.885
36.105
29.518
23.149
17.023
11.157
5.55
0.189
-4.938
-9.835
-14.489
-18.881
-22.996
-26.828
-30.373
-33.624
-36.573
-39.218
-41.564
-43.627
-45.424
-46.967
-48.265
-49.324
-50.152
-50.761
-51.165
-51.378
-51.414
-51.288
-51.012
-50.603
-50.079
-49.451
-48.734
-47.935
-47.063
-46.129
-45.143
-44.112
-43.047
-41.953
-40.84
-39.715
-38.586
-37.459
-36.34
-35.233
-34.144
-33.075
-32.031
-31.014
-30.027
-29.07
-28.148
-27.26
-26.409
-25.595
-24.819
-24.082
-23.384
-22.725
-22.106
-21.526
-20.986
-20.486
-20.026
-19.606
-19.226
-18.886
-18.587
-18.329
-18.113
-17.937
-17.803
-17.709
-17.655
-17.641
-17.666
-17.729
-17.828
-17.964
-18.135
-18.338
-18.574
-18.839
-19.133
-19.453
-19.796
-20.161
-20.544
-20.944
-21.358
-21.783
-22.216
-22.655
-23.097
-23.539
-23.977
-24.41
-24.833
-25.245
-25.643
-26.025
-26.388
-26.73
-27.049
-27.344
-27.615
-27.859
-28.076
-28.267
-28.431
-28.569
-28.682
-28.771
-28.837
-28.883
-28.91
-28.922
-28.919
-28.906
-28.885
-28.859
-28.831
-28.804
-28.781
-28.765
-28.758
-28.765
-28.787
-28.827
-28.887
-28.969
-29.075
-29.206
-29.363
-29.546
-29.755
-29.989
-30.248
-30.531
-30.836
-31.16
-31.501
-31.857
-32.223
-32.597
-32.974
-33.348
-33.716
-34.073
-34.412
-34.73
-35.019
-35.277
-35.497
-35.675
-35.806
-35.887
-35.912
-35.879
-35.784
-35.624
-35.399
-35.107
-34.746
-34.317
-33.824
-33.269
-32.655
-31.987
-31.269
-30.507
-29.707
-28.874
-28.015
-27.134
-26.236
-25.329
-24.421
-23.52
-22.634
-21.77
-20.939
-20.146
-19.4
-18.705
-18.067
-17.485
-16.962
-16.501
-16.105
-15.783
-15.541
-15.38
-15.3
-15.297
-15.365
-15.497
-15.679
-15.888
-16.11
-16.33
-16.535
-16.721
-16.88
-17.007
-17.099
-17.141
-17.118
-17.029
-16.878
-16.679
-16.46
-16.244
-16.061
-15.96
-15.988
-16.206
-16.669
-17.422
-18.504
-19.943
-21.769
-24.054
-26.827
-30.058
-33.656
-37.432
-41.181
-44.744
-47.905
-50.381
-51.98
-52.593
-52.28
-51.37
-50.204
-49.107
-48.515
-48.815
-50.213
-52.827
-56.497
-60.68
-64.758
-67.575
-67.471
-63.189
-53.908
-40.022
-22.92
-3.061
19.82
46.833
79.348
116.408
155.814
194.886
229.711
256.609
270.456
264.173
232.553
173.837
91.374
-6.692
-112.508
-221.376
-331.638
-442.522
-549.77
-644.327
-714.928
-752.704
-755.401
-727.417
-677.541
-614.926
-546.237
-476.282
-408.288
-345.056
-288.756
-239.841
-197.684
-160.72
-128.092
-100.107
-77.428
-61.009
-50.764
-45.724
-44.502
-45.286
-46.832
-48.442
-49.699
-50.545
-50.734
-49.729
-47.349
-43.728
-39.101
-33.862
-28.303
-22.525
-16.857
-11.868
-7.841
-4.83
-2.76
-1.351
-0.37
0.318
1.021
2.19
4.084
6.813
10.362
14.561
19.262
24.346
29.607
34.788
39.688
44.185
48.233
51.858
55.086
57.933
60.434
62.643
64.617
66.41
68.066
69.618
71.101
72.567
74.072
75.673
77.427
79.375
81.547
83.964
86.642
89.589
92.811
96.304
100.061
104.074
108.336
112.839
117.576
122.533
127.694
133.04
138.55
144.205
149.985
155.868
161.833
167.855
173.913
179.981
186.037
192.053
198.003
203.857
209.587
215.163
220.557
225.74
230.683
235.361
239.747
243.817
247.547
250.918
253.908
256.499
258.675
260.422
261.726
262.578
262.969
262.892
262.344
261.324
259.831
257.869
255.444
252.562
249.235
245.474
241.294
236.711
231.743
226.411
220.737
214.744
208.459
201.908
195.118
188.118
180.938
173.607
166.157
158.617
151.019
143.392
135.766
128.172
120.639
113.194
105.866
98.681
91.665
84.841
78.233
71.862
65.748
59.907
54.356
49.11
44.18
39.576
35.306
31.377
27.792
24.551
21.656
19.104
16.889
15.005
13.443
12.195
11.247
10.588
10.201
10.071
10.181
10.513
11.048
11.765
12.645
13.667
14.808
16.049
17.366
18.739
20.147
21.568
22.983
24.372
25.716
26.997
28.198
29.303
30.297
31.168
31.902
32.489
32.92
33.187
33.284
33.206
32.949
32.512
31.894
31.096
30.119
28.969
27.648
26.164
24.522
22.732
20.802
18.742
16.562
14.273
11.888
9.419
6.877
4.276
1.628
-1.053
-3.755
-6.465
-9.171
-11.861
-14.524
-17.147
-19.722
-22.238
-24.686
-27.06
-29.35
-31.551
-33.658
-35.665
-37.569
-39.367
-41.056
-42.637
-44.109
-45.472
-46.729
-47.881
-48.931
-49.884
-50.744
-51.516
-52.205
-52.819
-53.362
-53.843
-54.268
-54.645
-54.981
-55.284
-55.562
-55.822
-56.072
-56.318
-56.568
-56.829
-57.105
-57.404
-57.731
-58.09
-58.486
-58.923
-59.404
-59.932
-60.509
-61.137
-61.817
-62.549
-63.332
-64.167
-65.051
-65.982
-66.959
-67.978
-69.035
-70.126
-71.247
-72.393
-73.558
-74.736
-75.921
-77.105
-78.283
-79.448
-80.594
-81.712
-82.797
-83.841
-84.838
-85.782
-86.666
-87.484
-88.23
-88.897
-89.482
-89.978
-90.382
-90.689
-90.895
-90.996
-90.991
-90.877
-90.652
-90.315
-89.865
-89.303
-88.63
-87.847
-86.959
-85.969
-84.881
-83.703
-82.44
-81.1
-79.69
-78.219
-76.695
-75.128
-73.529
-71.904
-70.262
-68.613
-66.968
-65.337
-63.73
-62.155
-60.62
-59.135
-57.713
-56.363
-55.091
-53.898
-52.787
-51.759
-50.821
-49.981
-49.24
-48.595
-48.042
-47.579
-47.202
-46.906
-46.675
-46.486
-46.315
-46.144
-45.964
-45.778
-45.59
-45.399
-45.197
-44.968
-44.702
-44.402
-44.068
-43.716
-43.355
-42.987
-42.659
-42.472
-42.553
-43.022
-43.929
-45.232
-46.884
-48.91
-51.306
-53.982
-56.736
-59.33
-61.668
-63.853
-66.032
-68.176
-70.186
-72.026
-73.789
-75.637
-77.602
-79.461
-80.895
-81.837
-82.374
-82.601
-82.596
-82.322
-81.785
-81.208
-80.844
-80.769
-80.456
-78.649
-74.175
-65.989
-54.263
-41.208
-28.368
-16.266
-3.899
13.528
40.25
77.867
126.311
179.991
230.436
269.112
286.144
274.789
233.165
163.963
74.902
-24.478
-126.806
-229.225
-331.797
-435.041
-536.338
-627.567
-698.817
-741.979
-754.293
-739.769
-705.889
-660.353
-608.015
-550.569
-488.459
-422.229
-354.079
-287.388
-225.575
-171.465
-126.544
-91.293
-65.369
-47.852
-37.771
-33.82
-34.333
-37.741
-42.499
-47.119
-50.723
-52.719
-52.499
-49.979
-45.487
-39.429
-32.458
-25.357
-18.595
-12.635
-8.097
-5.201
-3.866
-3.919
-4.948
-6.472
-8.179
-9.686
-10.487
-10.319
-9.089
-6.781
-3.568
0.353
4.85
9.714
14.676
19.548
24.179
28.444
32.323
35.8
38.854
41.507
43.794
45.741
47.399
48.817
50.031
51.09
52.046
52.944
53.845
54.804
55.876
57.12
58.575
60.271
62.231
64.468
66.991
69.804
72.903
76.276
79.916
83.812
87.954
92.334
96.938
101.748
106.746
111.915
117.233
122.684
128.246
133.897
139.616
145.38
151.166
156.952
162.713
168.421
174.05
179.571
184.956
190.177
195.206
200.015
204.577
208.867
212.861
216.534
219.867
222.838
225.43
227.624
229.406
230.763
231.683
232.158
232.178
231.74
230.841
229.479
227.657
225.377
222.646
219.472
215.864
211.836
207.402
202.578
197.382
191.835
185.957
179.772
173.305
166.581
159.626
152.468
145.134
137.653
130.053
122.364
114.613
106.828
99.038
91.269
83.549
75.904
68.358
60.935
53.658
46.549
39.629
32.915
26.425
20.176
14.18
8.45
2.997
-2.17
-7.045
-11.623
-15.899
-19.873
-23.543
-26.913
-29.983
-32.759
-35.247
-37.452
-39.382
-41.047
-42.455
-43.618
-44.548
-45.255
-45.751
-46.051
-46.166
-46.109
-45.894
-45.533
-45.038
-44.422
-43.697
-42.876
-41.968
-40.985
-39.938
-38.835
-37.686
-36.5
-35.284
-34.044
-32.787
-31.52
-30.247
-28.973
-27.704
-26.444
-25.197
-23.968
-22.762
-21.583
-20.434
-19.317
-18.235
-17.191
-16.185
-15.217
-14.288
-13.396
-12.544
-11.734
-10.967
-10.244
-9.565
-8.932
-8.346
-7.807
-7.314
-6.86
-6.442
-6.057
-5.708
-5.397
-5.123
-4.882
-4.666
-4.469
-4.28
-4.084
-3.859
-3.574
-3.204
-2.732
-2.146
-1.442
-0.609
0.364
1.488
2.775
4.223
5.822
7.57
9.461
11.466
13.542
15.624
17.633
19.509
21.207
22.678
23.871
24.734
25.211
25.265
24.881
24.05
22.751
20.988
18.815
16.352
13.804
11.397
9.339
7.829
7.086
7.274
8.485
10.713
13.775
17.444
21.488
25.65
29.715
33.49
36.813
39.659
42.091
44.756
49.013
