-24.642
-25.13
-25.287
-25.263
-25.153
-25.037
-24.971
-24.939
-24.969
-25.14
-25.453
-25.853
-26.3
-26.747
-27.175
-27.598
-28.009
-28.384
-28.711
-28.987
-29.212
-29.391
-29.518
-29.582
-29.576
-29.497
-29.341
-29.111
-28.807
-28.426
-27.969
-27.435
-26.825
-26.138
-25.376
-24.542
-23.638
-22.667
-21.633
-20.54
-19.392
-18.196
-16.955
-15.673
-14.355
-13.003
-11.624
-10.22
-8.797
-7.358
-5.907
-4.449
-2.986
-1.522
-0.06
1.397
2.846
4.286
5.715
7.13
8.53
9.913
11.277
12.621
13.944
15.244
16.521
17.773
19.0
20.201
21.374
22.521
23.639
24.728
25.788
26.817
27.814
28.779
29.71
30.606
31.466
32.289
33.073
33.818
34.521
35.182
35.799
36.371
36.897
37.377
37.808
38.191
38.525
38.809
39.043
39.227
39.361
39.446
39.481
39.467
39.405
39.297
39.144
38.946
38.705
38.424
38.103
37.746
37.354
36.929
36.474
35.99
35.479
34.945
34.388
33.811
33.216
32.603
31.976
31.335
30.681
30.015
29.338
28.652
27.955
27.249
26.533
25.808
25.072
24.326
23.568
22.799
22.017
21.222
20.412
19.588
18.747
17.89
17.016
16.124
15.215
14.288
13.344
12.383
11.408
10.42
9.422
8.415
7.402
6.388
5.375
4.368
3.37
2.386
1.422
0.482
-0.428
-1.303
-2.136
-2.922
-3.654
-4.328
-4.936
-5.475
-5.937
-6.319
-6.614
-6.818
-6.928
-6.938
-6.846
-6.648
-6.344
-5.933
-5.414
-4.79
-4.062
-3.235
-2.314
-1.305
-0.214
0.951
2.183
3.472
4.808
6.182
7.583
9.0
10.42
11.831
13.219
14.572
15.879
17.126
18.304
19.401
20.405
21.308
22.104
22.788
23.354
23.798
24.112
24.294
24.348
24.277
24.087
23.786
23.383
22.891
22.334
21.73
21.099
20.453
19.799
19.142
18.486
17.84
17.218
16.624
16.063
15.535
15.041
14.585
14.172
13.767
13.301
12.692
11.839
10.672
9.155
7.227
4.844
2.025
-1.15
-4.509
-7.829
-10.958
-13.802
-16.233
-18.151
-19.519
-20.379
-20.925
-21.379
-21.845
-22.368
-23.011
-23.835
-24.863
-26.04
-27.178
-28.113
-28.842
-29.413
-29.834
-30.075
-29.858
-28.52
-25.313
-19.326
-10.003
2.104
16.011
30.789
46.324
64.314
87.728
119.515
161.546
213.468
271.391
328.281
374.935
401.024
398.596
364.443
300.247
212.559
109.711
-1.899
-118.226
-237.288
-357.191
-472.726
-575.514
-655.994
-706.083
-722.616
-707.868
-668.005
-610.649
-542.672
-469.949
-397.158
-328.493
-267.586
-215.677
-172.258
-135.503
-102.846
-73.524
-48.057
-27.288
-12.27
-2.756
2.455
4.741
5.586
5.861
5.983
6.18
6.27
6.246
6.54
7.263
8.914
12.028
15.83
19.866
23.544
25.886
27.497
28.925
30.434
32.583
34.873
36.84
38.42
39.447
40.286
41.107
41.864
42.946
44.424
46.638
50.03
53.894
57.7
60.738
62.1
62.359
62.039
61.532
61.526
61.596
61.326
60.671
59.402
57.755
56.008
54.171
52.329
50.521
48.76
47.136
45.722
44.55
43.651
43.053
42.776
42.833
43.238
43.988
45.086
46.539
48.352
50.53
53.071
55.971
59.221
62.815
66.746
71.01
75.599
80.498
85.687
91.142
96.83
102.722
108.785
114.977
121.261
127.605
133.984
140.383
146.79
153.182
159.531
165.798
171.946
177.951
183.794
189.457
194.937
200.228
205.327
210.252
215.008
219.573
223.918
227.982
231.694
235.004
237.875
240.279
242.199
243.604
244.463
244.757
244.452
243.518
241.918
239.591
236.498
232.636
228.022
222.716
216.799
210.331
203.366
195.957
188.146
179.982
171.519
162.791
153.843
144.729
135.511
126.276
117.1
108.03
99.096
90.303
81.637
73.096
64.689
56.413
48.28
40.304
32.495
24.881
17.488
10.332
3.42
-3.253
-9.695
-15.899
-21.853
-27.539
-32.929
-38.006
-42.755
-47.159
-51.208
-54.897
-58.228
-61.209
-63.855
-66.177
-68.184
-69.885
-71.287
-72.401
-73.243
-73.828
-74.174
-74.298
-74.22
-73.96
-73.539
-72.976
-72.288
-71.493
-70.604
-69.638
-68.61
-67.536
-66.43
-65.309
-64.185
-63.075
-61.992
-60.949
-59.957
-59.028
-58.169
-57.39
-56.697
-56.098
-55.597
-55.199
-54.907
-54.724
-54.651
-54.69
-54.84
-55.101
-55.47
-55.946
-56.525
-57.202
-57.974
-58.835
-59.78
-60.801
-61.892
-63.046
-64.256
-65.514
-66.811
-68.14
-69.493
-70.859
-72.232
-73.602
-74.96
-76.299
-77.612
-78.889
-80.125
-81.313
-82.446
-83.519
-84.525
-85.461
-86.322
-87.104
-87.803
-88.417
-88.945
-89.385
-89.736
-89.998
-90.173
-90.262
-90.267
-90.191
-90.038
-89.813
-89.519
-89.164
-88.751
-88.288
-87.782
-87.24
-86.669
-86.076
-85.469
-84.856
-84.245
-83.642
-83.056
-82.494
-81.962
-81.468
-81.017
-80.616
-80.27
-79.983
-79.761
-79.606
-79.522
-79.511
-79.574
-79.712
-79.924
-80.208
-80.562
-80.983
-81.466
-82.005
-82.595
-83.229
-83.898
-84.596
-85.312
-86.038
-86.764
-87.479
-88.173
-88.836
-89.456
-90.024
-90.528
-90.958
-91.304
-91.556
-91.705
-91.742
-91.658
-91.445
-91.098
-90.609
-89.973
-89.186
-88.246
-87.151
-85.901
-84.498
-82.944
-81.244
-79.404
-77.434
-75.341
-73.136
-70.829
-68.434
-65.963
-63.429
-60.847
-58.229
-55.593
-52.953
-50.327
-47.732
-45.183
-42.699
-40.293
-37.983
-35.782
-33.704
-31.759
-29.957
-28.307
-26.82
-25.511
-24.388
-23.454
-22.708
-22.149
-21.77
-21.562
-21.509
-21.586
-21.77
-22.042
-22.386
-22.795
-23.257
-23.755
-24.265
-24.763
-25.226
-25.652
-26.036
-26.371
-26.66
-26.921
-27.188
-27.52
-27.971
-28.567
-29.333
-30.29
-31.463
-32.901
-34.65
-36.739
-39.206
-42.078
-45.354
-49.028
-53.034
-57.216
-61.391
-65.344
-68.823
-71.6
-73.496
-74.37
-74.198
-73.087
-71.167
-68.635
-65.77
-62.883
-60.235
-58.004
-56.22
-54.734
-53.4
-51.715
-48.601
-42.816
-33.021
-18.74
-1.155
18.139
37.531
56.534
77.569
104.167
139.93
187.168
243.137
300.586
348.974
375.805
372.205
335.202
267.499
177.574
74.817
-34.146
-145.222
-257.348
-369.168
-475.655
-569.344
-641.483
-685.238
-698.831
-684.754
-648.437
-596.052
-532.898
-463.963
-394.061
-327.96
-269.638
-220.514
-179.739
-144.98
-113.668
-85.149
-60.153
-39.855
-25.396
-16.468
-11.803
-10.089
-9.751
-9.67
-9.606
-9.265
-8.874
-9.11
-9.185
-8.205
-5.167
1.692
11.742
22.867
32.819
38.465
38.654
35.133
30.543
27.829
29.208
34.049
39.888
44.926
47.522
47.547
47.06
47.215
48.792
52.354
56.838
61.52
66.163
70.253
73.876
77.192
80.067
82.523
84.579
86.199
87.438
88.382
89.083
89.594
89.974
90.263
90.49
90.703
90.952
91.283
91.752
92.402
93.261
94.354
95.7
97.312
99.203
101.379
103.838
106.58
109.606
112.915
116.508
120.384
124.536
128.96
133.645
138.577
143.742
149.121
154.69
160.424
166.291
172.257
178.286
184.346
190.403
196.426
202.385
208.254
214.002
219.598
225.02
230.254
235.295
240.143
244.805
249.284
253.595
257.761
261.795
265.707
269.504
273.179
276.721
280.117
283.349
286.403
289.252
291.851
294.139
296.043
297.485
298.401
298.718
298.349
297.226
295.29
292.482
288.77
284.125
278.518
271.936
264.366
255.807
246.3
235.91
224.729
212.86
200.391
187.428
174.095
160.513
146.798
133.078
119.461
106.064
93.027
80.473
68.52
57.286
46.842
37.231
28.477
20.584
13.558
7.395
2.064
-2.473
-6.254
-9.335
-11.77
-13.632
-15.03
-16.06
-16.817
-17.398
-17.868
-18.278
-18.67
-19.072
-19.503
-19.985
-20.519
-21.105
-21.745
-22.432
-23.153
-23.884
-24.575
-25.186
-25.688
-26.047
-26.25
-26.288
-26.155
-25.856
-25.406
-24.819
-24.11
-23.298
-22.396
-21.418
-20.385
-19.319
-18.251
-17.206
-16.199
-15.247
-14.359
-13.541
-12.798
-12.13
-11.527
-10.983
-10.493
-10.05
-9.651
-9.292
-8.964
-8.661
-8.378
-8.106
-7.842
-7.583
-7.324
-7.063
-6.799
-6.53
-6.257
-5.981
-5.702
-5.419
-5.132
-4.842
-4.549
-4.254
-3.957
-3.659
-3.362
-3.069
-2.781
-2.502
-2.234
-1.981
-1.744
-1.528
-1.335
-1.169
-1.032
-0.927
-0.855
-0.82
-0.821
-0.862
-0.942
-1.062
-1.222
-1.422
-1.661
-1.939
-2.255
-2.607
-2.995
-3.416
-3.869
-4.353
-4.864
-5.401
-5.961
-6.543
-7.145
-7.762
-8.395
-9.039
-9.692
-10.353
-11.018
-11.686
-12.354
-13.021
-13.685
-14.344
-14.997
-15.642
-16.279
-16.906
-17.524
-18.13
-18.725
-19.307
-19.875
-20.43
-20.969
-21.491
-21.996
-22.482
-22.948
-23.392
-23.814
-24.21
-24.579
-24.919
-25.228
-25.502
-25.739
-25.936
-26.09
-26.197
-26.255
-26.261
-26.21
-26.098
-25.924
-25.682
-25.371
-24.986
-24.525
-23.986
-23.366
-22.663
-21.878
-21.01
-20.059
-19.027
-17.915
-16.726
-15.465
-14.136
-12.743
-11.293
-9.792
-8.247
-6.663
-5.046
-3.405
-1.745
-0.076
1.595
3.26
4.909
6.534
8.125
9.673
11.175
12.628
14.03
15.378
16.667
17.888
19.036
20.11
21.108
22.027
22.869
23.636
24.34
25.004
25.644
26.273
26.89
27.483
28.053
28.61
29.168
29.75
30.364
30.998
31.659
32.37
33.114
33.856
34.51
34.925
35.027
34.81
34.263
33.404
32.249
30.799
29.154
27.493
25.864
24.214
22.44
20.389
18.019
15.368
12.407
9.105
5.602
2.153
-1.059
-3.986
-6.674
-9.105
-10.641
-10.331
-8.036
-4.601
-2.0
-2.465
-6.497
-12.56
-17.909
-19.673
-16.514
-9.212
0.873
12.927
27.383
46.533
73.097
108.837
154.02
206.812
263.244
317.683
363.299
392.452
398.025
375.523
324.162
247.324
152.046
45.654
-66.72
-182.005
-299.082
-415.504
-524.479
-616.696
-682.085
-713.419
-710.218
-677.328
-622.833
-555.692
-482.909
-409.644
-340.012
-276.945
-221.794
-174.437
-133.311
-96.318
-62.887
-33.677
-9.925
7.043
17.428
22.52
23.876
23.213
21.617
19.69
17.971
16.61
15.543
15.1
15.647
17.661
22.184
28.933
36.366
43.127
46.96
47.105
45.395
43.148
42.187
43.634
45.914
48.01
49.321
49.278
48.992
49.344
50.473
52.611
55.429
58.541
61.882
65.298
68.616
71.685
74.375
76.616
78.398
79.756
80.706
81.269
81.501
81.464
81.214
80.811
80.295
79.699
79.07
78.462
77.926
77.519
77.283
77.245
77.43
77.853
78.527
79.464
80.669
82.14
83.877
85.878
88.144
90.675
93.47
96.522
99.819
103.351
107.11
111.09
115.292
119.706
124.316
129.105
134.045
139.116
144.295
149.553
154.856
160.173
165.482
170.768
176.032
181.263
186.442
191.542
196.525
201.367
206.057
210.585
214.945
219.135
223.143
226.979
230.666
234.204
237.575
240.74
243.627
246.185
248.384
250.2
251.624
252.638
253.208
253.31
252.927
252.034
250.612
248.619
245.994
242.71
238.772
234.217
229.122
223.546
217.526
211.1
204.301
197.169
189.75
182.08
174.181
166.091
157.851
149.522
141.189
132.908
124.708
116.599
108.561
100.589
92.695
84.883
77.158
69.529
62.002
54.596
47.343
40.265
33.372
26.666
20.133
13.773
7.597
1.623
-4.125
-9.627
-14.87
-19.842
-24.526
-28.914
-33.001
-36.788
-40.29
-43.515
-46.467
-49.152
-51.569
-53.726
-55.632
-57.295
-58.728
-59.941
-60.947
-61.758
-62.391
-62.858
-63.172
-63.344
-63.381
-63.295
-63.095
-62.791
-62.393
-61.911
-61.354
-60.731
-60.053
-59.328
-58.564
-57.768
-56.947
-56.106
-55.252
-54.389
-53.522
-52.655
-51.791
-50.934
-50.087
-49.252
-48.433
-47.632
-46.85
-46.09
-45.353
-44.641
-43.955
-43.295
-42.664
-42.062
-41.49
-40.948
-40.437
-39.958
-39.512
-39.099
-38.719
-38.374
-38.062
-37.785
-37.542
-37.335
-37.163
-37.027
-36.927
-36.863
-36.837
-36.847
-36.894
-36.978
-37.099
-37.256
-37.449
-37.678
-37.941
-38.238
-38.568
-38.93
-39.321
-39.742
-40.192
-40.667
-41.169
-41.696
-42.246
-42.82
-43.417
-44.035
-44.675
-45.336
-46.015
-46.714
-47.431
-48.164
-48.914
-49.679
-50.459
-51.255
-52.065
-52.89
-53.73
-54.584
-55.452
-56.336
-57.234
-58.146
-59.074
-60.016
-60.974
-61.947
-62.935
-63.938
-64.955
-65.984
-67.024
-68.072
-69.126
-70.181
-71.233
-72.278
-73.312
-74.332
-75.334
-76.312
-77.265
-78.191
-79.087
-79.949
-80.772
-81.549
-82.275
-82.942
-83.544
-84.072
-84.517
-84.871
-85.129
-85.29
-85.351
-85.308
-85.156
-84.885
-84.489
-83.967
-83.322
-82.554
-81.671
-80.683
-79.609
-78.478
-77.315
-76.137
-74.955
-73.768
-72.577
-71.381
-70.186
-68.995
-67.819
-66.663
-65.531
-64.426
-63.339
-62.251
-61.138
-59.961
-58.686
-57.284
-55.753
-54.133
-52.501
-50.937
-49.484
-48.129
-46.842
-45.64
-44.519
-43.425
-42.249
-40.857
-39.238
-37.562
-36.055
-34.858
-34.073
-33.805
-34.221
-35.556
-37.905
-41.142
-45.022
-49.345
-53.971
-58.787
-63.635
-68.287
-72.589
-76.526
-80.216
-83.777
-87.286
-90.835
-94.514
-98.392
-102.515
-106.835
-111.17
-115.362
-119.257
-122.593
-125.134
-126.699
-127.105
-126.311
-124.43
-121.489
-117.562
-112.911
-107.797
-102.561
-97.628
-93.218
-89.426
-86.493
-84.548
-83.529
-83.343
-83.326
-82.246
-79.02
-72.505
-62.161
-48.743
-32.945
-15.222
4.907
29.749
61.78
102.742
152.549
208.349
265.027
315.697
352.766
368.849
358.343
319.111
253.094
166.248
66.471
-39.528
-148.137
-258.443
-369.988
-479.588
-579.543
-659.73
-711.286
-729.947
-717.868
-681.855
-630.02
-569.297
-504.424
-438.456
-373.852
-313.251
-258.923
-211.929
-172.354
-139.184
-111.082
-87.663
-68.923
-55.089
-46.416
-42.207
-41.196
-42.075
-43.491
-44.572
-45.103
-45.079
-44.488
-43.118
-40.19
-34.85
-26.854
-16.984
-7.365
-0.263
2.795
1.765
-1.174
-3.862
-4.735
-3.174
-0.757
1.329
2.62
2.847
3.126
4.205
6.116
9.014
12.544
16.355
20.41
24.532
28.54
32.35
35.84
38.936
41.641
43.956
45.88
47.444
48.692
49.668
50.425
51.01
51.46
51.812
52.106
52.383
52.687
53.065
53.56
54.209
55.038
56.067
57.311
58.782
60.487
62.43
64.605
67.007
69.63
72.471
75.528
78.801
82.287
85.98
89.866
93.934
98.171
102.558
107.072
111.68
116.341
121.02
125.696
130.349
134.969
139.544
144.057
148.496
152.852
157.112
161.274
165.327
169.253
173.05
176.728
180.31
183.842
187.349
190.83
194.275
197.655
200.936
204.083
207.042
209.743
212.127
214.139
215.737
216.9
217.589
217.749
217.315
216.199
214.343
211.723
208.324
204.154
199.239
193.615
187.352
180.551
173.297
165.664
157.71
149.474
141.013
132.398
123.705
115.024
106.427
97.968
89.694
81.648
73.851
66.317
59.029
51.943
45.033
38.29
31.71
25.307
19.085
13.041
7.173
1.479
-4.04
-9.383
-14.547
-19.537
-24.344
-28.958
-33.355
-37.502
-41.375
-44.962
-48.257
-51.26
-53.973
-56.397
-58.541
-60.418
-62.04
-63.419
-64.566
-65.486
-66.194
-66.704
-67.033
-67.2
-67.224
-67.12
-66.904
-66.591
-66.195
-65.728
-65.201
-64.621
-63.999
-63.343
-62.662
-61.966
-61.264
-60.562
-59.869
-59.19
-58.53
-57.895
-57.287
-56.707
-56.157
-55.638
-55.149
-54.689
-54.256
-53.849
-53.464
-53.1
-52.753
-52.419
-52.096
-51.778
-51.462
-51.144
-50.821
-50.489
-50.145
-49.785
-49.408
-49.011
-48.593
-48.151
-47.684
-47.192
-46.673
-46.128
-45.557
-44.96
-44.339
-43.694
-43.027
-42.342
-41.642
-40.928
-40.205
-39.478
-38.748
-38.022
-37.303
-36.596
-35.904
-35.233
-34.586
-33.967
-33.381
-32.831
-32.32
-31.85
-31.425
-31.047
-30.717
-30.436
-30.205
-30.024
-29.895
-29.815
-29.785
-29.802
-29.866
-29.974
-30.123
-30.311
-30.534
-30.789
-31.072
-31.379
-31.705
-32.047
-32.399
-32.757
-33.115
-33.47
-33.816
-34.149
-34.464
-34.757
-35.024
-35.262
-35.467
-35.637
-35.768
-35.86
-35.91
-35.917
-35.88
-35.799
-35.673
-35.504
-35.291
-35.035
-34.738
-34.402
-34.028
-33.619
-33.176
-32.702
-32.199
-31.671
-31.12
-30.548
-29.958
-29.354
-28.738
-28.115
-27.485
-26.853
-26.221
-25.591
-24.966
-24.348
-23.738
-23.136
-22.544
-21.963
-21.393
-20.835
-20.288
-19.752
-19.227
-18.713
-18.208
-17.711
-17.221
-16.738
-16.26
-15.788
-15.321
-14.86
-14.407
-13.962
-13.528
-13.108
-12.702
-12.313
-11.942
-11.596
-11.278
-10.994
-10.745
-10.534
-10.365
-10.242
-10.169
-10.147
-10.179
-10.265
-10.408
-10.61
-10.875
-11.203
-11.589
-12.023
-12.495
-12.992
-13.515
-14.068
-14.646
-15.247
-15.864
-16.481
-17.096
-17.717
-18.314
-18.834
-19.233
-19.465
-19.536
-19.516
-19.428
-19.243
-18.992
-18.751
-18.604
-18.664
-18.928
-19.262
-19.633
-20.127
-20.765
-21.496
-22.249
-22.884
-23.377
-23.892
-24.436
-24.828
-25.014
-25.03
-24.937
-24.909
-25.029
-25.168
-25.381
-25.939
-26.898
-28.187
-29.702
-31.206
-32.568
-33.901
-35.17
-36.144
-36.822
-37.373
-37.996
-39.005
-40.396
-41.572
-41.845
-40.473
-36.946
-31.438
-24.208
-15.534
-4.928
9.592
30.192
59.271
98.098
145.131
197.801
251.592
300.511
339.098
360.964
360.641
335.179
283.946
209.886
118.28
14.636
-96.864
-213.471
-332.834
-451.094
-560.599
-651.782
-715.281
-744.934
-741.178
-708.732
-655.218
-588.583
-514.092
-436.857
-361.251
-291.124
-230.542
-180.266
-139.213
-105.509
-76.625
-52.56
-33.807
-20.185
-11.553
-6.009
-2.041
0.479
1.8
1.469
-0.499
-3.052
-5.575
-7.622
-9.008
-10.062
-10.834
-11.168
-11.011
-10.264
-8.94
-7.128
-4.89
-2.33
0.366
2.961
5.334
7.473
9.436
11.319
13.214
15.204
17.41
19.989
22.994
26.368
30.009
33.757
37.459
41.006
44.29
47.195
49.674
51.724
53.367
54.664
55.679
56.456
57.053
57.526
57.921
58.289
58.677
59.127
59.686
60.395
61.278
62.358
63.647
65.15
66.875
68.822
70.986
73.364
75.959
78.771
81.804
85.059
88.532
92.214
96.098
100.176
104.441
108.892
113.518
118.307
123.244
128.314
133.499
138.779
144.123
149.495
154.855
160.17
165.413
170.569
175.621
180.548
185.334
189.956
194.407
198.694
202.817
206.773
210.568
214.202
217.697
221.094
224.418
227.687
230.907
234.056
237.118
240.08
242.915
245.597
248.087
250.319
252.245
253.825
255.001
255.726
255.929
255.513
254.408
252.551
249.89
246.407
242.095
236.937
230.955
224.171
216.607
208.333
199.402
189.862
179.799
169.289
158.425
147.341
136.153
124.978
113.949
103.164
92.702
82.653
73.07
64.011
55.547
47.706
40.515
34.001
28.155
22.97
18.437
14.504
11.113
8.2
5.667
3.444
1.484
-0.271
-1.859
-3.324
-4.732
-6.12
-7.511
-8.932
-10.39
-11.896
-13.468
-15.094
-16.748
-18.398
-19.992
-21.494
-22.891
-24.165
-25.306
-26.302
-27.131
-27.788
-28.279
-28.609
-28.784
-28.811
-28.688
-28.428
-28.057
-27.598
-27.084
-26.538
-25.972
-25.398
-24.827
-24.268
-23.729
-23.213
-22.714
-22.231
-21.764
-21.313
-20.879
-20.462
-20.054
-19.651
-19.247
-18.839
-18.424
-18.0
-17.564
-17.117
-16.658
-16.189
-15.713
-15.234
-14.751
-14.265
-13.778
-13.292
-12.808
-12.327
-11.852
-11.383
-10.923
-10.476
-10.043
-9.629
-9.235
-8.866
-8.523
-8.211
-7.933
-7.69
-7.488
-7.327
-7.211
-7.143
-7.124
-7.157
-7.242
-7.382
-7.577
-7.828
-8.133
-8.494
-8.909
-9.378
-9.898
-10.469
-11.088
-11.754
-12.465
-13.217
-14.007
-14.834
-15.694
-16.583
-17.497
-18.433
-19.387
-20.354
-21.332
-22.314
-23.298
-24.28
-25.255
-26.22
-27.171
-28.104
-29.016
-29.904
-30.764
-31.595
-32.392
-33.154
-33.88
-34.566
-35.212
-35.817
-36.379
-36.898
-37.374
-37.807
-38.196
-38.543
-38.847
-39.11
-39.334
-39.518
-39.665
-39.778
-39.856
-39.904
-39.923
-39.915
-39.884
-39.831
-39.759
-39.671
-39.57
-39.457
-39.337
-39.211
-39.081
-38.95
-38.819
-38.691
-38.568
-38.45
-38.339
-38.234
-38.138
-38.049
-37.968
-37.894
-37.825
-37.761
-37.699
-37.638
-37.575
-37.51
-37.438
-37.358
-37.265
-37.158
-37.032
-36.883
-36.708
-36.501
-36.257
-35.974
-35.646
-35.27
-34.844
-34.364
-33.823
-33.22
-32.548
-31.807
-30.992
-30.104
-29.139
-28.099
-26.985
-25.801
-24.554
-23.248
-21.886
-20.473
-19.011
-17.508
-15.976
-14.429
-12.881
-11.343
-9.818
-8.312
-6.84
-5.412
-4.043
-2.739
-1.483
-0.291
0.791
1.722
2.455
2.989
3.392
3.69
3.851
3.915
3.959
4.074
4.404
4.959
5.577
6.181
6.77
7.281
7.654
7.782
7.454
6.656
5.59
4.388
3.133
1.914
0.757
-0.252
-0.926
-1.237
-1.322
-1.31
-1.35
-1.578
-2.068
-2.91
-4.225
-6.084
-8.491
-11.394
-14.672
-18.136
-21.592
-24.903
-27.976
-30.686
-32.91
-34.571
-35.695
-36.451
-37.034
-37.527
-37.944
-38.333
-38.814
-39.546
-40.556
-41.721
-42.993
-44.434
-46.165
-48.311
-50.546
-51.944
-51.54
-48.376
-42.052
-33.348
-23.298
-12.436
0.083
16.888
41.847
78.079
125.872
183.163
244.499
302.086
348.575
375.88
377.331
350.1
294.297
214.237
117.435
10.392
-102.762
-219.747
-339.462
-458.269
-567.774
-657.405
-717.068
-740.979
-730.531
-692.57
-636.483
-570.898
-501.498
-431.595
-363.161
-298.277
-239.508
-188.302
-145.197
-109.804
-80.531
-56.991
-39.339
-26.96
-19.832
-16.787
-15.747
-16.047
-16.878
-17.77
-19.105
-20.543
-21.726
-22.298
-21.921
-20.366
-17.291
-13.397
-9.426
-6.046
-4.609
-4.949
-5.967
-7.005
-6.834
-4.95
-2.132
0.951
3.514
4.551
3.593
1.296
-0.98
-1.242
2.818
11.306
22.17
32.575
39.297
41.276
40.109
38.144
37.584
39.298
42.462
45.771
48.392
50.075
51.086
51.89
52.657
53.394
54.128
54.871
55.695
56.697
57.922
59.391
61.133
63.158
65.466
68.048
70.888
73.973
77.3
80.87
84.68
88.724
92.993
97.475
102.161
107.036
112.09
117.306
122.671
128.171
133.789
139.509
145.316
151.19
157.11
163.053
168.997
174.917
180.787
186.584
192.28
197.852
203.274
208.521
213.57
218.398
222.98
227.296
231.323
235.041
238.432
241.476
244.156
246.458
248.366
249.869
250.954
251.614
251.84
251.626
250.97
249.868
248.322
246.332
243.904
241.043
237.756
234.054
229.948
225.451
220.579
215.348
209.777
203.886
197.694
191.224
184.499
177.543
170.381
163.037
155.538
147.909
140.178
132.37
124.514
116.634
108.757
100.91
93.116
85.402
77.789
70.302
62.961
55.787
48.8
42.017
35.454
29.126
23.047
17.228
11.679
6.408
1.422
-3.274
-7.678
-11.787
-15.603
-19.126
-22.359
-25.308
-27.977
-30.373
-32.505
-34.382
-36.014
-37.411
-38.586
-39.55
-40.316
-40.898
-41.309
-41.562
-41.672
-41.652
-41.516
-41.277
-40.95
-40.546
-40.077
-39.557
-38.997
-38.406
-37.795
-37.174
-36.551
-35.934
-35.329
-34.743
-34.182
-33.65
-33.15
-32.687
-32.263
-31.88
-31.538
-31.24
-30.984
-30.771
-30.6
-30.47
-30.379
-30.325
-30.306
-30.321
-30.365
-30.438
-30.535
-30.654
-30.792
-30.947
-31.115
-31.293
-31.48
-31.672
-31.868
-32.065
-32.262
-32.456
-32.647
-32.833
-33.013
-33.187
-33.353
-33.512
-33.663
-33.805
-33.939
-34.065
-34.183
-34.293
-34.397
-34.493
-34.583
-34.668
-34.748
-34.823
-34.895
-34.965
-35.033
-35.099
-35.165
-35.232
-35.3
-35.37
-35.442
-35.517
-35.595
-35.678
-35.764
-35.853
-35.947
-36.045
-36.147
-36.252
-36.361
-36.472
-36.586
-36.702
-36.819
-36.937
-37.056
-37.175
-37.293
-37.409
-37.524
-37.635
-37.744
-37.848
-37.948
-38.042
-38.13
-38.212
-38.286
-38.352
-38.41
-38.459
-38.499
-38.529
-38.549
-38.559
-38.56
-38.552
-38.534
-38.508
-38.475
-38.435
-38.389
-38.338
-38.284
-38.228
-38.172
-38.117
-38.066
-38.019
-37.98
-37.95
-37.932
-37.928
-37.94
-37.97
-38.021
-38.094
-38.193
-38.32
-38.475
-38.662
-38.882
-39.137
-39.428
-39.757
-40.124
-40.529
-40.973
-41.455
-41.975
-42.531
-43.122
-43.744
-44.397
-45.077
-45.781
-46.505
-47.246
-47.998
-48.758
-49.52
-50.279
-51.028
-51.763
-52.476
-53.163
-53.816
-54.43
-54.998
-55.514
-55.971
-56.365
-56.689
-56.937
-57.105
-57.189
-57.184
-57.088
-56.899
-56.615
-56.235
-55.76
-55.193
-54.537
-53.795
-52.974
-52.078
-51.116
-50.094
-49.02
-47.9
-46.743
-45.553
-44.341
-43.117
-41.891
-40.672
-39.47
-38.295
-37.155
-36.062
-35.02
-34.031
-33.096
-32.219
-31.407
-30.671
-30.021
-29.46
-28.992
-28.618
-28.337
-28.142
-28.022
-27.955
-27.926
-27.925
-27.949
-28.002
-28.08
-28.171
-28.26
-28.325
-28.348
-28.309
-28.207
-28.057
-27.911
-27.857
-27.979
-28.354
-29.064
-30.168
-31.664
-33.49
-35.511
-37.544
-39.498
-41.372
-43.137
-44.805
-46.461
-48.226
-50.344
-53.084
-56.487
-60.419
-64.751
-69.278
-73.793
-78.14
-81.984
-85.015
-87.174
-88.51
-89.177
-89.434
-89.4
-89.108
-88.458
-86.791
-83.163
-76.57
-66.603
-54.144
-40.53
-26.741
-11.975
6.92
33.957
72.409
122.636
181.594
243.429
300.395
344.737
368.812
366.418
334.559
273.844
189.502
89.56
-18.547
-130.069
-243.499
-358.355
-471.725
-576.181
-661.283
-717.205
-738.547
-726.657
-688.116
-631.678
-565.46
-495.27
-425.134
-358.106
-296.854
-243.452
-198.444
-161.177
-130.095
-103.557
-81.118
-62.936
-49.386
-40.721
-36.175
-34.479
-34.355
-34.562
-34.447
-33.773
-32.48
-30.874
-28.865
-26.1
-22.237
-16.406
-8.853
-1.052
5.635
9.085
8.602
5.993
2.76
0.912
1.63
3.391
5.218
6.441
6.485
6.519
7.308
8.912
11.559
14.86
18.427
22.235
26.11
29.869
33.427
36.658
39.485
41.919
43.963
45.618
46.911
47.889
48.598
49.094
49.43
49.64
49.765
49.848
49.934
50.072
50.31
50.691
51.251
52.014
53.001
54.228
55.706
57.444
59.443
61.703
64.222
67.001
70.038
73.329
76.871
80.656
84.679
88.937
93.421
98.118
103.013
108.091
113.327
118.699
124.172
129.705
135.263
140.818
146.349
151.842
157.283
162.652
167.932
173.107
178.159
183.081
187.858
192.47
196.913
201.189
205.318
209.347
213.294
217.154
220.913
224.532
227.97
231.193
234.152
236.787
239.053
240.908
242.322
243.292
243.79
243.77
243.164
241.872
239.822
236.983
233.342
228.915
223.737
217.836
211.271
204.132
196.475
188.352
179.797
170.807
161.41
151.674
141.685
131.574
121.467
111.449
101.595
91.961
82.579
73.487
64.696
56.185
47.96
40.049
32.489
25.362
18.723
12.582
6.933
1.731
-3.089
-7.565
-11.729
-15.615
-19.235
-22.603
-25.724
-28.573
-31.147
-33.458
-35.536
-37.436
-39.209
-40.873
-42.437
-43.89
-45.197
-46.344
-47.316
-48.094
-48.674
-49.058
-49.25
-49.273
-49.148
-48.887
-48.493
-47.958
-47.273
-46.444
-45.482
-44.403
-43.236
-42.003
-40.724
-39.425
-38.123
-36.832
-35.564
-34.321
-33.101
-31.907
-30.743
-29.614
-28.528
-27.489
-26.496
-25.551
-24.651
-23.795
-22.982
-22.205
-21.463
-20.753
-20.073
-19.425
-18.808
-18.225
-17.674
-17.157
-16.671
-16.218
-15.796
-15.404
-15.04
-14.704
-14.394
-14.11
-13.852
-13.62
-13.412
-13.23
-13.072
-12.939
-12.832
-12.75
-12.694
-12.664
-12.661
-12.685
-12.736
-12.815
-12.922
-13.057
-13.219
-13.409
-13.626
-13.869
-14.138
-14.431
-14.747
-15.084
-15.441
-15.816
-16.206
-16.611
-17.028
-17.455
-17.89
-18.331
-18.775
-19.22
-19.664
-20.104
-20.538
-20.962
-21.376
-21.775
-22.159
-22.525
-22.871
-23.196
-23.497
-23.773
-24.022
-24.244
-24.437
-24.601
-24.736
-24.84
-24.915
-24.96
-24.977
-24.965
-24.927
-24.862
-24.772
-24.659
-24.524
-24.368
-24.194
-24.002
-23.794
-23.572
-23.338
-23.092
-22.838
-22.574
-22.304
-22.027
-21.744
-21.455
-21.16
-20.86
-20.552
-20.238
-19.916
-19.585
-19.243
-18.888
-18.52
-18.135
-17.731
-17.306
-16.856
-16.378
-15.869
-15.326
-14.746
-14.126
-13.463
-12.752
-11.992
-11.18
-10.313
-9.388
-8.404
-7.358
-6.25
-5.079
-3.846
-2.551
-1.196
0.216
1.681
3.195
4.753
6.35
7.978
9.631
11.301
12.98
14.661
16.335
17.995
19.631
21.236
22.799
24.313
25.769
27.159
28.476
29.712
30.864
31.93
32.91
33.802
34.604
35.311
35.92
36.433
36.85
37.172
37.403
37.548
37.618
37.636
37.616
37.573
37.513
37.433
37.334
37.225
37.113
37.014
36.938
36.884
36.861
36.896
36.979
37.076
37.119
36.987
36.588
35.88
34.793
33.25
31.246
28.815
26.076
23.244
20.46
17.78
15.304
13.152
11.366
9.936
8.715
7.433
5.948
4.238
2.238
-0.176
-3.089
-6.557
-10.453
-14.467
-18.434
-22.325
-26.066
-29.515
-32.201
-33.182
-31.612
-26.776
-18.464
-7.475
5.459
19.95
36.462
57.052
84.108
119.453
163.719
215.4
270.891
324.818
370.252
399.427
405.171
382.861
331.842
255.869
162.129
58.009
-51.307
-163.326
-277.698
-392.803
-503.158
-600.1
-673.237
-714.433
-721.374
-697.164
-649.18
-586.147
-514.871
-440.352
-366.156
-294.979
-229.905
-173.447
-126.436
-88.806
-59.368
-36.537
-20.079
-9.425
-3.567
-1.718
-1.697
-2.033
-2.579
-2.928
-3.657
-5.14
-6.665
-7.743
-7.423
-4.684
0.56
7.701
14.704
19.072
19.243
14.744
7.72
1.319
-2.383
-1.963
1.524
5.637
8.961
10.396
10.2
9.835
10.076
11.366
13.744
16.653
19.787
23.047
26.288
29.434
32.36
34.922
37.055
38.764
40.078
41.027
41.654
42.02
42.189
42.224
42.179
42.09
41.998
41.949
41.993
42.182
42.554
43.135
43.947
45.002
46.309
47.873
49.695
51.769
54.093
56.668
59.491
62.562
65.879
69.439
73.236
77.267
81.524
85.994
90.664
95.518
100.537
105.697
110.972
116.327
121.733
127.16
132.579
137.966
143.29
148.524
153.641
158.614
163.422
168.059
172.521
176.809
180.943
184.938
188.82
192.626
196.371
200.068
203.726
207.341
210.915
214.448
217.92
221.318
224.627
227.799
230.783
233.514
235.888
237.819
239.215
239.965
239.995
239.237
237.619
235.094
231.614
227.129
221.621
215.069
207.45
198.79
189.131
178.544
167.152
155.065
142.397
129.291
115.865
102.239
88.552
74.925
61.481
48.368
35.707
23.616
12.229
1.63
-8.123
-16.99
-24.984
-32.114
-38.389
-43.85
-48.535
-52.481
-55.754
-58.417
-60.537
-62.222
-63.562
-64.643
-65.565
-66.398
-67.192
-67.991
-68.812
-69.662
-70.556
-71.488
-72.451
-73.443
-74.445
-75.435
-76.389
-77.256
-77.995
-78.578
-78.969
-79.151
-79.117
-78.859
-78.385
-77.712
-76.856
-75.834
-74.671
-73.38
-71.984
-70.51
-68.984
-67.44
-65.909
-64.412
-62.971
-61.6
-60.312
-59.116
-58.018
-57.014
-56.104
-55.287
-54.561
-53.927
-53.383
-52.924
-52.547
-52.246
-52.016
-51.851
-51.75
-51.707
-51.719
-51.782
-51.892
-52.049
-52.25
-52.49
-52.767
-53.074
-53.406
-53.761
-54.132
-54.516
-54.906
-55.3
-55.694
-56.084
-56.468
-56.841
-57.203
-57.549
-57.879
-58.19
-58.482
-58.753
-59.003
-59.23
-59.437
-59.622
-59.788
-59.933
-60.06
-60.17
-60.264
-60.344
-60.412
-60.47
-60.52
-60.566
-60.61
-60.654
-60.702
-60.756
-60.818
-60.892
-60.98
-61.084
-61.205
-61.347
-61.51
-61.696
-61.905
-62.14
-62.399
-62.683
-62.992
-63.324
-63.678
-64.053
-64.445
-64.853
-65.272
-65.699
-66.13
-66.562
-66.988
-67.405
-67.806
-68.185
-68.538
-68.857
-69.137
-69.37
-69.55
-69.672
-69.729
-69.714
-69.622
-69.448
-69.185
-68.83
-68.379
-67.828
-67.172
-66.41
-65.541
-64.563
-63.477
-62.282
-60.98
-59.576
-58.073
-56.48
-54.801
-53.045
-51.219
-49.333
-47.395
-45.416
-43.403
-41.365
-39.312
-37.254
-35.204
-33.175
-31.18
-29.227
-27.327
-25.488
-23.719
-22.027
-20.412
-18.879
-17.431
-16.074
-14.82
-13.679
-12.651
-11.739
-10.94
-10.245
-9.647
-9.132
-8.686
-8.301
-7.966
-7.671
-7.412
-7.173
-6.937
-6.7
-6.437
-6.117
-5.745
-5.322
-4.884
-4.528
-4.306
-4.233
-4.343
-4.63
-5.07
-5.664
-6.321
-6.877
-7.303
-7.658
-8.082
-8.811
-10.022
-11.817
-14.359
-17.797
-22.088
-27.048
-32.292
-37.276
-41.58
-44.905
-47.001
-47.771
-47.321
-45.877
-43.842
-41.84
-40.391
-39.849
-40.481
-41.984
-43.398
-43.683
-41.606
-36.41
-28.617
-18.79
-7.141
6.975
25.961
52.637
89.048
135.721
190.885
250.281
307.507
354.699
383.164
385.27
356.903
298.438
214.631
113.364
1.802
-115.921
-237.596
-361.966
-485.111
-598.02
-689.444
-748.876
-770.626
-756.577
-714.274
-653.651
-583.539
-509.748
-435.519
-362.866
-294.02
-231.366
-176.411
-129.619
-90.218
-56.832
-28.926
-6.55
10.032
20.614
25.962
27.427
26.46
24.41
22.062
19.902
18.067
16.304
14.789
13.858
13.974
16.399
21.161
26.816
32.122
34.89
34.389
32.759
31.556
32.507
36.712
42.417
48.098
52.915
55.533
56.108
55.856
55.546
57.07
62.231
70.602
81.023
90.862
97.093
98.909
97.018
93.979
92.398
93.422
97.073
101.5
105.176
107.462
108.004
107.733
107.347
106.992
106.966
107.104
107.263
107.581
108.07
108.769
109.748
110.989
112.475
114.21
116.185
118.391
120.83
123.513
126.445
129.635
133.09
136.808
140.78
144.997
149.447
154.111
158.97
163.997
169.157
174.423
179.77
185.171
190.609
196.057
201.487
206.875
212.193
217.421
222.552
227.581
232.506
237.343
242.106
246.819
251.523
256.236
260.967
265.716
270.461
275.192
279.894
284.538
289.092
293.52
297.765
301.771
305.477
308.79
311.625
313.888
315.464
316.272
316.248
315.336
313.512
310.747
307.013
302.306
296.629
289.986
282.413
273.942
264.613
254.511
243.722
232.339
220.481
208.249
195.736
183.042
170.245
157.432
144.705
132.155
119.879
107.975
96.516
85.579
75.239
65.534
56.493
48.14
40.471
33.485
27.177
21.527
16.517
12.119
8.28
4.937
2.015
-0.566
-2.868
-4.957
-6.902
-8.752
-10.554
-12.343
-14.137
-15.954
-17.809
-19.708
-21.655
-23.646
-25.663
-27.675
-29.643
-31.532
-33.318
-34.981
-36.499
-37.858
-39.051
-40.077
-40.95
-41.68
-42.278
-42.756
-43.126
-43.407
-43.619
-43.789
-43.946
-44.113
-44.306
-44.54
-44.827
-45.174
-45.586
-46.063
-46.597
-47.184
-47.819
-48.497
-49.216
-49.97
-50.749
-51.548
-52.358
-53.172
-53.983
-54.788
-55.579
-56.354
-57.108
-57.839
-58.545
-59.226
-59.877
-60.498
-61.085
-61.636
-62.15
-62.624
-63.058
-63.451
-63.803
-64.116
-64.389
-64.626
-64.828
-64.998
-65.139
-65.254
-65.346
-65.419
-65.477
-65.524
-65.564
-65.601
-65.638
-65.681
-65.732
-65.796
-65.876
-65.975
-66.098
-66.246
-66.424
-66.633
-66.878
-67.159
-67.48
-67.842
-68.247
-68.697
-69.191
-69.732
-70.318
-70.951
-71.629
-72.351
-73.117
-73.924
-74.77
-75.654
-76.573
-77.523
-78.503
-79.508
-80.536
-81.582
-82.643
-83.715
-84.793
-85.872
-86.948
-88.017
-89.073
-90.113
-91.132
-92.125
-93.089
-94.018
-94.908
-95.755
-96.553
-97.299
-97.987
-98.613
-99.174
-99.666
-100.088
-100.438
-100.712
-100.906
-101.018
-101.045
-100.987
-100.843
-100.612
-100.297
-99.898
-99.421
-98.874
-98.263
-97.595
-96.873
-96.1
-95.284
-94.435
-93.572
-92.71
-91.863
-91.033
-90.225
-89.446
-88.705
-88.017
-87.386
-86.796
-86.251
-85.778
-85.436
-85.285
-85.34
-85.55
-85.853
-86.234
-86.666
-87.074
-87.318
-87.221
-86.71
-85.871
-84.859
-83.766
-82.658
-81.628
-80.852
-80.578
-80.919
-81.771
-82.901
-84.116
-85.31
-86.394
-87.219
-87.584
-87.401
-86.777
-85.989
-85.296
-84.819
-84.636
-84.841
-85.52
-86.706
-88.283
-89.944
-91.433
-92.651
-93.549
-94.108
-94.33
-94.193
-93.807
-93.484
-93.462
-93.79
-94.447
-95.346
-96.436
-97.781
-99.36
-100.954
-102.357
-103.575
-104.729
-105.982
-107.423
-108.729
-109.191
-108.061
-104.467
-97.755
-88.118
-76.05
-62.219
-46.853
-28.539
-4.86
27.021
69.282
121.576
180.791
240.906
293.359
329.09
340.069
321.222
272.419
197.538
103.074
-4.062
-119.699
-241.497
-367.302
-493.318
-611.117
-709.764
-779.042
-812.174
-809.524
-777.003
-723.188
-656.962
-584.432
-509.842
-436.558
-367.565
-306.053
-253.561
-210.022
-174.082
-143.522
-117.542
-96.219
-79.896
-69.212
-63.567
-61.498
-61.566
-62.285
-62.733
-62.674
-62.174
-61.469
-60.45
-58.765
-55.966
-51.159
-44.546
-37.451
-30.995
-27.173
-26.93
-28.7
-31.058
-32.179
-30.401
-26.774
-22.924
-19.841
-18.754
-19.337
-19.945
-19.829
-18.329
-15.085
-10.966
-6.505
-1.94
2.264
6.124
9.698
12.851
15.593
17.936
19.853
21.39
22.618
23.585
24.355
24.988
25.53
26.014
26.478
26.964
27.516
28.186
29.021
30.055
31.314
32.817
34.576
36.603
38.905
41.482
44.33
47.447
50.828
54.467
58.361
62.502
66.882
71.497
76.334
81.375
86.603
91.998
97.539
103.2
108.947
114.736
120.529
126.294
132.005
137.648
143.204
148.65
153.963
159.124
164.121
168.952
173.607
178.069
182.33
186.392
190.275
194.02
197.653
201.177
204.574
207.821
210.893
213.766
216.404
218.761
220.773
222.395
223.594
224.354
224.649
224.426
223.613
222.124
219.891
216.882
213.076
208.456
203.012
196.758
189.724
181.978
173.591
164.601
155.035
144.917
134.289
123.234
111.851
100.249
88.53
76.784
65.115
53.641
42.467
31.663
21.279
11.336
1.863
-7.07
-15.395
-23.056
-30.015
-36.27
-41.831
-46.702
-50.906
-54.48
-57.491
-60.032
-62.178
-63.971
-65.448
-66.628
-67.546
-68.271
-68.856
-69.339
-69.755
-70.118
-70.447
-70.772
-71.098
-71.413
-71.684
-71.861
-71.914
-71.835
-71.618
-71.264
-70.768
-70.114
-69.301
-68.341
-67.244
-66.023
-64.685
-63.234
-61.684
-60.062
-58.399
-56.733
-55.091
-53.487
-51.937
-50.456
-49.052
-47.737
-46.513
-45.373
-44.316
-43.34
-42.445
-41.631
-40.893
-40.225
-39.617
-39.061
-38.551
-38.08
-37.641
-37.227
-36.832
-36.452
-36.084
-35.724
-35.371
-35.018
-34.661
-34.296
-33.919
-33.526
-33.113
-32.675
-32.21
-31.715
-31.188
-30.629
-30.036
-29.409
-28.749
-28.056
-27.332
-26.577
-25.794
-24.984
-24.151
-23.296
-22.423
-21.535
-20.635
-19.725
-18.81
-17.892
-16.975
-16.061
-15.154
-14.255
-13.369
-12.499
-11.647
-10.818
-10.013
-9.237
-8.492
-7.781
-7.105
-6.468
-5.87
-5.312
-4.795
-4.32
-3.887
-3.497
-3.149
-2.843
-2.579
-2.356
-2.173
-2.029
-1.923
-1.852
-1.816
-1.812
-1.838
-1.894
-1.976
-2.083
-2.211
-2.359
-2.523
-2.698
-2.88
-3.064
-3.245
-3.417
-3.574
-3.71
-3.82
-3.899
-3.943
-3.947
-3.908
-3.822
-3.684
-3.492
-3.239
-2.921
-2.53
-2.061
-1.507
-0.863
-0.126
0.709
1.646
2.686
3.831
5.081
6.439
7.907
9.495
11.205
13.035
14.976
17.016
19.135
21.319
23.55
25.803
28.061
30.313
32.554
34.794
37.042
39.298
41.552
43.787
45.984
48.14
50.256
52.332
54.384
56.422
58.463
60.545
62.688
64.889
67.126
69.348
71.493
73.528
75.43
77.187
78.798
80.247
81.523
82.631
83.559
84.293
84.804
85.03
84.933
84.517
83.805
82.864
81.773
80.579
79.317
78.024
76.712
75.396
74.079
72.718
71.286
69.773
68.182
66.552
64.916
63.256
61.541
59.709
57.68
55.41
52.866
50.001
46.787
43.23
39.389
35.418
31.542
27.992
24.976
22.7
21.397
21.269
22.451
24.952
28.566
32.94
37.733
42.582
47.047
50.777
53.525
55.135
56.076
57.473
60.503
66.466
76.073
88.809
104.021
121.373
141.463
166.119
197.744
238.028
286.615
341.683
398.708
450.831
490.996
511.023
504.52
469.463
406.857
321.777
221.356
110.735
-6.38
-127.299
-249.218
-365.499
-466.424
-541.924
-584.207
-591.385
-567.267
-519.221
-455.46
-382.856
-307.274
-233.357
-165.205
-106.08
-56.49
-15.336
19.508
50.541
77.904
100.5
117.409
127.402
131.279
131.287
128.51
124.094
117.783
107.81
94.489
78.971
63.977
54.044
51.541
57.401
70.135
85.521
99.89
109.856
114.108
113.979
111.452
109.259
108.998
110.508
113.157
115.839
117.772
119.185
120.227
120.957
122.057
123.709
126.231
130.148
134.646
139.044
142.805
145.214
146.708
147.755
148.502
149.269
149.924
150.312
150.528
150.596
150.574
150.546
150.528
150.548
150.67
150.939
151.384
152.033
152.907
154.024
155.402
157.055
158.982
161.19
163.684
166.473
169.563
172.956
176.647
180.633
184.909
189.472
194.321
199.448
204.839
210.481
216.356
222.442
228.715
235.139
241.672
248.277
254.917
261.555
268.165
274.713
281.163
287.487
293.651
299.633
305.422
311.009
316.394
321.59
326.612
331.486
336.249
340.919
345.507
350.021
354.455
358.804
363.063
367.208
371.221
375.075
378.719
382.098
385.14
387.743
389.811
391.241
391.916
391.754
390.684
388.631
385.547
381.386
376.113
369.719
362.203
353.561
343.827
333.057
321.331
308.782
295.538
281.736
267.529
253.049
238.431
223.824
209.364
195.187
181.423
168.178
155.554
143.667
132.596
122.398
113.1
104.683
97.126
90.404
84.474
79.299
74.824
70.975
67.676
64.842
62.394
60.264
58.381
56.662
55.041
53.47
51.915
50.371
48.832
47.288
45.739
44.184
42.636
41.116
39.65
38.27
36.999
35.852
34.842
33.985
33.287
32.747
32.351
32.076
31.896
31.79
31.734
31.704
31.668
31.593
31.445
31.186
30.786
30.22
29.465
28.503
27.318
25.9
24.244
22.351
20.222
17.857
15.259
12.432
9.38
6.113
2.64
-1.029
-4.881
-8.907
-13.094
-17.432
-21.909
-26.512
-31.232
-36.057
-40.976
-45.976
-51.043
-56.165
-61.328
-66.519
-71.725
-76.933
-82.131
-87.307
-92.451
-97.554
-102.605
-107.597
-112.522
-117.373
-122.143
-126.828
-131.422
-135.921
-140.323
-144.626
-148.827
-152.927
-156.924
-160.82
-164.614
-168.308
-171.903
-175.403
-178.808
-182.123
-185.35
-188.492
-191.554
-194.538
-197.449
-200.29
-203.065
-205.776
-208.428
-211.021
-213.56
-216.046
-218.481
-220.867
-223.205
-225.494
-227.737
-229.932
-232.08
-234.179
-236.228
-238.225
-240.168
-242.056
-243.885
-245.653
-247.358
-248.995
-250.562
-252.056
-253.472
-254.808
-256.06
-257.223
-258.295
-259.272
-260.151
-260.93
-261.605
-262.176
-262.64
-262.996
-263.243
-263.381
-263.41
-263.33
-263.144
-262.853
-262.46
-261.968
-261.38
-260.703
-259.942
-259.105
-258.199
-257.232
-256.211
-255.147
-254.049
-252.925
-251.782
-250.626
-249.465
-248.308
-247.162
-246.034
-244.931
-243.859
-242.824
-241.829
-240.879
-239.97
-239.1
-238.264
-237.457
-236.679
-235.932
-235.218
-234.536
-233.884
-233.257
-232.652
-232.058
-231.46
-230.84
-230.18
-229.471
-228.711
-227.896
-227.02
-226.077
-225.055
-223.944
-222.723
-221.362
-219.853
-218.218
-216.503
-214.796
-213.177
-211.695
-210.429
-209.477
-208.853
-208.523
-208.358
-208.122
-207.691
-207.042
-206.114
-204.835
-203.199
-201.253
-199.216
-197.471
-196.174
-195.327
-194.955
-195.082
-195.779
-197.1
-198.894
-200.847
-202.819
-204.812
-206.789
-208.633
-210.07
-210.596
-209.478
-205.967
-199.102
-188.195
-173.517
-155.793
-136.001
-114.724
-91.208
-63.601
-29.732
12.134
62.219
117.565
172.089
217.229
242.855
241.266
209.283
148.502
65.781
-30.83
-135.201
-243.234
-353.626
-464.749
-571.621
-666.889
-742.053
-790.251
-809.507
-802.219
-772.872
-726.727
-668.107
-600.59
-529.003
-458.892
-395.409
-341.775
-297.832
-260.912
-227.771
-196.878
-168.671
-144.695
-126.546
-114.145
-106.271
-101.467
-98.241
-95.809
-93.869
-92.154
-90.482
-88.946
-87.639
-86.3
-84.844
-82.768
-79.357
-75.171
-70.864
-67.162
-65.398
-65.313
-65.735
-65.967
-64.704
-61.594
-57.8
-53.906
-50.519
-48.063
-45.705
-42.871
-39.404
-35.079
-30.202
-25.116
-19.897
-14.704
-9.688
-4.949
-0.596
3.307
6.774
9.843
12.539
14.901
16.987
18.853
20.557
22.151
23.671
25.155
26.649
28.203
29.868
31.682
33.67
35.851
38.234
40.827
43.638
46.667
49.907
53.359
57.021
60.893
64.981
69.283
73.79
78.495
83.389
88.468
93.728
99.162
104.756
110.496
116.364
122.34
128.406
134.532
140.676
146.802
152.872
158.859
164.746
170.517
176.148
181.621
186.912
192.01
196.922
201.647
206.178
210.514
214.656
218.62
222.448
226.165
229.784
233.302
236.695
239.941
243.025
245.919
248.591
250.992
253.055
254.728
255.978
256.763
257.043
256.751
255.795
254.106
251.644
248.377
244.297
239.393
233.645
227.065
219.685
211.551
202.729
193.27
183.212
172.607
161.522
150.046
138.3
126.39
114.399
102.423
90.556
78.904
67.589
56.702
46.306
36.462
27.223
18.644
10.788
3.692
-2.624
-8.156
-12.928
-16.956
-20.255
-22.866
-24.845
-26.269
-27.233
-27.815
-28.07
-28.063
-27.854
-27.507
-27.081
-26.619
-26.148
-25.691
-25.265
-24.886
-24.567
-24.305
-24.082
-23.87
-23.626
-23.323
-22.945
-22.475
-21.895
-21.195
-20.368
-19.417
-18.36
-17.209
-15.975
-14.671
-13.309
-11.908
-10.493
-9.089
-7.726
-6.427
-5.208
-4.085
-3.068
-2.164
-1.379
-0.709
-0.146
0.317
0.684
0.962
1.158
1.278
1.333
1.331
1.283
1.198
1.084
0.949
0.801
0.645
0.489
0.336
0.191
0.057
-0.061
-0.158
-0.231
-0.275
-0.285
-0.26
-0.196
-0.09
0.059
0.252
0.489
0.77
1.093
1.456
1.858
2.295
2.764
3.263
3.786
4.33
4.89
5.463
6.043
6.626
7.208
7.783
8.349
8.899
9.432
9.942
10.425
10.88
11.301
11.686
12.032
12.336
12.598
12.813
12.982
13.103
13.175
13.199
13.175
13.104
12.986
12.825
12.622
12.38
12.103
11.794
11.457
11.097
10.719
10.327
9.927
9.524
9.123
8.73
8.351
7.991
7.656
7.351
7.081
6.852
6.67
6.539
6.463
6.448
6.496
6.612
6.799
7.061
7.399
7.814
8.31
8.886
9.544
10.281
11.097
11.989
12.954
13.988
15.086
16.24
17.445
18.694
19.977
21.287
22.614
23.948
25.28
26.601
27.901
29.17
30.4
31.58
32.7
33.753
34.73
35.623
36.424
37.125
37.722
38.214
38.6
38.882
39.058
39.123
39.078
38.926
38.673
38.323
37.885
37.366
36.781
36.156
35.516
34.881
34.264
33.666
33.09
32.545
32.041
31.6
31.234
30.944
30.736
30.621
30.602
30.659
30.733
30.72
30.513
30.026
29.2
28.006
26.403
24.413
22.13
19.673
17.206
14.882
12.774
10.924
9.418
8.241
7.279
6.472
5.718
4.935
4.156
3.387
2.536
1.606
0.721
-0.062
-0.737
-1.355
-2.062
-2.94
-3.621
-3.353
-1.436
2.986
10.332
20.046
31.69
44.967
60.182
79.292
104.666
138.373
181.563
233.155
289.925
346.398
395.194
428.186
437.547
418.344
369.934
295.63
202.513
97.813
-13.792
-129.21
-247.037
-364.302
-473.444
-565.014
-629.461
-660.472
-658.599
-629.087
-579.542
-517.941
-450.279
-381.155
-314.839
-254.827
-202.954
-159.285
-121.987
-88.473
-57.824
-30.525
-7.891
8.549
18.891
24.304
26.191
26.179
25.213
23.729
22.233
20.835
19.326
17.979
17.217
17.599
20.408
25.824
32.451
38.744
42.46
42.351
39.882
37.074
35.967
38.174
42.82
47.981
52.334
54.797
55.668
56.284
57.398
59.449
62.471
65.943
69.57
73.234
76.768
80.089
83.092
85.652
87.728
89.336
90.506
91.278
91.705
91.845
91.759
91.507
91.135
90.685
90.201
89.734
89.341
89.068
88.947
89.003
89.257
89.724
90.418
91.348
92.513
93.913
95.552
97.434
99.561
101.934
104.547
107.392
110.46
113.742
117.235
120.933
124.827
128.896
133.118
137.472
141.94
146.502
151.131
155.794
160.465
165.126
169.768
174.385
178.958
183.461
187.856
192.108
196.195
200.106
203.833
207.364
210.687
213.794
216.692
219.391
221.883
224.133
226.087
227.692
228.921
229.765
230.234
230.334
230.064
229.41
228.36
226.905
225.025
222.689
219.845
216.44
212.464
207.945
202.941
197.504
191.666
185.434
178.803
171.774
164.345
156.527
148.334
139.794
130.965
121.932
112.81
103.706
94.69
85.8
77.045
68.441
60.018
51.825
43.913
36.341
29.176
22.478
16.301
10.672
5.581
0.987
-3.182
-6.992
-10.484
-13.683
-16.596
-19.234
-21.61
-23.746
-25.665
-27.401
-29.006
-30.53
-32.018
-33.498
-34.971
-36.417
-37.8
-39.088
-40.261
-41.305
-42.221
-43.01
-43.679
-44.239
-44.702
-45.073
-45.345
-45.513
-45.569
-45.518
-45.371
-45.15
-44.882
-44.592
-44.304
-44.037
-43.806
-43.619
-43.481
-43.394
-43.352
-43.356
-43.408
-43.508
-43.661
-43.866
-44.121
-44.423
-44.767
-45.145
-45.553
-45.982
-46.427
-46.883
-47.348
-47.817
-48.29
-48.764
-49.237
-49.707
-50.171
-50.623
-51.062
-51.483
-51.882
-52.257
-52.603
-52.92
-53.203
-53.452
-53.665
-53.839
-53.975
-54.071
-54.127
-54.141
-54.114
-54.045
-53.936
-53.785
-53.595
-53.365
-53.096
-52.791
-52.449
-52.073
-51.664
-51.223
-50.752
-50.253
-49.728
-49.178
-48.606
-48.013
-47.403
-46.778
-46.141
-45.494
-44.842
-44.187
-43.531
-42.879
-42.233
-41.597
-40.974
-40.367
-39.778
-39.213
-38.673
-38.161
-37.681
-37.236
-36.828
-36.459
-36.132
-35.849
-35.612
-35.422
-35.281
-35.189
-35.148
-35.158
-35.219
-35.329
-35.489
-35.697
-35.951
-36.25
-36.591
-36.971
-37.387
-37.835
-38.311
-38.81
-39.328
-39.859
-40.398
-40.937
-41.472
-41.996
-42.502
-42.984
-43.434
-43.847
-44.216
-44.534
-44.794
-44.99
-45.117
-45.168
-45.138
-45.022
-44.815
-44.515
-44.117
-43.619
-43.019
-42.316
-41.51
-40.599
-39.586
-38.471
-37.258
-35.948
-34.547
-33.059
-31.492
-29.853
-28.152
-26.397
-24.599
-22.77
-20.919
-19.059
-17.198
-15.344
-13.505
-11.693
-9.917
-8.185
-6.506
-4.885
-3.327
-1.838
-0.419
0.927
2.205
3.42
4.577
5.678
6.722
7.702
8.615
9.464
10.252
10.981
11.652
12.265
12.823
13.337
13.823
14.288
14.742
15.185
15.612
16.043
16.51
17.036
17.634
18.274
18.889
19.432
19.885
20.218
20.388
20.363
20.13
19.782
19.526
19.548
19.967
20.823
22.1
23.745
25.689
27.745
29.571
30.82
31.222
30.692
29.285
27.109
24.239
20.784
16.979
13.053
9.218
5.523
1.822
-1.993
-5.871
-9.713
-13.144
-15.27
-15.127
-11.593
-4.05
6.766
19.711
34.05
50.449
71.24
99.634
137.848
185.525
240.574
298.181
351.704
394.438
417.938
415.206
382.744
320.208
233.2
129.972
17.816
-97.248
-212.947
-327.953
-438.271
-537.712
-617.467
-669.361
-689.947
-680.549
-646.953
-596.937
-536.972
-471.434
-402.866
-333.285
-265.261
-202.103
-147.043
-101.658
-65.828
-38.12
-16.416
0.502
13.037
21.319
25.352
25.913
24.275
21.716
19.409
17.889
17.294
17.645
18.79
20.589
22.947
25.605
28.261
30.762
32.976
34.792
36.211
37.199
37.679
37.739
37.549
37.228
36.944
36.855
37.055
37.69
38.915
40.74
43.097
45.886
48.943
52.112
55.252
58.181
60.732
62.817
64.396
65.476
66.094
66.28
66.071
65.525
64.705
63.667
62.465
61.139
59.735
58.306
56.912
55.612
54.454
53.468
52.68
52.11
51.772
51.68
51.837
52.243
52.899
53.812
54.986
56.426
58.127
60.084
62.293
64.749
67.45
70.39
73.556
76.933
80.507
84.263
88.178
92.227
96.369
100.565
104.784
109.006
113.212
117.386
121.506
125.549
129.496
133.338
137.071
140.688
144.174
147.52
150.729
153.821
156.835
159.795
162.702
165.54
168.284
170.911
173.389
175.686
177.756
179.538
180.987
182.07
182.756
183.012
182.778
181.98
180.522
178.333
175.365
171.595
167.014
161.617
155.427
148.474
140.814
132.51
123.594
114.097
104.06
93.535
82.604
71.377
59.973
48.511
37.107
25.859
14.855
4.171
-6.151
-16.068
-25.555
-34.587
-43.099
-51.036
-58.368
-65.067
-71.132
-76.59
-81.47
-85.823
-89.724
-93.235
-96.404
-99.273
-101.853
-104.16
-106.215
-108.041
-109.681
-111.176
-112.549
-113.822
-115.014
-116.125
-117.151
-118.072
-118.837
-119.414
-119.783
-119.933
-119.872
-119.606
-119.133
-118.459
-117.585
-116.516
-115.262
-113.832
-112.229
-110.471
-108.575
-106.572
-104.503
-102.404
-100.298
-98.207
-96.146
-94.128
-92.167
-90.275
-88.454
-86.709
-85.047
-83.474
-81.996
-80.62
-79.346
-78.172
-77.094
-76.109
-75.214
-74.408
-73.686
-73.048
-72.49
-72.011
-71.611
-71.289
-71.042
-70.865
-70.753
-70.703
-70.708
-70.764
-70.864
-71.003
-71.176
-71.376
-71.6
-71.842
-72.098
-72.361
-72.629
-72.895
-73.158
-73.411
-73.653
-73.88
-74.088
-74.275
-74.44
-74.58
-74.694
-74.779
-74.837
-74.865
-74.864
-74.833
-74.773
-74.685
-74.569
-74.427
-74.261
-74.072
-73.863
-73.636
-73.394
-73.142
-72.88
-72.614
-72.346
-72.079
-71.817
-71.563
-71.321
-71.094
-70.885
-70.698
-70.535
-70.4
-70.295
-70.223
-70.187
-70.188
-70.228
-70.309
-70.432
-70.598
-70.807
-71.06
-71.357
-71.696
-72.077
-72.499
-72.96
-73.457
-73.989
-74.553
-75.146
-75.764
-76.404
-77.061
-77.732
-78.411
-79.095
-79.778
-80.455
-81.121
-81.769
-82.396
-82.994
-83.558
-84.083
-84.561
-84.987
-85.356
-85.661
-85.896
-86.055
-86.133
-86.124
-86.025
-85.829
-85.534
-85.134
-84.626
-84.007
-83.274
-82.424
-81.454
-80.363
-79.149
-77.812
-76.352
-74.768
-73.061
-71.232
-69.283
-67.217
-65.037
-62.746
-60.347
-57.846
-55.247
-52.558
-49.784
-46.935
-44.019
-41.044
-38.022
-34.963
-31.879
-28.78
-25.679
-22.587
-19.516
-16.479
-13.487
-10.552
-7.684
-4.897
-2.201
0.392
2.874
5.234
7.465
9.559
11.507
13.307
14.96
16.466
17.826
19.039
20.104
21.023
21.804
22.454
22.98
23.39
23.696
23.915
24.073
24.194
24.296
24.391
24.479
24.565
24.658
24.768
24.91
25.088
25.299
25.546
25.843
26.199
26.598
26.983
27.258
27.318
27.087
26.517
25.559
24.131
22.218
19.885
17.268
14.604
12.075
9.755
7.762
6.289
5.436
5.219
5.549
6.141
6.802
7.489
8.052
8.222
7.772
6.545
4.55
1.969
-1.106
-4.649
-8.505
-12.109
-14.476
-14.563
-11.368
-4.454
5.735
18.691
33.969
51.698
73.365
100.791
135.478
177.952
226.756
278.581
328.368
369.655
395.265
398.273
374.014
321.426
243.516
147.02
39.27
-74.346
-190.57
-308.332
-425.259
-534.847
-628.18
-695.08
-728.536
-728.577
-699.929
-650.92
-589.991
-522.059
-450.776
-378.836
-308.79
-244.526
-188.808
-142.708
-106.087
-77.484
-55.536
-39.476
-28.371
-20.89
-15.596
-11.006
-6.406
-2.346
0.626
2.245
2.703
3.03
3.992
5.71
7.967
10.474
13.042
15.448
17.718
19.456
19.922
19.505
18.769
18.359
19.641
22.5
25.759
28.711
30.16
29.87
29.241
29.147
30.346
33.325
37.258
41.535
45.88
49.864
53.555
56.983
59.979
62.537
64.642
66.282
67.525
68.427
69.031
69.403
69.61
69.701
69.717
69.691
69.662
69.673
69.776
70.025
70.457
71.096
71.964
73.072
74.433
76.057
77.945
80.094
82.503
85.171
88.101
91.296
94.761
98.493
102.481
106.714
111.176
115.849
120.713
125.743
130.904
136.167
141.502
146.886
152.297
157.715
163.12
168.489
173.797
179.028
184.176
189.24
194.224
199.136
203.984
208.786
213.571
218.362
223.172
228.003
232.843
237.668
242.45
247.16
251.771
256.234
260.494
264.479
268.115
271.338
274.089
276.296
277.877
278.751
278.853
278.139
276.589
274.194
270.955
266.865
261.929
256.178
249.659
242.437
234.585
226.148
217.174
207.731
197.899
187.775
177.452
167.006
156.498
145.996
135.577
125.333
115.359
105.716
96.455
87.612
79.221
71.348
64.057
57.382
51.345
45.945
41.172
37.028
33.512
30.597
28.237
26.362
24.887
23.756
22.922
22.34
21.965
21.726
21.555
21.408
21.251
21.062
20.822
20.508
20.097
19.594
19.017
18.399
17.783
17.194
16.643
16.146
15.713
15.363
15.113
14.962
14.902
14.925
15.022
15.19
15.425
15.708
16.015
16.323
16.601
16.83
16.998
17.092
17.103
17.025
16.853
16.593
16.252
15.837
15.355
14.809
14.204
13.549
12.855
12.129
11.384
10.626
9.864
9.106
8.357
7.624
6.912
6.222
5.558
4.921
4.316
3.744
3.21
2.715
2.261
1.851
1.486
1.166
0.892
0.663
0.476
0.33
0.221
0.148
0.105
0.089
0.096
0.121
0.158
0.203
0.251
0.295
0.331
0.354
0.358
0.338
0.289
0.207
0.088
-0.073
-0.28
-0.536
-0.844
-1.207
-1.628
-2.109
-2.652
-3.258
-3.928
-4.663
-5.461
-6.323
-7.248
-8.232
-9.275
-10.373
-11.524
-12.723
-13.966
-15.25
-16.569
-17.919
-19.295
-20.69
-22.101
-23.52
-24.942
-26.362
-27.773
-29.17
-30.546
-31.896
-33.215
-34.497
-35.736
-36.929
-38.069
-39.154
-40.179
-41.141
-42.037
-42.864
-43.619
-44.302
-44.912
-45.447
-45.908
-46.295
-46.609
-46.852
-47.025
-47.13
-47.171
-47.15
-47.07
-46.935
-46.749
-46.516
-46.241
-45.927
-45.58
-45.203
-44.802
-44.381
-43.945
-43.497
-43.042
-42.583
-42.123
-41.666
-41.214
-40.77
-40.333
-39.908
-39.493
-39.09
-38.7
-38.321
-37.953
-37.595
-37.243
-36.897
-36.552
-36.205
-35.852
-35.489
-35.112
-34.716
-34.298
-33.852
-33.374
-32.856
-32.292
-31.678
-31.008
-30.279
-29.488
-28.632
-27.711
-26.727
-25.681
-24.577
-23.419
-22.209
-20.951
-19.65
-18.317
-16.968
-15.619
-14.281
-12.958
-11.652
-10.366
-9.11
-7.898
-6.736
-5.614
-4.536
-3.53
-2.651
-1.95
-1.437
-1.067
-0.784
-0.584
-0.45
-0.309
-0.026
0.554
1.508
2.758
4.178
5.75
7.432
9.099
10.54
11.454
11.653
11.186
10.162
8.575
6.473
3.966
1.263
-1.28
-3.448
-5.236
-6.653
-7.635
-8.172
-8.271
-8.019
-7.619
-7.144
-6.62
-6.138
-5.853
-5.939
-6.576
-7.899
-10.022
-13.075
-17.078
-21.915
-27.354
-33.046
-38.642
-43.786
-48.115
-51.389
-53.529
-54.607
-54.827
-54.498
-53.956
-53.537
-53.502
-53.943
-54.544
-54.416
-52.465
-47.467
-38.805
-27.173
-13.65
0.813
16.591
36.164
62.896
99.637
146.826
201.8
258.999
310.815
349.453
367.391
358.91
321.7
257.085
170.531
69.741
-38.473
-150.031
-263.714
-378.813
-491.838
-594.803
-676.982
-728.79
-745.512
-729.134
-686.783
-627.436
-559.073
-487.41
-416.176
-347.995
-285.176
-229.411
-181.265
-140.518
-106.224
-77.331
-53.629
-35.161
-21.985
-14.074
-10.57
-10.177
-11.635
-13.737
-15.727
-17.263
-18.319
-18.961
-18.92
-18.101
-16.086
-12.45
-7.939
-3.068
1.466
4.749
7.343
9.71
12.082
14.967
17.908
20.497
22.739
24.501
26.068
27.772
29.716
32.062
34.833
37.937
41.298
44.789
48.259
51.564
54.578
57.184
59.315
60.965
62.151
62.914
63.309
63.389
63.212
62.838
62.318
61.695
61.017
60.33
59.684
59.136
58.728
58.495
58.467
58.663
59.1
59.792
60.745
61.958
63.437
65.183
67.2
69.491
72.055
74.888
77.984
81.335
84.931
88.763
92.819
97.088
101.555
106.206
111.027
116.0
121.107
126.326
131.634
137.005
142.415
147.837
153.243
158.604
163.893
169.082
174.142
179.047
183.767
188.276
192.547
196.554
200.271
203.675
206.743
209.452
211.783
213.716
215.236
216.326
216.973
217.165
216.894
216.152
214.934
213.238
211.062
208.409
205.283
201.69
197.639
193.141
188.209
182.859
177.107
170.972
164.475
157.639
150.487
143.045
135.338
127.395
119.243
110.912
102.431
93.831
85.142
76.394
67.619
58.845
50.104
41.425
32.836
24.364
16.037
7.881
-0.082
-7.828
-15.336
-22.587
-29.563
-36.248
-42.629
-48.693
-54.431
-59.834
-64.897
-69.615
-73.986
-78.01
-81.688
-85.023
-88.02
-90.685
-93.026
-95.053
-96.775
-98.204
-99.353
-100.236
-100.865
-101.257
-101.427
-101.391
-101.165
-100.765
-100.208
-99.509
-98.686
-97.754
-96.729
-95.624
-94.456
-93.236
-91.979
-90.697
-89.4
-88.099
-86.805
-85.525
-84.267
-83.039
-81.847
-80.695
-79.587
-78.528
-77.52
-76.564
-75.662
-74.814
-74.021
-73.281
-72.593
-71.956
-71.367
-70.823
-70.322
-69.86
-69.434
-69.04
-68.675
-68.334
-68.014
-67.711
-67.421
-67.14
-66.866
-66.595
-66.323
-66.048
-65.768
-65.479
-65.179
-64.868
-64.542
-64.202
-63.846
-63.473
-63.083
-62.676
-62.251
-61.809
-61.35
-60.875
-60.384
-59.879
-59.361
-58.832
-58.292
-57.744
-57.189
-56.629
-56.065
-55.501
-54.938
-54.377
-53.821
-53.272
-52.732
-52.202
-51.684
-51.18
-50.692
-50.22
-49.765
-49.33
-48.914
-48.519
-48.144
-47.791
-47.458
-47.148
-46.858
-46.59
-46.342
-46.114
-45.905
-45.714
-45.541
-45.383
-45.24
-45.11
-44.992
-44.884
-44.785
-44.692
-44.604
-44.518
-44.434
-44.35
-44.262
-44.17
-44.073
-43.968
-43.854
-43.731
-43.597
-43.45
-43.291
-43.119
-42.934
-42.735
-42.523
-42.297
-42.058
-41.807
-41.545
-41.273
-40.991
-40.701
-40.404
-40.102
-39.796
-39.487
-39.177
-38.867
-38.559
-38.255
-37.955
-37.662
-37.376
-37.097
-36.828
-36.568
-36.317
-36.075
-35.841
-35.614
-35.393
-35.177
-34.964
-34.752
-34.538
-34.32
-34.094
-33.858
-33.608
-33.341
-33.051
-32.736
-32.391
-32.012
-31.596
-31.138
-30.635
-30.084
-29.48
-28.821
-28.103
-27.325
-26.483
-25.577
-24.605
-23.569
-22.468
-21.305
-20.082
-18.803
-17.474
-16.098
-14.684
-13.238
-11.768
-10.282
-8.79
-7.302
-5.827
-4.375
-2.957
-1.583
-0.264
0.989
2.165
3.255
4.248
5.134
5.904
6.553
7.076
7.473
7.741
7.877
7.878
7.741
7.468
7.062
6.525
5.865
5.091
4.218
3.274
2.278
1.249
0.196
-0.883
-1.984
-3.096
-4.21
-5.309
-6.377
-7.416
-8.41
-9.329
-10.184
-11.008
-11.871
-12.895
-14.16
-15.698
-17.566
-19.797
-22.368
-25.225
-28.224
-31.157
-33.928
-36.514
-38.875
-41.025
-43.004
-44.844
-46.699
-48.75
-50.986
-53.288
-55.537
-57.566
-59.259
-60.602
-61.493
-61.83
-61.706
-61.363
-61.057
-61.033
-61.431
-61.913
-61.688
-59.85
-55.315
-47.554
-37.207
-25.163
-11.91
3.344
23.054
50.436
87.704
134.457
188.243
244.063
295.249
335.459
357.423
354.836
324.559
266.292
184.077
85.252
-23.396
-137.084
-252.963
-369.812
-484.453
-589.446
-675.488
-733.08
-756.105
-745.236
-705.934
-646.605
-576.089
-500.753
-425.239
-352.83
-285.92
-226.763
-176.216
-134.079
-99.378
-70.423
-46.548
-27.647
-13.707
-5.012
-0.847
0.211
-0.461
-1.512
-2.225
-2.511
-2.53
-2.621
-2.821
-2.984
-2.808
-1.387
1.526
5.084
8.146
8.775
5.692
0.283
-4.993
-7.685
-5.51
0.902
8.68
15.819
20.259
21.426
21.379
21.342
22.257
24.977
28.535
32.232
35.905
39.093
41.946
44.663
47.066
49.088
50.695
51.832
52.56
52.987
53.169
53.16
53.03
52.834
52.623
52.453
52.369
52.412
52.62
53.018
53.627
54.462
55.533
56.848
58.408
60.209
62.25
64.532
67.055
69.824
72.838
76.091
79.573
83.275
87.188
91.307
95.626
100.134
104.817
109.658
114.64
119.747
124.954
130.229
135.53
140.816
146.054
151.22
156.298
161.268
166.11
170.805
175.334
179.691
183.873
187.874
191.686
195.303
198.728
201.981
205.097
208.105
211.018
213.83
216.522
219.078
221.475
223.692
225.699
227.445
228.883
229.975
230.682
230.969
230.792
230.08
228.751
226.731
223.957
220.398
216.048
210.896
204.951
198.227
190.745
182.563
173.737
164.318
154.373
143.966
133.17
122.096
110.869
99.617
88.477
77.555
66.934
56.699
46.917
37.652
28.975
20.916
13.501
6.754
0.677
-4.725
-9.454
-13.549
-17.068
-20.08
-22.68
-24.942
-26.912
-28.648
-30.192
-31.591
-32.909
-34.181
-35.427
-36.673
-37.929
-39.211
-40.538
-41.901
-43.276
-44.632
-45.917
-47.098
-48.16
-49.088
-49.869
-50.494
-50.942
-51.211
-51.309
-51.242
-51.02
-50.648
-50.128
-49.475
-48.714
-47.873
-46.983
-46.071
-45.151
-44.238
-43.344
-42.479
-41.655
-40.874
-40.133
-39.431
-38.77
-38.15
-37.573
-37.04
-36.543
-36.078
-35.639
-35.221
-34.822
-34.438
-34.067
-33.704
-33.351
-33.005
-32.669
-32.342
-32.023
-31.709
-31.4
-31.092
-30.785
-30.476
-30.165
-29.848
-29.524
-29.194
-28.856
-28.51
-28.156
-27.794
-27.423
-27.045
-26.66
-26.268
-25.871
-25.47
-25.067
-24.663
-24.259
-23.857
-23.458
-23.065
-22.678
-22.298
-21.928
-21.567
-21.217
-20.879
-20.554
-20.244
-19.949
-19.67
-19.408
-19.165
-18.942
-18.739
-18.556
-18.395
-18.256
-18.138
-18.043
-17.97
-17.918
-17.887
-17.877
-17.887
-17.916
-17.963
-18.027
-18.107
-18.202
-18.309
-18.428
-18.558
-18.697
-18.843
-18.996
-19.154
-19.315
-19.479
-19.645
-19.811
-19.976
-20.14
-20.301
-20.459
-20.613
-20.762
-20.906
-21.045
-21.177
-21.303
-21.422
-21.534
-21.64
-21.739
-21.832
-21.918
-22.0
-22.076
-22.147
-22.214
-22.278
-22.339
-22.397
-22.453
-22.507
-22.559
-22.61
-22.659
-22.707
-22.752
-22.794
-22.832
-22.865
-22.89
-22.906
-22.911
-22.902
-22.876
-22.831
-22.764
-22.671
-22.549
-22.395
-22.205
-21.975
-21.702
-21.382
-21.011
-20.585
-20.1
-19.554
-18.943
-18.264
-17.513
-16.689
-15.789
-14.811
-13.754
-12.617
-11.399
-10.101
-8.723
-7.268
-5.739
-4.139
-2.473
-0.746
1.034
2.859
4.721
6.612
8.522
10.442
12.361
14.269
16.157
18.014
19.83
21.593
23.291
24.914
26.449
27.887
29.218
30.431
31.52
32.475
33.296
33.978
34.517
34.909
35.148
35.229
35.157
34.935
34.569
34.072
33.455
32.736
31.944
31.102
30.23
29.345
28.454
27.57
26.711
25.894
25.142
24.472
23.887
23.395
23.001
22.696
22.463
22.265
22.043
21.749
21.348
20.808
20.104
19.207
18.073
16.662
14.942
12.886
10.467
7.675
4.521
1.068
-2.539
-6.1
-9.399
-12.207
-14.289
-15.447
-15.532
-14.475
-12.398
-9.549
-6.167
-2.549
0.936
3.954
6.173
7.317
7.682
8.135
9.559
13.025
19.036
26.932
36.272
46.919
59.481
76.31
100.078
132.823
175.535
227.086
283.804
339.907
387.596
417.558
421.665
395.084
337.867
255.927
158.092
52.576
-55.609
-165.566
-277.664
-389.93
-495.765
-584.621
-645.795
-672.516
-664.603
-627.963
-571.602
-504.611
-434.199
-365.148
-300.688
-242.99
-192.591
-148.943
-110.634
-75.846
-44.291
-16.692
5.975
22.672
33.737
40.398
44.011
46.043
47.414
48.604
49.93
51.38
52.748
54.219
56.205
59.212
64.291
71.523
79.564
86.879
91.22
91.016
87.476
82.964
79.918
80.979
86.225
92.912
98.876
101.693
99.872
95.8
91.887
90.026
92.43
98.06
104.708
111.109
115.598
118.04
119.612
120.777
121.952
123.298
124.364
125.01
125.326
125.347
125.196
124.961
124.637
124.24
123.821
123.423
123.089
122.878
122.845
123.035
123.483
124.214
125.241
126.574
128.222
130.186
132.461
135.043
137.928
141.111
144.59
148.357
152.401
156.707
161.258
166.037
171.025
176.205
181.555
187.053
192.675
198.4
204.205
210.066
215.957
221.848
227.712
233.516
239.232
244.826
250.267
255.522
260.559
265.347
269.855
274.055
277.92
281.421
284.53
287.215
289.452
291.221
292.506
293.294
293.579
293.358
292.633
291.418
289.726
287.567
284.952
281.887
278.38
274.437
270.068
265.287
260.101
254.506
248.495
242.057
235.178
227.847
220.042
211.733
202.898
193.527
183.622
173.202
162.295
150.94
139.179
127.064
114.664
102.065
89.367
76.681
64.116
51.775
39.773
28.232
17.261
6.952
-2.624
-11.42
-19.403
-26.555
-32.873
-38.367
-43.071
-47.042
-50.353
-53.096
-55.356
-57.211
-58.748
-60.059
-61.227
-62.322
-63.399
-64.493
-65.633
-66.842
-68.133
-69.513
-70.969
-72.48
-74.013
-75.523
-76.976
-78.348
-79.613
-80.749
-81.738
-82.568
-83.239
-83.764
-84.152
-84.414
-84.564
-84.614
-84.586
-84.503
-84.394
-84.287
-84.205
-84.166
-84.184
-84.269
-84.427
-84.664
-84.977
-85.36
-85.806
-86.311
-86.871
-87.481
-88.135
-88.826
-89.544
-90.282
-91.033
-91.79
-92.546
-93.296
-94.036
-94.762
-95.471
-96.161
-96.829
-97.473
-98.09
-98.676
-99.228
-99.745
-100.224
-100.664
-101.061
-101.417
-101.732
-102.005
-102.238
-102.433
-102.591
-102.715
-102.805
-102.866
-102.9
-102.909
-102.897
-102.867
-102.822
-102.766
-102.702
-102.633
-102.562
-102.493
-102.428
-102.37
-102.323
-102.29
-102.272
-102.273
-102.295
-102.34
-102.411
-102.51
-102.639
-102.799
-102.992
-103.22
-103.483
-103.782
-104.118
-104.49
-104.899
-105.344
-105.825
-106.341
-106.891
-107.475
-108.091
-108.737
-109.412
-110.115
-110.843
-111.593
-112.365
-113.154
-113.96
-114.778
-115.606
-116.441
-117.279
-118.118
-118.953
-119.781
-120.598
-121.4
-122.181
-122.938
-123.666
-124.36
-125.014
-125.625
-126.186
-126.694
-127.144
-127.53
-127.849
-128.095
-128.263
-128.351
-128.353
-128.265
-128.084
-127.806
-127.428
-126.948
-126.364
-125.672
-124.872
-123.962
-122.942
-121.812
-120.571
-119.221
-117.764
-116.202
-114.539
-112.779
-110.927
-108.99
-106.975
-104.889
-102.742
-100.544
-98.302
-96.028
-93.73
-91.42
-89.106
-86.801
-84.515
-82.259
-80.045
-77.886
-75.792
-73.775
-71.844
-70.008
-68.277
-66.657
-65.151
-63.766
-62.507
-61.378
-60.387
-59.537
-58.824
-58.243
-57.789
-57.452
-57.22
-57.076
-56.996
-56.958
-56.947
-56.95
-56.961
-56.968
-56.951
-56.892
-56.774
-56.588
-56.342
-56.041
-55.677
-55.249
-54.776
-54.293
-53.867
-53.547
-53.344
-53.278
-53.395
-53.778
-54.535
-55.733
-57.359
-59.391
-61.838
-64.688
-67.878
-71.221
-74.407
-77.179
-79.395
-80.976
-81.806
-81.773
-80.828
-79.113
-76.981
-74.764
-72.673
-70.827
-69.4
-68.621
-68.648
-69.412
-70.571
-71.511
-71.352
-69.151
-63.775
-54.482
-41.463
-25.411
-7.422
12.201
34.619
62.005
96.951
140.553
191.64
245.958
296.098
333.573
349.598
337.883
296.874
229.026
141.094
41.071
-65.258
-174.293
-284.956
-396.051
-502.89
-597.809
-671.626
-716.792
-730.721
-715.763
-677.515
-622.52
-556.735
-485.596
-414.281
-347.905
-290.46
-242.926
-203.886
-170.686
-140.336
-112.347
-87.909
-67.675
-52.53
-41.778
-33.536
-27.211
-22.138
-18.062
-15.365
-13.613
-12.636
-12.382
-12.254
-11.629
-9.448
-4.799
1.913
9.0
13.976
14.83
11.339
5.412
0.48
-0.532
3.618
12.28
22.431
30.878
35.845
36.575
34.721
32.91
32.636
34.978
39.585
45.036
50.589
55.672
60.047
63.997
67.562
70.672
73.353
75.572
77.353
78.803
80.004
81.016
81.906
82.724
83.502
84.273
85.076
85.949
86.94
88.093
89.435
90.985
92.757
94.76
97.002
99.488
102.212
105.174
108.375
111.817
115.501
119.421
123.571
127.942
132.527
137.321
142.316
147.495
152.84
158.335
163.958
169.687
175.49
181.325
187.151
192.934
198.653
204.29
209.827
215.243
220.515
225.623
230.559
235.321
239.898
244.278
248.451
252.422
256.214
259.865
263.403
266.83
270.13
273.278
276.252
279.024
281.56
283.814
285.725
287.25
288.36
289.033
289.237
288.918
288.001
286.395
284.031
280.871
276.888
272.067
266.404
259.915
252.638
244.632
235.963
226.664
216.758
206.275
195.268
183.822
172.037
160.033
147.917
135.796
123.787
111.995
100.509
89.387
78.668
68.376
58.546
49.247
40.546
32.49
25.104
18.388
12.334
6.918
2.105
-2.163
-5.975
-9.402
-12.499
-15.296
-17.811
-20.066
-22.097
-23.961
-25.704
-27.358
-28.946
-30.485
-31.992
-33.475
-34.926
-36.31
-37.573
-38.681
-39.613
-40.367
-40.945
-41.346
-41.561
-41.583
-41.416
-41.069
-40.551
-39.869
-39.028
-38.039
-36.924
-35.718
-34.46
-33.181
-31.903
-30.64
-29.407
-28.216
-27.08
-26.007
-24.995
-24.046
-23.162
-22.348
-21.608
-20.945
-20.354
-19.832
-19.373
-18.973
-18.629
-18.338
-18.098
-17.904
-17.756
-17.652
-17.594
-17.58
-17.609
-17.677
-17.781
-17.918
-18.085
-18.279
-18.495
-18.731
-18.982
-19.248
-19.525
-19.81
-20.103
-20.399
-20.698
-20.999
-21.299
-21.597
-21.892
-22.183
-22.469
-22.75
-23.024
-23.292
-23.553
-23.806
-24.051
-24.287
-24.514
-24.732
-24.941
-25.138
-25.326
-25.503
-25.669
-25.824
-25.97
-26.105
-26.23
-26.345
-26.451
-26.548
-26.636
-26.715
-26.785
-26.848
-26.902
-26.948
-26.987
-27.02
-27.046
-27.066
-27.081
-27.091
-27.097
-27.1
-27.101
-27.1
-27.098
-27.098
-27.099
-27.104
-27.113
-27.128
-27.151
-27.182
-27.224
-27.278
-27.345
-27.428
-27.527
-27.644
-27.78
-27.938
-28.118
-28.322
-28.549
-28.802
-29.081
-29.387
-29.719
-30.078
-30.463
-30.875
-31.312
-31.774
-32.259
-32.766
-33.293
-33.836
-34.395
-34.964
-35.542
-36.124
-36.705
-37.283
-37.853
-38.41
-38.948
-39.463
-39.95
-40.403
-40.817
-41.186
-41.504
-41.766
-41.967
-42.101
-42.164
-42.152
-42.058
-41.88
-41.614
-41.256
-40.805
-40.257
-39.611
-38.866
-38.024
-37.086
-36.052
-34.927
-33.715
-32.42
-31.049
-29.61
-28.11
-26.558
-24.963
-23.337
-21.689
-20.029
-18.369
-16.717
-15.084
-13.483
-11.924
-10.419
-8.978
-7.611
-6.327
-5.136
-4.044
-3.053
-2.165
-1.382
-0.704
-0.14
0.307
0.64
0.858
0.962
0.96
0.857
0.67
0.421
0.126
-0.201
-0.557
-0.944
-1.356
-1.782
-2.213
-2.628
-3.022
-3.39
-3.696
-3.936
-4.138
-4.354
-4.689
-5.246
-6.054
-7.164
-8.648
-10.492
-12.653
-15.017
-17.335
-19.468
-21.415
-23.12
-24.546
-25.74
-26.703
-27.576
-28.697
-30.161
-31.879
-33.8
-35.812
-37.819
-39.889
-41.948
-43.708
-45.107
-46.298
-47.441
-48.756
-50.349
-51.801
-52.373
-51.404
-47.982
-41.51
-32.264
-20.468
-6.374
10.194
30.854
57.616
92.236
135.595
186.435
241.399
295.254
341.078
371.446
379.695
361.318
315.623
245.655
157.048
56.194
-52.483
-166.509
-284.136
-402.373
-514.167
-609.846
-679.333
-715.413
-717.545
-690.036
-640.789
-578.48
-509.039
-437.676
-368.225
-303.57
-246.949
-199.045
-159.005
-125.311
-95.669
-69.59
-47.673
-30.528
-18.829
-11.996
-8.624
-7.367
-7.004
-6.867
-6.699
-6.316
-5.631
-4.623
-3.257
-1.606
0.438
3.245
6.702
10.442
13.878
15.958
16.662
16.933
17.634
20.001
24.123
28.703
32.795
35.423
36.449
36.938
37.62
39.035
41.37
44.19
47.214
50.324
53.371
56.292
58.984
61.28
63.101
64.449
65.343
65.827
65.957
65.786
65.374
64.791
64.091
63.314
62.504
61.704
60.963
60.336
59.867
59.587
59.524
59.698
60.123
60.812
61.771
62.997
64.494
66.262
68.304
70.621
73.211
76.071
79.192
82.566
86.182
90.03
94.096
98.369
102.833
107.474
112.276
117.223
122.294
127.47
132.727
138.041
143.387
148.738
154.07
159.353
164.563
169.671
174.651
179.478
184.126
188.569
192.783
196.743
200.427
203.813
206.88
209.609
211.982
213.982
215.594
216.806
217.606
217.984
217.934
217.45
216.528
215.167
213.368
211.134
208.47
205.382
201.88
197.975
193.679
189.008
183.978
178.607
172.915
166.922
160.652
154.127
147.371
140.41
133.27
125.978
118.559
111.042
103.453
95.82
88.17
80.529
72.925
65.382
57.925
50.578
43.364
36.303
29.417
22.724
16.242
9.985
3.968
-1.796
-7.298
-12.527
-17.478
-22.145
-26.524
-30.613
-34.413
-37.924
-41.151
-44.097
-46.768
-49.171
-51.315
-53.209
-54.863
-56.29
-57.5
-58.507
-59.323
-59.962
-60.438
-60.765
-60.957
-61.028
-60.99
-60.858
-60.644
-60.362
-60.022
-59.636
-59.215
-58.769
-58.306
-57.836
-57.366
-56.902
-56.45
-56.015
-55.601
-55.212
-54.85
-54.517
-54.213
-53.94
-53.697
-53.483
-53.297
-53.138
-53.002
-52.888
-52.793
-52.714
-52.648
-52.591
-52.542
-52.496
-52.45
-52.403
-52.35
-52.29
-52.22
-52.138
-52.043
-51.933
-51.807
-51.664
-51.503
-51.325
-51.129
-50.917
-50.689
-50.447
-50.191
-49.923
-49.645
-49.36
-49.07
-48.776
-48.482
-48.19
-47.902
-47.622
-47.352
-47.095
-46.852
-46.626
-46.42
-46.234
-46.072
-45.934
-45.822
-45.737
-45.68
-45.651
-45.651
-45.68
-45.738
-45.824
-45.938
-46.078
-46.244
-46.435
-46.649
-46.883
-47.137
-47.407
-47.693
-47.99
-48.298
-48.612
-48.931
-49.252
-49.573
-49.89
-50.201
-50.503
-50.795
-51.073
-51.337
-51.583
-51.811
-52.018
-52.204
-52.367
-52.507
-52.623
-52.715
-52.782
-52.825
-52.843
-52.837
-52.808
-52.757
-52.685
-52.593
-52.482
-52.354
-52.212
-52.056
-51.889
-51.713
-51.53
-51.342
-51.152
-50.962
-50.773
-50.588
-50.408
-50.236
-50.073
-49.92
-49.778
-49.648
-49.53
-49.425
-49.33
-49.247
-49.173
-49.107
-49.048
-48.994
-48.942
-48.891
-48.837
-48.777
-48.708
-48.627
-48.53
-48.414
-48.274
-48.106
-47.906
-47.672
-47.398
-47.081
-46.716
-46.301
-45.832
-45.306
-44.72
-44.071
-43.358
-42.579
-41.734
-40.823
-39.848
-38.811
-37.714
-36.562
-35.36
-34.113
-32.827
-31.509
-30.165
-28.805
-27.435
-26.065
-24.702
-23.355
-22.034
-20.749
-19.508
-18.321
-17.195
-16.137
-15.155
-14.259
-13.454
-12.743
-12.126
-11.607
-11.187
-10.872
-10.664
-10.557
-10.547
-10.63
-10.799
-11.046
-11.36
-11.718
-12.103
-12.494
-12.881
-13.26
-13.624
-13.968
-14.284
-14.556
-14.777
-14.948
-15.063
-15.117
-15.117
-15.063
-14.992
-14.986
-15.117
-15.475
-16.145
-17.167
-18.588
-20.456
-22.733
-25.335
-28.146
-30.973
-33.664
-36.118
-38.194
-39.776
-40.859
-41.477
-41.693
-41.659
-41.467
-41.208
-41.06
-41.196
-41.67
-42.467
-43.635
-45.2
-47.199
-49.644
-52.13
-53.825
-53.898
-51.44
-45.869
-37.469
-26.547
-13.366
2.263
21.924
47.561
80.986
123.202
173.109
227.748
282.177
329.658
362.721
373.935
357.966
313.229
242.316
151.873
49.592
-58.611
-169.319
-281.948
-395.307
-504.239
-600.483
-673.403
-714.387
-721.632
-698.623
-653.337
-594.993
-529.423
-460.658
-391.352
-323.384
-260.159
-204.701
-158.413
-121.544
-92.415
-68.8
-49.607
-34.314
-23.074
-16.238
-13.068
-12.324
-12.787
-13.225
-13.102
-12.354
-10.799
-8.431
-5.295
-1.405
2.966
7.708
12.795
17.844
22.624
26.373
28.232
28.838
28.709
28.999
31.349
34.8
38.356
41.122
41.404
40.152
39.083
39.044
41.503
46.403
52.214
58.181
63.415
67.28
70.379
73.032
75.325
77.551
79.526
81.081
82.317
83.254
83.96
84.538
85.008
85.381
85.697
86.002
86.336
86.753
87.307
88.032
88.956
90.103
91.485
93.111
94.991
97.127
99.513
102.15
105.037
108.171
111.552
115.176
119.032
123.106
127.388
131.864
136.525
141.365
146.37
151.525
156.813
162.211
167.692
173.226
178.775
184.304
189.779
195.173
200.465
205.644
210.697
215.614
220.378
224.964
229.35
233.518
237.454
241.15
244.613
247.855
250.895
253.757
256.45
258.97
261.301
263.406
265.244
266.767
267.942
268.757
269.202
269.268
268.939
268.191
266.98
265.257
262.958
260.02
256.404
252.09
247.081
241.41
235.123
228.28
220.921
213.072
204.743
195.95
186.725
177.117
167.201
157.069
146.835
136.616
126.505
116.584
106.908
97.513
88.416
79.63
71.178
63.102
55.463
48.311
41.685
35.597
30.033
24.959
20.314
16.035
12.071
8.379
4.932
1.717
-1.273
-4.041
-6.598
-8.969
-11.198
-13.326
-15.386
-17.394
-19.35
-21.24
-23.031
-24.692
-26.2
-27.535
-28.691
-29.672
-30.484
-31.138
-31.648
-32.019
-32.248
-32.33
-32.263
-32.053
-31.714
-31.266
-30.738
-30.155
-29.543
-28.924
-28.313
-27.721
-27.157
-26.623
-26.121
-25.652
-25.221
-24.832
-24.492
-24.202
-23.965
-23.777
-23.637
-23.541
-23.483
-23.459
-23.466
-23.5
-23.561
-23.646
-23.756
-23.891
-24.05
-24.23
-24.43
-24.646
-24.877
-25.118
-25.367
-25.622
-25.879
-26.136
-26.391
-26.644
-26.891
-27.131
-27.363
-27.585
-27.796
-27.995
-28.182
-28.355
-28.516
-28.663
-28.797
-28.917
-29.025
-29.121
-29.204
-29.277
-29.339
-29.39
-29.432
-29.465
-29.489
-29.506
-29.516
-29.519
-29.518
-29.512
-29.504
-29.493
-29.482
-29.472
-29.463
-29.457
-29.455
-29.457
-29.464
-29.477
-29.498
-29.526
-29.563
-29.609
-29.664
-29.729
-29.804
-29.889
-29.984
-30.09
-30.206
-30.331
-30.467
-30.612
-30.765
-30.928
-31.098
-31.276
-31.461
-31.653
-31.85
-32.051
-32.256
-32.465
-32.675
-32.887
-33.099
-33.31
-33.519
-33.725
-33.928
-34.127
-34.32
-34.508
-34.688
-34.862
-35.029
-35.188
-35.339
-35.481
-35.616
-35.743
-35.862
-35.973
-36.077
-36.175
-36.267
-36.353
-36.435
-36.513
-36.587
-36.659
-36.728
-36.796
-36.863
-36.93
-36.997
-37.063
-37.131
-37.199
-37.268
-37.337
-37.407
-37.475
-37.541
-37.605
-37.664
-37.716
-37.76
-37.794
-37.815
-37.821
-37.809
-37.776
-37.72
-37.637
-37.524
-37.378
-37.195
-36.971
-36.704
-36.391
-36.027
-35.612
-35.14
-34.612
-34.023
-33.373
-32.659
-31.882
-31.039
-30.13
-29.157
-28.121
-27.023
-25.866
-24.654
-23.391
-22.083
-20.736
-19.357
-17.953
-16.53
-15.097
-13.665
-12.241
-10.833
-9.451
-8.103
-6.799
-5.549
-4.363
-3.248
-2.211
-1.26
-0.403
0.352
1.0
1.54
1.974
2.3
2.518
2.622
2.613
2.496
2.275
1.956
1.548
1.057
0.498
-0.106
-0.734
-1.364
-1.981
-2.582
-3.158
-3.704
-4.212
-4.661
-5.041
-5.348
-5.569
-5.704
-5.763
-5.744
-5.691
-5.679
-5.778
-6.094
-6.725
-7.692
-9.031
-10.776
-12.871
-15.272
-17.919
-20.616
-23.219
-25.685
-27.899
-29.793
-31.431
-32.752
-33.709
-34.436
-34.977
-35.336
-35.671
-36.059
-36.429
-36.867
-37.51
-38.369
-39.55
-41.128
-42.694
-43.469
-42.651
-39.2
-32.548
-23.304
-12.228
0.082
13.809
31.071
54.976
88.131
131.747
184.618
242.503
299.176
347.094
377.519
382.969
358.712
303.968
223.616
125.807
18.83
-91.314
-202.727
-315.565
-428.305
-535.316
-627.234
-693.488
-726.943
-727.177
-698.847
-650.17
-589.429
-521.683
-450.775
-379.58
-310.642
-247.724
-193.48
-148.72
-113.03
-84.489
-61.141
-42.195
-27.466
-17.149
-11.397
-9.434
-9.944
-11.511
-12.886
-13.472
-13.152
-12.143
-10.415
-7.622
-3.39
2.845
10.842
19.423
27.013
31.881
33.106
31.234
28.195
25.843
25.654
28.094
31.504
34.709
36.851
37.22
37.259
37.953
39.709
43.237
47.74
52.453
57.151
61.299
64.915
68.169
70.955
73.285
75.165
76.56
77.52
78.124
78.426
78.475
78.328
78.024
77.602
77.11
76.601
76.128
75.751
75.512
75.44
75.559
75.888
76.441
77.231
78.263
79.534
81.046
82.801
84.804
87.06
89.564
92.312
95.297
98.513
101.962
105.637
109.527
113.617
117.891
122.328
126.912
131.616
136.4
141.23
146.067
150.887
155.675
160.413
165.079
169.651
174.104
178.427
182.624
186.691
190.622
194.415
198.066
201.598
205.049
208.448
211.809
215.123
218.361
221.5
224.521
227.387
230.065
232.498
234.616
236.377
237.749
238.685
239.143
239.044
238.286
236.793
234.51
231.401
227.462
222.683
217.062
210.635
203.445
195.553
187.034
177.915
168.225
158.023
147.372
136.372
125.152
113.821
102.482
91.249
80.207
69.441
59.027
48.994
39.369
30.178
21.443
13.228
5.591
-1.447
-7.869
-13.683
-18.922
-23.616
-27.809
-31.58
-34.988
-38.083
-40.906
-43.465
-45.771
-47.85
-49.726
-51.447
-53.057
-54.577
-56.031
-57.437
-58.796
-60.108
-61.354
-62.484
-63.465
-64.278
-64.914
-65.379
-65.682
-65.82
-65.793
-65.605
-65.255
-64.753
-64.104
-63.31
-62.382
-61.337
-60.2
-59.01
-57.799
-56.586
-55.39
-54.222
-53.09
-52.006
-50.977
-50.0
-49.079
-48.215
-47.41
-46.67
-45.995
-45.383
-44.831
-44.332
-43.879
-43.469
-43.098
-42.762
-42.458
-42.182
-41.933
-41.712
-41.518
-41.349
-41.202
-41.075
-40.964
-40.868
-40.784
-40.709
-40.641
-40.577
-40.517
-40.459
-40.403
-40.349
-40.294
-40.24
-40.186
-40.134
-40.082
-40.033
-39.986
-39.944
-39.906
-39.876
-39.853
-39.84
-39.838
-39.848
-39.872
-39.912
-39.968
-40.042
-40.134
-40.246
-40.379
-40.533
-40.709
-40.908
-41.131
-41.379
-41.651
-41.948
-42.27
-42.617
-42.988
-43.383
-43.8
-44.24
-44.7
-45.181
-45.679
-46.196
-46.728
-47.274
-47.833
-48.404
-48.983
-49.57
-50.162
-50.757
-51.355
-51.952
-52.547
-53.138
-53.723
-54.3
-54.867
-55.423
-55.966
-56.494
-57.006
-57.5
-57.975
-58.429
-58.861
-59.271
-59.658
-60.02
-60.358
-60.671
-60.959
-61.221
-61.459
-61.671
-61.859
-62.023
-62.163
-62.281
-62.378
-62.455
-62.513
-62.553
-62.578
-62.59
-62.589
-62.578
-62.559
-62.534
-62.506
-62.477
-62.448
-62.423
-62.402
-62.39
-62.388
-62.397
-62.421
-62.461
-62.518
-62.595
-62.693
-62.812
-62.955
-63.12
-63.31
-63.524
-63.762
-64.023
-64.308
-64.614
-64.941
-65.286
-65.648
-66.024
-66.411
-66.806
-67.205
-67.604
-68.0
-68.389
-68.765
-69.125
-69.464
-69.778
-70.06
-70.308
-70.515
-70.677
-70.789
-70.847
-70.846
-70.783
-70.653
-70.453
-70.179
-69.829
-69.402
-68.894
-68.306
-67.635
-66.882
-66.049
-65.138
-64.15
-63.088
-61.958
-60.763
-59.513
-58.213
-56.872
-55.498
-54.102
-52.692
-51.281
-49.877
-48.49
-47.128
-45.799
-44.513
-43.281
-42.111
-41.013
-39.993
-39.061
-38.223
-37.485
-36.848
-36.311
-35.871
-35.526
-35.276
-35.127
-35.079
-35.133
-35.284
-35.53
-35.863
-36.271
-36.738
-37.241
-37.761
-38.289
-38.819
-39.347
-39.866
-40.368
-40.836
-41.259
-41.62
-41.888
-42.055
-42.14
-42.191
-42.298
-42.549
-42.993
-43.692
-44.728
-46.1
-47.764
-49.6
-51.363
-52.912
-54.241
-55.315
-56.11
-56.684
-57.074
-57.448
-58.172
-59.378
-60.971
-62.867
-64.907
-66.936
-68.979
-70.922
-72.436
-73.463
-74.177
-74.778
-75.628
-76.808
-77.778
-77.92
-76.583
-73.239
-67.971
-60.93
-52.132
-41.002
-25.919
-4.968
24.067
62.602
110.284
165.605
224.744
281.808
329.92
360.925
367.522
345.559
294.595
218.578
124.789
20.346
-89.797
-202.818
-317.847
-432.489
-540.21
-632.342
-699.034
-733.204
-734.46
-706.685
-657.456
-595.33
-525.937
-454.018
-383.112
-315.627
-254.749
-202.314
-158.495
-122.768
-93.37
-68.73
-48.444
-32.4
-20.778
-13.659
-10.206
-9.205
-9.525
-10.128
-10.441
-10.445
-10.3
-9.825
-8.665
-6.296
-1.684
5.0
12.347
19.156
23.336
24.088
23.127
21.651
21.362
23.401
26.255
28.924
30.827
31.378
31.663
32.584
34.301
37.06
40.55
44.395
48.545
52.862
57.183
61.362
65.243
68.734
71.816
74.512
76.836
78.801
80.453
81.843
83.031
84.075
85.014
85.882
86.716
87.562
88.464
89.472
90.63
91.968
93.511
95.274
97.272
99.514
102.006
104.75
107.74
110.975
114.455
118.18
122.145
126.346
130.774
135.423
140.289
145.364
150.635
156.087
161.699
167.452
173.325
179.288
185.304
191.337
197.35
203.318
209.228
215.061
220.797
226.416
231.893
237.218
242.395
247.423
252.298
257.02
261.591
266.032
270.389
274.691
278.956
283.177
287.323
291.373
295.302
299.078
302.666
306.013
309.048
311.727
314.01
315.852
317.203
317.984
318.085
317.424
315.939
313.599
310.403
306.349
301.444
295.722
289.225
282.013
274.16
265.703
256.682
247.154
237.184
226.881
216.382
205.807
195.276
184.885
174.705
164.806
155.247
146.057
137.262
128.88
120.927
113.456
106.509
100.108
94.271
88.971
84.164
79.8
75.811
72.138
68.741
65.579
62.627
59.876
57.312
54.921
52.687
50.566
48.52
46.523
44.549
42.594
40.665
38.778
36.97
35.275
33.712
32.295
31.023
29.889
28.888
28.013
27.254
26.614
26.093
25.687
25.397
25.214
25.124
25.105
25.127
25.159
25.179
25.17
25.117
25.016
24.858
24.64
24.363
24.026
23.627
23.166
22.638
22.043
21.385
20.665
19.892
19.072
18.211
17.315
16.388
15.434
14.458
13.461
12.444
11.408
10.354
9.286
8.205
7.117
6.021
4.923
3.823
2.725
1.631
0.542
-0.541
-1.617
-2.686
-3.747
-4.799
-5.844
-6.881
-7.911
-8.935
-9.953
-10.966
-11.976
-12.983
-13.989
-14.995
-16.002
-17.01
-18.022
-19.037
-20.055
-21.078
-22.105
-23.137
-24.172
-25.212
-26.257
-27.305
-28.357
-29.412
-30.471
-31.533
-32.596
-33.662
-34.728
-35.793
-36.857
-37.918
-38.976
-40.028
-41.075
-42.114
-43.145
-44.166
-45.176
-46.174
-47.159
-48.129
-49.084
-50.022
-50.943
-51.846
-52.73
-53.595
-54.439
-55.263
-56.066
-56.848
-57.608
-58.347
-59.063
-59.756
-60.427
-61.075
-61.699
-62.3
-62.878
-63.433
-63.964
-64.471
-64.955
-65.415
-65.851
-66.264
-66.654
-67.02
-67.364
-67.686
-67.985
-68.262
-68.519
-68.755
-68.971
-69.167
-69.346
-69.506
-69.65
-69.778
-69.89
-69.988
-70.073
-70.144
-70.205
-70.254
-70.294
-70.326
-70.349
-70.366
-70.377
-70.383
-70.384
-70.382
-70.376
-70.367
-70.354
-70.339
-70.321
-70.299
-70.273
-70.242
-70.205
-70.159
-70.104
-70.036
-69.954
-69.855
-69.735
-69.592
-69.423
-69.225
-68.993
-68.726
-68.418
-68.066
-67.668
-67.218
-66.714
-66.152
-65.529
-64.841
-64.086
-63.262
-62.365
-61.394
-60.347
-59.224
-58.023
-56.745
-55.389
-53.957
-52.451
-50.874
-49.23
-47.523
-45.758
-43.943
-42.085
-40.192
-38.275
-36.341
-34.402
-32.469
-30.552
-28.664
-26.816
-25.018
-23.283
-21.62
-20.043
-18.56
-17.183
-15.92
-14.782
-13.776
-12.91
-12.189
-11.612
-11.18
-10.893
-10.75
-10.753
-10.9
-11.186
-11.606
-12.155
-12.825
-13.606
-14.481
-15.423
-16.411
-17.429
-18.466
-19.523
-20.593
-21.661
-22.716
-23.739
-24.719
-25.662
-26.547
-27.339
-28.045
-28.695
-29.359
-30.162
-31.18
-32.433
-33.976
-35.868
-38.111
-40.669
-43.396
-46.037
-48.448
-50.581
-52.372
-53.751
-54.666
-55.097
-55.198
-55.265
-55.424
-55.674
-56.005
-56.445
-57.109
-58.156
-59.55
-61.08
-62.749
-64.693
-67.003
-69.732
-72.439
-74.119
-73.834
-70.668
-64.036
-54.3
-41.893
-27.065
-9.572
12.17
40.27
76.601
122.129
175.934
234.627
292.256
340.808
371.186
375.511
349.675
294.432
215.123
119.885
15.992
-92.432
-203.72
-317.486
-431.256
-537.856
-627.516
-690.218
-719.29
-714.753
-681.873
-628.825
-564.325
-495.197
-426.355
-361.661
-303.82
-253.852
-211.394
-174.795
-141.927
-112.271
-86.485
-65.626
-50.832
-41.828
-37.343
-35.896
-35.908
-36.359
-36.68
-36.708
-36.647
-36.573
-36.249
-34.815
-31.175
-24.651
-15.556
-5.99
1.432
4.64
2.516
-3.132
-8.962
-12.187
-10.332
-3.579
5.145
13.182
18.124
18.891
17.332
15.687
15.513
18.05
22.741
28.203
33.734
38.683
42.838
46.552
49.88
52.765
55.258
57.306
58.908
60.178
61.195
62.007
62.681
63.265
63.782
64.272
64.78
65.343
66.015
66.836
67.835
69.033
70.447
72.088
73.97
76.096
78.466
81.08
83.941
87.05
90.411
94.022
97.88
101.982
106.326
110.906
115.711
120.727
125.936
131.32
136.854
142.51
148.254
154.053
159.873
165.685
171.464
177.186
182.828
188.362
193.762
199.008
204.094
209.02
213.789
218.408
222.888
227.25
231.53
235.752
239.928
244.058
248.129
252.13
256.039
259.831
263.483
266.947
270.172
273.103
275.669
277.805
279.439
280.478
280.822
280.389
279.112
276.949
273.867
269.831
264.827
258.86
251.943
244.12
235.431
225.915
215.639
204.678
193.115
181.071
168.667
156.013
143.223
130.4
117.65
105.097
92.844
80.961
69.519
58.565
48.155
38.366
29.235
20.786
13.035
5.96
-0.456
-6.224
-11.38
-15.971
-20.052
-23.714
-27.02
-30.008
-32.722
-35.192
-37.465
-39.607
-41.658
-43.64
-45.577
-47.474
-49.341
-51.198
-53.04
-54.843
-56.581
-58.204
-59.684
-61.014
-62.182
-63.184
-64.012
-64.647
-65.087
-65.344
-65.427
-65.349
-65.118
-64.738
-64.227
-63.613
-62.926
-62.202
-61.467
-60.737
-60.027
-59.353
-58.726
-58.156
-57.648
-57.2
-56.812
-56.483
-56.216
-56.012
-55.87
-55.783
-55.746
-55.753
-55.797
-55.875
-55.983
-56.114
-56.266
-56.436
-56.622
-56.823
-57.038
-57.263
-57.496
-57.733
-57.97
-58.204
-58.432
-58.651
-58.857
-59.047
-59.221
-59.376
-59.511
-59.624
-59.715
-59.784
-59.829
-59.852
-59.851
-59.828
-59.783
-59.717
-59.631
-59.527
-59.405
-59.268
-59.116
-58.95
-58.773
-58.585
-58.387
-58.18
-57.967
-57.747
-57.523
-57.295
-57.065
-56.834
-56.604
-56.376
-56.151
-55.931
-55.716
-55.507
-55.305
-55.111
-54.926
-54.749
-54.583
-54.427
-54.281
-54.148
-54.026
-53.916
-53.818
-53.734
-53.663
-53.605
-53.562
-53.533
-53.519
-53.52
-53.538
-53.572
-53.623
-53.692
-53.78
-53.886
-54.011
-54.156
-54.321
-54.505
-54.71
-54.934
-55.178
-55.442
-55.726
-56.028
-56.347
-56.684
-57.037
-57.405
-57.785
-58.177
-58.579
-58.988
-59.402
-59.818
-60.235
-60.648
-61.056
-61.453
-61.836
-62.202
-62.545
-62.862
-63.147
-63.396
-63.604
-63.766
-63.877
-63.932
-63.927
-63.856
-63.716
-63.503
-63.211
-62.837
-62.378
-61.83
-61.191
-60.459
-59.631
-58.707
-57.686
-56.567
-55.351
-54.039
-52.632
-51.133
-49.545
-47.872
-46.119
-44.292
-42.396
-40.441
-38.433
-36.383
-34.302
-32.2
-30.09
-27.983
-25.892
-23.83
-21.811
-19.846
-17.944
-16.119
-14.38
-12.739
-11.207
-9.792
-8.505
-7.354
-6.346
-5.488
-4.782
-4.226
-3.817
-3.553
-3.433
-3.46
-3.633
-3.947
-4.397
-4.977
-5.678
-6.488
-7.386
-8.343
-9.338
-10.352
-11.378
-12.412
-13.443
-14.457
-15.434
-16.352
-17.202
-17.964
-18.607
-19.134
-19.569
-19.967
-20.437
-21.059
-21.881
-22.972
-24.378
-26.081
-28.028
-30.065
-31.993
-33.727
-35.224
-36.425
-37.323
-37.922
-38.293
-38.679
-39.296
-40.159
-41.238
-42.475
-43.799
-45.253
-46.804
-48.225
-49.346
-50.215
-50.946
-51.681
-52.508
-53.095
-52.859
-51.306
-47.703
-41.455
-32.554
-20.897
-6.753
9.566
28.903
52.331
81.594
118.74
163.998
216.106
270.907
321.015
358.218
373.861
361.903
321.124
253.992
167.065
67.768
-38.768
-149.04
-261.682
-374.562
-481.747
-575.067
-645.286
-685.563
-694.666
-675.709
-634.897
-579.107
-514.054
-445.18
-377.418
-315.229
-261.95
-218.011
-181.803
-150.707
-122.254
-96.032
-72.929
-54.02
-40.146
-30.906
-25.086
-21.435
-18.812
-16.567
-14.48
-12.48
-10.661
-9.209
-7.868
-6.241
-3.867
0.239
5.897
11.847
16.941
19.158
17.901
14.943
11.707
10.093
11.155
13.348
15.65
17.392
18.025
18.638
19.954
22.012
25.007
28.585
32.391
36.394
40.425
44.299
47.911
51.162
53.995
56.426
58.476
60.149
61.473
62.507
63.308
63.929
64.424
64.828
65.176
65.519
65.905
66.387
67.017
67.83
68.849
70.095
71.582
73.32
75.316
77.573
80.084
82.848
85.866
89.138
92.664
96.438
100.452
104.695
109.162
113.846
118.741
123.832
129.099
134.526
140.094
145.78
151.553
157.372
163.197
168.995
174.743
180.426
186.024
191.518
196.886
202.107
207.175
212.088
216.837
221.408
225.793
229.996
234.037
237.956
241.78
245.512
249.137
252.632
255.976
259.143
262.099
264.796
267.174
269.188
270.808
272.011
272.766
273.019
272.697
271.708
269.986
267.49
264.19
260.071
255.123
249.362
242.823
235.563
227.649
219.115
209.982
200.283
190.067
179.414
168.424
157.21
145.876
134.525
123.273
112.222
101.46
91.045
81.015
71.391
62.204
53.52
45.402
37.894
31.02
24.783
19.175
14.173
9.747
5.84
2.369
-0.737
-3.531
-6.042
-8.287
-10.285
-12.069
-13.692
-15.198
-16.617
-17.971
-19.274
-20.545
-21.791
-23.006
-24.157
-25.193
-26.079
-26.796
-27.341
-27.716
-27.922
-27.95
-27.792
-27.455
-26.946
-26.276
-25.452
-24.477
-23.362
-22.129
-20.812
-19.448
-18.068
-16.692
-15.337
-14.015
-12.74
-11.523
-10.373
-9.289
-8.271
-7.322
-6.445
-5.646
-4.926
-4.282
-3.709
-3.201
-2.753
-2.364
-2.029
-1.744
-1.506
-1.314
-1.165
-1.06
-0.999
-0.977
-0.993
-1.042
-1.121
-1.227
-1.358
-1.507
-1.673
-1.851
-2.04
-2.237
-2.44
-2.646
-2.854
-3.062
-3.269
-3.474
-3.676
-3.874
-4.067
-4.256
-4.44
-4.62
-4.796
-4.967
-5.136
-5.3
-5.463
-5.623
-5.781
-5.937
-6.093
-6.247
-6.402
-6.558
-6.716
-6.876
-7.04
-7.208
-7.381
-7.56
-7.746
-7.938
-8.138
-8.346
-8.562
-8.787
-9.02
-9.262
-9.513
-9.774
-10.044
-10.323
-10.611
-10.909
-11.216
-11.532
-11.858
-12.193
-12.537
-12.891
-13.254
-13.627
-14.009
-14.402
-14.804
-15.217
-15.641
-16.075
-16.521
-16.977
-17.445
-17.925
-18.417
-18.922
-19.441
-19.972
-20.518
-21.078
-21.653
-22.244
-22.85
-23.472
-24.11
-24.765
-25.436
-26.124
-26.828
-27.549
-28.286
-29.038
-29.807
-30.589
-31.386
-32.196
-33.018
-33.851
-34.693
-35.543
-36.399
-37.259
-38.121
-38.984
-39.844
-40.698
-41.545
-42.38
-43.201
-44.004
-44.785
-45.541
-46.267
-46.959
-47.613
-48.225
-48.791
-49.308
-49.771
-50.176
-50.519
-50.798
-51.009
-51.147
-51.211
-51.196
-51.102
-50.925
-50.664
-50.318
-49.885
-49.365
-48.758
-48.064
-47.285
-46.421
-45.474
-44.447
-43.344
-42.169
-40.926
-39.622
-38.265
-36.862
-35.422
-33.955
-32.468
-30.973
-29.478
-27.995
-26.534
-25.105
-23.718
-22.384
-21.112
-19.915
-18.804
-17.787
-16.873
-16.07
-15.384
-14.823
-14.393
-14.096
-13.932
-13.902
-14.008
-14.253
-14.639
-15.16
-15.812
-16.585
-17.47
-18.454
-19.523
-20.651
-21.816
-22.998
-24.175
-25.338
-26.476
-27.576
-28.631
-29.625
-30.54
-31.374
-32.116
-32.754
-33.305
-33.784
-34.205
-34.631
-35.127
-35.763
-36.655
-37.891
-39.502
-41.528
-43.984
-46.823
-50.012
-53.456
-56.938
-60.271
-63.32
-65.95
-68.099
-69.761
-70.856
-71.383
-71.5
-71.382
-71.216
-71.189
-71.379
-71.787
-72.504
-73.618
-75.087
-76.773
-78.428
-79.435
-78.789
-75.534
-68.584
-57.563
-43.472
-27.323
-9.929
9.122
32.525
63.259
103.463
153.294
209.48
266.23
316.14
351.081
363.801
349.356
306.314
237.517
149.405
49.747
-55.123
-162.194
-271.065
-381.378
-489.719
-588.002
-665.632
-713.374
-726.837
-708.153
-664.374
-604.081
-535.067
-463.448
-393.319
-327.993
-270.133
-220.426
-178.572
-143.26
-112.388
-85.448
-62.726
-44.673
-32.179
-24.88
-21.518
-20.786
-21.232
-21.907
-22.377
-22.526
-22.526
-22.435
-22.04
-20.702
-17.322
-11.24
-3.078
5.241
11.019
11.966
7.866
1.179
-4.464
-5.754
-1.131
7.508
16.52
22.92
24.765
22.97
20.447
19.17
20.473
24.279
29.037
33.839
38.176
41.773
44.925
47.727
50.068
51.949
53.343
54.25
54.761
54.961
54.907
54.666
54.298
53.841
53.331
52.812
52.33
51.939
51.688
51.606
51.719
52.046
52.602
53.4
54.45
55.751
57.308
59.124
61.205
63.553
66.171
69.053
72.193
75.582
79.212
83.079
87.179
91.504
96.042
100.778
105.693
110.763
115.957
121.242
126.582
131.944
137.303
142.639
147.94
153.193
158.387
163.504
168.516
173.398
178.128
182.689
187.068
191.266
195.292
199.162
202.898
206.504
209.972
213.274
216.367
219.2
221.717
223.878
225.663
227.055
228.048
228.626
228.77
228.444
227.594
226.159
224.063
221.258
217.725
213.468
208.521
202.933
196.772
190.087
182.907
175.25
167.12
158.531
149.514
140.124
130.44
120.565
110.628
100.738
90.977
81.407
72.063
62.964
54.115
45.535
37.257
29.329
21.824
14.801
8.301
2.342
-3.087
-8.025
-12.54
-16.69
-20.522
-24.07
-27.347
-30.359
-33.105
-35.59
-37.825
-39.84
-41.683
-43.399
-45.025
-46.583
-48.076
-49.489
-50.789
-51.947
-52.939
-53.751
-54.383
-54.839
-55.131
-55.272
-55.278
-55.157
-54.906
-54.522
-54.004
-53.358
-52.599
-51.748
-50.835
-49.888
-48.933
-47.993
-47.084
-46.218
-45.403
-44.643
-43.938
-43.29
-42.701
-42.177
-41.721
-41.336
-41.022
-40.775
-40.591
-40.465
-40.391
-40.363
-40.374
-40.421
-40.499
-40.605
-40.737
-40.893
-41.07
-41.264
-41.471
-41.686
-41.905
-42.124
-42.339
-42.544
-42.737
-42.914
-43.073
-43.211
-43.325
-43.414
-43.476
-43.51
-43.515
-43.491
-43.437
-43.355
-43.243
-43.104
-42.938
-42.747
-42.533
-42.296
-42.04
-41.766
-41.477
-41.174
-40.861
-40.538
-40.209
-39.875
-39.539
-39.202
-38.868
-38.538
-38.214
-37.899
-37.595
-37.303
-37.025
-36.762
-36.515
-36.286
-36.075
-35.882
-35.709
-35.556
-35.422
-35.308
-35.214
-35.139
-35.082
-35.042
-35.019
-35.012
-35.02
-35.04
-35.072
-35.115
-35.166
-35.225
-35.29
-35.359
-35.43
-35.503
-35.576
-35.647
-35.715
-35.778
-35.836
-35.888
-35.931
-35.966
-35.992
-36.007
-36.012
-36.006
-35.988
-35.959
-35.919
-35.867
-35.804
-35.731
-35.647
-35.554
-35.453
-35.344
-35.228
-35.106
-34.98
-34.851
-34.721
-34.589
-34.459
-34.331
-34.207
-34.087
-33.973
-33.866
-33.766
-33.675
-33.593
-33.52
-33.457
-33.404
-33.36
-33.325
-33.297
-33.277
-33.261
-33.249
-33.238
-33.225
-33.209
-33.185
-33.152
-33.105
-33.042
-32.958
-32.85
-32.714
-32.546
-32.341
-32.095
-31.803
-31.462
-31.067
-30.614
-30.099
-29.519
-28.87
-28.148
-27.352
-26.478
-25.524
-24.49
-23.372
-22.173
-20.891
-19.528
-18.088
-16.572
-14.986
-13.335
-11.625
-9.862
-8.055
-6.212
-4.34
-2.448
-0.546
1.358
3.254
5.129
6.973
8.774
10.52
12.199
13.799
15.31
16.72
18.02
19.203
20.262
21.191
21.982
22.627
23.119
23.454
23.633
23.657
23.532
23.265
22.865
22.35
21.743
21.061
20.32
19.531
18.7
17.839
16.966
16.095
15.245
14.42
13.617
12.836
12.083
11.359
10.652
9.927
9.123
8.194
7.12
5.88
4.433
2.697
0.578
-1.982
-4.978
-8.371
-12.163
-16.356
-20.899
-25.634
-30.312
-34.681
-38.59
-41.985
-44.739
-46.685
-47.721
-47.864
-47.319
-46.392
-45.285
-44.065
-42.935
-42.212
-42.167
-43.019
-44.554
-46.031
-46.687
-45.668
-42.387
-36.905
-29.225
-19.492
-7.291
9.122
31.371
61.475
100.639
147.539
200.378
255.184
306.03
347.023
370.126
368.232
337.596
277.706
193.812
94.176
-13.731
-124.729
-237.274
-351.064
-463.271
-566.75
-651.203
-706.656
-727.548
-715.161
-676.047
-619.012
-552.03
-480.356
-407.525
-336.359
-269.76
-210.738
-160.912
-120.612
-89.141
-64.932
-46.96
-34.206
-25.116
-18.546
-13.364
-8.864
-5.547
-3.853
-3.74
-4.85
-6.146
-6.762
-6.472
-5.427
-4.045
-2.359
-0.26
2.09
4.726
7.107
8.611
9.804
10.955
12.522
15.304
18.573
21.752
24.562
26.416
27.88
29.58
31.744
34.705
38.259
42.094
46.108
50.132
54.045
57.757
61.12
64.039
66.508
68.542
70.176
71.46
72.444
73.183
73.743
74.179
74.53
74.841
75.153
75.514
75.977
76.579
77.349
78.307
79.468
80.844
82.443
84.269
86.318
88.591
91.091
93.82
96.781
99.975
103.392
107.024
110.865
114.909
119.152
123.586
128.198
132.97
137.889
142.935
148.089
153.32
158.584
163.843
169.064
174.225
179.312
184.308
189.191
193.943
198.547
202.997
207.292
211.426
215.387
219.168
222.775
226.23
229.577
232.843
236.035
239.139
242.134
245.001
247.715
250.242
252.538
254.541
256.209
257.512
258.429
258.928
258.954
258.434
257.277
255.414
252.804
249.419
245.242
240.265
234.502
227.989
220.784
212.952
204.527
195.53
185.992
175.964
165.526
154.778
143.834
132.799
121.773
110.872
100.196
89.83
79.831
70.231
61.052
52.322
44.104
36.459
29.427
23.029
17.262
12.113
7.555
3.555
0.049
-3.047
-5.809
-8.29
-10.521
-12.523
-14.315
-15.934
-17.436
-18.866
-20.255
-21.624
-22.989
-24.366
-25.762
-27.169
-28.554
-29.864
-31.063
-32.131
-33.066
-33.866
-34.531
-35.05
-35.413
-35.622
-35.685
-35.607
-35.395
-35.049
-34.577
-34.0
-33.347
-32.655
-31.951
-31.251
-30.569
-29.913
-29.296
-28.726
-28.208
-27.739
-27.318
-26.945
-26.622
-26.351
-26.134
-25.964
-25.836
-25.744
-25.682
-25.647
-25.635
-25.643
-25.668
-25.708
-25.762
-25.833
-25.918
-26.018
-26.129
-26.251
-26.38
-26.517
-26.658
-26.803
-26.948
-27.094
-27.239
-27.383
-27.526
-27.667
-27.807
-27.945
-28.082
-28.219
-28.357
-28.495
-28.635
-28.777
-28.923
-29.074
-29.23
-29.392
-29.562
-29.739
-29.924
-30.118
-30.321
-30.534
-30.755
-30.986
-31.227
-31.477
-31.737
-32.007
-32.287
-32.577
-32.877
-33.187
-33.506
-33.834
-34.171
-34.516
-34.868
-35.228
-35.593
-35.964
-36.34
-36.72
-37.104
-37.49
-37.879
-38.268
-38.659
-39.05
-39.439
-39.828
-40.215
-40.599
-40.981
-41.358
-41.732
-42.102
-42.466
-42.824
-43.177
-43.522
-43.86
-44.191
-44.513
-44.826
-45.129
-45.423
-45.706
-45.978
-46.239
-46.488
-46.726
-46.951
-47.164
-47.365
-47.552
-47.727
-47.889
-48.039
-48.177
-48.302
-48.416
-48.518
-48.61
-48.693
-48.766
-48.83
-48.888
-48.938
-48.984
-49.025
-49.062
-49.098
-49.133
-49.169
-49.206
-49.247
-49.292
-49.342
-49.398
-49.461
-49.533
-49.612
-49.701
-49.798
-49.905
-50.021
-50.145
-50.277
-50.416
-50.56
-50.707
-50.857
-51.004
-51.149
-51.286
-51.413
-51.527
-51.624
-51.7
-51.752
-51.773
-51.762
-51.712
-51.62
-51.48
-51.289
-51.04
-50.731
-50.356
-49.912
-49.395
-48.801
-48.127
-47.369
-46.527
-45.598
-44.579
-43.471
-42.274
-40.989
-39.618
-38.163
-36.628
-35.018
-33.339
-31.597
-29.801
-27.96
-26.081
-24.175
-22.253
-20.325
-18.403
-16.496
-14.613
-12.766
-10.967
-9.226
-7.554
-5.963
-4.463
-3.061
-1.769
-0.591
0.471
1.416
2.241
2.947
3.525
3.973
4.292
4.481
4.544
4.487
4.318
4.053
3.716
3.325
2.893
2.425
1.917
1.376
0.813
0.239
-0.327
-0.877
-1.406
-1.879
-2.291
-2.676
-3.09
-3.647
-4.457
-5.553
-6.985
-8.825
-11.054
-13.62
-16.397
-19.119
-21.64
-23.955
-26.013
-27.785
-29.333
-30.672
-31.968
-33.585
-35.633
-38.024
-40.707
-43.544
-46.414
-49.35
-52.225
-54.688
-56.624
-58.14
-59.375
-60.557
-61.825
-62.787
-62.716
-60.988
-56.763
-49.615
-40.136
-28.812
-15.948
-1.129
17.812
43.451
77.749
121.366
172.596
227.711
281.448
327.31
358.109
366.808
348.305
300.929
227.285
134.069
28.973
-81.98
-195.153
-309.695
-424.066
-532.871
-628.085
-699.558
-739.123
-745.253
-721.208
-674.554
-614.35
-546.563
-475.761
-405.158
-336.876
-274.186
-219.529
-173.71
-136.592
-106.453
-81.45
-60.923
-44.675
-32.964
-26.009
-23.007
-22.708
-23.884
-25.392
-26.625
-27.327
-27.507
-27.259
-26.355
-24.815
-22.18
-17.762
-12.392
-6.891
-2.396
-0.959
-2.142
-4.231
-5.899
-4.666
0.003
5.981
11.675
15.198
15.296
13.531
11.857
11.546
13.99
18.944
24.842
30.849
36.065
39.875
42.884
45.415
47.553
49.605
51.38
52.708
53.7
54.38
54.824
55.143
55.357
55.473
55.539
55.601
55.702
55.899
56.238
56.743
57.441
58.354
59.489
60.857
62.462
64.3
66.373
68.683
71.232
74.024
77.058
80.327
83.824
87.54
91.47
95.612
99.96
104.5
109.217
114.097
119.12
124.267
129.507
134.801
140.108
145.393
150.636
155.821
160.933
165.952
170.857
175.629
180.261
184.753
189.1
193.291
197.318
201.183
204.908
208.538
212.104
215.616
219.059
222.399
225.609
228.662
231.525
234.156
236.487
238.456
240.021
241.162
241.85
242.041
241.655
240.583
238.745
236.101
232.64
228.384
223.343
217.53
210.984
203.767
195.97
187.674
178.922
169.727
160.128
150.193
140.034
129.805
119.619
109.555
99.673
90.015
80.631
71.574
62.864
54.493
46.442
38.706
31.321
24.357
17.851
11.802
6.175
0.892
-4.087
-8.78
-13.208
-17.384
-21.329
-25.067
-28.597
-31.893
-34.939
-37.735
-40.309
-42.72
-44.998
-47.149
-49.161
-50.999
-52.648
-54.11
-55.378
-56.445
-57.306
-57.959
-58.418
-58.717
-58.874
-58.901
-58.799
-58.555
-58.171
-57.659
-57.038
-56.334
-55.569
-54.756
-53.915
-53.068
-52.232
-51.419
-50.636
-49.879
-49.15
-48.454
-47.796
-47.186
-46.626
-46.118
-45.66
-45.253
-44.894
-44.58
-44.308
-44.072
-43.867
-43.691
-43.54
-43.415
-43.313
-43.233
-43.172
-43.126
-43.094
-43.072
-43.056
-43.044
-43.031
-43.015
-42.994
-42.964
-42.924
-42.871
-42.805
-42.723
-42.624
-42.508
-42.373
-42.218
-42.045
-41.853
-41.642
-41.414
-41.168
-40.907
-40.631
-40.341
-40.041
-39.73
-39.41
-39.084
-38.752
-38.418
-38.081
-37.744
-37.408
-37.075
-36.747
-36.425
-36.112
-35.808
-35.515
-35.234
-34.967
-34.715
-34.478
-34.258
-34.054
-33.868
-33.7
-33.549
-33.416
-33.301
-33.204
-33.124
-33.061
-33.013
-32.981
-32.963
-32.958
-32.964
-32.981
-33.007
-33.041
-33.081
-33.126
-33.174
-33.223
-33.271
-33.318
-33.36
-33.397
-33.426
-33.447
-33.456
-33.453
-33.436
-33.404
-33.355
-33.289
-33.203
-33.098
-32.973
-32.827
-32.659
-32.47
-32.259
-32.027
-31.773
-31.499
-31.206
-30.894
-30.566
-30.221
-29.863
-29.493
-29.112
-28.724
-28.33
-27.933
-27.536
-27.14
-26.749
-26.366
-25.994
-25.635
-25.293
-24.969
-24.667
-24.39
-24.138
-23.916
-23.724
-23.564
-23.438
-23.347
-23.292
-23.274
-23.291
-23.345
-23.433
-23.555
-23.709
-23.891
-24.1
-24.331
-24.582
-24.847
-25.122
-25.403
-25.685
-25.961
-26.226
-26.474
-26.698
-26.893
-27.052
-27.167
-27.232
-27.241
-27.187
-27.064
-26.867
-26.588
-26.222
-25.766
-25.213
-24.56
-23.804
-22.94
-21.969
-20.888
-19.699
-18.402
-17.0
-15.496
-13.896
-12.207
-10.434
-8.585
-6.668
-4.692
-2.667
-0.604
1.488
3.597
5.71
7.816
9.901
11.951
13.953
15.896
17.769
19.559
21.254
22.843
24.319
25.675
26.905
28.002
28.957
29.764
30.425
30.942
31.32
31.565
31.684
31.69
31.604
31.443
31.225
30.966
30.671
30.346
30.002
29.645
29.286
28.939
28.601
28.273
27.968
27.673
27.373
27.052
26.649
26.095
25.333
24.268
22.822
20.98
18.71
15.99
12.89
9.475
5.834
2.179
-1.334
-4.641
-7.618
-10.184
-12.375
-14.141
-15.454
-16.458
-17.211
-17.709
-18.073
-18.351
-18.477
-18.545
-18.711
-19.025
-19.601
-20.539
-21.537
-21.979
-21.188
-18.175
-12.236
-3.587
7.364
20.099
34.58
52.376
75.86
107.464
148.745
198.873
254.587
310.266
358.594
391.884
402.888
386.775
342.257
271.608
180.96
77.309
-33.87
-148.622
-265.527
-382.391
-493.118
-589.539
-661.478
-700.775
-706.088
-680.662
-632.102
-569.763
-499.94
-427.626
-356.343
-288.062
-225.643
-171.157
-125.276
-88.127
-58.454
-34.677
-16.048
-2.038
7.429
12.303
13.486
12.274
9.988
7.92
6.621
6.057
6.065
6.675
8.142
10.878
15.64
22.346
29.817
36.63
40.685
40.611
37.274
32.644
29.309
29.731
34.365
41.58
48.876
53.659
54.193
50.911
46.128
42.388
41.973
45.921
52.795
60.471
67.228
71.64
73.968
75.321
76.245
77.243
78.353
79.151
79.589
79.756
79.691
79.526
79.319
79.041
78.72
78.414
78.165
78.027
78.047
78.255
78.679
79.345
80.269
81.459
82.919
84.648
86.645
88.913
91.455
94.274
97.368
100.727
104.343
108.206
112.309
116.648
121.215
125.991
130.961
136.106
141.406
146.838
152.368
157.952
163.549
169.123
174.65
180.111
185.485
190.75
195.883
200.862
205.678
210.328
214.801
219.085
223.174
227.069
230.792
234.379
237.856
241.227
244.482
247.598
250.552
253.318
255.864
258.151
260.128
261.746
262.969
263.763
264.085
263.883
263.082
261.589
259.336
256.269
252.357
247.59
241.97
235.511
228.241
220.202
211.442
202.008
191.944
181.305
170.161
158.595
146.716
134.654
122.531
110.477
98.603
86.996
75.729
64.861
54.443
44.521
35.145
26.363
18.208
10.703
3.853
-2.343
-7.912
-12.901
-17.373
-21.414
-25.095
-28.467
-31.566
-34.423
-37.069
-39.541
-41.887
-44.14
-46.326
-48.466
-50.574
-52.665
-54.741
-56.787
-58.768
-60.635
-62.352
-63.901
-65.275
-66.47
-67.483
-68.305
-68.928
-69.358
-69.602
-69.666
-69.56
-69.286
-68.856
-68.293
-67.628
-66.899
-66.132
-65.35
-64.565
-63.79
-63.038
-62.319
-61.64
-61.001
-60.402
-59.847
-59.337
-58.878
-58.47
-58.111
-57.796
-57.519
-57.275
-57.063
-56.879
-56.72
-56.583
-56.468
-56.374
-56.301
-56.251
-56.221
-56.209
-56.212
-56.23
-56.259
-56.298
-56.345
-56.397
-56.453
-56.512
-56.574
-56.637
-56.7
-56.765
-56.829
-56.894
-56.96
-57.027
-57.096
-57.167
-57.242
-57.321
-57.406
-57.498
-57.597
-57.705
-57.823
-57.952
-58.093
-58.247
-58.413
-58.594
-58.789
-58.999
-59.225
-59.467
-59.726
-60.001
-60.294
-60.605
-60.932
-61.276
-61.636
-62.012
-62.403
-62.807
-63.224
-63.652
-64.09
-64.537
-64.989
-65.447
-65.908
-66.371
-66.832
-67.291
-67.745
-68.192
-68.63
-69.058
-69.473
-69.874
-70.257
-70.623
-70.968
-71.292
-71.592
-71.868
-72.118
-72.34
-72.534
-72.698
-72.833
-72.938
-73.011
-73.054
-73.066
-73.048
-73.0
-72.923
-72.817
-72.685
-72.527
-72.346
-72.143
-71.919
-71.678
-71.421
-71.151
-70.871
-70.582
-70.288
-69.991
-69.694
-69.4
-69.112
-68.833
-68.565
-68.31
-68.071
-67.85
-67.65
-67.471
-67.316
-67.186
-67.081
-67.003
-66.952
-66.927
-66.928
-66.953
-67.003
-67.073
-67.163
-67.269
-67.387
-67.514
-67.646
-67.779
-67.908
-68.028
-68.134
-68.221
-68.283
-68.314
-68.31
-68.262
-68.167
-68.017
-67.808
-67.535
-67.191
-66.773
-66.276
-65.695
-65.027
-64.27
-63.421
-62.477
-61.437
-60.302
-59.072
-57.749
-56.336
-54.836
-53.256
-51.6
-49.877
-48.094
-46.261
-44.387
-42.482
-40.559
-38.627
-36.698
-34.784
-32.895
-31.044
-29.244
-27.505
-25.839
-24.256
-22.767
-21.382
-20.11
-18.957
-17.925
-17.015
-16.23
-15.571
-15.045
-14.652
-14.388
-14.252
-14.239
-14.344
-14.56
-14.873
-15.255
-15.69
-16.158
-16.653
-17.178
-17.726
-18.285
-18.842
-19.377
-19.881
-20.358
-20.791
-21.149
-21.44
-21.693
-21.978
-22.417
-23.095
-24.043
-25.325
-27.0
-29.071
-31.49
-34.119
-36.724
-39.137
-41.277
-43.043
-44.317
-45.064
-45.318
-45.243
-45.126
-45.161
-45.407
-45.954
-46.96
-48.501
-50.595
-53.126
-55.788
-58.429
-61.042
-63.506
-65.604
-66.937
-66.78
-64.411
-59.11
-50.297
-38.042
-22.746
-5.149
14.173
35.784
61.059
92.158
131.336
179.24
233.999
290.412
339.902
372.242
378.385
353.206
297.41
217.362
122.096
19.734
-85.188
-191.925
-300.901
-410.088
-512.846
-599.493
-660.213
-689.185
-687.096
-658.644
-611.056
-551.416
-484.457
-415.074
-347.723
-286.001
-233.013
-189.098
-152.743
-122.064
-95.556
-72.805
-53.821
-38.636
-26.547
-16.917
-9.822
-5.065
-2.688
-2.301
-2.592
-2.902
-3.089
-3.038
-2.754
-1.514
2.172
9.08
18.223
27.132
32.726
32.569
27.353
20.62
15.821
16.089
21.855
29.745
36.937
41.174
41.271
39.399
37.804
37.727
40.488
45.627
51.581
57.617
62.854
66.718
69.821
72.462
74.727
76.917
78.83
80.292
81.417
82.235
82.82
83.279
83.631
83.876
84.067
84.252
84.476
84.797
85.258
85.884
86.702
87.734
88.99
90.48
92.21
94.176
96.378
98.819
101.503
104.433
107.607
111.022
114.671
118.552
122.661
126.996
131.545
136.292
141.223
146.316
151.55
156.901
162.33
167.802
173.283
178.742
184.158
189.515
194.788
199.955
204.989
209.874
214.61
219.198
223.639
227.933
232.083
236.104
240.033
243.894
247.698
251.446
255.113
258.674
262.108
265.389
268.485
271.35
273.917
276.121
277.912
279.239
280.049
280.274
279.816
278.594
276.558
273.672
269.924
265.301
259.784
253.376
246.102
238.004
229.144
219.582
209.358
198.525
187.142
175.298
163.113
150.692
138.124
125.494
112.887
100.404
88.163
76.251
64.73
53.653
43.06
33.007
23.559
14.761
6.644
-0.785
-7.543
-13.639
-19.082
-23.896
-28.123
-31.83
-35.104
-38.009
-40.588
-42.884
-44.935
-46.801
-48.54
-50.193
-51.789
-53.345
-54.873
-56.391
-57.913
-59.435
-60.94
-62.394
-63.751
-64.984
-66.079
-67.023
-67.807
-68.413
-68.828
-69.054
-69.101
-68.98
-68.702
-68.274
-67.703
-67.007
-66.213
-65.348
-64.445
-63.528
-62.613
-61.716
-60.85
-60.027
-59.256
-58.537
-57.867
-57.243
-56.666
-56.134
-55.648
-55.204
-54.797
-54.421
-54.071
-53.741
-53.429
-53.129
-52.839
-52.555
-52.276
-52.001
-51.73
-51.463
-51.197
-50.932
-50.666
-50.397
-50.123
-49.844
-49.558
-49.264
-48.961
-48.651
-48.333
-48.008
-47.677
-47.342
-47.004
-46.665
-46.328
-45.993
-45.664
-45.342
-45.03
-44.729
-44.443
-44.172
-43.919
-43.685
-43.472
-43.282
-43.114
-42.971
-42.853
-42.761
-42.694
-42.654
-42.64
-42.653
-42.691
-42.755
-42.845
-42.958
-43.095
-43.253
-43.431
-43.629
-43.843
-44.072
-44.313
-44.565
-44.826
-45.093
-45.365
-45.639
-45.914
-46.187
-46.457
-46.722
-46.98
-47.232
-47.474
-47.707
-47.929
-48.139
-48.338
-48.524
-48.697
-48.858
-49.005
-49.14
-49.263
-49.373
-49.472
-49.559
-49.637
-49.705
-49.763
-49.814
-49.857
-49.892
-49.922
-49.945
-49.963
-49.975
-49.982
-49.984
-49.979
-49.968
-49.949
-49.921
-49.882
-49.831
-49.766
-49.683
-49.58
-49.455
-49.304
-49.125
-48.914
-48.667
-48.382
-48.054
-47.68
-47.256
-46.779
-46.243
-45.647
-44.986
-44.256
-43.457
-42.583
-41.633
-40.605
-39.496
-38.306
-37.033
-35.677
-34.238
-32.717
-31.116
-29.438
-27.687
-25.866
-23.981
-22.041
-20.051
-18.021
-15.957
-13.87
-11.768
-9.663
-7.564
-5.482
-3.428
-1.412
0.555
2.459
4.29
6.038
7.692
9.243
10.683
12.0
13.189
14.245
15.167
15.952
16.597
17.096
17.447
17.655
17.723
17.658
17.467
17.159
16.749
16.259
15.71
15.125
14.518
13.895
13.261
12.625
11.993
11.383
10.807
10.268
9.773
9.327
8.927
8.574
8.233
7.825
7.27
6.474
5.352
3.86
1.96
-0.393
-3.161
-6.257
-9.575
-12.931
-16.177
-19.216
-21.926
-24.199
-26.028
-27.444
-28.475
-29.234
-29.784
-30.181
-30.564
-31.068
-31.747
-32.591
-33.663
-35.02
-36.714
-38.775
-40.876
-42.313
-42.324
-40.021
-34.742
-26.52
-15.476
-1.874
14.348
34.47
60.058
92.828
133.965
182.583
236.242
290.432
338.513
373.449
388.19
377.358
339.377
275.989
192.053
94.216
-12.304
-123.977
-238.381
-353.165
-463.039
-559.831
-634.523
-679.749
-692.924
-676.579
-637.019
-581.739
-517.294
-449.279
-381.817
-318.3
-261.61
-212.5
-170.513
-134.413
-102.422
-74.3
-50.676
-32.162
-19.383
-11.809
-8.108
-6.872
-6.724
-6.792
-6.563
-5.917
-5.136
-4.106
-2.5
0.11
4.831
11.809
19.826
27.418
32.102
32.196
28.337
22.413
17.75
17.395
22.3
30.991
39.985
46.156
47.715
45.403
42.204
40.381
41.383
45.213
50.237
55.415
60.187
64.262
67.956
71.363
74.353
76.913
79.009
80.644
81.905
82.868
83.589
84.134
84.566
84.923
85.229
85.521
85.834
86.215
86.72
87.388
88.244
89.311
90.604
92.136
93.918
95.953
98.241
100.779
103.569
106.609
109.899
113.435
117.208
121.212
125.437
129.882
134.538
139.392
144.431
149.638
154.988
160.457
166.006
171.595
177.193
182.77
188.303
193.78
199.187
204.507
209.731
214.838
219.81
224.635
229.292
233.767
238.059
242.173
246.135
249.979
253.714
257.34
260.842
264.181
267.319
270.206
272.775
274.975
276.763
278.096
278.951
279.306
279.12
278.348
276.931
274.794
271.897
268.218
263.748
258.513
252.553
245.926
238.728
231.04
222.93
214.462
205.683
196.634
187.379
177.981
168.51
159.055
149.686
140.46
131.432
122.63
114.07
105.75
97.642
89.721
81.979
74.415
67.037
59.862
52.895
46.142
39.613
33.304
27.212
21.338
15.679
10.239
5.03
0.07
-4.613
-8.994
-13.059
-16.799
-20.211
-23.3
-26.069
-28.528
-30.69
-32.569
-34.174
-35.517
-36.608
-37.457
-38.08
-38.494
-38.717
-38.769
-38.667
-38.429
-38.071
-37.607
-37.052
-36.418
-35.714
-34.951
-34.139
-33.288
-32.41
-31.514
-30.61
-29.706
-28.811
-27.932
-27.075
-26.247
-25.451
-24.69
-23.967
-23.286
-22.646
-22.05
-21.498
-20.989
-20.524
-20.102
-19.722
-19.382
-19.081
-18.818
-18.589
-18.393
-18.228
-18.091
-17.981
-17.895
-17.831
-17.787
-17.763
-17.755
-17.762
-17.782
-17.813
-17.854
-17.903
-17.958
-18.017
-18.081
-18.147
-18.214
-18.283
-18.353
-18.422
-18.491
-18.56
-18.628
-18.695
-18.761
-18.826
-18.891
-18.955
-19.018
-19.081
-19.144
-19.208
-19.273
-19.34
-19.408
-19.479
-19.552
-19.629
-19.71
-19.795
-19.886
-19.983
-20.087
-20.198
-20.318
-20.447
-20.587
-20.737
-20.898
-21.072
-21.259
-21.459
-21.673
-21.903
-22.148
-22.408
-22.685
-22.978
-23.287
-23.613
-23.955
-24.314
-24.689
-25.079
-25.483
-25.902
-26.335
-26.779
-27.235
-27.701
-28.175
-28.657
-29.145
-29.636
-30.131
-30.626
-31.122
-31.615
-32.104
-32.588
-33.065
-33.535
-33.994
-34.444
-34.882
-35.307
-35.718
-36.115
-36.498
-36.865
-37.217
-37.553
-37.874
-38.18
-38.471
-38.749
-39.014
-39.268
-39.51
-39.743
-39.968
-40.186
-40.4
-40.609
-40.816
-41.022
-41.228
-41.436
-41.646
-41.859
-42.076
-42.296
-42.52
-42.746
-42.975
-43.206
-43.436
-43.664
-43.89
-44.11
-44.323
-44.527
-44.717
-44.892
-45.048
-45.181
-45.289
-45.366
-45.41
-45.416
-45.38
-45.3
-45.17
-44.987
-44.748
-44.45
-44.089
-43.663
-43.17
-42.609
-41.978
-41.279
-40.512
-39.679
-38.782
-37.828
-36.819
-35.761
-34.661
-33.525
-32.361
-31.175
-29.978
-28.777
-27.581
-26.4
-25.245
-24.125
-23.052
-22.034
-21.082
-20.205
-19.411
-18.711
-18.112
-17.618
-17.233
-16.959
-16.801
-16.765
-16.851
-17.058
-17.38
-17.813
-18.352
-18.989
-19.712
-20.5
-21.335
-22.197
-23.074
-23.963
-24.858
-25.754
-26.642
-27.506
-28.339
-29.142
-29.916
-30.658
-31.36
-32.02
-32.673
-33.395
-34.273
-35.404
-36.851
-38.648
-40.853
-43.523
-46.649
-50.151
-53.866
-57.576
-61.144
-64.501
-67.533
-70.108
-72.144
-73.651
-74.777
-75.716
-76.553
-77.298
-78.02
-78.859
-79.967
-81.395
-83.04
-84.857
-86.898
-89.212
-91.788
-94.189
-95.465
-94.634
-90.748
-83.371
-73.086
-60.741
-46.839
-30.684
-10.099
17.861
55.396
102.23
156.187
212.682
265.465
308.401
333.884
335.041
307.775
251.014
169.373
70.926
-36.498
-147.143
-259.034
-371.976
-483.621
-587.559
-674.427
-734.454
-761.884
-757.468
-726.102
-675.562
-613.268
-543.923
-472.146
-401.652
-335.778
-278.297
-230.19
-190.808
-158.609
-131.094
-107.536
-88.196
-73.451
-63.963
-59.212
-57.845
-58.51
-59.814
-60.907
-61.541
-61.75
-61.789
-61.557
-60.706
-58.757
-54.768
-48.771
-41.99
-35.863
-32.567
-33.416
-37.168
-41.637
-44.457
-43.399
-38.87
-33.312
-28.424
-25.903
-26.073
-26.835
-26.979
-25.738
-22.496
-18.292
-13.869
-9.426
-5.441
-1.879
1.383
4.198
6.558
8.494
9.979
11.057
11.806
12.279
12.533
12.633
12.624
12.533
12.403
12.281
12.211
12.25
12.437
12.794
13.34
14.091
15.055
16.244
17.66
19.303
21.171
23.267
25.594
28.158
30.958
33.987
37.239
40.706
44.386
48.277
52.374
56.666
61.136
65.769
70.55
75.457
80.462
85.523
90.6
95.665
100.696
105.681
110.604
115.446
120.187
124.809
129.306
133.677
137.915
142.009
145.951
149.744
153.414
157.002
160.538
164.027
167.449
170.776
173.981
177.035
179.902
182.535
184.868
186.853
188.459
189.661
190.431
190.719
190.442
189.502
187.823
185.356
182.085
178.012
173.132
167.47
161.064
153.974
146.279
138.025
129.228
119.915
110.125
99.925
89.428
78.755
68.02
57.335
46.789
36.455
26.41
16.696
7.334
-1.658
-10.278
-18.488
-26.214
-33.406
-40.029
-46.067
-51.545
-56.498
-60.964
-65.012
-68.701
-72.072
-75.169
-78.008
-80.59
-82.924
-85.018
-86.895
-88.609
-90.198
-91.69
-93.113
-94.468
-95.752
-96.953
-98.03
-98.947
-99.684
-100.225
-100.57
-100.734
-100.72
-100.537
-100.194
-99.687
-99.019
-98.193
-97.21
-96.081
-94.823
-93.456
-92.015
-90.535
-89.04
-87.552
-86.085
-84.648
-83.253
-81.905
-80.607
-79.362
-78.174
-77.048
-75.99
-75.004
-74.09
-73.246
-72.468
-71.752
-71.094
-70.491
-69.939
-69.437
-68.982
-68.572
-68.21
-67.893
-67.622
-67.392
-67.202
-67.048
-66.928
-66.837
-66.772
-66.729
-66.705
-66.696
-66.7
-66.715
-66.737
-66.764
-66.793
-66.822
-66.848
-66.87
-66.885
-66.892
-66.889
-66.873
-66.845
-66.801
-66.741
-66.663
-66.566
-66.448
-66.308
-66.144
-65.955
-65.739
-65.495
-65.222
-64.918
-64.583
-64.215
-63.815
-63.38
-62.911
-62.408
-61.87
-61.296
-60.686
-60.04
-59.358
-58.639
-57.883
-57.091
-56.262
-55.397
-54.496
-53.559
-52.588
-51.582
-50.543
-49.471
-48.367
-47.234
-46.071
-44.881
-43.664
-42.423
-41.16
-39.875
-38.572
-37.251
-35.914
-34.564
-33.202
-31.831
-30.451
-29.065
-27.675
-26.282
-24.889
-23.496
-22.106
-20.721
-19.341
-17.97
-16.607
-15.256
-13.916
-12.591
-11.28
-9.986
-8.709
-7.45
-6.211
-4.99
-3.791
-2.611
-1.453
-0.316
0.8
1.895
2.968
4.022
5.055
6.069
7.064
8.042
9.002
9.948
10.879
11.797
12.705
13.603
14.494
15.38
16.263
17.147
18.033
18.926
19.829
20.745
21.677
22.63
23.607
24.611
25.646
26.716
27.824
28.973
30.167
31.41
32.703
34.051
35.456
36.92
38.446
40.034
41.688
43.407
45.193
47.046
48.967
50.953
53.005
55.121
57.299
59.534
61.823
64.161
66.541
68.957
71.401
73.863
76.336
78.808
81.27
83.711
86.12
88.485
90.796
93.04
95.208
97.288
99.267
101.134
102.882
104.498
105.976
107.305
108.477
109.486
110.331
111.009
111.521
111.864
112.033
112.031
111.86
111.528
111.039
110.402
109.625
108.723
107.722
106.645
105.51
104.331
103.109
101.849
100.562
99.262
97.964
96.681
95.409
94.153
92.928
91.745
90.586
89.396
88.08
86.534
84.693
82.512
79.941
76.926
73.468
69.638
65.587
61.516
57.564
53.806
50.346
47.302
44.731
42.61
40.803
39.128
37.516
35.965
34.412
32.739
30.821
28.625
26.264
23.79
21.114
18.129
14.78
11.399
8.804
7.847
9.428
14.15
21.786
31.962
44.289
58.849
77.161
101.522
134.283
176.852
228.343
285.209
341.451
389.502
421.346
429.91
410.898
363.554
290.865
199.223
95.462
-15.182
-129.198
-245.404
-361.652
-471.951
-568.174
-640.326
-680.471
-687.323
-664.098
-618.212
-558.696
-491.627
-421.855
-352.853
-286.686
-226.29
-173.666
-129.292
-93.042
-63.473
-39.012
-19.145
-3.619
7.509
14.146
17.096
17.591
16.777
15.68
14.879
14.419
14.059
13.807
13.912
14.712
17.168
21.611
26.957
31.876
34.49
33.386
29.719
25.811
23.811
25.803
31.48
38.272
44.371
47.984
48.55
48.063
47.833
48.819
51.789
55.773
60.047
64.397
68.375
72.088
75.651
78.847
81.617
83.938
85.772
87.184
88.251
89.019
89.542
89.892
90.121
90.266
90.369
90.469
90.607
90.836
91.196
91.712
92.405
93.29
94.378
95.678
97.193
98.921
100.861
103.017
105.391
107.99
110.812
113.85
117.099
120.551
124.204
128.055
132.099
136.322
140.71
145.25
149.923
154.713
159.587
164.508
169.437
174.341
179.2
184.003
188.732
193.368
197.893
202.287
206.546
210.67
214.651
218.482
222.154
225.671
229.058
232.358
235.601
238.794
241.921
244.951
247.859
250.617
253.192
255.539
257.596
259.31
260.645
261.577
262.075
262.088
261.533
260.307
258.33
255.555
251.971
247.582
242.394
236.422
229.705
222.299
214.279
205.702
196.593
186.979
176.899
166.427
155.678
144.786
133.878
123.052
112.379
101.923
91.744
81.888
72.378
63.224
54.427
46.012
38.039
30.559
23.607
17.184
11.254
5.765
0.655
-4.123
-8.608
-12.833
-16.824
-20.599
-24.161
-27.507
-30.636
-33.567
-36.345
-39.009
-41.591
-44.101
-46.531
-48.859
-51.055
-53.093
-54.949
-56.607
-58.059
-59.307
-60.358
-61.225
-61.925
-62.461
-62.828
-63.022
-63.042
-62.894
-62.593
-62.159
-61.618
-60.998
-60.324
-59.618
-58.895
-58.169
-57.447
-56.733
-56.029
-55.338
-54.666
-54.018
-53.402
-52.821
-52.278
-51.773
-51.304
-50.87
-50.466
-50.091
-49.743
-49.42
-49.123
-48.851
-48.608
-48.393
-48.209
-48.055
-47.931
-47.835
-47.767
-47.725
-47.709
-47.716
-47.746
-47.798
-47.871
-47.965
-48.08
-48.214
-48.366
-48.537
-48.726
-48.933
-49.156
-49.395
-49.65
-49.921
-50.207
-50.507
-50.822
-51.151
-51.492
-51.846
-52.212
-52.589
-52.976
-53.372
-53.775
-54.186
-54.602
-55.024
-55.449
-55.877
-56.309
-56.742
-57.176
-57.61
-58.044
-58.477
-58.908
-59.336
-59.762
-60.184
-60.601
-61.015
-61.424
-61.829
-62.229
-62.625
-63.017
-63.405
-63.789
-64.17
-64.548
-64.924
-65.298
-65.672
-66.045
-66.419
-66.794
-67.171
-67.551
-67.934
-68.321
-68.712
-69.109
-69.511
-69.919
-70.334
-70.756
-71.185
-71.622
-72.066
-72.518
-72.978
-73.445
-73.92
-74.402
-74.891
-75.386
-75.887
-76.393
-76.904
-77.42
-77.938
-78.46
-78.983
-79.508
-80.034
-80.56
-81.086
-81.611
-82.136
-82.659
-83.179
-83.698
-84.214
-84.727
-85.237
-85.744
-86.248
-86.748
-87.245
-87.737
-88.226
-88.711
-89.192
-89.669
-90.141
-90.608
-91.071
-91.528
-91.979
-92.423
-92.86
-93.289
-93.709
-94.118
-94.514
-94.896
-95.262
-95.608
-95.932
-96.232
-96.503
-96.744
-96.949
-97.117
-97.242
-97.321
-97.351
-97.326
-97.244
-97.1
-96.889
-96.609
-96.254
-95.823
-95.311
-94.715
-94.032
-93.26
-92.396
-91.439
-90.387
-89.238
-87.993
-86.653
-85.218
-83.691
-82.076
-80.376
-78.596
-76.743
-74.825
-72.848
-70.821
-68.755
-66.659
-64.544
-62.422
-60.304
-58.2
-56.124
-54.086
-52.097
-50.172
-48.32
-46.555
-44.886
-43.326
-41.884
-40.569
-39.385
-38.335
-37.422
-36.65
-36.023
-35.547
-35.22
-35.038
-35.002
-35.105
-35.34
-35.693
-36.139
-36.658
-37.232
-37.852
-38.518
-39.228
-39.969
-40.73
-41.491
-42.237
-42.969
-43.674
-44.321
-44.916
-45.492
-46.116
-46.911
-47.961
-49.295
-50.966
-53.012
-55.41
-58.113
-60.983
-63.81
-66.499
-69.028
-71.347
-73.476
-75.469
-77.365
-79.329
-81.553
-84.024
-86.632
-89.276
-91.775
-93.994
-95.885
-97.304
-98.121
-98.416
-98.419
-98.385
-98.557
-99.067
-99.586
-99.37
-97.568
-93.135
-85.555
-75.369
-63.269
-49.615
-33.51
-12.506
16.345
55.105
103.301
158.467
215.961
269.444
312.819
339.073
341.726
317.178
264.519
187.158
92.148
-13.534
-124.682
-238.429
-354.051
-469.352
-577.94
-670.566
-736.733
-768.79
-765.959
-733.081
-678.851
-612.653
-540.943
-468.13
-397.148
-330.253
-270.173
-218.587
-176.001
-141.813
-114.544
-92.989
-76.018
-62.929
-53.178
-46.281
-42.178
-40.469
-40.685
-42.095
-43.544
-44.475
-44.746
-44.194
-42.844
-40.401
-35.925
-29.398
-21.999
-15.161
-11.161
-11.291
-14.2
-17.919
-20.197
-19.158
-15.613
-11.426
-7.852
-6.0
-5.486
-4.884
-3.558
-1.156
2.32
6.302
10.498
14.818
19.057
23.08
26.8
30.113
32.982
35.449
37.529
39.235
40.622
41.753
42.683
43.474
44.172
44.806
45.419
46.062
46.787
47.648
48.684
49.919
51.373
53.057
54.981
57.152
59.573
62.239
65.147
68.297
71.689
75.325
79.206
83.324
87.67
92.232
97.003
101.976
107.149
112.512
118.052
123.749
129.586
135.544
141.599
147.717
153.854
159.967
166.023
172.001
177.888
183.666
189.316
194.818
200.153
205.317
210.307
215.118
219.737
224.154
228.375
232.422
236.341
240.162
243.89
247.507
250.985
254.302
257.432
260.34
262.978
265.281
267.198
268.704
269.788
270.428
270.581
270.171
269.109
267.327
264.791
261.487
257.408
252.545
246.909
240.543
233.514
225.908
217.774
209.124
199.964
190.327
180.278
169.92
159.361
148.697
138.012
127.396
116.955
106.789
96.964
87.511
78.434
69.738
61.468
53.707
46.528
39.971
34.043
28.727
24.002
19.854
16.254
13.143
10.428
8.031
5.896
4.006
2.376
0.976
-0.278
-1.488
-2.749
-4.094
-5.477
-6.889
-8.381
-9.926
-11.448
-12.825
-13.87
-14.546
-15.002
-15.325
-15.539
