86.264
96.214
105.425
113.755
121.057
127.217
132.148
135.777
138.099
139.153
139.02
137.832
135.713
132.786
129.187
125.058
120.548
115.798
110.916
105.998
101.157
96.489
92.078
87.994
84.262
80.888
77.861
75.146
72.709
70.506
68.48
66.569
64.707
62.839
60.937
58.976
56.928
54.769
52.48
50.055
47.504
44.841
42.079
39.237
36.336
33.405
30.477
27.59
24.781
22.077
19.497
17.055
14.762
12.627
10.655
8.845
7.19
5.684
4.325
3.109
2.032
1.086
0.261
-0.455
-1.073
-1.601
-2.05
-2.428
-2.742
-2.998
-3.204
-3.363
-3.478
-3.555
-3.598
-3.615
-3.61
-3.59
-3.56
-3.527
-3.495
-3.471
-3.457
-3.457
-3.475
-3.514
-3.576
-3.663
-3.778
-3.923
-4.099
-4.309
-4.554
-4.833
-5.149
-5.502
-5.89
-6.315
-6.775
-7.269
-7.798
-8.359
-8.952
-9.576
-10.228
-10.907
-11.61
-12.336
-13.082
-13.844
-14.619
-15.404
-16.195
-16.988
-17.78
-18.566
-19.342
-20.104
-20.848
-21.571
-22.267
-22.931
-23.56
-24.149
-24.693
-25.188
-25.63
-26.014
-26.337
-26.597
-26.79
-26.915
-26.969
-26.954
-26.868
-26.714
-26.492
-26.203
-25.851
-25.435
-24.961
-24.431
-23.847
-23.215
-22.54
-21.826
-21.081
-20.313
-19.529
-18.737
-17.943
-17.155
-16.382
-15.633
-14.912
-14.229
-13.59
-13.005
-12.487
-12.042
-11.673
-11.381
-11.162
-11.011
-10.919
-10.87
-10.846
-10.827
-10.797
-10.741
-10.648
-10.506
-10.298
-10.011
-9.625
-9.131
-8.532
-7.836
-7.051
-6.196
-5.312
-4.45
-3.688
-3.099
-2.738
-2.667
-2.958
-3.678
-4.895
-6.664
-8.993
-11.898
-15.411
-19.548
-24.358
-29.853
-35.914
-42.427
-49.3
-56.323
-63.279
-69.84
-75.382
-79.349
-81.489
-81.584
-79.563
-75.661
-69.987
-62.93
-55.572
-48.949
-43.73
-40.367
-38.651
-37.782
-37.313
-36.438
-33.369
-26.159
-12.936
7.745
35.945
70.588
110.803
155.085
200.514
243.27
278.559
301.448
308.364
297.012
265.064
211.111
135.526
40.376
-69.909
-189.402
-312.423
-433.496
-546.355
-645.01
-724.422
-780.728
-812.651
-820.76
-805.997
-770.203
-716.804
-650.062
-574.943
-496.642
-418.888
-344.733
-277.47
-219.675
-172.868
-137.425
-112.237
-95.433
-85.616
-81.14
-79.749
-79.257
-77.578
-73.504
-67.038
-58.63
-48.695
-37.865
-27.003
-17.118
-9.406
-4.474
-2.218
-2.307
-4.225
-7.434
-11.46
-15.697
-19.446
-22.258
-23.957
-24.51
-24.055
-22.713
-20.546
-17.676
-14.253
-10.407
-6.263
-1.918
2.557
7.075
11.531
15.821
19.835
23.477
26.697
29.471
31.808
33.738
35.293
36.515
37.456
38.18
38.749
39.223
39.653
40.084
40.567
41.154
41.898
42.851
44.045
45.498
47.218
49.205
51.457
53.966
56.716
59.685
62.854
66.204
69.718
73.382
77.176
81.075
85.058
89.097
93.17
97.252
101.319
105.346
109.31
113.186
116.951
120.584
124.061
127.359
130.454
133.323
135.944
138.297
140.361
142.119
143.555
144.654
145.405
145.798
145.825
145.482
144.763
143.667
142.196
140.35
138.135
135.556
132.62
129.339
125.724
121.788
117.545
113.013
108.208
103.151
97.862
92.362
86.672
80.817
74.819
68.703
62.492
56.211
49.884
43.535
37.187
30.863
24.585
18.376
12.254
6.239
0.349
-5.399
-10.989
-16.406
-21.638
-26.674
-31.502
-36.113
-40.5
-44.657
-48.578
-52.261
-55.703
-58.904
-61.865
-64.586
-67.072
-69.325
-71.353
-73.161
-74.756
-76.146
-77.341
-78.35
-79.183
-79.85
-80.362
-80.73
-80.965
-81.078
-81.08
-80.982
-80.794
-80.526
-80.188
-79.79
-79.339
-78.845
-78.315
-77.756
-77.173
-76.573
-75.961
-75.341
-74.716
-74.09
-73.465
-72.843
-72.225
-71.613
-71.005
-70.403
-69.804
-69.209
-68.616
-68.023
-67.429
-66.831
-66.227
-65.616
-64.996
-64.364
-63.72
-63.06
-62.384
-61.691
-60.98
-60.25
-59.503
-58.738
-57.957
-57.16
-56.351
-55.532
-54.705
-53.873
-53.04
-52.21
-51.385
-50.571
-49.772
-48.992
-48.234
-47.504
-46.805
-46.142
-45.517
-44.935
-44.399
-43.91
-43.471
-43.084
-42.751
-42.471
-42.246
-42.075
-41.959
-41.895
-41.883
-41.918
-41.999
-42.121
-42.281
-42.473
-42.69
-42.927
-43.178
-43.435
-43.691
-43.937
-44.167
-44.372
-44.544
-44.675
-44.759
-44.786
-44.751
-44.647
-44.47
-44.214
-43.876
-43.453
-42.944
-42.348
-41.667
-40.902
-40.053
-39.123
-38.115
-37.032
-35.879
-34.661
-33.383
-32.051
-30.674
-29.26
-27.82
-26.363
-24.899
-23.436
-21.987
-20.563
-19.177
-17.836
-16.549
-15.325
-14.175
-13.114
-12.15
-11.284
-10.516
-9.842
-9.257
-8.757
-8.331
-7.957
-7.617
-7.293
-6.971
-6.646
-6.31
-5.947
-5.541
-5.071
-4.533
-3.94
-3.303
-2.624
-1.927
-1.235
-0.593
-0.081
0.25
0.35
0.161
-0.359
-1.264
-2.606
-4.407
-6.693
-9.487
-12.791
-16.634
-21.05
-25.985
-31.391
-37.227
-43.3
-49.397
-55.21
-60.233
-64.013
-66.223
-66.583
-64.933
-61.406
-56.291
-50.189
-44.075
-38.87
-35.38
-34.081
-35.011
-37.684
-41.17
-44.204
-45.064
-41.731
-32.16
-14.973
10.394
43.389
82.54
126.169
171.769
215.52
252.85
279.294
290.919
285.307
260.982
216.263
150.73
66.242
-33.497
-143.316
-257.498
-371.338
-479.971
-577.268
-657.731
-717.541
-754.855
-770.072
-764.541
-739.104
-695.757
-638.595
-572.404
-502.012
-431.247
-362.492
-297.999
-240.779
-193.088
-155.463
-127.2
-106.681
-92.515
-83.797
-79.198
-76.521
-73.502
-68.821
-62.15
-53.871
-44.417
-34.072
-23.31
-13.099
-4.666
1.308
4.764
6.011
5.569
3.894
1.387
-1.356
-3.606
-4.907
-5.056
-4.028
-1.98
0.973
4.777
9.301
14.383
19.883
25.66
31.617
37.697
43.799
49.804
55.594
61.037
66.057
70.626
74.727
78.375
81.602
84.436
86.931
89.151
91.156
93.006
94.755
96.448
98.142
99.893
101.761
103.807
106.073
108.585
111.357
114.397
117.703
121.273
125.093
129.142
133.401
137.854
142.484
147.277
152.212
157.267
162.416
167.633
172.892
178.168
183.434
188.666
193.836
198.92
203.892
208.729
213.407
217.899
222.18
226.222
230.003
233.497
236.682
239.538
242.044
244.184
245.943
247.308
248.27
248.818
248.948
248.656
247.939
246.798
245.237
243.259
240.871
238.084
234.907
231.354
227.439
223.179
218.591
213.696
208.513
203.063
197.371
191.458
185.348
179.067
172.638
166.087
159.438
152.716
145.946
139.151
132.355
125.579
118.845
112.174
105.585
99.095
92.721
86.479
80.384
74.447
68.68
63.095
57.698
52.498
47.5
42.709
38.129
33.761
29.605
25.663
21.933
18.412
15.097
11.984
9.07
6.347
3.81
1.453
-0.731
-2.75
-4.611
-6.323
-7.892
-9.327
-10.635
-11.824
-12.902
-13.876
-14.754
-15.541
-16.244
-16.87
-17.424
-17.911
-18.337
-18.706
-19.022
-19.288
-19.508
-19.685
-19.822
-19.922
-19.986
-20.017
-20.018
-19.989
-19.934
-19.853
-19.749
-19.623
-19.478
-19.315
-19.137
-18.945
-18.743
-18.533
-18.316
-18.097
-17.877
-17.66
-17.448
-17.244
-17.051
-16.873
-16.712
-16.572
-16.456
-16.365
-16.304
-16.275
-16.279
-16.32
-16.397
-16.513
-16.667
-16.862
-17.097
-17.372
-17.686
-18.037
-18.424
-18.844
-19.294
-19.771
-20.271
-20.788
-21.319
-21.859
-22.401
-22.941
-23.471
-23.987
-24.483
-24.951
-25.387
-25.784
-26.136
-26.439
-26.687
-26.877
-27.006
-27.069
-27.067
-26.998
-26.863
-26.661
-26.395
-26.066
-25.677
-25.232
-24.734
-24.188
-23.596
-22.964
-22.3
-21.61
-20.903
-20.186
-19.467
-18.756
-18.063
-17.4
-16.774
-16.19
-15.653
-15.169
-14.744
-14.394
-14.124
-13.937
-13.833
-13.813
-13.874
-14.016
-14.226
-14.478
-14.749
-15.013
-15.258
-15.483
-15.679
-15.836
-15.941
-15.971
-15.917
-15.788
-15.579
-15.293
-14.938
-14.531
-14.114
-13.775
-13.589
-13.626
-13.945
-14.569
-15.519
-16.83
-18.537
-20.699
-23.361
-26.551
-30.282
-34.568
-39.429
-44.774
-50.39
-55.931
-60.937
-64.961
-67.669
-68.809
-68.157
-65.852
-62.255
-57.786
-53.222
-49.281
-46.488
-45.314
-45.904
-47.61
-49.381
-50.224
-48.75
-43.659
-33.587
-16.935
7.182
38.482
75.746
117.514
162.067
207.332
250.174
286.433
312.185
324.244
320.738
300.266
261.246
203.143
127.529
37.915
-60.94
-163.838
-266.46
-364.147
-451.044
-522.086
-573.914
-604.976
-615.769
-607.618
-581.377
-539.283
-485.567
-424.64
-360.761
-297.444
-236.744
-180.767
-132.374
-92.986
-62.372
-39.703
-23.378
-11.918
-4.525
0.304
4.938
10.803
18.44
27.915
38.573
49.855
61.535
72.837
82.524
89.879
94.623
96.827
97.007
95.601
92.923
89.516
86.059
83.051
80.824
79.52
79.071
79.426
80.557
82.383
84.794
87.678
90.934
94.478
98.264
102.229
106.288
110.343
114.298
118.055
121.53
124.675
127.463
129.889
131.975
133.751
135.249
136.519
137.616
138.59
139.492
140.366
141.248
142.186
143.226
144.413
145.794
147.398
149.241
151.333
153.676
156.263
159.088
162.134
165.377
168.797
172.374
176.088
179.923
183.858
187.866
191.922
196.001
200.074
204.118
208.107
212.015
215.817
219.487
223.004
226.347
229.492
232.418
235.102
237.523
239.661
241.496
243.013
244.194
245.026
245.498
245.599
245.325
244.669
243.63
242.206
240.399
238.212
235.652
232.727
229.445
225.818
221.86
217.584
213.008
208.15
203.029
197.665
192.079
186.293
180.331
174.215
167.97
161.619
155.185
148.694
142.169
135.632
129.107
122.616
116.181
109.822
103.558
97.407
91.387
85.513
79.799
74.259
68.904
63.744
58.788
54.044
49.518
45.213
41.134
37.282
33.656
30.257
27.083
24.128
21.391
18.864
16.542
14.418
12.483
10.73
9.148
7.728
6.461
5.335
4.34
3.466
2.701
2.035
1.458
0.958
0.527
0.155
-0.169
-0.453
-0.705
-0.933
-1.146
-1.349
-1.55
-1.754
-1.965
-2.188
-2.428
-2.687
-2.967
-3.271
-3.601
-3.956
-4.338
-4.747
-5.183
-5.644
-6.13
-6.639
-7.171
-7.724
-8.295
-8.885
-9.491
-10.111
-10.743
-11.387
-12.041
-12.704
-13.373
-14.048
-14.729
-15.414
-16.102
-16.793
-17.488
-18.185
-18.886
-19.589
-20.296
-21.007
-21.723
-22.445
-23.172
-23.907
-24.65
-25.402
-26.163
-26.934
-27.714
-28.505
-29.305
-30.113
-30.928
-31.748
-32.573
-33.398
-34.223
-35.045
-35.86
-36.665
-37.457
-38.23
-38.982
-39.708
-40.402
-41.06
-41.676
-42.246
-42.763
-43.224
-43.622
-43.952
-44.209
-44.386
-44.48
-44.486
-44.398
-44.213
-43.928
-43.54
-43.048
-42.452
-41.752
-40.95
-40.049
-39.053
-37.965
-36.79
-35.533
-34.201
-32.799
-31.334
-29.814
-28.246
-26.641
-25.007
-23.357
-21.7
-20.048
-18.411
-16.801
-15.23
-13.71
-12.252
-10.863
-9.554
-8.336
-7.222
-6.222
-5.342
-4.582
-3.943
-3.422
-3.014
-2.709
-2.486
-2.326
-2.209
-2.116
-2.036
-1.955
-1.862
-1.742
-1.576
-1.357
-1.085
-0.766
-0.411
-0.03
0.354
0.697
0.93
0.987
0.796
0.286
-0.6
-1.929
-3.752
-6.101
-9.008
-12.497
-16.596
-21.334
-26.746
-32.818
-39.519
-46.812
-54.514
-62.364
-70.024
-77.012
-82.854
-87.18
-89.672
-90.075
-88.543
-85.457
-81.26
-76.763
-72.691
-69.602
-68.052
-68.299
-69.795
-71.54
-72.548
-71.385
-66.697
-57.123
-41.037
-17.385
13.658
50.973
93.202
138.375
184.004
226.716
261.997
285.321
293.135
283.073
253.126
201.973
129.588
37.817
-69.171
-185.707
-305.981
-424.711
-536.119
-634.305
-714.178
-772.087
-806.773
-819.057
-810.41
-782.28
-737.388
-679.692
-613.745
-544.186
-474.405
-406.668
-343.279
-287.034
-239.992
-202.8
-174.874
-154.775
-141.364
-133.752
-130.544
-129.502
-128.279
-125.496
-120.784
-114.442
-106.83
-98.212
-89.068
-80.418
-73.565
-69.226
-67.483
-68.028
-70.331
-73.946
-78.473
-83.308
-87.714
-91.192
-93.503
-94.608
-94.653
-93.752
-91.965
-89.41
-86.239
-82.596
-78.619
-74.413
-70.049
-65.614
-61.222
-56.981
-53.008
-49.403
-46.217
-43.475
-41.174
-39.287
-37.783
-36.624
-35.758
-35.123
-34.66
-34.309
-34.02
-33.745
-33.435
-33.036
-32.493
-31.756
-30.792
-29.583
-28.119
-26.399
-24.426
-22.205
-19.752
-17.086
-14.227
-11.191
-7.994
-4.651
-1.18
2.397
6.056
9.772
13.524
17.287
21.04
24.758
28.418
31.997
35.472
38.823
42.027
45.061
47.901
50.525
52.911
55.038
56.887
58.441
59.682
60.597
61.174
61.403
61.276
60.788
59.935
58.715
57.128
55.177
52.867
50.203
47.194
43.849
40.182
36.206
31.935
27.388
22.583
17.539
12.277
6.82
1.19
-4.589
-10.493
-16.497
-22.576
-28.705
-34.858
-41.012
-47.142
-53.224
-59.235
-65.152
-70.954
-76.621
-82.134
-87.474
-92.627
-97.575
-102.306
-106.807
-111.067
-115.076
-118.827
-122.313
-125.529
-128.471
-131.138
-133.53
-135.646
-137.49
-139.064
-140.375
-141.428
-142.231
-142.791
-143.119
-143.224
-143.117
-142.81
-142.316
-141.646
-140.813
-139.832
-138.714
-137.474
-136.125
-134.681
-133.154
-131.557
-129.902
-128.202
-126.468
-124.711
-122.942
-121.169
-119.403
-117.651
-115.922
-114.222
-112.558
-110.934
-109.356
-107.828
-106.352
-104.931
-103.567
-102.26
-101.012
-99.822
-98.69
-97.614
-96.593
-95.625
-94.708
-93.839
-93.015
-92.234
-91.493
-90.788
-90.115
-89.473
-88.857
-88.264
-87.692
-87.138
-86.598
-86.07
-85.553
-85.043
-84.539
-84.039
-83.543
-83.049
-82.556
-82.065
-81.575
-81.086
-80.599
-80.115
-79.634
-79.158
-78.687
-78.223
-77.768
-77.322
-76.886
-76.462
-76.05
-75.652
-75.267
-74.897
-74.539
-74.195
-73.864
-73.545
-73.237
-72.938
-72.648
-72.363
-72.083
-71.804
-71.524
-71.239
-70.946
-70.64
-70.319
-69.977
-69.61
-69.213
-68.781
-68.31
-67.792
-67.224
-66.6
-65.914
-65.161
-64.337
-63.437
-62.458
-61.398
-60.254
-59.025
-57.711
-56.314
-54.834
-53.275
-51.637
-49.925
-48.143
-46.294
-44.384
-42.416
-40.398
-38.335
-36.237
-34.112
-31.969
-29.817
-27.666
-25.524
-23.402
-21.31
-19.259
-17.257
-15.311
-13.433
-11.633
-9.924
-8.315
-6.807
-5.401
-4.092
-2.877
-1.747
-0.692
0.31
1.277
2.224
3.167
4.112
5.067
6.045
7.06
8.133
9.273
10.478
11.737
13.039
14.37
15.71
17.019
18.232
19.29
20.136
20.717
21
20.941
20.505
19.668
18.393
16.65
14.423
11.688
8.425
4.645
0.337
-4.504
-9.721
-15.088
-20.284
-24.853
-28.448
-30.796
-31.507
-30.269
-27.129
-22.365
-16.608
-10.828
-5.632
-1.468
0.945
1.249
-0.336
-3.171
-5.819
-6.41
-3.692
3.607
17.26
38.354
67.342
103.977
146.525
192.797
240.84
287.736
329.451
362.045
381.456
384.255
368.595
332.781
275.613
197.835
101.984
-7.93
-126.37
-247.661
-366.506
-476.694
-572.263
-648.584
-702.319
-732.344
-739.389
-724.64
-690.052
-639.196
-576.346
-506.162
-433.352
-361.179
-292.204
-229.192
-174.35
-128.958
-93.297
-66.391
-46.67
-33.091
-24.426
-18.893
-14.676
-9.912
-3.514
4.524
13.862
24.219
35.143
45.984
55.906
63.806
69.123
71.96
72.608
71.546
69.266
66.19
62.889
60.065
58.176
57.422
57.86
59.369
61.841
65.227
69.41
74.238
79.572
85.278
91.253
97.426
103.711
109.998
116.18
122.142
127.78
133.042
137.901
142.359
146.441
150.177
153.603
156.772
159.744
162.58
165.335
168.056
170.785
173.567
176.451
179.487
182.724
186.189
189.897
193.854
198.055
202.494
207.158
212.028
217.075
222.276
227.607
233.047
238.576
244.17
249.802
255.444
261.066
266.642
272.146
277.55
282.828
287.955
292.906
297.657
302.189
306.479
310.504
314.244
317.677
320.785
323.549
325.954
327.985
329.631
330.88
331.727
332.166
332.196
331.814
331.024
329.828
328.234
326.249
323.883
321.149
318.061
314.634
310.885
306.835
302.503
297.911
293.08
288.036
282.802
277.402
271.862
266.208
260.463
254.655
248.806
242.943
237.089
231.266
225.499
219.808
214.213
208.733
203.387
198.191
193.159
188.304
183.639
179.174
174.917
170.876
167.055
163.46
160.092
156.953
154.041
151.355
148.891
146.645
144.611
142.782
141.15
139.706
138.441
137.344
136.405
135.612
134.953
134.417
133.992
133.664
133.423
133.255
133.148
133.092
133.075
133.086
133.114
133.151
133.187
133.213
133.222
133.207
133.161
133.079
132.957
132.79
132.575
132.311
131.995
131.628
131.208
130.736
130.214
129.643
129.025
128.364
127.661
126.92
126.144
125.338
124.506
123.651
122.777
121.888
120.989
120.083
119.173
118.264
117.358
116.458
115.567
114.688
113.823
112.973
112.141
111.326
110.53
109.752
108.994
108.253
107.53
106.823
106.131
105.451
104.781
104.12
103.465
102.812
102.16
101.504
100.842
100.169
99.483
98.781
98.058
97.312
96.54
95.738
94.903
94.033
93.125
92.176
91.184
90.148
89.064
87.933
86.751
85.52
84.239
82.907
81.526
80.096
78.618
77.094
75.527
73.917
72.268
70.582
68.862
67.113
65.337
63.54
61.725
59.897
58.061
56.222
54.387
52.559
50.744
48.949
47.179
45.44
43.737
42.077
40.466
38.908
37.41
35.976
34.61
33.316
32.097
30.955
29.891
28.905
27.998
27.169
26.416
25.74
25.137
24.607
24.146
23.752
23.421
23.149
22.933
22.765
22.64
22.552
22.494
22.46
22.445
22.439
22.434
22.426
22.409
22.376
22.32
22.23
22.1
21.928
21.716
21.466
21.186
20.88
20.562
20.253
19.97
19.733
19.559
19.455
19.43
19.495
19.664
19.952
20.365
20.897
21.533
22.267
23.079
23.936
24.79
25.563
26.182
26.587
26.706
26.481
25.859
24.784
23.226
21.163
18.559
15.391
11.633
7.235
2.211
-3.387
-9.526
-16.017
-22.592
-28.95
-34.627
-39.145
-42.164
-43.379
-42.547
-39.86
-35.696
-30.492
-25.061
-20.136
-16.319
-14.246
-14.216
-15.696
-17.709
-19.245
-18.865
-15.201
-6.778
8.157
30.759
60.916
97.472
139.028
183.573
228.534
270.462
304.764
326.822
333.091
321.277
289.365
236.151
161.755
67.948
-41.116
-159.811
-282.529
-403.904
-517.932
-618.725
-701.122
-761.038
-796.923
-809.109
-798.388
-766.315
-715.928
-651.244
-577.151
-498.929
-420.455
-344.885
-275.604
-215.473
-166.412
-129.117
-102.669
-85.218
-75.326
-71.331
-70.95
-71.839
-71.647
-68.925
-63.524
-55.841
-46.295
-35.521
-24.394
-13.988
-5.631
-0.046
2.796
3.188
1.644
-1.296
-5.151
-9.296
-12.982
-15.727
-17.334
-17.757
-17.139
-15.606
-13.217
-10.102
-6.418
-2.299
2.126
6.76
11.539
16.377
21.167
25.805
30.178
34.185
37.775
40.922
43.629
45.925
47.838
49.41
50.69
51.741
52.624
53.396
54.107
54.804
55.534
56.351
57.309
58.46
59.838
61.46
63.336
65.467
67.85
70.477
73.334
76.398
79.648
83.067
86.638
90.346
94.172
98.093
102.085
106.124
110.185
114.247
118.287
122.28
126.204
130.035
133.752
137.336
140.763
144.012
147.06
149.884
152.462
154.775
156.804
158.53
159.938
161.012
161.742
162.119
162.134
161.782
161.059
159.964
158.497
156.66
154.458
151.897
148.985
145.731
142.145
138.242
134.035
129.539
124.772
119.75
114.493
109.022
103.355
97.515
91.524
85.403
79.176
72.866
66.494
60.085
53.659
47.24
40.849
34.506
28.23
22.041
15.955
9.989
4.159
-1.523
-7.043
-12.39
-17.554
-22.527
-27.299
-31.866
-36.222
-40.363
-44.287
-47.991
-51.475
-54.74
-57.787
-60.619
-63.239
-65.652
-67.864
-69.88
-71.707
-73.353
-74.826
-76.134
-77.286
-78.292
-79.16
-79.902
-80.525
-81.039
-81.454
-81.778
-82.02
-82.189
-82.291
-82.335
-82.326
-82.273
-82.18
-82.053
-81.897
-81.717
-81.517
-81.3
-81.069
-80.827
-80.577
-80.32
-80.058
-79.791
-79.52
-79.245
-78.967
-78.685
-78.398
-78.105
-77.805
-77.497
-77.18
-76.852
-76.512
-76.158
-75.791
-75.408
-75.01
-74.595
-74.164
-73.718
-73.257
-72.781
-72.293
-71.792
-71.283
-70.766
-70.244
-69.719
-69.195
-68.675
-68.161
-67.657
-67.168
-66.696
-66.247
-65.823
-65.43
-65.073
-64.755
-64.48
-64.254
-64.081
-63.966
-63.911
-63.922
-64.002
-64.155
-64.383
-64.689
-65.074
-65.542
-66.091
-66.722
-67.436
-68.23
-69.103
-70.053
-71.077
-72.172
-73.333
-74.558
-75.84
-77.175
-78.557
-79.979
-81.435
-82.918
-84.42
-85.934
-87.45
-88.961
-90.457
-91.931
-93.373
-94.773
-96.123
-97.414
-98.637
-99.783
-100.844
-101.813
-102.683
-103.447
-104.101
-104.641
-105.063
-105.367
-105.551
-105.618
-105.566
-105.399
-105.118
-104.728
-104.231
-103.633
-102.938
-102.152
-101.281
-100.335
-99.322
-98.252
-97.135
-95.98
-94.798
-93.599
-92.396
-91.199
-90.018
-88.861
-87.737
-86.658
-85.637
-84.684
-83.802
-82.99
-82.247
-81.569
-80.95
-80.381
-79.841
-79.311
-78.775
-78.216
-77.629
-77.003
-76.327
-75.585
-74.759
-73.843
-72.84
-71.764
-70.622
-69.428
-68.204
-66.991
-65.857
-64.864
-64.071
-63.539
-63.313
-63.451
-64.001
-64.994
-66.468
-68.455
-70.973
-74.049
-77.71
-81.937
-86.728
-92.074
-97.807
-103.696
-109.419
-114.488
-118.51
-121.186
-122.101
-120.938
-117.767
-112.85
-106.791
-100.586
-94.885
-90.221
-87.404
-86.833
-88.26
-91.015
-93.675
-94.364
-91.706
-84.179
-69.81
-47.317
-16.272
22.778
67.979
116.901
167.012
214.673
255.164
283.768
296.199
289.442
261.721
211.855
139.725
47.277
-61.426
-180.7
-304.219
-426.276
-541.055
-642.499
-725.307
-785.67
-822.033
-835.087
-826.439
-797.626
-751.414
-691.883
-623.717
-551.734
-479.512
-409.375
-343.623
-285.037
-235.654
-196.098
-165.733
-143.035
-126.834
-116.275
-110.044
-106.01
-101.904
-96.401
-89.208
-80.691
-71.24
-61.118
-50.755
-41.098
-33.408
-28.369
-26.025
-26.041
-27.859
-31.01
-35.091
-39.495
-43.465
-46.478
-48.273
-48.786
-48.151
-46.475
-43.809
-40.27
-36.014
-31.189
-25.945
-20.395
-14.614
-8.696
-2.758
3.084
8.703
13.99
18.885
23.358
27.405
31.05
34.323
37.257
39.907
42.333
44.597
46.758
48.865
50.963
53.1
55.329
57.703
60.272
63.067
66.104
69.389
72.921
76.693
80.694
84.906
89.302
93.861
98.562
103.385
108.312
113.323
118.393
123.496
128.606
133.698
138.75
143.738
148.638
153.427
158.083
162.585
166.916
171.054
174.978
178.668
182.103
185.264
188.133
190.695
192.933
194.835
196.389
197.586
198.42
198.886
198.98
198.699
198.046
197.021
195.629
193.874
191.765
189.308
186.516
183.398
179.969
176.243
172.235
167.961
163.439
158.688
153.727
148.575
143.252
137.78
132.179
126.471
120.677
114.817
108.914
102.988
97.058
91.145
85.267
79.442
73.688
68.019
62.452
57.001
51.679
46.498
41.469
36.604
31.91
27.396
23.069
18.935
14.999
11.265
7.735
4.411
1.295
-1.615
-4.318
-6.817
-9.115
-11.215
-13.122
-14.84
-16.377
-17.737
-18.928
-19.958
-20.833
-21.561
-22.15
-22.609
-22.945
-23.167
-23.282
-23.299
-23.225
-23.069
-22.838
-22.538
-22.178
-21.765
-21.303
-20.801
-20.263
-19.696
-19.104
-18.493
-17.866
-17.229
-16.585
-15.937
-15.289
-14.642
-14.001
-13.365
-12.737
-12.119
-11.512
-10.916
-10.333
-9.764
-9.209
-8.669
-8.145
-7.637
-7.146
-6.673
-6.218
-5.782
-5.366
-4.97
-4.595
-4.243
-3.913
-3.608
-3.327
-3.073
-2.846
-2.646
-2.476
-2.336
-2.227
-2.151
-2.107
-2.098
-2.124
-2.187
-2.286
-2.422
-2.595
-2.806
-3.053
-3.336
-3.653
-4.003
-4.385
-4.794
-5.229
-5.688
-6.166
-6.661
-7.167
-7.683
-8.201
-8.72
-9.233
-9.735
-10.222
-10.687
-11.125
-11.531
-11.9
-12.225
-12.501
-12.723
-12.885
-12.983
-13.012
-12.966
-12.843
-12.639
-12.35
-11.977
-11.517
-10.971
-10.339
-9.625
-8.831
-7.963
-7.023
-6.017
-4.95
-3.828
-2.658
-1.446
-0.198
1.079
2.376
3.683
4.989
6.287
7.566
8.818
10.032
11.197
12.3
13.336
14.298
15.178
15.968
16.654
17.228
17.688
18.036
18.274
18.408
18.446
18.397
18.288
18.141
17.978
17.823
17.684
17.573
17.508
17.509
17.594
17.776
18.046
18.396
18.826
19.314
19.83
20.327
20.726
20.96
20.972
20.684
20.037
18.968
17.419
15.372
12.808
9.687
5.998
1.701
-3.243
-8.745
-14.72
-21.111
-27.71
-34.292
-40.548
-45.881
-49.75
-51.915
-52.157
-50.386
-46.838
-41.626
-35.138
-28.44
-22.504
-17.926
-15.108
-13.82
-13.259
-12.973
-12.131
-8.925
-1.466
12.033
32.964
61.384
96.273
136.828
181.571
227.6
271.174
307.633
332.176
341.315
332.717
304.007
253.799
182.553
92.417
-12.216
-125.575
-242.113
-356.362
-462.061
-553.354
-625.592
-675.456
-701.979
-705.928
-688.429
-651.581
-599.274
-536.085
-466.741
-395.929
-327.095
-262.939
-206.468
-159.899
-123.716
-97.392
-79.595
-68.419
-62.382
-59.955
-58.787
-56.715
-52.629
-46.152
-37.598
-27.684
-16.901
-5.816
4.461
12.788
18.555
21.643
22.376
21.307
18.892
15.557
11.902
8.599
6.124
4.719
4.425
5.137
6.763
9.249
12.506
16.394
20.786
25.565
30.627
35.909
41.328
46.77
52.127
57.282
62.129
66.609
70.694
74.373
77.664
80.593
83.187
85.495
87.572
89.469
91.241
92.933
94.585
96.244
97.96
99.782
101.759
103.923
106.291
108.871
111.664
114.666
117.871
121.262
124.818
128.52
132.35
136.291
140.328
144.444
148.615
152.82
157.035
161.236
165.402
169.512
173.542
177.472
181.28
184.945
188.45
191.774
194.898
197.801
200.464
202.867
204.994
206.828
208.355
209.561
210.435
210.968
211.153
210.986
210.463
209.582
208.345
206.752
204.809
202.521
199.895
196.941
193.669
190.091
186.221
182.075
177.667
173.016
168.14
163.057
157.789
152.354
146.775
141.072
135.267
129.381
123.436
117.454
111.454
105.459
99.487
93.559
87.691
81.903
76.211
70.629
65.172
59.854
54.686
49.679
44.844
40.189
35.721
31.446
27.37
23.496
19.827
16.365
13.11
10.062
7.219
4.578
2.137
-0.11
-2.167
-4.039
-5.733
-7.257
-8.617
-9.821
-10.878
-11.796
-12.584
-13.251
-13.806
-14.258
-14.615
-14.887
-15.082
-15.209
-15.276
-15.292
-15.262
-15.196
-15.1
-14.98
-14.843
-14.695
-14.54
-14.384
-14.231
-14.085
-13.95
-13.828
-13.724
-13.639
-13.576
-13.536
-13.521
-13.532
-13.571
-13.638
-13.734
-13.859
-14.013
-14.196
-14.408
-14.649
-14.917
-15.213
-15.534
-15.881
-16.252
-16.645
-17.06
-17.493
-17.945
-18.412
-18.893
-19.384
-19.885
-20.391
-20.901
-21.412
-21.922
-22.426
-22.922
-23.407
-23.877
-24.329
-24.759
-25.163
-25.536
-25.875
-26.175
-26.433
-26.644
-26.804
-26.909
-26.955
-26.938
-26.855
-26.703
-26.479
-26.18
-25.804
-25.352
-24.822
-24.216
-23.533
-22.776
-21.949
-21.055
-20.099
-19.085
-18.018
-16.903
-15.747
-14.557
-13.338
-12.099
-10.846
-9.587
-8.335
-7.098
-5.887
-4.71
-3.577
-2.498
-1.486
-0.551
0.301
1.061
1.723
2.277
2.713
3.021
3.201
3.256
3.188
3.004
2.711
2.319
1.851
1.328
0.771
0.198
-0.382
-0.959
-1.515
-2.031
-2.488
-2.873
-3.191
-3.447
-3.639
-3.783
-3.902
-4.033
-4.248
-4.601
-5.14
-5.927
-7.008
-8.434
-10.257
-12.49
-15.152
-18.276
-21.874
-25.985
-30.656
-35.82
-41.408
-47.375
-53.529
-59.668
-65.523
-70.558
-74.279
-76.465
-76.904
-75.516
-72.536
-68.086
-62.507
-56.751
-51.697
-47.866
-45.63
-44.795
-44.596
-44.583
-44.023
-41.311
-34.741
-22.708
-3.894
21.879
53.726
90.929
132.285
175.322
216.707
252.23
277.374
288.633
283.725
260.402
217.045
153.628
71.861
-24.455
-129.93
-239.097
-347.012
-448.135
-536.804
-608.327
-659.394
-688.772
-697.274
-686.33
-657.324
-613.133
-557.822
-495.654
-430.898
-366.89
-305.742
-249.683
-201.42
-162.209
-131.957
-109.926
-94.569
-84.518
-78.867
-75.965
-73.387
-69.618
-64.018
-56.447
-47.48
-37.619
-27.108
-16.762
-7.868
-1.167
3.099
5.027
5.158
3.983
1.837
-0.71
-2.926
-4.341
-4.691
-3.895
-2.092
0.612
4.174
8.48
13.38
18.745
24.438
30.357
36.447
42.613
48.734
54.686
60.333
65.587
70.41
74.782
78.705
82.197
85.282
88.001
90.414
92.571
94.525
96.325
98.012
99.636
101.254
102.923
104.702
106.634
108.745
111.05
113.56
116.276
119.195
122.308
125.597
129.045
132.64
136.368
140.219
144.177
148.221
152.333
156.489
160.668
164.849
169.012
173.135
177.197
181.177
185.055
188.814
192.432
195.888
199.162
202.231
205.075
207.675
210.013
212.069
213.829
215.279
216.405
217.2
217.653
217.758
217.512
216.91
215.953
214.641
212.978
210.967
208.616
205.933
202.928
199.613
196.001
192.107
187.946
183.536
178.896
174.045
169.003
163.791
158.431
152.943
147.351
141.677
135.942
130.17
124.382
118.599
112.843
107.133
101.489
95.929
90.469
85.126
79.914
74.848
69.939
65.199
60.637
56.263
52.083
48.104
44.33
40.764
37.409
34.266
31.334
28.612
26.097
23.786
21.673
19.754
18.023
16.472
15.093
13.878
12.819
11.905
11.128
10.477
9.942
9.513
9.179
8.932
8.761
8.657
8.61
8.611
8.651
8.723
8.819
8.931
9.053
9.178
9.301
9.416
9.519
9.605
9.672
9.716
9.735
9.725
9.687
9.618
9.518
9.386
9.222
9.026
8.8
8.543
8.257
7.942
7.6
7.231
6.837
6.419
5.978
5.515
5.032
4.528
4.006
3.467
2.91
2.337
1.749
1.145
0.528
-0.103
-0.747
-1.402
-2.069
-2.746
-3.431
-4.124
-4.824
-5.529
-6.238
-6.951
-7.664
-8.377
-9.089
-9.796
-10.498
-11.191
-11.872
-12.538
-13.188
-13.816
-14.421
-14.998
-15.544
-16.056
-16.529
-16.962
-17.35
-17.689
-17.977
-18.212
-18.392
-18.514
-18.578
-18.584
-18.532
-18.424
-18.263
-18.051
-17.79
-17.483
-17.134
-16.748
-16.328
-15.877
-15.398
-14.896
-14.377
-13.847
-13.314
-12.782
-12.258
-11.75
-11.268
-10.82
-10.412
-10.045
-9.723
-9.447
-9.224
-9.066
-8.978
-8.959
-9.01
-9.129
-9.314
-9.56
-9.852
-10.164
-10.467
-10.736
-10.957
-11.129
-11.246
-11.297
-11.275
-11.161
-10.952
-10.656
-10.273
-9.807
-9.273
-8.696
-8.125
-7.652
-7.368
-7.35
-7.675
-8.379
-9.491
-11.048
-13.086
-15.659
-18.817
-22.597
-27.013
-32.077
-37.808
-44.102
-50.744
-57.386
-63.547
-68.753
-72.637
-74.914
-75.344
-74.078
-71.485
-67.999
-64.405
-61.432
-59.629
-59.507
-61.272
-64.311
-67.585
-70.12
-70.515
-67.425
-59.485
-45.061
-23.068
6.355
42.109
82.903
126.857
171.572
213.806
249.174
273.215
282.386
274.283
246.821
198.66
129.77
41.798
-61.35
-174.279
-291.427
-407.394
-516.144
-611.741
-689.185
-744.662
-776.623
-785.422
-771.97
-738.011
-687.084
-623.646
-552.504
-478.673
-406.036
-337.646
-276.852
-226.363
-187.101
-158.818
-140.303
-129.54
-124.829
-124.43
-125.694
-126.032
-123.966
-118.884
-110.948
-100.88
-89.242
-76.666
-64.424
-53.909
-45.926
-40.745
-38.157
-37.63
-38.723
-41.04
-43.954
-46.744
-48.907
-50.142
-50.372
-49.702
-48.209
-45.94
-42.99
-39.49
-35.556
-31.297
-26.8
-22.111
-17.303
-12.461
-7.672
-3.036
1.361
5.439
9.152
12.48
15.428
18.018
20.277
22.24
23.952
25.47
26.847
28.133
29.374
30.607
31.876
33.228
34.709
36.363
38.22
40.294
42.594
45.123
47.876
50.848
54.025
57.385
60.91
64.581
68.382
72.299
76.312
80.4
84.538
88.703
92.872
97.022
101.131
105.174
109.129
112.973
116.685
120.246
123.634
126.828
129.808
132.553
135.042
137.259
139.187
140.809
142.111
143.083
143.714
143.998
143.928
143.502
142.717
141.575
140.077
138.227
136.033
133.501
130.641
127.465
123.984
120.213
116.167
111.864
107.32
102.555
97.587
92.439
87.129
81.68
76.113
70.45
64.712
58.922
53.101
47.269
41.448
35.658
29.918
24.247
18.661
13.178
7.812
2.578
-2.51
-7.442
-12.206
-16.793
-21.195
-25.404
-29.414
-33.222
-36.822
-40.213
-43.394
-46.364
-49.123
-51.673
-54.018
-56.159
-58.101
-59.849
-61.408
-62.784
-63.984
-65.014
-65.882
-66.595
-67.161
-67.587
-67.882
-68.053
-68.108
-68.055
-67.902
-67.657
-67.327
-66.918
-66.439
-65.895
-65.292
-64.637
-63.936
-63.193
-62.414
-61.604
-60.766
-59.907
-59.028
-58.135
-57.23
-56.317
-55.399
-54.479
-53.56
-52.645
-51.736
-50.836
-49.948
-49.075
-48.218
-47.381
-46.566
-45.776
-45.012
-44.277
-43.574
-42.905
-42.271
-41.675
-41.119
-40.604
-40.134
-39.708
-39.328
-38.996
-38.712
-38.477
-38.29
-38.151
-38.06
-38.015
-38.016
-38.06
-38.147
-38.273
-38.435
-38.631
-38.857
-39.108
-39.379
-39.666
-39.964
-40.266
-40.567
-40.861
-41.142
-41.404
-41.64
-41.846
-42.014
-42.139
-42.214
-42.235
-42.196
-42.094
-41.924
-41.684
-41.37
-40.983
-40.523
-39.99
-39.386
-38.711
-37.97
-37.164
-36.298
-35.376
-34.401
-33.377
-32.311
-31.208
-30.077
-28.926
-27.761
-26.591
-25.424
-24.271
-23.142
-22.044
-20.979
-19.953
-18.969
-18.034
-17.162
-16.356
-15.618
-14.949
-14.346
-13.807
-13.329
-12.895
-12.479
-12.054
-11.595
-11.089
-10.532
-9.915
-9.225
-8.453
-7.578
-6.602
-5.531
-4.366
-3.11
-1.781
-0.405
0.962
2.226
3.297
4.096
4.546
4.601
4.225
3.37
1.989
0.036
-2.53
-5.739
-9.591
-14.117
-19.35
-25.175
-31.368
-37.565
-43.233
-47.926
-51.299
-52.917
-52.441
-49.924
-45.618
-40.127
-34.474
-29.365
-25.391
-23.393
-23.764
-26.199
-29.986
-33.689
-35.379
-33.583
-26.644
-12.442
10.376
42.216
82.461
129.202
179.869
231.693
280.797
322.184
350.937
362.74
354.558
324.581
271.818
196.51
100.855
-10.789
-132.564
-258.197
-381.709
-496.877
-597.622
-678.846
-736.794
-769.947
-778.802
-764.533
-729.065
-676.064
-610.102
-536.08
-459.103
-383.119
-311.148
-246.492
-191.885
-148.298
-115.556
-92.527
-77.238
-68.065
-63.405
-60.743
-57.569
-52.44
-44.748
-34.646
-22.864
-9.954
3.504
16.305
27.099
35.124
40.144
42.411
42.507
40.928
38.115
34.735
31.557
29.122
27.759
27.566
28.452
30.339
33.178
36.865
41.253
46.203
51.579
57.27
63.203
69.281
75.395
81.431
87.275
92.822
97.987
102.72
106.998
110.826
114.228
117.237
119.893
122.25
124.371
126.319
128.151
129.921
131.672
133.458
135.331
137.339
139.527
141.925
144.548
147.402
150.487
153.8
157.33
161.061
164.97
169.036
173.241
177.565
181.991
186.498
191.061
195.655
200.254
204.834
209.369
213.835
218.208
222.461
226.572
230.518
234.277
237.827
241.145
244.208
246.994
249.483
251.657
253.497
254.987
256.114
256.865
257.231
257.206
256.784
255.962
254.739
253.116
251.098
248.688
245.896
242.729
239.2
235.321
231.108
226.577
221.746
216.634
211.262
205.652
199.825
193.807
187.619
181.288
174.837
168.291
161.675
155.015
148.334
141.656
135.005
128.404
121.873
115.434
109.105
102.906
96.853
90.962
85.248
79.723
74.399
69.286
64.394
59.729
55.297
51.103
47.149
43.438
39.97
36.744
33.757
31.007
28.489
26.198
24.127
22.269
20.617
19.162
17.894
16.804
15.881
15.115
14.495
14.011
13.651
13.405
13.262
13.211
13.242
13.345
13.509
13.726
13.986
14.281
14.603
14.944
15.297
15.655
16.014
16.368
16.711
17.04
17.351
17.639
17.904
18.141
18.35
18.528
18.675
18.789
18.87
18.918
18.933
18.915
18.865
18.782
18.667
18.522
18.345
18.138
17.902
17.638
17.345
17.025
16.678
16.304
15.905
15.481
15.032
14.558
14.06
13.538
12.994
12.427
11.838
11.229
10.601
9.955
9.293
8.616
7.927
7.228
6.52
5.805
5.087
4.368
3.651
2.94
2.236
1.545
0.869
0.214
-0.418
-1.022
-1.593
-2.129
-2.624
-3.075
-3.476
-3.825
-4.117
-4.348
-4.515
-4.616
-4.648
-4.609
-4.499
-4.318
-4.065
-3.744
-3.357
-2.908
-2.399
-1.835
-1.22
-0.559
0.141
0.876
1.639
2.426
3.23
4.043
4.857
5.663
6.456
7.227
7.969
8.673
9.329
9.929
10.47
10.948
11.357
11.692
11.943
12.104
12.179
12.169
12.079
11.917
11.686
11.402
11.089
10.77
10.472
10.213
10
9.845
9.764
9.769
9.884
10.115
10.45
10.889
11.424
12.035
12.703
13.38
13.986
14.451
14.697
14.648
14.257
13.468
12.243
10.551
8.341
5.577
2.231
-1.739
-6.331
-11.524
-17.321
-23.591
-30.073
-36.432
-42.169
-46.777
-49.894
-51.211
-50.5
-47.878
-43.66
-38.4
-33.022
-28.423
-25.396
-24.467
-25.725
-28.661
-32.322
-35.45
-36.403
-33.352
-24.259
-7.59
17.447
50.691
90.864
136.311
184.775
232.878
276.207
310.242
330.573
333.631
317.221
279.295
218.764
136.683
35.973
-78.865
-201.96
-327.416
-449.607
-561.904
-658.111
-733.678
-785.459
-812.455
-815.482
-795.695
-755.167
-698.077
-629.287
-553.651
-476.023
-399.995
-328.436
-264.71
-211.429
-169.296
-137.932
-116.087
-101.868
-93.803
-90.289
-88.723
-86.575
-82.436
-75.752
-66.731
-56.059
-44.234
-31.843
-20.112
-10.402
-3.479
0.445
1.638
0.682
-1.917
-5.706
-10.017
-14.082
-17.373
-19.579
-20.608
-20.564
-19.533
-17.57
-14.785
-11.323
-7.31
-2.874
1.882
6.89
12.049
17.249
22.382
27.333
32
36.299
40.178
43.619
46.632
49.246
51.495
53.421
55.077
56.526
57.83
59.047
60.23
61.426
62.686
64.062
65.605
67.362
69.361
71.619
74.14
76.925
79.968
83.259
86.782
90.514
94.433
98.519
102.754
107.121
111.597
116.159
120.78
125.433
130.094
134.738
139.338
143.868
148.304
152.62
156.792
160.798
164.613
168.214
171.575
174.673
177.486
179.994
182.176
184.014
185.492
186.596
187.315
187.641
187.565
187.083
186.192
184.893
183.185
181.074
178.565
175.666
172.386
168.737
164.734
160.391
155.726
150.757
145.504
139.989
134.233
128.261
122.097
115.764
109.289
102.697
96.013
89.263
82.474
75.669
68.874
62.113
55.409
48.784
42.259
35.854
29.588
23.479
17.541
11.789
6.238
0.898
-4.221
-9.11
-13.762
-18.171
-22.333
-26.246
-29.909
-33.323
-36.488
-39.409
-42.089
-44.534
-46.75
-48.745
-50.528
-52.108
-53.494
-54.698
-55.73
-56.602
-57.324
-57.91
-58.371
-58.719
-58.965
-59.121
-59.198
-59.207
-59.159
-59.063
-58.928
-58.765
-58.58
-58.381
-58.175
-57.969
-57.766
-57.573
-57.393
-57.229
-57.083
-56.958
-56.855
-56.773
-56.714
-56.676
-56.658
-56.659
-56.678
-56.711
-56.758
-56.815
-56.88
-56.95
-57.024
-57.097
-57.168
-57.234
-57.294
-57.345
-57.385
-57.414
-57.43
-57.432
-57.421
-57.395
-57.356
-57.304
-57.24
-57.165
-57.082
-56.991
-56.896
-56.799
-56.703
-56.61
-56.524
-56.447
-56.383
-56.333
-56.301
-56.289
-56.299
-56.333
-56.392
-56.478
-56.591
-56.731
-56.9
-57.097
-57.32
-57.568
-57.84
-58.134
-58.445
-58.771
-59.108
-59.451
-59.796
-60.138
-60.471
-60.789
-61.087
-61.357
-61.594
-61.79
-61.94
-62.036
-62.072
-62.043
-61.945
-61.772
-61.521
-61.19
-60.777
-60.282
-59.704
-59.044
-58.302
-57.479
-56.578
-55.602
-54.552
-53.433
-52.25
-51.008
-49.716
-48.382
-47.012
-45.616
-44.201
-42.777
-41.353
-39.942
-38.55
-37.185
-35.856
-34.574
-33.353
-32.203
-31.128
-30.127
-29.2
-28.342
-27.548
-26.81
-26.105
-25.416
-24.728
-24.022
-23.293
-22.535
-21.733
-20.874
-19.943
-18.928
-17.841
-16.697
-15.5
-14.276
-13.055
-11.882
-10.835
-9.985
-9.391
-9.124
-9.242
-9.797
-10.845
-12.415
-14.527
-17.215
-20.493
-24.376
-28.9
-34.026
-39.7
-45.886
-52.404
-58.998
-65.336
-70.902
-75.188
-77.825
-78.499
-77.002
-73.466
-68.213
-61.828
-55.278
-49.507
-45.362
-43.391
-43.681
-45.721
-48.542
-50.838
-50.89
-46.787
-36.438
-18.337
8.204
42.893
84.348
130.804
179.851
227.953
270.603
303.323
321.9
323.039
304.765
265.221
203.556
121.095
20.977
-92.23
-212.781
-335.024
-453.541
-561.87
-654.02
-725.713
-774.065
-798.243
-799.094
-777.663
-735.936
-678.043
-608.764
-532.854
-455.046
-378.82
-307.002
-243
-189.447
-147.065
-115.52
-93.568
-79.339
-71.401
-68.148
-66.967
-65.331
-61.811
-55.805
-47.478
-37.459
-26.199
-14.274
-2.875
6.666
13.605
17.765
19.399
19.058
17.231
14.363
11.112
8.247
6.285
5.479
5.884
7.369
9.821
13.176
17.309
22.045
27.24
32.754
38.485
44.378
50.34
56.252
62.004
67.474
72.56
77.211
81.398
85.112
88.379
91.232
93.709
95.868
97.773
99.482
101.057
102.549
104.004
105.477
107.02
108.689
110.536
112.593
114.882
117.413
120.19
123.207
126.46
129.932
133.602
137.452
141.463
145.618
149.902
154.296
158.777
163.321
167.904
172.502
177.091
181.648
186.15
190.571
194.889
199.082
203.127
207.004
210.687
214.155
217.383
220.351
223.038
225.425
227.494
229.228
230.614
231.64
232.297
232.576
232.473
231.984
231.106
229.841
228.19
226.158
223.752
220.978
217.848
214.371
210.563
206.437
202.01
197.299
192.323
187.102
181.658
176.011
170.186
164.204
158.089
151.866
145.559
139.191
132.787
126.37
119.963
113.589
107.27
101.025
94.876
88.841
82.937
77.181
71.588
66.173
60.948
55.925
51.115
46.526
42.166
38.041
34.157
30.517
27.124
23.979
21.081
18.429
16.02
13.852
11.919
10.215
8.733
7.466
6.405
5.54
4.863
4.361
4.026
3.844
3.806
3.898
4.111
4.43
4.846
5.347
5.921
6.556
7.243
7.97
8.728
9.506
10.295
11.087
11.873
12.645
13.397
14.122
14.813
15.466
16.076
16.639
17.151
17.61
18.013
18.36
18.648
18.878
19.049
19.161
19.216
19.213
19.156
19.044
18.88
18.666
18.403
18.094
17.741
17.346
16.91
16.437
15.929
15.386
14.812
14.209
13.577
12.918
12.235
11.526
10.795
10.041
9.265
8.467
7.648
6.807
5.944
5.059
4.151
3.221
2.267
1.289
0.286
-0.741
-1.792
-2.869
-3.969
-5.094
-6.24
-7.409
-8.596
-9.802
-11.025
-12.261
-13.51
-14.767
-16.03
-17.295
-18.56
-19.82
-21.07
-22.307
-23.525
-24.719
-25.884
-27.016
-28.108
-29.155
-30.151
-31.09
-31.968
-32.779
-33.518
-34.18
-34.761
-35.257
-35.667
-35.988
-36.218
-36.358
-36.409
-36.373
-36.251
-36.046
-35.762
-35.402
-34.97
-34.472
-33.912
-33.295
-32.627
-31.914
-31.167
-30.393
-29.6
-28.795
-27.988
-27.187
-26.406
-25.651
-24.929
-24.245
-23.605
-23.019
-22.497
-22.047
-21.667
-21.355
-21.11
-20.927
-20.801
-20.723
-20.667
-20.614
-20.543
-20.44
-20.305
-20.128
-19.894
-19.589
-19.194
-18.709
-18.15
-17.524
-16.833
-16.096
-15.333
-14.596
-13.961
-13.491
-13.247
-13.281
-13.633
-14.353
-15.477
-17.044
-19.093
-21.644
-24.707
-28.314
-32.468
-37.165
-42.421
-48.086
-53.907
-59.587
-64.671
-68.764
-71.585
-72.721
-71.85
-69.055
-64.6
-59.08
-53.5
-48.541
-44.767
-43.037
-43.755
-46.66
-51.1
-55.649
-58.379
-57.808
-52.287
-39.752
-18.924
10.529
47.991
91.585
138.767
186.773
231.799
269.046
293.91
302.507
292.18
261.395
209.406
136.641
45.471
-59.721
-173.271
-289.304
-402.508
-507.442
-598.701
-671.747
-723.529
-753.164
-761.638
-750.52
-721.341
-676.774
-620.567
-556.929
-490.058
-422.978
-357.712
-296.389
-241.627
-195.359
-158.21
-129.673
-108.487
-93.702
-84.556
-79.775
-77.245
-74.699
-70.804
-65.18
-58.059
-49.724
-40.38
-30.443
-20.875
-12.945
-7.357
-4.206
-3.223
-3.913
-5.868
-8.724
-11.913
-14.726
-16.68
-17.541
-17.272
-16.014
-13.883
-10.935
-7.283
-3.073
1.561
6.488
11.613
16.874
22.194
27.472
32.61
37.499
42.044
46.196
49.933
53.26
56.206
58.8
61.081
63.096
64.906
66.566
68.133
69.652
71.165
72.717
74.356
76.134
78.098
80.28
82.696
85.353
88.251
91.386
94.751
98.33
102.101
106.043
110.138
114.369
118.72
123.171
127.7
132.282
136.891
141.503
146.095
150.643
155.122
159.508
163.777
167.908
171.879
175.667
179.251
182.607
185.714
188.549
191.095
193.331
195.241
196.81
198.023
198.87
199.342
199.432
199.135
198.447
197.368
195.897
194.04
191.799
189.182
186.196
182.853
179.164
175.142
170.804
166.165
161.243
156.059
150.632
144.985
139.139
133.118
126.945
120.644
114.24
107.758
101.221
94.653
88.08
81.525
75.01
68.558
62.189
55.925
49.785
43.786
37.945
32.278
26.799
21.521
16.456
11.615
7.007
2.639
-1.482
-5.352
-8.966
-12.323
-15.422
-18.264
-20.851
-23.185
-25.27
-27.114
-28.721
-30.1
-31.258
-32.206
-32.952
-33.508
-33.885
-34.094
-34.147
-34.056
-33.833
-33.491
-33.042
-32.498
-31.87
-31.17
-30.409
-29.598
-28.749
-27.87
-26.971
-26.062
-25.151
-24.246
-23.354
-22.482
-21.637
-20.822
-20.044
-19.307
-18.613
-17.967
-17.369
-16.823
-16.329
-15.888
-15.5
-15.165
-14.882
-14.651
-14.469
-14.335
-14.249
-14.208
-14.21
-14.253
-14.336
-14.456
-14.612
-14.801
-15.022
-15.272
-15.55
-15.853
-16.181
-16.53
-16.9
-17.288
-17.693
-18.112
-18.544
-18.987
-19.439
-19.897
-20.36
-20.826
-21.292
-21.757
-22.219
-22.677
-23.126
-23.567
-23.996
-24.411
-24.81
-25.188
-25.544
-25.874
-26.175
-26.444
-26.676
-26.87
-27.02
-27.125
-27.18
-27.183
-27.131
-27.02
-26.849
-26.616
-26.321
-25.963
-25.542
-25.059
-24.517
-23.918
-23.265
-22.561
-21.809
-21.013
-20.177
-19.307
-18.405
-17.475
-16.523
-15.555
-14.578
-13.601
-12.629
-11.67
-10.73
-9.819
-8.948
-8.124
-7.352
-6.634
-5.977
-5.387
-4.876
-4.45
-4.106
-3.844
-3.66
-3.548
-3.504
-3.515
-3.557
-3.606
-3.64
-3.642
-3.61
-3.536
-3.406
-3.207
-2.922
-2.545
-2.09
-1.564
-0.968
-0.319
0.36
1.023
1.592
1.999
2.18
2.079
1.65
0.854
-0.344
-1.972
-4.064
-6.653
-9.755
-13.405
-17.614
-22.356
-27.628
-33.283
-39.059
-44.655
-49.639
-53.58
-56.177
-57.158
-56.288
-53.729
-49.834
-45.023
-40.078
-35.674
-32.292
-30.443
-30.333
-31.418
-32.806
-33.565
-32.327
-27.838
-18.836
-3.818
18.161
46.929
81.464
120.533
162.312
204.516
244.072
276.861
298.759
306.524
297.928
271.008
224.527
158.489
74.506
-23.67
-130.943
-242.071
-351.909
-454.679
-544.71
-617.239
-668.695
-697.697
-704.651
-690.526
-657.134
-607.973
-547.387
-480
-410.52
-342.5
-278.651
-221.889
-174.485
-137.095
-109.344
-90.024
-77.292
-69.706
-65.86
-63.582
-60.79
-56.346
-49.823
-41.457
-31.905
-21.632
-11.128
-1.405
6.425
11.774
14.529
14.98
13.668
11.057
7.564
3.795
0.458
-1.987
-3.307
-3.456
-2.55
-0.679
2.113
5.722
9.993
14.789
19.977
25.447
31.14
36.949
42.744
48.392
53.754
58.737
63.299
67.417
71.091
74.338
77.182
79.665
81.846
83.778
85.515
87.107
88.598
90.038
91.486
92.998
94.637
96.443
98.443
100.652
103.077
105.719
108.574
111.631
114.868
118.269
121.821
125.508
129.318
133.235
137.239
141.309
145.422
149.556
153.69
157.805
161.876
165.885
169.809
173.628
177.325
180.878
184.266
187.467
190.458
193.219
195.728
197.967
199.917
201.562
202.885
203.875
204.52
204.812
204.743
204.307
203.501
202.324
200.775
198.856
196.572
193.929
190.934
187.596
183.928
179.942
175.652
171.075
166.227
161.128
155.797
150.254
144.522
138.622
132.578
126.413
120.151
113.817
107.433
101.025
94.615
88.226
81.882
75.603
69.411
63.324
57.362
51.541
45.878
40.389
35.086
29.983
25.091
20.419
15.975
11.767
7.799
4.077
0.603
-2.623
-5.599
-8.327
-10.81
-13.052
-15.056
-16.83
-18.38
-19.715
-20.842
-21.772
-22.515
-23.082
-23.484
-23.733
-23.84
-23.818
-23.679
-23.435
-23.098
-22.679
-22.191
-21.645
-21.051
-20.421
-19.764
-19.089
-18.406
-17.723
-17.047
-16.387
-15.747
-15.134
-14.554
-14.01
-13.506
-13.046
-12.631
-12.264
-11.946
-11.677
-11.458
-11.289
-11.167
-11.092
-11.062
-11.076
-11.13
-11.223
-11.351
-11.513
-11.705
-11.925
-12.169
-12.435
-12.72
-13.022
-13.338
-13.666
-14.003
-14.348
-14.699
-15.054
-15.411
-15.771
-16.132
-16.493
-16.854
-17.214
-17.575
-17.936
-18.298
-18.661
-19.026
-19.394
-19.768
-20.146
-20.532
-20.926
-21.33
-21.744
-22.169
-22.607
-23.057
-23.52
-23.995
-24.483
-24.982
-25.492
-26.011
-26.539
-27.073
-27.613
-28.155
-28.698
-29.239
-29.775
-30.303
-30.82
-31.321
-31.804
-32.263
-32.696
-33.097
-33.464
-33.79
-34.072
-34.305
-34.484
-34.606
-34.666
-34.659
-34.584
-34.438
-34.218
-33.924
-33.555
-33.112
-32.597
-32.013
-31.362
-30.647
-29.873
-29.043
-28.162
-27.234
-26.264
-25.258
-24.222
-23.164
-22.091
-21.013
-19.939
-18.876
-17.833
-16.819
-15.842
-14.912
-14.035
-13.22
-12.474
-11.806
-11.23
-10.751
-10.372
-10.092
-9.905
-9.805
-9.78
-9.816
-9.89
-9.983
-10.076
-10.155
-10.204
-10.211
-10.16
-10.033
-9.809
-9.477
-9.038
-8.498
-7.872
-7.176
-6.438
-5.707
-5.049
-4.526
-4.196
-4.11
-4.326
-4.908
-5.912
-7.387
-9.355
-11.828
-14.83
-18.376
-22.487
-27.173
-32.371
-38
-43.999
-50.201
-56.365
-62.147
-67.016
-70.466
-72.151
-71.798
-69.233
-64.592
-58.188
-50.626
-42.924
-36.082
-30.942
-28.012
-27.334
-28.345
-30.068
-31.224
-30.057
-24.521
-12.495
7.483
36.016
72.514
115.364
162.783
212.247
259.885
301.039
331.091
345.802
342.527
319.879
276.208
211.045
126.236
25.243
-86.901
-204.147
-321.552
-434.376
-536.513
-622.567
-688.786
-732.69
-754.111
-754.381
-734.231
-695.303
-641.477
-577.056
-506.443
-434.016
-362.708
-294.908
-233.921
-182.337
-140.899
-109.441
-86.87
-71.519
-62.228
-57.626
-55.28
-52.794
-48.801
-42.688
-34.589
-25.068
-14.501
-3.399
7.112
15.744
21.759
24.961
25.603
24.222
21.295
17.267
12.791
8.639
5.349
3.2
2.263
2.426
3.586
5.692
8.634
12.252
16.414
20.99
25.875
31.005
36.288
41.597
46.815
51.812
56.468
60.719
64.531
67.893
70.825
73.359
75.525
77.375
78.972
80.369
81.626
82.792
83.91
85.034
86.218
87.519
88.994
90.679
92.593
94.749
97.149
99.789
102.664
105.758
109.049
112.517
116.146
119.918
123.822
127.837
131.943
136.115
140.33
144.564
148.795
153.001
157.158
161.243
165.235
169.112
172.856
176.444
179.856
183.068
186.059
188.809
191.298
193.506
195.417
197.014
198.284
199.215
199.797
200.023
199.885
199.38
198.506
197.261
195.648
193.669
191.331
188.638
185.601
182.229
178.534
174.531
170.234
165.659
160.825
155.75
150.453
144.957
139.28
133.447
127.478
121.396
115.225
108.987
102.704
96.399
90.094
83.811
77.57
71.39
65.292
59.292
53.407
47.653
42.046
36.597
31.32
26.225
21.322
16.619
12.123
7.841
3.775
-0.069
-3.692
-7.092
-10.27
-13.227
-15.967
-18.493
-20.809
-22.923
-24.839
-26.565
-28.109
-29.48
-30.687
-31.738
-32.645
-33.416
-34.062
-34.593
-35.019
-35.35
-35.596
-35.766
-35.871
-35.92
-35.92
-35.881
-35.81
-35.714
-35.602
-35.478
-35.348
-35.219
-35.094
-34.979
-34.875
-34.788
-34.718
-34.67
-34.643
-34.639
-34.66
-34.705
-34.773
-34.866
-34.981
-35.118
-35.275
-35.45
-35.643
-35.85
-36.069
-36.299
-36.537
-36.781
-37.027
-37.274
-37.52
-37.762
-37.998
-38.225
-38.443
-38.648
-38.841
-39.018
-39.179
-39.322
-39.447
-39.553
-39.639
-39.705
-39.75
-39.775
-39.779
-39.764
-39.729
-39.675
-39.604
-39.516
-39.413
-39.298
-39.17
-39.033
-38.888
-38.738
-38.585
-38.432
-38.281
-38.136
-37.999
-37.873
-37.761
-37.667
-37.593
-37.543
-37.519
-37.524
-37.561
-37.633
-37.742
-37.891
-38.081
-38.315
-38.595
-38.921
-39.295
-39.717
-40.188
-40.708
-41.275
-41.889
-42.548
-43.251
-43.994
-44.776
-45.594
-46.443
-47.32
-48.221
-49.14
-50.072
-51.012
-51.954
-52.892
-53.818
-54.726
-55.61
-56.462
-57.275
-58.043
-58.758
-59.413
-60.003
-60.519
-60.958
-61.311
-61.575
-61.746
-61.82
-61.794
-61.667
-61.437
-61.107
-60.676
-60.147
-59.522
-58.804
-57.998
-57.106
-56.136
-55.092
-53.98
-52.806
-51.578
-50.306
-49
-47.668
-46.319
-44.963
-43.611
-42.275
-40.967
-39.69
-38.454
-37.266
-36.133
-35.071
-34.086
-33.18
-32.354
-31.606
-30.934
-30.336
-29.8
-29.305
-28.831
-28.356
-27.864
-27.35
-26.807
-26.222
-25.581
-24.866
-24.068
-23.196
-22.256
-21.251
-20.194
-19.104
-18.026
-17.033
-16.198
-15.597
-15.292
-15.336
-15.773
-16.637
-17.968
-19.813
-22.208
-25.182
-28.765
-32.956
-37.766
-43.221
-49.18
-55.385
-61.485
-66.954
-71.356
-74.387
-75.626
-74.742
-71.821
-67.138
-61.316
-55.425
-50.184
-46.156
-44.174
-44.604
-47.108
-50.964
-54.695
-56.288
-54.223
-46.824
-31.977
-8.367
24.36
65.584
113.403
165.209
218.186
268.438
310.976
340.934
354.073
347.348
318.865
267.619
193.903
99.969
-9.781
-129.52
-253.046
-374.302
-486.888
-584.646
-662.533
-716.941
-746.529
-751.866
-734.174
-695.661
-640.396
-573.279
-499.398
-423.86
-350.538
-282.456
-222.897
-174.281
-137.129
-110.846
-93.936
-84.233
-80.01
-79.5
-80.076
-79.364
-76.137
-69.974
-61.233
-50.727
-39.037
-26.836
-15.37
-5.893
0.915
4.9
6.397
5.986
4.141
1.314
-1.864
-4.691
-6.673
-7.561
-7.324
-6.074
-3.912
-0.896
2.883
7.28
12.168
17.425
22.948
28.675
34.525
40.383
46.139
51.676
56.881
61.694
66.087
70.045
73.586
76.734
79.514
81.974
84.17
86.156
87.986
89.709
91.365
93.003
94.676
96.436
98.336
100.41
102.678
105.153
107.839
110.734
113.837
117.134
120.607
124.239
128.016
131.923
135.949
140.078
144.288
148.56
152.872
157.201
161.529
165.833
170.091
174.282
178.385
182.38
186.247
189.966
193.514
196.871
200.015
202.924
205.581
207.965
210.059
211.846
213.314
214.45
215.243
215.687
215.773
215.499
214.86
213.858
212.492
210.767
208.687
206.259
203.491
200.395
196.983
193.267
189.264
184.99
180.463
175.702
170.727
165.559
160.221
154.733
149.12
143.403
137.607
131.754
125.868
119.972
114.087
108.237
102.441
96.72
91.092
85.577
80.19
74.947
69.863
64.95
60.221
55.685
51.353
47.231
43.325
39.642
36.184
32.953
29.95
27.174
24.624
22.297
20.188
18.291
16.602
15.112
13.813
12.697
11.753
10.971
10.342
9.853
9.493
9.25
9.113
9.069
9.108
9.217
9.385
9.602
9.856
10.138
10.438
10.746
11.054
11.354
11.638
11.899
12.132
12.33
12.489
12.605
12.674
12.693
12.661
12.576
12.437
12.243
11.996
11.695
11.342
10.94
10.489
9.994
9.457
8.88
8.269
7.626
6.956
6.261
5.547
4.817
4.074
3.324
2.57
1.815
1.063
0.317
-0.418
-1.14
-1.846
-2.534
-3.2
-3.842
-4.459
-5.048
-5.608
-6.138
-6.635
-7.1
-7.532
-7.93
-8.294
-8.625
-8.922
-9.187
-9.42
-9.622
-9.794
-9.938
-10.055
-10.146
-10.214
-10.26
-10.285
-10.293
-10.284
-10.261
-10.226
-10.181
-10.129
-10.071
-10.011
-9.951
-9.892
-9.838
-9.791
-9.753
-9.727
-9.716
-9.722
-9.747
-9.794
-9.866
-9.965
-10.092
-10.25
-10.44
-10.664
-10.923
-11.22
-11.554
-11.926
-12.339
-12.791
-13.283
-13.815
-14.388
-14.999
-15.648
-16.334
-17.055
-17.81
-18.594
-19.407
-20.245
-21.105
-21.984
-22.877
-23.781
-24.69
-25.602
-26.509
-27.408
-28.292
-29.156
-29.994
-30.802
-31.572
-32.301
-32.981
-33.607
-34.176
-34.681
-35.118
-35.482
-35.769
-35.975
-36.099
-36.138
-36.089
-35.954
-35.731
-35.423
-35.032
-34.56
-34.011
-33.388
-32.695
-31.939
-31.124
-30.255
-29.337
-28.376
-27.379
-26.356
-25.313
-24.257
-23.198
-22.143
-21.102
-20.088
-19.105
-18.159
-17.253
-16.393
-15.587
-14.846
-14.177
-13.58
-13.057
-12.605
-12.225
-11.912
-11.652
-11.419
-11.188
-10.934
-10.642
-10.308
-9.919
-9.464
-8.927
-8.287
-7.539
-6.689
-5.74
-4.695
-3.571
-2.393
-1.216
-0.134
0.762
1.392
1.68
1.582
1.061
0.061
-1.474
-3.601
-6.37
-9.809
-13.92
-18.733
-24.28
-30.453
-37.03
-43.641
-49.759
-54.948
-58.878
-61.126
-61.358
-59.602
-56.078
-51.348
-46.377
-41.836
-38.275
-36.489
-36.841
-39.021
-42.332
-45.385
-46.319
-43.727
-36.013
-21.128
2.23
34.434
74.861
121.612
172.199
224.016
273.366
315.462
345.576
359.488
354.253
328.156
280.149
210.255
120.374
14.47
-101.984
-222.961
-342.75
-455.402
-554.941
-636.225
-695.335
-730.471
-741.853
-730.461
-698.025
-648.011
-584.906
-513.601
-439.281
-366.023
-296.937
-235.376
-184.057
-143.918
-114.735
-95.277
-83.424
-77.426
-75.584
-75.34
-74.242
-70.913
-64.77
-56.032
-45.49
-33.74
-21.429
-9.769
-0.057
6.977
11.123
12.663
12.169
10.127
6.994
3.413
0.126
-2.335
-3.694
-3.89
-3.028
-1.201
1.539
5.099
9.324
14.073
19.216
24.637
30.27
36.03
41.793
47.443
52.856
57.914
62.556
66.753
70.489
73.778
76.643
79.112
81.233
83.068
84.671
86.101
87.41
88.642
89.85
91.092
92.424
93.899
95.556
97.414
99.488
101.784
104.302
107.04
109.988
113.126
116.439
119.916
123.541
127.304
131.188
135.174
139.242
143.37
147.537
151.724
155.91
160.073
164.193
168.249
172.22
176.087
179.83
183.425
186.852
190.087
193.108
195.896
198.431
200.694
202.667
204.336
205.686
206.707
207.388
207.722
207.703
207.325
206.587
205.488
204.029
202.214
200.047
197.534
194.684
191.507
188.014
184.218
180.134
175.777
171.164
166.312
161.241
155.969
150.519
144.909
139.162
133.3
127.344
121.317
115.241
109.137
103.026
96.93
90.867
84.858
78.919
73.069
67.323
61.697
56.204
50.857
45.668
40.648
35.805
31.148
26.683
22.416
18.351
14.491
10.839
7.395
4.16
1.131
-1.694
-4.317
-6.744
-8.979
-11.029
-12.901
-14.601
-16.139
-17.523
-18.761
-19.865
-20.842
-21.703
-22.458
-23.116
-23.687
-24.18
-24.605
-24.971
-25.285
-25.556
-25.791
-25.998
-26.184
-26.353
-26.512
-26.666
-26.819
-26.976
-27.139
-27.312
-27.496
-27.694
-27.907
-28.135
-28.379
-28.638
-28.912
-29.199
-29.498
-29.808
-30.125
-30.448
-30.774
-31.1
-31.424
-31.743
-32.055
-32.356
-32.644
-32.918
-33.174
-33.411
-33.627
-33.821
-33.992
-34.139
-34.261
-34.359
-34.431
-34.478
-34.5
-34.499
-34.474
-34.427
-34.36
-34.273
-34.168
-34.048
-33.914
-33.768
-33.612
-33.45
-33.282
-33.112
-32.941
-32.773
-32.609
-32.451
-32.301
-32.162
-32.034
-31.92
-31.82
-31.736
-31.669
-31.618
-31.585
-31.57
-31.573
-31.593
-31.631
-31.686
-31.757
-31.845
-31.948
-32.065
-32.197
-32.342
-32.499
-32.667
-32.846
-33.034
-33.23
-33.435
-33.647
-33.866
-34.091
-34.323
-34.56
-34.802
-35.05
-35.304
-35.564
-35.829
-36.102
-36.381
-36.668
-36.963
-37.268
-37.581
-37.905
-38.24
-38.585
-38.942
-39.309
-39.687
-40.075
-40.472
-40.878
-41.29
-41.709
-42.132
-42.557
-42.983
-43.407
-43.825
-44.236
-44.635
-45.02
-45.385
-45.727
-46.041
-46.324
-46.57
-46.775
-46.933
-47.041
-47.093
-47.085
-47.013
-46.872
-46.657
-46.367
-45.998
-45.548
-45.015
-44.4
-43.702
-42.924
-42.068
-41.135
-40.129
-39.054
-37.914
-36.713
-35.458
-34.153
-32.803
-31.415
-29.997
-28.557
-27.104
-25.647
-24.193
-22.751
-21.332
-19.947
-18.606
-17.313
-16.076
-14.898
-13.789
-12.761
-11.82
-10.968
-10.204
-9.527
-8.932
-8.418
-7.974
-7.578
-7.205
-6.832
-6.44
-6.022
-5.57
-5.07
-4.507
-3.863
-3.126
-2.305
-1.406
-0.43
0.611
1.702
2.8
3.835
4.726
5.395
5.774
5.802
5.435
4.635
3.364
1.575
-0.777
-3.729
-7.316
-11.54
-16.405
-21.925
-27.975
-34.306
-40.549
-46.18
-50.708
-53.769
-55.067
-54.376
-51.81
-47.698
-42.611
-37.487
-33.188
-30.404
-29.537
-30.591
-32.981
-35.685
-37.422
-36.527
-31.257
-19.794
-0.798
26.37
61.475
103.227
149.958
199.487
248.724
293.642
330.058
353.833
361.463
350.724
319.589
266.751
192.754
99.951
-7.741
-124.942
-245.963
-365.324
-476.588
-573.455
-651.013
-705.694
-735.999
-742.365
-725.826
-688.345
-633.969
-567.621
-494.331
-419.17
-345.992
-277.776
-217.801
-168.555
-130.611
-103.41
-85.527
-74.873
-69.804
-68.657
-68.874
-68.059
-64.952
-59.102
-50.808
-40.825
-29.676
-17.962
-6.887
2.268
8.802
12.544
13.8
13.136
11.011
7.853
4.288
1.038
-1.384
-2.72
-2.925
-2.118
-0.401
2.173
5.509
9.46
13.891
18.677
23.714
28.941
34.279
39.613
44.833
49.818
54.458
58.689
62.486
65.834
68.752
71.265
73.402
75.209
76.748
78.07
79.234
80.287
81.272
82.238
83.238
84.328
85.561
86.974
88.585
90.411
92.454
94.717
97.195
99.878
102.746
105.785
108.981
112.321
115.793
119.382
123.07
126.837
130.661
134.524
138.404
142.284
146.141
149.956
153.709
157.38
160.952
164.405
167.717
170.869
173.838
176.605
179.151
181.456
183.502
185.274
186.757
187.939
188.808
189.356
189.576
189.46
189.005
188.209
187.072
185.593
183.777
181.627
179.15
176.352
173.243
169.834
166.137
162.163
157.929
153.45
148.741
143.821
138.708
133.42
127.977
122.399
116.707
110.922
105.063
99.151
93.208
87.253
81.305
75.383
69.505
63.69
57.952
52.309
46.774
41.362
36.084
30.953
25.98
21.174
16.543
12.095
7.836
3.772
-0.093
-3.756
-7.215
-10.468
-13.517
-16.36
-19.001
-21.442
-23.686
-25.739
-27.604
-29.289
-30.8
-32.143
-33.327
-34.358
-35.245
-35.996
-36.619
-37.124
-37.517
-37.808
-38.004
-38.114
-38.145
-38.105
-38.001
-37.841
-37.63
-37.375
-37.083
-36.759
-36.408
-36.036
-35.648
-35.247
-34.839
-34.426
-34.011
-33.598
-33.188
-32.785
-32.388
-32.001
-31.623
-31.255
-30.899
-30.554
-30.22
-29.897
-29.585
-29.284
-28.994
-28.715
-28.445
-28.186
-27.936
-27.697
-27.467
-27.247
-27.036
-26.835
-26.644
-26.462
-26.29
-26.128
-25.975
-25.831
-25.697
-25.573
-25.458
-25.353
-25.259
-25.175
-25.101
-25.039
-24.989
-24.951
-24.925
-24.913
-24.915
-24.931
-24.962
-25.009
-25.072
-25.152
-25.248
-25.362
-25.492
-25.64
-25.805
-25.988
-26.187
-26.404
-26.638
-26.889
-27.158
-27.445
-27.749
-28.07
-28.41
-28.767
-29.143
-29.537
-29.948
-30.377
-30.824
-31.288
-31.768
-32.263
-32.773
-33.295
-33.829
-34.372
-34.923
-35.479
-36.037
-36.594
-37.15
-37.7
-38.242
-38.772
-39.288
-39.786
-40.262
-40.715
-41.138
-41.528
-41.882
-42.194
-42.462
-42.68
-42.844
-42.949
-42.991
-42.966
-42.87
-42.7
-42.451
-42.121
-41.707
-41.208
-40.623
-39.951
-39.193
-38.35
-37.426
-36.424
-35.347
-34.2
-32.987
-31.714
-30.385
-29.009
-27.589
-26.131
-24.642
-23.13
-21.603
-20.071
-18.541
-17.022
-15.523
-14.053
-12.625
-11.25
-9.932
-8.676
-7.491
-6.383
-5.367
-4.45
-3.631
-2.91
-2.286
-1.754
-1.311
-0.944
-0.63
-0.345
-0.065
0.229
0.538
0.875
1.252
1.685
2.196
2.789
3.453
4.182
4.975
5.813
6.674
7.51
8.239
8.791
9.097
9.096
8.742
7.992
6.81
5.165
3.017
0.335
-2.9
-6.721
-11.133
-16.109
-21.642
-27.574
-33.63
-39.492
-44.709
-48.834
-51.559
-52.601
-51.714
-49.062
-45.009
-39.986
-34.817
-30.207
-26.656
-24.692
-24.529
-25.595
-26.966
-27.667
-26.237
-21.326
-11.603
4.5
27.925
58.409
94.839
135.874
179.498
223.205
263.735
296.809
318.265
324.99
314.898
286.173
237.855
170.273
85.317
-13.004
-119.506
-229.077
-336.712
-436.813
-524.037
-593.979
-643.4
-671.223
-677.984
-664.614
-632.868
-586.117
-528.455
-464.227
-397.876
-332.74
-271.432
-216.84
-171.199
-135.165
-108.433
-89.89
-77.775
-70.673
-67.156
-65.018
-62.179
-57.53
-50.646
-41.759
-31.536
-20.455
-9.054
1.602
10.39
16.699
20.381
21.712
21.205
19.284
16.352
12.988
9.859
7.449
6.012
5.605
6.142
7.545
9.775
12.755
16.355
20.452
24.932
29.696
34.684
39.824
45.007
50.125
55.061
59.702
63.986
67.884
71.378
74.482
77.217
79.607
81.695
83.539
85.191
86.703
88.122
89.485
90.842
92.244
93.743
95.392
97.228
99.269
101.529
104.012
106.719
109.645
112.778
116.098
119.588
123.233
127.017
130.929
134.949
139.059
143.234
147.453
151.692
155.931
160.146
164.315
168.416
172.426
176.325
180.094
183.711
187.155
190.403
193.433
196.226
198.76
201.019
202.982
204.636
205.965
206.958
207.605
207.897
207.829
207.394
206.592
205.421
203.881
201.977
199.712
197.094
194.131
190.833
187.212
183.28
179.054
174.549
169.782
164.773
159.54
154.104
148.486
142.707
136.791
130.759
124.634
118.439
112.196
105.928
99.657
93.404
87.191
81.036
74.96
68.979
63.112
57.375
51.782
46.347
41.083
36.001
31.111
26.423
21.944
17.68
13.637
9.817
6.223
2.857
-0.281
-3.192
-5.879
-8.345
-10.593
-12.629
-14.46
-16.091
-17.53
-18.786
-19.866
-20.781
-21.539
-22.15
-22.624
-22.972
-23.202
-23.327
-23.354
-23.295
-23.158
-22.954
-22.69
-22.377
-22.022
-21.634
-21.218
-20.783
-20.335
-19.879
-19.422
-18.967
-18.519
-18.081
-17.658
-17.251
-16.864
-16.496
-16.151
-15.829
-15.53
-15.255
-15.004
-14.775
-14.569
-14.385
-14.221
-14.076
-13.95
-13.841
-13.747
-13.667
-13.6
-13.545
-13.502
-13.468
-13.443
-13.426
-13.418
-13.417
-13.423
-13.438
-13.46
-13.49
-13.529
-13.577
-13.636
-13.706
-13.789
-13.885
-13.997
-14.124
-14.269
-14.433
-14.617
-14.822
-15.05
-15.302
-15.578
-15.88
-16.207
-16.561
-16.941
-17.348
-17.779
-18.235
-18.714
-19.214
-19.734
-20.27
-20.821
-21.383
-21.954
-22.53
-23.107
-23.681
-24.247
-24.802
-25.34
-25.856
-26.346
-26.804
-27.225
-27.606
-27.939
-28.221
-28.446
-28.61
-28.709
-28.739
-28.695
-28.574
-28.373
-28.09
-27.725
-27.277
-26.744
-26.13
-25.437
-24.668
-23.826
-22.916
-21.941
-20.907
-19.819
-18.685
-17.508
-16.295
-15.052
-13.787
-12.509
-11.228
-9.95
-8.685
-7.439
-6.222
-5.045
-3.917
-2.844
-1.832
-0.884
-0.01
0.776
1.467
2.06
2.555
2.958
3.273
3.506
3.666
3.779
3.866
3.953
4.062
4.201
4.381
4.616
4.923
5.328
5.847
6.474
7.205
8.034
8.936
9.886
10.84
11.713
12.435
12.928
13.101
12.9
12.259
11.127
9.491
7.297
4.492
1.045
-3.098
-7.935
-13.357
-19.298
-25.708
-32.398
-39.144
-45.534
-50.899
-54.828
-57.177
-57.861
-56.839
-54.071
-49.539
-43.761
-37.932
-32.921
-29.041
-26.167
-23.769
-21.544
-19.355
-16.329
-10.421
0.385
17.389
41.007
70.439
104.844
143.695
185.453
226.72
263.224
290.621
305.108
304.581
287.218
250.679
193.847
117.895
25.973
-77.101
-185.888
-296.046
-402.789
-499.988
-581.993
-644.553
-685.424
-704.688
-703.425
-682.253
-642.997
-589.544
-526.608
-459.184
-391.266
-325.389
-263.924
-209.895
-165.555
-131.441
-106.774
-89.758
-78.817
-72.908
-70.605
-69.697
-67.964
-64.139
-57.978
-49.977
-40.68
-30.451
-19.814
-9.747
-1.451
4.387
7.691
8.766
8.104
6.145
3.276
0.054
-2.835
-4.923
-5.99
-5.983
-5.018
-3.199
-0.574
2.752
6.635
10.952
15.584
20.445
25.484
30.621
35.751
40.774
45.577
50.061
54.175
57.884
61.176
64.074
66.6
68.785
70.679
72.333
73.799
75.127
76.363
77.544
78.716
79.928
81.227
82.662
84.265
86.052
88.038
90.223
92.605
95.18
97.934
100.848
103.906
107.094
110.396
113.801
117.293
120.853
124.462
128.098
131.742
135.374
138.976
142.527
146.007
149.398
152.682
155.84
158.856
161.709
164.38
166.851
169.102
171.118
172.881
174.376
175.59
176.511
177.128
177.433
177.42
177.083
176.42
175.428
174.107
172.459
170.487
168.196
165.592
162.682
159.478
155.988
152.226
148.204
143.938
139.443
134.735
129.833
124.754
119.518
114.145
108.655
103.067
97.403
91.683
85.928
80.157
74.392
68.652
62.954
57.319
51.762
46.3
40.949
35.724
30.638
25.703
20.932
16.335
11.92
7.697
3.672
-0.15
-3.763
-7.164
-10.352
-13.324
-16.082
-18.625
-20.957
-23.08
-24.998
-26.717
-28.243
-29.581
-30.74
-31.727
-32.55
-33.219
-33.743
-34.13
-34.391
-34.536
-34.574
-34.515
-34.37
-34.147
-33.856
-33.507
-33.109
-32.669
-32.196
-31.697
-31.18
-30.652
-30.118
-29.585
-29.056
-28.538
-28.034
-27.547
-27.08
-26.636
-26.217
-25.824
-25.459
-25.121
-24.811
-24.529
-24.275
-24.048
-23.847
-23.672
-23.52
-23.391
-23.284
-23.196
-23.126
-23.073
-23.035
-23.011
-23
-23
-23.012
-23.034
-23.066
-23.107
-23.157
-23.217
-23.287
-23.368
-23.459
-23.562
-23.678
-23.809
-23.955
-24.119
-24.302
-24.505
-24.73
-24.979
-25.253
-25.555
-25.884
-26.244
-26.634
-27.056
-27.512
-28.002
-28.527
-29.086
-29.679
-30.307
-30.968
-31.66
-32.382
-33.132
-33.906
-34.703
-35.518
-36.35
-37.193
-38.044
-38.899
-39.751
-40.598
-41.433
-42.25
-43.045
-43.81
-44.541
-45.232
-45.876
-46.469
-47.003
-47.475
-47.877
-48.206
-48.455
-48.621
-48.698
-48.684
-48.575
-48.37
-48.067
-47.667
-47.17
-46.578
-45.895
-45.124
-44.268
-43.331
-42.32
-41.239
-40.095
-38.894
-37.642
-36.346
-35.015
-33.658
-32.287
-30.908
-29.532
-28.168
-26.826
-25.518
-24.256
-23.043
-21.887
-20.796
-19.778
-18.847
-18.01
-17.269
-16.624
-16.073
-15.612
-15.236
-14.935
-14.683
-14.46
-14.24
-14.008
-13.758
-13.481
-13.162
-12.789
-12.342
-11.809
-11.201
-10.525
-9.785
-8.995
-8.179
-7.383
-6.683
-6.159
-5.883
-5.921
-6.324
-7.135
-8.387
-10.121
-12.381
-15.204
-18.615
-22.634
-27.258
-32.492
-38.348
-44.691
-51.265
-57.722
-63.562
-68.37
-71.851
-73.604
-73.311
-71.03
-67.005
-61.809
-56.414
-51.479
-47.517
-45.298
-45.174
-46.848
-49.664
-52.26
-52.814
-49.988
-42.284
-27.778
-5.264
25.608
64.247
108.822
156.963
206.215
253.082
293.028
321.542
334.549
329.192
303.77
257.182
189.332
101.936
-1.276
-115.053
-233.549
-351.217
-462.247
-560.748
-641.596
-700.817
-736.514
-748.797
-738.556
-707.402
-658.665
-596.707
-526.341
-452.724
-379.953
-311.183
-249.803
-198.605
-158.615
-129.677
-110.607
-99.309
-94.004
-92.946
-93.523
-93.195
-90.503
-84.827
-76.353
-65.857
-53.957
-41.309
-29.162
-18.87
-11.215
-6.451
-4.35
-4.36
-6.014
-8.888
-12.346
-15.659
-18.306
-19.979
-20.585
-20.212
-18.93
-16.784
-13.865
-10.306
-6.231
-1.761
3.008
8.016
13.182
18.412
23.605
28.655
33.464
37.945
42.049
45.748
49.041
51.944
54.481
56.685
58.6
60.284
61.789
63.167
64.464
65.717
66.972
68.279
69.683
71.228
72.944
74.846
76.944
79.24
81.734
84.419
87.283
90.307
93.473
96.767
100.175
103.683
107.276
110.933
114.635
118.36
122.088
125.801
129.477
133.097
136.641
140.089
143.422
146.625
149.677
152.561
155.256
157.745
160.009
162.032
163.798
165.292
166.501
167.414
168.021
168.316
168.291
167.943
167.269
166.268
164.94
163.289
161.318
159.033
156.441
153.552
150.375
146.922
143.207
139.243
135.046
130.632
126.019
121.225
116.268
111.169
105.946
100.62
95.211
89.74
84.227
78.692
73.155
67.636
62.153
56.724
51.368
46.101
40.938
35.894
30.984
26.22
21.614
17.176
12.917
8.844
4.965
1.286
-2.188
-5.453
-8.507
-11.348
-13.976
-16.39
-18.594
-20.589
-22.38
-23.97
-25.364
-26.57
-27.593
-28.442
-29.123
-29.645
-30.016
-30.247
-30.346
-30.324
-30.189
-29.951
-29.621
-29.208
-28.721
-28.171
-27.567
-26.916
-26.229
-25.512
-24.775
-24.023
-23.265
-22.506
-21.753
-21.01
-20.282
-19.574
-18.889
-18.23
-17.601
-17.003
-16.437
-15.905
-15.408
-14.946
-14.518
-14.125
-13.765
-13.437
-13.14
-12.872
-12.631
-12.415
-12.22
-12.046
-11.889
-11.746
-11.616
-11.494
-11.379
-11.269
-11.16
-11.051
-10.939
-10.823
-10.701
-10.572
-10.435
-10.288
-10.132
-9.964
-9.787
-9.598
-9.4
-9.191
-8.974
-8.748
-8.516
-8.278
-8.037
-7.795
-7.553
-7.313
-7.078
-6.849
-6.63
-6.423
-6.23
-6.053
-5.895
-5.758
-5.643
-5.554
-5.491
-5.455
-5.447
-5.467
-5.517
-5.594
-5.699
-5.831
-5.989
-6.171
-6.375
-6.6
-6.842
-7.099
-7.367
-7.643
-7.923
-8.201
-8.473
-8.735
-8.981
-9.207
-9.406
-9.573
-9.703
-9.79
-9.829
-9.814
-9.741
-9.604
-9.399
-9.124
-8.774
-8.347
-7.843
-7.261
-6.602
-5.868
-5.06
-4.179
-3.231
-2.216
-1.14
-0.007
1.18
2.415
3.692
5.005
6.345
7.704
9.076
10.451
11.821
13.178
14.509
15.807
17.066
18.281
19.445
20.551
21.587
22.545
23.426
24.229
24.956
25.612
26.2
26.731
27.23
27.717
28.215
28.743
29.303
29.905
30.561
31.285
32.095
32.999
33.985
35.047
36.182
37.374
38.601
39.816
40.938
41.889
42.592
42.977
42.987
42.57
41.685
40.287
38.325
35.761
32.566
28.706
24.181
18.98
13.082
6.633
-0.103
-6.776
-12.866
-17.94
-21.692
-23.699
-23.617
-21.516
-17.651
-12.614
-7.428
-2.768
0.851
2.629
2.204
-0.117
-3.663
-7.029
-8.293
-6.039
1.289
15.698
38.42
69.775
109.152
154.67
203.798
253.857
301.058
340.53
367.521
377.863
368.642
338.128
285.273
210.172
114.994
4.054
-116.831
-241.41
-364.021
-478.83
-579.837
-661.842
-721.176
-756.456
-768.445
-758.685
-728.673
-681.206
-620.401
-550.978
-477.76
-404.341
-333.131
-266.571
-207.607
-158.343
-119.401
-90.125
-68.949
-54.625
-46.181
-42.122
-40.107
-37.737
-33.627
-27.442
-19.552
-10.378
-0.223
10.385
20.381
28.442
33.845
36.522
36.813
35.278
32.384
28.555
24.413
20.707
17.952
16.391
16.063
16.825
18.557
21.201
24.64
28.719
33.295
38.228
43.41
48.77
54.217
59.635
64.913
69.927
74.57
78.784
82.541
85.839
88.704
91.164
93.256
95.029
96.546
97.866
99.048
100.141
101.191
102.246
103.36
104.588
105.982
107.575
109.385
111.421
113.684
116.171
118.874
121.779
124.862
128.105
131.49
135.001
138.624
142.34
146.128
149.966
153.829
157.696
161.545
165.356
169.106
172.774
176.339
179.782
183.085
186.227
189.188
191.948
194.485
196.782
198.819
200.58
202.049
203.211
204.053
204.567
204.743
204.576
204.061
203.194
201.975
200.406
198.487
196.225
193.624
190.693
187.441
183.878
180.017
175.871
171.456
166.788
161.884
156.762
151.441
145.942
140.285
134.49
128.579
122.575
116.499
110.373
104.219
98.059
91.914
85.804
79.75
73.77
67.883
62.106
56.455
50.944
45.588
40.399
35.389
30.567
25.944
21.526
17.32
13.332
9.565
6.022
2.706
-0.385
-3.249
-5.889
-8.308
-10.51
-12.499
-14.281
-15.862
-17.251
-18.455
-19.483
-20.344
-21.049
-21.607
-22.03
-22.328
-22.512
-22.593
-22.582
-22.489
-22.324
-22.099
-21.823
-21.505
-21.154
-20.779
-20.388
-19.988
-19.586
-19.188
-18.802
-18.43
-18.08
-17.754
-17.456
-17.19
-16.957
-16.761
-16.602
-16.482
-16.401
-16.359
-16.355
-16.389
-16.459
-16.563
-16.7
-16.867
-17.062
-17.282
-17.524
-17.785
-18.062
-18.354
-18.656
-18.966
-19.281
-19.599
-19.918
-20.235
-20.549
-20.858
-21.16
-21.454
-21.738
-22.012
-22.275
-22.525
-22.763
-22.989
-23.201
-23.401
-23.588
-23.762
-23.926
-24.078
-24.221
-24.355
-24.482
-24.604
-24.721
-24.837
-24.952
-25.069
-25.191
-25.317
-25.452
-25.596
-25.751
-25.919
-26.102
-26.301
-26.516
-26.75
-27.003
-27.276
-27.569
-27.883
-28.217
-28.57
-28.943
-29.334
-29.743
-30.166
-30.604
-31.053
-31.513
-31.981
-32.453
-32.928
-33.402
-33.872
-34.334
-34.784
-35.218
-35.631
-36.019
-36.377
-36.702
-36.988
-37.23
-37.425
-37.568
-37.656
-37.683
-37.647
-37.544
-37.371
-37.127
-36.811
-36.421
-35.958
-35.423
-34.818
-34.146
-33.41
-32.613
-31.759
-30.853
-29.9
-28.904
-27.871
-26.805
-25.711
-24.597
-23.47
-22.339
-21.209
-20.089
-18.987
-17.911
-16.874
-15.879
-14.931
-14.034
-13.19
-12.408
-11.698
-11.065
-10.508
-10.027
-9.619
-9.281
-9.008
-8.785
-8.585
-8.381
-8.149
-7.876
-7.558
-7.186
-6.749
-6.232
-5.617
-4.902
-4.099
-3.209
-2.237
-1.199
-0.121
0.941
1.893
2.648
3.129
3.268
3.023
2.36
1.226
-0.429
-2.66
-5.508
-8.999
-13.138
-17.965
-23.517
-29.691
-36.268
-42.878
-49.007
-54.231
-58.227
-60.576
-60.939
-59.349
-56.043
-51.621
-47.081
-43.093
-40.209
-39.243
-40.551
-43.835
-48.388
-52.738
-55.006
-53.852
-47.66
-34.345
-12.668
17.814
56.478
101.271
149.931
200.212
248.446
289.889
319.949
334.229
329.897
305.548
259.509
191.003
101.718
-4.633
-122.695
-246.112
-369.591
-487.869
-594.314
-682.888
-749.335
-791.499
-809.704
-805.49
-779.88
-735.054
-675.407
-606.049
-532.156
-457.797
-385.46
-317.456
-256.903
-206.209
-165.973
-135.465
-112.991
-97.139
-87.051
-81.435
-78.042
-74.446
-69.214
-61.993
-53.169
-43.18
-32.288
-20.931
-10.097
-1.131
5.182
8.731
9.801
8.916
6.554
3.126
-0.748
-4.268
-6.89
-8.348
-8.565
-7.671
-5.786
-2.962
0.674
4.95
9.722
14.849
20.225
25.791
31.45
37.074
42.548
47.74
52.536
56.877
60.724
64.066
66.931
69.349
71.358
73.014
74.38
75.514
76.476
77.317
78.084
78.831
79.614
80.489
81.514
82.725
84.144
85.787
87.655
89.748
92.062
94.581
97.288
100.165
103.197
106.369
109.67
113.085
116.593
120.175
123.81
127.475
131.152
134.822
138.463
142.056
145.58
149.018
152.351
155.562
158.629
161.532
164.252
166.768
169.062
171.117
172.916
174.444
175.687
176.634
177.275
177.603
177.61
177.292
176.646
175.67
174.364
172.73
170.772
168.495
165.904
163.009
159.819
156.346
152.601
148.598
144.352
139.879
135.196
130.322
125.273
120.07
114.731
109.278
103.731
98.109
92.434
86.726
81.005
75.291
69.604
63.96
58.38
52.878
47.472
42.178
37.008
31.977
27.098
22.382
17.838
13.477
9.307
5.334
1.564
-1.998
-5.349
-8.486
-11.408
-14.115
-16.608
-18.889
-20.962
-22.829
-24.497
-25.97
-27.256
-28.362
-29.294
-30.062
-30.674
-31.14
-31.468
-31.668
-31.75
-31.724
-31.6
-31.386
-31.093
-30.73
-30.307
-29.832
-29.314
-28.761
-28.181
-27.582
-26.971
-26.353
-25.736
-25.124
-24.523
-23.937
-23.369
-22.824
-22.303
-21.81
-21.345
-20.911
-20.507
-20.136
-19.796
-19.487
-19.209
-18.962
-18.744
-18.553
-18.389
-18.25
-18.134
-18.041
-17.967
-17.911
-17.872
-17.847
-17.836
-17.836
-17.847
-17.866
-17.892
-17.925
-17.962
-18.005
-18.051
-18.101
-18.154
-18.21
-18.27
-18.333
-18.4
-18.471
-18.547
-18.63
-18.718
-18.815
-18.919
-19.034
-19.159
-19.296
-19.445
-19.609
-19.789
-19.984
-20.196
-20.426
-20.675
-20.943
-21.23
-21.538
-21.866
-22.215
-22.585
-22.974
-23.382
-23.809
-24.252
-24.711
-25.184
-25.667
-26.16
-26.658
-27.161
-27.664
-28.165
-28.661
-29.147
-29.621
-30.079
-30.516
-30.928
-31.31
-31.659
-31.969
-32.237
-32.458
-32.628
-32.742
-32.796
-32.786
-32.708
-32.56
-32.336
-32.035
-31.655
-31.193
-30.65
-30.025
-29.318
-28.532
-27.669
-26.733
-25.728
-24.656
-23.523
-22.334
-21.094
-19.809
-18.484
-17.126
-15.741
-14.336
-12.921
-11.505
-10.094
-8.699
-7.327
-5.987
-4.692
-3.45
-2.265
-1.142
-0.088
0.891
1.785
2.585
3.293
3.909
4.435
4.875
5.235
5.525
5.769
5.989
6.209
6.446
6.707
6.998
7.332
7.719
8.177
8.715
9.328
10.011
10.765
11.577
12.429
13.281
14.06
14.694
15.108
15.238
15.03
14.442
13.443
12.001
10.079
7.629
4.618
1.004
-3.234
-8.093
-13.58
-19.569
-25.807
-31.967
-37.593
-42.231
-45.545
-47.247
-47.086
-45.209
-41.983
-37.829
-33.508
-29.692
-26.873
-25.55
-25.947
-27.522
-29.317
-30.39
-29.4
-25.102
-16.203
-1.128
21.226
50.854
86.791
127.834
172.231
217.713
261.118
298.116
324.168
335.499
329.494
303.871
257.038
188.73
100.413
-4.123
-119.429
-239.722
-359.384
-472.14
-571.738
-652.844
-711.316
-745.348
-755.197
-741.815
-707.039
-654.536
-588.963
-515.383
-439.106
-364.257
-294.021
-231.783
-180.194
-140.1
-111.159
-92.022
-80.507
-74.799
-73.105
-72.803
-71.425
-67.622
-60.884
-51.493
-40.282
-27.885
-14.983
-2.832
7.258
14.566
18.885
20.502
20.001
17.871
14.56
10.716
7.062
4.106
2.155
1.292
1.428
2.495
4.442
7.179
10.573
14.502
18.845
23.501
28.403
33.463
38.58
43.646
48.551
53.193
57.483
61.368
64.824
67.849
70.465
72.697
74.581
76.165
77.508
78.668
79.699
80.651
81.565
82.491
83.48
84.581
85.841
87.29
88.945
90.818
92.91
95.22
97.744
100.468
103.373
106.442
109.66
113.012
116.487
120.066
123.731
127.461
131.234
135.029
138.827
142.607
146.348
150.029
153.629
157.128
160.509
163.751
166.833
169.734
172.435
174.915
177.156
179.139
180.849
182.27
183.389
184.195
184.678
184.831
184.648
184.124
183.259
182.05
180.5
178.611
176.389
173.84
170.972
167.794
164.32
160.561
156.531
152.247
147.724
142.982
138.038
132.914
127.628
122.202
116.658
111.017
105.301
99.532
93.733
87.924
82.127
76.362
70.651
65.01
59.46
54.017
48.697
43.515
38.485
33.62
28.932
24.43
20.124
16.021
12.128
8.45
4.991
1.753
-1.262
-4.055
-6.626
-8.977
-11.113
-13.038
-14.756
-16.274
-17.6
-18.741
-19.705
-20.503
-21.142
-21.634
-21.989
-22.217
-22.328
-22.334
-22.244
-22.069
-21.82
-21.505
-21.135
-20.72
-20.266
-19.784
-19.28
-18.762
-18.238
-17.712
-17.191
-16.68
-16.183
-15.704
-15.247
-14.814
-14.408
-14.03
-13.682
-13.364
-13.077
-12.822
-12.596
-12.401
-12.236
-12.098
-11.987
-11.903
-11.842
-11.804
-11.788
-11.791
-11.814
-11.853
-11.909
-11.98
-12.066
-12.164
-12.276
-12.4
-12.536
-12.684
-12.844
-13.016
-13.201
-13.399
-13.611
-13.838
-14.081
-14.34
-14.617
-14.913
-15.228
-15.565
-15.923
-16.304
-16.708
-17.137
-17.59
-18.067
-18.569
-19.094
-19.643
-20.213
-20.804
-21.414
-22.041
-22.682
-23.335
-23.998
-24.667
-25.339
-26.011
-26.678
-27.338
-27.987
-28.619
-29.229
-29.815
-30.369
-30.89
-31.37
-31.806
-32.192
-32.524
-32.798
-33.008
-33.152
-33.225
-33.223
-33.145
-32.989
-32.752
-32.435
-32.038
-31.562
-31.008
-30.382
-29.685
-28.922
-28.096
-27.213
-26.276
-25.293
-24.268
-23.205
-22.11
-20.991
-19.856
-18.712
-17.569
-16.433
-15.312
-14.214
-13.151
-12.132
-11.162
-10.248
-9.394
-8.61
-7.907
-7.293
-6.769
-6.333
-5.984
-5.713
-5.517
-5.382
-5.286
-5.206
-5.121
-5.009
-4.862
-4.668
-4.41
-4.072
-3.633
-3.085
-2.438
-1.699
-0.873
0.018
0.941
1.847
2.654
3.295
3.708
3.815
3.552
2.855
1.66
-0.057
-2.319
-5.166
-8.611
-12.695
-17.456
-22.81
-28.672
-34.978
-41.524
-48.088
-54.376
-59.817
-63.881
-66.317
-66.897
-65.52
-62.402
-57.638
-51.577
-45.213
-39.475
-34.951
-32.055
-30.597
-29.828
-29.334
-28.339
-25.134
-17.922
-4.979
15.059
42.268
75.71
114.645
157.66
201.971
243.946
279.013
302.527
311.108
302.366
273.93
224.393
154.109
65.333
-37.436
-148.59
-262.719
-374.236
-476.927
-564.929
-633.495
-679.772
-703.294
-704.835
-685.592
-648.08
-596.35
-535.149
-469.424
-403.304
-339.578
-280.877
-230.032
-188.552
-156.451
-132.815
-115.891
-104.063
-96.275
-90.87
-85.479
-78.593
-69.615
-58.555
-46.169
-33.126
-19.759
-6.893
4.16
12.615
18.157
20.831
21.203
19.776
16.897
13.137
9.229
5.697
2.919
1.11
0.239
0.282
1.244
3.042
5.574
8.741
12.436
16.566
21.065
25.845
30.797
35.825
40.813
45.66
50.275
54.567
58.481
61.994
65.105
67.835
70.212
72.267
74.048
75.611
77.01
78.299
79.524
80.726
81.954
83.253
84.67
86.247
88.015
89.987
92.174
94.576
97.191
100.011
103.022
106.204
109.539
113.01
116.601
120.299
124.084
127.935
131.832
135.751
139.672
143.572
147.431
151.227
154.939
158.544
162.025
165.363
168.537
171.527
174.314
176.877
179.197
181.258
183.041
184.532
185.717
186.583
187.122
187.325
187.186
186.702
185.868
184.685
183.154
181.278
179.061
176.509
173.632
170.438
166.938
163.146
159.075
154.741
150.16
145.35
140.329
135.118
129.735
124.201
118.539
112.768
106.912
100.991
95.028
89.044
83.061
77.098
71.177
65.317
59.536
53.852
48.281
42.839
37.54
32.398
27.424
22.629
18.023
13.615
9.411
5.417
1.637
-1.924
-5.266
-8.386
-11.286
-13.966
-16.43
-18.679
-20.72
-22.557
-24.196
-25.644
-26.91
-28.001
-28.926
-29.694
-30.316
-30.801
-31.159
-31.401
-31.537
-31.577
-31.531
-31.409
-31.221
-30.976
-30.682
-30.35
-29.986
-29.599
-29.194
-28.78
-28.362
-27.945
-27.535
-27.135
-26.75
-26.383
-26.037
-25.713
-25.415
-25.142
-24.897
-24.679
-24.49
-24.327
-24.192
-24.082
-23.998
-23.938
-23.9
-23.883
-23.886
-23.907
-23.944
-23.997
-24.063
-24.141
-24.231
-24.33
-24.438
-24.554
-24.678
-24.809
-24.946
-25.089
-25.238
-25.394
-25.555
-25.722
-25.895
-26.074
-26.258
-26.447
-26.642
-26.84
-27.042
-27.247
-27.455
-27.664
-27.873
-28.082
-28.288
-28.491
-28.688
-28.878
-29.057
-29.223
-29.373
-29.505
-29.616
-29.701
-29.757
-29.782
-29.771
-29.721
-29.629
-29.492
-29.305
-29.067
-28.774
-28.425
-28.018
-27.552
-27.027
-26.442
-25.801
-25.106
-24.359
-23.562
-22.718
-21.832
-20.907
-19.949
-18.959
-17.94
-16.898
-15.839
-14.77
-13.699
-12.63
-11.569
-10.525
-9.508
-8.526
-7.589
-6.696
-5.853
-5.064
-4.336
-3.682
-3.109
-2.616
-2.201
-1.863
-1.597
-1.4
-1.258
-1.141
-1.025
-0.882
-0.695
-0.458
-0.159
0.216
0.683
1.261
1.951
2.745
3.64
4.625
5.674
6.759
7.819
8.769
9.531
10.015
10.14
9.844
9.068
7.781
5.953
3.531
0.482
-3.231
-7.646
-12.699
-18.322
-24.486
-31.013
-37.654
-44.087
-49.725
-54.036
-56.791
-57.77
-56.855
-54.237
-50.003
-44.501
-38.725
-33.563
-29.529
-26.978
-25.687
-24.916
-24.292
-23.075
-19.609
-12.173
0.872
20.818
47.731
80.684
118.961
161.216
204.766
246.11
280.836
304.345
313.205
305.086
277.639
229.429
160.758
73.542
-28.127
-138.73
-252.868
-365.191
-469.565
-560.254
-632.642
-683.212
-710.767
-715.835
-699.334
-663.405
-611.992
-549.5
-480.57
-410.123
-341.772
-278.526
-223.718
-179.165
-144.939
-120.527
-104.494
-94.648
-89.374
-86.683
-83.756
-78.984
-71.802
-61.978
-50.117
-37.124
-23.536
-10.373
0.826
9.289
14.749
17.213
17.262
15.448
12.154
8.035
3.885
0.238
-2.524
-4.218
-4.917
-4.651
-3.433
-1.349
1.505
5.016
9.068
13.568
18.442
23.602
28.946
34.352
39.691
44.841
49.69
54.163
58.227
61.86
65.07
67.877
70.303
72.392
74.2
75.78
77.183
78.457
79.644
80.794
81.963
83.203
84.568
86.093
87.796
89.691
91.784
94.073
96.554
99.214
102.032
104.991
108.078
111.278
114.58
117.967
121.42
124.919
128.444
131.974
135.492
138.977
142.411
145.773
149.047
152.215
155.261
158.167
160.916
163.488
165.866
168.032
169.969
171.662
173.097
174.259
175.138
175.725
176.011
175.991
175.66
175.016
174.057
172.784
171.198
169.303
167.105
164.609
161.823
158.758
155.423
151.83
147.994
143.928
139.649
135.171
130.514
125.693
120.729
115.639
110.444
105.162
99.813
94.418
88.995
83.563
78.143
72.752
67.407
62.126
56.925
51.818
46.821
41.945
37.204
32.607
28.166
23.89
19.786
15.861
12.121
8.572
5.215
2.055
-0.908
-3.674
-6.243
-8.616
-10.797
-12.788
-14.594
-16.219
-17.67
-18.952
-20.073
-21.039
-21.859
-22.54
-23.091
-23.52
-23.837
-24.05
-24.168
-24.198
-24.15
-24.031
-23.85
-23.614
-23.33
-23.006
-22.648
-22.263
-21.856
-21.432
-20.997
-20.556
-20.112
-19.669
-19.23
-18.798
-18.376
-17.966
-17.569
-17.188
-16.822
-16.475
-16.145
-15.833
-15.54
-15.267
-15.012
-14.776
-14.559
-14.359
-14.179
-14.016
-13.871
-13.744
-13.636
-13.546
-13.474
-13.422
-13.388
-13.375
-13.381
-13.408
-13.457
-13.528
-13.623
-13.741
-13.884
-14.052
-14.246
-14.467
-14.714
-14.988
-15.288
-15.615
-15.966
-16.341
-16.739
-17.158
-17.597
-18.053
-18.524
-19.008
-19.501
-20.001
-20.504
-21.007
-21.505
-21.994
-22.469
-22.926
-23.361
-23.767
-24.142
-24.479
-24.773
-25.019
-25.214
-25.351
-25.427
-25.437
-25.378
-25.245
-25.038
-24.754
-24.392
-23.953
-23.436
-22.845
-22.183
-21.451
-20.654
-19.794
-18.877
-17.908
-16.893
-15.835
-14.74
-13.615
-12.466
-11.304
-10.134
-8.966
-7.806
-6.662
-5.544
-4.463
-3.425
-2.436
-1.499
-0.62
0.195
0.932
1.588
2.164
2.66
3.083
3.437
3.727
3.967
4.184
4.4
4.642
4.926
5.254
5.64
6.094
6.628
7.263
8.002
8.832
9.75
10.746
11.799
12.887
13.96
14.933
15.736
16.289
16.519
16.381
15.826
14.823
13.348
11.357
8.817
5.709
1.999
-2.304
-7.168
-12.599
-18.46
-24.488
-30.34
-35.504
-39.483
-41.944
-42.605
-41.26
-38.04
-33.268
-27.522
-21.771
-16.919
-13.721
-12.656
-13.761
-16.502
-19.947
-22.832
-23.468
-20.022
-10.522
6.45
31.53
64.437
103.873
148.157
194.964
240.896
281.625
312.83
330.423
331.175
313.127
274.456
214.344
134.074
36.689
-73.354
-190.438
-309.022
-423.819
-528.603
-617.672
-686.983
-733.879
-757.701
-759.411
-740.194
-702.058
-648.95
-585.36
-515.666
-444.156
-373.943
-307.509
-247.862
-197.405
-156.804
-125.768
-103.279
-87.774
-78.073
-72.852
-69.802
-66.574
-61.833
-55.03
-46.275
-36.105
-24.895
-13.102
-1.817
7.665
14.605
18.784
20.416
20.022
18.055
14.908
11.201
7.676
4.847
3.024
2.307
2.599
3.821
5.924
8.805
12.321
16.351
20.771
25.48
30.415
35.485
40.588
45.619
50.47
55.04
59.245
63.033
66.385
69.308
71.829
73.979
75.796
77.33
78.641
79.787
80.822
81.795
82.748
83.73
84.791
85.979
87.342
88.908
90.693
92.705
94.945
97.41
100.091
102.975
106.041
109.268
112.642
116.146
119.766
123.485
127.279
131.128
135.008
138.898
142.775
146.618
150.405
154.113
157.722
161.21
164.559
167.75
170.76
173.569
176.156
178.502
180.59
182.402
183.922
185.135
186.03
186.596
186.827
186.714
186.254
185.445
184.284
182.773
180.915
178.715
176.178
173.313
170.129
166.637
162.85
158.783
154.45
149.87
145.059
140.036
134.823
129.438
123.904
118.241
112.473
106.621
100.707
94.754
88.784
82.819
76.88
70.987
65.16
59.418
53.778
48.258
42.873
37.637
32.565
27.667
22.956
18.441
14.13
10.031
6.148
2.488
-0.948
-4.156
-7.138
-9.892
-12.422
-14.729
-16.818
-18.694
-20.363
-21.831
-23.107
-24.198
-25.115
-25.866
-26.462
-26.913
-27.229
-27.421
-27.501
-27.478
-27.363
-27.168
-26.901
-26.574
-26.195
-25.774
-25.32
-24.841
-24.345
-23.839
-23.329
-22.822
-22.323
-21.837
-21.369
-20.921
-20.497
-20.099
-19.729
-19.389
-19.08
-18.801
-18.552
-18.334
-18.144
-17.982
-17.846
-17.735
-17.647
-17.579
-17.53
-17.498
-17.481
-17.477
-17.483
-17.5
-17.523
-17.553
-17.588
-17.627
-17.668
-17.712
-17.758
-17.805
-17.855
-17.907
-17.963
-18.022
-18.085
-18.154
-18.23
-18.314
-18.408
-18.514
-18.632
-18.765
-18.915
-19.083
-19.27
-19.477
-19.706
-19.957
-20.231
-20.526
-20.844
-21.183
-21.542
-21.921
-22.318
-22.731
-23.159
-23.599
-24.048
-24.503
-24.961
-25.417
-25.867
-26.307
-26.733
-27.139
-27.522
-27.875
-28.195
-28.475
-28.711
-28.899
-29.033
-29.108
-29.121
-29.067
-28.944
-28.749
-28.48
-28.137
-27.72
-27.23
-26.669
-26.04
-25.345
-24.587
-23.77
-22.898
-21.977
-21.009
-20.001
-18.958
-17.887
-16.797
-15.697
-14.593
-13.494
-12.408
-11.345
-10.315
-9.328
-8.386
-7.496
-6.663
-5.895
-5.203
-4.594
-4.068
-3.622
-3.255
-2.96
-2.734
-2.562
-2.42
-2.285
-2.132
-1.945
-1.718
-1.443
-1.105
-0.691
-0.185
0.421
1.112
1.88
2.724
3.624
4.557
5.471
6.287
6.928
7.316
7.386
7.078
6.34
5.132
3.415
1.147
-1.699
-5.147
-9.223
-13.926
-19.257
-25.226
-31.684
-38.374
-44.959
-50.931
-55.85
-59.385
-61.099
-60.656
-58.127
-53.779
-48.211
-42.452
-37.223
-33.129
-31.045
-31.38
-33.84
-37.73
-41.619
-43.563
-42.06
-35.437
-21.577
0.821
32.066
71.493
117.165
166.48
216.637
263.725
302.765
328.97
338.251
327.798
295.979
241.913
165.903
70.315
-40.365
-160.251
-283.153
-403.467
-515.437
-613.244
-691.938
-748.126
-780.686
-790.542
-779.291
-748.486
-700.943
-640.701
-572.32
-500.396
-428.293
-358.271
-292.678
-234.382
-185.461
-146.56
-117.095
-95.636
-81.067
-72.496
-68.483
-66.707
-64.742
-61.163
-55.577
-48.267
-39.582
-29.779
-19.344
-9.33
-1.077
4.678
7.84
8.718
7.852
5.69
2.634
-0.708
-3.598
-5.538
-6.295
-5.841
-4.332
-1.897
1.398
5.426
10.03
15.064
20.386
25.891
31.506
37.143
42.691
48.043
53.085
57.72
61.899
65.599
68.825
71.608
73.98
75.98
77.659
79.079
80.299
81.377
82.364
83.304
84.247
85.245
86.349
87.609
89.058
90.711
92.579
94.66
96.954
99.453
102.144
105.007
108.024
111.18
114.46
117.851
121.336
124.894
128.506
132.147
135.798
139.438
143.047
146.603
150.087
153.476
156.753
159.9
162.896
165.723
168.359
170.786
172.984
174.936
176.626
178.038
179.159
179.976
180.481
180.666
180.524
180.051
179.244
178.102
176.626
174.82
172.686
170.231
167.462
164.389
161.022
157.374
153.457
149.286
144.878
140.25
135.419
130.403
125.223
119.899
114.449
108.896
103.26
97.562
91.822
86.062
80.301
74.559
68.856
63.21
57.637
52.156
46.781
41.527
36.408
31.437
26.625
21.983
17.519
13.242
9.16
5.278
1.6
-1.87
-5.13
-8.177
-11.013
-13.638
-16.054
-18.263
-20.27
-22.079
-23.694
-25.124
-26.373
-27.45
-28.362
-29.118
-29.726
-30.195
-30.534
-30.753
-30.86
-30.865
-30.777
-30.605
-30.358
-30.044
-29.673
-29.251
-28.788
-28.29
-27.764
-27.217
-26.656
-26.085
-25.51
-24.935
-24.366
-23.806
-23.259
-22.726
-22.212
-21.717
-21.244
-20.794
-20.368
-19.966
-19.589
-19.237
-18.91
-18.606
-18.327
-18.071
-17.838
-17.628
-17.439
-17.272
-17.125
-16.998
-16.891
-16.803
-16.733
-16.681
-16.647
-16.632
-16.634
-16.656
-16.697
-16.757
-16.838
-16.94
-17.064
-17.212
-17.384
-17.582
-17.808
-18.063
-18.349
-18.668
-19.022
-19.412
-19.84
-20.306
-20.813
-21.361
-21.949
-22.578
-23.248
-23.957
-24.706
-25.494
-26.319
-27.179
-28.073
-28.999
-29.953
-30.933
-31.936
-32.957
-33.993
-35.04
-36.093
-37.148
-38.199
-39.243
-40.272
-41.283
-42.268
-43.221
-44.136
-45.006
-45.825
-46.587
-47.286
-47.917
-48.477
-48.961
-49.367
-49.695
-49.942
-50.109
-50.196
-50.201
-50.127
-49.975
-49.747
-49.442
-49.063
-48.615
-48.104
-47.536
-46.92
-46.262
-45.569
-44.851
-44.115
-43.372
-42.626
-41.884
-41.151
-40.44
-39.763
-39.138
-38.577
-38.082
-37.655
-37.296
-36.997
-36.749
-36.535
-36.329
-36.108
-35.857
-35.57
-35.247
-34.883
-34.464
-33.969
-33.377
-32.673
-31.858
-30.937
-29.913
-28.807
-27.655
-26.504
-25.427
-24.489
-23.734
-23.195
-22.896
-22.853
-23.104
-23.707
-24.703
-26.134
-28.011
-30.31
-33.024
-36.137
-39.611
-43.411
-47.463
-51.634
-55.847
-60.068
-64.163
-67.956
-71.127
-73.14
-73.533
-71.986
-68.266
-62.272
-54.178
-44.348
-33.48
-22.69
-13.107
-5.709
-1.04
0.87
0.59
-0.834
-2.075
-1.348
3.513
14.697
33.67
61.021
96.095
137.256
182.742
229.995
275.123
313.455
340.392
351.866
345.43
319.639
272.792
204.401
116.248
12.018
-103.016
-222.961
-342.961
-457.976
-561.613
-648.013
-712.956
-754.267
-772.155
-767.868
-742.168
-697.07
-636.838
-566.593
-491.588
-416.041
-342.652
-273.956
-213.255
-163.027
-123.863
-94.967
-74.523
-60.947
-53.165
-49.677
-48.065
-45.871
-41.701
-35.238
-26.948
-17.358
-6.802
4.186
14.553
22.989
28.761
31.796
32.443
31.267
28.741
25.288
21.521
18.183
15.79
14.581
14.598
15.697
17.755
20.712
24.446
28.796
33.617
38.765
44.134
49.652
55.231
60.754
66.11
71.175
75.842
80.053
83.779
87.016
89.787
92.122
94.056
95.642
96.943
98.019
98.93
99.727
100.457
101.17
101.922
102.77
103.767
104.948
106.336
107.944
109.775
111.83
114.106
116.59
119.265
122.114
125.124
128.28
131.573
134.986
138.501
142.097
145.755
149.454
153.175
156.899
160.605
164.274
167.886
171.422
174.864
178.194
181.39
184.432
187.299
189.971
192.429
194.655
196.63
198.339
199.768
200.903
201.735
202.253
202.45
202.32
201.859
201.064
199.933
198.469
196.673
194.55
192.104
189.344
186.278
182.916
179.27
175.353
171.179
166.764
162.123
157.274
152.235
147.025
141.663
136.169
130.564
124.866
119.098
113.28
107.432
101.573
95.725
89.905
84.132
78.423
72.795
67.264
61.844
56.55
51.394
46.389
41.546
36.873
32.38
28.075
23.964
20.051
16.342
12.839
9.545
6.458
3.581
0.911
-1.555
-3.818
-5.884
-7.758
-9.444
-10.95
-12.283
-13.45
-14.459
-15.319
-16.039
-16.627
-17.092
-17.444
-17.691
-17.843
-17.908
-17.895
-17.813
-17.67
-17.474
-17.232
-16.953
-16.642
-16.307
-15.953
-15.587
-15.212
-14.834
-14.458
-14.085
-13.721
-13.368
-13.027
-12.701
-12.392
-12.099
-11.824
-11.568
-11.329
-11.108
-10.905
-10.718
-10.548
-10.393
-10.252
-10.124
-10.009
-9.905
-9.812
-9.728
-9.654
-9.587
-9.528
-9.476
-9.431
-9.392
-9.359
-9.333
-9.313
-9.299
-9.293
-9.294
-9.304
-9.323
-9.354
-9.396
-9.452
-9.522
-9.609
-9.714
-9.838
-9.982
-10.149
-10.339
-10.553
-10.793
-11.059
-11.351
-11.671
-12.018
-12.391
-12.791
-13.215
-13.663
-14.132
-14.621
-15.128
-15.65
-16.185
-16.73
-17.281
-17.836
-18.39
-18.94
-19.481
-20.009
-20.519
-21.005
-21.463
-21.888
-22.275
-22.618
-22.913
-23.154
-23.338
-23.459
-23.514
-23.497
-23.407
-23.24
-22.994
-22.668
-22.262
-21.776
-21.212
-20.573
-19.861
-19.082
-18.237
-17.333
-16.374
-15.365
-14.313
-13.223
-12.1
-10.95
-9.783
-8.606
-7.428
-6.258
-5.102
-3.97
-2.87
-1.815
-0.811
0.138
1.026
1.849
2.6
3.266
3.843
4.332
4.734
5.054
5.297
5.469
5.584
5.668
5.746
5.844
5.981
6.16
6.394
6.696
7.079
7.566
8.162
8.854
9.641
10.515
11.455
12.441
13.418
14.303
15.024
15.495
15.641
15.411
14.75
13.624
12.001
9.829
7.072
3.706
-0.31
-4.963
-10.221
-16.086
-22.416
-28.945
-35.322
-41.025
-45.543
-48.519
-49.656
-48.739
-45.87
-41.338
-35.693
-29.873
-24.812
-21.321
-19.909
-20.647
-23.019
-26.08
-28.635
-29.055
-25.355
-15.431
2.277
28.568
63.009
104.119
150.302
199.213
247.086
289.262
320.903
337.43
335.907
314.561
271.347
205.414
118.306
13.547
-103.472
-226.382
-349.894
-468.646
-575.941
-665.671
-733.404
-776.804
-796.11
-792.809
-767.878
-723.473
-663.937
-594.391
-520.121
-445.328
-372.6
-304.324
-243.664
-193.051
-153.117
-123.134
-101.342
-86.235
-76.869
-71.867
-68.934
-65.636
-60.534
-53.28
-44.296
-34.064
-22.895
-11.283
-0.249
8.865
15.275
18.876
19.963
19.066
16.675
13.216
9.319
5.78
3.139
1.663
1.426
2.303
4.178
7.002
10.649
14.949
19.764
24.952
30.41
36.08
41.864
47.636
53.28
58.664
63.674
68.251
72.356
75.975
79.135
81.864
84.199
86.196
87.915
89.415
90.755
91.984
93.147
94.297
95.489
96.777
98.217
99.843
101.676
103.729
106.002
108.493
111.195
114.092
117.163
120.389
123.753
127.238
130.833
134.518
138.273
142.076
145.904
149.735
153.549
157.325
161.041
164.677
168.212
171.627
174.906
178.029
180.975
183.726
186.261
188.562
190.612
192.394
193.893
195.096
195.99
196.565
196.814
196.732
196.313
195.554
194.454
193.014
191.237
189.126
186.687
183.927
180.854
177.479
173.813
169.869
165.661
161.205
156.516
151.613
146.514
141.237
135.802
130.229
124.539
118.751
112.888
106.969
101.014
95.046
89.082
83.143
77.248
71.414
65.658
59.998
54.447
49.02
43.731
38.592
33.615
28.809
24.184
19.749
15.509
11.472
7.642
4.022
0.615
-2.577
-5.554
-8.317
-10.868
-13.209
-15.345
-17.278
-19.015
-20.561
-21.924
-23.11
-24.128
-24.985
-25.691
-26.254
-26.683
-26.987
-27.177
-27.26
-27.248
-27.148
-26.97
-26.723
-26.416
-26.058
-25.656
-25.218
-24.752
-24.265
-23.765
-23.256
-22.745
-22.238
-21.739
-21.252
-20.782
-20.332
-19.905
-19.503
-19.128
-18.781
-18.465
-18.179
-17.925
-17.702
-17.51
-17.349
-17.219
-17.118
-17.046
-17.002
-16.984
-16.992
-17.024
-17.079
-17.156
-17.252
-17.368
-17.501
-17.651
-17.816
-17.995
-18.188
-18.393
-18.61
-18.837
-19.076
-19.325
-19.584
-19.853
-20.133
-20.424
-20.726
-21.04
-21.366
-21.704
-22.057
-22.424
-22.805
-23.202
-23.614
-24.043
-24.489
-24.952
-25.432
-25.93
-26.444
-26.974
-27.521
-28.082
-28.656
-29.243
-29.839
-30.444
-31.056
-31.672
-32.29
-32.908
-33.521
-34.128
-34.725
-35.309
-35.874
-36.417
-36.933
-37.418
-37.869
-38.279
-38.646
-38.963
-39.227
-39.433
-39.578
-39.657
-39.667
-39.605
-39.467
-39.251
-38.957
-38.584
-38.131
-37.6
-36.993
-36.313
-35.562
-34.744
-33.863
-32.922
-31.928
-30.884
-29.796
-28.669
-27.508
-26.321
-25.117
-23.903
-22.688
-21.479
-20.284
-19.113
-17.977
-16.886
-15.842
-14.852
-13.921
-13.056
-12.269
-11.565
-10.944
-10.405
-9.944
-9.556
-9.237
-8.975
-8.746
-8.526
-8.291
-8.026
-7.728
-7.386
-6.987
-6.519
-5.965
-5.32
-4.599
-3.809
-2.952
-2.045
-1.111
-0.2
0.609
1.247
1.646
1.745
1.494
0.845
-0.239
-1.79
-3.84
-6.42
-9.548
-13.265
-17.588
-22.497
-27.986
-33.907
-39.994
-45.943
-51.314
-55.645
-58.586
-59.83
-59.122
-56.624
-52.733
-47.9
-42.932
-38.58
-35.427
-34.064
-34.76
-36.96
-39.657
-41.833
-42.028
-38.82
-30.744
-16.087
6.282
36.238
72.673
114.264
159.06
204.51
247.165
282.453
305.781
313.591
303.53
273.56
222.407
150.204
58.973
-46.989
-161.926
-280.009
-395.924
-503.834
-597.875
-673.227
-726.598
-756.914
-765.148
-752.845
-721.516
-674.23
-615.244
-548.97
-479.791
-411.115
-345.131
-284.25
-231.409
-187.993
-153.978
-128.669
-110.529
-98.185
-90.704
-86.307
-82.353
-77.205
-70.181
-61.129
-50.67
-39.336
-27.39
-15.724
-5.745
1.723
6.384
8.323
8.13
6.322
3.253
-0.47
-4.083
-7.048
-9.007
-9.813
-9.565
-8.343
-6.185
-3.197
0.493
4.761
9.477
14.534
19.861
25.366
30.945
36.486
41.874
47.001
51.775
56.141
60.076
63.578
66.671
69.385
71.755
73.828
75.667
77.328
78.866
80.333
81.77
83.227
84.758
86.41
88.233
90.257
92.497
94.962
97.652
100.564
103.689
107.011
110.508
114.161
117.95
121.858
125.87
129.966
134.123
138.318
142.525
146.721
150.884
154.992
159.021
162.949
166.753
170.413
173.91
177.224
180.333
183.217
185.855
188.228
190.319
192.11
193.585
194.732
195.538
195.995
196.095
195.833
195.206
194.212
192.852
191.128
189.044
186.606
183.821
180.7
177.253
173.494
169.435
165.093
160.484
155.626
150.539
145.241
139.754
134.099
128.297
122.37
116.341
110.232
104.066
97.864
91.65
85.444
79.268
73.142
67.086
61.118
55.255
49.514
43.91
38.457
33.168
28.055
23.127
18.394
13.865
9.545
5.441
1.556
-2.107
-5.545
-8.759
-11.748
-14.514
-17.059
-19.387
-21.502
-23.409
-25.114
-26.623
-27.944
-29.084
-30.051
-30.855
-31.505
-32.009
-32.377
-32.618
-32.742
-32.758
-32.675
-32.503
-32.249
-31.923
-31.533
-31.086
-30.59
-30.052
-29.478
-28.875
-28.249
-27.604
-26.947
-26.28
-25.61
-24.938
-24.27
-23.608
-22.954
-22.312
-21.683
-21.07
-20.474
-19.897
-19.34
-18.804
-18.29
-17.798
-17.33
-16.885
-16.465
-16.07
-15.701
-15.359
-15.044
-14.757
-14.499
-14.27
-14.071
-13.903
-13.766
-13.663
-13.592
-13.555
-13.553
-13.585
-13.654
-13.757
-13.895
-14.067
-14.273
-14.512
-14.781
-15.079
-15.404
-15.754
-16.126
-16.518
-16.927
-17.349
-17.781
-18.219
-18.66
-19.098
-19.529
-19.949
-20.352
-20.733
-21.088
-21.412
-21.699
-21.943
-22.141
-22.287
-22.376
-22.404
-22.367
-22.26
-22.082
-21.829
-21.5
-21.094
-20.612
-20.056
-19.427
-18.729
-17.967
-17.143
-16.262
-15.329
-14.352
-13.334
-12.283
-11.202
-10.101
-8.985
-7.866
-6.752
-5.65
-4.569
-3.517
-2.506
-1.545
-0.645
0.193
0.961
1.654
2.265
2.779
3.191
3.501
3.711
3.824
3.846
3.782
3.647
3.468
3.27
3.082
2.921
2.791
2.705
2.675
2.717
2.854
3.093
3.421
3.837
4.331
4.882
5.469
6.036
6.495
6.771
6.779
6.444
5.722
4.563
2.935
0.806
-1.874
-5.136
-8.998
-13.492
-18.598
-24.284
-30.546
-37.234
-44.073
-50.713
-56.645
-61.385
-64.608
-66.036
-65.461
-62.976
-58.85
-53.6
-48.119
-43.265
-39.76
-38.056
-38.199
-39.705
-41.712
-43.11
-42.386
-37.731
-27.223
-9.459
16.247
49.455
88.714
132.45
178.449
223.222
262.493
291.85
307.057
305.434
285.593
245.881
185.674
106.458
11.22
-95.367
-207.465
-320.306
-429.427
-529.085
-614.101
-680.665
-726.064
-749.892
-753.342
-737.044
-702.384
-652.813
-592.273
-524.984
-455.296
-386.165
-319.909
-259.674
-208.052
-165.945
-133.372
-109.388
-92.385
-81.224
-74.656
-70.45
-66.334
-60.973
-53.737
-44.713
-34.453
-23.338
-11.829
-0.969
8.013
14.408
18.016
19.064
18.077
15.522
11.828
7.633
3.702
0.579
-1.441
-2.269
-1.999
-0.722
1.519
4.624
8.435
12.815
17.631
22.771
28.168
33.728
39.323
44.829
50.111
55.043
59.557
63.617
67.205
70.338
73.043
75.348
77.307
78.978
80.42
81.689
82.838
83.91
84.958
86.041
87.216
88.542
90.055
91.777
93.721
95.89
98.283
100.894
103.71
106.706
109.867
113.174
116.614
120.173
123.834
127.575
131.375
135.21
139.059
142.9
146.714
150.477
154.169
157.769
161.258
164.619
167.831
170.873
173.725
176.366
178.776
180.937
182.831
184.441
185.752
186.752
187.429
187.775
187.781
187.444
186.759
185.724
184.34
182.609
180.533
178.118
175.372
172.302
168.919
165.235
161.263
157.017
152.513
147.769
142.802
137.632
132.278
126.761
121.102
115.322
109.445
103.491
97.483
91.443
85.394
79.356
73.35
67.398
61.518
55.728
50.047
44.49
39.074
33.812
28.717
23.802
19.078
14.553
10.237
6.136
2.257
-1.395
-4.818
-8.009
-10.966
-13.689
-16.181
-18.442
-20.477
-22.29
-23.885
-25.269
-26.449
-27.433
-28.229
-28.846
-29.293
-29.58
-29.718
-29.716
-29.586
-29.338
-28.982
-28.53
-27.991
-27.375
-26.693
-25.953
-25.166
-24.341
-23.485
-22.607
-21.714
-20.815
-19.915
-19.022
-18.141
-17.276
-16.434
-15.619
-14.833
-14.081
-13.365
-12.687
-12.05
-11.455
-10.903
-10.394
-9.93
-9.51
-9.134
-8.801
-8.511
-8.263
-8.056
-7.889
-7.761
-7.67
-7.616
-7.598
-7.614
-7.663
-7.745
-7.858
-8.002
-8.174
-8.375
-8.604
-8.86
-9.142
-9.449
-9.781
-10.138
-10.518
-10.921
-11.347
-11.793
-12.26
-12.746
-13.249
-13.769
-14.302
-14.848
-15.404
-15.969
-16.541
-17.118
-17.696
-18.274
-18.849
-19.417
-19.975
-20.521
-21.049
-21.557
-22.041
-22.496
-22.92
-23.308
-23.656
-23.96
-24.216
-24.422
-24.571
-24.662
-24.691
-24.655
-24.553
-24.383
-24.144
-23.836
-23.461
-23.021
-22.518
-21.957
-21.339
-20.668
-19.948
-19.183
-18.379
-17.539
-16.668
-15.771
-14.856
-13.93
-13.001
-12.078
-11.166
-10.273
-9.407
-8.576
-7.79
-7.053
-6.369
-5.744
-5.185
-4.703
-4.305
-3.991
-3.756
-3.597
-3.505
-3.47
-3.482
-3.512
-3.54
-3.544
-3.501
-3.403
-3.24
-2.995
-2.654
-2.199
-1.618
-0.922
-0.123
0.774
1.743
2.754
3.763
4.688
5.458
6.008
6.258
6.146
5.613
4.602
3.088
1.047
-1.56
-4.75
-8.544
-12.974
-17.985
-23.522
-29.556
-35.903
-42.305
-48.406
-53.642
-57.492
-59.613
-59.719
-57.63
-53.483
-47.574
-40.527
-33.407
-27.229
-22.846
-20.747
-20.912
-22.757
-25.312
-27.252
-26.753
-21.706
-9.935
9.987
38.537
75.014
117.733
164.798
213.55
259.998
299.368
327.078
339.062
332.852
307.219
260.67
192.904
105.945
3.407
-109.652
-227.299
-344.716
-457.279
-558.952
-644.406
-709.974
-753.229
-774
-773.53
-752.418
-712.205
-656.714
-590.233
-517.189
-442.024
-367.767
-296.959
-233.107
-178.989
-135.508
-102.599
-79.186
-63.588
-54.57
-50.648
-49.26
-47.854
-44.934
-39.81
-32.564
-23.738
-13.716
-3.018
7.212
15.645
21.543
24.725
25.44
24.25
21.632
18.015
14.06
10.536
7.965
6.609
6.52
7.559
9.614
12.623
16.454
20.935
25.908
31.222
36.766
42.466
48.228
53.933
59.463
64.695
69.526
73.902
77.797
81.206
84.153
86.667
88.784
90.561
92.059
93.341
94.465
95.485
96.448
97.407
98.418
99.536
100.814
102.284
103.965
105.869
107.996
110.346
112.912
115.68
118.629
121.743
125.006
128.401
131.917
135.533
139.231
142.987
146.78
150.587
154.388
158.162
161.887
165.542
169.107
172.56
175.885
179.059
182.062
184.873
187.47
189.833
191.945
193.785
195.339
196.59
197.526
198.135
198.409
198.339
197.921
197.15
196.025
194.546
192.714
190.533
188.009
185.149
181.961
178.457
174.648
170.548
166.172
161.536
156.656
151.553
146.244
140.751
135.093
129.292
123.371
117.35
111.252
105.1
98.914
92.718
86.531
80.376
74.271
68.236
62.289
56.447
50.726
45.141
39.706
34.434
29.335
24.42
19.699
15.179
10.866
6.765
2.882
-0.782
-4.225
-7.445
-10.445
-13.225
-15.789
-18.139
-20.281
-22.219
-23.961
-25.514
-26.884
-28.08
-29.11
-29.985
-30.712
-31.302
-31.765
-32.11
-32.346
-32.485
-32.534
-32.504
-32.403
-32.241
-32.024
-31.762
-31.462
-31.131
-30.775
-30.401
-30.014
-29.619
-29.222
-28.826
-28.434
-28.051
-27.679
-27.32
-26.976
-26.648
-26.339
-26.047
-25.774
-25.52
-25.285
-25.068
-24.869
-24.687
-24.522
-24.372
-24.237
-24.115
-24.005
-23.908
-23.821
-23.745
-23.679
-23.622
-23.575
-23.538
-23.51
-23.493
-23.487
-23.492
-23.51
-23.541
-23.587
-23.649
-23.728
-23.826
-23.944
-24.083
-24.246
-24.432
-24.644
-24.882
-25.147
-25.44
-25.759
-26.106
-26.48
-26.88
-27.306
-27.757
-28.232
-28.729
-29.245
-29.779
-30.327
-30.887
-31.455
-32.027
-32.598
-33.164
-33.72
-34.262
-34.784
-35.28
-35.744
-36.171
-36.556
-36.891
-37.171
-37.391
-37.545
-37.629
-37.638
-37.571
-37.424
-37.196
-36.887
-36.498
-36.029
-35.481
-34.855
-34.155
-33.381
-32.538
-31.628
-30.655
-29.625
-28.544
-27.419
-26.26
-25.074
-23.87
-22.655
-21.44
-20.232
-19.042
-17.877
-16.745
-15.656
-14.621
-13.654
-12.763
-11.952
-11.22
-10.565
-9.981
-9.459
-8.986
-8.541
-8.107
-7.668
-7.212
-6.73
-6.211
-5.642
-5.007
-4.285
-3.472
-2.571
-1.593
-0.553
0.53
1.628
2.687
3.64
4.423
4.982
5.27
5.232
4.806
3.932
2.561
0.669
-1.752
-4.717
-8.24
-12.34
-17.025
-22.238
-27.894
-33.924
-40.169
-46.394
-52.276
-57.309
-60.988
-62.959
-62.934
-60.722
-56.466
-50.485
-43.366
-36.092
-29.616
-24.767
-22.089
-21.68
-23.03
-25.215
-26.959
-26.549
-22.108
-11.61
6.39
32.525
66.498
107.005
152.346
200.129
246.836
287.973
319.114
336.114
335.677
315.739
274.33
210.561
125.812
23.324
-92.238
-215.061
-339.413
-459.717
-569.298
-662.043
-733.678
-781.415
-804.573
-804.112
-781.162
-737.867
-678.557
-608.158
-531.482
-453.215
-376.771
-304.961
-241.209
-188.125
-146.369
-115.545
-94.392
-81.095
-74.233
-72.169
-72.224
-71.8
-69.456
-64.594
-57.371
-48.387
-38.067
-26.986
-16.365
-7.579
-1.379
2.06
3.009
2.039
-0.381
-3.823
-7.627
-11.027
-13.5
-14.788
-14.851
-13.832
-11.848
-8.959
-5.287
-0.997
3.761
8.844
14.146
19.606
25.138
30.633
35.979
41.055
45.757
50.028
53.844
57.198
60.114
62.618
64.745
66.546
68.086
69.423
70.616
71.715
72.765
73.815
74.92
76.135
77.513
79.089
80.882
82.904
85.156
87.639
90.346
93.264
96.372
99.65
103.084
106.658
110.357
114.165
118.06
122.019
126.02
130.04
134.059
138.055
142.005
145.888
149.684
153.372
156.933
160.349
163.597
166.657
169.507
172.128
174.501
176.609
178.434
179.961
181.177
182.072
182.637
182.863
182.746
182.282
181.469
180.306
178.796
176.942
174.75
172.225
169.378
166.218
162.757
159.008
154.985
150.705
146.184
141.439
136.491
131.358
126.06
120.618
115.053
109.387
103.642
97.838
91.998
86.142
80.292
74.469
68.691
62.977
57.346
51.815
46.398
41.113
35.971
30.987
26.172
21.536
17.088
12.838
8.79
4.953
1.328
-2.08
-5.269
-8.239
-10.989
-13.522
-15.84
-17.945
-19.843
-21.539
-23.039
-24.349
-25.479
-26.434
-27.226
-27.862
-28.353
-28.707
-28.936
-29.049
-29.056
-28.968
-28.793
-28.543
-28.227
-27.853
-27.432
-26.97
-26.477
-25.96
-25.426
-24.881
-24.331
-23.782
-23.239
-22.705
-22.185
-21.681
-21.197
-20.734
-20.293
-19.876
-19.483
-19.115
-18.77
-18.448
-18.148
-17.869
-17.609
-17.366
-17.139
-16.926
-16.724
-16.531
-16.346
-16.167
-15.991
-15.816
-15.642
-15.466
-15.288
-15.106
-14.92
-14.73
-14.536
-14.337
-14.135
-13.931
-13.724
-13.518
-13.313
-13.111
-12.914
-12.725
-12.547
-12.38
-12.229
-12.096
-11.983
-11.893
-11.827
-11.788
-11.777
-11.796
-11.846
-11.928
-12.042
-12.189
-12.37
-12.583
-12.828
-13.104
-13.41
-13.743
-14.101
-14.48
-14.878
-15.29
-15.712
-16.139
-16.566
-16.989
-17.4
-17.795
-18.166
-18.508
-18.814
-19.078
-19.293
-19.453
-19.553
-19.588
-19.554
-19.447
-19.265
-19.006
-18.67
-18.255
-17.763
-17.192
-16.544
-15.821
-15.025
-14.157
-13.221
-12.221
-11.162
-10.052
-8.897
-7.706
-6.484
-5.241
-3.985
-2.726
-1.474
-0.236
0.981
2.167
3.313
4.404
5.432
6.393
7.286
8.112
8.875
9.579
10.233
10.858
11.472
12.091
12.73
13.396
14.096
14.841
15.644
16.524
17.486
18.522
19.618
20.762
21.938
23.119
24.259
25.28
26.114
26.693
26.949
26.829
26.271
25.216
23.628
21.466
18.698
15.309
11.278
6.581
1.24
-4.73
-11.307
-18.305
-25.474
-32.487
-38.849
-44.147
-48.053
-50.121
-50.012
-47.783
-43.682
-38.289
-32.578
-27.198
-22.715
-19.987
-19.452
-20.91
-23.734
-26.547
-27.524
-25.305
-18.34
-4.61
17.2
47.555
85.929
130.499
178.861
228.44
275.524
315.296
342.948
354.169
345.926
316.397
264.391
189.852
94.827
-16.469
-138.202
-263.984
-388.032
-504.411
-606.962
-690.317
-750.654
-786.461
-798.476
-788.318
-757.544
-708.998
-646.885
-576.026
-501.347
-426.514
-353.949
-286.054
-225.759
-175.207
-135.059
-104.684
-82.534
-67.401
-58.372
-54.016
-52.028
-49.964
-46.355
-40.805
-33.616
-25.135
-15.622
-5.542
4.076
11.877
17.128
19.758
20.089
18.682
16.019
12.517
8.816
5.704
3.671
2.935
3.521
5.244
7.974
11.644
16.108
21.189
26.727
32.562
38.583
44.717
50.849
56.848
62.586
67.923
72.777
77.118
80.927
84.223
87.038
89.405
91.377
93.021
94.395
95.563
96.581
97.497
98.369
99.256
100.217
101.316
102.595
104.077
105.779
107.705
109.854
112.223
114.799
117.562
120.497
123.588
126.822
130.187
133.668
137.245
140.897
144.603
148.341
152.091
155.834
159.548
163.213
166.809
170.316
173.716
176.989
180.114
183.069
185.832
188.384
190.703
192.773
194.574
196.09
197.307
198.213
198.796
199.048
198.962
198.532
197.753
196.625
195.146
193.318
191.144
188.629
185.78
182.604
179.113
175.317
171.228
166.863
162.235
157.362
152.263
146.955
141.458
135.793
129.982
124.044
118.003
111.88
105.696
99.475
93.237
87.004
80.797
74.635
68.537
62.523
56.609
50.813
45.149
39.634
34.279
29.099
24.104
19.305
14.71
10.328
6.164
2.225
-1.486
-4.966
-8.213
-11.227
-14.01
-16.562
-18.887
-20.989
-22.872
-24.544
-26.009
-27.277
-28.355
-29.251
-29.975
-30.537
-30.946
-31.214
-31.35
-31.365
-31.27
-31.076
-30.794
-30.433
-30.004
-29.518
-28.983
-28.41
-27.807
-27.183
-26.545
-25.901
-25.259
-24.623
-24.001
-23.396
-22.814
-22.258
-21.733
-21.24
-20.782
-20.36
-19.977
-19.633
-19.328
-19.062
-18.836
-18.647
-18.495
-18.379
-18.297
-18.247
-18.228
-18.236
-18.271
-18.329
-18.409
-18.508
-18.625
-18.758
-18.904
-19.062
-19.231
-19.409
-19.595
-19.79
-19.991
-20.199
-20.415
-20.637
-20.867
-21.104
-21.35
-21.606
-21.871
-22.149
-22.439
-22.742
-23.061
-23.396
-23.749
-24.121
-24.514
-24.927
-25.363
-25.822
-26.303
-26.808
-27.335
-27.884
-28.455
-29.045
-29.654
-30.279
-30.919
-31.57
-32.23
-32.895
-33.562
-34.227
-34.884
-35.53
-36.159
-36.767
-37.347
-37.896
-38.407
-38.875
-39.293
-39.657
-39.961
-40.2
-40.367
-40.459
-40.471
-40.399
-40.241
-39.994
-39.656
-39.228
-38.711
-38.106
-37.414
-36.64
-35.785
-34.853
-33.85
-32.779
-31.646
-30.456
-29.217
-27.934
-26.619
-25.28
-23.926
-22.566
-21.208
-19.862
-18.538
-17.249
-16
-14.8
-13.656
-12.579
-11.582
-10.673
-9.854
-9.124
-8.482
-7.921
-7.436
-7.017
-6.641
-6.29
-5.945
-5.586
-5.206
-4.795
-4.339
-3.822
-3.227
-2.544
-1.78
-0.95
-0.06
0.869
1.808
2.714
3.512
4.129
4.507
4.57
4.26
3.523
2.301
0.566
-1.704
-4.545
-7.974
-12.01
-16.689
-21.974
-27.816
-34.19
-40.915
-47.728
-54.284
-60.049
-64.508
-67.298
-68.109
-66.732
-63.312
-58.188
-51.976
-45.687
-40.272
-36.556
-35.059
-35.846
-38.38
-41.668
-44.369
-44.721
-40.798
-30.529
-12.425
14.202
49.087
90.874
137.818
187.522
236.461
280.126
313.995
333.754
335.951
318.452
279.24
217.316
133.875
31.984
-83.765
-207.507
-333.384
-455.741
-567.866
-663.51
-738.147
-788.704
-814.248
-815.612
-793.933
-751.35
-692.183
-621.434
-544.058
-464.954
-387.734
-315.307
-251.097
-197.695
-155.711
-124.676
-103.249
-89.474
-81.848
-78.72
-77.426
-75.443
-71.399
-64.752
-55.739
-45.051
-33.173
-20.713
-8.905
0.91
7.99
12.151
13.698
13.215
11.21
8.152
4.709
1.648
-0.503
-1.479
-1.234
0.104
2.414
5.628
9.63
14.255
19.362
24.819
30.514
36.38
42.321
48.212
53.936
59.368
64.392
68.949
73.008
76.561
79.634
82.26
84.473
86.328
87.889
89.215
90.367
91.397
92.354
93.29
94.262
95.328
96.543
97.945
99.555
101.386
103.442
105.723
108.224
110.932
113.828
116.896
120.122
123.49
126.989
130.605
134.317
138.105
141.947
145.823
149.712
153.595
157.45
161.257
164.993
168.641
172.181
175.594
178.858
181.951
184.853
187.543
190.002
192.211
194.154
195.813
197.175
198.228
198.961
199.366
199.436
199.165
198.551
197.591
196.285
194.635
192.646
190.32
187.667
184.693
181.408
177.826
173.957
169.817
165.422
160.787
155.932
150.874
145.634
140.232
134.688
129.025
123.264
117.426
111.534
105.609
99.674
93.748
87.854
82.009
76.235
70.548
64.967
59.507
54.185
49.015
44.009
39.182
34.542
30.101
25.868
21.849
18.051
14.479
11.137
8.027
5.15
2.507
0.095
-2.088
-4.046
-5.783
-7.305
-8.619
-9.733
-10.656
-11.396
-11.964
-12.37
-12.625
-12.741
-12.728
-12.598
-12.364
-12.037
-11.628
-11.15
-10.613
-10.028
-9.408
-8.761
-8.098
-7.428
-6.76
-6.103
-5.465
-4.853
-4.273
-3.731
-3.231
-2.78
-2.379
-2.032
-1.741
-1.507
-1.332
-1.215
-1.156
-1.153
-1.206
-1.311
-1.467
-1.671
-1.92
-2.21
-2.539
-2.902
-3.295
-3.716
-4.161
-4.626
-5.107
-5.601
-6.104
-6.614
-7.128
-7.643
-8.157
-8.667
-9.171
-9.67
-10.161
-10.643
-11.117
-11.582
-12.038
-12.486
-12.927
-13.362
-13.792
-14.218
-14.643
-15.069
-15.496
-15.926
-16.362
-16.803
-17.252
-17.71
-18.176
-18.651
-19.136
-19.63
-20.133
-20.644
-21.163
-21.689
-22.218
-22.75
-23.283
-23.814
-24.34
-24.857
-25.362
-25.85
-26.319
-26.764
-27.18
-27.561
-27.904
-28.203
-28.454
-28.653
-28.793
-28.871
-28.883
-28.826
-28.698
-28.496
-28.22
-27.869
-27.446
-26.951
-26.387
-25.756
-25.062
-24.307
-23.497
-22.637
-21.731
-20.783
-19.799
-18.785
-17.75
-16.703
-15.649
-14.596
-13.552
-12.527
-11.532
-10.576
-9.664
-8.801
-7.992
-7.245
-6.571
-5.978
-5.464
-5.029
-4.67
-4.382
-4.164
-4.002
-3.874
-3.756
-3.627
-3.468
-3.276
-3.042
-2.752
-2.392
-1.945
-1.406
-0.789
-0.101
0.659
1.473
2.32
3.152
3.891
4.468
4.816
4.872
4.588
3.916
2.817
1.258
-0.799
-3.388
-6.532
-10.272
-14.628
-19.583
-25.139
-31.15
-37.348
-43.422
-48.93
-53.418
-56.559
-58.057
-57.654
-55.514
-52.023
-47.63
-43.142
-39.262
-36.502
-35.394
-36.167
-38.266
-40.721
-42.517
-42.223
-38.526
-30.089
-15.331
6.791
36.171
71.756
112.239
155.768
200.001
241.707
276.545
300.064
308.675
299.989
271.945
223.089
153.221
63.977
-40.692
-155.236
-273.84
-391.219
-501.603
-599.042
-678.35
-735.749
-769.858
-781.447
-772.034
-743.129
-697.446
-638.944
-572.192
-501.837
-431.266
-362.701
-298.334
-240.845
-192.262
-153.23
-123.179
-100.722
-84.797
-74.603
-68.881
-65.518
-62.212
-57.605
-51.327
-43.64
-34.855
-25.179
-15.013
-5.318
2.615
8.068
10.953
11.559
10.404
7.92
4.484
0.694
-2.701
-5.186
-6.509
-6.619
-5.66
-3.745
-0.929
2.668
6.89
11.59
16.623
21.881
27.295
32.776
38.208
43.48
48.472
53.079
57.246
60.947
64.184
66.983
69.375
71.397
73.103
74.553
75.808
76.926
77.959
78.952
79.954
81.019
82.202
83.556
85.112
86.89
88.899
91.14
93.609
96.302
99.201
102.287
105.541
108.945
112.484
116.144
119.907
123.751
127.654
131.591
135.542
139.484
143.395
147.254
151.039
154.728
158.3
161.738
165.02
168.125
171.032
173.72
176.168
178.357
180.271
181.892
183.205
184.198
184.859
185.181
185.155
184.778
184.045
182.955
181.51
179.71
177.562
175.07
172.241
169.087
165.617
161.844
157.783
153.448
148.856
144.025
138.975
133.723
128.292
122.702
116.975
111.132
105.197
99.191
93.137
87.057
80.974
74.908
68.881
62.912
57.021
51.226
45.544
39.991
34.582
29.33
24.249
19.349
14.641
10.134
5.834
1.749
-2.117
-5.76
-9.177
-12.368
-15.332
-18.07
-20.584
-22.877
-24.954
-26.819
-28.478
-29.937
-31.205
-32.289
-33.198
-33.941
-34.528
-34.967
-35.27
-35.446
-35.506
-35.458
-35.314
-35.083
-34.775
-34.399
-33.964
-33.478
-32.95
-32.388
-31.798
-31.188
-30.565
-29.933
-29.298
-28.666
-28.04
-27.425
-26.824
-26.24
-25.677
-25.136
-24.619
-24.128
-23.664
-23.229
-22.823
-22.446
-22.098
-21.78
-21.492
-21.233
-21.004
-20.803
-20.632
-20.489
-20.375
-20.288
-20.23
-20.2
-20.197
-20.222
-20.276
-20.358
-20.469
-20.608
-20.777
-20.974
-21.202
-21.459
-21.745
-22.062
-22.407
-22.781
-23.183
-23.611
-24.065
-24.544
-25.044
-25.564
-26.103
-26.658
-27.226
-27.804
-28.389
-28.978
-29.568
-30.154
-30.732
-31.298
-31.847
-32.375
-32.877
-33.349
-33.784
-34.178
-34.527
-34.825
-35.068
-35.253
-35.373
-35.426
-35.408
-35.318
-35.152
-34.911
-34.594
-34.2
-33.733
-33.196
-32.59
-31.92
-31.189
-30.4
-29.56
-28.673
-27.743
-26.777
-25.779
-24.756
-23.718
-22.672
-21.627
-20.59
-19.568
-18.571
-17.609
-16.693
-15.827
-15.015
-14.265
-13.583
-12.982
-12.469
-12.044
-11.705
-11.449
-11.269
-11.159
-11.107
-11.088
-11.079
-11.058
-11.005
-10.91
-10.763
-10.547
-10.244
-9.835
-9.312
-8.684
-7.959
-7.139
-6.246
-5.309
-4.376
-3.529
-2.833
-2.349
-2.153
-2.308
-2.877
-3.924
-5.471
-7.544
-10.183
-13.405
-17.251
-21.761
-26.856
-32.456
-38.509
-44.811
-51.141
-57.201
-62.426
-66.313
-68.637
-69.18
-67.838
-64.814
-60.203
-54.356
-48.239
-42.704
-38.254
-35.238
-33.466
-32.238
-31.168
-29.529
-25.736
-18.151
-5.232
14.228
40.292
72.057
108.782
149.19
190.767
230.158
263.133
285.253
293.139
284.56
257.312
209.836
142.114
55.871
-45.003
-155.098
-268.974
-381.667
-487.614
-581.11
-657.225
-712.374
-745.267
-756.619
-747.757
-719.999
-675.896
-619.231
-554.412
-485.95
-417.159
-350.253
-287.471
-231.532
-184.459
-146.913
-118.346
-97.371
-82.897
-74.084
-69.616
-67.36
-65.06
-61.357
-55.872
-48.873
-40.677
-31.526
-21.864
-12.651
-5.141
-0.016
2.655
3.163
2.02
-0.326
-3.485
-6.856
-9.703
-11.566
-12.238
-11.693
-10.093
-7.555
-4.134
0.041
4.808
10.025
15.549
21.281
27.159
33.076
38.913
44.546
49.842
54.722
59.153
63.119
66.633
69.725
72.422
74.774
76.839
78.674
80.333
81.868
83.321
84.744
86.193
87.721
89.391
91.24
93.291
95.559
98.046
100.75
103.667
106.781
110.072
113.52
117.111
120.828
124.657
128.583
132.583
136.635
140.717
144.804
148.877
152.914
156.892
160.792
164.591
168.27
171.812
175.196
178.401
181.407
184.193
186.738
189.025
191.034
192.75
194.158
195.244
195.997
196.408
196.471
196.18
195.531
194.523
193.155
191.43
189.352
186.926
184.158
181.059
177.638
173.908
169.882
165.574
161.002
156.182
151.133
145.873
140.424
134.807
129.042
123.151
117.157
111.082
104.949
98.779
92.597
86.422
80.277
74.182
68.156
62.22
56.39
50.684
45.118
39.705
34.461
29.397
24.525
19.856
15.397
11.158
7.143
3.36
-0.189
-3.499
-6.571
-9.402
-11.994
-14.349
-16.47
-18.36
-20.024
-21.468
-22.699
-23.723
-24.55
-25.187
-25.645
-25.932
-26.059
-26.037
-25.875
-25.585
-25.177
-24.662
-24.051
-23.354
-22.581
-21.744
-20.85
-19.911
-18.936
-17.933
-16.91
-15.877
-14.84
-13.807
-12.785
-11.778
-10.794
-9.836
-8.91
-8.018
-7.166
-6.354
-5.588
-4.867
-4.194
-3.569
-2.995
-2.47
-1.996
-1.572
-1.196
-0.87
-0.591
-0.359
-0.173
-0.031
0.069
0.127
0.145
0.125
0.069
-0.022
-0.146
-0.301
-0.484
-0.695
-0.932
-1.192
-1.474
-1.776
-2.097
-2.435
-2.787
-3.152
-3.528
-3.912
-4.302
-4.696
-5.091
-5.484
-5.872
-6.254
-6.627
-6.987
-7.333
-7.66
-7.966
-8.247
-8.501
-8.725
-8.913
-9.064
-9.175
-9.242
-9.262
-9.232
-9.15
-9.013
-8.819
-8.565
-8.249
-7.87
-7.426
-6.917
-6.343
-5.705
-5.003
-4.24
-3.419
-2.544
-1.621
-0.652
0.357
1.4
2.473
3.567
4.677
5.799
6.928
8.056
9.177
10.283
11.367
12.424
13.446
14.426
15.355
16.224
17.031
17.773
18.451
19.06
19.596
20.05
20.419
20.706
20.914
21.046
21.106
21.103
21.054
20.988
20.939
20.93
20.974
21.079
21.253
21.508
21.863
22.333
22.918
23.617
24.424
25.332
26.33
27.386
28.443
29.413
30.199
30.719
30.909
30.724
30.137
29.11
27.588
25.522
22.872
19.6
15.717
11.225
6.097
0.442
-5.512
-11.402
-16.696
-20.908
-23.708
-24.83
-24.081
-21.554
-17.523
-12.526
-7.481
-3.263
-0.584
0.147
-1.074
-3.7
-6.807
-9.244
-9.442
-5.55
4.359
21.697
47.16
80.297
119.661
163.69
210.145
255.507
295.459
325.529
341.4
340.3
320.723
280.88
220.065
139.763
43.015
-65.383
-179.425
-294.183
-405.005
-505.928
-591.632
-658.218
-702.943
-725.588
-727.526
-709.527
-673.177
-621.92
-559.613
-490.621
-419.373
-348.597
-280.533
-218.193
-163.952
-119.199
-84.454
-58.778
-40.667
-29.23
-23.21
-20.656
-19.595
-18
-14.599
-9.283
-2.277
6.21
15.689
25.476
34.664
42.096
47.192
49.991
50.724
49.848
47.848
45.154
42.362
40.159
38.934
38.843
39.903
41.958
44.894
48.636
53.035
57.929
63.178
68.661
74.297
80.022
85.738
91.337
96.702
101.719
106.322
110.479
114.173
117.426
120.264
122.722
124.852
126.712
128.356
129.84
131.211
132.509
133.784
135.086
136.469
137.986
139.674
141.554
143.64
145.934
148.433
151.131
154.014
157.061
160.255
163.578
167.015
170.554
174.177
177.865
181.597
185.35
189.101
192.832
196.522
200.149
203.694
207.137
210.459
213.642
216.669
219.52
222.174
224.613
226.817
228.77
230.455
231.857
232.961
233.755
234.231
234.38
234.196
233.675
232.813
231.609
230.065
228.182
225.965
223.42
220.555
217.377
213.898
210.129
206.084
201.778
197.226
192.445
187.452
182.267
176.908
171.396
165.751
159.993
154.145
148.226
142.259
136.265
130.263
124.276
118.322
112.42
106.589
100.845
95.206
89.687
84.301
79.063
73.985
69.077
64.35
59.813
55.472
51.335
47.406
43.69
40.189
36.905
33.839
30.991
28.358
25.939
23.729
21.725
19.921
18.312
16.89
15.647
14.577
13.67
12.918
12.311
11.841
11.497
11.27
11.15
11.128
11.194
11.339
11.553
11.829
12.156
12.528
12.936
13.373
13.832
14.307
14.791
15.279
15.766
16.247
16.718
17.175
17.615
18.035
18.433
18.807
19.155
19.476
19.769
20.034
20.27
20.476
20.653
20.802
20.921
21.012
21.076
21.111
21.12
21.103
21.06
20.991
20.897
20.777
20.633
20.463
20.268
20.047
19.801
19.529
19.23
18.905
18.552
18.172
17.763
17.325
16.859
16.364
15.841
15.288
14.707
14.1
13.466
12.807
12.124
11.42
10.695
9.951
9.192
8.419
7.635
6.844
6.047
5.251
4.457
3.671
2.896
2.137
1.398
0.684
-0
-0.65
-1.261
-1.828
-2.349
-2.816
-3.228
-3.582
-3.873
-4.101
-4.265
-4.362
-4.395
-4.365
-4.274
-4.125
-3.92
-3.663
-3.358
-3.01
-2.624
-2.204
-1.754
-1.28
-0.788
-0.286
0.218
0.719
1.208
1.677
2.118
2.519
2.875
3.183
3.439
3.639
3.776
3.838
3.822
3.729
3.56
3.316
3.003
2.624
2.198
1.75
1.309
0.897
0.53
0.209
-0.055
-0.249
-0.361
-0.373
-0.283
-0.102
0.169
0.526
0.954
1.427
1.892
2.255
2.433
2.356
1.956
1.198
0.051
-1.535
-3.608
-6.211
-9.384
-13.145
-17.5
-22.49
-28.154
-34.393
-40.993
-47.589
-53.688
-58.901
-62.93
-65.386
-65.941
-64.615
-61.652
-57.648
-53.565
-50.018
-47.452
-46.559
-47.669
-50.526
-54.507
-58.268
-60.025
-58.569
-52.63
-40.414
-20.832
6.554
41.489
82.338
127.027
173.624
219.113
259.304
290.118
307.401
307.67
288.957
249.409
187.856
105.314
4.7
-109.646
-231.924
-356.268
-477.1
-587.803
-682.221
-755.953
-806.046
-831.639
-833.661
-813.359
-772.919
-716.625
-649.347
-575.832
-500.716
-427.371
-358.492
-297.276
-246.175
-205.763
-175.589
-154.433
-140.536
-132.575
-129.077
-127.571
-125.634
-121.931
-115.955
-107.894
-98.355
-87.751
-76.585
-66.004
-57.308
-51.215
-47.896
-47.058
-48.125
-50.617
-54.118
-57.998
-61.538
-64.259
-65.914
-66.504
-66.2
-65.14
-63.425
-61.178
-58.57
-55.762
-52.91
-50.15
-47.563
-45.227
-43.22
-41.61
-40.431
-39.678
-39.29
-39.122
-39.037
-38.899
-38.561
-37.908
-36.812
-35.127
-32.721
-29.476
-25.285
-20.089
-13.854
-6.559
1.755
10.999
21.027
31.618
42.574
53.706
64.819
75.735
