140.864
149.078
157.065
164.723
171.928
178.515
184.363
189.399
193.569
196.846
199.239
200.771
201.515
201.596
201.108
200.128
198.715
196.891
194.706
192.235
189.563
186.799
184.027
181.297
178.655
176.132
173.731
171.438
169.2
166.915
164.512
161.946
159.191
156.253
153.127
149.791
146.226
142.408
138.323
133.975
129.368
124.501
119.394
114.083
108.631
103.14
97.696
92.36
87.181
82.184
77.394
72.853
68.593
64.638
60.997
57.668
54.645
51.929
49.496
47.296
45.25
43.237
41.142
38.862
36.279
33.3
29.853
25.852
21.246
15.977
9.962
3.174
-4.369
-12.627
-21.448
-30.715
-40.426
-50.312
-59.9
-68.73
-76.18
-81.912
-86.074
-88.446
-88.409
-85.903
-81.215
-74.965
-68.502
-62.316
-55.758
-48.835
-42.037
-35.294
-28.269
-19.534
-6.262
13.009
38.112
69.011
105.508
147.059
192.619
238.82
280.145
311.712
329.647
330.822
312.737
272.687
209.036
123.26
19.579
-96.443
-218.704
-341.837
-460.114
-566.44
-654.465
-719.823
-760.416
-776.539
-769.491
-740.377
-692.002
-629.274
-557.494
-482.204
-407.943
-337.705
-274.577
-221.59
-180.006
-149.601
-129.194
-116.37
-109.029
-105.426
-102.936
-99.244
-93.162
-84.078
-72.211
-58.563
-43.896
-29.144
-15.889
-5.222
2.402
6.816
8.431
7.861
5.564
2.237
-1.186
-4.027
-5.868
-6.495
-5.975
-4.381
-1.721
1.911
6.373
11.529
17.239
23.397
29.94
36.793
43.84
50.933
57.907
64.607
70.932
76.835
82.293
87.297
91.857
95.997
99.759
103.21
106.412
109.424
112.303
115.093
117.842
120.61
123.456
126.434
129.573
132.873
136.317
139.889
143.571
147.341
151.175
155.03
158.866
162.657
166.371
169.993
173.519
176.946
180.282
183.559
186.812
190.092
193.466
196.968
200.615
204.418
208.371
212.473
216.709
221.043
225.434
229.84
234.193
238.407
242.361
245.88
248.784
250.892
252.003
251.961
250.637
247.911
243.701
237.948
230.623
221.723
211.249
199.195
185.566
170.422
153.89
136.17
117.475
98.027
78.068
57.829
37.548
17.446
-2.301
-21.555
-40.212
-58.167
-75.311
-91.508
-106.617
-120.556
-133.308
-144.912
-155.417
-164.888
-173.41
-181.097
-188.097
-194.536
-200.492
-206.009
-211.102
-215.804
-220.168
-224.266
-228.178
-231.954
-235.608
-239.141
-242.553
-245.826
-248.929
-251.801
-254.341
-256.482
-258.191
-259.462
-260.313
-260.749
-260.765
-260.359
-259.533
-258.298
-256.674
-254.679
-252.326
-249.646
-246.68
-243.487
-240.146
-236.72
-233.255
-229.787
-226.346
-222.959
-219.658
-216.463
-213.387
-210.446
-207.654
-205.03
-202.594
-200.359
-198.33
-196.509
-194.891
-193.473
-192.253
-191.229
-190.396
-189.749
-189.285
-188.998
-188.888
-188.95
-189.174
-189.55
-190.065
-190.706
-191.459
-192.308
-193.236
-194.225
-195.26
-196.323
-197.398
-198.469
-199.518
-200.53
-201.49
-202.382
-203.193
-203.909
-204.517
-205.009
-205.372
-205.599
-205.683
-205.617
-205.396
-205.018
-204.478
-203.777
-202.913
-201.888
-200.702
-199.361
-197.867
-196.227
-194.447
-192.535
-190.5
-188.353
-186.103
-183.762
-181.341
-178.852
-176.309
-173.723
-171.106
-168.471
-165.828
-163.189
-160.563
-157.958
-155.381
-152.84
-150.34
-147.886
-145.482
-143.134
-140.844
-138.616
-136.456
-134.363
-132.336
-130.375
-128.473
-126.628
-124.832
-123.079
-121.357
-119.654
-117.96
-116.266
-114.562
-112.836
-111.069
-109.24
-107.333
-105.341
-103.259
-101.087
-98.828
-96.488
-94.087
-91.661
-89.244
-86.867
-84.55
-82.309
-80.165
-78.15
-76.299
-74.643
-73.189
-71.921
-70.821
-69.865
-69.013
-68.213
-67.374
-66.377
-65.124
-63.541
-61.574
-59.181
-56.302
-52.861
-48.8
-44.1
-38.79
-32.943
-26.644
-19.996
-13.144
-6.274
0.361
6.477
11.843
16.27
19.586
21.625
22.189
21.057
18.055
13.082
6.098
-2.872
-13.785
-26.564
-41.056
-57.032
-74.184
-92.175
-110.736
-129.658
-148.722
-167.686
-186.24
-204.001
-220.674
-236.057
-249.998
-262.431
-273.246
-282.26
-289.435
-294.865
-298.606
-300.703
-300.921
-298.663
-293.645
-285.952
-275.759
-263.445
-249.361
-233.631
-217.038
-201.111
-186.88
-174.928
-165.264
-156.993
-149.423
-142.446
-135.053
-125.155
-110.85
-90.23
-62.521
-28.828
9.805
52.904
99.131
145.669
188.621
222.856
244.122
250.425
240.091
211.059
161.553
91.416
3.179
-97.99
-206.406
-317.661
-427.509
-530.753
-621.02
-692.599
-742.53
-770.502
-777.559
-764.483
-732.131
-683.077
-622.219
-555.154
-486.28
-418.667
-354.605
-296.811
-248.13
-209.841
-181.302
-160.802
-146.571
-137.249
-131.494
-127.191
-122.136
-115.089
-105.717
-94.456
-82.02
-68.904
-55.821
-44.046
-34.644
-28.124
-24.585
-23.62
-24.689
-27.383
-31.095
-34.987
-38.401
-40.916
-42.327
-42.69
-42.085
-40.535
-38.134
-35.023
-31.336
-27.201
-22.716
-17.928
-12.902
-7.738
-2.566
2.468
7.225
11.618
15.605
19.167
22.306
25.037
27.393
29.425
31.202
32.788
34.241
35.613
36.95
38.311
39.761
41.37
43.206
45.319
47.738
50.485
53.572
57.006
60.783
64.892
69.308
74.013
78.987
84.214
89.677
95.351
101.21
107.223
113.359
119.585
125.872
132.186
138.494
144.763
150.961
157.056
163.019
168.816
174.417
179.787
184.894
189.707
194.197
198.335
202.093
205.449
208.38
210.869
212.899
214.457
215.534
216.121
216.216
215.817
214.924
213.544
211.683
209.352
206.563
203.332
199.678
195.619
191.178
186.38
181.251
175.818
170.109
164.155
157.986
151.633
145.128
138.503
131.79
125.02
118.224
111.433
104.676
97.981
91.376
84.886
78.535
72.344
66.335
60.525
54.93
49.565
44.442
39.571
34.96
30.616
26.543
22.742
19.214
15.957
12.97
10.246
7.78
5.563
3.589
1.846
0.324
-0.989
-2.105
-3.037
-3.797
-4.4
-4.859
-5.187
-5.398
-5.505
-5.522
-5.46
-5.331
-5.147
-4.918
-4.653
-4.361
-4.051
-3.727
-3.397
-3.065
-2.734
-2.409
-2.09
-1.779
-1.477
-1.183
-0.896
-0.615
-0.338
-0.062
0.218
0.503
0.799
1.109
1.436
1.785
2.161
2.566
3.004
3.479
3.994
4.552
5.157
5.81
6.513
7.266
8.071
8.927
9.833
10.786
11.784
12.823
13.9
15.011
16.153
17.32
18.508
19.711
20.925
22.144
23.361
24.571
25.765
26.939
28.085
29.198
30.272
31.303
32.286
33.216
34.091
34.906
35.66
36.349
36.97
37.521
38.004
38.418
38.763
39.044
39.264
39.429
39.545
39.621
39.662
39.675
39.667
39.644
39.613
39.58
39.547
39.52
39.51
39.523
39.573
39.67
39.823
40.043
40.343
40.73
41.213
41.794
42.469
43.238
44.104
45.071
46.148
47.338
48.631
50.022
51.504
53.061
54.669
56.289
57.865
59.357
60.74
61.995
63.12
64.111
64.959
65.661
66.222
66.64
66.925
67.072
67.06
66.894
66.604
66.244
65.911
65.669
65.549
65.576
65.764
66.108
66.597
67.186
67.792
68.349
68.803
69.119
69.302
69.317
69.089
68.519
67.46
65.783
63.399
60.211
56.098
50.982
44.8
37.549
29.314
20.154
10.103
-0.827
-12.664
-25.394
-38.955
-53.263
-68.19
-83.583
-99.308
-115.17
-130.882
-146.174
-160.774
-174.467
-187.159
-198.72
-208.941
-217.564
-224.274
-228.78
-230.876
-230.308
-226.739
-219.998
-210.106
-197.389
-182.586
-166.448
-149.541
-132.454
-115.858
-100.11
-85.067
-69.991
-53.331
-33.574
-9.975
17.879
50.352
87.009
126.158
164.794
198.283
221.723
231.607
224.986
198.966
151.812
83.574
-3.416
-104.095
-212.311
-322.877
-430.544
-529.375
-613.714
-678.721
-721.796
-742.977
-743.533
-724.723
-688.401
-637.797
-577.314
-512.13
-446.366
-382.944
-324.411
-272.907
-230.287
-197.364
-173.398
-156.488
-144.87
-136.798
-130.298
-123.908
-116.2
-106.193
-93.952
-80.133
-65.454
-50.934
-37.835
-26.924
-18.813
-13.839
-11.75
-12.14
-14.563
-18.32
-22.569
-26.699
-30.208
-32.785
-34.394
-35.002
-34.597
-33.255
-31.084
-28.184
-24.666
-20.609
-16.062
-11.098
-5.801
-0.279
5.325
10.873
16.234
21.314
26.066
30.463
34.497
38.18
41.536
44.612
47.467
50.158
52.732
55.238
57.714
60.213
62.799
65.53
68.467
71.652
75.109
78.852
82.892
87.227
91.851
96.745
101.884
107.243
112.803
118.544
124.447
130.487
136.636
142.866
149.146
155.447
161.739
167.993
174.179
180.267
186.231
192.041
197.674
203.103
208.299
213.236
217.885
222.222
226.221
229.86
233.115
235.968
238.402
240.4
241.952
243.048
243.678
243.839
243.527
242.742
241.485
239.761
237.576
234.94
231.863
228.359
224.443
220.132
215.445
210.403
205.029
199.346
193.38
187.158
180.705
174.051
167.224
160.253
153.167
145.997
138.771
131.519
124.27
117.052
109.893
102.819
95.857
89.031
82.364
75.878
69.595
63.533
57.71
52.143
46.845
41.83
37.109
32.691
28.583
24.793
21.323
18.177
15.354
12.855
10.676
8.815
7.265
6.019
5.071
4.41
4.027
3.911
4.048
4.426
5.032
5.851
6.867
8.067
9.434
10.953
12.607
14.38
16.258
18.223
20.262
22.359
24.5
26.671
28.859
31.053
33.239
35.409
37.55
39.656
41.716
43.724
45.674
47.559
49.375
51.118
52.784
54.371
55.877
57.302
58.644
59.903
61.081
62.179
63.198
64.142
65.012
65.812
66.544
67.214
67.824
68.379
68.882
69.337
69.748
70.119
70.453
70.753
71.023
71.265
71.481
71.674
71.845
71.997
72.13
72.246
72.345
72.427
72.494
72.546
72.581
72.601
72.604
72.591
72.56
72.511
72.443
72.355
72.247
72.117
71.965
71.789
71.59
71.365
71.116
70.841
70.541
70.217
69.869
69.498
69.105
68.695
68.268
67.828
67.377
66.92
66.459
65.998
65.542
65.094
64.659
64.242
63.847
63.479
63.143
62.844
62.587
62.376
62.218
62.116
62.076
62.101
62.196
62.364
62.61
62.937
63.348
63.843
64.425
65.095
65.851
66.694
67.621
68.626
69.704
70.853
72.067
73.339
74.663
76.031
77.438
78.879
80.349
81.842
83.347
84.857
86.362
87.858
89.334
90.781
92.187
93.539
94.832
96.064
97.231
98.326
99.339
100.254
101.064
101.77
102.374
102.879
103.286
103.601
103.845
104.052
104.259
104.491
104.77
105.1
105.492
105.97
106.554
107.264
108.108
109.079
110.161
111.343
112.597
113.878
115.119
116.22
117.071
117.572
117.631
117.187
116.199
114.63
112.425
109.518
105.832
101.337
96.083
90.175
83.71
76.724
69.336
61.892
54.983
49.251
45.116
42.617
41.646
42.443
45.284
50.007
55.877
61.692
66.499
70.352
73.925
77.37
80.601
83.921
88.397
96.308
109.998
130.257
156.654
188.692
225.878
267.517
311.792
354.568
390.671
415.832
426.796
421.201
396.926
351.605
284.369
197.382
94.985
-17.494
-134.522
-251.372
-362.745
-462.012
-543.444
-603.282
-639.852
-653.556
-645.501
-616.551
-569.294
-508.389
-438.857
-365.905
-293.795
-225.418
-163.885
-112.308
-72.023
-42.88
-23.793
-12.475
-6.921
-5.421
-5.324
-4.252
-0.953
5.254
14.231
25.051
37.011
49.211
60.068
68.481
73.967
76.322
75.918
73.338
69.021
63.66
58.195
53.295
49.378
46.656
45.057
44.508
44.996
46.416
48.618
51.463
54.815
58.579
62.709
67.137
71.752
76.411
80.95
85.22
89.124
92.611
95.653
98.24
100.375
102.083
103.41
104.417
105.162
105.695
106.06
106.297
106.46
106.611
106.818
107.144
107.637
108.323
109.22
110.339
111.685
113.255
115.033
116.998
119.13
121.415
123.84
126.392
129.053
131.805
134.623
137.488
140.376
143.267
146.141
148.977
151.753
154.452
157.053
159.543
161.901
164.108
166.145
167.992
169.63
171.041
172.21
173.119
173.754
174.104
174.158
173.908
173.348
172.473
171.28
169.768
167.937
165.789
163.327
160.557
157.486
154.12
150.471
146.547
142.361
137.925
133.255
128.364
123.269
117.986
112.532
106.925
101.184
95.327
89.372
83.339
77.246
71.112
64.955
58.793
52.645
46.525
40.451
34.438
28.499
22.647
16.896
11.258
5.741
0.358
-4.883
-9.975
-14.908
-19.677
-24.275
-28.697
-32.939
-36.997
-40.869
-44.551
-48.043
-51.344
-54.453
-57.37
-60.098
-62.637
-64.989
-67.158
-69.146
-70.957
-72.594
-74.062
-75.365
-76.508
-77.494
-78.33
-79.02
-79.568
-79.98
-80.262
-80.417
-80.452
-80.373
-80.184
-79.892
-79.502
-79.02
-78.453
-77.806
-77.085
-76.297
-75.448
-74.544
-73.592
-72.598
-71.569
-70.51
-69.429
-68.33
-67.221
-66.106
-64.993
-63.886
-62.791
-61.714
-60.66
-59.634
-58.642
-57.687
-56.776
-55.911
-55.098
-54.34
-53.64
-53.003
-52.43
-51.924
-51.487
-51.121
-50.827
-50.605
-50.456
-50.379
-50.374
-50.439
-50.574
-50.776
-51.043
-51.372
-51.761
-52.206
-52.705
-53.253
-53.847
-54.483
-55.158
-55.868
-56.608
-57.374
-58.162
-58.969
-59.79
-60.621
-61.459
-62.299
-63.139
-63.976
-64.805
-65.626
-66.435
-67.23
-68.009
-68.771
-69.515
-70.239
-70.943
-71.627
-72.291
-72.934
-73.558
-74.163
-74.749
-75.316
-75.866
-76.399
-76.915
-77.414
-77.895
-78.359
-78.805
-79.234
-79.644
-80.035
-80.405
-80.755
-81.083
-81.386
-81.664
-81.913
-82.131
-82.316
-82.464
-82.574
-82.641
-82.663
-82.636
-82.559
-82.427
-82.237
-81.987
-81.673
-81.293
-80.845
-80.329
-79.742
-79.085
-78.358
-77.564
-76.708
-75.793
-74.823
-73.802
-72.736
-71.63
-70.492
-69.325
-68.135
-66.925
-65.702
-64.476
-63.256
-62.051
-60.865
-59.71
-58.594
-57.53
-56.53
-55.599
-54.739
-53.951
-53.242
-52.625
-52.113
-51.715
-51.428
-51.249
-51.175
-51.203
-51.324
-51.517
-51.741
-51.961
-52.146
-52.274
-52.341
-52.337
-52.238
-52.024
-51.671
-51.166
-50.517
-49.733
-48.827
-47.825
-46.764
-45.711
-44.77
-44.05
-43.661
-43.695
-44.205
-45.224
-46.781
-48.922
-51.719
-55.255
-59.554
-64.56
-70.159
-76.247
-82.812
-89.743
-96.669
-102.963
-107.924
-111.107
-112.511
-112.261
-110.12
-105.81
-99.493
-92.019
-84.747
-78.721
-73.92
-69.598
-65.478
-61.686
-57.885
-52.658
-43.508
-27.866
-4.659
25.355
61.377
103.051
149.303
197.486
243.036
280.071
303.575
310.876
299.786
267.746
213.113
136.101
39.694
-70.299
-187.413
-306.625
-422.888
-530.071
-622.045
-693.61
-742.013
-767.401
-771.187
-754.277
-718.119
-666.077
-602.909
-534.002
-463.787
-395.152
-330.504
-272.887
-225.116
-188.284
-161.867
-144.124
-133.176
-127.641
-125.917
-125.551
-124.118
-120.222
-113.434
-104.194
-93.254
-81.155
-68.734
-57.376
-48.253
-41.937
-38.528
-37.636
-38.715
-41.326
-44.836
-48.378
-51.278
-53.136
-53.776
-53.265
-51.7
-49.118
-45.621
-41.384
-36.555
-31.271
-25.638
-19.696
-13.5
-7.163
-0.82
5.376
11.283
16.82
21.946
26.627
30.854
34.633
37.988
40.972
43.645
46.063
48.273
50.318
52.236
54.08
55.908
57.783
59.766
61.898
64.204
66.705
69.414
72.334
75.465
78.794
82.301
85.971
89.792
93.754
97.845
102.05
106.351
110.73
115.165
119.639
124.132
128.623
133.094
137.525
141.897
146.191
150.39
154.474
158.424
162.219
165.836
169.255
172.456
175.419
178.124
180.555
182.694
184.528
186.043
187.229
188.075
188.574
188.718
188.502
187.924
186.981
185.674
184.004
181.975
179.592
176.861
173.791
170.391
166.672
162.648
158.332
153.74
148.889
143.795
138.478
132.958
127.254
121.388
115.381
109.257
103.036
96.742
90.397
84.023
77.644
71.279
64.951
58.68
52.486
46.388
40.405
34.555
28.854
23.318
17.962
12.8
7.845
3.107
-1.404
-5.678
-9.709
-13.489
-17.015
-20.283
-23.291
-26.039
-28.526
-30.756
-32.73
-34.455
-35.935
-37.176
-38.188
-38.978
-39.556
-39.932
-40.118
-40.125
-39.964
-39.649
-39.192
-38.607
-37.907
-37.105
-36.215
-35.25
-34.223
-33.148
-32.037
-30.903
-29.756
-28.61
-27.473
-26.357
-25.271
-24.223
-23.222
-22.274
-21.385
-20.562
-19.81
-19.131
-18.529
-18.006
-17.565
-17.205
-16.927
-16.731
-16.615
-16.577
-16.615
-16.727
-16.909
-17.157
-17.468
-17.838
-18.261
-18.732
-19.248
-19.803
-20.391
-21.009
-21.65
-22.31
-22.985
-23.67
-24.36
-25.051
-25.74
-26.423
-27.097
-27.759
-28.406
-29.037
-29.648
-30.239
-30.809
-31.356
-31.879
-32.379
-32.854
-33.306
-33.735
-34.14
-34.524
-34.887
-35.23
-35.554
-35.861
-36.153
-36.432
-36.699
-36.956
-37.205
-37.448
-37.687
-37.923
-38.16
-38.397
-38.636
-38.88
-39.128
-39.384
-39.647
-39.918
-40.198
-40.489
-40.791
-41.103
-41.427
-41.763
-42.11
-42.468
-42.837
-43.218
-43.608
-44.007
-44.413
-44.827
-45.247
-45.67
-46.094
-46.518
-46.939
-47.354
-47.76
-48.153
-48.53
-48.887
-49.22
-49.526
-49.8
-50.04
-50.241
-50.399
-50.51
-50.57
-50.575
-50.522
-50.404
-50.22
-49.964
-49.633
-49.224
-48.733
-48.157
-47.492
-46.736
-45.888
-44.945
-43.907
-42.771
-41.538
-40.21
-38.788
-37.275
-35.675
-33.993
-32.236
-30.412
-28.528
-26.592
-24.612
-22.596
-20.552
-18.491
-16.421
-14.348
-12.282
-10.234
-8.215
-6.238
-4.315
-2.455
-0.67
1.031
2.634
4.128
5.507
6.763
7.892
8.883
9.721
10.396
10.907
11.258
11.455
11.509
11.432
11.243
10.973
10.653
10.312
9.975
9.655
9.372
9.144
8.993
8.948
9.028
9.228
9.546
9.979
10.501
11.076
11.648
12.127
12.438
12.519
12.295
11.691
10.634
9.06
6.942
4.269
1.02
-2.839
-7.361
-12.565
-18.361
-24.581
-31.069
-37.739
-44.458
-50.908
-56.516
-60.624
-62.821
-63.093
-61.554
-57.997
-52.175
-44.272
-35.124
-26.055
-18.112
-11.343
-5.12
0.729
6.044
11.196
17.58
27.635
43.862
67.269
97.135
132.73
173.702
218.923
265.717
309.543
344.636
366.185
371.63
358.848
325.383
269.757
192.397
96.449
-12.265
-127.374
-243.915
-356.87
-460.165
-547.847
-615.035
-659.265
-680.843
-681.284
-661.582
-623.283
-569.848
-505.975
-436.833
-366.633
-298.097
-233.517
-175.851
-127.847
-90.531
-63.397
-44.822
-33.064
-26.857
-24.671
-24.124
-22.798
-19.294
-13.176
-4.834
5.01
15.826
26.819
36.658
44.213
48.945
50.784
50.128
47.579
43.635
38.943
34.369
30.533
27.779
26.259
25.891
26.562
28.227
30.77
34.009
37.805
42.027
46.572
51.402
56.428
61.509
66.5
71.234
75.602
79.557
83.073
86.14
88.762
90.962
92.784
94.294
95.553
96.611
97.52
98.32
99.068
99.831
100.678
101.683
102.899
104.359
106.084
108.09
110.382
112.962
115.817
118.926
122.271
125.84
129.617
133.593
137.749
142.063
146.511
151.068
155.71
160.414
165.154
169.906
174.647
179.353
184.001
188.571
193.039
197.38
201.57
205.583
209.394
212.978
216.313
219.376
222.147
224.605
226.736
228.525
229.959
231.027
231.721
232.035
231.964
231.505
230.659
229.426
227.811
225.819
223.457
220.735
217.662
214.252
210.519
206.476
202.141
197.532
192.665
187.562
182.241
176.725
171.034
165.19
159.216
153.134
146.966
140.735
134.463
128.17
121.878
115.605
109.372
103.195
97.091
91.077
85.167
79.374
73.711
68.188
62.816
57.603
52.557
47.685
42.99
38.479
34.153
30.014
26.065
22.304
18.732
15.347
12.145
9.124
6.28
3.607
1.1
-1.248
-3.442
-5.49
-7.399
-9.178
-10.833
-12.374
-13.807
-15.142
-16.384
-17.543
-18.624
-19.636
-20.584
-21.475
-22.314
-23.106
-23.857
-24.571
-25.252
-25.904
-26.529
-27.13
-27.711
-28.272
-28.816
-29.344
-29.857
-30.356
-30.841
-31.311
-31.768
-32.209
-32.634
-33.043
-33.433
-33.804
-34.153
-34.481
-34.784
-35.061
-35.312
-35.535
-35.729
-35.892
-36.025
-36.126
-36.196
-36.235
-36.242
-36.22
-36.168
-36.087
-35.98
-35.847
-35.69
-35.511
-35.312
-35.095
-34.863
-34.617
-34.361
-34.096
-33.826
-33.554
-33.281
-33.012
-32.748
-32.493
-32.249
-32.019
-31.807
-31.613
-31.442
-31.295
-31.174
-31.082
-31.021
-30.991
-30.995
-31.033
-31.106
-31.216
-31.362
-31.545
-31.765
-32.022
-32.316
-32.646
-33.012
-33.414
-33.851
-34.323
-34.827
-35.364
-35.932
-36.53
-37.158
-37.813
-38.495
-39.203
-39.935
-40.691
-41.467
-42.264
-43.079
-43.91
-44.756
-45.614
-46.482
-47.359
-48.242
-49.13
-50.019
-50.908
-51.794
-52.673
-53.544
-54.403
-55.245
-56.068
-56.867
-57.638
-58.378
-59.081
-59.745
-60.365
-60.936
-61.454
-61.913
-62.31
-62.639
-62.895
-63.073
-63.169
-63.177
-63.094
-62.916
-62.64
-62.261
-61.779
-61.189
-60.49
-59.681
-58.759
-57.726
-56.581
-55.326
-53.961
-52.492
-50.922
-49.26
-47.51
-45.68
-43.776
-41.807
-39.782
-37.708
-35.593
-33.44
-31.259
-29.059
-26.849
-24.64
-22.44
-20.259
-18.107
-15.998
-13.942
-11.95
-10.029
-8.181
-6.413
-4.732
-3.148
-1.677
-0.329
0.898
2.004
2.989
3.86
4.624
5.307
5.948
6.58
7.237
7.945
8.71
9.553
10.494
11.548
12.739
14.082
15.558
17.152
18.844
20.589
22.348
24.048
25.565
26.777
27.553
27.782
27.406
26.363
24.603
22.077
18.683
14.376
9.212
3.265
-3.311
-10.407
-18.077
-26.101
-33.957
-41.127
-46.962
-51.104
-53.738
-54.66
-53.235
-49.44
-43.621
-36.492
-29.558
-23.381
-17.262
-11.181
-5.574
-0.213
5.34
12.665
24.823
43.257
67.593
97.611
132.925
172.719
215.656
258.046
294.064
318.978
329.397
322.652
296.676
249.216
179.219
88.823
-17.205
-133.235
-253.522
-373.058
-486.421
-586.765
-668.148
-726.778
-761.03
-771.384
-758.991
-724.77
-671.479
-604.101
-527.975
-448.518
-370.165
-295.929
-229.099
-172.983
-128.971
-96.828
-75.287
-61.923
-54.655
-51.69
-50.306
-48.004
-43.455
-36.012
-25.888
-14.075
-1.329
11.439
22.689
31.321
36.876
39.23
38.785
36.18
31.934
26.739
21.527
16.969
13.449
11.158
10.029
9.964
10.928
12.815
15.451
18.682
22.37
26.391
30.695
35.208
39.8
44.333
48.657
52.626
56.163
59.234
61.815
63.906
65.531
66.718
67.527
68.032
68.297
68.384
68.352
68.25
68.145
68.107
68.209
68.519
69.088
69.944
71.11
72.599
74.416
76.559
79.017
81.768
84.794
88.082
91.616
95.381
99.359
103.526
107.857
112.325
116.905
121.572
126.301
131.063
135.834
140.589
145.301
149.949
154.506
158.946
163.241
167.363
171.287
174.987
178.438
181.616
184.5
187.07
189.309
191.202
192.736
193.9
194.684
195.082
195.089
194.702
193.92
192.746
191.183
189.236
186.914
184.224
181.179
177.792
174.076
170.049
165.727
161.129
156.274
151.184
145.881
140.386
134.723
128.915
122.987
116.962
110.865
104.719
98.548
92.375
86.222
80.11
74.06
68.092
62.225
56.475
50.86
45.394
40.093
34.969
30.034
25.299
20.772
16.463
12.377
8.521
4.897
1.511
-1.638
-4.547
-7.219
-9.654
-11.856
-13.829
-15.578
-17.109
-18.43
-19.547
-20.469
-21.207
-21.769
-22.166
-22.409
-22.509
-22.476
-22.322
-22.059
-21.698
-21.249
-20.726
-20.137
-19.495
-18.81
-18.091
-17.349
-16.594
-15.833
-15.076
-14.331
-13.605
-12.905
-12.238
-11.61
-11.025
-10.489
-10.005
-9.576
-9.206
-8.897
-8.65
-8.465
-8.344
-8.286
-8.29
-8.356
-8.482
-8.666
-8.907
-9.201
-9.546
-9.94
-10.38
-10.862
-11.383
-11.941
-12.531
-13.151
-13.798
-14.467
-15.157
-15.864
-16.584
-17.315
-18.054
-18.798
-19.544
-20.29
-21.034
-21.774
-22.507
-23.232
-23.948
-24.652
-25.345
-26.025
-26.691
-27.343
-27.98
-28.603
-29.212
-29.805
-30.384
-30.949
-31.499
-32.036
-32.559
-33.07
-33.567
-34.053
-34.527
-34.991
-35.444
-35.889
-36.325
-36.753
-37.174
-37.59
-38.001
-38.408
-38.813
-39.216
-39.619
-40.023
-40.43
-40.84
-41.255
-41.675
-42.102
-42.538
-42.981
-43.434
-43.897
-44.371
-44.856
-45.352
-45.861
-46.381
-46.913
-47.457
-48.012
-48.577
-49.151
-49.732
-50.32
-50.911
-51.506
-52.1
-52.693
-53.28
-53.859
-54.428
-54.981
-55.516
-56.028
-56.513
-56.965
-57.38
-57.754
-58.081
-58.355
-58.574
-58.731
-58.822
-58.844
-58.792
-58.661
-58.448
-58.151
-57.768
-57.297
-56.736
-56.084
-55.345
-54.521
-53.614
-52.628
-51.565
-50.429
-49.228
-47.965
-46.645
-45.271
-43.848
-42.381
-40.878
-39.35
-37.802
-36.242
-34.678
-33.122
-31.585
-30.081
-28.616
-27.193
-25.816
-24.493
-23.237
-22.063
-20.979
-19.987
-19.084
-18.27
-17.545
-16.904
-16.329
-15.787
-15.243
-14.671
-14.053
-13.386
-12.658
-11.849
-10.937
-9.905
-8.744
-7.464
-6.08
-4.605
-3.067
-1.508
0.004
1.368
2.477
3.226
3.524
3.308
2.538
1.176
-0.836
-3.565
-7.091
-11.444
-16.571
-22.362
-28.718
-35.61
-42.919
-50.289
-57.11
-62.714
-66.669
-68.943
-69.649
-68.537
-65.32
-60.176
-53.888
-47.727
-42.697
-38.726
-35.092
-31.613
-28.359
-24.972
-20.289
-11.882
2.719
24.305
52.354
86.281
125.525
169.291
215.611
260.114
297.389
323.084
333.984
327.78
302.398
255.518
186.399
97.45
-6.714
-120.601
-238.612
-355.974
-467.328
-565.959
-646.143
-704.258
-738.798
-750.293
-739.916
-708.58
-658.95
-595.808
-524.227
-449.372
-375.452
-305.318
-242.082
-188.889
-147.071
-116.436
-95.887
-83.159
-76.269
-73.511
-72.207
-69.922
-65.371
-57.862
-47.517
-35.249
-21.749
-7.915
4.648
14.815
22.087
26.249
27.667
26.921
24.443
20.924
17.305
14.247
12.161
11.245
11.414
12.583
14.729
17.737
21.447
25.714
30.398
35.405
40.687
46.176
51.762
57.304
62.643
67.638
72.199
76.282
79.866
82.945
85.531
87.655
89.369
90.739
91.83
92.695
93.385
93.947
94.44
94.932
95.495
96.198
97.089
98.202
99.56
101.179
103.069
105.229
107.652
110.318
113.215
116.33
119.653
123.175
126.879
130.748
134.759
138.891
143.123
147.433
151.798
156.195
160.602
164.995
169.352
173.652
177.871
181.984
185.966
189.791
193.433
196.869
200.075
203.027
205.704
208.087
210.16
211.906
213.312
214.367
215.062
215.388
215.342
214.919
214.118
212.941
211.391
209.472
207.191
204.556
201.578
198.269
194.643
190.714
186.5
182.018
177.288
172.329
167.163
161.812
156.296
150.64
144.866
138.996
133.055
127.064
121.046
115.023
109.014
103.041
97.122
91.276
85.518
79.865
74.332
68.931
63.675
58.575
53.641
48.881
44.303
39.912
35.714
31.713
27.91
24.309
20.908
17.708
14.707
11.903
9.292
6.871
4.634
2.577
0.693
-1.023
-2.58
-3.983
-5.24
-6.359
-7.347
-8.213
-8.963
-9.606
-10.148
-10.596
-10.959
-11.241
-11.451
-11.593
-11.675
-11.701
-11.677
-11.609
-11.502
-11.359
-11.186
-10.987
-10.765
-10.526
-10.271
-10.006
-9.732
-9.454
-9.175
-8.897
-8.624
-8.358
-8.101
-7.857
-7.628
-7.416
-7.224
-7.053
-6.907
-6.788
-6.697
-6.638
-6.612
-6.621
-6.668
-6.754
-6.881
-7.051
-7.265
-7.525
-7.831
-8.186
-8.588
-9.039
-9.54
-10.089
-10.687
-11.332
-12.025
-12.762
-13.544
-14.367
-15.229
-16.129
-17.063
-18.029
-19.023
-20.043
-21.086
-22.147
-23.224
-24.313
-25.41
-26.511
-27.612
-28.711
-29.803
-30.884
-31.952
-33.003
-34.034
-35.042
-36.025
-36.98
-37.904
-38.796
-39.653
-40.474
-41.257
-42.001
-42.707
-43.372
-43.998
-44.584
-45.13
-45.637
-46.104
-46.533
-46.922
-47.272
-47.582
-47.854
-48.088
-48.283
-48.439
-48.558
-48.639
-48.681
-48.686
-48.652
-48.579
-48.465
-48.311
-48.113
-47.873
-47.587
-47.256
-46.876
-46.448
-45.971
-45.444
-44.864
-44.231
-43.544
-42.801
-42.002
-41.148
-40.238
-39.272
-38.253
-37.184
-36.071
-34.916
-33.725
-32.501
-31.25
-29.978
-28.69
-27.388
-26.076
-24.757
-23.438
-22.126
-20.828
-19.552
-18.304
-17.094
-15.931
-14.822
-13.776
-12.798
-11.888
-11.055
-10.304
-9.645
-9.094
-8.658
-8.339
-8.137
-8.05
-8.069
-8.179
-8.358
-8.57
-8.79
-8.992
-9.154
-9.261
-9.285
-9.21
-9.02
-8.691
-8.208
-7.57
-6.783
-5.873
-4.892
-3.885
-2.921
-2.097
-1.494
-1.216
-1.361
-2.01
-3.252
-5.152
-7.754
-11.112
-15.268
-20.208
-25.879
-32.175
-38.927
-46.017
-53.323
-60.641
-67.737
-74.299
-79.973
-84.464
-87.506
-88.781
-87.902
-84.599
-78.802
-70.752
-61.039
-50.286
-38.949
-27.468
-16.45
-6.213
3.462
13.35
25.027
40.042
59.093
82.57
110.839
143.341
178.269
212.559
241.519
260.358
265.696
254.57
224.141
172.937
101.318
11.933
-89.962
-198.281
-307.836
-413.269
-508.604
-588.346
-648.094
-685.731
-701.631
-697.291
-674.188
-634.409
-581.441
-519.739
-454.209
-388.668
-325.784
-267.86
-216.935
-174.793
-142.12
-118.213
-101.346
-89.931
-82.428
-76.995
-72.166
-66.465
-58.85
-49.262
-38.212
-26.296
-14.402
-3.707
5.099
11.493
15.183
16.449
15.693
13.37
10.222
7.107
4.596
3.072
2.733
3.516
5.396
8.35
12.242
16.904
22.175
27.9
33.98
40.354
46.92
53.544
60.062
66.288
72.1
77.433
82.248
86.538
90.296
93.527
96.273
98.598
100.565
102.232
103.649
104.855
105.911
106.883
107.846
108.88
110.042
111.367
112.885
114.614
116.567
118.754
121.169
123.798
126.628
129.653
132.867
136.267
139.841
143.574
147.449
151.448
155.553
159.749
164.016
168.336
172.689
177.056
181.42
185.763
190.064
194.3
198.447
202.481
206.377
210.112
213.659
216.996
220.099
222.947
225.519
227.797
229.762
231.399
232.693
233.63
234.199
234.391
234.197
233.611
232.628
231.248
229.468
227.291
224.719
221.758
218.414
214.697
210.616
206.183
201.413
196.32
190.92
185.232
179.274
173.066
166.631
159.988
153.162
146.174
139.049
131.81
124.481
117.084
109.643
102.181
94.721
87.285
79.893
72.567
65.326
58.19
51.176
44.302
37.584
31.036
24.674
18.509
12.552
6.815
1.307
-3.966
-8.995
-13.777
-18.306
-22.581
-26.599
-30.361
-33.866
-37.117
-40.117
-42.869
-45.378
-47.651
-49.693
-51.511
-53.114
-54.51
-55.707
-56.715
-57.543
-58.201
-58.699
-59.048
-59.257
-59.336
-59.296
-59.147
-58.899
-58.561
-58.144
-57.657
-57.109
-56.51
-55.866
-55.188
-54.482
-53.756
-53.016
-52.271
-51.526
-50.786
-50.058
-49.346
-48.655
-47.989
-47.352
-46.747
-46.177
-45.645
-45.153
-44.703
-44.297
-43.937
-43.623
-43.357
-43.14
-42.972
-42.853
-42.784
-42.763
-42.792
-42.869
-42.992
-43.162
-43.377
-43.635
-43.936
-44.277
-44.656
-45.071
-45.521
-46.001
-46.509
-47.041
-47.594
-48.163
-48.746
-49.338
-49.936
-50.535
-51.132
-51.721
-52.3
-52.862
-53.404
-53.92
-54.404
-54.853
-55.261
-55.623
-55.935
-56.193
-56.393
-56.532
-56.605
-56.61
-56.543
-56.402
-56.183
-55.886
-55.51
-55.052
-54.515
-53.899
-53.208
-52.446
-51.618
-50.726
-49.777
-48.775
-47.724
-46.63
-45.495
-44.321
-43.114
-41.879
-40.623
-39.353
-38.077
-36.803
-35.538
-34.291
-33.068
-31.877
-30.722
-29.605
-28.532
-27.51
-26.55
-25.666
-24.869
-24.161
-23.54
-23.004
-22.542
-22.14
-21.774
-21.406
-21.009
-20.554
-20.018
-19.387
-18.644
-17.769
-16.747
-15.55
-14.161
-12.592
-10.86
-8.993
-7.043
-5.062
-3.13
-1.366
0.112
1.191
1.764
1.748
1.06
-0.376
-2.616
-5.717
-9.702
-14.519
-20.088
-26.301
-33.03
-40.167
-47.541
-54.869
-61.826
-68.058
-73.22
-77.033
-79.156
-79.141
-76.708
-71.781
-64.565
-55.648
-45.619
-34.857
-23.813
-13.086
-2.942
6.821
17.015
29.286
45.16
65.321
90.141
119.915
154.042
190.682
226.671
257.227
277.455
283.873
273.515
243.56
192.536
120.856
31.21
-71.105
-179.903
-289.939
-395.854
-491.657
-571.892
-632.208
-670.521
-687.257
-683.943
-662.031
-623.596
-572.095
-511.918
-447.921
-383.867
-322.329
-265.543
-215.47
-173.797
-141.154
-116.793
-98.953
-86.033
-76.5
-68.602
-61.006
-52.392
-41.873
-29.509
-15.88
-1.625
12.339
24.862
35.262
43.003
47.813
49.967
49.83
47.807
44.562
40.893
37.396
34.54
32.599
31.581
31.505
32.378
34.117
36.609
39.727
43.342
47.359
51.72
56.359
61.197
66.124
70.994
75.673
80.035
84.001
87.536
90.615
93.231
95.402
97.162
98.567
99.688
100.585
101.313
101.92
102.453
102.972
103.543
104.231
105.099
106.192
107.538
109.161
111.076
113.29
115.8
118.594
121.652
124.958
128.498
132.259
136.225
140.378
144.697
149.158
153.737
158.408
163.148
167.932
172.732
177.523
182.281
186.979
191.595
196.105
200.48
204.694
208.72
212.532
216.104
219.413
222.433
225.144
227.525
229.559
231.23
232.524
233.431
233.94
234.044
233.737
233.016
231.88
230.33
228.37
226.004
223.24
220.086
216.553
212.654
208.403
203.816
198.91
193.704
188.217
182.47
176.484
170.283
163.887
157.322
150.611
143.777
136.843
129.835
122.774
115.684
108.586
101.503
94.453
87.458
80.535
73.703
66.978
60.375
53.909
47.592
41.437
35.455
29.654
24.043
18.629
13.416
8.41
3.614
-0.97
-5.342
-9.501
-13.449
-17.188
-20.72
-24.049
-27.18
-30.118
-32.868
-35.436
-37.829
-40.054
-42.118
-44.028
-45.791
-47.415
-48.909
-50.278
-51.532
-52.676
-53.718
-54.666
-55.524
-56.301
-57.001
-57.629
-58.192
-58.694
-59.138
-59.529
-59.87
-60.165
-60.415
-60.622
-60.79
-60.92
-61.012
-61.069
-61.091
-61.079
-61.035
-60.958
-60.85
-60.711
-60.542
-60.344
-60.117
-59.862
-59.581
-59.274
-58.942
-58.588
-58.213
-57.819
-57.407
-56.98
-56.541
-56.092
-55.636
-55.177
-54.717
-54.261
-53.812
-53.374
-52.952
-52.548
-52.167
-51.812
-51.487
-51.196
-50.94
-50.724
-50.549
-50.419
-50.334
-50.297
-50.308
-50.368
-50.477
-50.634
-50.838
-51.086
-51.375
-51.703
-52.067
-52.461
-52.883
-53.326
-53.787
-54.258
-54.734
-55.208
-55.673
-56.121
-56.545
-56.936
-57.286
-57.588
-57.834
-58.017
-58.132
-58.171
-58.128
-57.998
-57.776
-57.457
-57.039
-56.517
-55.891
-55.159
-54.322
-53.382
-52.344
-51.213
-49.995
-48.694
-47.319
-45.879
-44.381
-42.832
-41.24
-39.61
-37.952
-36.277
-34.593
-32.912
-31.245
-29.604
-28.003
-26.455
-24.971
-23.561
-22.23
-20.982
-19.822
-18.757
-17.796
-16.953
-16.236
-15.644
-15.18
-14.84
-14.618
-14.499
-14.455
-14.447
-14.438
-14.398
-14.309
-14.156
-13.929
-13.616
-13.196
-12.645
-11.95
-11.117
-10.156
-9.088
-7.929
-6.715
-5.514
-4.434
-3.611
-3.146
-3.106
-3.542
-4.474
-5.957
-8.094
-10.961
-14.567
-18.864
-23.716
-29.042
-34.921
-41.23
-47.587
-53.54
-58.476
-62.064
-64.454
-65.553
-64.874
-62.237
-57.814
-52.065
-46.12
-40.586
-35.002
-29.209
-23.49
-17.938
-12.364
-5.812
3.9
18.566
38.519
63.728
94.132
129.541
169.262
210.953
250.265
282.125
302.297
307.686
295.635
263.432
209.115
132.906
37.841
-70.697
-186.633
-304.8
-420.002
-526.042
-616.678
-686.869
-734.015
-758.195
-760.807
-742.819
-705.72
-652.909
-589.089
-519.486
-448.396
-378.595
-312.398
-252.805
-202.568
-162.775
-133.022
-111.72
-97.163
-88.176
-83.278
-80.13
-76.441
-70.87
-62.99
-53.219
-42.234
-30.496
-18.781
-8.395
-0.426
4.601
6.643
6.124
3.618
-0.39
-5.262
-10.135
-14.327
-17.441
-19.289
-19.921
-19.436
-17.879
-15.349
-12.024
-8.058
-3.587
1.262
6.431
11.843
17.36
22.842
28.138
33.104
37.658
41.763
45.388
48.533
51.222
53.482
55.37
56.954
58.289
59.434
60.441
61.357
62.239
63.154
64.165
65.337
66.714
68.321
70.176
72.288
74.657
77.279
80.138
83.211
86.48
89.929
93.541
97.302
101.192
105.189
109.268
113.405
117.574
121.754
125.92
130.049
134.118
138.104
141.987
145.746
149.361
152.81
156.069
159.116
161.93
164.492
166.781
168.779
170.471
171.843
172.882
173.579
173.927
173.919
173.552
172.823
171.734
170.285
168.48
166.327
163.831
161.003
157.853
154.394
150.64
146.607
142.312
137.771
133.005
128.032
122.873
117.55
112.084
106.498
100.812
95.051
89.237
83.391
77.536
71.694
65.884
60.127
54.443
48.848
43.36
37.996
32.769
27.694
22.782
18.046
13.495
9.137
4.982
1.033
-2.702
-6.221
-9.52
-12.599
-15.457
-18.093
-20.511
-22.711
-24.698
-26.477
-28.051
-29.427
-30.612
-31.613
-32.437
-33.093
-33.59
-33.936
-34.14
-34.211
-34.159
-33.993
-33.722
-33.355
-32.901
-32.368
-31.765
-31.1
-30.38
-29.614
-28.806
-27.965
-27.095
-26.203
-25.294
-24.373
-23.444
-22.512
-21.58
-20.652
-19.731
-18.819
-17.92
-17.035
-16.165
-15.314
-14.482
-13.67
-12.879
-12.111
-11.366
-10.646
-9.951
-9.282
-8.64
-8.026
-7.44
-6.884
-6.359
-5.865
-5.404
-4.979
-4.589
-4.237
-3.924
-3.653
-3.425
-3.24
-3.102
-3.012
-2.97
-2.977
-3.036
-3.145
-3.307
-3.522
-3.791
-4.112
-4.485
-4.91
-5.386
-5.911
-6.482
-7.096
-7.751
-8.443
-9.168
-9.922
-10.7
-11.497
-12.309
-13.129
-13.952
-14.771
-15.579
-16.368
-17.133
-17.864
-18.556
-19.2
-19.79
-20.318
-20.777
-21.163
-21.469
-21.689
-21.818
-21.851
-21.785
-21.617
-21.344
-20.964
-20.477
-19.883
-19.186
-18.391
-17.5
-16.519
-15.453
-14.309
-13.097
-11.822
-10.49
-9.108
-7.681
-6.22
-4.735
-3.236
-1.733
-0.236
1.242
2.686
4.083
5.42
6.693
7.899
9.032
10.084
11.044
11.896
12.635
13.258
13.764
14.149
14.416
14.574
14.649
14.68
14.7
14.736
14.804
14.908
15.067
15.296
15.607
16.021
16.546
17.177
17.913
18.742
19.633
20.549
21.423
22.142
22.599
22.686
22.321
21.471
20.1
18.162
15.59
12.292
8.209
3.359
-2.159
-8.269
-14.939
-22.075
-29.402
-36.356
-42.298
-46.791
-49.761
-51.275
-51.169
-49.261
-45.557
-40.661
-35.604
-31.089
-27.193
-23.47
-19.644
-15.677
-11.58
-6.537
1.235
13.383
31.106
54.609
83.449
117.335
156.095
198.315
240.816
279.494
309.524
326.805
328.669
312.439
275.238
215.694
134.717
35.436
-76.605
-195.373
-315.874
-432.343
-537.963
-626.618
-693.464
-735.813
-753.781
-748.427
-720.632
-673.089
-610.35
-537.577
-460.58
-384.205
-311.737
-246.54
-191.821
-148.981
-118.005
-97.786
-85.811
-79.863
-78.034
-77.533
-75.946
-72.001
-64.992
-55.093
-43.321
-30.445
-17.422
-5.881
3.087
9.014
11.711
11.59
9.283
5.263
0.255
-4.774
-9.143
-12.424
-14.396
-15.132
-14.704
-13.127
-10.515
-7.03
-2.822
1.958
7.199
12.837
18.788
24.926
31.097
37.127
42.864
48.209
53.108
57.533
61.471
64.925
67.922
70.509
72.75
74.705
76.428
77.966
79.367
80.687
81.992
83.352
84.83
86.472
88.305
90.347
92.61
95.097
97.806
100.722
103.825
107.096
110.524
114.094
117.794
121.607
125.514
129.492
133.52
137.578
141.644
145.698
149.719
153.686
157.58
161.38
165.07
168.629
172.037
175.271
178.311
181.136
183.726
186.062
188.126
189.903
191.377
192.537
193.371
193.871
194.03
193.842
193.304
192.413
191.171
189.579
187.641
185.362
182.749
179.812
176.56
173.006
169.163
165.045
160.67
156.053
151.214
146.171
140.945
135.555
130.023
124.37
118.618
112.787
106.9
100.978
95.041
89.109
83.203
77.341
71.54
65.818
60.192
54.675
49.282
44.025
38.917
33.968
29.187
24.584
20.164
15.934
11.898
8.061
4.424
0.99
-2.243
-5.274
-8.105
-10.739
-13.179
-15.43
-17.497
-19.386
-21.101
-22.651
-24.042
-25.281
-26.377
-27.337
-28.169
-28.881
-29.481
-29.978
-30.379
-30.693
-30.926
-31.086
-31.181
-31.217
-31.201
-31.139
-31.037
-30.901
-30.736
-30.545
-30.335
-30.108
-29.869
-29.619
-29.363
-29.102
-28.838
-28.573
-28.308
-28.046
-27.787
-27.531
-27.28
-27.035
-26.796
-26.563
-26.336
-26.116
-25.902
-25.696
-25.496
-25.303
-25.116
-24.937
-24.764
-24.599
-24.44
-24.289
-24.145
-24.009
-23.88
-23.76
-23.648
-23.545
-23.452
-23.37
-23.298
-23.239
-23.193
-23.161
-23.143
-23.139
-23.151
-23.177
-23.219
-23.276
-23.348
-23.435
-23.537
-23.653
-23.782
-23.925
-24.08
-24.247
-24.422
-24.606
-24.796
-24.989
-25.185
-25.381
-25.576
-25.766
-25.95
-26.126
-26.291
-26.443
-26.577
-26.692
-26.783
-26.848
-26.883
-26.885
-26.851
-26.778
-26.665
-26.509
-26.308
-26.062
-25.768
-25.425
-25.033
-24.59
-24.098
-23.556
-22.966
-22.33
-21.65
-20.931
-20.178
-19.395
-18.587
-17.758
-16.915
-16.063
-15.206
-14.349
-13.492
-12.642
-11.803
-10.981
-10.183
-9.414
-8.678
-7.983
-7.338
-6.749
-6.222
-5.757
-5.349
-5.002
-4.717
-4.501
-4.363
-4.307
-4.328
-4.425
-4.597
-4.835
-5.127
-5.447
-5.75
-6.002
-6.175
-6.25
-6.224
-6.084
-5.81
-5.391
-4.802
-4.034
-3.1
-2.011
-0.778
0.568
1.988
3.408
4.698
5.728
6.388
6.594
6.312
5.51
4.124
2.073
-0.744
-4.377
-8.775
-13.83
-19.479
-25.733
-32.52
-39.526
-46.127
-51.623
-55.577
-57.958
-58.864
-58.04
-55.176
-50.391
-44.464
-38.675
-34.01
-30.451
-27.285
-24.259
-21.494
-18.668
-14.46
-6.478
7.757
29.31
57.528
91.684
131.472
175.883
222.346
266.444
302.447
325.389
332.532
321.586
289.83
235.559
158.988
62.863
-47.203
-164.872
-285.239
-402.935
-511.351
-604.224
-676.248
-724.215
-747.99
-748.577
-726.387
-683.456
-623.952
-552.895
-476.059
-398.44
-323.212
-253.523
-193.258
-144.68
-108.188
-83.015
-66.941
-57.781
-54.088
-53.613
-53.239
-50.901
-45.581
-37.041
-26.11
-13.607
-0.029
13.48
25.279
34.387
40.391
43.326
43.798
42.372
39.482
35.851
32.382
29.674
28.062
27.664
28.34
29.999
32.606
36.042
40.137
44.736
49.698
54.92
60.361
65.932
71.496
76.903
81.991
86.651
90.837
94.523
97.703
100.381
102.582
104.349
105.751
106.849
107.702
108.362
108.874
109.295
109.693
110.138
110.706
111.451
112.405
113.595
115.036
116.736
118.699
120.915
123.366
126.037
128.915
131.991
135.255
138.691
142.281
146.003
149.835
153.755
157.742
161.773
165.826
169.879
173.91
177.898
181.823
185.664
189.397
192.999
196.445
199.711
202.775
205.613
208.203
210.527
212.564
214.299
215.716
216.804
217.55
217.944
217.981
217.653
216.956
215.89
214.453
212.648
210.478
207.949
205.068
201.845
198.288
194.412
190.23
185.757
181.008
176.002
170.756
165.291
159.626
153.782
147.78
141.642
135.39
129.046
122.633
116.172
109.684
103.191
96.713
90.27
83.88
77.562
71.332
65.208
59.204
53.335
47.614
42.053
36.664
31.456
26.439
21.619
17.004
12.598
8.405
4.428
0.67
-2.87
-6.191
-9.296
-12.186
-14.866
-17.338
-19.61
-21.685
-23.572
-25.277
-26.808
-28.173
-29.381
-30.44
-31.36
-32.15
-32.819
-33.377
-33.832
-34.195
-34.474
-34.679
-34.818
-34.9
-34.933
-34.926
-34.884
-34.816
-34.728
-34.627
-34.517
-34.405
-34.295
-34.19
-34.096
-34.014
-33.947
-33.898
-33.868
-33.858
-33.869
-33.901
-33.954
-34.028
-34.122
-34.236
-34.368
-34.517
-34.682
-34.86
-35.051
-35.253
-35.463
-35.681
-35.904
-36.131
-36.36
-36.591
-36.821
-37.051
-37.278
-37.502
-37.724
-37.942
-38.156
-38.367
-38.576
-38.782
-38.987
-39.192
-39.399
-39.609
-39.825
-40.048
-40.28
-40.524
-40.781
-41.053
-41.343
-41.652
-41.983
-42.337
-42.716
-43.12
-43.553
-44.013
-44.502
-45.021
-45.568
-46.144
-46.745
-47.372
-48.022
-48.694
-49.384
-50.091
-50.81
-51.538
-52.272
-53.008
-53.741
-54.465
-55.175
-55.865
-56.531
-57.165
-57.762
-58.316
-58.822
-59.273
-59.665
-59.994
-60.254
-60.441
-60.551
-60.581
-60.528
-60.392
-60.169
-59.861
-59.468
-58.993
-58.442
-57.818
-57.125
-56.367
-55.552
-54.687
-53.776
-52.827
-51.841
-50.826
-49.789
-48.739
-47.687
-46.639
-45.605
-44.595
-43.621
-42.694
-41.824
-41.017
-40.273
-39.596
-38.993
-38.472
-38.048
-37.727
-37.507
-37.386
-37.362
-37.428
-37.574
-37.775
-37.993
-38.195
-38.35
-38.438
-38.454
-38.378
-38.195
-37.89
-37.437
-36.826
-36.06
-35.146
-34.098
-32.954
-31.741
-30.523
-29.403
-28.471
-27.851
-27.631
-27.855
-28.578
-29.822
-31.63
-34.105
-37.303
-41.215
-45.791
-50.887
-56.39
-62.363
-68.633
-74.761
-80.301
-84.636
-87.433
-88.876
-88.879
-86.959
-82.973
-77.136
-69.963
-62.648
-55.838
-49.074
-42.206
-35.54
-29.194
-22.976
-15.852
-5.559
9.748
30.398
56.295
87.346
123.345
163.469
205.221
244.121
275.017
293.756
297.393
283.352
248.984
192.641
114.908
19.004
-89.56
-204.847
-321.902
-435.355
-538.755
-626.048
-692.522
-735.562
-755.285
-752.783
-728.592
-684.791
-625.568
-555.828
-480.939
-405.542
-332.585
-265.018
-206.614
-159.53
-124.051
-99.442
-83.658
-74.664
-71.138
-70.931
-70.966
-69.23
-64.748
-57.243
-47.467
-36.152
-23.715
-11.253
-0.371
7.973
13.368
15.843
15.985
14.335
11.312
7.627
4.167
1.519
0.013
-0.242
0.613
2.481
5.321
9.009
13.373
18.259
23.529
29.083
34.879
40.827
46.787
52.608
58.129
63.242
67.898
72.07
75.751
78.944
81.674
83.987
85.945
87.611
89.04
90.28
91.376
92.384
93.369
94.401
95.55
96.869
98.389
100.134
102.118
104.349
106.828
109.545
112.48
115.619
118.949
122.46
126.142
129.978
133.951
138.04
142.222
146.475
150.778
155.11
159.447
163.768
168.052
172.278
176.425
180.473
184.397
188.174
191.78
195.189
198.381
201.331
204.019
206.423
208.526
210.311
211.763
212.869
213.618
214.001
214.009
213.638
212.884
211.745
210.222
208.317
206.035
203.382
200.366
196.998
193.289
189.253
184.906
180.264
175.344
170.165
164.748
159.113
153.283
147.279
141.125
134.843
128.458
121.993
115.471
108.916
102.351
95.798
89.278
82.813
76.422
70.124
63.938
57.881
51.968
46.214
40.633
35.236
30.035
25.039
20.255
15.691
11.351
7.24
3.36
-0.288
-3.703
-6.887
-9.841
-12.569
-15.075
-17.365
-19.443
-21.317
-22.995
-24.483
-25.792
-26.93
-27.906
-28.73
-29.412
-29.963
-30.393
-30.711
-30.928
-31.054
-31.098
-31.07
-30.98
-30.835
-30.645
-30.416
-30.155
-29.87
-29.567
-29.25
-28.926
-28.597
-28.269
-27.944
-27.625
-27.315
-27.015
-26.727
-26.453
-26.192
-25.945
-25.713
-25.496
-25.293
-25.103
-24.926
-24.762
-24.609
-24.467
-24.335
-24.211
-24.094
-23.985
-23.882
-23.784
-23.693
-23.607
-23.527
-23.453
-23.386
-23.327
-23.277
-23.237
-23.209
-23.195
-23.196
-23.214
-23.252
-23.313
-23.397
-23.509
-23.65
-23.821
-24.026
-24.266
-24.543
-24.857
-25.211
-25.605
-26.04
-26.516
-27.034
-27.593
-28.193
-28.832
-29.51
-30.223
-30.968
-31.743
-32.544
-33.366
-34.205
-35.057
-35.916
-36.778
-37.636
-38.484
-39.317
-40.127
-40.908
-41.652
-42.353
-43.004
-43.597
-44.127
-44.587
-44.971
-45.275
-45.493
-45.621
-45.655
-45.591
-45.426
-45.158
-44.787
-44.312
-43.734
-43.053
-42.275
-41.404
-40.446
-39.409
-38.297
-37.118
-35.882
-34.595
-33.269
-31.908
-30.521
-29.115
-27.701
-26.289
-24.891
-23.516
-22.174
-20.875
-19.63
-18.451
-17.348
-16.328
-15.391
-14.541
-13.783
-13.124
-12.578
-12.15
-11.837
-11.634
-11.537
-11.537
-11.625
-11.779
-11.958
-12.129
-12.258
-12.321
-12.312
-12.221
-12.034
-11.737
-11.305
-10.721
-9.998
-9.152
-8.195
-7.16
-6.07
-4.983
-4.003
-3.243
-2.818
-2.824
-3.306
-4.286
-5.78
-7.813
-10.46
-13.792
-17.792
-22.395
-27.475
-32.944
-38.842
-45.056
-51.18
-56.586
-60.57
-62.71
-63.077
-61.74
-58.391
-52.921
-45.619
-37.484
-30.131
-24.499
-20.387
-17.233
-14.88
-13.175
-11.618
-8.377
-0.361
14.616
37.158
66.639
102.264
143.434
188.817
234.876
276.067
306.942
323.057
321.758
300.942
257.995
191.639
103.432
-2.42
-119.992
-242.876
-365.825
-483.142
-587.656
-673.105
-735.105
-771.511
-782.757
-770.269
-735.231
-680.668
-611.806
-534.206
-453.586
-374.641
-300.458
-234.201
-179.027
-136.153
-105.161
-84.682
-72.201
-65.56
-62.984
-61.809
-59.557
-54.948
-47.4
-37.156
-25.267
-12.51
0.234
11.437
20.021
25.548
27.888
27.484
25.047
21.13
16.464
12.006
8.378
5.944
4.891
5.119
6.528
9.075
12.623
16.992
22.031
27.59
33.555
39.858
46.377
52.955
59.418
65.578
71.311
76.553
81.262
85.431
89.061
92.17
94.806
97.034
98.914
100.507
101.865
103.037
104.089
105.092
106.123
107.263
108.57
110.078
111.815
113.795
116.025
118.508
121.232
124.177
127.329
130.674
134.202
137.903
141.762
145.758
149.871
154.078
158.356
162.684
167.042
171.405
175.754
180.065
184.32
188.499
192.58
196.539
200.353
203.995
207.442
210.67
213.656
216.377
218.813
220.944
222.753
224.226
225.349
226.109
226.498
226.507
226.13
225.362
224.203
222.652
220.711
218.383
215.676
212.595
209.152
205.357
201.224
196.768
192.004
186.95
181.625
176.05
170.244
164.23
158.031
151.671
145.172
138.559
131.856
125.088
118.279
111.452
104.63
97.836
91.09
84.415
77.829
71.351
65
58.792
52.742
46.864
41.171
35.676
30.387
25.315
20.465
15.846
11.46
7.313
3.405
-0.262
-3.688
-6.875
-9.827
-12.546
-15.037
-17.307
-19.362
-21.21
-22.859
-24.318
-25.596
-26.703
-27.649
-28.445
-29.102
-29.631
-30.041
-30.345
-30.552
-30.673
-30.717
-30.695
-30.616
-30.489
-30.322
-30.123
-29.899
-29.658
-29.406
-29.149
-28.892
-28.639
-28.396
-28.165
-27.95
-27.753
-27.576
-27.422
-27.29
-27.183
-27.1
-27.041
-27.007
-26.996
-27.007
-27.041
-27.095
-27.168
-27.26
-27.369
-27.494
-27.634
-27.788
-27.956
-28.136
-28.329
-28.534
-28.752
-28.98
-29.221
-29.475
-29.741
-30.021
-30.316
-30.625
-30.951
-31.294
-31.655
-32.035
-32.436
-32.856
-33.299
-33.764
-34.251
-34.763
-35.298
-35.858
-36.443
-37.051
-37.683
-38.337
-39.011
-39.704
-40.414
-41.136
-41.87
-42.61
-43.355
-44.099
-44.839
-45.572
-46.291
-46.993
-47.673
-48.325
-48.944
-49.525
-50.063
-50.553
-50.991
-51.371
-51.691
-51.946
-52.133
-52.25
-52.293
-52.259
-52.149
-51.96
-51.692
-51.346
-50.922
-50.424
-49.855
-49.222
-48.53
-47.783
-46.99
-46.156
-45.289
-44.396
-43.482
-42.551
-41.61
-40.666
-39.728
-38.803
-37.899
-37.023
-36.184
-35.39
-34.65
-33.97
-33.353
-32.798
-32.31
-31.892
-31.552
-31.3
-31.142
-31.072
-31.09
-31.192
-31.364
-31.595
-31.855
-32.105
-32.315
-32.45
-32.489
-32.418
-32.213
-31.847
-31.305
-30.557
-29.585
-28.399
-27.004
-25.417
-23.679
-21.831
-19.945
-18.132
-16.5
-15.163
-14.21
-13.712
-13.742
-14.365
-15.658
-17.707
-20.545
-24.146
-28.451
-33.332
-38.735
-44.646
-50.777
-56.782
-62.269
-66.739
-70.04
-72.174
-72.701
-71.122
-67.465
-61.727
-54.4
-46.492
-38.02
-28.809
-19.406
-10.235
-1.292
7.399
17.126
30.106
47.032
68.312
94.506
125.499
161.049
200.299
239.93
275.091
301.713
315.757
313.931
293.793
252.513
188.655
103.903
2.197
-111.326
-230.71
-350.734
-465.847
-569.049
-654.259
-717.338
-756.174
-770.919
-762.666
-732.316
-682.534
-618.141
-544.369
-466.752
-389.899
-316.957
-251.268
-196.129
-152.963
-121.666
-101.108
-88.848
-82.748
-80.97
-80.701
-79.441
-75.863
-69.221
-59.649
-48.124
-35.375
-22.354
-10.719
-1.604
4.491
7.351
7.366
5.148
1.159
-3.865
-8.932
-13.352
-16.691
-18.733
-19.557
-19.242
-17.802
-15.357
-12.074
-8.104
-3.596
1.35
6.682
12.325
18.159
24.028
29.765
35.218
40.293
44.94
49.135
52.867
56.145
59.001
61.488
63.672
65.617
67.374
68.995
70.526
72.024
73.557
75.197
77.008
79.038
81.314
83.856
86.674
89.773
93.147
96.781
100.65
104.736
109.022
113.492
118.132
122.92
127.833
132.847
137.935
143.072
148.234
153.394
158.528
163.611
168.617
173.523
178.306
182.944
187.409
191.677
195.722
199.518
203.043
206.273
209.187
211.764
213.989
215.844
217.317
218.397
219.075
219.343
219.199
218.638
217.661
216.27
214.468
212.263
209.662
206.675
203.314
199.593
195.526
191.132
186.429
181.435
176.173
170.663
164.93
158.995
152.884
146.621
140.23
133.737
127.165
120.541
113.888
107.23
100.59
93.989
87.45
80.991
74.632
68.391
62.285
56.327
50.533
44.915
39.484
34.25
29.222
24.407
19.811
15.438
11.292
7.376
3.689
0.233
-2.995
-5.997
-8.775
-11.334
-13.68
-15.816
-17.751
-19.491
-21.044
-22.417
-23.62
-24.661
-25.549
-26.294
-26.905
-27.392
-27.764
-28.03
-28.199
-28.281
-28.285
-28.22
-28.093
-27.913
-27.688
-27.426
-27.134
-26.819
-26.488
-26.148
-25.805
-25.464
-25.131
-24.811
-24.509
-24.23
-23.978
-23.757
-23.572
-23.425
-23.32
-23.26
-23.246
-23.281
-23.367
-23.504
-23.693
-23.936
-24.232
-24.582
-24.985
-25.441
-25.947
-26.504
-27.109
-27.759
-28.451
-29.183
-29.949
-30.747
-31.572
-32.42
-33.285
-34.162
-35.047
-35.933
-36.815
-37.685
-38.537
-39.364
-40.16
-40.916
-41.626
-42.284
-42.882
-43.416
-43.879
-44.265
-44.571
-44.79
-44.92
-44.955
-44.893
-44.732
-44.47
-44.106
-43.641
-43.077
-42.417
-41.665
-40.826
-39.906
-38.91
-37.846
-36.721
-35.542
-34.314
-33.042
-31.734
-30.399
-29.045
-27.681
-26.317
-24.961
-23.627
-22.327
-21.071
-19.867
-18.718
-17.624
-16.589
-15.62
-14.725
-13.916
-13.202
-12.581
-12.057
-11.633
-11.304
-11.055
-10.86
-10.674
-10.466
-10.212
-9.897
-9.52
-9.071
-8.531
-7.891
-7.131
-6.238
-5.221
-4.084
-2.829
-1.488
-0.099
1.256
2.437
3.328
3.835
3.895
3.503
2.615
1.151
-0.962
-3.822
-7.471
-11.807
-16.792
-22.454
-28.668
-35.271
-41.829
-47.526
-51.841
-54.607
-55.707
-55.193
-53.13
-49.376
-44.469
-39.745
-36.04
-33.805
-33.023
-32.813
-32.544
-32.191
-30.742
-26.07
-16.324
0.39
25.007
56.485
93.871
136.821
183.631
230.971
274.719
309.448
330.329
334.976
321.082
285.85
228.045
148.437
49.891
-61.87
-180.466
-301.043
-418.027
-524.642
-614.835
-683.702
-728.408
-749.167
-747.24
-723.26
-679.55
-620.507
-551.121
-476.878
-402.43
-330.625
-264.322
-207.158
-161.159
-126.525
-102.467
-86.936
-77.941
-74.225
-73.722
-73.442
-71.441
-66.801
-59.285
-49.645
-38.616
-26.606
-14.676
-4.415
3.25
7.944
9.71
9.147
6.805
3.103
-1.246
-5.348
-8.614
-10.715
-11.534
-11.208
-9.827
-7.422
-4.113
-0.069
4.556
9.622
15.025
20.721
26.618
32.572
38.43
44.03
49.26
54.073
58.442
62.358
65.827
68.872
71.539
73.891
75.99
77.889
79.64
81.283
82.875
84.479
86.164
88.001
90.038
92.307
94.826
97.608
100.657
103.97
107.534
111.326
115.326
119.519
123.889
128.421
133.098
137.894
142.784
147.743
152.743
157.759
162.765
167.734
172.64
177.458
182.163
186.731
191.138
195.357
199.362
203.125
206.621
209.825
212.713
215.261
217.45
219.26
220.674
221.68
222.264
222.417
222.13
221.399
220.22
218.592
216.516
213.996
211.038
207.651
203.844
199.631
195.026
190.045
184.707
179.032
173.041
166.759
160.209
153.416
146.407
139.209
131.85
124.357
116.758
109.083
101.359
93.615
85.877
78.172
70.526
62.964
55.509
48.185
41.011
34.01
27.198
20.594
14.214
8.071
2.178
-3.453
-8.814
-13.896
-18.694
-23.203
-27.42
-31.345
-34.977
-38.319
-41.373
-44.143
-46.637
-48.86
-50.82
-52.526
-53.988
-55.217
-56.223
-57.019
-57.617
-58.029
-58.268
-58.348
-58.282
-58.081
-57.761
-57.333
-56.811
-56.207
-55.534
-54.802
-54.024
-53.21
-52.37
-51.514
-50.65
-49.786
-48.929
-48.086
-47.261
-46.461
-45.689
-44.949
-44.243
-43.574
-42.943
-42.351
-41.797
-41.28
-40.799
-40.352
-39.937
-39.55
-39.188
-38.849
-38.528
-38.222
-37.927
-37.639
-37.353
-37.064
-36.767
-36.459
-36.134
-35.786
-35.414
-35.011
-34.576
-34.106
-33.599
-33.052
-32.465
-31.835
-31.162
-30.446
-29.688
-28.888
-28.048
-27.172
-26.263
-25.328
-24.373
-23.405
-22.431
-21.457
-20.492
-19.542
-18.612
-17.71
-16.837
-16.001
-15.209
-14.467
-13.783
-13.164
-12.62
-12.158
-11.785
-11.507
-11.329
-11.256
-11.287
-11.425
-11.674
-12.038
-12.528
-13.151
-13.903
-14.779
-15.772
-16.866
-18.043
-19.275
-20.527
-21.762
-22.946
-24.048
-25.043
-25.914
-26.644
-27.211
-27.585
-27.746
-27.7
-27.465
-27.072
-26.555
-25.954
-25.33
-24.78
-24.421
-24.361
-24.705
-25.537
-26.924
-28.926
-31.603
-35.012
-39.164
-44.007
-49.449
-55.363
-61.652
-68.239
-74.977
-81.621
-87.855
-93.336
-97.737
-100.79
-102.172
-101.463
-98.378
-92.831
-85.039
-75.58
-65.055
-53.869
-42.434
-31.315
-20.781
-10.636
-0.109
12.388
28.351
48.444
73.005
102.321
135.843
171.833
207.275
237.524
257.818
264.797
255.58
227.401
178.688
109.597
22.539
-77.458
-184.44
-293.382
-399.131
-495.882
-578.12
-641.188
-682.644
-702.554
-702.128
-682.547
-645.613
-594.526
-533.631
-468.028
-401.765
-337.739
-278.548
-226.436
-183.361
-150.238
-126.433
-110.086
-99.483
-92.912
-88.334
-84.229
-79.074
-71.756
-62.243
-51.111
-39.022
-26.982
-16.269
-7.627
-1.638
1.383
1.72
-0.246
-4.052
-8.946
-14.06
-18.755
-22.579
-25.294
-26.917
-27.446
-26.886
-25.333
-22.923
-19.798
-16.089
-11.888
-7.254
-2.252
3.004
8.37
13.685
18.79
23.586
28.02
32.063
35.702
38.937
41.787
44.293
46.521
48.526
50.357
52.06
53.672
55.247
56.85
58.549
60.413
62.488
64.802
67.372
70.209
73.318
76.693
80.32
84.17
88.223
92.461
96.868
101.427
106.116
110.911
115.782
120.702
125.645
130.583
135.491
140.34
145.105
149.761
154.285
158.654
162.845
166.834
170.594
174.101
177.331
180.262
182.87
185.136
187.04
188.566
189.7
190.431
190.749
190.646
190.118
189.162
187.777
185.964
183.727
181.072
178.007
174.543
170.691
166.466
161.882
156.958
151.712
146.165
140.338
134.255
127.938
121.412
114.704
107.838
100.841
93.74
86.563
79.334
72.083
64.835
57.615
50.449
43.361
36.373
29.508
22.787
16.228
9.849
3.669
-2.299
-8.041
-13.543
-18.795
-23.788
-28.514
-32.967
-37.143
-41.037
-44.649
-47.978
-51.025
-53.793
-56.285
-58.507
-60.464
-62.163
-63.615
-64.827
-65.81
-66.575
-67.134
-67.499
-67.684
-67.7
-67.562
-67.284
-66.879
-66.361
-65.744
-65.042
-64.267
-63.433
-62.552
-61.637
-60.699
-59.748
-58.795
-57.849
-56.92
-56.015
-55.141
-54.304
-53.511
-52.765
-52.069
-51.427
-50.839
-50.306
-49.828
-49.403
-49.031
-48.708
-48.431
-48.197
-48.001
-47.838
-47.702
-47.588
-47.488
-47.396
-47.305
-47.207
-47.095
-46.961
-46.799
-46.6
-46.358
-46.068
-45.722
-45.315
-44.842
-44.298
-43.679
-42.984
-42.21
-41.356
-40.421
-39.41
-38.325
-37.171
-35.953
-34.675
-33.344
-31.967
-30.549
-29.098
-27.619
-26.117
-24.601
-23.082
-21.569
-20.074
-18.605
-17.174
-15.792
-14.471
-13.221
-12.05
-10.964
-9.969
-9.078
-8.303
-7.661
-7.161
-6.806
-6.594
-6.524
-6.586
-6.77
-7.05
-7.391
-7.765
-8.149
-8.525
-8.881
-9.191
-9.422
-9.544
-9.531
-9.365
-9.039
-8.558
-7.928
-7.187
-6.389
-5.605
-4.932
-4.449
-4.227
-4.341
-4.861
-5.871
-7.462
-9.703
-12.639
-16.309
-20.722
-25.843
-31.616
-37.911
-44.566
-51.433
-58.316
-64.995
-71.228
-76.716
-81.153
-84.262
-85.695
-85.038
-82.03
-76.56
-68.779
-59.181
-48.258
-36.414
-24.142
-12.063
-0.562
10.475
21.855
35.145
51.745
72.351
97.276
126.786
160.738
197.803
235.05
267.878
291.608
302.84
298.973
277.584
236.478
174.909
94.784
0.855
-101.156
-206.256
-309.798
-406.965
-492.042
-559.508
-606.422
-632.628
-639.202
-627.627
-599.583
-556.983
-503.736
-445.225
-385.477
-327.285
-273.027
-224.063
-181.68
-147.579
-121.632
-102.031
-87.386
-76.117
-66.393
-57.518
-48.775
-38.789
-27.236
-14.608
-1.252
11.847
23.396
33
40.391
45.109
47.278
47.195
45.103
41.737
38.005
34.448
31.523
29.564
28.612
28.733
29.993
32.29
35.489
39.472
44.1
49.281
54.963
61.057
67.464
74.069
80.713
87.254
93.553
99.515
105.086
110.236
114.95
119.237
123.118
126.64
129.863
132.84
135.616
138.235
140.736
143.173
145.607
148.098
150.703
153.465
156.405
159.541
162.883
166.432
170.183
174.121
178.223
182.469
186.845
191.336
195.926
200.597
205.326
210.09
214.865
219.627
224.354
229.023
233.61
238.092
242.449
246.658
250.701
254.557
258.204
261.62
264.783
267.673
270.27
272.555
274.51
276.12
277.372
278.254
278.756
278.873
278.597
277.927
276.861
275.399
273.545
271.303
268.68
265.685
262.328
258.621
254.579
250.217
245.552
240.603
235.39
229.934
224.257
218.382
212.332
206.132
199.807
193.381
186.878
180.326
173.747
167.166
160.608
154.096
147.652
141.297
135.052
128.936
122.966
117.159
111.531
106.095
100.864
95.848
91.058
86.502
82.187
78.117
74.297
70.73
67.416
64.355
61.545
58.984
56.668
54.592
52.749
51.133
49.736
48.549
47.562
46.766
46.15
45.702
45.41
45.264
45.251
45.359
45.576
45.89
46.29
46.765
47.302
47.891
48.522
49.184
49.868
50.564
51.265
51.962
52.649
53.317
53.963
54.579
55.163
55.71
56.216
56.679
57.097
57.468
57.792
58.07
58.301
58.486
58.63
58.733
58.8
58.833
58.837
58.816
58.774
58.716
58.647
58.571
58.494
58.421
58.358
58.31
58.283
58.282
58.313
58.379
58.487
58.641
58.843
59.098
59.409
59.779
60.21
60.704
61.261
61.883
62.569
63.317
64.126
64.992
65.911
66.875
67.879
68.917
69.982
71.065
72.159
73.255
74.348
75.433
76.503
77.548
78.561
79.532
80.455
81.321
82.121
82.843
83.478
84.018
84.459
84.803
85.048
85.188
85.217
85.123
84.903
84.561
84.101
83.525
82.839
82.057
81.206
80.331
79.467
78.643
77.876
77.172
76.546
76.021
75.613
75.346
75.233
75.262
75.429
75.729
76.133
76.606
77.084
77.447
77.582
77.398
76.823
75.838
74.425
72.529
70.085
67.003
63.228
58.803
53.825
48.348
42.375
35.97
29.419
23.327
18.345
14.884
12.979
12.478
13.569
16.52
21.164
26.754
32.099
36.243
39.242
41.843
44.272
46.504
48.899
52.514
59.589
72.449
91.888
117.47
148.697
185.059
225.854
269.332
311.491
347.304
372.588
384.137
379.635
357.016
313.977
249.618
165.917
66.973
-42.085
-155.904
-269.922
-379.038
-476.887
-557.867
-618.165
-655.992
-671.62
-666.043
-640.057
-596.084
-538.52
-472.22
-402.322
-333.049
-267.28
-208.054
-158.383
-119.61
-91.661
-73.506
-62.902
-57.875
-56.758
-57.016
-56.364
-53.588
-48.005
-39.734
-29.695
-18.587
-7.282
2.701
10.34
15.203
17.1
16.399
13.699
9.444
4.335
-0.688
-5.017
-8.282
-10.29
-11.139
-10.895
-9.566
-7.275
-4.18
-0.425
3.843
8.529
13.585
18.913
24.385
29.837
35.082
39.999
44.522
48.607
52.246
55.432
58.164
60.484
62.449
64.113
65.535
66.758
67.819
68.773
69.682
70.616
71.651
72.839
74.211
75.791
77.59
79.614
81.866
84.334
86.994
89.829
92.824
95.965
99.242
102.637
106.129
109.695
113.309
116.95
120.596
124.224
127.81
131.333
134.771
138.105
141.316
144.384
147.285
149.998
152.5
154.768
156.783
158.523
159.969
161.104
161.912
162.381
162.5
162.258
161.649
160.668
159.309
157.574
155.46
152.973
150.114
146.892
143.315
139.392
135.136
130.559
125.677
120.506
115.063
109.368
103.441
97.301
90.97
84.471
77.827
71.061
64.196
57.256
50.264
43.244
36.219
29.212
22.243
15.333
8.504
1.772
-4.843
-11.325
-17.659
-23.831
-29.827
-35.636
-41.247
-46.651
-51.842
-56.812
-61.556
-66.072
-70.356
-74.407
-78.226
-81.813
-85.172
-88.304
-91.214
-93.909
-96.393
-98.674
-100.759
-102.658
-104.379
-105.931
-107.324
-108.57
-109.677
-110.658
-111.523
-112.283
-112.949
-113.531
-114.042
-114.491
-114.888
-115.245
-115.571
-115.874
-116.164
-116.449
-116.738
-117.036
-117.352
-117.691
-118.059
-118.462
-118.904
-119.39
-119.922
-120.504
-121.139
-121.828
-122.572
-123.372
-124.229
-125.141
-126.108
-127.13
-128.203
-129.327
-130.497
-131.71
-132.964
-134.253
-135.572
-136.916
-138.278
-139.654
-141.036
-142.42
-143.797
-145.161
-146.507
-147.826
-149.114
-150.361
-151.563
-152.711
-153.798
-154.818
-155.765
-156.632
-157.414
-158.104
-158.698
-159.191
-159.579
-159.859
-160.026
-160.078
-160.012
-159.828
-159.526
-159.104
-158.566
-157.914
-157.152
-156.287
-155.325
-154.273
-153.137
-151.926
-150.65
-149.317
-147.934
-146.507
-145.043
-143.553
-142.048
-140.537
-139.03
-137.536
-136.065
-134.632
-133.25
-131.928
-130.671
-129.48
-128.36
-127.319
-126.368
-125.522
-124.786
-124.159
-123.643
-123.242
-122.953
-122.767
-122.658
-122.583
-122.506
-122.401
-122.252
-122.054
-121.788
-121.425
-120.946
-120.329
-119.567
-118.664
-117.62
-116.43
-115.116
-113.722
-112.319
-111.03
-109.97
-109.233
-108.905
-109.019
-109.618
-110.777
-112.587
-115.138
-118.487
-122.611
-127.428
-132.904
-139.055
-145.791
-152.801
-159.472
-165.137
-169.372
-172.128
-173.514
-173.279
-171.11
-167.132
-162.093
-157.196
-153.353
-150.435
-147.629
-144.671
-141.581
-137.991
-132.783
-123.627
-108.164
-85.632
-56.535
-21.443
19.06
64.202
112.178
158.858
199.081
228.55
243.915
242.756
222.942
182.066
119.082
35.882
-63.464
-173.77
-289.522
-406.027
-518.045
-619.014
-703.113
-766.27
-806.509
-824.025
-819.792
-794.585
-750.832
-692.948
-625.853
-554.845
-484.264
-417.053
-356.333
-305.16
-264.94
-235.686
-216.382
-204.739
-198.743
-196.678
-195.96
-194.299
-190.456
-183.72
-174.22
-162.904
-150.506
-137.948
-126.788
-118.064
-112.211
-109.415
-109.294
-111.241
-114.803
-119.266
-123.677
-127.417
-130.115
-131.581
-131.913
-131.181
-129.39
-126.657
-123.145
-118.998
-114.371
-109.363
-104.03
-98.471
-92.818
-87.236
-81.915
-76.975
-72.483
-68.478
-64.966
-61.953
-59.438
-57.378
-55.716
-54.393
-53.348
-52.534
-51.911
-51.42
-50.994
-50.559
-50.034
-49.363
-48.512
-47.452
-46.17
-44.653
-42.896
-40.907
-38.706
-36.307
-33.724
-30.966
-28.042
-24.967
-21.763
-18.451
-15.055
-11.599
-8.104
-4.593
-1.092
2.376
5.788
9.121
12.354
15.462
18.422
21.205
23.787
26.14
28.24
30.062
31.583
32.779
33.632
34.124
34.238
33.962
33.282
32.19
30.678
28.74
26.375
23.58
20.358
16.712
12.65
8.178
3.308
-1.947
-7.573
-13.554
-19.871
-26.503
-33.43
-40.629
-48.076
-55.746
-63.611
-71.647
-79.825
-88.118
-96.497
-104.935
-113.405
-121.878
-130.328
-138.73
-147.058
-155.288
-163.396
-171.363
-179.166
-186.787
-194.208
-201.413
-208.387
-215.116
-221.589
-227.797
-233.73
-239.382
-244.748
-249.824
-254.608
-259.1
-263.3
-267.211
-270.836
-274.18
-277.25
-280.052
-282.594
-284.885
-286.936
-288.756
-290.356
-291.748
-292.944
-293.955
-294.795
-295.474
-296.006
-296.403
-296.675
-296.836
-296.895
-296.864
-296.752
-296.571
-296.327
-296.031
-295.689
-295.309
-294.897
-294.458
-293.997
-293.519
-293.025
-292.519
-292.003
-291.477
-290.942
-290.397
-289.843
-289.277
-288.698
-288.103
-287.49
-286.855
-286.195
-285.507
-284.786
-284.029
-283.232
-282.39
-281.501
-280.56
-279.564
-278.511
-277.396
-276.218
-274.973
-273.66
-272.278
-270.825
-269.301
-267.705
-266.039
-264.302
-262.496
-260.623
-258.685
-256.683
-254.622
-252.503
-250.329
-248.105
-245.834
-243.521
-241.169
-238.784
-236.37
-233.933
-231.476
-229.005
-226.523
-224.036
-221.547
-219.059
-216.575
-214.098
-211.632
-209.178
-206.739
-204.317
-201.913
-199.526
-197.157
-194.806
-192.472
-190.153
-187.846
-185.55
-183.263
-180.981
-178.704
-176.429
-174.152
-171.87
-169.581
-167.282
-164.969
-162.637
-160.284
-157.904
-155.495
-153.055
-150.581
-148.07
-145.521
-142.933
-140.307
-137.644
-134.941
-132.199
-129.415
-126.588
-123.717
-120.799
-117.831
-114.81
-111.735
-108.607
-105.426
-102.195
-98.913
-95.579
-92.19
-88.744
-85.234
-81.651
-77.99
-74.245
-70.414
-66.503
-62.515
-58.45
-54.307
-50.077
-45.749
-41.306
-36.713
-31.933
-26.93
-21.678
-16.164
-10.393
-4.359
1.948
8.535
15.418
22.592
30.037
37.751
45.727
53.933
62.313
70.738
79.055
87.142
94.916
102.333
109.348
115.861
121.748
126.937
131.432
135.323
138.679
141.407
143.486
145.137
146.851
149.296
152.946
157.834
163.877
171.314
180.407
191.034
202.433
213.309
222.674
230.536
237.582
244.153
250.243
256.29
263.749
275.046
292.622
317.503
348.981
386.297
429.096
476.278
525.204
571.433
609.276
633.921
642.798
633.73
604.187
552.585
479.165
386.901
281.502
169.235
54.967
-56.363
-158.765
-246.248
-313.734
-358.583
-380.956
-382.2
-363.16
-325.185
-271.515
-206.794
-136.3
-64.379
6.112
72.785
132.623
182.797
222.177
251.255
271.735
285.49
293.91
298.572
301.867
306.177
312.869
322.356
334.184
347.576
361.953
376.47
389.776
400.731
408.781
413.837
416.289
416.686
415.483
413.32
411.051
409.341
408.582
408.949
410.384
412.795
416.146
420.339
425.206
430.605
436.402
442.497
448.851
455.411
462.063
468.672
475.087
481.165
486.822
492.018
496.721
500.922
504.631
507.876
510.709
513.196
515.393
517.352
519.117
520.727
522.238
523.71
525.207
526.794
528.514
530.394
532.454
534.708
537.158
539.803
542.628
545.61
548.732
551.978
555.334
558.786
562.314
565.898
569.513
573.136
576.742
580.307
583.807
587.217
590.513
593.671
596.669
599.485
602.096
604.479
606.609
608.462
610.014
611.244
612.129
612.65
612.788
612.527
611.854
610.756
609.224
607.25
604.829
601.958
598.637
594.865
590.646
585.987
580.895
575.379
569.451
563.125
556.417
549.344
541.925
534.18
526.132
517.803
509.219
500.405
491.387
482.192
472.847
463.379
453.818
444.19
434.523
424.844
415.181
405.558
396.002
386.534
377.179
367.958
358.891
349.997
341.294
332.796
324.52
316.478
308.68
301.138
293.859
286.85
280.116
273.66
267.484
261.588
255.971
250.632
245.565
240.766
236.23
231.947
227.911
224.112
220.54
217.185
214.036
211.081
208.309
205.708
203.265
200.969
198.807
196.769
194.842
193.016
191.28
189.623
188.036
186.511
185.038
183.611
182.221
180.862
179.53
178.218
176.923
175.641
174.37
173.106
171.849
170.596
169.349
168.106
166.868
165.636
164.41
163.192
161.984
160.786
159.601
158.43
157.275
156.137
155.018
153.918
152.84
151.783
150.747
149.734
148.743
147.772
146.821
145.888
144.972
144.069
143.179
142.297
141.42
140.546
139.67
138.788
137.897
136.992
136.069
135.124
134.152
133.15
132.113
131.037
129.919
128.756
127.545
126.282
124.966
123.595
122.167
120.68
119.135
117.53
115.867
114.146
112.368
110.535
108.649
106.714
104.732
102.708
100.645
98.547
96.42
94.269
92.098
89.912
87.718
85.521
83.326
81.139
78.966
76.812
74.682
72.582
70.516
68.489
66.504
64.567
62.68
60.847
59.071
57.354
55.699
54.108
52.585
51.129
49.742
48.425
47.177
45.999
44.891
43.85
42.875
41.966
41.12
40.335
39.61
38.941
38.327
37.765
37.251
36.784
36.36
35.976
35.627
35.312
35.026
34.766
34.53
34.313
34.112
33.923
33.743
33.566
33.388
33.203
33.002
32.782
32.535
32.254
31.935
31.569
31.153
30.683
30.158
29.575
28.928
28.214
27.43
26.571
25.636
24.617
23.509
22.309
21.012
19.621
18.141
16.572
14.911
13.154
11.294
9.329
7.265
5.104
2.852
0.518
-1.881
-4.311
-6.728
-9.095
-11.381
-13.566
-15.637
-17.569
-19.337
-20.923
-22.302
-23.463
-24.414
-25.161
-25.72
-26.129
-26.439
-26.73
-27.127
-27.758
-28.723
-30.104
-31.959
-34.338
-37.327
-41.026
-45.51
-50.806
-56.875
-63.603
-70.925
-78.865
-87.259
-95.714
-103.757
-110.801
-116.519
-121.014
-124.187
-125.526
-124.833
-122.303
-118.347
-113.999
-109.828
-105.292
-100.211
-94.99
-89.697
-84.144
-77.647
-68.113
-53.864
-34.896
-11.05
17.845
51.426
89.325
129.941
169.124
202.237
225.724
235.944
229.939
205.294
159.113
90.337
1.469
-103.146
-218.521
-338.946
-459.163
-573.488
-674.535
-756.044
-814.859
-849.839
-861.407
-850.936
-819.753
-770.783
-709.624
-642.184
-573.05
-505.852
-443.272
-387.949
-342.74
-308.844
-285.278
-270.15
-261.528
-257.743
-257.278
-257.946
-257.357
-254.196
-248.195
-239.837
-229.959
-219.2
-208.335
-198.673
-191.335
-186.841
-185.289
-186.259
-189.137
-193.448
-198.531
-203.523
-207.808
-211.009
-212.952
-213.724
-213.419
-212.074
-209.815
-206.803
-203.173
-199.067
-194.575
-189.746
-184.678
-179.496
-174.362
-169.456
-164.897
-160.75
-157.059
-153.833
-151.077
-148.783
-146.908
-145.39
-144.174
-143.202
-142.43
-141.818
-141.308
-140.836
-140.332
-139.717
-138.938
-137.959
-136.752
-135.3
-133.594
-131.626
-129.404
-126.945
-124.264
-121.369
-118.268
-114.969
-111.483
-107.829
-104.025
-100.09
-96.046
-91.911
-87.704
-83.449
-79.165
-74.874
-70.595
-66.348
-62.155
-58.04
-54.028
-50.145
-46.417
-42.868
-39.523
-36.407
-33.544
-30.954
-28.658
-26.674
-25.018
-23.706
-22.751
-22.166
-21.959
-22.14
-22.715
-23.687
-25.06
-26.833
-29.004
-31.571
-34.528
-37.866
-41.577
-45.648
-50.067
-54.818
-59.885
-65.25
-70.892
-76.79
-82.922
-89.264
-95.791
-102.477
-109.297
-116.223
-123.228
-130.286
-137.369
-144.45
-151.502
-158.499
-165.416
-172.226
-178.907
-185.432
-191.781
-197.93
-203.859
-209.548
-214.979
-220.135
-224.999
-229.558
-233.798
-237.709
-241.281
-244.506
-247.378
-249.892
-252.045
-253.837
-255.269
-256.342
-257.06
-257.43
-257.458
-257.153
-256.524
-255.583
-254.343
-252.816
-251.017
-248.962
-246.666
-244.147
-241.422
-238.509
-235.426
-232.193
-228.828
-225.35
-221.779
-218.133
-214.431
-210.691
-206.932
-203.171
-199.426
-195.712
-192.045
-188.441
-184.912
-181.471
-178.131
-174.903
-171.796
-168.819
-165.979
-163.283
-160.736
-158.343
-156.106
-154.028
-152.109
-150.35
-148.75
-147.306
-146.016
-144.877
-143.883
-143.03
-142.313
-141.724
-141.257
-140.904
-140.658
-140.51
-140.452
-140.475
-140.57
-140.728
-140.941
-141.199
-141.494
-141.817
-142.16
-142.515
-142.873
-143.228
-143.573
-143.9
-144.205
-144.48
-144.722
-144.925
-145.086
-145.2
-145.265
-145.278
-145.237
-145.139
-144.984
-144.771
-144.499
-144.168
-143.78
-143.333
-142.832
-142.275
-141.667
-141.008
-140.301
-139.549
-138.755
-137.921
-137.05
-136.147
-135.214
-134.255
-133.273
-132.272
-131.255
-130.225
-129.186
-128.141
-127.091
-126.041
-124.992
-123.947
-122.909
-121.879
-120.86
-119.853
-118.86
-117.883
-116.922
-115.978
-115.05
-114.14
-113.246
-112.368
-111.504
-110.656
-109.82
-108.997
-108.185
-107.381
-106.585
-105.793
-105.003
-104.213
-103.418
-102.617
-101.807
-100.983
-100.144
-99.287
-98.409
-97.509
-96.583
-95.629
-94.644
-93.627
-92.575
-91.488
-90.363
-89.2
-87.999
-86.762
-85.49
-84.188
-82.856
-81.499
-80.119
-78.72
-77.307
-75.881
-74.445
-72.997
-71.543
-70.084
-68.627
-67.173
-65.728
-64.294
-62.878
-61.486
-60.123
-58.795
-57.499
-56.232
-54.994
-53.787
-52.617
-51.495
-50.423
-49.398
-48.418
-47.482
-46.585
-45.713
-44.84
-43.926
-42.935
-41.84
-40.626
-39.29
-37.822
-36.208
-34.434
-32.479
-30.336
-28.02
-25.542
-22.917
-20.175
-17.358
-14.54
-11.851
-9.427
-7.379
-5.79
-4.692
-4.114
-4.117
-4.782
-6.213
-8.459
-11.472
-15.145
-19.416
-24.3
-29.737
-35.416
-40.712
-44.923
-47.609
-48.742
-48.438
-46.459
-42.501
-36.687
-29.815
-23.182
-17.807
-13.702
-10.146
-6.876
-4.017
-1.228
2.849
10.649
24.731
46.251
74.61
109.135
149.57
194.885
242.435
287.708
324.837
348.7
356.426
345.592
313.368
258.077
180.077
82.299
-29.435
-148.566
-269.986
-388.134
-496.241
-588.059
-658.476
-704.515
-726.286
-725.043
-701.42
-657.659
-598.106
-527.794
-452.342
-376.557
-303.419
-235.876
-177.637
-130.803
-95.633
-71.326
-55.738
-46.776
-43.089
-42.537
-42.091
-39.772
-34.632
-26.453
-16.037
-4.173
8.677
21.412
32.434
40.8
46.126
48.46
48.409
46.535
43.271
39.337
35.624
32.723
30.963
30.459
31.078
32.728
35.377
38.904
43.14
47.932
53.137
58.65
64.426
70.371
76.343
82.191
87.75
92.91
97.623
101.863
105.621
108.901
111.727
114.143
116.214
118.003
119.564
120.949
122.204
123.385
124.557
125.791
127.16
128.715
130.488
132.503
134.772
137.303
140.097
143.143
146.42
149.912
153.606
157.49
161.552
165.776
170.141
174.625
179.203
183.852
188.551
193.275
198
202.704
207.363
211.955
216.46
220.853
225.111
229.209
233.121
236.822
240.288
243.497
246.426
249.053
251.359
253.329
254.947
256.2
257.076
257.566
257.664
257.363
256.66
255.555
254.047
252.141
249.841
247.154
244.089
240.657
236.87
232.744
228.292
223.534
218.487
213.172
207.609
201.82
195.829
189.658
183.332
176.875
170.311
163.666
156.963
150.228
143.483
136.753
130.059
123.423
116.866
110.407
104.066
97.859
91.804
85.915
80.206
74.691
69.38
64.283
59.409
54.765
50.357
46.189
42.264
38.583
35.148
31.958
29.01
26.302
23.828
21.585
19.567
17.765
16.173
14.782
13.583
12.567
11.725
11.045
10.518
10.134
9.881
9.75
9.729
9.808
9.978
10.228
10.548
10.93
11.364
11.843
12.357
12.899
13.463
14.042
14.63
15.222
15.812
16.397
16.973
17.537
18.085
18.616
19.127
19.617
20.086
20.531
20.954
21.353
21.729
22.081
22.411
22.719
23.006
23.272
23.519
23.748
23.959
24.154
24.333
24.498
24.65
24.789
24.916
25.032
25.138
25.234
25.32
25.398
25.466
25.526
25.577
25.619
25.653
25.678
25.694
25.701
25.699
25.688
25.667
25.637
25.597
25.548
25.489
25.42
25.342
25.254
25.157
25.051
24.936
24.813
24.681
24.54
24.392
24.235
24.071
23.899
23.721
23.535
23.343
23.145
22.941
22.732
22.516
22.295
22.068
21.835
21.596
21.351
21.098
20.839
20.572
20.298
20.015
19.724
19.424
19.114
18.794
18.464
18.124
17.772
17.411
17.039
16.658
16.267
15.87
15.466
15.057
14.646
14.232
13.818
13.407
12.999
12.599
12.207
11.827
11.463
11.118
10.795
10.499
10.232
10
9.805
9.652
9.545
9.487
9.481
9.531
9.641
9.813
10.051
10.355
10.726
11.167
11.677
12.254
12.897
13.6
14.361
15.175
16.039
16.948
17.896
18.876
19.885
20.92
21.977
23.05
24.129
25.208
26.279
27.336
28.372
29.376
30.338
31.248
32.1
32.895
33.629
34.298
34.89
35.392
35.797
36.108
36.327
36.457
36.504
36.474
36.389
36.288
36.205
36.17
36.203
36.309
36.497
36.787
37.199
37.754
38.462
39.316
40.304
41.413
42.616
43.872
45.117
46.246
47.152
47.725
47.873
47.541
46.697
45.31
43.335
40.701
37.326
33.186
28.332
22.873
16.91
10.456
3.619
-3.238
-9.512
-14.525
-17.848
-19.48
-19.535
-17.783
-13.959
-8.22
-1.375
5.273
10.735
15.044
18.905
22.575
25.931
29.287
33.992
42.438
57.068
78.897
107.212
141.249
180.674
224.477
270.116
313.214
348.125
370.011
376.297
364.878
333.296
279.978
205.096
111.485
4.739
-108.898
-224.536
-337.222
-441.085
-530.278
-599.625
-646.369
-670.544
-673.385
-656.042
-620.275
-569.298
-507.673
-440.907
-373.409
-308.295
-248.282
-195.658
-152.414
-119.505
-96.234
-80.574
-70.634
-64.551
-60.197
-56.029
-50.542
-42.649
-32.361
-20.335
-7.287
5.718
17.336
26.793
33.479
37.062
37.832
36.182
32.545
27.651
22.379
17.372
13.143
9.989
7.917
6.953
7.104
8.283
10.368
13.221
16.703
20.71
25.177
30.028
35.177
40.5
45.843
51.057
56.007
60.603
64.803
68.571
71.893
74.776
77.246
79.353
81.163
82.731
84.107
85.335
86.457
87.529
88.616
89.777
91.073
92.543
94.212
96.099
98.218
100.569
103.149
105.944
108.931
112.092
115.415
118.884
122.486
126.202
130.012
133.894
137.826
141.787
145.754
149.706
153.621
157.478
161.256
164.936
168.499
171.926
175.194
178.283
181.172
183.838
186.263
188.428
190.314
191.904
193.184
194.142
194.767
195.049
194.981
194.557
193.774
192.63
191.124
189.258
187.035
184.461
181.542
178.288
174.707
170.812
166.616
162.133
157.38
152.374
147.131
141.673
136.018
130.188
124.203
118.086
111.858
105.541
99.159
92.733
86.286
79.839
73.413
67.029
60.706
54.464
48.319
42.29
36.392
30.64
25.047
19.628
14.393
9.353
4.517
-0.107
-4.512
-8.693
-12.645
-16.365
-19.851
-23.104
-26.122
-28.909
-31.465
-33.796
-35.905
-37.798
-39.481
-40.961
-42.246
-43.344
-44.264
-45.014
-45.605
-46.046
-46.347
-46.518
-46.569
-46.51
-46.352
-46.103
-45.775
-45.375
-44.915
-44.402
-43.844
-43.251
-42.63
-41.988
-41.333
-40.669
-40.004
-39.343
-38.69
-38.05
-37.426
-36.824
-36.244
-35.691
-35.166
-34.671
-34.208
-33.777
-33.379
-33.016
-32.688
-32.394
-32.134
-31.909
-31.719
-31.561
-31.437
-31.346
-31.286
-31.258
-31.26
-31.293
-31.355
-31.447
-31.568
-31.718
-31.895
-32.101
-32.335
-32.597
-32.886
-33.204
-33.549
-33.923
-34.326
-34.757
-35.216
-35.704
-36.221
-36.765
-37.338
-37.937
-38.563
-39.214
-39.89
-40.59
-41.312
-42.055
-42.817
-43.596
-44.389
-45.195
-46.009
-46.828
-47.649
-48.467
-49.279
-50.081
-50.868
-51.636
-52.38
-53.096
-53.779
-54.424
-55.026
-55.579
-56.078
-56.518
-56.895
-57.203
-57.439
-57.599
-57.68
-57.678
-57.592
-57.418
-57.154
-56.8
-56.354
-55.816
-55.186
-54.465
-53.657
-52.763
-51.79
-50.744
-49.631
-48.456
-47.228
-45.953
-44.638
-43.291
-41.916
-40.52
-39.108
-37.689
-36.271
-34.864
-33.475
-32.114
-30.79
-29.511
-28.284
-27.118
-26.016
-24.98
-24.018
-23.134
-22.339
-21.645
-21.061
-20.587
-20.221
-19.959
-19.788
-19.693
-19.651
-19.624
-19.582
-19.498
-19.343
-19.102
-18.749
-18.262
-17.621
-16.796
-15.765
-14.534
-13.114
-11.53
-9.825
-8.049
-6.271
-4.602
-3.15
-2.023
-1.325
-1.142
-1.558
-2.655
-4.493
-7.132
-10.6
-14.855
-19.827
-25.414
-31.492
-37.964
-44.67
-51.343
-57.675
-63.324
-67.948
-71.268
-72.938
-72.509
-69.693
-64.405
-56.84
-47.576
-37.198
-26.088
-14.703
-3.651
6.801
16.863
27.365
39.979
56.257
76.915
102.349
132.889
167.97
205.757
243.057
275.026
296.68
304.45
295.3
266.318
215.907
144.394
54.419
-48.713
-158.724
-270.278
-377.94
-475.601
-557.634
-619.539
-659.098
-676.658
-673.768
-651.905
-613.175
-561.128
-500.292
-435.684
-371.201
-309.519
-252.952
-203.533
-163.031
-132.095
-109.925
-94.663
-84.632
-78.235
-73.621
-69.362
-63.995
-56.516
-46.964
-35.926
-24.071
-12.35
-1.924
6.517
12.41
15.474
16.001
14.379
11.084
6.842
2.464
-1.451
-4.476
-6.393
-7.221
-6.967
-5.654
-3.383
-0.291
3.48
7.802
12.578
17.743
23.227
28.914
34.663
40.317
45.726
50.794
55.472
59.731
63.561
66.964
69.96
72.59
74.917
76.998
78.879
80.606
82.218
83.769
85.321
86.942
88.695
90.625
92.759
95.115
97.705
100.533
103.595
106.88
110.364
114.028
117.858
121.84
125.96
130.2
134.536
138.945
143.401
147.881
152.361
156.818
161.226
165.561
169.802
173.926
177.912
181.739
185.383
188.821
192.029
194.984
197.664
200.05
202.121
203.859
205.249
206.277
206.932
207.205
207.087
206.574
205.661
204.349
202.637
200.529
198.029
195.145
191.885
188.26
184.283
179.969
175.333
170.394
165.17
159.681
153.951
148
141.853
135.533
129.065
122.475
115.787
109.028
102.222
95.396
88.573
81.778
75.035
68.366
61.793
55.336
49.015
42.847
36.851
31.041
25.432
20.036
14.866
9.931
5.24
0.8
-3.384
-7.307
-10.966
-14.36
-17.49
-20.356
-22.962
-25.31
-27.407
-29.257
-30.868
-32.249
-33.408
-34.354
-35.097
-35.649
-36.021
-36.225
-36.272
-36.174
-35.944
-35.594
-35.136
-34.581
-33.942
-33.231
-32.458
-31.635
-30.772
-29.878
-28.964
-28.039
-27.11
-26.186
-25.274
-24.38
-23.509
-22.668
-21.86
-21.089
-20.359
-19.671
-19.029
-18.433
-17.884
-17.383
-16.929
-16.522
-16.16
-15.843
-15.569
-15.335
-15.14
-14.981
-14.856
-14.761
-14.695
-14.654
-14.635
-14.636
-14.653
-14.684
-14.725
-14.775
-14.83
-14.889
-14.95
-15.01
-15.068
-15.124
-15.176
-15.224
-15.267
-15.305
-15.338
-15.367
-15.393
-15.416
-15.438
-15.46
-15.483
-15.51
-15.542
-15.581
-15.629
-15.689
-15.761
-15.847
-15.951
-16.073
-16.215
-16.379
-16.568
-16.782
-17.023
-17.291
-17.589
-17.916
-18.272
-18.658
-19.071
-19.51
-19.975
-20.463
-20.971
-21.498
-22.039
-22.593
-23.154
-23.719
-24.284
-24.843
-25.392
-25.925
-26.437
-26.922
-27.374
-27.79
-28.162
-28.487
-28.76
-28.977
-29.132
-29.221
-29.241
-29.186
-29.056
-28.847
-28.558
-28.186
-27.733
-27.2
-26.591
-25.909
-25.157
-24.34
-23.463
-22.53
-21.548
-20.521
-19.452
-18.346
-17.21
-16.053
-14.883
-13.709
-12.536
-11.376
-10.24
-9.136
-8.075
-7.06
-6.093
-5.18
-4.332
-3.557
-2.873
-2.288
-1.803
-1.419
-1.14
-0.958
-0.867
-0.839
-0.838
-0.833
-0.797
-0.713
-0.571
-0.345
-0.009
0.458
1.081
1.868
2.818
3.929
5.189
6.561
7.995
9.405
10.679
11.704
12.366
12.568
12.227
11.256
9.58
7.112
3.771
-0.463
-5.584
-11.548
-18.232
-25.588
-33.575
-41.872
-50.126
-57.941
-64.785
-70.473
-74.968
-77.782
-78.386
-76.799
-73.02
-67.546
-61.368
-54.459
-46.596
-38.296
-29.984
-21.617
-13.134
-3.155
10.577
28.705
51.51
79.433
112.261
149.604
190.419
231.217
266.989
293.674
307.4
305.055
284.41
242.923
179.435
95.87
-3.606
-113.835
-229.04
-344.205
-454.094
-552.143
-632.715
-692.102
-728.573
-742.473
-734.948
-706.916
-660.892
-601.369
-533.166
-461.333
-390.043
-322.113
-260.581
-208.449
-167.019
-136.226
-115.1
-101.475
-93.473
-89.484
-86.967
-83.685
-78.467
-70.637
-60.314
-48.373
-35.447
-22.39
-10.731
-1.502
4.849
8.13
8.714
7.17
3.915
-0.368
-4.748
-8.561
-11.386
-13.004
-13.484
-12.89
-11.229
-8.605
-5.169
-1.066
3.561
8.609
14.021
19.723
25.599
31.502
37.265
42.736
47.818
52.458
56.63
60.322
63.539
66.305
68.668
70.689
72.429
73.942
75.272
76.465
77.575
78.668
79.814
81.077
82.506
84.128
85.962
88.021
90.311
92.829
95.561
98.487
101.588
104.851
108.263
111.813
115.482
119.25
123.095
126.994
130.926
134.869
138.8
142.698
146.541
150.307
153.978
157.534
160.956
164.22
167.306
170.19
172.852
175.272
177.429
179.306
180.885
182.152
183.095
183.702
183.966
183.88
183.438
182.638
181.479
179.961
178.087
175.862
173.292
170.387
167.156
163.61
159.763
155.629
151.226
146.569
141.679
136.574
131.274
125.802
120.178
114.426
108.567
102.624
96.621
90.579
84.521
78.47
72.445
66.468
60.558
54.733
49.011
43.407
37.938
32.616
27.454
22.463
17.654
13.036
8.614
4.397
0.388
-3.409
-6.992
-10.36
-13.513
-16.452
-19.18
-21.7
-24.017
-26.135
-28.062
-29.804
-31.368
-32.764
-34
-35.085
-36.029
-36.842
-37.533
-38.112
-38.591
-38.977
-39.282
-39.513
-39.682
-39.795
-39.862
-39.89
-39.887
-39.859
-39.813
-39.755
-39.691
-39.623
-39.558
-39.498
-39.447
-39.408
-39.382
-39.37
-39.375
-39.396
-39.435
-39.489
-39.56
-39.645
-39.744
-39.855
-39.976
-40.105
-40.241
-40.381
-40.523
-40.665
-40.805
-40.94
-41.071
-41.194
-41.308
-41.413
-41.507
-41.59
-41.662
-41.723
-41.773
-41.813
-41.843
-41.865
-41.879
-41.887
-41.891
-41.892
-41.893
-41.896
-41.903
-41.917
-41.941
-41.978
-42.03
-42.101
-42.194
-42.312
-42.457
-42.634
-42.845
-43.092
-43.379
-43.708
-44.08
-44.498
-44.963
-45.475
-46.034
-46.641
-47.295
-47.993
-48.735
-49.519
-50.342
-51.201
-52.093
-53.015
-53.964
-54.935
-55.923
-56.923
-57.932
-58.943
-59.95
-60.949
-61.932
-62.894
-63.829
-64.73
-65.591
-66.405
-67.164
-67.864
-68.498
-69.06
-69.545
-69.947
-70.263
-70.489
-70.625
-70.669
-70.621
-70.483
-70.258
-69.947
-69.555
-69.085
-68.542
-67.929
-67.25
-66.511
-65.717
-64.874
-63.989
-63.072
-62.131
-61.175
-60.216
-59.262
-58.322
-57.406
-56.524
-55.683
-54.89
-54.156
-53.494
-52.917
-52.438
-52.059
-51.779
-51.595
-51.498
-51.473
-51.499
-51.544
-51.582
-51.591
-51.555
-51.464
-51.304
-51.052
-50.683
-50.17
-49.496
-48.659
-47.667
-46.522
-45.242
-43.867
-42.46
-41.114
-39.913
-38.909
-38.146
-37.664
-37.517
-37.791
-38.553
-39.836
-41.659
-44.003
-46.867
-50.31
-54.328
-58.833
-63.68
-68.602
-73.422
-78.169
-82.655
-86.469
-89.184
-90.219
-89.289
-86.646
-82.195
-75.424
-66.356
-55.343
-43.077
-31.014
-19.77
-8.789
1.897
11.833
21.166
30.278
40.592
54.938
74.79
99.971
130.423
165.943
205.946
249.362
292.935
331.325
359.897
375.151
374.306
355.151
315.306
253.374
170.865
71.911
-38.18
-153.786
-270.015
-381.646
-482.155
-565.578
-627.702
-666.449
-681.94
-675.138
-646.811
-599.361
-537.23
-465.449
-389.5
-313.965
-242.023
-177.022
-122.229
-79.156
-47.869
-27.357
-15.219
-9.318
-7.778
-7.779
-6.862
-3.687
2.541
11.726
22.912
35.37
48.13
59.527
68.441
74.37
77.086
76.969
74.615
70.472
65.268
59.978
55.285
51.618
49.195
47.938
47.778
48.702
50.598
53.306
56.678
60.57
64.881
69.556
74.521
79.661
84.828
89.858
94.603
98.971
102.913
106.403
109.433
112.006
114.152
115.916
117.362
118.551
119.535
120.361
121.075
121.732
122.398
123.14
124.023
125.092
126.375
127.887
129.641
131.641
133.882
136.351
139.025
141.887
144.921
148.115
151.454
154.921
158.493
162.15
165.866
169.621
173.391
177.156
180.892
184.578
188.193
191.717
195.13
198.412
201.542
204.498
207.256
209.796
212.099
214.144
215.912
217.389
218.557
219.406
219.925
220.104
219.937
219.418
218.545
217.315
215.73
213.791
211.502
208.869
205.901
202.604
198.991
195.074
190.865
186.381
181.637
176.651
171.441
166.025
160.425
154.66
148.752
142.721
136.591
130.382
124.116
117.815
111.501
105.194
98.915
92.682
86.515
80.431
74.447
68.578
62.84
57.245
51.807
46.537
41.445
36.541
31.833
27.327
23.029
18.944
15.075
11.425
7.994
4.783
1.79
-0.986
-3.548
-5.9
-8.046
-9.993
-11.745
-13.311
-14.698
-15.913
-16.965
-17.864
-18.617
-19.234
-19.725
-20.099
-20.366
-20.533
-20.612
-20.61
-20.538
-20.402
-20.213
-19.977
-19.703
-19.398
-19.068
-18.72
-18.36
-17.994
-17.626
-17.261
-16.902
-16.554
-16.219
-15.9
-15.598
-15.315
-15.053
-14.812
-14.591
-14.391
-14.211
-14.051
-13.909
-13.785
-13.676
-13.581
-13.5
-13.429
-13.368
-13.315
-13.268
-13.225
-13.184
-13.144
-13.104
-13.062
-13.017
-12.969
-12.915
-12.858
-12.795
-12.728
-12.656
-12.58
-12.501
-12.42
-12.339
-12.259
-12.183
-12.112
-12.05
-11.998
-11.961
-11.94
-11.94
-11.963
-12.013
-12.092
-12.204
-12.352
-12.538
-12.765
-13.037
-13.356
-13.725
-14.144
-14.617
-15.145
-15.728
-16.368
-17.065
-17.816
-18.623
-19.483
-20.395
-21.358
-22.367
-23.421
-24.515
-25.646
-26.81
-28.001
-29.213
-30.441
-31.678
-32.917
-34.153
-35.377
-36.583
-37.764
-38.912
-40.02
-41.083
-42.093
-43.043
-43.926
-44.736
-45.469
-46.12
-46.685
-47.159
-47.54
-47.828
-48.025
-48.13
-48.144
-48.069
-47.907
-47.663
-47.34
-46.941
-46.466
-45.92
-45.308
-44.637
-43.915
-43.148
-42.343
-41.508
-40.653
-39.79
-38.929
-38.078
-37.238
-36.413
-35.61
-34.841
-34.122
-33.462
-32.86
-32.317
-31.83
-31.399
-31.019
-30.671
-30.318
-29.928
-29.475
-28.94
-28.321
-27.609
-26.786
-25.834
-24.735
-23.483
-22.088
-20.565
-18.93
-17.213
-15.459
-13.739
-12.157
-10.825
-9.854
-9.336
-9.335
-9.89
-11.036
-12.825
-15.325
-18.607
-22.701
-27.552
-33.049
-39.093
-45.65
-52.598
-59.586
-66.013
-71.223
-74.788
-76.666
-76.963
-75.44
-71.818
-66.257
-59.499
-52.761
-47.019
-42.236
-37.749
-33.41
-29.324
-25.209
-20.02
-11.484
2.76
23.518
50.373
82.843
120.459
162.56
207.358
250.696
287.352
313.002
324.312
318.822
294.31
248.277
179.777
91.02
-13.568
-128.545
-248.194
-367.576
-481.129
-581.882
-663.859
-723.239
-758.342
-769.633
-758.365
-725.559
-674.063
-608.938
-535.523
-459.174
-384.25
-313.632
-250.359
-197.528
-156.355
-126.442
-106.495
-94.112
-87.224
-84.167
-82.386
-79.514
-74.354
-66.346
-55.726
-43.5
-30.414
-17.328
-5.741
3.287
9.321
12.209
12.363
10.417
6.852
2.37
-2.111
-5.938
-8.707
-10.218
-10.543
-9.763
-7.905
-5.084
-1.459
2.826
7.628
12.845
18.418
24.267
30.272
36.28
42.122
47.651
52.773
57.434
61.611
65.292
68.486
71.223
73.553
75.541
77.249
78.729
80.029
81.195
82.286
83.365
84.503
85.763
87.193
88.82
90.665
92.738
95.045
97.582
100.336
103.287
106.416
109.71
113.157
116.745
120.456
124.271
128.168
132.126
136.123
140.139
144.151
148.138
152.08
155.955
159.744
163.428
166.988
170.401
173.646
176.701
179.544
182.156
184.516
186.606
188.41
189.912
191.099
191.961
192.488
192.673
192.509
191.994
191.125
189.903
188.328
186.405
184.139
181.537
178.608
175.362
171.813
167.972
163.856
159.481
154.864
150.025
144.982
139.756
134.368
128.84
123.194
117.451
111.635
105.768
99.871
93.968
88.078
82.222
76.421
70.693
65.056
59.527
54.122
48.856
43.742
38.792
34.019
29.432
25.04
20.851
16.871
13.104
9.555
6.226
3.118
0.231
-2.436
-4.885
-7.12
-9.144
-10.963
-12.583
-14.011
-15.255
-16.322
-17.222
-17.963
-18.556
-19.01
-19.336
-19.543
-19.641
-19.642
-19.554
-19.388
-19.154
-18.862
-18.519
-18.136
-17.721
-17.281
-16.825
-16.358
-15.888
-15.421
-14.962
-14.515
-14.084
-13.675
-13.288
-12.928
-12.595
-12.292
-12.018
-11.776
-11.563
-11.381
-11.228
-11.103
-11.004
-10.93
-10.878
-10.847
-10.833
-10.835
-10.851
-10.876
-10.909
-10.948
-10.989
-11.031
-11.07
-11.105
-11.134
-11.155
-11.166
-11.166
-11.155
-11.131
-11.094
-11.044
-10.981
-10.905
-10.817
-10.718
-10.609
-10.492
-10.368
-10.239
-10.108
-9.978
-9.85
-9.728
-9.615
-9.513
-9.426
-9.357
-9.309
-9.284
-9.287
-9.318
-9.383
-9.482
-9.619
-9.796
-10.014
-10.274
-10.578
-10.926
-11.318
-11.753
-12.231
-12.749
-13.307
-13.903
-14.534
-15.197
-15.888
-16.604
-17.342
-18.096
-18.862
-19.633
-20.403
-21.168
-21.92
-22.653
-23.362
-24.038
-24.676
-25.269
-25.812
-26.298
-26.722
-27.076
-27.356
-27.558
-27.679
-27.714
-27.662
-27.521
-27.292
-26.978
-26.581
-26.103
-25.548
-24.918
-24.22
-23.458
-22.637
-21.759
-20.829
-19.854
-18.84
-17.799
-16.741
-15.672
-14.601
-13.539
-12.498
-11.489
-10.523
-9.6
-8.727
-7.909
-7.16
-6.498
-5.934
-5.471
-5.105
-4.837
-4.661
-4.57
-4.547
-4.556
-4.563
-4.543
-4.474
-4.353
-4.17
-3.908
-3.541
-3.043
-2.403
-1.626
-0.717
0.314
1.44
2.619
3.783
4.825
5.649
6.165
6.27
5.898
4.997
3.505
1.386
-1.421
-5
-9.387
-14.58
-20.53
-27.085
-34.124
-41.633
-49.37
-56.901
-63.782
-69.423
-73.519
-76.213
-77.389
-76.541
-73.484
-68.402
-61.778
-54.732
-47.88
-40.782
-33.306
-25.842
-18.61
-11.485
-3.514
7.514
23.449
44.657
71.104
102.718
139.337
180.267
223.114
263.468
296.157
316.826
322.322
309.956
276.912
221.241
143.236
45.824
-65.603
-184.95
-307.095
-426.489
-536.419
-630.463
-703.423
-752.237
-776.745
-777.928
-756.24
-713.739
-654.645
-584.016
-507.563
-430.216
-355.117
-285.395
-224.959
-176.105
-139.253
-113.68
-97.222
-87.747
-83.858
-83.337
-83.063
-80.964
-76.013
-67.94
-57.549
-45.634
-32.664
-19.772
-8.598
-0.116
5.267
7.591
7.472
5.478
2.055
-2.06
-5.947
-8.994
-10.862
-11.428
-10.833
-9.169
-6.473
-2.868
1.463
6.358
11.665
17.271
23.125
29.13
35.133
40.976
46.489
51.555
56.124
60.168
63.674
66.646
69.106
71.097
72.687
73.937
74.905
75.645
76.201
76.635
77.015
77.414
77.908
78.552
79.38
80.417
81.68
83.177
84.913
86.878
89.055
91.429
93.991
96.732
99.643
102.71
105.917
109.243
112.669
116.173
119.738
123.343
126.968
130.592
134.196
137.76
141.268
144.698
148.03
151.239
154.303
157.2
159.907
162.403
164.666
166.677
168.419
169.876
171.033
171.88
172.404
172.598
172.455
171.969
171.137
169.959
168.435
166.568
164.362
161.825
158.963
155.787
152.31
148.543
144.502
140.203
135.662
130.899
125.933
120.784
115.474
110.024
104.456
98.794
93.059
87.276
81.466
75.652
69.855
64.097
58.397
52.776
47.251
41.84
36.558
31.422
26.444
21.638
17.015
12.584
8.354
4.333
0.526
-3.062
-6.428
-9.57
-12.487
-15.181
-17.652
-19.905
-21.943
-23.771
-25.396
-26.824
-28.064
-29.124
-30.014
-30.743
-31.321
-31.76
-32.07
-32.262
-32.347
-32.336
-32.239
-32.069
-31.833
-31.544
-31.21
-30.841
-30.445
-30.031
-29.605
-29.175
-28.748
-28.328
-27.922
-27.533
-27.164
-26.821
-26.504
-26.216
-25.958
-25.732
-25.536
-25.372
-25.239
-25.135
-25.059
-25.01
-24.984
-24.981
-24.998
-25.032
-25.081
-25.143
-25.214
-25.294
-25.379
-25.467
-25.557
-25.647
-25.735
-25.82
-25.902
-25.98
-26.052
-26.12
-26.184
-26.244
-26.301
-26.356
-26.409
-26.463
-26.52
-26.58
-26.645
-26.718
-26.799
-26.892
-26.998
-27.118
-27.256
-27.411
-27.585
-27.78
-27.995
-28.232
-28.49
-28.767
-29.063
-29.378
-29.71
-30.056
-30.416
-30.785
-31.162
-31.544
-31.927
-32.306
-32.678
-33.037
-33.379
-33.7
-33.993
-34.254
-34.476
-34.656
-34.788
-34.868
-34.892
-34.854
-34.75
-34.577
-34.332
-34.014
-33.62
-33.149
-32.601
-31.978
-31.285
-30.525
-29.701
-28.818
-27.879
-26.892
-25.862
-24.794
-23.692
-22.56
-21.406
-20.236
-19.063
-17.894
-16.738
-15.601
-14.496
-13.432
-12.423
-11.475
-10.591
-9.774
-9.029
-8.369
-7.806
-7.349
-6.997
-6.745
-6.592
-6.53
-6.55
-6.635
-6.747
-6.856
-6.937
-6.967
-6.939
-6.841
-6.647
-6.342
-5.905
-5.326
-4.607
-3.755
-2.774
-1.699
-0.575
0.549
1.58
2.44
3.06
3.331
3.191
2.592
1.473
-0.173
-2.383
-5.244
-8.794
-13.021
-17.877
-23.186
-28.81
-34.788
-40.917
-46.789
-51.993
-55.928
-58.286
-59.258
-58.764
-56.341
-51.87
-45.577
-37.99
-30.315
-23.207
-16.244
-9.308
-2.721
3.393
9.293
16.08
26.076
41.172
61.714
87.635
118.887
155.273
195.892
238.118
277.334
308.288
326.817
329.963
315.113
279.681
222.146
143.309
46.8
-61.565
-175.629
-290.136
-399.718
-498.221
-579.846
-640.242
-677.6
-692.596
-686.983
-662.411
-621.097
-566.775
-504.123
-438.096
-372.483
-309.839
-252.309
-201.827
-160.088
-127.652
-103.73
-86.582
-74.633
-66.389
-60.087
-54.344
-47.745
-39.338
-29.141
-17.682
-5.572
6.296
16.765
25.137
30.867
33.689
33.909
31.925
28.208
23.49
18.612
14.209
10.724
8.393
7.199
7.129
8.167
10.212
13.127
16.764
20.989
25.701
30.832
36.307
42.005
47.776
53.449
58.858
63.899
68.516
72.677
76.367
79.588
82.358
84.72
86.741
88.48
89.984
91.3
92.469
93.545
94.597
95.692
96.902
98.273
99.836
101.61
103.609
105.839
108.296
110.969
113.834
116.872
120.07
123.414
126.894
130.492
134.186
137.953
141.771
145.617
149.471
153.308
157.108
160.85
164.512
168.075
171.522
174.833
177.986
180.96
183.733
186.284
188.593
190.641
192.409
193.88
195.039
195.873
196.371
196.525
196.325
195.767
194.847
193.563
191.914
189.902
187.529
184.803
181.729
178.315
174.573
170.514
166.152
161.5
156.576
151.397
145.98
140.344
134.511
128.501
122.336
116.036
109.626
103.128
96.563
89.955
83.327
76.7
70.096
63.536
57.04
50.626
44.314
38.12
32.061
26.153
20.408
14.842
9.464
4.287
-0.681
-5.431
-9.956
-14.25
-18.31
-22.131
-25.712
-29.051
-32.149
-35.007
-37.628
-40.014
-42.17
-44.102
-45.815
-47.317
-48.614
-49.715
-50.63
-51.366
-51.933
-52.342
-52.601
-52.722
-52.715
-52.589
-52.355
-52.023
-51.604
-51.106
-50.54
-49.915
-49.239
-48.521
-47.769
-46.991
-46.194
-45.385
-44.571
-43.757
-42.95
-42.154
-41.374
-40.614
-39.877
-39.168
-38.489
-37.842
-37.23
-36.655
-36.118
-35.62
-35.162
-34.746
-34.372
-34.039
-33.749
-33.501
-33.295
-33.129
-33.003
-32.916
-32.867
-32.856
-32.88
-32.939
-33.031
-33.155
-33.309
-33.491
-33.698
-33.929
-34.18
-34.448
-34.732
-35.027
-35.33
-35.64
-35.952
-36.264
-36.572
-36.872
-37.16
-37.433
-37.686
-37.915
-38.115
-38.283
-38.414
-38.505
-38.552
-38.554
-38.506
-38.407
-38.253
-38.043
-37.775
-37.446
-37.057
-36.607
-36.095
-35.523
-34.894
-34.212
-33.481
-32.706
-31.891
-31.042
-30.166
-29.267
-28.351
-27.422
-26.483
-25.541
-24.601
-23.67
-22.754
-21.861
-20.998
-20.175
-19.402
-18.684
-18.029
-17.439
-16.914
-16.457
-16.073
-15.767
-15.55
-15.427
-15.399
-15.467
-15.629
-15.879
-16.2
-16.567
-16.942
-17.289
-17.577
-17.783
-17.89
-17.885
-17.757
-17.49
-17.063
-16.467
-15.705
-14.792
-13.749
-12.601
-11.388
-10.178
-9.087
-8.257
-7.801
-7.807
-8.343
-9.439
-11.149
-13.578
-16.78
-20.751
-25.452
-30.733
-36.523
-42.913
-49.739
-56.596
-63.011
-68.337
-72.232
-74.843
-75.971
-75.023
-71.949
-67.072
-61.071
-55.319
-50.317
-45.381
-40.389
-35.764
-31.323
-26.416
-19.457
-7.512
10.941
35.341
65.243
100.457
140.297
183.206
225.596
261.595
286.252
296.897
291.378
267.567
223.356
157.847
73.209
-25.249
-131.608
-241.148
-349.489
-451.615
-541.309
-612.826
-663.138
-691.933
-700.293
-689.081
-659.206
-613.104
-555.419
-491.547
-425.745
-360.991
-299.512
-243.946
-197.048
-160.11
-132.583
-112.84
-99.212
-90.416
-85.171
-81.44
-77.073
-70.828
-62.337
-51.996
-40.489
-28.282
-16.069
-5.088
3.647
9.652
12.819
13.539
12.36
9.693
6.178
2.681
-0.182
-2.026
-2.661
-2.164
-0.608
1.99
5.516
9.805
14.715
20.096
25.854
31.939
38.254
44.668
51.019
57.121
62.855
68.153
72.971
77.297
81.127
84.465
87.356
89.86
92.033
93.933
95.605
97.087
98.434
99.712
100.988
102.34
103.821
105.464
107.295
109.328
111.573
114.034
116.701
119.553
122.576
125.758
129.088
132.559
136.156
139.859
143.649
147.505
151.406
155.333
159.266
163.184
167.066
170.892
174.644
178.305
181.854
185.27
188.532
191.616
194.501
197.166
199.591
201.755
203.641
205.233
206.515
207.477
208.106
208.394
208.333
207.918
207.147
206.017
204.529
202.685
200.49
197.95
195.073
191.869
188.348
184.525
180.413
176.029
171.389
166.513
161.419
156.127
150.659
145.036
139.281
133.416
127.465
121.449
115.392
109.316
103.243
97.196
91.194
85.258
79.405
73.655
68.024
62.528
57.181
51.997
46.987
42.162
37.532
33.105
28.887
24.884
21.1
17.538
14.199
11.084
8.192
5.521
3.069
0.83
-1.199
-3.024
-4.652
-6.091
-7.348
-8.431
-9.35
-10.115
-10.734
-11.219
-11.579
-11.824
-11.964
-12.011
-11.974
-11.862
-11.686
-11.454
-11.176
-10.86
-10.515
-10.147
-9.765
-9.375
-8.983
-8.595
-8.216
-7.851
-7.505
-7.181
-6.883
-6.614
-6.375
-6.17
-6
-5.867
-5.77
-5.712
-5.692
-5.71
-5.766
-5.86
-5.992
-6.16
-6.364
-6.603
-6.876
-7.182
-7.521
-7.89
-8.289
-8.718
-9.174
-9.657
-10.167
-10.702
-11.262
-11.846
-12.453
-13.082
-13.734
-14.407
-15.101
-15.815
-16.547
-17.297
-18.065
-18.849
-19.647
-20.46
-21.285
-22.122
-22.968
-23.823
-24.683
-25.547
-26.411
-27.273
-28.129
-28.977
-29.812
-30.631
-31.431
-32.206
-32.955
-33.671
-34.352
-34.992
-35.587
-36.132
-36.622
-37.054
-37.421
-37.721
-37.948
-38.099
-38.17
-38.159
-38.062
-37.877
-37.602
-37.233
-36.771
-36.215
-35.565
-34.821
-33.985
-33.061
-32.052
-30.964
-29.804
-28.577
-27.289
-25.949
-24.565
-23.145
-21.692
-20.214
-18.716
-17.207
-15.696
-14.192
-12.702
-11.234
-9.8
-8.411
-7.079
-5.812
-4.614
-3.487
-2.433
-1.46
-0.577
0.203
0.874
1.439
1.895
2.243
2.488
2.642
2.729
2.796
2.876
2.999
3.184
3.437
3.773
4.215
4.774
5.473
6.322
7.305
8.413
9.634
10.934
12.271
13.571
14.705
15.548
15.994
15.954
15.398
14.295
12.58
10.185
7.021
3.039
-1.706
-7.103
-13.084
-19.632
-26.661
-33.859
-40.603
-46.214
-50.26
-52.684
-53.59
-52.742
-49.847
-45.058
-39.108
-33.201
-28.289
-24.308
-20.554
-16.849
-13.251
-9.428
-4.35
4.231
18.62
39.547
66.555
99.124
136.731
178.677
223.194
266.195
302.58
328.16
339.699
334.841
311.457
267.117
200.871
114.794
13.113
-98.931
-215.829
-332.852
-444.639
-544.421
-626.298
-686.328
-722.653
-735.535
-725.999
-694.856
-644.732
-580.434
-507.188
-430.421
-354.613
-282.816
-218.27
-164.216
-122.033
-91.513
-71.453
-59.42
-53.274
-51.215
-50.526
-48.738
-44.552
-37.294
-27.141
-15.09
-1.904
11.488
23.497
33.015
39.56
42.941
43.551
42.011
38.798
34.629
30.452
26.931
24.475
23.287
23.289
24.399
26.592
29.75
33.711
38.328
43.46
49.008
54.918
61.113
67.472
73.844
80.061
85.976
91.496
96.566
101.162
105.272
108.899
112.074
114.842
117.266
119.401
121.298
123
124.55
126.002
127.419
128.864
130.402
132.073
133.904
135.911
138.105
140.487
143.053
145.787
148.667
151.675
154.797
158.018
161.326
164.704
168.132
171.588
175.051
178.501
181.918
185.28
188.569
191.764
194.846
197.798
200.604
203.246
205.704
207.96
209.994
211.788
213.325
214.588
215.562
216.232
216.587
216.617
216.315
215.673
214.688
213.356
211.678
209.653
207.284
204.577
201.538
198.173
194.494
190.51
186.235
181.682
176.867
171.807
166.519
161.023
155.337
149.482
143.48
137.352
131.119
124.804
118.429
112.016
105.587
99.164
92.769
86.423
80.144
73.952
67.865
61.9
56.073
50.398
44.89
39.56
34.419
29.478
24.744
20.225
15.926
11.853
8.007
4.391
1.006
-2.15
-5.078
-7.781
-10.263
-12.529
-14.585
-16.438
-18.095
-19.566
-20.858
-21.981
-22.946
-23.762
-24.441
-24.993
-25.43
-25.762
-26.001
-26.156
-26.24
-26.262
-26.233
-26.162
-26.058
-25.93
-25.786
-25.634
-25.48
-25.331
-25.192
-25.068
-24.964
-24.882
-24.827
-24.799
-24.801
-24.834
-24.898
-24.993
-25.119
-25.274
-25.458
-25.668
-25.903
-26.159
-26.435
-26.728
-27.033
-27.349
-27.671
-27.997
-28.322
-28.644
-28.959
-29.264
-29.556
-29.832
-30.091
-30.331
-30.548
-30.743
-30.913
-31.058
-31.177
-31.271
-31.339
-31.382
-31.401
-31.398
-31.373
-31.329
-31.268
-31.191
-31.101
-31
-30.889
-30.772
-30.651
-30.527
-30.404
-30.284
-30.17
-30.064
-29.968
-29.884
-29.814
-29.76
-29.721
-29.699
-29.694
-29.706
-29.734
-29.779
-29.84
-29.914
-30.002
-30.101
-30.209
-30.323
-30.439
-30.554
-30.666
-30.769
-30.859
-30.933
-30.987
-31.018
-31.022
-30.997
-30.939
-30.845
-30.712
-30.537
-30.318
-30.054
-29.741
-29.38
-28.969
-28.511
-28.006
-27.458
-26.87
-26.243
-25.584
-24.898
-24.187
-23.456
-22.706
-21.942
-21.166
-20.385
-19.602
-18.822
-18.051
-17.296
-16.568
-15.874
-15.22
-14.61
-14.046
-13.526
-13.055
-12.634
-12.268
-11.966
-11.732
-11.571
-11.488
-11.486
-11.558
-11.692
-11.861
-12.031
-12.171
-12.259
-12.275
-12.206
-12.04
-11.772
-11.392
-10.888
-10.252
-9.486
-8.597
-7.602
-6.525
-5.408
-4.331
-3.414
-2.786
-2.556
-2.792
-3.545
-4.872
-6.855
-9.597
-13.167
-17.554
-22.68
-28.487
-35.001
-42.189
-49.804
-57.309
-64.053
-69.567
-73.766
-76.728
-78.189
-77.852
-75.848
-72.893
-70.181
-68.656
-68.232
-68.17
-68.234
-68.41
-68.269
-66.643
-61.169
-49.467
-30.764
-5.543
25.651
62.293
103.641
147.848
190.712
226.986
252.379
263.615
258.3
234.246
188.972
121.526
34.053
-69.07
-182.458
-300.497
-418.373
-530.648
-630.474
-711.96
-771.251
-806.605
-818.439
-807.879
-775.827
-724.999
-660.264
-586.865
-510.173
-434.592
-363.116
-298.974
-245.406
-203.801
-173.96
-154.659
-143.511
-138.436
-137.628
-138.376
-138.163
-135.626
-130.073
-121.657
-111.342
-99.873
-88.157
-77.746
-69.733
-64.571
-62.411
-62.875
-65.321
-69.245
-73.944
-78.467
-82.19
-84.77
-86.037
-86.095
-85.043
-82.913
-79.829
-75.979
-71.519
-66.598
-61.33
-55.76
-49.982
-44.144
-38.403
-32.939
-27.872
-23.254
-19.118
-15.475
-12.329
-9.667
-7.45
-5.613
-4.097
-2.847
-1.814
-0.957
-0.221
0.463
1.167
1.966
2.916
4.046
5.381
6.936
8.719
10.734
12.969
15.405
18.027
20.824
23.784
26.901
30.16
33.54
37.024
40.588
44.213
47.88
51.568
55.258
58.93
62.564
66.144
69.653
73.071
76.378
79.553
82.575
85.421
88.071
90.507
92.706
94.653
96.331
97.726
98.825
99.617
100.094
100.246
100.069
99.557
98.709
97.524
96.001
94.146
91.962
89.455
86.635
83.509
80.09
76.391
72.424
68.207
63.755
59.086
54.218
49.171
43.965
38.622
33.161
27.606
21.977
16.297
10.588
4.871
-0.833
-6.504
-12.121
-17.666
-23.122
-28.469
-33.693
-38.778
-43.71
-48.476
-53.063
-57.461
-61.661
-65.653
-69.433
-72.993
-76.329
-79.438
-82.318
-84.969
-87.391
-89.586
-91.555
-93.304
-94.837
-96.159
-97.278
-98.2
-98.934
-99.489
-99.873
-100.096
-100.169
-100.101
-99.903
-99.586
-99.16
-98.636
-98.024
-97.335
-96.579
-95.765
-94.904
-94.003
-93.073
-92.12
-91.153
-90.178
-89.202
-88.231
-87.27
-86.324
-85.397
-84.491
-83.611
-82.759
-81.935
-81.141
-80.379
-79.648
-78.947
-78.277
-77.637
-77.024
-76.437
-75.875
-75.334
-74.814
-74.31
-73.821
-73.344
-72.875
-72.413
-71.953
-71.494
-71.032
-70.566
-70.092
-69.608
-69.113
-68.605
-68.083
-67.544
-66.989
-66.416
-65.825
-65.215
-64.588
-63.942
-63.279
-62.599
-61.902
-61.191
-60.467
-59.73
-58.983
-58.228
-57.466
-56.7
-55.931
-55.163
-54.397
-53.637
-52.884
-52.142
-51.413
-50.701
-50.007
-49.334
-48.685
-48.063
-47.468
-46.903
-46.37
-45.87
-45.404
-44.973
-44.578
-44.219
-43.896
-43.609
-43.357
-43.138
-42.953
-42.797
-42.67
-42.567
-42.486
-42.424
-42.377
-42.341
-42.313
-42.286
-42.257
-42.22
-42.17
-42.1
-42.005
-41.877
-41.711
-41.499
-41.237
-40.915
-40.529
-40.073
-39.54
-38.925
-38.222
-37.428
-36.535
-35.541
-34.443
-33.238
-31.925
-30.501
-28.968
-27.327
-25.583
-23.738
-21.795
-19.76
-17.636
-15.43
-13.149
-10.797
-8.379
-5.898
-3.364
-0.786
1.827
4.466
7.122
9.787
12.448
15.092
17.707
20.284
22.822
25.316
27.758
30.134
32.428
34.631
36.742
38.764
40.695
42.539
44.3
45.998
47.668
49.345
51.054
52.812
54.623
56.493
58.44
60.48
62.632
64.902
67.28
69.752
72.303
74.905
77.515
80.065
82.45
84.562
86.29
87.546
88.269
88.429
87.996
86.923
85.147
82.597
79.246
75.15
70.419
65.148
59.36
53.171
46.933
41.248
36.775
33.935
32.753
33.113
35.245
39.417
45.452
52.591
59.595
65.488
70.324
74.791
79.055
83.028
87.011
92.059
100.456
114.558
135.136
161.737
193.864
231.039
272.604
316.802
359.508
395.553
420.71
431.702
426.112
401.744
356.08
288.163
200.175
96.466
-17.592
-136.331
-254.852
-367.592
-467.539
-548.723
-607.286
-641.477
-651.732
-639.237
-604.96
-551.765
-484.725
-409.221
-330.69
-253.565
-180.832
-115.695
-61.394
-19.26
11.018
30.751
42.372
47.995
49.419
49.338
50.288
53.621
59.991
69.216
80.31
92.508
104.906
115.972
124.614
130.386
133.155
133.308
131.498
128.245
124.25
120.456
117.478
115.651
115.136
115.825
117.615
120.465
124.243
128.76
133.858
139.385
145.225
151.331
157.604
163.896
170.047
175.881
181.279
186.189
190.583
194.448
197.783
200.604
202.953
204.895
206.491
207.8
208.871
209.748
210.492
211.171
211.86
212.637
213.557
214.655
215.956
217.478
219.231
221.219
223.437
225.865
228.492
231.307
234.303
237.475
240.807
244.284
247.886
251.593
255.385
259.244
263.151
267.083
271.022
274.949
278.843
282.687
286.46
290.14
293.703
297.124
300.38
303.446
306.301
308.92
311.282
313.368
315.16
316.64
317.795
318.61
319.074
319.176
318.908
318.264
317.239
315.83
314.036
311.859
309.3
306.366
303.062
299.398
295.383
291.029
286.35
281.361
276.077
270.518
264.702
258.649
252.381
245.919
239.286
232.505
225.6
218.595
211.514
204.38
197.216
190.045
182.889
175.771
168.711
161.728
154.844
148.075
141.439
134.953
128.631
122.488
116.536
110.786
105.248
99.931
94.842
89.987
85.369
80.992
76.857
72.964
69.312
65.897
62.716
59.763
57.033
54.517
52.207
50.095
48.169
46.42
44.835
43.404
42.114
40.952
39.905
38.961
38.106
37.328
36.613
35.95
35.324
34.725
34.141
33.56
32.971
32.365
31.732
31.063
30.351
29.588
28.768
27.886
26.936
25.915
24.82
23.649
22.401
21.075
19.67
18.19
16.634
15.005
13.306
11.541
9.713
7.827
5.888
3.901
1.871
-0.194
-2.29
-4.41
-6.548
-8.697
-10.85
-13.001
-15.145
-17.274
-19.384
-21.467
-23.52
-25.536
-27.512
-29.443
-31.325
-33.154
-34.928
-36.644
-38.301
-39.895
-41.427
-42.895
-44.298
-45.638
-46.914
-48.126
-49.277
-50.367
-51.399
-52.374
-53.295
-54.164
-54.986
-55.763
-56.498
-57.196
-57.86
-58.494
-59.101
-59.687
-60.254
-60.805
-61.346
-61.88
-62.41
-62.939
-63.471
-64.009
-64.556
-65.113
-65.684
-66.27
-66.873
-67.495
-68.135
-68.796
-69.477
-70.18
-70.903
-71.648
-72.413
-73.196
-73.998
-74.815
-75.645
-76.485
-77.332
-78.182
-79.033
-79.88
-80.719
-81.547
-82.359
-83.152
-83.92
-84.66
-85.367
-86.035
-86.66
-87.238
-87.765
-88.235
-88.645
-88.99
-89.269
-89.478
-89.615
-89.677
-89.663
-89.569
-89.396
-89.143
-88.811
-88.4
-87.912
-87.351
-86.72
-86.025
-85.273
-84.468
-83.618
-82.728
-81.809
-80.866
-79.906
-78.933
-77.953
-76.974
-76.005
-75.054
-74.126
-73.23
-72.375
-71.571
-70.829
-70.158
-69.559
-69.033
-68.581
-68.205
-67.913
-67.712
-67.605
-67.589
-67.662
-67.825
-68.073
-68.398
-68.773
-69.161
-69.527
-69.84
-70.081
-70.238
-70.295
-70.239
-70.059
-69.739
-69.277
-68.677
-67.942
-67.083
-66.124
-65.097
-64.058
-63.11
-62.361
-61.92
-61.883
-62.3
-63.197
-64.614
-66.6
-69.223
-72.559
-76.602
-81.267
-86.5
-92.289
-98.539
-105.046
-111.318
-116.584
-120.307
-122.306
-122.53
-120.943
-117.541
-112.38
-106.118
-100.238
-95.821
-93.169
-92.053
-91.773
-91.775
-91.738
-90.496
-85.449
-74.208
-55.358
-28.519
5.25
44.886
89.736
137.866
185.162
226.631
257.352
273.182
271.96
251.705
209.841
145.373
59.944
-42.594
-156.65
-276.172
-396.357
-511.78
-615.596
-701.783
-765.902
-805.663
-821.281
-813.895
-784.414
-735.497
-671.868
-598.735
-521.743
-445.581
-373.433
-308.591
-254.231
-211.716
-180.938
-160.77
-148.767
-142.768
-140.908
-140.385
-138.743
-134.688
-127.499
-117.313
-105.097
-91.569
-77.671
-65.06
-54.872
-47.606
-43.484
-42.12
-42.916
-45.438
-48.983
-52.589
-55.581
-57.535
-58.241
-57.784
-56.249
-53.653
-50.114
-45.796
-40.846
-35.413
-29.601
-23.465
-17.076
-10.552
-4.038
2.303
8.323
13.928
19.068
23.719
27.872
31.533
34.728
37.506
39.929
42.06
43.95
45.647
47.197
48.654
50.084
51.555
53.135
54.868
56.784
58.903
61.24
63.801
66.585
69.582
72.772
76.141
79.677
83.37
87.21
91.181
95.265
99.444
103.695
108
112.339
116.692
121.038
125.357
129.628
133.834
137.954
141.97
145.858
149.597
153.164
156.536
159.693
162.613
165.276
167.663
169.757
171.542
173.005
174.135
174.919
175.351
175.422
175.128
174.466
173.434
172.033
170.265
168.135
165.647
162.81
159.633
156.128
152.306
148.181
143.771
139.09
134.158
128.994
123.617
118.049
112.312
106.429
100.421
94.313
88.128
81.889
75.621
69.346
63.088
56.867
50.706
44.626
38.647
32.788
27.068
21.503
16.11
10.905
5.901
1.111
-3.454
-7.784
-11.869
-15.702
-19.277
-22.59
-25.638
-28.417
-30.928
-33.171
-35.149
-36.863
-38.319
-39.523
-40.48
-41.199
-41.687
-41.955
-42.013
-41.872
-41.543
-41.039
-40.371
-39.555
-38.601
-37.526
-36.341
-35.061
-33.7
-32.272
-30.789
-29.266
-27.716
-26.15
-24.582
-23.022
-21.483
-19.974
-18.507
-17.089
-15.73
-14.438
-13.22
-12.082
-11.031
-10.071
-9.208
-8.443
-7.782
-7.225
-6.773
-6.429
-6.191
-6.059
-6.032
-6.108
-6.284
-6.558
-6.925
-7.381
-7.923
-8.545
-9.243
-10.01
-10.842
-11.732
-12.674
-13.663
-14.692
-15.756
-16.847
-17.962
-19.092
-20.233
-21.38
-22.526
-23.666
-24.795
-25.909
-27.003
-28.072
-29.112
-30.12
-31.093
-32.026
-32.918
-33.766
-34.568
-35.323
-36.03
-36.688
-37.296
-37.856
-38.367
-38.83
-39.246
-39.616
-39.943
-40.227
-40.472
-40.68
-40.852
-40.992
-41.102
-41.186
-41.246
-41.285
-41.306
-41.312
-41.306
-41.29
-41.267
-41.241
-41.214
-41.188
-41.167
-41.151
-41.143
-41.145
-41.158
-41.181
-41.215
-41.261
-41.317
-41.382
-41.457
-41.539
-41.626
-41.717
-41.81
-41.902
-41.989
-42.069
-42.138
-42.192
-42.227
-42.239
-42.225
-42.18
-42.101
-41.984
-41.825
-41.621
-41.368
-41.064
-40.704
-40.287
-39.809
-39.271
-38.669
-38.004
-37.276
-36.488
-35.644
-34.745
-33.797
-32.802
-31.766
-30.695
-29.593
-28.464
-27.309
-26.134
-24.945
-23.748
-22.55
-21.356
-20.172
-19.007
-17.873
-16.776
-15.725
-14.723
-13.767
-12.862
-12.013
-11.228
-10.519
-9.893
-9.347
-8.881
-8.495
-8.185
-7.941
-7.737
-7.529
-7.284
-6.976
-6.586
-6.112
-5.535
-4.838
-4.006
-3.02
-1.869
-0.57
0.867
2.43
4.085
5.786
7.463
8.986
10.231
11.094
11.493
11.392
10.758
9.529
7.631
4.97
1.495
-2.742
-7.631
-13.099
-19.14
-25.674
-32.386
-38.647
-43.76
-47.289
-49.198
-49.602
-48.261
-44.863
-39.555
-33.148
-26.945
-21.965
-18.162
-14.765
-11.5
-8.472
-5.355
-0.838
7.568
22.451
44.757
73.721
108.499
148.623
193.324
240.337
285.149
321.947
346.001
354.714
346.222
318.383
268.938
197.382
106.483
1.743
-110.75
-226.097
-339.864
-446.668
-539.802
-613.373
-664.405
-692.655
-699.367
-685.537
-652.154
-601.978
-540.13
-472.341
-403.091
-335.474
-271.727
-214.533
-166.751
-129.618
-102.402
-83.315
-70.54
-62.694
-58.468
-55.765
-52.319
-46.854
-39.03
-29.279
-18.349
-6.758
4.788
15.027
22.904
27.934
30.02
29.573
27.183
23.301
18.594
13.954
10.015
7.166
5.595
5.221
5.964
7.8
10.606
14.213
18.474
23.24
28.418
33.959
39.766
45.702
51.599
57.265
62.58
67.474
71.903
75.854
79.323
82.317
84.881
87.081
88.974
90.618
92.059
93.334
94.499
95.62
96.767
98.018
99.426
101.023
102.837
104.88
107.161
109.684
112.437
115.397
118.549
121.88
125.378
129.036
132.836
136.759
140.785
144.892
149.059
153.266
157.492
161.715
165.915
170.071
174.164
178.177
182.089
185.878
189.522
192.997
196.281
199.353
202.19
204.773
207.081
209.099
210.809
212.199
213.256
213.97
214.331
214.332
213.969
213.238
212.138
210.669
208.834
206.636
204.082
201.18
197.938
194.368
190.483
186.296
181.823
177.082
172.089
166.865
161.428
155.8
150.003
144.057
137.987
131.814
125.562
119.253
112.91
106.554
100.209
93.894
87.63
81.437
75.333
69.336
63.462
57.727
52.146
46.731
41.494
36.447
31.599
26.958
22.531
18.323
14.339
10.581
7.053
3.753
0.682
-2.162
-4.782
-7.183
-9.368
-11.343
-13.116
-14.693
-16.082
-17.292
-18.331
-19.21
-19.937
-20.523
-20.978
-21.311
-21.533
-21.654
-21.683
-21.631
-21.505
-21.315
-21.071
-20.778
-20.447
-20.083
-19.693
-19.283
-18.859
-18.425
-17.987
-17.548
-17.111
-16.68
-16.256
-15.841
-15.437
-15.044
-14.664
-14.296
-13.94
-13.595
-13.262
-12.94
-12.626
-12.321
-12.023
-11.732
-11.446
-11.164
-10.886
-10.611
-10.339
-10.069
-9.802
-9.536
-9.274
-9.015
-8.76
-8.511
-8.269
-8.035
-7.812
-7.6
-7.404
-7.224
-7.063
-6.924
-6.81
-6.722
-6.663
-6.636
-6.643
-6.686
-6.768
-6.891
-7.055
-7.263
-7.514
-7.809
-8.149
-8.531
-8.955
-9.419
-9.922
-10.461
-11.032
-11.634
-12.262
-12.912
-13.581
-14.262
-14.952
-15.643
-16.33
-17.007
-17.669
-18.308
-18.919
-19.494
-20.029
-20.518
-20.955
-21.334
-21.651
-21.9
-22.077
-22.178
-22.202
-22.146
-22.008
-21.788
-21.489
-21.114
-20.668
-20.152
-19.573
-18.936
-18.245
-17.507
-16.727
-15.909
-15.058
-14.181
-13.288
-12.388
-11.491
-10.605
-9.739
-8.905
-8.113
-7.371
-6.687
-6.064
-5.509
-5.03
-4.641
-4.357
-4.189
-4.138
-4.204
-4.385
-4.671
-5.052
-5.501
-5.983
-6.469
-6.934
-7.358
-7.728
-8.022
-8.211
-8.27
-8.172
-7.899
-7.446
-6.818
-6.028
-5.113
-4.128
-3.146
-2.27
-1.589
-1.192
-1.169
-1.596
-2.558
-4.139
-6.406
-9.408
-13.19
-17.754
-23.059
-29.035
-35.55
-42.456
-49.611
-56.806
-63.796
-70.297
-75.98
-80.537
-83.691
-85.102
-84.358
-81.187
-75.501
-67.491
-57.696
-46.677
-34.85
-22.694
-10.849
0.331
11.008
21.946
34.707
50.819
71.011
95.69
125.24
159.233
195.981
232.476
264.064
285.827
294.226
286.261
258.997
210.715
141.505
53.732
-47.55
-156.226
-267.091
-374.839
-473.462
-557.297
-621.63
-663.994
-684.516
-684.543
-665.385
-628.974
-578.669
-518.959
-454.99
-390.81
-329.25
-272.731
-223.343
-182.93
-152.248
-130.502
-115.756
-106.219
-100.167
-95.705
-91.416
-85.836
-77.963
-67.837
-56.071
-43.386
-30.79
-19.484
-10.18
-3.442
0.447
1.757
0.857
-1.8
-5.517
-9.462
-13.013
-15.734
-17.389
-17.991
-17.55
-16.068
-13.629
-10.368
-6.428
-1.944
2.98
8.288
13.916
19.759
25.691
31.544
37.156
42.427
47.3
51.745
55.747
59.297
62.404
65.109
67.477
69.566
71.43
73.11
74.643
76.083
77.492
78.939
80.495
82.204
84.097
86.194
88.51
91.056
93.834
96.832
100.03
103.41
106.961
110.671
114.531
118.524
122.628
126.822
131.083
135.391
139.725
144.062
148.378
152.651
156.861
160.986
165.006
168.9
172.643
176.213
179.585
182.735
185.641
188.28
190.632
192.676
194.395
195.772
196.795
197.451
197.73
197.622
197.123
196.228
194.934
193.242
191.153
188.671
185.804
182.558
178.944
174.974
170.661
166.021
161.07
155.828
150.314
144.55
138.557
132.359
125.981
119.448
112.783
106.014
99.167
92.266
85.339
78.411
71.505
64.647
57.86
51.165
44.585
38.14
31.847
25.726
19.791
14.059
8.543
3.254
-1.797
-6.602
-11.152
-15.443
-19.47
-23.23
-26.722
-29.947
-32.906
-35.602
-38.04
-40.226
-42.165
-43.867
-45.339
-46.591
-47.634
-48.479
-49.137
-49.62
-49.94
-50.109
-50.141
-50.048
-49.842
-49.535
-49.139
-48.667
-48.129
-47.537
-46.899
-46.227
-45.529
-44.813
-44.088
-43.361
-42.637
-41.924
-41.225
-40.546
-39.89
-39.259
-38.657
-38.084
-37.543
-37.033
-36.556
-36.111
-35.698
-35.316
-34.965
-34.643
-34.349
-34.082
-33.84
-33.623
-33.429
-33.256
-33.104
-32.971
-32.858
-32.762
-32.685
-32.626
-32.584
-32.56
-32.553
-32.565
-32.596
-32.647
-32.717
-32.809
-32.923
-33.06
-33.221
-33.408
-33.621
-33.861
-34.129
-34.424
-34.746
-35.094
-35.467
-35.864
-36.283
-36.723
-37.18
-37.653
-38.137
-38.631
-39.129
-39.628
-40.123
-40.609
-41.081
-41.533
-41.96
-42.357
-42.717
-43.036
-43.309
-43.53
-43.696
-43.8
-43.838
-43.807
-43.702
-43.52
-43.259
-42.917
-42.493
-41.988
-41.404
-40.744
-40.014
-39.215
-38.355
-37.437
-36.468
-35.454
-34.399
-33.307
-32.185
-31.041
-29.882
-28.718
-27.558
-26.41
-25.286
-24.195
-23.147
-22.149
-21.208
-20.329
-19.518
-18.785
-18.139
-17.598
-17.169
-16.854
-16.652
-16.559
-16.566
-16.656
-16.806
-16.978
-17.144
-17.276
-17.349
-17.345
-17.237
-16.998
-16.609
-16.04
-15.27
-14.305
-13.155
-11.841
-10.415
-8.926
-7.447
-6.085
-4.939
-4.107
-3.69
-3.773
-4.445
-5.79
-7.856
-10.701
-14.353
-18.772
-23.896
-29.619
-35.796
-42.312
-49.004
-55.615
-61.858
-67.41
-71.927
-75.129
-76.664
-76.089
-73.129
-67.679
-59.9
-50.317
-39.441
-27.639
-15.384
-3.276
8.341
19.56
31.177
44.774
61.7
82.568
107.628
137.067
170.669
207.081
243.333
274.789
296.833
306.148
300.207
276.666
233.379
169.633
87.399
-8.511
-112.396
-219.294
-324.573
-423.428
-510.105
-579.023
-627.215
-654.506
-661.911
-650.866
-623.033
-580.293
-526.591
-467.392
-406.789
-347.657
-292.487
-242.721
-199.713
-165.252
-139.252
-119.897
-105.781
-95.268
-86.43
-78.51
-70.739
-61.668
-50.922
-38.971
-26.147
-13.458
-2.26
7.021
14.096
18.479
20.282
19.793
17.244
13.379
9.136
5.068
1.638
-0.82
-2.273
-2.663
-1.925
-0.167
2.467
5.853
9.848
14.357
19.333
24.687
30.325
36.127
41.937
47.61
53.011
58.042
62.654
66.814
70.513
73.757
76.572
79.006
81.121
82.972
84.605
86.066
87.394
88.646
89.885
91.175
92.574
94.127
95.86
97.793
99.938
102.3
104.877
107.656
110.615
113.74
117.018
120.436
123.983
127.641
131.392
135.213
139.084
142.984
146.892
150.787
154.646
158.45
162.178
165.811
169.329
172.715
175.945
178.999
181.854
184.49
186.887
189.026
190.887
192.454
193.713
194.649
195.253
195.514
195.425
194.981
194.178
193.014
191.488
189.604
187.364
184.774
181.843
178.578
174.991
171.094
166.901
162.428
157.691
152.708
147.498
142.082
136.479
130.712
124.803
118.775
112.65
106.452
100.204
93.928
87.649
81.387
75.165
69.003
62.921
56.939
51.074
45.343
39.761
34.343
29.102
24.05
19.198
14.555
10.128
5.925
1.95
-1.791
-5.298
-8.567
-11.6
-14.396
-16.959
-19.29
-21.396
-23.279
-24.948
-26.409
-27.669
-28.738
-29.623
-30.335
-30.884
-31.28
-31.532
-31.653
-31.652
-31.541
-31.328
-31.025
-30.642
-30.188
-29.673
-29.105
-28.492
-27.843
-27.165
-26.466
-25.751
-25.028
-24.3
-23.574
-22.854
-22.144
-21.448
-20.768
-20.108
-19.469
-18.854
-18.263
-17.699
-17.162
-16.652
-16.17
-15.715
-15.288
-14.888
-14.515
-14.169
-13.848
-13.553
-13.284
-13.041
-12.823
-12.63
-12.464
-12.324
-12.211
-12.125
-12.067
-12.038
-12.039
-12.07
-12.134
-12.23
-12.361
-12.527
-12.729
-12.969
-13.246
-13.563
-13.918
-14.313
-14.747
-15.221
-15.736
-16.29
-16.883
-17.514
-18.183
-18.887
-19.625
-20.394
-21.19
-22.01
-22.851
-23.707
-24.576
-25.451
-26.327
-27.201
-28.066
-28.916
-29.747
-30.55
-31.32
-32.051
-32.736
-33.368
-33.942
-34.45
-34.889
-35.253
-35.537
-35.737
-35.849
-35.87
-35.795
-35.622
-35.35
-34.978
-34.504
-33.929
-33.256
-32.488
-31.632
-30.692
-29.675
-28.586
-27.433
-26.223
-24.965
-23.662
-22.321
-20.948
-19.55
-18.139
-16.725
-15.316
-13.923
-12.558
-11.231
-9.952
-8.732
-7.576
-6.487
-5.473
-4.541
-3.703
-2.973
-2.36
-1.865
-1.49
-1.23
-1.076
-1.012
-1.013
-1.043
-1.072
-1.072
-1.02
-0.898
-0.677
-0.337
0.139
0.778
1.597
2.598
3.775
5.101
6.527
8.004
9.461
10.8
11.934
12.753
13.153
13.049
12.346
10.973
8.878
6.001
2.298
-2.222
-7.501
-13.432
-19.842
-26.612
-33.62
-40.653
-47.465
-53.726
-59.064
-63.168
-65.762
-66.502
-64.968
-60.876
-54.16
-45.09
-34.315
-22.499
-10.11
2.392
14.37
25.511
36.07
46.916
59.778
76.309
97.229
122.901
153.655
188.811
226.361
262.999
293.696
313.37
318.49
305.954
272.77
217.531
140.785
45.293
-63.398
-178.965
-296.148
-409.135
-511.357
-597.111
-661.81
-702.935
-720.731
-716.338
-690.722
-646.491
-587.865
-519.589
-447.069
-374.774
-305.751
-243.181
-190.067
-147.799
-116.523
-95.339
-81.993
-74.492
-71.06
-69.035
-66.163
-61.223
-53.478
-43.028
-30.771
-17.391
-3.812
8.36
18.059
24.834
28.487
29.399
28.147
25.151
21.102
16.958
13.396
10.837
9.501
9.317
10.215
12.194
15.152
18.937
23.4
28.39
33.797
39.558
45.596
51.79
57.992
64.034
69.76
75.076
79.93
84.296
88.162
91.532
94.427
96.894
98.995
100.792
102.337
103.677
104.858
105.936
106.978
108.052
109.227
110.548
112.044
113.735
115.636
117.753
120.085
122.621
125.342
128.233
131.281
134.476
137.808
141.261
144.816
148.453
152.152
155.893
159.656
163.42
167.167
170.875
174.525
178.1
181.58
184.947
188.18
191.258
194.159
196.862
199.348
201.598
203.591
205.312
206.746
207.879
208.7
209.199
209.369
209.203
208.697
207.848
206.657
205.123
203.251
201.044
198.51
195.657
192.495
189.035
185.29
181.274
177.004
172.496
167.769
162.841
157.731
152.462
147.053
141.526
135.904
130.208
124.46
118.683
112.898
107.127
101.39
95.707
90.096
84.577
79.166
73.878
68.729
63.732
58.9
54.245
49.775
45.5
41.427
37.562
33.91
30.475
27.258
24.262
21.484
18.926
16.583
14.452
12.53
10.81
9.286
7.951
6.796
5.814
4.995
4.328
3.805
3.414
3.146
2.989
2.932
2.966
3.08
3.263
3.505
3.797
4.13
4.495
4.883
5.286
5.698
6.112
6.522
6.923
7.308
7.676
8.021
8.34
8.632
8.895
9.126
9.326
9.494
9.631
9.737
9.813
9.862
9.884
9.883
9.861
9.819
9.761
9.69
9.608
9.517
9.422
9.323
9.225
9.128
9.035
8.949
8.869
8.798
8.735
8.683
8.641
8.608
8.585
8.571
8.565
8.565
8.57
8.579
8.589
8.598
8.603
8.602
8.591
8.569
8.53
8.473
8.394
8.289
8.157
7.994
7.798
7.566
7.295
6.985
6.632
6.235
5.794
5.307
4.775
4.198
3.578
2.914
2.211
1.469
0.693
-0.115
-0.952
-1.813
-2.694
-3.59
-4.498
-5.411
-6.324
-7.231
-8.125
-9.001
-9.851
-10.669
-11.449
-12.185
-12.869
-13.498
-14.066
-14.567
-14.997
-15.351
-15.625
-15.816
-15.921
-15.938
-15.867
-15.707
-15.46
-15.13
-14.719
-14.235
-13.679
-13.059
-12.381
-11.651
-10.875
-10.057
-9.203
-8.317
-7.408
-6.484
-5.553
-4.624
-3.704
-2.804
-1.935
-1.105
-0.323
0.405
1.079
1.691
2.234
2.698
3.067
3.335
3.503
3.568
3.535
3.413
3.212
2.963
2.702
2.461
2.27
2.153
2.122
2.203
2.419
2.787
3.337
4.084
5.016
6.125
7.388
8.759
10.194
11.612
12.898
13.938
14.613
14.829
14.51
13.577
11.963
9.59
6.372
2.286
-2.63
-8.305
-14.59
-21.424
-28.784
-36.36
-43.793
-50.663
-56.451
-60.996
-64.267
-65.792
-65.023
-61.969
-56.678
-49.722
-42.189
-34.142
-25.394
-16.444
-7.798
0.539
8.797
18.478
32.082
50.473
73.705
101.981
135.183
172.914
213.746
253.854
287.612
310.509
319.283
311.256
284.09
235.205
163.741
72.275
-33.851
-148.692
-267.025
-384.066
-494.288
-590.634
-666.998
-720.283
-750.01
-757.272
-742.974
-707.979
-655.064
-589.576
-517.522
-443.688
-371.505
-303.523
-242.812
-192.612
-154.361
-127.346
-109.576
-98.962
-93.861
-92.64
-92.882
-92.038
-88.62
-82.248
-73.441
-63.056
-51.751
-40.375
-30.278
-22.635
-18.013
-16.475
-17.603
-20.785
-25.5
-31.1
-36.721
-41.682
-45.589
-48.261
-49.746
-50.15
-49.515
-47.936
-45.577
-42.576
-39.051
-35.11
-30.793
-26.163
-21.347
-16.474
-11.684
-7.111
-2.819
1.162
4.801
8.096
11.067
13.729
16.12
18.274
20.203
21.931
23.492
24.923
26.294
27.678
29.143
30.768
32.61
34.711
37.114
39.845
42.908
46.328
50.131
54.364
59.109
64.419
70.302
76.754
83.736
91.19
99.053
107.231
115.602
124.061
132.509
