70.913
66.337
48.44
59.902
36.766
8.658
7.662
19.064
22.642
20.435
19.543
21.547
25.283
29.162
32.045
32.668
30.728
26.458
19.607
10.783
0.744
-9.498
-17.99
-23.74
-26.685
-26.887
-24.931
-21.482
-16.872
-11.765
-7.19
-3.717
-1.607
-0.972
-1.583
-3.228
-5.809
-9.038
-12.503
-15.943
-19.189
-22.167
-24.931
-27.475
-29.755
-31.768
-33.525
-35.041
-36.331
-37.381
-38.157
-38.642
-38.824
-38.72
-38.369
-37.803
-37.054
-36.15
-35.112
-33.98
-32.789
-31.573
-30.363
-29.18
-28.041
-26.979
-26.024
-25.213
-24.588
-24.172
-23.97
-23.987
-24.219
-24.659
-25.302
-26.13
-27.118
-28.248
-29.498
-30.852
-32.297
-33.811
-35.369
-36.945
-38.508
-40.035
-41.51
-42.92
-44.253
-45.502
-46.663
-47.733
-48.716
-49.613
-50.426
-51.155
-51.801
-52.366
-52.855
-53.274
-53.629
-53.928
-54.175
-54.378
-54.542
-54.674
-54.778
-54.862
-54.934
-55
-55.062
-55.121
-55.177
-55.225
-55.263
-55.282
-55.268
-55.207
-55.092
-54.911
-54.661
-54.336
-53.925
-53.418
-52.804
-52.08
-51.255
-50.345
-49.362
-48.328
-47.275
-46.251
-45.322
-44.553
-43.99
-43.68
-43.677
-44.032
-44.808
-46.051
-47.781
-50.012
-52.752
-56.005
-59.794
-64.111
-68.884
-74.026
-79.443
-84.984
-90.481
-95.68
-100.203
-103.702
-105.923
-106.683
-105.876
-103.584
-100.014
-95.553
-90.797
-86.299
-82.588
-80.009
-78.671
-78.427
-78.494
-77.616
-74.619
-68.26
-58.331
-46.114
-32.298
-17.712
-1.693
18.779
45.121
78.007
115.463
151.587
180.287
194.076
186.003
152.741
93.988
14.253
-78.567
-177.634
-278.807
-380.804
-483.15
-581.968
-669.025
-734.591
-771.371
-778.167
-759.707
-723.089
-674.18
-615.958
-549.718
-477.561
-404.092
-335.241
-275.826
-228.167
-191.062
-161.5
-137.517
-118.089
-103.523
-94.834
-91.164
-90.64
-91.181
-90.454
-87.475
-82.388
-75.437
-67.136
-58.227
-49.338
-41.251
-34.832
-30.366
-27.738
-26.702
-26.82
-27.644
-28.799
-29.817
-30.204
-29.722
-28.305
-25.991
-22.938
-19.26
-15.044
-10.415
-5.511
-0.448
4.673
9.774
14.802
19.683
24.339
28.693
32.667
36.222
39.346
42.048
44.355
46.301
47.925
49.274
50.407
51.376
52.233
53.024
53.788
54.568
55.408
56.348
57.431
58.686
60.137
61.8
63.682
65.782
68.09
70.589
73.258
76.079
79.032
82.094
85.249
88.483
91.79
95.173
98.627
102.139
105.691
109.253
112.806
116.341
119.852
123.336
126.793
130.215
133.606
136.987
140.353
143.688
146.951
150.076
153.013
155.73
158.201
160.415
162.35
163.974
165.261
166.19
166.735
166.875
166.569
165.757
164.41
162.528
160.139
157.306
154.077
150.479
146.543
142.295
137.763
132.987
127.995
122.803
117.44
111.94
106.353
100.752
95.183
89.67
84.219
78.81
73.436
68.104
62.817
57.575
52.385
47.248
42.181
37.209
32.349
27.61
22.991
18.48
14.075
9.786
5.628
1.624
-2.21
-5.861
-9.317
-12.564
-15.591
-18.393
-20.973
-23.338
-25.497
-27.451
-29.204
-30.755
-32.108
-33.27
-34.249
-35.053
-35.692
-36.174
-36.512
-36.718
-36.803
-36.778
-36.651
-36.429
-36.122
-35.737
-35.284
-34.771
-34.208
-33.602
-32.963
-32.3
-31.623
-30.938
-30.254
-29.577
-28.913
-28.269
-27.649
-27.059
-26.503
-25.985
-25.508
-25.075
-24.69
-24.353
-24.066
-23.83
-23.646
-23.512
-23.429
-23.395
-23.409
-23.468
-23.571
-23.716
-23.9
-24.119
-24.371
-24.652
-24.958
-25.285
-25.629
-25.984
-26.346
-26.709
-27.068
-27.419
-27.755
-28.072
-28.363
-28.624
-28.85
-29.037
-29.178
-29.269
-29.307
-29.288
-29.209
-29.066
-28.858
-28.584
-28.243
-27.834
-27.36
-26.82
-26.215
-25.549
-24.822
-24.038
-23.198
-22.305
-21.363
-20.374
-19.345
-18.28
-17.183
-16.061
-14.921
-13.768
-12.609
-11.451
-10.294
-9.143
-8
-6.872
-5.767
-4.689
-3.64
-2.623
-1.641
-0.692
0.225
1.119
2.009
2.911
3.837
4.796
5.789
6.817
7.889
9.015
10.203
11.458
12.773
14.143
15.571
17.05
18.558
20.05
21.448
22.683
23.701
24.458
24.929
25.071
24.817
24.108
22.888
21.11
18.763
15.805
12.143
7.779
2.829
-2.468
-7.717
-12.57
-16.81
-20.197
-22.419
-23.307
-22.924
-21.641
-20.168
-19.155
-18.923
-19.665
-21.627
-24.901
-29.207
-33.738
-37.118
-37.621
-33.784
-24.941
-10.478
9.518
33.805
62.041
93.75
128.222
166.043
205.952
244.82
279.57
305.844
319.685
318.228
297.946
256.409
193.607
111.788
15.923
-89.013
-200.028
-314.461
-429.099
-537.094
-627.969
-692.377
-723.956
-723.062
-695.644
-648.387
-588.625
-520.832
-447.756
-373.619
-302.01
-237.482
-183.876
-141.775
-109.826
-84.96
-64.683
-48.232
-36.174
-29.341
-26.764
-26.316
-25.681
-23.062
-18.189
-11.567
-3.573
5.184
13.932
21.869
27.975
31.728
33.265
32.893
31.075
28.308
25.022
21.756
19.131
17.504
16.989
17.587
19.145
21.542
24.709
28.51
32.791
37.422
42.273
47.251
52.284
57.269
62.097
66.664
70.866
74.642
77.969
80.838
83.269
85.294
86.946
88.274
89.334
90.18
90.866
91.445
91.96
92.463
93.003
93.63
94.395
95.332
96.46
97.793
99.335
101.084
103.04
105.192
107.527
110.032
112.697
115.511
118.466
121.55
124.746
128.04
131.413
134.849
138.332
141.845
145.37
148.889
152.384
155.838
159.232
162.548
165.766
168.865
171.825
174.624
177.244
179.665
181.869
183.839
185.559
187.015
188.193
189.083
189.675
189.958
189.927
189.576
188.9
187.897
186.567
184.911
182.929
180.628
178.012
175.089
171.868
168.359
164.574
160.528
156.234
151.709
146.969
142.033
136.92
131.649
126.241
120.716
115.096
109.402
103.654
97.876
92.086
86.307
80.557
74.857
69.225
63.679
58.237
52.916
47.73
42.694
37.822
33.127
28.619
24.31
20.206
16.317
12.648
9.203
5.987
3.001
0.246
-2.279
-4.575
-6.646
-8.496
-10.132
-11.559
-12.785
-13.818
-14.669
-15.347
-15.862
-16.227
-16.452
-16.55
-16.533
-16.412
-16.201
-15.912
-15.556
-15.148
-14.697
-14.217
-13.718
-13.212
-12.71
-12.221
-11.754
-11.32
-10.925
-10.578
-10.285
-10.053
-9.886
-9.789
-9.765
-9.818
-9.948
-10.158
-10.446
-10.813
-11.256
-11.774
-12.362
-13.018
-13.736
-14.513
-15.344
-16.222
-17.142
-18.097
-19.081
-20.086
-21.107
-22.135
-23.163
-24.183
-25.189
-26.171
-27.124
-28.039
-28.909
-29.726
-30.484
-31.176
-31.794
-32.332
-32.785
-33.147
-33.414
-33.581
-33.646
-33.607
-33.462
-33.212
-32.857
-32.399
-31.84
-31.183
-30.43
-29.586
-28.654
-27.638
-26.542
-25.373
-24.135
-22.837
-21.485
-20.088
-18.654
-17.19
-15.706
-14.21
-12.709
-11.213
-9.728
-8.264
-6.829
-5.432
-4.086
-2.799
-1.575
-0.414
0.687
1.734
2.731
3.69
4.626
5.554
6.484
7.425
8.38
9.355
10.355
11.392
12.479
13.621
14.814
16.046
17.295
18.543
19.764
20.917
21.945
22.795
23.42
23.785
23.86
23.607
22.991
21.976
20.537
18.663
16.336
13.553
10.315
6.626
2.534
-1.898
-6.635
-11.555
-16.467
-21.148
-25.249
-28.458
-30.625
-31.512
-30.829
-28.604
-25.014
-20.48
-15.853
-11.677
-8.212
-6.003
-5.531
-6.855
-9.55
-12.201
-12.829
-10.075
-3.756
5.111
15.662
27.431
41.055
59.753
86.103
121.277
165.205
212.487
255.127
285.873
296.919
283.615
245.8
184.713
103.946
9.323
-95.128
-206.843
-322.703
-439.933
-552.342
-649.387
-721.183
-760.397
-765.727
-742.803
-699.393
-642.588
-576.577
-502.496
-422.247
-339.924
-261.695
-194.714
-142.952
-106.262
-81.483
-63.752
-50.068
-39.653
-32.514
-28.846
-27.399
-25.979
-23.039
-17.676
-9.919
-0.451
9.969
20.375
29.698
36.95
41.64
43.823
43.821
42.15
39.331
35.847
32.284
29.258
27.157
26.139
26.216
27.264
29.172
31.869
35.236
39.129
43.421
47.993
52.747
57.607
62.482
67.266
71.858
76.16
80.089
83.602
86.684
89.34
91.598
93.49
95.055
96.345
97.417
98.33
99.139
99.897
100.649
101.444
102.333
103.364
104.58
106.01
107.669
109.566
111.699
114.068
116.665
119.478
122.491
125.686
129.051
132.573
136.237
140.03
143.931
147.923
151.984
156.095
160.238
164.393
168.539
172.656
176.724
180.723
184.634
188.434
192.102
195.617
198.954
202.094
205.015
207.698
210.123
212.273
214.131
215.685
216.92
217.826
218.394
218.615
218.484
217.995
217.147
215.937
214.368
212.44
210.158
207.528
204.558
201.256
197.632
193.7
189.473
184.965
180.194
175.177
169.932
164.479
158.838
153.032
147.082
141.009
134.838
128.589
122.287
115.953
109.609
103.278
96.98
90.735
84.563
78.483
72.512
66.669
60.968
55.425
50.053
44.865
39.872
35.085
30.51
26.157
22.03
18.135
14.474
11.049
7.86
4.906
2.185
-0.308
-2.577
-4.629
-6.47
-8.109
-9.555
-10.818
-11.908
-12.836
-13.614
-14.253
-14.765
-15.164
-15.461
-15.668
-15.798
-15.864
-15.877
-15.848
-15.789
-15.711
-15.625
-15.539
-15.463
-15.407
-15.377
-15.382
-15.427
-15.518
-15.661
-15.859
-16.116
-16.434
-16.815
-17.259
-17.768
-18.342
-18.978
-19.676
-20.433
-21.247
-22.114
-23.032
-23.996
-25.002
-26.046
-27.122
-28.225
-29.352
-30.497
-31.655
-32.822
-33.991
-35.159
-36.321
-37.471
-38.606
-39.72
-40.81
-41.871
-42.9
-43.893
-44.847
-45.759
-46.626
-47.446
-48.216
-48.934
-49.6
-50.211
-50.767
-51.267
-51.713
-52.104
-52.442
-52.729
-52.967
-53.16
-53.31
-53.421
-53.495
-53.536
-53.548
-53.533
-53.494
-53.435
-53.358
-53.269
-53.172
-53.071
-52.97
-52.873
-52.783
-52.705
-52.645
-52.606
-52.588
-52.594
-52.625
-52.685
-52.78
-52.913
-53.08
-53.277
-53.5
-53.741
-53.996
-54.252
-54.488
-54.685
-54.829
-54.904
-54.908
-54.838
-54.681
-54.428
-54.067
-53.593
-53.021
-52.367
-51.635
-50.843
-50.016
-49.192
-48.44
-47.824
-47.403
-47.228
-47.343
-47.784
-48.596
-49.817
-51.488
-53.647
-56.305
-59.467
-63.13
-67.291
-71.97
-77.088
-82.454
-87.799
-92.77
-97.063
-100.502
-102.844
-103.757
-103.173
-101.211
-98.256
-95.107
-92.265
-89.943
-88.594
-88.65
-90.211
-92.885
-95.24
-95.383
-92.212
-85.87
-77.492
-67.701
-55.959
-40.484
-18.48
11.434
48.379
89.95
131.687
168.417
196.262
211.192
208.896
186.375
141.171
73.114
-13.829
-114.621
-224.427
-339.651
-457.304
-570.139
-675.815
-774.634
-842.759
-856.521
-833.155
-794.751
-739.362
-667.596
-588.512
-508.04
-429.148
-355.507
-292.005
-240.889
-202.355
-174.739
-154.022
-137.641
-124.628
-115.029
-109.532
-107.38
-106.724
-105.525
-102.248
-96.702
-89.386
-80.894
-72.056
-63.56
-56.085
-50.45
-46.92
-45.329
-45.366
-46.522
-48.3
-50.287
-51.978
-52.876
-52.737
-51.488
-49.179
-45.966
-41.97
-37.294
-32.086
-26.505
-20.692
-14.765
-8.814
-2.924
2.81
8.282
13.386
18.056
22.261
25.99
29.259
32.095
34.528
36.609
38.398
39.95
41.323
42.57
43.738
44.879
46.046
47.291
48.667
50.21
51.945
53.886
56.043
58.415
61.003
63.798
66.785
69.954
73.294
76.794
80.446
84.237
88.151
92.173
96.284
100.467
104.704
108.978
113.27
117.562
121.835
126.069
130.248
134.35
138.354
142.238
145.981
149.558
152.951
156.136
159.095
161.807
164.256
166.424
168.298
169.863
171.109
172.024
172.601
172.831
172.71
172.235
171.403
170.214
168.671
166.777
164.537
161.958
159.05
155.822
152.286
148.456
144.346
139.972
135.351
130.501
125.443
120.195
114.778
109.216
103.528
97.738
91.868
85.941
79.978
74.002
68.035
62.097
56.209
50.391
44.661
39.039
33.541
28.184
22.983
17.952
13.103
8.45
4.001
-0.233
-4.245
-8.028
-11.576
-14.886
-17.954
-20.779
-23.36
-25.699
-27.796
-29.656
-31.282
-32.681
-33.859
-34.822
-35.58
-36.14
-36.513
-36.709
-36.738
-36.612
-36.342
-35.94
-35.418
-34.788
-34.062
-33.251
-32.369
-31.425
-30.432
-29.401
-28.342
-27.265
-26.181
-25.099
-24.028
-22.976
-21.953
-20.965
-20.019
-19.121
-18.278
-17.494
-16.773
-16.119
-15.535
-15.024
-14.586
-14.223
-13.935
-13.721
-13.58
-13.51
-13.509
-13.572
-13.697
-13.879
-14.113
-14.395
-14.718
-15.079
-15.47
-15.886
-16.321
-16.769
-17.222
-17.675
-18.121
-18.553
-18.963
-19.346
-19.695
-20.003
-20.264
-20.471
-20.619
-20.703
-20.716
-20.655
-20.515
-20.293
-19.985
-19.589
-19.105
-18.532
-17.871
-17.124
-16.294
-15.385
-14.4
-13.344
-12.223
-11.043
-9.809
-8.528
-7.207
-5.851
-4.47
-3.071
-1.663
-0.257
1.141
2.519
3.87
5.184
6.449
7.658
8.803
9.881
10.882
11.799
12.621
13.341
13.961
14.479
14.898
15.221
15.451
15.6
15.687
15.729
15.745
15.747
15.74
15.731
15.735
15.764
15.832
15.948
16.102
16.285
16.498
16.728
16.957
17.151
17.249
17.193
16.93
16.414
15.602
14.459
12.947
11.03
8.67
5.836
2.521
-1.281
-5.561
-10.306
-15.527
-21.132
-26.925
-32.643
-37.933
-42.486
-46.123
-48.595
-49.574
-49.014
-47.037
-44.003
-40.684
-37.57
-34.874
-33.07
-32.594
-33.531
-35.512
-37.205
-36.748
-32.85
-25.348
-15.312
-3.638
9.253
23.958
43.605
70.824
106.902
152.289
202.381
249.791
287.235
305.479
298.059
263.02
200.847
117.226
20.365
-83.467
-190.21
-298.775
-408.795
-515.856
-611.256
-684.417
-726.324
-734.797
-713.775
-670.164
-612.197
-545.027
-472.112
-397.606
-324.974
-258.909
-203.042
-157.837
-122.513
-94.226
-70.758
-52.261
-39.086
-32.306
-31.667
-33.889
-35.928
-35.058
-29.52
-20.755
-10.187
0.884
10.544
18.647
24.951
29.004
31.601
32.986
32.878
31.717
29.189
25.036
20.892
17.688
16.444
18.449
22.435
27.326
32.4
36.443
40.076
43.956
48.139
53.009
58.219
63.317
68.263
72.912
77.183
81.09
84.564
87.561
90.112
92.25
94.001
95.416
96.556
97.477
98.243
98.915
99.534
100.149
100.814
101.582
102.504
103.616
104.941
106.491
108.273
110.29
112.542
115.02
117.71
120.602
123.685
126.948
130.382
133.974
137.708
141.566
145.528
149.577
153.693
157.857
162.049
166.248
170.433
174.584
178.68
182.699
186.618
190.413
194.06
197.535
200.816
203.879
206.704
209.269
211.557
213.549
215.229
216.584
217.6
218.266
218.573
218.513
218.081
217.273
216.086
214.522
212.581
210.268
207.588
204.549
201.161
197.435
193.384
189.021
184.363
179.426
174.23
168.792
163.134
157.277
151.242
145.051
138.728
132.295
125.774
119.19
112.564
105.919
99.276
92.658
86.084
79.574
73.148
66.824
60.619
54.55
48.631
42.877
37.3
31.912
26.723
21.743
16.979
12.438
8.125
4.044
0.198
-3.412
-6.784
-9.92
-12.821
-15.49
-17.931
-20.147
-22.145
-23.93
-25.509
-26.89
-28.08
-29.089
-29.924
-30.595
-31.112
-31.484
-31.721
-31.833
-31.83
-31.722
-31.519
-31.231
-30.868
-30.44
-29.957
-29.426
-28.858
-28.261
-27.644
-27.014
-26.38
-25.748
-25.127
-24.522
-23.94
-23.386
-22.866
-22.384
-21.945
-21.552
-21.207
-20.915
-20.676
-20.493
-20.367
-20.298
-20.287
-20.334
-20.438
-20.597
-20.811
-21.078
-21.393
-21.756
-22.162
-22.607
-23.087
-23.598
-24.135
-24.693
-25.266
-25.849
-26.435
-27.018
-27.593
-28.152
-28.691
-29.203
-29.682
-30.125
-30.526
-30.883
-31.191
-31.45
-31.655
-31.806
-31.9
-31.937
-31.915
-31.835
-31.696
-31.498
-31.243
-30.935
-30.577
-30.173
-29.727
-29.245
-28.732
-28.192
-27.634
-27.061
-26.481
-25.899
-25.323
-24.762
-24.226
-23.723
-23.254
-22.822
-22.425
-22.06
-21.724
-21.409
-21.101
-20.791
-20.47
-20.131
-19.773
-19.389
-18.971
-18.512
-18
-17.429
-16.81
-16.151
-15.466
-14.775
-14.094
-13.459
-12.921
-12.524
-12.308
-12.309
-12.561
-13.101
-13.981
-15.237
-16.894
-18.969
-21.472
-24.409
-27.795
-31.632
-35.886
-40.523
-45.503
-50.708
-55.972
-61.059
-65.623
-69.374
-72.095
-73.503
-73.372
-71.752
-68.863
-65.179
-61.419
-58.009
-55.278
-53.764
-53.769
-55.243
-57.466
-58.869
-57.945
-53.629
-45.929
-35.779
-23.218
-8.305
9.803
33.679
63.644
99.432
139.844
179.816
214.981
240.177
248.433
234.922
196.206
133.008
51.265
-41.027
-136.645
-232.976
-330.33
-428.577
-524.247
-608.495
-671.136
-704.943
-708.625
-686.373
-644.718
-590.658
-528.327
-460.729
-391.877
-325.301
-265.889
-217.47
-180.431
-153.093
-131.833
-113.785
-98.05
-85.22
-76.419
-71.035
-67.323
-63.332
-57.468
-49.579
-40.243
-29.881
-19.106
-8.629
0.872
8.548
13.97
17.271
18.726
18.723
17.68
15.963
14.031
12.41
11.43
11.234
11.854
13.199
15.191
17.776
20.838
24.243
27.885
31.678
35.583
39.576
43.603
47.601
51.496
55.213
58.701
61.92
64.848
67.489
69.864
72.014
74.014
75.941
77.861
79.813
81.804
83.842
85.945
88.136
90.447
92.904
95.522
98.322
101.321
104.531
107.951
111.562
115.324
119.19
123.128
127.129
131.205
135.364
139.605
143.919
148.297
152.732
157.216
161.732
166.25
170.74
175.179
179.55
183.848
188.067
192.191
196.195
200.044
203.705
207.152
210.358
213.295
215.936
218.253
220.23
221.856
223.123
224.023
224.543
224.671
224.399
223.721
222.637
221.147
219.253
216.958
214.27
211.197
207.751
203.944
199.789
195.297
190.483
185.363
179.955
174.28
168.356
162.207
155.853
149.32
142.633
135.816
128.895
121.894
114.837
107.751
100.66
93.587
86.557
79.591
72.712
65.941
59.297
52.8
46.467
40.316
34.36
28.615
23.094
17.806
12.762
7.971
3.439
-0.829
-4.828
-8.555
-12.01
-15.192
-18.104
-20.747
-23.126
-25.247
-27.116
-28.741
-30.13
-31.293
-32.239
-32.98
-33.526
-33.889
-34.082
-34.117
-34.006
-33.763
-33.399
-32.929
-32.364
-31.718
-31.002
-30.23
-29.412
-28.559
-27.682
-26.792
-25.898
-25.008
-24.132
-23.277
-22.451
-21.659
-20.908
-20.202
-19.547
-18.947
-18.403
-17.92
-17.499
-17.142
-16.849
-16.622
-16.459
-16.362
-16.329
-16.358
-16.448
-16.597
-16.801
-17.057
-17.363
-17.714
-18.106
-18.535
-18.997
-19.486
-19.999
-20.532
-21.078
-21.635
-22.196
-22.757
-23.314
-23.862
-24.396
-24.911
-25.403
-25.867
-26.3
-26.696
-27.051
-27.361
-27.621
-27.829
-27.98
-28.07
-28.097
-28.058
-27.95
-27.772
-27.524
-27.205
-26.816
-26.359
-25.835
-25.247
-24.599
-23.892
-23.131
-22.32
-21.463
-20.563
-19.624
-18.651
-17.649
-16.624
-15.583
-14.53
-13.472
-12.417
-11.371
-10.343
-9.339
-8.363
-7.418
-6.512
-5.649
-4.84
-4.091
-3.402
-2.776
-2.212
-1.711
-1.268
-0.873
-0.506
-0.149
0.215
0.597
0.999
1.427
1.89
2.399
2.962
3.582
4.251
4.959
5.707
6.483
7.26
7.996
8.62
9.058
9.253
9.155
8.723
7.929
6.724
5.059
2.9
0.213
-3.019
-6.788
-11.127
-16.077
-21.563
-27.418
-33.365
-39.02
-44.09
-48.409
-51.711
-53.674
-54.217
-53.452
-51.782
-49.941
-48.378
-47.163
-46.55
-46.941
-48.345
-50.572
-52.65
-52.65
-49.366
-42.204
-31.009
-16.754
-0.223
18.221
38.344
61.708
90.193
124.642
165.113
207.937
247.292
277.209
290.028
279.793
243.646
181.582
98.92
3.778
-97.222
-200.369
-304.988
-410.508
-512.27
-601.192
-666.796
-701.372
-704.044
-679.443
-634.629
-577.401
-512.322
-442.558
-372.24
-304.534
-243.742
-193.391
-153.724
-123.43
-99.672
-80.077
-63.987
-51.897
-44.48
-40.791
-38.873
-36.615
-32.424
-26.13
-18.255
-9.204
0.424
9.893
18.446
25.128
29.451
31.535
31.675
30.301
27.866
24.766
21.493
18.624
16.527
15.346
15.11
15.71
17.048
19.075
21.69
24.769
28.204
31.888
35.738
39.694
43.683
47.618
51.414
54.984
58.249
61.171
63.732
65.94
67.82
69.403
70.722
71.827
72.771
73.61
74.394
75.171
75.979
76.863
77.867
79.036
80.413
82.024
83.886
86.007
88.386
91.022
93.909
97.033
100.376
103.92
107.65
111.55
115.605
119.796
124.102
128.501
132.968
137.48
142.014
146.546
151.052
155.506
159.885
164.164
168.322
172.333
176.172
179.816
183.239
186.418
189.33
191.954
194.27
196.259
197.904
199.19
200.106
200.64
200.783
200.528
199.871
198.808
197.339
195.465
193.19
190.518
187.457
184.016
180.206
176.04
171.533
166.702
161.563
156.137
150.444
144.506
138.344
131.984
125.448
118.763
111.953
105.043
98.059
91.027
83.971
76.916
69.887
62.905
55.995
49.176
42.47
35.896
29.471
23.213
17.138
11.259
5.589
0.139
-5.08
-10.061
-14.796
-19.281
-23.511
-27.485
-31.2
-34.659
-37.863
-40.815
-43.52
-45.984
-48.214
-50.217
-52.002
-53.58
-54.961
-56.155
-57.175
-58.032
-58.738
-59.307
-59.749
-60.079
-60.307
-60.447
-60.51
-60.508
-60.452
-60.353
-60.22
-60.064
-59.894
-59.717
-59.542
-59.376
-59.224
-59.094
-58.989
-58.913
-58.871
-58.865
-58.897
-58.968
-59.08
-59.231
-59.421
-59.65
-59.916
-60.218
-60.551
-60.915
-61.307
-61.723
-62.161
-62.618
-63.09
-63.573
-64.067
-64.566
-65.069
-65.573
-66.076
-66.575
-67.069
-67.556
-68.034
-68.502
-68.959
-69.403
-69.835
-70.253
-70.656
-71.044
-71.418
-71.776
-72.12
-72.448
-72.763
-73.065
-73.353
-73.629
-73.892
-74.145
-74.386
-74.616
-74.835
-75.042
-75.239
-75.423
-75.595
-75.752
-75.895
-76.021
-76.129
-76.216
-76.281
-76.32
-76.333
-76.318
-76.271
-76.193
-76.081
-75.936
-75.757
-75.544
-75.298
-75.019
-74.707
-74.363
-73.988
-73.581
-73.144
-72.676
-72.181
-71.659
-71.114
-70.55
-69.97
-69.376
-68.774
-68.166
-67.558
-66.955
-66.361
-65.777
-65.208
-64.661
-64.144
-63.663
-63.22
-62.812
-62.436
-62.088
-61.762
-61.449
-61.132
-60.793
-60.418
-59.993
-59.514
-58.974
-58.367
-57.679
-56.898
-56.018
-55.048
-54.002
-52.896
-51.747
-50.581
-49.442
-48.395
-47.502
-46.827
-46.429
-46.353
-46.656
-47.385
-48.577
-50.269
-52.495
-55.271
-58.602
-62.495
-66.907
-71.804
-77.176
-82.879
-88.696
-94.361
-99.477
-103.706
-106.853
-108.628
-108.679
-106.997
-103.748
-99.291
-94.429
-89.752
-85.551
-82.378
-80.832
-80.697
-81.125
-81.043
-78.73
-73.583
-66.69
-58.253
-47.518
-33.34
-12.785
16.655
54.187
98.25
145.874
191.177
229.534
256.061
264.031
249.238
209.088
143.644
58.49
-39.235
-142.983
-249.177
-356.731
-461.614
-564.785
-667.309
-745.165
-773.774
-767.127
-745.662
-707.39
-652.04
-586.953
-514.33
-435.425
-354.695
-278.673
-214.756
-166.792
-134.211
-113.39
-99.073
-88.125
-79.911
-74.7
-72.894
-73.388
-74.051
-73.299
-70.192
-64.724
-57.508
-49.261
-40.907
-33.442
-27.78
-24.353
-23.063
-23.584
-25.424
-28.09
-31.121
-33.964
-36.06
-37.101
-37.002
-35.805
-33.667
-30.71
-27.022
-22.743
-18.034
-13.035
-7.872
-2.637
2.591
7.712
12.616
17.194
21.371
25.112
28.408
31.274
33.733
35.817
37.569
39.047
40.308
41.407
42.399
43.331
44.257
45.231
46.31
47.547
48.983
50.643
52.545
54.696
57.099
59.754
62.653
65.784
69.135
72.696
76.457
80.411
84.543
88.839
93.281
97.851
102.53
107.301
112.143
117.038
121.964
126.902
131.831
136.729
141.575
146.345
151.013
155.555
159.945
164.158
168.172
171.961
175.503
178.778
181.766
184.448
186.809
188.832
190.503
191.811
192.746
193.298
193.461
193.229
192.6
191.573
190.148
188.329
186.12
183.528
180.561
177.23
173.547
169.525
165.181
160.531
155.594
150.388
144.936
139.258
133.378
127.319
121.105
114.76
108.309
101.776
95.186
88.563
81.931
75.314
68.734
62.213
55.774
49.437
43.222
37.148
31.233
25.494
19.946
14.603
9.479
4.584
-0.07
-4.476
-8.626
-12.514
-16.136
-19.489
-22.572
-25.385
-27.929
-30.206
-32.222
-33.981
-35.489
-36.754
-37.784
-38.588
-39.176
-39.559
-39.748
-39.754
-39.59
-39.267
-38.8
-38.199
-37.479
-36.653
-35.733
-34.731
-33.661
-32.535
-31.364
-30.16
-28.934
-27.696
-26.457
-25.225
-24.009
-22.817
-21.657
-20.535
-19.456
-18.426
-17.45
-16.53
-15.669
-14.87
-14.134
-13.463
-12.855
-12.312
-11.832
-11.413
-11.055
-10.754
-10.508
-10.314
-10.168
-10.066
-10.006
-9.982
-9.99
-10.026
-10.086
-10.166
-10.261
-10.367
-10.48
-10.596
-10.711
-10.823
-10.927
-11.02
-11.101
-11.166
-11.215
-11.244
-11.253
-11.24
-11.205
-11.146
-11.065
-10.959
-10.829
-10.676
-10.499
-10.3
-10.079
-9.837
-9.577
-9.299
-9.005
-8.697
-8.376
-8.045
-7.704
-7.356
-7.002
-6.643
-6.28
-5.915
-5.548
-5.181
-4.813
-4.444
-4.075
-3.704
-3.332
-2.956
-2.577
-2.192
-1.802
-1.405
-1
-0.587
-0.167
0.262
0.697
1.14
1.591
2.049
2.515
2.988
3.47
3.961
4.462
4.972
5.49
6.015
6.546
7.08
7.617
8.156
8.693
9.226
9.753
10.273
10.785
11.286
11.773
12.238
12.677
13.093
13.489
13.868
14.236
14.601
14.972
15.367
15.803
16.293
16.85
17.479
18.186
18.979
19.866
20.86
21.964
23.17
24.466
25.838
27.268
28.731
30.187
31.575
32.839
33.92
34.758
35.307
35.514
35.334
34.731
33.67
32.116
30.043
27.436
24.279
20.601
16.42
11.729
6.636
1.324
-3.952
-8.809
-12.92
-16.096
-18.068
-18.487
-17.295
-14.612
-10.817
-6.729
-2.885
0.473
2.851
3.755
3.069
1.284
-0.19
0.499
4.662
12.054
21.532
33.131
47.129
65.362
91.363
125.391
166.606
212.839
257.841
296.884
325.945
339.842
335.477
310.016
261.181
190.328
102.131
2.092
-104.784
-214.779
-326.46
-436.52
-537.265
-619.665
-674.682
-696.915
-688.489
-655.293
-604.258
-542.383
-472.982
-398.569
-323.021
-250.077
-185.157
-132.263
-92.054
-63.238
-42.276
-26.197
-13.832
-5.055
-0.218
1.474
1.84
2.881
6.072
11.615
19.019
27.702
36.834
45.655
53.41
59.215
62.717
64.057
63.538
61.644
58.861
55.602
52.362
49.676
47.859
47.029
47.183
48.195
49.956
52.394
55.395
58.827
62.572
66.521
70.586
74.701
78.794
82.78
86.578
90.108
93.301
96.125
98.574
100.658
102.404
103.843
105.013
105.959
106.737
107.402
108.006
108.595
109.211
109.898
110.702
111.667
112.835
114.231
115.868
117.75
119.881
122.259
124.883
127.748
130.84
134.145
137.65
141.338
145.192
149.185
153.282
157.445
161.641
165.847
170.043
174.22
178.363
182.461
186.506
190.481
194.371
198.167
201.849
205.402
208.824
212.118
215.304
218.411
221.445
224.403
227.272
230.017
232.604
234.989
237.113
238.933
240.41
241.51
242.212
242.498
242.331
241.675
240.478
238.675
236.232
233.131
229.365
224.959
219.95
214.389
208.358
201.932
195.169
188.125
180.841
173.355
165.72
157.992
150.231
142.516
134.906
127.449
120.191
113.156
106.352
99.776
93.4
87.2
81.166
75.293
69.585
64.054
58.701
53.528
48.539
43.727
39.088
34.62
30.315
26.175
22.209
18.43
14.86
11.518
8.417
5.561
2.951
0.584
-1.547
-3.449
-5.134
-6.615
-7.901
-9
-9.921
-10.673
-11.268
-11.72
-12.045
-12.257
-12.371
-12.399
-12.355
-12.249
-12.091
-11.889
-11.651
-11.382
-11.089
-10.78
-10.46
-10.138
-9.817
-9.505
-9.205
-8.923
-8.662
-8.425
-8.213
-8.027
-7.87
-7.74
-7.638
-7.563
-7.515
-7.492
-7.494
-7.518
-7.563
-7.627
-7.707
-7.802
-7.908
-8.024
-8.148
-8.277
-8.41
-8.544
-8.677
-8.81
-8.94
-9.066
-9.186
-9.3
-9.408
-9.507
-9.597
-9.677
-9.748
-9.808
-9.859
-9.9
-9.931
-9.954
-9.968
-9.974
-9.974
-9.968
-9.957
-9.941
-9.923
-9.903
-9.883
-9.865
-9.849
-9.838
-9.833
-9.836
-9.848
-9.87
-9.905
-9.955
-10.019
-10.101
-10.201
-10.322
-10.465
-10.631
-10.821
-11.036
-11.277
-11.546
-11.841
-12.165
-12.515
-12.894
-13.3
-13.733
-14.193
-14.68
-15.192
-15.729
-16.289
-16.871
-17.472
-18.091
-18.725
-19.371
-20.028
-20.69
-21.357
-22.023
-22.686
-23.341
-23.984
-24.61
-25.217
-25.798
-26.349
-26.867
-27.348
-27.788
-28.184
-28.534
-28.836
-29.089
-29.293
-29.447
-29.55
-29.602
-29.604
-29.557
-29.461
-29.316
-29.126
-28.892
-28.618
-28.311
-27.973
-27.611
-27.229
-26.833
-26.428
-26.021
-25.617
-25.222
-24.841
-24.48
-24.149
-23.858
-23.614
-23.418
-23.271
-23.169
-23.109
-23.086
-23.089
-23.105
-23.118
-23.12
-23.102
-23.061
-22.99
-22.878
-22.716
-22.489
-22.19
-21.825
-21.399
-20.921
-20.408
-19.877
-19.359
-18.903
-18.553
-18.345
-18.318
-18.507
-18.947
-19.682
-20.75
-22.172
-23.975
-26.178
-28.793
-31.843
-35.332
-39.237
-43.541
-48.232
-53.209
-58.309
-63.291
-67.81
-71.582
-74.429
-76.092
-76.26
-74.886
-72.138
-68.455
-64.606
-61.099
-58.06
-55.828
-54.908
-55.355
-56.957
-58.685
-58.532
-55.213
-48.105
-37.041
-22.907
-6.403
12.161
32.699
56.829
86.239
121.581
162.492
204.695
242.289
269.431
278.833
265.39
226.569
162.141
77.038
-21.248
-126.17
-233.387
-341.531
-449.947
-555.008
-648.659
-721.094
-764.369
-775.154
-756.752
-715.667
-658.265
-590.069
-513.695
-432.207
-351.092
-276.171
-214.012
-167.814
-135.594
-113.722
-97.789
-85.571
-78.269
-76.2
-77.974
-80.796
-80.284
-74.659
-65.195
-53.652
-42.461
-32.75
-23.966
-16.195
-9.746
-4.887
-2.179
-1.606
-2.665
-4.896
-7.766
-10.715
-13.271
-15.123
-16.103
-16.196
-15.519
-14.162
-12.185
-9.692
-6.787
-3.572
-0.156
3.384
6.987
10.577
14.083
17.431
20.544
23.366
25.844
27.953
29.697
31.095
32.177
32.984
33.557
33.946
34.213
34.415
34.603
34.827
35.126
35.545
36.128
36.914
37.942
39.238
40.815
42.681
44.84
47.291
50.03
53.047
56.325
59.85
63.608
67.586
71.772
76.148
80.694
85.391
90.216
95.148
100.164
105.241
110.354
115.479
120.59
125.664
130.676
135.601
140.411
145.082
149.586
153.898
157.993
161.847
165.437
168.741
171.74
174.416
176.751
178.733
180.347
181.583
182.432
182.886
182.942
182.594
181.842
180.687
179.131
177.18
174.839
172.118
169.026
165.576
161.783
157.66
153.227
148.5
143.5
138.247
132.763
127.071
121.194
115.157
108.982
102.696
96.321
89.884
83.409
76.918
70.436
63.985
57.587
51.264
45.036
38.923
32.943
27.114
21.451
15.971
10.687
5.612
0.756
-3.869
-8.257
-12.4
-16.292
-19.929
-23.309
-26.431
-29.293
-31.899
-34.251
-36.352
-38.207
-39.823
-41.207
-42.367
-43.31
-44.048
-44.589
-44.944
-45.124
-45.14
-45.004
-44.727
-44.321
-43.798
-43.169
-42.447
-41.642
-40.767
-39.833
-38.849
-37.828
-36.778
-35.71
-34.633
-33.555
-32.484
-31.428
-30.393
-29.387
-28.414
-27.479
-26.587
-25.741
-24.944
-24.198
-23.506
-22.87
-22.288
-21.763
-21.295
-20.882
-20.524
-20.22
-19.97
-19.77
-19.62
-19.517
-19.459
-19.443
-19.468
-19.529
-19.625
-19.752
-19.906
-20.086
-20.286
-20.505
-20.74
-20.986
-21.241
-21.502
-21.766
-22.032
-22.296
-22.556
-22.812
-23.06
-23.301
-23.531
-23.752
-23.961
-24.159
-24.344
-24.517
-24.678
-24.826
-24.963
-25.088
-25.203
-25.307
-25.402
-25.489
-25.569
-25.644
-25.714
-25.783
-25.852
-25.922
-25.997
-26.079
-26.169
-26.271
-26.386
-26.516
-26.664
-26.832
-27.022
-27.235
-27.472
-27.736
-28.027
-28.346
-28.692
-29.067
-29.47
-29.9
-30.357
-30.839
-31.345
-31.874
-32.424
-32.992
-33.577
-34.176
-34.786
-35.405
-36.027
-36.651
-37.272
-37.886
-38.489
-39.076
-39.641
-40.182
-40.692
-41.167
-41.601
-41.991
-42.33
-42.615
-42.842
-43.006
-43.103
-43.131
-43.087
-42.969
-42.777
-42.51
-42.167
-41.752
-41.264
-40.707
-40.082
-39.393
-38.643
-37.836
-36.976
-36.066
-35.111
-34.117
-33.09
-32.037
-30.964
-29.878
-28.786
-27.695
-26.611
-25.545
-24.504
-23.491
-22.513
-21.575
-20.684
-19.851
-19.082
-18.375
-17.729
-17.143
-16.612
-16.134
-15.699
-15.289
-14.888
-14.484
-14.062
-13.622
-13.16
-12.663
-12.121
-11.521
-10.853
-10.131
-9.366
-8.561
-7.732
-6.897
-6.089
-5.37
-4.8
-4.428
-4.302
-4.456
-4.92
-5.731
-6.926
-8.547
-10.63
-13.176
-16.187
-19.653
-23.569
-27.965
-32.761
-37.764
-42.724
-47.309
-51.232
-54.344
-56.403
-57.048
-56.22
-54.052
-50.875
-47.431
-44.263
-41.606
-39.956
-39.914
-41.315
-43.385
-44.988
-44.324
-40.921
-35.929
-29.867
-22.683
-13.125
1.857
25.04
57.513
98.955
147.335
197.913
244.795
281.191
298.978
291.866
256.777
194.955
112.724
18.937
-79.013
-178.07
-278.234
-380.197
-481.172
-572.693
-644.747
-689.441
-704.393
-693.746
-664.03
-621.059
-568.346
-507.062
-439.109
-368.307
-299.98
-240.091
-191.993
-155.833
-129.373
-108.875
-91.942
-77.899
-67.098
-60.141
-56.353
-54.107
-51.619
-47.58
-41.823
-34.751
-26.817
-18.694
-10.978
-4.279
0.634
3.478
4.405
3.693
1.793
-0.84
-3.827
-6.699
-8.937
-10.26
-10.564
-9.854
-8.26
-5.883
-2.79
0.898
5.043
9.523
14.22
19.042
23.921
28.769
33.488
37.982
42.157
45.955
49.359
52.365
54.993
57.269
59.224
60.906
62.369
63.667
64.852
65.972
67.068
68.188
69.378
70.686
72.159
73.829
75.713
77.823
80.165
82.737
85.538
88.558
91.783
95.201
98.8
102.571
106.504
110.586
114.802
119.134
123.566
128.079
132.657
137.282
141.935
146.596
151.248
155.87
160.444
164.95
169.365
173.667
177.834
181.843
185.672
189.3
192.706
195.87
198.773
201.398
203.73
205.755
207.458
208.828
209.855
210.53
210.848
210.801
210.387
209.604
208.451
206.93
205.045
202.8
200.203
197.261
193.986
190.388
186.481
182.281
177.802
173.064
168.083
162.88
157.475
151.891
146.147
140.268
134.276
128.194
122.045
115.852
109.637
103.424
97.232
91.085
85.002
79.003
73.108
67.334
61.699
56.218
50.908
45.781
40.851
36.128
31.623
27.344
23.298
19.492
15.928
12.611
9.541
6.719
4.144
1.813
-0.277
-2.131
-3.756
-5.158
-6.345
-7.325
-8.108
-8.704
-9.123
-9.376
-9.474
-9.43
-9.253
-8.957
-8.553
-8.052
-7.466
-6.807
-6.085
-5.312
-4.498
-3.652
-2.785
-1.906
-1.022
-0.143
0.726
1.576
2.403
3.2
3.962
4.686
5.368
6.005
6.594
7.134
7.623
8.06
8.446
8.78
9.063
9.295
9.478
9.613
9.7
9.743
9.743
9.702
9.622
9.505
9.354
9.171
8.958
8.717
8.451
8.162
7.852
7.524
7.178
6.817
6.443
6.057
5.661
5.256
4.843
4.423
3.997
3.566
3.13
2.689
2.243
1.794
1.339
0.88
0.416
-0.054
-0.531
-1.014
-1.506
-2.007
-2.517
-3.039
-3.572
-4.12
-4.682
-5.26
-5.855
-6.468
-7.102
-7.757
-8.434
-9.135
-9.859
-10.609
-11.385
-12.186
-13.013
-13.866
-14.745
-15.65
-16.58
-17.534
-18.512
-19.512
-20.532
-21.572
-22.628
-23.699
-24.781
-25.871
-26.967
-28.065
-29.161
-30.252
-31.334
-32.401
-33.449
-34.475
-35.473
-36.438
-37.366
-38.252
-39.092
-39.882
-40.62
-41.301
-41.924
-42.486
-42.988
-43.427
-43.802
-44.114
-44.361
-44.545
-44.664
-44.721
-44.714
-44.646
-44.519
-44.337
-44.102
-43.818
-43.489
-43.118
-42.71
-42.272
-41.808
-41.321
-40.814
-40.291
-39.757
-39.223
-38.693
-38.168
-37.645
-37.126
-36.605
-36.081
-35.546
-34.981
-34.371
-33.7
-32.957
-32.142
-31.253
-30.28
-29.214
-28.045
-26.768
-25.399
-23.952
-22.434
-20.863
-19.264
-17.676
-16.17
-14.814
-13.67
-12.793
-12.226
-12.005
-12.172
-12.766
-13.832
-15.408
-17.508
-20.143
-23.302
-26.982
-31.196
-35.845
-40.723
-45.55
-49.934
-53.548
-56.218
-57.695
-57.678
-56.167
-53.3
-49.45
-45.482
-41.966
-39.089
-37.302
-36.953
-37.88
-39.902
-41.982
-41.907
-38.31
-30.253
-17.585
-1.876
15.811
34.96
56.562
83.23
116.446
156.502
199.951
240.143
270.722
284.421
276.04
243.694
187.073
110.272
19.951
-78.261
-179.896
-283.293
-387.941
-489.751
-581.263
-653.308
-697.477
-711.328
-697.91
-663.066
-614.196
-556.244
-492.34
-425.784
-359.192
-296.33
-240.562
-193.277
-154.854
-123.766
-98.611
-78.787
-63.934
-54.542
-49.927
-48.377
-48.082
-46.933
-43.923
-39.148
-32.866
-25.541
-17.826
-10.269
-3.578
1.41
4.409
5.53
5.022
3.332
0.909
-1.869
-4.522
-6.533
-7.639
-7.747
-6.869
-5.146
-2.684
0.437
4.085
8.116
12.403
16.836
21.331
25.824
30.234
34.469
38.441
42.066
45.298
48.121
50.535
52.564
54.235
55.586
56.666
57.531
58.236
58.834
59.372
59.893
60.444
61.071
61.82
62.737
63.852
65.185
66.747
68.542
70.573
72.836
75.322
78.019
80.913
83.995
87.253
90.677
94.254
97.968
101.803
105.738
109.757
113.841
117.972
122.129
126.293
130.443
134.56
138.623
142.612
146.503
150.274
153.901
157.362
160.635
163.699
166.533
169.116
171.431
173.461
175.192
176.609
177.7
178.455
178.864
178.92
178.619
177.955
176.928
175.537
173.783
171.671
169.205
166.393
163.243
159.765
155.973
151.878
147.497
142.846
137.941
132.803
127.451
121.905
116.188
110.32
104.325
98.226
92.046
85.808
79.535
73.249
66.974
60.731
54.542
48.428
42.407
36.5
30.725
25.099
19.638
14.358
9.273
4.394
-0.266
-4.696
-8.889
-12.837
-16.532
-19.972
-23.152
-26.069
-28.725
-31.118
-33.25
-35.126
-36.748
-38.123
-39.256
-40.155
-40.828
-41.285
-41.535
-41.588
-41.455
-41.148
-40.679
-40.06
-39.303
-38.42
-37.424
-36.328
-35.144
-33.885
-32.562
-31.188
-29.774
-28.332
-26.872
-25.405
-23.941
-22.49
-21.059
-19.658
-18.294
-16.974
-15.704
-14.491
-13.34
-12.254
-11.238
-10.295
-9.427
-8.637
-7.925
-7.293
-6.74
-6.266
-5.871
-5.552
-5.308
-5.138
-5.038
-5.006
-5.039
-5.133
-5.285
-5.491
-5.747
-6.048
-6.392
-6.772
-7.185
-7.627
-8.093
-8.579
-9.081
-9.593
-10.113
-10.635
-11.157
-11.675
-12.184
-12.682
-13.166
-13.633
-14.081
-14.507
-14.909
-15.286
-15.636
-15.959
-16.253
-16.518
-16.753
-16.958
-17.134
-17.281
-17.399
-17.49
-17.555
-17.595
-17.612
-17.607
-17.584
-17.543
-17.487
-17.42
-17.343
-17.258
-17.17
-17.081
-16.994
-16.911
-16.835
-16.77
-16.717
-16.678
-16.656
-16.653
-16.67
-16.708
-16.768
-16.851
-16.959
-17.091
-17.247
-17.428
-17.633
-17.862
-18.113
-18.386
-18.678
-18.988
-19.312
-19.65
-19.997
-20.351
-20.708
-21.065
-21.417
-21.76
-22.091
-22.404
-22.695
-22.959
-23.192
-23.39
-23.549
-23.667
-23.739
-23.765
-23.744
-23.674
-23.554
-23.384
-23.163
-22.892
-22.571
-22.2
-21.78
-21.313
-20.799
-20.243
-19.647
-19.016
-18.354
-17.665
-16.953
-16.223
-15.482
-14.734
-13.984
-13.235
-12.494
-11.766
-11.061
-10.385
-9.739
-9.123
-8.534
-7.969
-7.423
-6.888
-6.349
-5.79
-5.199
-4.566
-3.885
-3.151
-2.356
-1.492
-0.546
0.486
1.597
2.776
4.012
5.289
6.585
7.864
9.07
10.15
11.05
11.715
12.1
12.157
11.842
11.124
9.968
8.339
6.212
3.57
0.399
-3.278
-7.446
-12.114
-17.174
-22.443
-27.664
-32.455
-36.5
-39.617
-41.539
-41.938
-40.776
-38.185
-34.561
-30.719
-27.172
-24.147
-22.122
-21.509
-22.344
-24.198
-25.711
-25.023
-20.911
-13.198
-2.611
10.359
25.605
43.848
67.388
97.577
134.716
178.323
224.064
266.319
299.759
317.271
313.756
286.132
232.381
156.002
63.621
-37.619
-141.139
-245.297
-350.704
-456.305
-557.289
-643.478
-704.277
-732.836
-728.899
-698.426
-648.858
-587.118
-516.992
-440.926
-362.758
-287.038
-220.087
-166.444
-126.872
-99.369
-79.313
-63.138
-49.604
-39.069
-32.648
-29.952
-29.218
-28.288
-25.432
-20.354
-13.542
-5.535
2.898
11.077
18.318
23.729
26.944
28.111
27.527
25.678
23.048
20.034
17.134
14.908
13.66
13.494
14.395
16.209
18.817
22.142
26.049
30.386
35.02
39.826
44.706
49.594
54.399
59.023
63.374
67.356
70.92
74.049
76.743
79.028
80.934
82.497
83.768
84.804
85.664
86.403
87.074
87.721
88.393
89.141
90.012
91.056
92.304
93.775
95.482
97.429
99.617
102.045
104.703
107.579
110.661
113.938
117.4
121.037
124.838
128.787
132.866
137.058
141.346
145.712
150.138
154.605
159.094
163.586
168.06
172.498
176.879
181.18
185.378
189.45
193.373
197.125
200.683
204.026
207.133
209.985
212.564
214.853
216.836
218.5
219.833
220.822
221.459
221.736
221.647
221.187
220.354
219.147
217.567
215.616
213.299
210.622
207.593
204.221
200.516
196.491
192.16
187.538
182.641
177.486
172.091
166.477
160.663
154.67
148.519
142.233
135.834
129.343
122.784
116.177
109.546
102.911
96.293
89.714
83.192
76.748
70.4
64.165
58.06
52.1
46.3
40.674
35.233
29.988
24.95
20.126
15.524
11.149
7.008
3.102
-0.566
-3.994
-7.184
-10.135
-12.852
-15.338
-17.597
-19.634
-21.456
-23.071
-24.485
-25.708
-26.749
-27.617
-28.322
-28.874
-29.284
-29.563
-29.72
-29.767
-29.714
-29.571
-29.35
-29.059
-28.709
-28.309
-27.868
-27.394
-26.897
-26.383
-25.86
-25.335
-24.814
-24.304
-23.809
-23.334
-22.884
-22.463
-22.074
-21.72
-21.404
-21.127
-20.891
-20.697
-20.546
-20.439
-20.376
-20.356
-20.38
-20.446
-20.555
-20.704
-20.892
-21.119
-21.383
-21.682
-22.015
-22.381
-22.776
-23.201
-23.652
-24.129
-24.629
-25.151
-25.692
-26.252
-26.828
-27.417
-28.02
-28.633
-29.256
-29.886
-30.522
-31.162
-31.805
-32.45
-33.094
-33.737
-34.377
-35.012
-35.642
-36.265
-36.88
-37.487
-38.084
-38.671
-39.248
-39.813
-40.367
-40.909
-41.438
-41.956
-42.462
-42.956
-43.439
-43.911
-44.373
-44.826
-45.27
-45.707
-46.136
-46.558
-46.974
-47.385
-47.791
-48.191
-48.588
-48.98
-49.37
-49.756
-50.139
-50.52
-50.899
-51.275
-51.649
-52.019
-52.385
-52.746
-53.101
-53.448
-53.786
-54.114
-54.428
-54.727
-55.008
-55.269
-55.505
-55.714
-55.891
-56.034
-56.14
-56.205
-56.226
-56.202
-56.13
-56.008
-55.838
-55.618
-55.347
-55.026
-54.654
-54.231
-53.759
-53.236
-52.665
-52.045
-51.38
-50.672
-49.927
-49.147
-48.338
-47.504
-46.649
-45.779
-44.9
-44.016
-43.133
-42.255
-41.389
-40.543
-39.728
-38.95
-38.211
-37.511
-36.847
-36.214
-35.606
-35.014
-34.421
-33.817
-33.191
-32.536
-31.851
-31.128
-30.361
-29.541
-28.655
-27.7
-26.682
-25.609
-24.496
-23.362
-22.23
-21.136
-20.129
-19.253
-18.546
-18.046
-17.789
-17.81
-18.154
-18.852
-19.928
-21.403
-23.294
-25.616
-28.383
-31.598
-35.225
-39.243
-43.641
-48.329
-53.15
-57.865
-62.098
-65.533
-67.986
-69.194
-68.854
-66.946
-63.625
-59.331
-54.977
-51.189
-48.2
-46.466
-46.397
-47.909
-50.805
-53.929
-54.975
-52.535
-45.687
-34.244
-19.515
-1.931
18.471
42.182
71.165
105.663
144.879
186.8
226.182
258.67
279.696
283.15
265.381
223.43
156.936
71.204
-27.151
-132.061
-239.467
-348.894
-459.528
-566.316
-660.368
-730.723
-768.331
-771.57
-745.086
-696.741
-635.739
-567.136
-492.844
-415.462
-337.299
-263.43
-200.594
-151.835
-117.636
-95.239
-79.487
-67.542
-58.365
-51.787
-48.241
-46.657
-45.074
-42.118
-36.93
-29.543
-20.607
-10.867
-1.268
7.186
13.585
17.501
19.041
18.536
16.499
13.432
9.796
6.145
3.054
0.886
-0.22
-0.261
0.636
2.359
4.836
7.953
11.576
15.584
19.862
24.32
28.881
33.461
37.961
42.288
46.347
50.058
53.379
56.294
58.813
60.963
62.775
64.288
65.551
66.619
67.551
68.399
69.212
70.033
70.908
71.884
73.007
74.319
75.848
77.61
79.613
81.856
84.339
87.056
89.996
93.142
96.48
99.997
103.679
107.517
111.494
115.594
119.798
124.087
128.442
132.844
137.275
141.713
146.14
150.535
154.879
159.152
163.333
167.401
171.334
175.11
178.708
182.107
185.287
188.228
190.912
193.324
195.446
197.266
198.772
199.952
200.797
201.299
201.452
201.251
200.693
199.777
198.503
196.873
194.891
192.562
189.893
186.893
183.573
179.943
176.018
171.811
167.338
162.616
157.663
152.497
147.138
141.606
135.921
130.106
124.181
118.167
112.088
105.963
99.815
93.664
87.53
81.434
75.395
69.432
63.562
57.802
52.169
46.678
41.342
36.176
31.189
26.394
21.8
17.413
13.242
9.292
5.567
2.069
-1.198
-4.234
-7.041
-9.62
-11.973
-14.104
-16.019
-17.722
-19.22
-20.521
-21.631
-22.56
-23.316
-23.909
-24.348
-24.644
-24.805
-24.844
-24.769
-24.591
-24.32
-23.967
-23.54
-23.05
-22.505
-21.914
-21.286
-20.628
-19.948
-19.253
-18.549
-17.843
-17.139
-16.444
-15.76
-15.094
-14.447
-13.823
-13.224
-12.654
-12.113
-11.604
-11.127
-10.683
-10.272
-9.895
-9.552
-9.241
-8.963
-8.716
-8.5
-8.314
-8.156
-8.026
-7.921
-7.841
-7.785
-7.75
-7.736
-7.741
-7.764
-7.805
-7.86
-7.931
-8.014
-8.11
-8.217
-8.334
-8.46
-8.594
-8.735
-8.882
-9.035
-9.191
-9.351
-9.513
-9.678
-9.843
-10.01
-10.176
-10.342
-10.508
-10.673
-10.837
-11
-11.161
-11.322
-11.483
-11.643
-11.804
-11.966
-12.13
-12.295
-12.464
-12.638
-12.816
-13
-13.191
-13.391
-13.601
-13.821
-14.054
-14.3
-14.56
-14.836
-15.128
-15.436
-15.763
-16.106
-16.467
-16.846
-17.242
-17.656
-18.085
-18.53
-18.988
-19.458
-19.939
-20.427
-20.92
-21.414
-21.906
-22.393
-22.869
-23.332
-23.777
-24.198
-24.59
-24.949
-25.269
-25.545
-25.771
-25.942
-26.052
-26.097
-26.073
-25.974
-25.799
-25.545
-25.21
-24.793
-24.293
-23.709
-23.042
-22.292
-21.46
-20.549
-19.558
-18.492
-17.352
-16.144
-14.873
-13.546
-12.169
-10.747
-9.288
-7.802
-6.296
-4.781
-3.261
-1.744
-0.237
1.248
2.7
4.107
5.467
6.774
8.026
9.222
10.36
11.447
12.498
13.527
14.547
15.567
16.589
17.615
18.653
19.71
20.796
21.913
23.048
24.191
25.332
26.452
27.525
28.508
29.331
29.922
30.211
30.133
29.634
28.665
27.182
25.142
22.499
19.217
15.277
10.665
5.394
-0.521
-7.091
-14.207
-21.658
-29.163
-36.301
-42.701
-48.135
-52.295
-54.826
-55.682
-54.957
-52.99
-50.618
-48.419
-46.628
-45.771
-46.282
-48.076
-51.021
-54.093
-55.064
-52.51
-45.379
-33.384
-17.982
-0.182
19.464
41.929
69.931
105.146
148.164
195.598
240.396
275.562
292.867
286.203
253.255
193.522
111.342
14.082
-91.838
-201.446
-312.925
-425.968
-537.125
-638.595
-719.965
-771.787
-790.006
-777.58
-741.805
-690.376
-628.553
-558.106
-479.625
-395.775
-312.125
-236.266
-174.936
-130.358
-100.377
-80.68
-67.128
-58.518
-55.269
-56.674
-60.225
-61.814
-58.168
-49.005
-36.892
-25.025
-15.289
-7.988
-1.998
3.43
7.953
11.128
12.474
11.972
10.182
7.673
4.94
2.474
0.713
-0.107
0.109
1.324
3.379
6.159
9.581
13.523
17.85
22.432
27.146
31.899
36.621
41.226
45.616
49.7
53.386
56.626
59.404
61.723
63.608
65.092
66.211
67.017
67.57
67.927
68.145
68.275
68.364
68.459
68.612
68.871
69.285
69.887
70.698
71.732
72.994
74.486
76.208
78.154
80.311
82.669
85.22
87.954
90.866
93.945
97.177
100.549
104.043
107.646
111.341
115.113
118.945
122.82
126.719
130.625
134.521
138.387
142.203
145.947
149.596
153.13
156.526
159.764
162.823
165.682
168.323
170.728
172.881
174.767
176.371
177.68
178.684
179.372
179.736
179.768
179.464
178.82
177.833
176.503
174.832
172.822
170.478
167.807
164.816
161.515
157.915
154.028
149.868
145.451
140.793
135.911
130.823
125.55
120.11
114.525
108.816
103.004
97.111
91.158
85.167
79.158
73.154
67.175
61.24
55.369
49.581
43.895
38.327
32.894
27.611
22.493
17.552
12.802
8.251
3.911
-0.212
-4.109
-7.776
-11.208
-14.403
-17.359
-20.076
-22.555
-24.798
-26.809
-28.592
-30.154
-31.5
-32.638
-33.576
-34.324
-34.89
-35.285
-35.518
-35.602
-35.547
-35.363
-35.064
-34.659
-34.161
-33.58
-32.928
-32.215
-31.452
-30.65
-29.817
-28.964
-28.099
-27.23
-26.366
-25.513
-24.678
-23.867
-23.085
-22.337
-21.626
-20.957
-20.331
-19.752
-19.22
-18.737
-18.303
-17.919
-17.583
-17.295
-17.054
-16.859
-16.707
-16.596
-16.525
-16.49
-16.488
-16.518
-16.577
-16.66
-16.765
-16.89
-17.032
-17.186
-17.352
-17.525
-17.703
-17.884
-18.065
-18.244
-18.42
-18.591
-18.754
-18.91
-19.057
-19.194
-19.321
-19.438
-19.545
-19.641
-19.729
-19.807
-19.878
-19.942
-20
-20.054
-20.106
-20.157
-20.208
-20.262
-20.32
-20.384
-20.454
-20.534
-20.624
-20.725
-20.839
-20.967
-21.111
-21.271
-21.448
-21.644
-21.857
-22.089
-22.34
-22.608
-22.894
-23.195
-23.511
-23.84
-24.181
-24.531
-24.887
-25.248
-25.608
-25.967
-26.32
-26.663
-26.993
-27.307
-27.601
-27.871
-28.116
-28.331
-28.517
-28.669
-28.788
-28.872
-28.919
-28.929
-28.901
-28.834
-28.728
-28.582
-28.396
-28.17
-27.907
-27.606
-27.272
-26.905
-26.509
-26.086
-25.641
-25.179
-24.702
-24.213
-23.715
-23.211
-22.704
-22.203
-21.711
-21.228
-20.754
-20.287
-19.825
-19.365
-18.899
-18.412
-17.889
-17.315
-16.679
-15.98
-15.213
-14.371
-13.447
-12.431
-11.322
-10.13
-8.867
-7.543
-6.169
-4.763
-3.363
-2.03
-0.825
0.188
0.961
1.451
1.613
1.407
0.788
-0.291
-1.859
-3.939
-6.551
-9.694
-13.39
-17.668
-22.438
-27.512
-32.635
-37.45
-41.673
-45.144
-47.599
-48.712
-48.421
-46.86
-44.422
-41.824
-39.508
-37.535
-36.187
-35.89
-36.674
-38.385
-40.064
-39.754
-36.22
-28.821
-17.353
-2.966
13.29
30.912
49.609
71.327
98.679
133.083
174.594
219.044
259.577
288.63
297.917
281.418
236.694
166.05
76.698
-22.107
-122.899
-223.412
-324.361
-425.677
-523.142
-606.973
-667.09
-697.169
-697.26
-672.954
-630.275
-574.989
-511.06
-441.294
-370.859
-304.735
-246.598
-199.096
-161.234
-129.941
-103.343
-80.276
-61.035
-47.508
-39.773
-36.163
-34.502
-32.134
-27.728
-21.428
-13.641
-4.766
4.695
14.136
22.776
29.621
34.18
36.56
37.027
35.996
33.904
31.135
28.183
25.641
23.881
23.044
23.161
24.117
25.812
28.194
31.157
34.569
38.315
42.284
46.391
50.572
54.753
58.842
62.751
66.39
69.678
72.574
75.061
77.145
78.852
80.213
81.263
82.049
82.628
83.056
83.384
83.66
83.925
84.225
84.608
85.121
85.811
86.709
87.833
89.197
90.804
92.657
94.755
97.09
99.648
102.419
105.392
108.556
111.905
115.424
119.1
122.914
126.85
130.888
135.013
139.204
143.443
147.71
151.984
156.246
160.475
164.651
168.752
172.753
176.632
180.365
183.929
187.304
190.465
193.393
196.068
198.472
200.588
202.401
203.896
205.06
205.883
206.354
206.466
206.212
205.588
204.591
203.22
201.476
199.362
196.883
194.044
190.855
187.324
183.464
179.287
174.809
170.044
165.01
159.726
154.211
148.485
142.569
136.486
130.258
123.908
117.458
110.933
104.355
97.747
91.132
84.533
77.971
71.468
65.044
58.719
52.513
46.442
40.525
34.777
29.211
23.843
18.682
13.74
9.026
4.546
0.308
-3.685
-7.428
-10.921
-14.164
-17.156
-19.9
-22.401
-24.661
-26.688
-28.488
-30.069
-31.438
-32.606
-33.583
-34.378
-35.003
-35.47
-35.79
-35.975
-36.037
-35.989
-35.841
-35.607
-35.298
-34.924
-34.497
-34.027
-33.524
-32.997
-32.454
-31.904
-31.354
-30.809
-30.277
-29.762
-29.268
-28.799
-28.359
-27.949
-27.571
-27.227
-26.918
-26.643
-26.401
-26.193
-26.017
-25.872
-25.754
-25.663
-25.596
-25.55
-25.522
-25.51
-25.51
-25.52
-25.537
-25.557
-25.58
-25.601
-25.619
-25.633
-25.64
-25.64
-25.632
-25.614
-25.587
-25.551
-25.505
-25.452
-25.39
-25.322
-25.248
-25.169
-25.089
-25.007
-24.925
-24.846
-24.769
-24.698
-24.633
-24.576
-24.527
-24.488
-24.46
-24.444
-24.441
-24.451
-24.475
-24.513
-24.565
-24.63
-24.708
-24.797
-24.896
-25.004
-25.118
-25.235
-25.354
-25.47
-25.581
-25.683
-25.773
-25.846
-25.898
-25.927
-25.927
-25.895
-25.828
-25.724
-25.579
-25.393
-25.163
-24.89
-24.573
-24.214
-23.811
-23.366
-22.879
-22.353
-21.788
-21.185
-20.548
-19.877
-19.178
-18.455
-17.713
-16.956
-16.19
-15.421
-14.653
-13.894
-13.15
-12.425
-11.724
-11.053
-10.418
-9.829
-9.293
-8.81
-8.378
-7.995
-7.655
-7.355
-7.084
-6.826
-6.566
-6.289
-5.986
-5.651
-5.279
-4.864
-4.392
-3.85
-3.234
-2.552
-1.82
-1.05
-0.259
0.531
1.281
1.933
2.433
2.726
2.768
2.519
1.932
0.965
-0.417
-2.247
-4.556
-7.358
-10.656
-14.454
-18.719
-23.427
-28.573
-34.036
-39.629
-45.113
-50.141
-54.408
-57.735
-59.853
-60.41
-59.371
-56.879
-53.266
-49.292
-45.527
-42.256
-40.014
-39.413
-40.294
-41.89
-43.201
-42.581
-39.481
-34.962
-29.15
-21.256
-10.002
7.639
33.947
68.035
108.337
151.856
193.46
229.717
256.707
268.481
260.462
228.378
170.27
90.212
-4.827
-107.875
-213.724
-320.992
-429.637
-536.291
-633.376
-711.097
-760.226
-776.542
-762.185
-722.44
-664.403
-594.85
-518.714
-441.29
-367.456
-301.064
-244.825
-198.817
-161.316
-129.962
-103.343
-81.31
-64.5
-53.854
-48.553
-46.631
-45.931
-44.178
-40.434
-34.879
-27.805
-19.695
-11.23
-2.979
4.317
9.792
13.173
14.593
14.317
12.813
10.554
7.933
5.45
3.639
2.764
2.918
4.078
6.094
8.852
12.267
16.203
20.512
25.063
29.743
34.459
39.145
43.714
48.072
52.127
55.789
59.012
61.778
64.091
65.977
67.468
68.602
69.43
70.012
70.405
70.665
70.842
70.982
71.133
71.345
71.666
72.147
72.819
73.704
74.814
76.154
77.727
79.531
81.559
83.798
86.238
88.867
91.678
94.663
97.81
101.106
104.534
108.079
111.724
115.454
119.252
123.1
126.982
130.878
134.771
138.643
142.476
146.247
149.936
153.521
156.98
160.292
163.437
166.394
169.144
171.669
173.952
175.978
177.732
179.202
180.375
181.241
181.793
182.022
181.922
181.491
180.725
179.624
178.188
176.42
174.323
171.904
169.169
166.127
162.788
159.164
155.266
151.111
146.711
142.085
137.248
132.22
127.019
121.665
116.178
110.578
104.886
99.122
93.306
87.46
81.603
75.755
69.936
64.163
58.455
52.829
47.302
41.889
36.606
31.465
26.48
21.662
17.023
12.57
8.313
4.258
0.411
-3.222
-6.64
-9.839
-12.819
-15.581
-18.125
-20.454
-22.573
-24.484
-26.194
-27.71
-29.037
-30.185
-31.16
-31.972
-32.631
-33.146
-33.526
-33.781
-33.923
-33.96
-33.903
-33.762
-33.546
-33.266
-32.929
-32.546
-32.125
-31.674
-31.201
-30.713
-30.217
-29.719
-29.225
-28.741
-28.27
-27.817
-27.385
-26.977
-26.596
-26.244
-25.921
-25.629
-25.369
-25.14
-24.943
-24.776
-24.639
-24.531
-24.451
-24.397
-24.367
-24.361
-24.375
-24.41
-24.461
-24.53
-24.612
-24.707
-24.814
-24.93
-25.055
-25.188
-25.327
-25.473
-25.624
-25.78
-25.94
-26.106
-26.277
-26.453
-26.635
-26.823
-27.018
-27.221
-27.432
-27.652
-27.881
-28.12
-28.369
-28.629
-28.898
-29.178
-29.467
-29.766
-30.075
-30.392
-30.717
-31.048
-31.386
-31.727
-32.071
-32.414
-32.756
-33.094
-33.424
-33.745
-34.052
-34.343
-34.614
-34.861
-35.081
-35.268
-35.419
-35.53
-35.597
-35.615
-35.582
-35.495
-35.351
-35.147
-34.884
-34.56
-34.177
-33.733
-33.23
-32.668
-32.049
-31.374
-30.646
-29.865
-29.035
-28.159
-27.242
-26.289
-25.305
-24.297
-23.269
-22.228
-21.18
-20.132
-19.091
-18.062
-17.05
-16.061
-15.103
-14.188
-13.32
-12.501
-11.732
-11.009
-10.329
-9.688
-9.076
-8.477
-7.876
-7.262
-6.623
-5.959
-5.262
-4.526
-3.743
-2.901
-1.995
-1.036
-0.031
1.006
2.058
3.106
4.113
5.022
5.785
6.35
6.667
6.704
6.417
5.766
4.728
3.27
1.367
-0.995
-3.836
-7.165
-10.958
-15.209
-19.906
-24.953
-30.19
-35.367
-40.13
-44.178
-47.288
-49.222
-49.7
-48.576
-45.963
-42.261
-38.173
-34.364
-31.168
-28.915
-28.113
-29.064
-31.684
-35.073
-37.4
-37.036
-32.861
-24.9
-14.17
-0.691
15.449
35.18
61.368
94.316
133.591
177.736
220.634
257.094
282.093
288.499
272.444
231.489
164.769
77.234
-24.737
-135.525
-249.677
-364.781
-477.995
-582.751
-671.226
-734.683
-767.213
-769.604
-746.651
-705.209
-651.725
-589.234
-518.694
-441.814
-362.008
-285.007
-217.756
-164.576
-125.932
-98.928
-79.285
-64.559
-54.517
-50.445
-52.203
-56.777
-60.331
-58.948
-51.523
-40.307
-27.68
-16.277
-7.424
-0.505
4.52
7.858
9.779
9.897
8.38
5.748
2.443
-0.852
-3.494
-5.194
-5.837
-5.409
-4.048
-1.877
1.036
4.573
8.594
12.981
17.615
22.389
27.232
32.06
36.773
41.277
45.475
49.286
52.671
55.62
58.139
60.253
61.991
63.389
64.496
65.371
66.071
66.649
67.154
67.629
68.124
68.685
69.36
70.192
71.207
72.421
73.844
75.479
77.324
79.378
81.631
84.068
86.677
89.449
92.374
95.442
98.642
101.959
105.377
108.881
112.456
116.088
119.76
123.456
127.16
130.856
134.527
138.157
141.728
145.222
148.62
151.901
155.047
158.039
160.859
163.489
165.912
168.112
170.076
171.791
173.244
174.425
175.325
175.935
176.249
176.262
175.969
175.368
174.458
173.239
171.712
169.882
167.751
165.327
162.616
159.627
156.37
152.855
149.095
145.103
140.894
136.482
131.884
127.117
122.198
117.145
111.977
106.712
101.371
95.971
90.531
85.07
79.607
74.158
68.743
63.377
58.078
52.861
47.74
42.731
37.847
33.101
28.503
24.065
19.797
15.706
11.801
8.088
4.573
1.258
-1.851
-4.754
-7.449
-9.936
-12.218
-14.295
-16.172
-17.853
-19.343
-20.647
-21.773
-22.728
-23.52
-24.156
-24.646
-24.999
-25.224
-25.33
-25.327
-25.225
-25.032
-24.759
-24.415
-24.008
-23.547
-23.041
-22.499
-21.927
-21.333
-20.723
-20.106
-19.486
-18.869
-18.26
-17.664
-17.085
-16.526
-15.99
-15.479
-14.996
-14.541
-14.116
-13.721
-13.356
-13.02
-12.714
-12.436
-12.185
-11.959
-11.757
-11.578
-11.419
-11.279
-11.156
-11.048
-10.954
-10.871
-10.799
-10.735
-10.679
-10.63
-10.585
-10.545
-10.508
-10.473
-10.441
-10.41
-10.382
-10.354
-10.329
-10.306
-10.285
-10.268
-10.255
-10.246
-10.244
-10.249
-10.263
-10.285
-10.318
-10.363
-10.42
-10.489
-10.572
-10.668
-10.778
-10.902
-11.039
-11.189
-11.352
-11.526
-11.711
-11.904
-12.106
-12.313
-12.525
-12.737
-12.949
-13.157
-13.358
-13.55
-13.73
-13.893
-14.037
-14.157
-14.251
-14.314
-14.341
-14.33
-14.277
-14.178
-14.031
-13.833
-13.582
-13.278
-12.921
-12.509
-12.043
-11.524
-10.952
-10.33
-9.657
-8.938
-8.172
-7.362
-6.513
-5.628
-4.714
-3.774
-2.813
-1.837
-0.852
0.138
1.124
2.101
3.065
4.012
4.934
5.825
6.676
7.482
8.241
8.955
9.626
10.257
10.852
11.42
11.979
12.542
13.122
13.73
14.372
15.054
15.787
16.58
17.445
18.387
19.398
20.469
21.591
22.748
23.925
25.085
26.172
27.136
27.924
28.48
28.765
28.731
28.33
27.535
26.305
24.608
22.428
19.744
16.533
12.808
8.561
3.782
-1.411
-6.827
-12.209
-17.178
-21.427
-24.758
-26.886
-27.478
-26.49
-24.106
-20.775
-17.273
-14.146
-11.559
-9.803
-9.35
-10.24
-12.132
-14.264
-14.929
-12.5
-6.258
4.691
20.381
39.2
60.155
82.091
105.083
131.759
163.596
200.855
240.698
276.864
303.216
312.642
299.196
259.979
194.27
106.326
3.853
-106.31
-218.958
-332.637
-446.02
-551.282
-645.454
-728.273
-777.34
-773.67
-738.8
-697.504
-646.981
-583.075
-510.107
-430.526
-347.331
-267.427
-198.771
-145.964
-109.199
-85.036
-68.085
-54.947
-44.655
-37.336
-33.493
-32.066
-30.908
-28.43
-23.627
-16.458
-7.57
2.3
12.21
21.093
27.941
32.25
34.069
33.707
31.676
28.483
24.592
20.587
17.099
14.528
13.039
12.648
13.222
14.645
16.849
19.711
23.089
26.851
30.875
35.066
39.351
43.643
47.839
51.839
55.542
58.859
61.746
64.182
66.174
67.747
68.932
69.765
70.297
70.586
70.69
70.665
70.561
70.42
70.292
70.226
70.271
70.476
70.869
71.469
72.287
73.325
74.584
76.062
77.748
79.628
81.689
83.92
86.312
88.856
91.541
94.352
97.273
100.288
103.383
106.541
109.748
112.987
116.241
119.495
122.732
125.938
129.093
132.182
135.183
138.079
140.85
143.479
145.946
148.235
150.328
152.211
153.869
155.29
156.46
157.37
158.009
158.369
158.444
158.227
157.714
156.903
155.79
154.377
152.664
150.654
148.35
145.759
142.887
139.742
136.333
132.672
128.769
124.639
120.294
115.75
111.023
106.129
101.085
95.909
90.619
85.234
79.774
74.256
68.699
63.122
57.545
51.984
46.457
40.983
35.578
30.257
25.037
19.932
14.956
10.122
5.442
0.928
-3.411
-7.565
-11.528
-15.292
-18.852
-22.204
-25.344
-28.272
-30.985
-33.485
-35.773
-37.852
-39.726
-41.398
-42.874
-44.162
-45.267
-46.197
-46.961
-47.567
-48.025
-48.344
-48.533
-48.603
-48.564
-48.425
-48.196
-47.888
-47.509
-47.07
-46.579
-46.045
-45.478
-44.884
-44.271
-43.646
-43.016
-42.386
-41.762
-41.149
-40.55
-39.97
-39.411
-38.876
-38.367
-37.886
-37.432
-37.008
-36.612
-36.245
-35.906
-35.594
-35.309
-35.048
-34.811
-34.596
-34.402
-34.228
-34.071
-33.93
-33.803
-33.69
-33.588
-33.497
-33.415
-33.342
-33.275
-33.215
-33.161
-33.113
-33.071
-33.034
-33.003
-32.978
-32.96
-32.948
-32.945
-32.95
-32.965
-32.99
-33.028
-33.078
-33.142
-33.221
-33.315
-33.426
-33.552
-33.695
-33.854
-34.028
-34.217
-34.42
-34.636
-34.863
-35.101
-35.348
-35.601
-35.86
-36.121
-36.382
-36.641
-36.896
-37.143
-37.378
-37.6
-37.804
-37.988
-38.148
-38.28
-38.381
-38.446
-38.474
-38.46
-38.4
-38.292
-38.133
-37.92
-37.653
-37.33
-36.95
-36.515
-36.025
-35.483
-34.89
-34.248
-33.561
-32.831
-32.062
-31.258
-30.42
-29.553
-28.661
-27.748
-26.82
-25.883
-24.94
-23.998
-23.061
-22.136
-21.229
-20.347
-19.491
-18.663
-17.868
-17.112
-16.401
-15.742
-15.13
-14.565
-14.044
-13.562
-13.114
-12.69
-12.27
-11.833
-11.363
-10.844
-10.275
-9.648
-8.952
-8.174
-7.305
-6.336
-5.285
-4.162
-2.972
-1.731
-0.461
0.796
1.974
3.002
3.823
4.381
4.626
4.518
4.013
3.067
1.639
-0.308
-2.789
-5.814
-9.378
-13.477
-18.122
-23.211
-28.541
-33.836
-38.711
-42.834
-46.02
-48.011
-48.488
-47.437
-44.989
-41.507
-37.84
-34.545
-31.785
-30.004
-29.587
-30.433
-32.427
-34.565
-34.619
-31.214
-23.418
-11.167
3.756
20.167
37.465
56.772
81.362
113.334
153.491
198.639
241.283
274.167
289.676
282.053
249.874
193.18
114.785
20.945
-83.13
-193.491
-306.685
-421.349
-533.84
-635.876
-718.603
-773.456
-795.02
-785.27
-749.308
-693.061
-623.44
-544.198
-459.123
-374.063
-294.194
-225.68
-172.212
-132.975
-105.142
-84.224
-67.061
-53.08
-42.886
-37.137
-35.008
-34.472
-33.303
-29.963
-24.309
-16.851
-8.189
0.811
9.414
16.892
22.387
25.618
26.765
26.152
24.289
21.691
18.784
16.08
14.117
13.165
13.309
14.515
16.621
19.506
23.073
27.18
31.672
36.416
41.29
46.199
51.073
55.818
60.34
64.545
68.345
71.694
74.574
76.991
78.972
80.552
81.77
82.68
83.341
83.813
84.153
84.412
84.636
84.875
85.177
85.59
86.162
86.924
87.893
89.082
90.492
92.124
93.974
96.033
98.286
100.721
103.326
106.091
109.007
112.062
115.24
118.525
121.9
125.349
128.857
132.407
135.982
139.565
143.138
146.687
150.193
153.639
157.007
160.276
163.427
166.442
169.301
171.987
174.482
176.769
178.834
180.662
182.241
183.561
184.61
185.38
185.863
186.055
185.949
185.542
184.834
183.823
182.51
180.899
178.992
176.795
174.315
171.559
168.536
165.256
161.731
157.973
153.995
149.811
145.437
140.887
136.18
131.331
126.358
121.279
116.111
110.874
105.585
100.261
94.92
89.58
84.258
78.97
73.732
68.56
63.468
58.471
53.582
48.813
44.178
39.685
35.347
31.17
27.165
23.338
19.694
16.24
12.979
9.915
7.049
4.383
1.916
-0.352
-2.424
-4.301
-5.989
-7.491
-8.813
-9.96
-10.94
-11.759
-12.424
-12.945
-13.328
-13.583
-13.719
-13.744
-13.667
-13.498
-13.245
-12.918
-12.524
-12.074
-11.574
-11.034
-10.461
-9.862
-9.245
-8.616
-7.982
-7.349
-6.722
-6.106
-5.505
-4.924
-4.366
-3.834
-3.33
-2.857
-2.416
-2.008
-1.635
-1.296
-0.993
-0.724
-0.489
-0.287
-0.118
0.019
0.127
0.206
0.257
0.283
0.285
0.264
0.222
0.161
0.081
-0.016
-0.128
-0.255
-0.394
-0.546
-0.709
-0.882
-1.065
-1.258
-1.459
-1.669
-1.886
-2.111
-2.344
-2.584
-2.83
-3.083
-3.341
-3.605
-3.875
-4.15
-4.43
-4.714
-5.002
-5.294
-5.589
-5.886
-6.185
-6.484
-6.783
-7.079
-7.371
-7.659
-7.94
-8.213
-8.475
-8.724
-8.959
-9.177
-9.375
-9.552
-9.706
-9.834
-9.935
-10.008
-10.051
-10.065
-10.048
-10.003
-9.928
-9.826
-9.697
-9.543
-9.365
-9.164
-8.943
-8.703
-8.443
-8.167
-7.876
-7.575
-7.265
-6.948
-6.628
-6.307
-5.991
-5.685
-5.39
-5.106
-4.835
-4.578
-4.339
-4.125
-3.936
-3.771
-3.628
-3.506
-3.4
-3.309
-3.218
-3.108
-2.96
-2.756
-2.488
-2.155
-1.749
-1.26
-0.682
0.001
0.783
1.652
2.602
3.628
4.711
5.83
6.934
7.947
8.8
9.432
9.787
9.83
9.522
8.811
7.648
5.981
3.782
1.037
-2.25
-6.1
-10.545
-15.509
-20.816
-26.182
-31.218
-35.613
-39.193
-41.715
-42.867
-42.628
-41.122
-38.703
-36.191
-34.104
-32.57
-31.979
-32.677
-34.496
-37.258
-40.049
-40.768
-38.065
-31.042
-19.219
-3.937
13.235
31.296
50.197
72.091
100.04
135.924
178.441
222.033
258.569
279.381
277.263
249.063
195.413
119.824
28.945
-71.596
-178.603
-289.238
-401.706
-510.892
-607.002
-680.541
-724.232
-736.539
-722.662
-689.535
-642.765
-585.791
-520.145
-448.226
-375.281
-307.467
-249.457
-203.3
-167.293
-137.92
-113.083
-91.907
-74.951
-63.553
-57.095
-53.806
-51.659
-48.429
-43.26
-36.403
-28.219
-19.239
-10.143
-1.512
5.939
11.398
14.602
15.705
14.996
12.939
10.004
6.595
3.2
0.343
-1.669
-2.713
-2.777
-1.972
-0.391
1.899
4.788
8.148
11.862
15.82
19.926
24.109
28.29
32.376
36.277
39.908
43.191
46.089
48.592
50.709
52.466
53.893
55.028
55.921
56.627
57.203
57.7
58.165
58.64
59.168
59.795
60.566
61.52
62.685
64.073
65.694
67.548
69.633
71.945
74.471
77.196
80.106
83.187
86.428
89.818
93.342
96.983
100.723
104.544
108.428
112.357
116.312
120.276
124.228
128.15
132.024
135.831
139.551
143.166
146.653
149.993
153.164
156.149
158.927
161.481
163.794
165.85
167.636
169.139
170.347
171.252
171.844
172.117
172.066
171.687
170.978
169.937
168.567
166.869
164.848
162.51
159.861
156.911
153.669
150.147
146.359
142.318
138.038
133.538
128.833
123.942
118.883
113.677
108.344
102.903
97.375
91.782
86.144
80.482
74.816
69.165
63.55
57.988
52.499
47.099
41.806
36.634
31.598
26.713
21.991
17.444
13.081
8.912
4.945
1.187
-2.358
-5.686
-8.792
-11.677
-14.34
-16.782
-19.005
-21.012
-22.809
-24.4
-25.792
-26.992
-28.01
-28.852
-29.53
-30.052
-30.43
-30.673
-30.793
-30.801
-30.707
-30.524
-30.261
-29.929
-29.539
-29.102
-28.626
-28.122
-27.597
-27.06
-26.519
-25.981
-25.452
-24.938
-24.444
-23.975
-23.533
-23.122
-22.744
-22.4
-22.093
-21.821
-21.584
-21.382
-21.214
-21.077
-20.971
-20.891
-20.837
-20.806
-20.793
-20.797
-20.815
-20.842
-20.877
-20.915
-20.955
-20.994
-21.029
-21.057
-21.078
-21.089
-21.088
-21.076
-21.051
-21.012
-20.96
-20.895
-20.818
-20.73
-20.632
-20.526
-20.415
-20.3
-20.184
-20.07
-19.96
-19.857
-19.763
-19.681
-19.613
-19.561
-19.528
-19.515
-19.524
-19.556
-19.612
-19.695
-19.803
-19.938
-20.1
-20.288
-20.501
-20.738
-20.998
-21.278
-21.577
-21.892
-22.219
-22.556
-22.898
-23.241
-23.58
-23.911
-24.228
-24.525
-24.798
-25.041
-25.248
-25.417
-25.541
-25.617
-25.643
-25.616
-25.534
-25.395
-25.197
-24.941
-24.625
-24.249
-23.813
-23.318
-22.764
-22.154
-21.49
-20.777
-20.018
-19.218
-18.381
-17.511
-16.615
-15.7
-14.77
-13.83
-12.886
-11.944
-11.011
-10.099
-9.214
-8.358
-7.533
-6.736
-5.965
-5.217
-4.483
-3.749
-3.002
-2.231
-1.424
-0.581
0.303
1.235
2.222
3.277
4.402
5.59
6.832
8.112
9.413
10.713
11.976
13.141
14.155
14.966
15.517
15.774
15.691
15.224
14.348
13.025
11.223
8.924
6.104
2.752
-1.111
-5.476
-10.333
-15.577
-21.042
-26.473
-31.512
-35.859
-39.3
-41.6
-42.476
-41.784
-39.621
-36.364
-32.693
-29.221
-26.221
-23.985
-22.991
-23.53
-25.555
-28.16
-29.505
-28.071
-22.91
-14.281
-3.427
9.682
25.3
44.729
71.015
104.413
143.98
187.617
229.264
263.934
287.247
293.577
279.256
241.722
180.088
97.253
-1.022
-109.171
-223.311
-340.351
-457.82
-570.016
-667.178
-739.558
-779.299
-785.016
-761.517
-715.82
-655.934
-586.65
-510.837
-432.373
-355.01
-284.035
-223.857
-175.561
-138.145
-108.574
-84.528
-65.27
-50.966
-42.552
-39.201
-38.888
-39.502
-38.717
-35.609
-30.439
-23.527
-15.477
-7.122
0.888
7.77
12.702
15.484
16.308
15.484
13.512
10.89
8.035
5.439
3.607
2.769
2.987
4.215
6.288
9.084
12.51
16.428
20.693
25.176
29.763
34.36
38.896
43.286
47.436
51.261
54.675
57.635
60.126
62.157
63.759
64.967
65.818
66.364
66.661
66.768
66.738
66.622
66.462
66.306
66.2
66.191
66.323
66.629
67.127
67.826
68.731
69.842
71.158
72.671
74.369
76.24
78.275
80.467
82.808
85.289
87.897
90.618
93.438
96.343
99.32
102.353
105.428
108.53
111.643
114.752
117.843
120.899
123.902
126.834
129.677
132.412
135.023
137.491
139.799
141.931
143.872
145.608
147.126
148.415
149.462
150.26
150.799
151.073
151.075
150.801
150.247
149.412
148.294
146.895
145.216
143.262
141.037
138.546
135.799
132.803
129.568
126.105
122.426
118.545
114.475
110.231
105.829
101.285
96.616
91.838
86.971
82.031
77.036
72.004
66.952
61.898
56.859
51.852
46.893
41.997
37.18
32.457
27.84
23.344
18.98
14.76
10.695
6.792
3.062
-0.49
-3.857
-7.033
-10.016
-12.802
-15.389
-17.777
-19.967
-21.96
-23.759
-25.367
-26.79
-28.031
-29.098
-29.998
-30.738
-31.325
-31.769
-32.078
-32.262
-32.329
-32.29
-32.153
-31.929
-31.627
-31.256
-30.825
-30.345
-29.822
-29.266
-28.685
-28.085
-27.474
-26.859
-26.245
-25.639
-25.044
-24.465
-23.907
-23.372
-22.864
-22.383
-21.932
-21.513
-21.125
-20.768
-20.444
-20.15
-19.887
-19.652
-19.444
-19.263
-19.105
-18.97
-18.855
-18.759
-18.679
-18.614
-18.562
-18.522
-18.492
-18.471
-18.459
-18.454
-18.456
-18.466
-18.482
-18.505
-18.535
-18.574
-18.622
-18.679
-18.746
-18.825
-18.917
-19.022
-19.141
-19.276
-19.428
-19.596
-19.782
-19.987
-20.212
-20.456
-20.721
-21.006
-21.311
-21.636
-21.979
-22.341
-22.718
-23.11
-23.515
-23.93
-24.351
-24.776
-25.201
-25.622
-26.034
-26.432
-26.812
-27.169
-27.496
-27.79
-28.045
-28.257
-28.422
-28.535
-28.594
-28.596
-28.541
-28.424
-28.246
-28.004
-27.698
-27.328
-26.893
-26.392
-25.825
-25.195
-24.503
-23.754
-22.952
-22.1
-21.205
-20.27
-19.303
-18.31
-17.295
-16.264
-15.225
-14.185
-13.155
-12.146
-11.167
-10.223
-9.315
-8.445
-7.607
-6.797
-6.004
-5.213
-4.411
-3.591
-2.745
-1.871
-0.964
-0.013
0.99
2.056
3.194
4.4
5.664
6.979
8.314
9.638
10.913
12.083
13.096
13.911
14.488
14.789
14.777
14.407
13.629
12.408
10.717
8.539
5.863
2.673
-1.02
-5.193
-9.785
-14.725
-19.98
-25.444
-30.941
-36.23
-40.946
-44.756
-47.452
-48.765
-48.378
-46.282
-42.622
-37.771
-32.607
-27.762
-23.533
-20.497
-19.141
-19.396
-21.109
-23.27
-23.701
-20.979
-14.025
-2.4
12.678
30.319
49.86
71.868
98.686
131.746
171.628
215.552
256.893
289.077
304.84
298.134
266.846
210.497
131.504
36.099
-70.378
-184.002
-301.048
-419.535
-534.75
-637.217
-717.609
-767.964
-784.58
-771.366
-734.849
-681.302
-616.813
-543.853
-464.329
-382.672
-303.314
-232.271
-175.053
-132.641
-103.626
-84.471
-70.405
-59.244
-50.548
-44.122
-40.224
-37.894
-35.299
-31.343
-25.542
-18.058
-9.547
-0.829
7.357
14.263
19.127
21.726
22.244
21.01
18.546
15.368
11.902
8.659
6.174
4.719
4.393
5.179
6.924
9.513
12.858
16.816
21.235
25.977
30.918
35.958
41.021
46.01
50.82
55.351
59.503
63.222
66.484
69.286
71.651
73.607
75.188
76.446
77.438
78.222
78.854
79.384
79.855
80.316
80.817
81.406
82.13
83.021
84.097
85.37
86.842
88.513
90.38
92.431
94.652
97.031
99.555
102.214
105.001
107.903
110.906
113.994
117.152
120.364
123.617
126.895
130.182
133.463
136.723
139.946
143.118
146.223
149.243
152.159
154.955
157.61
160.109
162.435
164.57
166.498
168.206
169.681
170.911
171.885
172.594
173.029
173.183
173.051
172.629
171.913
170.902
169.596
167.997
166.106
163.929
161.47
158.737
155.738
152.482
148.981
145.246
141.291
137.129
132.777
128.249
123.563
118.737
113.789
108.736
103.599
98.396
93.147
87.87
82.585
77.311
72.064
66.864
61.727
56.67
51.709
46.859
42.134
37.548
33.113
28.84
24.74
20.821
17.092
13.56
10.23
7.105
4.19
1.485
-1.008
-3.29
-5.362
-7.229
-8.893
-10.359
-11.634
-12.723
-13.636
-14.379
-14.961
-15.392
-15.683
-15.841
-15.879
-15.807
-15.634
-15.372
-15.032
-14.623
-14.155
-13.639
-13.084
-12.499
-11.892
-11.271
-10.644
-10.018
-9.398
-8.791
-8.2
-7.63
-7.086
-6.568
-6.081
-5.626
-5.203
-4.814
-4.459
-4.137
-3.847
-3.59
-3.363
-3.164
-2.993
-2.846
-2.723
-2.62
-2.536
-2.469
-2.416
-2.376
-2.346
-2.324
-2.309
-2.3
-2.296
-2.295
-2.298
-2.304
-2.313
-2.326
-2.343
-2.365
-2.395
-2.432
-2.48
-2.539
-2.612
-2.701
-2.808
-2.935
-3.084
-3.258
-3.458
-3.685
-3.942
-4.228
-4.544
-4.891
-5.27
-5.679
-6.12
-6.59
-7.09
-7.618
-8.172
-8.751
-9.352
-9.972
-10.608
-11.258
-11.916
-12.579
-13.242
-13.901
-14.551
-15.186
-15.802
-16.392
-16.95
-17.472
-17.951
-18.382
-18.759
-19.079
-19.337
-19.53
-19.655
-19.71
-19.695
-19.609
-19.452
-19.224
-18.927
-18.561
-18.128
-17.63
-17.07
-16.449
-15.773
-15.046
-14.273
-13.461
-12.615
-11.741
-10.846
-9.936
-9.018
-8.101
-7.19
-6.29
-5.409
-4.555
-3.739
-2.969
-2.246
-1.571
-0.94
-0.35
0.203
0.727
1.239
1.753
2.282
2.837
3.421
4.04
4.7
5.415
6.198
7.053
7.976
8.953
9.969
11.008
12.049
13.053
13.966
14.73
15.29
15.6
15.621
15.31
14.628
13.538
12.004
9.994
7.486
4.472
0.946
-3.069
-7.56
-12.524
-17.852
-23.357
-28.778
-33.755
-37.986
-41.281
-43.381
-43.949
-42.926
-40.442
-36.897
-33.113
-29.624
-26.679
-24.764
-24.335
-25.494
-27.861
-30.055
-30.15
-26.945
-20.318
-11.04
0.326
14.103
31.462
54.497
84.55
121.096
162.626
205.701
245.014
276.214
294.264
293.111
269.449
220.805
147.254
54.91
-50.16
-162.589
-277.887
-394.512
-506.459
-611.032
-708.685
-776.98
-793.78
-776.039
-744.731
-697.127
-633.144
-559.606
-479.824
-397.398
-316.562
-243.019
-182.436
-136.388
-104.191
-82.921
-68.029
-57.197
-49.807
-45.494
-44.266
-44.844
-45.031
-43.433
-39.419
-33.119
-25.186
-16.448
-7.73
0.071
5.988
9.631
11.095
10.669
8.866
6.198
3.101
0.118
-2.164
-3.439
-3.598
-2.662
-0.799
1.866
5.239
9.171
13.501
18.089
22.813
27.582
32.331
36.971
41.404
45.536
49.275
52.573
55.412
57.793
59.741
61.286
62.467
63.336
63.952
64.374
64.658
64.855
65.009
65.17
65.387
65.709
66.184
66.841
67.702
68.777
70.07
71.582
73.31
75.245
77.373
79.683
82.163
84.805
87.598
90.53
93.588
96.756
100.016
103.353
106.752
110.195
113.667
117.15
120.628
124.082
127.496
130.853
134.132
137.315
140.38
143.309
146.082
148.681
151.088
153.285
155.258
156.991
158.472
159.689
160.631
161.289
161.656
161.723
161.488
160.945
160.093
158.931
157.46
155.683
153.603
151.226
148.558
145.609
142.387
138.903
135.171
131.202
127.011
122.614
118.027
113.267
108.352
103.301
98.131
92.862
87.514
82.106
76.657
71.187
65.714
60.257
54.835
49.464
44.163
38.948
33.834
28.837
23.97
19.248
14.682
10.284
6.064
2.031
-1.807
-5.444
-8.873
-12.092
-15.095
-17.883
-20.453
-22.807
-24.946
-26.873
-28.59
-30.103
-31.418
-32.54
-33.477
-34.236
-34.826
-35.256
-35.536
-35.674
-35.682
-35.57
-35.348
-35.027
-34.616
-34.128
-33.572
-32.958
-32.296
-31.596
-30.867
-30.117
-29.354
-28.587
-27.821
-27.064
-26.322
-25.599
-24.901
-24.231
-23.592
-22.989
-22.422
-21.894
-21.407
-20.96
-20.554
-20.19
-19.866
-19.582
-19.336
-19.127
-18.954
-18.814
-18.705
-18.625
-18.573
-18.544
-18.538
-18.552
-18.583
-18.629
-18.689
-18.76
-18.841
-18.931
-19.028
-19.132
-19.243
-19.358
-19.48
-19.606
-19.739
-19.877
-20.023
-20.175
-20.335
-20.505
-20.684
-20.874
-21.075
-21.289
-21.515
-21.754
-22.007
-22.274
-22.555
-22.849
-23.158
-23.48
-23.817
-24.166
-24.527
-24.899
-25.281
-25.672
-26.068
-26.469
-26.871
-27.271
-27.667
-28.055
-28.431
-28.793
-29.135
-29.454
-29.744
-30.003
-30.226
-30.408
-30.546
-30.636
-30.675
-30.66
-30.591
-30.464
-30.281
-30.04
-29.741
-29.385
-28.971
-28.501
-27.977
-27.398
-26.767
-26.085
-25.355
-24.579
-23.763
-22.911
-22.026
-21.113
-20.177
-19.222
-18.257
-17.286
-16.313
-15.341
-14.376
-13.423
-12.492
-11.59
-10.714
-9.864
-9.038
-8.233
-7.446
-6.67
-5.886
-5.08
-4.238
-3.351
-2.418
-1.439
-0.406
0.69
1.858
3.102
4.406
5.753
7.135
8.535
9.93
11.282
12.524
13.591
14.428
14.986
15.229
15.125
14.639
13.731
12.362
10.498
8.127
5.237
1.829
-2.107
-6.597
-11.556
-16.783
-22.008
-26.856
-30.997
-34.243
-36.336
-36.951
-36.066
-33.843
-30.683
-27.462
-24.821
-23.016
-22.455
-23.512
-26.096
-29.947
-34.251
-37.04
-36.556
-31.648
-21.23
-5.726
13.42
35.209
58.785
84.83
115.081
150.285
189.342
227.692
259.188
277.513
276.57
253.376
207.078
138.815
53.167
-45.138
-152.217
-265.12
-381.045
-492.709
-596.99
-693.46
-759.86
-774.677
-754.663
-720.847
-671.34
-606.246
-533.512
-458.126
-382.505
-309.894
-244.701
-189.46
-145.443
-111.993
-86.121
-66.2
-51.181
-41.319
-37.614
-38.08
-40.129
-40.749
-37.086
-29.973
-20.806
-10.782
-1.774
6.24
13.252
18.489
22.036
23.715
23.459
21.828
19.276
16.257
13.375
11.158
9.875
9.649
10.468
12.176
14.662
17.84
21.572
25.708
30.12
34.685
39.313
43.94
48.476
52.822
56.883
60.564
63.815
66.615
68.964
70.884
72.403
73.558
74.403
74.995
75.394
75.654
75.828
75.958
76.097
76.293
76.596
77.054
77.701
78.555
79.631
80.932
82.46
84.212
86.179
88.347
90.704
93.239
95.942
98.805
101.813
104.953
108.209
111.564
115
118.504
122.058
125.644
129.246
132.846
136.427
139.973
143.465
146.883
150.207
153.418
156.495
159.42
162.174
164.738
167.096
169.232
171.132
172.782
174.172
175.291
176.13
176.68
176.936
176.893
176.547
175.896
174.939
173.677
172.113
170.249
168.091
165.645
162.918
159.921
156.662
153.153
149.407
145.437
141.259
136.887
132.337
127.628
122.775
117.797
112.712
107.538
102.295
97
91.671
86.326
80.984
75.66
70.372
65.136
59.967
54.88
49.889
45.009
40.252
35.629
31.153
26.833
22.678
18.698
14.899
11.287
7.868
4.646
1.624
-1.197
-3.814
-6.229
-8.443
-10.457
-12.275
-13.9
-15.338
-16.594
-17.674
-18.585
-19.334
-19.929
-20.377
-20.689
-20.871
-20.933
-20.884
-20.734
-20.49
-20.162
-19.761
-19.293
-18.77
-18.198
-17.588
-16.947
-16.283
-15.603
-14.916
-14.229
-13.547
-12.876
-12.223
-11.593
-10.99
-10.418
-9.88
-9.381
-8.922
-8.505
-8.134
-7.808
-7.529
-7.299
-7.116
-6.983
-6.897
-6.86
-6.871
-6.929
-7.034
-7.184
-7.379
-7.617
-7.897
-8.217
-8.576
-8.971
-9.4
-9.862
-10.354
-10.873
-11.416
-11.98
-12.564
-13.163
-13.775
-14.398
-15.029
-15.664
-16.301
-16.936
-17.568
-18.192
-18.806
-19.406
-19.989
-20.552
-21.093
-21.606
-22.089
-22.539
-22.952
-23.325
-23.654
-23.936
-24.167
-24.346
-24.469
-24.535
-24.542
-24.491
-24.379
-24.21
-23.984
-23.702
-23.366
-22.977
-22.539
-22.054
-21.523
-20.951
-20.339
-19.692
-19.015
-18.311
-17.587
-16.849
-16.1
-15.347
-14.596
-13.853
-13.124
-12.413
-11.725
-11.066
-10.44
-9.859
-9.326
-8.844
-8.411
-8.025
-7.683
-7.378
-7.102
-6.837
-6.568
-6.281
-5.962
-5.607
-5.209
-4.758
-4.244
-3.657
-2.992
-2.257
-1.463
-0.615
0.269
1.164
2.032
2.813
3.451
3.893
4.082
3.97
3.51
2.656
1.383
-0.333
-2.518
-5.186
-8.358
-12.055
-16.25
-20.916
-26.028
-31.438
-36.952
-42.317
-47.139
-51.095
-53.966
-55.452
-55.345
-53.73
-50.794
-46.979
-43.021
-39.345
-36.268
-34.353
-33.852
-34.579
-36.17
-37.393
-36.468
-32.386
-24.072
-11.215
4.908
23.457
43.391
64.969
90.612
121.74
158.785
198.896
235.535
261.927
270.539
255.549
214.881
149.438
64.76
-31.383
-132.731
-235.727
-339.779
-443.894
-543.093
-628.641
-690.638
-722.159
-722.637
-696.375
-650.335
-592.298
-528.022
-462.435
-399.586
-341.078
-287.68
-238.854
-193.367
-151.687
-114.996
-84.863
-62.781
-48.59
-41.117
-38.356
-37.896
-37.945
-37.093
-34.634
-30.616
-25.156
-18.553
-11.45
-4.45
1.726
6.274
8.941
9.835
9.197
7.484
5.153
2.598
0.303
-1.261
-1.872
-1.459
-0.07
2.147
5.079
8.629
12.661
17.032
21.613
26.298
31.002
35.649
40.149
44.405
48.321
51.832
54.912
57.553
59.776
61.61
63.089
64.259
65.177
65.894
66.464
66.935
67.35
67.755
68.199
68.73
69.398
70.239
71.273
72.515
73.971
75.64
77.52
79.603
81.873
84.32
86.932
89.7
92.614
95.663
98.833
102.109
105.473
108.908
112.4
115.932
119.487
123.048
126.597
130.118
133.595
137.011
140.345
143.578
146.691
149.664
152.479
155.116
157.559
159.789
161.792
163.553
165.06
166.3
167.263
167.94
168.323
168.405
168.183
167.652
166.81
165.658
164.195
162.424
160.348
157.975
155.309
152.359
149.134
145.646
141.906
137.928
133.725
129.313
124.708
119.926
114.986
109.904
104.7
99.393
94.002
88.545
83.042
77.513
71.975
66.447
60.947
55.492
50.099
44.785
39.564
34.453
29.464
24.61
19.905
15.36
10.984
6.787
2.778
-1.038
-4.653
-8.063
-11.264
-14.254
-17.031
-19.595
-21.947
-24.089
-26.022
-27.751
-29.28
-30.615
-31.762
-32.728
-33.52
-34.145
-34.614
-34.934
-35.114
-35.164
-35.094
-34.913
-34.631
-34.257
-33.802
-33.274
-32.684
-32.04
-31.351
-30.626
-29.874
-29.101
-28.316
-27.525
-26.735
-25.952
-25.182
-24.429
-23.699
-22.995
-22.321
-21.681
-21.076
-20.508
-19.981
-19.494
-19.048
-18.645
-18.284
-17.966
-17.69
-17.455
-17.261
-17.108
-16.993
-16.916
-16.876
-16.872
-16.901
-16.963
-17.057
-17.18
-17.332
-17.511
-17.716
-17.945
-18.196
-18.468
-18.759
-19.067
-19.39
-19.727
-20.074
-20.432
-20.797
-21.168
-21.543
-21.921
-22.299
-22.675
-23.048
-23.414
-23.772
-24.118
-24.452
-24.769
-25.068
-25.346
-25.599
-25.826
-26.022
-26.186
-26.314
-26.402
-26.448
-26.45
-26.405
-26.312
-26.169
-25.975
-25.731
-25.437
-25.095
-24.705
-24.268
-23.787
-23.264
-22.7
-22.099
-21.462
-20.793
-20.094
-19.372
-18.63
-17.876
-17.113
-16.347
-15.583
-14.827
-14.086
-13.366
-12.67
-12.004
-11.371
-10.779
-10.237
-9.75
-9.318
-8.94
-8.612
-8.331
-8.091
-7.883
-7.689
-7.495
-7.287
-7.054
-6.789
-6.486
-6.137
-5.729
-5.249
-4.691
-4.062
-3.369
-2.621
-1.832
-1.018
-0.211
0.536
1.174
1.652
1.921
1.942
1.67
1.062
0.091
-1.282
-3.09
-5.356
-8.1
-11.343
-15.065
-19.263
-23.952
-29.015
-34.275
-39.479
-44.244
-48.269
-51.385
-53.332
-53.804
-52.793
-50.437
-47.13
-43.708
-40.678
-38.161
-36.539
-36.161
-36.899
-38.585
-40.27
-39.846
-36.045
-28.109
-15.493
0.62
18.99
39.045
60.17
83.7
111.868
145.618
184.695
225.32
261.234
285.935
291.842
273.756
229.483
159.167
68.553
-35.227
-146.507
-260.128
-374.348
-486.399
-588.925
-673.438
-731.048
-756.633
-752.475
-724.528
-679.748
-624.223
-560.632
-489.891
-414.219
-337.193
-264.012
-201.035
-151.912
-116.611
-92.732
-76.064
-63.592
-54.708
-49.303
-47.107
-46.842
-46.379
-44.197
-39.657
-32.924
-24.468
-14.925
-5.218
3.662
10.667
15.251
17.506
17.76
16.47
14.115
11.131
8.056
5.505
3.859
3.251
3.68
5.005
7.105
9.911
13.305
17.143
21.301
25.662
30.13
34.644
39.128
43.487
47.635
51.479
54.944
57.993
60.615
62.82
64.636
66.091
67.223
68.081
68.721
69.198
69.567
69.873
70.158
70.467
70.847
71.343
71.998
72.839
73.881
75.133
76.597
78.273
80.158
82.241
84.508
86.946
89.543
92.291
95.177
98.191
101.316
104.536
107.835
111.195
114.6
118.035
121.482
124.923
128.34
131.718
135.039
138.287
141.441
144.484
147.395
150.158
152.754
155.166
157.376
159.371
161.136
162.658
163.926
164.93
165.661
166.113
166.279
166.154
165.736
165.023
164.014
162.71
161.115
159.232
157.066
154.624
151.914
148.945
145.729
142.276
138.599
134.713
130.631
126.369
121.944
117.37
112.667
107.851
102.939
97.951
92.904
87.816
82.704
77.587
72.481
67.403
62.368
57.393
52.492
47.679
42.968
38.372
33.902
29.571
25.387
21.36
17.499
13.81
10.3
6.974
3.836
0.89
-1.864
-4.424
-6.79
-8.963
-10.944
-12.737
-14.345
-15.773
-17.025
-18.108
-19.027
-19.79
-20.404
-20.875
-21.214
-21.427
-21.522
-21.509
-21.395
-21.19
-20.901
-20.536
-20.105
-19.615
-19.074
-18.489
-17.868
-17.217
-16.543
-15.853
-15.151
-14.444
-13.735
-13.029
-12.33
-11.642
-10.968
-10.311
-9.672
-9.054
-8.458
-7.886
-7.338
-6.815
-6.318
-5.846
-5.399
-4.978
-4.581
-4.21
-3.864
-3.541
-3.244
-2.97
-2.72
-2.494
-2.292
-2.113
-1.958
-1.828
-1.722
-1.641
-1.587
-1.558
-1.557
-1.584
-1.639
-1.723
-1.836
-1.98
-2.153
-2.357
-2.592
-2.857
-3.152
-3.478
-3.835
-4.222
-4.638
-5.083
-5.555
-6.053
-6.576
-7.12
-7.685
-8.267
-8.862
-9.469
-10.084
-10.701
-11.319
-11.93
-12.533
-13.12
-13.688
-14.231
-14.743
-15.222
-15.661
-16.058
-16.407
-16.708
-16.956
-17.152
-17.293
-17.378
-17.406
-17.377
-17.29
-17.145
-16.943
-16.682
-16.365
-15.994
-15.571
-15.102
-14.589
-14.038
-13.453
-12.84
-12.203
-11.549
-10.883
-10.21
-9.535
-8.865
-8.207
-7.573
-6.969
-6.396
-5.854
-5.341
-4.852
-4.381
-3.919
-3.448
-2.957
-2.435
-1.875
-1.273
-0.622
0.085
0.856
1.704
2.631
3.631
4.696
5.81
6.954
8.103
9.218
10.242
11.127
11.827
12.3
12.507
12.397
11.923
11.047
9.742
7.994
5.783
3.089
-0.097
-3.774
-7.897
-12.409
-17.283
-22.406
-27.593
-32.591
-37.019
-40.532
-42.939
-43.988
-43.373
-41.117
-37.397
-32.631
-27.684
-23.138
-19.311
-16.789
-16.04
-17.054
-19.342
-21.514
-21.698
-18.593
-11.945
-2.403
9.715
24.265
41.876
65.057
95.021
131.828
174.905
219.417
259.167
288.353
299.191
286.072
246.612
180.454
92.42
-9.875
-119.92
-232.977
-347.206
-461.398
-570.754
-666.719
-738.86
-778.346
-783.239
-757.612
-708.722
-645.556
-573.434
-495.091
-414.228
-333.841
-259.151
-196.371
-147.688
-112.982
-89.339
-71.999
-58.683
-48.752
-42.181
-39.192
-38.454
-37.815
-35.773
-31.481
-24.977
-16.874
-7.89
1.059
8.977
14.929
18.48
19.752
19.092
17.002
13.991
10.517
7.142
4.47
2.844
2.37
3.024
4.65
7.122
10.363
14.237
18.58
23.253
28.117
33.068
38.031
42.907
47.588
51.97
55.95
59.472
62.517
65.086
67.201
68.892
70.195
71.159
71.847
72.316
72.628
72.836
72.989
73.139
73.341
73.645
74.103
74.747
75.597
76.666
77.957
79.47
81.204
83.15
85.293
87.621
90.124
92.791
95.613
98.577
101.668
104.869
108.164
111.536
114.967
118.442
121.943
125.452
128.952
132.423
135.849
139.211
142.488
145.659
148.704
151.601
154.332
156.877
159.217
161.335
163.215
164.841
166.201
167.284
168.077
168.571
168.76
168.637
168.197
167.437
166.356
164.953
163.23
161.19
158.839
156.182
153.228
149.985
146.466
142.681
138.644
134.371
129.876
125.175
120.288
115.231
110.024
104.685
99.236
93.695
88.083
82.421
76.728
71.024
65.328
59.659
54.036
48.476
42.997
37.614
32.344
27.201
22.199
17.35
12.667
8.159
3.838
-0.29
-4.217
-7.938
-11.446
-14.74
-17.816
-20.673
-23.311
-25.732
-27.936
-29.928
-31.71
-33.289
-34.67
-35.859
-36.864
-37.692
-38.353
-38.855
-39.207
-39.419
-39.501
-39.463
-39.314
-39.066
-38.727
-38.308
-37.819
-37.269
-36.667
-36.022
-35.343
-34.638
-33.914
-33.178
-32.437
-31.698
-30.966
-30.247
-29.544
-28.863
-28.207
-27.58
-26.983
-26.421
-25.893
-25.403
-24.951
-24.538
-24.164
-23.829
-23.534
-23.277
-23.059
-22.879
-22.735
-22.628
-22.555
-22.515
-22.508
-22.532
-22.586
-22.669
-22.779
-22.915
-23.075
-23.258
-23.462
-23.686
-23.928
-24.186
-24.457
-24.741
-25.036
-25.339
-25.648
-25.962
-26.278
-26.594
-26.908
-27.217
-27.519
-27.811
-28.091
-28.355
-28.6
-28.825
-29.026
-29.199
-29.341
-29.45
-29.522
-29.554
-29.544
-29.489
-29.386
-29.233
-29.03
-28.774
-28.466
-28.105
-27.694
-27.232
-26.722
-26.166
-25.565
-24.922
-24.239
-23.52
-22.767
-21.984
-21.175
-20.344
-19.497
-18.641
-17.78
-16.92
-16.067
-15.226
-14.405
-13.608
-12.841
-12.107
-11.411
-10.758
-10.155
-9.609
-9.117
-8.676
-8.282
-7.93
-7.613
-7.322
-7.041
-6.753
-6.446
-6.106
-5.731
-5.312
-4.841
-4.307
-3.695
-3.002
-2.232
-1.401
-0.519
0.402
1.345
2.275
3.14
3.89
4.476
4.854
4.987
4.825
4.326
3.456
2.18
0.468
-1.701
-4.34
-7.466
-11.058
-15.102
-19.603
-24.447
-29.454
-34.376
-38.843
-42.54
-45.277
-46.784
-46.742
-45.143
-42.149
-38.18
-34.088
-30.421
-27.456
-25.732
-25.695
-27.369
-30.259
-32.939
-33.504
-30.665
-24.264
-15.054
-3.329
10.92
28.514
51.996
82.433
119.71
163.172
208.094
248.526
278.822
291.257
280.209
243.224
179.814
94.539
-5.093
-112.466
-222.705
-333.56
-444.039
-550.803
-646.423
-721.712
-768.689
-783.55
-769.019
-731.165
-676.486
-610.631
-535.959
-454.86
-371.649
-291.494
-221.408
-166.14
-125.91
-97.837
-77.174
-60.701
-48.063
-41.116
-40.466
-43.766
-47.47
-47.043
-40.787
-30.839
-19.512
-9.414
-1.819
4.236
9.094
12.715
15.101
15.752
14.701
12.509
9.687
6.801
4.393
2.844
2.348
2.973
4.651
7.217
10.549
14.539
19.048
23.937
29.074
34.332
39.614
44.827
49.867
54.626
59.001
62.921
66.356
69.299
71.767
73.793
75.411
76.671
77.634
78.355
78.892
79.3
79.627
79.927
80.253
80.658
81.195
81.9
82.797
83.901
85.216
86.744
88.482
90.422
92.549
94.853
97.324
99.95
102.725
105.637
108.673
111.816
115.052
118.363
121.736
125.154
128.601
132.061
135.517
138.953
142.354
145.7
148.974
152.156
155.226
158.164
160.952
163.57
166
168.226
170.231
172.002
173.525
174.788
175.782
176.495
176.922
177.054
176.888
176.419
175.645
174.566
173.182
171.495
169.51
167.232
164.668
161.825
158.714
155.345
151.731
147.884
143.819
139.551
135.095
130.47
125.691
120.779
115.75
110.624
105.419
100.156
94.851
89.525
84.195
78.878
73.593
68.356
63.184
58.091
53.093
48.204
43.437
38.805
34.318
29.988
25.822
21.831
18.02
14.396
10.964
7.728
4.691
1.854
-0.782
-3.218
-5.453
-7.492
-9.337
-10.992
-12.462
-13.752
-14.87
-15.822
-16.615
-17.257
-17.758
-18.124
-18.366
-18.492
-18.512
-18.435
-18.27
-18.028
-17.716
-17.345
-16.923
-16.459
-15.96
-15.435
-14.892
-14.337
-13.779
-13.222
-12.674
-12.139
-11.625
-11.134
-10.672
-10.244
-9.852
-9.5
-9.19
-8.927
-8.71
-8.543
-8.425
-8.359
-8.345
-8.381
-8.468
-8.606
-8.791
-9.024
-9.301
-9.621
-9.982
-10.38
-10.812
-11.277
-11.771
-12.291
-12.833
-13.394
-13.971
-14.559
-15.156
-15.756
-16.356
-16.951
-17.538
-18.11
-18.664
-19.194
-19.696
-20.165
-20.595
-20.983
-21.322
-21.61
-21.843
-22.016
-22.129
-22.177
-22.161
-22.08
-21.934
-21.724
-21.448
-21.11
-20.71
-20.25
-19.731
-19.156
-18.527
-17.846
-17.119
-16.351
-15.545
-14.708
-13.844
-12.96
-12.062
-11.156
-10.249
-9.346
-8.454
-7.579
-6.728
-5.912
-5.137
-4.405
-3.717
-3.069
-2.459
-1.882
-1.331
-0.791
-0.249
0.305
0.884
1.486
2.119
2.789
3.5
4.267
5.096
5.976
6.9
7.851
8.806
9.751
10.652
11.456
12.116
12.583
12.804
12.754
12.4
11.702
10.639
9.17
7.254
4.878
2.016
-1.343
-5.174
-9.486
-14.293
-19.497
-24.941
-30.386
-35.474
-39.918
-43.53
-46.065
-47.237
-46.916
-45.198
-42.464
-39.418
-36.736
-34.756
-33.735
-34.106
-36.076
-39.421
-43.58
-47.002
-47.655
-44.47
-36.47
-23.437
-6.861
12.7
34.69
58.959
87.699
121.371
159.177
199.254
236.183
265.199
281.35
277.83
250.561
197.109
118.019
20.151
-89.516
-205.713
-323.959
-442.687
-557.428
-658.911
-737.341
-783.963
-795.971
-777.963
-737.427
-681.985
-616.574
-542.804
-462.662
-380.034
-300.771
-231.946
-177.717
-138.238
-110.7
-90.469
-74.469
-61.844
-52.892
-48.044
-46.338
-45.811
-44.44
-40.855
-34.958
-27.254
-18.364
-9.193
-0.521
6.904
12.27
15.342
16.317
15.526
13.481
10.698
7.613
4.739
2.593
1.431
1.331
2.256
4.053
6.607
9.827
13.575
17.708
22.097
26.629
31.212
35.777
40.235
44.49
48.451
52.029
55.177
57.877
60.135
61.977
63.438
64.555
65.381
65.977
66.399
66.707
66.951
67.176
67.432
67.767
68.23
68.87
69.718
70.792
72.105
73.658
75.451
77.482
79.738
82.206
84.87
87.718
90.738
93.919
97.248
100.707
104.278
107.941
111.677
115.469
119.296
123.139
126.978
130.791
134.56
138.264
141.884
145.396
148.779
152.01
155.066
157.928
160.575
162.986
165.145
167.033
168.637
169.943
170.939
171.615
171.962
171.974
171.645
170.972
169.954
168.59
166.883
164.835
162.452
159.742
156.713
153.375
149.741
145.823
141.637
137.198
132.524
127.634
122.546
117.281
111.86
106.304
100.635
94.875
89.047
83.172
77.272
71.37
65.485
59.639
53.851
48.139
42.524
37.02
31.645
26.414
21.34
16.437
11.717
7.19
2.865
-1.249
-5.146
-8.82
-12.268
-15.486
-18.472
-21.227
-23.752
-26.047
-28.118
-29.967
-31.601
-33.025
-34.247
-35.273
-36.113
-36.776
-37.27
-37.606
-37.793
-37.843
-37.765
-37.57
-37.268
-36.87
-36.386
-35.826
-35.2
-34.517
-33.786
-33.016
-32.216
-31.394
-30.558
-29.715
-28.871
-28.034
-27.208
-26.4
-25.614
-24.855
-24.126
-23.432
-22.775
-22.158
-21.584
-21.053
-20.569
-20.132
-19.742
-19.4
-19.106
-18.86
-18.661
-18.508
-18.4
-18.336
-18.315
-18.336
-18.396
-18.495
-18.63
-18.798
-18.998
-19.227
-19.483
-19.761
-20.059
-20.375
-20.703
-21.042
-21.387
-21.734
-22.079
-22.418
-22.747
-23.06
-23.355
-23.626
-23.869
-24.08
-24.257
-24.395
-24.493
-24.548
-24.559
-24.525
-24.445
-24.318
-24.143
-23.92
-23.65
-23.331
-22.965
-22.551
-22.092
-21.59
-21.048
-20.469
-19.857
-19.215
-18.548
-17.86
-17.157
-16.443
-15.723
-15.001
-14.281
-13.57
-12.879
-12.214
-11.577
-10.967
-10.382
-9.818
-9.272
-8.735
-8.192
-7.629
-7.033
-6.394
-5.708
-4.971
-4.177
-3.315
-2.372
-1.343
-0.234
0.939
2.161
3.415
4.678
5.908
7.043
8.024
8.788
9.283
9.467
9.289
8.704
7.669
6.14
4.079
1.458
-1.733
-5.501
-9.821
-14.671
-20.033
-25.782
-31.723
-37.589
-43.026
-47.744
-51.563
-54.233
-55.435
-55.103
-53.331
-50.459
-47.214
-44.027
-41.067
-38.75
-37.471
-37.341
-38.075
-38.414
-36.585
-31.548
-23.283
-12.821
-1.191
11.657
26.793
46.599
73.258
106.858
146.272
188.305
227.469
259.182
277.987
277.053
252.398
201.364
124.667
29.535
-76.911
-188.841
-302.227
-416.161
-525.111
-626.704
-721.311
-786.266
-799.275
-777.424
-741.981
-690.41
-622.721
-545.937
-463.853
-380.31
-300.445
-230.679
-175.618
-135.518
-107.351
-86.295
-69.325
-56.71
-50.451
-51.748
-58.323
-64.64
-65.298
-57.624
-42.756
-25.04
-8.746
3.761
12.032
17.258
20.667
22.762
23.578
22.871
20.755
17.745
14.509
11.762
9.884
8.981
9.074
10.063
11.851
14.374
17.514
21.145
25.164
29.467
33.967
38.588
43.238
47.83
52.274
56.477
60.367
63.883
66.988
69.677
71.964
73.875
75.446
76.718
77.741
78.575
79.276
79.896
80.484
81.084
81.738
82.493
83.389
84.461
85.734
87.22
88.925
90.851
92.994
95.348
97.902
100.638
103.542
106.601
109.801
113.131
116.575
120.114
123.732
127.41
131.128
134.868
138.613
142.342
146.036
149.674
153.24
156.712
160.074
163.303
166.379
169.282
171.994
174.495
176.767
178.794
180.56
182.052
183.257
184.165
184.767
185.055
185.022
184.665
183.98
182.967
181.624
179.955
177.962
175.65
173.026
170.098
166.875
163.368
159.591
155.555
151.277
146.772
142.057
137.15
132.069
126.835
121.466
115.984
110.407
104.759
99.058
93.326
87.583
81.848
76.141
70.481
64.886
59.373
53.958
48.657
43.486
38.457
33.584
28.879
24.352
20.013
15.871
11.932
8.204
4.69
1.395
-1.679
-4.531
-7.161
-9.568
-11.757
-13.729
-15.49
-17.043
-18.396
-19.554
-20.525
-21.318
-21.941
-22.404
-22.715
-22.884
-22.922
-22.839
-22.645
-22.351
-21.965
-21.5
-20.964
-20.368
-19.722
-19.034
-18.314
-17.572
-16.814
-16.05
-15.288
-14.534
-13.795
-13.078
-12.389
-11.734
-11.117
-10.544
-10.018
-9.543
-9.123
-8.76
-8.457
-8.215
-8.036
-7.92
-7.868
-7.88
-7.955
-8.093
-8.293
-8.553
-8.871
-9.247
-9.677
-10.159
-10.691
-11.269
-11.89
-12.551
-13.248
-13.978
-14.735
-15.516
-16.315
-17.129
-17.952
-18.778
-19.602
-20.419
-21.222
-22.006
-22.764
-23.491
-24.181
-24.829
-25.43
-25.979
-26.473
-26.908
-27.283
-27.594
-27.84
-28.02
-28.132
-28.176
-28.151
-28.057
-27.894
-27.662
-27.364
-27.002
-26.58
-26.102
-25.573
-24.997
-24.38
-23.728
-23.046
-22.34
-21.613
-20.874
-20.131
-19.392
-18.669
-17.969
-17.296
-16.653
-16.038
-15.446
-14.873
-14.308
-13.736
-13.147
-12.532
-11.887
-11.209
-10.494
-9.732
-8.915
-8.033
-7.078
-6.054
-4.971
-3.836
-2.68
-1.531
-0.426
0.583
1.45
2.138
2.611
2.836
2.78
2.399
1.648
0.496
-1.084
-3.104
-5.577
-8.521
-11.924
-15.77
-20.004
-24.564
-29.432
-34.513
-39.641
-44.582
-48.966
-52.463
-54.873
-55.936
-55.336
-53.077
-49.321
-44.475
-39.467
-34.964
-31.262
-28.933
-28.463
-29.766
-32.664
-36.051
-37.566
-35.678
-29.278
-18.039
-3.416
13.616
32.475
54.003
80.976
115.054
156.812
203.232
247.203
281.821
299.583
294.249
263.702
207.321
127.61
31.222
-76.166
-189.8
-306.373
-424.197
-535.951
-638.713
-733.298
-796.181
-805.018
-778.563
-739.016
-684.057
-613.183
-534.07
-452.044
-370.345
-293.481
-227.135
-174.053
-134.407
-106.122
-84.894
-67.996
-54.406
-44.187
-37.977
-34.963
-33.318
-31.111
-26.912
-20.606
-12.744
-3.949
4.905
13.095
19.942
24.673
27.071
27.35
25.864
23.141
19.707
16
12.531
9.825
8.148
7.59
8.124
9.599
11.904
14.948
18.592
22.685
27.092
31.69
36.382
41.088
45.713
50.154
54.31
58.088
61.434
64.327
66.768
68.783
70.401
71.662
72.616
73.326
73.849
74.243
74.561
74.848
75.152
75.525
76.016
76.671
77.523
78.589
79.881
81.4
83.145
85.112
87.291
89.663
92.216
94.937
97.813
100.833
103.985
107.25
110.612
114.052
117.552
121.095
124.663
128.238
131.801
135.334
138.82
142.241
145.577
148.81
151.919
154.882
157.681
160.297
162.71
164.902
166.856
168.558
169.992
171.147
172.011
172.575
172.829
172.767
172.384
171.676
170.641
169.278
167.588
165.574
163.24
160.593
157.639
154.388
150.849
147.035
142.959
138.634
134.076
129.301
124.327
119.172
113.854
108.393
102.81
97.123
91.354
85.524
79.654
73.763
67.872
62.001
56.17
50.397
44.7
39.098
33.607
28.242
23.02
17.954
13.056
8.339
3.814
-0.51
-4.625
-8.523
-12.199
-15.647
-18.866
-21.851
-24.603
-27.121
-29.407
-31.462
-33.291
-34.898
-36.287
-37.465
-38.44
-39.217
-39.807
-40.218
-40.458
-40.539
-40.471
-40.263
-39.927
-39.473
-38.914
-38.259
-37.52
-36.707
-35.832
-34.904
-33.934
-32.931
-31.905
-30.864
-29.817
-28.772
-27.736
-26.716
-25.719
-24.751
-23.817
-22.923
-22.072
-21.27
-20.519
-19.824
-19.187
-18.611
-18.097
-17.648
-17.264
-16.947
-16.697
-16.515
-16.398
-16.348
-16.362
-16.438
-16.576
-16.772
-17.024
-17.329
-17.685
-18.088
-18.535
-19.024
-19.549
-20.109
-20.699
-21.315
-21.952
-22.608
-23.278
-23.956
-24.64
-25.323
-26.002
-26.67
-27.323
-27.955
-28.561
-29.136
-29.673
-30.167
-30.614
-31.01
-31.349
-31.629
-31.846
-31.999
-32.087
-32.108
-32.062
-31.949
-31.769
-31.523
-31.211
-30.835
-30.395
-29.893
-29.333
-28.717
-28.052
-27.341
-26.59
-25.805
-24.992
-24.156
-23.305
-22.443
-21.576
-20.711
-19.857
-19.022
-18.217
-17.451
-16.726
-16.044
-15.404
-14.8
-14.227
-13.674
-13.126
-12.571
-12.001
-11.41
-10.795
-10.151
-9.468
-8.739
-7.952
-7.099
-6.185
-5.216
-4.202
-3.17
-2.148
-1.169
-0.284
0.465
1.042
1.413
1.548
1.416
0.977
0.189
-0.979
-2.551
-4.539
-6.96
-9.826
-13.129
-16.852
-20.941
-25.337
-30.025
-34.901
-39.797
-44.484
-48.605
-51.855
-54.07
-55.002
-54.354
-52.153
-48.561
-43.972
-39.281
-35.068
-31.528
-29.169
-28.436
-29.219
-31.372
-33.875
-34.411
-31.528
-24.301
-12.445
2.31
18.324
34.825
52.424
74.191
103.499
141.954
187.405
233.174
270.699
291.417
288.368
258.728
202.859
123.71
27.753
-79.561
-194.449
-313.74
-434.814
-548.635
-649.876
-737.729
-790.491
-790.178
-757.077
-713.834
-659.518
-592.257
-517.64
-439.68
-360.498
-285.015
-218.979
-164.978
-123.824
-93.555
-70.418
-52.814
-39.914
-32.196
-30.479
-32.558
-35.826
-37.389
-34.645
-28.548
-20.443
-11.539
-3.755
2.913
8.465
12.231
14.423
14.939
13.746
11.436
8.486
5.364
2.662
0.829
0.056
0.414
1.843
4.166
7.259
11.011
15.272
19.894
24.749
29.719
34.709
39.633
44.395
48.891
53.022
56.723
59.965
62.744
65.08
67.008
68.564
69.8
70.776
71.549
72.175
72.708
73.195
73.687
74.238
74.896
75.712
76.722
77.946
79.4
81.087
83.005
85.152
87.516
90.082
92.837
95.769
98.866
102.118
105.51
109.028
112.653
116.367
120.152
123.991
127.864
131.755
135.643
139.51
143.336
147.105
150.796
154.388
157.86
161.191
164.36
167.346
170.13
172.693
175.017
177.086
178.886
180.402
181.624
182.541
183.144
183.425
183.379
183.003
182.292
181.247
179.869
178.158
176.121
173.761
171.086
168.106
164.83
161.269
157.437
153.349
149.019
144.463
139.699
134.746
129.622
124.345
118.938
113.418
107.807
102.126
96.395
90.634
84.862
79.1
73.366
67.678
62.055
56.512
51.067
45.734
40.529
35.465
30.554
25.81
21.241
16.858
12.67
8.683
4.904
1.337
-2.013
-5.144
-8.055
-10.744
-13.213
-15.463
-17.498
-19.319
-20.933
-22.344
-23.558
-24.583
-25.425
-26.093
-26.595
-26.94
-27.137
-27.196
-27.126
-26.937
-26.639
-26.242
-25.756
-25.191
-24.557
-23.863
-23.12
-22.336
-21.522
-20.684
-19.833
-18.977
-18.122
-17.276
-16.445
-15.638
-14.858
-14.113
-13.405
-12.742
-12.125
-11.558
-11.045
-10.587
-10.187
-9.844
-9.561
-9.336
-9.17
-9.061
-9.009
-9.012
-9.068
-9.175
-9.33
-9.53
-9.772
-10.052
-10.367
-10.712
-11.082
-11.474
-11.882
-12.301
-12.727
-13.153
-13.576
-13.989
-14.388
-14.766
-15.119
-15.441
-15.727
-15.974
-16.176
-16.33
-16.434
-16.483
-16.478
-16.417
-16.299
-16.125
-15.896
-15.612
-15.275
-14.886
-14.449
-13.964
-13.434
-12.863
-12.254
-11.613
-10.944
-10.254
-9.549
-8.833
-8.113
-7.397
-6.689
-5.999
-5.331
-4.689
-4.081
-3.512
-2.993
-2.53
-2.123
-1.771
-1.472
-1.223
-1.017
-0.847
-0.696
-0.549
-0.394
-0.219
-0.02
0.21
0.479
0.798
1.18
1.628
2.135
2.691
3.284
3.902
4.528
5.125
5.638
6.017
6.213
6.182
5.889
5.289
4.342
3.018
1.288
-0.869
-3.461
-6.502
-10.006
-13.956
-18.342
-23.14
-28.212
-33.38
-38.408
-42.948
-46.729
-49.535
-51.079
-51.149
-49.801
-47.226
-43.859
-40.399
-37.244
-34.663
-33.145
-32.911
-33.808
-35.507
-36.828
-36.002
-31.985
-23.791
-11.315
3.781
20.298
37.173
54.951
76.773
105.043
140.834
181.454
220.234
249.564
261.4
250.055
213.562
153.806
76.702
-10.151
-100.867
-193.466
-288.562
-386.803
-484.644
-573.334
-642.793
-684.579
-696.191
-681.106
-644.79
-593.823
-533.355
-466.926
-399.404
-335.198
-277.451
-228.448
-187.431
-152.17
-121.633
-95.378
-74.007
-58.934
-50.116
-46.068
-44.862
-44.2
-42.413
-39.027
-34.133
-28.018
-21.088
-13.89
-6.968
-0.998
3.299
5.722
6.4
5.583
3.713
1.235
-1.467
-3.913
-5.65
-6.463
-6.279
-5.129
-3.148
-0.433
2.929
6.803
11.053
15.552
20.196
24.905
29.599
34.185
38.563
42.631
46.32
49.602
52.465
54.921
56.995
58.715
60.125
61.282
62.236
63.041
63.744
64.387
65.018
65.688
66.445
67.34
68.41
69.677
71.156
72.854
74.771
76.907
79.252
81.792
84.515
87.41
90.466
93.674
97.021
100.491
104.067
107.731
111.464
115.25
119.069
122.903
126.733
130.54
134.305
138.01
141.635
145.159
148.559
151.816
154.905
157.808
160.504
162.972
165.195
167.155
168.837
170.227
171.314
172.085
172.531
172.646
172.422
171.856
170.945
169.688
168.086
166.142
163.861
161.249
158.314
155.066
151.515
147.676
143.562
139.188
134.572
129.731
124.684
119.451
114.052
108.51
102.845
97.079
91.236
85.337
79.404
73.461
67.527
61.624
55.773
49.993
44.302
38.72
33.262
27.945
22.784
17.792
12.982
8.366
3.953
-0.248
-4.229
-7.985
-11.511
-14.803
-17.86
-20.681
-23.266
-25.616
-27.735
-29.627
-31.296
-32.749
-33.993
-35.034
-35.883
-36.547
-37.037
-37.363
-37.534
-37.563
-37.46
-37.235
-36.901
-36.469
-35.948
-35.351
-34.688
-33.969
-33.204
-32.403
-31.576
-30.73
-29.875
-29.017
-28.164
-27.322
-26.498
-25.696
-24.923
-24.181
-23.476
-22.809
-22.185
-21.605
-21.071
-20.583
-20.144
-19.754
-19.412
-19.119
-18.874
-18.676
-18.524
-18.418
-18.356
-18.335
-18.355
-18.412
-18.506
-18.632
-18.789
-18.975
-19.185
-19.418
-19.671
-19.941
-20.225
-20.521
-20.826
-21.137
-21.452
-21.766
-22.079
-22.386
-22.684
-22.971
-23.244
-23.499
-23.735
-23.946
-24.132
-24.287
-24.409
-24.496
-24.543
-24.548
-24.508
-24.421
-24.285
-24.099
-23.862
-23.573
-23.232
-22.842
-22.402
-21.914
-21.378
-20.797
-20.173
-19.508
-18.803
-18.061
-17.285
-16.48
-15.65
-14.799
-13.933
-13.055
-12.171
-11.285
-10.404
-9.533
-8.678
-7.84
-7.027
-6.243
-5.497
-4.795
-4.139
-3.525
-2.952
-2.416
-1.911
-1.431
-0.961
-0.487
0.003
0.522
1.072
1.66
2.292
2.978
3.732
4.556
5.447
6.389
7.367
8.366
9.364
10.327
11.199
11.926
12.454
12.732
12.72
12.372
11.648
10.517
8.943
6.893
4.344
1.28
-2.312
-6.407
-10.989
-16.065
-21.517
-27.158
-32.721
-37.8
-42.051
-45.281
-47.22
-47.548
-46.272
-43.555
-39.814
-35.995
-32.762
-30.389
-29.405
-30.246
-32.77
-36.667
-40.803
-42.917
-41.511
-35.774
-25.357
-10.834
7.3
29.234
55.946
87.861
124.793
165.586
206.005
241.549
267.803
278.829
270.414
239.324
183.668
106.647
14.362
-86.829
-191.539
-297.725
-404.978
-510.417
-607.16
-685.857
-737.602
-757.333
-746.722
-711.179
-656.934
-590.669
-516.19
-437.094
-358.712
-285.556
-222.798
-173.436
-136.496
-109.607
-89.253
-72.94
-60.311
-51.735
-47.323
-46.013
-45.853
-44.831
-41.683
-36.35
-29.302
-21.108
-12.593
-4.47
2.56
7.702
10.711
11.767
11.176
9.424
6.997
4.303
1.825
0.057
-0.756
-0.54
0.67
2.722
5.503
8.92
12.841
17.121
21.635
26.27
30.939
35.572
40.085
44.386
48.391
52.016
55.217
57.98
60.308
62.229
63.772
64.975
65.887
66.565
67.063
67.436
67.731
67.992
68.264
68.593
69.025
69.604
70.358
71.304
72.454
73.81
75.37
77.134
79.091
81.227
83.531
85.991
88.598
91.341
94.209
97.187
100.259
103.408
106.617
109.872
113.156
116.452
119.742
123.01
126.239
129.412
132.512
135.52
138.416
141.183
143.8
146.251
148.517
150.582
152.43
154.047
155.42
156.538
157.391
157.968
158.264
158.272
157.987
157.406
156.529
155.354
153.883
152.119
150.066
147.73
145.119
142.241
139.105
135.724
132.108
128.272
124.23
119.997
115.589
111.023
106.316
101.486
96.551
91.53
86.442
81.305
76.138
70.96
65.788
60.641
55.535
50.487
45.513
40.629
35.848
31.186
26.655
22.267
18.033
13.963
10.067
6.352
2.826
-0.506
-3.638
-6.568
-9.293
-11.81
-14.12
-16.223
-18.121
-19.816
-21.311
-22.611
-23.721
-24.647
-25.396
-25.974
-26.39
-26.651
-26.767
-26.747
-26.6
-26.335
-25.963
-25.494
-24.937
-24.302
-23.6
-22.841
-22.033
-21.187
-20.311
-19.415
-18.507
-17.594
-16.685
-15.787
-14.907
-14.05
-13.223
-12.43
-11.678
-10.969
-10.309
-9.7
-9.146
-8.648
-8.209
-7.831
-7.514
-7.26
-7.068
-6.939
-6.872
-6.868
-6.923
-7.038
-7.209
-7.435
-7.713
-8.04
-8.412
-8.825
-9.277
-9.763
-10.28
-10.823
-11.389
-11.973
-12.571
-13.178
-13.791
-14.405
-15.015
-15.617
-16.207
-16.78
-17.331
-17.857
-18.353
-18.815
-19.238
-19.618
-19.951
-20.233
-20.459
-20.626
-20.731
-20.772
-20.747
-20.654
-20.493
-20.264
-19.97
-19.61
-19.187
-18.704
-18.161
-17.562
-16.911
-16.211
-15.464
-14.674
-13.848
-12.989
-12.106
-11.204
-10.289
-9.368
-8.447
-7.532
-6.631
-5.748
-4.889
-4.061
-3.27
-2.523
-1.832
-1.201
-0.632
-0.124
0.328
0.732
1.093
1.423
1.738
2.05
2.373
2.713
3.075
3.467
3.897
4.373
4.913
5.523
6.199
6.937
7.721
8.529
9.342
10.128
10.84
11.436
11.878
12.125
12.151
11.923
11.401
10.555
9.358
7.778
5.796
3.39
0.549
-2.725
-6.407
-10.484
-14.949
-19.71
-24.607
-29.394
-33.717
-37.287
-39.936
-41.416
-41.411
-39.906
-37.062
-33.323
-29.609
-26.53
-24.275
-23.286
-24.003
-26.33
-30.08
-34.176
-36.248
-34.806
-28.989
-18.412
-4.397
11.985
30.483
51.15
75.763
106.005
141.995
182.6
223.337
258.519
282.574
288.339
270.891
227.362
156.858
64.521
-42.87
-159.026
-278.461
-398.36
-512.774
-620
-721.158
-793.956
-816.396
-805.122
-781.188
-742.523
-687.606
-621.846
-547.186
-465.295
-381.923
-304.39
-238.61
-187.279
-148.536
-118.294
-93.76
-73.436
-57.713
-47.973
-43.386
-42.031
-41.798
-40.265
-36.543
-30.919
-23.693
-15.461
-7.065
0.836
7.476
12.06
14.436
14.846
13.616
11.256
8.286
5.14
2.33
0.373
-0.498
-0.234
1.12
3.399
6.48
10.267
14.613
19.358
24.362
29.494
34.656
39.773
44.75
49.489
53.899
57.892
61.425
64.49
67.098
69.278
71.067
72.505
73.649
74.562
75.306
75.939
76.516
77.081
77.686
78.379
79.209
80.22
81.441
82.888
84.57
86.488
88.639
91.019
93.616
96.412
99.394
102.549
105.863
109.326
112.922
116.633
120.443
124.33
128.277
132.266
136.278
140.293
144.291
148.254
152.161
155.995
159.734
163.357
166.843
170.17
173.318
176.265
178.993
181.482
183.715
185.677
187.353
188.73
189.796
190.542
190.96
191.042
190.783
190.18
189.231
187.935
186.294
184.311
181.992
179.341
176.368
173.082
169.494
165.617
161.464
157.051
152.393
147.509
142.417
137.135
131.684
126.084
120.356
114.522
108.602
102.62
96.595
90.55
84.505
78.481
72.497
66.573
60.727
54.978
49.341
43.834
38.471
33.266
28.232
23.381
18.724
14.269
10.025
5.999
2.195
-1.381
-4.727
-7.841
-10.723
-13.374
-15.796
-17.992
-19.965
-21.723
-23.27
-24.613
-25.762
-26.723
-27.507
-28.124
-28.582
-28.893
-29.068
-29.116
-29.05
-28.88
-28.616
-28.269
-27.851
-27.371
-26.839
-26.264
-25.656
-25.022
-24.372
-23.713
-23.05
-22.392
-21.744
-21.11
-20.496
-19.905
-19.341
-18.807
-18.305
-17.837
-17.404
-17.007
-16.646
-16.32
-16.029
-15.773
-15.55
-15.358
-15.197
-15.064
-14.959
-14.878
-14.821
-14.785
-14.769
-14.771
-14.79
-14.825
-14.873
-14.936
-15.011
-15.098
-15.197
-15.308
-15.429
-15.561
-15.704
-15.858
-16.022
-16.195
-16.378
-16.571
-16.773
-16.984
-17.205
-17.434
-17.673
-17.919
-18.174
-18.436
-18.704
-18.977
-19.253
-19.532
-19.812
-20.09
-20.364
-20.632
-20.89
-21.136
-21.366
-21.577
-21.763
-21.922
-22.048
-22.138
-22.188
-22.194
-22.153
-22.063
-21.922
-21.729
-21.483
-21.182
-20.828
-20.419
-19.956
-19.439
-18.869
-18.246
-17.573
-16.851
-16.084
-15.276
-14.433
-13.56
-12.66
-11.741
-10.808
-9.868
-8.925
-7.984
-7.052
-6.138
-5.249
-4.398
-3.594
-2.838
-2.133
-1.478
-0.869
-0.299
0.243
0.773
1.305
1.849
2.414
3.001
3.618
4.279
4.991
5.769
6.622
7.543
8.526
9.564
10.63
11.696
12.723
13.65
14.427
15.013
15.364
15.443
15.207
14.602
13.582
12.111
10.168
7.744
4.821
1.38
-2.568
-7.007
-11.87
-17.072
-22.584
-28.293
-34.013
-39.492
-44.339
-48.194
-50.865
-52.097
-51.588
-49.361
-45.568
-40.597
-35.361
-30.501
-26.311
-23.374
-22.151
-22.541
-24.395
-26.67
-27.122
-24.335
-17.209
-5.402
9.605
26.812
45.539
66.526
92.505
125.001
164.471
208.012
248.785
280.285
295.387
287.782
254.94
196.024
113.248
13.049
-98.871
-218.341
-341.482
-465.804
-585.479
-690.208
-769.632
-815.399
-825.258
-803.916
-759.703
-701.568
-635.844
-565.83
-492.901
-417.84
-343.203
-273.101
-211.458
-161.396
-123.298
-94.902
-73.885
-58.305
-47.375
-41.137
-38.6
-38.005
-37.327
-34.909
-30.369
-24.017
-16.293
-7.958
0.29
7.667
13.189
16.455
17.574
16.846
14.795
11.946
8.728
5.687
3.418
2.239
2.259
3.451
5.636
8.677
12.472
16.863
21.678
26.766
31.994
37.255
42.471
47.543
52.367
56.844
60.883
64.434
67.482
70.034
72.122
73.784
75.064
76.02
76.716
77.214
77.575
77.857
78.107
78.379
78.726
79.199
79.847
80.702
81.785
83.107
84.671
86.475
88.518
90.789
93.273
95.958
98.833
101.885
105.106
108.482
111.998
115.635
119.376
123.202
127.097
131.042
135.018
139.006
142.986
146.939
150.845
154.684
158.434
162.071
165.574
168.919
172.086
175.053
177.8
180.307
182.556
184.531
186.217
187.6
188.668
189.411
189.818
189.884
189.601
188.967
187.979
186.636
184.941
182.895
180.504
177.775
174.716
171.337
167.651
163.669
159.407
154.882
150.109
145.108
139.899
134.501
128.936
123.225
117.39
111.455
105.442
99.374
93.273
87.162
81.063
74.997
68.985
63.047
57.204
51.472
45.871
40.416
35.123
30.006
25.078
20.351
15.836
11.54
7.472
3.637
0.041
-3.314
-6.426
-9.294
-11.92
-14.305
-16.454
-18.371
-20.062
-21.534
-22.794
-23.852
-24.717
-25.399
-25.91
-26.259
-26.46
-26.523
-26.46
-26.285
-26.007
-25.641
-25.196
-24.686
-24.119
-23.508
-22.863
-22.193
-21.507
-20.814
-20.121
-19.436
-18.764
-18.113
-17.485
-16.887
-16.32
-15.789
-15.295
-14.84
-14.425
-14.05
-13.715
-13.42
-13.163
-12.944
-12.76
-12.609
-12.489
-12.398
-12.334
-12.295
-12.277
-12.278
-12.297
-12.331
-12.378
-12.435
-12.502
-12.577
-12.659
-12.746
-12.839
-12.937
-13.04
-13.149
-13.263
-13.384
-13.514
-13.652
-13.801
-13.962
-14.137
-14.329
-14.539
-14.77
-15.024
-15.303
-15.608
-15.942
-16.305
-16.699
-17.125
-17.583
-18.074
-18.596
-19.151
-19.738
-20.355
-21.002
-21.676
-22.377
-23.101
-23.847
-24.609
-25.387
-26.174
-26.969
-27.766
-28.561
-29.349
-30.124
-30.883
-31.618
-32.325
-32.997
-33.628
-34.212
-34.744
-35.219
-35.632
-35.979
-36.256
-36.461
-36.592
-36.649
-36.63
-36.535
-36.365
-36.118
-35.798
-35.405
-34.939
-34.404
-33.803
-33.14
-32.421
-31.652
-30.838
-29.987
-29.106
-28.199
-27.277
-26.343
-25.404
-24.468
-23.543
-22.639
-21.768
-20.94
-20.157
-19.423
-18.737
-18.094
-17.489
-16.91
-16.341
-15.77
-15.186
-14.582
-13.958
-13.305
-12.613
-11.874
-11.075
-10.209
-9.281
-8.299
-7.269
-6.22
-5.178
-4.182
-3.293
-2.556
-2.013
-1.703
-1.659
-1.921
-2.539
-3.554
-5
-6.897
-9.252
-12.082
-15.408
-19.215
-23.487
-28.156
-33.142
-38.427
-43.915
-49.431
-54.733
-59.455
-63.263
-65.985
-67.381
-67.132
-65.227
-61.82
-57.318
-52.595
-48.233
-44.535
-42.096
-41.428
-42.614
-45.198
-47.676
-48.03
-44.955
-38.419
-29.582
-19.218
-7.419
6.975
27.389
56.095
93.622
139.065
186.852
229.862
261.878
275.819
266.737
232.624
172.596
89.525
-10.049
-120.534
-237.09
-357.111
-479.099
-594.392
-700.049
-796.96
-858.725
-862.14
-829.927
-788.546
-735.97
-669.302
-595.166
-517.455
-437.286
-359.34
-289.81
-231.967
-187.305
-154.324
-128.993
-108.825
-92.546
-80.052
-71.973
-67.486
-64.784
-61.878
-57.23
-50.606
-42.439
-33.264
-23.875
-14.948
-7.191
-1.467
1.929
3.163
2.558
0.643
-2.06
-5.122
-8.009
-10.152
-11.254
-11.209
-10.038
-7.903
-4.927
-1.208
3.105
7.846
12.866
18.033
23.241
28.411
33.442
38.227
42.664
46.656
50.151
53.13
55.598
57.583
59.122
60.259
61.054
61.572
61.881
62.044
62.119
62.158
62.217
62.353
62.62
63.072
63.744
64.66
65.834
67.272
68.975
70.943
73.166
75.63
78.324
81.235
84.353
87.669
91.168
94.833
98.648
102.593
106.649
110.796
115.017
119.29
123.594
127.908
132.212
136.485
140.703
144.844
148.882
152.792
156.552
160.136
163.523
166.688
169.613
172.275
174.659
176.747
178.525
179.979
181.096
181.868
182.286
182.344
182.037
181.362
180.319
178.909
177.135
175.002
172.517
169.688
166.526
163.042
159.251
155.167
150.807
146.188
141.33
136.252
130.975
125.521
119.913
114.171
108.321
102.384
96.384
90.344
84.285
78.231
72.202
66.22
60.304
54.474
48.749
43.145
37.68
32.368
27.224
22.261
17.49
12.922
8.565
4.428
0.517
-3.164
-6.61
-9.819
-12.791
-15.525
-18.023
-20.288
-22.323
-24.134
-25.726
-27.107
-28.282
-29.262
-30.054
-30.668
-31.114
-31.402
-31.542
-31.546
-31.423
-31.185
-30.842
-30.405
-29.885
-29.292
-28.637
-27.927
-27.174
-26.386
-25.572
-24.739
-23.895
-23.048
-22.204
-21.368
-20.547
-19.745
-18.967
-18.215
-17.495
-16.807
-16.156
-15.541
-14.965
-14.429
-13.933
-13.477
-13.061
-12.686
-12.349
-12.05
-11.787
-11.56
-11.366
-11.204
-11.072
-10.968
-10.891
-10.837
-10.805
-10.793
-10.8
-10.822
-10.859
-10.908
-10.968
-11.037
-11.113
-11.194
-11.28
-11.369
-11.459
-11.551
-11.641
-11.731
-11.819
-11.904
-11.986
-12.065
-12.141
-12.213
-12.283
-12.349
-12.413
-12.475
-12.537
-12.599
-12.662
-12.727
-12.796
-12.869
-12.947
-13.032
-13.124
-13.224
-13.332
-13.45
-13.578
-13.715
-13.863
-14.022
-14.191
-14.37
-14.56
-14.76
-14.97
-15.188
-15.413
-15.645
-15.882
-16.123
-16.365
-16.606
-16.844
-17.077
-17.3
-17.511
-17.706
-17.882
-18.034
-18.157
-18.249
-18.305
-18.322
-18.296
-18.225
-18.105
-17.936
-17.717
-17.446
-17.122
-16.746
-16.317
-15.836
-15.302
-14.716
-14.078
-13.39
-12.654
-11.873
-11.051
-10.192
-9.299
-8.379
-7.435
-6.472
-5.496
-4.512
-3.524
-2.538
-1.56
-0.597
0.339
1.242
2.112
2.946
3.749
4.527
5.284
6.031
6.783
7.551
8.347
9.178
10.046
10.956
11.916
12.933
14.021
15.185
16.417
17.712
19.049
20.403
21.754
23.065
24.28
25.352
26.238
26.894
27.289
27.386
27.137
26.508
25.466
23.982
22.041
19.62
16.713
13.328
9.497
5.251
0.616
-4.316
-9.381
-14.335
-18.844
-22.62
-25.479
-27.174
-27.385
-26.057
-23.326
-19.593
-15.663
-12.065
-9.031
-7.04
-6.564
-7.706
-10.107
-12.406
-12.664
-9.686
-3.387
5.396
15.986
28.629
44.569
66.067
94.664
129.983
170.526
212.811
251.687
283.094
302.148
302.752
281.023
233.568
159.998
66.441
-40.473
-154.503
-270.754
-387.72
-499.664
-604.274
-702.409
-771.608
-789.665
-774.206
-746.6
-703.636
-644.338
-574.994
-498.708
-418.91
-340.232
-267.862
-205.845
-155.006
-114.185
-81.118
-54.232
-33.069
-17.8
-8.853
-4.954
-3.949
-3.767
-2.284
1.312
6.789
13.881
22.025
30.386
38.289
44.969
49.651
52.19
52.824
51.878
49.863
47.294
44.597
42.275
40.821
40.448
41.199
43.015
45.728
49.21
53.36
58.029
63.057
68.305
73.644
78.974
84.22
89.291
94.095
98.544
102.56
106.103
109.173
111.783
113.967
115.764
117.216
118.38
119.319
120.095
120.768
121.391
122.01
122.676
123.437
124.339
125.427
126.728
128.258
130.024
132.028
134.268
136.74
139.434
142.334
145.427
148.701
152.144
155.747
159.495
163.372
167.36
171.441
175.598
179.813
184.068
188.343
192.62
196.879
201.1
205.265
209.353
213.342
217.21
220.934
224.493
227.865
231.031
233.969
236.662
239.091
241.241
243.097
244.646
245.876
246.777
247.339
247.556
247.421
246.932
246.084
244.878
243.315
241.398
239.131
236.521
233.575
230.304
226.718
222.83
218.653
214.205
209.5
204.557
199.395
194.033
188.493
182.795
176.961
171.014
164.976
158.869
152.717
146.541
140.364
134.207
128.091
122.038
116.066
110.196
104.446
98.834
93.375
88.086
82.981
78.072
73.372
68.891
64.638
60.62
56.844
53.315
50.036
47.009
44.234
41.711
39.438
37.41
35.625
34.075
32.754
31.654
30.766
30.082
29.59
29.28
29.141
29.161
29.327
29.629
30.053
30.586
31.217
31.932
32.719
33.567
34.463
35.397
36.358
37.336
38.32
39.302
40.273
41.226
42.154
43.05
43.909
44.727
45.498
46.22
46.89
47.506
48.067
48.572
49.02
49.413
49.751
50.034
50.264
50.444
50.575
50.66
50.7
50.7
50.661
50.587
50.479
50.342
50.178
49.99
49.779
49.549
49.302
49.039
48.763
48.475
48.176
47.867
47.549
47.222
46.887
46.544
46.192
45.83
45.459
45.078
44.685
44.28
43.862
43.429
42.982
42.52
42.041
41.546
41.034
40.504
39.958
39.395
38.816
38.222
37.613
36.99
36.355
35.709
35.055
34.393
33.727
33.059
32.392
31.729
31.073
30.428
29.798
29.185
28.595
28.032
27.498
26.999
26.538
26.119
25.745
25.42
25.147
24.928
24.765
24.659
24.612
24.622
24.688
24.81
24.985
25.212
25.488
25.81
26.175
26.579
27.02
27.493
27.995
28.519
29.06
29.61
30.166
30.721
31.268
31.802
32.313
32.796
33.249
33.668
34.048
34.384
34.667
34.894
35.067
35.187
35.257
35.282
35.265
35.218
35.158
35.104
35.07
35.068
35.102
35.175
35.299
35.486
35.746
36.082
36.482
36.935
37.441
37.986
38.552
39.102
39.576
39.919
40.08
40.014
39.68
39.039
38.055
36.693
34.92
32.708
30.052
26.94
23.377
19.373
14.913
10.09
5.09
0.156
-4.369
-8.185
-11.125
-12.943
-13.334
-12.285
-9.936
-6.661
-3.239
-0.159
2.355
3.831
3.875
2.445
-0.084
-2.415
-2.747
0.155
6.505
15.407
26.111
38.304
52.554
71.534
97.24
130.36
170.922
214.77
255.664
287.65
302.607
294.308
260.198
199.502
116.857
19.662
-86.135
-195.177
-304.883
-412.738
-512.437
-596.352
-656.233
-686.581
-688.628
-666.595
-625.73
-572.127
-509.399
-440.991
-372.612
-308.756
-252.871
-207.26
-170.376
-139.342
-112.624
-89.241
-69.802
-56.247
-48.605
-45.282
-44.156
-42.578
-39.206
-34.15
-27.741
-20.255
-12.068
-3.732
4
10.111
13.973
15.943
16.536
15.747
13.875
10.545
5.369
-0.064
-4.715
-7.455
-6.916
-4.39
-0.978
2.586
5.063
7.123
9.469
12.167
15.629
19.504
23.343
27.125
30.712
34.037
37.094
39.793
42.077
43.963
45.48
46.651
47.515
48.12
48.522
48.783
48.961
49.097
49.228
49.398
49.652
50.034
50.588
51.34
52.304
53.489
54.898
56.528
58.375
60.428
62.67
65.086
67.663
70.388
73.249
76.232
79.318
82.489
85.724
89.005
92.313
95.628
98.93
102.198
105.413
108.554
111.604
114.542
117.348
119.999
122.476
124.759
126.827
128.663
130.249
131.568
132.606
133.348
133.785
133.905
133.699
133.161
132.286
131.068
129.506
127.6
125.35
122.76
119.833
116.575
112.994
109.099
104.9
100.411
95.643
90.612
85.333
79.823
74.1
68.182
62.089
55.84
49.455
42.955
36.361
29.694
22.975
16.224
9.462
2.708
-4.017
-10.695
-17.308
-23.838
-30.268
-36.583
-42.766
-48.805
-54.686
-60.397
-65.927
-71.266
-76.405
-81.337
-86.056
-90.557
-94.835
-98.889
-102.716
-106.317
-109.693
-112.844
-115.776
-118.49
-120.993
-123.29
-125.388
-127.294
-129.016
-130.563
-131.943
-133.167
-134.244
-135.185
-135.998
-136.696
-137.288
-137.785
-138.197
-138.535
-138.809
-139.029
-139.205
-139.346
-139.462
-139.56
-139.649
-139.738
-139.832
-139.939
-140.065
-140.215
-140.394
-140.607
-140.857
-141.147
-141.481
-141.859
-142.284
-142.757
-143.278
-143.847
-144.465
-145.129
-145.841
-146.598
-147.399
-148.242
-149.126
-150.049
-151.008
-152.002
-153.028
-154.084
-155.167
-156.276
-157.407
-158.559
-159.73
-160.917
-162.118
-163.333
-164.558
-165.794
-167.038
-168.29
-169.55
-170.816
-172.089
-173.369
-174.654
-175.947
-177.247
-178.555
-179.871
-181.197
-182.532
-183.878
-185.235
-186.603
-187.982
-189.373
-190.776
-192.19
-193.616
-195.052
-196.498
-197.954
-199.419
-200.892
-202.371
-203.856
-205.345
-206.836
-208.327
-209.815
-211.297
-212.772
-214.235
-215.685
-217.116
-218.526
-219.911
-221.266
-222.588
-223.873
-225.116
-226.314
-227.463
-228.561
-229.604
-230.59
-231.517
-232.386
-233.195
-233.946
-234.638
-235.272
-235.85
-236.373
-236.842
-237.26
-237.629
-237.95
-238.228
-238.466
-238.67
-238.843
-238.99
-239.117
-239.229
-239.332
-239.432
-239.534
-239.643
-239.761
-239.895
-240.049
-240.232
-240.448
-240.698
-240.979
-241.291
-241.631
-241.994
-242.369
-242.74
-243.09
-243.404
-243.671
-243.89
-244.052
-244.15
-244.175
-244.117
-243.974
-243.758
-243.476
-243.134
-242.744
-242.328
-241.925
-241.595
-241.399
-241.392
-241.627
-242.146
-242.994
-244.206
-245.821
-247.877
-250.397
-253.402
-256.909
-260.923
-265.455
-270.527
-276.053
-281.852
-287.668
-293.145
-297.982
-301.986
-304.887
-306.35
-306.287
-304.835
-302.406
-299.756
-297.4
-295.475
-294.316
-294.432
-295.949
-298.768
-301.835
-303.07
-301.183
-295.441
-286.077
-274.539
-261.151
-245.94
-227.918
-203.954
-173.076
-135.419
-92.639
-51.092
-16.089
7.415
12.687
-3.865
-44.997
-111.865
-199.582
-301.813
-412.959
-527.902
-644.785
-760.791
-868.588
-959.331
-1023.327
-1054.195
-1053.25
-1025.35
-977.206
-916.378
-846.651
-771.206
-694.558
-620.157
-552.984
-497.119
-453.114
-419.804
-394.054
-373.171
-356.314
-343.91
-336.77
-333.955
-333.362
-332.686
-330.094
-325.298
-318.768
-310.857
-302.155
-293.417
-285.46
-279.334
-275.58
-274.073
-274.484
-276.356
-279.214
-282.642
-286.114
-289.005
-290.917
-291.711
-291.383
-290.072
-287.901
-284.941
-281.309
-277.159
-272.625
-267.836
-262.896
-257.878
-252.863
-247.953
-243.241
-238.823
-234.776
-231.14
-227.923
-225.118
-222.695
-220.625
-218.867
-217.373
-216.084
-214.942
-213.893
-212.89
-211.89
-210.846
-209.711
-208.441
-206.993
-205.343
-203.476
-201.385
-199.069
-196.529
-193.771
-190.805
-187.647
-184.31
-180.807
-177.149
-173.346
-169.411
-165.362
-161.214
-156.984
-152.69
-148.346
-143.97
-139.578
-135.188
-130.816
-126.479
-122.193
-117.976
-113.847
-109.824
-105.927
-102.174
-98.582
-95.17
-91.952
-88.946
-86.164
-83.621
-81.326
-79.29
-77.521
-76.028
-74.816
-73.888
-73.249
-72.899
-72.838
-73.065
-73.577
-74.369
-75.435
-76.769
-78.361
-80.203
-82.282
-84.587
-87.105
-89.821
-92.72
-95.786
-99.003
-102.353
-105.817
-109.378
-113.016
-116.712
-120.447
-124.2
-127.954
-131.689
-135.386
-139.027
-142.595
-146.072
-149.442
-152.689
-155.798
-158.755
-161.547
-164.162
-166.588
-168.815
-170.834
-172.637
-174.217
-175.568
-176.685
-177.564
-178.204
-178.602
-178.758
-178.672
-178.347
-177.785
-176.99
-175.966
-174.72
-173.257
-171.585
-169.712
-167.646
-165.396
-162.972
-160.384
-157.641
-154.754
-151.733
-148.59
-145.334
-141.975
-138.525
-134.993
-131.389
-127.722
-124.002
-120.236
-116.433
-112.602
-108.748
-104.878
-101
-97.117
-93.236
-89.361
-85.495
-81.643
-77.806
-73.987
-70.187
-66.407
-62.648
-58.91
-55.191
-51.49
-47.807
-44.14
-40.487
-36.845
-33.212
-29.584
-25.96
-22.335
-18.707
-15.072
-11.428
-7.771
-4.098
-0.408
3.303
7.036
10.794
14.577
18.389
22.229
26.1
30.004
33.94
37.909
41.911
45.946
50.014
54.114
58.244
62.403
66.59
70.803
75.042
79.304
83.589
87.894
92.219
96.56
100.917
105.287
109.669
114.061
118.462
122.871
127.288
131.713
136.146
140.588
145.042
149.509
153.991
158.488
163.001
167.532
172.083
176.655
181.251
185.872
190.523
195.21
199.938
204.715
209.546
214.438
219.394
224.418
229.516
234.688
239.936
245.26
250.665
256.153
261.735
267.415
273.194
279.07
285.036
291.081
297.193
303.361
309.565
315.793
322.038
328.298
334.583
340.904
347.265
353.664
360.092
366.534
372.989
379.454
385.931
392.437
398.99
405.611
412.343
419.218
426.253
433.46
440.823
448.309
455.9
463.582
471.35
479.215
487.174
495.231
503.385
511.616
519.9
528.203
536.457
544.602
552.59
560.371
567.933
575.291
582.451
589.414
596.174
602.698
608.947
614.884
620.469
625.683
630.526
634.997
639.118
642.918
646.419
649.671
652.718
655.549
658.126
660.483
662.746
665.169
668.134
671.976
676.897
683.125
690.957
700.521
711.68
723.969
736.532
748.593
759.81
769.9
778.432
785.227
790.434
794.962
800.807
809.817
823.135
840.962
862.19
885.828
911.319
938.854
970.77
1009.096
1054.268
1104.973
1155.177
1196.965
1224.223
1232.118
1218.988
1185.536
1130.022
1046.674
942.111
836.229
700.847
608.796
