-36.404
-65.294
-63.597
-54.129
-52.857
-53.748
-53.774
-57.339
-63.966
-70.275
-74.902
-77.584
-78.757
-79.247
-79.361
-79.136
-78.622
-77.82
-76.848
-75.883
-75.009
-74.271
-73.719
-73.369
-73.211
-73.235
-73.406
-73.684
-74.039
-74.423
-74.793
-75.118
-75.361
-75.501
-75.525
-75.419
-75.178
-74.807
-74.309
-73.693
-72.968
-72.141
-71.223
-70.233
-69.187
-68.113
-67.029
-65.947
-64.877
-63.825
-62.793
-61.784
-60.795
-59.817
-58.847
-57.88
-56.914
-55.949
-54.984
-54.016
-53.043
-52.062
-51.071
-50.072
-49.066
-48.053
-47.037
-46.022
-45.015
-44.023
-43.051
-42.106
-41.192
-40.314
-39.481
-38.698
-37.965
-37.287
-36.666
-36.107
-35.619
-35.207
-34.869
-34.604
-34.41
-34.285
-34.225
-34.22
-34.254
-34.309
-34.369
-34.418
-34.454
-34.468
-34.446
-34.375
-34.24
-34.034
-33.762
-33.428
-33.03
-32.576
-32.075
-31.56
-31.081
-30.691
-30.443
-30.384
-30.555
-30.999
-31.746
-32.834
-34.303
-36.175
-38.465
-41.188
-44.328
-47.89
-51.897
-56.25
-60.776
-65.231
-69.254
-72.57
-74.994
-76.251
-76.112
-74.581
-71.791
-68.181
-64.421
-60.949
-58.131
-56.375
-55.912
-56.454
-57.07
-56.424
-53.081
-46.655
-38.09
-27.989
-16.425
-2.555
16.515
42.943
77.167
118.677
163.567
206.204
240.724
260.02
258.289
232.347
182.363
112.684
30.667
-56.549
-145.248
-234.556
-325.146
-415.596
-499.61
-568.701
-615.261
-636.415
-634.823
-616.094
-585.713
-546.205
-498.839
-444.558
-385.696
-327.61
-274.64
-229.914
-194.581
-165.917
-141.799
-121.1
-103.177
-89.489
-80.391
-74.509
-70.269
-65.612
-59.385
-51.741
-43.051
-33.634
-23.927
-14.448
-5.852
1.014
5.736
8.428
9.354
8.919
7.56
5.67
3.743
2.357
1.889
2.511
4.288
7.145
11.023
15.915
21.77
28.534
36.149
44.525
53.58
63.227
73.35
83.808
94.443
105.072
115.531
125.708
135.524
144.939
153.93
162.463
170.507
178.029
185.012
191.461
197.389
202.815
207.765
212.286
216.443
220.325
224.022
227.594
231.078
234.494
237.854
241.173
244.469
247.754
251.029
254.297
257.558
260.815
264.07
267.312
270.521
273.662
276.699
279.608
282.369
284.968
287.395
289.637
291.684
293.529
295.169
296.598
297.808
298.785
299.518
299.998
300.217
300.173
299.861
299.278
298.419
297.28
295.859
294.152
292.156
289.867
287.28
284.396
281.214
277.736
273.968
269.914
265.58
260.975
256.107
250.987
245.626
240.036
234.228
228.217
222.017
215.643
209.111
202.438
195.642
188.74
181.75
174.692
167.584
160.445
153.293
146.147
139.024
131.943
124.921
117.974
111.118
104.369
97.742
91.25
84.906
78.722
72.709
66.876
61.232
55.784
50.539
45.5
40.673
36.061
31.664
27.485
23.522
19.774
16.24
12.915
9.796
6.878
4.154
1.618
-0.737
-2.919
-4.936
-6.798
-8.513
-10.09
-11.539
-12.869
-14.091
-15.213
-16.246
-17.199
-18.082
-18.902
-19.669
-20.39
-21.075
-21.73
-22.363
-22.98
-23.587
-24.189
-24.793
-25.403
-26.023
-26.656
-27.307
-27.977
-28.669
-29.384
-30.125
-30.893
-31.687
-32.508
-33.357
-34.233
-35.136
-36.063
-37.016
-37.992
-38.99
-40.01
-41.048
-42.105
-43.179
-44.267
-45.369
-46.484
-47.609
-48.744
-49.887
-51.038
-52.194
-53.355
-54.52
-55.689
-56.859
-58.03
-59.201
-60.372
-61.54
-62.704
-63.864
-65.018
-66.165
-67.302
-68.429
-69.544
-70.646
-71.732
-72.802
-73.853
-74.883
-75.891
-76.874
-77.829
-78.755
-79.649
-80.507
-81.328
-82.109
-82.846
-83.537
-84.178
-84.767
-85.3
-85.774
-86.187
-86.535
-86.817
-87.03
-87.173
-87.245
-87.246
-87.177
-87.039
-86.834
-86.563
-86.228
-85.833
-85.38
-84.873
-84.314
-83.708
-83.058
-82.369
-81.648
-80.901
-80.135
-79.356
-78.57
-77.784
-77.005
-76.241
-75.498
-74.783
-74.1
-73.457
-72.861
-72.322
-71.845
-71.433
-71.084
-70.796
-70.565
-70.385
-70.247
-70.137
-70.038
-69.939
-69.827
-69.699
-69.545
-69.357
-69.122
-68.827
-68.465
-68.039
-67.556
-67.023
-66.454
-65.865
-65.287
-64.769
-64.358
-64.098
-64.04
-64.219
-64.679
-65.458
-66.582
-68.085
-69.996
-72.337
-75.126
-78.377
-82.068
-86.19
-90.758
-95.672
-100.764
-105.79
-110.38
-114.226
-117.143
-118.868
-119.072
-117.713
-114.929
-111.121
-107.114
-103.446
-100.375
-98.398
-97.951
-99.077
-101.326
-103.307
-103.108
-99.436
-92.103
-81.805
-68.954
-53.591
-34.859
-10.4
20.939
59.232
103.685
149.726
191.857
224.94
242.221
239.047
212.491
160.606
86.754
-2.765
-100.9
-200.877
-300.65
-400.599
-499.789
-594.271
-675.543
-734.027
-763.526
-764.047
-740.744
-700.904
-651.342
-594.271
-529.577
-458.126
-382.109
-308.36
-245.519
-198.466
-167.766
-149.46
-137.412
-128.286
-122.331
-120.052
-120.993
-122.901
-121.727
-115.874
-106.568
-95.606
-85.344
-76.698
-68.997
-62.192
-56.525
-52.282
-49.997
-49.627
-50.694
-52.764
-55.332
-57.883
-59.955
-61.229
-61.564
-60.959
-59.548
-57.439
-54.695
-51.417
-47.715
-43.692
-39.46
-35.099
-30.672
-26.253
-21.923
-17.764
-13.861
-10.288
-7.082
-4.257
-1.802
0.308
2.101
3.611
4.88
5.962
6.908
7.771
8.596
9.424
10.299
11.268
12.377
13.671
15.177
16.91
18.878
21.085
23.535
26.23
29.163
32.317
35.678
39.233
42.964
46.855
50.879
54.997
59.176
63.392
67.628
71.873
76.114
80.333
84.518
88.656
92.738
96.761
100.713
104.577
108.348
112.031
115.643
119.22
122.775
126.298
129.772
133.171
136.469
139.64
142.649
145.443
147.98
150.228
152.159
153.759
154.991
155.793
156.094
155.811
154.893
153.327
151.106
148.23
144.713
140.575
135.855
130.625
124.935
118.81
112.279
105.372
98.149
90.709
83.164
75.623
68.168
60.859
53.745
46.884
40.316
34.067
28.15
22.555
17.292
12.411
7.951
3.931
0.346
-2.847
-5.711
-8.284
-10.601
-12.688
-14.564
-16.258
-17.788
-19.156
-20.359
-21.391
-22.265
-23.024
-23.704
-24.322
-24.879
-25.356
-25.722
-25.964
-26.073
-26.035
-25.845
-25.498
-24.993
-24.346
-23.576
-22.694
-21.705
-20.6
-19.373
-18.028
-16.579
-15.041
-13.44
-11.792
-10.112
-8.421
-6.734
-5.063
-3.415
-1.792
-0.19
1.387
2.936
4.454
5.934
7.374
8.776
10.14
11.469
12.765
14.032
15.276
16.501
17.711
18.907
20.092
21.266
22.43
23.585
24.733
25.876
27.016
28.155
29.295
30.439
31.588
32.744
33.906
35.077
36.256
37.443
38.638
39.84
41.049
42.264
43.483
44.706
45.928
47.15
48.368
49.58
50.782
51.973
53.15
54.308
55.445
56.559
57.647
58.705
59.732
60.725
61.682
62.602
63.482
64.323
65.122
65.879
66.594
67.266
67.895
68.482
69.028
69.534
70.001
70.432
70.828
71.193
71.529
71.84
72.129
72.4
72.658
72.906
73.15
73.394
73.643
73.903
74.178
74.475
74.799
75.153
75.544
75.976
76.451
76.975
77.548
78.174
78.853
79.586
80.374
81.217
82.113
83.063
84.064
85.115
86.214
87.358
88.544
89.768
91.022
92.303
93.604
94.918
96.24
97.563
98.878
100.179
101.46
102.712
103.931
105.107
106.229
107.291
108.288
109.22
110.087
110.894
111.643
112.34
113.001
113.636
114.257
114.875
115.49
116.109
116.738
117.385
118.063
118.779
119.527
120.301
121.088
121.866
122.621
123.323
123.915
124.354
124.591
124.571
124.267
123.643
122.658
121.291
119.501
117.249
114.517
111.278
107.522
103.277
98.542
93.315
87.691
81.825
75.958
70.448
65.576
61.537
58.568
56.947
56.829
58.144
60.525
63.302
65.855
67.881
69.081
68.994
67.35
64.231
60.545
58.09
58.421
62.57
70.474
81.17
94.674
111.02
131.1
157.373
189.973
228.482
271.438
313.428
349.933
375.688
383.764
369.841
330.621
266.432
183.022
88.008
-11.599
-112.506
-215.084
-320.136
-424.771
-520.8
-597.324
-644.976
-660.768
-648.269
-615.047
-569.008
-513.978
-450.76
-379.434
-301.705
-223.378
-152.137
-94.398
-52.55
-24.713
-6.935
4.868
11.909
14.536
14.229
12.465
12.497
16.364
23.056
31.366
39.313
45.875
51.844
57.44
62.546
66.643
68.851
69.028
67.524
64.81
61.473
57.961
54.676
52.08
50.43
49.804
50.164
51.362
53.289
55.86
58.954
62.434
66.168
70.042
73.966
77.87
81.668
85.266
88.576
91.514
94.037
96.13
97.798
99.068
99.972
100.548
100.848
100.929
100.848
100.661
100.419
100.167
99.954
99.829
99.838
100.028
100.43
101.062
101.935
103.053
104.415
106.02
107.858
109.916
112.18
114.639
117.282
120.098
123.073
126.191
129.434
132.782
136.217
139.719
143.271
146.849
150.435
154.007
157.543
161.023
164.424
167.722
170.894
173.915
176.761
179.41
181.84
184.028
185.954
187.601
188.95
189.988
190.7
191.073
191.099
190.769
190.075
189.014
187.582
185.78
183.607
181.068
178.167
174.912
171.311
167.375
163.117
158.55
153.691
148.557
143.166
137.539
131.698
125.663
119.459
113.11
106.639
100.072
93.433
86.749
80.043
73.34
66.664
60.04
53.489
47.033
40.694
34.492
28.446
22.572
16.889
11.412
6.154
1.127
-3.656
-8.187
-12.457
-16.46
-20.191
-23.646
-26.823
-29.722
-32.344
-34.691
-36.768
-38.579
-40.13
-41.43
-42.487
-43.31
-43.911
-44.3
-44.488
-44.49
-44.316
-43.981
-43.497
-42.879
-42.138
-41.29
-40.346
-39.321
-38.226
-37.074
-35.877
-34.646
-33.393
-32.127
-30.86
-29.599
-28.353
-27.131
-25.938
-24.783
-23.669
-22.602
-21.587
-20.625
-19.721
-18.876
-18.092
-17.369
-16.707
-16.106
-15.565
-15.083
-14.658
-14.288
-13.97
-13.703
-13.482
-13.305
-13.169
-13.071
-13.007
-12.974
-12.968
-12.988
-13.029
-13.088
-13.162
-13.25
-13.347
-13.453
-13.564
-13.68
-13.798
-13.916
-14.035
-14.152
-14.267
-14.38
-14.49
-14.598
-14.703
-14.807
-14.911
-15.015
-15.12
-15.229
-15.342
-15.461
-15.589
-15.728
-15.879
-16.045
-16.228
-16.431
-16.656
-16.906
-17.182
-17.486
-17.819
-18.185
-18.583
-19.015
-19.481
-19.982
-20.518
-21.09
-21.698
-22.34
-23.017
-23.727
-24.47
-25.245
-26.048
-26.878
-27.733
-28.61
-29.507
-30.419
-31.344
-32.278
-33.217
-34.156
-35.091
-36.017
-36.928
-37.82
-38.687
-39.524
-40.327
-41.091
-41.813
-42.489
-43.116
-43.693
-44.219
-44.691
-45.11
-45.474
-45.783
-46.037
-46.236
-46.381
-46.471
-46.51
-46.501
-46.448
-46.355
-46.229
-46.072
-45.891
-45.692
-45.481
-45.262
-45.038
-44.815
-44.601
-44.407
-44.242
-44.114
-44.027
-43.981
-43.976
-44.006
-44.064
-44.137
-44.209
-44.265
-44.297
-44.302
-44.28
-44.226
-44.132
-43.984
-43.772
-43.49
-43.137
-42.718
-42.237
-41.708
-41.158
-40.627
-40.162
-39.797
-39.559
-39.465
-39.529
-39.776
-40.235
-40.933
-41.902
-43.157
-44.703
-46.554
-48.723
-51.215
-54.016
-57.094
-60.383
-63.854
-67.523
-71.326
-75.137
-78.739
-81.792
-84.019
-85.266
-85.315
-83.886
-80.976
-76.739
-71.602
-66.469
-61.973
-58.365
-56.118
-55.634
-56.826
-59.544
-62.693
-63.964
-61.964
-55.735
-45.011
-31.245
-15.002
3.661
25.223
51.887
84.288
121.979
162.97
201.994
234.427
254.714
256.26
234.953
187.507
114.788
23.378
-79.194
-185.857
-292.551
-398.955
-503.495
-600.876
-682.936
-740.618
-768.442
-767.392
-742.557
-700.39
-646.732
-584.371
-514.466
-439.446
-363.052
-290.885
-229.573
-182.708
-149.989
-128.381
-113.083
-100.941
-91.53
-85.193
-82.133
-81.296
-80.588
-78.43
-74.12
-67.798
-59.921
-51.077
-42.102
-33.897
-27.452
-23.285
-21.299
-21.179
-22.477
-24.744
-27.578
-30.477
-32.854
-34.343
-34.815
-34.275
-32.866
-30.714
-27.89
-24.512
-20.725
-16.655
-12.42
-8.113
-3.795
0.462
4.574
8.459
12.037
15.238
18.033
20.416
22.401
24.017
25.298
26.284
27.023
27.574
27.994
28.338
28.656
28.991
29.388
29.893
30.549
31.399
32.468
33.771
35.313
37.096
39.12
41.385
43.887
46.615
49.551
52.678
55.973
59.417
62.989
66.663
70.407
74.194
78.003
81.823
85.653
89.483
93.298
97.072
100.772
104.378
107.878
111.26
114.517
117.642
120.623
123.463
126.182
128.774
131.224
133.494
135.522
137.262
138.689
139.782
140.534
140.93
140.942
140.552
139.746
138.505
136.814
134.643
131.937
128.678
124.873
120.558
115.804
110.664
105.173
99.369
93.285
86.956
80.429
73.736
66.902
59.96
52.949
45.926
38.965
32.117
25.408
18.848
12.418
6.114
-0.055
-6.086
-11.978
-17.726
-23.325
-28.765
-34.018
-39.072
-43.919
-48.563
-53.02
-57.293
-61.378
-65.263
-68.931
-72.369
-75.571
-78.529
-81.234
-83.683
-85.874
-87.815
-89.521
-91.004
-92.272
-93.332
-94.189
-94.852
-95.333
-95.643
-95.795
-95.801
-95.674
-95.428
-95.077
-94.636
-94.115
-93.526
-92.876
-92.175
-91.431
-90.654
-89.853
-89.034
-88.205
-87.375
-86.552
-85.741
-84.95
-84.183
-83.444
-82.739
-82.069
-81.437
-80.846
-80.296
-79.79
-79.326
-78.905
-78.527
-78.19
-77.895
-77.638
-77.418
-77.234
-77.082
-76.96
-76.866
-76.796
-76.749
-76.719
-76.706
-76.706
-76.716
-76.732
-76.753
-76.776
-76.796
-76.811
-76.818
-76.815
-76.797
-76.763
-76.711
-76.637
-76.541
-76.42
-76.273
-76.098
-75.895
-75.663
-75.401
-75.108
-74.784
-74.43
-74.046
-73.632
-73.19
-72.721
-72.226
-71.707
-71.165
-70.604
-70.024
-69.43
-68.823
-68.207
-67.584
-66.959
-66.334
-65.713
-65.1
-64.499
-63.914
-63.347
-62.802
-62.283
-61.793
-61.334
-60.909
-60.52
-60.169
-59.859
-59.59
-59.364
-59.181
-59.041
-58.945
-58.892
-58.879
-58.907
-58.972
-59.072
-59.204
-59.364
-59.549
-59.753
-59.972
-60.201
-60.434
-60.664
-60.885
-61.09
-61.271
-61.424
-61.54
-61.612
-61.636
-61.606
-61.515
-61.361
-61.14
-60.848
-60.482
-60.039
-59.517
-58.914
-58.231
-57.465
-56.616
-55.687
-54.68
-53.598
-52.446
-51.228
-49.95
-48.616
-47.235
-45.812
-44.356
-42.871
-41.367
-39.852
-38.337
-36.835
-35.356
-33.906
-32.488
-31.106
-29.757
-28.443
-27.157
-25.887
-24.623
-23.359
-22.088
-20.809
-19.518
-18.207
-16.868
-15.49
-14.069
-12.612
-11.127
-9.626
-8.128
-6.656
-5.245
-3.947
-2.813
-1.886
-1.211
-0.831
-0.786
-1.125
-1.889
-3.102
-4.791
-6.974
-9.664
-12.879
-16.62
-20.855
-25.559
-30.704
-36.18
-41.818
-47.371
-52.487
-56.869
-60.323
-62.585
-63.346
-62.534
-60.285
-57.006
-53.424
-50.032
-46.974
-44.571
-43.304
-43.286
-44.37
-45.537
-44.857
-41.08
-33.491
-22.214
-8.397
7.606
25.513
45.897
71.233
102.368
139.513
181.457
222.479
257.569
281.724
288.523
274.72
237.754
176.78
96.201
2.106
-99.518
-204.059
-310.061
-416.727
-520.517
-614.037
-687.867
-733.867
-748.439
-734.347
-697.702
-644.962
-581.508
-509.59
-431.541
-351.502
-274.36
-206.691
-152.774
-112.894
-84.929
-64.435
-48.038
-34.682
-24.534
-18.239
-15.175
-13.585
-11.491
-7.418
-1.178
6.755
15.782
25.026
33.749
41.246
46.739
49.991
51.196
50.688
48.972
46.554
43.861
41.395
39.663
38.924
39.259
40.633
42.901
45.948
49.684
53.977
58.679
63.659
68.801
74.01
79.21
84.312
89.215
93.827
98.06
101.866
105.227
108.149
110.658
112.784
114.566
116.055
117.308
118.381
119.329
120.203
121.046
121.909
122.843
123.899
125.124
126.553
128.208
130.102
132.24
134.623
137.245
140.099
143.17
146.451
149.936
153.614
157.476
161.507
165.688
169.995
174.401
178.869
183.365
187.862
192.336
196.77
201.154
205.476
209.723
213.888
217.948
221.886
225.687
229.329
232.797
236.09
239.21
242.178
245.021
247.743
250.337
252.787
255.062
257.127
258.945
260.465
261.653
262.493
262.968
263.069
262.785
262.083
260.916
259.228
256.949
254.033
250.461
246.218
241.322
235.804
229.709
223.1
216.027
208.508
200.555
192.182
183.414
174.303
164.921
155.352
145.704
136.083
126.574
117.255
108.18
99.377
90.863
82.646
74.744
67.204
60.091
53.454
47.331
41.745
36.69
32.151
28.089
24.438
21.145
18.165
15.467
13.042
10.887
8.995
7.355
5.942
4.708
3.619
2.645
1.757
0.945
0.206
-0.451
-0.989
-1.379
-1.602
-1.65
-1.528
-1.248
-0.815
-0.241
0.464
1.298
2.257
3.333
4.526
5.823
7.207
8.657
10.139
11.62
13.075
14.483
15.829
17.1
18.286
19.377
20.372
21.266
22.053
22.73
23.289
23.726
24.043
24.239
24.32
24.29
24.153
23.914
23.578
23.149
22.631
22.027
21.341
20.576
19.737
18.828
17.858
16.832
15.757
14.641
13.491
12.314
11.119
9.913
8.701
7.491
6.29
5.104
3.939
2.801
1.695
0.626
-0.402
-1.383
-2.314
-3.193
-4.016
-4.781
-5.487
-6.131
-6.713
-7.233
-7.689
-8.082
-8.412
-8.681
-8.888
-9.036
-9.127
-9.162
-9.145
-9.077
-8.963
-8.805
-8.607
-8.372
-8.103
-7.803
-7.475
-7.123
-6.749
-6.357
-5.948
-5.527
-5.095
-4.655
-4.207
-3.755
-3.3
-2.841
-2.38
-1.917
-1.452
-0.985
-0.515
-0.041
0.438
0.923
1.416
1.919
2.434
2.963
3.51
4.075
4.662
5.271
5.905
6.565
7.251
7.963
8.701
9.466
10.256
11.072
11.912
12.775
13.66
14.566
15.492
16.434
17.39
18.356
19.329
20.304
21.279
22.249
23.209
24.154
25.078
25.981
26.858
27.707
28.523
29.297
30.024
30.708
31.349
31.95
32.516
33.048
33.556
34.058
34.569
35.105
35.676
36.284
36.931
37.628
38.385
39.212
40.116
41.082
42.097
43.155
44.243
45.338
46.404
47.378
48.193
48.796
49.134
49.168
48.863
48.177
47.07
45.498
43.422
40.826
37.695
34.031
29.83
25.068
19.834
14.323
8.81
3.681
-0.741
-4.275
-6.672
-7.613
-7.075
-5.186
-2.332
0.606
3.047
4.812
5.469
4.654
2.477
-0.95
-4.551
-5.989
-3.872
2.774
14.128
28.457
45.001
63.591
84.808
111.304
143.978
182.445
224.623
264.654
297.303
316.5
315.079
289.087
236.013
157.558
61.161
-45.628
-156.556
-268.066
-379.686
-488.864
-588.765
-670.147
-724.092
-746.202
-738.769
-708.132
-661.152
-603.06
-536.236
-461.949
-383.056
-304.311
-231.797
-171.398
-125.741
-93.766
-72.232
-56.722
-44.517
-35.179
-28.633
-24.956
-23.164
-21.295
-18.059
-12.906
-5.968
2.176
10.789
19.143
26.449
31.843
34.994
36.022
35.229
33.119
30.194
26.877
23.693
21.212
19.736
19.382
20.137
21.847
24.394
27.684
31.57
35.888
40.492
45.253
50.069
54.865
59.541
63.99
68.108
71.797
75.001
77.697
79.881
81.573
82.8
83.601
84.026
84.135
83.986
83.637
83.139
82.539
81.888
81.239
80.643
80.149
79.791
79.592
79.565
79.717
80.051
80.566
81.256
82.11
83.118
84.273
85.567
86.996
88.549
90.214
91.98
93.832
95.756
97.74
99.77
101.832
103.911
105.992
108.061
110.101
112.098
114.032
115.886
117.64
119.276
120.775
122.119
123.291
124.274
125.051
125.61
125.936
126.018
125.844
125.405
124.692
123.698
122.418
120.847
118.982
116.823
114.368
111.622
108.585
105.265
101.667
97.798
93.67
89.291
84.675
79.835
74.784
69.539
64.115
58.53
52.802
46.948
40.989
34.942
28.829
22.666
16.475
10.274
4.081
-2.084
-8.206
-14.265
-20.247
-26.133
-31.911
-37.564
-43.079
-48.444
-53.648
-58.678
-63.526
-68.183
-72.641
-76.895
-80.938
-84.766
-88.376
-91.765
-94.933
-97.879
-100.603
-103.107
-105.394
-107.465
-109.326
-110.98
-112.431
-113.686
-114.749
-115.626
-116.324
-116.848
-117.204
-117.4
-117.441
-117.334
-117.085
-116.7
-116.185
-115.546
-114.79
-113.921
-112.945
-111.867
-110.693
-109.427
-108.074
-106.639
-105.125
-103.538
-101.88
-100.157
-98.37
-96.526
-94.625
-92.674
-90.673
-88.628
-86.541
-84.416
-82.257
-80.066
-77.848
-75.606
-73.345
-71.067
-68.778
-66.481
-64.18
-61.88
-59.586
-57.301
-55.03
-52.778
-50.549
-48.348
-46.179
-44.046
-41.953
-39.905
-37.904
-35.955
-34.061
-32.225
-30.449
-28.737
-27.09
-25.511
-24.003
-22.565
-21.2
-19.909
-18.693
-17.551
-16.485
-15.494
-14.578
-13.736
-12.968
-12.273
-11.648
-11.094
-10.606
-10.185
-9.825
-9.526
-9.283
-9.094
-8.954
-8.861
-8.811
-8.799
-8.823
-8.878
-8.96
-9.067
-9.194
-9.336
-9.491
-9.653
-9.82
-9.987
-10.149
-10.304
-10.448
-10.575
-10.682
-10.764
-10.819
-10.84
-10.824
-10.767
-10.664
-10.513
-10.309
-10.05
-9.735
-9.36
-8.925
-8.432
-7.879
-7.267
-6.598
-5.872
-5.091
-4.257
-3.372
-2.437
-1.456
-0.431
0.633
1.729
2.853
3.998
5.159
6.33
7.503
8.673
9.832
10.976
12.099
13.191
14.244
15.246
16.189
17.07
17.887
18.641
19.336
19.978
20.579
21.153
21.713
22.27
22.83
23.397
23.978
24.583
25.223
25.912
26.654
27.448
28.289
29.169
30.071
30.967
31.822
32.589
33.223
33.69
33.958
33.997
33.766
33.229
32.348
31.089
29.444
27.397
24.929
22.028
18.686
14.918
10.775
6.304
1.519
-3.497
-8.594
-13.545
-18.005
-21.671
-24.344
-25.806
-25.789
-24.196
-21.166
-17.083
-12.651
-8.545
-5.104
-2.61
-1.527
-2.059
-3.961
-6.665
-8.669
-8.007
-3.612
5.438
19.178
36.045
55.071
75.475
97.919
125.082
158.384
198.093
240.93
280.094
309.153
320.686
308.906
271.52
207.995
122.29
21.499
-87.934
-201.015
-315.377
-429.625
-539.291
-636.122
-710.113
-753.217
-763.675
-745.908
-707.256
-654.805
-592.397
-521.282
-443.665
-363.725
-287.508
-221.827
-170.22
-132.264
-105.144
-84.651
-68.126
-55.077
-45.862
-40.706
-38.58
-37.545
-35.612
-31.537
-25.269
-17.278
-8.191
1.107
9.865
17.344
22.764
25.908
26.962
26.251
24.278
21.535
18.446
15.502
13.195
11.797
11.406
12.002
13.456
15.659
18.521
21.923
25.729
29.813
34.071
38.408
42.75
47.023
51.14
55.017
58.58
61.76
64.524
66.868
68.807
70.367
71.587
72.506
73.174
73.652
73.995
74.255
74.48
74.711
74.989
75.36
75.864
76.54
77.413
78.497
79.798
81.317
83.053
84.999
87.146
89.477
91.978
94.636
97.44
100.378
103.437
106.6
109.85
113.169
116.539
119.943
123.364
126.781
130.177
133.534
136.832
140.056
143.185
146.2
149.082
151.81
154.366
156.732
158.89
160.822
162.514
163.951
165.121
166.012
166.616
166.923
166.926
166.621
166.003
165.07
163.821
162.257
160.379
158.192
155.701
152.914
149.837
146.481
142.858
138.979
134.859
130.512
125.955
121.205
116.279
111.196
105.976
100.638
95.203
89.692
84.124
78.522
72.906
67.296
61.712
56.174
50.702
45.313
40.025
34.856
29.821
24.936
20.215
15.672
11.318
7.165
3.223
-0.5
-3.996
-7.26
-10.286
-13.071
-15.614
-17.914
-19.97
-21.786
-23.363
-24.708
-25.824
-26.718
-27.399
-27.874
-28.153
-28.245
-28.161
-27.913
-27.511
-26.969
-26.297
-25.509
-24.617
-23.634
-22.571
-21.441
-20.257
-19.029
-17.77
-16.49
-15.201
-13.911
-12.631
-11.368
-10.133
-8.931
-7.769
-6.654
-5.59
-4.583
-3.635
-2.75
-1.93
-1.176
-0.489
0.13
0.683
1.17
1.592
1.952
2.251
2.493
2.68
2.815
2.902
2.944
2.945
2.907
2.835
2.732
2.601
2.445
2.268
2.073
1.862
1.637
1.402
1.156
0.903
0.643
0.377
0.105
-0.172
-0.455
-0.745
-1.043
-1.349
-1.666
-1.995
-2.339
-2.699
-3.079
-3.48
-3.904
-4.355
-4.834
-5.343
-5.884
-6.458
-7.067
-7.712
-8.394
-9.114
-9.871
-10.666
-11.499
-12.369
-13.274
-14.214
-15.186
-16.188
-17.217
-18.269
-19.342
-20.43
-21.529
-22.635
-23.741
-24.843
-25.932
-27.003
-28.05
-29.063
-30.038
-30.966
-31.842
-32.659
-33.41
-34.092
-34.699
-35.228
-35.675
-36.037
-36.312
-36.496
-36.589
-36.589
-36.495
-36.306
-36.023
-35.646
-35.179
-34.626
-33.99
-33.275
-32.487
-31.63
-30.71
-29.734
-28.707
-27.637
-26.53
-25.394
-24.239
-23.079
-21.921
-20.77
-19.63
-18.499
-17.375
-16.256
-15.135
-13.999
-12.839
-11.645
-10.413
-9.142
-7.827
-6.464
-5.047
-3.562
-2.007
-0.388
1.285
2.994
4.714
6.423
8.086
9.645
11.051
12.256
13.212
13.887
14.243
14.236
13.829
12.991
11.692
9.916
7.649
4.881
1.622
-2.102
-6.27
-10.846
-15.721
-20.719
-25.58
-29.975
-33.626
-36.345
-37.875
-37.895
-36.341
-33.377
-29.442
-25.304
-21.491
-18.149
-15.646
-14.545
-14.952
-16.709
-18.809
-19.2
-16.569
-10.249
-0.078
12.911
27.973
44.774
63.283
85.517
113.506
148.122
189.161
232.011
270.118
296.917
304.359
287.037
242.792
172.311
81.578
-21.346
-130.042
-240.639
-352.105
-463.41
-569.464
-661.362
-729.196
-765.319
-768.763
-744.009
-697.606
-637.034
-566.652
-488.935
-407.961
-327.695
-253.742
-191.97
-144.056
-109.194
-84.285
-65.037
-49.66
-37.953
-30.05
-25.982
-24.253
-22.629
-19.617
-14.463
-7.234
1.487
11.028
20.53
29.016
35.539
39.65
41.449
41.268
39.594
36.91
33.658
30.381
27.679
25.922
25.246
25.645
26.981
29.133
32.028
35.544
39.529
43.846
48.366
52.984
57.627
62.212
66.64
70.819
74.654
78.068
81.027
83.523
85.567
87.189
88.421
89.305
89.894
90.252
90.438
90.511
90.522
90.517
90.544
90.655
90.897
91.314
91.935
92.776
93.846
95.15
96.688
98.457
100.447
102.643
105.033
107.606
110.35
113.256
116.309
119.494
122.791
126.184
129.655
133.185
136.756
140.349
143.943
147.519
151.057
154.536
157.937
161.237
164.413
167.442
170.302
172.973
175.432
177.66
179.638
181.348
182.774
183.903
184.721
185.217
185.381
185.206
184.684
183.811
182.586
181.006
179.073
176.789
174.159
171.189
167.888
164.264
160.33
156.098
151.582
146.799
141.766
136.501
131.023
125.353
119.512
113.522
107.406
101.186
94.885
88.527
82.134
75.731
69.338
62.979
56.674
50.445
44.311
38.293
32.406
26.67
21.101
15.712
10.517
5.531
0.762
-3.779
-8.083
-12.145
-15.957
-19.516
-22.82
-25.866
-28.656
-31.19
-33.471
-35.503
-37.291
-38.841
-40.16
-41.257
-42.141
-42.82
-43.306
-43.609
-43.74
-43.713
-43.538
-43.228
-42.795
-42.251
-41.61
-40.882
-40.081
-39.216
-38.301
-37.345
-36.359
-35.354
-34.337
-33.319
-32.308
-31.31
-30.334
-29.385
-28.468
-27.59
-26.755
-25.965
-25.224
-24.535
-23.899
-23.319
-22.793
-22.324
-21.911
-21.553
-21.25
-20.999
-20.801
-20.652
-20.55
-20.494
-20.481
-20.508
-20.573
-20.674
-20.807
-20.971
-21.162
-21.379
-21.62
-21.882
-22.163
-22.461
-22.775
-23.102
-23.443
-23.794
-24.155
-24.525
-24.902
-25.286
-25.676
-26.071
-26.47
-26.871
-27.273
-27.676
-28.078
-28.478
-28.874
-29.267
-29.654
-30.034
-30.405
-30.767
-31.118
-31.455
-31.776
-32.08
-32.364
-32.625
-32.861
-33.069
-33.247
-33.391
-33.498
-33.565
-33.588
-33.566
-33.493
-33.368
-33.187
-32.948
-32.649
-32.287
-31.863
-31.374
-30.822
-30.208
-29.533
-28.797
-28.002
-27.152
-26.247
-25.292
-24.288
-23.239
-22.149
-21.021
-19.86
-18.674
-17.466
-16.244
-15.013
-13.78
-12.551
-11.335
-10.138
-8.964
-7.818
-6.706
-5.636
-4.617
-3.654
-2.75
-1.902
-1.112
-0.377
0.306
0.945
1.558
2.157
2.759
3.371
3.997
4.641
5.311
6.015
6.764
7.563
8.4
9.267
10.159
11.062
11.957
12.81
13.562
14.154
14.53
14.642
14.448
13.912
13.003
11.683
9.915
7.667
4.922
1.665
-2.099
-6.376
-11.193
-16.464
-22.011
-27.584
-32.813
-37.388
-41.132
-43.784
-45.033
-44.847
-43.341
-40.88
-38.271
-36.043
-34.366
-33.664
-34.308
-36.19
-39.172
-42.306
-43.514
-41.513
-35.432
-24.67
-10.302
6.695
25.88
46.736
70.551
99.089
133.055
172.067
212.373
247.977
271.786
275.802
254.73
206.703
134.19
44.595
-54.348
-157.015
-260.561
-364.687
-467.042
-560.777
-637.255
-688.654
-711.017
-706.96
-681.568
-639.286
-584.972
-521.719
-452.834
-384.345
-320.949
-265.7
-220.294
-182.887
-150.718
-122.591
-97.991
-77.736
-63.543
-55.223
-51.033
-48.798
-46.072
-41.66
-35.681
-28.446
-20.239
-11.473
-2.692
5.361
11.708
15.871
17.942
18.168
16.954
14.727
11.854
8.825
6.229
4.435
3.59
3.723
4.715
6.461
8.907
11.944
15.439
19.277
23.345
27.556
31.845
36.135
40.336
44.361
48.119
51.535
54.569
57.206
59.46
61.359
62.934
64.227
65.284
66.162
66.918
67.604
68.267
68.947
69.691
70.543
71.551
72.755
74.184
75.855
77.775
79.944
82.362
85.023
87.916
91.022
94.327
97.815
101.474
105.29
109.246
113.324
117.502
121.757
126.07
130.418
134.78
139.133
143.454
147.72
151.909
156
159.968
163.792
167.446
170.907
174.153
177.161
179.91
182.381
184.554
186.413
187.944
189.134
189.971
190.445
190.55
190.279
189.63
188.6
187.189
185.4
183.237
180.705
177.813
174.571
170.99
167.083
162.864
158.352
153.562
148.514
143.228
137.725
132.027
126.156
120.135
113.989
107.741
101.415
95.035
88.625
82.207
75.806
69.443
63.139
56.916
50.792
44.786
38.915
33.196
27.644
22.273
17.094
12.12
7.36
2.821
-1.489
-5.565
-9.402
-12.999
-16.353
-19.464
-22.335
-24.966
-27.363
-29.528
-31.468
-33.19
-34.7
-36.006
-37.118
-38.045
-38.796
-39.382
-39.812
-40.098
-40.25
-40.278
-40.194
-40.009
-39.731
-39.372
-38.942
-38.449
-37.903
-37.313
-36.686
-36.03
-35.353
-34.662
-33.962
-33.26
-32.56
-31.868
-31.189
-30.525
-29.88
-29.257
-28.659
-28.089
-27.547
-27.037
-26.558
-26.114
-25.703
-25.328
-24.989
-24.687
-24.422
-24.194
-24.003
-23.851
-23.736
-23.66
-23.622
-23.622
-23.662
-23.739
-23.856
-24.01
-24.202
-24.431
-24.696
-24.996
-25.329
-25.696
-26.093
-26.519
-26.973
-27.452
-27.954
-28.476
-29.015
-29.569
-30.132
-30.703
-31.276
-31.847
-32.411
-32.964
-33.501
-34.016
-34.504
-34.96
-35.377
-35.75
-36.074
-36.341
-36.548
-36.688
-36.758
-36.753
-36.669
-36.504
-36.256
-35.924
-35.508
-35.007
-34.422
-33.754
-33.005
-32.176
-31.27
-30.29
-29.238
-28.12
-26.941
-25.707
-24.427
-23.106
-21.753
-20.376
-18.982
-17.582
-16.185
-14.797
-13.428
-12.085
-10.779
-9.525
-8.33
-7.202
-6.141
-5.147
-4.221
-3.358
-2.553
-1.791
-1.059
-0.343
0.366
1.071
1.777
2.489
3.222
3.988
4.794
5.636
6.5
7.372
8.238
9.077
9.849
10.496
10.96
11.184
11.121
10.734
9.979
8.817
7.211
5.123
2.523
-0.607
-4.273
-8.478
-13.191
-18.387
-24.038
-30.01
-36.109
-42.083
-47.577
-52.298
-56.063
-58.612
-59.648
-59.139
-57.184
-54.094
-50.618
-47.251
-44.178
-41.85
-40.666
-40.59
-41.573
-42.738
-42.088
-38.367
-30.607
-18.676
-4.222
11.652
28.233
46.458
69.461
99.298
137.066
180.21
222.06
255.821
273.37
268.132
237.509
181.11
103.347
11.71
-87.714
-190.595
-295.424
-401.741
-504.975
-596.771
-667.67
-709.625
-721.003
-705.723
-669.229
-618.07
-557.156
-490.077
-422.281
-358.477
-301.718
-253.751
-212.899
-176.521
-143.696
-114.404
-89.874
-71.853
-60.444
-54.261
-51.374
-49.485
-46.875
-42.976
-37.804
-31.553
-24.517
-17.13
-9.853
-3.346
1.58
4.639
5.913
5.607
4.14
1.928
-0.679
-3.204
-5.12
-6.146
-6.17
-5.19
-3.344
-0.729
2.579
6.451
10.74
15.317
20.067
24.903
29.765
34.57
39.228
43.646
47.736
51.447
54.763
57.682
60.227
62.426
64.313
65.938
67.358
68.627
69.796
70.914
72.019
73.157
74.373
75.712
77.22
78.926
80.847
82.995
85.372
87.975
90.801
93.838
97.07
100.481
104.058
107.786
111.655
115.647
119.745
123.929
128.178
132.472
136.79
141.112
145.416
149.683
153.889
158.015
162.041
165.945
169.704
173.297
176.7
179.892
182.853
185.562
187.999
190.149
191.993
193.518
194.712
195.563
196.062
196.202
195.976
195.381
194.414
193.076
191.368
189.294
186.859
184.07
180.937
177.469
173.68
169.582
165.192
160.526
155.602
150.438
145.056
139.475
133.719
127.808
121.765
115.615
109.379
103.082
96.746
90.395
84.051
77.735
71.47
65.275
59.17
53.175
47.306
41.58
36.013
30.619
25.412
20.402
15.601
11.018
6.661
2.535
-1.353
-5.001
-8.406
-11.566
-14.483
-17.157
-19.591
-21.789
-23.757
-25.499
-27.022
-28.335
-29.445
-30.362
-31.095
-31.653
-32.048
-32.291
-32.391
-32.359
-32.208
-31.948
-31.589
-31.143
-30.619
-30.029
-29.381
-28.686
-27.952
-27.188
-26.402
-25.602
-24.795
-23.988
-23.186
-22.395
-21.621
-20.867
-20.137
-19.436
-18.764
-18.126
-17.522
-16.955
-16.425
-15.934
-15.482
-15.07
-14.697
-14.364
-14.07
-13.815
-13.6
-13.423
-13.284
-13.183
-13.12
-13.093
-13.104
-13.151
-13.233
-13.352
-13.505
-13.692
-13.912
-14.166
-14.45
-14.766
-15.111
-15.484
-15.885
-16.312
-16.764
-17.24
-17.738
-18.256
-18.794
-19.347
-19.915
-20.494
-21.082
-21.676
-22.272
-22.868
-23.458
-24.04
-24.609
-25.16
-25.689
-26.191
-26.661
-27.094
-27.486
-27.833
-28.13
-28.374
-28.563
-28.695
-28.768
-28.781
-28.733
-28.623
-28.452
-28.22
-27.926
-27.573
-27.16
-26.689
-26.162
-25.583
-24.957
-24.288
-23.58
-22.839
-22.07
-21.279
-20.473
-19.658
-18.839
-18.021
-17.212
-16.418
-15.651
-14.918
-14.221
-13.56
-12.933
-12.339
-11.772
-11.224
-10.678
-10.121
-9.541
-8.927
-8.278
-7.589
-6.853
-6.062
-5.203
-4.272
-3.279
-2.233
-1.147
-0.039
1.07
2.142
3.117
3.943
4.568
4.939
5.023
4.779
4.163
3.154
1.714
-0.184
-2.555
-5.42
-8.784
-12.626
-16.933
-21.689
-26.784
-32.047
-37.23
-41.986
-46.031
-49.163
-51.152
-51.725
-50.756
-48.353
-44.883
-41.006
-37.301
-34.024
-31.463
-30.096
-30.176
-31.633
-33.673
-34.558
-32.752
-27.313
-18.091
-6.102
7.952
23.711
41.38
63.38
91.718
127.221
169.887
215.109
256.094
286.074
296.51
281.511
239.211
170.643
81.977
-18.492
-124.556
-232.84
-342.61
-452.998
-558.962
-651.149
-719.145
-755.242
-758.609
-734.228
-689.344
-631.441
-564.655
-491.57
-415.894
-341.659
-274.52
-218.902
-175.687
-143.43
-118.461
-98.08
-81.657
-69.596
-62.791
-60.392
-60.173
-59.793
-57.426
-52.629
-45.779
-37.36
-28.055
-18.675
-10.113
-3.377
1.026
3.166
3.324
1.96
-0.456
-3.498
-6.628
-9.25
-10.99
-11.708
-11.397
-10.183
-8.178
-5.447
-2.106
1.707
5.867
10.26
14.795
19.405
24.009
28.511
32.821
36.848
40.514
43.781
46.634
49.081
51.15
52.871
54.282
55.431
56.372
57.162
57.853
58.491
59.118
59.78
60.522
61.389
62.425
63.654
65.094
66.752
68.628
70.722
73.029
75.537
78.23
81.094
84.116
87.283
90.585
94.006
97.53
101.139
104.812
108.531
112.279
116.037
119.785
123.503
127.172
130.773
134.287
137.696
140.979
144.114
147.081
149.86
152.433
154.78
156.885
158.731
160.303
161.59
162.578
163.26
163.627
163.671
163.388
162.775
161.83
160.553
158.945
157.009
154.751
152.178
149.296
146.116
142.649
138.908
134.905
130.656
126.177
121.485
116.597
111.533
106.312
100.953
95.477
89.904
84.255
78.55
72.81
67.056
61.306
55.58
49.896
44.273
38.727
33.275
27.931
22.71
17.625
12.689
7.912
3.304
-1.125
-5.37
-9.422
-13.277
-16.932
-20.384
-23.631
-26.672
-29.509
-32.143
-34.577
-36.815
-38.86
-40.719
-42.397
-43.9
-45.237
-46.413
-47.438
-48.319
-49.064
-49.683
-50.182
-50.571
-50.857
-51.048
-51.153
-51.178
-51.13
-51.016
-50.841
-50.612
-50.332
-50.007
-49.64
-49.234
-48.792
-48.317
-47.809
-47.27
-46.702
-46.103
-45.473
-44.813
-44.121
-43.396
-42.638
-41.844
-41.013
-40.144
-39.236
-38.288
-37.297
-36.264
-35.188
-34.068
-32.904
-31.696
-30.446
-29.154
-27.821
-26.45
-25.043
-23.603
-22.132
-20.634
-19.112
-17.571
-16.015
-14.448
-12.875
-11.3
-9.729
-8.166
-6.617
-5.087
-3.582
-2.105
-0.663
0.742
2.104
3.42
4.686
5.9
7.059
8.161
9.204
10.187
11.111
11.974
12.778
13.524
14.214
14.851
15.436
15.974
16.467
16.918
17.331
17.709
18.054
18.37
18.658
18.922
19.166
19.391
19.601
19.798
19.985
20.166
20.342
20.516
20.687
20.856
21.023
21.187
21.35
21.508
21.663
21.81
21.949
22.079
22.198
22.305
22.395
22.461
22.5
22.513
22.503
22.474
22.429
22.375
22.321
22.282
22.272
22.304
22.387
22.526
22.728
22.999
23.35
23.792
24.329
24.953
25.653
26.417
27.23
28.07
28.904
29.676
30.335
30.83
31.106
31.124
30.834
30.19
29.157
27.698
25.778
23.377
20.476
17.058
13.141
8.732
3.821
-1.487
-7.026
-12.56
-17.717
-22.188
-25.779
-28.213
-29.168
-28.591
-26.577
-23.507
-20.207
-17.233
-14.79
-13.316
-13.224
-14.513
-17.119
-19.983
-20.851
-18.363
-11.598
-0.564
13.004
28.499
45.955
66.33
92.536
125.443
164.567
207.803
249.455
284.75
308.106
312.609
293.739
247.895
176.17
85.21
-16.893
-122.609
-229.108
-336.71
-444.996
-549.81
-641.462
-709.163
-745.12
-748.087
-723.106
-677.343
-617.949
-548.981
-472.967
-393.672
-315.55
-244.763
-186.117
-140.777
-107.25
-81.566
-60.814
-44.223
-32.183
-25.692
-23.895
-24.475
-24.971
-23.425
-19.33
-13.047
-5.057
3.942
13.12
21.536
28.141
32.405
34.399
34.417
32.924
30.384
27.223
23.986
21.277
19.479
18.722
18.996
20.163
22.101
24.738
27.959
31.613
35.569
39.708
43.932
48.18
52.378
56.436
60.268
63.787
66.923
69.645
71.95
73.85
75.376
76.563
77.45
78.091
78.548
78.878
79.139
79.38
79.645
79.98
80.434
81.053
81.878
82.938
84.245
85.81
87.633
89.714
92.047
94.622
97.421
100.43
103.635
107.022
110.578
114.287
118.128
122.081
126.125
130.238
134.399
138.586
142.777
146.948
151.076
155.139
159.114
162.977
166.704
170.271
173.653
176.826
179.768
182.457
184.872
186.994
188.805
190.291
191.438
192.232
192.666
192.729
192.417
191.724
190.649
189.191
187.351
185.134
182.544
179.589
176.279
172.624
168.637
164.332
159.726
154.835
149.679
144.277
138.65
132.819
126.808
120.639
114.336
107.923
101.425
94.865
88.267
81.656
75.054
68.484
61.967
55.524
49.177
42.942
36.839
30.885
25.095
19.484
14.064
8.849
3.848
-0.929
-5.474
-9.782
-13.846
-17.663
-21.232
-24.55
-27.618
-30.438
-33.013
-35.346
-37.443
-39.309
-40.952
-42.38
-43.6
-44.623
-45.457
-46.114
-46.603
-46.936
-47.123
-47.176
-47.105
-46.922
-46.637
-46.261
-45.805
-45.279
-44.692
-44.055
-43.377
-42.665
-41.929
-41.177
-40.415
-39.65
-38.889
-38.137
-37.399
-36.68
-35.984
-35.314
-34.673
-34.063
-33.488
-32.947
-32.443
-31.977
-31.548
-31.157
-30.805
-30.491
-30.215
-29.976
-29.775
-29.611
-29.483
-29.391
-29.335
-29.313
-29.325
-29.371
-29.449
-29.558
-29.698
-29.867
-30.064
-30.287
-30.535
-30.806
-31.1
-31.414
-31.747
-32.097
-32.463
-32.842
-33.233
-33.634
-34.041
-34.454
-34.869
-35.283
-35.694
-36.098
-36.492
-36.873
-37.236
-37.577
-37.892
-38.176
-38.425
-38.634
-38.799
-38.915
-38.979
-38.987
-38.936
-38.824
-38.651
-38.413
-38.112
-37.745
-37.314
-36.817
-36.256
-35.631
-34.943
-34.192
-33.382
-32.516
-31.599
-30.634
-29.628
-28.584
-27.51
-26.411
-25.294
-24.164
-23.027
-21.889
-20.76
-19.649
-18.568
-17.525
-16.524
-15.567
-14.657
-13.788
-12.955
-12.15
-11.356
-10.564
-9.766
-8.954
-8.128
-7.281
-6.403
-5.487
-4.52
-3.494
-2.414
-1.286
-0.118
1.062
2.226
3.338
4.345
5.201
5.867
6.306
6.484
6.364
5.904
5.056
3.789
2.077
-0.095
-2.74
-5.876
-9.492
-13.562
-18.029
-22.819
-27.908
-33.196
-38.513
-43.621
-48.172
-51.854
-54.484
-55.819
-55.554
-53.672
-50.319
-45.873
-41.154
-36.715
-32.84
-30.069
-28.852
-29.213
-30.754
-32.183
-31.612
-27.762
-20.368
-10.141
2.162
16.101
32.206
53.006
80.493
115.57
158.062
203.305
244.896
276.781
291.398
283.721
251.521
193.893
114.848
21.068
-81.6
-188.415
-297.574
-408.553
-517.627
-616.763
-695.871
-746.121
-763.523
-751.144
-715.46
-662.877
-599.011
-526.346
-447.441
-367.129
-290.592
-224.065
-171.441
-132.464
-104.677
-83.986
-67.448
-54.361
-45.137
-40.236
-38.778
-38.816
-38.218
-35.511
-30.534
-23.741
-15.691
-7.213
0.972
8.138
13.43
16.552
17.663
17.061
15.238
12.689
9.826
7.153
5.196
4.225
4.323
5.462
7.485
10.276
13.745
17.753
22.155
26.819
31.632
36.505
41.372
46.145
50.733
55.046
58.998
62.544
65.669
68.376
70.693
72.651
74.288
75.655
76.811
77.811
78.71
79.556
80.394
81.27
82.23
83.321
84.585
86.054
87.743
89.661
91.81
94.186
96.785
99.595
102.599
105.782
109.13
112.629
116.266
120.027
123.892
127.842
131.856
135.914
139.996
144.083
148.152
152.183
156.155
160.047
163.839
167.51
171.036
174.396
177.567
180.526
183.254
185.731
187.936
189.852
191.464
192.757
193.718
194.337
194.605
194.514
194.059
193.235
192.042
190.48
188.549
186.254
183.601
180.596
177.25
173.572
169.576
165.275
160.684
155.821
150.704
145.353
139.786
134.026
128.094
122.014
115.807
109.498
103.11
96.667
90.193
83.71
77.241
70.808
64.432
58.135
51.936
45.853
39.905
34.107
28.475
23.024
17.767
12.714
7.877
3.263
-1.118
-5.262
-9.164
-12.82
-16.229
-19.389
-22.302
-24.969
-27.394
-29.58
-31.533
-33.26
-34.768
-36.064
-37.158
-38.06
-38.778
-39.325
-39.71
-39.945
-40.042
-40.01
-39.862
-39.61
-39.263
-38.834
-38.332
-37.768
-37.152
-36.494
-35.801
-35.083
-34.348
-33.604
-32.856
-32.111
-31.375
-30.653
-29.95
-29.269
-28.615
-27.99
-27.398
-26.839
-26.316
-25.83
-25.382
-24.973
-24.602
-24.27
-23.976
-23.72
-23.502
-23.321
-23.176
-23.067
-22.993
-22.953
-22.947
-22.974
-23.034
-23.125
-23.248
-23.403
-23.589
-23.807
-24.057
-24.337
-24.65
-24.993
-25.369
-25.775
-26.211
-26.678
-27.173
-27.697
-28.248
-28.826
-29.428
-30.053
-30.7
-31.367
-32.052
-32.752
-33.464
-34.186
-34.914
-35.645
-36.375
-37.1
-37.817
-38.521
-39.208
-39.872
-40.509
-41.113
-41.68
-42.204
-42.68
-43.102
-43.465
-43.766
-44.001
-44.165
-44.256
-44.273
-44.215
-44.082
-43.872
-43.586
-43.225
-42.791
-42.284
-41.708
-41.063
-40.354
-39.583
-38.757
-37.881
-36.961
-36.004
-35.017
-34.006
-32.98
-31.944
-30.908
-29.877
-28.859
-27.862
-26.896
-25.973
-25.101
-24.285
-23.526
-22.823
-22.173
-21.571
-21.006
-20.462
-19.927
-19.387
-18.833
-18.259
-17.656
-17.016
-16.327
-15.574
-14.75
-13.86
-12.907
-11.907
-10.878
-9.844
-8.847
-7.945
-7.191
-6.637
-6.334
-6.324
-6.66
-7.392
-8.559
-10.189
-12.303
-14.921
-18.063
-21.736
-25.932
-30.601
-35.68
-41.126
-46.808
-52.525
-58.003
-62.853
-66.728
-69.433
-70.711
-70.251
-68.059
-64.295
-59.36
-54.092
-49.042
-44.492
-40.998
-39.032
-38.627
-39.343
-39.806
-38.127
-33.017
-24.299
-12.866
0.637
15.892
33.528
56.412
86.432
124.189
169.47
217.328
260.882
293.607
307.086
295.422
256.579
190.64
102.863
1.286
-107.705
-219.314
-332.226
-445.238
-550.741
-645.512
-728.722
-778.777
-777.846
-745.007
-702.409
-648.694
-581.228
-506.325
-429.001
-352.488
-282.509
-223.447
-176.207
-139.582
-110.442
-86.575
-67.371
-53.116
-44.803
-41.636
-41.62
-42.638
-42.349
-39.803
-35.222
-28.898
-21.399
-13.526
-5.911
0.667
5.369
7.976
8.66
7.713
5.624
2.883
-0.1
-2.828
-4.792
-5.753
-5.645
-4.511
-2.513
0.229
3.623
7.534
11.811
16.328
20.972
25.649
30.295
34.824
39.146
43.175
46.833
50.076
52.894
55.297
57.313
58.977
60.329
61.419
62.306
63.044
63.688
64.287
64.887
65.535
66.278
67.16
68.225
69.502
71.007
72.75
74.731
76.947
79.391
82.056
84.931
88.008
91.275
94.717
98.312
102.041
105.883
109.817
113.814
117.846
121.89
125.927
129.953
133.962
137.94
141.867
145.712
149.447
153.051
156.514
159.827
162.976
165.948
168.733
171.337
173.772
176.033
178.092
179.899
181.406
182.586
183.429
183.93
184.084
183.876
183.288
182.309
180.941
179.173
176.989
174.352
171.222
167.593
163.496
158.989
154.131
148.954
143.48
137.736
131.755
125.571
119.219
112.715
106.066
99.317
92.522
85.75
79.078
72.541
66.151
59.906
53.801
47.854
42.085
36.503
31.11
25.921
20.956
16.25
11.845
7.736
3.907
0.34
-2.988
-6.079
-8.921
-11.511
-13.847
-15.926
-17.753
-19.324
-20.63
-21.685
-22.507
-23.124
-23.567
-23.838
-23.935
-23.861
-23.619
-23.221
-22.684
-22.015
-21.218
-20.313
-19.313
-18.238
-17.109
-15.933
-14.717
-13.465
-12.181
-10.881
-9.58
-8.288
-7.015
-5.77
-4.56
-3.396
-2.289
-1.241
-0.253
0.674
1.541
2.343
3.08
3.751
4.357
4.899
5.38
5.802
6.168
6.481
6.745
6.963
7.141
7.281
7.386
7.459
7.502
7.52
7.514
7.486
7.44
7.376
7.298
7.206
7.103
6.987
6.86
6.723
6.574
6.414
6.243
6.058
5.86
5.647
5.418
5.171
4.907
4.623
4.319
3.994
3.647
3.278
2.886
2.471
2.032
1.57
1.086
0.581
0.055
-0.49
-1.052
-1.628
-2.215
-2.811
-3.413
-4.015
-4.616
-5.21
-5.792
-6.357
-6.901
-7.419
-7.905
-8.354
-8.762
-9.124
-9.436
-9.694
-9.897
-10.041
-10.125
-10.15
-10.112
-10.014
-9.854
-9.635
-9.357
-9.021
-8.63
-8.185
-7.69
-7.149
-6.568
-5.95
-5.302
-4.629
-3.937
-3.233
-2.525
-1.819
-1.119
-0.432
0.238
0.883
1.493
2.062
2.59
3.077
3.525
3.936
4.313
4.665
5.006
5.352
5.717
6.109
6.529
6.983
7.474
8.016
8.621
9.29
10.017
10.788
11.592
12.42
13.257
14.067
14.794
15.385
15.782
15.949
15.857
15.468
14.755
13.675
12.18
10.244
7.842
4.962
1.614
-2.221
-6.571
-11.37
-16.454
-21.582
-26.404
-30.643
-34.126
-36.621
-37.838
-37.617
-36.021
-33.412
-30.467
-27.79
-25.638
-24.259
-24.08
-25.358
-28.044
-31.351
-33.503
-32.855
-28.373
-19.872
-8.285
5.72
21.891
40.483
63.713
93.535
130.616
174.759
221.645
264.525
297.084
311.908
303.29
269.204
209.417
127.108
28.945
-79.292
-193.918
-311.632
-426.847
-536.145
-644.504
-738.724
-780.729
-767.222
-734.883
-697.849
-646.525
-580.891
-507.704
-430.67
-353.338
-281.732
-220.648
-171.527
-133.398
-103.225
-78.759
-59.205
-44.683
-36.149
-32.846
-32.796
-33.856
-33.615
-31.05
-26.353
-19.833
-12.075
-3.873
4.13
11.137
16.274
19.29
20.342
19.726
17.938
15.47
12.733
10.23
8.483
7.742
8.079
9.452
11.699
14.695
18.345
22.509
27.033
31.787
36.653
41.537
46.369
51.066
55.537
59.696
63.466
66.804
69.699
72.161
74.219
75.908
77.269
78.352
79.215
79.917
80.514
81.06
81.601
82.187
82.865
83.681
84.681
85.894
87.336
89.014
90.931
93.085
95.475
98.098
100.944
103.998
107.244
110.664
114.235
117.934
121.734
125.602
129.51
133.438
137.37
141.3
145.225
149.133
153.006
156.818
160.542
164.166
167.675
171.059
174.317
177.447
180.45
183.343
186.133
188.805
191.332
193.665
195.745
197.529
198.989
200.1
200.852
201.218
201.173
200.7
199.774
198.366
196.446
193.962
190.878
187.193
182.923
178.12
172.854
167.178
161.137
154.78
148.14
141.261
134.188
126.95
119.586
112.141
104.667
97.238
89.92
82.75
75.75
68.923
62.251
55.73
49.36
43.138
37.068
31.156
25.407
19.842
14.476
9.32
4.375
-0.37
-4.925
-9.289
-13.457
-17.415
-21.144
-24.633
-27.872
-30.848
-33.557
-35.998
-38.173
-40.092
-41.771
-43.221
-44.45
-45.468
-46.281
-46.899
-47.336
-47.604
-47.718
-47.692
-47.541
-47.281
-46.927
-46.493
-45.991
-45.431
-44.822
-44.173
-43.494
-42.793
-42.079
-41.359
-40.64
-39.932
-39.239
-38.569
-37.925
-37.313
-36.735
-36.193
-35.689
-35.225
-34.8
-34.414
-34.068
-33.759
-33.486
-33.248
-33.041
-32.865
-32.716
-32.591
-32.487
-32.403
-32.333
-32.276
-32.23
-32.19
-32.156
-32.125
-32.094
-32.064
-32.031
-31.996
-31.956
-31.912
-31.864
-31.81
-31.751
-31.687
-31.62
-31.55
-31.479
-31.408
-31.34
-31.276
-31.218
-31.169
-31.13
-31.105
-31.094
-31.099
-31.124
-31.169
-31.236
-31.325
-31.439
-31.577
-31.741
-31.93
-32.145
-32.385
-32.649
-32.936
-33.246
-33.576
-33.923
-34.286
-34.661
-35.046
-35.436
-35.829
-36.219
-36.604
-36.977
-37.335
-37.673
-37.987
-38.271
-38.52
-38.73
-38.898
-39.02
-39.092
-39.112
-39.078
-38.99
-38.845
-38.645
-38.389
-38.078
-37.713
-37.296
-36.828
-36.31
-35.745
-35.135
-34.484
-33.797
-33.077
-32.331
-31.562
-30.777
-29.981
-29.183
-28.388
-27.597
-26.816
-26.047
-25.298
-24.577
-23.889
-23.234
-22.612
-22.024
-21.468
-20.941
-20.433
-19.926
-19.401
-18.845
-18.248
-17.609
-16.926
-16.189
-15.388
-14.515
-13.567
-12.556
-11.495
-10.385
-9.237
-8.078
-6.946
-5.915
-5.057
-4.425
-4.068
-4.024
-4.319
-5.005
-6.135
-7.749
-9.889
-12.569
-15.778
-19.549
-23.925
-28.851
-34.182
-39.643
-44.845
-49.487
-53.372
-56.262
-57.866
-58.02
-56.795
-54.565
-52.027
-49.794
-48.117
-47.227
-47.528
-49.213
-52.161
-55.531
-57.525
-56.529
-51.569
-42.486
-30.138
-15.067
2.544
22.939
48.044
79.297
116.964
160.542
205.784
246.492
276.802
289.723
279.819
244.933
184.835
102.769
5.365
-101.747
-214.806
-330.907
-448.288
-561.763
-661.72
-738.015
-781.911
-791.256
-770.423
-726.466
-667.783
-599.507
-524.806
-447.777
-372.166
-303.13
-244.842
-198.038
-161.541
-132.365
-108.317
-88.869
-74.316
-65.579
-61.833
-61.046
-61.098
-59.715
-56.011
-50.257
-42.807
-34.274
-25.471
-17.045
-9.767
-4.444
-1.274
-0.077
-0.545
-2.186
-4.508
-7.095
-9.449
-11.064
-11.699
-11.283
-9.85
-7.552
-4.5
-0.782
3.468
8.104
13
18.042
23.14
28.226
33.212
38.007
42.522
46.671
50.408
53.718
56.607
59.101
61.231
63.037
64.568
65.882
67.037
68.087
69.082
70.065
71.083
72.183
73.41
74.811
76.415
78.239
80.293
82.579
85.096
87.839
90.798
93.956
97.299
100.813
104.486
108.306
112.258
116.324
120.485
124.721
129.011
133.337
137.678
142.013
146.322
150.582
154.774
158.876
162.868
166.727
170.43
173.954
177.276
180.377
183.236
185.831
188.147
190.165
191.872
193.255
194.301
195.002
195.348
195.335
194.957
194.212
193.099
191.62
189.776
187.574
185.019
182.12
178.887
175.332
171.467
167.309
162.872
158.175
153.236
148.074
142.711
137.167
131.466
125.628
119.678
113.637
107.53
101.379
95.207
89.035
82.886
76.781
70.739
64.78
58.922
53.182
47.577
42.122
36.831
31.717
26.79
22.062
17.541
13.234
9.147
5.286
1.653
-1.749
-4.921
-7.862
-10.574
-13.061
-15.327
-17.376
-19.216
-20.853
-22.295
-23.551
-24.63
-25.541
-26.296
-26.904
-27.376
-27.722
-27.953
-28.081
-28.115
-28.066
-27.944
-27.758
-27.518
-27.233
-26.912
-26.561
-26.189
-25.802
-25.406
-25.008
-24.611
-24.22
-23.839
-23.471
-23.118
-22.781
-22.463
-22.163
-21.882
-21.62
-21.376
-21.149
-20.937
-20.74
-20.554
-20.378
-20.211
-20.049
-19.891
-19.735
-19.578
-19.42
-19.258
-19.091
-18.918
-18.738
-18.55
-18.353
-18.147
-17.933
-17.71
-17.48
-17.242
-16.999
-16.752
-16.503
-16.254
-16.006
-15.763
-15.528
-15.302
-15.089
-14.892
-14.714
-14.558
-14.428
-14.326
-14.255
-14.219
-14.218
-14.256
-14.334
-14.454
-14.615
-14.82
-15.067
-15.357
-15.69
-16.063
-16.476
-16.927
-17.414
-17.934
-18.485
-19.063
-19.665
-20.286
-20.922
-21.568
-22.22
-22.872
-23.519
-24.156
-24.776
-25.373
-25.941
-26.474
-26.966
-27.411
-27.804
-28.137
-28.408
-28.612
-28.745
-28.805
-28.79
-28.698
-28.531
-28.287
-27.967
-27.573
-27.106
-26.567
-25.961
-25.288
-24.553
-23.759
-22.912
-22.018
-21.083
-20.114
-19.116
-18.096
-17.062
-16.02
-14.98
-13.946
-12.925
-11.925
-10.952
-10.019
-9.133
-8.296
-7.508
-6.765
-6.065
-5.403
-4.771
-4.152
-3.532
-2.898
-2.238
-1.546
-0.819
-0.049
0.778
1.674
2.647
3.692
4.796
5.944
7.121
8.307
9.465
10.54
11.476
12.217
12.715
12.935
12.834
12.375
11.525
10.248
8.512
6.293
3.583
0.372
-3.315
-7.468
-12.084
-17.042
-22.149
-27.137
-31.622
-35.284
-37.939
-39.324
-39.117
-37.309
-34.05
-29.746
-25.301
-21.321
-18.023
-15.889
-15.345
-16.306
-18.613
-21.188
-21.708
-18.685
-11.079
1.342
17.032
34.969
54.551
76.64
104.091
138.625
180.86
227.807
272.306
307.47
326.015
322.037
293.783
240.877
165.507
73.625
-29.771
-140.895
-256.022
-373.319
-488.094
-591.006
-672.701
-724.444
-742.056
-728.543
-689.585
-632.279
-563.35
-487.289
-408.846
-332.937
-264.143
-205.972
-159.35
-122.887
-93.549
-69.213
-49.079
-33.348
-23.243
-18.22
-16.42
-15.79
-13.933
-9.851
-3.824
3.754
12.288
21.022
29.368
36.599
41.88
44.973
46.048
45.397
43.506
40.861
37.869
35.034
32.887
31.692
31.54
32.413
34.169
36.701
39.927
43.713
47.908
52.382
57.019
61.731
66.449
71.088
75.55
79.742
83.574
86.997
89.994
92.564
94.731
96.524
97.982
99.156
100.107
100.893
101.571
102.191
102.798
103.441
104.169
105.032
106.076
107.333
108.823
110.559
112.544
114.777
117.257
119.972
122.907
126.048
129.382
132.896
136.578
140.413
144.383
148.468
152.647
156.899
161.205
165.543
169.892
174.229
178.532
182.778
186.947
191.015
194.958
198.751
202.369
205.788
208.985
211.938
214.623
217.02
219.111
220.879
222.307
223.382
224.092
224.425
224.374
223.932
223.093
221.856
220.219
218.183
215.752
212.93
209.726
206.148
202.206
197.913
193.285
188.336
183.084
177.548
171.747
165.704
159.441
152.979
146.344
139.56
132.651
125.643
118.561
111.43
104.274
97.12
89.989
82.906
75.894
68.974
62.167
55.492
48.97
42.616
36.448
30.48
24.727
19.199
13.909
8.865
4.074
-0.456
-4.721
-8.719
-12.446
-15.904
-19.093
-22.014
-24.673
-27.074
-29.222
-31.126
-32.793
-34.233
-35.454
-36.468
-37.286
-37.918
-38.379
-38.679
-38.831
-38.848
-38.742
-38.527
-38.215
-37.817
-37.346
-36.813
-36.23
-35.607
-34.954
-34.281
-33.597
-32.909
-32.226
-31.555
-30.901
-30.271
-29.67
-29.102
-28.57
-28.078
-27.629
-27.224
-26.864
-26.551
-26.285
-26.066
-25.894
-25.767
-25.685
-25.646
-25.649
-25.691
-25.772
-25.888
-26.037
-26.218
-26.429
-26.666
-26.929
-27.215
-27.522
-27.85
-28.197
-28.561
-28.942
-29.339
-29.751
-30.177
-30.619
-31.074
-31.544
-32.028
-32.526
-33.039
-33.567
-34.11
-34.669
-35.242
-35.831
-36.435
-37.054
-37.687
-38.334
-38.994
-39.667
-40.351
-41.046
-41.75
-42.461
-43.179
-43.9
-44.624
-45.346
-46.064
-46.775
-47.476
-48.162
-48.831
-49.478
-50.099
-50.69
-51.246
-51.762
-52.234
-52.657
-53.026
-53.338
-53.589
-53.775
-53.893
-53.942
-53.918
-53.822
-53.654
-53.414
-53.102
-52.719
-52.267
-51.747
-51.162
-50.516
-49.809
-49.045
-48.231
-47.369
-46.468
-45.533
-44.571
-43.587
-42.591
-41.587
-40.585
-39.593
-38.617
-37.664
-36.74
-35.855
-35.021
-34.244
-33.528
-32.872
-32.275
-31.733
-31.244
-30.798
-30.383
-29.984
-29.589
-29.19
-28.782
-28.361
-27.92
-27.449
-26.932
-26.363
-25.746
-25.092
-24.416
-23.73
-23.054
-22.423
-21.887
-21.499
-21.311
-21.364
-21.692
-22.333
-23.319
-24.685
-26.462
-28.684
-31.374
-34.539
-38.183
-42.283
-46.823
-51.804
-57.116
-62.577
-67.931
-72.831
-76.987
-80.228
-82.309
-82.909
-81.986
-79.669
-76.342
-72.805
-69.578
-66.902
-65.261
-65.087
-66.435
-68.915
-71.197
-71.412
-68.286
-61.58
-52.039
-40.276
-26.49
-10.053
11.45
39.742
75.439
118.421
164.605
208.08
242.931
261.324
257.322
227.974
172.387
95
3.32
-96.242
-199.012
-303.79
-410.838
-516.393
-612.543
-689.18
-736.982
-753.168
-741.04
-706.442
-656.575
-596.637
-530.047
-461.601
-395.735
-335.804
-284.301
-240.545
-202.389
-168.909
-139.763
-115.702
-98.255
-87.468
-81.925
-79.63
-78.089
-75.412
-70.983
-64.832
-57.271
-48.704
-39.647
-30.683
-22.581
-16.227
-11.973
-9.74
-9.292
-10.195
-12.014
-14.377
-16.792
-18.718
-19.836
-20.01
-19.226
-17.604
-15.243
-12.207
-8.607
-4.576
-0.23
4.319
8.985
13.705
18.41
23.014
27.435
31.589
35.405
38.848
41.909
44.597
46.937
48.96
50.7
52.207
53.536
54.741
55.875
56.985
58.112
59.298
60.589
62.027
63.655
65.496
67.562
69.861
72.395
75.165
78.172
81.409
84.858
88.501
92.317
96.281
100.372
104.565
108.825
113.125
117.442
121.758
126.069
130.37
134.649
138.886
143.056
147.132
151.101
154.951
158.673
162.266
165.729
169.062
172.285
175.403
178.402
181.256
183.916
186.321
188.432
190.217
191.656
192.735
193.431
193.717
193.578
192.987
191.918
190.339
188.197
185.459
182.12
178.199
173.745
168.829
163.503
157.814
151.806
145.515
138.982
132.253
125.355
118.326
111.211
104.061
96.949
89.94
83.07
76.363
69.819
63.419
57.159
51.039
45.054
39.208
33.507
27.955
22.571
17.373
12.37
7.563
2.942
-1.504
-5.773
-9.858
-13.747
-17.419
-20.862
-24.064
-27.014
-29.703
-32.13
-34.296
-36.211
-37.888
-39.336
-40.563
-41.577
-42.384
-42.992
-43.412
-43.657
-43.74
-43.675
-43.474
-43.154
-42.728
-42.209
-41.609
-40.938
-40.205
-39.417
-38.585
-37.717
-36.821
-35.905
-34.978
-34.047
-33.121
-32.205
-31.305
-30.426
-29.573
-28.749
-27.956
-27.197
-26.473
-25.785
-25.134
-24.519
-23.94
-23.397
-22.887
-22.409
-21.962
-21.543
-21.15
-20.781
-20.432
-20.103
-19.789
-19.49
-19.202
-18.925
-18.655
-18.392
-18.133
-17.877
-17.624
-17.372
-17.119
-16.866
-16.612
-16.356
-16.101
-15.845
-15.59
-15.337
-15.088
-14.844
-14.608
-14.382
-14.168
-13.97
-13.788
-13.627
-13.488
-13.375
-13.289
-13.233
-13.208
-13.217
-13.261
-13.341
-13.458
-13.612
-13.805
-14.037
-14.306
-14.614
-14.958
-15.337
-15.75
-16.194
-16.666
-17.165
-17.685
-18.225
-18.779
-19.342
-19.911
-20.479
-21.042
-21.592
-22.125
-22.634
-23.113
-23.556
-23.957
-24.312
-24.615
-24.863
-25.052
-25.179
-25.243
-25.242
-25.173
-25.035
-24.829
-24.554
-24.209
-23.796
-23.315
-22.769
-22.161
-21.496
-20.778
-20.012
-19.203
-18.357
-17.48
-16.58
-15.663
-14.735
-13.801
-12.868
-11.946
-11.047
-10.177
-9.339
-8.534
-7.762
-7.019
-6.302
-5.603
-4.907
-4.203
-3.478
-2.726
-1.945
-1.131
-0.28
0.616
1.568
2.578
3.638
4.738
5.864
6.996
8.114
9.182
10.14
10.939
11.532
11.868
11.918
11.642
11.003
9.981
8.543
6.666
4.336
1.534
-1.747
-5.484
-9.668
-14.284
-19.236
-24.363
-29.425
-34.073
-38.014
-41.031
-42.892
-43.322
-42.177
-39.563
-35.865
-31.774
-27.942
-24.7
-22.383
-21.503
-22.37
-24.933
-28.273
-30.518
-30.042
-25.724
-17.653
-6.993
6.233
22.081
41.658
68.072
101.801
142.456
188.485
233.826
273.085
300.319
307.957
291.35
247.759
178.653
90.563
-8.456
-111.463
-216.16
-322.852
-431.023
-536.419
-629.081
-697.935
-735.106
-739.254
-715.365
-670.815
-613.012
-546.174
-472.943
-396.931
-322.12
-254.213
-197.699
-153.666
-120.879
-95.668
-75.264
-58.865
-46.667
-39.519
-36.583
-35.67
-34.53
-31.363
-25.739
-18.08
-8.914
1.039
10.935
19.884
26.916
31.55
33.875
34.193
32.976
30.704
27.821
24.863
22.415
20.847
20.295
20.767
22.143
24.316
27.22
30.742
34.747
39.113
43.725
48.494
53.348
58.207
62.973
67.554
71.857
75.805
79.357
82.498
85.235
87.594
89.605
91.307
92.746
93.979
95.063
96.049
96.985
97.914
98.882
99.935
101.118
102.476
104.034
105.809
107.809
110.035
112.485
115.155
118.032
121.1
124.345
127.751
131.307
135
138.815
142.734
146.736
150.803
154.914
159.05
163.192
167.318
171.408
175.44
179.396
183.255
186.996
190.598
194.038
197.295
200.348
203.176
205.759
208.08
210.121
211.866
213.302
214.417
215.2
215.643
215.738
215.48
214.867
213.895
212.566
210.881
208.843
206.459
203.734
200.679
197.304
193.62
189.641
185.383
180.86
176.092
171.096
165.892
160.501
154.942
149.239
143.412
137.486
131.482
125.422
119.33
113.228
107.138
101.08
95.075
89.144
83.304
77.575
71.973
66.513
61.212
56.082
51.136
46.386
41.841
37.51
33.401
29.519
25.868
22.453
19.276
16.336
13.635
11.169
8.936
6.932
5.152
3.59
2.239
1.091
0.138
-0.63
-1.222
-1.649
-1.921
-2.048
-2.043
-1.916
-1.679
-1.343
-0.918
-0.416
0.152
0.777
1.447
2.155
2.889
3.643
4.407
5.174
5.937
6.689
7.426
8.141
8.83
9.489
10.114
10.703
11.254
11.764
12.233
12.66
13.045
13.388
13.689
13.951
14.173
14.358
14.507
14.622
14.706
14.761
14.789
14.792
14.773
14.733
14.676
14.603
14.516
14.417
14.308
14.19
14.064
13.932
13.795
13.653
13.506
13.355
13.2
13.04
12.875
12.704
12.525
12.339
12.143
11.936
11.717
11.482
11.231
10.961
10.671
10.357
10.019
9.654
9.26
8.837
8.381
7.893
7.371
6.814
6.222
5.596
4.934
4.236
3.505
2.739
1.94
1.111
0.251
-0.636
-1.549
-2.484
-3.439
-4.409
-5.392
-6.384
-7.379
-8.374
-9.364
-10.344
-11.308
-12.252
-13.169
-14.055
-14.905
-15.712
-16.474
-17.186
-17.843
-18.444
-18.985
-19.466
-19.885
-20.24
-20.532
-20.76
-20.925
-21.028
-21.068
-21.047
-20.966
-20.828
-20.636
-20.395
-20.107
-19.778
-19.412
-19.014
-18.591
-18.147
-17.69
-17.222
-16.748
-16.272
-15.802
-15.347
-14.912
-14.498
-14.104
-13.726
-13.363
-13.011
-12.658
-12.29
-11.889
-11.439
-10.932
-10.363
-9.729
-9.023
-8.233
-7.345
-6.356
-5.272
-4.106
-2.873
-1.583
-0.256
1.067
2.326
3.458
4.396
5.097
5.525
5.638
5.405
4.774
3.695
2.131
0.052
-2.552
-5.671
-9.319
-13.522
-18.205
-23.201
-28.257
-33.008
-37.172
-40.567
-42.961
-44.067
-43.709
-41.938
-39.091
-35.821
-32.727
-30.059
-28.057
-27.16
-27.621
-29.407
-31.758
-32.88
-31.101
-25.435
-15.821
-3.446
10.733
26.363
43.951
66.223
95.545
132.881
177.856
225.404
268.692
301.258
315.228
305.42
269.436
206.665
121.845
22.373
-85.408
-196.655
-309.892
-424.834
-537.232
-638.712
-718.81
-768.484
-785.164
-772.852
-738.702
-689.9
-630.732
-562.689
-487.835
-410.146
-335.573
-270.997
-220.283
-183.426
-157.542
-138.101
-122.223
-109.204
-99.543
-93.861
-91.338
-90.107
-88.168
-84.16
-77.98
-70.119
-61.147
-51.878
-43.018
-35.276
-29.477
-25.903
-24.388
-24.626
-26.137
-28.447
-31.158
-33.788
-35.822
-36.963
-37.101
-36.248
-34.533
-32.066
-28.926
-25.232
-21.118
-16.707
-12.113
-7.431
-2.73
1.916
6.417
10.693
14.661
18.25
21.428
24.189
26.546
28.525
30.159
31.487
32.557
33.428
34.154
34.787
35.377
35.966
36.599
37.323
38.183
39.221
40.463
41.925
43.614
45.532
47.676
50.042
52.623
55.408
58.387
61.547
64.871
68.341
71.933
75.621
79.378
83.171
86.974
90.768
94.534
98.268
101.962
105.603
109.172
112.644
115.99
119.197
122.252
125.144
127.879
130.455
132.875
135.156
137.3
139.29
141.107
142.707
144.04
145.083
145.815
146.23
146.331
146.107
145.538
144.609
143.28
141.512
139.27
136.502
133.181
129.314
124.913
120.02
114.698
108.978
102.887
96.45
89.666
82.553
75.151
67.501
59.675
51.765
43.851
36.027
28.369
20.919
13.72
6.793
0.134
-6.236
-12.29
-17.999
-23.302
-28.154
-32.54
-36.451
-39.911
-42.973
-45.674
-48.058
-50.167
-52.021
-53.639
-55.036
-56.206
-57.154
-57.897
-58.457
-58.883
-59.219
-59.484
-59.693
-59.841
-59.903
-59.866
-59.721
-59.452
-59.058
-58.541
-57.906
-57.171
-56.356
-55.472
-54.526
-53.512
-52.426
-51.272
-50.062
-48.813
-47.548
-46.287
-45.048
-43.85
-42.709
-41.635
-40.636
-39.713
-38.863
-38.085
-37.381
-36.753
-36.204
-35.735
-35.342
-35.023
-34.773
-34.585
-34.455
-34.373
-34.333
-34.329
-34.355
-34.406
-34.48
-34.573
-34.68
-34.797
-34.919
-35.042
-35.161
-35.271
-35.366
-35.444
-35.5
-35.531
-35.535
-35.508
-35.45
-35.357
-35.23
-35.066
-34.866
-34.629
-34.356
-34.047
-33.703
-33.326
-32.917
-32.477
-32.01
-31.517
-31.001
-30.464
-29.91
-29.341
-28.76
-28.171
-27.576
-26.979
-26.382
-25.789
-25.203
-24.626
-24.063
-23.517
-22.989
-22.483
-22.002
-21.547
-21.12
-20.723
-20.357
-20.023
-19.721
-19.453
-19.217
-19.014
-18.843
-18.705
-18.598
-18.521
-18.472
-18.45
-18.454
-18.479
-18.525
-18.589
-18.666
-18.755
-18.851
-18.951
-19.052
-19.149
-19.238
-19.315
-19.375
-19.415
-19.429
-19.415
-19.367
-19.283
-19.16
-18.994
-18.786
-18.532
-18.232
-17.888
-17.497
-17.06
-16.579
-16.054
-15.486
-14.876
-14.227
-13.539
-12.815
-12.059
-11.275
-10.466
-9.637
-8.791
-7.934
-7.07
-6.206
-5.347
-4.494
-3.651
-2.822
-2.013
-1.23
-0.48
0.24
0.931
1.595
2.236
2.859
3.473
4.097
4.745
5.434
6.172
6.964
7.813
8.727
9.714
10.785
11.942
13.177
14.477
15.835
17.237
18.661
20.068
21.399
22.592
23.587
24.338
24.801
24.94
24.723
24.11
23.062
21.546
19.536
17.019
13.996
10.46
6.391
1.864
-2.948
-7.786
-12.291
-16.162
-19.196
-21.164
-21.777
-20.901
-18.647
-15.395
-11.839
-8.594
-5.919
-4.101
-3.608
-4.659
-7.148
-10.234
-12.119
-11.23
-6.589
2.009
13.705
27.976
44.556
63.642
87.372
117.285
153.816
196.646
241.124
280.823
309.517
319.249
304.522
263.335
196.107
108.241
7.458
-100.143
-210.859
-323.399
-436.339
-544.37
-637.777
-705.942
-741.681
-744.516
-720.476
-677.882
-623.537
-560.862
-490.515
-414.03
-335.521
-261.127
-197.626
-148.651
-113.695
-89.539
-71.755
-57.709
-46.939
-39.633
-35.86
-34.342
-32.934
-30.114
-25.077
-17.855
-9.024
0.746
10.584
19.504
26.53
31.179
33.506
33.803
32.553
30.239
27.3
24.288
21.802
20.218
19.683
20.205
21.653
23.91
26.903
30.512
34.588
39.004
43.638
48.393
53.199
57.97
62.605
67.013
71.1
74.79
78.046
80.852
83.221
85.181
86.766
88.017
88.985
89.729
90.308
90.776
91.186
91.583
92.014
92.529
93.176
94
95.028
96.279
97.761
99.479
101.432
103.617
106.024
108.639
111.448
114.44
117.604
120.929
124.401
128.003
131.717
135.525
139.406
143.344
147.318
151.308
155.293
159.252
163.165
167.011
170.769
174.416
177.927
181.281
184.455
187.426
190.174
192.678
194.919
196.879
198.543
199.896
200.926
201.621
201.973
201.972
201.614
200.895
199.812
198.365
196.554
194.383
191.858
188.985
185.772
182.231
178.372
174.21
169.759
165.037
160.06
154.847
149.418
143.794
137.996
132.047
125.969
119.784
113.517
107.191
100.827
94.45
88.081
81.742
75.454
69.237
63.112
57.095
51.206
45.461
39.876
34.465
29.241
24.217
19.403
14.809
10.442
6.31
2.418
-1.23
-4.631
-7.784
-10.688
-13.344
-15.754
-17.922
-19.853
-21.55
-23.022
-24.275
-25.316
-26.155
-26.801
-27.263
-27.552
-27.677
-27.65
-27.481
-27.181
-26.762
-26.233
-25.606
-24.891
-24.098
-23.238
-22.321
-21.355
-20.35
-19.315
-18.256
-17.183
-16.103
-15.021
-13.945
-12.879
-11.83
-10.802
-9.799
-8.824
-7.882
-6.975
-6.105
-5.275
-4.485
-3.737
-3.032
-2.37
-1.752
-1.177
-0.646
-0.157
0.289
0.694
1.058
1.383
1.669
1.917
2.129
2.306
2.449
2.559
2.637
2.685
2.703
2.693
2.656
2.593
2.504
2.391
2.255
2.097
1.918
1.718
1.498
1.259
1.003
0.728
0.437
0.128
-0.196
-0.536
-0.893
-1.264
-1.651
-2.053
-2.47
-2.903
-3.351
-3.815
-4.295
-4.791
-5.304
-5.833
-6.378
-6.94
-7.518
-8.112
-8.721
-9.345
-9.983
-10.633
-11.296
-11.97
-12.654
-13.348
-14.049
-14.756
-15.467
-16.182
-16.897
-17.61
-18.32
-19.022
-19.716
-20.397
-21.064
-21.711
-22.336
-22.935
-23.504
-24.039
-24.534
-24.987
-25.391
-25.745
-26.042
-26.282
-26.459
-26.572
-26.619
-26.6
-26.514
-26.36
-26.138
-25.848
-25.491
-25.067
-24.577
-24.021
-23.402
-22.723
-21.986
-21.199
-20.365
-19.489
-18.578
-17.637
-16.673
-15.691
-14.697
-13.696
-12.694
-11.7
-10.723
-9.775
-8.864
-7.994
-7.164
-6.376
-5.621
-4.896
-4.187
-3.48
-2.763
-2.028
-1.271
-0.491
0.316
1.158
2.043
2.981
3.98
5.034
6.137
7.28
8.439
9.582
10.675
11.667
12.514
13.188
13.657
13.894
13.873
13.558
12.916
11.922
10.558
8.814
6.678
4.133
1.186
-2.143
-5.807
-9.755
-13.982
-18.412
-22.899
-27.216
-31.019
-34.006
-36
-36.762
-35.99
-33.67
-29.959
-25.28
-20.549
-16.416
-13.153
-11.293
-11.3
-13.115
-16.589
-20.581
-22.728
-21.624
-16.263
-6.272
7.052
23.341
42.576
65.058
92.786
126.224
164.914
207.023
247.216
280.493
300.735
300.829
276.58
225.131
148.54
54.447
-48.949
-154.088
-259.008
-364.666
-467.521
-568.987
-669.222
-742.547
-764.289
-750.67
-724.662
-684.024
-626.963
-560.295
-486.49
-407.318
-328.407
-256.759
-198.07
-154.777
-124.491
-102.259
-84.496
-69.392
-57.728
-51.18
-48.979
-49.077
-49.079
-46.919
-42.294
-35.795
-27.829
-19.05
-10.281
-2.348
3.732
7.435
8.912
8.515
6.705
3.956
0.693
-2.565
-5.217
-6.889
-7.46
-6.941
-5.473
-3.182
-0.142
3.525
7.668
12.156
16.863
21.687
26.557
31.391
36.091
40.569
44.733
48.51
51.866
54.791
57.3
59.419
61.181
62.625
63.801
64.767
65.579
66.292
66.953
67.604
68.292
69.062
69.957
71.019
72.271
73.728
75.397
77.278
79.371
81.671
84.168
86.846
89.692
92.696
95.845
99.129
102.535
106.046
109.645
113.315
117.039
120.8
124.58
128.361
132.125
135.852
139.524
143.124
146.631
150.024
153.284
156.389
159.32
162.055
164.578
166.868
168.91
170.687
172.186
173.393
174.298
174.89
175.16
175.103
174.711
173.983
172.915
171.507
169.76
167.677
165.262
162.522
159.464
156.097
152.432
148.481
144.258
139.778
135.055
130.109
124.956
119.615
114.107
108.451
102.669
96.781
90.81
84.776
78.701
72.606
66.513
60.441
54.411
48.443
42.555
36.764
31.089
25.546
20.15
14.915
9.854
4.98
0.304
-4.165
-8.419
-12.449
-16.251
-19.82
-23.152
-26.245
-29.1
-31.716
-34.096
-36.241
-38.157
-39.848
-41.321
-42.582
-43.639
-44.5
-45.175
-45.674
-46.006
-46.183
-46.214
-46.112
-45.887
-45.55
-45.114
-44.589
-43.986
-43.316
-42.59
-41.818
-41.01
-40.176
-39.324
-38.464
-37.602
-36.747
-35.905
-35.083
-34.285
-33.517
-32.783
-32.087
-31.432
-30.82
-30.253
-29.732
-29.258
-28.831
-28.451
-28.118
-27.83
-27.586
-27.384
-27.222
-27.098
-27.01
-26.954
-26.929
-26.93
-26.956
-27.002
-27.067
-27.147
-27.239
-27.34
-27.448
-27.56
-27.673
-27.785
-27.895
-28
-28.098
-28.188
-28.269
-28.339
-28.398
-28.446
-28.481
-28.504
-28.514
-28.512
-28.497
-28.471
-28.434
-28.386
-28.329
-28.263
-28.191
-28.112
-28.029
-27.942
-27.854
-27.766
-27.68
-27.597
-27.518
-27.446
-27.382
-27.328
-27.284
-27.253
-27.236
-27.233
-27.245
-27.273
-27.318
-27.379
-27.455
-27.548
-27.656
-27.779
-27.915
-28.065
-28.226
-28.398
-28.579
-28.767
-28.96
-29.157
-29.355
-29.551
-29.743
-29.928
-30.102
-30.264
-30.409
-30.534
-30.636
-30.712
-30.757
-30.769
-30.743
-30.676
-30.567
-30.411
-30.208
-29.955
-29.652
-29.298
-28.894
-28.442
-27.941
-27.392
-26.799
-26.162
-25.485
-24.769
-24.017
-23.232
-22.417
-21.579
-20.721
-19.849
-18.967
-18.082
-17.197
-16.321
-15.458
-14.616
-13.795
-13.002
-12.24
-11.515
-10.835
-10.205
-9.623
-9.087
-8.596
-8.146
-7.733
-7.346
-6.971
-6.591
-6.191
-5.763
-5.304
-4.808
-4.267
-3.672
-3.011
-2.281
-1.489
-0.642
0.253
1.186
2.144
3.096
3.991
4.779
5.405
5.827
6.012
5.925
5.538
4.814
3.706
2.184
0.219
-2.212
-5.112
-8.508
-12.446
-16.878
-21.657
-26.551
-31.213
-35.335
-38.727
-41.156
-42.328
-42.094
-40.531
-37.995
-35.181
-32.761
-31.047
-30.239
-30.697
-32.593
-35.729
-39.574
-42.598
-42.774
-38.989
-30.299
-16.562
0.691
20.763
43.009
67.319
96.051
130.128
169.355
212.068
252.49
285.344
305.175
305.246
282.158
233.569
159.614
66.646
-38.746
-150.601
-264.35
-378.562
-487.552
-589.988
-687.297
-756.02
-773.169
-756.541
-728.468
-685.988
-626.913
-557.289
-479.956
-397.38
-315.79
-242.791
-183.82
-140.889
-111.45
-90.359
-73.923
-60.291
-49.899
-44.019
-41.986
-41.903
-41.455
-38.736
-33.456
-26.173
-17.46
-8.154
0.961
9.102
15.297
19.128
20.734
20.435
18.736
16.152
13.12
10.178
7.923
6.681
6.558
7.539
9.466
12.216
15.71
19.806
24.348
29.2
34.232
39.347
44.475
49.521
54.379
58.95
63.133
66.872
70.148
72.959
75.329
77.289
78.872
80.131
81.126
81.915
82.556
83.101
83.597
84.095
84.649
85.307
86.123
87.129
88.346
89.787
91.456
93.355
95.481
97.827
100.376
103.119
106.042
109.136
112.392
115.797
119.333
122.985
126.734
130.561
134.449
138.38
142.334
146.292
150.234
154.139
157.99
161.763
165.438
168.99
172.397
175.636
178.685
181.522
184.126
186.477
188.557
190.349
191.838
193.01
193.854
194.357
194.512
194.311
193.748
192.822
191.528
189.868
187.844
185.458
182.718
179.63
176.203
172.449
168.379
164.009
159.353
154.429
149.255
143.849
138.233
132.428
126.455
120.338
114.099
107.762
101.35
94.888
88.399
81.904
75.428
68.992
62.617
56.323
50.132
44.06
38.126
32.347
26.739
21.314
16.088
11.071
6.274
1.705
-2.627
-6.717
-10.56
-14.152
-17.492
-20.579
-23.413
-25.998
-28.335
-30.431
-32.29
-33.92
-35.328
-36.522
-37.513
-38.311
-38.925
-39.368
-39.65
-39.785
-39.783
-39.656
-39.418
-39.08
-38.654
-38.152
-37.586
-36.966
-36.304
-35.61
-34.893
-34.163
-33.43
-32.7
-31.981
-31.281
-30.605
-29.959
-29.348
-28.776
-28.246
-27.761
-27.323
-26.934
-26.594
-26.303
-26.062
-25.868
-25.721
-25.62
-25.561
-25.543
-25.562
-25.615
-25.7
-25.813
-25.95
-26.108
-26.283
-26.471
-26.669
-26.874
-27.081
-27.287
-27.49
-27.685
-27.871
-28.044
-28.203
-28.344
-28.467
-28.568
-28.648
-28.705
-28.737
-28.745
-28.728
-28.687
-28.62
-28.53
-28.417
-28.282
-28.127
-27.953
-27.762
-27.555
-27.336
-27.105
-26.867
-26.622
-26.375
-26.126
-25.879
-25.637
-25.402
-25.177
-24.963
-24.763
-24.579
-24.412
-24.264
-24.136
-24.028
-23.941
-23.876
-23.832
-23.81
-23.809
-23.829
-23.867
-23.924
-23.996
-24.083
-24.181
-24.287
-24.4
-24.515
-24.628
-24.737
-24.836
-24.922
-24.99
-25.035
-25.053
-25.038
-24.986
-24.892
-24.752
-24.562
-24.319
-24.018
-23.659
-23.24
-22.76
-22.218
-21.615
-20.95
-20.225
-19.441
-18.599
-17.702
-16.751
-15.748
-14.699
-13.607
-12.479
-11.32
-10.136
-8.934
-7.719
-6.5
-5.284
-4.079
-2.89
-1.725
-0.59
0.507
1.554
2.545
3.476
4.349
5.163
5.924
6.634
7.302
7.943
8.569
9.193
9.826
10.469
11.128
11.809
12.52
13.276
14.082
14.929
15.811
16.712
17.613
18.5
19.343
20.086
20.681
21.083
21.24
21.128
20.711
19.95
18.823
17.29
15.317
12.893
9.998
6.626
2.804
-1.468
-6.194
-11.27
-16.532
-21.737
-26.533
-30.649
-33.905
-36.065
-36.85
-36.131
-34.009
-30.878
-27.433
-24.272
-21.652
-19.845
-19.299
-20.245
-22.582
-25.43
-26.956
-25.565
-20.282
-11.038
1.086
15.476
31.852
50.549
74.039
104.043
141.1
184.904
230.522
271.224
300.444
309.999
294.676
253.081
186.442
100.816
3.906
-98.726
-204.031
-311.249
-419.234
-522.626
-612.172
-678.122
-713.375
-717.467
-695.323
-653.194
-597.881
-533.902
-464.225
-393.72
-326.799
-266.677
-215.738
-172.981
-135.988
-103.881
-76.366
-54.121
-38.561
-29.423
-24.957
-23.119
-21.604
-18.764
-14.176
-7.956
-0.378
8.111
16.881
25.322
32.707
38.293
41.89
43.648
43.83
42.886
41.271
39.371
37.66
36.616
36.464
37.276
39.024
41.561
44.784
48.606
52.897
57.516
62.34
67.257
72.179
77.042
81.76
86.244
90.409
94.173
97.492
100.353
102.761
104.742
106.327
107.554
108.471
109.136
109.606
109.936
110.178
110.379
110.587
110.851
111.22
111.74
112.444
113.353
114.475
115.817
117.381
119.169
121.18
123.407
125.836
128.456
131.249
134.195
137.273
140.46
143.723
147.037
150.382
153.743
157.117
160.501
163.882
167.244
170.562
173.811
176.977
180.048
183.012
185.87
188.618
191.258
193.806
196.267
198.626
200.858
202.911
204.727
206.264
207.491
208.386
208.934
209.111
208.889
208.253
207.174
205.625
203.575
200.971
197.779
193.995
189.636
184.75
179.408
173.66
167.551
161.126
154.42
147.474
140.331
133.02
125.579
118.052
110.489
102.964
95.54
88.253
81.127
74.162
67.34
60.659
54.119
47.714
41.451
35.334
29.369
23.575
17.97
12.563
7.353
2.333
-2.509
-7.171
-11.648
-15.926
-19.987
-23.818
-27.409
-30.747
-33.828
-36.649
-39.212
-41.526
-43.605
-45.459
-47.096
-48.523
-49.746
-50.773
-51.618
-52.289
-52.801
-53.167
-53.4
-53.514
-53.523
-53.44
-53.275
-53.038
-52.735
-52.376
-51.968
-51.52
-51.037
-50.529
-50.001
-49.46
-48.913
-48.366
-47.824
-47.291
-46.77
-46.265
-45.777
-45.309
-44.862
-44.437
-44.034
-43.654
-43.298
-42.964
-42.653
-42.363
-42.094
-41.846
-41.617
-41.406
-41.211
-41.033
-40.869
-40.72
-40.584
-40.461
-40.351
-40.254
-40.169
-40.098
-40.04
-39.995
-39.963
-39.945
-39.941
-39.953
-39.98
-40.023
-40.084
-40.163
-40.262
-40.382
-40.524
-40.688
-40.875
-41.085
-41.32
-41.578
-41.86
-42.166
-42.495
-42.847
-43.22
-43.613
-44.025
-44.455
-44.9
-45.359
-45.827
-46.304
-46.785
-47.268
-47.748
-48.222
-48.687
-49.138
-49.571
-49.981
-50.365
-50.718
-51.034
-51.31
-51.54
-51.721
-51.847
-51.916
-51.924
-51.868
-51.745
-51.555
-51.296
-50.968
-50.572
-50.107
-49.576
-48.979
-48.319
-47.598
-46.818
-45.983
-45.095
-44.159
-43.18
-42.165
-41.119
-40.049
-38.96
-37.86
-36.754
-35.651
-34.557
-33.478
-32.421
-31.392
-30.398
-29.45
-28.556
-27.717
-26.931
-26.198
-25.513
-24.871
-24.266
-23.681
-23.103
-22.519
-21.919
-21.299
-20.653
-19.976
-19.254
-18.474
-17.63
-16.725
-15.771
-14.782
-13.773
-12.761
-11.783
-10.89
-10.134
-9.57
-9.242
-9.183
-9.433
-10.026
-10.994
-12.371
-14.19
-16.473
-19.229
-22.469
-26.17
-30.32
-34.919
-39.852
-44.938
-49.922
-54.436
-58.175
-60.962
-62.545
-62.615
-61.158
-58.307
-54.446
-50.439
-46.87
-43.955
-42.174
-41.946
-43.185
-45.748
-48.58
-49.413
-46.849
-39.918
-28.409
-13.783
3.128
21.968
43.626
70.577
104.134
144.64
189.137
231.34
265.057
282.809
278.547
249.583
194.978
118.476
27.272
-72.058
-174.396
-277.629
-381.667
-483.98
-577.77
-654.127
-704.843
-725.542
-718.364
-688.695
-641.815
-583.167
-516.235
-444.324
-373.045
-307.258
-250.557
-204.868
-168.512
-138.563
-113.359
-91.904
-74.67
-63.065
-56.578
-53.601
-52.165
-49.866
-45.674
-39.752
-32.385
-24.037
-15.313
-6.723
1.028
7.044
10.974
12.923
13.135
12.047
10.098
7.648
5.168
3.2
2.059
1.872
2.647
4.258
6.597
9.597
13.141
17.091
21.325
25.73
30.212
34.709
39.148
43.445
47.518
51.287
54.684
57.68
60.269
62.465
64.295
65.794
67.003
67.971
68.757
69.416
70
70.557
71.126
71.751
72.477
73.346
74.398
75.659
77.143
78.858
80.806
82.985
85.393
88.018
90.844
93.859
97.049
100.403
103.908
107.549
111.307
115.165
119.101
123.097
127.132
131.185
135.236
139.262
143.241
147.154
150.977
154.689
158.267
161.689
164.93
167.968
170.783
173.354
175.661
177.685
179.411
180.824
181.91
182.658
183.059
183.104
182.787
182.105
181.053
179.633
177.845
175.693
173.181
170.316
167.108
163.566
159.703
155.532
151.068
146.329
141.332
136.096
130.64
124.987
119.157
113.173
107.058
100.835
94.526
88.157
81.748
75.325
68.909
62.521
56.184
49.918
43.742
37.675
31.735
25.939
20.303
14.84
9.564
4.487
-0.38
-5.028
-9.448
-13.636
-17.584
-21.29
-24.75
-27.964
-30.932
-33.655
-36.135
-38.377
-40.385
-42.165
-43.724
-45.069
-46.209
-47.152
-47.909
-48.489
-48.903
-49.162
-49.276
-49.257
-49.116
-48.864
-48.513
-48.073
-47.555
-46.97
-46.328
-45.639
-44.913
-44.159
-43.385
-42.599
-41.81
-41.024
-40.247
-39.486
-38.746
-38.031
-37.345
-36.693
-36.077
-35.499
-34.962
-34.466
-34.013
-33.603
-33.236
-32.912
-32.63
-32.39
-32.19
-32.029
-31.905
-31.817
-31.762
-31.74
-31.747
-31.781
-31.841
-31.924
-32.027
-32.149
-32.287
-32.44
-32.605
-32.78
-32.964
-33.154
-33.351
-33.551
-33.755
-33.96
-34.167
-34.374
-34.581
-34.787
-34.993
-35.198
-35.402
-35.605
-35.808
-36.01
-36.21
-36.41
-36.609
-36.806
-37.001
-37.194
-37.385
-37.572
-37.755
-37.934
-38.108
-38.276
-38.437
-38.59
-38.734
-38.867
-38.988
-39.096
-39.187
-39.261
-39.314
-39.346
-39.353
-39.332
-39.281
-39.196
-39.075
-38.915
-38.711
-38.462
-38.165
-37.817
-37.417
-36.962
-36.453
-35.889
-35.27
-34.598
-33.873
-33.097
-32.272
-31.399
-30.483
-29.524
-28.526
-27.492
-26.425
-25.332
-24.218
-23.088
-21.948
-20.805
-19.665
-18.534
-17.42
-16.33
-15.269
-14.244
-13.261
-12.327
-11.455
-10.649
-9.913
-9.246
-8.647
-8.11
-7.633
-7.205
-6.811
-6.437
-6.068
-5.693
-5.307
-4.904
-4.472
-4.005
-3.484
-2.901
-2.262
-1.571
-0.841
-0.093
0.661
1.389
2.034
2.547
2.879
2.973
2.801
2.325
1.504
0.312
-1.291
-3.348
-5.874
-8.892
-12.417
-16.421
-20.904
-25.873
-31.214
-36.749
-42.228
-47.278
-51.602
-55.003
-57.224
-57.964
-57.094
-54.718
-51.217
-47.271
-43.516
-40.26
-37.742
-36.409
-36.49
-37.751
-39.613
-40.574
-38.656
-32.748
-21.955
-6.245
12.862
34.349
57.45
82.892
113.271
149.953
193.067
238.996
280.801
311.996
325.216
315.041
279.438
218.014
134.848
36.82
-69.894
-180.409
-292.55
-404.96
-512.962
-608.408
-681.283
-722.919
-731.362
-710.477
-667.154
-609.962
-543.917
-471.46
-395.965
-319.997
-247.858
-185.066
-133.809
-94.56
-65.804
-44.012
-27.202
-14.565
-5.845
-1.07
0.888
1.896
3.786
7.784
13.988
21.966
31.119
40.583
49.614
57.467
63.357
67.052
68.714
68.649
67.342
65.261
62.806
60.447
58.657
57.69
57.635
58.459
60.028
62.229
64.972
68.14
71.599
75.23
78.934
82.625
86.238
89.711
92.968
95.939
98.562
100.783
102.577
103.95
104.924
105.534
105.82
105.828
105.61
105.23
104.745
104.211
103.677
103.184
102.776
102.498
102.391
102.494
102.834
103.424
104.273
105.383
106.754
108.382
110.259
112.367
114.695
117.229
119.957
122.866
125.942
129.166
132.519
135.98
139.53
143.147
146.809
150.496
154.183
157.849
161.47
165.024
168.489
171.841
175.055
178.108
180.977
183.639
186.075
188.263
190.184
191.822
193.162
194.191
194.896
195.268
195.298
194.981
194.312
193.288
191.91
190.177
188.094
185.665
182.897
179.799
176.381
172.655
168.635
164.335
159.772
154.964
149.929
144.688
139.26
133.666
127.93
122.073
116.117
110.086
104.002
97.888
91.766
85.657
79.584
73.566
67.624
61.775
56.038
50.431
44.968
39.665
34.535
29.591
24.843
20.303
15.979
11.877
8.003
4.363
0.96
-2.205
-5.131
-7.818
-10.269
-12.486
-14.474
-16.237
-17.781
-19.115
-20.244
-21.179
-21.928
-22.5
-22.906
-23.157
-23.262
-23.234
-23.082
-22.818
-22.453
-21.998
-21.463
-20.858
-20.195
-19.483
-18.731
-17.949
-17.144
-16.326
-15.502
-14.679
-13.862
-13.06
-12.276
-11.515
-10.782
-10.08
-9.412
-8.782
-8.189
-7.637
-7.126
-6.657
-6.23
-5.843
-5.498
-5.193
-4.927
-4.699
-4.506
-4.349
-4.224
-4.129
-4.064
-4.026
-4.013
-4.023
-4.054
-4.104
-4.172
-4.255
-4.352
-4.462
-4.582
-4.713
-4.851
-4.998
-5.151
-5.31
-5.475
-5.645
-5.82
-6
-6.185
-6.375
-6.572
-6.774
-6.983
-7.199
-7.423
-7.655
-7.896
-8.144
-8.402
-8.669
-8.944
-9.227
-9.518
-9.817
-10.122
-10.434
-10.751
-11.073
-11.399
-11.726
-12.055
-12.382
-12.708
-13.028
-13.342
-13.648
-13.942
-14.222
-14.485
-14.728
-14.949
-15.143
-15.307
-15.438
-15.533
-15.588
-15.6
-15.566
-15.485
-15.354
-15.171
-14.937
-14.651
-14.313
-13.924
-13.484
-12.995
-12.458
-11.875
-11.248
-10.578
-9.867
-9.119
-8.338
-7.528
-6.694
-5.84
-4.972
-4.095
-3.213
-2.334
-1.463
-0.604
0.238
1.057
1.849
2.603
3.314
3.981
4.606
5.191
5.742
6.261
6.759
7.251
7.75
8.268
8.819
9.403
10.028
10.703
11.434
12.237
13.119
14.072
15.09
16.157
17.255
18.368
19.467
20.496
21.409
22.158
22.689
22.974
22.975
22.648
21.965
20.88
19.353
17.366
14.893
11.922
8.477
4.553
0.145
-4.65
-9.678
-14.705
-19.386
-23.454
-26.728
-28.967
-29.889
-29.34
-27.389
-24.394
-21.012
-17.822
-15.077
-13.039
-12.158
-12.71
-14.642
-17.145
-18.435
-16.893
-11.539
-2.322
9.647
23.665
39.475
57.558
80.538
110.373
147.691
192.091
238.615
280.575
311.723
324.232
312.814
275.319
211.47
126.028
26.392
-81.048
-191.632
-303.67
-416.296
-525.232
-622.051
-696.242
-739.269
-749.168
-730.539
-691.29
-639.037
-577.659
-507.973
-431.459
-351.681
-274.776
-208.223
-156.303
-119.123
-93.721
-75.213
-60.362
-48.34
-39.579
-34.712
-32.995
-32.604
-31.549
-28.449
-23.186
-16.231
-8.198
0.025
7.697
14.105
18.483
20.62
20.714
19.09
16.246
12.679
8.814
5.148
2.185
0.175
-0.806
-0.79
0.076
1.683
3.944
6.731
9.901
13.331
16.908
20.545
24.176
27.713
31.065
34.143
36.861
39.171
41.058
42.525
43.599
44.313
44.704
44.823
44.728
44.48
44.135
43.747
43.362
43.03
42.801
42.722
42.843
43.197
43.802
44.668
45.797
47.191
48.849
50.771
52.943
55.348
57.97
60.785
63.776
66.924
70.202
73.579
77.027
80.527
84.067
87.646
91.257
94.882
98.499
102.075
105.589
109.031
112.389
115.655
118.823
121.879
124.828
127.686
130.45
133.102
135.604
137.893
139.924
141.669
143.105
144.224
145.011
145.437
145.48
145.127
144.357
143.153
141.483
139.292
136.561
133.294
129.524
125.321
120.737
115.806
110.564
105.043
99.277
93.311
87.177
80.897
74.505
68.039
61.552
55.12
48.793
42.596
36.538
30.602
24.782
19.088
13.521
8.085
2.784
-2.378
-7.389
-12.223
-16.866
-21.311
-25.56
-29.629
-33.522
-37.233
-40.752
-44.059
-47.143
-49.998
-52.614
-54.983
-57.101
-58.967
-60.588
-61.979
-63.152
-64.113
-64.871
-65.431
-65.8
-65.991
-66.013
-65.88
-65.604
-65.198
-64.674
-64.048
-63.334
-62.541
-61.681
-60.761
-59.79
-58.777
-57.73
-56.656
-55.564
-54.459
-53.349
-52.242
-51.142
-50.055
-48.984
-47.934
-46.907
-45.905
-44.93
-43.983
-43.064
-42.173
-41.31
-40.475
-39.666
-38.883
-38.125
-37.389
-36.674
-35.978
-35.299
-34.635
-33.986
-33.348
-32.72
-32.102
-31.492
-30.889
-30.293
-29.702
-29.118
-28.54
-27.968
-27.402
-26.842
-26.289
-25.744
-25.209
-24.684
-24.172
-23.674
-23.192
-22.729
-22.287
-21.867
-21.473
-21.106
-20.77
-20.466
-20.196
-19.964
-19.771
-19.619
-19.51
-19.445
-19.426
-19.453
-19.527
-19.647
-19.814
-20.027
-20.284
-20.584
-20.927
-21.309
-21.728
-22.183
-22.67
-23.186
-23.727
-24.291
-24.871
-25.466
-26.069
-26.676
-27.282
-27.883
-28.473
-29.046
-29.598
-30.122
-30.613
-31.066
-31.474
-31.832
-32.136
-32.38
-32.56
-32.672
-32.715
-32.684
-32.58
-32.402
-32.149
-31.823
-31.423
-30.952
-30.41
-29.801
-29.127
-28.39
-27.594
-26.743
-25.843
-24.9
-23.921
-22.912
-21.879
-20.83
-19.77
-18.709
-17.652
-16.606
-15.579
-14.578
-13.611
-12.69
-11.823
-11.011
-10.258
-9.56
-8.912
-8.309
-7.743
-7.197
-6.662
-6.125
-5.578
-5.017
-4.433
-3.818
-3.164
-2.454
-1.681
-0.848
0.043
0.977
1.931
2.889
3.817
4.665
5.39
5.951
6.3
6.406
6.229
5.724
4.86
3.602
1.923
-0.2
-2.792
-5.864
-9.408
-13.394
-17.79
-22.579
-27.663
-32.869
-37.938
-42.518
-46.303
-49.112
-50.698
-50.737
-49.192
-46.217
-42.217
-38.035
-34.23
-31.041
-28.965
-28.463
-29.574
-31.871
-33.977
-33.904
-30.332
-23.075
-12.924
-0.55
13.851
31.048
53.571
83.175
120.299
164.331
210.731
253.223
286.199
303.131
299.043
271.66
219.527
144.254
51.406
-53.556
-165.856
-281.16
-397.57
-511.25
-613.932
-696.959
-752.035
-774.243
-766.122
-733.266
-681.736
-618.102
-545.426
-466.008
-384.401
-304.85
-233.259
-175.29
-132.199
-102.854
-83.805
-70.138
-59.466
-51.259
-45.342
-42.019
-40.296
-38.238
-34.646
-28.973
-21.398
-12.61
-3.445
5.312
12.869
18.411
21.667
22.788
22.093
20.094
17.3
14.141
11.132
8.818
7.477
7.212
8.008
9.712
12.212
15.421
19.199
23.392
27.867
32.502
37.209
41.918
46.539
50.973
55.125
58.902
62.255
65.164
67.629
69.673
71.328
72.631
73.637
74.407
75.001
75.478
75.891
76.286
76.714
77.227
77.876
78.709
79.761
81.051
82.594
84.392
86.449
88.76
91.316
94.101
97.104
100.31
103.707
107.286
111.03
114.923
118.945
123.077
127.298
131.59
135.931
140.301
144.679
149.043
153.372
157.645
161.839
165.932
169.897
173.713
177.353
180.797
184.021
187.004
189.726
192.167
194.312
196.144
197.652
198.821
199.643
200.108
200.21
199.945
199.309
198.301
196.923
195.178
193.069
190.605
187.793
184.643
181.168
177.38
173.295
168.93
164.302
159.429
154.333
149.034
143.553
137.914
132.139
126.252
120.276
114.235
108.153
102.052
95.955
89.885
83.862
77.908
72.042
66.283
60.65
55.158
49.824
44.662
39.686
34.907
30.335
25.982
21.853
17.955
14.295
10.874
7.696
4.762
2.071
-0.379
-2.589
-4.565
-6.312
-7.835
-9.141
-10.239
-11.138
-11.845
-12.372
-12.729
-12.926
-12.974
-12.884
-12.668
-12.336
-11.899
-11.369
-10.757
-10.072
-9.325
-8.526
-7.683
-6.807
-5.906
-4.987
-4.058
-3.125
-2.195
-1.274
-0.366
0.524
1.391
2.234
3.048
3.833
4.585
5.304
5.989
6.639
7.254
7.835
8.381
8.894
9.375
9.824
10.243
10.633
10.996
11.332
11.644
11.933
12.2
12.447
12.676
12.887
13.082
13.262
13.428
13.582
13.724
13.855
13.976
14.086
14.188
14.28
14.364
14.439
14.506
14.564
14.615
14.658
14.693
14.72
14.739
14.75
14.753
14.748
14.735
14.714
14.684
14.645
14.598
14.542
14.477
14.402
14.317
14.221
14.115
13.997
13.869
13.728
13.577
13.414
13.239
13.054
12.858
12.652
12.437
12.212
11.978
11.737
11.487
11.231
10.969
10.702
10.43
10.156
9.88
9.603
9.328
9.055
8.787
8.526
8.272
8.03
7.802
7.59
7.398
7.23
7.087
6.973
6.89
6.842
6.83
6.856
6.921
7.025
7.168
7.35
7.572
7.833
8.132
8.469
8.842
9.252
9.696
10.172
10.678
11.209
11.761
12.332
12.916
13.51
14.109
14.707
15.301
15.887
16.458
17.009
17.533
18.019
18.462
18.859
19.209
19.516
19.783
20.016
20.226
20.427
20.63
20.847
21.088
21.355
21.658
22.005
22.4
22.861
23.393
23.99
24.648
25.35
26.069
26.784
27.458
28.036
28.468
28.706
28.698
28.407
27.789
26.795
25.392
23.547
21.231
18.424
15.104
11.258
6.896
2.052
-3.241
-8.955
-14.98
-21.134
-27.147
-32.636
-37.273
-40.857
-43.128
-43.774
-42.78
-40.3
-36.749
-33.037
-29.792
-27.257
-25.925
-26.233
-28.084
-31.308
-34.799
-36.234
-34.222
-27.797
-16.63
-2.09
15.293
35.383
58.523
86.804
120.677
159.415
200.817
239.107
269.336
286.565
284.589
260.399
211.849
138.63
46.357
-59.196
-173.249
-290.658
-409.505
-526.138
-631.909
-717.74
-774.68
-797.212
-787.826
-752.488
-697.888
-631.073
-555.425
-474.025
-391.96
-314.135
-246.858
-194.221
-156.006
-129.758
-110.981
-96.31
-84.822
-76.827
-72.923
-72.299
-72.962
-72.726
-70.054
-64.798
-57.518
-48.872
-39.777
-31.029
-23.398
-17.753
-14.4
-13.181
-13.78
-15.699
-18.444
-21.59
-24.635
-27.059
-28.572
-29.069
-28.568
-27.206
-25.093
-22.318
-19.007
-15.299
-11.323
-7.183
-2.966
1.26
5.424
9.44
13.227
16.71
19.826
22.543
24.856
26.778
28.335
29.566
30.512
31.223
31.76
32.177
32.527
32.859
33.212
33.631
34.159
34.838
35.705
36.787
38.097
39.643
41.426
43.444
45.693
48.162
50.835
53.698
56.738
59.942
63.299
66.793
70.406
74.121
77.918
81.777
85.681
89.609
93.54
97.454
101.331
105.149
108.889
112.529
116.048
119.422
122.63
125.651
128.462
131.046
133.381
135.451
137.239
138.731
139.914
140.776
141.308
141.501
141.349
140.847
139.992
138.784
137.221
135.308
133.047
130.444
127.506
124.243
120.664
116.782
112.61
108.163
103.456
98.506
93.332
87.952
82.387
76.656
70.78
64.781
58.681
52.501
46.263
39.989
33.7
27.416
21.158
14.945
8.797
2.733
-3.232
-9.08
-14.796
-20.365
-25.773
-31.008
-36.059
-40.916
-45.569
-50.011
-54.235
-58.236
-62.009
-65.551
-68.861
-71.938
-74.781
-77.393
-79.776
-81.933
-83.868
-85.587
-87.095
-88.4
-89.507
-90.426
-91.163
-91.727
-92.127
-92.372
-92.471
-92.433
-92.266
-91.981
-91.587
-91.091
-90.503
-89.831
-89.084
-88.269
-87.394
-86.467
-85.493
-84.481
-83.436
-82.363
-81.269
-80.158
-79.035
-77.903
-76.768
-75.631
-74.496
-73.365
-72.24
-71.125
-70.018
-68.923
-67.841
-66.771
-65.714
-64.671
-63.642
-62.628
-61.627
-60.64
-59.666
-58.706
-57.758
-56.822
-55.898
-54.985
-54.082
-53.19
-52.306
-51.43
-50.563
-49.702
-48.848
-48
-47.156
-46.317
-45.482
-44.651
-43.822
-42.996
-42.172
-41.35
-40.531
-39.713
-38.897
-38.083
-37.27
-36.46
-35.652
-34.846
-34.043
-33.243
-32.447
-31.655
-30.868
-30.086
-29.311
-28.543
-27.783
-27.032
-26.292
-25.562
-24.845
-24.142
-23.453
-22.78
-22.124
-21.487
-20.869
-20.271
-19.693
-19.137
-18.603
-18.089
-17.597
-17.126
-16.676
-16.244
-15.832
-15.437
-15.058
-14.694
-14.343
-14.003
-13.672
-13.346
-13.024
-12.702
-12.377
-12.046
-11.706
-11.353
-10.983
-10.592
-10.176
-9.731
-9.254
-8.739
-8.183
-7.582
-6.933
-6.233
-5.479
-4.67
-3.804
-2.882
-1.903
-0.869
0.219
1.359
2.549
3.787
5.07
6.393
7.754
9.149
10.572
12.017
13.478
14.948
16.42
17.888
19.343
20.78
22.19
23.564
24.897
26.183
27.414
28.583
29.678
30.692
31.623
32.471
33.239
33.93
34.549
35.103
35.607
36.076
36.524
36.962
37.393
37.825
38.265
38.727
39.224
39.765
40.346
40.956
41.581
42.209
42.822
43.386
43.846
44.151
44.247
44.087
43.637
42.854
41.701
40.143
38.143
35.668
32.696
29.214
25.213
20.714
15.728
10.26
4.429
-1.579
-7.498
-12.949
-17.618
-21.317
-23.787
-24.709
-24.056
-21.955
-18.793
-15.439
-12.466
-10.067
-8.688
-8.738
-10.166
-12.871
-15.776
-16.552
-13.821
-6.651
5.058
19.543
36.12
54.682
75.961
102.87
136.36
175.933
219.333
260.139
292.891
312.262
311.67
288.149
239.717
166.318
73.935
-31.467
-145.012
-261.588
-379.413
-494.745
-599.129
-683.752
-739.403
-760.732
-749.797
-711.804
-654.293
-584.828
-507.793
-427.648
-348.333
-273.43
-207.841
-154.005
-112.321
-81.481
-57.972
-39.503
-25.142
-14.845
-9.037
-6.753
-6.041
-4.8
-1.484
4.116
11.527
20.185
29.272
38.07
45.835
51.674
55.253
56.714
56.36
54.691
52.209
49.335
46.589
44.525
43.434
43.413
44.44
46.356
49.045
52.415
56.324
60.615
65.149
69.805
74.49
79.135
83.648
87.932
91.89
95.431
98.508
101.102
103.215
104.873
106.109
106.961
107.485
107.742
107.793
107.696
107.506
107.27
107.04
106.869
106.807
106.907
107.201
107.712
108.454
109.434
110.653
112.112
113.802
115.712
117.829
120.144
122.647
125.33
128.179
131.18
134.316
137.568
140.921
144.355
147.852
151.394
154.961
158.532
162.089
165.61
169.076
172.462
175.746
178.904
181.913
184.751
187.395
189.823
192.015
193.953
195.619
196.998
198.074
198.836
199.272
199.373
199.131
198.541
197.599
196.302
194.651
192.647
190.295
187.6
184.569
181.212
177.538
173.562
169.296
164.757
159.96
154.925
149.669
144.213
138.579
132.786
126.858
120.817
114.686
108.487
102.244
95.978
89.711
83.466
77.262
71.121
65.06
59.098
53.253
47.541
41.976
36.574
31.346
26.304
21.458
16.817
12.387
8.176
4.188
0.426
-3.107
-6.411
-9.486
-12.334
-14.957
-17.358
-19.543
-21.516
-23.285
-24.856
-26.237
-27.436
-28.461
-29.323
-30.029
-30.59
-31.014
-31.312
-31.493
-31.566
-31.54
-31.425
-31.229
-30.96
-30.628
-30.238
-29.799
-29.318
-28.8
-28.252
-27.68
-27.088
-26.481
-25.864
-25.241
-24.615
-23.989
-23.365
-22.748
-22.138
-21.539
-20.951
-20.376
-19.816
-19.272
-18.745
-18.237
-17.748
-17.28
-16.833
-16.409
-16.008
-15.632
-15.281
-14.955
-14.657
-14.386
-14.143
-13.929
-13.744
-13.589
-13.464
-13.369
-13.305
-13.271
-13.267
-13.292
-13.346
-13.428
-13.536
-13.67
-13.829
-14.009
-14.211
-14.43
-14.666
-14.914
-15.174
-15.442
-15.714
-15.987
-16.259
-16.525
-16.783
-17.027
-17.256
-17.466
-17.653
-17.814
-17.947
-18.049
-18.116
-18.148
-18.141
-18.095
-18.008
-17.878
-17.707
-17.493
-17.236
-16.938
-16.598
-16.219
-15.8
-15.345
-14.854
-14.331
-13.776
-13.192
-12.582
-11.948
-11.293
-10.619
-9.931
-9.229
-8.518
-7.8
-7.079
-6.355
-5.632
-4.911
-4.195
-3.485
-2.781
-2.085
-1.398
-0.718
-0.046
0.618
1.277
1.932
2.584
3.236
3.891
4.549
5.214
5.888
6.574
7.272
7.984
8.711
9.454
10.212
10.987
11.778
12.584
13.407
14.244
15.096
15.961
16.84
17.729
18.625
19.525
20.424
21.32
22.206
23.08
23.935
24.765
25.566
26.334
27.062
27.747
28.382
28.957
29.466
29.911
30.29
30.608
30.87
31.08
31.248
31.391
31.52
31.649
31.79
31.944
32.118
32.318
32.553
32.837
33.178
33.566
33.993
34.445
34.902
35.349
35.756
36.067
36.237
36.217
35.958
35.436
34.616
33.457
31.934
30.007
27.64
24.823
21.536
17.772
13.557
8.888
3.76
-1.728
-7.416
-13.066
-18.334
-22.949
-26.725
-29.42
-30.747
-30.559
-28.943
-26.282
-23.259
-20.481
-18.228
-16.774
-16.57
-17.871
-20.593
-23.922
-26.123
-25.603
-21.362
-13.191
-1.893
11.999
28.205
46.862
69.938
99.037
134.667
176.523
220.217
259.179
287.244
297.411
284.747
247.979
187.599
106.837
11.65
-93.423
-205.562
-321.654
-438.969
-551.214
-647.949
-719.564
-758.755
-764.672
-742.637
-699.564
-642.891
-577.005
-504.561
-429.585
-356.119
-289.288
-233.08
-188.004
-152.654
-124.156
-100.518
-81.369
-67.127
-58.64
-55.04
-54.34
-54.48
-53.303
-49.982
-44.764
-37.967
-30.155
-22.109
-14.454
-7.935
-3.335
-0.84
-0.27
-1.331
-3.547
-6.433
-9.581
-12.5
-14.692
-15.92
-16.117
-15.312
-13.655
-11.252
-8.189
-4.597
-0.616
3.627
8.023
12.481
16.935
21.297
25.475
29.379
32.924
36.064
38.783
41.085
42.999
44.555
45.791
46.757
47.511
48.109
48.605
49.05
49.485
49.957
50.513
51.2
52.063
53.132
54.424
55.95
57.712
59.708
61.936
64.384
67.037
69.881
72.903
76.092
79.435
82.92
86.529
90.243
94.043
97.911
101.827
105.773
109.728
113.672
117.584
121.445
125.236
128.934
132.519
135.967
139.257
142.366
145.274
147.96
150.405
152.589
154.497
156.113
157.424
158.418
159.083
159.412
159.397
159.032
158.314
157.24
155.811
154.027
151.892
149.411
146.591
143.441
139.969
136.188
132.111
127.753
123.129
118.257
113.154
107.839
102.334
96.657
90.831
84.878
78.819
72.678
66.476
60.235
53.978
47.727
41.501
35.322
29.209
23.181
17.257
11.454
5.787
0.273
-5.074
-10.242
-15.218
-19.992
-24.555
-28.898
-33.016
-36.901
-40.551
-43.961
-47.132
-50.061
-52.75
-55.2
-57.415
-59.399
-61.156
-62.693
-64.016
-65.132
-66.051
-66.779
-67.326
-67.702
-67.917
-67.98
-67.901
-67.691
-67.36
-66.919
-66.376
-65.743
-65.029
-64.243
-63.395
-62.494
-61.547
-60.562
-59.549
-58.512
-57.459
-56.397
-55.33
-54.265
-53.204
-52.154
-51.117
-50.097
-49.096
-48.118
-47.163
-46.233
-45.331
-44.456
-43.61
-42.792
-42.004
-41.245
-40.515
-39.814
-39.141
-38.496
-37.878
-37.286
-36.72
-36.179
-35.663
-35.17
-34.699
-34.251
-33.824
-33.418
-33.033
-32.667
-32.321
-31.994
-31.686
-31.396
-31.125
-30.872
-30.638
-30.421
-30.223
-30.043
-29.88
-29.736
-29.61
-29.502
-29.412
-29.341
-29.288
-29.255
-29.24
-29.244
-29.268
-29.311
-29.373
-29.455
-29.558
-29.679
-29.821
-29.983
-30.164
-30.365
-30.584
-30.821
-31.075
-31.344
-31.628
-31.926
-32.235
-32.554
-32.881
-33.215
-33.554
-33.895
-34.237
-34.578
-34.914
-35.243
-35.563
-35.87
-36.162
-36.436
-36.688
-36.916
-37.116
-37.284
-37.418
-37.513
-37.565
-37.573
-37.531
-37.437
-37.289
-37.083
-36.819
-36.495
-36.11
-35.665
-35.161
-34.598
-33.979
-33.305
-32.578
-31.801
-30.976
-30.108
-29.198
-28.25
-27.269
-26.26
-25.229
-24.181
-23.123
-22.06
-20.999
-19.945
-18.905
-17.888
-16.896
-15.936
-15.013
-14.135
-13.312
-12.548
-11.847
-11.204
-10.617
-10.082
-9.593
-9.141
-8.708
-8.281
-7.844
-7.388
-6.908
-6.396
-5.847
-5.247
-4.581
-3.844
-3.038
-2.178
-1.275
-0.344
0.597
1.513
2.351
3.059
3.584
3.884
3.927
3.673
3.087
2.136
0.785
-0.996
-3.226
-5.914
-9.067
-12.666
-16.698
-21.158
-25.933
-30.841
-35.637
-39.968
-43.544
-46.194
-47.673
-47.674
-46.177
-43.309
-39.437
-35.386
-31.702
-28.562
-26.403
-25.639
-26.239
-28.126
-30.309
-30.572
-27.513
-20.167
-8.491
5.728
21.394
37.964
56.558
80.584
112.157
152.172
197.904
242.163
278.019
298.103
296.222
270.291
219.639
146.404
56.669
-44.252
-152.154
-263.461
-376.662
-487.083
-585.926
-663.954
-712.493
-728.786
-716.402
-681.235
-630.515
-569.101
-500.209
-427.99
-356.422
-290.333
-233.361
-186.177
-147.934
-116.266
-89.565
-67.656
-50.877
-40.11
-34.692
-32.697
-31.982
-30.236
-26.432
-20.698
-13.354
-4.895
4.024
12.82
20.728
26.835
30.789
32.694
32.811
31.598
29.515
26.945
24.381
22.368
21.219
21.058
21.888
23.577
26.018
29.136
32.813
36.912
41.309
45.889
50.561
55.256
59.902
64.408
68.694
72.678
76.291
79.504
82.311
84.726
86.777
88.5
89.935
91.131
92.146
93.037
93.855
94.647
95.455
96.323
97.294
98.412
99.716
101.23
102.967
104.935
107.136
109.566
112.222
115.091
118.158
121.409
124.83
128.41
132.135
135.99
139.957
144.016
148.148
152.332
156.549
160.779
164.999
169.189
173.326
177.39
181.359
185.211
188.924
192.473
195.837
198.993
201.92
204.598
207.006
209.127
210.945
212.444
213.612
214.437
214.91
215.024
214.771
214.148
213.153
211.786
210.046
207.939
205.468
202.642
199.469
195.958
192.124
187.979
183.538
178.819
173.839
168.618
163.175
157.532
151.712
145.735
139.626
133.408
127.104
120.739
114.335
107.917
101.507
95.128
88.8
82.546
76.386
70.338
64.42
58.651
53.046
47.619
42.385
37.356
32.542
27.954
23.6
19.486
15.618
12.001
8.636
5.525
2.668
0.065
-2.289
-4.395
-6.26
-7.888
-9.287
-10.464
-11.428
-12.187
-12.753
-13.135
-13.343
-13.39
-13.286
-13.044
-12.674
-12.188
-11.599
-10.918
-10.155
-9.322
-8.43
-7.489
-6.51
-5.501
-4.472
-3.431
-2.386
-1.344
-0.314
0.7
1.692
2.656
3.588
4.485
5.341
6.156
6.926
7.65
8.326
8.954
9.533
10.062
10.543
10.975
11.361
11.7
11.994
12.245
12.454
12.624
12.756
12.853
12.916
12.947
12.948
12.923
12.871
12.796
12.699
12.582
12.446
12.294
12.125
11.943
11.747
11.539
11.32
11.09
10.851
10.601
10.343
10.076
9.8
9.515
9.222
8.92
8.608
8.287
7.956
7.614
7.26
6.895
6.517
6.124
5.717
5.294
4.854
4.396
3.919
3.422
2.904
2.363
1.799
1.211
0.597
-0.042
-0.708
-1.401
-2.122
-2.87
-3.645
-4.448
-5.277
-6.131
-7.011
-7.914
-8.84
-9.787
-10.754
-11.74
-12.741
-13.756
-14.783
-15.819
-16.861
-17.906
-18.949
-19.989
-21.021
-22.042
-23.047
-24.032
-24.993
-25.926
-26.825
-27.688
-28.508
-29.283
-30.007
-30.679
-31.294
-31.851
-32.347
-32.781
-33.153
-33.464
-33.712
-33.898
-34.024
-34.089
-34.097
-34.048
-33.945
-33.789
-33.584
-33.335
-33.046
-32.723
-32.371
-31.994
-31.599
-31.191
-30.777
-30.363
-29.954
-29.554
-29.17
-28.808
-28.477
-28.184
-27.93
-27.712
-27.53
-27.379
-27.256
-27.153
-27.056
-26.951
-26.826
-26.673
-26.487
-26.263
-25.994
-25.669
-25.279
-24.819
-24.296
-23.721
-23.104
-22.459
-21.805
-21.173
-20.615
-20.178
-19.91
-19.861
-20.073
-20.59
-21.455
-22.699
-24.353
-26.453
-29.024
-32.083
-35.65
-39.706
-44.244
-49.286
-54.734
-60.418
-66.09
-71.371
-75.946
-79.634
-82.169
-83.222
-82.757
-80.919
-78.127
-75.235
-72.79
-71.034
-70.449
-71.458
-74.088
-77.886
-81.432
-82.747
-80.513
-74.506
-65.445
-53.869
-39.87
-22.725
-0.133
29.383
66.093
109.459
155.251
197.433
230.451
247.605
243.604
216.124
163.829
88.683
-3.275
-106.464
-215.894
-328.103
-441.586
-550.118
-651.104
-745.012
-810.211
-825.657
-808.575
-779.679
-735.71
-675.567
-605.465
-529.209
-451.033
-376.123
-310.397
-257.649
-217.763
-188.529
-166.167
-147.897
-133.007
-121.956
-115.357
-112.44
-111.292
-109.729
-106.178
-100.417
-92.9
-84.149
-74.92
-65.896
-57.798
-51.544
-47.509
-45.557
-45.399
-46.554
-48.527
-50.913
-53.198
-54.805
-55.422
-54.94
-53.37
-50.864
-47.539
-43.471
-38.796
-33.668
-28.221
-22.582
-16.848
-11.088
-5.393
0.135
5.397
10.294
14.769
18.803
22.395
25.566
28.346
30.769
32.883
34.748
36.42
37.956
39.407
40.815
42.231
43.703
45.282
47.015
48.936
51.064
53.411
55.98
58.772
61.785
65.009
68.429
72.033
75.808
79.744
83.832
88.057
92.403
96.854
101.39
105.994
110.647
115.332
120.029
124.718
129.381
133.997
138.548
143.013
147.37
151.597
155.671
159.571
163.274
166.761
170.011
173.004
175.724
178.154
180.281
182.09
183.571
184.713
185.508
185.95
186.033
185.755
185.114
184.11
182.747
181.027
178.957
176.544
173.798
170.729
167.35
163.676
159.721
155.501
151.036
146.344
141.444
136.358
131.108
125.715
120.202
114.591
108.907
103.172
97.408
91.637
85.883
80.165
74.505
68.923
63.438
58.068
52.83
47.74
42.813
38.064
33.504
29.145
24.996
21.065
17.361
13.888
10.652
7.653
4.896
2.378
0.1
-1.941
-3.749
-5.328
-6.684
-7.825
-8.757
-9.49
-10.033
-10.396
-10.589
-10.624
-10.512
-10.264
-9.892
-9.409
-8.826
-8.155
-7.407
-6.595
-5.728
-4.819
-3.877
-2.912
-1.933
-0.95
0.03
1
1.951
2.877
3.774
4.636
5.459
6.238
6.971
7.656
8.29
8.873
9.403
9.88
10.305
10.678
11.001
11.274
11.501
11.682
11.821
11.919
11.981
12.008
12.003
11.97
11.911
11.83
11.729
11.611
11.479
11.335
11.182
11.022
10.857
10.689
10.519
10.349
10.181
10.015
9.853
9.694
9.54
9.391
9.247
9.108
8.974
8.844
8.719
8.597
8.478
8.36
8.243
8.125
8.005
7.882
7.754
7.62
7.479
7.327
7.166
6.992
6.804
6.601
6.383
6.147
5.893
5.621
5.33
5.02
4.692
4.344
3.978
3.595
3.194
2.778
2.346
1.901
1.444
0.976
0.5
0.017
-0.469
-0.957
-1.442
-1.923
-2.396
-2.858
-3.305
-3.733
-4.138
-4.516
-4.863
-5.175
-5.448
-5.677
-5.859
-5.991
-6.069
-6.092
-6.058
-5.965
-5.813
-5.602
-5.333
-5.006
-4.622
-4.182
-3.687
-3.14
-2.541
-1.894
-1.201
-0.467
0.303
1.104
1.931
2.778
3.64
4.51
5.383
6.253
7.114
7.961
8.787
9.586
10.346
11.062
11.733
12.357
12.939
13.486
14.001
14.495
14.984
15.479
15.991
16.53
17.1
17.707
18.361
19.069
19.848
20.703
21.628
22.618
23.656
24.718
25.786
26.825
27.781
28.61
29.27
29.716
29.915
29.827
29.403
28.607
27.405
25.771
23.686
21.127
18.084
14.562
10.598
6.229
1.479
-3.548
-8.681
-13.665
-18.139
-21.786
-24.415
-25.776
-25.552
-23.734
-20.486
-16.226
-11.824
-7.867
-4.642
-2.702
-2.509
-4.06
-6.872
-9.514
-9.975
-6.913
-0.123
9.639
21.773
36.067
53.354
76.305
106.478
144.111
188.288
233.865
274.746
305.492
319.132
310.87
277.979
218.886
137.198
39.563
-67.773
-179.436
-293.23
-408.284
-520.072
-620.203
-698.193
-745.028
-758.239
-742.077
-704.12
-651.933
-589.932
-519.374
-441.843
-360.84
-282.174
-213.101
-158.148
-117.983
-90.07
-69.741
-53.756
-41.073
-32.036
-27.331
-26.194
-26.713
-26.735
-24.684
-20.323
-14.067
-6.453
1.691
9.649
16.677
21.877
24.928
25.968
25.28
23.348
20.653
17.593
14.667
12.41
11.093
10.802
11.501
13.021
15.239
18.062
21.35
24.954
28.743
32.606
36.456
40.235
43.865
47.261
50.342
53.03
55.283
57.092
58.47
59.449
60.067
60.369
60.408
60.247
59.947
59.567
59.159
58.768
58.443
58.233
58.186
58.349
58.754
59.42
60.359
61.574
63.066
64.832
66.863
69.142
71.657
74.394
77.341
80.486
83.815
87.308
90.947
94.711
98.578
102.528
106.541
110.593
114.662
118.725
122.761
126.746
130.659
134.474
138.168
141.716
145.093
148.279
151.25
153.985
156.464
158.67
160.586
162.198
163.493
164.46
165.089
165.373
165.307
164.886
164.11
162.978
161.492
159.656
157.476
154.96
152.118
148.959
145.497
141.747
137.724
133.445
128.928
124.192
119.258
114.147
108.88
103.48
97.968
92.369
86.704
80.997
75.269
69.544
63.842
58.185
52.593
47.085
41.679
36.394
31.246
26.25
21.421
16.771
12.313
8.057
4.012
0.186
-3.415
-6.786
-9.923
-12.823
-15.487
-17.913
-20.105
-22.064
-23.795
-25.303
-26.594
-27.675
-28.553
-29.239
-29.74
-30.067
-30.229
-30.239
-30.107
-29.843
-29.46
-28.968
-28.38
-27.706
-26.957
-26.145
-25.278
-24.369
-23.425
-22.457
-21.472
-20.48
-19.486
-18.498
-17.522
-16.563
-15.626
-14.715
-13.833
-12.983
-12.167
-11.387
-10.643
-9.935
-9.265
-8.63
-8.031
-7.465
-6.932
-6.429
-5.953
-5.504
-5.077
-4.67
-4.281
-3.907
-3.545
-3.191
-2.845
-2.502
-2.16
-1.818
-1.472
-1.121
-0.763
-0.397
-0.021
0.365
0.762
1.171
1.591
2.023
2.466
2.92
3.385
3.858
4.34
4.829
5.325
5.825
6.328
6.833
7.339
7.842
8.342
8.837
9.325
9.805
10.275
10.734
11.18
11.61
12.024
12.419
12.794
13.148
13.478
13.783
14.062
14.316
14.542
14.741
14.911
15.054
15.169
15.256
15.315
15.347
15.351
15.328
15.279
15.206
15.108
14.988
14.845
14.684
14.504
14.309
14.097
13.871
13.633
13.383
13.124
12.858
12.585
12.309
12.035
11.766
11.506
11.259
11.027
10.81
10.613
10.436
10.281
10.147
10.03
9.93
9.852
9.798
9.771
9.771
9.789
9.819
9.861
9.907
9.952
9.987
9.998
9.98
9.939
9.879
9.806
9.721
9.61
9.469
9.288
9.064
8.805
8.51
8.174
7.803
7.411
7.017
6.655
6.335
6.047
5.789
5.554
5.344
5.176
5.051
4.975
4.949
4.97
5.044
5.182
5.373
5.592
5.806
5.96
6.023
5.988
5.832
5.537
5.082
4.432
3.569
2.469
1.109
-0.535
-2.495
-4.791
-7.434
-10.428
-13.763
-17.417
-21.367
-25.576
-30.019
-34.7
-39.552
-44.434
-49.13
-53.308
-56.695
-59.116
-60.346
-60.107
-58.27
-54.94
-50.518
-45.742
-41.257
-37.351
-34.319
-32.615
-32.474
-33.803
-35.739
-36.431
-34.232
-28.166
-18.143
-5.182
10.083
27.492
47.462
72.269
103.62
141.809
186.16
232.09
273.138
303.506
316.459
306.747
272.222
212.276
129.483
30.047
-80.518
-198.215
-319.338
-441.346
-558.484
-660.76
-738.27
-782.77
-792.622
-772.852
-730.771
-674.862
-610.02
-538.218
-462.631
-386.152
-313.752
-251.706
-202.571
-166.666
-141.829
-123.734
-109.967
-99.647
-92.754
-89.701
-89.535
-90.414
-90.453
-88.319
-83.89
-77.63
-70.148
-62.33
-54.909
-48.597
-44.154
-41.778
-41.271
-42.306
-44.381
-47.002
-49.751
-52.141
-53.684
-54.144
-53.455
-51.663
-48.922
-45.351
-41.044
-36.14
-30.789
-25.126
-19.269
-13.314
-7.337
-1.429
4.311
9.792
14.929
19.673
24.006
27.93
31.465
34.638
37.483
40.046
42.376
44.527
46.547
48.482
50.369
52.252
54.172
56.169
58.283
60.538
62.946
65.514
68.242
71.124
74.156
77.325
80.616
84.016
87.513
91.094
94.751
98.471
102.239
106.042
109.863
113.687
117.501
121.291
125.042
128.739
132.369
135.918
139.372
142.717
145.938
149.02
151.948
154.706
157.281
159.66
161.831
163.781
165.501
166.982
168.217
169.2
169.924
170.387
170.584
170.515
170.178
169.574
168.705
167.572
166.181
164.535
162.639
160.502
158.129
155.53
152.713
149.689
146.467
143.059
139.477
135.732
131.836
127.803
123.645
119.374
115.004
110.546
106.014
101.419
96.774
92.088
87.374
82.642
77.901
73.16
68.43
63.717
59.031
54.378
49.767
45.202
40.691
36.238
31.85
27.53
23.283
19.113
15.023
11.016
7.095
3.262
-0.482
-4.134
-7.693
-11.159
-14.53
-17.806
-20.985
-24.068
-27.054
-29.941
-32.731
-35.421
-38.012
-40.502
-42.892
-45.179
-47.364
-49.445
-51.421
-53.292
-55.057
-56.715
-58.265
-59.706
-61.038
-62.26
-63.373
-64.374
-65.265
-66.046
-66.716
-67.276
-67.726
-68.068
-68.301
-68.428
-68.45
-68.368
-68.186
-67.904
-67.526
-67.055
-66.494
-65.847
-65.118
-64.311
-63.43
-62.48
-61.466
-60.394
-59.268
-58.093
-56.876
-55.621
-54.335
-53.022
-51.688
-50.339
-48.979
-47.615
-46.25
-44.891
-43.542
-42.207
-40.891
-39.598
-38.333
-37.099
-35.899
-34.737
-33.616
-32.538
-31.506
-30.52
-29.584
-28.698
-27.863
-27.081
-26.351
-25.673
-25.049
-24.477
-23.957
-23.489
-23.072
-22.704
-22.386
-22.116
-21.892
-21.714
-21.581
-21.491
-21.442
-21.433
-21.462
-21.526
-21.625
-21.754
-21.912
-22.096
-22.303
-22.531
-22.777
-23.039
-23.313
-23.597
-23.888
-24.184
-24.48
-24.774
-25.063
-25.344
-25.613
-25.868
-26.104
-26.32
-26.51
-26.672
-26.802
-26.897
-26.951
-26.962
-26.926
-26.839
-26.699
-26.502
-26.246
-25.93
-25.552
-25.112
-24.611
-24.049
-23.427
-22.746
-22.009
-21.216
-20.37
-19.473
-18.527
-17.536
-16.503
-15.434
-14.334
-13.209
-12.064
-10.906
-9.739
-8.569
-7.404
-6.249
-5.108
-3.988
-2.896
-1.838
-0.826
0.135
1.043
1.898
2.705
3.469
4.195
4.895
5.584
6.272
6.97
7.688
8.428
9.197
10.003
10.855
11.767
12.747
13.788
14.89
16.035
17.202
18.373
19.517
20.585
21.535
22.331
22.929
23.302
23.416
23.227
22.708
21.829
20.563
18.89
16.787
14.241
11.255
7.855
4.065
-0.1
-4.546
-9.109
-13.546
-17.501
-20.672
-22.883
-23.894
-23.402
-21.404
-18.061
-13.779
-9.45
-5.687
-2.698
-0.958
-0.898
-2.426
-5.378
-8.673
-9.965
-7.752
-0.988
10.52
25.137
41.762
59.732
79.927
105.401
138.135
179.087
225.549
270.324
306.298
325.693
322.055
293.391
239.248
162.244
69.072
-34.679
-144.37
-256.859
-370.816
-479.574
-580.486
-674.244
-738.201
-750.815
-729.608
-695.495
-646.357
-581.904
-509.596
-434.489
-359.321
-287.744
-224.56
-172.273
-131.569
-101.366
-78.395
-60.445
-46.495
-36.423
-30.676
-28.404
-27.791
-26.831
-24.008
-19.08
-12.475
-4.707
3.467
11.38
18.325
23.423
26.339
27.203
26.299
24.113
21.133
17.767
14.529
11.978
10.413
9.942
10.554
12.1
14.468
17.575
21.281
25.43
29.885
34.525
39.257
44.016
48.709
53.237
57.503
61.412
64.912
67.984
70.624
72.856
74.707
76.215
77.432
78.417
79.229
79.923
80.551
81.155
81.788
82.497
83.332
84.341
85.557
86.998
88.679
90.602
92.768
95.174
97.809
100.66
103.713
106.955
110.375
113.962
117.703
121.58
125.576
129.671
133.847
138.084
142.365
146.668
150.975
155.263
159.514
163.707
167.821
171.834
175.722
179.461
183.03
186.406
189.567
192.492
195.162
197.559
199.665
201.467
202.949
204.1
204.908
205.366
205.466
205.202
204.57
203.569
202.199
200.461
198.359
195.898
193.086
189.931
186.445
182.638
178.526
174.122
169.445
164.51
159.338
153.949
148.362
142.6
136.685
130.64
124.488
118.251
111.953
105.617
99.266
92.922
86.607
80.343
74.149
68.045
62.052
56.185
50.464
44.903
39.518
34.322
29.327
24.545
19.985
15.656
11.564
7.715
4.114
0.763
-2.336
-5.184
-7.78
-10.128
-12.232
-14.095
-15.724
-17.125
-18.306
-19.275
-20.043
-20.617
-21.01
-21.232
-21.294
-21.208
-20.986
-20.64
-20.182
-19.626
-18.982
-18.263
-17.481
-16.648
-15.775
-14.874
-13.955
-13.028
-12.103
-11.19
-10.298
-9.434
-8.607
-7.823
-7.089
-6.411
-5.795
-5.244
-4.765
-4.359
-4.03
-3.78
-3.612
-3.527
-3.525
-3.607
-3.773
-4.023
-4.356
-4.77
-5.263
-5.834
-6.48
-7.199
-7.987
-8.842
-9.759
-10.736
-11.768
-12.852
-13.984
-15.16
-16.375
-17.626
-18.907
-20.216
-21.547
-22.896
-24.26
-25.633
-27.013
-28.394
-29.775
-31.149
-32.516
-33.87
-35.209
-36.53
-37.831
-39.108
-40.361
-41.586
-42.783
-43.95
-45.085
-46.189
-47.261
-48.299
-49.305
-50.277
-51.215
-52.121
-52.993
-53.833
-54.641
-55.416
-56.161
-56.875
-57.559
-58.214
-58.841
-59.44
-60.013
-60.56
-61.082
-61.578
-62.05
-62.498
-62.923
-63.323
-63.699
-64.051
-64.377
-64.678
-64.952
-65.198
-65.414
-65.599
-65.752
-65.871
-65.955
-66.003
-66.014
-65.988
-65.924
-65.824
-65.689
-65.519
-65.314
-65.077
-64.809
-64.511
-64.184
-63.83
-63.45
-63.047
-62.624
-62.185
-61.734
-61.275
-60.811
-60.347
-59.887
-59.435
-58.995
-58.572
-58.168
-57.789
-57.44
-57.129
-56.861
-56.635
-56.451
-56.304
-56.186
-56.093
-56.011
-55.925
-55.822
-55.688
-55.513
-55.29
-55.009
-54.661
-54.236
-53.715
-53.093
-52.374
-51.562
-50.672
-49.728
-48.745
-47.76
-46.825
-45.986
-45.288
-44.776
-44.486
-44.461
-44.754
-45.402
-46.44
-47.894
-49.781
-52.121
-54.927
-58.195
-61.89
-65.974
-70.415
-75.101
-79.86
-84.441
-88.47
-91.619
-93.682
-94.39
-93.446
-90.86
-86.795
-81.653
-76.316
-71.412
-67.219
-64.283
-63.063
-63.44
-65.195
-67.263
-67.411
-64.18
-56.52
-44.052
-27.945
-9.068
11.977
35.89
64.761
99.723
141.273
186.414
228.613
261.301
276.403
267.503
232.352
171.031
88.298
-8.177
-112.074
-219.068
-327.6
-436.886
-542.537
-636.259
-707.948
-748.983
-757.436
-737.084
-694.494
-637.79
-572.053
-500.831
-428.783
-359.515
-297.143
-244.651
-201.612
-166.472
-137.024
-111.89
-91.217
-75.639
-65.769
-60.632
-58.303
-56.813
-54.2
-49.73
-43.621
-36.15
-27.818
-19.317
-11.21
-4.188
0.998
4.161
5.462
5.173
3.751
1.652
-0.74
-2.95
-4.487
-5.111
-4.744
-3.407
-1.238
1.661
5.21
9.281
13.735
18.445
23.302
28.218
33.127
37.945
42.581
46.945
50.953
54.558
57.743
60.513
62.891
64.908
66.602
68.02
69.222
70.262
71.197
72.074
72.937
73.831
74.806
75.906
77.18
78.658
80.359
82.294
84.467
86.879
89.526
92.4
95.484
98.767
102.236
105.878
109.685
113.641
117.729
121.931
126.228
130.6
135.028
139.492
143.972
148.446
152.895
157.296
161.631
165.878
170.013
174.014
177.858
181.522
184.984
188.224
191.221
193.957
196.413
198.574
200.427
201.958
203.158
204.016
204.526
204.681
204.479
203.917
202.995
201.714
200.079
198.095
195.768
193.109
190.127
186.835
183.245
179.375
175.239
170.856
166.243
161.422
156.411
151.232
145.907
140.458
134.907
129.276
123.587
117.864
112.126
106.397
100.695
95.041
89.455
83.953
78.555
73.275
68.13
63.133
58.297
53.636
49.158
44.874
40.791
36.917
33.257
29.815
26.594
23.597
20.823
18.272
15.943
13.833
11.938
10.254
8.776
7.498
6.413
5.514
4.793
4.243
3.854
3.619
3.528
3.574
3.746
4.037
4.438
4.94
5.535
6.216
6.974
7.802
8.693
9.64
10.637
11.678
12.757
13.87
15.011
16.175
17.36
18.56
19.773
20.995
22.224
23.455
24.688
25.918
27.145
28.365
29.576
30.777
31.966
33.139
34.295
35.432
36.546
37.635
38.696
39.727
40.725
41.685
42.606
43.485
44.317
45.101
45.832
46.508
47.125
47.68
48.17
48.592
48.944
49.222
49.425
49.551
49.598
49.565
49.452
49.258
48.981
48.623
48.183
47.662
47.061
46.38
45.623
44.792
43.89
42.92
41.886
40.793
39.644
38.445
37.201
35.916
34.595
33.243
31.866
30.469
29.059
27.641
26.221
24.804
23.396
22.004
20.63
19.281
17.96
16.672
15.42
14.209
13.043
11.926
10.862
9.855
8.911
8.032
7.222
6.481
5.812
5.215
4.69
4.236
3.852
3.537
3.293
3.12
3.02
2.994
3.044
3.17
3.375
3.66
4.022
4.458
4.964
5.536
6.176
6.887
7.669
8.516
9.424
10.386
11.395
12.439
13.499
14.548
15.559
16.513
17.402
18.227
18.986
19.677
20.299
20.851
21.345
21.794
22.208
22.588
22.936
23.268
23.621
24.05
24.603
25.313
26.193
27.245
28.478
29.889
31.464
33.171
34.951
36.759
38.562
40.342
42.08
43.739
45.249
46.52
47.476
48.055
48.208
47.89
47.044
45.634
43.649
41.11
38.063
34.532
30.522
26.022
21.031
15.578
9.711
3.487
-3.055
-9.878
-16.933
-24.14
-31.416
-38.72
-45.982
-53.088
-59.853
-65.975
-71.175
-75.258
-78.02
-79.209
-78.711
-76.647
-73.386
-69.612
-65.964
-62.75
-60.309
-59.144
-59.545
-61.479
-64.05
-65.412
-64.038
-58.947
-50.434
-39.908
-27.478
-13.024
4.841
29.641
61.991
101.389
146.084
189.547
226.478
252.041
259.404
244.983
206.359
142.45
57.903
-41.279
-149.859
-262.719
-377.659
-491.84
-598.204
-688.271
-752.798
-785.374
-786.959
-762.39
-718.236
-661.348
-594.898
-521.252
-444.148
-367.587
-297.305
-237.755
-189.97
-152.774
-122.7
-97.133
-75.366
-57.652
-44.87
-36.283
-29.825
-23.304
-14.958
-4.375
8.017
21.654
35.777
49.547
62.074
72.376
79.968
84.908
87.442
87.991
86.991
84.835
82.03
79.126
76.44
74.101
72.148
70.52
69.201
68.204
67.467
66.9
66.424
65.978
65.548
65.142
64.751
64.356
63.94
63.502
63.078
62.702
62.388
62.148
61.973
61.87
61.862
61.973
62.227
62.639
63.204
63.912
64.743
65.68
66.706
67.796
68.911
70.023
71.114
72.182
73.24
74.299
75.364
76.447
77.555
78.707
79.932
81.262
82.739
84.396
86.254
88.333
90.653
93.221
96.037
99.089
102.341
105.759
109.313
112.972
116.714
120.512
124.331
128.135
131.883
135.548
139.118
142.587
145.948
149.199
152.341
155.391
158.386
161.357
164.317
167.272
170.208
173.108
175.966
178.768
181.492
184.1
186.536
188.74
190.661
192.244
193.428
194.131
194.259
193.734
192.511
190.567
187.896
184.493
180.356
175.492
169.932
163.729
156.943
149.637
141.872
133.72
125.275
116.66
108
99.395
90.921
82.627
74.56
66.774
59.315
52.216
45.492
39.149
33.194
27.648
22.517
17.791
13.433
9.371
5.55
1.933
-1.504
-4.771
-7.882
-10.858
-13.712
-16.443
-19.05
-21.533
-23.906
-26.201
-28.432
-30.597
-32.68
-34.64
-36.453
-38.111
-39.605
-40.935
-42.099
-43.092
-43.924
-44.613
-45.175
-45.617
-45.94
-46.134
-46.199
-46.146
-45.992
-45.762
-45.475
-45.143
-44.783
-44.41
-44.037
-43.674
-43.326
-42.99
-42.666
-42.358
-42.073
-41.818
-41.598
-41.414
-41.266
-41.154
-41.075
-41.03
-41.013
-41.022
-41.052
-41.101
-41.167
-41.25
-41.351
-41.466
-41.594
-41.732
-41.879
-42.032
-42.188
-42.344
-42.497
-42.646
-42.788
-42.921
-43.046
-43.159
-43.26
-43.349
-43.425
-43.487
-43.535
-43.57
-43.59
-43.598
-43.595
-43.581
-43.557
-43.527
-43.491
-43.452
-43.412
-43.374
-43.34
-43.312
-43.293
-43.285
-43.291
-43.313
-43.353
-43.414
-43.497
-43.605
-43.74
-43.902
-44.093
-44.313
-44.562
-44.842
-45.151
-45.489
-45.855
-46.249
-46.668
-47.111
-47.575
-48.06
-48.561
-49.076
-49.601
-50.132
-50.666
-51.198
-51.725
-52.241
-52.741
-53.221
-53.675
-54.097
-54.484
-54.828
-55.125
-55.37
-55.559
-55.687
-55.751
-55.748
-55.677
-55.535
-55.323
-55.039
-54.683
-54.257
-53.76
-53.194
-52.561
-51.862
-51.1
-50.278
-49.4
-48.473
-47.502
-46.491
-45.449
-44.38
-43.29
-42.188
-41.078
-39.968
-38.865
-37.776
-36.708
-35.675
-34.682
-33.733
-32.831
-31.972
-31.153
-30.369
-29.612
-28.868
-28.126
-27.376
-26.608
-25.821
-25.004
-24.151
-23.253
-22.296
-21.271
-20.183
-19.035
-17.842
-16.626
-15.405
-14.215
-13.105
-12.121
-11.307
-10.709
-10.363
-10.31
-10.599
-11.265
-12.341
-13.858
-15.839
-18.313
-21.291
-24.766
-28.705
-33.076
-37.854
-42.94
-48.154
-53.234
-57.821
-61.603
-64.394
-65.943
-65.927
-64.317
-61.266
-57.177
-52.887
-48.952
-45.623
-43.411
-42.773
-43.724
-45.806
-47.641
-47.297
-43.491
-36.047
-25.705
-12.992
1.929
19.789
43.048
73.211
110.569
154.409
200
241.106
272.127
286.578
279.834
249.98
196.022
120.012
27.488
-76.438
-187.513
-301.973
-418.075
-531.744
-634.376
-716.827
-770.506
-790.598
-779.831
-744.178
-690.193
-624.409
-549.763
-468.982
-386.814
-308.301
-240.118
-186.713
-148.23
-122.191
-103.826
-89.541
-78.189
-70.009
-65.708
-64.566
-64.684
-63.982
-60.923
-55.355
-47.847
-39.054
-29.909
-21.213
-13.708
-8.214
-4.991
-3.847
-4.452
-6.3
-8.88
-11.757
-14.423
-16.364
-17.325
-17.229
-16.11
-14.119
-11.368
-7.949
-3.997
0.342
4.94
9.687
14.495
19.297
24.005
28.527
32.771
36.652
40.123
43.167
45.789
48.012
49.869
51.396
52.647
53.681
54.555
55.327
56.048
56.762
57.519
58.369
59.36
60.539
61.938
63.576
65.466
67.61
70.01
72.661
75.555
78.675
82.009
85.542
89.263
93.16
97.217
101.417
105.739
110.163
114.669
119.235
123.841
128.465
133.085
137.677
142.219
146.69
151.066
155.322
159.433
163.374
167.12
170.648
173.934
176.957
179.695
182.129
184.243
186.019
187.445
188.508
189.198
189.506
189.426
188.953
188.085
186.821
185.163
183.114
180.68
177.868
174.687
171.149
167.266
163.053
158.526
153.702
148.6
143.24
137.643
131.832
125.829
119.657
113.341
106.905
100.373
93.771
87.123
80.452
73.782
67.136
60.536
54.004
47.56
41.224
35.014
28.947
23.04
17.307
11.762
6.418
1.284
-3.63
-8.316
-12.767
-16.977
-20.944
-24.665
-28.138
-31.363
-34.343
-37.08
-39.577
-41.84
-43.875
-45.687
-47.285
-48.677
-49.873
-50.881
-51.712
-52.375
-52.883
-53.245
-53.472
-53.575
-53.566
-53.454
-53.251
-52.966
-52.609
-52.191
-51.719
-51.203
-50.651
-50.071
-49.469
-48.854
-48.23
-47.603
-46.979
-46.362
-45.756
-45.165
-44.591
-44.036
-43.503
-42.994
-42.508
-42.047
-41.612
-41.201
-40.815
-40.453
-40.114
-39.797
-39.501
-39.224
-38.966
-38.724
-38.497
-38.283
-38.081
-37.89
-37.708
-37.533
-37.365
-37.202
-37.043
-36.887
-36.734
-36.582
-36.432
-36.282
-36.133
-35.984
-35.836
-35.689
-35.543
-35.398
-35.257
-35.118
-34.984
-34.854
-34.731
-34.615
-34.508
-34.41
-34.325
-34.252
-34.195
-34.153
-34.13
-34.126
-34.144
-34.184
-34.249
-34.339
-34.458
-34.606
-34.784
-34.995
-35.238
-35.515
-35.827
-36.173
-36.554
-36.97
-37.42
-37.904
-38.42
-38.966
-39.543
-40.147
-40.778
-41.432
-42.107
-42.8
-43.508
-44.228
-44.957
-45.689
-46.422
-47.151
-47.872
-48.579
-49.268
-49.935
-50.573
-51.177
-51.743
-52.265
-52.736
-53.153
-53.51
-53.803
-54.028
-54.181
-54.26
-54.263
-54.189
-54.038
-53.809
-53.502
-53.119
-52.66
-52.127
-51.522
-50.847
-50.106
-49.301
-48.437
-47.522
-46.56
-45.558
-44.522
-43.458
-42.374
-41.277
-40.174
-39.07
-37.975
-36.894
-35.838
-34.817
-33.84
-32.909
-32.028
-31.193
-30.4
-29.647
-28.923
-28.214
-27.51
-26.8
-26.074
-25.33
-24.558
-23.75
-22.899
-21.989
-21.012
-19.974
-18.878
-17.74
-16.585
-15.43
-14.311
-13.282
-12.386
-11.67
-11.179
-10.949
-11.021
-11.445
-12.256
-13.487
-15.167
-17.314
-19.952
-23.088
-26.712
-30.788
-35.278
-40.155
-45.318
-50.589
-55.707
-60.312
-64.083
-66.823
-68.275
-68.107
-66.29
-62.98
-58.591
-53.983
-49.748
-46.175
-43.814
-43.157
-44.239
-46.594
-48.806
-48.864
-45.404
-38.216
-28.062
-15.506
-0.727
17.072
40.55
71.372
109.889
155.303
202.567
245.102
277.049
291.752
284.607
253.905
198.84
121.747
28.423
-76.131
-187.39
-302.047
-418.118
-528.093
-628.877
-721.232
-782.631
-791.768
-766.781
-728.986
-676.168
-607.898
-531.615
-452.534
-373.802
-299.667
-235.416
-183.581
-144.337
-115.848
-94.261
-77.161
-63.661
-53.839
-48.185
-45.794
-44.8
-43.216
-39.609
-33.826
-26.348
-17.743
-8.838
-0.338
7.05
12.499
15.739
16.939
16.411
14.653
12.163
9.356
6.742
4.85
3.954
4.144
5.395
7.556
10.514
14.18
18.417
23.075
28.02
33.134
38.323
43.517
48.626
53.55
58.194
62.465
66.312
69.717
72.679
75.223
77.378
79.182
80.687
81.952
83.034
83.991
84.872
85.722
86.592
87.529
88.585
89.807
91.228
92.87
94.744
96.858
99.211
101.805
104.631
107.678
110.935
114.394
118.045
121.883
125.896
130.072
134.394
138.846
143.411
148.071
152.808
157.603
162.437
167.29
172.141
176.972
181.762
186.489
191.13
195.659
200.054
204.29
208.342
212.185
215.796
219.149
222.223
224.995
227.446
229.556
231.304
232.673
233.641
234.193
234.321
234.013
233.264
232.073
230.442
228.377
225.889
222.986
219.679
215.99
211.942
207.556
202.861
197.893
192.692
187.29
181.704
175.911
169.874
163.565
156.917
149.802
142.086
133.729
124.749
115.304
105.497
94.899
83.26
70.814
58.221
48.136
41.758
35.801
32.866
38.639
38.761
10.479
