16.401
33.202
39.86
38.032
32.182
25.188
19.516
15.246
10.442
4.536
-2.569
-10.605
-18.511
-25.836
-32.591
-38.692
-44.212
-49.188
-53.529
-57.154
-60.011
-62.05
-63.242
-63.632
-63.295
-62.299
-60.743
-58.73
-56.361
-53.762
-51.035
-48.238
-45.416
-42.61
-39.874
-37.292
-34.954
-32.915
-31.217
-29.895
-28.98
-28.517
-28.519
-28.961
-29.797
-30.97
-32.443
-34.201
-36.23
-38.509
-41.007
-43.676
-46.482
-49.412
-52.443
-55.543
-58.673
-61.777
-64.832
-67.854
-70.871
-73.914
-77.009
-80.171
-83.421
-86.788
-90.3
-93.969
-97.798
-101.787
-105.948
-110.307
-114.896
-119.73
-124.826
-130.208
-135.811
-141.501
-147.079
-152.214
-156.632
-160.194
-162.673
-163.797
-163.582
-162.191
-160.037
-157.978
-156.583
-156.017
-156.677
-158.915
-162.63
-167.654
-172.89
-176.045
-175.626
-170.623
-160.968
-148.335
-133.79
-117.855
-99.602
-76.07
-45.214
-6.035
39.204
84.103
121.388
142.863
141.553
114.457
62.214
-10.562
-95.875
-186.379
-278.636
-371.706
-466.323
-561.376
-649.812
-723.06
-773.817
-797.679
-796.976
-776.31
-739.449
-691.257
-635.058
-574.276
-514.876
-461.154
-415.551
-379.189
-349.825
-324.48
-301.892
-281.581
-264.421
-252.169
-244.766
-240.699
-238.105
-234.873
-230.041
-223.84
-216.626
-208.686
-200.414
-192.288
-184.934
-179.179
-175.413
-173.524
-173.298
-174.392
-176.443
-179.145
-182.082
-184.747
-186.822
-188.153
-188.683
-188.489
-187.633
-186.147
-184.118
-181.651
-178.84
-175.782
-172.55
-169.2
-165.799
-162.417
-159.127
-156.009
-153.128
-150.545
-148.298
-146.397
-144.834
-143.595
-142.652
-141.975
-141.528
-141.261
-141.131
-141.1
-141.129
-141.19
-141.249
-141.267
-141.211
-141.046
-140.747
-140.302
-139.703
-138.945
-138.026
-136.949
-135.72
-134.35
-132.847
-131.219
-129.47
-127.604
-125.629
-123.552
-121.382
-119.129
-116.8
-114.402
-111.944
-109.434
-106.88
-104.288
-101.666
-99.018
-96.352
-93.674
-90.994
-88.317
-85.653
-83.007
-80.388
-77.801
-75.254
-72.752
-70.299
-67.901
-65.561
-63.284
-61.073
-58.93
-56.859
-54.861
-52.94
-51.096
-49.332
-47.648
-46.046
-44.527
-43.09
-41.737
-40.468
-39.282
-38.18
-37.16
-36.223
-35.368
-34.594
-33.9
-33.285
-32.749
-32.29
-31.906
-31.597
-31.36
-31.193
-31.095
-31.064
-31.097
-31.192
-31.347
-31.559
-31.826
-32.143
-32.509
-32.919
-33.37
-33.858
-34.379
-34.929
-35.504
-36.1
-36.712
-37.335
-37.965
-38.597
-39.226
-39.849
-40.459
-41.053
-41.626
-42.174
-42.693
-43.179
-43.628
-44.038
-44.404
-44.723
-44.994
-45.214
-45.38
-45.492
-45.547
-45.546
-45.487
-45.372
-45.198
-44.969
-44.683
-44.342
-43.948
-43.502
-43.006
-42.462
-41.873
-41.243
-40.574
-39.87
-39.136
-38.374
-37.59
-36.788
-35.97
-35.143
-34.308
-33.471
-32.635
-31.805
-30.984
-30.176
-29.386
-28.616
-27.871
-27.151
-26.461
-25.802
-25.175
-24.583
-24.024
-23.501
-23.014
-22.563
-22.148
-21.769
-21.424
-21.111
-20.828
-20.573
-20.341
-20.128
-19.927
-19.735
-19.546
-19.354
-19.154
-18.941
-18.709
-18.454
-18.171
-17.855
-17.498
-17.094
-16.633
-16.108
-15.512
-14.834
-14.068
-13.207
-12.246
-11.181
-10.011
-8.736
-7.351
-5.852
-4.233
-2.49
-0.625
1.362
3.467
5.682
7.994
10.381
12.819
15.291
17.785
20.294
22.818
25.358
27.912
30.484
33.07
35.667
38.272
40.877
43.474
46.068
48.675
51.329
54.07
56.924
59.908
63.031
66.289
69.671
73.156
76.704
80.283
83.871
87.448
91.009
94.55
98.042
101.447
104.705
107.742
110.494
112.908
114.927
116.504
117.611
118.234
118.392
118.093
117.326
116.075
114.307
111.999
109.156
105.789
101.922
97.592
92.844
87.731
82.345
76.767
71.032
65.246
59.546
54.137
49.359
45.495
42.719
41.274
41.432
43.208
46.502
50.984
55.909
60.799
65.497
69.597
72.734
74.962
76.319
77.626
80.892
87.377
97.871
112.608
129.641
147.12
164.209
180.759
199.743
224.942
258.403
300.404
346.158
387.577
415.833
421.302
398.339
346.292
269.058
175.661
74.818
-28.101
-131.108
-234.725
-336.558
-429.437
-503.589
-550.283
-567.209
-558.35
-531.073
-492.191
-444.194
-387.841
-323.652
-254.466
-187.321
-127.987
-80.332
-44.981
-17.463
5.572
25.72
43.411
56.348
63.875
67.648
69.594
72.176
76.694
82.893
90.354
98.742
107.576
116.273
124.119
130.229
134.214
136.241
136.6
135.693
133.949
131.747
129.567
127.964
127.248
127.515
128.764
130.863
133.71
137.248
141.358
145.905
150.77
155.836
161.018
166.247
171.429
176.463
181.247
185.68
189.705
193.299
196.454
199.188
201.532
203.514
205.184
206.597
207.802
208.85
209.786
210.652
211.498
212.378
213.34
214.43
215.679
217.1
218.703
220.483
222.425
224.505
226.693
228.962
231.294
233.683
236.119
238.593
241.093
243.603
246.12
248.642
251.163
253.675
256.168
258.643
261.116
263.618
266.172
268.782
271.433
274.095
276.74
279.331
281.829
284.178
286.306
288.145
289.641
290.757
291.454
291.683
291.378
290.457
288.859
286.549
283.512
279.752
275.272
270.093
264.253
257.818
250.877
243.508
235.771
227.714
219.385
210.846
202.173
193.454
184.756
176.132
167.625
159.273
151.113
143.169
135.447
127.932
120.593
113.413
106.392
99.536
92.854
86.346
80.007
73.831
67.825
61.994
56.346
50.885
45.612
40.533
35.666
31.033
26.662
22.569
18.762
15.244
12.015
9.075
6.42
4.044
1.934
0.076
-1.539
-2.921
-4.079
-5.026
-5.776
-6.346
-6.753
-7.013
-7.14
-7.147
-7.049
-6.857
-6.585
-6.24
-5.831
-5.368
-4.86
-4.315
-3.744
-3.155
-2.556
-1.955
-1.358
-0.772
-0.203
0.345
0.869
1.366
1.833
2.268
2.669
3.035
3.364
3.657
3.911
4.127
4.304
4.441
4.539
4.598
4.617
4.597
4.536
4.435
4.293
4.11
3.885
3.618
3.308
2.956
2.562
2.125
1.648
1.13
0.572
-0.024
-0.657
-1.327
-2.032
-2.771
-3.543
-4.345
-5.176
-6.034
-6.915
-7.817
-8.736
-9.67
-10.613
-11.562
-12.512
-13.459
-14.398
-15.323
-16.228
-17.109
-17.959
-18.772
-19.543
-20.265
-20.933
-21.543
-22.09
-22.57
-22.98
-23.316
-23.578
-23.765
-23.877
-23.912
-23.872
-23.757
-23.569
-23.31
-22.983
-22.59
-22.133
-21.619
-21.051
-20.436
-19.78
-19.089
-18.37
-17.63
-16.875
-16.114
-15.355
-14.604
-13.867
-13.152
-12.467
-11.822
-11.225
-10.677
-10.18
-9.732
-9.33
-8.971
-8.647
-8.342
-8.043
-7.738
-7.411
-7.057
-6.668
-6.234
-5.743
-5.182
-4.545
-3.836
-3.065
-2.238
-1.373
-0.492
0.372
1.161
1.82
2.299
2.533
2.472
2.066
1.262
0.032
-1.654
-3.831
-6.517
-9.73
-13.488
-17.753
-22.503
-27.725
-33.293
-39.019
-44.626
-49.689
-53.866
-56.917
-58.533
-58.493
-56.812
-53.628
-49.48
-45.181
-41.259
-38.224
-36.613
-36.599
-38.16
-40.617
-42.212
-41.287
-36.508
-27.515
-15.364
-0.564
16.594
37.165
63.828
97.746
139.149
185.44
230.37
267.065
287.629
285.107
255.764
199.541
121.314
29.318
-68.135
-166.003
-265.15
-367.234
-468.496
-568.562
-665.158
-732.279
-747.228
-727.893
-699.392
-661.139
-609.604
-549.84
-482.921
-408.871
-333.888
-265.712
-209.837
-169.233
-141.81
-122.651
-108.354
-96.884
-88.305
-83.695
-82.366
-82.535
-82.085
-79.234
-73.682
-65.942
-56.578
-46.422
-36.252
-26.855
-19.211
-13.769
-10.471
-9.084
-9.15
-10.205
-11.876
-13.685
-15.116
-15.886
-15.858
-15.016
-13.483
-11.343
-8.666
-5.578
-2.202
1.351
4.973
8.59
12.125
15.476
18.57
21.342
23.749
25.79
27.448
28.713
29.607
30.15
30.384
30.374
30.174
29.848
29.474
29.122
28.877
28.841
29.076
29.625
30.512
31.717
33.235
35.067
37.201
39.624
42.313
45.231
48.344
51.629
55.044
58.552
62.102
65.625
69.08
72.443
75.704
78.883
81.998
85.056
88.077
91.082
94.089
97.127
100.219
103.368
106.578
109.852
113.194
116.612
120.093
123.615
127.148
130.643
134.053
137.314
140.347
143.064
145.384
147.218
148.481
149.103
149.022
148.189
146.565
144.127
140.874
136.804
131.922
126.24
119.773
112.567
104.708
96.286
87.398
78.151
68.656
59.033
49.402
39.869
30.517
21.415
12.61
4.158
-3.879
-11.443
-18.466
-24.918
-30.805
-36.135
-40.922
-45.197
-49
-52.39
-55.449
-58.237
-60.789
-63.136
-65.287
-67.267
-69.111
-70.852
-72.532
-74.176
-75.789
-77.377
-78.949
-80.497
-82.009
-83.455
-84.782
-85.959
-86.973
-87.816
-88.495
-89.009
-89.35
-89.518
-89.512
-89.333
-88.989
-88.485
-87.823
-87.013
-86.073
-85.026
-83.909
-82.748
-81.56
-80.359
-79.156
-77.959
-76.78
-75.625
-74.495
-73.394
-72.327
-71.299
-70.318
-69.388
-68.508
-67.679
-66.897
-66.16
-65.467
-64.817
-64.208
-63.639
-63.11
-62.621
-62.175
-61.772
-61.412
-61.093
-60.813
-60.572
-60.365
-60.193
-60.052
-59.939
-59.853
-59.793
-59.755
-59.74
-59.745
-59.768
-59.809
-59.865
-59.934
-60.014
-60.103
-60.199
-60.3
-60.403
-60.506
-60.608
-60.707
-60.801
-60.887
-60.965
-61.032
-61.086
-61.125
-61.147
-61.151
-61.133
-61.093
-61.028
-60.938
-60.822
-60.676
-60.501
-60.293
-60.052
-59.775
-59.461
-59.106
-58.709
-58.268
-57.783
-57.252
-56.674
-56.051
-55.383
-54.673
-53.921
-53.13
-52.302
-51.441
-50.548
-49.627
-48.68
-47.711
-46.722
-45.718
-44.705
-43.688
-42.672
-41.665
-40.671
-39.697
-38.749
-37.833
-36.954
-36.114
-35.318
-34.575
-33.893
-33.282
-32.749
-32.295
-31.92
-31.622
-31.396
-31.231
-31.114
-31.025
-30.948
-30.87
-30.786
-30.691
-30.577
-30.431
-30.237
-29.98
-29.653
-29.251
-28.776
-28.23
-27.625
-26.989
-26.359
-25.784
-25.302
-24.945
-24.737
-24.695
-24.852
-25.243
-25.902
-26.867
-28.157
-29.779
-31.742
-34.064
-36.751
-39.783
-43.122
-46.687
-50.428
-54.353
-58.389
-62.385
-66.1
-69.169
-71.28
-72.272
-71.918
-69.906
-66.225
-61.05
-54.826
-48.481
-42.668
-37.738
-34.263
-32.73
-33.172
-34.991
-36.666
-36.254
-32.334
-24.976
-15.142
-2.65
12.74
32.539
59.911
94.8
136.463
183.245
229.39
270.37
300.922
313.743
304.08
268.365
206.775
125.103
31.294
-67.392
-167.643
-269.79
-374.763
-479.795
-576.288
-653.183
-701.212
-717.045
-704.324
-670.203
-621.45
-562.389
-495.374
-422.815
-349.4
-281.368
-223.659
-178.711
-145.09
-118.762
-97.038
-78.579
-63.753
-54.251
-49.681
-48.343
-48.221
-46.876
-43.348
-37.908
-30.881
-22.804
-14.374
-6.133
1.209
6.82
10.443
12.211
12.375
11.377
9.648
7.555
5.561
4.162
3.634
4.082
5.498
7.758
10.758
14.418
18.619
23.227
28.119
33.194
38.372
43.59
48.784
53.873
58.781
63.435
67.773
71.758
75.381
78.652
81.592
84.235
86.617
88.785
90.791
92.687
94.521
96.334
98.164
100.046
102.018
104.117
106.381
108.836
111.499
114.37
117.449
120.728
124.193
127.824
131.594
135.466
139.411
143.401
147.409
151.421
155.421
159.388
163.303
167.147
170.906
174.582
178.178
181.696
185.138
188.512
191.828
195.121
198.414
201.718
205.038
208.356
211.647
214.89
218.054
221.103
223.988
226.641
228.983
230.956
232.502
233.563
234.079
233.967
233.154
231.596
229.259
226.138
222.24
217.576
212.166
206.06
199.32
192.033
184.301
176.202
167.814
159.214
150.479
141.709
132.994
124.399
115.979
107.777
99.825
92.158
84.8
77.754
71.009
64.543
58.32
52.326
46.549
40.977
35.6
30.401
25.364
20.487
15.776
11.236
6.87
2.679
-1.334
-5.156
-8.772
-12.165
-15.313
-18.207
-20.844
-23.221
-25.338
-27.198
-28.808
-30.177
-31.324
-32.261
-33.002
-33.559
-33.945
-34.175
-34.267
-34.236
-34.099
-33.87
-33.565
-33.196
-32.775
-32.314
-31.822
-31.308
-30.779
-30.242
-29.705
-29.175
-28.658
-28.161
-27.689
-27.246
-26.837
-26.465
-26.131
-25.837
-25.583
-25.368
-25.191
-25.05
-24.943
-24.868
-24.822
-24.801
-24.802
-24.82
-24.853
-24.895
-24.943
-24.993
-25.041
-25.084
-25.118
-25.14
-25.147
-25.137
-25.106
-25.054
-24.979
-24.879
-24.753
-24.6
-24.42
-24.214
-23.982
-23.724
-23.442
-23.139
-22.816
-22.476
-22.123
-21.759
-21.389
-21.016
-20.644
-20.278
-19.921
-19.577
-19.25
-18.944
-18.663
-18.41
-18.187
-17.998
-17.845
-17.731
-17.657
-17.626
-17.637
-17.693
-17.793
-17.937
-18.125
-18.355
-18.626
-18.936
-19.283
-19.663
-20.074
-20.511
-20.97
-21.446
-21.935
-22.431
-22.929
-23.422
-23.905
-24.372
-24.818
-25.237
-25.626
-25.978
-26.292
-26.565
-26.792
-26.973
-27.104
-27.185
-27.213
-27.189
-27.111
-26.978
-26.792
-26.554
-26.266
-25.931
-25.552
-25.134
-24.68
-24.195
-23.683
-23.151
-22.603
-22.044
-21.477
-20.909
-20.347
-19.8
-19.273
-18.768
-18.283
-17.817
-17.368
-16.931
-16.499
-16.055
-15.588
-15.085
-14.539
-13.946
-13.302
-12.597
-11.823
-10.969
-10.033
-9.023
-7.947
-6.815
-5.64
-4.439
-3.245
-2.113
-1.088
-0.217
0.452
0.887
1.043
0.878
0.365
-0.529
-1.828
-3.544
-5.7
-8.311
-11.365
-14.862
-18.799
-23.069
-27.513
-31.893
-35.873
-39.176
-41.619
-42.947
-42.859
-41.287
-38.369
-34.505
-30.413
-26.565
-23.08
-20.299
-18.737
-18.538
-19.622
-20.915
-20.322
-16.679
-9.389
1.219
13.561
27.455
43.196
61.911
86.777
118.734
157.469
201.035
243.286
278.956
302.393
306.952
288.52
243.922
174.236
85.943
-12.681
-113.967
-215.109
-316.764
-418.73
-517.057
-601.958
-662.606
-692.367
-690.949
-664.426
-620.704
-565.861
-503.095
-433.784
-360.02
-286.288
-218.781
-162.696
-120.59
-90.715
-68.528
-50.625
-35.098
-22.455
-14.334
-10.176
-8.222
-6.362
-2.661
3.176
10.579
19.17
28.34
37.343
45.439
51.672
55.543
57.185
56.913
55.177
52.437
49.097
45.658
42.704
40.609
39.516
39.439
40.256
41.857
44.181
47.117
50.534
54.314
58.346
62.541
66.83
71.132
75.354
79.407
83.198
86.65
89.72
92.394
94.682
96.609
98.208
99.516
100.583
101.466
102.221
102.901
103.552
104.217
104.94
105.765
106.738
107.895
109.264
110.858
112.687
114.757
117.069
119.612
122.368
125.309
128.41
131.651
135.009
138.457
141.971
145.529
149.119
152.737
156.373
160.012
163.63
167.192
170.676
174.07
177.365
180.555
183.633
186.588
189.421
192.148
194.765
197.252
199.571
201.657
203.462
204.958
206.122
206.943
207.404
207.476
207.138
206.372
205.16
203.483
201.308
198.583
195.286
191.422
187.024
182.159
176.878
171.215
165.207
158.883
152.279
145.439
138.397
131.174
123.805
116.329
108.801
101.295
93.862
86.531
79.31
72.188
65.161
58.241
51.432
44.74
38.173
31.735
25.444
19.326
13.397
7.668
2.137
-3.207
-8.366
-13.332
-18.092
-22.627
-26.922
-30.969
-34.757
-38.277
-41.522
-44.491
-47.188
-49.626
-51.816
-53.765
-55.478
-56.959
-58.216
-59.259
-60.099
-60.749
-61.219
-61.523
-61.673
-61.685
-61.572
-61.346
-61.017
-60.594
-60.086
-59.503
-58.854
-58.147
-57.391
-56.595
-55.765
-54.912
-54.04
-53.158
-52.271
-51.382
-50.497
-49.619
-48.75
-47.895
-47.053
-46.228
-45.419
-44.627
-43.853
-43.097
-42.359
-41.637
-40.93
-40.239
-39.561
-38.894
-38.239
-37.593
-36.955
-36.323
-35.698
-35.077
-34.46
-33.846
-33.235
-32.626
-32.019
-31.413
-30.809
-30.205
-29.603
-29.003
-28.407
-27.814
-27.226
-26.645
-26.073
-25.509
-24.957
-24.419
-23.895
-23.389
-22.901
-22.435
-21.993
-21.576
-21.188
-20.83
-20.504
-20.212
-19.956
-19.738
-19.56
-19.422
-19.327
-19.274
-19.266
-19.302
-19.384
-19.511
-19.682
-19.898
-20.157
-20.458
-20.8
-21.18
-21.597
-22.048
-22.531
-23.042
-23.579
-24.139
-24.717
-25.31
-25.915
-26.525
-27.138
-27.748
-28.35
-28.94
-29.511
-30.06
-30.581
-31.068
-31.517
-31.922
-32.278
-32.58
-32.824
-33.005
-33.121
-33.166
-33.14
-33.04
-32.864
-32.613
-32.287
-31.887
-31.414
-30.871
-30.258
-29.58
-28.84
-28.04
-27.186
-26.28
-25.329
-24.338
-23.315
-22.266
-21.199
-20.12
-19.038
-17.96
-16.896
-15.852
-14.835
-13.849
-12.902
-12.001
-11.157
-10.375
-9.657
-9.001
-8.407
-7.871
-7.391
-6.959
-6.559
-6.175
-5.793
-5.407
-5.013
-4.608
-4.186
-3.734
-3.239
-2.697
-2.112
-1.494
-0.853
-0.195
0.468
1.101
1.655
2.077
2.312
2.328
2.101
1.6
0.802
-0.333
-1.853
-3.787
-6.162
-8.991
-12.266
-16.006
-20.248
-24.917
-29.845
-34.794
-39.421
-43.455
-46.74
-49.065
-50.159
-49.896
-48.37
-45.925
-43.198
-40.787
-38.935
-37.808
-37.779
-39.036
-41.384
-44.345
-46.476
-45.806
-41.285
-32.06
-18.341
-2.14
15.317
33.256
52.799
77.637
110.098
150.86
196.315
238.87
271.245
285.609
276.683
242.878
184.295
105.469
13.169
-87.306
-192.152
-300.223
-410.754
-518.597
-614.37
-687.325
-729.326
-739.013
-721.56
-684.667
-634.601
-574.685
-506.277
-431.372
-354.973
-283.758
-223.112
-175.754
-140.283
-112.75
-90.516
-72.225
-58.15
-49.737
-46.368
-46.185
-47.101
-46.7
-44.013
-39.291
-32.862
-25.292
-17.342
-9.62
-2.865
2.11
5.083
6.217
5.795
4.3
2.21
-0.065
-2.032
-3.217
-3.404
-2.536
-0.664
2.058
5.516
9.609
14.193
19.123
24.27
29.529
34.816
40.054
45.155
50.021
54.558
58.704
62.433
65.736
68.629
71.141
73.303
75.163
76.78
78.207
79.499
80.711
81.886
83.076
84.333
85.703
87.236
88.967
90.917
93.106
95.541
98.218
101.133
104.27
107.609
111.128
114.806
118.612
122.52
126.503
130.529
134.581
138.641
142.688
146.703
150.666
154.561
158.389
162.155
165.863
169.521
173.134
176.71
180.274
183.85
187.45
191.084
194.737
198.388
202.02
205.618
209.166
212.633
215.96
219.066
221.883
224.345
226.387
227.942
228.915
229.214
228.767
227.521
225.456
222.563
218.827
214.229
208.76
202.436
195.317
187.503
179.082
170.139
160.768
151.071
141.187
131.266
121.431
111.776
102.371
93.277
84.571
76.34
68.664
61.595
55.144
49.291
44.016
39.309
35.14
31.462
28.198
25.248
22.543
20.039
17.71
15.528
13.452
11.426
9.398
7.337
5.232
3.086
0.897
-1.339
-3.615
-5.906
-8.166
-10.338
-12.386
-14.297
-16.065
-17.684
-19.144
-20.43
-21.529
-22.444
-23.181
-23.745
-24.142
-24.374
-24.452
-24.398
-24.242
-24.018
-23.751
-23.455
-23.143
-22.826
-22.513
-22.216
-21.94
-21.685
-21.452
-21.248
-21.075
-20.939
-20.843
-20.785
-20.76
-20.765
-20.797
-20.854
-20.933
-21.033
-21.15
-21.285
-21.436
-21.605
-21.791
-21.992
-22.205
-22.428
-22.656
-22.888
-23.119
-23.347
-23.567
-23.778
-23.976
-24.16
-24.327
-24.476
-24.603
-24.709
-24.79
-24.845
-24.874
-24.876
-24.849
-24.795
-24.712
-24.601
-24.462
-24.297
-24.106
-23.89
-23.651
-23.388
-23.103
-22.799
-22.475
-22.134
-21.778
-21.408
-21.027
-20.637
-20.239
-19.837
-19.432
-19.027
-18.623
-18.222
-17.825
-17.435
-17.052
-16.678
-16.313
-15.96
-15.617
-15.287
-14.968
-14.662
-14.367
-14.083
-13.81
-13.547
-13.293
-13.046
-12.805
-12.57
-12.339
-12.11
-11.883
-11.654
-11.424
-11.189
-10.949
-10.702
-10.446
-10.178
-9.898
-9.603
-9.293
-8.965
-8.618
-8.251
-7.863
-7.452
-7.02
-6.564
-6.084
-5.582
-5.058
-4.513
-3.95
-3.37
-2.775
-2.17
-1.558
-0.943
-0.328
0.282
0.884
1.472
2.043
2.593
3.118
3.616
4.082
4.512
4.901
5.247
5.547
5.798
5.994
6.133
6.212
6.233
6.196
6.102
5.951
5.738
5.467
5.142
4.769
4.352
3.899
3.416
2.917
2.426
1.963
1.548
1.195
0.907
0.697
0.578
0.562
0.664
0.886
1.217
1.66
2.21
2.859
3.59
4.362
5.107
5.767
6.286
6.612
6.713
6.55
6.075
5.239
3.988
2.29
0.124
-2.514
-5.65
-9.328
-13.488
-17.978
-22.529
-26.764
-30.371
-33.173
-34.933
-35.349
-34.396
-32.187
-29.093
-25.961
-23.345
-21.426
-20.615
-21.252
-23.204
-26.327
-29.57
-30.69
-28.376
-21.693
-10.426
3.831
20.454
39.311
60.906
87.694
120.396
158.533
200.097
239.49
271.669
290.724
289.634
264.511
213.096
137.469
45.098
-56.979
-163.363
-271.676
-381.946
-490.664
-589.642
-668.099
-716.468
-731.694
-717.631
-681.807
-631.332
-570.427
-501.299
-426.476
-350.984
-281.329
-222.556
-176.904
-142.603
-115.602
-93.323
-74.59
-59.892
-50.744
-46.519
-45.341
-45.084
-43.366
-39.321
-33.282
-25.656
-17.052
-8.225
0.225
7.565
12.991
16.281
17.599
17.229
15.631
13.245
10.447
7.706
5.513
4.149
3.728
4.238
5.554
7.57
10.187
13.274
16.678
20.247
23.857
27.424
30.893
34.231
37.403
40.36
43.05
45.422
47.445
49.132
50.514
51.632
52.544
53.318
54.034
54.803
55.723
56.855
58.237
59.873
61.746
63.862
66.233
68.867
71.775
74.945
78.357
82.005
85.871
89.931
94.147
98.45
102.776
107.09
111.373
115.627
119.868
124.093
128.288
132.454
136.588
140.689
144.754
148.76
152.673
156.469
160.132
163.662
167.072
170.353
173.481
176.436
179.192
181.737
184.069
186.159
187.959
189.432
190.543
191.278
191.642
191.633
191.243
190.461
189.268
187.659
185.643
183.217
180.37
177.091
173.358
169.186
164.628
159.726
154.521
149.045
143.314
137.354
131.203
124.894
118.456
111.916
105.291
98.615
91.935
85.297
78.752
72.328
66.021
59.834
53.776
47.856
42.093
36.495
31.061
25.8
20.728
15.858
11.209
6.785
2.581
-1.407
-5.188
-8.761
-12.113
-15.239
-18.136
-20.805
-23.246
-25.461
-27.447
-29.209
-30.758
-32.109
-33.272
-34.26
-35.08
-35.74
-36.25
-36.623
-36.872
-37.007
-37.041
-36.985
-36.85
-36.65
-36.396
-36.098
-35.765
-35.403
-35.021
-34.625
-34.223
-33.82
-33.422
-33.033
-32.657
-32.299
-31.963
-31.65
-31.362
-31.1
-30.866
-30.658
-30.477
-30.322
-30.191
-30.083
-29.998
-29.932
-29.883
-29.851
-29.831
-29.822
-29.822
-29.828
-29.838
-29.85
-29.861
-29.87
-29.874
-29.873
-29.864
-29.848
-29.822
-29.787
-29.742
-29.687
-29.621
-29.546
-29.462
-29.37
-29.271
-29.166
-29.057
-28.946
-28.834
-28.723
-28.615
-28.512
-28.416
-28.329
-28.253
-28.19
-28.142
-28.111
-28.098
-28.106
-28.136
-28.189
-28.268
-28.373
-28.507
-28.669
-28.862
-29.086
-29.342
-29.631
-29.953
-30.308
-30.696
-31.116
-31.567
-32.049
-32.559
-33.096
-33.658
-34.243
-34.848
-35.47
-36.109
-36.76
-37.421
-38.088
-38.759
-39.431
-40.1
-40.762
-41.415
-42.054
-42.676
-43.278
-43.855
-44.405
-44.922
-45.404
-45.846
-46.243
-46.593
-46.891
-47.133
-47.317
-47.44
-47.5
-47.495
-47.425
-47.291
-47.092
-46.83
-46.508
-46.126
-45.688
-45.195
-44.652
-44.061
-43.425
-42.748
-42.035
-41.291
-40.525
-39.742
-38.95
-38.156
-37.367
-36.59
-35.834
-35.105
-34.407
-33.747
-33.134
-32.578
-32.091
-31.68
-31.347
-31.093
-30.917
-30.814
-30.775
-30.786
-30.831
-30.895
-30.968
-31.046
-31.129
-31.209
-31.277
-31.32
-31.322
-31.279
-31.186
-31.045
-30.858
-30.637
-30.407
-30.204
-30.07
-30.038
-30.13
-30.361
-30.74
-31.288
-32.031
-32.998
-34.22
-35.715
-37.489
-39.553
-41.925
-44.607
-47.579
-50.804
-54.209
-57.757
-61.476
-65.31
-69.129
-72.739
-75.825
-78.111
-79.458
-79.628
-78.276
-75.376
-71.094
-65.799
-60.305
-55.266
-51.037
-48.207
-47.467
-48.591
-50.605
-52.404
-52.263
-49.784
-46.426
-42.279
-36.143
-26.053
-8.124
20.108
57.428
101.9
150.059
196.723
238.309
269.862
284.534
276.845
242.348
180.953
98.503
3.484
-96.421
-197.393
-300.317
-406.13
-508.842
-605.531
-694.941
-752.815
-758.106
-730.033
-691.682
-641.089
-575.933
-503.55
-429.046
-355.531
-288.777
-232.962
-189.068
-156.074
-130.276
-109.013
-91.684
-78.498
-70.418
-66.785
-65.391
-63.884
-60.43
-54.539
-46.601
-37.193
-27.01
-16.816
-7.49
-0.012
5.106
7.908
8.661
7.826
5.873
3.226
0.43
-1.907
-3.391
-3.86
-3.284
-1.766
0.596
3.752
7.593
11.98
16.79
21.905
27.235
32.719
38.273
43.798
49.2
54.375
59.24
63.747
67.872
71.611
74.982
78.007
80.721
83.171
85.41
87.493
89.473
91.395
93.302
95.237
97.241
99.36
101.634
104.091
106.748
109.614
112.685
115.953
119.411
123.036
126.8
130.672
134.612
138.591
142.588
146.583
150.562
154.508
158.401
162.228
165.973
169.626
173.178
176.617
179.928
183.109
186.165
189.113
191.984
194.788
197.518
200.163
202.695
205.085
207.309
209.327
211.098
212.588
213.762
214.592
215.06
215.125
214.736
213.832
212.328
210.174
207.348
203.829
199.622
194.744
189.211
183.06
176.341
169.082
161.323
153.104
144.456
135.452
126.175
116.725
107.226
97.781
88.464
79.351
70.497
61.94
53.727
45.885
38.431
31.412
24.86
18.798
13.253
8.216
3.661
-0.453
-4.192
-7.615
-10.759
-13.663
-16.352
-18.838
-21.146
-23.29
-25.282
-27.157
-28.943
-30.661
-32.337
-33.974
-35.564
-37.091
-38.521
-39.822
-40.978
-41.975
-42.809
-43.487
-44.009
-44.38
-44.608
-44.692
-44.632
-44.43
-44.087
-43.611
-43.016
-42.321
-41.554
-40.742
-39.903
-39.055
-38.209
-37.372
-36.552
-35.754
-34.978
-34.227
-33.504
-32.812
-32.157
-31.541
-30.963
-30.422
-29.915
-29.436
-28.983
-28.552
-28.14
-27.745
-27.365
-27
-26.65
-26.316
-25.995
-25.686
-25.387
-25.096
-24.809
-24.526
-24.242
-23.957
-23.668
-23.373
-23.07
-22.76
-22.44
-22.109
-21.765
-21.407
-21.035
-20.647
-20.242
-19.82
-19.38
-18.922
-18.446
-17.951
-17.437
-16.904
-16.352
-15.781
-15.191
-14.582
-13.953
-13.306
-12.64
-11.955
-11.254
-10.535
-9.801
-9.053
-8.292
-7.519
-6.736
-5.945
-5.147
-4.345
-3.541
-2.737
-1.935
-1.138
-0.348
0.431
1.198
1.95
2.684
3.397
4.088
4.754
5.391
5.998
6.573
7.112
7.615
8.078
8.5
8.879
9.215
9.507
9.754
9.955
10.112
10.224
10.292
10.319
10.305
10.253
10.165
10.046
9.897
9.723
9.528
9.316
9.09
8.856
8.616
8.375
8.136
7.901
7.673
7.456
7.251
7.062
6.892
6.741
6.613
6.512
6.437
6.391
6.373
6.384
6.421
6.483
6.569
6.678
6.805
6.95
7.108
7.278
7.455
7.637
7.817
7.987
8.141
8.279
8.399
8.507
8.607
8.703
8.807
8.934
9.095
9.302
9.564
9.885
10.271
10.73
11.269
11.903
12.637
13.464
14.377
15.359
16.384
17.433
18.465
19.422
20.251
20.905
21.333
21.496
21.35
20.839
19.922
18.564
16.736
14.42
11.594
8.249
4.395
0.076
-4.652
-9.751
-15.106
-20.541
-25.806
-30.547
-34.454
-37.34
-38.961
-38.995
-37.401
-34.308
-30.075
-25.474
-21.013
-16.948
-13.8
-12.108
-12.028
-13.017
-13.582
-11.917
-6.736
1.429
10.795
21.163
32.734
47.674
70.833
103.347
144.956
193.821
242.597
285.067
314.922
324.292
309.143
267.492
201.047
116.527
21.587
-77.506
-178.697
-282.796
-389.781
-495.547
-590.361
-662.716
-703.773
-711.583
-690.534
-647.744
-591.032
-524.986
-452.816
-379.153
-308.417
-245.858
-195.094
-155.661
-125.064
-99.814
-77.796
-59.012
-44.54
-35.616
-31.518
-30.334
-29.998
-28.412
-24.863
-19.639
-13.027
-5.537
2.142
9.482
15.813
20.404
23.1
24.071
23.586
22.087
20.01
17.717
15.657
14.297
13.854
14.396
15.89
18.191
21.197
24.828
28.96
33.459
38.205
43.093
48.04
52.986
57.855
62.563
67.029
71.175
74.959
78.366
81.401
84.09
86.458
88.54
90.383
92.039
93.562
95.002
96.405
97.81
99.261
100.802
102.475
104.317
106.355
108.603
111.071
113.763
116.678
119.805
123.13
126.632
130.291
134.086
137.989
141.969
145.991
150.028
154.057
158.063
162.027
165.932
169.758
173.487
177.111
180.625
184.02
187.287
190.417
193.409
196.275
199.042
201.724
204.323
206.826
209.209
211.452
213.532
215.418
217.079
218.469
219.549
220.287
220.653
220.612
220.121
219.117
217.526
215.29
212.366
208.727
204.368
199.286
193.494
187.016
179.886
172.144
163.828
154.978
145.641
135.877
125.759
115.377
104.843
94.261
83.739
73.375
63.243
53.409
43.923
34.831
26.175
18.002
10.352
3.257
-3.264
-9.207
-14.572
-19.379
-23.67
-27.496
-30.929
-34.028
-36.837
-39.387
-41.703
-43.811
-45.746
-47.547
-49.243
-50.858
-52.407
-53.903
-55.358
-56.775
-58.138
-59.421
-60.58
-61.585
-62.422
-63.084
-63.569
-63.875
-63.993
-63.919
-63.656
-63.212
-62.594
-61.808
-60.861
-59.762
-58.531
-57.198
-55.794
-54.345
-52.868
-51.378
-49.887
-48.405
-46.944
-45.511
-44.107
-42.735
-41.398
-40.1
-38.847
-37.641
-36.481
-35.365
-34.288
-33.251
-32.251
-31.288
-30.36
-29.468
-28.61
-27.789
-27.005
-26.26
-25.552
-24.882
-24.246
-23.644
-23.075
-22.538
-22.03
-21.549
-21.095
-20.667
-20.263
-19.883
-19.526
-19.192
-18.879
-18.587
-18.316
-18.066
-17.838
-17.631
-17.445
-17.282
-17.14
-17.02
-16.922
-16.846
-16.79
-16.756
-16.744
-16.752
-16.781
-16.832
-16.904
-16.999
-17.115
-17.254
-17.415
-17.599
-17.807
-18.038
-18.293
-18.572
-18.875
-19.201
-19.552
-19.925
-20.32
-20.737
-21.173
-21.627
-22.097
-22.58
-23.074
-23.577
-24.086
-24.6
-25.116
-25.634
-26.153
-26.67
-27.185
-27.696
-28.2
-28.693
-29.17
-29.625
-30.053
-30.45
-30.811
-31.132
-31.409
-31.638
-31.819
-31.949
-32.024
-32.041
-31.991
-31.868
-31.673
-31.408
-31.081
-30.702
-30.28
-29.825
-29.352
-28.869
-28.381
-27.887
-27.374
-26.828
-26.243
-25.621
-24.969
-24.298
-23.603
-22.877
-22.112
-21.287
-20.388
-19.396
-18.281
-17.022
-15.614
-14.067
-12.413
-10.694
-8.934
-7.143
-5.32
-3.458
-1.57
0.332
2.233
4.112
5.948
7.709
9.347
10.82
12.106
13.206
14.141
14.948
15.642
16.208
16.62
16.846
16.86
16.64
16.151
15.354
14.223
12.749
10.955
8.867
6.475
3.759
0.68
-2.805
-6.681
-10.915
-15.502
-20.341
-25.263
-30.032
-34.249
-37.554
-39.762
-40.626
-39.889
-37.617
-33.974
-29.352
-24.641
-20.449
-17.062
-15.059
-14.883
-16.409
-19.459
-22.902
-24.405
-22.458
-15.863
-4.473
10
26.338
43.728
63.563
89.397
123.505
166.879
215.573
260.841
293.954
305.246
288.407
242.832
170.372
77.883
-26.589
-137.823
-251.712
-367.103
-481.553
-587.733
-676.383
-737.175
-763.569
-756.477
-720.801
-664.555
-596.044
-520.467
-443.011
-367.953
-298.586
-239.126
-191.099
-154.099
-126.577
-105.249
-88.236
-75.001
-65.646
-60.495
-58.511
-57.739
-56.168
-52.437
-46.454
-38.757
-29.947
-20.819
-12.089
-4.48
1.152
4.479
5.648
4.967
2.914
-0.035
-3.478
-6.924
-9.84
-11.905
-12.995
-13.105
-12.355
-10.845
-8.64
-5.848
-2.598
0.996
4.826
8.805
12.874
16.963
20.989
24.87
28.524
31.879
34.899
37.576
39.916
41.947
43.699
45.213
46.537
47.733
48.856
49.959
51.091
52.29
53.6
55.061
56.713
58.594
60.73
63.134
65.817
68.781
72.02
75.525
79.278
83.251
87.414
91.735
96.175
100.709
105.311
109.959
114.639
119.334
124.03
128.716
133.371
137.977
142.52
146.981
151.342
155.604
159.765
163.842
167.861
171.822
175.721
179.539
183.24
186.785
190.128
193.209
195.982
198.411
200.456
202.096
203.31
204.063
204.316
204.018
203.106
201.545
199.316
196.412
192.856
188.683
183.942
178.713
173.064
167.054
160.736
154.15
147.333
140.337
133.215
126.029
118.853
111.745
104.753
97.922
91.276
84.825
78.568
72.477
66.533
60.726
55.053
49.52
44.139
38.912
33.843
28.937
24.189
19.595
15.155
10.864
6.725
2.747
-1.056
-4.662
-8.05
-11.209
-14.132
-16.817
-19.269
-21.49
-23.489
-25.276
-26.863
-28.256
-29.465
-30.497
-31.361
-32.067
-32.63
-33.064
-33.382
-33.6
-33.728
-33.781
-33.767
-33.697
-33.58
-33.423
-33.231
-33.011
-32.772
-32.52
-32.261
-32.002
-31.748
-31.505
-31.276
-31.065
-30.875
-30.706
-30.56
-30.437
-30.337
-30.258
-30.2
-30.161
-30.138
-30.13
-30.133
-30.144
-30.161
-30.18
-30.197
-30.209
-30.212
-30.203
-30.179
-30.135
-30.07
-29.98
-29.863
-29.718
-29.541
-29.331
-29.088
-28.809
-28.494
-28.143
-27.755
-27.33
-26.87
-26.375
-25.848
-25.29
-24.704
-24.093
-23.46
-22.807
-22.139
-21.459
-20.772
-20.081
-19.39
-18.704
-18.028
-17.365
-16.72
-16.098
-15.502
-14.936
-14.405
-13.91
-13.456
-13.044
-12.677
-12.356
-12.082
-11.857
-11.681
-11.554
-11.475
-11.444
-11.46
-11.521
-11.624
-11.768
-11.948
-12.162
-12.406
-12.675
-12.966
-13.273
-13.592
-13.918
-14.244
-14.567
-14.879
-15.175
-15.45
-15.696
-15.908
-16.082
-16.212
-16.294
-16.325
-16.301
-16.22
-16.083
-15.888
-15.634
-15.323
-14.955
-14.533
-14.057
-13.531
-12.956
-12.337
-11.679
-10.986
-10.266
-9.525
-8.771
-8.009
-7.248
-6.495
-5.757
-5.042
-4.356
-3.708
-3.105
-2.556
-2.074
-1.667
-1.337
-1.087
-0.915
-0.814
-0.782
-0.806
-0.874
-0.971
-1.087
-1.212
-1.34
-1.462
-1.568
-1.649
-1.685
-1.668
-1.599
-1.478
-1.316
-1.134
-0.949
-0.793
-0.714
-0.752
-0.949
-1.348
-1.981
-2.88
-4.088
-5.631
-7.536
-9.83
-12.529
-15.652
-19.207
-23.185
-27.557
-32.29
-37.36
-42.665
-48.027
-53.195
-57.818
-61.573
-64.262
-65.637
-65.392
-63.523
-60.191
-55.789
-51.175
-47.012
-43.605
-41.407
-40.832
-41.807
-44.08
-46.884
-48.253
-46.363
-40.005
-28.079
-11.167
9.009
31.343
55.04
81.139
111.813
148.154
189.405
231.041
266.703
288.947
289.851
265.128
213.318
137.492
45.772
-54.67
-158.248
-263.344
-370.256
-472.717
-569.18
-659.688
-719.827
-728.414
-704.48
-671.032
-626.035
-566.809
-500.48
-431.999
-363.913
-301.107
-247.175
-202.813
-167.337
-138.278
-113.936
-94.024
-78.739
-68.973
-64.137
-62.413
-61.801
-60.073
-56.25
-50.485
-43.09
-34.563
-25.549
-16.608
-8.474
-2.027
2.403
4.913
5.743
5.323
4.077
2.361
0.633
-0.59
-1.013
-0.527
0.869
3.048
5.905
9.373
13.341
17.677
22.267
27.005
31.808
36.622
41.382
46.01
50.433
54.578
58.38
61.814
64.873
67.569
69.926
71.979
73.765
75.332
76.738
78.036
79.277
80.507
81.767
83.098
84.542
86.135
87.915
89.904
92.119
94.57
97.259
100.181
103.327
106.684
110.229
113.938
117.781
121.723
125.736
129.798
133.887
137.989
142.089
146.167
150.21
154.201
158.126
161.976
165.735
169.386
172.925
176.354
179.685
182.947
186.148
189.278
192.322
195.254
198.038
200.646
203.037
205.161
206.992
208.493
209.636
210.404
210.756
210.64
209.998
208.75
206.84
204.238
200.923
196.892
192.167
186.765
180.726
174.103
166.919
159.201
150.993
142.324
133.257
123.872
114.256
104.522
94.784
85.132
75.648
66.401
57.426
48.766
40.452
32.505
24.978
17.914
11.336
5.273
-0.267
-5.301
-9.85
-13.959
-17.703
-21.135
-24.298
-27.231
-29.944
-32.455
-34.787
-36.958
-39.002
-40.951
-42.824
-44.64
-46.419
-48.16
-49.86
-51.501
-53.036
-54.436
-55.684
-56.766
-57.687
-58.447
-59.043
-59.477
-59.749
-59.86
-59.816
-59.62
-59.273
-58.786
-58.171
-57.449
-56.654
-55.81
-54.937
-54.049
-53.155
-52.264
-51.387
-50.528
-49.687
-48.868
-48.072
-47.302
-46.563
-45.859
-45.187
-44.546
-43.932
-43.34
-42.768
-42.216
-41.679
-41.158
-40.65
-40.157
-39.679
-39.218
-38.773
-38.343
-37.927
-37.524
-37.133
-36.753
-36.384
-36.025
-35.675
-35.334
-35.003
-34.682
-34.373
-34.075
-33.789
-33.517
-33.26
-33.019
-32.795
-32.589
-32.402
-32.235
-32.09
-31.966
-31.865
-31.786
-31.73
-31.696
-31.684
-31.694
-31.724
-31.774
-31.841
-31.925
-32.022
-32.131
-32.25
-32.375
-32.502
-32.63
-32.754
-32.87
-32.974
-33.061
-33.126
-33.165
-33.172
-33.142
-33.071
-32.953
-32.784
-32.56
-32.277
-31.932
-31.522
-31.046
-30.504
-29.895
-29.218
-28.474
-27.663
-26.788
-25.851
-24.852
-23.794
-22.681
-21.516
-20.304
-19.051
-17.762
-16.445
-15.106
-13.75
-12.385
-11.02
-9.661
-8.315
-6.988
-5.687
-4.42
-3.198
-2.028
-0.914
0.147
1.154
2.111
3.02
3.89
4.735
5.568
6.4
7.243
8.098
8.971
9.867
10.8
11.781
12.813
13.892
15.003
16.135
17.274
18.403
19.486
20.472
21.31
21.952
22.355
22.487
22.305
21.772
20.859
19.534
17.773
15.559
12.884
9.737
6.142
2.118
-2.328
-7.076
-11.949
-16.705
-20.984
-24.483
-27.022
-28.347
-28.171
-26.502
-23.487
-19.507
-15.393
-11.711
-8.681
-6.771
-6.384
-7.433
-9.755
-12.343
-13.03
-10.358
-3.267
8.435
23.236
39.935
57.65
77.33
101.96
133.666
173.882
219.852
264.19
299.197
315.753
307.073
271.663
210.7
129.798
36.898
-62.263
-164.258
-268.089
-373.159
-474.911
-564.796
-633.04
-671.648
-679.053
-659.293
-618.331
-563.31
-499.319
-429.961
-360.576
-295.767
-238.907
-192.186
-154.084
-121.675
-93.391
-68.513
-47.946
-33.442
-24.815
-20.396
-17.949
-14.885
-10.002
-3.364
4.75
13.834
23.323
32.642
40.984
47.42
51.53
53.386
53.231
51.5
48.64
45.036
41.203
37.721
34.953
33.085
32.185
32.175
32.989
34.589
36.876
39.73
43.042
46.7
50.62
54.735
58.962
63.219
67.417
71.469
75.301
78.851
82.08
84.98
87.557
89.833
91.841
93.617
95.21
96.677
98.072
99.443
100.835
102.285
103.833
105.519
107.375
109.434
111.715
114.225
116.972
119.954
123.162
126.584
130.197
133.97
137.873
141.875
145.944
150.054
154.179
158.296
162.393
166.454
170.469
174.42
178.281
182.029
185.646
189.117
192.434
195.593
198.597
201.451
204.166
206.752
209.202
211.496
213.603
215.484
217.099
218.431
219.463
220.178
220.555
220.566
220.186
219.382
218.115
216.336
213.987
211.02
207.411
203.165
198.297
192.837
186.817
180.242
173.132
165.52
157.443
148.952
140.102
130.955
121.593
112.12
102.647
93.273
84.077
75.103
66.398
58.002
49.955
42.319
35.136
28.429
22.219
16.515
11.314
6.604
2.351
-1.516
-5.06
-8.332
-11.371
-14.192
-16.816
-19.272
-21.585
-23.794
-25.928
-28.001
-30.03
-32.03
-34.005
-35.952
-37.85
-39.653
-41.33
-42.862
-44.236
-45.455
-46.519
-47.423
-48.165
-48.746
-49.168
-49.438
-49.561
-49.538
-49.379
-49.101
-48.725
-48.286
-47.81
-47.315
-46.817
-46.327
-45.854
-45.408
-44.996
-44.62
-44.282
-43.986
-43.735
-43.537
-43.392
-43.301
-43.261
-43.268
-43.318
-43.407
-43.534
-43.694
-43.886
-44.107
-44.355
-44.631
-44.933
-45.259
-45.605
-45.967
-46.343
-46.727
-47.118
-47.51
-47.899
-48.283
-48.659
-49.023
-49.373
-49.707
-50.023
-50.318
-50.59
-50.839
-51.064
-51.262
-51.435
-51.582
-51.704
-51.801
-51.876
-51.928
-51.96
-51.974
-51.972
-51.956
-51.929
-51.891
-51.846
-51.796
-51.743
-51.689
-51.636
-51.587
-51.544
-51.509
-51.484
-51.47
-51.47
-51.483
-51.511
-51.554
-51.613
-51.688
-51.777
-51.88
-51.996
-52.124
-52.261
-52.404
-52.552
-52.7
-52.844
-52.981
-53.107
-53.216
-53.304
-53.366
-53.399
-53.397
-53.357
-53.276
-53.15
-52.978
-52.757
-52.485
-52.161
-51.785
-51.354
-50.868
-50.328
-49.732
-49.081
-48.376
-47.621
-46.818
-45.97
-45.082
-44.158
-43.202
-42.219
-41.215
-40.195
-39.165
-38.131
-37.099
-36.079
-35.081
-34.112
-33.176
-32.276
-31.411
-30.577
-29.772
-28.987
-28.209
-27.429
-26.635
-25.82
-24.98
-24.106
-23.191
-22.227
-21.2
-20.104
-18.944
-17.723
-16.457
-15.171
-13.885
-12.635
-11.477
-10.457
-9.625
-9.032
-8.718
-8.731
-9.123
-9.934
-11.196
-12.939
-15.184
-17.953
-21.259
-25.099
-29.433
-34.218
-39.424
-44.934
-50.567
-56.061
-61.021
-65.096
-68.072
-69.672
-69.571
-67.766
-64.407
-59.879
-55.082
-50.679
-46.961
-44.489
-43.776
-44.732
-47.077
-49.733
-50.461
-47.665
-40.533
-28.843
-13.213
5.635
27.778
54.696
87.251
125.787
169.74
214.458
254.345
283.626
294.826
283.172
246.393
184.461
102.333
6.902
-95.903
-202.08
-310.311
-419.327
-524.344
-616.58
-685.874
-724.741
-732.039
-712.821
-674.75
-624.656
-566.131
-500.016
-427.764
-352.944
-281.291
-219.502
-171.425
-137.127
-113.739
-96.786
-83.451
-72.972
-65.445
-61.14
-58.96
-56.877
-53.4
-47.672
-39.703
-30.102
-19.56
-8.915
0.865
8.825
14.481
17.855
19.202
18.981
17.649
15.601
13.36
11.495
10.36
10.126
10.83
12.361
14.632
17.585
21.106
25.068
29.356
33.857
38.49
43.195
47.893
52.507
56.961
61.175
65.09
68.654
71.838
74.64
77.075
79.17
80.964
82.497
83.819
84.99
86.066
87.097
88.131
89.207
90.366
91.646
93.085
94.715
96.563
98.645
100.968
103.531
106.33
109.355
112.587
115.997
119.551
123.216
126.964
130.776
134.632
138.523
142.434
146.352
150.267
154.161
158.018
161.826
165.564
169.218
172.784
176.267
179.684
183.06
186.398
189.693
192.927
196.065
199.067
201.888
204.468
206.759
208.723
210.322
211.536
212.342
212.705
212.586
211.934
210.686
208.807
206.277
203.089
199.266
194.841
189.864
184.415
178.564
172.367
165.88
159.141
152.188
145.073
137.85
130.578
123.334
116.174
109.148
102.3
95.655
89.222
82.999
76.961
71.084
65.359
59.783
54.359
49.1
44.005
39.078
34.323
29.733
25.304
21.034
16.917
12.954
9.154
5.53
2.103
-1.106
-4.087
-6.832
-9.342
-11.619
-13.668
-15.495
-17.113
-18.532
-19.76
-20.806
-21.677
-22.38
-22.928
-23.333
-23.609
-23.771
-23.83
-23.8
-23.691
-23.514
-23.277
-22.989
-22.654
-22.28
-21.871
-21.435
-20.977
-20.506
-20.025
-19.54
-19.058
-18.582
-18.116
-17.664
-17.227
-16.808
-16.408
-16.028
-15.669
-15.331
-15.014
-14.717
-14.44
-14.182
-13.942
-13.719
-13.512
-13.32
-13.14
-12.973
-12.817
-12.671
-12.534
-12.406
-12.286
-12.174
-12.071
-11.975
-11.888
-11.809
-11.739
-11.679
-11.628
-11.589
-11.56
-11.545
-11.544
-11.558
-11.59
-11.642
-11.715
-11.812
-11.934
-12.085
-12.265
-12.476
-12.721
-13.001
-13.317
-13.671
-14.063
-14.494
-14.964
-15.474
-16.022
-16.609
-17.233
-17.893
-18.587
-19.314
-20.069
-20.852
-21.658
-22.484
-23.326
-24.18
-25.042
-25.907
-26.769
-27.624
-28.465
-29.287
-30.084
-30.849
-31.576
-32.259
-32.894
-33.474
-33.994
-34.451
-34.839
-35.157
-35.402
-35.573
-35.668
-35.686
-35.627
-35.492
-35.28
-34.994
-34.634
-34.203
-33.704
-33.143
-32.524
-31.853
-31.137
-30.382
-29.595
-28.783
-27.954
-27.115
-26.274
-25.438
-24.615
-23.816
-23.053
-22.332
-21.659
-21.037
-20.462
-19.933
-19.447
-18.994
-18.563
-18.144
-17.728
-17.308
-16.882
-16.443
-15.984
-15.497
-14.966
-14.387
-13.764
-13.1
-12.411
-11.717
-11.035
-10.399
-9.859
-9.455
-9.225
-9.211
-9.445
-9.964
-10.816
-12.034
-13.645
-15.673
-18.138
-21.059
-24.446
-28.292
-32.555
-37.196
-42.202
-47.472
-52.832
-58.043
-62.744
-66.619
-69.49
-71.1
-71.106
-69.493
-66.442
-62.324
-57.956
-53.96
-50.633
-48.528
-48.279
-49.649
-51.716
-53.32
-52.637
-49.068
-43.85
-37.26
-28.46
-16.011
3.471
32.613
70.486
115.306
163.721
210.066
250.104
278.73
289.263
276.805
237.823
172.883
87.718
-9.681
-111.659
-214.736
-318.844
-424.226
-528.181
-622.458
-695.881
-739.304
-750.135
-732.386
-694.318
-644.259
-585.392
-518.26
-443.452
-363.054
-284.489
-216.391
-163.931
-128.696
-106.637
-91.501
-79.714
-69.772
-62.171
-57.984
-56.179
-54.663
-51.79
-46.44
-38.621
-29.06
-18.489
-7.801
1.977
9.86
15.342
18.431
19.402
18.747
16.943
14.402
11.671
9.336
7.766
7.145
7.511
8.752
10.776
13.524
16.88
20.716
24.916
29.367
33.986
38.711
43.463
48.164
52.734
57.093
61.176
64.93
68.324
71.354
74.035
76.391
78.459
80.279
81.899
83.379
84.773
86.131
87.501
88.921
90.433
92.076
93.884
95.891
98.118
100.577
103.279
106.223
109.404
112.814
116.435
120.24
124.203
128.288
132.461
136.695
140.965
145.25
149.536
153.809
158.055
162.264
166.419
170.5
174.497
178.39
182.164
185.819
189.355
192.792
196.154
199.446
202.662
205.789
208.791
211.631
214.264
216.632
218.689
220.398
221.722
222.642
223.137
223.172
222.712
221.705
220.09
217.832
214.914
211.329
207.098
202.258
196.859
190.981
184.696
178.061
171.131
163.947
156.546
148.982
141.308
133.584
125.885
118.271
110.79
103.489
96.391
89.508
82.839
76.358
70.042
63.884
57.88
52.036
46.364
40.866
35.546
30.41
25.451
20.667
16.058
11.617
7.346
3.257
-0.64
-4.32
-7.762
-10.956
-13.894
-16.575
-19.001
-21.176
-23.107
-24.805
-26.28
-27.541
-28.595
-29.449
-30.111
-30.594
-30.909
-31.071
-31.095
-30.994
-30.781
-30.469
-30.067
-29.587
-29.037
-28.424
-27.754
-27.037
-26.279
-25.488
-24.673
-23.839
-22.995
-22.147
-21.3
-20.46
-19.631
-18.817
-18.021
-17.245
-16.492
-15.764
-15.063
-14.389
-13.744
-13.128
-12.543
-11.987
-11.463
-10.968
-10.502
-10.066
-9.659
-9.279
-8.928
-8.604
-8.309
-8.04
-7.8
-7.588
-7.403
-7.247
-7.118
-7.016
-6.941
-6.892
-6.871
-6.878
-6.912
-6.974
-7.066
-7.188
-7.341
-7.526
-7.742
-7.991
-8.272
-8.585
-8.931
-9.309
-9.719
-10.161
-10.634
-11.139
-11.673
-12.235
-12.823
-13.434
-14.066
-14.715
-15.378
-16.05
-16.727
-17.408
-18.087
-18.764
-19.434
-20.095
-20.743
-21.373
-21.983
-22.564
-23.111
-23.616
-24.071
-24.472
-24.813
-25.09
-25.298
-25.434
-25.497
-25.488
-25.402
-25.237
-24.986
-24.642
-24.208
-23.688
-23.089
-22.424
-21.704
-20.941
-20.153
-19.356
-18.557
-17.759
-16.954
-16.131
-15.289
-14.434
-13.578
-12.73
-11.892
-11.061
-10.238
-9.414
-8.577
-7.71
-6.777
-5.753
-4.632
-3.416
-2.131
-0.805
0.545
1.908
3.276
4.641
5.989
7.308
8.592
9.828
10.995
12.053
12.943
13.614
14.038
14.199
14.093
13.725
13.094
12.196
11.033
9.606
7.908
5.924
3.631
1.009
-1.943
-5.195
-8.71
-12.457
-16.418
-20.582
-24.935
-29.441
-34.086
-38.882
-43.788
-48.685
-53.363
-57.498
-60.775
-62.969
-63.856
-63.17
-60.798
-56.901
-51.886
-46.478
-41.444
-37.232
-34.186
-32.835
-33.473
-35.884
-39.425
-42.523
-43.085
-39.781
-31.802
-19.166
-2.802
16.527
38.741
65.316
97.671
136.391
180.699
225.521
264.81
292.716
301.9
288.063
249.074
184.199
98.038
-3.423
-115.139
-231.939
-351.112
-468.856
-577.188
-666.917
-728.694
-757.402
-755.339
-728.857
-685.753
-631.65
-568.295
-496.415
-417.998
-338.348
-265.085
-204.303
-158.884
-126.955
-103.534
-85.084
-69.835
-58.071
-51.221
-48.531
-47.919
-47.124
-44.155
-38.575
-30.869
-21.56
-11.406
-1.301
7.843
15.037
19.788
22.201
22.596
21.445
19.233
16.408
13.515
11.141
9.657
9.196
9.759
11.221
13.469
16.439
20.016
24.064
28.462
33.097
37.882
42.748
47.618
52.396
56.994
61.324
65.311
68.916
72.127
74.955
77.428
79.58
81.448
83.082
84.54
85.877
87.146
88.397
89.669
91.007
92.456
94.06
95.86
97.88
100.134
102.626
105.355
108.316
111.499
114.89
118.468
122.213
126.107
130.133
134.275
138.511
142.82
147.178
151.559
155.94
160.298
164.608
168.846
172.986
177.005
180.88
184.587
188.104
191.407
194.473
197.277
199.799
202.019
203.917
205.475
206.679
207.513
207.968
208.035
207.705
206.974
205.84
204.301
202.359
200.018
197.282
194.159
190.659
186.791
182.57
178.009
173.126
167.938
162.464
156.724
150.74
144.535
138.132
131.555
124.828
117.977
111.027
104.004
96.932
89.836
82.74
75.67
68.647
61.694
54.831
48.08
41.458
34.983
28.671
22.538
16.597
10.861
5.34
0.044
-5.018
-9.839
-14.415
-18.741
-22.813
-26.631
-30.194
-33.503
-36.559
-39.367
-41.929
-44.252
-46.341
-48.203
-49.845
-51.277
-52.507
-53.543
-54.397
-55.077
-55.594
-55.958
-56.178
-56.265
-56.228
-56.077
-55.821
-55.47
-55.033
-54.518
-53.933
-53.287
-52.586
-51.838
-51.05
-50.228
-49.377
-48.503
-47.612
-46.708
-45.795
-44.878
-43.96
-43.044
-42.134
-41.231
-40.339
-39.458
-38.591
-37.738
-36.901
-36.081
-35.28
-34.499
-33.739
-33.002
-32.288
-31.599
-30.937
-30.301
-29.693
-29.113
-28.564
-28.045
-27.557
-27.103
-26.683
-26.299
-25.952
-25.643
-25.372
-25.141
-24.95
-24.799
-24.689
-24.62
-24.591
-24.602
-24.654
-24.747
-24.88
-25.053
-25.265
-25.513
-25.797
-26.114
-26.46
-26.831
-27.225
-27.638
-28.065
-28.505
-28.954
-29.409
-29.868
-30.328
-30.787
-31.239
-31.68
-32.103
-32.502
-32.869
-33.2
-33.486
-33.723
-33.906
-34.032
-34.102
-34.113
-34.064
-33.949
-33.762
-33.499
-33.16
-32.746
-32.26
-31.71
-31.104
-30.465
-29.813
-29.163
-28.527
-27.909
-27.302
-26.706
-26.117
-25.528
-24.941
-24.353
-23.76
-23.165
-22.572
-21.972
-21.348
-20.665
-19.875
-18.953
-17.88
-16.646
-15.255
-13.714
-12.037
-10.263
-8.422
-6.544
-4.653
-2.757
-0.862
1.007
2.816
4.509
6.013
7.28
8.268
8.928
9.226
9.13
8.631
7.762
6.547
5.004
3.136
0.927
-1.635
-4.553
-7.81
-11.374
-15.207
-19.287
-23.591
-28.08
-32.704
-37.391
-42.116
-46.914
-51.765
-56.566
-61.106
-65.05
-68.102
-70.084
-70.802
-70
-67.593
-63.684
-58.662
-53.384
-48.622
-44.804
-42.386
-41.798
-43.164
-46.432
-50.632
-53.568
-53.496
-49.14
-40.445
-29.022
-15.193
1.209
21.454
48.845
83.82
125.311
170.922
213.966
248.852
270.343
271.584
249.277
201.738
129.622
39
-63.58
-172.421
-284.618
-399.095
-510.2
-618.03
-723.362
-799.486
-820.338
-803.933
-775.059
-731.22
-670.578
-600.35
-522.715
-439.286
-355.483
-278.568
-215.705
-169.921
-139.672
-120.736
-107.635
-97.213
-89.082
-83.408
-80.504
-79.366
-77.864
-74.594
-68.951
-61.141
-51.872
-41.98
-32.317
-23.77
-17.262
-13.173
-11.382
-11.553
-13.164
-15.698
-18.715
-21.686
-24.036
-25.427
-25.727
-24.938
-23.198
-20.63
-17.312
-13.371
-8.949
-4.175
0.834
5.978
11.186
16.377
21.455
26.332
30.919
35.144
38.97
42.391
45.416
48.072
50.391
52.415
54.194
55.79
57.259
58.657
60.035
61.437
62.912
64.509
66.269
68.233
70.424
72.859
75.549
78.497
81.695
85.134
88.794
92.652
96.686
100.87
105.169
109.554
113.992
118.459
122.942
127.422
131.88
136.295
140.646
144.919
149.117
153.233
157.259
161.193
165.028
168.779
172.474
176.131
179.756
183.337
186.842
190.246
193.528
196.654
199.591
202.291
204.691
206.754
208.452
209.746
210.596
210.935
210.674
209.748
208.112
205.736
202.617
198.75
194.135
188.802
182.792
176.156
168.956
161.22
152.97
144.26
135.146
125.716
116.085
106.347
96.593
86.921
77.407
68.123
59.135
50.47
42.152
34.204
26.648
19.542
12.936
6.851
1.3
-3.722
-8.246
-12.297
-15.913
-19.162
-22.094
-24.75
-27.166
-29.347
-31.303
-33.056
-34.627
-36.057
-37.386
-38.63
-39.81
-40.941
-42.022
-43.052
-44.013
-44.86
-45.566
-46.113
-46.492
-46.71
-46.772
-46.674
-46.419
-46.005
-45.435
-44.714
-43.847
-42.837
-41.693
-40.431
-39.072
-37.652
-36.199
-34.73
-33.263
-31.806
-30.371
-28.967
-27.602
-26.276
-24.994
-23.757
-22.571
-21.441
-20.37
-19.358
-18.405
-17.505
-16.656
-15.857
-15.107
-14.405
-13.748
-13.138
-12.575
-12.061
-11.597
-11.183
-10.819
-10.503
-10.234
-10.011
-9.834
-9.7
-9.608
-9.556
-9.544
-9.569
-9.632
-9.73
-9.861
-10.024
-10.217
-10.438
-10.685
-10.956
-11.249
-11.562
-11.892
-12.238
-12.595
-12.962
-13.335
-13.711
-14.087
-14.458
-14.82
-15.171
-15.504
-15.816
-16.102
-16.357
-16.577
-16.757
-16.891
-16.975
-17.005
-16.974
-16.88
-16.719
-16.486
-16.18
-15.798
-15.34
-14.806
-14.194
-13.506
-12.742
-11.905
-10.994
-10.014
-8.965
-7.851
-6.676
-5.446
-4.167
-2.848
-1.495
-0.118
1.276
2.677
4.076
5.465
6.837
8.183
9.492
10.751
11.945
13.065
14.104
15.056
15.921
16.7
17.397
18.024
18.596
19.127
19.625
20.095
20.536
20.953
21.356
21.756
22.166
22.594
23.036
23.492
23.954
24.409
24.831
25.179
25.401
25.458
25.32
24.963
24.375
23.527
22.383
20.913
19.086
16.884
14.307
11.347
7.991
4.245
0.123
-4.329
-9.028
-13.928
-19.027
-24.259
-29.493
-34.505
-38.938
-42.466
-44.874
-45.931
-45.357
-43.061
-39.159
-34.039
-28.528
-23.456
-19.336
-16.615
-15.738
-16.826
-19.662
-23.662
-27.071
-27.662
-23.912
-14.423
0.687
19.535
40.858
63.484
88.11
117.762
154.155
197.803
245.174
288.353
319.19
328.579
310.363
263.589
190.342
97.331
-7.431
-118.536
-233.129
-350.509
-468.904
-581.752
-678.012
-746.159
-778.458
-774.89
-741.864
-687.832
-620.938
-545.477
-464.34
-381.833
-302.442
-232.473
-176.391
-134.49
-104.737
-82.735
-65.042
-50.632
-39.858
-33.547
-31.05
-30.389
-29.24
-25.863
-20.007
-12.192
-3.012
6.712
16.23
24.758
31.295
35.405
37.202
36.989
35.264
32.524
29.187
25.779
22.897
20.907
19.954
20.047
21.052
22.853
25.382
28.519
32.123
36.068
40.235
44.533
48.896
53.252
57.509
61.58
65.377
68.825
71.886
74.554
76.838
78.767
80.377
81.709
82.815
83.757
84.593
85.379
86.164
86.989
87.9
88.942
90.161
91.598
93.277
95.212
97.409
99.866
102.58
105.54
108.733
112.137
115.734
119.504
123.431
127.498
131.684
135.968
140.325
144.73
149.159
153.589
157.995
162.351
166.634
170.818
174.88
178.796
182.542
186.095
189.429
192.521
195.348
197.889
200.124
202.035
203.604
204.818
205.663
206.13
206.212
205.901
205.194
204.09
202.588
200.691
198.404
195.733
192.686
189.275
185.51
181.405
176.977
172.242
167.219
161.927
156.388
150.624
144.657
138.512
132.212
125.783
119.25
112.638
105.972
99.276
92.576
85.896
79.258
72.685
66.199
59.819
53.565
47.454
41.503
35.728
30.142
24.758
19.587
14.639
9.922
5.444
1.21
-2.777
-6.512
-9.995
-13.225
-16.203
-18.932
-21.415
-23.657
-25.663
-27.44
-28.995
-30.338
-31.475
-32.418
-33.177
-33.761
-34.181
-34.449
-34.576
-34.572
-34.449
-34.218
-33.888
-33.471
-32.977
-32.415
-31.795
-31.125
-30.415
-29.673
-28.906
-28.121
-27.326
-26.527
-25.729
-24.939
-24.161
-23.399
-22.658
-21.941
-21.251
-20.591
-19.964
-19.37
-18.812
-18.291
-17.808
-17.365
-16.961
-16.597
-16.275
-15.993
-15.753
-15.554
-15.398
-15.283
-15.211
-15.182
-15.195
-15.251
-15.35
-15.492
-15.677
-15.903
-16.171
-16.479
-16.827
-17.212
-17.635
-18.092
-18.582
-19.104
-19.656
-20.234
-20.838
-21.462
-22.106
-22.765
-23.436
-24.115
-24.798
-25.481
-26.159
-26.828
-27.483
-28.118
-28.728
-29.308
-29.852
-30.354
-30.809
-31.211
-31.554
-31.835
-32.049
-32.192
-32.26
-32.253
-32.168
-32.005
-31.762
-31.441
-31.04
-30.561
-30.005
-29.374
-28.669
-27.894
-27.052
-26.149
-25.191
-24.185
-23.136
-22.053
-20.942
-19.811
-18.668
-17.521
-16.376
-15.242
-14.127
-13.041
-11.995
-11
-10.056
-9.168
-8.333
-7.549
-6.812
-6.115
-5.443
-4.788
-4.14
-3.495
-2.852
-2.206
-1.552
-0.88
-0.18
0.553
1.314
2.099
2.898
3.693
4.466
5.19
5.819
6.315
6.649
6.787
6.702
6.37
5.753
4.825
3.569
1.962
-0.01
-2.362
-5.118
-8.274
-11.806
-15.691
-19.905
-24.374
-28.964
-33.455
-37.535
-40.934
-43.459
-44.909
-45.034
-43.705
-41.033
-37.389
-33.434
-29.785
-26.734
-24.583
-23.809
-24.688
-27.173
-30.375
-32.475
-31.925
-27.617
-19.659
-9.326
3.26
17.982
35.835
60.138
91.698
130.584
175.709
221.091
261.123
289.444
297.988
281.833
238.37
169.565
82.428
-14.763
-115.318
-217.751
-322.87
-429.829
-533.533
-622.973
-686.851
-718.245
-717.166
-689.457
-642.01
-581.788
-513.41
-440.448
-368.938
-303.632
-247.521
-202.282
-165.336
-133.035
-104.053
-77.975
-55.871
-39.924
-30.21
-24.992
-22.292
-19.837
-16.089
-10.906
-4.58
2.736
10.7
18.76
26.443
33.053
37.869
40.781
41.971
41.683
40.357
38.417
36.21
34.199
32.851
32.38
32.861
34.262
36.438
39.287
42.732
46.653
50.92
55.418
60.044
64.712
69.36
73.91
78.279
82.383
86.143
89.513
92.478
95.049
97.256
99.132
100.719
102.065
103.228
104.265
105.231
106.176
107.139
108.161
109.285
110.552
112.009
113.686
115.6
117.757
120.151
122.778
125.626
128.675
131.896
135.252
138.707
142.235
145.82
149.447
153.098
156.757
160.399
164.006
167.573
171.095
174.567
177.978
181.318
184.586
187.797
190.975
194.143
197.303
200.44
203.528
206.546
209.473
212.284
214.945
217.395
219.575
221.435
222.931
224.021
224.65
224.743
224.215
223.002
221.057
218.368
214.929
210.728
205.764
200.041
193.581
186.455
178.728
170.46
161.718
152.573
143.116
133.472
123.762
114.083
104.518
95.125
85.956
77.082
68.562
60.45
52.79
45.587
38.843
32.57
26.756
21.385
16.416
11.776
7.4
3.253
-0.699
-4.471
-8.079
-11.554
-14.924
-18.209
-21.438
-24.619
-27.759
-30.872
-33.955
-36.996
-39.969
-42.827
-45.534
-48.073
-50.431
-52.605
-54.596
-56.397
-58.006
-59.428
-60.659
-61.699
-62.55
-63.209
-63.683
-63.987
-64.138
-64.165
-64.095
-63.943
-63.724
-63.449
-63.124
-62.758
-62.356
-61.918
-61.448
-60.952
-60.434
-59.903
-59.363
-58.815
-58.262
-57.702
-57.133
-56.556
-55.971
-55.378
-54.778
-54.175
-53.57
-52.969
-52.376
-51.793
-51.223
-50.668
-50.13
-49.61
-49.11
-48.632
-48.175
-47.742
-47.334
-46.953
-46.6
-46.276
-45.98
-45.715
-45.479
-45.273
-45.097
-44.95
-44.831
-44.739
-44.673
-44.632
-44.614
-44.616
-44.635
-44.67
-44.717
-44.773
-44.833
-44.894
-44.951
-44.998
-45.032
-45.048
-45.042
-45.007
-44.941
-44.839
-44.698
-44.515
-44.286
-44.01
-43.686
-43.313
-42.891
-42.418
-41.896
-41.324
-40.705
-40.04
-39.33
-38.576
-37.783
-36.955
-36.096
-35.212
-34.308
-33.389
-32.463
-31.534
-30.612
-29.702
-28.81
-27.943
-27.105
-26.305
-25.554
-24.858
-24.221
-23.641
-23.119
-22.651
-22.234
-21.861
-21.518
-21.192
-20.87
-20.543
-20.207
-19.859
-19.491
-19.092
-18.648
-18.154
-17.617
-17.048
-16.459
-15.861
-15.273
-14.73
-14.285
-13.989
-13.891
-14.034
-14.455
-15.197
-16.302
-17.804
-19.738
-22.136
-25.016
-28.388
-32.259
-36.603
-41.395
-46.624
-52.174
-57.867
-63.467
-68.645
-73.132
-76.767
-79.314
-80.473
-80.198
-78.596
-76.006
-73.119
-70.345
-67.862
-66.107
-65.509
-66.207
-67.805
-68.951
-67.964
-63.754
-56.508
-47.702
-38.142
-27.92
-15.923
1.496
26.813
60.971
103.891
150.701
194.4
227.657
241.604
230.076
191.142
126.918
44.065
-48.857
-145.375
-243.627
-344.333
-447.934
-550.813
-643.298
-714.134
-754.772
-763.343
-744.677
-705.805
-653.81
-593.173
-526.493
-458.107
-392.568
-333.53
-283.67
-242.048
-205.847
-173.744
-145.237
-121.116
-103.258
-91.894
-85.663
-82.713
-80.681
-77.793
-73.53
-67.933
-61.23
-53.778
-46.055
-38.544
-31.913
-26.931
-23.839
-22.524
-22.749
-24.081
-26.087
-28.408
-30.571
-32.067
-32.634
-32.173
-30.692
-28.332
-25.196
-21.362
-16.961
-12.14
-7.028
-1.742
3.627
9.013
14.331
19.487
24.393
28.962
33.146
36.926
40.306
43.309
45.966
48.315
50.406
52.295
54.039
55.692
57.304
58.914
60.565
62.299
64.161
66.194
68.43
70.887
73.567
76.469
79.583
82.897
86.393
90.037
93.793
97.624
101.504
105.416
109.349
113.287
117.21
121.099
124.936
128.716
132.437
136.093
139.672
143.166
146.574
149.914
153.224
156.524
159.816
163.083
166.294
169.424
172.45
175.338
178.038
180.486
182.622
184.405
185.812
186.812
187.353
187.367
186.766
185.49
183.515
180.835
177.462
173.399
168.656
163.271
157.317
150.878
144.027
136.811
129.257
121.415
113.372
105.227
97.088
89.034
81.112
73.368
65.843
58.582
51.625
44.981
38.626
32.536
26.711
21.169
15.946
11.049
6.442
2.088
-2.043
-5.963
-9.668
-13.163
-16.463
-19.583
-22.527
-25.285
-27.83
-30.146
-32.242
-34.134
-35.849
-37.394
-38.745
-39.892
-40.829
-41.563
-42.108
-42.469
-42.639
-42.622
-42.434
-42.092
-41.622
-41.036
-40.339
-39.531
-38.617
-37.606
-36.521
-35.38
-34.192
-32.969
-31.719
-30.454
-29.192
-27.941
-26.704
-25.482
-24.278
-23.097
-21.946
-20.831
-19.755
-18.719
-17.724
-16.77
-15.856
-14.984
-14.149
-13.352
-12.587
-11.855
-11.154
-10.486
-9.848
-9.24
-8.66
-8.106
-7.578
-7.075
-6.595
-6.137
-5.699
-5.282
-4.883
-4.504
-4.143
-3.8
-3.475
-3.166
-2.873
-2.596
-2.334
-2.087
-1.854
-1.635
-1.431
-1.241
-1.065
-0.902
-0.753
-0.617
-0.494
-0.383
-0.282
-0.191
-0.107
-0.031
0.041
0.111
0.18
0.252
0.33
0.415
0.513
0.625
0.756
0.908
1.085
1.289
1.522
1.787
2.085
2.416
2.78
3.179
3.613
4.081
4.583
5.119
5.689
6.293
6.929
7.596
8.292
9.012
9.755
10.517
11.293
12.082
12.879
13.679
14.478
15.272
16.058
16.833
17.59
18.32
19.019
19.685
20.323
20.934
21.525
22.101
22.671
23.252
23.86
24.507
25.203
25.952
26.76
27.631
28.579
29.614
30.74
31.95
33.227
34.556
35.919
37.295
38.642
39.904
41.024
41.947
42.627
43.027
43.101
42.809
42.116
40.984
39.388
37.306
34.735
31.67
28.136
24.15
19.719
14.951
10.026
5.19
0.782
-2.906
-5.692
-7.324
-7.473
-6.089
-3.298
0.52
4.571
8.34
11.58
13.787
14.476
13.527
11.312
9.212
9.161
12.442
19.117
28.075
38.45
50.039
63.92
83.42
110.949
147.348
192.115
239.979
284.115
318.479
335.612
330.703
301.565
246.787
169.762
76.753
-26.426
-134.485
-244.906
-356.865
-466.894
-567.473
-648.979
-702.536
-723.448
-714.057
-680.304
-628.422
-564.32
-490.804
-410.866
-329.693
-252.843
-186.891
-135.348
-97.929
-72.199
-53.958
-41.26
-33.012
-28.019
-25.576
-22.788
-17.779
-10.834
-2.237
6.211
13.601
20.973
28.487
36.142
43.494
49.094
52.389
53.579
52.957
51.115
48.56
45.609
42.704
40.334
38.763
38.088
38.299
39.27
40.889
43.064
45.674
48.595
51.737
55.036
58.425
61.845
65.226
68.486
71.558
74.384
76.911
79.109
80.978
82.549
83.886
85.071
86.163
87.201
88.204
89.194
90.202
91.267
92.421
93.69
95.101
96.681
98.471
100.5
102.772
105.272
107.961
110.792
113.736
116.775
119.9
123.098
126.354
129.66
133.013
136.416
139.862
143.337
146.814
150.277
153.721
157.146
160.557
163.96
167.356
170.756
174.182
177.647
181.147
184.659
188.137
191.544
194.843
197.999
200.975
203.712
206.151
208.251
209.985
211.321
212.218
212.604
212.384
211.487
209.877
207.544
204.507
200.773
196.355
191.282
185.605
179.399
172.733
165.643
158.142
150.261
142.06
133.635
125.12
116.612
108.18
99.878
91.74
83.812
76.143
68.75
61.628
54.763
48.151
41.824
35.842
30.238
25.012
20.132
15.536
11.187
7.072
3.175
-0.517
-4.02
-7.356
-10.521
-13.494
-16.261
-18.821
-21.196
-23.437
-25.568
-27.592
-29.5
-31.26
-32.86
-34.299
-35.573
-36.675
-37.599
-38.343
-38.919
-39.354
-39.664
-39.858
-39.936
-39.886
-39.709
-39.415
-39.02
-38.544
-38.006
-37.416
-36.79
-36.146
-35.498
-34.857
-34.227
-33.604
-32.991
-32.391
-31.81
-31.254
-30.728
-30.232
-29.767
-29.332
-28.926
-28.548
-28.195
-27.864
-27.552
-27.256
-26.978
-26.717
-26.474
-26.249
-26.04
-25.847
-25.67
-25.508
-25.36
-25.225
-25.103
-24.993
-24.895
-24.81
-24.738
-24.68
-24.635
-24.605
-24.589
-24.588
-24.603
-24.633
-24.678
-24.74
-24.818
-24.913
-25.025
-25.155
-25.301
-25.464
-25.643
-25.838
-26.046
-26.268
-26.5
-26.741
-26.99
-27.242
-27.495
-27.747
-27.994
-28.232
-28.458
-28.668
-28.857
-29.022
-29.159
-29.264
-29.333
-29.363
-29.351
-29.296
-29.194
-29.047
-28.853
-28.61
-28.32
-27.983
-27.599
-27.169
-26.695
-26.178
-25.62
-25.024
-24.394
-23.735
-23.052
-22.348
-21.63
-20.902
-20.171
-19.444
-18.726
-18.022
-17.337
-16.675
-16.043
-15.451
-14.904
-14.401
-13.942
-13.524
-13.146
-12.805
-12.491
-12.191
-11.892
-11.581
-11.25
-10.9
-10.527
-10.128
-9.692
-9.209
-8.677
-8.105
-7.507
-6.894
-6.276
-5.668
-5.105
-4.64
-4.325
-4.215
-4.343
-4.739
-5.438
-6.464
-7.854
-9.65
-11.88
-14.562
-17.702
-21.294
-25.35
-29.901
-34.897
-40.179
-45.502
-50.536
-54.999
-58.708
-61.442
-62.898
-62.884
-61.491
-59.115
-56.423
-54.035
-52.296
-51.514
-52.173
-54.697
-58.759
-63.108
-66.183
-66.421
-63.469
-58.452
-51.625
-42.167
-28.724
-8.478
20.646
57.798
101.312
148.036
192.318
229.792
255.91
264.409
251.152
213.08
149.404
65.024
-33.072
-138.116
-245.729
-354.854
-460.757
-562.044
-666.929
-759.331
-797.709
-780.843
-748.343
-713.766
-664.911
-601.357
-529.52
-451.904
-373.429
-301.513
-241.713
-196.429
-163.571
-138.635
-118.731
-102.642
-90.92
-84.755
-83.179
-83.903
-84.423
-82.729
-78.337
-71.629
-63.119
-53.522
-43.686
-34.568
-27.234
-22.237
-19.536
-18.858
-19.738
-21.704
-24.319
-27.029
-29.223
-30.521
-30.779
-29.996
-28.303
-25.815
-22.6
-18.777
-14.488
-9.856
-4.996
0.004
5.08
10.152
15.126
19.913
24.422
28.58
32.352
35.725
38.71
41.338
43.639
45.656
47.438
49.042
50.526
51.945
53.343
54.764
56.252
57.856
59.625
61.602
63.811
66.264
68.961
71.898
75.065
78.444
82.003
85.707
89.524
93.431
97.417
101.471
105.575
109.711
113.857
118.001
122.146
126.29
130.424
134.546
138.648
142.742
146.856
151.01
155.214
159.46
163.717
167.958
172.155
176.271
180.263
184.068
187.604
190.806
193.626
196.011
197.918
199.284
200.021
200.067
199.377
197.925
195.712
192.743
189.019
184.572
179.451
173.727
167.495
160.835
153.801
146.458
138.863
131.09
123.234
115.369
107.549
99.825
92.229
84.796
77.566
70.551
63.747
57.136
50.686
44.379
38.217
32.195
26.313
20.566
14.939
9.429
4.046
-1.204
-6.313
-11.276
-16.092
-20.75
-25.229
-29.507
-33.557
-37.362
-40.916
-44.211
-47.243
-50.011
-52.514
-54.757
-56.752
-58.508
-60.034
-61.337
-62.424
-63.306
-63.996
-64.508
-64.856
-65.053
-65.11
-65.038
-64.851
-64.558
-64.169
-63.691
-63.132
-62.5
-61.803
-61.051
-60.251
-59.412
-58.541
-57.646
-56.735
-55.814
-54.889
-53.966
-53.048
-52.141
-51.247
-50.37
-49.513
-48.677
-47.866
-47.08
-46.32
-45.589
-44.886
-44.211
-43.565
-42.947
-42.359
-41.798
-41.265
-40.76
-40.281
-39.828
-39.401
-38.998
-38.619
-38.263
-37.929
-37.615
-37.32
-37.043
-36.784
-36.54
-36.311
-36.096
-35.894
-35.704
-35.526
-35.359
-35.202
-35.055
-34.918
-34.79
-34.671
-34.559
-34.454
-34.356
-34.264
-34.176
-34.092
-34.01
-33.93
-33.851
-33.77
-33.688
-33.603
-33.514
-33.418
-33.315
-33.204
-33.082
-32.947
-32.799
-32.635
-32.453
-32.251
-32.028
-31.781
-31.507
-31.205
-30.871
-30.504
-30.101
-29.659
-29.177
-28.653
-28.086
-27.476
-26.821
-26.123
-25.382
-24.6
-23.778
-22.917
-22.02
-21.088
-20.124
-19.13
-18.107
-17.058
-15.987
-14.898
-13.795
-12.683
-11.566
-10.447
-9.332
-8.224
-7.13
-6.054
-4.999
-3.968
-2.967
-2
-1.075
-0.196
0.636
1.426
2.177
2.894
3.585
4.258
4.928
5.611
6.319
7.061
7.843
8.67
9.547
10.486
11.5
12.592
13.756
14.979
16.244
17.539
18.842
20.119
21.321
22.395
23.29
23.965
24.386
24.512
24.308
23.738
22.769
21.372
19.526
17.219
14.441
11.207
7.521
3.379
-1.12
-5.809
-10.447
-14.681
-18.211
-20.856
-22.356
-22.4
-20.954
-18.143
-14.364
-10.492
-7.123
-4.492
-3.083
-3.348
-5.272
-8.784
-12.788
-14.909
-13.723
-8.199
1.865
14.792
30.031
47.537
67.982
94.225
127.25
166.871
211.223
254.268
290.444
313.145
314.625
290.793
239.263
162.082
67.068
-38.274
-148.125
-259.509
-372.349
-483.975
-586.66
-670.163
-724.923
-745.941
-735.822
-701.083
-648.453
-584.204
-511.347
-432.708
-353.081
-277.113
-210.611
-157.303
-117.137
-88.238
-66.804
-49.912
-36.68
-27.237
-22.047
-20.331
-20.212
-19.604
-16.972
-12.101
-5.457
2.402
10.663
18.618
25.553
30.597
33.429
34.201
33.218
30.983
28.001
24.693
21.577
19.205
17.87
17.673
18.599
20.497
23.252
26.778
30.936
35.572
40.551
45.752
51.081
56.469
61.822
67.04
72.026
76.687
80.972
84.859
88.345
91.451
94.204
96.64
98.809
100.769
102.575
104.284
105.945
107.603
109.308
111.105
113.04
115.157
117.486
120.047
122.85
125.893
129.169
132.666
136.365
140.241
144.269
148.417
152.655
156.958
161.298
165.657
170.015
174.35
178.642
182.87
187.018
191.087
195.079
198.995
202.839
206.618
210.342
214.041
217.731
221.419
225.106
228.775
232.403
235.973
239.467
242.86
246.119
249.191
252.01
254.522
256.667
258.378
259.585
260.194
260.127
259.338
257.791
255.473
252.384
248.517
243.873
238.468
232.329
225.5
218.055
210.055
201.579
192.722
183.591
174.322
165.032
155.808
146.72
137.828
129.18
120.83
112.832
105.223
98.039
91.314
85.054
79.269
73.951
69.066
64.569
60.388
56.463
52.757
49.247
45.915
42.748
39.728
36.838
34.067
31.397
28.8
26.26
23.762
21.3
18.891
16.559
14.341
12.267
10.358
8.62
7.055
5.662
4.436
3.371
2.454
1.68
1.051
0.568
0.229
0.029
-0.05
-0.028
0.066
0.209
0.378
0.554
0.725
0.88
1.011
1.114
1.188
1.229
1.233
1.193
1.103
0.96
0.762
0.512
0.21
-0.138
-0.529
-0.959
-1.423
-1.918
-2.441
-2.99
-3.564
-4.161
-4.779
-5.414
-6.064
-6.723
-7.389
-8.057
-8.723
-9.384
-10.037
-10.679
-11.308
-11.921
-12.517
-13.095
-13.653
-14.19
-14.706
-15.201
-15.674
-16.127
-16.56
-16.975
-17.374
-17.758
-18.129
-18.491
-18.846
-19.197
-19.546
-19.896
-20.251
-20.612
-20.983
-21.367
-21.765
-22.18
-22.614
-23.068
-23.546
-24.046
-24.571
-25.121
-25.696
-26.294
-26.917
-27.562
-28.229
-28.915
-29.618
-30.336
-31.067
-31.806
-32.549
-33.294
-34.036
-34.769
-35.491
-36.194
-36.875
-37.528
-38.148
-38.729
-39.266
-39.754
-40.186
-40.559
-40.867
-41.107
-41.276
-41.371
-41.389
-41.331
-41.196
-40.984
-40.697
-40.336
-39.902
-39.399
-38.829
-38.196
-37.504
-36.755
-35.956
-35.114
-34.235
-33.327
-32.396
-31.45
-30.498
-29.548
-28.61
-27.692
-26.799
-25.94
-25.122
-24.353
-23.647
-23.01
-22.444
-21.951
-21.53
-21.181
-20.902
-20.683
-20.511
-20.369
-20.243
-20.126
-20.015
-19.905
-19.788
-19.656
-19.495
-19.303
-19.088
-18.857
-18.618
-18.381
-18.162
-17.993
-17.93
-18.025
-18.335
-18.906
-19.768
-20.956
-22.495
-24.42
-26.776
-29.59
-32.885
-36.675
-40.959
-45.753
-51.099
-56.94
-63.108
-69.349
-75.306
-80.661
-85.211
-88.712
-90.857
-91.485
-90.696
-88.87
-86.702
-84.852
-83.662
-83.369
-84.311
-86.648
-90.133
-94.087
-97.323
-98.16
-95.108
-87.09
-72.833
-52.759
-29.147
-3.927
20.62
44.792
72.311
105.62
145.79
189.692
229.265
256.123
261.3
239.117
189.005
113.175
18.806
-87.033
-200.164
-316.981
-436.196
-553.288
-658.625
-741.853
-793.155
-809.211
-793.899
-754.143
-698.474
-632.445
-559.396
-483.099
-407.024
-336.271
-275.109
-224.988
-185.672
-154.499
-129.33
-109.395
-94.497
-85.507
-81.731
-81.141
-81.561
-80.531
-76.971
-71.101
-63.324
-54.27
-44.735
-35.385
-27.039
-20.609
-16.404
-14.3
-14.011
-15.054
-16.954
-19.3
-21.59
-23.294
-24.119
-23.955
-22.813
-20.826
-18.104
-14.731
-10.831
-6.546
-2.001
2.701
7.477
12.266
17
21.598
25.984
30.085
33.842
37.224
40.224
42.857
45.149
47.138
48.87
50.394
51.773
53.063
54.317
55.586
56.912
58.336
59.901
61.644
63.604
65.807
68.272
71.006
74.007
77.267
80.776
84.515
88.46
92.582
96.842
101.209
105.655
110.16
114.711
119.288
123.872
128.442
132.976
137.464
141.901
146.277
150.577
154.791
158.913
162.958
166.954
170.921
174.857
178.741
182.535
186.209
189.733
193.072
196.186
199.013
201.495
203.595
205.291
206.557
207.351
207.605
207.225
206.143
204.326
201.767
198.484
194.489
189.793
184.431
178.456
171.946
164.971
157.571
149.758
141.568
133.063
124.341
115.536
106.748
98.045
89.483
81.096
72.932
65.038
57.436
50.12
43.079
36.312
29.852
23.762
18.075
12.792
7.882
3.282
-1.043
-5.107
-8.927
-12.513
-15.884
-19.059
-22.037
-24.797
-27.327
-29.627
-31.723
-33.666
-35.482
-37.178
-38.743
-40.149
-41.383
-42.448
-43.338
-44.049
-44.577
-44.922
-45.097
-45.131
-45.041
-44.837
-44.523
-44.086
-43.529
-42.864
-42.107
-41.282
-40.407
-39.496
-38.564
-37.633
-36.715
-35.824
-34.964
-34.133
-33.332
-32.566
-31.84
-31.161
-30.532
-29.955
-29.428
-28.952
-28.525
-28.144
-27.806
-27.507
-27.242
-27.008
-26.804
-26.628
-26.48
-26.357
-26.256
-26.176
-26.113
-26.065
-26.029
-26.002
-25.981
-25.963
-25.947
-25.929
-25.91
-25.886
-25.857
-25.822
-25.781
-25.732
-25.675
-25.611
-25.54
-25.461
-25.377
-25.287
-25.192
-25.095
-24.995
-24.895
-24.797
-24.701
-24.61
-24.525
-24.448
-24.38
-24.323
-24.278
-24.247
-24.23
-24.23
-24.249
-24.286
-24.343
-24.421
-24.521
-24.643
-24.788
-24.953
-25.14
-25.348
-25.574
-25.819
-26.08
-26.356
-26.646
-26.947
-27.258
-27.576
-27.898
-28.223
-28.547
-28.867
-29.18
-29.484
-29.774
-30.047
-30.3
-30.53
-30.733
-30.904
-31.042
-31.142
-31.2
-31.213
-31.179
-31.094
-30.956
-30.763
-30.514
-30.207
-29.843
-29.422
-28.945
-28.415
-27.831
-27.198
-26.516
-25.79
-25.022
-24.215
-23.374
-22.5
-21.6
-20.678
-19.74
-18.791
-17.839
-16.887
-15.942
-15.01
-14.1
-13.217
-12.364
-11.545
-10.765
-10.029
-9.346
-8.719
-8.147
-7.628
-7.158
-6.734
-6.352
-6.003
-5.669
-5.337
-4.989
-4.619
-4.223
-3.797
-3.334
-2.824
-2.253
-1.618
-0.927
-0.191
0.582
1.386
2.207
3.013
3.751
4.369
4.817
5.057
5.065
4.806
4.254
3.369
2.108
0.441
-1.655
-4.193
-7.167
-10.596
-14.513
-18.852
-23.446
-28.049
-32.309
-35.952
-38.814
-40.679
-41.264
-40.43
-38.276
-35.197
-31.908
-29.017
-26.754
-25.367
-25.287
-26.748
-29.68
-33.161
-35.24
-34.266
-29.206
-20.071
-8.203
5.727
21.445
39.408
62.697
93.597
132.955
180.493
230.456
274.682
305.649
315.207
298.913
257.153
192.429
109.756
15.283
-87.295
-197.588
-313.05
-426.252
-536.42
-643.472
-719.349
-736.285
-715.451
-684.832
-639.565
-576.745
-504.779
-427.855
-350.078
-277.2
-215.354
-168.049
-134.067
-110.032
-91.455
-75.354
-61.442
-50.677
-43.908
-40.492
-38.584
-36.073
-31.568
-25.02
-16.99
-8.07
0.972
9.486
16.828
22.179
25.231
26.146
25.221
22.944
19.802
16.2
12.622
9.605
7.469
6.348
6.266
7.11
8.78
11.213
14.296
17.905
21.923
26.244
30.777
35.449
40.175
44.862
49.418
53.752
57.789
61.487
64.826
67.812
70.469
72.823
74.912
76.78
78.481
80.067
81.588
83.089
84.613
86.201
87.896
89.739
91.765
93.995
96.442
99.11
102.003
105.117
108.438
111.95
115.632
119.461
123.412
127.456
131.558
135.686
139.815
143.923
147.996
152.019
155.975
159.848
163.626
167.296
170.854
174.288
177.584
180.737
183.751
186.644
189.448
192.177
194.82
197.361
199.775
202.036
204.12
205.995
207.612
208.934
209.929
210.574
210.858
210.745
210.181
209.099
207.422
205.101
202.128
198.499
194.216
189.294
183.756
177.64
171.015
163.932
156.415
148.494
140.201
131.592
122.765
113.833
104.899
96.049
87.339
78.82
70.549
62.567
54.9
47.565
40.554
33.882
27.596
21.737
16.327
11.363
6.804
2.591
-1.315
-4.944
-8.322
-11.466
-14.402
-17.149
-19.705
-22.07
-24.237
-26.219
-28.055
-29.782
-31.416
-32.96
-34.394
-35.687
-36.827
-37.804
-38.606
-39.226
-39.662
-39.911
-39.992
-39.921
-39.711
-39.368
-38.884
-38.253
-37.482
-36.582
-35.573
-34.479
-33.318
-32.107
-30.868
-29.617
-28.367
-27.129
-25.905
-24.696
-23.505
-22.337
-21.2
-20.102
-19.045
-18.032
-17.065
-16.142
-15.264
-14.428
-13.633
-12.874
-12.15
-11.461
-10.807
-10.189
-9.607
-9.06
-8.549
-8.072
-7.627
-7.215
-6.832
-6.476
-6.146
-5.841
-5.558
-5.298
-5.059
-4.84
-4.64
-4.46
-4.298
-4.154
-4.027
-3.919
-3.828
-3.755
-3.7
-3.664
-3.647
-3.65
-3.673
-3.718
-3.784
-3.873
-3.984
-4.119
-4.276
-4.455
-4.658
-4.882
-5.127
-5.393
-5.678
-5.983
-6.306
-6.646
-7.002
-7.372
-7.755
-8.148
-8.549
-8.955
-9.365
-9.774
-10.181
-10.58
-10.971
-11.348
-11.709
-12.049
-12.365
-12.653
-12.909
-13.13
-13.312
-13.452
-13.547
-13.593
-13.59
-13.535
-13.428
-13.268
-13.056
-12.791
-12.476
-12.11
-11.696
-11.235
-10.729
-10.181
-9.591
-8.965
-8.304
-7.613
-6.897
-6.161
-5.41
-4.65
-3.885
-3.122
-2.366
-1.624
-0.9
-0.199
0.475
1.115
1.715
2.267
2.773
3.235
3.653
4.032
4.376
4.695
5.003
5.316
5.645
6.003
6.397
6.833
7.319
7.867
8.49
9.192
9.968
10.806
11.699
12.635
13.598
14.553
15.447
16.228
16.847
17.254
17.409
17.262
16.765
15.888
14.595
12.858
10.662
7.984
4.8
1.127
-3.024
-7.633
-12.559
-17.621
-22.576
-27.052
-30.758
-33.478
-34.914
-34.856
-33.374
-30.646
-27.105
-23.464
-20.125
-17.35
-15.643
-15.231
-15.939
-17.434
-18.471
-17.162
-12.388
-3.078
10.777
27.357
45.404
63.748
83.18
107.218
138.362
177.793
222.56
264.969
296.421
307.727
292.257
248.499
179.367
92.326
-4.06
-103.872
-204.966
-307.614
-409.55
-503.943
-580.93
-631.272
-651.828
-646.227
-620.739
-581.134
-531.395
-473.328
-410.008
-347.378
-290.056
-240.992
-200.535
-165.145
-132.397
-101.941
-74.542
-52.548
-37.213
-27.952
-23.019
-20.063
-17.345
-13.758
-8.986
-3.292
3.284
10.568
18.04
25.254
31.566
36.255
39.149
40.362
40.088
38.715
36.622
34.128
31.666
29.689
28.447
28.053
28.503
29.684
31.511
33.916
36.799
40.048
43.555
47.229
50.994
54.793
58.569
62.25
65.765
69.045
72.029
74.686
77.015
79.032
80.764
82.247
83.517
84.62
85.61
86.539
87.453
88.394
89.394
90.489
91.721
93.132
94.759
96.621
98.725
101.07
103.647
106.442
109.437
112.601
115.896
119.294
122.766
126.297
129.876
133.484
137.098
140.696
144.259
147.783
151.267
154.707
158.1
161.446
164.752
168.045
171.347
174.667
178.006
181.342
184.643
187.881
191.028
194.048
196.896
199.513
201.833
203.809
205.4
206.559
207.231
207.333
206.787
205.537
203.538
200.774
197.253
192.979
187.967
182.253
175.886
168.927
161.449
153.496
145.103
136.322
127.213
117.875
108.416
98.932
89.516
80.242
71.164
62.337
53.805
45.589
37.703
30.156
22.95
16.118
9.705
3.742
-1.755
-6.797
-11.419
-15.656
-19.555
-23.155
-26.485
-29.572
-32.436
-35.082
-37.513
-39.732
-41.742
-43.566
-45.246
-46.814
-48.297
-49.705
-51.033
-52.269
-53.39
-54.377
-55.213
-55.887
-56.399
-56.753
-56.959
-57.029
-56.977
-56.808
-56.518
-56.106
-55.572
-54.92
-54.165
-53.325
-52.424
-51.484
-50.529
-49.576
-48.64
-47.732
-46.856
-46.018
-45.218
-44.458
-43.743
-43.075
-42.461
-41.903
-41.401
-40.955
-40.561
-40.216
-39.917
-39.66
-39.442
-39.259
-39.111
-38.996
-38.914
-38.866
-38.849
-38.864
-38.907
-38.977
-39.071
-39.189
-39.326
-39.48
-39.65
-39.834
-40.031
-40.239
-40.456
-40.683
-40.918
-41.159
-41.408
-41.663
-41.924
-42.191
-42.464
-42.743
-43.029
-43.321
-43.621
-43.928
-44.243
-44.565
-44.897
-45.236
-45.584
-45.94
-46.304
-46.676
-47.054
-47.439
-47.829
-48.224
-48.622
-49.022
-49.424
-49.825
-50.223
-50.616
-51.002
-51.379
-51.745
-52.096
-52.431
-52.745
-53.037
-53.303
-53.54
-53.745
-53.914
-54.045
-54.134
-54.177
-54.172
-54.116
-54.005
-53.837
-53.608
-53.318
-52.963
-52.543
-52.054
-51.498
-50.874
-50.181
-49.422
-48.598
-47.713
-46.768
-45.767
-44.714
-43.614
-42.47
-41.288
-40.072
-38.828
-37.561
-36.277
-34.984
-33.688
-32.397
-31.119
-29.861
-28.629
-27.432
-26.279
-25.175
-24.126
-23.137
-22.212
-21.359
-20.585
-19.895
-19.29
-18.766
-18.319
-17.948
-17.646
-17.402
-17.201
-17.025
-16.857
-16.689
-16.516
-16.33
-16.123
-15.882
-15.59
-15.242
-14.841
-14.396
-13.913
-13.398
-12.862
-12.338
-11.877
-11.53
-11.349
-11.367
-11.612
-12.115
-12.905
-14.021
-15.511
-17.4
-19.714
-22.466
-25.654
-29.293
-33.415
-37.944
-42.717
-47.499
-51.96
-55.824
-58.921
-61.027
-61.858
-61.286
-59.4
-56.538
-53.332
-50.381
-47.961
-46.287
-45.766
-46.614
-48.656
-51.402
-53.417
-52.768
-48.352
-39.252
-25.572
-9.005
9.455
29.024
50.584
77.222
110.733
151.74
197.307
240.323
273.071
287.036
275.224
235.222
169.187
83.408
-13.158
-113.241
-214.758
-317.785
-421.915
-523.257
-612.021
-677.625
-712.847
-716.598
-693.649
-650.483
-594.325
-530.364
-462.423
-395.874
-334.424
-280.553
-236.068
-199.427
-168.291
-141.67
-118.823
-100.242
-87.391
-79.905
-76.022
-73.672
-70.458
-65.236
-58.226
-49.846
-40.491
-30.671
-20.966
-12.117
-5.073
-0.289
2.346
3.094
2.369
0.606
-1.831
-4.467
-6.738
-8.295
-8.97
-8.709
-7.601
-5.724
-3.121
0.105
3.838
7.971
12.394
17.027
21.805
26.65
31.483
36.226
40.795
45.124
49.155
52.853
56.211
59.24
61.96
64.406
66.613
68.627
70.504
72.295
74.048
75.808
77.612
79.498
81.506
83.667
86.012
88.565
91.333
94.325
97.541
100.973
104.61
108.436
112.423
116.544
120.765
125.054
129.385
133.736
138.084
142.417
146.72
150.977
155.18
159.307
163.341
167.268
171.068
174.731
178.257
181.648
184.92
188.091
191.167
194.143
197.008
199.731
202.279
204.616
206.698
208.502
210.011
211.199
212.052
212.543
212.636
212.291
211.454
210.061
208.062
205.421
202.116
198.161
193.578
188.398
182.662
176.392
169.598
162.314
154.571
146.416
137.908
129.115
120.118
111.029
101.961
93.014
84.272
75.784
67.588
59.722
52.218
45.13
38.509
32.387
26.784
21.714
17.18
13.173
9.667
6.601
3.894
1.48
-0.689
-2.643
-4.402
-5.993
-7.45
-8.815
-10.123
-11.396
-12.652
-13.909
-15.183
-16.481
-17.796
-19.095
-20.332
-21.475
-22.506
-23.418
-24.209
-24.873
-25.401
-25.786
-26.029
-26.136
-26.113
-25.962
-25.686
-25.29
-24.791
-24.215
-23.593
-22.947
-22.294
-21.644
-21.009
-20.396
-19.815
-19.27
-18.76
-18.284
-17.844
-17.441
-17.08
-16.76
-16.478
-16.231
-16.011
-15.817
-15.646
-15.494
-15.358
-15.237
-15.129
-15.034
-14.952
-14.883
-14.826
-14.779
-14.739
-14.706
-14.676
-14.65
-14.623
-14.595
-14.565
-14.53
-14.492
-14.449
-14.401
-14.347
-14.288
-14.223
-14.154
-14.081
-14.004
-13.926
-13.847
-13.768
-13.692
-13.62
-13.554
-13.495
-13.446
-13.407
-13.382
-13.371
-13.376
-13.399
-13.442
-13.507
-13.594
-13.705
-13.842
-14.005
-14.195
-14.414
-14.66
-14.934
-15.236
-15.565
-15.92
-16.301
-16.706
-17.133
-17.581
-18.047
-18.529
-19.024
-19.529
-20.041
-20.556
-21.07
-21.58
-22.081
-22.569
-23.04
-23.489
-23.911
-24.302
-24.658
-24.972
-25.241
-25.461
-25.629
-25.741
-25.795
-25.788
-25.72
-25.591
-25.401
-25.149
-24.836
-24.464
-24.033
-23.547
-23.007
-22.415
-21.775
-21.091
-20.369
-19.613
-18.832
-18.03
-17.213
-16.389
-15.565
-14.747
-13.943
-13.158
-12.398
-11.67
-10.981
-10.342
-9.76
-9.235
-8.767
-8.355
-7.994
-7.679
-7.402
-7.148
-6.905
-6.661
-6.406
-6.139
-5.853
-5.544
-5.202
-4.814
-4.375
-3.888
-3.358
-2.796
-2.217
-1.636
-1.083
-0.605
-0.244
-0.046
-0.057
-0.305
-0.828
-1.657
-2.81
-4.323
-6.224
-8.541
-11.3
-14.514
-18.16
-22.232
-26.736
-31.589
-36.646
-41.664
-46.27
-50.159
-53.138
-54.992
-55.46
-54.443
-52.015
-48.524
-44.761
-41.392
-38.722
-37.131
-37.001
-38.453
-41.484
-45.109
-47.074
-45.699
-39.817
-29.572
-16.98
-2.541
14.079
34.466
62.461
98.967
143.059
191.982
238.897
278.027
303.273
307.602
286.894
238.513
164.402
71.84
-30.865
-136.493
-242.87
-350.888
-459.83
-564.72
-654.089
-716.037
-743.856
-737.875
-706.003
-657.629
-598.979
-532.98
-460.518
-383.43
-307.041
-238.515
-183.15
-143.192
-116.259
-97.121
-82.024
-68.984
-58.325
-51.394
-47.73
-45.699
-43.25
-38.657
-31.711
-23.007
-13.13
-2.893
6.966
15.742
22.546
26.995
29.223
29.529
28.401
26.325
23.711
21.061
18.924
17.635
17.331
18.025
19.596
21.94
24.986
28.619
32.709
37.139
41.801
46.608
51.491
56.367
61.144
65.735
70.048
74.01
77.579
80.738
83.495
85.877
87.914
89.649
91.129
92.411
93.552
94.605
95.62
96.643
97.716
98.885
100.196
101.692
103.406
105.355
107.545
109.974
112.636
115.518
118.601
121.86
125.262
128.778
132.382
136.051
139.77
143.525
147.295
151.06
154.799
158.496
162.151
165.767
169.343
172.882
176.388
179.87
183.362
186.885
190.447
194.051
197.67
201.275
204.845
208.353
211.766
215.048
218.136
220.96
223.472
225.621
227.349
228.595
229.258
229.25
228.514
227.012
224.737
221.699
217.896
213.335
208.048
202.071
195.469
188.319
180.661
172.546
164.044
155.237
146.255
137.23
128.254
119.401
110.725
102.264
94.073
86.199
78.659
71.472
64.641
58.166
52.084
46.429
41.198
36.376
31.91
27.73
23.8
20.098
16.601
13.301
10.178
7.21
4.405
1.766
-0.711
-3.032
-5.231
-7.343
-9.377
-11.332
-13.186
-14.904
-16.471
-17.883
-19.127
-20.2
-21.102
-21.833
-22.407
-22.846
-23.158
-23.348
-23.412
-23.341
-23.143
-22.829
-22.416
-21.932
-21.392
-20.815
-20.219
-19.621
-19.032
-18.462
-17.914
-17.387
-16.884
-16.41
-15.971
-15.573
-15.221
-14.916
-14.657
-14.444
-14.274
-14.146
-14.056
-13.999
-13.973
-13.976
-14.008
-14.068
-14.155
-14.269
-14.407
-14.569
-14.752
-14.954
-15.171
-15.403
-15.645
-15.896
-16.154
-16.417
-16.684
-16.953
-17.223
-17.494
-17.763
-18.031
-18.296
-18.558
-18.817
-19.073
-19.326
-19.578
-19.828
-20.077
-20.328
-20.582
-20.839
-21.102
-21.372
-21.651
-21.94
-22.241
-22.555
-22.885
-23.232
-23.598
-23.985
-24.395
-24.829
-25.288
-25.775
-26.29
-26.833
-27.405
-28.007
-28.637
-29.297
-29.985
-30.702
-31.445
-32.215
-33.009
-33.826
-34.663
-35.519
-36.389
-37.272
-38.163
-39.059
-39.956
-40.85
-41.737
-42.611
-43.468
-44.303
-45.11
-45.885
-46.62
-47.312
-47.954
-48.542
-49.072
-49.539
-49.94
-50.273
-50.535
-50.725
-50.842
-50.885
-50.853
-50.746
-50.566
-50.311
-49.984
-49.584
-49.116
-48.583
-47.989
-47.341
-46.642
-45.899
-45.118
-44.305
-43.468
-42.612
-41.744
-40.872
-40.003
-39.147
-38.316
-37.519
-36.76
-36.042
-35.364
-34.722
-34.113
-33.526
-32.948
-32.366
-31.769
-31.148
-30.5
-29.816
-29.089
-28.312
-27.467
-26.548
-25.56
-24.508
-23.409
-22.289
-21.17
-20.093
-19.117
-18.295
-17.678
-17.319
-17.257
-17.535
-18.206
-19.306
-20.872
-22.933
-25.506
-28.611
-32.254
-36.422
-41.072
-46.156
-51.627
-57.365
-63.183
-68.82
-73.899
-78.089
-81.188
-82.932
-82.992
-81.336
-78.088
-73.602
-68.732
-64.087
-59.888
-56.644
-54.878
-54.583
-55.602
-56.909
-56.283
-52.301
-44.398
-32.712
-18.296
-1.748
17.496
41.39
71.521
108.396
150.909
194.225
232.668
260.984
273.452
266.281
237.27
185.229
111.917
22.19
-79.071
-187.94
-300.957
-416.328
-529.791
-632.293
-714.347
-767.402
-786.703
-775.168
-738.894
-683.833
-616.386
-540.428
-459.521
-380.14
-308.157
-248.01
-202.016
-167.735
-140.83
-118.662
-99.696
-84.497
-74.932
-70.466
-69.264
-69.171
-67.598
-63.595
-57.533
-49.833
-41.13
-32.212
-23.684
-16.29
-10.86
-7.622
-6.397
-6.886
-8.604
-11.077
-13.901
-16.586
-18.628
-19.752
-19.859
-18.962
-17.188
-14.643
-11.412
-7.618
-3.4
1.117
5.827
10.639
15.485
20.291
24.971
29.444
33.636
37.485
40.961
44.059
46.793
49.19
51.29
53.133
54.769
56.259
57.656
59.013
60.375
61.784
63.28
64.906
66.701
68.7
70.925
73.388
76.092
79.037
82.216
85.622
89.24
93.051
97.037
101.182
105.468
109.881
114.401
119.006
123.674
128.382
133.106
137.825
142.515
147.151
151.711
156.17
160.506
164.695
168.714
172.54
176.149
179.518
182.625
185.45
187.972
190.175
192.041
193.556
194.707
195.486
195.883
195.892
195.509
194.731
193.559
191.994
190.04
187.704
184.993
181.917
178.488
174.719
170.626
166.226
161.537
156.578
151.371
145.938
140.303
134.489
128.52
122.423
116.222
109.942
103.61
97.251
90.89
84.552
78.26
72.038
65.907
59.89
54.005
48.273
42.71
37.334
32.158
27.198
22.464
17.968
13.72
9.726
5.993
2.526
-0.672
-3.599
-6.255
-8.641
-10.76
-12.616
-14.214
-15.56
-16.661
-17.526
-18.165
-18.587
-18.803
-18.825
-18.665
-18.335
-17.847
-17.215
-16.451
-15.569
-14.581
-13.499
-12.338
-11.108
-9.822
-8.491
-7.126
-5.738
-4.338
-2.933
-1.534
-0.149
1.216
2.553
3.855
5.119
6.338
7.51
8.63
9.696
10.706
11.658
12.553
13.389
14.167
14.887
15.551
16.161
16.718
17.224
17.682
18.094
18.464
18.795
19.089
19.35
19.58
19.784
19.964
20.123
20.265
20.392
20.508
20.613
20.712
20.806
20.896
20.985
21.073
21.162
21.252
21.345
21.44
21.538
21.638
21.739
21.842
21.946
22.048
22.148
22.243
22.333
22.415
22.487
22.548
22.593
22.622
22.631
22.618
22.581
22.515
22.42
22.292
22.129
21.929
21.69
21.41
21.089
20.724
20.317
19.865
19.37
18.831
18.248
17.623
16.957
16.251
15.506
14.726
13.912
13.068
12.197
11.303
10.389
9.459
8.519
7.572
6.625
5.683
4.751
3.836
2.943
2.079
1.251
0.465
-0.275
-0.962
-1.59
-2.157
-2.657
-3.088
-3.447
-3.733
-3.944
-4.079
-4.137
-4.119
-4.024
-3.854
-3.61
-3.292
-2.905
-2.452
-1.939
-1.371
-0.753
-0.092
0.605
1.333
2.083
2.849
3.623
4.4
5.168
5.92
6.643
7.329
7.974
8.576
9.133
9.652
10.135
10.591
11.032
11.47
11.912
12.365
12.833
13.318
13.828
14.371
14.957
15.594
16.279
17.003
17.759
18.522
19.268
19.967
20.573
21.042
21.339
21.427
21.267
20.834
20.094
19.011
17.569
15.733
13.479
10.793
7.647
4.053
0.049
-4.349
-9.123
-14.191
-19.416
-24.568
-29.309
-33.375
-36.583
-38.708
-39.481
-38.747
-36.585
-33.363
-29.758
-26.404
-23.594
-21.628
-21.001
-21.973
-24.459
-27.625
-29.644
-28.882
-24.373
-15.985
-4.628
9.164
25.263
44.12
67.963
98.36
135.736
179.547
225.068
266.248
297.317
310.876
301.914
267.884
207.866
126.128
29.578
-75.787
-185.315
-297.075
-410.108
-520.127
-618.686
-696.088
-744.355
-760.142
-746.836
-710.498
-656.859
-591.244
-516.091
-434.373
-351.601
-273.548
-206.999
-155.938
-119.707
-95.169
-77.412
-63.029
-51.228
-42.524
-37.629
-35.805
-35.191
-33.774
-30.151
-24.243
-16.603
-7.867
1.065
9.444
16.588
21.745
24.714
25.716
25.089
23.34
20.971
18.405
16.126
14.618
14.114
14.679
16.271
18.737
21.962
25.851
30.267
35.07
40.131
45.341
50.608
55.86
61.011
65.968
70.643
74.954
78.857
82.335
85.393
88.057
90.361
92.344
94.057
95.558
96.906
98.158
99.364
100.572
101.828
103.177
104.666
106.34
108.234
110.364
112.736
115.349
118.195
121.26
124.526
127.967
131.547
135.238
139.013
142.85
146.732
150.643
154.563
158.469
162.341
166.163
169.934
173.656
177.326
180.946
184.521
188.061
191.595
195.14
198.7
202.274
205.844
209.386
212.88
216.301
219.614
222.783
225.754
228.464
230.865
232.904
234.516
235.637
236.18
236.068
235.255
233.692
231.345
228.199
224.245
219.48
213.931
207.624
200.588
192.885
184.559
175.67
166.302
156.539
146.481
136.238
125.899
115.565
105.343
95.32
85.568
76.157
67.126
58.526
50.419
42.831
35.792
29.321
23.407
18.041
13.212
8.881
5.009
1.542
-1.598
-4.468
-7.107
-9.558
-11.845
-14.007
-16.098
-18.15
-20.184
-22.22
-24.263
-26.323
-28.413
-30.525
-32.639
-34.728
-36.746
-38.663
-40.469
-42.15
-43.699
-45.106
-46.353
-47.435
-48.359
-49.13
-49.755
-50.237
-50.579
-50.79
-50.894
-50.914
-50.877
-50.806
-50.711
-50.606
-50.5
-50.402
-50.321
-50.258
-50.211
-50.179
-50.162
-50.16
-50.176
-50.209
-50.252
-50.303
-50.355
-50.406
-50.452
-50.492
-50.521
-50.54
-50.547
-50.543
-50.529
-50.507
-50.474
-50.432
-50.38
-50.316
-50.242
-50.156
-50.058
-49.948
-49.827
-49.695
-49.554
-49.405
-49.249
-49.088
-48.923
-48.757
-48.591
-48.428
-48.27
-48.118
-47.976
-47.846
-47.729
-47.627
-47.543
-47.479
-47.434
-47.412
-47.413
-47.437
-47.486
-47.561
-47.661
-47.787
-47.939
-48.118
-48.323
-48.554
-48.812
-49.095
-49.403
-49.735
-50.089
-50.465
-50.862
-51.276
-51.707
-52.153
-52.61
-53.077
-53.552
-54.031
-54.513
-54.994
-55.473
-55.946
-56.411
-56.865
-57.307
-57.734
-58.143
-58.532
-58.899
-59.243
-59.559
-59.848
-60.105
-60.33
-60.521
-60.676
-60.792
-60.869
-60.904
-60.896
-60.845
-60.748
-60.606
-60.418
-60.184
-59.906
-59.583
-59.218
-58.813
-58.37
-57.894
-57.386
-56.85
-56.29
-55.71
-55.112
-54.502
-53.883
-53.257
-52.631
-52.007
-51.391
-50.789
-50.204
-49.64
-49.103
-48.596
-48.126
-47.697
-47.31
-46.967
-46.671
-46.424
-46.232
-46.099
-46.019
-45.989
-46.004
-46.057
-46.144
-46.254
-46.366
-46.463
-46.529
-46.548
-46.519
-46.435
-46.282
-46.05
-45.725
-45.3
-44.787
-44.197
-43.532
-42.806
-42.037
-41.259
-40.532
-39.918
-39.468
-39.233
-39.252
-39.563
-40.208
-41.23
-42.672
-44.577
-46.96
-49.839
-53.215
-57.093
-61.498
-66.346
-71.446
-76.538
-81.247
-85.261
-88.407
-90.434
-91.019
-90.136
-87.913
-84.72
-81.421
-78.579
-76.347
-75.168
-75.458
-77.135
-80.101
-83.278
-84.276
-81.666
-74.532
-62.952
-48.919
-33.525
-17.095
1.893
27.191
60.934
103.641
151.743
197.217
232.651
250.609
245.42
215.741
161.484
85.038
-7.658
-111.862
-224.106
-341.159
-461.314
-579.082
-683.973
-765.146
-813.543
-826.62
-809.543
-770.335
-716.145
-651.256
-577.567
-497.43
-416.218
-341.027
-277.438
-228.086
-191.134
-162.036
-137.862
-117.253
-100.737
-90.156
-85.03
-83.45
-83.177
-81.587
-77.667
-71.727
-64.148
-55.542
-46.681
-38.177
-30.806
-25.449
-22.372
-21.413
-22.275
-24.462
-27.481
-30.917
-34.254
-36.952
-38.709
-39.408
-39.053
-37.774
-35.679
-32.85
-29.411
-25.504
-21.256
-16.777
-12.157
-7.468
-2.783
1.808
6.22
10.374
14.204
17.673
20.775
23.523
25.944
28.073
29.952
31.632
33.173
34.632
36.062
37.51
39.017
40.624
42.373
44.302
46.443
48.818
51.435
54.298
57.408
60.76
64.342
68.137
72.118
76.255
80.519
84.878
89.301
93.758
98.223
102.674
107.095
111.474
115.803
120.066
124.24
128.304
132.238
136.028
139.667
143.154
146.496
149.7
152.781
155.739
158.572
161.268
163.792
166.103
168.151
169.898
171.322
172.409
173.139
173.485
173.42
172.906
171.91
170.4
168.332
165.68
162.426
158.563
154.118
149.145
143.705
137.85
131.617
125.031
118.132
110.985
103.651
96.193
88.668
81.125
73.634
66.258
59.056
52.076
45.337
38.832
32.555
26.513
20.72
15.207
9.979
5.008
0.277
-4.227
-8.508
-12.561
-16.402
-20.053
-23.532
-26.846
-29.991
-32.947
-35.706
-38.275
-40.662
-42.888
-44.953
-46.832
-48.514
-49.994
-51.275
-52.368
-53.273
-53.981
-54.492
-54.819
-54.974
-54.977
-54.839
-54.558
-54.14
-53.585
-52.905
-52.12
-51.248
-50.3
-49.287
-48.217
-47.103
-45.962
-44.802
-43.626
-42.439
-41.243
-40.044
-38.852
-37.674
-36.517
-35.382
-34.273
-33.192
-32.141
-31.122
-30.135
-29.18
-28.256
-27.362
-26.5
-25.671
-24.875
-24.112
-23.38
-22.678
-22.007
-21.363
-20.745
-20.151
-19.578
-19.025
-18.489
-17.969
-17.462
-16.968
-16.483
-16.006
-15.534
-15.067
-14.601
-14.134
-13.666
-13.193
-12.715
-12.231
-11.739
-11.238
-10.728
-10.208
-9.677
-9.135
-8.582
-8.018
-7.443
-6.857
-6.261
-5.655
-5.041
-4.419
-3.789
-3.155
-2.517
-1.876
-1.234
-0.592
0.048
0.685
1.316
1.942
2.561
3.172
3.775
4.367
4.949
5.521
6.082
6.631
7.171
7.699
8.218
8.728
9.23
9.726
10.216
10.704
11.19
11.678
12.169
12.668
13.176
13.697
14.236
14.794
15.378
15.99
16.634
17.316
18.038
18.804
19.619
20.485
21.404
22.38
23.414
24.506
25.657
26.867
28.135
29.462
30.844
32.282
33.773
35.314
36.905
38.542
40.22
41.936
43.682
45.454
47.246
49.051
50.864
52.678
54.485
56.281
58.059
59.813
61.536
63.221
64.857
66.439
67.967
69.439
70.86
72.234
73.568
74.87
76.155
77.432
78.712
80.002
81.306
82.63
83.983
85.373
86.817
88.32
89.878
91.485
93.128
94.787
96.447
98.079
99.635
101.078
102.374
103.486
104.389
105.046
105.411
105.448
105.129
104.426
103.322
101.793
99.826
97.419
94.601
91.401
87.833
83.985
80.013
76.15
72.738
70.085
68.378
67.874
68.889
71.443
75.369
80.251
85.243
89.768
93.528
95.958
96.554
95.273
92.626
90.083
89.641
92.711
99.514
109.234
121.468
136.065
153.786
177.512
208.872
248.331
295.627
345.706
391.727
427.078
443.183
434.293
398.397
335.592
251.177
152.851
46.816
-62.577
-174.043
-286.946
-396.706
-494.605
-569.705
-612.648
-621.199
-599.262
-554.005
-493.798
-423.45
-346.15
-266.189
-187.753
-116.433
-56.552
-8.696
28.709
58.905
84.121
104.765
120.298
129.7
133.847
134.87
135.024
136.653
140.656
146.772
154.641
163.649
172.978
181.959
189.798
195.665
199.348
201.03
201.019
199.801
197.86
195.592
193.468
191.964
191.29
191.485
192.493
194.142
196.295
198.849
201.657
204.551
207.381
209.998
212.268
214.106
215.423
216.14
216.202
215.565
214.227
212.234
209.641
206.516
202.934
198.961
194.673
190.175
185.573
180.988
176.549
172.35
168.471
164.985
161.935
159.353
157.241
155.562
154.282
153.375
152.821
152.614
152.739
153.156
153.82
154.684
155.687
156.785
157.936
159.093
160.234
161.357
162.478
163.641
164.875
166.186
167.565
168.993
170.454
171.949
173.475
175.021
176.579
178.143
179.716
181.311
182.913
184.481
185.944
187.225
188.264
189.023
189.475
189.591
189.339
188.681
187.589
186.057
184.071
181.617
178.664
175.179
171.157
166.625
161.639
156.245
150.47
144.327
137.827
130.992
123.862
116.469
108.834
100.97
92.893
84.627
76.203
67.656
58.991
50.201
41.272
32.209
23.049
13.841
4.644
-4.5
-13.562
-22.504
-31.282
-39.851
-48.171
-56.204
-63.917
-71.265
-78.188
-84.628
-90.538
-95.897
-100.714
-105.014
-108.842
-112.232
-115.211
-117.811
-120.06
-121.987
-123.617
-124.977
-126.094
-127.007
-127.773
-128.438
-129.044
-129.612
-130.148
-130.643
-131.075
-131.427
-131.688
-131.847
-131.903
-131.861
-131.724
-131.503
-131.208
-130.84
-130.394
-129.866
-129.253
-128.561
-127.8
-126.988
-126.148
-125.302
-124.469
-123.665
-122.899
-122.178
-121.506
-120.881
-120.3
-119.762
-119.266
-118.814
-118.407
-118.046
-117.727
-117.449
-117.204
-116.989
-116.798
-116.624
-116.464
-116.314
-116.17
-116.032
-115.899
-115.77
-115.644
-115.519
-115.395
-115.267
-115.136
-114.998
-114.852
-114.696
-114.529
-114.352
-114.162
-113.962
-113.752
-113.531
-113.301
-113.063
-112.817
-112.566
-112.311
-112.054
-111.795
-111.539
-111.285
-111.038
-110.799
-110.57
-110.354
-110.154
-109.97
-109.807
-109.665
-109.546
-109.453
-109.387
-109.35
-109.342
-109.366
-109.421
-109.509
-109.63
-109.783
-109.968
-110.185
-110.431
-110.707
-111.011
-111.339
-111.69
-112.062
-112.45
-112.852
-113.265
-113.682
-114.101
-114.517
-114.923
-115.316
-115.689
-116.036
-116.351
-116.628
-116.86
-117.041
-117.164
-117.221
-117.207
-117.116
-116.941
-116.678
-116.321
-115.868
-115.315
-114.66
-113.902
-113.04
-112.073
-111.001
-109.824
-108.545
-107.163
-105.682
-104.105
-102.434
-100.677
-98.84
-96.93
-94.956
-92.926
-90.848
-88.731
-86.586
-84.421
-82.244
-80.066
-77.898
-75.752
-73.644
-71.585
-69.581
-67.637
-65.756
-63.937
-62.177
-60.468
-58.797
-57.155
-55.536
-53.937
-52.359
-50.796
-49.241
-47.685
-46.119
-44.538
-42.942
-41.336
-39.725
-38.126
-36.562
-35.068
-33.689
-32.461
-31.412
-30.567
-29.951
-29.597
-29.54
-29.812
-30.439
-31.43
-32.801
-34.566
-36.747
-39.349
-42.352
-45.702
-49.344
-53.272
-57.419
-61.655
-65.756
-69.368
-72.181
-73.998
-74.61
-73.756
-71.333
-67.423
-62.379
-56.991
-51.967
-47.685
-44.559
-42.982
-43.079
-44.806
-47.246
-48.364
-46.474
-40.275
-29.65
-16.11
-0.106
18.144
39.536
67.271
102.124
143.818
190.769
236.566
275.363
301.238
306.613
288.013
243.994
175.623
89.38
-8.185
-111.77
-218.834
-328.815
-436.715
-542.402
-646.338
-722.51
-744.912
-730.284
-701.655
-656.212
-593.393
-521.027
-443.156
-363.411
-286.926
-220.279
-167.858
-129.669
-103.107
-83.37
-66.897
-52.717
-41.413
-34.11
-30.355
-28.336
-25.881
-21.329
-14.484
-5.911
3.797
13.839
23.514
32.121
38.753
43.027
45.069
45.166
43.807
41.479
38.585
35.627
33.165
31.542
30.901
31.263
32.506
34.526
37.255
40.581
44.376
48.526
52.922
57.481
62.135
66.806
71.403
75.839
80.024
83.883
87.372
90.475
93.201
95.573
97.625
99.394
100.927
102.277
103.502
104.652
105.776
106.916
108.114
109.417
110.866
112.504
114.358
116.441
118.756
121.305
124.083
127.088
130.314
133.745
137.36
141.14
145.059
149.095
153.228
157.426
161.657
165.891
170.105
174.285
178.43
182.528
186.559
190.499
194.314
197.982
201.491
204.828
207.986
210.956
213.728
216.304
218.701
220.917
222.934
224.718
226.205
227.355
228.141
228.546
228.562
228.178
227.368
226.115
224.409
222.233
219.575
216.407
212.68
208.377
203.511
198.118
192.271
186.027
179.423
172.502
165.297
157.849
150.205
142.403
134.469
126.44
118.358
110.281
102.288
94.43
86.737
79.221
71.868
64.675
57.656
50.814
44.154
37.684
31.408
25.34
19.506
13.922
8.594
3.52
-1.315
-5.917
-10.279
-14.394
-18.243
-21.817
-25.112
-28.121
-30.838
-33.262
-35.395
-37.247
-38.836
-40.176
-41.278
-42.154
-42.812
-43.263
-43.522
-43.604
-43.525
-43.3
-42.946
-42.478
-41.915
-41.274
-40.567
-39.809
-39.009
-38.178
-37.328
-36.469
-35.61
-34.76
-33.927
-33.119
-32.345
-31.61
-30.92
-30.279
-29.69
-29.155
-28.677
-28.256
-27.891
-27.583
-27.33
-27.131
-26.982
-26.882
-26.828
-26.816
-26.842
-26.903
-26.995
-27.114
-27.256
-27.417
-27.593
-27.78
-27.974
-28.174
-28.374
-28.574
-28.769
-28.959
-29.142
-29.315
-29.478
-29.629
-29.769
-29.896
-30.012
-30.116
-30.211
-30.298
-30.378
-30.453
-30.526
-30.6
-30.676
-30.757
-30.846
-30.945
-31.057
-31.184
-31.327
-31.489
-31.67
-31.874
-32.1
-32.349
-32.623
-32.92
-33.242
-33.587
-33.955
-34.345
-34.754
-35.181
-35.623
-36.078
-36.542
-37.012
-37.484
-37.954
-38.416
-38.867
-39.299
-39.709
-40.089
-40.435
-40.739
-40.997
-41.202
-41.351
-41.438
-41.459
-41.412
-41.294
-41.103
-40.837
-40.495
-40.077
-39.582
-39.01
-38.363
-37.641
-36.845
-35.98
-35.048
-34.055
-33.006
-31.906
-30.763
-29.581
-28.368
-27.132
-25.878
-24.615
-23.35
-22.092
-20.851
-19.64
-18.468
-17.34
-16.261
-15.229
-14.244
-13.302
-12.398
-11.518
-10.655
-9.8
-8.946
-8.093
-7.234
-6.365
-5.478
-4.561
-3.609
-2.626
-1.617
-0.597
0.41
1.384
2.291
3.08
3.707
4.129
4.299
4.188
3.758
2.967
1.789
0.195
-1.84
-4.335
-7.307
-10.765
-14.698
-19.068
-23.84
-28.983
-34.388
-39.881
-45.21
-50.02
-54.012
-57.011
-58.783
-59.041
-57.786
-55.164
-51.55
-47.791
-44.463
-41.77
-40.169
-40.058
-41.331
-43.842
-46.582
-47.336
-44.663
-37.526
-25.77
-11.099
5.228
22.441
41.535
65.724
97.25
137.275
182.929
227.102
262.613
281.157
276.508
246.626
191.411
115.307
25.426
-72.719
-175.138
-280.498
-388.23
-493.396
-587.142
-659.397
-701.745
-712.541
-696.112
-658.557
-606.719
-545.423
-477.761
-408.671
-343.108
-284.761
-236.255
-196.565
-162.727
-133.186
-107.245
-85.577
-69.941
-60.463
-55.653
-53.531
-51.686
-48.449
-43.458
-36.882
-29.089
-20.539
-11.788
-3.402
3.932
9.491
13.07
14.798
14.921
13.868
12.056
9.85
7.703
6.079
5.235
5.278
6.209
7.918
10.316
13.329
16.845
20.738
24.893
29.212
33.615
38.041
42.427
46.696
50.771
54.586
58.079
61.221
64.006
66.443
68.556
70.381
71.955
73.327
74.556
75.694
76.792
77.896
79.045
80.28
81.644
83.172
84.899
86.847
89.028
91.451
94.123
97.039
100.193
103.57
107.15
110.908
114.82
118.854
122.974
127.153
131.364
135.586
139.806
144.007
148.174
152.296
156.351
160.324
164.2
167.959
171.587
175.08
178.437
181.679
184.828
187.886
190.844
193.681
196.363
198.861
201.136
203.13
204.804
206.122
207.055
207.593
207.717
207.386
206.555
205.165
203.152
200.49
197.169
193.185
188.56
183.316
177.496
171.182
164.439
157.315
149.851
142.063
133.99
125.711
117.303
108.847
100.431
92.109
83.93
75.949
68.198
60.707
53.484
46.5
39.746
33.236
26.99
21.053
15.438
10.113
5.06
0.261
-4.302
-8.628
-12.726
-16.618
-20.311
-23.805
-27.089
-30.136
-32.935
-35.498
-37.842
-39.995
-41.966
-43.734
-45.292
-46.641
-47.784
-48.73
-49.484
-50.038
-50.396
-50.575
-50.592
-50.471
-50.225
-49.856
-49.369
-48.765
-48.055
-47.26
-46.398
-45.478
-44.512
-43.51
-42.484
-41.451
-40.422
-39.397
-38.38
-37.374
-36.383
-35.416
-34.477
-33.571
-32.699
-31.863
-31.061
-30.296
-29.567
-28.874
-28.214
-27.585
-26.985
-26.415
-25.876
-25.367
-24.886
-24.432
-24.004
-23.602
-23.225
-22.87
-22.537
-22.223
-21.929
-21.655
-21.398
-21.16
-20.939
-20.736
-20.55
-20.383
-20.233
-20.101
-19.989
-19.896
-19.823
-19.772
-19.743
-19.738
-19.757
-19.801
-19.873
-19.972
-20.1
-20.256
-20.441
-20.655
-20.899
-21.171
-21.471
-21.797
-22.149
-22.525
-22.924
-23.345
-23.785
-24.241
-24.713
-25.196
-25.688
-26.186
-26.685
-27.183
-27.674
-28.156
-28.623
-29.072
-29.497
-29.894
-30.258
-30.584
-30.868
-31.105
-31.289
-31.416
-31.483
-31.484
-31.418
-31.282
-31.073
-30.791
-30.436
-30.007
-29.506
-28.933
-28.289
-27.575
-26.795
-25.949
-25.041
-24.074
-23.051
-21.979
-20.865
-19.714
-18.533
-17.329
-16.109
-14.881
-13.651
-12.428
-11.217
-10.025
-8.862
-7.735
-6.656
-5.634
-4.671
-3.768
-2.923
-2.134
-1.395
-0.698
-0.029
0.622
1.264
1.904
2.544
3.19
3.85
4.533
5.25
6.006
6.797
7.616
8.454
9.292
10.112
10.884
11.561
12.106
12.485
12.661
12.602
12.272
11.63
10.644
9.295
7.56
5.423
2.865
-0.131
-3.57
-7.427
-11.685
-16.341
-21.311
-26.442
-31.504
-36.14
-40.025
-42.962
-44.69
-44.895
-43.563
-40.853
-37.171
-33.373
-30.107
-27.655
-26.457
-26.931
-29.008
-32.4
-36.271
-38.647
-37.793
-32.65
-22.149
-6.562
12.848
35.425
60.491
88.424
120.593
157.195
196.698
235.027
266.828
286.761
289.644
272.135
232.275
169.732
87.691
-9.208
-116.855
-231.005
-348.236
-464.172
-569.923
-655.355
-712.219
-735.526
-727.728
-695.399
-644.488
-581.272
-509.715
-433.043
-357.25
-287.765
-228.641
-182.164
-146.409
-117.742
-93.952
-73.681
-57.379
-46.766
-41.424
-39.642
-39.282
-37.678
-33.718
-27.649
-19.861
-10.939
-1.59
7.602
15.877
22.297
26.506
28.627
28.931
27.879
25.934
23.478
21.005
19.07
17.993
17.899
18.793
20.548
23.058
26.255
30.024
34.225
38.737
43.444
48.255
53.106
57.922
62.614
67.099
71.292
75.124
78.562
81.598
84.243
86.523
88.471
90.125
91.535
92.759
93.851
94.864
95.843
96.83
97.867
99
100.271
101.718
103.366
105.228
107.31
109.616
112.14
114.879
117.819
120.945
124.241
127.694
131.289
135.013
138.849
142.779
146.781
150.836
154.922
159.018
163.104
167.156
171.153
175.073
178.893
182.592
186.148
189.537
192.737
195.724
198.477
200.974
203.196
205.125
206.741
208.031
208.981
209.58
209.817
209.685
209.178
208.291
207.023
205.374
203.345
200.94
198.165
195.027
191.536
187.703
183.541
179.064
174.29
169.234
163.917
158.358
152.579
146.601
140.447
134.14
127.705
121.166
114.546
107.87
101.162
94.446
87.746
81.082
74.479
67.955
61.532
55.227
49.059
43.045
37.199
31.536
26.068
20.807
15.764
10.946
6.36
2.014
-2.09
-5.949
-9.56
-12.923
-16.041
-18.914
-21.547
-23.944
-26.111
-28.055
-29.783
-31.303
-32.626
-33.761
-34.718
-35.508
-36.141
-36.63
-36.985
-37.217
-37.339
-37.361
-37.294
-37.149
-36.936
-36.666
-36.349
-35.993
-35.608
-35.202
-34.781
-34.354
-33.926
-33.504
-33.092
-32.696
-32.319
-31.964
-31.634
-31.332
-31.058
-30.815
-30.602
-30.419
-30.266
-30.141
-30.045
-29.976
-29.931
-29.91
-29.91
-29.93
-29.967
-30.019
-30.084
-30.16
-30.245
-30.337
-30.434
-30.534
-30.636
-30.74
-30.842
-30.944
-31.044
-31.142
-31.238
-31.331
-31.422
-31.512
-31.601
-31.69
-31.781
-31.875
-31.974
-32.08
-32.194
-32.318
-32.454
-32.603
-32.768
-32.949
-33.147
-33.363
-33.598
-33.853
-34.128
-34.423
-34.738
-35.073
-35.427
-35.799
-36.188
-36.593
-37.01
-37.438
-37.875
-38.318
-38.764
-39.21
-39.652
-40.086
-40.509
-40.915
-41.3
-41.66
-41.988
-42.279
-42.53
-42.735
-42.89
-42.992
-43.036
-43.022
-42.946
-42.809
-42.608
-42.344
-42.017
-41.626
-41.172
-40.657
-40.081
-39.446
-38.756
-38.015
-37.229
-36.403
-35.545
-34.659
-33.753
-32.834
-31.909
-30.985
-30.065
-29.157
-28.271
-27.416
-26.606
-25.849
-25.15
-24.511
-23.931
-23.407
-22.933
-22.497
-22.081
-21.673
-21.265
-20.853
-20.438
-20.015
-19.575
-19.107
-18.597
-18.04
-17.436
-16.788
-16.099
-15.385
-14.673
-14.003
-13.422
-12.965
-12.658
-12.522
-12.567
-12.82
-13.309
-14.061
-15.109
-16.468
-18.146
-20.152
-22.499
-25.19
-28.203
-31.501
-35.012
-38.701
-42.581
-46.595
-50.61
-54.404
-57.65
-60.068
-61.5
-61.72
-60.421
-57.563
-53.299
-48.068
-42.734
-37.894
-33.85
-31.117
-30.157
-31.046
-33.367
-35.701
-36.09
-33.294
-27.14
-18.306
-7.212
6.547
24.121
47.469
77.724
114.282
155.778
199.05
239.127
271.824
292.018
293.46
272.495
226.461
155.322
65.021
-38.307
-149.711
-264.375
-380.832
-495.821
-600.884
-686.873
-744.796
-769.169
-762.414
-730.244
-678.792
-614.438
-540.245
-459.277
-376.735
-297.64
-228.226
-172.564
-130.766
-100.833
-78.692
-61.25
-47.542
-37.809
-32.695
-31.395
-31.875
-31.846
-29.589
-24.834
-18.091
-9.948
-1.244
7.269
14.829
20.502
23.912
25.193
24.65
22.79
20.124
17.083
14.197
12.034
10.898
10.892
11.994
14.045
16.927
20.547
24.76
29.405
34.341
39.449
44.637
49.836
54.956
59.898
64.567
68.875
72.773
76.242
79.28
81.911
84.164
86.079
87.709
89.115
90.355
91.486
92.562
93.627
94.731
95.92
97.238
98.728
100.42
102.332
104.478
106.862
109.477
112.319
115.369
118.604
121.997
125.515
129.125
132.802
136.523
140.269
144.028
147.785
151.529
155.252
158.936
162.566
166.133
169.617
173.007
176.302
179.505
182.633
185.712
188.746
191.73
194.648
197.465
200.145
202.643
204.901
206.873
208.523
209.814
210.725
211.236
211.311
210.914
209.994
208.489
206.365
203.604
200.198
196.169
191.55
186.389
180.766
174.748
168.391
161.749
154.861
147.763
140.505
133.14
125.728
118.34
111.035
103.859
96.858
90.053
83.455
77.063
70.85
64.793
58.886
53.122
47.508
42.054
36.761
31.633
26.674
21.877
17.24
12.76
8.432
4.258
0.247
-3.59
-7.23
-10.652
-13.847
-16.808
-19.533
-22.026
-24.29
-26.331
-28.162
-29.791
-31.228
-32.479
-33.552
-34.454
-35.196
-35.791
-36.251
-36.592
-36.824
-36.96
-37.012
-36.988
-36.898
-36.75
-36.55
-36.302
-36.014
-35.693
-35.344
-34.974
-34.589
-34.195
-33.796
-33.398
-33.005
-32.619
-32.244
-31.88
-31.531
-31.197
-30.878
-30.576
-30.291
-30.022
-29.769
-29.533
-29.312
-29.105
-28.912
-28.732
-28.564
-28.406
-28.258
-28.118
-27.987
-27.862
-27.744
-27.633
-27.527
-27.426
-27.33
-27.238
-27.151
-27.066
-26.985
-26.906
-26.83
-26.756
-26.685
-26.617
-26.551
-26.49
-26.432
-26.379
-26.332
-26.291
-26.256
-26.228
-26.208
-26.197
-26.194
-26.201
-26.219
-26.246
-26.285
-26.333
-26.393
-26.462
-26.541
-26.629
-26.725
-26.827
-26.935
-27.048
-27.164
-27.282
-27.401
-27.519
-27.634
-27.746
-27.851
-27.948
-28.035
-28.109
-28.168
-28.209
-28.23
-28.229
-28.203
-28.149
-28.065
-27.947
-27.794
-27.602
-27.368
-27.091
-26.769
-26.399
-25.982
-25.517
-25.004
-24.443
-23.837
-23.188
-22.497
-21.766
-20.998
-20.197
-19.365
-18.506
-17.622
-16.717
-15.796
-14.865
-13.929
-12.995
-12.069
-11.155
-10.26
-9.391
-8.555
-7.757
-7.001
-6.292
-5.636
-5.04
-4.512
-4.057
-3.676
-3.366
-3.124
-2.944
-2.822
-2.744
-2.694
-2.657
-2.619
-2.566
-2.496
-2.4
-2.268
-2.091
-1.853
-1.549
-1.182
-0.759
-0.289
0.213
0.73
1.23
1.658
1.969
2.114
2.043
1.725
1.117
0.18
-1.112
-2.793
-4.892
-7.428
-10.424
-13.891
-17.808
-22.168
-26.963
-32.097
-37.415
-42.67
-47.51
-51.641
-54.849
-56.896
-57.503
-56.517
-54.029
-50.415
-46.352
-42.466
-39.055
-36.429
-35.095
-35.364
-37.189
-39.662
-40.921
-39.415
-34.16
-25.405
-14.424
-1.197
14.487
33.983
60.601
94.751
135.695
181.523
225.733
262.935
288.217
294.844
279.146
238.867
173.668
88.546
-9.955
-116.272
-226.624
-339.901
-454.336
-563.868
-658.644
-727.804
-763.526
-765.333
-738.506
-690.528
-628.98
-557.867
-479.765
-398.659
-319.106
-247.407
-188.402
-143.018
-109.558
-83.984
-63.404
-47.152
-35.64
-29.758
-28.498
-29.427
-30.07
-28.513
-24.31
-17.88
-9.755
-0.676
8.474
16.735
23.085
27.02
28.642
28.279
26.411
23.521
20.061
16.582
13.685
11.745
10.889
11.102
12.248
14.209
16.911
20.241
24.051
28.212
32.605
37.136
41.739
46.342
50.851
55.18
59.242
62.965
66.314
69.285
71.885
74.143
76.091
77.768
79.224
80.521
81.716
82.865
84.015
85.211
86.497
87.917
89.511
91.32
93.366
95.664
98.223
101.044
104.12
107.441
110.989
114.735
118.652
122.705
126.86
131.092
135.375
139.689
144.023
148.359
152.684
156.987
161.246
165.441
169.56
173.579
177.485
181.273
184.944
188.514
192.007
195.426
198.762
201.998
205.087
207.989
210.661
213.045
215.103
216.809
218.132
219.062
219.593
219.698
219.341
218.469
217.007
214.904
212.134
208.687
204.591
199.884
194.607
188.829
182.606
175.974
168.966
161.6
153.874
145.817
137.476
128.921
120.262
111.602
103.017
94.574
86.312
78.249
70.405
62.78
55.368
48.19
41.274
34.661
28.423
22.605
17.224
12.28
7.732
3.521
-0.388
-4.028
-7.425
-10.584
-13.514
-16.216
-18.677
-20.902
-22.905
-24.715
-26.384
-27.958
-29.457
-30.895
-32.259
-33.521
-34.665
-35.679
-36.548
-37.273
-37.854
-38.297
-38.62
-38.843
-38.974
-39.016
-38.962
-38.803
-38.543
-38.19
-37.759
-37.274
-36.754
-36.215
-35.68
-35.161
-34.67
-34.215
-33.798
-33.413
-33.063
-32.747
-32.471
-32.237
-32.048
-31.902
-31.797
-31.731
-31.699
-31.699
-31.724
-31.769
-31.83
-31.904
-31.99
-32.086
-32.19
-32.302
-32.418
-32.536
-32.654
-32.77
-32.88
-32.981
-33.071
-33.148
-33.21
-33.255
-33.283
-33.292
-33.281
-33.25
-33.2
-33.129
-33.039
-32.93
-32.802
-32.656
-32.493
-32.315
-32.122
-31.916
-31.698
-31.47
-31.233
-30.99
-30.741
-30.488
-30.233
-29.978
-29.724
-29.473
-29.227
-28.987
-28.755
-28.534
-28.325
-28.13
-27.95
-27.786
-27.64
-27.511
-27.401
-27.309
-27.236
-27.18
-27.142
-27.122
-27.118
-27.131
-27.158
-27.198
-27.251
-27.314
-27.385
-27.464
-27.546
-27.63
-27.713
-27.793
-27.867
-27.931
-27.981
-28.015
-28.029
-28.018
-27.98
-27.909
-27.803
-27.658
-27.471
-27.24
-26.962
-26.637
-26.262
-25.839
-25.368
-24.848
-24.281
-23.667
-23.01
-22.309
-21.568
-20.788
-19.972
-19.125
-18.249
-17.351
-16.435
-15.506
-14.57
-13.631
-12.697
-11.774
-10.869
-9.985
-9.127
-8.301
-7.512
-6.772
-6.084
-5.449
-4.867
-4.334
-3.848
-3.407
-3
-2.615
-2.235
-1.848
-1.447
-1.031
-0.597
-0.14
0.35
0.886
1.469
2.092
2.742
3.407
4.077
4.737
5.351
5.868
6.233
6.391
6.308
5.958
5.308
4.339
3.009
1.275
-0.889
-3.51
-6.597
-10.14
-14.153
-18.671
-23.631
-28.879
-34.171
-39.153
-43.542
-47.163
-49.794
-51.157
-51.092
-49.672
-47.268
-44.582
-42.269
-40.619
-39.893
-40.539
-42.799
-46.591
-51.068
-54.323
-54.582
-50.804
-42.916
-32.007
-18.822
-3.501
14.658
38.271
69.208
107.926
153.567
200.932
243.691
276.078
290.846
283.205
250.469
191.265
109.803
13.175
-91.823
-199.956
-309.584
-416.894
-521.174
-631.407
-733.382
-784.501
-778.536
-752.799
-720.799
-669.581
-600.39
-521.906
-438.144
-355.447
-280.755
-218.998
-172.464
-138.343
-111.917
-90.389
-72.218
-58.017
-49.572
-46.167
-45.799
-46.223
-44.889
-40.911
-34.697
-26.698
-17.596
-8.263
0.61
8.238
13.801
17.106
18.364
17.894
16.195
13.774
11.064
8.573
6.808
6.005
6.234
7.459
9.536
12.359
15.842
19.855
24.261
28.939
33.782
38.707
43.646
48.512
53.213
57.659
61.759
65.466
68.761
71.643
74.136
76.267
78.071
79.596
80.9
82.038
83.065
84.03
84.978
85.958
87.019
88.206
89.565
91.128
92.914
94.938
97.203
99.707
102.44
105.389
108.53
111.84
115.296
118.867
122.528
126.251
130.008
133.779
137.546
141.29
144.991
148.627
152.184
155.661
159.062
162.387
165.646
168.843
171.989
175.112
178.228
181.347
184.476
187.597
190.686
193.728
196.702
199.586
202.357
204.962
207.329
209.401
211.113
212.402
213.202
213.421
212.978
211.817
209.888
207.176
203.686
199.409
194.344
188.501
181.887
174.552
166.584
158.056
149.053
139.669
130
120.18
110.346
100.605
91.052
81.756
72.761
64.132
55.934
48.223
41.062
34.48
28.463
23.01
18.113
13.741
9.864
6.415
3.302
0.466
-2.136
-4.535
-6.743
-8.789
-10.714
-12.55
-14.338
-16.103
-17.846
-19.58
-21.314
-23.041
-24.753
-26.416
-27.977
-29.404
-30.685
-31.81
-32.785
-33.607
-34.267
-34.763
-35.094
-35.261
-35.271
-35.127
-34.83
-34.389
-33.82
-33.147
-32.404
-31.617
-30.8
-29.968
-29.129
-28.291
-27.464
-26.652
-25.856
-25.079
-24.323
-23.593
-22.895
-22.231
-21.601
-21.003
-20.432
-19.886
-19.364
-18.862
-18.381
-17.919
-17.476
-17.054
-16.653
-16.277
-15.926
-15.598
-15.294
-15.012
-14.752
-14.514
-14.296
-14.098
-13.918
-13.757
-13.615
-13.491
-13.386
-13.299
-13.229
-13.177
-13.141
-13.123
-13.121
-13.136
-13.167
-13.213
-13.275
-13.352
-13.443
-13.549
-13.668
-13.801
-13.945
-14.1
-14.266
-14.441
-14.624
-14.814
-15.011
-15.213
-15.421
-15.633
-15.849
-16.068
-16.291
-16.516
-16.743
-16.973
-17.203
-17.434
-17.666
-17.897
-18.128
-18.358
-18.586
-18.812
-19.036
-19.257
-19.476
-19.691
-19.903
-20.111
-20.316
-20.516
-20.712
-20.903
-21.088
-21.267
-21.439
-21.602
-21.756
-21.899
-22.029
-22.145
-22.245
-22.325
-22.385
-22.421
-22.431
-22.412
-22.363
-22.282
-22.165
-22.013
-21.825
-21.6
-21.338
-21.039
-20.703
-20.331
-19.922
-19.477
-18.996
-18.48
-17.929
-17.346
-16.732
-16.09
-15.425
-14.738
-14.034
-13.317
-12.59
-11.859
-11.126
-10.397
-9.676
-8.968
-8.278
-7.617
-6.989
-6.397
-5.84
-5.315
-4.817
-4.341
-3.878
-3.411
-2.931
-2.424
-1.88
-1.295
-0.662
0.029
0.783
1.618
2.539
3.54
4.616
5.749
6.914
8.092
9.246
10.319
11.261
12.024
12.556
12.818
12.763
12.336
11.497
10.209
8.442
6.172
3.375
0.041
-3.824
-8.177
-12.974
-18.179
-23.681
-29.299
-34.77
-39.728
-43.855
-46.965
-48.816
-49.085
-47.739
-44.91
-40.971
-36.727
-32.702
-29.125
-26.473
-25.214
-25.422
-26.606
-27.391
-25.976
-21.15
-13.225
-3.454
7.973
21.195
37.968
61.855
93.393
132.029
175.673
217.996
254.072
279.208
287.823
277.383
245.759
192.453
120.464
33.435
-64.799
-171.826
-286.378
-405.655
-523.753
-630.331
-713.822
-765.357
-781.012
-763.673
-719.973
-657.518
-583.335
-502.468
-419.857
-340.691
-270.024
-211.651
-166.398
-132.286
-105.465
-83.254
-64.731
-50.369
-41.698
-38.173
-37.8
-38.384
-37.462
-34.122
-28.744
-21.766
-13.838
-5.779
1.788
8.133
12.476
14.655
14.893
13.53
11.078
8.05
4.869
2.031
0.033
-0.894
-0.686
0.619
2.866
5.942
9.75
14.154
19.006
24.176
29.546
35.017
40.51
45.93
51.179
56.164
60.799
65.039
68.864
72.28
75.313
77.994
80.359
82.457
84.344
86.073
87.699
89.269
90.826
92.415
94.082
95.868
97.814
99.947
102.28
104.818
107.56
110.502
113.636
116.948
120.423
124.043
127.794
131.662
135.635
139.696
143.826
148.006
152.216
156.437
160.648
164.83
168.963
173.026
176.999
180.862
184.595
188.178
191.588
194.803
197.803
200.566
203.073
205.304
207.241
208.867
210.168
211.129
211.74
211.991
211.873
211.378
210.503
209.244
207.601
205.573
203.163
200.376
197.218
193.697
189.824
185.61
181.07
176.218
171.07
165.647
159.966
154.049
147.917
141.594
135.102
128.466
121.711
114.861
107.942
100.978
93.994
87.015
80.064
73.165
66.341
59.612
53.001
46.526
40.207
34.06
28.102
22.349
16.812
11.504
6.435
1.615
-2.951
-7.256
-11.296
-15.069
-18.575
-21.813
-24.786
-27.498
-29.953
-32.158
-34.119
-35.847
-37.349
-38.636
-39.72
-40.611
-41.322
-41.865
-42.254
-42.501
-42.62
-42.624
-42.526
-42.339
-42.076
-41.748
-41.369
-40.949
-40.499
-40.029
-39.549
-39.067
-38.59
-38.127
-37.683
-37.264
-36.874
-36.518
-36.197
-35.915
-35.672
-35.47
-35.308
-35.186
-35.103
-35.056
-35.045
-35.067
-35.118
-35.196
-35.298
-35.419
-35.557
-35.707
-35.867
-36.031
-36.198
-36.362
-36.522
-36.674
-36.816
-36.944
-37.057
-37.153
-37.231
-37.289
-37.327
-37.344
-37.341
-37.317
-37.274
-37.213
-37.135
-37.041
-36.934
-36.815
-36.688
-36.554
-36.416
-36.276
-36.137
-36.003
-35.876
-35.758
-35.653
-35.564
-35.493
-35.443
-35.417
-35.416
-35.444
-35.502
-35.592
-35.716
-35.876
-36.073
-36.308
-36.581
-36.894
-37.246
-37.638
-38.067
-38.533
-39.036
-39.572
-40.14
-40.739
-41.365
-42.016
-42.689
-43.382
-44.091
-44.812
-45.542
-46.277
-47.013
-47.746
-48.471
-49.184
-49.881
-50.557
-51.207
-51.827
-52.412
-52.956
-53.455
-53.904
-54.298
-54.631
-54.9
-55.101
-55.23
-55.285
-55.263
-55.163
-54.985
-54.728
-54.393
-53.98
-53.489
-52.923
-52.283
-51.572
-50.79
-49.941
-49.029
-48.06
-47.039
-45.974
-44.87
-43.735
-42.575
-41.398
-40.212
-39.023
-37.837
-36.661
-35.505
-34.379
-33.295
-32.261
-31.281
-30.358
-29.49
-28.675
-27.906
-27.173
-26.463
-25.763
-25.066
-24.367
-23.666
-22.957
-22.232
-21.482
-20.695
-19.867
-19
-18.098
-17.168
-16.229
-15.305
-14.429
-13.647
-12.995
-12.506
-12.203
-12.109
-12.258
-12.681
-13.411
-14.479
-15.892
-17.666
-19.814
-22.352
-25.288
-28.606
-32.259
-36.203
-40.426
-44.87
-49.408
-53.825
-57.794
-61.03
-63.333
-64.501
-64.271
-62.499
-59.29
-55.023
-50.41
-46.129
-42.515
-39.903
-38.791
-39.484
-41.941
-45.235
-47.455
-46.958
-42.672
-34.81
-24.647
-12.163
2.903
21.946
48.252
82.265
123.207
169.063
213.561
251.316
277.525
286.24
273.722
237.684
177.603
96.465
-0.077
-106.95
-221.012
-339.338
-459.074
-573.619
-671.818
-743.196
-780.144
-782.023
-754.869
-706.508
-644.856
-574.41
-497.726
-418.595
-341.25
-271.618
-214.302
-170.098
-137.336
-112.01
-91.204
-74.249
-61.546
-54.026
-50.791
-49.534
-47.884
-44.009
-37.536
-28.942
-18.8
-7.876
2.959
12.784
20.6
25.916
28.827
29.634
28.818
26.868
24.22
21.416
19.039
17.451
16.811
17.146
18.343
20.31
22.985
26.253
29.986
34.069
38.389
42.862
47.417
51.97
56.44
60.742
64.793
68.529
71.893
74.854
77.413
79.586
81.399
82.893
84.109
85.099
85.923
86.64
87.303
87.963
88.665
89.452
90.367
91.449
92.735
94.25
96.012
98.026
100.292
102.805
105.552
108.518
111.68
115.01
118.477
122.053
125.708
129.42
133.174
136.951
140.731
144.495
148.221
151.896
155.522
159.096
162.61
166.066
169.46
172.803
176.123
179.434
182.744
186.05
189.327
192.549
195.7
198.752
201.679
204.447
206.989
209.251
211.188
212.745
213.872
214.505
214.55
213.934
212.604
210.52
207.677
204.077
199.708
194.582
188.713
182.123
174.877
167.041
158.669
149.837
140.622
131.117
121.455
111.761
102.134
92.662
83.41
74.423
65.772
57.51
49.685
42.35
35.52
29.199
23.402
18.125
13.351
9.051
5.158
1.594
-1.693
-4.744
-7.591
-10.247
-12.745
-15.118
-17.393
-19.605
-21.772
-23.904
-26.018
-28.124
-30.22
-32.297
-34.324
-36.251
-38.051
-39.709
-41.215
-42.572
-43.775
-44.817
-45.699
-46.421
-46.983
-47.393
-47.653
-47.763
-47.734
-47.583
-47.331
-47.012
-46.652
-46.265
-45.867
-45.467
-45.074
-44.695
-44.337
-43.998
-43.682
-43.389
-43.124
-42.891
-42.692
-42.524
-42.384
-42.268
-42.17
-42.087
-42.016
-41.953
-41.898
-41.846
-41.798
-41.754
-41.714
-41.677
-41.64
-41.6
-41.556
-41.506
-41.447
-41.377
-41.294
-41.197
-41.085
-40.956
-40.812
-40.651
-40.474
-40.28
-40.07
-39.845
-39.605
-39.351
-39.086
-38.811
-38.527
-38.237
-37.942
-37.646
-37.35
-37.056
-36.767
-36.485
-36.211
-35.948
-35.697
-35.461
-35.241
-35.04
-34.858
-34.696
-34.558
-34.442
-34.35
-34.282
-34.239
-34.218
-34.221
-34.246
-34.292
-34.357
-34.44
-34.539
-34.652
-34.775
-34.906
-35.043
-35.18
-35.316
-35.447
-35.568
-35.676
-35.768
-35.838
-35.883
-35.9
-35.883
-35.829
-35.733
-35.592
-35.402
-35.161
-34.865
-34.512
-34.101
-33.632
-33.104
-32.519
-31.875
-31.176
-30.422
-29.615
-28.758
-27.854
-26.905
-25.914
-24.887
-23.828
-22.744
-21.64
-20.522
-19.395
-18.267
-17.144
-16.033
-14.94
-13.87
-12.828
-11.822
-10.858
-9.946
-9.092
-8.296
-7.558
-6.876
-6.247
-5.667
-5.126
-4.609
-4.102
-3.592
-3.068
-2.526
-1.957
-1.35
-0.696
0.02
0.804
1.651
2.555
3.507
4.497
5.508
6.51
7.451
8.285
8.963
9.438
9.674
9.629
9.263
8.547
7.445
5.926
3.975
1.575
-1.294
-4.622
-8.414
-12.68
-17.305
-22.108
-26.847
-31.18
-34.825
-37.599
-39.237
-39.416
-38.094
-35.443
-31.878
-28.121
-24.672
-21.689
-19.456
-18.424
-18.642
-19.827
-21.28
-21.406
-18.645
-12.133
-0.828
15.237
34.228
54.605
74.677
94.814
118.643
148.991
187.44
231.095
272.241
302.986
314.708
301.447
261.924
197.427
113.492
17.538
-85.07
-191.4
-300.491
-410.466
-515.334
-605.18
-669.332
-700.996
-699.85
-670.668
-621.108
-558.942
-489.939
-419.108
-351.139
-289.591
-236.801
-193.365
-157.718
-127.19
-100.299
-76.773
-57.309
-43.608
-35.622
-31.48
-28.961
-25.592
-20.176
-12.936
-4.297
5.371
15.585
25.756
35.117
42.703
48.051
51.273
52.63
52.524
51.376
49.544
47.504
45.819
44.836
44.71
45.488
47.069
49.371
52.348
55.896
59.9
64.254
68.851
73.611
78.473
83.358
88.193
92.896
97.389
101.603
105.481
108.989
112.126
114.907
117.356
119.509
121.405
123.09
124.623
126.058
127.444
128.825
130.241
131.732
133.344
135.12
137.098
139.301
141.738
144.411
147.314
150.437
153.762
157.262
160.906
164.667
168.522
172.455
176.451
180.493
184.561
188.63
192.685
196.719
200.731
204.726
208.709
212.689
216.68
220.708
224.795
228.952
233.178
237.458
241.766
246.073
250.352
254.577
258.707
262.689
266.456
269.937
273.07
275.788
278.017
279.663
280.634
280.862
280.302
278.935
276.763
273.792
270.026
265.482
260.194
254.211
247.603
240.444
232.786
224.697
216.265
207.604
198.849
190.104
181.447
172.932
164.599
156.488
148.648
141.112
133.895
127.008
120.449
114.225
108.372
102.903
97.803
93.034
88.529
84.241
80.153
76.256
72.543
69.007
65.632
62.414
59.367
56.495
53.801
51.275
48.879
46.595
44.426
42.388
40.517
38.838
37.353
36.066
34.981
34.1
33.426
32.95
32.649
32.508
32.521
32.684
33.011
33.501
34.143
34.922
35.814
36.798
37.863
38.992
40.169
41.378
42.608
43.853
45.114
46.39
47.674
48.96
50.238
51.502
52.748
53.976
55.183
56.368
57.531
58.671
59.79
60.889
61.968
63.024
64.055
65.056
66.027
66.966
67.871
68.739
69.568
70.357
71.104
71.808
72.466
73.076
73.635
74.139
74.586
74.972
75.294
75.548
75.73
75.837
75.865
75.809
75.665
75.43
75.099
74.668
74.132
73.488
72.733
71.862
70.873
69.763
68.53
67.172
65.688
64.077
62.338
60.472
58.481
56.365
54.127
51.769
49.295
46.709
44.016
41.22
38.328
35.347
32.283
29.145
25.94
22.678
19.366
16.016
12.637
9.239
5.834
2.431
-0.958
-4.322
-7.651
-10.933
-14.158
-17.315
-20.394
-23.385
-26.278
-29.065
-31.736
-34.284
-36.703
-38.987
-41.131
-43.13
-44.984
-46.689
-48.246
-49.655
-50.916
-52.032
-53.006
-53.842
-54.545
-55.118
-55.567
-55.902
-56.128
-56.256
-56.295
-56.253
-56.14
-55.967
-55.744
-55.483
-55.194
-54.885
-54.565
-54.243
-53.93
-53.638
-53.375
-53.146
-52.952
-52.798
-52.682
-52.605
-52.562
-52.54
-52.526
-52.508
-52.478
-52.432
-52.366
-52.27
-52.137
-51.954
-51.714
-51.423
-51.086
-50.706
-50.294
-49.861
-49.439
-49.077
-48.83
-48.753
-48.895
-49.298
-49.996
-51.022
-52.414
-54.215
-56.464
-59.182
-62.389
-66.081
-70.263
-74.977
-80.155
-85.623
-91.125
-96.288
-100.796
-104.473
-107.066
-108.241
-107.931
-106.243
-103.56
-100.679
-98.101
-96.029
-94.897
-95.079
-96.612
-99.098
-101.139
-100.852
-97.091
-89.763
-79.66
-67.316
-52.379
-33.608
-8.934
22.759
60.807
103.656
147.917
188.898
222.685
243.869
246.294
225.83
179.422
108.619
20.27
-78.55
-181.847
-286.798
-393.704
-500.533
-600.788
-684.912
-742.705
-768.123
-761.896
-728.98
-676.693
-612.517
-541.956
-470.038
-401.022
-338.169
-283.78
-238.245
-200.656
-168.789
-140.772
-116.002
-94.882
-79.488
-71.133
-69.245
-71.498
-72.746
-68.129
-55.054
-33.206
-7.262
